
6.15755 0 1
6.2731 0 1
6.3887 0 1
6.50437 0 1
6.62009 0 1
6.73587 0 1
6.8517 0 1
6.96759 0 1
7.08353 0 1
7.19952 0 1
7.31557 0 1
7.43166 0 1
7.54781 0 1
7.664 0 1
7.78024 0 1
7.89653 0 1
8.01286 0 1
8.12924 0 1
8.24567 0 1
8.36213 0 1
8.47864 0 1
8.59519 0 1
8.71178 0 1
8.82841 0 1
8.94508 0 1
9.06179 0 1
9.17853 0 1
9.29531 0 1
9.41212 0 1
9.52897 0 1
9.64584 0 1
9.76276 0 1
9.8797 0 1
9.99667 0 1
10.1137 0 1
10.2307 0 1
10.3478 0 1
10.4648 0 1
10.5819 0 1
10.6991 0 1
10.8162 0 1
10.9334 0 1
11.0506 0 1
11.1678 0 1
11.285 0 1
11.4023 0 1
11.5196 0 1
11.6369 0 1
11.7542 0 1
11.8715 0 1
11.9888 0 1
12.1062 0 1
12.2235 0 1
12.3409 0 1
12.4582 0 1
12.5756 0 1
12.693 0 1
12.8104 0 1
12.9278 0 1
13.0452 0 1
13.1626 0 1
13.28 0 1
13.3974 0 1
13.5149 0 1
13.6323 0 1
13.7497 0 1
13.8671 0 1
13.9845 0 1
14.1019 0 1
14.2193 0 1
14.3367 0 1
14.4541 0 1
14.5714 0 1
14.6888 0 1
14.8062 0 1
14.9235 0 1
15.0408 55074 234.679
15.1581 57583 239.965
15.2755 58625 242.126
15.3927 58497 241.862
15.51 57639 240.081
15.6273 57201 239.167
15.7445 56442 237.575
15.8617 57613 240.027
15.9789 58598 242.07
16.0961 59123 243.152
16.2132 59663 244.26
16.3304 60830 246.637
16.4475 61391 247.772
16.5646 62249 249.497
16.6816 63675 252.339
16.7986 65001 254.953
16.9156 65186 255.315
17.0326 66776 258.411
17.1496 67648 260.092
17.2665 68136 261.029
17.3833 67993 260.755
17.5002 68010 260.787
17.617 67890 260.557
17.7338 67062 258.963
17.8505 66216 257.325
17.9672 65186 255.315
18.0839 64978 254.908
18.2005 65319 255.576
18.3171 66276 257.441
18.4337 67574 259.95
18.5502 68895 262.479
18.6666 70513 265.543
18.7831 70781 266.047
18.8994 70914 266.297
19.0158 68830 262.355
19.1321 66575 258.021
19.2483 64347 253.667
19.3645 63535 252.062
19.4806 63147 251.291
19.5967 61566 248.125
19.7128 58358 241.574
19.8288 54174 232.753
19.9447 46714 216.134
20.0606 0 1
20.1764 0 1
20.2922 0 1
20.4079 0 1
20.5236 0 1
20.6392 0 1
20.7548 0 1
20.8702 0 1
23.3078 0 1
23.4233 0 1
23.539 0 1
23.6547 0 1
23.7704 0 1
23.8862 0 1
24.0021 0 1
24.118 0 1
24.234 0 1
24.35 0 1
24.4661 36218 190.31
24.5822 42395 205.9
24.6984 48960 221.269
24.8146 55122 234.781
24.9309 60307 245.575
25.0472 64987 254.925
25.1636 69520 263.666
25.28 74373 272.714
25.3965 78974 281.023
25.513 82981 288.064
25.6296 86915 294.814
25.7462 89086 298.473
25.8628 90092 300.153
25.9795 91871 303.102
26.0962 92199 303.643
26.213 92316 303.835
26.3298 92195 303.636
26.4466 90070 300.117
26.5635 90150 300.25
26.6804 90515 300.857
26.7973 91213 302.015
26.9143 91475 302.448
27.0313 93787 306.247
27.1483 96552 310.728
27.2653 98722 314.201
27.3824 99681 315.723
27.4996 99873 316.027
27.6167 97863 312.831
27.7339 95869 309.627
27.8511 93861 306.367
27.9683 92333 303.863
28.0855 92958 304.89
28.2028 93443 305.684
28.3201 94851 307.979
28.4374 92352 303.895
28.5547 91802 302.988
28.6721 90541 300.9
28.7894 89856 299.76
28.9068 90349 300.581
29.0242 91001 301.664
29.1416 92061 303.416
29.259 94132 306.809
29.3764 94101 306.759
29.4939 94519 307.439
29.6113 94898 308.055
29.7288 94947 308.135
29.8463 95036 308.279
29.9638 95020 308.253
30.0812 95410 308.885
30.1987 95856 309.606
30.3162 96743 311.035
30.4337 98858 314.417
30.5512 100995 317.797
30.6687 103741 322.088
30.7862 104864 323.827
30.9037 106893 326.945
31.0212 107494 327.863
31.1387 106213 325.903
31.2562 104657 323.507
31.3737 102501 320.158
31.4912 101472 318.547
31.6087 101363 318.376
31.7262 102653 320.395
31.8436 102236 319.744
31.9611 101804 319.067
32.0785 99738 315.813
32.1959 98425 313.728
32.3134 97478 312.215
32.4308 97790 312.714
32.5482 99602 315.598
32.6655 100464 316.961
32.7829 101891 319.204
32.9002 102716 320.493
33.0176 103188 321.229
33.1349 103855 322.265
33.2522 104712 323.592
33.3694 104255 322.885
33.4867 105148 324.265
33.6039 105925 325.461
33.7211 106520 326.374
33.8383 107084 327.237
33.9554 107797 328.325
34.0725 110088 331.795
34.1896 111889 334.498
34.3067 115043 339.18
34.4237 117376 342.602
34.5407 119052 345.039
34.6577 120435 347.037
34.7746 120984 347.828
34.8915 119373 345.504
35.0084 117618 342.955
35.1252 115788 340.276
35.242 115378 339.673
35.3587 117052 342.129
35.4755 118248 343.872
35.5921 117536 342.835
35.7088 115432 339.753
35.8254 111605 334.073
35.9419 107870 328.436
36.0584 103983 322.464
36.1749 101626 318.788
36.2913 98811 314.342
36.4077 97573 312.367
36.524 96768 311.076
36.6403 95381 308.838
36.7565 94849 307.976
36.8727 93936 306.49
36.9889 91465 302.432
37.1049 85441 292.303
37.221 0 1
37.3369 0 1
37.4529 0 1
37.5687 0 1
37.6845 0 1
37.8003 0 1
37.916 0 1
38.0316 0 1
38.1472 0 1
40.5851 0 1
40.7008 0 1
40.8164 0 1
40.9322 0 1
41.048 0 1
41.1639 0 1
41.2798 0 1
41.3958 0 1
41.5118 0 1
41.6279 0 1
41.744 65262 255.464
41.8602 73030 270.241
41.9765 81058 284.707
42.0928 89304 298.838
42.2091 98106 313.219
42.3255 107587 328.005
42.4419 116414 341.195
42.5584 123245 351.063
42.675 128065 357.862
42.7915 132604 364.148
42.9081 139749 373.83
43.0248 148741 385.67
43.1415 156650 395.79
43.2582 164264 405.295
43.375 168200 410.122
43.4918 171453 414.069
43.6087 171975 414.699
43.7256 171880 414.584
43.8425 171279 413.859
43.9595 167066 408.737
44.0765 166532 408.083
44.1935 168847 410.91
44.3106 172569 415.414
44.4277 172610 415.464
44.5448 168052 409.941
44.6619 160872 401.089
44.7791 153804 392.179
44.8963 144162 379.687
45.0136 139886 374.013
45.1308 139076 372.929
45.2481 139207 373.105
45.3654 140774 375.199
45.4827 143697 379.074
45.6001 150629 388.11
45.7174 160129 400.161
45.8348 166983 408.636
45.9522 174482 417.71
46.0697 178346 422.31
46.1871 181477 426.001
46.3046 181627 426.177
46.422 182752 427.495
46.5395 187810 433.371
46.657 192684 438.958
46.7745 197533 444.447
46.892 201983 449.425
47.0096 204762 452.506
47.1271 207361 455.369
47.2446 207522 455.546
47.3622 206621 454.556
47.4797 202726 450.251
47.5973 198348 445.363
47.7149 197295 444.179
47.8324 199571 446.734
47.95 203727 451.361
48.0675 196158 442.897
48.1851 191331 437.414
48.3027 179571 423.758
48.4202 163739 404.647
48.5378 151053 388.655
48.6554 143652 379.015
48.7729 142167 377.05
48.8904 142028 376.866
49.008 145061 380.869
49.1255 152135 390.045
49.243 164061 405.044
49.3605 175208 418.579
49.478 184412 429.432
49.5955 188366 434.012
49.713 189041 434.788
49.8304 188626 434.311
49.9479 189279 435.062
50.0653 190619 436.599
50.1827 195804 442.497
50.3001 199273 446.4
50.4175 202074 449.526
50.5348 204475 452.189
50.6521 204479 452.194
50.7694 205131 452.914
50.8867 201632 449.035
51.004 198282 445.289
51.1212 191834 437.989
51.2384 190861 436.876
51.3556 192763 439.048
51.4727 194818 441.382
51.5899 193805 440.233
51.707 184494 429.528
51.824 173263 416.249
51.9411 156343 395.402
52.0581 140840 375.287
52.175 133599 365.512
52.2919 130694 361.516
52.4088 129235 359.493
52.5257 131212 362.232
52.6425 136847 369.928
52.7593 143067 378.242
52.876 148957 385.949
52.9927 153202 391.41
53.1094 154260 392.759
53.226 154938 393.622
53.3426 151700 389.487
53.4591 145207 381.06
53.5756 140475 374.8
53.692 134364 366.557
53.8084 129578 359.969
53.9248 127147 356.577
54.0411 121434 348.474
54.1573 114071 337.744
54.2735 0 1
54.3896 0 1
54.5057 0 1
54.6217 0 1
54.7377 0 1
54.8537 0 1
54.9695 0 1
55.0853 0 1
55.2011 0 1
55.3168 0 1
55.4324 0 1
57.824 0 1
57.9396 0 1
58.0553 0 1
58.1711 0 1
58.2869 0 1
58.4028 0 1
58.5187 0 1
58.6347 0 1
58.7508 0 1
58.8669 0 1
58.983 103958 322.425
59.0992 117186 342.324
59.2155 127765 357.442
59.3318 135894 368.638
59.4482 142679 377.729
59.5646 147476 384.026
59.681 150991 388.576
59.7975 153200 391.408
59.9141 155460 394.284
60.0306 158492 398.111
60.1473 162942 403.661
60.2639 164516 405.606
60.3807 162680 403.336
60.4974 155443 394.263
60.6142 143652 379.015
60.731 128034 357.818
60.8479 114654 338.606
60.9648 105914 325.444
61.0818 102666 320.415
61.1987 103877 322.3
61.3158 110867 332.967
61.4328 123140 350.913
61.5499 136525 369.493
61.667 148488 385.341
61.7841 156106 395.103
61.9013 159615 399.518
62.0185 159059 398.822
62.1357 157549 396.924
62.253 155833 394.757
62.3702 156468 395.56
62.4875 158253 397.81
62.6049 160595 400.743
62.7222 162381 402.965
62.8396 163072 403.822
62.9569 163544 404.406
63.0743 161913 402.384
63.1918 159103 398.877
63.3092 155420 394.233
63.4267 153368 391.622
63.5441 151710 389.5
63.6616 153437 391.71
63.7791 153588 391.903
63.8966 149102 386.137
64.0142 141367 375.988
64.1317 129762 360.225
64.2492 114616 338.55
64.3668 100577 317.139
64.4843 91445 302.399
64.6019 87656 296.068
64.7195 87435 295.694
64.837 91167 301.939
64.9546 101027 317.847
65.0722 115183 339.386
65.1898 127507 357.081
65.3074 137445 370.736
65.4249 141011 375.514
65.5425 142480 377.465
65.6601 141143 375.69
65.7777 138211 371.767
65.8952 137127 370.307
66.0128 138180 371.726
66.1304 140347 374.629
66.2479 142229 377.133
66.3655 143592 378.935
66.483 144744 380.452
66.6005 144051 379.541
66.718 142946 378.082
66.8355 140794 375.225
66.953 137257 370.482
67.0705 134495 366.736
67.1879 134220 366.36
67.3054 136059 368.862
67.4228 136340 369.242
67.5402 133311 365.118
67.6576 125526 354.296
67.7749 115460 339.794
67.8923 100749 317.41
68.0096 87420 295.669
68.1269 79733 282.37
68.2442 75619 274.989
68.3614 75260 274.336
68.4787 78751 280.626
68.5958 87934 296.537
68.713 100718 317.361
68.8302 114469 338.333
68.9473 124042 352.196
69.0643 128805 358.894
69.1814 131191 362.203
69.2984 128076 357.877
69.4154 121878 349.11
69.5323 117321 342.522
69.6492 114805 338.829
69.7661 114732 338.721
69.8829 114134 337.837
69.9997 115076 339.229
70.1165 114932 339.016
70.2332 113004 336.161
70.3499 109792 331.349
70.4665 104127 322.687
70.5831 98111 313.227
70.6996 91585 302.63
70.8161 85865 293.027
70.9326 82646 287.482
71.049 79942 282.74
71.1653 75573 274.905
71.2817 70131 264.823
71.3979 62662 250.324
71.5141 53694 231.72
71.6303 42755 206.773
71.7464 29540 171.872
71.8624 0 1
71.9784 0 1
72.0944 0 1
72.2102 0 1
72.3261 0 1
72.4418 0 1
72.5575 0 1
72.6732 0 1
75.1054 0 1
75.2209 0 1
75.3365 0 1
75.4521 0 1
75.5678 0 1
75.6835 0 1
75.7993 0 1
75.9151 0 1
76.031 0 1
76.147 75862 275.431
76.263 83391 288.775
76.3791 88378 297.284
76.4952 88018 296.678
76.6113 86716 294.476
76.7276 82851 287.838
76.8438 78196 279.635
76.9601 71508 267.41
77.0765 65061 255.071
77.1929 62663 250.326
77.3093 61639 248.272
77.4258 62955 250.908
77.5423 70192 264.938
77.6589 81201 284.958
77.7755 95284 308.681
77.8921 106678 326.616
78.0088 112301 335.113
78.1256 115146 339.332
78.2423 114436 338.284
78.3591 111588 334.048
78.4759 107880 328.451
78.5928 106741 326.712
78.7097 107124 327.298
78.8266 106223 325.919
78.9436 113834 337.393
79.0606 112353 335.191
79.1776 114273 338.043
79.2946 114953 339.047
79.4117 115327 339.598
79.5288 113444 336.814
79.6459 112130 334.858
79.7631 109925 331.549
79.8802 109748 331.282
79.9974 111926 334.553
80.1147 113645 337.113
80.2319 110553 332.495
80.3491 103369 321.51
80.4664 95800 309.516
80.5837 84554 290.782
80.701 73615 271.321
80.8183 66491 257.858
80.9357 63640 252.27
81.053 63296 251.587
81.1704 66971 258.788
81.2877 75758 275.242
81.4051 90334 300.556
81.5225 104954 323.966
81.6399 110995 333.159
81.7573 116715 341.636
81.8747 115999 340.586
81.9922 115094 339.255
82.1096 111391 333.753
82.227 107627 328.066
82.3444 106062 325.672
82.4619 108140 328.846
82.5793 110140 331.873
82.6967 113221 336.483
82.8142 114308 338.095
82.9316 115072 339.223
83.049 115594 339.991
83.1664 113902 337.494
83.2838 113050 336.229
83.4012 110886 332.995
83.5186 109674 331.171
83.636 109316 330.63
83.7534 109845 331.429
83.8708 106808 326.815
83.9881 100563 317.117
84.1055 94458 307.34
84.2228 87399 295.633
84.3401 78185 279.616
84.4575 69641 263.896
84.5747 65878 256.667
84.692 66757 258.374
84.8093 72926 270.048
84.9265 85056 291.644
85.0437 97600 312.41
85.1609 108539 329.453
85.2781 118616 344.407
85.3952 124412 352.721
85.5123 124229 352.461
85.6294 121802 349.001
85.7465 118491 344.225
85.8636 117345 342.557
85.9806 119623 345.866
86.0976 121957 349.223
86.2145 123988 352.119
86.3315 128602 358.611
86.4484 124157 352.359
86.5652 125287 353.959
86.682 121959 349.226
86.7988 119028 345.004
86.9156 115898 340.438
87.0323 111937 334.57
87.149 108397 329.237
87.2657 106245 325.952
87.3823 104923 323.918
87.4988 101122 317.997
87.6154 94649 307.651
87.7318 87715 296.167
87.8483 78595 280.348
87.9647 67571 259.944
88.081 60050 245.051
88.1973 55164 234.87
88.3136 51861 227.73
88.4298 54367 233.167
88.546 60695 246.364
88.6621 68134 261.025
88.7781 74466 272.885
88.8942 0 1
89.0101 0 1
89.126 0 1
89.2419 0 1
89.3577 0 1
89.4734 0 1
89.5891 0 1
89.7047 0 1
89.8203 0 1
89.9358 0 1
92.3269 0 1
92.4424 0 1
92.558 0 1
92.6736 0 1
92.7893 0 1
92.905 0 1
93.0208 0 1
93.1366 0 1
93.2525 0 1
93.3685 0 1
93.4845 0 1
93.6005 78362 279.932
93.7167 85383 292.204
93.8328 95813 309.537
93.949 111418 333.793
94.0653 129540 359.917
94.1816 144696 380.389
94.2979 159945 399.931
94.4143 173225 416.203
94.5307 182876 427.64
94.6472 192784 439.072
94.7637 197109 443.97
94.8803 198520 445.556
94.9969 196898 443.732
95.1135 194077 440.542
95.2302 197201 444.073
95.3469 199347 446.483
95.4637 201971 449.412
95.5805 202477 449.974
95.6973 199125 446.234
95.8142 196121 442.856
95.9311 192728 439.008
96.048 188061 433.66
96.1649 182969 427.749
96.2819 177955 421.847
96.3989 176606 420.245
96.516 173128 416.087
96.633 166491 408.033
96.7501 155303 394.085
96.8673 144109 379.617
96.9844 135214 367.715
97.1016 126080 355.077
97.2188 119448 345.612
97.336 116118 340.761
97.4532 119861 346.209
97.5704 132099 363.454
97.6877 150046 387.358
97.805 169914 412.206
97.9223 192186 438.39
98.0396 213398 461.95
98.1569 228597 478.118
98.2743 238508 488.373
98.3916 243846 493.808
98.509 248540 498.538
98.6264 245208 495.185
98.7438 241714 491.644
98.8612 239473 489.36
98.9786 241218 491.139
99.096 242553 492.497
99.2134 238556 488.422
99.3308 232267 481.941
99.4482 224580 473.899
99.5656 216822 465.641
99.6831 208741 456.882
99.8005 203531 451.144
99.9179 199185 446.301
100.035 198669 445.723
100.153 194711 441.261
100.27 182123 426.759
100.388 162674 403.329
100.505 145066 380.875
100.622 132760 364.362
100.74 125496 354.254
100.857 121916 349.165
100.975 122786 350.408
101.092 127903 357.635
101.209 144559 380.209
101.327 168239 410.169
101.444 193879 440.317
101.561 217366 466.225
101.679 233653 483.377
101.796 241780 491.711
101.913 248158 498.155
102.03 247086 497.077
102.148 242191 492.129
102.265 239137 489.016
102.382 226945 476.387
102.499 227482 476.951
102.616 226272 475.681
102.733 224788 474.118
102.851 221149 470.265
102.968 218060 466.969
103.085 211719 460.129
103.202 203921 451.576
103.319 199287 446.416
103.436 196176 442.918
103.552 195014 441.604
103.669 193801 440.228
103.786 187056 432.5
103.903 172001 414.73
104.02 152324 390.287
104.137 136262 369.137
104.253 123613 351.586
104.37 113843 337.406
104.487 113431 336.795
104.603 115412 339.723
104.72 122852 350.502
104.836 133708 365.661
104.953 145829 381.876
105.069 152578 390.612
105.186 154235 392.728
105.302 152441 390.437
105.418 145757 381.781
105.535 136351 369.257
105.651 124984 353.531
105.767 113326 336.639
105.883 102950 320.858
105.999 94106 306.767
106.115 0 1
106.231 0 1
106.347 0 1
106.463 0 1
106.579 0 1
106.694 0 1
106.81 0 1
106.926 0 1
107.041 0 1
107.157 0 1
109.576 0 1
109.692 0 1
109.807 0 1
109.923 0 1
110.039 0 1
110.155 0 1
110.27 0 1
110.386 0 1
110.502 0 1
110.618 111042 333.23
110.735 119155 345.188
110.851 124600 352.987
110.967 132764 364.368
111.083 145697 381.703
111.199 157967 397.451
111.316 168412 410.38
111.432 176515 420.137
111.549 181326 425.824
111.665 184165 429.144
111.782 185727 430.961
111.898 186347 431.679
112.015 183151 427.961
112.132 183171 427.985
112.248 184855 429.948
112.365 185540 430.744
112.482 179129 423.236
112.599 160530 400.662
112.716 140226 374.468
112.832 124774 353.234
112.949 113598 337.043
113.066 108189 328.921
113.183 109621 331.091
113.3 113481 336.869
113.417 123992 352.125
113.534 145411 381.328
113.652 169065 411.175
113.769 184056 429.017
113.886 192629 438.895
114.003 196141 442.878
114.12 195982 442.699
114.238 190954 436.983
114.355 183406 428.259
114.472 179594 423.785
114.589 179332 423.476
114.707 185588 430.799
114.824 189399 435.2
114.942 191807 437.958
115.059 193983 440.435
115.176 193229 439.578
115.294 190538 436.507
115.411 189407 435.209
115.529 185127 430.264
115.646 181108 425.568
115.764 180695 425.082
115.881 179990 424.252
115.999 179026 423.115
116.116 170483 412.896
116.234 154005 392.435
116.351 136278 369.159
116.469 122365 349.807
116.586 113891 337.477
116.704 110669 332.67
116.821 111644 334.132
116.939 115845 340.36
117.056 128841 358.944
117.174 148874 385.842
117.291 167080 408.754
117.409 178806 422.855
117.526 186534 431.896
117.644 186465 431.816
117.761 186851 432.263
117.879 180298 424.615
117.996 172839 415.739
118.114 170886 413.384
118.231 172688 415.557
118.349 179411 423.569
118.466 181469 425.992
118.584 182524 427.228
118.701 183299 428.134
118.819 181561 426.1
118.936 179097 423.199
119.053 176318 419.902
119.171 173432 416.452
119.288 170061 412.385
119.405 168630 410.646
119.523 169054 411.162
119.64 166906 408.541
119.757 162165 402.697
119.875 149859 387.116
119.992 134802 367.154
120.109 121595 348.705
120.226 114053 337.717
120.343 109581 331.03
120.46 108822 329.882
120.578 111006 333.176
120.695 116075 340.698
120.812 129116 359.327
120.929 144710 380.408
121.046 154223 392.712
121.163 158287 397.853
121.279 161003 401.252
121.396 159479 399.348
121.513 156382 395.452
121.63 149337 386.441
121.747 140438 374.751
121.863 138711 372.439
121.98 138983 372.804
122.097 139429 373.402
122.213 136751 369.799
122.33 133157 364.907
122.446 128808 358.898
122.563 122569 350.099
122.679 116082 340.708
122.795 108069 328.738
122.912 100705 317.341
123.028 94042 306.663
123.144 87336 295.527
123.26 80783 284.224
123.377 0 1
123.493 0 1
123.609 0 1
123.725 0 1
123.84 0 1
123.956 0 1
124.072 0 1
124.188 0 1
124.303 0 1
124.419 0 1
126.852 0 1
126.968 0 1
127.083 0 1
127.199 0 1
127.315 0 1
127.431 0 1
127.547 0 1
127.663 0 1
127.779 0 1
127.895 0 1
128.011 0 1
128.127 0 1
128.243 0 1
128.359 159895 399.869
128.476 163504 404.356
128.592 167762 409.588
128.708 171530 414.162
128.825 171021 413.547
128.941 165265 406.528
129.058 154083 392.534
129.174 145021 380.816
129.291 137603 370.949
129.408 132755 364.356
129.524 130337 361.022
129.641 129580 359.972
129.758 131797 363.039
129.875 141162 375.715
129.992 154823 393.476
130.108 165923 407.336
130.225 175752 419.228
130.342 182893 427.66
130.459 180989 425.428
130.576 183089 427.889
130.693 175813 419.301
130.81 172976 415.904
130.928 174938 418.256
131.045 178854 422.911
131.162 182030 426.65
131.279 185029 430.15
131.396 185238 430.393
131.513 183317 428.155
131.631 181742 426.312
131.748 177624 421.455
131.865 175007 418.338
131.983 170654 413.103
132.1 169304 411.466
132.217 168895 410.968
132.335 166994 408.649
132.452 163219 404.004
132.57 156198 395.219
132.687 144408 380.011
132.804 139483 373.474
132.922 132060 363.401
133.039 127914 357.651
133.157 126178 355.215
133.274 125280 353.949
133.392 129299 359.582
133.509 137489 370.795
133.627 147977 384.678
133.744 157749 397.176
133.862 164925 406.11
133.979 170323 412.702
134.097 171053 413.586
134.214 167484 409.248
134.332 163296 404.099
134.449 163969 404.931
134.567 167836 409.678
134.684 172168 414.931
134.802 174288 417.478
134.919 177151 420.893
135.037 174873 418.178
135.154 173586 416.637
135.272 171153 413.706
135.389 169686 411.93
135.507 166123 407.582
135.624 163806 404.73
135.742 163813 404.738
135.859 163428 404.262
135.977 162854 403.552
136.094 159916 399.895
136.211 153529 391.828
136.329 147369 383.887
136.446 140976 375.468
136.564 137101 370.272
136.681 134482 366.718
136.798 131550 362.698
136.915 129746 360.203
137.033 130342 361.029
137.15 135160 367.641
137.267 141928 376.733
137.384 150296 387.68
137.502 155911 394.856
137.619 160016 400.02
137.736 163474 404.319
137.853 156266 395.305
137.97 157773 397.206
138.087 153820 392.199
138.204 158580 398.221
138.321 160052 400.065
138.438 159378 399.222
138.555 158814 398.515
138.672 155706 394.596
138.788 151608 389.369
138.905 145187 381.034
139.022 141032 375.542
139.139 134480 366.715
139.255 126924 356.264
139.372 121625 348.748
139.488 117332 342.538
139.605 112103 334.818
139.721 106354 326.12
139.838 99326 315.16
139.954 91479 302.455
140.071 83167 288.387
140.187 76529 276.639
140.303 69267 263.186
140.419 63213 251.422
140.535 57712 240.233
140.652 52641 229.436
140.768 0 1
140.884 0 1
141 0 1
141.115 0 1
141.231 0 1
141.347 0 1
141.463 0 1
141.578 0 1
141.694 0 1
144.104 0 1
144.219 0 1
144.335 0 1
144.45 0 1
144.566 0 1
144.682 0 1
144.798 0 1
144.914 0 1
145.03 0 1
145.146 104301 322.957
145.262 107602 328.027
145.378 107903 328.486
145.494 106988 327.09
145.61 105861 325.363
145.726 104689 323.557
145.842 104608 323.432
145.959 105232 324.395
146.075 107609 328.038
146.192 111812 334.383
146.308 113794 337.334
146.425 117450 342.71
146.541 118725 344.565
146.658 117388 342.619
146.774 116071 340.692
146.891 116634 341.517
147.008 121432 348.471
147.125 122062 349.374
147.241 125159 353.778
147.358 127592 357.2
147.475 127411 356.947
147.592 126593 355.799
147.709 124712 353.146
147.826 122856 350.508
147.943 120901 347.708
148.06 119573 345.793
148.177 117639 342.985
148.294 119150 345.181
148.411 120693 347.409
148.528 120914 347.727
148.645 121709 348.868
148.762 121233 348.185
148.88 121395 348.418
148.997 121796 348.993
149.114 116282 341.001
149.231 114871 338.926
149.349 114630 338.571
149.466 110505 332.423
149.583 109711 331.227
149.701 109519 330.937
149.818 109286 330.584
149.935 112041 334.725
150.053 114952 339.046
150.17 117010 342.067
150.287 117761 343.163
150.405 116222 340.913
150.522 116539 341.378
150.64 118888 344.801
150.757 122085 349.407
150.875 125330 354.02
150.992 127572 357.172
151.11 127071 356.47
151.227 126951 356.302
151.344 125117 353.719
151.462 123272 351.101
151.579 119985 346.389
151.697 117248 342.415
151.814 116558 341.406
151.932 116386 341.154
152.049 117036 342.105
152.167 118574 344.346
152.284 118343 344.01
152.402 119075 345.072
152.519 118668 344.482
152.636 119161 345.197
152.754 117313 342.51
152.871 114960 339.058
152.989 112139 334.872
153.106 111036 333.221
153.223 108874 329.961
153.341 108037 328.69
153.458 108438 329.299
153.575 109485 330.885
153.693 111335 333.669
153.81 113003 336.159
153.927 112341 335.173
154.044 111617 334.091
154.162 111369 333.72
154.279 113663 337.139
154.396 117255 342.425
154.513 119191 345.24
154.63 120975 347.815
154.747 120913 347.725
154.864 120038 346.465
154.981 116309 341.041
155.098 115245 339.478
155.215 112169 334.916
155.332 110378 332.232
155.449 108769 329.801
155.566 109694 331.201
155.683 109690 331.195
155.8 108415 329.264
155.917 106296 326.031
156.033 105394 324.644
156.15 0 1
156.267 0 1
156.383 0 1
156.5 0 1
156.617 0 1
156.733 0 1
156.85 0 1
156.966 0 1
157.082 0 1
157.199 0 1
157.315 0 1
157.431 0 1
157.547 0 1
157.664 0 1
157.78 0 1
157.896 0 1
158.012 0 1
158.128 0 1
158.244 0 1
158.359 0 1
158.475 0 1
158.591 0 1
158.706 0 1
