
6.15755 0 1
6.2731 0 1
6.3887 0 1
6.50437 0 1
6.62009 0 1
6.73587 0 1
6.8517 0 1
6.96759 0 1
7.08353 0 1
7.19952 0 1
7.31557 0 1
7.43166 0 1
7.54781 0 1
7.664 0 1
7.78024 0 1
7.89653 0 1
8.01286 0 1
8.12924 0 1
8.24567 0 1
8.36213 0 1
8.47864 0 1
8.59519 0 1
8.71178 0 1
8.82841 0 1
8.94508 0 1
9.06179 0 1
9.17853 0 1
9.29531 0 1
9.41212 0 1
9.52897 0 1
9.64584 0 1
9.76276 0 1
9.8797 0 1
9.99667 0 1
10.1137 0 1
10.2307 0 1
10.3478 0 1
10.4648 0 1
10.5819 0 1
10.6991 0 1
10.8162 0 1
10.9334 0 1
11.0506 0 1
11.1678 0 1
11.285 0 1
11.4023 0 1
11.5196 0 1
11.6369 0 1
11.7542 0 1
11.8715 0 1
11.9888 0 1
12.1062 0 1
12.2235 0 1
12.3409 0 1
12.4582 0 1
12.5756 0 1
12.693 0 1
12.8104 0 1
12.9278 0 1
13.0452 0 1
13.1626 0 1
13.28 0 1
13.3974 0 1
13.5149 0 1
13.6323 0 1
13.7497 0 1
13.8671 0 1
13.9845 0 1
14.1019 0 1
14.2193 0 1
14.3367 0 1
14.4541 0 1
14.5714 0 1
14.6888 0 1
14.8062 0 1
14.9235 0 1
15.0408 888 29.7993
15.1581 1002 31.6544
15.2755 975 31.225
15.3927 993 31.5119
15.51 911 30.1828
15.6273 908 30.133
15.7445 884 29.7321
15.8617 879 29.6479
15.9789 819 28.6182
16.0961 851 29.1719
16.2132 831 28.8271
16.3304 811 28.4781
16.4475 861 29.3428
16.5646 818 28.6007
16.6816 816 28.5657
16.7986 817 28.5832
16.9156 801 28.3019
17.0326 810 28.4605
17.1496 740 27.2029
17.2665 784 28
17.3833 787 28.0535
17.5002 813 28.5132
17.617 750 27.3861
17.7338 818 28.6007
17.8505 772 27.7849
17.9672 762 27.6043
18.0839 742 27.2397
18.2005 786 28.0357
18.3171 756 27.4955
18.4337 717 26.7769
18.5502 754 27.4591
18.6666 719 26.8142
18.7831 795 28.1957
18.8994 745 27.2947
19.0158 754 27.4591
19.1321 692 26.3059
19.2483 691 26.2869
19.3645 640 25.2982
19.4806 631 25.1197
19.5967 644 25.3772
19.7128 606 24.6171
19.8288 583 24.1454
19.9447 515 22.6936
20.0606 0 1
20.1764 0 1
20.2922 0 1
20.4079 0 1
20.5236 0 1
20.6392 0 1
20.7548 0 1
20.8702 0 1
23.3078 0 1
23.4233 0 1
23.539 0 1
23.6547 0 1
23.7704 0 1
23.8862 0 1
24.0021 0 1
24.118 0 1
24.234 0 1
24.35 0 1
24.4661 317 17.8045
24.5822 387 19.6723
24.6984 403 20.0749
24.8146 485 22.0227
24.9309 603 24.5561
25.0472 688 26.2298
25.1636 684 26.1534
25.28 748 27.3496
25.3965 818 28.6007
25.513 845 29.0689
25.6296 897 29.95
25.7462 915 30.249
25.8628 854 29.2233
25.9795 857 29.2746
26.0962 847 29.1033
26.213 794 28.178
26.3298 828 28.775
26.4466 787 28.0535
26.5635 763 27.6225
26.6804 707 26.5895
26.7973 675 25.9808
26.9143 645 25.3969
27.0313 590 24.2899
27.1483 666 25.807
27.2653 744 27.2764
27.3824 718 26.7955
27.4996 735 27.1109
27.6167 789 28.0891
27.7339 735 27.1109
27.8511 737 27.1477
27.9683 705 26.5518
28.0855 723 26.8887
28.2028 728 26.9815
28.3201 732 27.0555
28.4374 705 26.5518
28.5547 771 27.7669
28.6721 718 26.7955
28.7894 820 28.6356
28.9068 750 27.3861
29.0242 789 28.0891
29.1416 769 27.7308
29.259 728 26.9815
29.3764 791 28.1247
29.4939 744 27.2764
29.6113 675 25.9808
29.7288 709 26.6271
29.8463 709 26.6271
29.9638 716 26.7582
30.0812 740 27.2029
30.1987 637 25.2389
30.3162 658 25.6515
30.4337 660 25.6905
30.5512 653 25.5539
30.6687 656 25.6125
30.7862 757 27.5136
30.9037 719 26.8142
31.0212 754 27.4591
31.1387 745 27.2947
31.2562 754 27.4591
31.3737 750 27.3861
31.4912 708 26.6083
31.6087 701 26.4764
31.7262 736 27.1293
31.8436 711 26.6646
31.9611 721 26.8514
32.0785 752 27.4226
32.1959 727 26.9629
32.3134 696 26.3818
32.4308 695 26.3629
32.5482 687 26.2107
32.6655 644 25.3772
32.7829 658 25.6515
32.9002 604 24.5764
33.0176 671 25.9037
33.1349 647 25.4362
33.2522 630 25.0998
33.3694 664 25.7682
33.4867 643 25.3574
33.6039 604 24.5764
33.7211 593 24.3516
33.8383 642 25.3377
33.9554 574 23.9583
34.0725 619 24.8797
34.1896 615 24.7992
34.3067 648 25.4558
34.4237 620 24.8998
34.5407 659 25.671
34.6577 700 26.4575
34.7746 674 25.9615
34.8915 713 26.7021
35.0084 728 26.9815
35.1252 647 25.4362
35.242 635 25.1992
35.3587 651 25.5147
35.4755 625 25
35.5921 609 24.6779
35.7088 593 24.3516
35.8254 637 25.2389
35.9419 611 24.7184
36.0584 591 24.3105
36.1749 686 26.1916
36.2913 592 24.3311
36.4077 562 23.7065
36.524 529 23
36.6403 509 22.561
36.7565 527 22.9565
36.8727 483 21.9773
36.9889 432 20.7846
37.1049 413 20.3224
37.221 0 1
37.3369 0 1
37.4529 0 1
37.5687 0 1
37.6845 0 1
37.8003 0 1
37.916 0 1
38.0316 0 1
38.1472 0 1
40.5851 0 1
40.7008 0 1
40.8164 0 1
40.9322 0 1
41.048 0 1
41.1639 0 1
41.2798 0 1
41.3958 0 1
41.5118 0 1
41.6279 0 1
41.744 291 17.0587
41.8602 315 17.7482
41.9765 384 19.5959
42.0928 465 21.5639
42.2091 492 22.1811
42.3255 481 21.9317
42.4419 517 22.7376
42.5584 506 22.4944
42.675 477 21.8403
42.7915 442 21.0238
42.9081 438 20.9284
43.0248 473 21.7486
43.1415 495 22.2486
43.2582 509 22.561
43.375 524 22.891
43.4918 526 22.9347
43.6087 526 22.9347
43.7256 481 21.9317
43.8425 528 22.9783
43.9595 490 22.1359
44.0765 450 21.2132
44.1935 483 21.9773
44.3106 476 21.8174
44.4277 457 21.3776
44.5448 486 22.0454
44.6619 486 22.0454
44.7791 495 22.2486
44.8963 524 22.891
45.0136 508 22.5389
45.1308 497 22.2935
45.2481 482 21.9545
45.3654 495 22.2486
45.4827 501 22.383
45.6001 536 23.1517
45.7174 531 23.0434
45.8348 516 22.7156
45.9522 514 22.6716
46.0697 530 23.0217
46.1871 473 21.7486
46.3046 482 21.9545
46.422 454 21.3073
46.5395 439 20.9523
46.657 509 22.561
46.7745 479 21.8861
46.892 497 22.2935
47.0096 460 21.4476
47.1271 524 22.891
47.2446 531 23.0434
47.3622 529 23
47.4797 446 21.1187
47.5973 520 22.8035
47.7149 466 21.587
47.8324 512 22.6274
47.95 503 22.4277
48.0675 462 21.4942
48.1851 531 23.0434
48.3027 525 22.9129
48.4202 511 22.6053
48.5378 507 22.5167
48.6554 517 22.7376
48.7729 490 22.1359
48.8904 484 22
49.008 555 23.5584
49.1255 503 22.4277
49.243 523 22.8692
49.3605 507 22.5167
49.478 456 21.3542
49.5955 493 22.2036
49.713 428 20.6882
49.8304 411 20.2731
49.9479 403 20.0749
50.0653 385 19.6214
50.1827 433 20.8087
50.3001 438 20.9284
50.4175 441 21
50.5348 446 21.1187
50.6521 469 21.6564
50.7694 491 22.1585
50.8867 479 21.8861
51.004 489 22.1133
51.1212 477 21.8403
51.2384 473 21.7486
51.3556 491 22.1585
51.4727 526 22.9347
51.5899 469 21.6564
51.707 499 22.3383
51.824 508 22.5389
51.9411 514 22.6716
52.0581 488 22.0907
52.175 498 22.3159
52.2919 441 21
52.4088 452 21.2603
52.5257 475 21.7945
52.6425 474 21.7715
52.7593 483 21.9773
52.876 494 22.2261
52.9927 410 20.2485
53.1094 452 21.2603
53.226 459 21.4243
53.3426 382 19.5448
53.4591 445 21.095
53.5756 400 20
53.692 384 19.5959
53.8084 352 18.7617
53.9248 354 18.8149
54.0411 292 17.088
54.1573 286 16.9115
54.2735 0 1
54.3896 0 1
54.5057 0 1
54.6217 0 1
54.7377 0 1
54.8537 0 1
54.9695 0 1
55.0853 0 1
55.2011 0 1
55.3168 0 1
55.4324 0 1
57.824 0 1
57.9396 0 1
58.0553 0 1
58.1711 0 1
58.2869 0 1
58.4028 0 1
58.5187 0 1
58.6347 0 1
58.7508 0 1
58.8669 0 1
58.983 445 21.095
59.0992 533 23.0868
59.2155 597 24.4336
59.3318 717 26.7769
59.4482 757 27.5136
59.5646 790 28.1069
59.681 863 29.3769
59.7975 895 29.9166
59.9141 850 29.1548
60.0306 850 29.1548
60.1473 883 29.7153
60.2639 858 29.2916
60.3807 827 28.7576
60.4974 844 29.0517
60.6142 873 29.5466
60.731 833 28.8617
60.8479 847 29.1033
60.9648 747 27.3313
61.0818 777 27.8747
61.1987 818 28.6007
61.3158 740 27.2029
61.4328 745 27.2947
61.5499 720 26.8328
61.667 666 25.807
61.7841 694 26.3439
61.9013 642 25.3377
62.0185 690 26.2679
62.1357 645 25.3969
62.253 609 24.6779
62.3702 632 25.1396
62.4875 603 24.5561
62.6049 596 24.4131
62.7222 607 24.6374
62.8396 640 25.2982
62.9569 646 25.4165
63.0743 606 24.6171
63.1918 604 24.5764
63.3092 607 24.6374
63.4267 592 24.3311
63.5441 568 23.8328
63.6616 589 24.2693
63.7791 570 23.8747
63.8966 536 23.1517
64.0142 586 24.2074
64.1317 599 24.4745
64.2492 522 22.8473
64.3668 549 23.4307
64.4843 562 23.7065
64.6019 538 23.1948
64.7195 547 23.388
64.837 576 24
64.9546 530 23.0217
65.0722 505 22.4722
65.1898 525 22.9129
65.3074 517 22.7376
65.4249 503 22.4277
65.5425 499 22.3383
65.6601 490 22.1359
65.7777 558 23.622
65.8952 568 23.8328
66.0128 537 23.1733
66.1304 532 23.0651
66.2479 542 23.2809
66.3655 517 22.7376
66.483 578 24.0416
66.6005 537 23.1733
66.718 577 24.0208
66.8355 561 23.6854
66.953 552 23.4947
67.0705 560 23.6643
67.1879 559 23.6432
67.3054 553 23.516
67.4228 539 23.2164
67.5402 582 24.1247
67.6576 538 23.1948
67.7749 579 24.0624
67.8923 538 23.1948
68.0096 525 22.9129
68.1269 493 22.2036
68.2442 554 23.5372
68.3614 546 23.3666
68.4787 539 23.2164
68.5958 479 21.8861
68.713 524 22.891
68.8302 476 21.8174
68.9473 461 21.4709
69.0643 499 22.3383
69.1814 466 21.587
69.2984 491 22.1585
69.4154 512 22.6274
69.5323 550 23.4521
69.6492 518 22.7596
69.7661 478 21.8632
69.8829 492 22.1811
69.9997 483 21.9773
70.1165 492 22.1811
70.2332 503 22.4277
70.3499 490 22.1359
70.4665 456 21.3542
70.5831 427 20.664
70.6996 378 19.4422
70.8161 381 19.5192
70.9326 349 18.6815
71.049 306 17.4929
71.1653 295 17.1756
71.2817 284 16.8523
71.3979 280 16.7332
71.5141 242 15.5563
71.6303 240 15.4919
71.7464 204 14.2829
71.8624 0 1
71.9784 0 1
72.0944 0 1
72.2102 0 1
72.3261 0 1
72.4418 0 1
72.5575 0 1
72.6732 0 1
75.1054 0 1
75.2209 0 1
75.3365 0 1
75.4521 0 1
75.5678 0 1
75.6835 0 1
75.7993 0 1
75.9151 0 1
76.031 0 1
76.147 341 18.4662
76.263 384 19.5959
76.3791 430 20.7364
76.4952 442 21.0238
76.6113 440 20.9762
76.7276 427 20.664
76.8438 441 21
76.9601 462 21.4942
77.0765 422 20.5426
77.1929 386 19.6469
77.3093 439 20.9523
77.4258 447 21.1424
77.5423 406 20.1494
77.6589 405 20.1246
77.7755 403 20.0749
77.8921 406 20.1494
78.0088 408 20.199
78.1256 413 20.3224
78.2423 401 20.025
78.3591 414 20.347
78.4759 444 21.0713
78.5928 474 21.7715
78.7097 436 20.8806
78.8266 393 19.8242
78.9436 411 20.2731
79.0606 397 19.9249
79.1776 431 20.7605
79.2946 423 20.567
79.4117 481 21.9317
79.5288 446 21.1187
79.6459 454 21.3073
79.7631 489 22.1133
79.8802 470 21.6795
79.9974 452 21.2603
80.1147 472 21.7256
80.2319 456 21.3542
80.3491 527 22.9565
80.4664 479 21.8861
80.5837 443 21.0476
80.701 471 21.7025
80.8183 464 21.5407
80.9357 463 21.5174
81.053 478 21.8632
81.1704 442 21.0238
81.2877 444 21.0713
81.4051 409 20.2237
81.5225 410 20.2485
81.6399 378 19.4422
81.7573 400 20
81.8747 398 19.9499
81.9922 421 20.5183
82.1096 445 21.095
82.227 412 20.2978
82.3444 414 20.347
82.4619 463 21.5174
82.5793 419 20.4695
82.6967 414 20.347
82.8142 481 21.9317
82.9316 511 22.6053
83.049 461 21.4709
83.1664 443 21.0476
83.2838 462 21.4942
83.4012 490 22.1359
83.5186 506 22.4944
83.636 468 21.6333
83.7534 492 22.1811
83.8708 501 22.383
83.9881 478 21.8632
84.1055 510 22.5832
84.2228 474 21.7715
84.3401 468 21.6333
84.4575 489 22.1133
84.5747 448 21.166
84.692 460 21.4476
84.8093 419 20.4695
84.9265 425 20.6155
85.0437 409 20.2237
85.1609 392 19.799
85.2781 441 21
85.3952 441 21
85.5123 421 20.5183
85.6294 433 20.8087
85.7465 442 21.0238
85.8636 457 21.3776
85.9806 459 21.4243
86.0976 430 20.7364
86.2145 394 19.8494
86.3315 433 20.8087
86.4484 454 21.3073
86.5652 487 22.0681
86.682 437 20.9045
86.7988 479 21.8861
86.9156 476 21.8174
87.0323 466 21.587
87.149 453 21.2838
87.2657 488 22.0907
87.3823 465 21.5639
87.4988 463 21.5174
87.6154 435 20.8567
87.7318 407 20.1742
87.8483 440 20.9762
87.9647 378 19.4422
88.081 343 18.5203
88.1973 325 18.0278
88.3136 305 17.4642
88.4298 258 16.0624
88.546 251 15.843
88.6621 251 15.843
88.7781 212 14.5602
88.8942 0 1
89.0101 0 1
89.126 0 1
89.2419 0 1
89.3577 0 1
89.4734 0 1
89.5891 0 1
89.7047 0 1
89.8203 0 1
89.9358 0 1
92.3269 0 1
92.4424 0 1
92.558 0 1
92.6736 0 1
92.7893 0 1
92.905 0 1
93.0208 0 1
93.1366 0 1
93.2525 0 1
93.3685 0 1
93.4845 0 1
93.6005 405 20.1246
93.7167 445 21.095
93.8328 407 20.1742
93.949 424 20.5913
94.0653 368 19.1833
94.1816 379 19.4679
94.2979 360 18.9737
94.4143 445 21.095
94.5307 450 21.2132
94.6472 421 20.5183
94.7637 440 20.9762
94.8803 473 21.7486
94.9969 470 21.6795
95.1135 451 21.2368
95.2302 465 21.5639
95.3469 466 21.587
95.4637 493 22.2036
95.5805 478 21.8632
95.6973 504 22.4499
95.8142 467 21.6102
95.9311 452 21.2603
96.048 434 20.8327
96.1649 477 21.8403
96.2819 508 22.5389
96.3989 462 21.4942
96.516 517 22.7376
96.633 496 22.2711
96.7501 475 21.7945
96.8673 502 22.4054
96.9844 508 22.5389
97.1016 505 22.4722
97.2188 472 21.7256
97.336 454 21.3073
97.4532 459 21.4243
97.5704 484 22
97.6877 420 20.4939
97.805 459 21.4243
97.9223 442 21.0238
98.0396 458 21.4009
98.1569 462 21.4942
98.2743 504 22.4499
98.3916 500 22.3607
98.509 462 21.4942
98.6264 508 22.5389
98.7438 495 22.2486
98.8612 483 21.9773
98.9786 499 22.3383
99.096 466 21.587
99.2134 506 22.4944
99.3308 547 23.388
99.4482 481 21.9317
99.5656 527 22.9565
99.6831 519 22.7816
99.8005 586 24.2074
99.9179 645 25.3969
100.035 880 29.6648
100.153 1148 33.8821
100.27 1333 36.5103
100.388 1842 42.9185
100.505 2407 49.0612
100.622 2939 54.2125
100.74 3478 58.9746
100.857 4267 65.3223
100.975 4916 70.1142
101.092 5197 72.0902
101.209 5329 73
101.327 4833 69.5198
101.444 4740 68.8477
101.561 4804 69.3109
101.679 5420 73.6206
101.796 6453 80.3306
101.913 7668 87.5671
102.03 8741 93.4933
102.148 9205 95.9427
102.265 9790 98.9444
102.382 9865 99.3227
102.499 10382 101.892
102.616 10484 102.391
102.733 11090 105.309
102.851 11251 106.071
102.968 10858 104.202
103.085 10635 103.126
103.202 9809 99.0404
103.319 9963 99.8148
103.436 9811 99.0505
103.552 9845 99.222
103.669 9519 97.5654
103.786 9572 97.8366
103.903 9032 95.0368
104.02 8624 92.8655
104.137 7914 88.9607
104.253 7540 86.8332
104.37 7011 83.7317
104.487 6316 79.4733
104.603 5408 73.5391
104.72 4322 65.7419
104.836 3376 58.1034
104.953 2790 52.8205
105.069 2253 47.4658
105.186 2093 45.7493
105.302 2161 46.4866
105.418 2319 48.156
105.535 2460 49.5984
105.651 2275 47.697
105.767 2067 45.4643
105.883 1869 43.2319
105.999 1666 40.8167
106.115 0 1
106.231 0 1
106.347 0 1
106.463 0 1
106.579 0 1
106.694 0 1
106.81 0 1
106.926 0 1
107.041 0 1
107.157 0 1
109.576 0 1
109.692 0 1
109.807 0 1
109.923 0 1
110.039 0 1
110.155 0 1
110.27 0 1
110.386 0 1
110.502 0 1
110.618 462 21.4942
110.735 522 22.8473
110.851 637 25.2389
110.967 627 25.04
111.083 613 24.7588
111.199 678 26.0384
111.316 646 25.4165
111.432 649 25.4755
111.549 645 25.3969
111.665 659 25.671
111.782 591 24.3105
111.898 623 24.96
112.015 556 23.5797
112.132 595 24.3926
112.248 577 24.0208
112.365 590 24.2899
112.482 550 23.4521
112.599 590 24.2899
112.716 550 23.4521
112.832 526 22.9347
112.949 521 22.8254
113.066 492 22.1811
113.183 485 22.0227
113.3 460 21.4476
113.417 526 22.9347
113.534 451 21.2368
113.652 469 21.6564
113.769 416 20.3961
113.886 431 20.7605
114.003 410 20.2485
114.12 462 21.4942
114.238 435 20.8567
114.355 530 23.0217
114.472 509 22.561
114.589 516 22.7156
114.707 503 22.4277
114.824 501 22.383
114.942 496 22.2711
115.059 509 22.561
115.176 539 23.2164
115.294 448 21.166
115.411 459 21.4243
115.529 447 21.1424
115.646 448 21.166
115.764 446 21.1187
115.881 465 21.5639
115.999 487 22.0681
116.116 476 21.8174
116.234 471 21.7025
116.351 494 22.2261
116.469 443 21.0476
116.586 442 21.0238
116.704 439 20.9523
116.821 467 21.6102
116.939 437 20.9045
117.056 436 20.8806
117.174 399 19.975
117.291 386 19.6469
117.409 401 20.025
117.526 344 18.5472
117.644 404 20.0998
117.761 405 20.1246
117.879 434 20.8327
117.996 458 21.4009
118.114 456 21.3542
118.231 445 21.095
118.349 427 20.664
118.466 452 21.2603
118.584 477 21.8403
118.701 457 21.3776
118.819 462 21.4942
118.936 439 20.9523
119.053 426 20.6398
119.171 422 20.5426
119.288 406 20.1494
119.405 432 20.7846
119.523 444 21.0713
119.64 464 21.5407
119.757 426 20.6398
119.875 393 19.8242
119.992 406 20.1494
120.109 416 20.3961
120.226 443 21.0476
120.343 446 21.1187
120.46 390 19.7484
120.578 388 19.6977
120.695 417 20.4206
120.812 412 20.2978
120.929 341 18.4662
121.046 350 18.7083
121.163 338 18.3848
121.279 347 18.6279
121.396 368 19.1833
121.513 412 20.2978
121.63 354 18.8149
121.747 365 19.105
121.863 392 19.799
121.98 327 18.0831
122.097 373 19.3132
122.213 346 18.6011
122.33 334 18.2757
122.446 318 17.8326
122.563 309 17.5784
122.679 279 16.7033
122.795 236 15.3623
122.912 238 15.4272
123.028 298 17.2627
123.144 240 15.4919
123.26 223 14.9332
123.377 0 1
123.493 0 1
123.609 0 1
123.725 0 1
123.84 0 1
123.956 0 1
124.072 0 1
124.188 0 1
124.303 0 1
124.419 0 1
126.852 0 1
126.968 0 1
127.083 0 1
127.199 0 1
127.315 0 1
127.431 0 1
127.547 0 1
127.663 0 1
127.779 0 1
127.895 0 1
128.011 0 1
128.127 0 1
128.243 0 1
128.359 411 20.2731
128.476 446 21.1187
128.592 499 22.3383
128.708 441 21
128.825 467 21.6102
128.941 498 22.3159
129.058 481 21.9317
129.174 511 22.6053
129.291 479 21.8861
129.408 491 22.1585
129.524 477 21.8403
129.641 497 22.2935
129.758 503 22.4277
129.875 459 21.4243
129.992 436 20.8806
130.108 412 20.2978
130.225 431 20.7605
130.342 428 20.6882
130.459 423 20.567
130.576 507 22.5167
130.693 580 24.0832
130.81 561 23.6854
130.928 579 24.0624
131.045 584 24.1661
131.162 591 24.3105
131.279 659 25.671
131.396 660 25.6905
131.513 729 27
131.631 644 25.3772
131.748 719 26.8142
131.865 733 27.074
131.983 776 27.8568
132.1 772 27.7849
132.217 828 28.775
132.335 836 28.9137
132.452 937 30.6105
132.57 882 29.6985
132.687 890 29.8329
132.804 984 31.3688
132.922 941 30.6757
133.039 968 31.1127
133.157 1013 31.8277
133.274 964 31.0483
133.392 989 31.4484
133.509 1005 31.7017
133.627 947 30.7734
133.744 937 30.6105
133.862 946 30.7571
133.979 884 29.7321
134.097 988 31.4325
134.214 975 31.225
134.332 981 31.3209
134.449 956 30.9192
134.567 898 29.9666
134.684 998 31.5911
134.802 969 31.1288
134.919 997 31.5753
135.037 1000 31.6228
135.154 965 31.0644
135.272 952 30.8545
135.389 975 31.225
135.507 935 30.5778
135.624 999 31.607
135.742 970 31.1448
135.859 1034 32.1559
135.977 1036 32.187
136.094 1014 31.8434
136.211 1018 31.9061
136.329 1055 32.4808
136.446 1084 32.9242
136.564 962 31.0161
136.681 1011 31.7962
136.798 1008 31.749
136.915 1047 32.3574
137.033 1008 31.749
137.15 993 31.5119
137.267 981 31.3209
137.384 934 30.5614
137.502 889 29.8161
137.619 884 29.7321
137.736 964 31.0483
137.853 941 30.6757
137.97 957 30.9354
138.087 969 31.1288
138.204 858 29.2916
138.321 926 30.4302
138.438 934 30.5614
138.555 1063 32.6037
138.672 1075 32.7872
138.788 971 31.1609
138.905 917 30.282
139.022 910 30.1662
139.139 873 29.5466
139.255 873 29.5466
139.372 918 30.2985
139.488 854 29.2233
139.605 802 28.3196
139.721 767 27.6948
139.838 783 27.9821
139.954 741 27.2213
140.071 648 25.4558
140.187 652 25.5343
140.303 629 25.0799
140.419 621 24.9199
140.535 589 24.2693
140.652 578 24.0416
140.768 0 1
140.884 0 1
141 0 1
141.115 0 1
141.231 0 1
141.347 0 1
141.463 0 1
141.578 0 1
141.694 0 1
144.104 0 1
144.219 0 1
144.335 0 1
144.45 0 1
144.566 0 1
144.682 0 1
144.798 0 1
144.914 0 1
145.03 0 1
145.146 5119 71.5472
145.262 7444 86.2786
145.378 9575 97.8519
145.494 11724 108.277
145.61 13641 116.795
145.726 15927 126.202
145.842 17800 133.417
145.959 19922 141.145
146.075 22669 150.562
146.192 25418 159.43
146.308 27949 167.18
146.425 30821 175.559
146.541 32587 180.519
146.658 34343 185.319
146.774 34255 185.081
146.891 32143 179.285
147.008 28046 167.469
147.125 24537 156.643
147.241 25166 158.638
147.358 28274 168.149
147.475 30620 174.986
147.592 31759 178.211
147.709 31153 176.502
147.826 29885 172.873
147.943 28216 167.976
148.06 26317 162.225
148.177 24611 156.879
148.294 22790 150.964
148.411 21251 145.777
148.528 19339 139.065
148.645 17835 133.548
148.762 16040 126.649
148.88 14499 120.412
148.997 13192 114.856
149.114 11103 105.371
149.231 10145 100.722
149.349 9136 95.5824
149.466 7927 89.0337
149.583 7041 83.9107
149.701 6283 79.2654
149.818 5434 73.7157
149.935 4672 68.352
150.053 4061 63.726
150.17 3499 59.1523
150.287 2443 49.4267
150.405 1792 42.332
150.522 1658 40.7185
150.64 2010 44.833
150.757 2055 45.3321
150.875 2145 46.3141
150.992 1965 44.3283
151.11 1823 42.6966
151.227 1772 42.0951
151.344 1677 40.9512
151.462 1521 39
151.579 1421 37.6962
151.697 1394 37.3363
151.814 1428 37.7889
151.932 1469 38.3275
152.049 1595 39.9375
152.167 1592 39.8999
152.284 1709 41.3401
152.402 1621 40.2616
152.519 1773 42.107
152.636 1728 41.5692
152.754 1700 41.2311
152.871 1765 42.0119
152.989 1750 41.833
153.106 1792 42.332
153.223 1868 43.2204
153.341 1819 42.6497
153.458 1821 42.6732
153.575 1781 42.2019
153.693 1661 40.7554
153.81 1516 38.9358
153.927 1418 37.6563
154.044 1477 38.4318
154.162 1615 40.1871
154.279 1767 42.0357
154.396 1813 42.5793
154.513 1900 43.589
154.63 1969 44.3734
154.747 1897 43.5546
154.864 1906 43.6578
154.981 1887 43.4396
155.098 1852 43.0349
155.215 1924 43.8634
155.332 1981 44.5084
155.449 1986 44.5646
155.566 2181 46.7012
155.683 2216 47.0744
155.8 2398 48.9694
155.917 2412 49.1121
156.033 2405 49.0408
156.15 0 1
156.267 0 1
156.383 0 1
156.5 0 1
156.617 0 1
156.733 0 1
156.85 0 1
156.966 0 1
157.082 0 1
157.199 0 1
157.315 0 1
157.431 0 1
157.547 0 1
157.664 0 1
157.78 0 1
157.896 0 1
158.012 0 1
158.128 0 1
158.244 0 1
158.359 0 1
158.475 0 1
158.591 0 1
158.706 0 1
