
6.15755 0 1
6.2731 0 1
6.3887 0 1
6.50437 0 1
6.62009 0 1
6.73587 0 1
6.8517 0 1
6.96759 0 1
7.08353 0 1
7.19952 0 1
7.31557 0 1
7.43166 0 1
7.54781 0 1
7.664 0 1
7.78024 0 1
7.89653 0 1
8.01286 0 1
8.12924 0 1
8.24567 0 1
8.36213 0 1
8.47864 0 1
8.59519 0 1
8.71178 0 1
8.82841 0 1
8.94508 0 1
9.06179 0 1
9.17853 0 1
9.29531 0 1
9.41212 0 1
9.52897 0 1
9.64584 0 1
9.76276 0 1
9.8797 0 1
9.99667 0 1
10.1137 0 1
10.2307 0 1
10.3478 0 1
10.4648 0 1
10.5819 0 1
10.6991 0 1
10.8162 0 1
10.9334 0 1
11.0506 0 1
11.1678 0 1
11.285 0 1
11.4023 0 1
11.5196 0 1
11.6369 0 1
11.7542 0 1
11.8715 0 1
11.9888 0 1
12.1062 0 1
12.2235 0 1
12.3409 0 1
12.4582 0 1
12.5756 0 1
12.693 0 1
12.8104 0 1
12.9278 0 1
13.0452 0 1
13.1626 0 1
13.28 0 1
13.3974 0 1
13.5149 0 1
13.6323 0 1
13.7497 0 1
13.8671 0 1
13.9845 0 1
14.1019 0 1
14.2193 0 1
14.3367 0 1
14.4541 0 1
14.5714 0 1
14.6888 0 1
14.8062 0 1
14.9235 0 1
15.0408 0 0
15.1581 0 0
15.2755 0 0
15.3927 0 0
15.51 0 0
15.6273 0 0
15.7445 0 0
15.8617 0 0
15.9789 0 0
16.0961 0 0
16.2132 0 0
16.3304 0 0
16.4475 0 0
16.5646 0 0
16.6816 0 0
16.7986 0 0
16.9156 0 0
17.0326 0 0
17.1496 0 0
17.2665 0 0
17.3833 0 0
17.5002 0 0
17.617 0 0
17.7338 0 0
17.8505 0 0
17.9672 0 0
18.0839 0 0
18.2005 0 0
18.3171 0 0
18.4337 0 0
18.5502 0 0
18.6666 0 0
18.7831 0 0
18.8994 0 0
19.0158 0 0
19.1321 0 0
19.2483 0 0
19.3645 0 0
19.4806 0 0
19.5967 0 0
19.7128 0 0
19.8288 0 0
19.9447 0 0
20.0606 0 1
20.1764 0 1
20.2922 0 1
20.4079 0 1
20.5236 0 1
20.6392 0 1
20.7548 0 1
20.8702 0 1
23.3078 0 1
23.4233 0 1
23.539 0 1
23.6547 0 1
23.7704 0 1
23.8862 0 1
24.0021 0 1
24.118 0 1
24.234 0 1
24.35 0 1
24.4661 84 9.16515
24.5822 84 9.16515
24.6984 62 7.87401
24.8146 79 8.88819
24.9309 61 7.81025
25.0472 69 8.30662
25.1636 78 8.83176
25.28 82 9.05539
25.3965 88 9.38083
25.513 74 8.60233
25.6296 95 9.74679
25.7462 91 9.53939
25.8628 85 9.21954
25.9795 75 8.66025
26.0962 85 9.21954
26.213 84 9.16515
26.3298 83 9.11043
26.4466 82 9.05539
26.5635 78 8.83176
26.6804 76 8.7178
26.7973 73 8.544
26.9143 70 8.3666
27.0313 83 9.11043
27.1483 69 8.30662
27.2653 72 8.48528
27.3824 68 8.24621
27.4996 76 8.7178
27.6167 78 8.83176
27.7339 67 8.18535
27.8511 57 7.54983
27.9683 63 7.93725
28.0855 73 8.544
28.2028 65 8.06226
28.3201 62 7.87401
28.4374 66 8.12404
28.5547 73 8.544
28.6721 87 9.32738
28.7894 68 8.24621
28.9068 74 8.60233
29.0242 69 8.30662
29.1416 97 9.84886
29.259 67 8.18535
29.3764 68 8.24621
29.4939 75 8.66025
29.6113 95 9.74679
29.7288 62 7.87401
29.8463 64 8
29.9638 69 8.30662
30.0812 64 8
30.1987 63 7.93725
30.3162 66 8.12404
30.4337 63 7.93725
30.5512 54 7.34847
30.6687 51 7.14143
30.7862 60 7.74597
30.9037 59 7.68115
31.0212 70 8.3666
31.1387 61 7.81025
31.2562 74 8.60233
31.3737 68 8.24621
31.4912 90 9.48683
31.6087 64 8
31.7262 64 8
31.8436 62 7.87401
31.9611 54 7.34847
32.0785 72 8.48528
32.1959 71 8.42615
32.3134 71 8.42615
32.4308 74 8.60233
32.5482 85 9.21954
32.6655 76 8.7178
32.7829 67 8.18535
32.9002 64 8
33.0176 72 8.48528
33.1349 69 8.30662
33.2522 72 8.48528
33.3694 65 8.06226
33.4867 85 9.21954
33.6039 80 8.94427
33.7211 72 8.48528
33.8383 78 8.83176
33.9554 74 8.60233
34.0725 70 8.3666
34.1896 75 8.66025
34.3067 56 7.48331
34.4237 60 7.74597
34.5407 51 7.14143
34.6577 76 8.7178
34.7746 69 8.30662
34.8915 61 7.81025
35.0084 61 7.81025
35.1252 78 8.83176
35.242 56 7.48331
35.3587 71 8.42615
35.4755 74 8.60233
35.5921 61 7.81025
35.7088 74 8.60233
35.8254 63 7.93725
35.9419 68 8.24621
36.0584 61 7.81025
36.1749 73 8.544
36.2913 74 8.60233
36.4077 76 8.7178
36.524 70 8.3666
36.6403 74 8.60233
36.7565 91 9.53939
36.8727 60 7.74597
36.9889 80 8.94427
37.1049 74 8.60233
37.221 0 1
37.3369 0 1
37.4529 0 1
37.5687 0 1
37.6845 0 1
37.8003 0 1
37.916 0 1
38.0316 0 1
38.1472 0 1
40.5851 0 1
40.7008 0 1
40.8164 0 1
40.9322 0 1
41.048 0 1
41.1639 0 1
41.2798 0 1
41.3958 0 1
41.5118 0 1
41.6279 0 1
41.744 61 7.81025
41.8602 65 8.06226
41.9765 63 7.93725
42.0928 57 7.54983
42.2091 72 8.48528
42.3255 41 6.40312
42.4419 65 8.06226
42.5584 51 7.14143
42.675 68 8.24621
42.7915 42 6.48074
42.9081 60 7.74597
43.0248 49 7
43.1415 39 6.245
43.2582 51 7.14143
43.375 68 8.24621
43.4918 47 6.85565
43.6087 40 6.32456
43.7256 43 6.55744
43.8425 47 6.85565
43.9595 55 7.4162
44.0765 43 6.55744
44.1935 58 7.61577
44.3106 47 6.85565
44.4277 49 7
44.5448 57 7.54983
44.6619 56 7.48331
44.7791 57 7.54983
44.8963 66 8.12404
45.0136 52 7.2111
45.1308 47 6.85565
45.2481 48 6.9282
45.3654 51 7.14143
45.4827 43 6.55744
45.6001 52 7.2111
45.7174 46 6.78233
45.8348 49 7
45.9522 41 6.40312
46.0697 58 7.61577
46.1871 47 6.85565
46.3046 50 7.07107
46.422 53 7.28011
46.5395 37 6.08276
46.657 34 5.83095
46.7745 27 5.19615
46.892 47 6.85565
47.0096 39 6.245
47.1271 41 6.40312
47.2446 40 6.32456
47.3622 43 6.55744
47.4797 51 7.14143
47.5973 35 5.91608
47.7149 38 6.16441
47.8324 40 6.32456
47.95 34 5.83095
48.0675 40 6.32456
48.1851 45 6.7082
48.3027 33 5.74456
48.4202 44 6.63325
48.5378 42 6.48074
48.6554 37 6.08276
48.7729 38 6.16441
48.8904 38 6.16441
49.008 45 6.7082
49.1255 42 6.48074
49.243 39 6.245
49.3605 44 6.63325
49.478 46 6.78233
49.5955 36 6
49.713 36 6
49.8304 42 6.48074
49.9479 32 5.65685
50.0653 32 5.65685
50.1827 35 5.91608
50.3001 40 6.32456
50.4175 35 5.91608
50.5348 40 6.32456
50.6521 48 6.9282
50.7694 41 6.40312
50.8867 35 5.91608
51.004 53 7.28011
51.1212 48 6.9282
51.2384 37 6.08276
51.3556 44 6.63325
51.4727 67 8.18535
51.5899 44 6.63325
51.707 56 7.48331
51.824 51 7.14143
51.9411 58 7.61577
52.0581 47 6.85565
52.175 53 7.28011
52.2919 60 7.74597
52.4088 50 7.07107
52.5257 60 7.74597
52.6425 53 7.28011
52.7593 66 8.12404
52.876 58 7.61577
52.9927 46 6.78233
53.1094 44 6.63325
53.226 67 8.18535
53.3426 61 7.81025
53.4591 59 7.68115
53.5756 45 6.7082
53.692 53 7.28011
53.8084 61 7.81025
53.9248 43 6.55744
54.0411 50 7.07107
54.1573 46 6.78233
54.2735 0 1
54.3896 0 1
54.5057 0 1
54.6217 0 1
54.7377 0 1
54.8537 0 1
54.9695 0 1
55.0853 0 1
55.2011 0 1
55.3168 0 1
55.4324 0 1
57.824 0 1
57.9396 0 1
58.0553 0 1
58.1711 0 1
58.2869 0 1
58.4028 0 1
58.5187 0 1
58.6347 0 1
58.7508 0 1
58.8669 0 1
58.983 65 8.06226
59.0992 46 6.78233
59.2155 55 7.4162
59.3318 52 7.2111
59.4482 53 7.28011
59.5646 43 6.55744
59.681 64 8
59.7975 68 8.24621
59.9141 66 8.12404
60.0306 56 7.48331
60.1473 60 7.74597
60.2639 54 7.34847
60.3807 69 8.30662
60.4974 56 7.48331
60.6142 67 8.18535
60.731 57 7.54983
60.8479 55 7.4162
60.9648 60 7.74597
61.0818 74 8.60233
61.1987 69 8.30662
61.3158 56 7.48331
61.4328 59 7.68115
61.5499 53 7.28011
61.667 68 8.24621
61.7841 61 7.81025
61.9013 52 7.2111
62.0185 48 6.9282
62.1357 42 6.48074
62.253 50 7.07107
62.3702 45 6.7082
62.4875 44 6.63325
62.6049 46 6.78233
62.7222 46 6.78233
62.8396 58 7.61577
62.9569 47 6.85565
63.0743 51 7.14143
63.1918 50 7.07107
63.3092 58 7.61577
63.4267 47 6.85565
63.5441 46 6.78233
63.6616 39 6.245
63.7791 52 7.2111
63.8966 44 6.63325
64.0142 38 6.16441
64.1317 36 6
64.2492 54 7.34847
64.3668 66 8.12404
64.4843 52 7.2111
64.6019 38 6.16441
64.7195 46 6.78233
64.837 61 7.81025
64.9546 42 6.48074
65.0722 60 7.74597
65.1898 49 7
65.3074 47 6.85565
65.4249 48 6.9282
65.5425 55 7.4162
65.6601 42 6.48074
65.7777 34 5.83095
65.8952 42 6.48074
66.0128 46 6.78233
66.1304 35 5.91608
66.2479 45 6.7082
66.3655 40 6.32456
66.483 50 7.07107
66.6005 41 6.40312
66.718 41 6.40312
66.8355 46 6.78233
66.953 36 6
67.0705 42 6.48074
67.1879 46 6.78233
67.3054 44 6.63325
67.4228 52 7.2111
67.5402 52 7.2111
67.6576 50 7.07107
67.7749 37 6.08276
67.8923 43 6.55744
68.0096 45 6.7082
68.1269 34 5.83095
68.2442 33 5.74456
68.3614 50 7.07107
68.4787 42 6.48074
68.5958 41 6.40312
68.713 34 5.83095
68.8302 48 6.9282
68.9473 42 6.48074
69.0643 36 6
69.1814 41 6.40312
69.2984 27 5.19615
69.4154 38 6.16441
69.5323 54 7.34847
69.6492 41 6.40312
69.7661 36 6
69.8829 50 7.07107
69.9997 46 6.78233
70.1165 34 5.83095
70.2332 42 6.48074
70.3499 25 5
70.4665 49 7
70.5831 30 5.47723
70.6996 44 6.63325
70.8161 37 6.08276
70.9326 38 6.16441
71.049 42 6.48074
71.1653 43 6.55744
71.2817 49 7
71.3979 32 5.65685
71.5141 35 5.91608
71.6303 39 6.245
71.7464 35 5.91608
71.8624 0 1
71.9784 0 1
72.0944 0 1
72.2102 0 1
72.3261 0 1
72.4418 0 1
72.5575 0 1
72.6732 0 1
75.1054 0 1
75.2209 0 1
75.3365 0 1
75.4521 0 1
75.5678 0 1
75.6835 0 1
75.7993 0 1
75.9151 0 1
76.031 0 1
76.147 42 6.48074
76.263 38 6.16441
76.3791 33 5.74456
76.4952 41 6.40312
76.6113 41 6.40312
76.7276 34 5.83095
76.8438 41 6.40312
76.9601 32 5.65685
77.0765 28 5.2915
77.1929 31 5.56776
77.3093 24 4.89898
77.4258 32 5.65685
77.5423 29 5.38516
77.6589 38 6.16441
77.7755 34 5.83095
77.8921 25 5
78.0088 26 5.09902
78.1256 24 4.89898
78.2423 31 5.56776
78.3591 27 5.19615
78.4759 25 5
78.5928 15 3.87298
78.7097 27 5.19615
78.8266 24 4.89898
78.9436 23 4.79583
79.0606 33 5.74456
79.1776 21 4.58258
79.2946 15 3.87298
79.4117 16 4
79.5288 38 6.16441
79.6459 26 5.09902
79.7631 20 4.47214
79.8802 23 4.79583
79.9974 19 4.3589
80.1147 23 4.79583
80.2319 21 4.58258
80.3491 12 3.4641
80.4664 18 4.24264
80.5837 21 4.58258
80.701 21 4.58258
80.8183 23 4.79583
80.9357 13 3.60555
81.053 20 4.47214
81.1704 15 3.87298
81.2877 15 3.87298
81.4051 20 4.47214
81.5225 19 4.3589
81.6399 16 4
81.7573 18 4.24264
81.8747 10 3.16228
81.9922 19 4.3589
82.1096 15 3.87298
82.227 14 3.74166
82.3444 16 4
82.4619 8 2.82843
82.5793 19 4.3589
82.6967 13 3.60555
82.8142 12 3.4641
82.9316 13 3.60555
83.049 11 3.31662
83.1664 8 2.82843
83.2838 11 3.31662
83.4012 9 3
83.5186 13 3.60555
83.636 10 3.16228
83.7534 12 3.4641
83.8708 3 1.73205
83.9881 10 3.16228
84.1055 12 3.4641
84.2228 7 2.64575
84.3401 7 2.64575
84.4575 7 2.64575
84.5747 5 2.23607
84.692 6 2.44949
84.8093 5 2.23607
84.9265 6 2.44949
85.0437 7 2.64575
85.1609 5 2.23607
85.2781 4 2
85.3952 3 1.73205
85.5123 4 2
85.6294 10 3.16228
85.7465 9 3
85.8636 4 2
85.9806 6 2.44949
86.0976 6 2.44949
86.2145 2 1.41421
86.3315 3 1.73205
86.4484 7 2.64575
86.5652 6 2.44949
86.682 6 2.44949
86.7988 9 3
86.9156 5 2.23607
87.0323 4 2
87.149 4 2
87.2657 12 3.4641
87.3823 6 2.44949
87.4988 6 2.44949
87.6154 8 2.82843
87.7318 13 3.60555
87.8483 8 2.82843
87.9647 7 2.64575
88.081 17 4.12311
88.1973 17 4.12311
88.3136 14 3.74166
88.4298 17 4.12311
88.546 12 3.4641
88.6621 12 3.4641
88.7781 12 3.4641
88.8942 0 1
89.0101 0 1
89.126 0 1
89.2419 0 1
89.3577 0 1
89.4734 0 1
89.5891 0 1
89.7047 0 1
89.8203 0 1
89.9358 0 1
92.3269 0 1
92.4424 0 1
92.558 0 1
92.6736 0 1
92.7893 0 1
92.905 0 1
93.0208 0 1
93.1366 0 1
93.2525 0 1
93.3685 0 1
93.4845 0 1
93.6005 21 4.58258
93.7167 25 5
93.8328 19 4.3589
93.949 22 4.69042
94.0653 22 4.69042
94.1816 20 4.47214
94.2979 21 4.58258
94.4143 20 4.47214
94.5307 17 4.12311
94.6472 28 5.2915
94.7637 19 4.3589
94.8803 18 4.24264
94.9969 16 4
95.1135 19 4.3589
95.2302 17 4.12311
95.3469 16 4
95.4637 9 3
95.5805 13 3.60555
95.6973 15 3.87298
95.8142 24 4.89898
95.9311 22 4.69042
96.048 20 4.47214
96.1649 21 4.58258
96.2819 26 5.09902
96.3989 13 3.60555
96.516 25 5
96.633 29 5.38516
96.7501 22 4.69042
96.8673 19 4.3589
96.9844 28 5.2915
97.1016 23 4.79583
97.2188 27 5.19615
97.336 27 5.19615
97.4532 23 4.79583
97.5704 22 4.69042
97.6877 27 5.19615
97.805 32 5.65685
97.9223 31 5.56776
98.0396 37 6.08276
98.1569 33 5.74456
98.2743 44 6.63325
98.3916 34 5.83095
98.509 28 5.2915
98.6264 26 5.09902
98.7438 24 4.89898
98.8612 41 6.40312
98.9786 34 5.83095
99.096 19 4.3589
99.2134 29 5.38516
99.3308 17 4.12311
99.4482 31 5.56776
99.5656 36 6
99.6831 32 5.65685
99.8005 34 5.83095
99.9179 36 6
100.035 21 4.58258
100.153 49 7
100.27 49 7
100.388 41 6.40312
100.505 39 6.245
100.622 41 6.40312
100.74 44 6.63325
100.857 44 6.63325
100.975 44 6.63325
101.092 34 5.83095
101.209 37 6.08276
101.327 40 6.32456
101.444 47 6.85565
101.561 35 5.91608
101.679 36 6
101.796 34 5.83095
101.913 44 6.63325
102.03 37 6.08276
102.148 40 6.32456
102.265 54 7.34847
102.382 46 6.78233
102.499 38 6.16441
102.616 35 5.91608
102.733 32 5.65685
102.851 40 6.32456
102.968 50 7.07107
103.085 45 6.7082
103.202 53 7.28011
103.319 51 7.14143
103.436 43 6.55744
103.552 42 6.48074
103.669 47 6.85565
103.786 43 6.55744
103.903 42 6.48074
104.02 50 7.07107
104.137 48 6.9282
104.253 37 6.08276
104.37 44 6.63325
104.487 44 6.63325
104.603 51 7.14143
104.72 54 7.34847
104.836 49 7
104.953 50 7.07107
105.069 51 7.14143
105.186 42 6.48074
105.302 59 7.68115
105.418 48 6.9282
105.535 60 7.74597
105.651 47 6.85565
105.767 52 7.2111
105.883 50 7.07107
105.999 43 6.55744
106.115 0 1
106.231 0 1
106.347 0 1
106.463 0 1
106.579 0 1
106.694 0 1
106.81 0 1
106.926 0 1
107.041 0 1
107.157 0 1
109.576 0 1
109.692 0 1
109.807 0 1
109.923 0 1
110.039 0 1
110.155 0 1
110.27 0 1
110.386 0 1
110.502 0 1
110.618 41 6.40312
110.735 37 6.08276
110.851 47 6.85565
110.967 32 5.65685
111.083 33 5.74456
111.199 33 5.74456
111.316 28 5.2915
111.432 43 6.55744
111.549 35 5.91608
111.665 43 6.55744
111.782 43 6.55744
111.898 43 6.55744
112.015 36 6
112.132 33 5.74456
112.248 35 5.91608
112.365 42 6.48074
112.482 24 4.89898
112.599 26 5.09902
112.716 37 6.08276
112.832 31 5.56776
112.949 42 6.48074
113.066 20 4.47214
113.183 31 5.56776
113.3 48 6.9282
113.417 22 4.69042
113.534 27 5.19615
113.652 37 6.08276
113.769 28 5.2915
113.886 31 5.56776
114.003 25 5
114.12 29 5.38516
114.238 30 5.47723
114.355 32 5.65685
114.472 36 6
114.589 30 5.47723
114.707 18 4.24264
114.824 29 5.38516
114.942 24 4.89898
115.059 21 4.58258
115.176 28 5.2915
115.294 30 5.47723
115.411 26 5.09902
115.529 29 5.38516
115.646 31 5.56776
115.764 23 4.79583
115.881 42 6.48074
115.999 22 4.69042
116.116 24 4.89898
116.234 26 5.09902
116.351 32 5.65685
116.469 16 4
116.586 23 4.79583
116.704 29 5.38516
116.821 29 5.38516
116.939 20 4.47214
117.056 17 4.12311
117.174 36 6
117.291 27 5.19615
117.409 32 5.65685
117.526 27 5.19615
117.644 19 4.3589
117.761 19 4.3589
117.879 30 5.47723
117.996 20 4.47214
118.114 18 4.24264
118.231 25 5
118.349 25 5
118.466 24 4.89898
118.584 31 5.56776
118.701 22 4.69042
118.819 22 4.69042
118.936 17 4.12311
119.053 22 4.69042
119.171 24 4.89898
119.288 32 5.65685
119.405 31 5.56776
119.523 27 5.19615
119.64 26 5.09902
119.757 28 5.2915
119.875 22 4.69042
119.992 25 5
120.109 29 5.38516
120.226 29 5.38516
120.343 34 5.83095
120.46 21 4.58258
120.578 23 4.79583
120.695 25 5
120.812 30 5.47723
120.929 32 5.65685
121.046 26 5.09902
121.163 28 5.2915
121.279 17 4.12311
121.396 25 5
121.513 25 5
121.63 21 4.58258
121.747 25 5
121.863 20 4.47214
121.98 23 4.79583
122.097 17 4.12311
122.213 38 6.16441
122.33 20 4.47214
122.446 33 5.74456
122.563 19 4.3589
122.679 28 5.2915
122.795 34 5.83095
122.912 36 6
123.028 33 5.74456
123.144 40 6.32456
123.26 29 5.38516
123.377 0 1
123.493 0 1
123.609 0 1
123.725 0 1
123.84 0 1
123.956 0 1
124.072 0 1
124.188 0 1
124.303 0 1
124.419 0 1
126.852 0 1
126.968 0 1
127.083 0 1
127.199 0 1
127.315 0 1
127.431 0 1
127.547 0 1
127.663 0 1
127.779 0 1
127.895 0 1
128.011 0 1
128.127 0 1
128.243 0 1
128.359 55 7.4162
128.476 34 5.83095
128.592 44 6.63325
128.708 37 6.08276
128.825 31 5.56776
128.941 22 4.69042
129.058 30 5.47723
129.174 39 6.245
129.291 52 7.2111
129.408 49 7
129.524 33 5.74456
129.641 36 6
129.758 36 6
129.875 39 6.245
129.992 39 6.245
130.108 34 5.83095
130.225 37 6.08276
130.342 42 6.48074
130.459 34 5.83095
130.576 31 5.56776
130.693 28 5.2915
130.81 30 5.47723
130.928 26 5.09902
131.045 31 5.56776
131.162 42 6.48074
131.279 46 6.78233
131.396 43 6.55744
131.513 44 6.63325
131.631 43 6.55744
131.748 42 6.48074
131.865 41 6.40312
131.983 42 6.48074
132.1 37 6.08276
132.217 38 6.16441
132.335 45 6.7082
132.452 41 6.40312
132.57 39 6.245
132.687 37 6.08276
132.804 35 5.91608
132.922 41 6.40312
133.039 40 6.32456
133.157 50 7.07107
133.274 46 6.78233
133.392 45 6.7082
133.509 40 6.32456
133.627 49 7
133.744 42 6.48074
133.862 32 5.65685
133.979 38 6.16441
134.097 39 6.245
134.214 33 5.74456
134.332 30 5.47723
134.449 37 6.08276
134.567 26 5.09902
134.684 43 6.55744
134.802 49 7
134.919 53 7.28011
135.037 52 7.2111
135.154 52 7.2111
135.272 32 5.65685
135.389 53 7.28011
135.507 46 6.78233
135.624 37 6.08276
135.742 38 6.16441
135.859 57 7.54983
135.977 48 6.9282
136.094 43 6.55744
136.211 48 6.9282
136.329 53 7.28011
136.446 47 6.85565
136.564 40 6.32456
136.681 52 7.2111
136.798 46 6.78233
136.915 39 6.245
137.033 32 5.65685
137.15 46 6.78233
137.267 50 7.07107
137.384 35 5.91608
137.502 36 6
137.619 36 6
137.736 39 6.245
137.853 28 5.2915
137.97 26 5.09902
138.087 30 5.47723
138.204 42 6.48074
138.321 33 5.74456
138.438 38 6.16441
138.555 49 7
138.672 63 7.93725
138.788 53 7.28011
138.905 51 7.14143
139.022 54 7.34847
139.139 56 7.48331
139.255 57 7.54983
139.372 53 7.28011
139.488 47 6.85565
139.605 38 6.16441
139.721 61 7.81025
139.838 58 7.61577
139.954 62 7.87401
140.071 51 7.14143
140.187 69 8.30662
140.303 57 7.54983
140.419 59 7.68115
140.535 45 6.7082
140.652 43 6.55744
140.768 0 1
140.884 0 1
141 0 1
141.115 0 1
141.231 0 1
141.347 0 1
141.463 0 1
141.578 0 1
141.694 0 1
144.104 0 1
144.219 0 1
144.335 0 1
144.45 0 1
144.566 0 1
144.682 0 1
144.798 0 1
144.914 0 1
145.03 0 1
145.146 54 7.34847
145.262 46 6.78233
145.378 50 7.07107
145.494 41 6.40312
145.61 51 7.14143
145.726 48 6.9282
145.842 56 7.48331
145.959 58 7.61577
146.075 40 6.32456
146.192 62 7.87401
146.308 44 6.63325
146.425 52 7.2111
146.541 46 6.78233
146.658 34 5.83095
146.774 38 6.16441
146.891 38 6.16441
147.008 40 6.32456
147.125 46 6.78233
147.241 57 7.54983
147.358 58 7.61577
147.475 51 7.14143
147.592 39 6.245
147.709 54 7.34847
147.826 57 7.54983
147.943 49 7
148.06 47 6.85565
148.177 56 7.48331
148.294 45 6.7082
148.411 50 7.07107
148.528 46 6.78233
148.645 56 7.48331
148.762 38 6.16441
148.88 43 6.55744
148.997 44 6.63325
149.114 40 6.32456
149.231 54 7.34847
149.349 47 6.85565
149.466 49 7
149.583 48 6.9282
149.701 51 7.14143
149.818 48 6.9282
149.935 46 6.78233
150.053 44 6.63325
150.17 39 6.245
150.287 46 6.78233
150.405 52 7.2111
150.522 61 7.81025
150.64 41 6.40312
150.757 54 7.34847
150.875 52 7.2111
150.992 54 7.34847
151.11 45 6.7082
151.227 51 7.14143
151.344 46 6.78233
151.462 48 6.9282
151.579 48 6.9282
151.697 55 7.4162
151.814 52 7.2111
151.932 48 6.9282
152.049 55 7.4162
152.167 40 6.32456
152.284 53 7.28011
152.402 53 7.28011
152.519 57 7.54983
152.636 55 7.4162
152.754 56 7.48331
152.871 55 7.4162
152.989 50 7.07107
153.106 47 6.85565
153.223 55 7.4162
153.341 49 7
153.458 54 7.34847
153.575 48 6.9282
153.693 34 5.83095
153.81 39 6.245
153.927 56 7.48331
154.044 36 6
154.162 55 7.4162
154.279 56 7.48331
154.396 44 6.63325
154.513 58 7.61577
154.63 43 6.55744
154.747 51 7.14143
154.864 54 7.34847
154.981 54 7.34847
155.098 54 7.34847
155.215 50 7.07107
155.332 62 7.87401
155.449 62 7.87401
155.566 46 6.78233
155.683 58 7.61577
155.8 48 6.9282
155.917 66 8.12404
156.033 43 6.55744
156.15 0 1
156.267 0 1
156.383 0 1
156.5 0 1
156.617 0 1
156.733 0 1
156.85 0 1
156.966 0 1
157.082 0 1
157.199 0 1
157.315 0 1
157.431 0 1
157.547 0 1
157.664 0 1
157.78 0 1
157.896 0 1
158.012 0 1
158.128 0 1
158.244 0 1
158.359 0 1
158.475 0 1
158.591 0 1
158.706 0 1
