
6.15755 0 1
6.2731 0 1
6.3887 0 1
6.50437 0 1
6.62009 0 1
6.73587 0 1
6.8517 0 1
6.96759 0 1
7.08353 0 1
7.19952 0 1
7.31557 0 1
7.43166 0 1
7.54781 0 1
7.664 0 1
7.78024 0 1
7.89653 0 1
8.01286 0 1
8.12924 0 1
8.24567 0 1
8.36213 0 1
8.47864 0 1
8.59519 0 1
8.71178 0 1
8.82841 0 1
8.94508 0 1
9.06179 0 1
9.17853 0 1
9.29531 0 1
9.41212 0 1
9.52897 0 1
9.64584 0 1
9.76276 0 1
9.8797 0 1
9.99667 0 1
10.1137 0 1
10.2307 0 1
10.3478 0 1
10.4648 0 1
10.5819 0 1
10.6991 0 1
10.8162 0 1
10.9334 0 1
11.0506 0 1
11.1678 0 1
11.285 0 1
11.4023 0 1
11.5196 0 1
11.6369 0 1
11.7542 0 1
11.8715 0 1
11.9888 0 1
12.1062 0 1
12.2235 0 1
12.3409 0 1
12.4582 0 1
12.5756 0 1
12.693 0 1
12.8104 0 1
12.9278 0 1
13.0452 0 1
13.1626 0 1
13.28 0 1
13.3974 0 1
13.5149 0 1
13.6323 0 1
13.7497 0 1
13.8671 0 1
13.9845 0 1
14.1019 0 1
14.2193 0 1
14.3367 0 1
14.4541 0 1
14.5714 0 1
14.6888 0 1
14.8062 0 1
14.9235 0 1
15.0408 0 0
15.1581 0 0
15.2755 0 0
15.3927 0 0
15.51 0 0
15.6273 0 0
15.7445 0 0
15.8617 0 0
15.9789 0 0
16.0961 0 0
16.2132 0 0
16.3304 0 0
16.4475 0 0
16.5646 0 0
16.6816 0 0
16.7986 0 0
16.9156 0 0
17.0326 0 0
17.1496 0 0
17.2665 0 0
17.3833 0 0
17.5002 0 0
17.617 0 0
17.7338 0 0
17.8505 0 0
17.9672 0 0
18.0839 0 0
18.2005 0 0
18.3171 0 0
18.4337 0 0
18.5502 0 0
18.6666 0 0
18.7831 0 0
18.8994 0 0
19.0158 0 0
19.1321 0 0
19.2483 0 0
19.3645 0 0
19.4806 0 0
19.5967 0 0
19.7128 0 0
19.8288 0 0
19.9447 0 0
20.0606 0 1
20.1764 0 1
20.2922 0 1
20.4079 0 1
20.5236 0 1
20.6392 0 1
20.7548 0 1
20.8702 0 1
23.3078 0 1
23.4233 0 1
23.539 0 1
23.6547 0 1
23.7704 0 1
23.8862 0 1
24.0021 0 1
24.118 0 1
24.234 0 1
24.35 0 1
24.4661 706 26.5707
24.5822 744 27.2764
24.6984 785 28.0179
24.8146 824 28.7054
24.9309 744 27.2764
25.0472 749 27.3679
25.1636 787 28.0535
25.28 811 28.4781
25.3965 798 28.2489
25.513 856 29.2575
25.6296 833 28.8617
25.7462 889 29.8161
25.8628 814 28.5307
25.9795 856 29.2575
26.0962 869 29.4788
26.213 834 28.8791
26.3298 835 28.8964
26.4466 856 29.2575
26.5635 845 29.0689
26.6804 764 27.6405
26.7973 741 27.2213
26.9143 737 27.1477
27.0313 657 25.632
27.1483 661 25.7099
27.2653 705 26.5518
27.3824 747 27.3313
27.4996 735 27.1109
27.6167 724 26.9072
27.7339 739 27.1846
27.8511 701 26.4764
27.9683 703 26.5141
28.0855 703 26.5141
28.2028 683 26.1343
28.3201 670 25.8844
28.4374 703 26.5141
28.5547 727 26.9629
28.6721 716 26.7582
28.7894 781 27.9464
28.9068 812 28.4956
29.0242 723 26.8887
29.1416 797 28.2312
29.259 779 27.9106
29.3764 756 27.4955
29.4939 771 27.7669
29.6113 770 27.7489
29.7288 782 27.9643
29.8463 733 27.074
29.9638 725 26.9258
30.0812 795 28.1957
30.1987 741 27.2213
30.3162 657 25.632
30.4337 665 25.7876
30.5512 618 24.8596
30.6687 610 24.6982
30.7862 684 26.1534
30.9037 658 25.6515
31.0212 664 25.7682
31.1387 682 26.1151
31.2562 693 26.3249
31.3737 677 26.0192
31.4912 680 26.0768
31.6087 674 25.9615
31.7262 623 24.96
31.8436 680 26.0768
31.9611 735 27.1109
32.0785 732 27.0555
32.1959 727 26.9629
32.3134 692 26.3059
32.4308 759 27.55
32.5482 757 27.5136
32.6655 786 28.0357
32.7829 724 26.9072
32.9002 702 26.4953
33.0176 699 26.4386
33.1349 757 27.5136
33.2522 705 26.5518
33.3694 740 27.2029
33.4867 707 26.5895
33.6039 783 27.9821
33.7211 723 26.8887
33.8383 689 26.2488
33.9554 695 26.3629
34.0725 678 26.0384
34.1896 621 24.9199
34.3067 601 24.5153
34.4237 670 25.8844
34.5407 647 25.4362
34.6577 663 25.7488
34.7746 672 25.923
34.8915 644 25.3772
35.0084 659 25.671
35.1252 608 24.6577
35.242 620 24.8998
35.3587 609 24.6779
35.4755 679 26.0576
35.5921 609 24.6779
35.7088 739 27.1846
35.8254 680 26.0768
35.9419 743 27.258
36.0584 719 26.8142
36.1749 729 27
36.2913 732 27.0555
36.4077 742 27.2397
36.524 721 26.8514
36.6403 732 27.0555
36.7565 702 26.4953
36.8727 720 26.8328
36.9889 699 26.4386
37.1049 719 26.8142
37.221 0 1
37.3369 0 1
37.4529 0 1
37.5687 0 1
37.6845 0 1
37.8003 0 1
37.916 0 1
38.0316 0 1
38.1472 0 1
40.5851 0 1
40.7008 0 1
40.8164 0 1
40.9322 0 1
41.048 0 1
41.1639 0 1
41.2798 0 1
41.3958 0 1
41.5118 0 1
41.6279 0 1
41.744 607 24.6374
41.8602 610 24.6982
41.9765 541 23.2594
42.0928 617 24.8395
42.2091 606 24.6171
42.3255 591 24.3105
42.4419 592 24.3311
42.5584 654 25.5734
42.675 606 24.6171
42.7915 573 23.9374
42.9081 610 24.6982
43.0248 540 23.2379
43.1415 506 22.4944
43.2582 503 22.4277
43.375 525 22.9129
43.4918 591 24.3105
43.6087 593 24.3516
43.7256 530 23.0217
43.8425 514 22.6716
43.9595 502 22.4054
44.0765 539 23.2164
44.1935 526 22.9347
44.3106 484 22
44.4277 486 22.0454
44.5448 567 23.8118
44.6619 593 24.3516
44.7791 601 24.5153
44.8963 548 23.4094
45.0136 478 21.8632
45.1308 556 23.5797
45.2481 548 23.4094
45.3654 529 23
45.4827 503 22.4277
45.6001 503 22.4277
45.7174 495 22.2486
45.8348 504 22.4499
45.9522 474 21.7715
46.0697 476 21.8174
46.1871 467 21.6102
46.3046 491 22.1585
46.422 452 21.2603
46.5395 484 22
46.657 430 20.7364
46.7745 429 20.7123
46.892 380 19.4936
47.0096 400 20
47.1271 433 20.8087
47.2446 409 20.2237
47.3622 400 20
47.4797 367 19.1572
47.5973 395 19.8746
47.7149 387 19.6723
47.8324 360 18.9737
47.95 414 20.347
48.0675 418 20.445
48.1851 413 20.3224
48.3027 392 19.799
48.4202 396 19.8997
48.5378 385 19.6214
48.6554 426 20.6398
48.7729 369 19.2094
48.8904 374 19.3391
49.008 372 19.2873
49.1255 391 19.7737
49.243 392 19.799
49.3605 423 20.567
49.478 406 20.1494
49.5955 417 20.4206
49.713 436 20.8806
49.8304 470 21.6795
49.9479 443 21.0476
50.0653 376 19.3907
50.1827 364 19.0788
50.3001 337 18.3576
50.4175 352 18.7617
50.5348 392 19.799
50.6521 387 19.6723
50.7694 384 19.5959
50.8867 429 20.7123
51.004 386 19.6469
51.1212 440 20.9762
51.2384 427 20.664
51.3556 414 20.347
51.4727 463 21.5174
51.5899 461 21.4709
51.707 538 23.1948
51.824 471 21.7025
51.9411 504 22.4499
52.0581 466 21.587
52.175 529 23
52.2919 505 22.4722
52.4088 505 22.4722
52.5257 522 22.8473
52.6425 530 23.0217
52.7593 494 22.2261
52.876 547 23.388
52.9927 539 23.2164
53.1094 518 22.7596
53.226 533 23.0868
53.3426 546 23.3666
53.4591 555 23.5584
53.5756 541 23.2594
53.692 569 23.8537
53.8084 515 22.6936
53.9248 454 21.3073
54.0411 429 20.7123
54.1573 481 21.9317
54.2735 0 1
54.3896 0 1
54.5057 0 1
54.6217 0 1
54.7377 0 1
54.8537 0 1
54.9695 0 1
55.0853 0 1
55.2011 0 1
55.3168 0 1
55.4324 0 1
57.824 0 1
57.9396 0 1
58.0553 0 1
58.1711 0 1
58.2869 0 1
58.4028 0 1
58.5187 0 1
58.6347 0 1
58.7508 0 1
58.8669 0 1
58.983 559 23.6432
59.0992 521 22.8254
59.2155 530 23.0217
59.3318 510 22.5832
59.4482 504 22.4499
59.5646 554 23.5372
59.681 581 24.1039
59.7975 540 23.2379
59.9141 564 23.7487
60.0306 577 24.0208
60.1473 569 23.8537
60.2639 540 23.2379
60.3807 558 23.622
60.4974 620 24.8998
60.6142 592 24.3311
60.731 537 23.1733
60.8479 603 24.5561
60.9648 586 24.2074
61.0818 570 23.8747
61.1987 554 23.5372
61.3158 593 24.3516
61.4328 537 23.1733
61.5499 574 23.9583
61.667 549 23.4307
61.7841 587 24.2281
61.9013 518 22.7596
62.0185 572 23.9165
62.1357 584 24.1661
62.253 532 23.0651
62.3702 496 22.2711
62.4875 481 21.9317
62.6049 452 21.2603
62.7222 472 21.7256
62.8396 406 20.1494
62.9569 494 22.2261
63.0743 481 21.9317
63.1918 500 22.3607
63.3092 512 22.6274
63.4267 522 22.8473
63.5441 499 22.3383
63.6616 525 22.9129
63.7791 503 22.4277
63.8966 472 21.7256
64.0142 505 22.4722
64.1317 508 22.5389
64.2492 514 22.6716
64.3668 495 22.2486
64.4843 522 22.8473
64.6019 454 21.3073
64.7195 513 22.6495
64.837 463 21.5174
64.9546 488 22.0907
65.0722 470 21.6795
65.1898 511 22.6053
65.3074 472 21.7256
65.4249 492 22.1811
65.5425 456 21.3542
65.6601 452 21.2603
65.7777 477 21.8403
65.8952 470 21.6795
66.0128 447 21.1424
66.1304 413 20.3224
66.2479 434 20.8327
66.3655 375 19.3649
66.483 390 19.7484
66.6005 416 20.3961
66.718 423 20.567
66.8355 441 21
66.953 456 21.3542
67.0705 433 20.8087
67.1879 501 22.383
67.3054 424 20.5913
67.4228 430 20.7364
67.5402 439 20.9523
67.6576 437 20.9045
67.7749 404 20.0998
67.8923 485 22.0227
68.0096 436 20.8806
68.1269 424 20.5913
68.2442 476 21.8174
68.3614 448 21.166
68.4787 444 21.0713
68.5958 417 20.4206
68.713 428 20.6882
68.8302 420 20.4939
68.9473 453 21.2838
69.0643 426 20.6398
69.1814 426 20.6398
69.2984 432 20.7846
69.4154 453 21.2838
69.5323 430 20.7364
69.6492 430 20.7364
69.7661 407 20.1742
69.8829 430 20.7364
69.9997 372 19.2873
70.1165 354 18.8149
70.2332 373 19.3132
70.3499 388 19.6977
70.4665 356 18.868
70.5831 421 20.5183
70.6996 414 20.347
70.8161 394 19.8494
70.9326 403 20.0749
71.049 411 20.2731
71.1653 393 19.8242
71.2817 347 18.6279
71.3979 364 19.0788
71.5141 388 19.6977
71.6303 355 18.8414
71.7464 360 18.9737
71.8624 0 1
71.9784 0 1
72.0944 0 1
72.2102 0 1
72.3261 0 1
72.4418 0 1
72.5575 0 1
72.6732 0 1
75.1054 0 1
75.2209 0 1
75.3365 0 1
75.4521 0 1
75.5678 0 1
75.6835 0 1
75.7993 0 1
75.9151 0 1
76.031 0 1
76.147 283 16.8226
76.263 358 18.9209
76.3791 298 17.2627
76.4952 286 16.9115
76.6113 298 17.2627
76.7276 306 17.4929
76.8438 300 17.3205
76.9601 314 17.72
77.0765 295 17.1756
77.1929 308 17.5499
77.3093 288 16.9706
77.4258 277 16.6433
77.5423 277 16.6433
77.6589 288 16.9706
77.7755 270 16.4317
77.8921 258 16.0624
78.0088 278 16.6733
78.1256 272 16.4924
78.2423 283 16.8226
78.3591 249 15.7797
78.4759 247 15.7162
78.5928 256 16
78.7097 249 15.7797
78.8266 248 15.748
78.9436 233 15.2643
79.0606 227 15.0665
79.1776 188 13.7113
79.2946 186 13.6382
79.4117 196 14
79.5288 218 14.7648
79.6459 212 14.5602
79.7631 228 15.0997
79.8802 207 14.3875
79.9974 195 13.9642
80.1147 188 13.7113
80.2319 203 14.2478
80.3491 186 13.6382
80.4664 189 13.7477
80.5837 190 13.784
80.701 160 12.6491
80.8183 191 13.8203
80.9357 156 12.49
81.053 159 12.6095
81.1704 170 13.0384
81.2877 160 12.6491
81.4051 170 13.0384
81.5225 157 12.53
81.6399 155 12.4499
81.7573 161 12.6886
81.8747 155 12.4499
81.9922 127 11.2694
82.1096 153 12.3693
82.227 116 10.7703
82.3444 111 10.5357
82.4619 119 10.9087
82.5793 113 10.6301
82.6967 120 10.9545
82.8142 81 9
82.9316 81 9
83.049 95 9.74679
83.1664 81 9
83.2838 94 9.69536
83.4012 93 9.64365
83.5186 85 9.21954
83.636 87 9.32738
83.7534 69 8.30662
83.8708 65 8.06226
83.9881 66 8.12404
84.1055 64 8
84.2228 62 7.87401
84.3401 70 8.3666
84.4575 55 7.4162
84.5747 44 6.63325
84.692 51 7.14143
84.8093 45 6.7082
84.9265 41 6.40312
85.0437 46 6.78233
85.1609 41 6.40312
85.2781 54 7.34847
85.3952 49 7
85.5123 65 8.06226
85.6294 58 7.61577
85.7465 60 7.74597
85.8636 51 7.14143
85.9806 45 6.7082
86.0976 37 6.08276
86.2145 31 5.56776
86.3315 37 6.08276
86.4484 52 7.2111
86.5652 55 7.4162
86.682 67 8.18535
86.7988 62 7.87401
86.9156 65 8.06226
87.0323 65 8.06226
87.149 76 8.7178
87.2657 67 8.18535
87.3823 69 8.30662
87.4988 77 8.77496
87.6154 76 8.7178
87.7318 85 9.21954
87.8483 95 9.74679
87.9647 103 10.1489
88.081 116 10.7703
88.1973 118 10.8628
88.3136 129 11.3578
88.4298 149 12.2066
88.546 120 10.9545
88.6621 141 11.8743
88.7781 171 13.0767
88.8942 0 1
89.0101 0 1
89.126 0 1
89.2419 0 1
89.3577 0 1
89.4734 0 1
89.5891 0 1
89.7047 0 1
89.8203 0 1
89.9358 0 1
92.3269 0 1
92.4424 0 1
92.558 0 1
92.6736 0 1
92.7893 0 1
92.905 0 1
93.0208 0 1
93.1366 0 1
93.2525 0 1
93.3685 0 1
93.4845 0 1
93.6005 233 15.2643
93.7167 217 14.7309
93.8328 222 14.8997
93.949 197 14.0357
94.0653 205 14.3178
94.1816 218 14.7648
94.2979 190 13.784
94.4143 204 14.2829
94.5307 190 13.784
94.6472 195 13.9642
94.7637 169 13
94.8803 174 13.1909
94.9969 193 13.8924
95.1135 175 13.2288
95.2302 171 13.0767
95.3469 165 12.8452
95.4637 125 11.1803
95.5805 132 11.4891
95.6973 158 12.5698
95.8142 193 13.8924
95.9311 204 14.2829
96.048 199 14.1067
96.1649 197 14.0357
96.2819 191 13.8203
96.3989 217 14.7309
96.516 193 13.8924
96.633 224 14.9666
96.7501 214 14.6287
96.8673 259 16.0935
96.9844 274 16.5529
97.1016 246 15.6844
97.2188 255 15.9687
97.336 259 16.0935
97.4532 271 16.4621
97.5704 272 16.4924
97.6877 235 15.3297
97.805 307 17.5214
97.9223 285 16.8819
98.0396 327 18.0831
98.1569 320 17.8885
98.2743 323 17.9722
98.3916 311 17.6352
98.509 326 18.0555
98.6264 379 19.4679
98.7438 331 18.1934
98.8612 316 17.7764
98.9786 304 17.4356
99.096 250 15.8114
99.2134 244 15.6205
99.3308 275 16.5831
99.4482 371 19.2614
99.5656 382 19.5448
99.6831 391 19.7737
99.8005 380 19.4936
99.9179 375 19.3649
100.035 403 20.0749
100.153 430 20.7364
100.27 401 20.025
100.388 422 20.5426
100.505 401 20.025
100.622 435 20.8567
100.74 422 20.5426
100.857 414 20.347
100.975 399 19.975
101.092 446 21.1187
101.209 462 21.4942
101.327 441 21
101.444 408 20.199
101.561 452 21.2603
101.679 459 21.4243
101.796 488 22.0907
101.913 447 21.1424
102.03 432 20.7846
102.148 442 21.0238
102.265 503 22.4277
102.382 471 21.7025
102.499 437 20.9045
102.616 327 18.0831
102.733 312 17.6635
102.851 372 19.2873
102.968 438 20.9284
103.085 464 21.5407
103.202 436 20.8806
103.319 464 21.5407
103.436 452 21.2603
103.552 467 21.6102
103.669 438 20.9284
103.786 488 22.0907
103.903 453 21.2838
104.02 488 22.0907
104.137 475 21.7945
104.253 510 22.5832
104.37 470 21.6795
104.487 498 22.3159
104.603 513 22.6495
104.72 501 22.383
104.836 467 21.6102
104.953 465 21.5639
105.069 505 22.4722
105.186 481 21.9317
105.302 498 22.3159
105.418 471 21.7025
105.535 487 22.0681
105.651 453 21.2838
105.767 503 22.4277
105.883 465 21.5639
105.999 412 20.2978
106.115 0 1
106.231 0 1
106.347 0 1
106.463 0 1
106.579 0 1
106.694 0 1
106.81 0 1
106.926 0 1
107.041 0 1
107.157 0 1
109.576 0 1
109.692 0 1
109.807 0 1
109.923 0 1
110.039 0 1
110.155 0 1
110.27 0 1
110.386 0 1
110.502 0 1
110.618 387 19.6723
110.735 382 19.5448
110.851 395 19.8746
110.967 356 18.868
111.083 307 17.5214
111.199 321 17.9165
111.316 275 16.5831
111.432 312 17.6635
111.549 363 19.0526
111.665 343 18.5203
111.782 338 18.3848
111.898 339 18.412
112.015 329 18.1384
112.132 330 18.1659
112.248 310 17.6068
112.365 323 17.9722
112.482 329 18.1384
112.599 292 17.088
112.716 299 17.2916
112.832 304 17.4356
112.949 299 17.2916
113.066 317 17.8045
113.183 301 17.3494
113.3 322 17.9444
113.417 266 16.3095
113.534 294 17.1464
113.652 283 16.8226
113.769 313 17.6918
113.886 263 16.2173
114.003 281 16.7631
114.12 279 16.7033
114.238 262 16.1864
114.355 245 15.6525
114.472 266 16.3095
114.589 243 15.5885
114.707 203 14.2478
114.824 237 15.3948
114.942 253 15.906
115.059 261 16.1555
115.176 275 16.5831
115.294 289 17
115.411 226 15.0333
115.529 289 17
115.646 258 16.0624
115.764 254 15.9374
115.881 261 16.1555
115.999 243 15.5885
116.116 274 16.5529
116.234 268 16.3707
116.351 266 16.3095
116.469 224 14.9666
116.586 249 15.7797
116.704 246 15.6844
116.821 233 15.2643
116.939 237 15.3948
117.056 260 16.1245
117.174 237 15.3948
117.291 265 16.2788
117.409 274 16.5529
117.526 242 15.5563
117.644 247 15.7162
117.761 223 14.9332
117.879 215 14.6629
117.996 201 14.1774
118.114 206 14.3527
118.231 227 15.0665
118.349 229 15.1327
118.466 244 15.6205
118.584 244 15.6205
118.701 264 16.2481
118.819 272 16.4924
118.936 276 16.6132
119.053 269 16.4012
119.171 258 16.0624
119.288 278 16.6733
119.405 296 17.2047
119.523 286 16.9115
119.64 272 16.4924
119.757 256 16
119.875 262 16.1864
119.992 295 17.1756
120.109 262 16.1864
120.226 299 17.2916
120.343 258 16.0624
120.46 239 15.4596
120.578 262 16.1864
120.695 256 16
120.812 273 16.5227
120.929 255 15.9687
121.046 279 16.7033
121.163 299 17.2916
121.279 246 15.6844
121.396 292 17.088
121.513 244 15.6205
121.63 239 15.4596
121.747 207 14.3875
121.863 189 13.7477
121.98 223 14.9332
122.097 252 15.8745
122.213 281 16.7631
122.33 271 16.4621
122.446 268 16.3707
122.563 278 16.6733
122.679 273 16.5227
122.795 283 16.8226
122.912 309 17.5784
123.028 291 17.0587
123.144 276 16.6132
123.26 313 17.6918
123.377 0 1
123.493 0 1
123.609 0 1
123.725 0 1
123.84 0 1
123.956 0 1
124.072 0 1
124.188 0 1
124.303 0 1
124.419 0 1
126.852 0 1
126.968 0 1
127.083 0 1
127.199 0 1
127.315 0 1
127.431 0 1
127.547 0 1
127.663 0 1
127.779 0 1
127.895 0 1
128.011 0 1
128.127 0 1
128.243 0 1
128.359 360 18.9737
128.476 386 19.6469
128.592 363 19.0526
128.708 395 19.8746
128.825 365 19.105
128.941 372 19.2873
129.058 346 18.6011
129.174 354 18.8149
129.291 373 19.3132
129.408 395 19.8746
129.524 332 18.2209
129.641 364 19.0788
129.758 434 20.8327
129.875 442 21.0238
129.992 422 20.5426
130.108 393 19.8242
130.225 393 19.8242
130.342 346 18.6011
130.459 318 17.8326
130.576 285 16.8819
130.693 231 15.1987
130.81 226 15.0333
130.928 283 16.8226
131.045 298 17.2627
131.162 376 19.3907
131.279 380 19.4936
131.396 385 19.6214
131.513 418 20.445
131.631 382 19.5448
131.748 384 19.5959
131.865 374 19.3391
131.983 441 21
132.1 439 20.9523
132.217 444 21.0713
132.335 388 19.6977
132.452 423 20.567
132.57 404 20.0998
132.687 413 20.3224
132.804 400 20
132.922 416 20.3961
133.039 416 20.3961
133.157 392 19.799
133.274 383 19.5704
133.392 440 20.9762
133.509 431 20.7605
133.627 366 19.1311
133.744 417 20.4206
133.862 379 19.4679
133.979 357 18.8944
134.097 309 17.5784
134.214 343 18.5203
134.332 283 16.8226
134.449 284 16.8523
134.567 298 17.2627
134.684 349 18.6815
134.802 417 20.4206
134.919 396 19.8997
135.037 433 20.8087
135.154 420 20.4939
135.272 451 21.2368
135.389 455 21.3307
135.507 423 20.567
135.624 453 21.2838
135.742 450 21.2132
135.859 485 22.0227
135.977 446 21.1187
136.094 416 20.3961
136.211 430 20.7364
136.329 469 21.6564
136.446 462 21.4942
136.564 436 20.8806
136.681 478 21.8632
136.798 434 20.8327
136.915 453 21.2838
137.033 449 21.1896
137.15 475 21.7945
137.267 417 20.4206
137.384 441 21
137.502 401 20.025
137.619 385 19.6214
137.736 363 19.0526
137.853 321 17.9165
137.97 340 18.4391
138.087 372 19.2873
138.204 366 19.1311
138.321 378 19.4422
138.438 419 20.4695
138.555 397 19.9249
138.672 456 21.3542
138.788 478 21.8632
138.905 489 22.1133
139.022 523 22.8692
139.139 512 22.6274
139.255 535 23.1301
139.372 498 22.3159
139.488 523 22.8692
139.605 520 22.8035
139.721 520 22.8035
139.838 508 22.5389
139.954 475 21.7945
140.071 502 22.4054
140.187 514 22.6716
140.303 502 22.4054
140.419 480 21.9089
140.535 526 22.9347
140.652 521 22.8254
140.768 0 1
140.884 0 1
141 0 1
141.115 0 1
141.231 0 1
141.347 0 1
141.463 0 1
141.578 0 1
141.694 0 1
144.104 0 1
144.219 0 1
144.335 0 1
144.45 0 1
144.566 0 1
144.682 0 1
144.798 0 1
144.914 0 1
145.03 0 1
145.146 503 22.4277
145.262 471 21.7025
145.378 498 22.3159
145.494 490 22.1359
145.61 476 21.8174
145.726 408 20.199
145.842 422 20.5426
145.959 422 20.5426
146.075 420 20.4939
146.192 408 20.199
146.308 369 19.2094
146.425 403 20.0749
146.541 357 18.8944
146.658 353 18.7883
146.774 401 20.025
146.891 393 19.8242
147.008 417 20.4206
147.125 383 19.5704
147.241 463 21.5174
147.358 475 21.7945
147.475 483 21.9773
147.592 464 21.5407
147.709 506 22.4944
147.826 412 20.2978
147.943 473 21.7486
148.06 437 20.9045
148.177 499 22.3383
148.294 457 21.3776
148.411 470 21.6795
148.528 447 21.1424
148.645 449 21.1896
148.762 492 22.1811
148.88 495 22.2486
148.997 438 20.9284
149.114 477 21.8403
149.231 435 20.8567
149.349 467 21.6102
149.466 445 21.095
149.583 442 21.0238
149.701 394 19.8494
149.818 399 19.975
149.935 444 21.0713
150.053 358 18.9209
150.17 379 19.4679
150.287 392 19.799
150.405 358 18.9209
150.522 402 20.0499
150.64 424 20.5913
150.757 425 20.6155
150.875 472 21.7256
150.992 472 21.7256
151.11 429 20.7123
151.227 477 21.8403
151.344 474 21.7715
151.462 447 21.1424
151.579 462 21.4942
151.697 449 21.1896
151.814 484 22
151.932 487 22.0681
152.049 499 22.3383
152.167 518 22.7596
152.284 493 22.2036
152.402 424 20.5913
152.519 491 22.1585
152.636 485 22.0227
152.754 520 22.8035
152.871 534 23.1084
152.989 449 21.1896
153.106 476 21.8174
153.223 441 21
153.341 407 20.1742
153.458 427 20.664
153.575 412 20.2978
153.693 401 20.025
153.81 388 19.6977
153.927 402 20.0499
154.044 412 20.2978
154.162 404 20.0998
154.279 468 21.6333
154.396 497 22.2935
154.513 484 22
154.63 451 21.2368
154.747 497 22.2935
154.864 526 22.9347
154.981 478 21.8632
155.098 513 22.6495
155.215 475 21.7945
155.332 492 22.1811
155.449 499 22.3383
155.566 532 23.0651
155.683 519 22.7816
155.8 499 22.3383
155.917 505 22.4722
156.033 498 22.3159
156.15 0 1
156.267 0 1
156.383 0 1
156.5 0 1
156.617 0 1
156.733 0 1
156.85 0 1
156.966 0 1
157.082 0 1
157.199 0 1
157.315 0 1
157.431 0 1
157.547 0 1
157.664 0 1
157.78 0 1
157.896 0 1
158.012 0 1
158.128 0 1
158.244 0 1
158.359 0 1
158.475 0 1
158.591 0 1
158.706 0 1
