
6.15755 0 1
6.2731 0 1
6.3887 0 1
6.50437 0 1
6.62009 0 1
6.73587 0 1
6.8517 0 1
6.96759 0 1
7.08353 0 1
7.19952 0 1
7.31557 0 1
7.43166 0 1
7.54781 0 1
7.664 0 1
7.78024 0 1
7.89653 0 1
8.01286 0 1
8.12924 0 1
8.24567 0 1
8.36213 0 1
8.47864 0 1
8.59519 0 1
8.71178 0 1
8.82841 0 1
8.94508 0 1
9.06179 0 1
9.17853 0 1
9.29531 0 1
9.41212 0 1
9.52897 0 1
9.64584 0 1
9.76276 0 1
9.8797 0 1
9.99667 0 1
10.1137 0 1
10.2307 0 1
10.3478 0 1
10.4648 0 1
10.5819 0 1
10.6991 0 1
10.8162 0 1
10.9334 0 1
11.0506 0 1
11.1678 0 1
11.285 0 1
11.4023 0 1
11.5196 0 1
11.6369 0 1
11.7542 0 1
11.8715 0 1
11.9888 0 1
12.1062 0 1
12.2235 0 1
12.3409 0 1
12.4582 0 1
12.5756 0 1
12.693 0 1
12.8104 0 1
12.9278 0 1
13.0452 0 1
13.1626 0 1
13.28 0 1
13.3974 0 1
13.5149 0 1
13.6323 0 1
13.7497 0 1
13.8671 0 1
13.9845 0 1
14.1019 0 1
14.2193 0 1
14.3367 0 1
14.4541 0 1
14.5714 0 1
14.6888 0 1
14.8062 0 1
14.9235 0 1
15.0408 0 0
15.1581 0 0
15.2755 0 0
15.3927 0 0
15.51 0 0
15.6273 0 0
15.7445 0 0
15.8617 0 0
15.9789 0 0
16.0961 0 0
16.2132 0 0
16.3304 0 0
16.4475 0 0
16.5646 0 0
16.6816 0 0
16.7986 0 0
16.9156 0 0
17.0326 0 0
17.1496 0 0
17.2665 0 0
17.3833 0 0
17.5002 0 0
17.617 0 0
17.7338 0 0
17.8505 0 0
17.9672 0 0
18.0839 0 0
18.2005 0 0
18.3171 0 0
18.4337 0 0
18.5502 0 0
18.6666 0 0
18.7831 0 0
18.8994 0 0
19.0158 0 0
19.1321 0 0
19.2483 0 0
19.3645 0 0
19.4806 0 0
19.5967 0 0
19.7128 0 0
19.8288 0 0
19.9447 0 0
20.0606 0 1
20.1764 0 1
20.2922 0 1
20.4079 0 1
20.5236 0 1
20.6392 0 1
20.7548 0 1
20.8702 0 1
23.3078 0 1
23.4233 0 1
23.539 0 1
23.6547 0 1
23.7704 0 1
23.8862 0 1
24.0021 0 1
24.118 0 1
24.234 0 1
24.35 0 1
24.4661 2430 49.295
24.5822 2475 49.7494
24.6984 2340 48.3735
24.8146 2314 48.1041
24.9309 2299 47.9479
25.0472 2183 46.7226
25.1636 2214 47.0532
25.28 2180 46.6905
25.3965 2384 48.8262
25.513 2538 50.3786
25.6296 2665 51.6236
25.7462 2969 54.4885
25.8628 2997 54.7449
25.9795 2931 54.1387
26.0962 3022 54.9727
26.213 3132 55.9643
26.3298 3019 54.9454
26.4466 3009 54.8544
26.5635 3035 55.0908
26.6804 2931 54.1387
26.7973 3071 55.4166
26.9143 3014 54.8999
27.0313 2972 54.5161
27.1483 2935 54.1756
27.2653 3073 55.4346
27.3824 2993 54.7083
27.4996 2980 54.5894
27.6167 2970 54.4977
27.7339 2833 53.2259
27.8511 2727 52.2207
27.9683 2712 52.0769
28.0855 2626 51.2445
28.2028 2581 50.8035
28.3201 2421 49.2037
28.4374 2239 47.3181
28.5547 2084 45.6508
28.6721 2068 45.4753
28.7894 2064 45.4313
28.9068 2216 47.0744
29.0242 2431 49.3052
29.1416 2567 50.6656
29.259 2723 52.1824
29.3764 2859 53.4696
29.4939 2929 54.1202
29.6113 2931 54.1387
29.7288 2926 54.0925
29.8463 2812 53.0283
29.9638 2900 53.8516
30.0812 2916 54
30.1987 3017 54.9272
30.3162 2952 54.3323
30.4337 2882 53.6843
30.5512 2992 54.6992
30.6687 2992 54.6992
30.7862 2976 54.5527
30.9037 2795 52.8678
31.0212 3001 54.7814
31.1387 2910 53.9444
31.2562 2838 53.2729
31.3737 2761 52.5452
31.4912 2621 51.1957
31.6087 2593 50.9215
31.7262 2520 50.1996
31.8436 2333 48.3011
31.9611 2213 47.0425
32.0785 1979 44.486
32.1959 1938 44.0227
32.3134 1968 44.3621
32.4308 2224 47.1593
32.5482 2261 47.55
32.6655 2435 49.3457
32.7829 2782 52.7447
32.9002 2816 53.066
33.0176 2790 52.8205
33.1349 2772 52.6498
33.2522 2849 53.376
33.3694 2785 52.7731
33.4867 2840 53.2917
33.6039 2902 53.8702
33.7211 2936 54.1849
33.8383 2774 52.6688
33.9554 2822 53.1225
34.0725 2859 53.4696
34.1896 2833 53.2259
34.3067 2859 53.4696
34.4237 2912 53.963
34.5407 2905 53.8981
34.6577 2803 52.9434
34.7746 2786 52.7826
34.8915 2776 52.6878
35.0084 2736 52.3068
35.1252 2556 50.5569
35.242 2559 50.5866
35.3587 2528 50.2792
35.4755 2453 49.5278
35.5921 2209 47
35.7088 2079 45.5961
35.8254 1883 43.3935
35.9419 1711 41.3642
36.0584 1954 44.2041
36.1749 2138 46.2385
36.2913 2243 47.3603
36.4077 2316 48.1248
36.524 2562 50.6162
36.6403 2702 51.9808
36.7565 2751 52.45
36.8727 2724 52.192
36.9889 2748 52.4214
37.1049 2700 51.9615
37.221 0 1
37.3369 0 1
37.4529 0 1
37.5687 0 1
37.6845 0 1
37.8003 0 1
37.916 0 1
38.0316 0 1
38.1472 0 1
40.5851 0 1
40.7008 0 1
40.8164 0 1
40.9322 0 1
41.048 0 1
41.1639 0 1
41.2798 0 1
41.3958 0 1
41.5118 0 1
41.6279 0 1
41.744 1932 43.9545
41.8602 2129 46.1411
41.9765 2209 47
42.0928 2318 48.1456
42.2091 2251 47.4447
42.3255 2318 48.1456
42.4419 2299 47.9479
42.5584 2332 48.2908
42.675 2336 48.3322
42.7915 2346 48.4355
42.9081 2315 48.1144
43.0248 2304 48
43.1415 2231 47.2335
43.2582 2272 47.6655
43.375 2248 47.4131
43.4918 2231 47.2335
43.6087 2186 46.7547
43.7256 2210 47.0106
43.8425 2092 45.7384
43.9595 2061 45.3982
44.0765 1918 43.795
44.1935 1885 43.4166
44.3106 1679 40.9756
44.4277 1508 38.833
44.5448 1410 37.55
44.6619 1296 36
44.7791 1306 36.1386
44.8963 1315 36.2629
45.0136 1369 37
45.1308 1461 38.223
45.2481 1607 40.0874
45.3654 1736 41.6653
45.4827 1817 42.6263
45.6001 1800 42.4264
45.7174 1708 41.328
45.8348 1728 41.5692
45.9522 1715 41.4126
46.0697 1698 41.2068
46.1871 1668 40.8412
46.3046 1639 40.4846
46.422 1628 40.3485
46.5395 1614 40.1746
46.657 1524 39.0384
46.7745 1596 39.95
46.892 1631 40.3856
47.0096 1560 39.4968
47.1271 1570 39.6232
47.2446 1518 38.9615
47.3622 1525 39.0512
47.4797 1322 36.3593
47.5973 1362 36.9053
47.7149 1322 36.3593
47.8324 1212 34.8138
47.95 1224 34.9857
48.0675 1068 32.6803
48.1851 1005 31.7017
48.3027 945 30.7409
48.4202 912 30.1993
48.5378 985 31.3847
48.6554 1086 32.9545
48.7729 1144 33.8231
48.8904 1248 35.327
49.008 1276 35.7211
49.1255 1384 37.2022
49.243 1346 36.6879
49.3605 1330 36.4692
49.478 1357 36.8375
49.5955 1288 35.8887
49.713 1322 36.3593
49.8304 1291 35.9305
49.9479 1350 36.7423
50.0653 1395 37.3497
50.1827 1450 38.0789
50.3001 1449 38.0657
50.4175 1443 37.9868
50.5348 1499 38.7169
50.6521 1540 39.2428
50.7694 1551 39.3827
50.8867 1595 39.9375
51.004 1628 40.3485
51.1212 1549 39.3573
51.2384 1561 39.5095
51.3556 1448 38.0526
51.4727 1356 36.8239
51.5899 1333 36.5103
51.707 1179 34.3366
51.824 1142 33.7935
51.9411 1299 36.0416
52.0581 1330 36.4692
52.175 1513 38.8973
52.2919 1731 41.6053
52.4088 1829 42.7668
52.5257 1945 44.1022
52.6425 2023 44.9778
52.7593 2099 45.8148
52.876 2095 45.7712
52.9927 2125 46.0977
53.1094 2201 46.9148
53.226 2139 46.2493
53.3426 2200 46.9042
53.4591 2234 47.2652
53.5756 2283 47.7807
53.692 2348 48.4562
53.8084 2408 49.0714
53.9248 2437 49.366
54.0411 2421 49.2037
54.1573 2403 49.0204
54.2735 0 1
54.3896 0 1
54.5057 0 1
54.6217 0 1
54.7377 0 1
54.8537 0 1
54.9695 0 1
55.0853 0 1
55.2011 0 1
55.3168 0 1
55.4324 0 1
57.824 0 1
57.9396 0 1
58.0553 0 1
58.1711 0 1
58.2869 0 1
58.4028 0 1
58.5187 0 1
58.6347 0 1
58.7508 0 1
58.8669 0 1
58.983 2644 51.4198
59.0992 2747 52.4118
59.2155 2825 53.1507
59.3318 2897 53.8238
59.4482 2905 53.8981
59.5646 2803 52.9434
59.681 2803 52.9434
59.7975 2723 52.1824
59.9141 2606 51.049
60.0306 2484 49.8397
60.1473 2274 47.6865
60.2639 2108 45.913
60.3807 1818 42.638
60.4974 1627 40.3361
60.6142 1624 40.2989
60.731 1726 41.5452
60.8479 1901 43.6005
60.9648 2189 46.7868
61.0818 2402 49.0102
61.1987 2378 48.7647
61.3158 2520 50.1996
61.4328 2429 49.2849
61.5499 2517 50.1697
61.667 2511 50.1099
61.7841 2559 50.5866
61.9013 2487 49.8698
62.0185 2472 49.7192
62.1357 2458 49.5782
62.253 2410 49.0918
62.3702 2491 49.9099
62.4875 2493 49.93
62.6049 2493 49.93
62.7222 2607 51.0588
62.8396 2559 50.5866
62.9569 2486 49.8598
63.0743 2531 50.309
63.1918 2594 50.9313
63.3092 2401 49
63.4267 2376 48.7442
63.5441 2292 47.8748
63.6616 1984 44.5421
63.7791 1735 41.6533
63.8966 1509 38.8458
64.0142 1457 38.1707
64.1317 1394 37.3363
64.2492 1473 38.3797
64.3668 1663 40.7799
64.4843 1874 43.2897
64.6019 2102 45.8476
64.7195 2224 47.1593
64.837 2237 47.2969
64.9546 2202 46.9255
65.0722 2310 48.0625
65.1898 2204 46.9468
65.3074 2221 47.1275
65.4249 2253 47.4658
65.5425 2228 47.2017
65.6601 2245 47.3814
65.7777 2238 47.3075
65.8952 2288 47.833
66.0128 2349 48.4665
66.1304 2361 48.5901
66.2479 2407 49.0612
66.3655 2328 48.2494
66.483 2413 49.1223
66.6005 2333 48.3011
66.718 2420 49.1935
66.8355 2445 49.4469
66.953 2295 47.9062
67.0705 2252 47.4552
67.1879 2116 46
67.3054 1887 43.4396
67.4228 1619 40.2368
67.5402 1431 37.8286
67.6576 1259 35.4824
67.7749 1208 34.7563
67.8923 1390 37.2827
68.0096 1521 39
68.1269 1848 42.9884
68.2442 2074 45.5412
68.3614 2286 47.8121
68.4787 2276 47.7074
68.5958 2289 47.8435
68.713 2316 48.1248
68.8302 2234 47.2652
68.9473 2332 48.2908
69.0643 2314 48.1041
69.1814 2340 48.3735
69.2984 2287 47.8226
69.4154 2424 49.2341
69.5323 2389 48.8774
69.6492 2490 49.8999
69.7661 2461 49.6085
69.8829 2551 50.5074
69.9997 2627 51.2543
70.1165 2683 51.7977
70.2332 2617 51.1566
70.3499 2616 51.1468
70.4665 2593 50.9215
70.5831 2621 51.1957
70.6996 2412 49.1121
70.8161 2326 48.2286
70.9326 2156 46.4327
71.049 1982 44.5197
71.1653 1716 41.4246
71.2817 1404 37.47
71.3979 1255 35.426
71.5141 1310 36.1939
71.6303 1428 37.7889
71.7464 1453 38.1182
71.8624 0 1
71.9784 0 1
72.0944 0 1
72.2102 0 1
72.3261 0 1
72.4418 0 1
72.5575 0 1
72.6732 0 1
75.1054 0 1
75.2209 0 1
75.3365 0 1
75.4521 0 1
75.5678 0 1
75.6835 0 1
75.7993 0 1
75.9151 0 1
76.031 0 1
76.147 2061 45.3982
76.263 2105 45.8803
76.3791 2038 45.1442
76.4952 1862 43.1509
76.6113 1415 37.6165
76.7276 1292 35.9444
76.8438 1385 37.2156
76.9601 1578 39.724
77.0765 1762 41.9762
77.1929 2113 45.9674
77.3093 2357 48.5489
77.4258 2327 48.239
77.5423 2444 49.4368
77.6589 2514 50.1398
77.7755 2466 49.6588
77.8921 2496 49.96
78.0088 2425 49.2443
78.1256 2451 49.5076
78.2423 2353 48.5077
78.3591 2361 48.5901
78.4759 2383 48.816
78.5928 2424 49.2341
78.7097 2445 49.4469
78.8266 2389 48.8774
78.9436 2656 51.5364
79.0606 2562 50.6162
79.1776 2629 51.2738
79.2946 2643 51.4101
79.4117 2561 50.6063
79.5288 2550 50.4975
79.6459 2338 48.3529
79.7631 2382 48.8057
79.8802 2273 47.676
79.9974 2059 45.3762
80.1147 1808 42.5206
80.2319 1490 38.6005
80.3491 1261 35.5106
80.4664 1235 35.1426
80.5837 1433 37.855
80.701 1620 40.2492
80.8183 1829 42.7668
80.9357 2127 46.1194
81.053 2246 47.392
81.1704 2242 47.3498
81.2877 2175 46.6369
81.4051 2127 46.1194
81.5225 2107 45.9021
81.6399 2141 46.2709
81.7573 2209 47
81.8747 2123 46.076
81.9922 2128 46.1303
82.1096 2202 46.9255
82.227 2236 47.2864
82.3444 2165 46.5296
82.4619 2278 47.7284
82.5793 2355 48.5283
82.6967 2314 48.1041
82.8142 2224 47.1593
82.9316 2184 46.7333
83.049 2241 47.3392
83.1664 2204 46.9468
83.2838 2072 45.5192
83.4012 2045 45.2217
83.5186 1900 43.589
83.636 1759 41.9404
83.7534 1575 39.6863
83.8708 1336 36.5513
83.9881 1026 32.0312
84.1055 1008 31.749
84.2228 1113 33.3617
84.3401 1244 35.2704
84.4575 1619 40.2368
84.5747 1818 42.638
84.692 1985 44.5533
84.8093 1954 44.2041
84.9265 1961 44.2832
85.0437 2003 44.7549
85.1609 1997 44.6878
85.2781 1894 43.5201
85.3952 2060 45.3872
85.5123 1939 44.0341
85.6294 2103 45.8585
85.7465 2064 45.4313
85.8636 2118 46.0217
85.9806 2213 47.0425
86.0976 2277 47.7179
86.2145 2274 47.6865
86.3315 2409 49.0816
86.4484 2304 48
86.5652 2391 48.8979
86.682 2493 49.93
86.7988 2362 48.6004
86.9156 2347 48.4458
87.0323 2218 47.0956
87.149 2230 47.2229
87.2657 2051 45.288
87.3823 1817 42.6263
87.4988 1454 38.1314
87.6154 1255 35.426
87.7318 1273 35.6791
87.8483 1409 37.5366
87.9647 1725 41.5331
88.081 2137 46.2277
88.1973 2268 47.6235
88.3136 2429 49.2849
88.4298 2401 49
88.546 2455 49.548
88.6621 2485 49.8498
88.7781 2346 48.4355
88.8942 0 1
89.0101 0 1
89.126 0 1
89.2419 0 1
89.3577 0 1
89.4734 0 1
89.5891 0 1
89.7047 0 1
89.8203 0 1
89.9358 0 1
92.3269 0 1
92.4424 0 1
92.558 0 1
92.6736 0 1
92.7893 0 1
92.905 0 1
93.0208 0 1
93.1366 0 1
93.2525 0 1
93.3685 0 1
93.4845 0 1
93.6005 2164 46.5188
93.7167 2379 48.775
93.8328 2384 48.8262
93.949 2494 49.94
94.0653 2298 47.9375
94.1816 2372 48.7032
94.2979 2434 49.3356
94.4143 2380 48.7852
94.5307 2328 48.2494
94.6472 2437 49.366
94.7637 2372 48.7032
94.8803 2390 48.8876
94.9969 2509 50.0899
95.1135 2502 50.02
95.2302 2613 51.1175
95.3469 2674 51.7107
95.4637 2637 51.3517
95.5805 2746 52.4023
95.6973 2663 51.6043
95.8142 2760 52.5357
95.9311 2632 51.303
96.048 2586 50.8527
96.1649 2554 50.5371
96.2819 2406 49.051
96.3989 2298 47.9375
96.516 2109 45.9239
96.633 1753 41.8688
96.7501 1467 38.3014
96.8673 1321 36.3456
96.9844 1345 36.6742
97.1016 1553 39.4081
97.2188 1927 43.8976
97.336 2241 47.3392
97.4532 2329 48.2597
97.5704 2521 50.2096
97.6877 2414 49.1325
97.805 2329 48.2597
97.9223 2419 49.1833
98.0396 2308 48.0416
98.1569 2318 48.1456
98.2743 2348 48.4562
98.3916 2427 49.2646
98.509 2385 48.8365
98.6264 2421 49.2037
98.7438 2448 49.4773
98.8612 2638 51.3615
98.9786 2521 50.2096
99.096 2526 50.2593
99.2134 2665 51.6236
99.3308 2657 51.5461
99.4482 2556 50.5569
99.5656 2749 52.4309
99.6831 2489 49.8899
99.8005 2416 49.1528
99.9179 2392 48.9081
100.035 2237 47.2969
100.153 1979 44.486
100.27 1683 41.0244
100.388 1440 37.9473
100.505 1428 37.7889
100.622 1530 39.1152
100.74 1837 42.8602
100.857 2201 46.9148
100.975 2370 48.6826
101.092 2372 48.7032
101.209 2427 49.2646
101.327 2381 48.7955
101.444 2411 49.1019
101.561 2470 49.6991
101.679 2500 50
101.796 2378 48.7647
101.913 2385 48.8365
102.03 2433 49.3254
102.148 2542 50.4183
102.265 2426 49.2544
102.382 2674 51.7107
102.499 2642 51.4004
102.616 2762 52.5547
102.733 2730 52.2494
102.851 2752 52.4595
102.968 2867 53.5444
103.085 2723 52.1824
103.202 2778 52.7067
103.319 2624 51.225
103.436 2584 50.8331
103.552 2367 48.6518
103.669 2135 46.2061
103.786 1846 42.9651
103.903 1582 39.7744
104.02 1573 39.6611
104.137 1668 40.8412
104.253 1998 44.699
104.37 2467 49.6689
104.487 2599 50.9804
104.603 2602 51.0098
104.72 2591 50.9019
104.836 2655 51.5267
104.953 2625 51.2348
105.069 2648 51.4587
105.186 2673 51.7011
105.302 2645 51.4296
105.418 2667 51.643
105.535 2613 51.1175
105.651 2678 51.7494
105.767 2941 54.231
105.883 2894 53.7959
105.999 3014 54.8999
106.115 0 1
106.231 0 1
106.347 0 1
106.463 0 1
106.579 0 1
106.694 0 1
106.81 0 1
106.926 0 1
107.041 0 1
107.157 0 1
109.576 0 1
109.692 0 1
109.807 0 1
109.923 0 1
110.039 0 1
110.155 0 1
110.27 0 1
110.386 0 1
110.502 0 1
110.618 2526 50.2593
110.735 2784 52.7636
110.851 2804 52.9528
110.967 2806 52.9717
111.083 2824 53.1413
111.199 2938 54.2033
111.316 2969 54.4885
111.432 2959 54.3967
111.549 2884 53.7029
111.665 2895 53.8052
111.782 2881 53.6749
111.898 2761 52.5452
112.015 2658 51.5558
112.132 2512 50.1199
112.248 2267 47.613
112.365 1952 44.1814
112.482 1656 40.694
112.599 1786 42.2611
112.716 1844 42.9418
112.832 2177 46.6583
112.949 2559 50.5866
113.066 2663 51.6043
113.183 2655 51.5267
113.3 2694 51.9038
113.417 2622 51.2055
113.534 2790 52.8205
113.652 2612 51.1077
113.769 2744 52.3832
113.886 2730 52.2494
114.003 2768 52.6118
114.12 2696 51.923
114.238 2790 52.8205
114.355 2822 53.1225
114.472 2890 53.7587
114.589 2914 53.9815
114.707 3029 55.0364
114.824 3049 55.2178
114.942 2980 54.5894
115.059 3039 55.1271
115.176 3025 55
115.294 3013 54.8908
115.411 2797 52.8867
115.529 2803 52.9434
115.646 2694 51.9038
115.764 2623 51.2152
115.881 2254 47.4763
115.999 2058 45.3652
116.116 1897 43.5546
116.234 2049 45.2659
116.351 2306 48.0208
116.469 2547 50.4678
116.586 2770 52.6308
116.704 2879 53.6563
116.821 2818 53.0848
116.939 2775 52.6783
117.056 2890 53.7587
117.174 2896 53.8145
117.291 2909 53.9351
117.409 2919 54.0278
117.526 2899 53.8424
117.644 2864 53.5164
117.761 2814 53.0471
117.879 2947 54.2863
117.996 3105 55.7225
118.114 3069 55.3986
118.231 3031 55.0545
118.349 3090 55.5878
118.466 3097 55.6507
118.584 3203 56.5951
118.701 3069 55.3986
118.819 3125 55.9017
118.936 3082 55.5158
119.053 3026 55.0091
119.171 2904 53.8888
119.288 2854 53.4228
119.405 2502 50.02
119.523 2225 47.1699
119.64 1998 44.699
119.757 1984 44.5421
119.875 2150 46.3681
119.992 2321 48.1768
120.109 2642 51.4004
120.226 2820 53.1037
120.343 2819 53.0943
120.46 2753 52.469
120.578 2786 52.7826
120.695 2792 52.8394
120.812 2777 52.6972
120.929 2883 53.6936
121.046 2851 53.3948
121.163 2823 53.1319
121.279 2897 53.8238
121.396 2830 53.1977
121.513 2957 54.3783
121.63 2970 54.4977
121.747 3083 55.5248
121.863 3030 55.0454
121.98 3026 55.0091
122.097 2985 54.6352
122.213 3084 55.5338
122.33 3090 55.5878
122.446 3007 54.8361
122.563 3013 54.8908
122.679 2872 53.591
122.795 2785 52.7731
122.912 2681 51.7784
123.028 2617 51.1566
123.144 2381 48.7955
123.26 2225 47.1699
123.377 0 1
123.493 0 1
123.609 0 1
123.725 0 1
123.84 0 1
123.956 0 1
124.072 0 1
124.188 0 1
124.303 0 1
124.419 0 1
126.852 0 1
126.968 0 1
127.083 0 1
127.199 0 1
127.315 0 1
127.431 0 1
127.547 0 1
127.663 0 1
127.779 0 1
127.895 0 1
128.011 0 1
128.127 0 1
128.243 0 1
128.359 2796 52.8772
128.476 2425 49.2443
128.592 2276 47.7074
128.708 2206 46.9681
128.825 2369 48.6724
128.941 2483 49.8297
129.058 2779 52.7162
129.174 2956 54.3691
129.291 2961 54.4151
129.408 2977 54.5619
129.524 2965 54.4518
129.641 2941 54.231
129.758 3110 55.7674
129.875 3029 55.0364
129.992 2990 54.6809
130.108 2992 54.6992
130.225 2976 54.5527
130.342 3016 54.9181
130.459 2895 53.8052
130.576 3256 57.0614
130.693 3132 55.9643
130.81 3149 56.116
130.928 3124 55.8928
131.045 3167 56.2761
131.162 3310 57.5326
131.279 3299 57.4369
131.396 3307 57.5065
131.513 3201 56.5774
131.631 3142 56.0535
131.748 3009 54.8544
131.865 2860 53.479
131.983 2694 51.9038
132.1 2546 50.4579
132.217 2383 48.816
132.335 2433 49.3254
132.452 2607 51.0588
132.57 2810 53.0094
132.687 3018 54.9363
132.804 3180 56.3915
132.922 3131 55.9553
133.039 3131 55.9553
133.157 3165 56.2583
133.274 3115 55.8122
133.392 3110 55.7674
133.509 3122 55.8749
133.627 3057 55.2901
133.744 3073 55.4346
133.862 3063 55.3444
133.979 2999 54.7631
134.097 3085 55.5428
134.214 3055 55.2721
134.332 3297 57.4195
134.449 3172 56.3205
134.567 3190 56.4801
134.684 3336 57.7581
134.802 3342 57.81
134.919 3203 56.5951
135.037 3146 56.0892
135.154 3209 56.648
135.272 3079 55.4887
135.389 2889 53.7494
135.507 2848 53.3667
135.624 2565 50.6458
135.742 2378 48.7647
135.859 2397 48.9592
135.977 2547 50.4678
136.094 2763 52.5642
136.211 2973 54.5252
136.329 3071 55.4166
136.446 3230 56.8331
136.564 3031 55.0545
136.681 3187 56.4535
136.798 3138 56.0179
136.915 3082 55.5158
137.033 3033 55.0727
137.15 3040 55.1362
137.267 2862 53.4977
137.384 3056 55.2811
137.502 2898 53.8331
137.619 3002 54.7905
137.736 3108 55.7494
137.853 2953 54.3415
137.97 3133 55.9732
138.087 3047 55.1996
138.204 3129 55.9375
138.321 3149 56.116
138.438 3212 56.6745
138.555 3285 57.3149
138.672 3206 56.6216
138.788 3134 55.9821
138.905 3070 55.4076
139.022 2981 54.5985
139.139 2966 54.461
139.255 2581 50.8035
139.372 2492 49.9199
139.488 2547 50.4678
139.605 2761 52.5452
139.721 2817 53.0754
139.838 3012 54.8817
139.954 3203 56.5951
140.071 3098 55.6597
140.187 3106 55.7315
140.303 3084 55.5338
140.419 3144 56.0714
140.535 3110 55.7674
140.652 3047 55.1996
140.768 0 1
140.884 0 1
141 0 1
141.115 0 1
141.231 0 1
141.347 0 1
141.463 0 1
141.578 0 1
141.694 0 1
144.104 0 1
144.219 0 1
144.335 0 1
144.45 0 1
144.566 0 1
144.682 0 1
144.798 0 1
144.914 0 1
145.03 0 1
145.146 2445 49.4469
145.262 2617 51.1566
145.378 2630 51.2835
145.494 2705 52.0096
145.61 2663 51.6043
145.726 2641 51.3907
145.842 2556 50.5569
145.959 2526 50.2593
146.075 2572 50.7149
146.192 2491 49.9099
146.308 2495 49.95
146.425 2428 49.2747
146.541 2640 51.3809
146.658 2566 50.6557
146.774 2620 51.1859
146.891 2724 52.192
147.008 2724 52.192
147.125 2736 52.3068
147.241 2774 52.6688
147.358 2737 52.3163
147.475 2778 52.7067
147.592 2757 52.5071
147.709 2621 51.1957
147.826 2737 52.3163
147.943 2531 50.309
148.06 2327 48.239
148.177 2346 48.4355
148.294 2285 47.8017
148.411 2358 48.5592
148.528 2510 50.0999
148.645 2647 51.449
148.762 2863 53.507
148.88 2698 51.9423
148.997 2759 52.5262
149.114 2752 52.4595
149.231 2847 53.3573
149.349 2720 52.1536
149.466 2775 52.6783
149.583 2684 51.8073
149.701 2752 52.4595
149.818 2692 51.8845
149.935 2518 50.1797
150.053 2525 50.2494
150.17 2568 50.6754
150.287 2649 51.4684
150.405 2726 52.2111
150.522 2769 52.6213
150.64 2808 52.9906
150.757 2840 53.2917
150.875 2895 53.8052
150.992 2917 54.0093
151.11 2961 54.4151
151.227 2888 53.7401
151.344 2830 53.1977
151.462 2729 52.2398
151.579 2741 52.3546
151.697 2651 51.4879
151.814 2528 50.2792
151.932 2453 49.5278
152.049 2466 49.6588
152.167 2535 50.3488
152.284 2768 52.6118
152.402 2762 52.5547
152.519 2889 53.7494
152.636 3012 54.8817
152.754 2969 54.4885
152.871 2970 54.4977
152.989 2871 53.5817
153.106 2921 54.0463
153.223 2834 53.2353
153.341 2703 51.9904
153.458 2640 51.3809
153.575 2612 51.1077
153.693 2615 51.1371
153.81 2708 52.0384
153.927 2744 52.3832
154.044 2883 53.6936
154.162 2927 54.1018
154.279 2905 53.8981
154.396 3045 55.1815
154.513 3111 55.7763
154.63 3198 56.5509
154.747 3072 55.4256
154.864 3177 56.3649
154.981 3129 55.9375
155.098 2943 54.2494
155.215 2870 53.5724
155.332 2822 53.1225
155.449 2799 52.9056
155.566 2751 52.45
155.683 2799 52.9056
155.8 2877 53.6377
155.917 3018 54.9363
156.033 3073 55.4346
156.15 0 1
156.267 0 1
156.383 0 1
156.5 0 1
156.617 0 1
156.733 0 1
156.85 0 1
156.966 0 1
157.082 0 1
157.199 0 1
157.315 0 1
157.431 0 1
157.547 0 1
157.664 0 1
157.78 0 1
157.896 0 1
158.012 0 1
158.128 0 1
158.244 0 1
158.359 0 1
158.475 0 1
158.591 0 1
158.706 0 1
