
6.15755 0 1
6.2731 0 1
6.3887 0 1
6.50437 0 1
6.62009 0 1
6.73587 0 1
6.8517 0 1
6.96759 0 1
7.08353 0 1
7.19952 0 1
7.31557 0 1
7.43166 0 1
7.54781 0 1
7.664 0 1
7.78024 0 1
7.89653 0 1
8.01286 0 1
8.12924 0 1
8.24567 0 1
8.36213 0 1
8.47864 0 1
8.59519 0 1
8.71178 0 1
8.82841 0 1
8.94508 0 1
9.06179 0 1
9.17853 0 1
9.29531 0 1
9.41212 0 1
9.52897 0 1
9.64584 0 1
9.76276 0 1
9.8797 0 1
9.99667 0 1
10.1137 0 1
10.2307 0 1
10.3478 0 1
10.4648 0 1
10.5819 0 1
10.6991 0 1
10.8162 0 1
10.9334 0 1
11.0506 0 1
11.1678 0 1
11.285 0 1
11.4023 0 1
11.5196 0 1
11.6369 0 1
11.7542 0 1
11.8715 0 1
11.9888 0 1
12.1062 0 1
12.2235 0 1
12.3409 0 1
12.4582 0 1
12.5756 0 1
12.693 0 1
12.8104 0 1
12.9278 0 1
13.0452 0 1
13.1626 0 1
13.28 0 1
13.3974 0 1
13.5149 0 1
13.6323 0 1
13.7497 0 1
13.8671 0 1
13.9845 0 1
14.1019 0 1
14.2193 0 1
14.3367 0 1
14.4541 0 1
14.5714 0 1
14.6888 0 1
14.8062 0 1
14.9235 0 1
15.0408 2454 49.5379
15.1581 2591 50.9019
15.2755 2608 51.0686
15.3927 2529 50.2892
15.51 2590 50.892
15.6273 2470 49.6991
15.7445 2381 48.7955
15.8617 2484 49.8397
15.9789 2628 51.264
16.0961 2510 50.0999
16.2132 2749 52.4309
16.3304 2872 53.591
16.4475 2809 53
16.5646 3006 54.827
16.6816 2842 53.3104
16.7986 2963 54.4334
16.9156 2805 52.9623
17.0326 2774 52.6688
17.1496 2828 53.1789
17.2665 2856 53.4416
17.3833 2924 54.074
17.5002 2836 53.2541
17.617 2928 54.111
17.7338 2936 54.1849
17.8505 3022 54.9727
17.9672 3139 56.0268
18.0839 3123 55.8838
18.2005 3118 55.8391
18.3171 3220 56.745
18.4337 3364 58
18.5502 3295 57.4021
18.6666 3339 57.7841
18.7831 3372 58.0689
18.8994 3364 58
19.0158 3192 56.4978
19.1321 3180 56.3915
19.2483 3082 55.5158
19.3645 3057 55.2901
19.4806 3018 54.9363
19.5967 3081 55.5068
19.7128 3371 58.0603
19.8288 3296 57.4108
19.9447 3082 55.5158
20.0606 0 1
20.1764 0 1
20.2922 0 1
20.4079 0 1
20.5236 0 1
20.6392 0 1
20.7548 0 1
20.8702 0 1
23.3078 0 1
23.4233 0 1
23.539 0 1
23.6547 0 1
23.7704 0 1
23.8862 0 1
24.0021 0 1
24.118 0 1
24.234 0 1
24.35 0 1
24.4661 3270 57.1839
24.5822 3156 56.1783
24.6984 3231 56.8419
24.8146 3381 58.1464
24.9309 3446 58.7026
25.0472 3520 59.3296
25.1636 3613 60.1082
25.28 3745 61.1964
25.3965 3549 59.5735
25.513 3716 60.959
25.6296 3469 58.8982
25.7462 3548 59.5651
25.8628 3551 59.5903
25.9795 3496 59.127
26.0962 3578 59.8164
26.213 3542 59.5147
26.3298 3648 60.3987
26.4466 3804 61.6766
26.5635 3806 61.6928
26.6804 3951 62.857
26.7973 3943 62.7933
26.9143 4011 63.3325
27.0313 4040 63.561
27.1483 4004 63.2772
27.2653 4243 65.1383
27.3824 4207 64.8614
27.4996 4157 64.4748
27.6167 4094 63.9844
27.7339 3972 63.0238
27.8511 3720 60.9918
27.9683 3677 60.6383
28.0855 3540 59.4979
28.2028 3475 58.9491
28.3201 3509 59.2368
28.4374 3596 59.9667
28.5547 3850 62.0484
28.6721 3886 62.3378
28.7894 3989 63.1585
28.9068 3879 62.2816
29.0242 3814 61.7576
29.1416 3641 60.3407
29.259 3657 60.4731
29.3764 3635 60.291
29.4939 3479 58.983
29.6113 3520 59.3296
29.7288 3522 59.3464
29.8463 3571 59.7578
29.9638 3764 61.3514
30.0812 3722 61.0082
30.1987 3974 63.0397
30.3162 4045 63.6003
30.4337 4031 63.4902
30.5512 4148 64.405
30.6687 4205 64.846
30.7862 4308 65.6354
30.9037 4289 65.4905
31.0212 4240 65.1153
31.1387 4141 64.3506
31.2562 4136 64.3117
31.3737 4006 63.293
31.4912 3894 62.4019
31.6087 3761 61.327
31.7262 3640 60.3324
31.8436 3620 60.1664
31.9611 3742 61.1719
32.0785 3929 62.6817
32.1959 4011 63.3325
32.3134 4139 64.3351
32.4308 4048 63.6239
32.5482 4073 63.8201
32.6655 3938 62.7535
32.7829 3901 62.458
32.9002 3826 61.8547
33.0176 3576 59.7997
33.1349 3679 60.6548
33.2522 3866 62.1772
33.3694 3808 61.709
33.4867 3778 61.4654
33.6039 3862 62.145
33.7211 3992 63.1823
33.8383 4199 64.7997
33.9554 4284 65.4523
34.0725 4259 65.261
34.1896 4310 65.6506
34.3067 4281 65.4294
34.4237 4416 66.453
34.5407 4428 66.5432
34.6577 4488 66.9925
34.7746 4417 66.4605
34.8915 4269 65.3376
35.0084 4058 63.7024
35.1252 3962 62.9444
35.242 3957 62.9047
35.3587 3944 62.8013
35.4755 3768 61.384
35.5921 3884 62.3217
35.7088 3987 63.1427
35.8254 3964 62.9603
35.9419 4130 64.2651
36.0584 4380 66.1816
36.1749 4117 64.1639
36.2913 4183 64.6761
36.4077 4213 64.9076
36.524 3931 62.6977
36.6403 3683 60.6877
36.7565 3683 60.6877
36.8727 3769 61.3922
36.9889 3619 60.1581
37.1049 3740 61.1555
37.221 0 1
37.3369 0 1
37.4529 0 1
37.5687 0 1
37.6845 0 1
37.8003 0 1
37.916 0 1
38.0316 0 1
38.1472 0 1
40.5851 0 1
40.7008 0 1
40.8164 0 1
40.9322 0 1
41.048 0 1
41.1639 0 1
41.2798 0 1
41.3958 0 1
41.5118 0 1
41.6279 0 1
41.744 3157 56.1872
41.8602 3108 55.7494
41.9765 3225 56.7891
42.0928 3232 56.8507
42.2091 3297 57.4195
42.3255 3353 57.9051
42.4419 3604 60.0333
42.5584 3643 60.3573
42.675 3787 61.5386
42.7915 3890 62.3699
42.9081 4066 63.7652
43.0248 4025 63.4429
43.1415 4129 64.2573
43.2582 4146 64.3894
43.375 4046 63.6082
43.4918 4080 63.8749
43.6087 4052 63.6553
43.7256 3879 62.2816
43.8425 3787 61.5386
43.9595 3737 61.131
44.0765 3544 59.5315
44.1935 3471 58.9152
44.3106 3319 57.6108
44.4277 3447 58.7112
44.5448 3510 59.2453
44.6619 3611 60.0916
44.7791 3582 59.8498
44.8963 3566 59.716
45.0136 3480 58.9915
45.1308 3328 57.6888
45.2481 3148 56.107
45.3654 3039 55.1271
45.4827 2757 52.5071
45.6001 2882 53.6843
45.7174 2836 53.2541
45.8348 2971 54.5069
45.9522 3021 54.9636
46.0697 3026 55.0091
46.1871 3215 56.701
46.3046 3289 57.3498
46.422 3315 57.576
46.5395 3480 58.9915
46.657 3423 58.5064
46.7745 3480 58.9915
46.892 3575 59.7913
47.0096 3469 58.8982
47.1271 3434 58.6003
47.2446 3489 59.0678
47.3622 3338 57.7754
47.4797 3133 55.9732
47.5973 3099 55.6687
47.7149 2840 53.2917
47.8324 2871 53.5817
47.95 2870 53.5724
48.0675 2966 54.461
48.1851 2969 54.4885
48.3027 3114 55.8032
48.4202 2986 54.6443
48.5378 2975 54.5436
48.6554 2804 52.9528
48.7729 2666 51.6333
48.8904 2565 50.6458
49.008 2455 49.548
49.1255 2374 48.7237
49.243 2355 48.5283
49.3605 2464 49.6387
49.478 2635 51.3323
49.5955 2704 52
49.713 2828 53.1789
49.8304 2867 53.5444
49.9479 3086 55.5518
50.0653 3152 56.1427
50.1827 3239 56.9122
50.3001 3295 57.4021
50.4175 3369 58.0431
50.5348 3395 58.2666
50.6521 3516 59.2959
50.7694 3450 58.7367
50.8867 3331 57.7148
51.004 3365 58.0086
51.1212 3244 56.9561
51.2384 3323 57.6455
51.3556 3313 57.5587
51.4727 3189 56.4712
51.5899 3365 58.0086
51.707 3649 60.407
51.824 3636 60.2993
51.9411 3749 61.2291
52.0581 3814 61.7576
52.175 3678 60.6465
52.2919 3660 60.4979
52.4088 3292 57.376
52.5257 3227 56.8067
52.6425 3240 56.921
52.7593 3265 57.1402
52.876 3225 56.7891
52.9927 3506 59.2115
53.1094 3745 61.1964
53.226 4121 64.195
53.3426 4296 65.5439
53.4591 4423 66.5056
53.5756 4697 68.5347
53.692 4836 69.5414
53.8084 5015 70.8167
53.9248 4946 70.3278
54.0411 5140 71.6938
54.1573 5080 71.2741
54.2735 0 1
54.3896 0 1
54.5057 0 1
54.6217 0 1
54.7377 0 1
54.8537 0 1
54.9695 0 1
55.0853 0 1
55.2011 0 1
55.3168 0 1
55.4324 0 1
57.824 0 1
57.9396 0 1
58.0553 0 1
58.1711 0 1
58.2869 0 1
58.4028 0 1
58.5187 0 1
58.6347 0 1
58.7508 0 1
58.8669 0 1
58.983 5820 76.2889
59.0992 6249 79.0506
59.2155 6135 78.3262
59.3318 6307 79.4166
59.4482 6202 78.7528
59.5646 6202 78.7528
59.681 6109 78.1601
59.7975 5951 77.1427
59.9141 5881 76.6877
60.0306 5652 75.1798
60.1473 5757 75.8749
60.2639 5589 74.7596
60.3807 5760 75.8947
60.4974 5654 75.1931
60.6142 5730 75.6968
60.731 5708 75.5513
60.8479 5301 72.808
60.9648 5167 71.8818
61.0818 4726 68.7459
61.1987 4557 67.5056
61.3158 4351 65.9621
61.4328 4577 67.6535
61.5499 4599 67.8159
61.667 4818 69.4118
61.7841 5099 71.4073
61.9013 5244 72.4155
62.0185 5570 74.6324
62.1357 5794 76.1183
62.253 5912 76.8895
62.3702 5905 76.844
62.4875 6032 77.666
62.6049 6152 78.4347
62.7222 6068 77.8974
62.8396 6203 78.7591
62.9569 6012 77.5371
63.0743 5864 76.5768
63.1918 5945 77.1038
63.3092 5841 76.4264
63.4267 5647 75.1465
63.5441 5625 75
63.6616 5648 75.1532
63.7791 5560 74.5654
63.8966 5483 74.0473
64.0142 5651 75.1731
64.1317 5696 75.4718
64.2492 5337 73.0548
64.3668 5301 72.808
64.4843 4875 69.8212
64.6019 4508 67.1416
64.7195 4388 66.242
64.837 4262 65.284
64.9546 4263 65.2917
65.0722 4345 65.9166
65.1898 4448 66.6933
65.3074 4853 69.6635
65.4249 5121 71.5612
65.5425 5347 73.1232
65.6601 5671 75.306
65.7777 5842 76.433
65.8952 6129 78.2879
66.0128 6010 77.5242
66.1304 6034 77.6788
66.2479 6150 78.4219
66.3655 6325 79.5299
66.483 6162 78.4984
66.6005 6148 78.4092
66.718 6158 78.4729
66.8355 5930 77.0065
66.953 5762 75.9078
67.0705 5825 76.3217
67.1879 5710 75.5645
67.3054 5777 76.0066
67.4228 5846 76.4591
67.5402 5866 76.5898
67.6576 5863 76.5702
67.7749 5921 76.948
67.8923 5879 76.6746
68.0096 5554 74.5252
68.1269 5278 72.6498
68.2442 5028 70.9084
68.3614 4747 68.8985
68.4787 4619 67.9632
68.5958 4587 67.7274
68.713 4763 69.0145
68.8302 5114 71.5122
68.9473 5377 73.328
69.0643 5809 76.2168
69.1814 6116 78.2049
69.2984 6404 80.025
69.4154 6931 83.2526
69.5323 7069 84.0773
69.6492 7233 85.047
69.7661 7398 86.0116
69.8829 7426 86.1742
69.9997 7466 86.406
70.1165 7559 86.9425
70.2332 7523 86.7352
70.3499 7371 85.8545
70.4665 7391 85.9709
70.5831 7341 85.6796
70.6996 7215 84.9412
70.8161 7016 83.7616
70.9326 6946 83.3427
71.049 6954 83.3906
71.1653 7228 85.0176
71.2817 7379 85.9011
71.3979 7162 84.6286
71.5141 7005 83.6959
71.6303 6336 79.599
71.7464 5384 73.3757
71.8624 0 1
71.9784 0 1
72.0944 0 1
72.2102 0 1
72.3261 0 1
72.4418 0 1
72.5575 0 1
72.6732 0 1
75.1054 0 1
75.2209 0 1
75.3365 0 1
75.4521 0 1
75.5678 0 1
75.6835 0 1
75.7993 0 1
75.9151 0 1
76.031 0 1
76.147 7084 84.1665
76.263 7655 87.4929
76.3791 7716 87.8408
76.4952 8122 90.1221
76.6113 8216 90.6422
76.7276 8452 91.9348
76.8438 8067 89.8165
76.9601 7843 88.5607
77.0765 7152 84.5695
77.1929 6632 81.4371
77.3093 6054 77.8075
77.4258 5689 75.4255
77.5423 5536 74.4043
77.6589 5504 74.1889
77.7755 6278 79.2338
77.8921 6671 81.6762
78.0088 7316 85.5336
78.1256 7949 89.1572
78.2423 8464 92
78.3591 8722 93.3916
78.4759 8998 94.8578
78.5928 9157 95.6922
78.7097 9149 95.6504
78.8266 8734 93.4559
78.9436 9690 98.4378
79.0606 9308 96.478
79.1776 9161 95.7131
79.2946 9076 95.268
79.4117 8974 94.7312
79.5288 8817 93.8989
79.6459 8728 93.4238
79.7631 8393 91.6133
79.8802 8364 91.4549
79.9974 8248 90.8185
80.1147 8612 92.8009
80.2319 8781 93.707
80.3491 8909 94.3875
80.4664 8793 93.771
80.5837 8469 92.0272
80.701 7923 89.0112
80.8183 7128 84.4275
80.9357 6482 80.5109
81.053 5984 77.3563
81.1704 5574 74.6592
81.2877 5647 75.1465
81.4051 5873 76.6355
81.5225 6255 79.0886
81.6399 7205 84.8823
81.7573 7870 88.713
81.8747 8058 89.7664
81.9922 8930 94.4987
82.1096 9113 95.462
82.227 9074 95.2575
82.3444 9274 96.3016
82.4619 9172 95.7706
82.5793 9462 97.2728
82.6967 8876 94.2125
82.8142 9065 95.2103
82.9316 8965 94.6837
83.049 8847 94.0585
83.1664 8662 93.0699
83.2838 8607 92.7739
83.4012 8310 91.1592
83.5186 8195 90.5262
83.636 8239 90.7689
83.7534 8220 90.6642
83.8708 8473 92.0489
83.9881 8632 92.9086
84.1055 8452 91.9348
84.2228 8266 90.9175
84.3401 7799 88.3119
84.4575 6947 83.3487
84.5747 6422 80.1374
84.692 5874 76.642
84.8093 5678 75.3525
84.9265 5638 75.0866
85.0437 5979 77.324
85.1609 6880 82.9458
85.2781 7451 86.3192
85.3952 8111 90.0611
85.5123 8587 92.6661
85.6294 9427 97.0927
85.7465 10034 100.17
85.8636 10027 100.135
85.9806 10478 102.362
86.0976 10335 101.661
86.2145 10669 103.291
86.3315 11024 104.995
86.4484 10351 101.74
86.5652 10592 102.917
86.682 10738 103.624
86.7988 10880 104.307
86.9156 10531 102.621
87.0323 10647 103.184
87.149 10733 103.6
87.2657 10750 103.682
87.3823 11080 105.262
87.4988 11271 106.165
87.6154 11418 106.855
87.7318 11208 105.868
87.8483 10703 103.455
87.9647 9831 99.1514
88.081 8972 94.7206
88.1973 8452 91.9348
88.3136 7791 88.2666
88.4298 7660 87.5214
88.546 7620 87.2926
88.6621 8392 91.6079
88.7781 9354 96.7161
88.8942 0 1
89.0101 0 1
89.126 0 1
89.2419 0 1
89.3577 0 1
89.4734 0 1
89.5891 0 1
89.7047 0 1
89.8203 0 1
89.9358 0 1
92.3269 0 1
92.4424 0 1
92.558 0 1
92.6736 0 1
92.7893 0 1
92.905 0 1
93.0208 0 1
93.1366 0 1
93.2525 0 1
93.3685 0 1
93.4845 0 1
93.6005 8793 93.771
93.7167 8516 92.2822
93.8328 8614 92.8116
93.949 8905 94.3663
94.0653 9280 96.3328
94.1816 10310 101.538
94.2979 11282 106.217
94.4143 11990 109.499
94.5307 12958 113.833
94.6472 13635 116.769
94.7637 13982 118.246
94.8803 14234 119.306
94.9969 14347 119.779
95.1135 14263 119.428
95.2302 14581 120.752
95.3469 14352 119.8
95.4637 14499 120.412
95.5805 14468 120.283
95.6973 14300 119.583
95.8142 14246 119.357
95.9311 14169 119.034
96.048 14003 118.334
96.1649 13818 117.55
96.2819 13567 116.477
96.3989 13782 117.397
96.516 13938 118.059
96.633 14201 119.168
96.7501 13960 118.152
96.8673 13656 116.859
96.9844 12756 112.942
97.1016 11902 109.096
97.2188 10956 104.671
97.336 9903 99.5138
97.4532 9312 96.4987
97.5704 9088 95.331
97.6877 9172 95.7706
97.805 9771 98.8484
97.9223 10788 103.865
98.0396 11709 108.208
98.1569 12370 111.221
98.2743 13452 115.983
98.3916 14102 118.752
98.509 14699 121.239
98.6264 14666 121.103
98.7438 14836 121.803
98.8612 15027 122.585
98.9786 15038 122.63
99.096 14858 121.893
99.2134 14647 121.025
99.3308 14913 122.119
99.4482 14691 121.206
99.5656 14665 121.099
99.6831 14718 121.318
99.8005 14127 118.857
99.9179 14175 119.059
100.035 14122 118.836
100.153 14818 121.729
100.27 14654 121.054
100.388 14901 122.07
100.505 13993 118.292
100.622 13205 114.913
100.74 12114 110.064
100.857 11216 105.906
100.975 10154 100.767
101.092 9539 97.6678
101.209 9356 96.7264
101.327 9578 97.8673
101.444 10405 102.005
101.561 11645 107.912
101.679 12684 112.623
101.796 13536 116.344
101.913 14632 120.963
102.03 14905 122.086
102.148 15294 123.669
102.265 14975 122.372
102.382 15971 126.376
102.499 15573 124.792
102.616 15807 125.726
102.733 15344 123.871
102.851 15296 123.677
102.968 15605 124.92
103.085 15737 125.447
103.202 15113 122.935
103.319 14945 122.25
103.436 14885 122.004
103.552 14921 122.152
103.669 14810 121.696
103.786 15633 125.032
103.903 15622 124.988
104.02 15048 122.67
104.137 14025 118.427
104.253 13167 114.748
104.37 12003 109.558
104.487 10902 104.413
104.603 10272 101.351
104.72 10153 100.762
104.836 10317 101.573
104.953 11279 106.203
105.069 12410 111.4
105.186 13602 116.628
105.302 14605 120.851
105.418 15756 125.523
105.535 15999 126.487
105.651 16246 127.46
105.767 16691 129.194
105.883 16750 129.422
105.999 16674 129.128
106.115 0 1
106.231 0 1
106.347 0 1
106.463 0 1
106.579 0 1
106.694 0 1
106.81 0 1
106.926 0 1
107.041 0 1
107.157 0 1
109.576 0 1
109.692 0 1
109.807 0 1
109.923 0 1
110.039 0 1
110.155 0 1
110.27 0 1
110.386 0 1
110.502 0 1
110.618 14680 121.161
110.735 15045 122.658
110.851 15306 123.717
110.967 15511 124.543
111.083 15168 123.158
111.199 15005 122.495
111.316 15198 123.28
111.432 15285 123.633
111.549 15131 123.008
111.665 14981 122.397
111.782 14607 120.859
111.898 14490 120.374
112.015 14325 119.687
112.132 14410 120.042
112.248 14623 120.926
112.365 14764 121.507
112.482 13809 117.512
112.599 13891 117.86
112.716 12680 112.606
112.832 11783 108.55
112.949 10811 103.976
113.066 9974 99.8699
113.183 9392 96.9123
113.3 9543 97.6883
113.417 9873 99.363
113.534 10711 103.494
113.652 11613 107.764
113.769 12352 111.14
113.886 13365 115.607
114.003 13744 117.235
114.12 14111 118.79
114.238 14331 119.712
114.355 14045 118.512
114.472 14185 119.101
114.589 14454 120.225
114.707 13914 117.958
114.824 13830 117.601
114.942 13639 116.786
115.059 14144 118.929
115.176 14094 118.718
115.294 14035 118.469
115.411 13603 116.632
115.529 13445 115.953
115.646 13373 115.642
115.764 13744 117.235
115.881 14086 118.684
115.999 13817 117.546
116.116 13407 115.789
116.234 12443 111.548
116.351 11769 108.485
116.469 11108 105.394
116.586 10174 100.866
116.704 9569 97.8213
116.821 9316 96.5194
116.939 9535 97.6473
117.056 9832 99.1564
117.174 10509 102.513
117.291 11496 107.219
117.409 12211 110.503
117.526 12800 113.137
117.644 13302 115.334
117.761 13670 116.919
117.879 13878 117.805
117.996 13726 117.158
118.114 13753 117.273
118.231 13850 117.686
118.349 13610 116.662
118.466 13195 114.869
118.584 13526 116.301
118.701 13718 117.124
118.819 13642 116.799
118.936 13331 115.46
119.053 12997 114.004
119.171 12903 113.591
119.288 13081 114.372
119.405 13104 114.473
119.523 13354 115.56
119.64 12977 113.917
119.757 13149 114.669
119.875 12217 110.531
119.992 11748 108.388
120.109 10803 103.937
120.226 10245 101.218
120.343 9633 98.1478
120.46 9546 97.7036
120.578 9113 95.462
120.695 9357 96.7316
120.812 9822 99.106
120.929 10500 102.47
121.046 11322 106.405
121.163 11930 109.225
121.279 12302 110.914
121.396 12564 112.089
121.513 12984 113.947
121.63 13137 114.617
121.747 12914 113.64
121.863 13033 114.162
121.98 12865 113.424
122.097 12614 112.312
122.213 12754 112.934
122.33 12822 113.234
122.446 12876 113.472
122.563 12573 112.129
122.679 12547 112.013
122.795 12387 111.297
122.912 12125 110.114
123.028 12195 110.431
123.144 12264 110.743
123.26 12165 110.295
123.377 0 1
123.493 0 1
123.609 0 1
123.725 0 1
123.84 0 1
123.956 0 1
124.072 0 1
124.188 0 1
124.303 0 1
124.419 0 1
126.852 0 1
126.968 0 1
127.083 0 1
127.199 0 1
127.315 0 1
127.431 0 1
127.547 0 1
127.663 0 1
127.779 0 1
127.895 0 1
128.011 0 1
128.127 0 1
128.243 0 1
128.359 13156 114.7
128.476 13037 114.18
128.592 12991 113.978
128.708 12671 112.566
128.825 12154 110.245
128.941 11715 108.236
129.058 10862 104.221
129.174 10415 102.054
129.291 10030 100.15
129.408 9885 99.4233
129.524 9927 99.6343
129.641 10151 100.752
129.758 10806 103.952
129.875 11358 106.574
129.992 11727 108.291
130.108 12457 111.611
130.225 12490 111.759
130.342 13055 114.258
130.459 12715 112.761
130.576 13120 114.543
130.693 12811 113.186
130.81 12620 112.339
130.928 12388 111.301
131.045 12701 112.699
131.162 12742 112.88
131.279 12993 113.987
131.396 12900 113.578
131.513 12603 112.263
131.631 12511 111.853
131.748 12708 112.73
131.865 12707 112.725
131.983 12934 113.728
132.1 12616 112.321
132.217 12546 112.009
132.335 12199 110.449
132.452 11535 107.401
132.57 11114 105.423
132.687 10117 100.583
132.804 10108 100.539
132.922 9634 98.1529
133.039 9667 98.3209
133.157 9842 99.2069
133.274 10288 101.43
133.392 10751 103.687
133.509 11138 105.537
133.627 11697 108.153
133.744 12147 110.213
133.862 12141 110.186
133.979 12465 111.647
134.097 12269 110.766
134.214 12173 110.331
134.332 12121 110.095
134.449 11846 108.839
134.567 11791 108.586
134.684 12230 110.589
134.802 12309 110.946
134.919 12529 111.933
135.037 12397 111.342
135.154 11819 108.715
135.272 11965 109.385
135.389 12256 110.707
135.507 12075 109.886
135.624 12199 110.449
135.742 12174 110.336
135.859 11814 108.692
135.977 11309 106.344
136.094 10778 103.817
136.211 10331 101.642
136.329 10024 100.12
136.446 9718 98.5799
136.564 9772 98.8534
136.681 9422 97.067
136.798 9523 97.5859
136.915 9701 98.4937
137.033 10228 101.134
137.15 10768 103.769
137.267 11075 105.238
137.384 11373 106.644
137.502 11480 107.145
137.619 11535 107.401
137.736 11773 108.503
137.853 11304 106.32
137.97 11499 107.233
138.087 10947 104.628
138.204 11177 105.721
138.321 11290 106.254
138.438 11520 107.331
138.555 11744 108.37
138.672 11676 108.056
138.788 11286 106.236
138.905 11444 106.977
139.022 11867 108.936
139.139 12104 110.018
139.255 11643 107.903
139.372 11742 108.361
139.488 11353 106.55
139.605 11157 105.627
139.721 10907 104.437
139.838 10367 101.818
139.954 10061 100.305
140.071 9553 97.7394
140.187 9525 97.5961
140.303 9538 97.6627
140.419 9264 96.2497
140.535 9457 97.2471
140.652 9575 97.8519
140.768 0 1
140.884 0 1
141 0 1
141.115 0 1
141.231 0 1
141.347 0 1
141.463 0 1
141.578 0 1
141.694 0 1
144.104 0 1
144.219 0 1
144.335 0 1
144.45 0 1
144.566 0 1
144.682 0 1
144.798 0 1
144.914 0 1
145.03 0 1
145.146 6401 80.0062
145.262 7026 83.8212
145.378 7133 84.4571
145.494 7333 85.6329
145.61 7492 86.5563
145.726 7587 87.1034
145.842 8013 89.5154
145.959 8178 90.4323
146.075 8360 91.433
146.192 8350 91.3783
146.308 8545 92.4392
146.425 8497 92.1792
146.541 8526 92.3363
146.658 8322 91.225
146.774 8252 90.8405
146.891 8254 90.8515
147.008 8282 91.0055
147.125 8259 90.879
147.241 8603 92.7524
147.358 8854 94.0957
147.475 8719 93.3756
147.592 8640 92.9516
147.709 8810 93.8616
147.826 8902 94.3504
147.943 8765 93.6216
148.06 8803 93.8243
148.177 8829 93.9628
148.294 8710 93.3274
148.411 8386 91.5751
148.528 8325 91.2414
148.645 8082 89.8999
148.762 8007 89.4818
148.88 7677 87.6185
148.997 7671 87.5842
149.114 7854 88.6228
149.231 7614 87.2582
149.349 7499 86.5968
149.466 7932 89.0618
149.583 8110 90.0555
149.701 8294 91.0714
149.818 8405 91.6788
149.935 8379 91.5369
150.053 8582 92.6391
150.17 8621 92.8493
150.287 8764 93.6162
150.405 8381 91.5478
150.522 8387 91.5806
150.64 8218 90.6532
150.757 8281 91
150.875 8419 91.7551
150.992 8581 92.6337
151.11 8789 93.7497
151.227 8824 93.9361
151.344 8642 92.9624
151.462 8609 92.7847
151.579 8965 94.6837
151.697 8904 94.361
151.814 8781 93.707
151.932 8836 94
152.049 8581 92.6337
152.167 8430 91.815
152.284 8188 90.4876
152.402 8068 89.822
152.519 7877 88.7525
152.636 7810 88.3742
152.754 7677 87.6185
152.871 7783 88.2213
152.989 7784 88.227
153.106 7994 89.4092
153.223 8200 90.5539
153.341 8173 90.4046
153.458 8337 91.3072
153.575 8620 92.844
153.693 8659 93.0537
153.81 8598 92.7254
153.927 8431 91.8205
154.044 8362 91.444
154.162 8371 91.4932
154.279 8211 90.6146
154.396 8392 91.6079
154.513 8861 94.1329
154.63 8976 94.7418
154.747 9197 95.901
154.864 9098 95.3834
154.981 9220 96.0208
155.098 9166 95.7392
155.215 9324 96.5609
155.332 9315 96.5142
155.449 9048 95.121
155.566 9040 95.0789
155.683 8875 94.2072
155.8 8734 93.4559
155.917 8468 92.0217
156.033 8376 91.5205
156.15 0 1
156.267 0 1
156.383 0 1
156.5 0 1
156.617 0 1
156.733 0 1
156.85 0 1
156.966 0 1
157.082 0 1
157.199 0 1
157.315 0 1
157.431 0 1
157.547 0 1
157.664 0 1
157.78 0 1
157.896 0 1
158.012 0 1
158.128 0 1
158.244 0 1
158.359 0 1
158.475 0 1
158.591 0 1
158.706 0 1
