
6.15755 0 1
6.2731 0 1
6.3887 0 1
6.50437 0 1
6.62009 0 1
6.73587 0 1
6.8517 0 1
6.96759 0 1
7.08353 0 1
7.19952 0 1
7.31557 0 1
7.43166 0 1
7.54781 0 1
7.664 0 1
7.78024 0 1
7.89653 0 1
8.01286 0 1
8.12924 0 1
8.24567 0 1
8.36213 0 1
8.47864 0 1
8.59519 0 1
8.71178 0 1
8.82841 0 1
8.94508 0 1
9.06179 0 1
9.17853 0 1
9.29531 0 1
9.41212 0 1
9.52897 0 1
9.64584 0 1
9.76276 0 1
9.8797 0 1
9.99667 0 1
10.1137 0 1
10.2307 0 1
10.3478 0 1
10.4648 0 1
10.5819 0 1
10.6991 0 1
10.8162 0 1
10.9334 0 1
11.0506 0 1
11.1678 0 1
11.285 0 1
11.4023 0 1
11.5196 0 1
11.6369 0 1
11.7542 0 1
11.8715 0 1
11.9888 0 1
12.1062 0 1
12.2235 0 1
12.3409 0 1
12.4582 0 1
12.5756 0 1
12.693 0 1
12.8104 0 1
12.9278 0 1
13.0452 0 1
13.1626 0 1
13.28 0 1
13.3974 0 1
13.5149 0 1
13.6323 0 1
13.7497 0 1
13.8671 0 1
13.9845 0 1
14.1019 0 1
14.2193 0 1
14.3367 0 1
14.4541 0 1
14.5714 0 1
14.6888 0 1
14.8062 0 1
14.9235 0 1
15.0408 8869 94.1754
15.1581 9000 94.8683
15.2755 9238 96.1145
15.3927 9339 96.6385
15.51 9322 96.5505
15.6273 9306 96.4676
15.7445 9208 95.9583
15.8617 9199 95.9114
15.9789 8959 94.652
16.0961 8965 94.6837
16.2132 8836 94
16.3304 8906 94.3716
16.4475 8872 94.1913
16.5646 9331 96.5971
16.6816 9266 96.2601
16.7986 9406 96.9845
16.9156 9311 96.4935
17.0326 9494 97.4372
17.1496 9025 95
17.2665 9324 96.5609
17.3833 8883 94.2497
17.5002 8870 94.1807
17.617 8820 93.9149
17.7338 8604 92.7577
17.8505 8834 93.9894
17.9672 9269 96.2756
18.0839 9362 96.7574
18.2005 9700 98.4886
18.3171 9743 98.7066
18.4337 10146 100.727
18.5502 10467 102.308
18.6666 10587 102.893
18.7831 10444 102.196
18.8994 10494 102.44
19.0158 10051 100.255
19.1321 9899 99.4937
19.2483 9672 98.3463
19.3645 9192 95.8749
19.4806 8927 94.4828
19.5967 8571 92.5797
19.7128 8307 91.1427
19.8288 8113 90.0722
19.9447 7662 87.5329
20.0606 0 1
20.1764 0 1
20.2922 0 1
20.4079 0 1
20.5236 0 1
20.6392 0 1
20.7548 0 1
20.8702 0 1
23.3078 0 1
23.4233 0 1
23.539 0 1
23.6547 0 1
23.7704 0 1
23.8862 0 1
24.0021 0 1
24.118 0 1
24.234 0 1
24.35 0 1
24.4661 8716 93.3595
24.5822 8765 93.6216
24.6984 8457 91.9619
24.8146 8424 91.7824
24.9309 8387 91.5806
25.0472 8668 93.1021
25.1636 8954 94.6256
25.28 9329 96.5867
25.3965 9573 97.8417
25.513 9596 97.9592
25.6296 9634 98.1529
25.7462 9791 98.9495
25.8628 9917 99.5841
25.9795 9740 98.6914
26.0962 9351 96.7006
26.213 8998 94.8578
26.3298 8898 94.3292
26.4466 8853 94.0904
26.5635 8818 93.9042
26.6804 8968 94.6995
26.7973 9430 97.1082
26.9143 9293 96.4002
27.0313 9531 97.6268
27.1483 9972 99.8599
27.2653 9987 99.935
27.3824 9970 99.8499
27.4996 10093 100.464
27.6167 9763 98.8079
27.7339 9640 98.1835
27.8511 9600 97.9796
27.9683 9262 96.2393
28.0855 9031 95.0316
28.2028 8836 94
28.3201 8338 91.3126
28.4374 8380 91.5423
28.5547 8422 91.7715
28.6721 8545 92.4392
28.7894 8548 92.4554
28.9068 9048 95.121
29.0242 9285 96.3587
29.1416 9218 96.0104
29.259 9259 96.2237
29.3764 9140 95.6033
29.4939 8918 94.4352
29.6113 8883 94.2497
29.7288 8569 92.5689
29.8463 8248 90.8185
29.9638 8184 90.4655
30.0812 8136 90.1998
30.1987 8290 91.0494
30.3162 8688 93.2094
30.4337 8894 94.308
30.5512 9468 97.3036
30.6687 9327 96.5764
30.7862 9659 98.2802
30.9037 9493 97.432
31.0212 9455 97.2368
31.1387 9576 97.857
31.2562 9168 95.7497
31.3737 9205 95.9427
31.4912 9066 95.2155
31.6087 8917 94.4299
31.7262 8717 93.3649
31.8436 8417 91.7442
31.9611 8299 91.0988
32.0785 8121 90.1166
32.1959 8283 91.011
32.3134 8449 91.9184
32.4308 8864 94.1488
32.5482 8912 94.4034
32.6655 9062 95.1945
32.7829 8888 94.2762
32.9002 9037 95.0631
33.0176 9064 95.205
33.1349 8949 94.5992
33.2522 8722 93.3916
33.3694 8466 92.0109
33.4867 8304 91.1263
33.6039 8098 89.9889
33.7211 8075 89.861
33.8383 8162 90.3438
33.9554 8411 91.7115
34.0725 8653 93.0215
34.1896 8688 93.2094
34.3067 8743 93.504
34.4237 8933 94.5145
34.5407 8919 94.4405
34.6577 9105 95.4201
34.7746 9058 95.1735
34.8915 9137 95.5877
35.0084 9045 95.1052
35.1252 8866 94.1594
35.242 8852 94.0851
35.3587 8509 92.2442
35.4755 8360 91.433
35.5921 8042 89.6772
35.7088 7814 88.3968
35.8254 7911 88.9438
35.9419 7862 88.6679
36.0584 7981 89.3364
36.1749 8069 89.8276
36.2913 8470 92.0326
36.4077 8468 92.0217
36.524 8557 92.5041
36.6403 8600 92.7362
36.7565 8628 92.887
36.8727 8586 92.6607
36.9889 8402 91.6624
37.1049 7986 89.3644
37.221 0 1
37.3369 0 1
37.4529 0 1
37.5687 0 1
37.6845 0 1
37.8003 0 1
37.916 0 1
38.0316 0 1
38.1472 0 1
40.5851 0 1
40.7008 0 1
40.8164 0 1
40.9322 0 1
41.048 0 1
41.1639 0 1
41.2798 0 1
41.3958 0 1
41.5118 0 1
41.6279 0 1
41.744 6925 83.2166
41.8602 7237 85.0706
41.9765 7361 85.7963
42.0928 7447 86.296
42.2091 7267 85.2467
42.3255 7303 85.4576
42.4419 6902 83.0783
42.5584 6584 81.1419
42.675 6555 80.963
42.7915 6443 80.2683
42.9081 6892 83.0181
43.0248 6946 83.3427
43.1415 7062 84.0357
43.2582 7332 85.6271
43.375 7262 85.2174
43.4918 7315 85.5278
43.6087 7244 85.1117
43.7256 7258 85.1939
43.8425 7238 85.0764
43.9595 7146 84.534
44.0765 7094 84.2259
44.1935 6837 82.6862
44.3106 6476 80.4736
44.4277 6315 79.467
44.5448 6053 77.801
44.6619 5638 75.0866
44.7791 5555 74.5319
44.8963 5607 74.8799
45.0136 5640 75.0999
45.1308 5641 75.1066
45.2481 5857 76.531
45.3654 5744 75.7892
45.4827 5891 76.7529
45.6001 5836 76.3937
45.7174 6007 77.5048
45.8348 5792 76.1052
45.9522 5514 74.2563
46.0697 5460 73.8918
46.1871 5134 71.6519
46.3046 4945 70.3207
46.422 5271 72.6017
46.5395 5299 72.7942
46.657 5332 73.0205
46.7745 5474 73.9865
46.892 5560 74.5654
47.0096 5523 74.3169
47.1271 5532 74.3774
47.2446 5600 74.8331
47.3622 5663 75.2529
47.4797 5407 73.5323
47.5973 5343 73.0958
47.7149 5195 72.0763
47.8324 5141 71.7008
47.95 4900 70
48.0675 4787 69.1881
48.1851 4644 68.1469
48.3027 4496 67.0522
48.4202 4550 67.4537
48.5378 4458 66.7683
48.6554 4541 67.3869
48.7729 4838 69.5557
48.8904 4974 70.5266
49.008 5076 71.2461
49.1255 5072 71.218
49.243 5065 71.1688
49.3605 5117 71.5332
49.478 4938 70.2709
49.5955 4927 70.1926
49.713 4778 69.1231
49.8304 4626 68.0147
49.9479 4709 68.6222
50.0653 4934 70.2424
50.1827 5182 71.9861
50.3001 5366 73.253
50.4175 5599 74.8265
50.5348 5651 75.1731
50.6521 5817 76.2693
50.7694 5908 76.8635
50.8867 6145 78.3901
51.004 6158 78.4729
51.1212 6170 78.5493
51.2384 6153 78.4411
51.3556 6314 79.4607
51.4727 6185 78.6448
51.5899 6074 77.9359
51.707 5882 76.6942
51.824 5948 77.1233
51.9411 6000 77.4597
52.0581 6175 78.5812
52.175 6458 80.3617
52.2919 6842 82.7164
52.4088 7106 84.2971
52.5257 7265 85.235
52.6425 7314 85.5219
52.7593 7467 86.4118
52.876 7578 87.0517
52.9927 7443 86.2728
53.1094 7586 87.0976
53.226 7278 85.3112
53.3426 6991 83.6122
53.4591 6825 82.6136
53.5756 7191 84.7998
53.692 7444 86.2786
53.8084 7914 88.9607
53.9248 8151 90.2829
54.0411 8229 90.7138
54.1573 8334 91.2907
54.2735 0 1
54.3896 0 1
54.5057 0 1
54.6217 0 1
54.7377 0 1
54.8537 0 1
54.9695 0 1
55.0853 0 1
55.2011 0 1
55.3168 0 1
55.4324 0 1
57.824 0 1
57.9396 0 1
58.0553 0 1
58.1711 0 1
58.2869 0 1
58.4028 0 1
58.5187 0 1
58.6347 0 1
58.7508 0 1
58.8669 0 1
58.983 9212 95.9792
59.0992 9887 99.4334
59.2155 10302 101.499
59.3318 10386 101.912
59.4482 10604 102.976
59.5646 10793 103.889
59.681 10599 102.951
59.7975 10661 103.252
59.9141 10667 103.281
60.0306 10416 102.059
60.1473 10453 102.24
60.2639 10030 100.15
60.3807 9742 98.7016
60.4974 9307 96.4728
60.6142 9165 95.734
60.731 8923 94.4616
60.8479 8897 94.3239
60.9648 9147 95.6399
61.0818 9477 97.3499
61.1987 9740 98.6914
61.3158 9856 99.2774
61.4328 10060 100.3
61.5499 9952 99.7597
61.667 10117 100.583
61.7841 9886 99.4284
61.9013 9360 96.7471
62.0185 9044 95.0999
62.1357 8615 92.817
62.253 8844 94.0425
62.3702 8736 93.4666
62.4875 9214 95.9896
62.6049 9330 96.5919
62.7222 9343 96.6592
62.8396 9827 99.1312
62.9569 9794 98.9646
63.0743 9747 98.7269
63.1918 9818 99.0858
63.3092 9749 98.737
63.4267 9762 98.8028
63.5441 9580 97.8775
63.6616 9293 96.4002
63.7791 9334 96.6126
63.8966 9118 95.4882
64.0142 8419 91.7551
64.1317 8386 91.5751
64.2492 8181 90.4489
64.3668 8128 90.1554
64.4843 8325 91.2414
64.6019 8747 93.5254
64.7195 8978 94.7523
64.837 8988 94.8051
64.9546 9006 94.8999
65.0722 9494 97.4372
65.1898 9414 97.0258
65.3074 9386 96.8814
65.4249 9095 95.3677
65.5425 8601 92.7416
65.6601 8260 90.8845
65.7777 8066 89.8109
65.8952 8111 90.0611
66.0128 8476 92.0652
66.1304 8701 93.2792
66.2479 8988 94.8051
66.3655 9459 97.2574
66.483 9510 97.5192
66.6005 9496 97.4474
66.718 9669 98.3311
66.8355 9824 99.1161
66.953 9582 97.8877
67.0705 9565 97.8008
67.1879 9485 97.391
67.3054 9314 96.5091
67.4228 9535 97.6473
67.5402 9217 96.0052
67.6576 8760 93.5949
67.7749 8299 91.0988
67.8923 8238 90.7634
68.0096 8261 90.89
68.1269 8636 92.9301
68.2442 8852 94.0851
68.3614 9248 96.1665
68.4787 9632 98.1428
68.5958 9770 98.8433
68.713 9851 99.2522
68.8302 10097 100.484
68.9473 10106 100.529
69.0643 10138 100.688
69.1814 9466 97.2934
69.2984 8982 94.7734
69.4154 8626 92.8763
69.5323 8511 92.2551
69.6492 8813 93.8776
69.7661 9525 97.5961
69.8829 9647 98.2191
69.9997 9936 99.6795
70.1165 9875 99.373
70.2332 10254 101.262
70.3499 10369 101.828
70.4665 10514 102.538
70.5831 10502 102.479
70.6996 10321 101.592
70.8161 10360 101.784
70.9326 10292 101.449
71.049 10171 100.851
71.1653 9928 99.6393
71.2817 9486 97.3961
71.3979 9176 95.7914
71.5141 8324 91.236
71.6303 8173 90.4046
71.7464 7831 88.4929
71.8624 0 1
71.9784 0 1
72.0944 0 1
72.2102 0 1
72.3261 0 1
72.4418 0 1
72.5575 0 1
72.6732 0 1
75.1054 0 1
75.2209 0 1
75.3365 0 1
75.4521 0 1
75.5678 0 1
75.6835 0 1
75.7993 0 1
75.9151 0 1
76.031 0 1
76.147 9183 95.828
76.263 9758 98.7826
76.3791 10005 100.025
76.4952 9665 98.3107
76.6113 9454 97.2317
76.7276 8915 94.4193
76.8438 8630 92.8978
76.9601 8601 92.7416
77.0765 9139 95.5981
77.1929 9197 95.901
77.3093 9680 98.387
77.4258 9867 99.3328
77.5423 10220 101.094
77.6589 10310 101.538
77.7755 10572 102.82
77.8921 10548 102.703
78.0088 10156 100.777
78.1256 9502 97.4782
78.2423 9033 95.0421
78.3591 8526 92.3363
78.4759 8195 90.5262
78.5928 8523 92.3201
78.7097 9188 95.8541
78.8266 9232 96.0833
78.9436 10153 100.762
79.0606 10019 100.095
79.1776 10343 101.701
79.2946 10399 101.975
79.4117 10296 101.469
79.5288 10350 101.735
79.6459 10386 101.912
79.7631 10216 101.074
79.8802 10267 101.326
79.9974 10089 100.444
80.1147 10061 100.305
80.2319 9592 97.9388
80.3491 9006 94.8999
80.4664 8659 93.0537
80.5837 8694 93.2416
80.701 9097 95.3782
80.8183 9238 96.1145
80.9357 9581 97.8826
81.053 9926 99.6293
81.1704 10069 100.344
81.2877 10264 101.311
81.4051 10413 102.044
81.5225 10700 103.441
81.6399 10454 102.245
81.7573 10139 100.693
81.8747 9171 95.7653
81.9922 8663 93.0752
82.1096 8394 91.6188
82.227 8427 91.7987
82.3444 8900 94.3398
82.4619 9500 97.4679
82.5793 10007 100.035
82.6967 9859 99.2925
82.8142 10001 100.005
82.9316 10334 101.656
83.049 10323 101.602
83.1664 10485 102.396
83.2838 10298 101.479
83.4012 10565 102.786
83.5186 10295 101.464
83.636 10313 101.553
83.7534 9976 99.8799
83.8708 9804 99.0152
83.9881 9076 95.268
84.1055 8782 93.7123
84.2228 8510 92.2497
84.3401 8925 94.4722
84.4575 9249 96.1717
84.5747 9780 98.8939
84.692 9903 99.5138
84.8093 10487 102.406
84.9265 10738 103.624
85.0437 11081 105.266
85.1609 10953 104.657
85.2781 10415 102.054
85.3952 9933 99.6644
85.5123 9372 96.8091
85.6294 8992 94.8262
85.7465 8674 93.1343
85.8636 8926 94.4775
85.9806 9602 97.9898
86.0976 10122 100.608
86.2145 10566 102.791
86.3315 10691 103.397
86.4484 11067 105.2
86.5652 11128 105.489
86.682 10976 104.766
86.7988 11364 106.602
86.9156 11121 105.456
87.0323 11107 105.39
87.149 11085 105.285
87.2657 11178 105.726
87.3823 10916 104.48
87.4988 10391 101.936
87.6154 9755 98.7674
87.7318 9384 96.871
87.8483 9541 97.678
87.9647 9709 98.5343
88.081 10072 100.359
88.1973 10538 102.655
88.3136 10870 104.259
88.4298 11076 105.243
88.546 11373 106.644
88.6621 11445 106.981
88.7781 11244 106.038
88.8942 0 1
89.0101 0 1
89.126 0 1
89.2419 0 1
89.3577 0 1
89.4734 0 1
89.5891 0 1
89.7047 0 1
89.8203 0 1
89.9358 0 1
92.3269 0 1
92.4424 0 1
92.558 0 1
92.6736 0 1
92.7893 0 1
92.905 0 1
93.0208 0 1
93.1366 0 1
93.2525 0 1
93.3685 0 1
93.4845 0 1
93.6005 10208 101.035
93.7167 10551 102.718
93.8328 10704 103.46
93.949 10574 102.83
94.0653 10832 104.077
94.1816 10346 101.715
94.2979 9817 99.0808
94.4143 9384 96.871
94.5307 9018 94.9632
94.6472 8513 92.2659
94.7637 8908 94.3822
94.8803 9311 96.4935
94.9969 9672 98.3463
95.1135 10246 101.223
95.2302 10346 101.715
95.3469 10495 102.445
95.4637 10645 103.175
95.5805 10766 103.759
95.6973 10789 103.87
95.8142 10856 104.192
95.9311 10884 104.326
96.048 10951 104.647
96.1649 10825 104.043
96.2819 10661 103.252
96.3989 10424 102.098
96.516 10062 100.31
96.633 9618 98.0714
96.7501 9184 95.8332
96.8673 9317 96.5246
96.9844 9200 95.9166
97.1016 9519 97.5654
97.2188 9705 98.514
97.336 10099 100.494
97.4532 10517 102.552
97.5704 10651 103.204
97.6877 10873 104.274
97.805 10593 102.922
97.9223 10368 101.823
98.0396 9736 98.6712
98.1569 9145 95.6295
98.2743 8681 93.1719
98.3916 8513 92.2659
98.509 8766 93.6269
98.6264 9572 97.8366
98.7438 9721 98.5951
98.8612 10100 100.499
98.9786 10162 100.807
99.096 10280 101.39
99.2134 10518 102.557
99.3308 10606 102.985
99.4482 10556 102.742
99.5656 10494 102.44
99.6831 10323 101.602
99.8005 10416 102.059
99.9179 10364 101.804
100.035 9900 99.4987
100.153 9625 98.1071
100.27 9237 96.1093
100.388 8922 94.4563
100.505 8840 94.0213
100.622 8858 94.1169
100.74 9343 96.6592
100.857 9679 98.3819
100.975 10173 100.861
101.092 10287 101.425
101.209 10518 102.557
101.327 10448 102.215
101.444 10925 104.523
101.561 10312 101.548
101.679 9925 99.6243
101.796 9207 95.9531
101.913 8692 93.2309
102.03 8805 93.835
102.148 9220 96.0208
102.265 9132 95.5615
102.382 10954 104.661
102.499 10489 102.416
102.616 10992 104.843
102.733 10927 104.532
102.851 11053 105.133
102.968 11018 104.967
103.085 10968 104.728
103.202 10992 104.843
103.319 10997 104.867
103.436 11030 105.024
103.552 10878 104.298
103.669 10553 102.728
103.786 9810 99.0454
103.903 9469 97.3088
104.02 9455 97.2368
104.137 9689 98.4327
104.253 10040 100.2
104.37 10277 101.376
104.487 10741 103.639
104.603 11057 105.152
104.72 11350 106.536
104.836 11320 106.395
104.953 11285 106.231
105.069 10848 104.154
105.186 10352 101.745
105.302 9477 97.3499
105.418 9207 95.9531
105.535 9245 96.1509
105.651 9622 98.0918
105.767 10281 101.395
105.883 10559 102.757
105.999 10765 103.755
106.115 0 1
106.231 0 1
106.347 0 1
106.463 0 1
106.579 0 1
106.694 0 1
106.81 0 1
106.926 0 1
107.041 0 1
107.157 0 1
109.576 0 1
109.692 0 1
109.807 0 1
109.923 0 1
110.039 0 1
110.155 0 1
110.27 0 1
110.386 0 1
110.502 0 1
110.618 7997 89.4259
110.735 8930 94.4987
110.851 9283 96.3483
110.967 9502 97.4782
111.083 9784 98.9141
111.199 10023 100.115
111.316 10168 100.837
111.432 10246 101.223
111.549 10435 102.152
111.665 10123 100.613
111.782 9848 99.2371
111.898 9834 99.1665
112.015 9695 98.4632
112.132 9423 97.0721
112.248 9066 95.2155
112.365 8641 92.957
112.482 8653 93.0215
112.599 8164 90.3549
112.716 8362 91.444
112.832 8614 92.8116
112.949 8830 93.9681
113.066 9092 95.352
113.183 9233 96.0885
113.3 9521 97.5756
113.417 9527 97.6064
113.534 9400 96.9536
113.652 9140 95.6033
113.769 8562 92.5311
113.886 7974 89.2973
114.003 7349 85.7263
114.12 7395 85.9942
114.238 7674 87.6014
114.355 8113 90.0722
114.472 8450 91.9239
114.589 8167 90.3715
114.707 8706 93.3059
114.824 8597 92.72
114.942 8619 92.8386
115.059 8435 91.8423
115.176 8494 92.1629
115.294 8375 91.515
115.411 8239 90.7689
115.529 8067 89.8165
115.646 7851 88.6059
115.764 7613 87.2525
115.881 7321 85.5628
115.999 6974 83.5105
116.116 6728 82.0244
116.234 6794 82.4257
116.351 6794 82.4257
116.469 7082 84.1546
116.586 7206 84.8882
116.704 7344 85.6971
116.821 7364 85.8138
116.939 7566 86.9828
117.056 7691 87.6983
117.174 7404 86.0465
117.291 7262 85.2174
117.409 6789 82.3954
117.526 6424 80.1499
117.644 6181 78.6193
117.761 6261 79.1265
117.879 6656 81.5843
117.996 6890 83.006
118.114 7161 84.6227
118.231 7455 86.3423
118.349 7357 85.773
118.466 7571 87.0115
118.584 7448 86.3018
118.701 7687 87.6755
118.819 7408 86.0697
118.936 7467 86.4118
119.053 7295 85.4108
119.171 7420 86.1394
119.288 7162 84.6286
119.405 7059 84.0179
119.523 6664 81.6333
119.64 6738 82.0853
119.757 6640 81.4862
119.875 6783 82.359
119.992 6889 83
120.109 7095 84.2318
120.226 7367 85.8312
120.343 7620 87.2926
120.46 7836 88.5212
120.578 7753 88.0511
120.695 8049 89.7162
120.812 8215 90.6366
120.929 7941 89.1123
121.046 7575 87.0345
121.163 7309 85.4927
121.279 6955 83.3966
121.396 6873 82.9036
121.513 7264 85.2291
121.63 7567 86.9885
121.747 8099 89.9944
121.863 8198 90.5428
121.98 8564 92.5419
122.097 8540 92.4121
122.213 8919 94.4405
122.33 8900 94.3398
122.446 8866 94.1594
122.563 8790 93.755
122.679 8838 94.0106
122.795 8765 93.6216
122.912 8580 92.6283
123.028 8574 92.5959
123.144 8228 90.7083
123.26 8091 89.95
123.377 0 1
123.493 0 1
123.609 0 1
123.725 0 1
123.84 0 1
123.956 0 1
124.072 0 1
124.188 0 1
124.303 0 1
124.419 0 1
126.852 0 1
126.968 0 1
127.083 0 1
127.199 0 1
127.315 0 1
127.431 0 1
127.547 0 1
127.663 0 1
127.779 0 1
127.895 0 1
128.011 0 1
128.127 0 1
128.243 0 1
128.359 10048 100.24
128.476 9753 98.7573
128.592 9668 98.326
128.708 9091 95.3467
128.825 9086 95.3205
128.941 9110 95.4463
129.058 9380 96.8504
129.174 9743 98.7066
129.291 9759 98.7877
129.408 10136 100.678
129.524 10099 100.494
129.641 10429 102.122
129.758 10414 102.049
129.875 10387 101.917
129.992 9775 98.8686
130.108 9295 96.4106
130.225 8852 94.0851
130.342 8459 91.9728
130.459 8676 93.145
130.576 8767 93.6323
130.693 9403 96.9691
130.81 9731 98.6458
130.928 9726 98.6205
131.045 9991 99.955
131.162 10151 100.752
131.279 10132 100.658
131.396 10129 100.643
131.513 10110 100.548
131.631 10065 100.324
131.748 9899 99.4937
131.865 9738 98.6813
131.983 9511 97.5244
132.1 9149 95.6504
132.217 8913 94.4087
132.335 8692 93.2309
132.452 8772 93.659
132.57 8999 94.8631
132.687 8697 93.2577
132.804 9563 97.7906
132.922 9655 98.2599
133.039 9576 97.857
133.157 9718 98.5799
133.274 9852 99.2572
133.392 9959 99.7948
133.509 9622 98.0918
133.627 9195 95.8906
133.744 8707 93.3113
133.862 8325 91.2414
133.979 8115 90.0833
134.097 8361 91.4385
134.214 8730 93.4345
134.332 8954 94.6256
134.449 9279 96.3276
134.567 9363 96.7626
134.684 9526 97.6012
134.802 9499 97.4628
134.919 9355 96.7212
135.037 9315 96.5142
135.154 9062 95.1945
135.272 8871 94.186
135.389 8743 93.504
135.507 8550 92.4662
135.624 8160 90.3327
135.742 7801 88.3233
135.859 7538 86.8217
135.977 7346 85.7088
136.094 7470 86.4292
136.211 7486 86.5217
136.329 7691 87.6983
136.446 7835 88.5155
136.564 7998 89.4315
136.681 7957 89.202
136.798 8207 90.5925
136.915 8172 90.3991
137.033 8167 90.3715
137.15 7767 88.1306
137.267 7333 85.6329
137.384 7026 83.8212
137.502 6852 82.7768
137.619 6708 81.9024
137.736 7230 85.0294
137.853 7419 86.1336
137.97 7883 88.7863
138.087 8056 89.7552
138.204 8205 90.5815
138.321 8296 91.0824
138.438 8544 92.4338
138.555 8633 92.9139
138.672 8686 93.1987
138.788 8671 93.1182
138.905 8615 92.817
139.022 8710 93.3274
139.139 8576 92.6067
139.255 8388 91.586
139.372 8262 90.8955
139.488 8163 90.3493
139.605 8141 90.2275
139.721 8221 90.6697
139.838 8624 92.8655
139.954 8709 93.322
140.071 9093 95.3572
140.187 9517 97.5551
140.303 9488 97.4064
140.419 9805 99.0202
140.535 9804 99.0152
140.652 9353 96.7109
140.768 0 1
140.884 0 1
141 0 1
141.115 0 1
141.231 0 1
141.347 0 1
141.463 0 1
141.578 0 1
141.694 0 1
144.104 0 1
144.219 0 1
144.335 0 1
144.45 0 1
144.566 0 1
144.682 0 1
144.798 0 1
144.914 0 1
145.03 0 1
145.146 14648 121.029
145.262 15816 125.762
145.378 17134 130.897
145.494 17661 132.895
145.61 18292 135.248
145.726 19234 138.687
145.842 19518 139.707
145.959 19252 138.752
146.075 18956 137.681
146.192 18427 135.746
146.308 18528 136.118
146.425 19374 139.191
146.541 20701 143.878
146.658 22433 149.777
146.774 23659 153.815
146.891 25027 158.199
147.008 25579 159.934
147.125 26623 163.166
147.241 27400 165.529
147.358 27899 167.03
147.475 28178 167.863
147.592 27746 166.571
147.709 27371 165.442
147.826 27298 165.221
147.943 26439 162.601
148.06 25885 160.888
148.177 25057 158.294
148.294 24831 157.579
148.411 24947 157.946
148.528 25356 159.236
148.645 26052 161.406
148.762 26671 163.313
148.88 26999 164.314
148.997 28537 168.929
149.114 26214 161.907
149.231 27014 164.359
149.349 26771 163.618
149.466 26317 162.225
149.583 25128 158.518
149.701 23275 152.561
149.818 22508 150.027
149.935 21832 147.757
150.053 21701 147.313
150.17 22585 150.283
150.287 24035 155.032
150.405 24607 156.866
150.522 25147 158.578
150.64 25767 160.521
150.757 26113 161.595
150.875 26764 163.597
150.992 26454 162.647
151.11 26757 163.576
151.227 26032 161.344
151.344 25665 160.203
151.462 25430 159.468
151.579 24945 157.94
151.697 24623 156.917
151.814 24370 156.109
151.932 24062 155.119
152.049 24568 156.742
152.167 25245 158.887
152.284 26366 162.376
152.402 27500 165.831
152.519 28157 167.8
152.636 28783 169.656
152.754 29146 170.722
152.871 29089 170.555
152.989 28806 169.723
153.106 27865 166.928
153.223 26143 161.688
153.341 25175 158.666
153.458 24162 155.441
153.575 23969 154.819
153.693 24684 157.111
153.81 25527 159.772
153.927 26657 163.27
154.044 27842 166.859
154.162 28515 168.864
154.279 29332 171.266
154.396 30226 173.856
154.513 30984 176.023
154.63 31938 178.712
154.747 31388 177.167
154.864 31471 177.401
154.981 30966 175.972
155.098 30753 175.365
155.215 30538 174.751
155.332 29984 173.159
155.449 29546 171.889
155.566 29465 171.654
155.683 30051 173.352
155.8 31181 176.581
155.917 32319 179.775
156.033 33185 182.168
156.15 0 1
156.267 0 1
156.383 0 1
156.5 0 1
156.617 0 1
156.733 0 1
156.85 0 1
156.966 0 1
157.082 0 1
157.199 0 1
157.315 0 1
157.431 0 1
157.547 0 1
157.664 0 1
157.78 0 1
157.896 0 1
158.012 0 1
158.128 0 1
158.244 0 1
158.359 0 1
158.475 0 1
158.591 0 1
158.706 0 1
