
6.15755 0 1
6.2731 0 1
6.3887 0 1
6.50437 0 1
6.62009 0 1
6.73587 0 1
6.8517 0 1
6.96759 0 1
7.08353 0 1
7.19952 0 1
7.31557 0 1
7.43166 0 1
7.54781 0 1
7.664 0 1
7.78024 0 1
7.89653 0 1
8.01286 0 1
8.12924 0 1
8.24567 0 1
8.36213 0 1
8.47864 0 1
8.59519 0 1
8.71178 0 1
8.82841 0 1
8.94508 0 1
9.06179 0 1
9.17853 0 1
9.29531 0 1
9.41212 0 1
9.52897 0 1
9.64584 0 1
9.76276 0 1
9.8797 0 1
9.99667 0 1
10.1137 0 1
10.2307 0 1
10.3478 0 1
10.4648 0 1
10.5819 0 1
10.6991 0 1
10.8162 0 1
10.9334 0 1
11.0506 0 1
11.1678 0 1
11.285 0 1
11.4023 0 1
11.5196 0 1
11.6369 0 1
11.7542 0 1
11.8715 0 1
11.9888 0 1
12.1062 0 1
12.2235 0 1
12.3409 0 1
12.4582 0 1
12.5756 0 1
12.693 0 1
12.8104 0 1
12.9278 0 1
13.0452 0 1
13.1626 0 1
13.28 0 1
13.3974 0 1
13.5149 0 1
13.6323 0 1
13.7497 0 1
13.8671 0 1
13.9845 0 1
14.1019 0 1
14.2193 0 1
14.3367 0 1
14.4541 0 1
14.5714 0 1
14.6888 0 1
14.8062 0 1
14.9235 0 1
15.0408 35209 187.641
15.1581 37200 192.873
15.2755 39062 197.641
15.3927 39977 199.942
15.51 39120 197.788
15.6273 38543 196.324
15.7445 37680 194.113
15.8617 36772 191.76
15.9789 36068 189.916
16.0961 35920 189.526
16.2132 36662 191.473
16.3304 36956 192.239
16.4475 36541 191.157
16.5646 36514 191.086
16.6816 35679 188.889
16.7986 35204 187.627
16.9156 34789 186.518
17.0326 34198 184.927
17.1496 34234 185.024
17.2665 34259 185.092
17.3833 34080 184.608
17.5002 33897 184.111
17.617 33892 184.098
17.7338 33599 183.3
17.8505 33402 182.762
17.9672 33320 182.538
18.0839 32680 180.776
18.2005 32734 180.925
18.3171 33117 181.981
18.4337 33247 182.338
18.5502 34365 185.378
18.6666 34921 186.872
18.7831 35860 189.367
18.8994 35398 188.144
19.0158 34666 186.188
19.1321 33701 183.578
19.2483 32710 180.859
19.3645 30678 175.151
19.4806 28959 170.173
19.5967 28275 168.152
19.7128 27548 165.976
19.8288 26211 161.898
19.9447 23649 153.782
20.0606 0 1
20.1764 0 1
20.2922 0 1
20.4079 0 1
20.5236 0 1
20.6392 0 1
20.7548 0 1
20.8702 0 1
23.3078 0 1
23.4233 0 1
23.539 0 1
23.6547 0 1
23.7704 0 1
23.8862 0 1
24.0021 0 1
24.118 0 1
24.234 0 1
24.35 0 1
24.4661 13077 114.355
24.5822 15470 124.378
24.6984 18044 134.328
24.8146 21317 146.003
24.9309 24403 156.215
25.0472 27745 166.568
25.1636 30831 175.588
25.28 33349 182.617
25.3965 35434 188.239
25.513 37252 193.008
25.6296 38961 197.385
25.7462 39635 199.085
25.8628 39683 199.206
25.9795 39874 199.685
26.0962 40051 200.127
26.213 40240 200.599
26.3298 38101 195.195
26.4466 37268 193.049
26.5635 36214 190.3
26.6804 35514 188.452
26.7973 34686 186.242
26.9143 33876 184.054
27.0313 33573 183.229
27.1483 34714 186.317
27.2653 35120 187.403
27.3824 35935 189.565
27.4996 36014 189.774
27.6167 35161 187.513
27.7339 34321 185.259
27.8511 33352 182.625
27.9683 32328 179.8
28.0855 31463 177.378
28.2028 31213 176.672
28.3201 30995 176.054
28.4374 31947 178.737
28.5547 32718 180.881
28.6721 33707 183.595
28.7894 34653 186.153
28.9068 35245 187.737
29.0242 35343 187.997
29.1416 35679 188.889
29.259 35202 187.622
29.3764 35320 187.936
29.4939 35215 187.657
29.6113 35060 187.243
29.7288 34936 186.912
29.8463 34514 185.779
29.9638 33261 182.376
30.0812 32889 181.353
30.1987 31471 177.401
30.3162 31018 176.119
30.4337 31139 176.462
30.5512 30913 175.821
30.6687 30914 175.824
30.7862 31752 178.191
30.9037 32498 180.272
31.0212 32774 181.036
31.1387 32897 181.375
31.2562 31903 178.614
31.3737 31309 176.943
31.4912 30667 175.12
31.6087 30127 173.571
31.7262 29518 171.808
31.8436 29446 171.598
31.9611 30329 174.152
32.0785 31245 176.763
32.1959 32150 179.304
32.3134 33010 181.687
32.4308 33556 183.183
32.5482 33807 183.867
32.6655 33868 184.033
32.7829 34299 185.2
32.9002 33738 183.679
33.0176 34262 185.1
33.1349 34337 185.302
33.2522 34208 184.954
33.3694 33827 183.921
33.4867 33045 181.783
33.6039 32506 180.294
33.7211 31532 177.573
33.8383 30706 175.231
33.9554 30159 173.663
34.0725 29994 173.188
34.1896 30192 173.758
34.3067 30172 173.701
34.4237 30955 175.94
34.5407 31213 176.672
34.6577 31730 178.129
34.7746 31446 177.33
34.8915 30783 175.451
35.0084 30018 173.257
35.1252 29400 171.464
35.242 28553 168.976
35.3587 28371 168.437
35.4755 28211 167.961
35.5921 28499 168.816
35.7088 29134 170.687
35.8254 30506 174.66
35.9419 31347 177.051
36.0584 32304 179.733
36.1749 32754 180.981
36.2913 32247 179.574
36.4077 31632 177.854
36.524 30990 176.04
36.6403 29892 172.893
36.7565 28279 168.164
36.8727 27000 164.317
36.9889 25001 158.117
37.1049 22919 151.39
37.221 0 1
37.3369 0 1
37.4529 0 1
37.5687 0 1
37.6845 0 1
37.8003 0 1
37.916 0 1
38.0316 0 1
38.1472 0 1
40.5851 0 1
40.7008 0 1
40.8164 0 1
40.9322 0 1
41.048 0 1
41.1639 0 1
41.2798 0 1
41.3958 0 1
41.5118 0 1
41.6279 0 1
41.744 13931 118.03
41.8602 16431 128.183
41.9765 18828 137.215
42.0928 20834 144.34
42.2091 22050 148.492
42.3255 23309 152.673
42.4419 23836 154.389
42.5584 24003 154.929
42.675 24135 155.354
42.7915 24487 156.483
42.9081 24444 156.346
43.0248 24774 157.398
43.1415 25003 158.123
43.2582 25500 159.687
43.375 25871 160.845
43.4918 26685 163.355
43.6087 26683 163.349
43.7256 26414 162.524
43.8425 25588 159.962
43.9595 24879 157.731
44.0765 24332 155.987
44.1935 24311 155.92
44.3106 24084 155.19
44.4277 24021 154.987
44.5448 24765 157.369
44.6619 25257 158.925
44.7791 26490 162.757
44.8963 27133 164.721
45.0136 27709 166.46
45.1308 28282 168.173
45.2481 27808 166.757
45.3654 28214 167.97
45.4827 28268 168.131
45.6001 28299 168.223
45.7174 28195 167.914
45.8348 27834 166.835
45.9522 27308 165.251
46.0697 26944 164.146
46.1871 26136 161.666
46.3046 25449 159.527
46.422 24961 157.991
46.5395 24931 157.896
46.657 25148 158.581
46.7745 25739 160.434
46.892 26212 161.901
47.0096 27146 164.76
47.1271 27275 165.151
47.2446 27534 165.934
47.3622 26778 163.64
47.4797 26262 162.056
47.5973 25667 160.209
47.7149 25402 159.38
47.8324 24796 157.467
47.95 24574 156.761
48.0675 25453 159.54
48.1851 25611 160.034
48.3027 26444 162.616
48.4202 27660 166.313
48.5378 28249 168.074
48.6554 28171 167.842
48.7729 28609 169.142
48.8904 28713 169.449
49.008 28505 168.834
49.1255 28109 167.657
49.243 28180 167.869
49.3605 27846 166.871
49.478 27241 165.048
49.5955 26522 162.856
49.713 25613 160.041
49.8304 24937 157.915
49.9479 24301 155.888
50.0653 24586 156.799
50.1827 24674 157.08
50.3001 25032 158.215
50.4175 25639 160.122
50.5348 26015 161.292
50.6521 26999 164.314
50.7694 27301 165.23
50.8867 26517 162.84
51.004 26217 161.917
51.1212 25579 159.934
51.2384 25109 158.458
51.3556 24682 157.105
51.4727 24515 156.573
51.5899 25015 158.161
51.707 25925 161.012
51.824 26783 163.655
51.9411 27773 166.652
52.0581 28131 167.723
52.175 28126 167.708
52.2919 28051 167.484
52.4088 28085 167.586
52.5257 28716 169.458
52.6425 28647 169.254
52.7593 28436 168.63
52.876 28430 168.612
52.9927 28115 167.675
53.1094 27905 167.048
53.226 27039 164.435
53.3426 26377 162.41
53.4591 25401 159.377
53.5756 24326 155.968
53.692 23462 153.173
53.8084 22799 150.993
53.9248 21351 146.12
54.0411 20062 141.64
54.1573 18727 136.847
54.2735 0 1
54.3896 0 1
54.5057 0 1
54.6217 0 1
54.7377 0 1
54.8537 0 1
54.9695 0 1
55.0853 0 1
55.2011 0 1
55.3168 0 1
55.4324 0 1
57.824 0 1
57.9396 0 1
58.0553 0 1
58.1711 0 1
58.2869 0 1
58.4028 0 1
58.5187 0 1
58.6347 0 1
58.7508 0 1
58.8669 0 1
58.983 14985 122.413
59.0992 17864 133.656
59.2155 20926 144.658
59.3318 24155 155.419
59.4482 27205 164.939
59.5646 29217 170.93
59.681 31093 176.332
59.7975 31964 178.785
59.9141 32008 178.908
60.0306 32242 179.561
60.1473 32502 180.283
60.2639 32651 180.696
60.3807 33486 182.992
60.4974 34451 185.61
60.6142 35201 187.619
60.731 35796 189.198
60.8479 35805 189.222
60.9648 35974 189.668
61.0818 35917 189.518
61.1987 35326 187.952
61.3158 35759 189.101
61.4328 35339 187.987
61.5499 35541 188.523
61.667 35098 187.345
61.7841 35075 187.283
61.9013 34152 184.803
62.0185 33436 182.855
62.1357 32917 181.43
62.253 32019 178.939
62.3702 32325 179.792
62.4875 33151 182.074
62.6049 33156 182.088
62.7222 34435 185.567
62.8396 35418 188.197
62.9569 36493 191.031
63.0743 36539 191.152
63.1918 35912 189.505
63.3092 34802 186.553
63.4267 34061 184.556
63.5441 33388 182.724
63.6616 32637 180.657
63.7791 32573 180.48
63.8966 33073 181.86
64.0142 33994 184.375
64.1317 34594 185.995
64.2492 34607 186.03
64.3668 34879 186.759
64.4843 35370 188.069
64.6019 35086 187.313
64.7195 35184 187.574
64.837 34814 186.585
64.9546 35080 187.297
65.0722 35043 187.198
65.1898 34956 186.965
65.3074 34590 185.984
65.4249 34323 185.265
65.5425 33552 183.172
65.6601 32580 180.499
65.7777 32389 179.969
65.8952 31879 178.547
66.0128 31889 178.575
66.1304 32560 180.444
66.2479 33064 181.835
66.3655 34454 185.618
66.483 35804 189.219
66.6005 36406 190.804
66.718 35814 189.246
66.8355 35007 187.102
66.953 34564 185.914
67.0705 33083 181.887
67.1879 32259 179.608
67.3054 31576 177.696
67.4228 31522 177.544
67.5402 31917 178.653
67.6576 32654 180.704
67.7749 33162 182.104
67.8923 33747 183.704
68.0096 34018 184.44
68.1269 34543 185.857
68.2442 34570 185.93
68.3614 34649 186.142
68.4787 34345 185.324
68.5958 34360 185.365
68.713 34561 185.906
68.8302 34303 185.211
68.9473 34163 184.832
69.0643 34385 185.432
69.1814 33533 183.12
69.2984 32966 181.565
69.4154 32103 179.173
69.5323 31861 178.496
69.6492 31799 178.323
69.7661 32506 180.294
69.8829 33549 183.164
69.9997 34257 185.086
70.1165 34679 186.223
70.2332 34809 186.572
70.3499 33717 183.622
70.4665 32061 179.056
70.5831 29648 172.186
70.6996 27079 164.557
70.8161 24654 157.016
70.9326 22092 148.634
71.049 19921 141.142
71.1653 17963 134.026
71.2817 16969 130.265
71.3979 15710 125.34
71.5141 14790 121.614
71.6303 13573 116.503
71.7464 11968 109.398
71.8624 0 1
71.9784 0 1
72.0944 0 1
72.2102 0 1
72.3261 0 1
72.4418 0 1
72.5575 0 1
72.6732 0 1
75.1054 0 1
75.2209 0 1
75.3365 0 1
75.4521 0 1
75.5678 0 1
75.6835 0 1
75.7993 0 1
75.9151 0 1
76.031 0 1
76.147 19567 139.882
76.263 22069 148.556
76.3791 23423 153.046
76.4952 24925 157.877
76.6113 26784 163.658
76.7276 28405 168.538
76.8438 30082 173.442
76.9601 30496 174.631
77.0765 30785 175.457
77.1929 31142 176.471
77.3093 31590 177.736
77.4258 31372 177.121
77.5423 31165 176.536
77.6589 31643 177.885
77.7755 31627 177.84
77.8921 31427 177.277
78.0088 31012 176.102
78.1256 30909 175.81
78.2423 30592 174.906
78.3591 30228 173.862
78.4759 29851 172.774
78.5928 29427 171.543
78.7097 30150 173.638
78.8266 30717 175.263
78.9436 31881 178.553
79.0606 32172 179.366
79.1776 33238 182.313
79.2946 33971 184.312
79.4117 34486 185.704
79.5288 33853 183.992
79.6459 33192 182.187
79.7631 32416 180.044
79.8802 31276 176.85
79.9974 30727 175.291
80.1147 31058 176.233
80.2319 31631 177.851
80.3491 32282 179.672
80.4664 33426 182.828
80.5837 34707 186.298
80.701 35945 189.592
80.8183 36779 191.779
80.9357 37628 193.979
81.053 38251 195.579
81.1704 38869 197.152
81.2877 39022 197.54
81.4051 39491 198.723
81.5225 38691 196.7
81.6399 38879 197.178
81.7573 38383 195.916
81.8747 38144 195.305
81.9922 37348 193.256
82.1096 37842 194.53
82.227 38253 195.584
82.3444 38308 195.724
82.4619 40117 200.292
82.5793 41246 203.091
82.6967 40806 202.005
82.8142 42415 205.949
82.9316 43048 207.48
83.049 43062 207.514
83.1664 42293 205.653
83.2838 41427 203.536
83.4012 39552 198.877
83.5186 39143 197.846
83.636 38057 195.082
83.7534 38015 194.974
83.8708 37307 193.15
83.9881 37181 192.824
84.1055 38520 196.265
84.2228 39070 197.661
84.3401 40670 201.668
84.4575 41580 203.912
84.5747 42777 206.826
84.692 43323 208.142
84.8093 43255 207.978
84.9265 43117 207.646
85.0437 42604 206.407
85.1609 41784 204.411
85.2781 39872 199.68
85.3952 39165 197.901
85.5123 38268 195.622
85.6294 37847 194.543
85.7465 38349 195.829
85.8636 38684 196.682
85.9806 38603 196.476
86.0976 38319 195.752
86.2145 38966 197.398
86.3315 39063 197.644
86.4484 40405 201.01
86.5652 40715 201.78
86.682 40322 200.803
86.7988 39202 197.995
86.9156 36853 191.971
87.0323 35904 189.484
87.149 35144 187.467
87.2657 34232 185.019
87.3823 34237 185.032
87.4988 34082 184.613
87.6154 33583 183.257
87.7318 33511 183.06
87.8483 32997 181.651
87.9647 31324 176.986
88.081 29695 172.322
88.1973 28092 167.607
88.3136 25792 160.599
88.4298 23114 152.033
88.546 20396 142.815
88.6621 18151 134.726
88.7781 16428 128.172
88.8942 0 1
89.0101 0 1
89.126 0 1
89.2419 0 1
89.3577 0 1
89.4734 0 1
89.5891 0 1
89.7047 0 1
89.8203 0 1
89.9358 0 1
92.3269 0 1
92.4424 0 1
92.558 0 1
92.6736 0 1
92.7893 0 1
92.905 0 1
93.0208 0 1
93.1366 0 1
93.2525 0 1
93.3685 0 1
93.4845 0 1
93.6005 18423 135.731
93.7167 21261 145.812
93.8328 24176 155.486
93.949 26607 163.117
94.0653 28412 168.559
94.1816 29598 172.041
94.2979 30210 173.81
94.4143 29780 172.569
94.5307 29919 172.971
94.6472 29984 173.159
94.7637 30379 174.296
94.8803 30352 174.218
94.9969 30229 173.865
95.1135 30508 174.665
95.2302 29793 172.606
95.3469 29584 172
95.4637 29730 172.424
95.5805 30191 173.756
95.6973 30642 175.049
95.8142 30650 175.071
95.9311 29323 171.24
96.048 28338 168.339
96.1649 27260 165.106
96.2819 26861 163.893
96.3989 25933 161.037
96.516 26652 163.254
96.633 27595 166.117
96.7501 28283 168.176
96.8673 28912 170.035
96.9844 29398 171.458
97.1016 29359 171.345
97.2188 29439 171.578
97.336 29741 172.456
97.4532 29965 173.104
97.5704 30411 174.387
97.6877 31010 176.097
97.805 30187 173.744
97.9223 30171 173.698
98.0396 29827 172.705
98.1569 29898 172.91
98.2743 29465 171.654
98.3916 29909 172.942
98.509 29692 172.314
98.6264 30566 174.831
98.7438 30801 175.502
98.8612 29843 172.751
98.9786 30099 173.491
99.096 29350 171.318
99.2134 30242 173.902
99.3308 30909 175.81
99.4482 31740 178.157
99.5656 31617 177.812
99.6831 30664 175.111
99.8005 29566 171.948
99.9179 28730 169.499
100.035 28534 168.92
100.153 29524 171.825
100.27 30554 174.797
100.388 30930 175.869
100.505 30589 174.897
100.622 30535 174.743
100.74 30358 174.235
100.857 30530 174.728
100.975 30785 175.457
101.092 30979 176.009
101.209 31201 176.638
101.327 31428 177.279
101.444 30928 175.864
101.561 30540 174.757
101.679 31139 176.462
101.796 31162 176.528
101.913 31094 176.335
102.03 31060 176.238
102.148 31715 178.087
102.265 31697 178.037
102.382 32828 181.185
102.499 32138 179.271
102.616 31487 177.446
102.733 31640 177.876
102.851 32783 181.061
102.968 33447 182.885
103.085 32697 180.823
103.202 32320 179.778
103.319 30680 175.157
103.436 30323 174.135
103.552 30661 175.103
103.669 31431 177.288
103.786 32297 179.714
103.903 32461 180.169
104.02 32519 180.33
104.137 31892 178.583
104.253 31868 178.516
104.37 32984 181.615
104.487 33135 182.03
104.603 33177 182.146
104.72 33742 183.69
104.836 33121 181.992
104.953 33166 182.115
105.069 32383 179.953
105.186 32610 180.582
105.302 32384 179.956
105.418 30544 174.768
105.535 28134 167.732
105.651 25746 160.456
105.767 22465 149.883
105.883 19752 140.542
105.999 17562 132.522
106.115 0 1
106.231 0 1
106.347 0 1
106.463 0 1
106.579 0 1
106.694 0 1
106.81 0 1
106.926 0 1
107.041 0 1
107.157 0 1
109.576 0 1
109.692 0 1
109.807 0 1
109.923 0 1
110.039 0 1
110.155 0 1
110.27 0 1
110.386 0 1
110.502 0 1
110.618 13931 118.03
110.735 17101 130.771
110.851 19873 140.972
110.967 22502 150.007
111.083 24128 155.332
111.199 26129 161.645
111.316 27466 165.729
111.432 28447 168.662
111.549 29126 170.663
111.665 27890 167.003
111.782 26136 161.666
111.898 25173 158.66
112.015 25483 159.634
112.132 26693 163.38
112.248 27551 165.985
112.365 28001 167.335
112.482 27752 166.589
112.599 28587 169.077
112.716 27649 166.28
112.832 27613 166.172
112.949 27514 165.873
113.066 27476 165.759
113.183 27705 166.448
113.3 27674 166.355
113.417 27394 165.511
113.534 27391 165.502
113.652 27543 165.961
113.769 27323 165.297
113.886 27080 164.56
114.003 27181 164.867
114.12 27282 165.173
114.238 28049 167.478
114.355 28294 168.208
114.472 27327 165.309
114.589 30516 174.688
114.707 29586 172.006
114.824 29132 170.681
114.942 28862 169.888
115.059 29028 170.376
115.176 28737 169.52
115.294 26833 163.808
115.411 25430 159.468
115.529 25906 160.953
115.646 26394 162.462
115.764 27308 165.251
115.881 27789 166.7
115.999 27606 166.151
116.116 27059 164.496
116.234 27183 164.873
116.351 26748 163.548
116.469 26660 163.279
116.586 26511 162.822
116.704 26610 163.126
116.821 26990 164.286
116.939 27489 165.798
117.056 26832 163.805
117.174 26980 164.256
117.291 26506 162.807
117.409 26764 163.597
117.526 26930 164.104
117.644 26987 164.277
117.761 27492 165.807
117.879 27983 167.281
117.996 27875 166.958
118.114 29181 170.824
118.231 29471 171.671
118.349 28816 169.753
118.466 29119 170.643
118.584 28471 168.734
118.701 27915 167.078
118.819 26322 162.241
118.936 24877 157.724
119.053 24253 155.734
119.171 24875 157.718
119.288 25795 160.608
119.405 26134 161.66
119.523 26068 161.456
119.64 26180 161.802
119.757 25722 160.381
119.875 25238 158.865
119.992 24824 157.556
120.109 24734 157.27
120.226 24477 156.451
120.343 25021 158.18
120.46 25137 158.547
120.578 25235 158.855
120.695 25007 158.136
120.812 25027 158.199
120.929 25001 158.117
121.046 24795 157.464
121.163 25069 158.332
121.279 25015 158.161
121.396 25019 158.174
121.513 25694 160.293
121.63 25951 161.093
121.747 26770 163.615
121.863 26705 163.417
121.98 26636 163.205
122.097 26642 163.224
122.213 25149 158.584
122.33 23231 152.417
122.446 19796 140.698
122.563 16661 129.077
122.679 14461 120.254
122.795 14298 119.574
122.912 14437 120.154
123.028 14190 119.122
123.144 13802 117.482
123.26 13029 114.145
123.377 0 1
123.493 0 1
123.609 0 1
123.725 0 1
123.84 0 1
123.956 0 1
124.072 0 1
124.188 0 1
124.303 0 1
124.419 0 1
126.852 0 1
126.968 0 1
127.083 0 1
127.199 0 1
127.315 0 1
127.431 0 1
127.547 0 1
127.663 0 1
127.779 0 1
127.895 0 1
128.011 0 1
128.127 0 1
128.243 0 1
128.359 24938 157.918
128.476 26340 162.296
128.592 27027 164.399
128.708 26687 163.362
128.825 26232 161.963
128.941 25942 161.065
129.058 25882 160.879
129.174 25578 159.931
129.291 25257 158.925
129.408 25413 159.415
129.524 25448 159.524
129.641 25189 158.71
129.758 25207 158.767
129.875 24996 158.101
129.992 24946 157.943
130.108 25001 158.117
130.225 24763 157.363
130.342 24778 157.41
130.459 24401 156.208
130.576 24908 157.823
130.693 24671 157.07
130.81 24379 156.138
130.928 24158 155.428
131.045 24019 154.981
131.162 23286 152.598
131.279 21985 148.273
131.396 21253 145.784
131.513 19297 138.914
131.631 18007 134.19
131.748 18647 136.554
131.865 20222 142.204
131.983 20171 142.025
132.1 20455 143.021
132.217 20458 143.031
132.335 19677 140.275
132.452 19306 138.946
132.57 18927 137.575
132.687 19138 138.34
132.804 18364 135.514
132.922 18657 136.591
133.039 18257 135.118
133.157 18409 135.68
133.274 18320 135.351
133.392 18415 135.702
133.509 18609 136.415
133.627 18416 135.706
133.744 18337 135.414
133.862 18637 136.517
133.979 18720 136.821
134.097 19024 137.928
134.214 19524 139.728
134.332 19229 138.669
134.449 19476 139.556
134.567 19278 138.845
134.684 20002 141.428
134.802 18991 137.808
134.919 18069 134.421
135.037 17142 130.927
135.154 15850 125.897
135.272 16310 127.711
135.389 18531 136.129
135.507 19949 141.241
135.624 20777 144.142
135.742 21303 145.955
135.859 21552 146.806
135.977 21577 146.891
136.094 21863 147.861
136.211 21944 148.135
136.329 22362 149.539
136.446 22694 150.645
136.564 22982 151.598
136.681 23276 152.565
136.798 23290 152.611
136.915 24043 155.058
137.033 23884 154.544
137.15 24285 155.836
137.267 24092 155.216
137.384 24152 155.409
137.502 24086 155.197
137.619 23969 154.819
137.736 24498 156.518
137.853 24087 155.2
137.97 24440 156.333
138.087 23747 154.101
138.204 24216 155.615
138.321 23778 154.201
138.438 23385 152.922
138.555 22057 148.516
138.672 20487 143.133
138.788 18912 137.521
138.905 19529 139.746
139.022 21615 147.02
139.139 23803 154.282
139.255 24922 157.867
139.372 24982 158.057
139.488 23682 153.89
139.605 21097 145.248
139.721 18174 134.811
139.838 16916 130.062
139.954 16701 129.232
140.071 16306 127.695
140.187 15623 124.992
140.303 15189 123.244
140.419 14725 121.347
140.535 14144 118.929
140.652 13740 117.218
140.768 0 1
140.884 0 1
141 0 1
141.115 0 1
141.231 0 1
141.347 0 1
141.463 0 1
141.578 0 1
141.694 0 1
144.104 0 1
144.219 0 1
144.335 0 1
144.45 0 1
144.566 0 1
144.682 0 1
144.798 0 1
144.914 0 1
145.03 0 1
145.146 19507 139.667
145.262 20268 142.366
145.378 20469 143.07
145.494 20682 143.812
145.61 20650 143.701
145.726 20744 144.028
145.842 20763 144.094
145.959 20791 144.191
146.075 20453 143.014
146.192 20369 142.72
146.308 20631 143.635
146.425 20305 142.496
146.541 20319 142.545
146.658 20150 141.951
146.774 20191 142.095
146.891 19994 141.4
147.008 20184 142.07
147.125 19518 139.707
147.241 18910 137.514
147.358 18527 136.114
147.475 16902 130.008
147.592 16456 128.281
147.709 16040 126.649
147.826 17287 131.48
147.943 18403 135.658
148.06 19217 138.625
148.177 19640 140.143
148.294 19851 140.894
148.411 19972 141.322
148.528 20252 142.31
148.645 20049 141.594
148.762 20682 143.812
148.88 20437 142.958
148.997 20830 144.326
149.114 19897 141.057
149.231 20424 142.913
149.349 20327 142.573
149.466 20144 141.93
149.583 20015 141.474
149.701 19919 141.135
149.818 19778 140.634
149.935 19864 140.94
150.053 19849 140.886
150.17 19829 140.815
150.287 19842 140.862
150.405 20110 141.81
150.522 19689 140.317
150.64 19690 140.321
150.757 19113 138.25
150.875 18791 137.08
150.992 17953 133.989
151.11 17271 131.419
151.227 16081 126.811
151.344 15952 126.301
151.462 16633 128.969
151.579 17828 133.522
151.697 18531 136.129
151.814 19383 139.223
151.932 19423 139.366
152.049 19563 139.868
152.167 19440 139.427
152.284 19474 139.549
152.402 19633 140.118
152.519 19318 138.989
152.636 19691 140.325
152.754 19521 139.718
152.871 19288 138.881
152.989 19137 138.337
153.106 19210 138.6
153.223 19206 138.586
153.341 19094 138.181
153.458 18821 137.19
153.575 18907 137.503
153.693 19096 138.188
153.81 19251 138.748
153.927 18944 137.637
154.044 19208 138.593
154.162 19217 138.625
154.279 18882 137.412
154.396 18839 137.255
154.513 18709 136.781
154.63 18440 135.794
154.747 17983 134.101
154.864 17303 131.541
154.981 16891 129.965
155.098 17424 132
155.215 18348 135.455
155.332 18573 136.283
155.449 19365 139.158
155.566 19098 138.196
155.683 18974 137.746
155.8 19029 137.946
155.917 18518 136.081
156.033 18700 136.748
156.15 0 1
156.267 0 1
156.383 0 1
156.5 0 1
156.617 0 1
156.733 0 1
156.85 0 1
156.966 0 1
157.082 0 1
157.199 0 1
157.315 0 1
157.431 0 1
157.547 0 1
157.664 0 1
157.78 0 1
157.896 0 1
158.012 0 1
158.128 0 1
158.244 0 1
158.359 0 1
158.475 0 1
158.591 0 1
158.706 0 1
