
6.15755 0 1
6.2731 0 1
6.3887 0 1
6.50437 0 1
6.62009 0 1
6.73587 0 1
6.8517 0 1
6.96759 0 1
7.08353 0 1
7.19952 0 1
7.31557 0 1
7.43166 0 1
7.54781 0 1
7.664 0 1
7.78024 0 1
7.89653 0 1
8.01286 0 1
8.12924 0 1
8.24567 0 1
8.36213 0 1
8.47864 0 1
8.59519 0 1
8.71178 0 1
8.82841 0 1
8.94508 0 1
9.06179 0 1
9.17853 0 1
9.29531 0 1
9.41212 0 1
9.52897 0 1
9.64584 0 1
9.76276 0 1
9.8797 0 1
9.99667 0 1
10.1137 0 1
10.2307 0 1
10.3478 0 1
10.4648 0 1
10.5819 0 1
10.6991 0 1
10.8162 0 1
10.9334 0 1
11.0506 0 1
11.1678 0 1
11.285 0 1
11.4023 0 1
11.5196 0 1
11.6369 0 1
11.7542 0 1
11.8715 0 1
11.9888 0 1
12.1062 0 1
12.2235 0 1
12.3409 0 1
12.4582 0 1
12.5756 0 1
12.693 0 1
12.8104 0 1
12.9278 0 1
13.0452 0 1
13.1626 0 1
13.28 0 1
13.3974 0 1
13.5149 0 1
13.6323 0 1
13.7497 0 1
13.8671 0 1
13.9845 0 1
14.1019 0 1
14.2193 0 1
14.3367 0 1
14.4541 0 1
14.5714 0 1
14.6888 0 1
14.8062 0 1
14.9235 0 1
15.0408 1435 37.8814
15.1581 1504 38.7814
15.2755 1678 40.9634
15.3927 1582 39.7744
15.51 1557 39.4588
15.6273 1587 39.8372
15.7445 1656 40.694
15.8617 1622 40.2741
15.9789 1623 40.2865
16.0961 1551 39.3827
16.2132 1597 39.9625
16.3304 1590 39.8748
16.4475 1687 41.0731
16.5646 1714 41.4005
16.6816 1815 42.6028
16.7986 1811 42.5558
16.9156 1830 42.7785
17.0326 1926 43.8862
17.1496 1939 44.0341
17.2665 1873 43.2782
17.3833 1834 42.8252
17.5002 1730 41.5933
17.617 1774 42.1189
17.7338 1740 41.7133
17.8505 1642 40.5216
17.9672 1704 41.2795
18.0839 1666 40.8167
18.2005 1633 40.4104
18.3171 1715 41.4126
18.4337 1735 41.6533
18.5502 1736 41.6653
18.6666 1758 41.9285
18.7831 1865 43.1856
18.8994 1827 42.7434
19.0158 1833 42.8135
19.1321 1819 42.6497
19.2483 1701 41.2432
19.3645 1581 39.7618
19.4806 1621 40.2616
19.5967 1462 38.2361
19.7128 1341 36.6197
19.8288 1229 35.0571
19.9447 1250 35.3553
20.0606 0 1
20.1764 0 1
20.2922 0 1
20.4079 0 1
20.5236 0 1
20.6392 0 1
20.7548 0 1
20.8702 0 1
23.3078 0 1
23.4233 0 1
23.539 0 1
23.6547 0 1
23.7704 0 1
23.8862 0 1
24.0021 0 1
24.118 0 1
24.234 0 1
24.35 0 1
24.4661 763 27.6225
24.5822 840 28.9828
24.6984 1044 32.311
24.8146 1104 33.2265
24.9309 1245 35.2846
25.0472 1414 37.6032
25.1636 1470 38.3406
25.28 1604 40.05
25.3965 1677 40.9512
25.513 1828 42.7551
25.6296 1848 42.9884
25.7462 1953 44.1928
25.8628 1973 44.4185
25.9795 2029 45.0444
26.0962 2012 44.8553
26.213 1962 44.2945
26.3298 1772 42.0951
26.4466 1718 41.4488
26.5635 1709 41.3401
26.6804 1734 41.6413
26.7973 1779 42.1782
26.9143 1822 42.6849
27.0313 1811 42.5558
27.1483 1821 42.6732
27.2653 1889 43.4626
27.3824 1914 43.7493
27.4996 1900 43.589
27.6167 1953 44.1928
27.7339 1827 42.7434
27.8511 1746 41.7852
27.9683 1815 42.6028
28.0855 1746 41.7852
28.2028 1590 39.8748
28.3201 1670 40.8656
28.4374 1578 39.724
28.5547 1564 39.5474
28.6721 1687 41.0731
28.7894 1777 42.1545
28.9068 1817 42.6263
29.0242 1876 43.3128
29.1416 1922 43.8406
29.259 1994 44.6542
29.3764 1955 44.2154
29.4939 1876 43.3128
29.6113 1894 43.5201
29.7288 1772 42.0951
29.8463 1733 41.6293
29.9638 1666 40.8167
30.0812 1631 40.3856
30.1987 1592 39.8999
30.3162 1678 40.9634
30.4337 1766 42.0238
30.5512 1728 41.5692
30.6687 1725 41.5331
30.7862 1888 43.4511
30.9037 1825 42.72
31.0212 1895 43.5316
31.1387 1733 41.6293
31.2562 1767 42.0357
31.3737 1764 42
31.4912 1780 42.19
31.6087 1660 40.7431
31.7262 1701 41.2432
31.8436 1579 39.7366
31.9611 1543 39.281
32.0785 1563 39.5348
32.1959 1586 39.8246
32.3134 1681 41
32.4308 1737 41.6773
32.5482 1848 42.9884
32.6655 1953 44.1928
32.7829 1830 42.7785
32.9002 1835 42.8369
33.0176 1846 42.9651
33.1349 1893 43.5086
33.2522 1788 42.2847
33.3694 1772 42.0951
33.4867 1736 41.6653
33.6039 1630 40.3733
33.7211 1533 39.1535
33.8383 1459 38.1969
33.9554 1603 40.0375
34.0725 1629 40.3609
34.1896 1669 40.8534
34.3067 1742 41.7373
34.4237 1761 41.9643
34.5407 1731 41.6053
34.6577 1757 41.9166
34.7746 1761 41.9643
34.8915 1811 42.5558
35.0084 1780 42.19
35.1252 1729 41.5812
35.242 1616 40.1995
35.3587 1725 41.5331
35.4755 1595 39.9375
35.5921 1573 39.6611
35.7088 1483 38.5097
35.8254 1519 38.9744
35.9419 1574 39.6737
36.0584 1602 40.025
36.1749 1638 40.4722
36.2913 1661 40.7554
36.4077 1624 40.2989
36.524 1588 39.8497
36.6403 1549 39.3573
36.7565 1517 38.9487
36.8727 1381 37.1618
36.9889 1336 36.5513
37.1049 1231 35.0856
37.221 0 1
37.3369 0 1
37.4529 0 1
37.5687 0 1
37.6845 0 1
37.8003 0 1
37.916 0 1
38.0316 0 1
38.1472 0 1
40.5851 0 1
40.7008 0 1
40.8164 0 1
40.9322 0 1
41.048 0 1
41.1639 0 1
41.2798 0 1
41.3958 0 1
41.5118 0 1
41.6279 0 1
41.744 856 29.2575
41.8602 960 30.9839
41.9765 1079 32.8481
42.0928 1030 32.0936
42.2091 962 31.0161
42.3255 1029 32.078
42.4419 1045 32.3265
42.5584 1012 31.8119
42.675 1177 34.3074
42.7915 1232 35.0999
42.9081 1335 36.5377
43.0248 1379 37.1349
43.1415 1423 37.7227
43.2582 1464 38.2623
43.375 1464 38.2623
43.4918 1398 37.3898
43.6087 1460 38.2099
43.7256 1455 38.1445
43.8425 1477 38.4318
43.9595 1362 36.9053
44.0765 1360 36.8782
44.1935 1318 36.3043
44.3106 1315 36.2629
44.4277 1180 34.3511
44.5448 1211 34.7994
44.6619 1262 35.5246
44.7791 1357 36.8375
44.8963 1425 37.7492
45.0136 1422 37.7094
45.1308 1496 38.6782
45.2481 1444 38
45.3654 1501 38.7427
45.4827 1463 38.2492
45.6001 1520 38.9872
45.7174 1449 38.0657
45.8348 1361 36.8917
45.9522 1229 35.0571
46.0697 1269 35.623
46.1871 1179 34.3366
46.3046 1244 35.2704
46.422 1300 36.0555
46.5395 1433 37.855
46.657 1360 36.8782
46.7745 1411 37.5633
46.892 1354 36.7967
47.0096 1483 38.5097
47.1271 1579 39.7366
47.2446 1462 38.2361
47.3622 1468 38.3145
47.4797 1506 38.8072
47.5973 1310 36.1939
47.7149 1386 37.229
47.8324 1357 36.8375
47.95 1333 36.5103
48.0675 1228 35.0428
48.1851 1214 34.8425
48.3027 1273 35.6791
48.4202 1346 36.6879
48.5378 1470 38.3406
48.6554 1550 39.37
48.7729 1537 39.2046
48.8904 1526 39.064
49.008 1494 38.6523
49.1255 1512 38.8844
49.243 1429 37.8021
49.3605 1360 36.8782
49.478 1267 35.5949
49.5955 1129 33.6006
49.713 1180 34.3511
49.8304 1237 35.171
49.9479 1230 35.0714
50.0653 1326 36.4143
50.1827 1411 37.5633
50.3001 1455 38.1445
50.4175 1483 38.5097
50.5348 1547 39.3319
50.6521 1485 38.5357
50.7694 1447 38.0395
50.8867 1529 39.1024
51.004 1541 39.2556
51.1212 1508 38.833
51.2384 1513 38.8973
51.3556 1426 37.7624
51.4727 1375 37.081
51.5899 1311 36.2077
51.707 1395 37.3497
51.824 1393 37.3229
51.9411 1591 39.8873
52.0581 1700 41.2311
52.175 1771 42.0833
52.2919 1772 42.0951
52.4088 1844 42.9418
52.5257 1938 44.0227
52.6425 1907 43.6692
52.7593 1864 43.1741
52.876 1841 42.9069
52.9927 1788 42.2847
53.1094 1703 41.2674
53.226 1598 39.975
53.3426 1569 39.6106
53.4591 1520 38.9872
53.5756 1501 38.7427
53.692 1518 38.9615
53.8084 1533 39.1535
53.9248 1476 38.4187
54.0411 1452 38.1051
54.1573 1360 36.8782
54.2735 0 1
54.3896 0 1
54.5057 0 1
54.6217 0 1
54.7377 0 1
54.8537 0 1
54.9695 0 1
55.0853 0 1
55.2011 0 1
55.3168 0 1
55.4324 0 1
57.824 0 1
57.9396 0 1
58.0553 0 1
58.1711 0 1
58.2869 0 1
58.4028 0 1
58.5187 0 1
58.6347 0 1
58.7508 0 1
58.8669 0 1
58.983 1158 34.0294
59.0992 1280 35.7771
59.2155 1434 37.8682
59.3318 1521 39
59.4482 1550 39.37
59.5646 1701 41.2432
59.681 1699 41.2189
59.7975 1773 42.107
59.9141 1681 41
60.0306 1734 41.6413
60.1473 1628 40.3485
60.2639 1635 40.4351
60.3807 1612 40.1497
60.4974 1567 39.5854
60.6142 1639 40.4846
60.731 1767 42.0357
60.8479 1783 42.2256
60.9648 1906 43.6578
61.0818 1983 44.5309
61.1987 1897 43.5546
61.3158 1839 42.8836
61.4328 1858 43.1045
61.5499 1739 41.7013
61.667 1547 39.3319
61.7841 1520 38.9872
61.9013 1401 37.4299
62.0185 1432 37.8418
62.1357 1532 39.1408
62.253 1629 40.3609
62.3702 1797 42.391
62.4875 1696 41.1825
62.6049 1769 42.0595
62.7222 1864 43.1741
62.8396 1821 42.6732
62.9569 1846 42.9651
63.0743 1835 42.8369
63.1918 1815 42.6028
63.3092 1802 42.45
63.4267 1720 41.4729
63.5441 1658 40.7185
63.6616 1599 39.9875
63.7791 1504 38.7814
63.8966 1469 38.3275
64.0142 1525 39.0512
64.1317 1522 39.0128
64.2492 1731 41.6053
64.3668 1774 42.1189
64.4843 1878 43.3359
64.6019 1789 42.2966
64.7195 1909 43.6921
64.837 1870 43.2435
64.9546 1822 42.6849
65.0722 1695 41.1704
65.1898 1603 40.0375
65.3074 1480 38.4708
65.4249 1407 37.51
65.5425 1359 36.8646
65.6601 1357 36.8375
65.7777 1506 38.8072
65.8952 1633 40.4104
66.0128 1652 40.6448
66.1304 1780 42.19
66.2479 1787 42.2729
66.3655 1817 42.6263
66.483 1827 42.7434
66.6005 1743 41.7493
66.718 1753 41.8688
66.8355 1746 41.7852
66.953 1676 40.939
67.0705 1687 41.0731
67.1879 1611 40.1373
67.3054 1553 39.4081
67.4228 1497 38.6911
67.5402 1465 38.2753
67.6576 1443 37.9868
67.7749 1487 38.5616
67.8923 1622 40.2741
68.0096 1641 40.5093
68.1269 1692 41.1339
68.2442 1796 42.3792
68.3614 1761 41.9643
68.4787 1759 41.9404
68.5958 1794 42.3556
68.713 1805 42.4853
68.8302 1568 39.598
68.9473 1431 37.8286
69.0643 1289 35.9026
69.1814 1261 35.5106
69.2984 1307 36.1525
69.4154 1384 37.2022
69.5323 1463 38.2492
69.6492 1562 39.5221
69.7661 1643 40.5339
69.8829 1625 40.3113
69.9997 1650 40.6202
70.1165 1581 39.7618
70.2332 1624 40.2989
70.3499 1500 38.7298
70.4665 1420 37.6829
70.5831 1383 37.1887
70.6996 1364 36.9324
70.8161 1231 35.0856
70.9326 1123 33.5112
71.049 922 30.3645
71.1653 822 28.6705
71.2817 815 28.5482
71.3979 725 26.9258
71.5141 687 26.2107
71.6303 737 27.1477
71.7464 616 24.8193
71.8624 0 1
71.9784 0 1
72.0944 0 1
72.2102 0 1
72.3261 0 1
72.4418 0 1
72.5575 0 1
72.6732 0 1
75.1054 0 1
75.2209 0 1
75.3365 0 1
75.4521 0 1
75.5678 0 1
75.6835 0 1
75.7993 0 1
75.9151 0 1
76.031 0 1
76.147 1023 31.9844
76.263 1092 33.0454
76.3791 1089 33
76.4952 1082 32.8938
76.6113 1132 33.6452
76.7276 1200 34.641
76.8438 1331 36.4829
76.9601 1498 38.704
77.0765 1523 39.0256
77.1929 1564 39.5474
77.3093 1574 39.6737
77.4258 1530 39.1152
77.5423 1486 38.5487
77.6589 1455 38.1445
77.7755 1300 36.0555
77.8921 1216 34.8712
78.0088 1166 34.1467
78.1256 1058 32.5269
78.2423 1086 32.9545
78.3591 1164 34.1174
78.4759 1239 35.1994
78.5928 1343 36.647
78.7097 1360 36.8782
78.8266 1460 38.2099
78.9436 1499 38.7169
79.0606 1486 38.5487
79.1776 1458 38.1838
79.2946 1543 39.281
79.4117 1486 38.5487
79.5288 1507 38.8201
79.6459 1508 38.833
79.7631 1460 38.2099
79.8802 1403 37.4566
79.9974 1333 36.5103
80.1147 1211 34.7994
80.2319 1238 35.1852
80.3491 1331 36.4829
80.4664 1400 37.4166
80.5837 1464 38.2623
80.701 1527 39.0768
80.8183 1613 40.1622
80.9357 1570 39.6232
81.053 1540 39.2428
81.1704 1566 39.5727
81.2877 1601 40.0125
81.4051 1442 37.9737
81.5225 1253 35.3977
81.6399 1256 35.4401
81.7573 1164 34.1174
81.8747 1105 33.2415
81.9922 1112 33.3467
82.1096 1226 35.0143
82.227 1350 36.7423
82.3444 1431 37.8286
82.4619 1504 38.7814
82.5793 1485 38.5357
82.6967 1510 38.8587
82.8142 1559 39.4842
82.9316 1630 40.3733
83.049 1573 39.6611
83.1664 1579 39.7366
83.2838 1527 39.0768
83.4012 1541 39.2556
83.5186 1497 38.6911
83.636 1413 37.5899
83.7534 1283 35.819
83.8708 1313 36.2353
83.9881 1281 35.7911
84.1055 1326 36.4143
84.2228 1377 37.108
84.3401 1574 39.6737
84.4575 1595 39.9375
84.5747 1631 40.3856
84.692 1620 40.2492
84.8093 1643 40.5339
84.9265 1631 40.3856
85.0437 1522 39.0128
85.1609 1393 37.3229
85.2781 1218 34.8999
85.3952 1193 34.5398
85.5123 1105 33.2415
85.6294 1151 33.9264
85.7465 1255 35.426
85.8636 1369 37
85.9806 1420 37.6829
86.0976 1491 38.6135
86.2145 1525 39.0512
86.3315 1603 40.0375
86.4484 1574 39.6737
86.5652 1623 40.2865
86.682 1638 40.4722
86.7988 1597 39.9625
86.9156 1554 39.4208
87.0323 1583 39.7869
87.149 1509 38.8458
87.2657 1385 37.2156
87.3823 1282 35.805
87.4988 1168 34.176
87.6154 1065 32.6343
87.7318 1085 32.9393
87.8483 1204 34.6987
87.9647 1302 36.0832
88.081 1222 34.9571
88.1973 1240 35.2136
88.3136 1252 35.3836
88.4298 1127 33.5708
88.546 1059 32.5423
88.6621 949 30.8058
88.7781 746 27.313
88.8942 0 1
89.0101 0 1
89.126 0 1
89.2419 0 1
89.3577 0 1
89.4734 0 1
89.5891 0 1
89.7047 0 1
89.8203 0 1
89.9358 0 1
92.3269 0 1
92.4424 0 1
92.558 0 1
92.6736 0 1
92.7893 0 1
92.905 0 1
93.0208 0 1
93.1366 0 1
93.2525 0 1
93.3685 0 1
93.4845 0 1
93.6005 1278 35.7491
93.7167 1309 36.1801
93.8328 1344 36.6606
93.949 1380 37.1484
94.0653 1411 37.5633
94.1816 1382 37.1753
94.2979 1284 35.8329
94.4143 1217 34.8855
94.5307 1193 34.5398
94.6472 1111 33.3317
94.7637 1194 34.5543
94.8803 1356 36.8239
94.9969 1423 37.7227
95.1135 1466 38.2884
95.2302 1533 39.1535
95.3469 1572 39.6485
95.4637 1640 40.4969
95.5805 1711 41.3642
95.6973 1651 40.6325
95.8142 1584 39.7995
95.9311 1673 40.9023
96.048 1656 40.694
96.1649 1580 39.7492
96.2819 1527 39.0768
96.3989 1570 39.6232
96.516 1413 37.5899
96.633 1345 36.6742
96.7501 1297 36.0139
96.8673 1318 36.3043
96.9844 1416 37.6298
97.1016 1491 38.6135
97.2188 1565 39.5601
97.336 1621 40.2616
97.4532 1745 41.7732
97.5704 1609 40.1123
97.6877 1630 40.3733
97.805 1622 40.2741
97.9223 1462 38.2361
98.0396 1380 37.1484
98.1569 1285 35.8469
98.2743 1173 34.2491
98.3916 1156 34
98.509 1188 34.4674
98.6264 1443 37.9868
98.7438 1453 38.1182
98.8612 1527 39.0768
98.9786 1643 40.5339
99.096 1706 41.3038
99.2134 1690 41.1096
99.3308 1728 41.5692
99.4482 1719 41.4608
99.5656 1701 41.2432
99.6831 1685 41.0488
99.8005 1669 40.8534
99.9179 1649 40.6079
100.035 1577 39.7115
100.153 1495 38.6652
100.27 1395 37.3497
100.388 1432 37.8418
100.505 1489 38.5876
100.622 1622 40.2741
100.74 1696 41.1825
100.857 1746 41.7852
100.975 1704 41.2795
101.092 1684 41.0366
101.209 1739 41.7013
101.327 1666 40.8167
101.444 1688 41.0853
101.561 1417 37.6431
101.679 1388 37.2559
101.796 1264 35.5528
101.913 1259 35.4824
102.03 1292 35.9444
102.148 1399 37.4032
102.265 1485 38.5357
102.382 1617 40.2119
102.499 1636 40.4475
102.616 1746 41.7852
102.733 1741 41.7253
102.851 1744 41.7612
102.968 1885 43.4166
103.085 1767 42.0357
103.202 1717 41.4367
103.319 1781 42.2019
103.436 1721 41.4849
103.552 1665 40.8044
103.669 1641 40.5093
103.786 1522 39.0128
103.903 1450 38.0789
104.02 1533 39.1535
104.137 1619 40.2368
104.253 1690 41.1096
104.37 1896 43.5431
104.487 1854 43.0581
104.603 1906 43.6578
104.72 1869 43.2319
104.836 1769 42.0595
104.953 1597 39.9625
105.069 1437 37.9078
105.186 1322 36.3593
105.302 1144 33.8231
105.418 1077 32.8177
105.535 1109 33.3017
105.651 1124 33.5261
105.767 1149 33.8969
105.883 1172 34.2345
105.999 1156 34
106.115 0 1
106.231 0 1
106.347 0 1
106.463 0 1
106.579 0 1
106.694 0 1
106.81 0 1
106.926 0 1
107.041 0 1
107.157 0 1
109.576 0 1
109.692 0 1
109.807 0 1
109.923 0 1
110.039 0 1
110.155 0 1
110.27 0 1
110.386 0 1
110.502 0 1
110.618 822 28.6705
110.735 1024 32
110.851 1219 34.9142
110.967 1305 36.1248
111.083 1414 37.6032
111.199 1561 39.5095
111.316 1593 39.9124
111.432 1715 41.4126
111.549 1603 40.0375
111.665 1701 41.2432
111.782 1676 40.939
111.898 1701 41.2432
112.015 1637 40.4599
112.132 1569 39.6106
112.248 1404 37.47
112.365 1477 38.4318
112.482 1391 37.2961
112.599 1586 39.8246
112.716 1633 40.4104
112.832 1675 40.9268
112.949 1689 41.0974
113.066 1675 40.9268
113.183 1684 41.0366
113.3 1731 41.6053
113.417 1656 40.694
113.534 1536 39.1918
113.652 1411 37.5633
113.769 1331 36.4829
113.886 1271 35.6511
114.003 1206 34.7275
114.12 1265 35.5668
114.238 1407 37.51
114.355 1489 38.5876
114.472 1529 39.1024
114.589 1700 41.2311
114.707 1749 41.821
114.824 1712 41.3763
114.942 1720 41.4729
115.059 1718 41.4488
115.176 1800 42.4264
115.294 1695 41.1704
115.411 1692 41.1339
115.529 1630 40.3733
115.646 1567 39.5854
115.764 1610 40.1248
115.881 1439 37.9342
115.999 1491 38.6135
116.116 1504 38.7814
116.234 1519 38.9744
116.351 1698 41.2068
116.469 1620 40.2492
116.586 1783 42.2256
116.704 1726 41.5452
116.821 1717 41.4367
116.939 1729 41.5812
117.056 1670 40.8656
117.174 1500 38.7298
117.291 1361 36.8917
117.409 1299 36.0416
117.526 1262 35.5246
117.644 1200 34.641
117.761 1332 36.4966
117.879 1466 38.2884
117.996 1568 39.598
118.114 1540 39.2428
118.231 1644 40.5463
118.349 1598 39.975
118.466 1623 40.2865
118.584 1678 40.9634
118.701 1661 40.7554
118.819 1700 41.2311
118.936 1686 41.0609
119.053 1586 39.8246
119.171 1633 40.4104
119.288 1567 39.5854
119.405 1434 37.8682
119.523 1434 37.8682
119.64 1395 37.3497
119.757 1435 37.8814
119.875 1451 38.092
119.992 1557 39.4588
120.109 1658 40.7185
120.226 1651 40.6325
120.343 1573 39.6611
120.46 1663 40.7799
120.578 1690 41.1096
120.695 1526 39.064
120.812 1495 38.6652
120.929 1342 36.6333
121.046 1178 34.322
121.163 1109 33.3017
121.279 1120 33.4664
121.396 1183 34.3948
121.513 1174 34.2637
121.63 1258 35.4683
121.747 1314 36.2491
121.863 1278 35.7491
121.98 1253 35.3977
122.097 1271 35.6511
122.213 1343 36.647
122.33 1271 35.6511
122.446 1224 34.9857
122.563 1154 33.9706
122.679 1113 33.3617
122.795 996 31.5595
122.912 907 30.1164
123.028 879 29.6479
123.144 775 27.8388
123.26 676 26
123.377 0 1
123.493 0 1
123.609 0 1
123.725 0 1
123.84 0 1
123.956 0 1
124.072 0 1
124.188 0 1
124.303 0 1
124.419 0 1
126.852 0 1
126.968 0 1
127.083 0 1
127.199 0 1
127.315 0 1
127.431 0 1
127.547 0 1
127.663 0 1
127.779 0 1
127.895 0 1
128.011 0 1
128.127 0 1
128.243 0 1
128.359 1529 39.1024
128.476 1497 38.6911
128.592 1463 38.2492
128.708 1549 39.3573
128.825 1486 38.5487
128.941 1542 39.2683
129.058 1641 40.5093
129.174 1773 42.107
129.291 1791 42.3202
129.408 1764 42
129.524 1748 41.8091
129.641 1755 41.8927
129.758 1624 40.2989
129.875 1545 39.3065
129.992 1465 38.2753
130.108 1333 36.5103
130.225 1265 35.5668
130.342 1268 35.609
130.459 1389 37.2693
130.576 1489 38.5876
130.693 1480 38.4708
130.81 1609 40.1123
130.928 1631 40.3856
131.045 1635 40.4351
131.162 1703 41.2674
131.279 1724 41.5211
131.396 1666 40.8167
131.513 1680 40.9878
131.631 1696 41.1825
131.748 1676 40.939
131.865 1683 41.0244
131.983 1553 39.4081
132.1 1516 38.9358
132.217 1574 39.6737
132.335 1608 40.0999
132.452 1580 39.7492
132.57 1652 40.6448
132.687 1723 41.509
132.804 1818 42.638
132.922 1807 42.5088
133.039 1782 42.2137
133.157 1828 42.7551
133.274 1784 42.2374
133.392 1698 41.2068
133.509 1600 40
133.627 1418 37.6563
133.744 1396 37.3631
133.862 1231 35.0856
133.979 1368 36.9865
134.097 1512 38.8844
134.214 1590 39.8748
134.332 1607 40.0874
134.449 1619 40.2368
134.567 1637 40.4599
134.684 1712 41.3763
134.802 1773 42.107
134.919 1778 42.1663
135.037 1829 42.7668
135.154 1748 41.8091
135.272 1658 40.7185
135.389 1718 41.4488
135.507 1610 40.1248
135.624 1605 40.0625
135.742 1590 39.8748
135.859 1506 38.8072
135.977 1623 40.2865
136.094 1651 40.6325
136.211 1712 41.3763
136.329 1799 42.4146
136.446 1753 41.8688
136.564 1785 42.2493
136.681 1821 42.6732
136.798 1748 41.8091
136.915 1668 40.8412
137.033 1661 40.7554
137.15 1521 39
137.267 1439 37.9342
137.384 1372 37.0405
137.502 1349 36.7287
137.619 1266 35.5809
137.736 1409 37.5366
137.853 1455 38.1445
137.97 1571 39.6358
138.087 1628 40.3485
138.204 1690 41.1096
138.321 1699 41.2189
138.438 1677 40.9512
138.555 1848 42.9884
138.672 1689 41.0974
138.788 1715 41.4126
138.905 1604 40.05
139.022 1529 39.1024
139.139 1435 37.8814
139.255 1348 36.7151
139.372 1209 34.7707
139.488 1242 35.242
139.605 1229 35.0571
139.721 1121 33.4813
139.838 1188 34.4674
139.954 1125 33.541
140.071 1183 34.3948
140.187 1063 32.6037
140.303 1013 31.8277
140.419 926 30.4302
140.535 886 29.7658
140.652 795 28.1957
140.768 0 1
140.884 0 1
141 0 1
141.115 0 1
141.231 0 1
141.347 0 1
141.463 0 1
141.578 0 1
141.694 0 1
144.104 0 1
144.219 0 1
144.335 0 1
144.45 0 1
144.566 0 1
144.682 0 1
144.798 0 1
144.914 0 1
145.03 0 1
145.146 1192 34.5254
145.262 1378 37.1214
145.378 1411 37.5633
145.494 1403 37.4566
145.61 1395 37.3497
145.726 1363 36.9188
145.842 1306 36.1386
145.959 1125 33.541
146.075 1140 33.7639
146.192 1085 32.9393
146.308 1031 32.1092
146.425 1133 33.6601
146.541 1206 34.7275
146.658 1278 35.7491
146.774 1282 35.805
146.891 1315 36.2629
147.008 1272 35.6651
147.125 1293 35.9583
147.241 1416 37.6298
147.358 1348 36.7151
147.475 1383 37.1887
147.592 1399 37.4032
147.709 1373 37.054
147.826 1248 35.327
147.943 1239 35.1994
148.06 1180 34.3511
148.177 1192 34.5254
148.294 1200 34.641
148.411 1275 35.7071
148.528 1273 35.6791
148.645 1334 36.524
148.762 1389 37.2693
148.88 1359 36.8646
148.997 1432 37.8418
149.114 1343 36.647
149.231 1379 37.1349
149.349 1349 36.7287
149.466 1356 36.8239
149.583 1236 35.1568
149.701 1205 34.7131
149.818 1158 34.0294
149.935 1154 33.9706
150.053 1108 33.2866
150.17 1208 34.7563
150.287 1107 33.2716
150.405 1200 34.641
150.522 1223 34.9714
150.64 1230 35.0714
150.757 1299 36.0416
150.875 1261 35.5106
150.992 1265 35.5668
151.11 1372 37.0405
151.227 1273 35.6791
151.344 1318 36.3043
151.462 1242 35.242
151.579 1240 35.2136
151.697 1227 35.0286
151.814 1141 33.7787
151.932 1167 34.1614
152.049 1175 34.2783
152.167 1188 34.4674
152.284 1282 35.805
152.402 1295 35.9861
152.519 1335 36.5377
152.636 1338 36.5787
152.754 1321 36.3456
152.871 1272 35.6651
152.989 1244 35.2704
153.106 1177 34.3074
153.223 1157 34.0147
153.341 1076 32.8024
153.458 1072 32.7414
153.575 1025 32.0156
153.693 1005 31.7017
153.81 1080 32.8634
153.927 1155 33.9853
154.044 1144 33.8231
154.162 1158 34.0294
154.279 1178 34.322
154.396 1247 35.3129
154.513 1236 35.1568
154.63 1217 34.8855
154.747 1252 35.3836
154.864 1186 34.4384
154.981 1176 34.2929
155.098 1155 33.9853
155.215 1131 33.6303
155.332 1151 33.9264
155.449 1097 33.121
155.566 1104 33.2265
155.683 1183 34.3948
155.8 1060 32.5576
155.917 1164 34.1174
156.033 1068 32.6803
156.15 0 1
156.267 0 1
156.383 0 1
156.5 0 1
156.617 0 1
156.733 0 1
156.85 0 1
156.966 0 1
157.082 0 1
157.199 0 1
157.315 0 1
157.431 0 1
157.547 0 1
157.664 0 1
157.78 0 1
157.896 0 1
158.012 0 1
158.128 0 1
158.244 0 1
158.359 0 1
158.475 0 1
158.591 0 1
158.706 0 1
