
6.15755 0 1
6.2731 0 1
6.3887 0 1
6.50437 0 1
6.62009 0 1
6.73587 0 1
6.8517 0 1
6.96759 0 1
7.08353 0 1
7.19952 0 1
7.31557 0 1
7.43166 0 1
7.54781 0 1
7.664 0 1
7.78024 0 1
7.89653 0 1
8.01286 0 1
8.12924 0 1
8.24567 0 1
8.36213 0 1
8.47864 0 1
8.59519 0 1
8.71178 0 1
8.82841 0 1
8.94508 0 1
9.06179 0 1
9.17853 0 1
9.29531 0 1
9.41212 0 1
9.52897 0 1
9.64584 0 1
9.76276 0 1
9.8797 0 1
9.99667 0 1
10.1137 0 1
10.2307 0 1
10.3478 0 1
10.4648 0 1
10.5819 0 1
10.6991 0 1
10.8162 0 1
10.9334 0 1
11.0506 0 1
11.1678 0 1
11.285 0 1
11.4023 0 1
11.5196 0 1
11.6369 0 1
11.7542 0 1
11.8715 0 1
11.9888 0 1
12.1062 0 1
12.2235 0 1
12.3409 0 1
12.4582 0 1
12.5756 0 1
12.693 0 1
12.8104 0 1
12.9278 0 1
13.0452 0 1
13.1626 0 1
13.28 0 1
13.3974 0 1
13.5149 0 1
13.6323 0 1
13.7497 0 1
13.8671 0 1
13.9845 0 1
14.1019 0 1
14.2193 0 1
14.3367 0 1
14.4541 0 1
14.5714 0 1
14.6888 0 1
14.8062 0 1
14.9235 0 1
15.0408 1014 31.8434
15.1581 1046 32.3419
15.2755 1032 32.1248
15.3927 1073 32.7567
15.51 1038 32.218
15.6273 1030 32.0936
15.7445 982 31.3369
15.8617 934 30.5614
15.9789 926 30.4302
16.0961 842 29.0172
16.2132 969 31.1288
16.3304 869 29.4788
16.4475 857 29.2746
16.5646 868 29.4618
16.6816 859 29.3087
16.7986 826 28.7402
16.9156 861 29.3428
17.0326 850 29.1548
17.1496 811 28.4781
17.2665 884 29.7321
17.3833 798 28.2489
17.5002 797 28.2312
17.617 790 28.1069
17.7338 852 29.189
17.8505 844 29.0517
17.9672 807 28.4077
18.0839 874 29.5635
18.2005 806 28.3901
18.3171 806 28.3901
18.4337 857 29.2746
18.5502 837 28.931
18.6666 878 29.6311
18.7831 820 28.6356
18.8994 790 28.1069
19.0158 781 27.9464
19.1321 720 26.8328
19.2483 683 26.1343
19.3645 688 26.2298
19.4806 638 25.2587
19.5967 623 24.96
19.7128 682 26.1151
19.8288 646 25.4165
19.9447 559 23.6432
20.0606 0 1
20.1764 0 1
20.2922 0 1
20.4079 0 1
20.5236 0 1
20.6392 0 1
20.7548 0 1
20.8702 0 1
23.3078 0 1
23.4233 0 1
23.539 0 1
23.6547 0 1
23.7704 0 1
23.8862 0 1
24.0021 0 1
24.118 0 1
24.234 0 1
24.35 0 1
24.4661 310 17.6068
24.5822 421 20.5183
24.6984 490 22.1359
24.8146 566 23.7908
24.9309 660 25.6905
25.0472 641 25.318
25.1636 718 26.7955
25.28 867 29.4449
25.3965 876 29.5973
25.513 873 29.5466
25.6296 864 29.3939
25.7462 986 31.4006
25.8628 941 30.6757
25.9795 891 29.8496
26.0962 902 30.0333
26.213 908 30.133
26.3298 812 28.4956
26.4466 820 28.6356
26.5635 759 27.55
26.6804 726 26.9444
26.7973 708 26.6083
26.9143 703 26.5141
27.0313 689 26.2488
27.1483 783 27.9821
27.2653 799 28.2666
27.3824 770 27.7489
27.4996 814 28.5307
27.6167 765 27.6586
27.7339 728 26.9815
27.8511 719 26.8142
27.9683 629 25.0799
28.0855 705 26.5518
28.2028 792 28.1425
28.3201 750 27.3861
28.4374 835 28.8964
28.5547 847 29.1033
28.6721 844 29.0517
28.7894 781 27.9464
28.9068 838 28.9482
29.0242 834 28.8791
29.1416 788 28.0713
29.259 811 28.4781
29.3764 780 27.9285
29.4939 775 27.8388
29.6113 737 27.1477
29.7288 786 28.0357
29.8463 680 26.0768
29.9638 683 26.1343
30.0812 669 25.865
30.1987 691 26.2869
30.3162 695 26.3629
30.4337 712 26.6833
30.5512 726 26.9444
30.6687 762 27.6043
30.7862 782 27.9643
30.9037 781 27.9464
31.0212 791 28.1247
31.1387 824 28.7054
31.2562 732 27.0555
31.3737 735 27.1109
31.4912 706 26.5707
31.6087 746 27.313
31.7262 843 29.0345
31.8436 790 28.1069
31.9611 769 27.7308
32.0785 752 27.4226
32.1959 771 27.7669
32.3134 744 27.2764
32.4308 741 27.2213
32.5482 742 27.2397
32.6655 726 26.9444
32.7829 649 25.4755
32.9002 678 26.0384
33.0176 708 26.6083
33.1349 701 26.4764
33.2522 677 26.0192
33.3694 691 26.2869
33.4867 625 25
33.6039 640 25.2982
33.7211 622 24.9399
33.8383 641 25.318
33.9554 656 25.6125
34.0725 688 26.2298
34.1896 686 26.1916
34.3067 710 26.6458
34.4237 713 26.7021
34.5407 783 27.9821
34.6577 744 27.2764
34.7746 675 25.9808
34.8915 718 26.7955
35.0084 717 26.7769
35.1252 620 24.8998
35.242 678 26.0384
35.3587 683 26.1343
35.4755 713 26.7021
35.5921 772 27.7849
35.7088 691 26.2869
35.8254 653 25.5539
35.9419 669 25.865
36.0584 668 25.8457
36.1749 633 25.1595
36.2913 674 25.9615
36.4077 632 25.1396
36.524 620 24.8998
36.6403 634 25.1794
36.7565 577 24.0208
36.8727 524 22.891
36.9889 516 22.7156
37.1049 426 20.6398
37.221 0 1
37.3369 0 1
37.4529 0 1
37.5687 0 1
37.6845 0 1
37.8003 0 1
37.916 0 1
38.0316 0 1
38.1472 0 1
40.5851 0 1
40.7008 0 1
40.8164 0 1
40.9322 0 1
41.048 0 1
41.1639 0 1
41.2798 0 1
41.3958 0 1
41.5118 0 1
41.6279 0 1
41.744 320 17.8885
41.8602 383 19.5704
41.9765 392 19.799
42.0928 428 20.6882
42.2091 497 22.2935
42.3255 546 23.3666
42.4419 534 23.1084
42.5584 543 23.3024
42.675 464 21.5407
42.7915 542 23.2809
42.9081 519 22.7816
43.0248 532 23.0651
43.1415 521 22.8254
43.2582 634 25.1794
43.375 569 23.8537
43.4918 585 24.1868
43.6087 564 23.7487
43.7256 534 23.1084
43.8425 571 23.8956
43.9595 481 21.9317
44.0765 479 21.8861
44.1935 505 22.4722
44.3106 518 22.7596
44.4277 557 23.6008
44.5448 593 24.3516
44.6619 536 23.1517
44.7791 541 23.2594
44.8963 564 23.7487
45.0136 542 23.2809
45.1308 551 23.4734
45.2481 547 23.388
45.3654 543 23.3024
45.4827 565 23.7697
45.6001 593 24.3516
45.7174 577 24.0208
45.8348 568 23.8328
45.9522 635 25.1992
46.0697 559 23.6432
46.1871 577 24.0208
46.3046 510 22.5832
46.422 550 23.4521
46.5395 501 22.383
46.657 515 22.6936
46.7745 556 23.5797
46.892 517 22.7376
47.0096 581 24.1039
47.1271 619 24.8797
47.2446 538 23.1948
47.3622 559 23.6432
47.4797 550 23.4521
47.5973 551 23.4734
47.7149 467 21.6102
47.8324 563 23.7276
47.95 530 23.0217
48.0675 557 23.6008
48.1851 589 24.2693
48.3027 591 24.3105
48.4202 552 23.4947
48.5378 594 24.3721
48.6554 562 23.7065
48.7729 604 24.5764
48.8904 509 22.561
49.008 578 24.0416
49.1255 587 24.2281
49.243 597 24.4336
49.3605 580 24.0832
49.478 545 23.3452
49.5955 525 22.9129
49.713 486 22.0454
49.8304 523 22.8692
49.9479 491 22.1585
50.0653 516 22.7156
50.1827 507 22.5167
50.3001 536 23.1517
50.4175 553 23.516
50.5348 522 22.8473
50.6521 563 23.7276
50.7694 525 22.9129
50.8867 544 23.3238
51.004 533 23.0868
51.1212 510 22.5832
51.2384 501 22.383
51.3556 503 22.4277
51.4727 573 23.9374
51.5899 565 23.7697
51.707 572 23.9165
51.824 569 23.8537
51.9411 565 23.7697
52.0581 561 23.6854
52.175 563 23.7276
52.2919 499 22.3383
52.4088 574 23.9583
52.5257 518 22.7596
52.6425 567 23.8118
52.7593 537 23.1733
52.876 566 23.7908
52.9927 528 22.9783
53.1094 542 23.2809
53.226 560 23.6643
53.3426 525 22.9129
53.4591 474 21.7715
53.5756 448 21.166
53.692 452 21.2603
53.8084 430 20.7364
53.9248 400 20
54.0411 380 19.4936
54.1573 355 18.8414
54.2735 0 1
54.3896 0 1
54.5057 0 1
54.6217 0 1
54.7377 0 1
54.8537 0 1
54.9695 0 1
55.0853 0 1
55.2011 0 1
55.3168 0 1
55.4324 0 1
57.824 0 1
57.9396 0 1
58.0553 0 1
58.1711 0 1
58.2869 0 1
58.4028 0 1
58.5187 0 1
58.6347 0 1
58.7508 0 1
58.8669 0 1
58.983 969 31.1288
59.0992 1188 34.4674
59.2155 1539 39.2301
59.3318 1905 43.6463
59.4482 2216 47.0744
59.5646 2477 49.7695
59.681 2721 52.1632
59.7975 2746 52.4023
59.9141 2846 53.3479
60.0306 3022 54.9727
60.1473 2978 54.5711
60.2639 3164 56.2494
60.3807 3186 56.4447
60.4974 3041 55.1453
60.6142 3114 55.8032
60.731 3035 55.0908
60.8479 3063 55.3444
60.9648 2945 54.2679
61.0818 2791 52.8299
61.1987 2743 52.3737
61.3158 2588 50.8724
61.4328 2548 50.4777
61.5499 2368 48.6621
61.667 2141 46.2709
61.7841 1926 43.8862
61.9013 1763 41.9881
62.0185 1610 40.1248
62.1357 1471 38.3536
62.253 1302 36.0832
62.3702 1372 37.0405
62.4875 1269 35.623
62.6049 1250 35.3553
62.7222 1346 36.6879
62.8396 1362 36.9053
62.9569 1326 36.4143
63.0743 1325 36.4005
63.1918 1243 35.2562
63.3092 1127 33.5708
63.4267 1115 33.3916
63.5441 987 31.4166
63.6616 894 29.8998
63.7791 861 29.3428
63.8966 793 28.1603
64.0142 764 27.6405
64.1317 781 27.9464
64.2492 737 27.1477
64.3668 690 26.2679
64.4843 640 25.2982
64.6019 608 24.6577
64.7195 645 25.3969
64.837 694 26.3439
64.9546 693 26.3249
65.0722 644 25.3772
65.1898 598 24.454
65.3074 647 25.4362
65.4249 609 24.6779
65.5425 575 23.9792
65.6601 634 25.1794
65.7777 571 23.8956
65.8952 568 23.8328
66.0128 597 24.4336
66.1304 651 25.5147
66.2479 623 24.96
66.3655 618 24.8596
66.483 681 26.096
66.6005 688 26.2298
66.718 633 25.1595
66.8355 643 25.3574
66.953 678 26.0384
67.0705 574 23.9583
67.1879 616 24.8193
67.3054 628 25.0599
67.4228 617 24.8395
67.5402 665 25.7876
67.6576 707 26.5895
67.7749 634 25.1794
67.8923 616 24.8193
68.0096 658 25.6515
68.1269 662 25.7294
68.2442 668 25.8457
68.3614 643 25.3574
68.4787 569 23.8537
68.5958 593 24.3516
68.713 684 26.1534
68.8302 656 25.6125
68.9473 614 24.779
69.0643 581 24.1039
69.1814 606 24.6171
69.2984 602 24.5357
69.4154 568 23.8328
69.5323 606 24.6171
69.6492 554 23.5372
69.7661 576 24
69.8829 598 24.454
69.9997 684 26.1534
70.1165 576 24
70.2332 623 24.96
70.3499 631 25.1197
70.4665 534 23.1084
70.5831 494 22.2261
70.6996 506 22.4944
70.8161 448 21.166
70.9326 392 19.799
71.049 378 19.4422
71.1653 393 19.8242
71.2817 378 19.4422
71.3979 320 17.8885
71.5141 333 18.2483
71.6303 287 16.9411
71.7464 230 15.1658
71.8624 0 1
71.9784 0 1
72.0944 0 1
72.2102 0 1
72.3261 0 1
72.4418 0 1
72.5575 0 1
72.6732 0 1
75.1054 0 1
75.2209 0 1
75.3365 0 1
75.4521 0 1
75.5678 0 1
75.6835 0 1
75.7993 0 1
75.9151 0 1
76.031 0 1
76.147 400 20
76.263 456 21.3542
76.3791 436 20.8806
76.4952 509 22.561
76.6113 517 22.7376
76.7276 559 23.6432
76.8438 566 23.7908
76.9601 508 22.5389
77.0765 570 23.8747
77.1929 536 23.1517
77.3093 504 22.4499
77.4258 532 23.0651
77.5423 548 23.4094
77.6589 540 23.2379
77.7755 513 22.6495
77.8921 534 23.1084
78.0088 556 23.5797
78.1256 564 23.7487
78.2423 521 22.8254
78.3591 476 21.8174
78.4759 464 21.5407
78.5928 483 21.9773
78.7097 493 22.2036
78.8266 477 21.8403
78.9436 496 22.2711
79.0606 528 22.9783
79.1776 506 22.4944
79.2946 538 23.1948
79.4117 550 23.4521
79.5288 546 23.3666
79.6459 556 23.5797
79.7631 562 23.7065
79.8802 508 22.5389
79.9974 537 23.1733
80.1147 518 22.7596
80.2319 528 22.9783
80.3491 504 22.4499
80.4664 556 23.5797
80.5837 538 23.1948
80.701 558 23.622
80.8183 562 23.7065
80.9357 550 23.4521
81.053 554 23.5372
81.1704 540 23.2379
81.2877 551 23.4734
81.4051 578 24.0416
81.5225 596 24.4131
81.6399 539 23.2164
81.7573 618 24.8596
81.8747 545 23.3452
81.9922 531 23.0434
82.1096 496 22.2711
82.227 462 21.4942
82.3444 495 22.2486
82.4619 493 22.2036
82.5793 513 22.6495
82.6967 553 23.516
82.8142 540 23.2379
82.9316 568 23.8328
83.049 580 24.0832
83.1664 604 24.5764
83.2838 567 23.8118
83.4012 565 23.7697
83.5186 616 24.8193
83.636 540 23.2379
83.7534 526 22.9347
83.8708 591 24.3105
83.9881 537 23.1733
84.1055 595 24.3926
84.2228 630 25.0998
84.3401 558 23.622
84.4575 555 23.5584
84.5747 571 23.8956
84.692 592 24.3311
84.8093 552 23.4947
84.9265 545 23.3452
85.0437 590 24.2899
85.1609 589 24.2693
85.2781 606 24.6171
85.3952 573 23.9374
85.5123 571 23.8956
85.6294 540 23.2379
85.7465 557 23.6008
85.8636 474 21.7715
85.9806 496 22.2711
86.0976 530 23.0217
86.2145 574 23.9583
86.3315 566 23.7908
86.4484 576 24
86.5652 585 24.1868
86.682 634 25.1794
86.7988 610 24.6982
86.9156 573 23.9374
87.0323 544 23.3238
87.149 550 23.4521
87.2657 577 24.0208
87.3823 588 24.2487
87.4988 550 23.4521
87.6154 586 24.2074
87.7318 559 23.6432
87.8483 476 21.8174
87.9647 447 21.1424
88.081 474 21.7715
88.1973 401 20.025
88.3136 405 20.1246
88.4298 340 18.4391
88.546 312 17.6635
88.6621 333 18.2483
88.7781 296 17.2047
88.8942 0 1
89.0101 0 1
89.126 0 1
89.2419 0 1
89.3577 0 1
89.4734 0 1
89.5891 0 1
89.7047 0 1
89.8203 0 1
89.9358 0 1
92.3269 0 1
92.4424 0 1
92.558 0 1
92.6736 0 1
92.7893 0 1
92.905 0 1
93.0208 0 1
93.1366 0 1
93.2525 0 1
93.3685 0 1
93.4845 0 1
93.6005 498 22.3159
93.7167 515 22.6936
93.8328 527 22.9565
93.949 563 23.7276
94.0653 569 23.8537
94.1816 559 23.6432
94.2979 611 24.7184
94.4143 541 23.2594
94.5307 558 23.622
94.6472 517 22.7376
94.7637 523 22.8692
94.8803 527 22.9565
94.9969 544 23.3238
95.1135 518 22.7596
95.2302 571 23.8956
95.3469 525 22.9129
95.4637 574 23.9583
95.5805 639 25.2784
95.6973 608 24.6577
95.8142 598 24.454
95.9311 614 24.779
96.048 603 24.5561
96.1649 617 24.8395
96.2819 611 24.7184
96.3989 586 24.2074
96.516 571 23.8956
96.633 614 24.779
96.7501 580 24.0832
96.8673 607 24.6374
96.9844 604 24.5764
97.1016 597 24.4336
97.2188 599 24.4745
97.336 592 24.3311
97.4532 587 24.2281
97.5704 625 25
97.6877 600 24.4949
97.805 622 24.9399
97.9223 638 25.2587
98.0396 607 24.6374
98.1569 622 24.9399
98.2743 587 24.2281
98.3916 547 23.388
98.509 614 24.779
98.6264 574 23.9583
98.7438 557 23.6008
98.8612 584 24.1661
98.9786 652 25.5343
99.096 591 24.3105
99.2134 627 25.04
99.3308 634 25.1794
99.4482 676 26
99.5656 647 25.4362
99.6831 611 24.7184
99.8005 676 26
99.9179 632 25.1396
100.035 630 25.0998
100.153 676 26
100.27 635 25.1992
100.388 626 25.02
100.505 631 25.1197
100.622 643 25.3574
100.74 636 25.219
100.857 606 24.6171
100.975 613 24.7588
101.092 605 24.5967
101.209 670 25.8844
101.327 655 25.593
101.444 644 25.3772
101.561 617 24.8395
101.679 625 25
101.796 655 25.593
101.913 648 25.4558
102.03 659 25.671
102.148 597 24.4336
102.265 667 25.8263
102.382 608 24.6577
102.499 642 25.3377
102.616 657 25.632
102.733 711 26.6646
102.851 701 26.4764
102.968 683 26.1343
103.085 704 26.533
103.202 658 25.6515
103.319 664 25.7682
103.436 685 26.1725
103.552 656 25.6125
103.669 609 24.6779
103.786 659 25.671
103.903 687 26.2107
104.02 656 25.6125
104.137 665 25.7876
104.253 663 25.7488
104.37 636 25.219
104.487 705 26.5518
104.603 668 25.8457
104.72 640 25.2982
104.836 643 25.3574
104.953 573 23.9374
105.069 559 23.6432
105.186 555 23.5584
105.302 557 23.6008
105.418 481 21.9317
105.535 474 21.7715
105.651 450 21.2132
105.767 396 19.8997
105.883 349 18.6815
105.999 347 18.6279
106.115 0 1
106.231 0 1
106.347 0 1
106.463 0 1
106.579 0 1
106.694 0 1
106.81 0 1
106.926 0 1
107.041 0 1
107.157 0 1
109.576 0 1
109.692 0 1
109.807 0 1
109.923 0 1
110.039 0 1
110.155 0 1
110.27 0 1
110.386 0 1
110.502 0 1
110.618 379 19.4679
110.735 433 20.8087
110.851 463 21.5174
110.967 484 22
111.083 470 21.6795
111.199 544 23.3238
111.316 565 23.7697
111.432 601 24.5153
111.549 689 26.2488
111.665 674 25.9615
111.782 695 26.3629
111.898 631 25.1197
112.015 660 25.6905
112.132 629 25.0799
112.248 664 25.7682
112.365 628 25.0599
112.482 618 24.8596
112.599 600 24.4949
112.716 622 24.9399
112.832 590 24.2899
112.949 593 24.3516
113.066 598 24.454
113.183 595 24.3926
113.3 599 24.4745
113.417 569 23.8537
113.534 585 24.1868
113.652 569 23.8537
113.769 571 23.8956
113.886 530 23.0217
114.003 580 24.0832
114.12 587 24.2281
114.238 562 23.7065
114.355 562 23.7065
114.472 557 23.6008
114.589 528 22.9783
114.707 493 22.2036
114.824 541 23.2594
114.942 629 25.0799
115.059 655 25.593
115.176 625 25
115.294 575 23.9792
115.411 596 24.4131
115.529 570 23.8747
115.646 549 23.4307
115.764 533 23.0868
115.881 559 23.6432
115.999 557 23.6008
116.116 571 23.8956
116.234 588 24.2487
116.351 580 24.0832
116.469 488 22.0907
116.586 522 22.8473
116.704 560 23.6643
116.821 592 24.3311
116.939 558 23.622
117.056 511 22.6053
117.174 498 22.3159
117.291 477 21.8403
117.409 519 22.7816
117.526 460 21.4476
117.644 538 23.1948
117.761 524 22.891
117.879 591 24.3105
117.996 572 23.9165
118.114 561 23.6854
118.231 490 22.1359
118.349 492 22.1811
118.466 530 23.0217
118.584 507 22.5167
118.701 589 24.2693
118.819 539 23.2164
118.936 522 22.8473
119.053 524 22.891
119.171 519 22.7816
119.288 537 23.1733
119.405 526 22.9347
119.523 530 23.0217
119.64 535 23.1301
119.757 498 22.3159
119.875 516 22.7156
119.992 527 22.9565
120.109 523 22.8692
120.226 516 22.7156
120.343 535 23.1301
120.46 494 22.2261
120.578 454 21.3073
120.695 466 21.587
120.812 513 22.6495
120.929 480 21.9089
121.046 443 21.0476
121.163 456 21.3542
121.279 470 21.6795
121.396 463 21.5174
121.513 467 21.6102
121.63 481 21.9317
121.747 465 21.5639
121.863 415 20.3715
121.98 465 21.5639
122.097 413 20.3224
122.213 423 20.567
122.33 433 20.8087
122.446 385 19.6214
122.563 374 19.3391
122.679 325 18.0278
122.795 343 18.5203
122.912 328 18.1108
123.028 290 17.0294
123.144 304 17.4356
123.26 304 17.4356
123.377 0 1
123.493 0 1
123.609 0 1
123.725 0 1
123.84 0 1
123.956 0 1
124.072 0 1
124.188 0 1
124.303 0 1
124.419 0 1
126.852 0 1
126.968 0 1
127.083 0 1
127.199 0 1
127.315 0 1
127.431 0 1
127.547 0 1
127.663 0 1
127.779 0 1
127.895 0 1
128.011 0 1
128.127 0 1
128.243 0 1
128.359 588 24.2487
128.476 539 23.2164
128.592 538 23.1948
128.708 580 24.0832
128.825 574 23.9583
128.941 578 24.0416
129.058 587 24.2281
129.174 615 24.7992
129.291 615 24.7992
129.408 635 25.1992
129.524 626 25.02
129.641 578 24.0416
129.758 581 24.1039
129.875 556 23.5797
129.992 556 23.5797
130.108 585 24.1868
130.225 607 24.6374
130.342 618 24.8596
130.459 649 25.4755
130.576 683 26.1343
130.693 728 26.9815
130.81 713 26.7021
130.928 706 26.5707
131.045 694 26.3439
131.162 735 27.1109
131.279 821 28.6531
131.396 892 29.8664
131.513 829 28.7924
131.631 819 28.6182
131.748 954 30.8869
131.865 977 31.257
131.983 1006 31.7175
132.1 989 31.4484
132.217 1113 33.3617
132.335 1090 33.0151
132.452 1142 33.7935
132.57 1231 35.0856
132.687 1233 35.1141
132.804 1323 36.3731
132.922 1282 35.805
133.039 1308 36.1663
133.157 1311 36.2077
133.274 1321 36.3456
133.392 1317 36.2905
133.509 1323 36.3731
133.627 1328 36.4417
133.744 1351 36.756
133.862 1308 36.1663
133.979 1361 36.8917
134.097 1380 37.1484
134.214 1359 36.8646
134.332 1300 36.0555
134.449 1309 36.1801
134.567 1261 35.5106
134.684 1265 35.5668
134.802 1378 37.1214
134.919 1455 38.1445
135.037 1328 36.4417
135.154 1290 35.9166
135.272 1191 34.5109
135.389 1329 36.4555
135.507 1403 37.4566
135.624 1471 38.3536
135.742 1413 37.5899
135.859 1468 38.3145
135.977 1467 38.3014
136.094 1449 38.0657
136.211 1498 38.704
136.329 1533 39.1535
136.446 1523 39.0256
136.564 1532 39.1408
136.681 1476 38.4187
136.798 1393 37.3229
136.915 1437 37.9078
137.033 1514 38.9102
137.15 1367 36.973
137.267 1391 37.2961
137.384 1354 36.7967
137.502 1468 38.3145
137.619 1299 36.0416
137.736 1330 36.4692
137.853 1252 35.3836
137.97 1330 36.4692
138.087 1277 35.7351
138.204 1249 35.3412
138.321 1156 34
138.438 1327 36.428
138.555 1318 36.3043
138.672 1375 37.081
138.788 1267 35.5949
138.905 1107 33.2716
139.022 1108 33.2866
139.139 1219 34.9142
139.255 1258 35.4683
139.372 1166 34.1467
139.488 1115 33.3916
139.605 1141 33.7787
139.721 964 31.0483
139.838 891 29.8496
139.954 898 29.9666
140.071 797 28.2312
140.187 832 28.8444
140.303 709 26.6271
140.419 705 26.5518
140.535 701 26.4764
140.652 641 25.318
140.768 0 1
140.884 0 1
141 0 1
141.115 0 1
141.231 0 1
141.347 0 1
141.463 0 1
141.578 0 1
141.694 0 1
144.104 0 1
144.219 0 1
144.335 0 1
144.45 0 1
144.566 0 1
144.682 0 1
144.798 0 1
144.914 0 1
145.03 0 1
145.146 1172 34.2345
145.262 1218 34.8999
145.378 1244 35.2704
145.494 1314 36.2491
145.61 1260 35.4965
145.726 1442 37.9737
145.842 1386 37.229
145.959 1350 36.7423
146.075 1381 37.1618
146.192 1298 36.0278
146.308 1266 35.5809
146.425 1219 34.9142
146.541 1290 35.9166
146.658 1382 37.1753
146.774 1473 38.3797
146.891 1422 37.7094
147.008 1343 36.647
147.125 1433 37.855
147.241 1510 38.8587
147.358 1513 38.8973
147.475 1527 39.0768
147.592 1486 38.5487
147.709 1354 36.7967
147.826 1284 35.8329
147.943 1381 37.1618
148.06 1419 37.6696
148.177 1468 38.3145
148.294 1461 38.223
148.411 1485 38.5357
148.528 1438 37.921
148.645 1364 36.9324
148.762 1470 38.3406
148.88 1381 37.1618
148.997 1403 37.4566
149.114 1362 36.9053
149.231 1412 37.5766
149.349 1332 36.4966
149.466 1325 36.4005
149.583 1353 36.7831
149.701 1386 37.229
149.818 1303 36.0971
149.935 1200 34.641
150.053 1188 34.4674
150.17 1217 34.8855
150.287 1240 35.2136
150.405 1312 36.2215
150.522 1311 36.2077
150.64 1229 35.0571
150.757 1202 34.6699
150.875 1213 34.8281
150.992 1233 35.1141
151.11 1195 34.5688
151.227 1132 33.6452
151.344 1090 33.0151
151.462 1058 32.5269
151.579 1079 32.8481
151.697 1167 34.1614
151.814 1269 35.623
151.932 1187 34.4529
152.049 1248 35.327
152.167 1207 34.7419
152.284 1232 35.0999
152.402 1171 34.2199
152.519 1210 34.7851
152.636 1246 35.2987
152.754 1162 34.0881
152.871 1129 33.6006
152.989 1157 34.0147
153.106 1121 33.4813
153.223 1105 33.2415
153.341 1124 33.5261
153.458 1033 32.1403
153.575 1041 32.2645
153.693 994 31.5278
153.81 1015 31.8591
153.927 1071 32.7261
154.044 1090 33.0151
154.162 1057 32.5115
154.279 991 31.4802
154.396 1016 31.8748
154.513 1020 31.9374
154.63 1004 31.686
154.747 955 30.9031
154.864 973 31.1929
154.981 958 30.9516
155.098 911 30.1828
155.215 937 30.6105
155.332 1001 31.6386
155.449 1023 31.9844
155.566 999 31.607
155.683 1023 31.9844
155.8 952 30.8545
155.917 968 31.1127
156.033 916 30.2655
156.15 0 1
156.267 0 1
156.383 0 1
156.5 0 1
156.617 0 1
156.733 0 1
156.85 0 1
156.966 0 1
157.082 0 1
157.199 0 1
157.315 0 1
157.431 0 1
157.547 0 1
157.664 0 1
157.78 0 1
157.896 0 1
158.012 0 1
158.128 0 1
158.244 0 1
158.359 0 1
158.475 0 1
158.591 0 1
158.706 0 1
