
6.15755 0 1
6.2731 0 1
6.3887 0 1
6.50437 0 1
6.62009 0 1
6.73587 0 1
6.8517 0 1
6.96759 0 1
7.08353 0 1
7.19952 0 1
7.31557 0 1
7.43166 0 1
7.54781 0 1
7.664 0 1
7.78024 0 1
7.89653 0 1
8.01286 0 1
8.12924 0 1
8.24567 0 1
8.36213 0 1
8.47864 0 1
8.59519 0 1
8.71178 0 1
8.82841 0 1
8.94508 0 1
9.06179 0 1
9.17853 0 1
9.29531 0 1
9.41212 0 1
9.52897 0 1
9.64584 0 1
9.76276 0 1
9.8797 0 1
9.99667 0 1
10.1137 0 1
10.2307 0 1
10.3478 0 1
10.4648 0 1
10.5819 0 1
10.6991 0 1
10.8162 0 1
10.9334 0 1
11.0506 0 1
11.1678 0 1
11.285 0 1
11.4023 0 1
11.5196 0 1
11.6369 0 1
11.7542 0 1
11.8715 0 1
11.9888 0 1
12.1062 0 1
12.2235 0 1
12.3409 0 1
12.4582 0 1
12.5756 0 1
12.693 0 1
12.8104 0 1
12.9278 0 1
13.0452 0 1
13.1626 0 1
13.28 0 1
13.3974 0 1
13.5149 0 1
13.6323 0 1
13.7497 0 1
13.8671 0 1
13.9845 0 1
14.1019 0 1
14.2193 0 1
14.3367 0 1
14.4541 0 1
14.5714 0 1
14.6888 0 1
14.8062 0 1
14.9235 0 1
15.0408 0 0
15.1581 0 0
15.2755 0 0
15.3927 0 0
15.51 0 0
15.6273 0 0
15.7445 0 0
15.8617 0 0
15.9789 0 0
16.0961 0 0
16.2132 0 0
16.3304 0 0
16.4475 0 0
16.5646 0 0
16.6816 0 0
16.7986 0 0
16.9156 0 0
17.0326 0 0
17.1496 0 0
17.2665 0 0
17.3833 0 0
17.5002 0 0
17.617 0 0
17.7338 0 0
17.8505 0 0
17.9672 0 0
18.0839 0 0
18.2005 0 0
18.3171 0 0
18.4337 0 0
18.5502 0 0
18.6666 0 0
18.7831 0 0
18.8994 0 0
19.0158 0 0
19.1321 0 0
19.2483 0 0
19.3645 0 0
19.4806 0 0
19.5967 0 0
19.7128 0 0
19.8288 0 0
19.9447 0 0
20.0606 0 1
20.1764 0 1
20.2922 0 1
20.4079 0 1
20.5236 0 1
20.6392 0 1
20.7548 0 1
20.8702 0 1
23.3078 0 1
23.4233 0 1
23.539 0 1
23.6547 0 1
23.7704 0 1
23.8862 0 1
24.0021 0 1
24.118 0 1
24.234 0 1
24.35 0 1
24.4661 14435 120.146
24.5822 14159 118.992
24.6984 14295 119.562
24.8146 13699 117.043
24.9309 13595 116.598
25.0472 13352 115.551
25.1636 13297 115.313
25.28 13644 116.808
25.3965 14047 118.52
25.513 14237 119.319
25.6296 14917 122.135
25.7462 15238 123.442
25.8628 15141 123.049
25.9795 15133 123.016
26.0962 15088 122.833
26.213 15224 123.386
26.3298 14564 120.681
26.4466 13946 118.093
26.5635 13750 117.26
26.6804 13234 115.039
26.7973 13311 115.373
26.9143 13916 117.966
27.0313 14179 119.076
27.1483 14860 121.902
27.2653 14740 121.408
27.3824 15065 122.74
27.4996 14968 122.344
27.6167 15015 122.536
27.7339 14631 120.959
27.8511 14419 120.079
27.9683 14205 119.185
28.0855 13703 117.06
28.2028 13611 116.666
28.3201 12760 112.96
28.4374 12407 111.387
28.5547 12152 110.236
28.6721 12029 109.677
28.7894 12516 111.875
28.9068 12634 112.401
29.0242 12924 113.684
29.1416 13233 115.035
29.259 13360 115.585
29.3764 13516 116.258
29.4939 13537 116.349
29.6113 13710 117.09
29.7288 13186 114.83
29.8463 13092 114.42
29.9638 12644 112.446
30.0812 12159 110.268
30.1987 12012 109.599
30.3162 12138 110.173
30.4337 12716 112.765
30.5512 13290 115.282
30.6687 13310 115.369
30.7862 14033 118.461
30.9037 13685 116.983
31.0212 13904 117.915
31.1387 13897 117.886
31.2562 13703 117.06
31.3737 13661 116.88
31.4912 13360 115.585
31.6087 13311 115.373
31.7262 12836 113.296
31.8436 12648 112.463
31.9611 12191 110.413
32.0785 11804 108.646
32.1959 11793 108.596
32.3134 11845 108.835
32.4308 12179 110.359
32.5482 12501 111.808
32.6655 12712 112.748
32.7829 12698 112.685
32.9002 12951 113.802
33.0176 12895 113.556
33.1349 12953 113.811
33.2522 12950 113.798
33.3694 12785 113.071
33.4867 12733 112.841
33.6039 12100 110
33.7211 11821 108.724
33.8383 11626 107.824
33.9554 12071 109.868
34.0725 12111 110.05
34.1896 12548 112.018
34.3067 12799 113.133
34.4237 13321 115.417
34.5407 13387 115.702
34.6577 13590 116.576
34.7746 13465 116.039
34.8915 13676 116.944
35.0084 13236 115.048
35.1252 13466 116.043
35.242 12990 113.974
35.3587 13028 114.14
35.4755 12428 111.481
35.5921 12246 110.662
35.7088 11634 107.861
35.8254 11435 106.935
35.9419 11264 106.132
36.0584 11235 105.995
36.1749 11708 108.204
36.2913 11730 108.305
36.4077 12102 110.009
36.524 12492 111.768
36.6403 12443 111.548
36.7565 12372 111.229
36.8727 12813 113.195
36.9889 12482 111.723
37.1049 12217 110.531
37.221 0 1
37.3369 0 1
37.4529 0 1
37.5687 0 1
37.6845 0 1
37.8003 0 1
37.916 0 1
38.0316 0 1
38.1472 0 1
40.5851 0 1
40.7008 0 1
40.8164 0 1
40.9322 0 1
41.048 0 1
41.1639 0 1
41.2798 0 1
41.3958 0 1
41.5118 0 1
41.6279 0 1
41.744 9986 99.93
41.8602 10386 101.912
41.9765 10684 103.363
42.0928 10597 102.942
42.2091 10426 102.108
42.3255 9991 99.955
42.4419 9905 99.5239
42.5584 9420 97.0567
42.675 9395 96.9278
42.7915 9674 98.3565
42.9081 10138 100.688
43.0248 10358 101.774
43.1415 10664 103.267
43.2582 10897 104.389
43.375 11011 104.933
43.4918 11019 104.971
43.6087 10896 104.384
43.7256 10986 104.814
43.8425 10703 103.455
43.9595 10415 102.054
44.0765 10490 102.421
44.1935 10058 100.29
44.3106 9668 98.326
44.4277 9419 97.0515
44.5448 8719 93.3756
44.6619 8435 91.8423
44.7791 8486 92.1195
44.8963 8548 92.4554
45.0136 8685 93.1933
45.1308 8936 94.5304
45.2481 9103 95.4096
45.3654 9222 96.0312
45.4827 9007 94.9052
45.6001 9187 95.8488
45.7174 9031 95.0316
45.8348 8835 93.9947
45.9522 8453 91.9402
46.0697 7976 89.3085
46.1871 7808 88.3629
46.3046 7681 87.6413
46.422 8089 89.9389
46.5395 8522 92.3147
46.657 8763 93.6109
46.7745 8653 93.0215
46.892 8879 94.2284
47.0096 8849 94.0691
47.1271 8820 93.9149
47.2446 8899 94.3345
47.3622 8785 93.7283
47.4797 8435 91.8423
47.5973 8340 91.3236
47.7149 8246 90.8075
47.8324 7881 88.775
47.95 7568 86.9943
48.0675 7074 84.1071
48.1851 6549 80.9259
48.3027 6708 81.9024
48.4202 6674 81.6946
48.5378 6821 82.5893
48.6554 6851 82.7708
48.7729 7108 84.309
48.8904 7462 86.3829
49.008 7590 87.1206
49.1255 7602 87.1894
49.243 7590 87.1206
49.3605 7344 85.6971
49.478 6943 83.3247
49.5955 6917 83.1685
49.713 6724 82
49.8304 6921 83.1925
49.9479 7438 86.2438
50.0653 7888 88.8144
50.1827 8295 91.0769
50.3001 8859 94.1223
50.4175 8964 94.6784
50.5348 9038 95.0684
50.6521 9548 97.7139
50.7694 9796 98.9747
50.8867 9801 99
51.004 9956 99.7798
51.1212 10014 100.07
51.2384 9960 99.7998
51.3556 9733 98.656
51.4727 9412 97.0155
51.5899 9152 95.6661
51.707 8862 94.1382
51.824 8865 94.1541
51.9411 8863 94.1435
52.0581 9426 97.0876
52.175 9680 98.387
52.2919 9957 99.7848
52.4088 10016 100.08
52.5257 10571 102.815
52.6425 10516 102.548
52.7593 10706 103.47
52.876 10762 103.74
52.9927 10760 103.73
53.1094 10114 100.568
53.226 9851 99.2522
53.3426 9484 97.3858
53.4591 10078 100.389
53.5756 10695 103.417
53.692 11181 105.74
53.8084 11964 109.38
53.9248 12249 110.675
54.0411 12648 112.463
54.1573 12882 113.499
54.2735 0 1
54.3896 0 1
54.5057 0 1
54.6217 0 1
54.7377 0 1
54.8537 0 1
54.9695 0 1
55.0853 0 1
55.2011 0 1
55.3168 0 1
55.4324 0 1
57.824 0 1
57.9396 0 1
58.0553 0 1
58.1711 0 1
58.2869 0 1
58.4028 0 1
58.5187 0 1
58.6347 0 1
58.7508 0 1
58.8669 0 1
58.983 14157 118.983
59.0992 14567 120.694
59.2155 14828 121.77
59.3318 15097 122.87
59.4482 15540 124.66
59.5646 15541 124.664
59.681 15448 124.29
59.7975 14899 122.061
59.9141 14406 120.025
60.0306 13937 118.055
60.1473 13111 114.503
60.2639 12485 111.736
60.3807 11816 108.701
60.4974 11701 108.171
60.6142 11667 108.014
60.731 11938 109.261
60.8479 12501 111.808
60.9648 12574 112.134
61.0818 13150 114.673
61.1987 13240 115.065
61.3158 13201 114.896
61.4328 12729 112.823
61.5499 12260 110.725
61.667 12040 109.727
61.7841 11324 106.414
61.9013 11248 106.057
62.0185 11753 108.411
62.1357 11867 108.936
62.253 12785 113.071
62.3702 12903 113.591
62.4875 13590 116.576
62.6049 14113 118.798
62.7222 14383 119.929
62.8396 14743 121.421
62.9569 14647 121.025
63.0743 14659 121.074
63.1918 14402 120.008
63.3092 14143 118.924
63.4267 13644 116.808
63.5441 12983 113.943
63.6616 12272 110.779
63.7791 11305 106.325
63.8966 10744 103.653
64.0142 10611 103.01
64.1317 10687 103.378
64.2492 11173 105.702
64.3668 11302 106.311
64.4843 11671 108.032
64.6019 12003 109.558
64.7195 12215 110.521
64.837 12346 111.113
64.9546 12101 110.005
65.0722 11702 108.176
65.1898 11188 105.773
65.3074 10698 103.431
65.4249 10284 101.41
65.5425 10394 101.951
65.6601 10809 103.966
65.7777 11559 107.513
65.8952 11787 108.568
66.0128 12516 111.875
66.1304 13101 114.46
66.2479 13448 115.966
66.3655 13845 117.665
66.483 13996 118.305
66.6005 14095 118.722
66.718 13920 117.983
66.8355 13735 117.196
66.953 13583 116.546
67.0705 13075 114.346
67.1879 12264 110.743
67.3054 11559 107.513
67.4228 10619 103.049
67.5402 10182 100.906
67.6576 9941 99.7046
67.7749 9932 99.6594
67.8923 10645 103.175
68.0096 11418 106.855
68.1269 11687 108.106
68.2442 12033 109.695
68.3614 12402 111.364
68.4787 12590 112.205
68.5958 12317 110.982
68.713 11981 109.458
68.8302 11489 107.187
68.9473 10989 104.828
69.0643 10527 102.601
69.1814 10509 102.513
69.2984 11109 105.399
69.4154 11908 109.124
69.5323 12461 111.629
69.6492 12998 114.009
69.7661 13874 117.788
69.8829 14122 118.836
69.9997 14650 121.037
70.1165 14867 121.93
70.2332 14950 122.27
70.3499 14746 121.433
70.4665 14679 121.157
70.5831 14414 120.058
70.6996 13639 116.786
70.8161 12767 112.991
70.9326 12130 110.136
71.049 11237 106.005
71.1653 10491 102.426
71.2817 10048 100.24
71.3979 10164 100.817
71.5141 10109 100.544
71.6303 10287 101.425
71.7464 10323 101.602
71.8624 0 1
71.9784 0 1
72.0944 0 1
72.2102 0 1
72.3261 0 1
72.4418 0 1
72.5575 0 1
72.6732 0 1
75.1054 0 1
75.2209 0 1
75.3365 0 1
75.4521 0 1
75.5678 0 1
75.6835 0 1
75.7993 0 1
75.9151 0 1
76.031 0 1
76.147 11971 109.412
76.263 12237 110.621
76.3791 11738 108.342
76.4952 10575 102.835
76.6113 10185 100.921
76.7276 10578 102.849
76.8438 10950 104.642
76.9601 11716 108.24
77.0765 12629 112.379
77.1929 12793 113.106
77.3093 13145 114.652
77.4258 13460 116.017
77.5423 13454 115.991
77.6589 13082 114.377
77.7755 12137 110.168
77.8921 11583 107.624
78.0088 10861 104.216
78.1256 10610 103.005
78.2423 10567 102.796
78.3591 11050 105.119
78.4759 11710 108.213
78.5928 12686 112.632
78.7097 13238 115.057
78.8266 14539 120.578
78.9436 13634 116.765
79.0606 14809 121.692
79.1776 14558 120.657
79.2946 14870 121.943
79.4117 14691 121.206
79.5288 14571 120.71
79.6459 14334 119.725
79.7631 13683 116.974
79.8802 12713 112.752
79.9974 11906 109.115
80.1147 11071 105.219
80.2319 10391 101.936
80.3491 10222 101.104
80.4664 10360 101.784
80.5837 11097 105.342
80.701 11569 107.559
80.8183 12007 109.576
80.9357 12390 111.31
81.053 12757 112.947
81.1704 12655 112.494
81.2877 12464 111.642
81.4051 11911 109.138
81.5225 11389 106.719
81.6399 10190 100.946
81.7573 10231 101.148
81.8747 9890 99.4485
81.9922 10228 101.134
82.1096 11143 105.56
82.227 11912 109.142
82.3444 12311 110.955
82.4619 13013 114.075
82.5793 13291 115.287
82.6967 13908 117.932
82.8142 13594 116.593
82.9316 13753 117.273
83.049 13760 117.303
83.1664 13549 116.4
83.2838 13041 114.197
83.4012 12298 110.896
83.5186 11508 107.275
83.636 10702 103.45
83.7534 9938 99.6895
83.8708 9300 96.4365
83.9881 9296 96.4158
84.1055 9454 97.2317
84.2228 9937 99.6845
84.3401 10625 103.078
84.4575 11362 106.593
84.5747 12044 109.745
84.692 12347 111.117
84.8093 12407 111.387
84.9265 11828 108.757
85.0437 10989 104.828
85.1609 10311 101.543
85.2781 9988 99.94
85.3952 9864 99.3177
85.5123 9947 99.7346
85.6294 10379 101.877
85.7465 11481 107.149
85.8636 12108 110.036
85.9806 12920 113.666
86.0976 13445 115.953
86.2145 14408 120.033
86.3315 14284 119.516
86.4484 15345 123.875
86.5652 15134 123.02
86.682 15080 122.801
86.7988 14800 121.655
86.9156 14041 118.495
87.0323 13556 116.43
87.149 12744 112.889
87.2657 12250 110.68
87.3823 11455 107.028
87.4988 10947 104.628
87.6154 11199 105.825
87.7318 11764 108.462
87.8483 12381 111.27
87.9647 13152 114.682
88.081 14011 118.368
88.1973 14485 120.354
88.3136 14642 121.004
88.4298 14566 120.69
88.546 13389 115.711
88.6621 12695 112.672
88.7781 11570 107.564
88.8942 0 1
89.0101 0 1
89.126 0 1
89.2419 0 1
89.3577 0 1
89.4734 0 1
89.5891 0 1
89.7047 0 1
89.8203 0 1
89.9358 0 1
92.3269 0 1
92.4424 0 1
92.558 0 1
92.6736 0 1
92.7893 0 1
92.905 0 1
93.0208 0 1
93.1366 0 1
93.2525 0 1
93.3685 0 1
93.4845 0 1
93.6005 20387 142.783
93.7167 21312 145.986
93.8328 22179 148.926
93.949 22736 150.785
94.0653 22831 151.099
94.1816 22175 148.913
94.2979 22336 149.452
94.4143 22383 149.609
94.5307 22785 150.947
94.6472 24055 155.097
94.7637 25678 160.244
94.8803 29207 170.901
94.9969 31281 176.864
95.1135 33568 183.216
95.2302 35370 188.069
95.3469 36986 192.317
95.4637 38639 196.568
95.5805 40547 201.363
95.6973 41422 203.524
95.8142 42646 206.509
95.9311 42912 207.152
96.048 42505 206.167
96.1649 42192 205.407
96.2819 41585 203.924
96.3989 39953 199.882
96.516 38001 194.938
96.633 35954 189.615
96.7501 35113 187.385
96.8673 36946 192.213
96.9844 39609 199.02
97.1016 43346 208.197
97.2188 45627 213.605
97.336 47910 218.884
97.4532 48172 219.481
97.5704 47983 219.05
97.6877 46711 216.127
97.805 43706 209.06
97.9223 40188 200.469
98.0396 37882 194.633
98.1569 36639 191.413
98.2743 35917 189.518
98.3916 36897 192.086
98.509 40055 200.137
98.6264 42546 206.267
98.7438 44555 211.081
98.8612 46006 214.49
98.9786 47683 218.364
99.096 48353 219.893
99.2134 49382 222.221
99.3308 49479 222.439
99.4482 49527 222.547
99.5656 49182 221.77
99.6831 47968 219.016
99.8005 46703 216.109
99.9179 45173 212.539
100.035 42964 207.278
100.153 40125 200.312
100.27 37398 193.386
100.388 37057 192.502
100.505 39631 199.075
100.622 42205 205.439
100.74 45668 213.701
100.857 46775 216.275
100.975 47163 217.17
101.092 46846 216.439
101.209 46381 215.362
101.327 44440 210.808
101.444 41559 203.86
101.561 38111 195.22
101.679 35808 189.23
101.796 33999 184.388
101.913 33495 183.016
102.03 35343 187.997
102.148 37738 194.263
102.265 41904 204.705
102.382 39023 197.542
102.499 41417 203.512
102.616 41627 204.027
102.733 41363 203.379
102.851 41107 202.749
102.968 40248 200.619
103.085 39037 197.578
103.202 37027 192.424
103.319 35066 187.259
103.436 32590 180.527
103.552 30290 174.04
103.669 26940 164.134
103.786 24451 156.368
103.903 23283 152.588
104.02 23855 154.451
104.137 24238 155.686
104.253 25245 158.887
104.37 23979 154.852
104.487 24348 156.038
104.603 23638 153.747
104.72 22129 148.758
104.836 20291 142.446
104.953 18208 134.937
105.069 16234 127.413
105.186 15463 124.35
105.302 14911 122.111
105.418 14778 121.565
105.535 15429 124.214
105.651 16090 126.846
105.767 17092 130.736
105.883 17486 132.235
105.999 17986 134.112
106.115 0 1
106.231 0 1
106.347 0 1
106.463 0 1
106.579 0 1
106.694 0 1
106.81 0 1
106.926 0 1
107.041 0 1
107.157 0 1
109.576 0 1
109.692 0 1
109.807 0 1
109.923 0 1
110.039 0 1
110.155 0 1
110.27 0 1
110.386 0 1
110.502 0 1
110.618 12950 113.798
110.735 14098 118.735
110.851 15147 123.073
110.967 15415 124.157
111.083 15921 126.178
111.199 16256 127.499
111.316 16441 128.222
111.432 16399 128.059
111.549 16220 127.358
111.665 15786 125.642
111.782 15109 122.919
111.898 14694 121.219
112.015 13659 116.872
112.132 12911 113.627
112.248 12020 109.636
112.365 11866 108.931
112.482 11717 108.245
112.599 12049 109.768
112.716 12675 112.583
112.832 13083 114.381
112.949 13289 115.278
113.066 13591 116.58
113.183 13245 115.087
113.3 12893 113.547
113.417 12128 110.127
113.534 11410 106.818
113.652 11089 105.304
113.769 10837 104.101
113.886 10667 103.281
114.003 11210 105.877
114.12 11979 109.449
114.238 12568 112.107
114.355 13333 115.469
114.472 14096 118.727
114.589 14422 120.092
114.707 14705 121.264
114.824 14971 122.356
114.942 14963 122.323
115.059 14977 122.381
115.176 14686 121.186
115.294 14322 119.675
115.411 13793 117.444
115.529 13376 115.655
115.646 12627 112.37
115.764 12021 109.64
115.881 11326 106.424
115.999 11475 107.121
116.116 11559 107.513
116.234 11910 109.133
116.351 12662 112.526
116.469 12910 113.622
116.586 13220 114.978
116.704 13101 114.46
116.821 13035 114.171
116.939 12731 112.832
117.056 12220 110.544
117.174 11608 107.74
117.291 11208 105.868
117.409 11212 105.887
117.526 11291 106.259
117.644 12052 109.782
117.761 12883 113.503
117.879 13541 116.366
117.996 14373 119.887
118.114 14689 121.198
118.231 15567 124.768
118.349 15326 123.798
118.466 15511 124.543
118.584 15429 124.214
118.701 15609 124.936
118.819 15305 123.713
118.936 14862 121.91
119.053 14435 120.146
119.171 14090 118.701
119.288 13382 115.681
119.405 12602 112.259
119.523 11854 108.876
119.64 11770 108.49
119.757 12034 109.7
119.875 12456 111.606
119.992 13034 114.167
120.109 13142 114.639
120.226 13366 115.611
120.343 13358 115.577
120.46 13281 115.243
120.578 13036 114.175
120.695 12559 112.067
120.812 12044 109.745
120.929 11588 107.648
121.046 11474 107.117
121.163 11495 107.215
121.279 11626 107.824
121.396 12713 112.752
121.513 13222 114.987
121.63 14273 119.47
121.747 14467 120.279
121.863 14879 121.98
121.98 15097 122.87
122.097 15353 123.907
122.213 15400 124.097
122.33 15397 124.085
122.446 14961 122.315
122.563 14896 122.049
122.679 14429 120.121
122.795 14220 119.248
122.912 13917 117.97
123.028 13162 114.726
123.144 12425 111.467
123.26 11796 108.609
123.377 0 1
123.493 0 1
123.609 0 1
123.725 0 1
123.84 0 1
123.956 0 1
124.072 0 1
124.188 0 1
124.303 0 1
124.419 0 1
126.852 0 1
126.968 0 1
127.083 0 1
127.199 0 1
127.315 0 1
127.431 0 1
127.547 0 1
127.663 0 1
127.779 0 1
127.895 0 1
128.011 0 1
128.127 0 1
128.243 0 1
128.359 14561 120.669
128.476 13986 118.262
128.592 13359 115.581
128.708 13791 117.435
128.825 14298 119.574
128.941 15018 122.548
129.058 15147 123.073
129.174 15331 123.818
129.291 15242 123.458
129.408 15322 123.782
129.524 14692 121.211
129.641 14551 120.628
129.758 13635 116.769
129.875 13598 116.61
129.992 13329 115.451
130.108 13096 114.438
130.225 13480 116.103
130.342 14288 119.532
130.459 14890 122.025
130.576 15772 125.587
130.693 16356 127.891
130.81 16369 127.941
130.928 16454 128.273
131.045 16289 127.628
131.162 16581 128.767
131.279 16862 129.854
131.396 16531 128.573
131.513 16178 127.193
131.631 15708 125.332
131.748 15330 123.814
131.865 14782 121.581
131.983 14055 118.554
132.1 13380 115.672
132.217 13477 116.09
132.335 13757 117.29
132.452 14292 119.549
132.57 14909 122.102
132.687 14444 120.183
132.804 15451 124.302
132.922 14792 121.622
133.039 14703 121.256
133.157 14261 119.419
133.274 13563 116.46
133.392 13392 115.724
133.509 12957 113.829
133.627 12905 113.6
133.744 13069 114.32
133.862 13605 116.64
133.979 14472 120.3
134.097 15011 122.519
134.214 15545 124.68
134.332 15486 124.443
134.449 15804 125.714
134.567 16087 126.835
134.684 16214 127.334
134.802 15971 126.376
134.919 16272 127.562
135.037 16207 127.307
135.154 15981 126.416
135.272 15566 124.764
135.389 15149 123.081
135.507 14307 119.612
135.624 13678 116.953
135.742 13579 116.529
135.859 13870 117.771
135.977 14341 119.754
136.094 14869 121.939
136.211 15121 122.967
136.329 15094 122.858
136.446 15148 123.077
136.564 15114 122.939
136.681 14997 122.462
136.798 14187 119.109
136.915 14008 118.355
137.033 13609 116.658
137.15 13216 114.961
137.267 13387 115.702
137.384 13285 115.261
137.502 13944 118.085
137.619 14628 120.946
137.736 15288 123.645
137.853 15199 123.284
137.97 15729 125.415
138.087 16295 127.652
138.204 16183 127.212
138.321 16094 126.862
138.438 16453 128.269
138.555 16682 129.159
138.672 16549 128.643
138.788 16398 128.055
138.905 15852 125.905
139.022 15352 123.903
139.139 14964 122.327
139.255 14409 120.037
139.372 14051 118.537
139.488 14243 119.344
139.605 14635 120.975
139.721 15278 123.604
139.838 15675 125.2
139.954 15402 124.105
140.071 15269 123.568
140.187 15143 123.057
140.303 14997 122.462
140.419 14754 121.466
140.535 14136 118.895
140.652 13486 116.129
140.768 0 1
140.884 0 1
141 0 1
141.115 0 1
141.231 0 1
141.347 0 1
141.463 0 1
141.578 0 1
141.694 0 1
144.104 0 1
144.219 0 1
144.335 0 1
144.45 0 1
144.566 0 1
144.682 0 1
144.798 0 1
144.914 0 1
145.03 0 1
145.146 14092 118.71
145.262 14270 119.457
145.378 13903 117.911
145.494 13462 116.026
145.61 13397 115.745
145.726 12910 113.622
145.842 12865 113.424
145.959 12466 111.651
146.075 12990 113.974
146.192 13176 114.787
146.308 13740 117.218
146.425 14095 118.722
146.541 14124 118.844
146.658 14640 120.996
146.774 14810 121.696
146.891 15027 122.585
147.008 15151 123.089
147.125 14985 122.413
147.241 15105 122.902
147.358 14917 122.135
147.475 14936 122.213
147.592 14257 119.403
147.709 14033 118.461
147.826 13085 114.39
147.943 12847 113.345
148.06 12681 112.61
148.177 13340 115.499
148.294 13541 116.366
148.411 13958 118.144
148.528 14157 118.983
148.645 13948 118.102
148.762 13968 118.186
148.88 13677 116.949
148.997 13144 114.647
149.114 13576 116.516
149.231 12775 113.027
149.349 12596 112.232
149.466 12480 111.714
149.583 12043 109.741
149.701 12378 111.256
149.818 12481 111.718
149.935 13052 114.245
150.053 13644 116.808
150.17 13487 116.134
150.287 13879 117.809
150.405 14111 118.79
150.522 14233 119.302
150.64 14587 120.777
150.757 14765 121.511
150.875 14795 121.635
150.992 14484 120.349
151.11 13976 118.22
151.227 13987 118.267
151.344 13490 116.146
151.462 13045 114.215
151.579 12809 113.177
151.697 12982 113.939
151.814 13167 114.748
151.932 13777 117.375
152.049 14241 119.336
152.167 14109 118.781
152.284 14094 118.718
152.402 13951 118.114
152.519 13984 118.254
152.636 13523 116.288
152.754 13372 115.637
152.871 12995 113.996
152.989 12676 112.588
153.106 12617 112.325
153.223 12529 111.933
153.341 12775 113.027
153.458 13263 115.165
153.575 13676 116.944
153.693 13826 117.584
153.81 14217 119.235
153.927 14254 119.39
154.044 14905 122.086
154.162 15380 124.016
154.279 15387 124.044
154.396 15751 125.503
154.513 15552 124.708
154.63 15525 124.599
154.747 15308 123.726
154.864 15054 122.695
154.981 14834 121.795
155.098 14099 118.739
155.215 13746 117.243
155.332 13733 117.188
155.449 14382 119.925
155.566 14751 121.454
155.683 14700 121.244
155.8 14778 121.565
155.917 14711 121.289
156.033 14656 121.062
156.15 0 1
156.267 0 1
156.383 0 1
156.5 0 1
156.617 0 1
156.733 0 1
156.85 0 1
156.966 0 1
157.082 0 1
157.199 0 1
157.315 0 1
157.431 0 1
157.547 0 1
157.664 0 1
157.78 0 1
157.896 0 1
158.012 0 1
158.128 0 1
158.244 0 1
158.359 0 1
158.475 0 1
158.591 0 1
158.706 0 1
