
6.15755 0 1
6.2731 0 1
6.3887 0 1
6.50437 0 1
6.62009 0 1
6.73587 0 1
6.8517 0 1
6.96759 0 1
7.08353 0 1
7.19952 0 1
7.31557 0 1
7.43166 0 1
7.54781 0 1
7.664 0 1
7.78024 0 1
7.89653 0 1
8.01286 0 1
8.12924 0 1
8.24567 0 1
8.36213 0 1
8.47864 0 1
8.59519 0 1
8.71178 0 1
8.82841 0 1
8.94508 0 1
9.06179 0 1
9.17853 0 1
9.29531 0 1
9.41212 0 1
9.52897 0 1
9.64584 0 1
9.76276 0 1
9.8797 0 1
9.99667 0 1
10.1137 0 1
10.2307 0 1
10.3478 0 1
10.4648 0 1
10.5819 0 1
10.6991 0 1
10.8162 0 1
10.9334 0 1
11.0506 0 1
11.1678 0 1
11.285 0 1
11.4023 0 1
11.5196 0 1
11.6369 0 1
11.7542 0 1
11.8715 0 1
11.9888 0 1
12.1062 0 1
12.2235 0 1
12.3409 0 1
12.4582 0 1
12.5756 0 1
12.693 0 1
12.8104 0 1
12.9278 0 1
13.0452 0 1
13.1626 0 1
13.28 0 1
13.3974 0 1
13.5149 0 1
13.6323 0 1
13.7497 0 1
13.8671 0 1
13.9845 0 1
14.1019 0 1
14.2193 0 1
14.3367 0 1
14.4541 0 1
14.5714 0 1
14.6888 0 1
14.8062 0 1
14.9235 0 1
15.0408 0 0
15.1581 0 0
15.2755 0 0
15.3927 0 0
15.51 0 0
15.6273 0 0
15.7445 0 0
15.8617 0 0
15.9789 0 0
16.0961 0 0
16.2132 0 0
16.3304 0 0
16.4475 0 0
16.5646 0 0
16.6816 0 0
16.7986 0 0
16.9156 0 0
17.0326 0 0
17.1496 0 0
17.2665 0 0
17.3833 0 0
17.5002 0 0
17.617 0 0
17.7338 0 0
17.8505 0 0
17.9672 0 0
18.0839 0 0
18.2005 0 0
18.3171 0 0
18.4337 0 0
18.5502 0 0
18.6666 0 0
18.7831 0 0
18.8994 0 0
19.0158 0 0
19.1321 0 0
19.2483 0 0
19.3645 0 0
19.4806 0 0
19.5967 0 0
19.7128 0 0
19.8288 0 0
19.9447 0 0
20.0606 0 1
20.1764 0 1
20.2922 0 1
20.4079 0 1
20.5236 0 1
20.6392 0 1
20.7548 0 1
20.8702 0 1
23.3078 0 1
23.4233 0 1
23.539 0 1
23.6547 0 1
23.7704 0 1
23.8862 0 1
24.0021 0 1
24.118 0 1
24.234 0 1
24.35 0 1
24.4661 1514 38.9102
24.5822 1419 37.6696
24.6984 1397 37.3765
24.8146 1326 36.4143
24.9309 1241 35.2278
25.0472 1279 35.7631
25.1636 1240 35.2136
25.28 1314 36.2491
25.3965 1402 37.4433
25.513 1467 38.3014
25.6296 1594 39.9249
25.7462 1667 40.8289
25.8628 1598 39.975
25.9795 1595 39.9375
26.0962 1677 40.9512
26.213 1652 40.6448
26.3298 1623 40.2865
26.4466 1573 39.6611
26.5635 1580 39.7492
26.6804 1503 38.7685
26.7973 1471 38.3536
26.9143 1497 38.6911
27.0313 1566 39.5727
27.1483 1606 40.0749
27.2653 1646 40.5709
27.3824 1593 39.9124
27.4996 1628 40.3485
27.6167 1649 40.6079
27.7339 1561 39.5095
27.8511 1587 39.8372
27.9683 1477 38.4318
28.0855 1483 38.5097
28.2028 1374 37.0675
28.3201 1366 36.9594
28.4374 1247 35.3129
28.5547 1225 35
28.6721 1225 35
28.7894 1271 35.6511
28.9068 1311 36.2077
29.0242 1386 37.229
29.1416 1492 38.6264
29.259 1491 38.6135
29.3764 1594 39.9249
29.4939 1551 39.3827
29.6113 1547 39.3319
29.7288 1568 39.598
29.8463 1587 39.8372
29.9638 1520 38.9872
30.0812 1530 39.1152
30.1987 1422 37.7094
30.3162 1390 37.2827
30.4337 1404 37.47
30.5512 1482 38.4968
30.6687 1441 37.9605
30.7862 1588 39.8497
30.9037 1592 39.8999
31.0212 1535 39.1791
31.1387 1569 39.6106
31.2562 1609 40.1123
31.3737 1538 39.2173
31.4912 1465 38.2753
31.6087 1515 38.923
31.7262 1416 37.6298
31.8436 1314 36.2491
31.9611 1307 36.1525
32.0785 1215 34.8569
32.1959 1155 33.9853
32.3134 1237 35.171
32.4308 1338 36.5787
32.5482 1418 37.6563
32.6655 1524 39.0384
32.7829 1506 38.8072
32.9002 1604 40.05
33.0176 1578 39.724
33.1349 1592 39.8999
33.2522 1502 38.7556
33.3694 1559 39.4842
33.4867 1576 39.6989
33.6039 1582 39.7744
33.7211 1463 38.2492
33.8383 1464 38.2623
33.9554 1394 37.3363
34.0725 1463 38.2492
34.1896 1528 39.0896
34.3067 1465 38.2753
34.4237 1573 39.6611
34.5407 1593 39.9124
34.6577 1639 40.4846
34.7746 1514 38.9102
34.8915 1594 39.9249
35.0084 1645 40.5586
35.1252 1568 39.598
35.242 1484 38.5227
35.3587 1493 38.6394
35.4755 1420 37.6829
35.5921 1334 36.524
35.7088 1218 34.8999
35.8254 1139 33.7491
35.9419 1210 34.7851
36.0584 1206 34.7275
36.1749 1268 35.609
36.2913 1401 37.4299
36.4077 1509 38.8458
36.524 1551 39.3827
36.6403 1571 39.6358
36.7565 1576 39.6989
36.8727 1625 40.3113
36.9889 1596 39.95
37.1049 1579 39.7366
37.221 0 1
37.3369 0 1
37.4529 0 1
37.5687 0 1
37.6845 0 1
37.8003 0 1
37.916 0 1
38.0316 0 1
38.1472 0 1
40.5851 0 1
40.7008 0 1
40.8164 0 1
40.9322 0 1
41.048 0 1
41.1639 0 1
41.2798 0 1
41.3958 0 1
41.5118 0 1
41.6279 0 1
41.744 1325 36.4005
41.8602 1390 37.2827
41.9765 1391 37.2961
42.0928 1371 37.027
42.2091 1403 37.4566
42.3255 1417 37.6431
42.4419 1407 37.51
42.5584 1319 36.318
42.675 1337 36.565
42.7915 1343 36.647
42.9081 1306 36.1386
43.0248 1315 36.2629
43.1415 1359 36.8646
43.2582 1335 36.5377
43.375 1418 37.6563
43.4918 1414 37.6032
43.6087 1391 37.2961
43.7256 1343 36.647
43.8425 1361 36.8917
43.9595 1391 37.2961
44.0765 1286 35.8608
44.1935 1278 35.7491
44.3106 1142 33.7935
44.4277 1038 32.218
44.5448 853 29.2062
44.6619 915 30.249
44.7791 925 30.4138
44.8963 1007 31.7333
45.0136 1152 33.9411
45.1308 1202 34.6699
45.2481 1182 34.3802
45.3654 1280 35.7771
45.4827 1269 35.623
45.6001 1257 35.4542
45.7174 1217 34.8855
45.8348 1198 34.6121
45.9522 1237 35.171
46.0697 1150 33.9116
46.1871 1154 33.9706
46.3046 1135 33.6898
46.422 1116 33.4066
46.5395 1100 33.1662
46.657 1098 33.1361
46.7745 1158 34.0294
46.892 1211 34.7994
47.0096 1138 33.7343
47.1271 1189 34.4819
47.2446 1103 33.2114
47.3622 1103 33.2114
47.4797 1037 32.2025
47.5973 1022 31.9687
47.7149 1037 32.2025
47.8324 985 31.3847
47.95 936 30.5941
48.0675 801 28.3019
48.1851 707 26.5895
48.3027 795 28.1957
48.4202 819 28.6182
48.5378 934 30.5614
48.6554 1012 31.8119
48.7729 1058 32.5269
48.8904 1067 32.665
49.008 1038 32.218
49.1255 1052 32.4345
49.243 1049 32.3883
49.3605 1094 33.0757
49.478 1114 33.3766
49.5955 1124 33.5261
49.713 1137 33.7194
49.8304 1049 32.3883
49.9479 1066 32.6497
50.0653 1107 33.2716
50.1827 1150 33.9116
50.3001 1232 35.0999
50.4175 1325 36.4005
50.5348 1266 35.5809
50.6521 1283 35.819
50.7694 1348 36.7151
50.8867 1257 35.4542
51.004 1447 38.0395
51.1212 1391 37.2961
51.2384 1385 37.2156
51.3556 1361 36.8917
51.4727 1267 35.5949
51.5899 1161 34.0735
51.707 1083 32.909
51.824 1098 33.1361
51.9411 1198 34.6121
52.0581 1364 36.9324
52.175 1532 39.1408
52.2919 1591 39.8873
52.4088 1700 41.2311
52.5257 1708 41.328
52.6425 1720 41.4729
52.7593 1799 42.4146
52.876 1681 41
52.9927 1787 42.2729
53.1094 1866 43.1972
53.226 1832 42.8019
53.3426 1813 42.5793
53.4591 1795 42.3674
53.5756 1843 42.9302
53.692 1893 43.5086
53.8084 1864 43.1741
53.9248 1928 43.909
54.0411 1948 44.1362
54.1573 1953 44.1928
54.2735 0 1
54.3896 0 1
54.5057 0 1
54.6217 0 1
54.7377 0 1
54.8537 0 1
54.9695 0 1
55.0853 0 1
55.2011 0 1
55.3168 0 1
55.4324 0 1
57.824 0 1
57.9396 0 1
58.0553 0 1
58.1711 0 1
58.2869 0 1
58.4028 0 1
58.5187 0 1
58.6347 0 1
58.7508 0 1
58.8669 0 1
58.983 2623 51.2152
59.0992 2759 52.5262
59.2155 2839 53.2823
59.3318 2912 53.963
59.4482 2850 53.3854
59.5646 2737 52.3163
59.681 2911 53.9537
59.7975 2700 51.9615
59.9141 2603 51.0196
60.0306 2617 51.1566
60.1473 2408 49.0714
60.2639 2113 45.9674
60.3807 2028 45.0333
60.4974 2058 45.3652
60.6142 2202 46.9255
60.731 2454 49.5379
60.8479 2715 52.1057
60.9648 2855 53.4322
61.0818 2947 54.2863
61.1987 2870 53.5724
61.3158 2947 54.2863
61.4328 2992 54.6992
61.5499 2920 54.037
61.667 2904 53.8888
61.7841 2926 54.0925
61.9013 3074 55.4437
62.0185 2937 54.1941
62.1357 2875 53.619
62.253 3003 54.7996
62.3702 2921 54.0463
62.4875 3078 55.4797
62.6049 3104 55.7136
62.7222 3109 55.7584
62.8396 3081 55.5068
62.9569 3124 55.8928
63.0743 3151 56.1338
63.1918 3080 55.4977
63.3092 2902 53.8702
63.4267 2959 54.3967
63.5441 2794 52.8583
63.6616 2540 50.3984
63.7791 2333 48.3011
63.8966 2127 46.1194
64.0142 2205 46.9574
64.1317 2380 48.7852
64.2492 2601 51
64.3668 2973 54.5252
64.4843 3167 56.2761
64.6019 3151 56.1338
64.7195 3203 56.5951
64.837 3282 57.2887
64.9546 3385 58.1808
65.0722 3267 57.1577
65.1898 3332 57.7235
65.3074 3297 57.4195
65.4249 3182 56.4092
65.5425 3359 57.9569
65.6601 3193 56.5066
65.7777 3320 57.6194
65.8952 3355 57.9224
66.0128 3433 58.5918
66.1304 3418 58.4637
66.2479 3332 57.7235
66.3655 3506 59.2115
66.483 3571 59.7578
66.6005 3485 59.0339
66.718 3533 59.439
66.8355 3359 57.9569
66.953 3334 57.7408
67.0705 3310 57.5326
67.1879 3026 55.0091
67.3054 2899 53.8424
67.4228 2482 49.8197
67.5402 2350 48.4768
67.6576 2437 49.366
67.7749 2573 50.7247
67.8923 2981 54.5985
68.0096 3319 57.6108
68.1269 3613 60.1082
68.2442 3706 60.8769
68.3614 3741 61.1637
68.4787 3769 61.3922
68.5958 3779 61.4736
68.713 3826 61.8547
68.8302 3787 61.5386
68.9473 3824 61.8385
69.0643 3919 62.6019
69.1814 3753 61.2617
69.2984 3716 60.959
69.4154 3880 62.2896
69.5323 3816 61.7738
69.6492 3864 62.1611
69.7661 3814 61.7576
69.8829 3976 63.0555
69.9997 4055 63.6789
70.1165 4043 63.5846
70.2332 4044 63.5925
70.3499 4184 64.6838
70.4665 4037 63.5374
70.5831 3741 61.1637
70.6996 3805 61.6847
70.8161 3590 59.9166
70.9326 3295 57.4021
71.049 2954 54.3507
71.1653 2632 51.303
71.2817 2544 50.4381
71.3979 2809 53
71.5141 2958 54.3875
71.6303 3248 56.9912
71.7464 3436 58.6174
71.8624 0 1
71.9784 0 1
72.0944 0 1
72.2102 0 1
72.3261 0 1
72.4418 0 1
72.5575 0 1
72.6732 0 1
75.1054 0 1
75.2209 0 1
75.3365 0 1
75.4521 0 1
75.5678 0 1
75.6835 0 1
75.7993 0 1
75.9151 0 1
76.031 0 1
76.147 3451 58.7452
76.263 3566 59.716
76.3791 3227 56.8067
76.4952 2871 53.5817
76.6113 2847 53.3573
76.7276 2923 54.0648
76.8438 3330 57.7062
76.9601 3805 61.6847
77.0765 4040 63.561
77.1929 4386 66.2269
77.3093 4443 66.6558
77.4258 4461 66.7907
77.5423 4524 67.2607
77.6589 4500 67.082
77.7755 4536 67.3498
77.8921 4531 67.3127
78.0088 4504 67.1118
78.1256 4322 65.7419
78.2423 4230 65.0385
78.3591 4290 65.4981
78.4759 4331 65.8103
78.5928 4367 66.0833
78.7097 4285 65.4599
78.8266 4436 66.6033
78.9436 4059 63.7103
79.0606 4410 66.4078
79.1776 4373 66.1287
79.2946 4492 67.0224
79.4117 4326 65.7723
79.5288 4330 65.8027
79.6459 4137 64.3195
79.7631 3905 62.49
79.8802 3728 61.0574
79.9974 3395 58.2666
80.1147 2940 54.2218
80.2319 2744 52.3832
80.3491 2854 53.4228
80.4664 3237 56.8946
80.5837 3686 60.7124
80.701 4061 63.726
80.8183 4379 66.174
80.9357 4298 65.5591
81.053 4466 66.8281
81.1704 4353 65.9773
81.2877 4267 65.3223
81.4051 4289 65.4905
81.5225 4297 65.5515
81.6399 4217 64.9384
81.7573 4193 64.7534
81.8747 4241 65.123
81.9922 4140 64.3428
82.1096 4064 63.7495
82.227 4150 64.4205
82.3444 4135 64.304
82.4619 4068 63.7809
82.5793 4121 64.195
82.6967 4272 65.3605
82.8142 4177 64.6297
82.9316 4052 63.6553
83.049 4120 64.1872
83.1664 4019 63.3956
83.2838 3864 62.1611
83.4012 3569 59.7411
83.5186 3373 58.0775
83.636 3134 55.9821
83.7534 2940 54.2218
83.8708 2558 50.5767
83.9881 2691 51.8748
84.1055 2960 54.4059
84.2228 3394 58.258
84.3401 3755 61.2781
84.4575 4005 63.2851
84.5747 4156 64.467
84.692 4220 64.9615
84.8093 4231 65.0461
84.9265 4205 64.846
85.0437 4199 64.7997
85.1609 4201 64.8151
85.2781 4169 64.5678
85.3952 4229 65.0308
85.5123 4207 64.8614
85.6294 4169 64.5678
85.7465 4278 65.4064
85.8636 4270 65.3452
85.9806 4146 64.3894
86.0976 4267 65.3223
86.2145 4293 65.521
86.3315 4227 65.0154
86.4484 4468 66.8431
86.5652 4507 67.1342
86.682 4464 66.8132
86.7988 4416 66.453
86.9156 4238 65.0999
87.0323 3922 62.6259
87.149 3809 61.7171
87.2657 3377 58.112
87.3823 3139 56.0268
87.4988 3125 55.9017
87.6154 3273 57.2101
87.7318 3685 60.7042
87.8483 4158 64.4826
87.9647 4430 66.5582
88.081 4605 67.8602
88.1973 4793 69.2315
88.3136 4821 69.4334
88.4298 4804 69.3109
88.546 4815 69.3902
88.6621 4939 70.278
88.7781 4883 69.8785
88.8942 0 1
89.0101 0 1
89.126 0 1
89.2419 0 1
89.3577 0 1
89.4734 0 1
89.5891 0 1
89.7047 0 1
89.8203 0 1
89.9358 0 1
92.3269 0 1
92.4424 0 1
92.558 0 1
92.6736 0 1
92.7893 0 1
92.905 0 1
93.0208 0 1
93.1366 0 1
93.2525 0 1
93.3685 0 1
93.4845 0 1
93.6005 4870 69.7854
93.7167 4836 69.5414
93.8328 4828 69.4838
93.949 4758 68.9783
94.0653 4723 68.7241
94.1816 4707 68.6076
94.2979 4819 69.419
94.4143 4835 69.5342
94.5307 4819 69.419
94.6472 4725 68.7386
94.7637 4823 69.4478
94.8803 4802 69.2965
94.9969 4817 69.4046
95.1135 4728 68.7605
95.2302 4794 69.2387
95.3469 4849 69.6348
95.4637 4981 70.5762
95.5805 4977 70.5479
95.6973 4902 70.0143
95.8142 5022 70.8661
95.9311 4878 69.8427
96.048 4699 68.5493
96.1649 4401 66.34
96.2819 4139 64.3351
96.3989 3799 61.636
96.516 3443 58.6771
96.633 3242 56.9386
96.7501 3383 58.1636
96.8673 3757 61.2944
96.9844 4222 64.9769
97.1016 4527 67.283
97.2188 4904 70.0286
97.336 5140 71.6938
97.4532 5080 71.2741
97.5704 5161 71.8401
97.6877 5070 71.2039
97.805 5128 71.6101
97.9223 5069 71.1969
98.0396 5079 71.2671
98.1569 5204 72.1388
98.2743 4947 70.3349
98.3916 5065 71.1688
98.509 5193 72.0625
98.6264 4935 70.2496
98.7438 5077 71.2531
98.8612 4873 69.8069
98.9786 5063 71.1548
99.096 5170 71.9027
99.2134 5054 71.0915
99.3308 5253 72.4776
99.4482 5240 72.3878
99.5656 5079 71.2671
99.6831 4951 70.3633
99.8005 4690 68.4836
99.9179 4361 66.0379
100.035 4013 63.3482
100.153 3738 61.1392
100.27 3599 59.9917
100.388 3759 61.3107
100.505 4322 65.7419
100.622 4742 68.8622
100.74 5213 72.2011
100.857 5291 72.7393
100.975 5356 73.1847
101.092 5313 72.8903
101.209 5267 72.5741
101.327 5349 73.1369
101.444 5343 73.0958
101.561 5369 73.2735
101.679 5473 73.9797
101.796 5468 73.9459
101.913 5315 72.904
102.03 5255 72.4914
102.148 5411 73.5595
102.265 5665 75.2662
102.382 5176 71.9444
102.499 5450 73.8241
102.616 5423 73.641
102.733 5540 74.4312
102.851 5610 74.8999
102.968 5520 74.2967
103.085 5494 74.1215
103.202 5400 73.4847
103.319 5190 72.0417
103.436 4850 69.6419
103.552 4299 65.5668
103.669 3900 62.45
103.786 3888 62.3538
103.903 4181 64.6607
104.02 4709 68.6222
104.137 5212 72.1942
104.253 5534 74.3909
104.37 5544 74.458
104.487 5860 76.5506
104.603 5796 76.1315
104.72 5831 76.361
104.836 5871 76.6225
104.953 5967 77.2464
105.069 5883 76.7007
105.186 5947 77.1168
105.302 5817 76.2693
105.418 5764 75.921
105.535 5872 76.629
105.651 5801 76.1643
105.767 5910 76.8765
105.883 5821 76.2955
105.999 5939 77.0649
106.115 0 1
106.231 0 1
106.347 0 1
106.463 0 1
106.579 0 1
106.694 0 1
106.81 0 1
106.926 0 1
107.041 0 1
107.157 0 1
109.576 0 1
109.692 0 1
109.807 0 1
109.923 0 1
110.039 0 1
110.155 0 1
110.27 0 1
110.386 0 1
110.502 0 1
110.618 5341 73.0821
110.735 5526 74.3371
110.851 5510 74.2294
110.967 5543 74.4513
111.083 5618 74.9533
111.199 5522 74.3102
111.316 5561 74.5721
111.432 5607 74.8799
111.549 5506 74.2024
111.665 5381 73.3553
111.782 5243 72.4086
111.898 4855 69.6778
112.015 4376 66.1513
112.132 3985 63.1269
112.248 3643 60.3573
112.365 3773 61.4248
112.482 4363 66.053
112.599 4680 68.4105
112.716 5081 71.2811
112.832 5228 72.3049
112.949 5354 73.171
113.066 5257 72.5052
113.183 5192 72.0555
113.3 5148 71.7496
113.417 5243 72.4086
113.534 5063 71.1548
113.652 4969 70.4911
113.769 5006 70.7531
113.886 5116 71.5262
114.003 4897 69.9786
114.12 4947 70.3349
114.238 5013 70.8025
114.355 4909 70.0643
114.472 4846 69.6132
114.589 4809 69.347
114.707 4859 69.7065
114.824 4918 70.1285
114.942 4881 69.8642
115.059 4878 69.8427
115.176 4979 70.562
115.294 4744 68.8767
115.411 4494 67.0373
115.529 4147 64.3972
115.646 3682 60.6795
115.764 3517 59.3043
115.881 3445 58.6941
115.999 3749 61.2291
116.116 4103 64.0547
116.234 4451 66.7158
116.351 4860 69.7137
116.469 4962 70.4415
116.586 4986 70.6116
116.704 4965 70.4628
116.821 4959 70.4202
116.939 5095 71.3793
117.056 5053 71.0845
117.174 4861 69.7209
117.291 5065 71.1688
117.409 4965 70.4628
117.526 4983 70.5904
117.644 4995 70.6753
117.761 4823 69.4478
117.879 5047 71.0422
117.996 4938 70.2709
118.114 4972 70.5124
118.231 5083 71.2952
118.349 4984 70.5975
118.466 5072 71.218
118.584 5102 71.4283
118.701 5005 70.746
118.819 5039 70.9859
118.936 4804 69.3109
119.053 4607 67.8749
119.171 4304 65.6049
119.288 3783 61.5061
119.405 3497 59.1354
119.523 3440 58.6515
119.64 3712 60.9262
119.757 4138 64.3273
119.875 4533 67.3276
119.992 4812 69.3686
120.109 4883 69.8785
120.226 5056 71.1056
120.343 4905 70.0357
120.46 4934 70.2424
120.578 4839 69.5629
120.695 4944 70.3136
120.812 4974 70.5266
120.929 4937 70.2638
121.046 4885 69.8928
121.163 4839 69.5629
121.279 4837 69.5485
121.396 4910 70.0714
121.513 4768 69.0507
121.63 4919 70.1356
121.747 4817 69.4046
121.863 4864 69.7424
121.98 4918 70.1285
122.097 4905 70.0357
122.213 4694 68.5128
122.33 4902 70.0143
122.446 4834 69.527
122.563 4725 68.7386
122.679 4391 66.2646
122.795 4296 65.5439
122.912 4078 63.8592
123.028 3816 61.7738
123.144 3451 58.7452
123.26 3437 58.6259
123.377 0 1
123.493 0 1
123.609 0 1
123.725 0 1
123.84 0 1
123.956 0 1
124.072 0 1
124.188 0 1
124.303 0 1
124.419 0 1
126.852 0 1
126.968 0 1
127.083 0 1
127.199 0 1
127.315 0 1
127.431 0 1
127.547 0 1
127.663 0 1
127.779 0 1
127.895 0 1
128.011 0 1
128.127 0 1
128.243 0 1
128.359 4055 63.6789
128.476 3720 60.9918
128.592 4111 64.1171
128.708 4588 67.7348
128.825 5160 71.8331
128.941 5484 74.054
129.058 5401 73.4915
129.174 5493 74.1148
129.291 5513 74.2496
129.408 5460 73.8918
129.524 5330 73.0068
129.641 5464 73.9189
129.758 5433 73.7089
129.875 5385 73.3826
129.992 5290 72.7324
130.108 5324 72.9657
130.225 5279 72.6567
130.342 5184 72
130.459 5210 72.1803
130.576 5482 74.0405
130.693 5163 71.854
130.81 5281 72.6705
130.928 5290 72.7324
131.045 5295 72.7668
131.162 5213 72.2011
131.279 5234 72.3464
131.396 5149 71.7565
131.513 4947 70.3349
131.631 4748 68.9057
131.748 4553 67.4759
131.865 4220 64.9615
131.983 3834 61.9193
132.1 3908 62.514
132.217 4330 65.8027
132.335 4665 68.3008
132.452 4951 70.3633
132.57 5205 72.1457
132.687 5022 70.8661
132.804 5353 73.1642
132.922 5374 73.3076
133.039 5265 72.5603
133.157 5208 72.1665
133.274 5259 72.519
133.392 5260 72.5259
133.509 5063 71.1548
133.627 5238 72.374
133.744 5143 71.7147
133.862 4946 70.3278
133.979 5009 70.7743
134.097 4952 70.3704
134.214 5218 72.2357
134.332 4984 70.5975
134.449 4943 70.3065
134.567 5025 70.8872
134.684 5162 71.8471
134.802 5101 71.4213
134.919 5032 70.9366
135.037 4829 69.491
135.154 4825 69.4622
135.272 4432 66.5733
135.389 4237 65.0922
135.507 3936 62.7375
135.624 3664 60.531
135.742 3858 62.1128
135.859 4334 65.8331
135.977 4731 68.7823
136.094 5214 72.208
136.211 5113 71.5052
136.329 5161 71.8401
136.446 5173 71.9236
136.564 5067 71.1829
136.681 5264 72.5534
136.798 5052 71.0774
136.915 5290 72.7324
137.033 5078 71.2601
137.15 5034 70.9507
137.267 5088 71.3302
137.384 4986 70.6116
137.502 5007 70.7602
137.619 4788 69.1954
137.736 5001 70.7177
137.853 4840 69.5701
137.97 4834 69.527
138.087 5098 71.4003
138.204 5046 71.0352
138.321 4923 70.1641
138.438 5091 71.3512
138.555 5009 70.7743
138.672 4814 69.383
138.788 4786 69.1809
138.905 4589 67.7422
139.022 4476 66.9029
139.139 3929 62.6817
139.255 3710 60.9098
139.372 3863 62.153
139.488 4314 65.681
139.605 4718 68.6877
139.721 4947 70.3349
139.838 5071 71.211
139.954 5127 71.6031
140.071 5024 70.8802
140.187 5135 71.6589
140.303 5154 71.7914
140.419 5068 71.1899
140.535 5172 71.9166
140.652 4872 69.7997
140.768 0 1
140.884 0 1
141 0 1
141.115 0 1
141.231 0 1
141.347 0 1
141.463 0 1
141.578 0 1
141.694 0 1
144.104 0 1
144.219 0 1
144.335 0 1
144.45 0 1
144.566 0 1
144.682 0 1
144.798 0 1
144.914 0 1
145.03 0 1
145.146 4352 65.9697
145.262 4444 66.6633
145.378 4470 66.8581
145.494 4409 66.4003
145.61 4384 66.2118
145.726 4383 66.2042
145.842 4279 65.4141
145.959 4164 64.5291
146.075 4306 65.6201
146.192 4146 64.3894
146.308 4096 64
146.425 4044 63.5925
146.541 4184 64.6838
146.658 4114 64.1405
146.774 4099 64.0234
146.891 4242 65.1306
147.008 4199 64.7997
147.125 4208 64.8691
147.241 4160 64.4981
147.358 4006 63.293
147.475 3764 61.3514
147.592 3769 61.3922
147.709 3460 58.8218
147.826 3067 55.3805
147.943 3183 56.4181
148.06 3478 58.9746
148.177 3755 61.2781
148.294 4137 64.3195
148.411 4081 63.8827
148.528 4136 64.3117
148.645 4024 63.435
148.762 4127 64.2417
148.88 4212 64.8999
148.997 3899 62.442
149.114 4283 65.4446
149.231 4114 64.1405
149.349 3974 63.0397
149.466 3865 62.1691
149.583 3793 61.5873
149.701 3842 61.9839
149.818 3704 60.8605
149.935 3835 61.9274
150.053 3761 61.327
150.17 3701 60.8358
150.287 3862 62.145
150.405 3924 62.6418
150.522 3935 62.7296
150.64 3819 61.7981
150.757 3915 62.57
150.875 3960 62.9285
150.992 3821 61.8142
151.11 3620 60.1664
151.227 3418 58.4637
151.344 3265 57.1402
151.462 2898 53.8331
151.579 3061 55.3263
151.697 3274 57.2189
151.814 3719 60.9836
151.932 3935 62.7296
152.049 4019 63.3956
152.167 4104 64.0625
152.284 4079 63.867
152.402 3934 62.7216
152.519 3981 63.0952
152.636 4061 63.726
152.754 4019 63.3956
152.871 3816 61.7738
152.989 3890 62.3699
153.106 3967 62.9841
153.223 3917 62.5859
153.341 3669 60.5723
153.458 3719 60.9836
153.575 3647 60.3904
153.693 3637 60.3075
153.81 3756 61.2862
153.927 3912 62.546
154.044 3794 61.5955
154.162 3960 62.9285
154.279 3949 62.8411
154.396 4047 63.616
154.513 4088 63.9375
154.63 4039 63.5531
154.747 3713 60.9344
154.864 3674 60.6135
154.981 3317 57.5934
155.098 3142 56.0535
155.215 3262 57.1139
155.332 3650 60.4152
155.449 3791 61.5711
155.566 3932 62.7057
155.683 4009 63.3167
155.8 4035 63.5216
155.917 4128 64.2495
156.033 4146 64.3894
156.15 0 1
156.267 0 1
156.383 0 1
156.5 0 1
156.617 0 1
156.733 0 1
156.85 0 1
156.966 0 1
157.082 0 1
157.199 0 1
157.315 0 1
157.431 0 1
157.547 0 1
157.664 0 1
157.78 0 1
157.896 0 1
158.012 0 1
158.128 0 1
158.244 0 1
158.359 0 1
158.475 0 1
158.591 0 1
158.706 0 1
