
6.15755 0 1
6.2731 0 1
6.3887 0 1
6.50437 0 1
6.62009 0 1
6.73587 0 1
6.8517 0 1
6.96759 0 1
7.08353 0 1
7.19952 0 1
7.31557 0 1
7.43166 0 1
7.54781 0 1
7.664 0 1
7.78024 0 1
7.89653 0 1
8.01286 0 1
8.12924 0 1
8.24567 0 1
8.36213 0 1
8.47864 0 1
8.59519 0 1
8.71178 0 1
8.82841 0 1
8.94508 0 1
9.06179 0 1
9.17853 0 1
9.29531 0 1
9.41212 0 1
9.52897 0 1
9.64584 0 1
9.76276 0 1
9.8797 0 1
9.99667 0 1
10.1137 0 1
10.2307 0 1
10.3478 0 1
10.4648 0 1
10.5819 0 1
10.6991 0 1
10.8162 0 1
10.9334 0 1
11.0506 0 1
11.1678 0 1
11.285 0 1
11.4023 0 1
11.5196 0 1
11.6369 0 1
11.7542 0 1
11.8715 0 1
11.9888 0 1
12.1062 0 1
12.2235 0 1
12.3409 0 1
12.4582 0 1
12.5756 0 1
12.693 0 1
12.8104 0 1
12.9278 0 1
13.0452 0 1
13.1626 0 1
13.28 0 1
13.3974 0 1
13.5149 0 1
13.6323 0 1
13.7497 0 1
13.8671 0 1
13.9845 0 1
14.1019 0 1
14.2193 0 1
14.3367 0 1
14.4541 0 1
14.5714 0 1
14.6888 0 1
14.8062 0 1
14.9235 0 1
15.0408 0 0
15.1581 0 0
15.2755 0 0
15.3927 0 0
15.51 0 0
15.6273 0 0
15.7445 0 0
15.8617 0 0
15.9789 0 0
16.0961 0 0
16.2132 0 0
16.3304 0 0
16.4475 0 0
16.5646 0 0
16.6816 0 0
16.7986 0 0
16.9156 0 0
17.0326 0 0
17.1496 0 0
17.2665 0 0
17.3833 0 0
17.5002 0 0
17.617 0 0
17.7338 0 0
17.8505 0 0
17.9672 0 0
18.0839 0 0
18.2005 0 0
18.3171 0 0
18.4337 0 0
18.5502 0 0
18.6666 0 0
18.7831 0 0
18.8994 0 0
19.0158 0 0
19.1321 0 0
19.2483 0 0
19.3645 0 0
19.4806 0 0
19.5967 0 0
19.7128 0 0
19.8288 0 0
19.9447 0 0
20.0606 0 1
20.1764 0 1
20.2922 0 1
20.4079 0 1
20.5236 0 1
20.6392 0 1
20.7548 0 1
20.8702 0 1
23.3078 0 1
23.4233 0 1
23.539 0 1
23.6547 0 1
23.7704 0 1
23.8862 0 1
24.0021 0 1
24.118 0 1
24.234 0 1
24.35 0 1
24.4661 32340 179.833
24.5822 32617 180.602
24.6984 32486 180.239
24.8146 32197 179.435
24.9309 31937 178.709
25.0472 31559 177.649
25.1636 31627 177.84
25.28 32071 179.084
25.3965 32665 180.735
25.513 33185 182.168
25.6296 34466 185.65
25.7462 35514 188.452
25.8628 36598 191.306
25.9795 37033 192.44
26.0962 37322 193.189
26.213 37676 194.103
26.3298 37204 192.883
26.4466 37084 192.572
26.5635 36807 191.852
26.6804 36191 190.239
26.7973 34798 186.542
26.9143 34622 186.07
27.0313 34555 185.89
27.1483 35337 187.981
27.2653 36230 190.342
27.3824 37060 192.51
27.4996 37096 192.603
27.6167 36012 189.768
27.7339 35688 188.913
27.8511 34970 187.003
27.9683 34599 186.008
28.0855 33608 183.325
28.2028 32663 180.729
28.3201 32819 181.16
28.4374 32142 179.282
28.5547 31055 176.224
28.6721 30762 175.391
28.7894 30473 174.565
28.9068 30853 175.65
29.0242 31408 177.223
29.1416 31966 178.79
29.259 32695 180.818
29.3764 33543 183.147
29.4939 33850 183.984
29.6113 35001 187.086
29.7288 35706 188.96
29.8463 35067 187.262
29.9638 35554 188.558
30.0812 35329 187.96
30.1987 34510 185.769
30.3162 33204 182.22
30.4337 32440 180.111
30.5512 32993 181.64
30.6687 34271 185.124
30.7862 34417 185.518
30.9037 35027 187.155
31.0212 35750 189.077
31.1387 35678 188.886
31.2562 35328 187.957
31.3737 34414 185.51
31.4912 34456 185.623
31.6087 33479 182.973
31.7262 32857 181.265
31.8436 32346 179.85
31.9611 31898 178.6
32.0785 31123 176.417
32.1959 30187 173.744
32.3134 30386 174.316
32.4308 30341 174.187
32.5482 30881 175.73
32.6655 31919 178.659
32.7829 32105 179.179
32.9002 33131 182.019
33.0176 33532 183.117
33.1349 34456 185.623
33.2522 34113 184.697
33.3694 35437 188.247
33.4867 35460 188.308
33.6039 35400 188.149
33.7211 35107 187.369
33.8383 34486 185.704
33.9554 33092 181.912
34.0725 31664 177.944
34.1896 31655 177.919
34.3067 32912 181.417
34.4237 33985 184.35
34.5407 34727 186.352
34.6577 35166 187.526
34.7746 34822 186.607
34.8915 34709 186.304
35.0084 34574 185.941
35.1252 33548 183.161
35.242 33648 183.434
35.3587 32783 181.061
35.4755 32062 179.059
35.5921 31745 178.171
35.7088 31665 177.947
35.8254 30431 174.445
35.9419 29959 173.087
36.0584 29428 171.546
36.1749 29531 171.846
36.2913 30143 173.617
36.4077 30563 174.823
36.524 31215 176.678
36.6403 32010 178.913
36.7565 33007 181.678
36.8727 33836 183.946
36.9889 34202 184.938
37.1049 34184 184.889
37.221 0 1
37.3369 0 1
37.4529 0 1
37.5687 0 1
37.6845 0 1
37.8003 0 1
37.916 0 1
38.0316 0 1
38.1472 0 1
40.5851 0 1
40.7008 0 1
40.8164 0 1
40.9322 0 1
41.048 0 1
41.1639 0 1
41.2798 0 1
41.3958 0 1
41.5118 0 1
41.6279 0 1
41.744 24732 157.264
41.8602 26504 162.8
41.9765 27673 166.352
42.0928 28468 168.725
42.2091 28590 169.086
42.3255 29332 171.266
42.4419 29275 171.099
42.5584 29471 171.671
42.675 27647 166.274
42.7915 26157 161.731
42.9081 25356 159.236
43.0248 25771 160.533
43.1415 27247 165.067
43.2582 28084 167.583
43.375 28212 167.964
43.4918 28597 169.106
43.6087 28592 169.092
43.7256 27966 167.23
43.8425 27756 166.601
43.9595 27070 164.53
44.0765 26635 163.202
44.1935 25977 161.174
44.3106 25105 158.446
44.4277 24487 156.483
44.5448 23381 152.908
44.6619 22363 149.543
44.7791 21743 147.455
44.8963 21625 147.054
45.0136 21673 147.218
45.1308 21540 146.765
45.2481 21985 148.273
45.3654 22121 148.731
45.4827 23923 154.671
45.6001 23691 153.919
45.7174 24095 155.226
45.8348 24108 155.268
45.9522 23652 153.792
46.0697 23464 153.18
46.1871 22607 150.356
46.3046 21086 145.21
46.422 20402 142.836
46.5395 20211 142.165
46.657 20727 143.969
46.7745 21729 147.408
46.892 22139 148.792
47.0096 22139 148.792
47.1271 22158 148.856
47.2446 22103 148.671
47.3622 21553 146.809
47.4797 21175 145.516
47.5973 20581 143.461
47.7149 19958 141.273
47.8324 19421 139.359
47.95 18438 135.787
48.0675 18075 134.443
48.1851 16981 130.311
48.3027 16566 128.709
48.4202 16144 127.059
48.5378 16193 127.252
48.6554 16434 128.195
48.7729 16753 129.433
48.8904 17149 130.954
49.008 17962 134.022
49.1255 18592 136.352
49.243 18854 137.31
49.3605 18909 137.51
49.478 18961 137.699
49.5955 18723 136.832
49.713 17880 133.716
49.8304 17017 130.449
49.9479 16530 128.569
50.0653 16595 128.822
50.1827 18068 134.417
50.3001 19174 138.47
50.4175 20084 141.718
50.5348 21113 145.303
50.6521 21388 146.246
50.7694 21850 147.817
50.8867 22128 148.755
51.004 22254 149.178
51.1212 22585 150.283
51.2384 22834 151.109
51.3556 22757 150.854
51.4727 22246 149.151
51.5899 22154 148.842
51.707 21323 146.024
51.824 20896 144.554
51.9411 21112 145.3
52.0581 22032 148.432
52.175 22665 150.549
52.2919 23985 154.871
52.4088 25045 158.256
52.5257 26372 162.395
52.6425 27066 164.517
52.7593 27596 166.12
52.876 27975 167.257
52.9927 28529 168.905
53.1094 29105 170.602
53.226 28503 168.828
53.3426 27761 166.616
53.4591 26380 162.419
53.5756 25602 160.006
53.692 26472 162.702
53.8084 27925 167.108
53.9248 29861 172.803
54.0411 31051 176.213
54.1573 32356 179.878
54.2735 0 1
54.3896 0 1
54.5057 0 1
54.6217 0 1
54.7377 0 1
54.8537 0 1
54.9695 0 1
55.0853 0 1
55.2011 0 1
55.3168 0 1
55.4324 0 1
57.824 0 1
57.9396 0 1
58.0553 0 1
58.1711 0 1
58.2869 0 1
58.4028 0 1
58.5187 0 1
58.6347 0 1
58.7508 0 1
58.8669 0 1
58.983 33375 182.688
59.0992 35817 189.254
59.2155 37191 192.85
59.3318 38846 197.094
59.4482 39150 197.864
59.5646 39147 197.856
59.681 39565 198.91
59.7975 38677 196.665
59.9141 37633 193.992
60.0306 36243 190.376
60.1473 35401 188.152
60.2639 33968 184.304
60.3807 31989 178.855
60.4974 30615 174.971
60.6142 29743 172.462
60.731 29686 172.296
60.8479 30061 173.381
60.9648 31027 176.145
61.0818 32604 180.566
61.1987 33796 183.837
61.3158 34783 186.502
61.4328 34481 185.691
61.5499 34663 186.18
61.667 34359 185.362
61.7841 33540 183.139
61.9013 31884 178.561
62.0185 30093 173.473
62.1357 29337 171.28
62.253 29849 172.769
62.3702 31313 176.955
62.4875 32405 180.014
62.6049 33806 183.864
62.7222 35278 187.824
62.8396 34925 186.882
62.9569 36042 189.847
63.0743 35960 189.631
63.1918 35649 188.809
63.3092 35303 187.891
63.4267 33995 184.377
63.5441 32763 181.006
63.6616 31520 177.539
63.7791 30167 173.686
63.8966 28532 168.914
64.0142 27529 165.919
64.1317 26806 163.725
64.2492 26266 162.068
64.3668 26652 163.254
64.4843 27854 166.895
64.6019 29190 170.851
64.7195 30946 175.915
64.837 31508 177.505
64.9546 31648 177.899
65.0722 31457 177.361
65.1898 31540 177.595
65.3074 31376 177.133
65.4249 29356 171.336
65.5425 27959 167.209
65.6601 26744 163.536
65.7777 26364 162.37
65.8952 27610 166.163
66.0128 29222 170.944
66.1304 31055 176.224
66.2479 31744 178.168
66.3655 32794 181.091
66.483 33760 183.739
66.6005 34200 184.932
66.718 34038 184.494
66.8355 33821 183.905
66.953 33881 184.068
67.0705 32701 180.834
67.1879 31132 176.443
67.3054 30161 173.669
67.4228 29095 170.573
67.5402 27684 166.385
67.6576 25507 159.709
67.7749 25400 159.374
67.8923 25662 160.194
68.0096 26874 163.933
68.1269 28633 169.213
68.2442 31346 177.048
68.3614 33498 183.025
68.4787 35260 187.776
68.5958 36048 189.863
68.713 37692 194.144
68.8302 38409 195.982
68.9473 38583 196.426
69.0643 38081 195.144
69.1814 36785 191.794
69.2984 36684 191.531
69.4154 37614 193.943
69.5323 40868 202.158
69.6492 45074 212.306
69.7661 48631 220.524
69.8829 53191 230.632
69.9997 55877 236.383
70.1165 58081 241
70.2332 60598 246.167
70.3499 61553 248.099
70.4665 62702 250.404
70.5831 62884 250.767
70.6996 63047 251.092
70.8161 62573 250.146
70.9326 62428 249.856
71.049 60585 246.14
71.1653 58398 241.657
71.2817 54820 234.137
71.3979 51987 228.007
71.5141 52935 230.076
71.6303 54693 233.865
71.7464 53225 230.705
71.8624 0 1
71.9784 0 1
72.0944 0 1
72.2102 0 1
72.3261 0 1
72.4418 0 1
72.5575 0 1
72.6732 0 1
75.1054 0 1
75.2209 0 1
75.3365 0 1
75.4521 0 1
75.5678 0 1
75.6835 0 1
75.7993 0 1
75.9151 0 1
76.031 0 1
76.147 63605 252.2
76.263 68337 261.413
76.3791 68068 260.898
76.4952 64615 254.195
76.6113 59813 244.567
76.7276 56261 237.194
76.8438 55464 235.508
76.9601 55837 236.299
77.0765 56491 237.678
77.1929 58618 242.112
77.3093 61566 248.125
77.4258 61599 248.191
77.5423 60534 246.037
77.6589 59163 243.234
77.7755 58284 241.421
77.8921 54903 234.314
78.0088 50423 224.551
78.1256 44921 211.946
78.2423 40721 201.794
78.3591 37731 194.245
78.4759 36795 191.82
78.5928 39241 198.093
78.7097 41399 203.467
78.8266 43095 207.593
78.9436 44072 209.933
79.0606 44038 209.852
79.1776 44007 209.778
79.2946 43237 207.935
79.4117 42766 206.799
79.5288 41577 203.904
79.6459 40078 200.195
79.7631 37347 193.254
79.8802 35526 188.483
79.9974 33337 182.584
80.1147 31265 176.819
80.2319 28681 169.355
80.3491 26815 163.753
80.4664 26227 161.948
80.5837 26226 161.944
80.701 26979 164.253
80.8183 28678 169.346
80.9357 30265 173.968
81.053 31511 177.513
81.1704 31677 177.98
81.2877 31709 178.07
81.4051 31580 177.708
81.5225 31615 177.806
81.6399 29223 170.947
81.7573 27939 167.15
81.8747 25860 160.81
81.9922 24873 157.712
82.1096 25317 159.113
82.227 26974 164.238
82.3444 28884 169.953
82.4619 30840 175.613
82.5793 33119 181.986
82.6967 32836 181.207
82.8142 33698 183.57
82.9316 34750 186.414
83.049 34924 186.88
83.1664 34310 185.23
83.2838 34439 185.577
83.4012 33533 183.12
83.5186 32914 181.422
83.636 31695 178.031
83.7534 30585 174.886
83.8708 28669 169.319
83.9881 27627 166.214
84.1055 27524 165.904
84.2228 28963 170.185
84.3401 30968 175.977
84.4575 33938 184.223
84.5747 36297 190.518
84.692 39198 197.985
84.8093 40663 201.651
84.9265 40590 201.47
85.0437 40864 202.148
85.1609 39822 199.555
85.2781 37336 193.225
85.3952 35704 188.955
85.5123 34188 184.9
85.6294 34308 185.224
85.7465 36707 191.591
85.8636 39954 199.885
85.9806 43213 207.877
86.0976 45944 214.346
86.2145 48598 220.45
86.3315 50209 224.074
86.4484 52172 228.412
86.5652 52274 228.635
86.682 53601 231.519
86.7988 53017 230.254
86.9156 52215 228.506
87.0323 51312 226.522
87.149 49438 222.347
87.2657 48141 219.411
87.3823 45685 213.74
87.4988 42638 206.49
87.6154 42014 204.973
87.7318 42985 207.328
87.8483 45195 212.591
87.9647 48672 220.617
88.081 52027 228.094
88.1973 54270 232.959
88.3136 55466 235.512
88.4298 55904 236.44
88.546 55298 235.155
88.6621 53607 231.532
88.7781 50179 224.007
88.8942 0 1
89.0101 0 1
89.126 0 1
89.2419 0 1
89.3577 0 1
89.4734 0 1
89.5891 0 1
89.7047 0 1
89.8203 0 1
89.9358 0 1
92.3269 0 1
92.4424 0 1
92.558 0 1
92.6736 0 1
92.7893 0 1
92.905 0 1
93.0208 0 1
93.1366 0 1
93.2525 0 1
93.3685 0 1
93.4845 0 1
93.6005 43362 208.235
93.7167 43636 208.892
93.8328 43765 209.201
93.949 43386 208.293
94.0653 41739 204.301
94.1816 39892 199.73
94.2979 36907 192.112
94.4143 34200 184.932
94.5307 32130 179.248
94.6472 31696 178.034
94.7637 32064 179.064
94.8803 34101 184.665
94.9969 36181 190.213
95.1135 37670 194.088
95.2302 38979 197.431
95.3469 39966 199.915
95.4637 40505 201.259
95.5805 40494 201.231
95.6973 41266 203.14
95.8142 41110 202.756
95.9311 39612 199.028
96.048 38673 196.655
96.1649 37317 193.176
96.2819 36054 189.879
96.3989 34309 185.227
96.516 32799 181.105
96.633 30647 175.063
96.7501 29542 171.878
96.8673 29268 171.079
96.9844 30577 174.863
97.1016 32150 179.304
97.2188 34050 184.526
97.336 35603 188.688
97.4532 37161 192.772
97.5704 36934 192.182
97.6877 35832 189.293
97.805 34812 186.58
97.9223 32627 180.629
98.0396 30859 175.667
98.1569 29098 170.581
98.2743 28266 168.125
98.3916 29112 170.622
98.509 30184 173.735
98.6264 32855 181.259
98.7438 35323 187.944
98.8612 36954 192.234
98.9786 38230 195.525
99.096 38840 197.079
99.2134 39386 198.459
99.3308 40168 200.42
99.4482 39794 199.484
99.5656 38953 197.365
99.6831 38554 196.352
99.8005 36904 192.104
99.9179 35764 189.114
100.035 34204 184.943
100.153 32164 179.343
100.27 30171 173.698
100.388 29789 172.595
100.505 30799 175.496
100.622 32587 180.519
100.74 34155 184.811
100.857 36363 190.691
100.975 37115 192.653
101.092 37339 193.233
101.209 37266 193.044
101.327 36266 190.436
101.444 34665 186.185
101.561 32534 180.372
101.679 30606 174.946
101.796 29620 172.105
101.913 29169 170.789
102.03 30919 175.838
102.148 33199 182.206
102.265 38493 196.196
102.382 35748 189.071
102.499 39576 198.937
102.616 40213 200.532
102.733 41311 203.251
102.851 41919 204.741
102.968 41857 204.59
103.085 41900 204.695
103.202 40411 201.025
103.319 39584 198.957
103.436 38192 195.428
103.552 36140 190.105
103.669 34483 185.696
103.786 32602 180.56
103.903 32288 179.689
104.02 33250 182.346
104.137 34806 186.564
104.253 37969 194.856
104.37 37527 193.719
104.487 39831 199.577
104.603 39991 199.977
104.72 39428 198.565
104.836 38383 195.916
104.953 36765 191.742
105.069 33925 184.187
105.186 32742 180.948
105.302 31871 178.525
105.418 32182 179.393
105.535 34403 185.48
105.651 37615 193.946
105.767 39548 198.867
105.883 41951 204.819
105.999 42739 206.734
106.115 0 1
106.231 0 1
106.347 0 1
106.463 0 1
106.579 0 1
106.694 0 1
106.81 0 1
106.926 0 1
107.041 0 1
107.157 0 1
109.576 0 1
109.692 0 1
109.807 0 1
109.923 0 1
110.039 0 1
110.155 0 1
110.27 0 1
110.386 0 1
110.502 0 1
110.618 32974 181.587
110.735 36592 191.29
110.851 38805 196.99
110.967 40301 200.751
111.083 41362 203.376
111.199 42559 206.298
111.316 43431 208.401
111.432 43796 209.275
111.549 43046 207.475
111.665 42276 205.611
111.782 41194 202.963
111.898 40188 200.469
112.015 38718 196.769
112.132 36453 190.927
112.248 34473 185.669
112.365 33397 182.748
112.482 33370 182.675
112.599 34084 184.619
112.716 36152 190.137
112.832 37704 194.175
112.949 38261 195.604
113.066 38353 195.839
113.183 38451 196.089
113.3 37753 194.301
113.417 36109 190.024
113.534 34167 184.843
113.652 32235 179.541
113.769 31061 176.241
113.886 30247 173.917
114.003 30221 173.842
114.12 32879 181.326
114.238 35616 188.722
114.355 37404 193.401
114.472 40821 202.042
114.589 37705 194.178
114.707 40336 200.838
114.824 41240 203.076
114.942 42050 205.061
115.059 41878 204.641
115.176 41853 204.58
115.294 41037 202.576
115.411 40022 200.055
115.529 39171 197.917
115.646 37826 194.489
115.764 36369 190.707
115.881 34387 185.437
115.999 33932 184.206
116.116 35143 187.465
116.234 37013 192.388
116.351 37912 194.71
116.469 38996 197.474
116.586 39421 198.547
116.704 39382 198.449
116.821 39517 198.789
116.939 38136 195.284
117.056 36076 189.937
117.174 34802 186.553
117.291 33024 181.725
117.409 31799 178.323
117.526 31786 178.286
117.644 33643 183.42
117.761 35866 189.383
117.879 38222 195.504
117.996 39312 198.273
118.114 40820 202.04
118.231 41810 204.475
118.349 42491 206.133
118.466 43115 207.642
118.584 43287 208.055
118.701 43262 207.995
118.819 42651 206.521
118.936 41932 204.773
119.053 40472 201.177
119.171 39590 198.972
119.288 38255 195.589
119.405 36463 190.953
119.523 34990 187.056
119.64 35462 188.314
119.757 36580 191.259
119.875 37572 193.835
119.992 38521 196.268
120.109 39445 198.608
120.226 39232 198.071
120.343 39160 197.889
120.46 39169 197.912
120.578 38564 196.377
120.695 36479 190.995
120.812 35028 187.158
120.929 33412 182.789
121.046 32876 181.317
121.163 32276 179.655
121.279 33228 182.285
121.396 35369 188.066
121.513 37540 193.752
121.63 39020 197.535
121.747 40689 201.715
121.863 41634 204.044
121.98 42261 205.575
122.097 43332 208.163
122.213 42961 207.27
122.33 43287 208.055
122.446 42897 207.116
122.563 42262 205.577
122.679 41313 203.256
122.795 39910 199.775
122.912 39431 198.572
123.028 38413 195.992
123.144 36528 191.123
123.26 35580 188.627
123.377 0 1
123.493 0 1
123.609 0 1
123.725 0 1
123.84 0 1
123.956 0 1
124.072 0 1
124.188 0 1
124.303 0 1
124.419 0 1
126.852 0 1
126.968 0 1
127.083 0 1
127.199 0 1
127.315 0 1
127.431 0 1
127.547 0 1
127.663 0 1
127.779 0 1
127.895 0 1
128.011 0 1
128.127 0 1
128.243 0 1
128.359 49236 221.892
128.476 48537 220.311
128.592 49416 222.297
128.708 51123 226.104
128.825 53072 230.374
128.941 54799 234.092
129.058 55597 235.79
129.174 55826 236.275
129.291 54941 234.395
129.408 54650 233.773
129.524 52718 229.604
129.641 50423 224.551
129.758 48037 219.173
129.875 46499 215.636
129.992 45081 212.323
130.108 44666 211.343
130.225 46273 215.112
130.342 47858 218.765
130.459 49675 222.879
130.576 53429 231.147
130.693 53584 231.482
130.81 54717 233.917
130.928 55270 235.096
131.045 56094 236.842
131.162 56527 237.754
131.279 56786 238.298
131.396 56509 237.716
131.513 55322 235.206
131.631 54052 232.491
131.748 53492 231.283
131.865 51558 227.064
131.983 50448 224.606
132.1 50433 224.573
132.217 51860 227.728
132.335 53497 231.294
132.452 53853 232.062
132.57 54477 233.403
132.687 52663 229.484
132.804 56533 237.767
132.922 53879 232.119
133.039 52230 228.539
133.157 49872 223.32
133.274 47619 218.218
133.392 46151 214.828
133.509 44365 210.63
133.627 44243 210.34
133.744 44871 211.828
133.862 46630 215.94
133.979 48909 221.154
134.097 49807 223.175
134.214 51686 227.346
134.332 52197 228.467
134.449 53372 231.024
134.567 54603 233.673
134.684 54916 234.342
134.802 54681 233.84
134.919 55409 235.391
135.037 55118 234.772
135.154 53661 231.648
135.272 52387 228.882
135.389 51484 226.901
135.507 50083 223.792
135.624 49997 223.6
135.742 50877 225.559
135.859 52267 228.62
135.977 53054 230.335
136.094 54128 232.654
136.211 54261 232.94
136.329 54334 233.097
136.446 54072 232.534
136.564 52662 229.482
136.681 50468 224.651
136.798 48602 220.459
136.915 47021 216.843
137.033 45419 213.117
137.15 44039 209.855
137.267 43768 209.208
137.384 45282 212.796
137.502 46818 216.375
137.619 47818 218.673
137.736 49481 222.443
137.853 49571 222.645
137.97 52158 228.381
138.087 51729 227.44
138.204 53367 231.013
138.321 54135 232.669
138.438 54905 234.318
138.555 55783 236.184
138.672 55309 235.179
138.788 54457 233.36
138.905 53574 231.461
139.022 51997 228.029
139.139 51109 226.073
139.255 51619 227.198
139.372 52870 229.935
139.488 54085 232.562
139.605 56133 236.924
139.721 55983 236.607
139.838 56102 236.859
139.954 56265 237.202
140.071 55191 234.928
140.187 54781 234.053
140.303 52862 229.917
140.419 50510 224.744
140.535 48550 220.341
140.652 46908 216.583
140.768 0 1
140.884 0 1
141 0 1
141.115 0 1
141.231 0 1
141.347 0 1
141.463 0 1
141.578 0 1
141.694 0 1
144.104 0 1
144.219 0 1
144.335 0 1
144.45 0 1
144.566 0 1
144.682 0 1
144.798 0 1
144.914 0 1
145.03 0 1
145.146 57561 239.919
145.262 57386 239.554
145.378 55385 235.34
145.494 53999 232.377
145.61 52508 229.146
145.726 50985 225.799
145.842 50543 224.818
145.959 50437 224.582
146.075 52107 228.27
146.192 53549 231.407
146.308 55840 236.305
146.425 55806 236.233
146.541 57059 238.87
146.658 57662 240.129
146.774 59166 243.241
146.891 59840 244.622
147.008 60153 245.261
147.125 61716 248.427
147.241 61816 248.628
147.358 60340 245.642
147.475 58838 242.565
147.592 57257 239.284
147.709 55827 236.277
147.826 55857 236.341
147.943 57058 238.868
148.06 58054 240.944
148.177 58798 242.483
148.294 59647 244.227
148.411 59260 243.434
148.528 59281 243.477
148.645 58511 241.89
148.762 58113 241.066
148.88 55959 236.557
148.997 53289 230.844
149.114 53622 231.564
149.231 50516 224.758
149.349 50038 223.692
149.466 46936 216.647
149.583 47354 217.61
149.701 48081 219.274
149.818 49766 223.083
149.935 50460 224.633
150.053 51529 227
150.17 51842 227.688
150.287 52742 229.656
150.405 54256 232.929
150.522 55027 234.578
150.64 56050 236.749
150.757 56974 238.692
150.875 57361 239.502
150.992 55711 236.032
151.11 54909 234.327
151.227 53744 231.828
151.344 52514 229.159
151.462 52132 228.324
151.579 54186 232.779
151.697 55897 236.425
151.814 57348 239.474
151.932 56963 238.669
152.049 57541 239.877
152.167 57333 239.443
152.284 57090 238.935
152.402 55944 236.525
152.519 54495 233.442
152.636 52679 229.519
152.754 51206 226.287
152.871 49451 222.376
152.989 48434 220.077
153.106 47331 217.557
153.223 47882 218.82
153.341 47962 219.002
153.458 49298 222.032
153.575 49915 223.417
153.693 51468 226.866
153.81 52713 229.593
153.927 53680 231.689
154.044 55331 235.225
154.162 55595 235.786
154.279 57135 239.029
154.396 58747 242.378
154.513 58914 242.722
154.63 58424 241.711
154.747 57390 239.562
154.864 56466 237.626
154.981 55069 234.668
155.098 55368 235.304
155.215 56770 238.265
155.332 58330 241.516
155.449 58674 242.227
155.566 58667 242.213
155.683 59237 243.387
155.8 58322 241.499
155.917 57495 239.781
156.033 57303 239.38
156.15 0 1
156.267 0 1
156.383 0 1
156.5 0 1
156.617 0 1
156.733 0 1
156.85 0 1
156.966 0 1
157.082 0 1
157.199 0 1
157.315 0 1
157.431 0 1
157.547 0 1
157.664 0 1
157.78 0 1
157.896 0 1
158.012 0 1
158.128 0 1
158.244 0 1
158.359 0 1
158.475 0 1
158.591 0 1
158.706 0 1
