
6.15755 0 1
6.2731 0 1
6.3887 0 1
6.50437 0 1
6.62009 0 1
6.73587 0 1
6.8517 0 1
6.96759 0 1
7.08353 0 1
7.19952 0 1
7.31557 0 1
7.43166 0 1
7.54781 0 1
7.664 0 1
7.78024 0 1
7.89653 0 1
8.01286 0 1
8.12924 0 1
8.24567 0 1
8.36213 0 1
8.47864 0 1
8.59519 0 1
8.71178 0 1
8.82841 0 1
8.94508 0 1
9.06179 0 1
9.17853 0 1
9.29531 0 1
9.41212 0 1
9.52897 0 1
9.64584 0 1
9.76276 0 1
9.8797 0 1
9.99667 0 1
10.1137 0 1
10.2307 0 1
10.3478 0 1
10.4648 0 1
10.5819 0 1
10.6991 0 1
10.8162 0 1
10.9334 0 1
11.0506 0 1
11.1678 0 1
11.285 0 1
11.4023 0 1
11.5196 0 1
11.6369 0 1
11.7542 0 1
11.8715 0 1
11.9888 0 1
12.1062 0 1
12.2235 0 1
12.3409 0 1
12.4582 0 1
12.5756 0 1
12.693 0 1
12.8104 0 1
12.9278 0 1
13.0452 0 1
13.1626 0 1
13.28 0 1
13.3974 0 1
13.5149 0 1
13.6323 0 1
13.7497 0 1
13.8671 0 1
13.9845 0 1
14.1019 0 1
14.2193 0 1
14.3367 0 1
14.4541 0 1
14.5714 0 1
14.6888 0 1
14.8062 0 1
14.9235 0 1
15.0408 0 0
15.1581 0 0
15.2755 0 0
15.3927 0 0
15.51 0 0
15.6273 0 0
15.7445 0 0
15.8617 0 0
15.9789 0 0
16.0961 0 0
16.2132 0 0
16.3304 0 0
16.4475 0 0
16.5646 0 0
16.6816 0 0
16.7986 0 0
16.9156 0 0
17.0326 0 0
17.1496 0 0
17.2665 0 0
17.3833 0 0
17.5002 0 0
17.617 0 0
17.7338 0 0
17.8505 0 0
17.9672 0 0
18.0839 0 0
18.2005 0 0
18.3171 0 0
18.4337 0 0
18.5502 0 0
18.6666 0 0
18.7831 0 0
18.8994 0 0
19.0158 0 0
19.1321 0 0
19.2483 0 0
19.3645 0 0
19.4806 0 0
19.5967 0 0
19.7128 0 0
19.8288 0 0
19.9447 0 0
20.0606 0 1
20.1764 0 1
20.2922 0 1
20.4079 0 1
20.5236 0 1
20.6392 0 1
20.7548 0 1
20.8702 0 1
23.3078 0 1
23.4233 0 1
23.539 0 1
23.6547 0 1
23.7704 0 1
23.8862 0 1
24.0021 0 1
24.118 0 1
24.234 0 1
24.35 0 1
24.4661 13106 114.481
24.5822 12851 113.362
24.6984 12555 112.049
24.8146 12491 111.763
24.9309 12060 109.818
25.0472 11809 108.669
25.1636 11941 109.275
25.28 12014 109.608
25.3965 12536 111.964
25.513 12626 112.365
25.6296 12953 113.811
25.7462 13094 114.429
25.8628 13234 115.039
25.9795 13167 114.748
26.0962 13197 114.878
26.213 13436 115.914
26.3298 12922 113.675
26.4466 12700 112.694
26.5635 12511 111.853
26.6804 12154 110.245
26.7973 12256 110.707
26.9143 12582 112.17
27.0313 12877 113.477
27.1483 13353 115.555
27.2653 13429 115.884
27.3824 13468 116.052
27.4996 13655 116.855
27.6167 13534 116.336
27.7339 13217 114.965
27.8511 13060 114.28
27.9683 12707 112.725
28.0855 12558 112.062
28.2028 12523 111.906
28.3201 11926 109.206
28.4374 11676 108.056
28.5547 11359 106.579
28.6721 11203 105.844
28.7894 11198 105.821
28.9068 11331 106.447
29.0242 11356 106.565
29.1416 11575 107.587
29.259 11657 107.968
29.3764 12004 109.563
29.4939 11812 108.683
29.6113 11851 108.862
29.7288 11759 108.439
29.8463 11627 107.829
29.9638 11532 107.387
30.0812 11331 106.447
30.1987 11159 105.636
30.3162 11386 106.705
30.4337 11822 108.729
30.5512 12150 110.227
30.6687 12108 110.036
30.7862 12744 112.889
30.9037 12716 112.765
31.0212 12912 113.631
31.1387 12857 113.389
31.2562 12770 113.004
31.3737 12603 112.263
31.4912 12413 111.414
31.6087 12202 110.463
31.7262 12042 109.736
31.8436 11565 107.541
31.9611 11686 108.102
32.0785 11053 105.133
32.1959 10715 103.513
32.3134 11065 105.19
32.4308 11052 105.128
32.5482 11210 105.877
32.6655 11408 106.808
32.7829 11596 107.685
32.9002 11516 107.313
33.0176 11421 106.869
33.1349 11494 107.21
33.2522 11506 107.266
33.3694 11643 107.903
33.4867 11725 108.282
33.6039 11287 106.24
33.7211 11326 106.424
33.8383 11137 105.532
33.9554 11404 106.79
34.0725 11604 107.722
34.1896 11887 109.028
34.3067 12257 110.711
34.4237 12489 111.754
34.5407 12886 113.517
34.6577 12840 113.314
34.7746 12630 112.383
34.8915 12893 113.547
35.0084 12692 112.659
35.1252 12487 111.745
35.242 12370 111.221
35.3587 12240 110.635
35.4755 11985 109.476
35.5921 11816 108.701
35.7088 11240 106.019
35.8254 10885 104.331
35.9419 10726 103.566
36.0584 10780 103.827
36.1749 10701 103.446
36.2913 10811 103.976
36.4077 11129 105.494
36.524 11095 105.333
36.6403 11227 105.958
36.7565 11061 105.171
36.8727 11185 105.759
36.9889 11359 106.579
37.1049 11136 105.527
37.221 0 1
37.3369 0 1
37.4529 0 1
37.5687 0 1
37.6845 0 1
37.8003 0 1
37.916 0 1
38.0316 0 1
38.1472 0 1
40.5851 0 1
40.7008 0 1
40.8164 0 1
40.9322 0 1
41.048 0 1
41.1639 0 1
41.2798 0 1
41.3958 0 1
41.5118 0 1
41.6279 0 1
41.744 9243 96.1405
41.8602 9681 98.3921
41.9765 9743 98.7066
42.0928 9914 99.5691
42.2091 9852 99.2572
42.3255 10002 100.01
42.4419 9730 98.6408
42.5584 9420 97.0567
42.675 9534 97.6422
42.7915 9647 98.2191
42.9081 10040 100.2
43.0248 10541 102.669
43.1415 10442 102.186
43.2582 10824 104.038
43.375 11113 105.418
43.4918 10960 104.69
43.6087 11163 105.655
43.7256 10864 104.231
43.8425 10896 104.384
43.9595 10659 103.242
44.0765 10677 103.33
44.1935 10160 100.797
44.3106 10097 100.484
44.4277 9554 97.7446
44.5448 9229 96.0677
44.6619 8584 92.6499
44.7791 8606 92.7685
44.8963 8544 92.4338
45.0136 8446 91.9021
45.1308 8528 92.3472
45.2481 8486 92.1195
45.3654 8660 93.0591
45.4827 8678 93.1558
45.6001 8642 92.9624
45.7174 8807 93.8456
45.8348 8522 92.3147
45.9522 8589 92.6769
46.0697 8133 90.1831
46.1871 8059 89.7719
46.3046 8265 90.912
46.422 8579 92.6229
46.5395 8737 93.4719
46.657 8986 94.7945
46.7745 8858 94.1169
46.892 9124 95.5196
47.0096 9342 96.654
47.1271 9058 95.1735
47.2446 9157 95.6922
47.3622 9172 95.7706
47.4797 8827 93.9521
47.5973 8818 93.9042
47.7149 8549 92.4608
47.8324 8188 90.4876
47.95 7836 88.5212
48.0675 7466 86.406
48.1851 7083 84.1606
48.3027 6906 83.1023
48.4202 6891 83.012
48.5378 6823 82.6015
48.6554 6851 82.7708
48.7729 6928 83.2346
48.8904 7142 84.5104
49.008 7337 85.6563
49.1255 7184 84.7585
49.243 7581 87.0689
49.3605 7552 86.9022
49.478 7400 86.0233
49.5955 7228 85.0176
49.713 7344 85.6971
49.8304 7531 86.7813
49.9479 7802 88.3289
50.0653 8253 90.846
50.1827 8800 93.8083
50.3001 9102 95.4044
50.4175 9545 97.6985
50.5348 9833 99.1615
50.6521 9945 99.7246
50.7694 10299 101.484
50.8867 10304 101.509
51.004 10447 102.211
51.1212 10687 103.378
51.2384 10877 104.293
51.3556 10586 102.888
51.4727 10432 102.137
51.5899 10009 100.045
51.707 9370 96.7988
51.824 9353 96.7109
51.9411 9342 96.654
52.0581 9226 96.0521
52.175 9674 98.3565
52.2919 9683 98.4022
52.4088 9719 98.585
52.5257 9922 99.6092
52.6425 9893 99.4636
52.7593 10209 101.04
52.876 10309 101.533
52.9927 10625 103.078
53.1094 10436 102.157
53.226 10281 101.395
53.3426 10258 101.282
53.4591 10706 103.47
53.5756 11227 105.958
53.692 11870 108.95
53.8084 12271 110.775
53.9248 12639 112.423
54.0411 13084 114.385
54.1573 13453 115.987
54.2735 0 1
54.3896 0 1
54.5057 0 1
54.6217 0 1
54.7377 0 1
54.8537 0 1
54.9695 0 1
55.0853 0 1
55.2011 0 1
55.3168 0 1
55.4324 0 1
57.824 0 1
57.9396 0 1
58.0553 0 1
58.1711 0 1
58.2869 0 1
58.4028 0 1
58.5187 0 1
58.6347 0 1
58.7508 0 1
58.8669 0 1
58.983 14772 121.54
59.0992 15301 123.697
59.2155 15988 126.444
59.3318 16154 127.098
59.4482 16281 127.597
59.5646 16564 128.701
59.681 16350 127.867
59.7975 15880 126.016
59.9141 15627 125.008
60.0306 15148 123.077
60.1473 13980 118.237
60.2639 13229 115.017
60.3807 12567 112.103
60.4974 12144 110.2
60.6142 11777 108.522
60.731 11518 107.322
60.8479 11896 109.069
60.9648 12112 110.055
61.0818 12406 111.382
61.1987 12398 111.346
61.3158 12773 113.018
61.4328 12586 112.187
61.5499 12315 110.973
61.667 12200 110.454
61.7841 11992 109.508
61.9013 11877 108.982
62.0185 12155 110.25
62.1357 12887 113.521
62.253 13353 115.555
62.3702 14069 118.613
62.4875 14835 121.799
62.6049 14813 121.709
62.7222 15529 124.615
62.8396 15466 124.362
62.9569 15802 125.706
63.0743 15679 125.216
63.1918 15531 124.623
63.3092 15204 123.305
63.4267 14677 121.149
63.5441 13934 118.042
63.6616 13330 115.456
63.7791 12513 111.862
63.8966 11702 108.176
64.0142 11153 105.608
64.1317 10820 104.019
64.2492 10869 104.254
64.3668 10876 104.288
64.4843 11221 105.929
64.6019 11469 107.093
64.7195 11444 106.977
64.837 11772 108.499
64.9546 11716 108.24
65.0722 11489 107.187
65.1898 11615 107.773
65.3074 11358 106.574
65.4249 10947 104.628
65.5425 11114 105.423
65.6601 11565 107.541
65.7777 11931 109.229
65.8952 13007 114.048
66.0128 13511 116.237
66.1304 14036 118.474
66.2479 14460 120.25
66.3655 14946 122.254
66.483 14928 122.18
66.6005 15129 123
66.718 15167 123.154
66.8355 15038 122.63
66.953 14630 120.955
67.0705 14267 119.445
67.1879 13556 116.43
67.3054 12524 111.911
67.4228 11645 107.912
67.5402 10579 102.854
67.6576 10498 102.46
67.7749 10225 101.119
67.8923 10551 102.718
68.0096 10746 103.663
68.1269 11068 105.205
68.2442 11647 107.921
68.3614 11989 109.494
68.4787 11856 108.885
68.5958 12153 110.241
68.713 12207 110.485
68.8302 11670 108.028
68.9473 11476 107.126
69.0643 11161 105.646
69.1814 11144 105.565
69.2984 11746 108.379
69.4154 12293 110.874
69.5323 13583 116.546
69.6492 14086 118.684
69.7661 14876 121.967
69.8829 15330 123.814
69.9997 15766 125.563
70.1165 16138 127.035
70.2332 16143 127.055
70.3499 16177 127.189
70.4665 16062 126.736
70.5831 15640 125.06
70.6996 15038 122.63
70.8161 14206 119.189
70.9326 13536 116.344
71.049 12258 110.716
71.1653 11652 107.944
71.2817 11010 104.929
71.3979 10586 102.888
71.5141 10541 102.669
71.6303 10672 103.305
71.7464 10253 101.257
71.8624 0 1
71.9784 0 1
72.0944 0 1
72.2102 0 1
72.3261 0 1
72.4418 0 1
72.5575 0 1
72.6732 0 1
75.1054 0 1
75.2209 0 1
75.3365 0 1
75.4521 0 1
75.5678 0 1
75.6835 0 1
75.7993 0 1
75.9151 0 1
76.031 0 1
76.147 14091 118.706
76.263 14429 120.121
76.3791 13411 115.806
76.4952 12552 112.036
76.6113 11826 108.747
76.7276 11605 107.727
76.8438 11341 106.494
76.9601 11919 109.174
77.0765 12559 112.067
77.1929 12873 113.459
77.3093 13406 115.784
77.4258 13573 116.503
77.5423 13665 116.897
77.6589 13395 115.737
77.7755 13049 114.232
77.8921 12719 112.779
78.0088 12279 110.811
78.1256 12087 109.941
78.2423 12050 109.772
78.3591 12518 111.884
78.4759 13507 116.22
78.5928 14450 120.208
78.7097 15385 124.036
78.8266 16768 129.491
78.9436 16070 126.768
79.0606 16684 129.167
79.1776 16745 129.402
79.2946 16988 130.338
79.4117 16704 129.244
79.5288 16671 129.116
79.6459 16246 127.46
79.7631 15409 124.133
79.8802 14779 121.569
79.9974 13754 117.277
80.1147 12583 112.174
80.2319 11651 107.94
80.3491 10938 104.585
80.4664 10788 103.865
80.5837 10978 104.776
80.701 11321 106.4
80.8183 11724 108.277
80.9357 12269 110.766
81.053 12455 111.602
81.1704 12472 111.678
81.2877 12436 111.517
81.4051 12039 109.722
81.5225 12036 109.709
81.6399 11137 105.532
81.7573 11030 105.024
81.8747 10736 103.615
81.9922 11044 105.09
82.1096 12114 110.064
82.227 12811 113.186
82.3444 13705 117.068
82.4619 14532 120.549
82.5793 14215 119.227
82.6967 15279 123.608
82.8142 15155 123.106
82.9316 14996 122.458
83.049 14860 121.902
83.1664 14731 121.371
83.2838 13904 117.915
83.4012 13761 117.307
83.5186 12670 112.561
83.636 11728 108.296
83.7534 11064 105.186
83.8708 10132 100.658
83.9881 9630 98.1326
84.1055 9613 98.0459
84.2228 9623 98.0969
84.3401 10416 102.059
84.4575 10942 104.604
84.5747 11660 107.981
84.692 11869 108.945
84.8093 12054 109.791
84.9265 11911 109.138
85.0437 11192 105.792
85.1609 10720 103.537
85.2781 10475 102.347
85.3952 10290 101.44
85.5123 10390 101.931
85.6294 10853 104.178
85.7465 11997 109.531
85.8636 13100 114.455
85.9806 14031 118.453
86.0976 14552 120.632
86.2145 15429 124.214
86.3315 15425 124.197
86.4484 16225 127.377
86.5652 16138 127.035
86.682 16152 127.091
86.7988 15752 125.507
86.9156 15364 123.952
87.0323 14420 120.083
87.149 14049 118.528
87.2657 12882 113.499
87.3823 11947 109.302
87.4988 11157 105.627
87.6154 11127 105.485
87.7318 11355 106.56
87.8483 11734 108.324
87.9647 12405 111.378
88.081 13278 115.23
88.1973 13874 117.788
88.3136 13847 117.673
88.4298 13959 118.148
88.546 13185 114.826
88.6621 12438 111.526
88.7781 11572 107.573
88.8942 0 1
89.0101 0 1
89.126 0 1
89.2419 0 1
89.3577 0 1
89.4734 0 1
89.5891 0 1
89.7047 0 1
89.8203 0 1
89.9358 0 1
92.3269 0 1
92.4424 0 1
92.558 0 1
92.6736 0 1
92.7893 0 1
92.905 0 1
93.0208 0 1
93.1366 0 1
93.2525 0 1
93.3685 0 1
93.4845 0 1
93.6005 15960 126.333
93.7167 16945 130.173
93.8328 17407 131.936
93.949 18026 134.261
94.0653 18056 134.373
94.1816 18059 134.384
94.2979 18000 134.164
94.4143 17963 134.026
94.5307 18372 135.543
94.6472 19272 138.824
94.7637 20653 143.712
94.8803 23249 152.476
94.9969 24963 157.997
95.1135 27524 165.904
95.2302 29032 170.388
95.3469 30581 174.874
95.4637 31610 177.792
95.5805 32654 180.704
95.6973 34080 184.608
95.8142 35140 187.457
95.9311 35524 188.478
96.048 34958 186.971
96.1649 35017 187.128
96.2819 34116 184.705
96.3989 33310 182.51
96.516 31312 176.952
96.633 29794 172.609
96.7501 28798 169.7
96.8673 29080 170.529
96.9844 30648 175.066
97.1016 33199 182.206
97.2188 35701 188.947
97.336 38108 195.213
97.4532 38735 196.812
97.5704 38632 196.55
97.6877 37862 194.582
97.805 36725 191.638
97.9223 34072 184.586
98.0396 31807 178.345
98.1569 30825 175.57
98.2743 30172 173.701
98.3916 30960 175.955
98.509 33270 182.401
98.6264 35840 189.315
98.7438 37911 194.707
98.8612 39512 198.776
98.9786 41185 202.941
99.096 41595 203.949
99.2134 42109 205.205
99.3308 42603 206.405
99.4482 42464 206.068
99.5656 42423 205.968
99.6831 41453 203.6
99.8005 40509 201.268
99.9179 38801 196.98
100.035 37020 192.406
100.153 34168 184.846
100.27 32645 180.679
100.388 31242 176.754
100.505 32227 179.519
100.622 34213 184.968
100.74 36692 191.552
100.857 38064 195.1
100.975 38668 196.642
101.092 38686 196.688
101.209 38897 197.223
101.327 37455 193.533
101.444 35883 189.428
101.561 33045 181.783
101.679 31199 176.632
101.796 29518 171.808
101.913 29570 171.959
102.03 31209 176.661
102.148 33463 182.929
102.265 38273 195.635
102.382 35829 189.285
102.499 38510 196.24
102.616 38801 196.98
102.733 39406 198.509
102.851 38879 197.178
102.968 38761 196.878
103.085 37306 193.148
103.202 35886 189.436
103.319 34604 186.022
103.436 32592 180.533
103.552 30510 174.671
103.669 27423 165.599
103.786 25207 158.767
103.903 23585 153.574
104.02 23674 153.864
104.137 23726 154.032
104.253 24774 157.398
104.37 23766 154.162
104.487 24334 155.994
104.603 23752 154.117
104.72 22608 150.36
104.836 21029 145.014
104.953 19218 138.629
105.069 17636 132.801
105.186 16743 129.395
105.302 16206 127.303
105.418 16374 127.961
105.535 17326 131.628
105.651 18470 135.904
105.767 18986 137.79
105.883 20179 142.053
105.999 20057 141.623
106.115 0 1
106.231 0 1
106.347 0 1
106.463 0 1
106.579 0 1
106.694 0 1
106.81 0 1
106.926 0 1
107.041 0 1
107.157 0 1
109.576 0 1
109.692 0 1
109.807 0 1
109.923 0 1
110.039 0 1
110.155 0 1
110.27 0 1
110.386 0 1
110.502 0 1
110.618 14221 119.252
110.735 15475 124.399
110.851 16879 129.919
110.967 17911 133.832
111.083 18028 134.268
111.199 18319 135.348
111.316 18621 136.459
111.432 18537 136.151
111.549 18410 135.683
111.665 17848 133.596
111.782 17362 131.765
111.898 16541 128.612
112.015 15627 125.008
112.132 14711 121.289
112.248 13709 117.085
112.365 13043 114.206
112.482 12665 112.539
112.599 12536 111.964
112.716 13142 114.639
112.832 13368 115.62
112.949 13584 116.55
113.066 13750 117.26
113.183 13552 116.413
113.3 13317 115.399
113.417 12948 113.789
113.534 12592 112.214
113.652 12204 110.472
113.769 12119 110.086
113.886 12247 110.666
114.003 12923 113.679
114.12 13912 117.949
114.238 15341 123.859
114.355 15917 126.163
114.472 16796 129.599
114.589 17329 131.64
114.707 17363 131.769
114.824 17981 134.093
114.942 17825 133.51
115.059 18074 134.44
115.176 17890 133.754
115.294 17263 131.389
115.411 17023 130.472
115.529 16394 128.039
115.646 15513 124.551
115.764 14588 120.781
115.881 13876 117.796
115.999 13357 115.572
116.116 13251 115.113
116.234 13494 116.164
116.351 13860 117.729
116.469 14238 119.323
116.586 14232 119.298
116.704 14391 119.962
116.821 14162 119.004
116.939 13987 118.267
117.056 13694 117.021
117.174 13278 115.23
117.291 13315 115.391
117.409 13373 115.642
117.526 13645 116.812
117.644 14839 121.815
117.761 15735 125.439
117.879 16793 129.588
117.996 17852 133.611
118.114 18207 134.933
118.231 18939 137.619
118.349 18804 137.128
118.466 19063 138.069
118.584 19066 138.08
118.701 19175 138.474
118.819 18663 136.613
118.936 18185 134.852
119.053 17915 133.847
119.171 17175 131.053
119.288 16488 128.406
119.405 15522 124.587
119.523 14586 120.773
119.64 14429 120.121
119.757 14279 119.495
119.875 14182 119.088
119.992 14349 119.787
120.109 14447 120.196
120.226 14725 121.347
120.343 14599 120.826
120.46 14596 120.814
120.578 14179 119.076
120.695 14124 118.844
120.812 14018 118.398
120.929 13676 116.944
121.046 14024 118.423
121.163 14079 118.655
121.279 14488 120.366
121.396 15271 123.576
121.513 16712 129.275
121.63 17436 132.045
121.747 18031 134.28
121.863 18525 136.107
121.98 18763 136.978
122.097 18753 136.942
122.213 18920 137.55
122.33 19163 138.43
122.446 18710 136.785
122.563 18529 136.121
122.679 18020 134.239
122.795 17588 132.62
122.912 17044 130.553
123.028 16373 127.957
123.144 15769 125.575
123.26 14916 122.131
123.377 0 1
123.493 0 1
123.609 0 1
123.725 0 1
123.84 0 1
123.956 0 1
124.072 0 1
124.188 0 1
124.303 0 1
124.419 0 1
126.852 0 1
126.968 0 1
127.083 0 1
127.199 0 1
127.315 0 1
127.431 0 1
127.547 0 1
127.663 0 1
127.779 0 1
127.895 0 1
128.011 0 1
128.127 0 1
128.243 0 1
128.359 17749 133.225
128.476 16908 130.031
128.592 16372 127.953
128.708 15943 126.266
128.825 16063 126.74
128.941 16547 128.635
129.058 16774 129.514
129.174 16495 128.433
129.291 16328 127.781
129.408 16097 126.874
129.524 15974 126.388
129.641 15795 125.678
129.758 15706 125.324
129.875 15387 124.044
129.992 15466 124.362
130.108 15377 124.004
130.225 16078 126.799
130.342 16942 130.161
130.459 17259 131.374
130.576 18615 136.437
130.693 18899 137.474
130.81 18992 137.811
130.928 19181 138.495
131.045 19259 138.777
131.162 19442 139.435
131.279 19332 139.04
131.396 19066 138.08
131.513 18736 136.88
131.631 18354 135.477
131.748 18025 134.257
131.865 17332 131.651
131.983 16564 128.701
132.1 15612 124.948
132.217 15263 123.544
132.335 15510 124.539
132.452 15704 125.316
132.57 16177 127.189
132.687 15443 124.27
132.804 16238 127.428
132.922 16249 127.472
133.039 15566 124.764
133.157 15631 125.024
133.274 15135 123.024
133.392 15215 123.349
133.509 14998 122.466
133.627 15155 123.106
133.744 15267 123.56
133.862 16110 126.925
133.979 16889 129.958
134.097 17529 132.397
134.214 18244 135.07
134.332 18139 134.681
134.449 18753 136.942
134.567 18588 136.338
134.684 19017 137.902
134.802 19283 138.863
134.919 19336 139.054
135.037 19011 137.88
135.154 18740 136.894
135.272 18222 134.989
135.389 17783 133.353
135.507 17324 131.621
135.624 16547 128.635
135.742 16171 127.165
135.859 16096 126.87
135.977 16220 127.358
136.094 16652 129.043
136.211 16310 127.711
136.329 16573 128.736
136.446 16406 128.086
136.564 16259 127.511
136.681 16321 127.754
136.798 15915 126.155
136.915 15850 125.897
137.033 15840 125.857
137.15 15824 125.793
137.267 15773 125.591
137.384 16047 126.677
137.502 16458 128.289
137.619 17305 131.548
137.736 18085 134.48
137.853 18351 135.466
137.97 18295 135.259
138.087 19112 138.246
138.204 18891 137.445
138.321 19470 139.535
138.438 19478 139.564
138.555 19599 139.996
138.672 19216 138.622
138.788 19120 138.275
138.905 19133 138.322
139.022 18743 136.905
139.139 18085 134.48
139.255 16975 130.288
139.372 16898 129.992
139.488 16826 129.715
139.605 16668 129.105
139.721 17080 130.69
139.838 17259 131.374
139.954 17001 130.388
140.071 16683 129.163
140.187 16703 129.24
140.303 16238 127.428
140.419 16049 126.685
140.535 15602 124.908
140.652 15213 123.341
140.768 0 1
140.884 0 1
141 0 1
141.115 0 1
141.231 0 1
141.347 0 1
141.463 0 1
141.578 0 1
141.694 0 1
144.104 0 1
144.219 0 1
144.335 0 1
144.45 0 1
144.566 0 1
144.682 0 1
144.798 0 1
144.914 0 1
145.03 0 1
145.146 15866 125.96
145.262 15855 125.917
145.378 15783 125.63
145.494 15669 125.176
145.61 15348 123.887
145.726 15262 123.539
145.842 15443 124.27
145.959 15250 123.491
146.075 15444 124.274
146.192 16199 127.275
146.308 16531 128.573
146.425 17239 131.297
146.541 17296 131.514
146.658 17404 131.924
146.774 17822 133.499
146.891 18168 134.789
147.008 18233 135.03
147.125 18481 135.945
147.241 18038 134.306
147.358 18012 134.209
147.475 17916 133.851
147.592 17470 132.174
147.709 17064 130.629
147.826 16465 128.316
147.943 15862 125.944
148.06 15827 125.805
148.177 15951 126.297
148.294 16280 127.593
148.411 16548 128.639
148.528 16529 128.565
148.645 16308 127.703
148.762 16252 127.483
148.88 16129 127
148.997 15578 124.812
149.114 16415 128.121
149.231 15437 124.246
149.349 15172 123.175
149.466 15179 123.203
149.583 15260 123.531
149.701 15511 124.543
149.818 16083 126.819
149.935 16331 127.793
150.053 16660 129.074
150.17 17198 131.141
150.287 17434 132.038
150.405 17958 134.007
150.522 18490 135.978
150.64 18262 135.137
150.757 18509 136.048
150.875 18734 136.872
150.992 18824 137.201
151.11 18472 135.912
151.227 18303 135.289
151.344 17740 133.192
151.462 17382 131.841
151.579 17071 130.656
151.697 16851 129.811
151.814 17178 131.065
151.932 17401 131.913
152.049 17762 133.274
152.167 17727 133.143
152.284 17876 133.701
152.402 17667 132.917
152.519 17713 133.09
152.636 17370 131.795
152.754 17175 131.053
152.871 16822 129.7
152.989 16732 129.352
153.106 16758 129.453
153.223 16883 129.935
153.341 17034 130.514
153.458 17728 133.147
153.575 17926 133.888
153.693 18326 135.374
153.81 18956 137.681
153.927 19365 139.158
154.044 19635 140.125
154.162 20131 141.884
154.279 20366 142.709
154.396 20980 144.845
154.513 20632 143.638
154.63 20669 143.767
154.747 20321 142.552
154.864 19938 141.202
154.981 19637 140.132
155.098 18917 137.539
155.215 18440 135.794
155.332 18507 136.04
155.449 18584 136.323
155.566 18611 136.422
155.683 19015 137.895
155.8 18979 137.764
155.917 18665 136.62
156.033 18456 135.853
156.15 0 1
156.267 0 1
156.383 0 1
156.5 0 1
156.617 0 1
156.733 0 1
156.85 0 1
156.966 0 1
157.082 0 1
157.199 0 1
157.315 0 1
157.431 0 1
157.547 0 1
157.664 0 1
157.78 0 1
157.896 0 1
158.012 0 1
158.128 0 1
158.244 0 1
158.359 0 1
158.475 0 1
158.591 0 1
158.706 0 1
