
6.15755 0 1
6.2731 0 1
6.3887 0 1
6.50437 0 1
6.62009 0 1
6.73587 0 1
6.8517 0 1
6.96759 0 1
7.08353 0 1
7.19952 0 1
7.31557 0 1
7.43166 0 1
7.54781 0 1
7.664 0 1
7.78024 0 1
7.89653 0 1
8.01286 0 1
8.12924 0 1
8.24567 0 1
8.36213 0 1
8.47864 0 1
8.59519 0 1
8.71178 0 1
8.82841 0 1
8.94508 0 1
9.06179 0 1
9.17853 0 1
9.29531 0 1
9.41212 0 1
9.52897 0 1
9.64584 0 1
9.76276 0 1
9.8797 0 1
9.99667 0 1
10.1137 0 1
10.2307 0 1
10.3478 0 1
10.4648 0 1
10.5819 0 1
10.6991 0 1
10.8162 0 1
10.9334 0 1
11.0506 0 1
11.1678 0 1
11.285 0 1
11.4023 0 1
11.5196 0 1
11.6369 0 1
11.7542 0 1
11.8715 0 1
11.9888 0 1
12.1062 0 1
12.2235 0 1
12.3409 0 1
12.4582 0 1
12.5756 0 1
12.693 0 1
12.8104 0 1
12.9278 0 1
13.0452 0 1
13.1626 0 1
13.28 0 1
13.3974 0 1
13.5149 0 1
13.6323 0 1
13.7497 0 1
13.8671 0 1
13.9845 0 1
14.1019 0 1
14.2193 0 1
14.3367 0 1
14.4541 0 1
14.5714 0 1
14.6888 0 1
14.8062 0 1
14.9235 0 1
15.0408 1938 44.0227
15.1581 1926 43.8862
15.2755 2050 45.2769
15.3927 1976 44.4522
15.51 2039 45.1553
15.6273 2021 44.9555
15.7445 1910 43.7035
15.8617 1856 43.0813
15.9789 1777 42.1545
16.0961 1789 42.2966
16.2132 1825 42.72
16.3304 1846 42.9651
16.4475 1777 42.1545
16.5646 1722 41.497
16.6816 1680 40.9878
16.7986 1645 40.5586
16.9156 1599 39.9875
17.0326 1526 39.064
17.1496 1546 39.3192
17.2665 1465 38.2753
17.3833 1499 38.7169
17.5002 1495 38.6652
17.617 1457 38.1707
17.7338 1619 40.2368
17.8505 1678 40.9634
17.9672 1705 41.2916
18.0839 1769 42.0595
18.2005 1801 42.4382
18.3171 1819 42.6497
18.4337 1795 42.3674
18.5502 1829 42.7668
18.6666 1853 43.0465
18.7831 1876 43.3128
18.8994 1887 43.4396
19.0158 1798 42.4028
19.1321 1695 41.1704
19.2483 1642 40.5216
19.3645 1582 39.7744
19.4806 1516 38.9358
19.5967 1520 38.9872
19.7128 1455 38.1445
19.8288 1490 38.6005
19.9447 1320 36.3318
20.0606 0 1
20.1764 0 1
20.2922 0 1
20.4079 0 1
20.5236 0 1
20.6392 0 1
20.7548 0 1
20.8702 0 1
23.3078 0 1
23.4233 0 1
23.539 0 1
23.6547 0 1
23.7704 0 1
23.8862 0 1
24.0021 0 1
24.118 0 1
24.234 0 1
24.35 0 1
24.4661 1461 38.223
24.5822 1383 37.1887
24.6984 1417 37.6431
24.8146 1357 36.8375
24.9309 1470 38.3406
25.0472 1498 38.704
25.1636 1427 37.7757
25.28 1531 39.128
25.3965 1597 39.9625
25.513 1567 39.5854
25.6296 1582 39.7744
25.7462 1550 39.37
25.8628 1482 38.4968
25.9795 1478 38.4448
26.0962 1399 37.4032
26.213 1388 37.2559
26.3298 1428 37.7889
26.4466 1359 36.8646
26.5635 1422 37.7094
26.6804 1464 38.2623
26.7973 1520 38.9872
26.9143 1539 39.2301
27.0313 1558 39.4715
27.1483 1546 39.3192
27.2653 1600 40
27.3824 1549 39.3573
27.4996 1600 40
27.6167 1565 39.5601
27.7339 1543 39.281
27.8511 1420 37.6829
27.9683 1383 37.1887
28.0855 1383 37.1887
28.2028 1340 36.606
28.3201 1346 36.6879
28.4374 1327 36.428
28.5547 1402 37.4433
28.6721 1479 38.4578
28.7894 1465 38.2753
28.9068 1484 38.5227
29.0242 1392 37.3095
29.1416 1341 36.6197
29.259 1335 36.5377
29.3764 1265 35.5668
29.4939 1261 35.5106
29.6113 1223 34.9714
29.7288 1254 35.4119
29.8463 1256 35.4401
29.9638 1339 36.5923
30.0812 1310 36.1939
30.1987 1324 36.3868
30.3162 1406 37.4967
30.4337 1373 37.054
30.5512 1470 38.3406
30.6687 1432 37.8418
30.7862 1451 38.092
30.9037 1515 38.923
31.0212 1503 38.7685
31.1387 1498 38.704
31.2562 1417 37.6431
31.3737 1481 38.4838
31.4912 1384 37.2022
31.6087 1362 36.9053
31.7262 1293 35.9583
31.8436 1330 36.4692
31.9611 1350 36.7423
32.0785 1390 37.2827
32.1959 1387 37.2424
32.3134 1384 37.2022
32.4308 1393 37.3229
32.5482 1366 36.9594
32.6655 1295 35.9861
32.7829 1314 36.2491
32.9002 1296 36
33.0176 1302 36.0832
33.1349 1199 34.6266
33.2522 1218 34.8999
33.3694 1230 35.0714
33.4867 1257 35.4542
33.6039 1248 35.327
33.7211 1244 35.2704
33.8383 1213 34.8281
33.9554 1350 36.7423
34.0725 1338 36.5787
34.1896 1373 37.054
34.3067 1366 36.9594
34.4237 1416 37.6298
34.5407 1401 37.4299
34.6577 1438 37.921
34.7746 1369 37
34.8915 1487 38.5616
35.0084 1379 37.1349
35.1252 1339 36.5923
35.242 1378 37.1214
35.3587 1263 35.5387
35.4755 1234 35.1283
35.5921 1234 35.1283
35.7088 1234 35.1283
35.8254 1293 35.9583
35.9419 1351 36.756
36.0584 1317 36.2905
36.1749 1317 36.2905
36.2913 1319 36.318
36.4077 1248 35.327
36.524 1233 35.1141
36.6403 1228 35.0428
36.7565 1218 34.8999
36.8727 1216 34.8712
36.9889 1171 34.2199
37.1049 1188 34.4674
37.221 0 1
37.3369 0 1
37.4529 0 1
37.5687 0 1
37.6845 0 1
37.8003 0 1
37.916 0 1
38.0316 0 1
38.1472 0 1
40.5851 0 1
40.7008 0 1
40.8164 0 1
40.9322 0 1
41.048 0 1
41.1639 0 1
41.2798 0 1
41.3958 0 1
41.5118 0 1
41.6279 0 1
41.744 921 30.348
41.8602 935 30.5778
41.9765 1025 32.0156
42.0928 987 31.4166
42.2091 957 30.9354
42.3255 947 30.7734
42.4419 900 30
42.5584 900 30
42.675 957 30.9354
42.7915 987 31.4166
42.9081 1034 32.1559
43.0248 1068 32.6803
43.1415 1015 31.8591
43.2582 1025 32.0156
43.375 1014 31.8434
43.4918 992 31.496
43.6087 1019 31.9218
43.7256 999 31.607
43.8425 986 31.4006
43.9595 941 30.6757
44.0765 950 30.8221
44.1935 915 30.249
44.3106 878 29.6311
44.4277 843 29.0345
44.5448 763 27.6225
44.6619 831 28.8271
44.7791 818 28.6007
44.8963 827 28.7576
45.0136 800 28.2843
45.1308 743 27.258
45.2481 775 27.8388
45.3654 832 28.8444
45.4827 794 28.178
45.6001 722 26.8701
45.7174 735 27.1109
45.8348 705 26.5518
45.9522 698 26.4197
46.0697 675 25.9808
46.1871 711 26.6646
46.3046 782 27.9643
46.422 717 26.7769
46.5395 670 25.8844
46.657 752 27.4226
46.7745 691 26.2869
46.892 786 28.0357
47.0096 732 27.0555
47.1271 755 27.4773
47.2446 701 26.4764
47.3622 728 26.9815
47.4797 701 26.4764
47.5973 667 25.8263
47.7149 663 25.7488
47.8324 638 25.2587
47.95 627 25.04
48.0675 575 23.9792
48.1851 632 25.1396
48.3027 581 24.1039
48.4202 615 24.7992
48.5378 601 24.5153
48.6554 662 25.7294
48.7729 617 24.8395
48.8904 617 24.8395
49.008 565 23.7697
49.1255 647 25.4362
49.243 605 24.5967
49.3605 561 23.6854
49.478 638 25.2587
49.5955 575 23.9792
49.713 589 24.2693
49.8304 664 25.7682
49.9479 622 24.9399
50.0653 685 26.1725
50.1827 680 26.0768
50.3001 714 26.7208
50.4175 770 27.7489
50.5348 738 27.1662
50.6521 765 27.6586
50.7694 782 27.9643
50.8867 785 28.0179
51.004 789 28.0891
51.1212 771 27.7669
51.2384 803 28.3373
51.3556 753 27.4408
51.4727 770 27.7489
51.5899 687 26.2107
51.707 757 27.5136
51.824 810 28.4605
51.9411 892 29.8664
52.0581 892 29.8664
52.175 942 30.692
52.2919 927 30.4467
52.4088 959 30.9677
52.5257 945 30.7409
52.6425 984 31.3688
52.7593 985 31.3847
52.876 946 30.7571
52.9927 902 30.0333
53.1094 932 30.5287
53.226 864 29.3939
53.3426 911 30.1828
53.4591 941 30.6757
53.5756 975 31.225
53.692 1084 32.9242
53.8084 1068 32.6803
53.9248 1043 32.2955
54.0411 1062 32.5883
54.1573 1090 33.0151
54.2735 0 1
54.3896 0 1
54.5057 0 1
54.6217 0 1
54.7377 0 1
54.8537 0 1
54.9695 0 1
55.0853 0 1
55.2011 0 1
55.3168 0 1
55.4324 0 1
57.824 0 1
57.9396 0 1
58.0553 0 1
58.1711 0 1
58.2869 0 1
58.4028 0 1
58.5187 0 1
58.6347 0 1
58.7508 0 1
58.8669 0 1
58.983 1327 36.428
59.0992 1388 37.2559
59.2155 1440 37.9473
59.3318 1412 37.5766
59.4482 1427 37.7757
59.5646 1495 38.6652
59.681 1391 37.2961
59.7975 1518 38.9615
59.9141 1425 37.7492
60.0306 1385 37.2156
60.1473 1366 36.9594
60.2639 1313 36.2353
60.3807 1206 34.7275
60.4974 1287 35.8748
60.6142 1334 36.524
60.731 1348 36.7151
60.8479 1442 37.9737
60.9648 1446 38.0263
61.0818 1387 37.2424
61.1987 1311 36.2077
61.3158 1367 36.973
61.4328 1324 36.3868
61.5499 1339 36.5923
61.667 1282 35.805
61.7841 1237 35.171
61.9013 1266 35.5809
62.0185 1195 34.5688
62.1357 1284 35.8329
62.253 1208 34.7563
62.3702 1264 35.5528
62.4875 1251 35.3695
62.6049 1305 36.1248
62.7222 1270 35.6371
62.8396 1300 36.0555
62.9569 1295 35.9861
63.0743 1240 35.2136
63.1918 1203 34.6843
63.3092 1289 35.9026
63.4267 1241 35.2278
63.5441 1249 35.3412
63.6616 1207 34.7419
63.7791 1155 33.9853
63.8966 1121 33.4813
64.0142 1104 33.2265
64.1317 1110 33.3167
64.2492 1209 34.7707
64.3668 1212 34.8138
64.4843 1266 35.5809
64.6019 1255 35.426
64.7195 1243 35.2562
64.837 1137 33.7194
64.9546 1207 34.7419
65.0722 1154 33.9706
65.1898 1220 34.9285
65.3074 1104 33.2265
65.4249 1051 32.4191
65.5425 1037 32.2025
65.6601 1055 32.4808
65.7777 1132 33.6452
65.8952 1176 34.2929
66.0128 1148 33.8821
66.1304 1165 34.1321
66.2479 1206 34.7275
66.3655 1227 35.0286
66.483 1264 35.5528
66.6005 1200 34.641
66.718 1153 33.9559
66.8355 1202 34.6699
66.953 1215 34.8569
67.0705 1219 34.9142
67.1879 1193 34.5398
67.3054 1178 34.322
67.4228 1172 34.2345
67.5402 1120 33.4664
67.6576 1072 32.7414
67.7749 1125 33.541
67.8923 1172 34.2345
68.0096 1298 36.0278
68.1269 1313 36.2353
68.2442 1286 35.8608
68.3614 1297 36.0139
68.4787 1268 35.609
68.5958 1351 36.756
68.713 1316 36.2767
68.8302 1283 35.819
68.9473 1281 35.7911
69.0643 1235 35.1426
69.1814 1140 33.7639
69.2984 1188 34.4674
69.4154 1174 34.2637
69.5323 1217 34.8855
69.6492 1268 35.609
69.7661 1284 35.8329
69.8829 1273 35.6791
69.9997 1298 36.0278
70.1165 1355 36.8103
70.2332 1361 36.8917
70.3499 1365 36.9459
70.4665 1463 38.2492
70.5831 1345 36.6742
70.6996 1348 36.7151
70.8161 1373 37.054
70.9326 1326 36.4143
71.049 1370 37.0135
71.1653 1325 36.4005
71.2817 1321 36.3456
71.3979 1183 34.3948
71.5141 1206 34.7275
71.6303 1226 35.0143
71.7464 1240 35.2136
71.8624 0 1
71.9784 0 1
72.0944 0 1
72.2102 0 1
72.3261 0 1
72.4418 0 1
72.5575 0 1
72.6732 0 1
75.1054 0 1
75.2209 0 1
75.3365 0 1
75.4521 0 1
75.5678 0 1
75.6835 0 1
75.7993 0 1
75.9151 0 1
76.031 0 1
76.147 1322 36.3593
76.263 1415 37.6165
76.3791 1472 38.3667
76.4952 1389 37.2693
76.6113 1374 37.0675
76.7276 1386 37.229
76.8438 1440 37.9473
76.9601 1568 39.598
77.0765 1583 39.7869
77.1929 1619 40.2368
77.3093 1548 39.3446
77.4258 1584 39.7995
77.5423 1609 40.1123
77.6589 1521 39
77.7755 1486 38.5487
77.8921 1473 38.3797
78.0088 1497 38.6911
78.1256 1404 37.47
78.2423 1316 36.2767
78.3591 1229 35.0571
78.4759 1373 37.054
78.5928 1348 36.7151
78.7097 1377 37.108
78.8266 1415 37.6165
78.9436 1426 37.7624
79.0606 1441 37.9605
79.1776 1454 38.1314
79.2946 1417 37.6431
79.4117 1418 37.6563
79.5288 1521 39
79.6459 1561 39.5095
79.7631 1450 38.0789
79.8802 1438 37.921
79.9974 1381 37.1618
80.1147 1397 37.3765
80.2319 1312 36.2215
80.3491 1312 36.2215
80.4664 1348 36.7151
80.5837 1410 37.55
80.701 1464 38.2623
80.8183 1483 38.5097
80.9357 1423 37.7227
81.053 1404 37.47
81.1704 1414 37.6032
81.2877 1472 38.3667
81.4051 1417 37.6431
81.5225 1371 37.027
81.6399 1322 36.3593
81.7573 1296 36
81.8747 1168 34.176
81.9922 1170 34.2053
82.1096 1198 34.6121
82.227 1220 34.9285
82.3444 1221 34.9428
82.4619 1349 36.7287
82.5793 1276 35.7211
82.6967 1292 35.9444
82.8142 1382 37.1753
82.9316 1352 36.7696
83.049 1373 37.054
83.1664 1293 35.9583
83.2838 1318 36.3043
83.4012 1332 36.4966
83.5186 1375 37.081
83.636 1328 36.4417
83.7534 1289 35.9026
83.8708 1318 36.3043
83.9881 1185 34.4238
84.1055 1285 35.8469
84.2228 1401 37.4299
84.3401 1392 37.3095
84.4575 1465 38.2753
84.5747 1410 37.55
84.692 1444 38
84.8093 1440 37.9473
84.9265 1528 39.0896
85.0437 1401 37.4299
85.1609 1325 36.4005
85.2781 1316 36.2767
85.3952 1267 35.5949
85.5123 1221 34.9428
85.6294 1198 34.6121
85.7465 1223 34.9714
85.8636 1275 35.7071
85.9806 1290 35.9166
86.0976 1303 36.0971
86.2145 1385 37.2156
86.3315 1346 36.6879
86.4484 1487 38.5616
86.5652 1369 37
86.682 1528 39.0896
86.7988 1524 39.0384
86.9156 1418 37.6563
87.0323 1398 37.3898
87.149 1444 38
87.2657 1441 37.9605
87.3823 1453 38.1182
87.4988 1334 36.524
87.6154 1327 36.428
87.7318 1424 37.7359
87.8483 1423 37.7227
87.9647 1464 38.2623
88.081 1532 39.1408
88.1973 1488 38.5746
88.3136 1494 38.6523
88.4298 1527 39.0768
88.546 1544 39.2938
88.6621 1493 38.6394
88.7781 1379 37.1349
88.8942 0 1
89.0101 0 1
89.126 0 1
89.2419 0 1
89.3577 0 1
89.4734 0 1
89.5891 0 1
89.7047 0 1
89.8203 0 1
89.9358 0 1
92.3269 0 1
92.4424 0 1
92.558 0 1
92.6736 0 1
92.7893 0 1
92.905 0 1
93.0208 0 1
93.1366 0 1
93.2525 0 1
93.3685 0 1
93.4845 0 1
93.6005 1409 37.5366
93.7167 1532 39.1408
93.8328 1504 38.7814
93.949 1460 38.2099
94.0653 1359 36.8646
94.1816 1347 36.7015
94.2979 1298 36.0278
94.4143 1262 35.5246
94.5307 1277 35.7351
94.6472 1191 34.5109
94.7637 1201 34.6554
94.8803 1300 36.0555
94.9969 1340 36.606
95.1135 1257 35.4542
95.2302 1362 36.9053
95.3469 1417 37.6431
95.4637 1353 36.7831
95.5805 1392 37.3095
95.6973 1395 37.3497
95.8142 1372 37.0405
95.9311 1397 37.3765
96.048 1413 37.5899
96.1649 1418 37.6563
96.2819 1380 37.1484
96.3989 1358 36.8511
96.516 1339 36.5923
96.633 1284 35.8329
96.7501 1301 36.0694
96.8673 1336 36.5513
96.9844 1366 36.9594
97.1016 1366 36.9594
97.2188 1368 36.9865
97.336 1448 38.0526
97.4532 1383 37.1887
97.5704 1435 37.8814
97.6877 1447 38.0395
97.805 1419 37.6696
97.9223 1333 36.5103
98.0396 1283 35.819
98.1569 1267 35.5949
98.2743 1149 33.8969
98.3916 1186 34.4384
98.509 1213 34.8281
98.6264 1235 35.1426
98.7438 1300 36.0555
98.8612 1318 36.3043
98.9786 1337 36.565
99.096 1306 36.1386
99.2134 1332 36.4966
99.3308 1386 37.229
99.4482 1369 37
99.5656 1305 36.1248
99.6831 1310 36.1939
99.8005 1274 35.6931
99.9179 1284 35.8329
100.035 1284 35.8329
100.153 1244 35.2704
100.27 1252 35.3836
100.388 1228 35.0428
100.505 1271 35.6511
100.622 1344 36.6606
100.74 1344 36.6606
100.857 1358 36.8511
100.975 1324 36.3868
101.092 1406 37.4967
101.209 1406 37.4967
101.327 1385 37.2156
101.444 1379 37.1349
101.561 1246 35.2987
101.679 1215 34.8569
101.796 1187 34.4529
101.913 1103 33.2114
102.03 1167 34.1614
102.148 1216 34.8712
102.265 1134 33.6749
102.382 1492 38.6264
102.499 1337 36.565
102.616 1306 36.1386
102.733 1380 37.1484
102.851 1422 37.7094
102.968 1379 37.1349
103.085 1368 36.9865
103.202 1467 38.3014
103.319 1351 36.756
103.436 1440 37.9473
103.552 1412 37.5766
103.669 1370 37.0135
103.786 1370 37.0135
103.903 1306 36.1386
104.02 1372 37.0405
104.137 1426 37.7624
104.253 1499 38.7169
104.37 1440 37.9473
104.487 1542 39.2683
104.603 1498 38.704
104.72 1538 39.2173
104.836 1468 38.3145
104.953 1421 37.6962
105.069 1433 37.855
105.186 1322 36.3593
105.302 1341 36.6197
105.418 1351 36.756
105.535 1247 35.3129
105.651 1358 36.8511
105.767 1440 37.9473
105.883 1381 37.1618
105.999 1422 37.7094
106.115 0 1
106.231 0 1
106.347 0 1
106.463 0 1
106.579 0 1
106.694 0 1
106.81 0 1
106.926 0 1
107.041 0 1
107.157 0 1
109.576 0 1
109.692 0 1
109.807 0 1
109.923 0 1
110.039 0 1
110.155 0 1
110.27 0 1
110.386 0 1
110.502 0 1
110.618 1080 32.8634
110.735 1125 33.541
110.851 1192 34.5254
110.967 1303 36.0971
111.083 1217 34.8855
111.199 1311 36.2077
111.316 1249 35.3412
111.432 1242 35.242
111.549 1269 35.623
111.665 1264 35.5528
111.782 1267 35.5949
111.898 1277 35.7351
112.015 1222 34.9571
112.132 1229 35.0571
112.248 1239 35.1994
112.365 1127 33.5708
112.482 1160 34.0588
112.599 1098 33.1361
112.716 1210 34.7851
112.832 1216 34.8712
112.949 1224 34.9857
113.066 1156 34
113.183 1213 34.8281
113.3 1200 34.641
113.417 1249 35.3412
113.534 1138 33.7343
113.652 1181 34.3657
113.769 1121 33.4813
113.886 1010 31.7805
114.003 952 30.8545
114.12 963 31.0322
114.238 999 31.607
114.355 1061 32.573
114.472 1055 32.4808
114.589 999 31.607
114.707 1077 32.8177
114.824 1047 32.3574
114.942 1047 32.3574
115.059 1100 33.1662
115.176 1039 32.2335
115.294 1102 33.1964
115.411 995 31.5436
115.529 978 31.273
115.646 981 31.3209
115.764 1001 31.6386
115.881 898 29.9666
115.999 926 30.4302
116.116 891 29.8496
116.234 934 30.5614
116.351 915 30.249
116.469 946 30.7571
116.586 957 30.9354
116.704 941 30.6757
116.821 951 30.8383
116.939 956 30.9192
117.056 1013 31.8277
117.174 977 31.257
117.291 873 29.5466
117.409 918 30.2985
117.526 763 27.6225
117.644 782 27.9643
117.761 895 29.9166
117.879 876 29.5973
117.996 851 29.1719
118.114 874 29.5635
118.231 892 29.8664
118.349 936 30.5941
118.466 880 29.6648
118.584 945 30.7409
118.701 979 31.289
118.819 947 30.7734
118.936 927 30.4467
119.053 919 30.315
119.171 841 29
119.288 948 30.7896
119.405 976 31.241
119.523 894 29.8998
119.64 850 29.1548
119.757 834 28.8791
119.875 901 30.0167
119.992 938 30.6268
120.109 938 30.6268
120.226 963 31.0322
120.343 985 31.3847
120.46 1033 32.1403
120.578 1033 32.1403
120.695 1113 33.3617
120.812 1023 31.9844
120.929 1033 32.1403
121.046 935 30.5778
121.163 970 31.1448
121.279 919 30.315
121.396 898 29.9666
121.513 974 31.209
121.63 1015 31.8591
121.747 1066 32.6497
121.863 1026 32.0312
121.98 1057 32.5115
122.097 1086 32.9545
122.213 1098 33.1361
122.33 1142 33.7935
122.446 1084 32.9242
122.563 1124 33.5261
122.679 1122 33.4963
122.795 1146 33.8526
122.912 1083 32.909
123.028 1053 32.45
123.144 1004 31.686
123.26 990 31.4643
123.377 0 1
123.493 0 1
123.609 0 1
123.725 0 1
123.84 0 1
123.956 0 1
124.072 0 1
124.188 0 1
124.303 0 1
124.419 0 1
126.852 0 1
126.968 0 1
127.083 0 1
127.199 0 1
127.315 0 1
127.431 0 1
127.547 0 1
127.663 0 1
127.779 0 1
127.895 0 1
128.011 0 1
128.127 0 1
128.243 0 1
128.359 1276 35.7211
128.476 1274 35.6931
128.592 1200 34.641
128.708 1123 33.5112
128.825 1163 34.1028
128.941 1216 34.8712
129.058 1274 35.6931
129.174 1236 35.1568
129.291 1317 36.2905
129.408 1276 35.7211
129.524 1348 36.7151
129.641 1365 36.9459
129.758 1311 36.2077
129.875 1309 36.1801
129.992 1277 35.7351
130.108 1244 35.2704
130.225 1159 34.0441
130.342 1159 34.0441
130.459 1117 33.4215
130.576 1183 34.3948
130.693 1201 34.6554
130.81 1222 34.9571
130.928 1270 35.6371
131.045 1298 36.0278
131.162 1209 34.7707
131.279 1310 36.1939
131.396 1257 35.4542
131.513 1279 35.7631
131.631 1261 35.5106
131.748 1230 35.0714
131.865 1179 34.3366
131.983 1183 34.3948
132.1 1120 33.4664
132.217 1096 33.1059
132.335 1059 32.5423
132.452 1105 33.2415
132.57 1157 34.0147
132.687 1160 34.0588
132.804 1276 35.7211
132.922 1264 35.5528
133.039 1220 34.9285
133.157 1274 35.6931
133.274 1294 35.9722
133.392 1219 34.9142
133.509 1226 35.0143
133.627 1211 34.7994
133.744 1100 33.1662
133.862 1110 33.3167
133.979 1027 32.0468
134.097 1096 33.1059
134.214 1207 34.7419
134.332 1154 33.9706
134.449 1223 34.9714
134.567 1196 34.5832
134.684 1264 35.5528
134.802 1315 36.2629
134.919 1314 36.2491
135.037 1264 35.5528
135.154 1278 35.7491
135.272 1136 33.7046
135.389 1218 34.8999
135.507 1169 34.1906
135.624 1124 33.5261
135.742 1072 32.7414
135.859 1073 32.7567
135.977 1052 32.4345
136.094 993 31.5119
136.211 1096 33.1059
136.329 1066 32.6497
136.446 1153 33.9559
136.564 1104 33.2265
136.681 1134 33.6749
136.798 1192 34.5254
136.915 1119 33.4515
137.033 1175 34.2783
137.15 1149 33.8969
137.267 1007 31.7333
137.384 974 31.209
137.502 1001 31.6386
137.619 963 31.0322
137.736 1029 32.078
137.853 1059 32.5423
137.97 1114 33.3766
138.087 1149 33.8969
138.204 1218 34.8999
138.321 1156 34
138.438 1214 34.8425
138.555 1261 35.5106
138.672 1240 35.2136
138.788 1219 34.9142
138.905 1258 35.4683
139.022 1209 34.7707
139.139 1208 34.7563
139.255 1170 34.2053
139.372 1116 33.4066
139.488 1130 33.6155
139.605 1186 34.4384
139.721 1193 34.5398
139.838 1177 34.3074
139.954 1184 34.4093
140.071 1232 35.0999
140.187 1284 35.8329
140.303 1329 36.4555
140.419 1414 37.6032
140.535 1388 37.2559
140.652 1295 35.9861
140.768 0 1
140.884 0 1
141 0 1
141.115 0 1
141.231 0 1
141.347 0 1
141.463 0 1
141.578 0 1
141.694 0 1
144.104 0 1
144.219 0 1
144.335 0 1
144.45 0 1
144.566 0 1
144.682 0 1
144.798 0 1
144.914 0 1
145.03 0 1
145.146 1525 39.0512
145.262 1626 40.3237
145.378 1761 41.9643
145.494 1906 43.6578
145.61 2056 45.3431
145.726 2103 45.8585
145.842 2194 46.8402
145.959 2224 47.1593
146.075 2248 47.4131
146.192 2312 48.0833
146.308 2344 48.4149
146.425 2220 47.1169
146.541 2523 50.2295
146.658 2744 52.3832
146.774 3073 55.4346
146.891 3287 57.3324
147.008 3505 59.203
147.125 3822 61.8223
147.241 4134 64.2962
147.358 4296 65.5439
147.475 4488 66.9925
147.592 4653 68.2129
147.709 4701 68.5638
147.826 4687 68.4617
147.943 4729 68.7677
148.06 4859 69.7065
148.177 4977 70.5479
148.294 4877 69.8355
148.411 4950 70.3562
148.528 5194 72.0694
148.645 5494 74.1215
148.762 5620 74.9667
148.88 5890 76.7463
148.997 6255 79.0886
149.114 6008 77.5113
149.231 6044 77.7432
149.349 6333 79.5801
149.466 6189 78.6702
149.583 5900 76.8115
149.701 5631 75.04
149.818 5214 72.208
149.935 4869 69.7782
150.053 4976 70.5408
150.17 5142 71.7077
150.287 5424 73.6478
150.405 5757 75.8749
150.522 5721 75.6373
150.64 5927 76.987
150.757 6154 78.4474
150.875 6071 77.9166
150.992 6096 78.0769
151.11 6205 78.7718
151.227 6128 78.2815
151.344 6031 77.6595
151.462 5767 75.9408
151.579 5791 76.0986
151.697 5744 75.7892
151.814 5721 75.6373
151.932 5428 73.675
152.049 5652 75.1798
152.167 5753 75.8485
152.284 5997 77.4403
152.402 6199 78.7337
152.519 6310 79.4355
152.636 6537 80.8517
152.754 6709 81.9085
152.871 6807 82.5045
152.989 6745 82.1279
153.106 6814 82.547
153.223 6465 80.4052
153.341 6085 78.0064
153.458 5773 75.9803
153.575 5537 74.411
153.693 5663 75.2529
153.81 5774 75.9868
153.927 6197 78.721
154.044 6360 79.7496
154.162 6523 80.7651
154.279 6843 82.7224
154.396 7128 84.4275
154.513 7126 84.4156
154.63 7244 85.1117
154.747 7397 86.0058
154.864 7471 86.4349
154.981 7060 84.0238
155.098 7247 85.1293
155.215 7105 84.2912
155.332 6959 83.4206
155.449 6817 82.5651
155.566 6767 82.2618
155.683 6761 82.2253
155.8 7057 84.006
155.917 7307 85.481
156.033 7578 87.0517
156.15 0 1
156.267 0 1
156.383 0 1
156.5 0 1
156.617 0 1
156.733 0 1
156.85 0 1
156.966 0 1
157.082 0 1
157.199 0 1
157.315 0 1
157.431 0 1
157.547 0 1
157.664 0 1
157.78 0 1
157.896 0 1
158.012 0 1
158.128 0 1
158.244 0 1
158.359 0 1
158.475 0 1
158.591 0 1
158.706 0 1
