
6.15755 0 1
6.2731 0 1
6.3887 0 1
6.50437 0 1
6.62009 0 1
6.73587 0 1
6.8517 0 1
6.96759 0 1
7.08353 0 1
7.19952 0 1
7.31557 0 1
7.43166 0 1
7.54781 0 1
7.664 0 1
7.78024 0 1
7.89653 0 1
8.01286 0 1
8.12924 0 1
8.24567 0 1
8.36213 0 1
8.47864 0 1
8.59519 0 1
8.71178 0 1
8.82841 0 1
8.94508 0 1
9.06179 0 1
9.17853 0 1
9.29531 0 1
9.41212 0 1
9.52897 0 1
9.64584 0 1
9.76276 0 1
9.8797 0 1
9.99667 0 1
10.1137 0 1
10.2307 0 1
10.3478 0 1
10.4648 0 1
10.5819 0 1
10.6991 0 1
10.8162 0 1
10.9334 0 1
11.0506 0 1
11.1678 0 1
11.285 0 1
11.4023 0 1
11.5196 0 1
11.6369 0 1
11.7542 0 1
11.8715 0 1
11.9888 0 1
12.1062 0 1
12.2235 0 1
12.3409 0 1
12.4582 0 1
12.5756 0 1
12.693 0 1
12.8104 0 1
12.9278 0 1
13.0452 0 1
13.1626 0 1
13.28 0 1
13.3974 0 1
13.5149 0 1
13.6323 0 1
13.7497 0 1
13.8671 0 1
13.9845 0 1
14.1019 0 1
14.2193 0 1
14.3367 0 1
14.4541 0 1
14.5714 0 1
14.6888 0 1
14.8062 0 1
14.9235 0 1
15.0408 849 29.1376
15.1581 963 31.0322
15.2755 971 31.1609
15.3927 954 30.8869
15.51 902 30.0333
15.6273 931 30.5123
15.7445 951 30.8383
15.8617 835 28.8964
15.9789 908 30.133
16.0961 887 29.7825
16.2132 920 30.3315
16.3304 850 29.1548
16.4475 884 29.7321
16.5646 854 29.2233
16.6816 862 29.3598
16.7986 815 28.5482
16.9156 803 28.3373
17.0326 814 28.5307
17.1496 793 28.1603
17.2665 840 28.9828
17.3833 804 28.3549
17.5002 835 28.8964
17.617 839 28.9655
17.7338 832 28.8444
17.8505 858 29.2916
17.9672 793 28.1603
18.0839 777 27.8747
18.2005 804 28.3549
18.3171 860 29.3258
18.4337 849 29.1376
18.5502 840 28.9828
18.6666 872 29.5296
18.7831 868 29.4618
18.8994 817 28.5832
19.0158 756 27.4955
19.1321 749 27.3679
19.2483 686 26.1916
19.3645 709 26.6271
19.4806 687 26.2107
19.5967 683 26.1343
19.7128 689 26.2488
19.8288 624 24.98
19.9447 580 24.0832
20.0606 0 1
20.1764 0 1
20.2922 0 1
20.4079 0 1
20.5236 0 1
20.6392 0 1
20.7548 0 1
20.8702 0 1
23.3078 0 1
23.4233 0 1
23.539 0 1
23.6547 0 1
23.7704 0 1
23.8862 0 1
24.0021 0 1
24.118 0 1
24.234 0 1
24.35 0 1
24.4661 308 17.5499
24.5822 372 19.2873
24.6984 482 21.9545
24.8146 514 22.6716
24.9309 601 24.5153
25.0472 604 24.5764
25.1636 705 26.5518
25.28 733 27.074
25.3965 856 29.2575
25.513 868 29.4618
25.6296 927 30.4467
25.7462 891 29.8496
25.8628 910 30.1662
25.9795 933 30.545
26.0962 900 30
26.213 819 28.6182
26.3298 823 28.688
26.4466 812 28.4956
26.5635 757 27.5136
26.6804 732 27.0555
26.7973 795 28.1957
26.9143 761 27.5862
27.0313 755 27.4773
27.1483 789 28.0891
27.2653 789 28.0891
27.3824 737 27.1477
27.4996 783 27.9821
27.6167 777 27.8747
27.7339 700 26.4575
27.8511 727 26.9629
27.9683 713 26.7021
28.0855 718 26.7955
28.2028 717 26.7769
28.3201 762 27.6043
28.4374 781 27.9464
28.5547 779 27.9106
28.6721 839 28.9655
28.7894 815 28.5482
28.9068 815 28.5482
29.0242 783 27.9821
29.1416 791 28.1247
29.259 803 28.3373
29.3764 767 27.6948
29.4939 815 28.5482
29.6113 738 27.1662
29.7288 792 28.1425
29.8463 724 26.9072
29.9638 738 27.1662
30.0812 695 26.3629
30.1987 659 25.671
30.3162 710 26.6458
30.4337 715 26.7395
30.5512 786 28.0357
30.6687 710 26.6458
30.7862 817 28.5832
30.9037 769 27.7308
31.0212 779 27.9106
31.1387 777 27.8747
31.2562 742 27.2397
31.3737 708 26.6083
31.4912 757 27.5136
31.6087 718 26.7955
31.7262 735 27.1109
31.8436 712 26.6833
31.9611 738 27.1662
32.0785 753 27.4408
32.1959 765 27.6586
32.3134 745 27.2947
32.4308 776 27.8568
32.5482 751 27.4044
32.6655 756 27.4955
32.7829 639 25.2784
32.9002 695 26.3629
33.0176 676 26
33.1349 676 26
33.2522 704 26.533
33.3694 654 25.5734
33.4867 709 26.6271
33.6039 667 25.8263
33.7211 661 25.7099
33.8383 641 25.318
33.9554 682 26.1151
34.0725 696 26.3818
34.1896 689 26.2488
34.3067 742 27.2397
34.4237 723 26.8887
34.5407 693 26.3249
34.6577 676 26
34.7746 723 26.8887
34.8915 656 25.6125
35.0084 704 26.533
35.1252 596 24.4131
35.242 615 24.7992
35.3587 568 23.8328
35.4755 624 24.98
35.5921 632 25.1396
35.7088 672 25.923
35.8254 710 26.6458
35.9419 703 26.5141
36.0584 662 25.7294
36.1749 632 25.1396
36.2913 703 26.5141
36.4077 593 24.3516
36.524 623 24.96
36.6403 607 24.6374
36.7565 565 23.7697
36.8727 599 24.4745
36.9889 515 22.6936
37.1049 482 21.9545
37.221 0 1
37.3369 0 1
37.4529 0 1
37.5687 0 1
37.6845 0 1
37.8003 0 1
37.916 0 1
38.0316 0 1
38.1472 0 1
40.5851 0 1
40.7008 0 1
40.8164 0 1
40.9322 0 1
41.048 0 1
41.1639 0 1
41.2798 0 1
41.3958 0 1
41.5118 0 1
41.6279 0 1
41.744 271 16.4621
41.8602 319 17.8606
41.9765 350 18.7083
42.0928 420 20.4939
42.2091 455 21.3307
42.3255 475 21.7945
42.4419 474 21.7715
42.5584 470 21.6795
42.675 533 23.0868
42.7915 543 23.3024
42.9081 479 21.8861
43.0248 530 23.0217
43.1415 546 23.3666
43.2582 523 22.8692
43.375 537 23.1733
43.4918 543 23.3024
43.6087 527 22.9565
43.7256 580 24.0832
43.8425 493 22.2036
43.9595 527 22.9565
44.0765 492 22.1811
44.1935 483 21.9773
44.3106 413 20.3224
44.4277 490 22.1359
44.5448 516 22.7156
44.6619 451 21.2368
44.7791 491 22.1585
44.8963 552 23.4947
45.0136 545 23.3452
45.1308 540 23.2379
45.2481 529 23
45.3654 580 24.0832
45.4827 499 22.3383
45.6001 597 24.4336
45.7174 577 24.0208
45.8348 529 23
45.9522 542 23.2809
46.0697 512 22.6274
46.1871 522 22.8473
46.3046 478 21.8632
46.422 511 22.6053
46.5395 469 21.6564
46.657 554 23.5372
46.7745 523 22.8692
46.892 543 23.3024
47.0096 535 23.1301
47.1271 512 22.6274
47.2446 559 23.6432
47.3622 566 23.7908
47.4797 478 21.8632
47.5973 525 22.9129
47.7149 489 22.1133
47.8324 433 20.8087
47.95 458 21.4009
48.0675 462 21.4942
48.1851 494 22.2261
48.3027 494 22.2261
48.4202 507 22.5167
48.5378 517 22.7376
48.6554 530 23.0217
48.7729 514 22.6716
48.8904 514 22.6716
49.008 514 22.6716
49.1255 530 23.0217
49.243 556 23.5797
49.3605 508 22.5389
49.478 535 23.1301
49.5955 458 21.4009
49.713 512 22.6274
49.8304 483 21.9773
49.9479 462 21.4942
50.0653 459 21.4243
50.1827 520 22.8035
50.3001 495 22.2486
50.4175 492 22.1811
50.5348 477 21.8403
50.6521 492 22.1811
50.7694 472 21.7256
50.8867 491 22.1585
51.004 473 21.7486
51.1212 442 21.0238
51.2384 463 21.5174
51.3556 476 21.8174
51.4727 455 21.3307
51.5899 427 20.664
51.707 456 21.3542
51.824 428 20.6882
51.9411 472 21.7256
52.0581 487 22.0681
52.175 469 21.6564
52.2919 477 21.8403
52.4088 500 22.3607
52.5257 495 22.2486
52.6425 475 21.7945
52.7593 534 23.1084
52.876 580 24.0832
52.9927 473 21.7486
53.1094 527 22.9565
53.226 470 21.6795
53.3426 505 22.4722
53.4591 473 21.7486
53.5756 470 21.6795
53.692 445 21.095
53.8084 421 20.5183
53.9248 374 19.3391
54.0411 375 19.3649
54.1573 324 18
54.2735 0 1
54.3896 0 1
54.5057 0 1
54.6217 0 1
54.7377 0 1
54.8537 0 1
54.9695 0 1
55.0853 0 1
55.2011 0 1
55.3168 0 1
55.4324 0 1
57.824 0 1
57.9396 0 1
58.0553 0 1
58.1711 0 1
58.2869 0 1
58.4028 0 1
58.5187 0 1
58.6347 0 1
58.7508 0 1
58.8669 0 1
58.983 420 20.4939
59.0992 476 21.8174
59.2155 509 22.561
59.3318 557 23.6008
59.4482 625 25
59.5646 665 25.7876
59.681 679 26.0576
59.7975 747 27.3313
59.9141 749 27.3679
60.0306 729 27
60.1473 750 27.3861
60.2639 775 27.8388
60.3807 714 26.7208
60.4974 734 27.0924
60.6142 787 28.0535
60.731 747 27.3313
60.8479 717 26.7769
60.9648 720 26.8328
61.0818 716 26.7582
61.1987 701 26.4764
61.3158 777 27.8747
61.4328 662 25.7294
61.5499 656 25.6125
61.667 689 26.2488
61.7841 647 25.4362
61.9013 641 25.318
62.0185 641 25.318
62.1357 624 24.98
62.253 629 25.0799
62.3702 622 24.9399
62.4875 617 24.8395
62.6049 600 24.4949
62.7222 610 24.6982
62.8396 646 25.4165
62.9569 611 24.7184
63.0743 582 24.1247
63.1918 628 25.0599
63.3092 563 23.7276
63.4267 600 24.4949
63.5441 580 24.0832
63.6616 569 23.8537
63.7791 531 23.0434
63.8966 518 22.7596
64.0142 544 23.3238
64.1317 546 23.3666
64.2492 519 22.7816
64.3668 512 22.6274
64.4843 574 23.9583
64.6019 574 23.9583
64.7195 529 23
64.837 583 24.1454
64.9546 561 23.6854
65.0722 593 24.3516
65.1898 598 24.454
65.3074 546 23.3666
65.4249 549 23.4307
65.5425 526 22.9347
65.6601 506 22.4944
65.7777 559 23.6432
65.8952 572 23.9165
66.0128 535 23.1301
66.1304 524 22.891
66.2479 528 22.9783
66.3655 583 24.1454
66.483 533 23.0868
66.6005 517 22.7376
66.718 508 22.5389
66.8355 512 22.6274
66.953 555 23.5584
67.0705 556 23.5797
67.1879 510 22.5832
67.3054 532 23.0651
67.4228 512 22.6274
67.5402 470 21.6795
67.6576 502 22.4054
67.7749 473 21.7486
67.8923 523 22.8692
68.0096 498 22.3159
68.1269 556 23.5797
68.2442 515 22.6936
68.3614 498 22.3159
68.4787 541 23.2594
68.5958 569 23.8537
68.713 512 22.6274
68.8302 550 23.4521
68.9473 579 24.0624
69.0643 509 22.561
69.1814 562 23.7065
69.2984 509 22.561
69.4154 518 22.7596
69.5323 556 23.5797
69.6492 517 22.7376
69.7661 536 23.1517
69.8829 477 21.8403
69.9997 547 23.388
70.1165 516 22.7156
70.2332 576 24
70.3499 480 21.9089
70.4665 496 22.2711
70.5831 433 20.8087
70.6996 446 21.1187
70.8161 393 19.8242
70.9326 382 19.5448
71.049 295 17.1756
71.1653 289 17
71.2817 286 16.9115
71.3979 237 15.3948
71.5141 239 15.4596
71.6303 222 14.8997
71.7464 175 13.2288
71.8624 0 1
71.9784 0 1
72.0944 0 1
72.2102 0 1
72.3261 0 1
72.4418 0 1
72.5575 0 1
72.6732 0 1
75.1054 0 1
75.2209 0 1
75.3365 0 1
75.4521 0 1
75.5678 0 1
75.6835 0 1
75.7993 0 1
75.9151 0 1
76.031 0 1
76.147 327 18.0831
76.263 364 19.0788
76.3791 371 19.2614
76.4952 380 19.4936
76.6113 394 19.8494
76.7276 395 19.8746
76.8438 391 19.7737
76.9601 427 20.664
77.0765 431 20.7605
77.1929 434 20.8327
77.3093 470 21.6795
77.4258 414 20.347
77.5423 450 21.2132
77.6589 466 21.587
77.7755 469 21.6564
77.8921 463 21.5174
78.0088 484 22
78.1256 486 22.0454
78.2423 472 21.7256
78.3591 474 21.7715
78.4759 418 20.445
78.5928 401 20.025
78.7097 410 20.2485
78.8266 419 20.4695
78.9436 437 20.9045
79.0606 436 20.8806
79.1776 477 21.8403
79.2946 476 21.8174
79.4117 444 21.0713
79.5288 480 21.9089
79.6459 427 20.664
79.7631 482 21.9545
79.8802 460 21.4476
79.9974 471 21.7025
80.1147 434 20.8327
80.2319 388 19.6977
80.3491 414 20.347
80.4664 415 20.3715
80.5837 430 20.7364
80.701 447 21.1424
80.8183 453 21.2838
80.9357 435 20.8567
81.053 454 21.3073
81.1704 457 21.3776
81.2877 471 21.7025
81.4051 472 21.7256
81.5225 498 22.3159
81.6399 480 21.9089
81.7573 512 22.6274
81.8747 449 21.1896
81.9922 444 21.0713
82.1096 471 21.7025
82.227 446 21.1187
82.3444 423 20.567
82.4619 406 20.1494
82.5793 431 20.7605
82.6967 414 20.347
82.8142 479 21.8861
82.9316 468 21.6333
83.049 506 22.4944
83.1664 476 21.8174
83.2838 477 21.8403
83.4012 456 21.3542
83.5186 451 21.2368
83.636 491 22.1585
83.7534 470 21.6795
83.8708 460 21.4476
83.9881 432 20.7846
84.1055 415 20.3715
84.2228 450 21.2132
84.3401 460 21.4476
84.4575 458 21.4009
84.5747 461 21.4709
84.692 463 21.5174
84.8093 452 21.2603
84.9265 497 22.2935
85.0437 512 22.6274
85.1609 475 21.7945
85.2781 511 22.6053
85.3952 496 22.2711
85.5123 477 21.8403
85.6294 523 22.8692
85.7465 495 22.2486
85.8636 462 21.4942
85.9806 459 21.4243
86.0976 401 20.025
86.2145 438 20.9284
86.3315 493 22.2036
86.4484 460 21.4476
86.5652 485 22.0227
86.682 469 21.6564
86.7988 494 22.2261
86.9156 510 22.5832
87.0323 461 21.4709
87.149 478 21.8632
87.2657 479 21.8861
87.3823 448 21.166
87.4988 403 20.0749
87.6154 414 20.347
87.7318 349 18.6815
87.8483 364 19.0788
87.9647 379 19.4679
88.081 328 18.1108
88.1973 353 18.7883
88.3136 319 17.8606
88.4298 333 18.2483
88.546 330 18.1659
88.6621 293 17.1172
88.7781 273 16.5227
88.8942 0 1
89.0101 0 1
89.126 0 1
89.2419 0 1
89.3577 0 1
89.4734 0 1
89.5891 0 1
89.7047 0 1
89.8203 0 1
89.9358 0 1
92.3269 0 1
92.4424 0 1
92.558 0 1
92.6736 0 1
92.7893 0 1
92.905 0 1
93.0208 0 1
93.1366 0 1
93.2525 0 1
93.3685 0 1
93.4845 0 1
93.6005 402 20.0499
93.7167 396 19.8997
93.8328 439 20.9523
93.949 433 20.8087
94.0653 490 22.1359
94.1816 510 22.5832
94.2979 515 22.6936
94.4143 483 21.9773
94.5307 532 23.0651
94.6472 500 22.3607
94.7637 522 22.8473
94.8803 493 22.2036
94.9969 508 22.5389
95.1135 429 20.7123
95.2302 464 21.5407
95.3469 457 21.3776
95.4637 533 23.0868
95.5805 518 22.7596
95.6973 534 23.1084
95.8142 480 21.9089
95.9311 494 22.2261
96.048 465 21.5639
96.1649 482 21.9545
96.2819 527 22.9565
96.3989 523 22.8692
96.516 506 22.4944
96.633 463 21.5174
96.7501 475 21.7945
96.8673 442 21.0238
96.9844 425 20.6155
97.1016 390 19.7484
97.2188 436 20.8806
97.336 474 21.7715
97.4532 463 21.5174
97.5704 465 21.5639
97.6877 457 21.3776
97.805 548 23.4094
97.9223 516 22.7156
98.0396 519 22.7816
98.1569 594 24.3721
98.2743 522 22.8473
98.3916 508 22.5389
98.509 500 22.3607
98.6264 478 21.8632
98.7438 455 21.3307
98.8612 486 22.0454
98.9786 501 22.383
99.096 531 23.0434
99.2134 512 22.6274
99.3308 556 23.5797
99.4482 584 24.1661
99.5656 566 23.7908
99.6831 626 25.02
99.8005 666 25.807
99.9179 708 26.6083
100.035 667 25.8263
100.153 616 24.8193
100.27 570 23.8747
100.388 495 22.2486
100.505 550 23.4521
100.622 565 23.7697
100.74 665 25.7876
100.857 710 26.6458
100.975 674 25.9615
101.092 747 27.3313
101.209 727 26.9629
101.327 770 27.7489
101.444 728 26.9815
101.561 787 28.0535
101.679 634 25.1794
101.796 706 26.5707
101.913 686 26.1916
102.03 601 24.5153
102.148 592 24.3311
102.265 605 24.5967
102.382 598 24.454
102.499 585 24.1868
102.616 606 24.6171
102.733 652 25.5343
102.851 667 25.8263
102.968 661 25.7099
103.085 592 24.3311
103.202 619 24.8797
103.319 643 25.3574
103.436 642 25.3377
103.552 611 24.7184
103.669 585 24.1868
103.786 551 23.4734
103.903 558 23.622
104.02 543 23.3024
104.137 549 23.4307
104.253 608 24.6577
104.37 628 25.0599
104.487 593 24.3516
104.603 588 24.2487
104.72 609 24.6779
104.836 602 24.5357
104.953 593 24.3516
105.069 579 24.0624
105.186 524 22.891
105.302 494 22.2261
105.418 474 21.7715
105.535 448 21.166
105.651 395 19.8746
105.767 325 18.0278
105.883 366 19.1311
105.999 325 18.0278
106.115 0 1
106.231 0 1
106.347 0 1
106.463 0 1
106.579 0 1
106.694 0 1
106.81 0 1
106.926 0 1
107.041 0 1
107.157 0 1
109.576 0 1
109.692 0 1
109.807 0 1
109.923 0 1
110.039 0 1
110.155 0 1
110.27 0 1
110.386 0 1
110.502 0 1
110.618 282 16.7929
110.735 324 18
110.851 345 18.5742
110.967 313 17.6918
111.083 400 20
111.199 440 20.9762
111.316 505 22.4722
111.432 517 22.7376
111.549 499 22.3383
111.665 585 24.1868
111.782 578 24.0416
111.898 568 23.8328
112.015 562 23.7065
112.132 517 22.7376
112.248 549 23.4307
112.365 468 21.6333
112.482 471 21.7025
112.599 448 21.166
112.716 468 21.6333
112.832 543 23.3024
112.949 502 22.4054
113.066 511 22.6053
113.183 520 22.8035
113.3 500 22.3607
113.417 495 22.2486
113.534 514 22.6716
113.652 521 22.8254
113.769 511 22.6053
113.886 515 22.6936
114.003 502 22.4054
114.12 485 22.0227
114.238 476 21.8174
114.355 425 20.6155
114.472 445 21.095
114.589 432 20.7846
114.707 497 22.2935
114.824 452 21.2603
114.942 463 21.5174
115.059 475 21.7945
115.176 460 21.4476
115.294 526 22.9347
115.411 465 21.5639
115.529 485 22.0227
115.646 487 22.0681
115.764 439 20.9523
115.881 404 20.0998
115.999 418 20.445
116.116 422 20.5426
116.234 410 20.2485
116.351 414 20.347
116.469 451 21.2368
116.586 427 20.664
116.704 460 21.4476
116.821 443 21.0476
116.939 427 20.664
117.056 437 20.9045
117.174 441 21
117.291 424 20.5913
117.409 474 21.7715
117.526 487 22.0681
117.644 461 21.4709
117.761 446 21.1187
117.879 415 20.3715
117.996 383 19.5704
118.114 403 20.0749
118.231 425 20.6155
118.349 422 20.5426
118.466 484 22
118.584 463 21.5174
118.701 454 21.3073
118.819 423 20.567
118.936 436 20.8806
119.053 388 19.6977
119.171 398 19.9499
119.288 447 21.1424
119.405 393 19.8242
119.523 370 19.2354
119.64 371 19.2614
119.757 366 19.1311
119.875 380 19.4936
119.992 398 19.9499
120.109 396 19.8997
120.226 405 20.1246
120.343 428 20.6882
120.46 393 19.8242
120.578 408 20.199
120.695 457 21.3776
120.812 421 20.5183
120.929 418 20.445
121.046 459 21.4243
121.163 402 20.0499
121.279 413 20.3224
121.396 392 19.799
121.513 348 18.6548
121.63 349 18.6815
121.747 317 17.8045
121.863 359 18.9473
121.98 353 18.7883
122.097 359 18.9473
122.213 338 18.3848
122.33 383 19.5704
122.446 343 18.5203
122.563 325 18.0278
122.679 305 17.4642
122.795 318 17.8326
122.912 271 16.4621
123.028 250 15.8114
123.144 215 14.6629
123.26 173 13.1529
123.377 0 1
123.493 0 1
123.609 0 1
123.725 0 1
123.84 0 1
123.956 0 1
124.072 0 1
124.188 0 1
124.303 0 1
124.419 0 1
126.852 0 1
126.968 0 1
127.083 0 1
127.199 0 1
127.315 0 1
127.431 0 1
127.547 0 1
127.663 0 1
127.779 0 1
127.895 0 1
128.011 0 1
128.127 0 1
128.243 0 1
128.359 449 21.1896
128.476 455 21.3307
128.592 411 20.2731
128.708 426 20.6398
128.825 440 20.9762
128.941 426 20.6398
129.058 457 21.3776
129.174 478 21.8632
129.291 484 22
129.408 507 22.5167
129.524 434 20.8327
129.641 491 22.1585
129.758 467 21.6102
129.875 496 22.2711
129.992 486 22.0454
130.108 513 22.6495
130.225 502 22.4054
130.342 548 23.4094
130.459 511 22.6053
130.576 521 22.8254
130.693 476 21.8174
130.81 504 22.4499
130.928 514 22.6716
131.045 555 23.5584
131.162 626 25.02
131.279 605 24.5967
131.396 634 25.1794
131.513 681 26.096
131.631 682 26.1151
131.748 672 25.923
131.865 676 26
131.983 669 25.865
132.1 643 25.3574
132.217 675 25.9808
132.335 713 26.7021
132.452 765 27.6586
132.57 827 28.7576
132.687 817 28.5832
132.804 882 29.6985
132.922 913 30.2159
133.039 920 30.3315
133.157 935 30.5778
133.274 959 30.9677
133.392 955 30.9031
133.509 1035 32.1714
133.627 988 31.4325
133.744 1031 32.1092
133.862 1023 31.9844
133.979 1006 31.7175
134.097 911 30.1828
134.214 858 29.2916
134.332 880 29.6648
134.449 896 29.9333
134.567 960 30.9839
134.684 1080 32.8634
134.802 1091 33.0303
134.919 1059 32.5423
135.037 1146 33.8526
135.154 1234 35.1283
135.272 1140 33.7639
135.389 1214 34.8425
135.507 1154 33.9706
135.624 1090 33.0151
135.742 1122 33.4963
135.859 1085 32.9393
135.977 1168 34.176
136.094 1149 33.8969
136.211 1238 35.1852
136.329 1254 35.4119
136.446 1249 35.3412
136.564 1166 34.1467
136.681 1210 34.7851
136.798 1233 35.1141
136.915 1203 34.6843
137.033 1177 34.3074
137.15 1150 33.9116
137.267 1226 35.0143
137.384 1155 33.9853
137.502 1122 33.4963
137.619 1052 32.4345
137.736 965 31.0644
137.853 877 29.6142
137.97 880 29.6648
138.087 944 30.7246
138.204 1017 31.8904
138.321 995 31.5436
138.438 1060 32.5576
138.555 1182 34.3802
138.672 1131 33.6303
138.788 1056 32.4962
138.905 1056 32.4962
139.022 1017 31.8904
139.139 969 31.1288
139.255 953 30.8707
139.372 907 30.1164
139.488 782 27.9643
139.605 782 27.9643
139.721 792 28.1425
139.838 778 27.8927
139.954 757 27.5136
140.071 694 26.3439
140.187 647 25.4362
140.303 584 24.1661
140.419 594 24.3721
140.535 585 24.1868
140.652 496 22.2711
140.768 0 1
140.884 0 1
141 0 1
141.115 0 1
141.231 0 1
141.347 0 1
141.463 0 1
141.578 0 1
141.694 0 1
144.104 0 1
144.219 0 1
144.335 0 1
144.45 0 1
144.566 0 1
144.682 0 1
144.798 0 1
144.914 0 1
145.03 0 1
145.146 1062 32.5883
145.262 1216 34.8712
145.378 1349 36.7287
145.494 1302 36.0832
145.61 1460 38.2099
145.726 1533 39.1535
145.842 1748 41.8091
145.959 1895 43.5316
146.075 1941 44.0568
146.192 2107 45.9021
146.308 2181 46.7012
146.425 2309 48.0521
146.541 2340 48.3735
146.658 2294 47.8957
146.774 2500 50
146.891 2668 51.6527
147.008 2904 53.8888
147.125 2950 54.3139
147.241 2964 54.4426
147.358 3024 54.9909
147.475 3094 55.6237
147.592 3001 54.7814
147.709 3211 56.6657
147.826 3017 54.9272
147.943 2552 50.5173
148.06 2028 45.0333
148.177 1786 42.2611
148.294 2087 45.6837
148.411 2615 51.1371
148.528 3119 55.848
148.645 3838 61.9516
148.762 4655 68.2276
148.88 4902 70.0143
148.997 5514 74.2563
149.114 5865 76.5833
149.231 6400 80
149.349 6819 82.5772
149.466 7430 86.1974
149.583 8288 91.0385
149.701 8701 93.2792
149.818 9129 95.5458
149.935 9735 98.6661
150.053 10486 102.401
150.17 10947 104.628
150.287 11315 106.372
150.405 11636 107.87
150.522 12176 110.345
150.64 12288 110.851
150.757 12526 111.92
150.875 13087 114.398
150.992 13695 117.026
151.11 13955 118.131
151.227 13985 118.258
151.344 14308 119.616
151.462 13864 117.745
151.579 12084 109.927
151.697 8680 93.1665
151.814 6982 83.5584
151.932 7495 86.5737
152.049 10312 101.548
152.167 13007 114.048
152.284 14315 119.645
152.402 14301 119.587
152.519 13903 117.911
152.636 14209 119.202
152.754 13944 118.085
152.871 14231 119.294
152.989 14227 119.277
153.106 14734 121.384
153.223 14803 121.668
153.341 15284 123.628
153.458 15965 126.353
153.575 16206 127.303
153.693 16562 128.693
153.81 16963 130.242
153.927 17526 132.386
154.044 18279 135.2
154.162 18724 136.836
154.279 20500 143.178
154.396 23077 151.911
154.513 25216 158.795
154.63 25832 160.723
154.747 25920 160.997
154.864 25302 159.066
154.981 23662 153.825
155.098 24443 156.343
155.215 26454 162.647
155.332 30834 175.596
155.449 33646 183.428
155.566 36137 190.097
155.683 37439 193.492
155.8 38464 196.122
155.917 39529 198.819
156.033 40381 200.95
156.15 0 1
156.267 0 1
156.383 0 1
156.5 0 1
156.617 0 1
156.733 0 1
156.85 0 1
156.966 0 1
157.082 0 1
157.199 0 1
157.315 0 1
157.431 0 1
157.547 0 1
157.664 0 1
157.78 0 1
157.896 0 1
158.012 0 1
158.128 0 1
158.244 0 1
158.359 0 1
158.475 0 1
158.591 0 1
158.706 0 1
