
6.15755 0 1
6.2731 0 1
6.3887 0 1
6.50437 0 1
6.62009 0 1
6.73587 0 1
6.8517 0 1
6.96759 0 1
7.08353 0 1
7.19952 0 1
7.31557 0 1
7.43166 0 1
7.54781 0 1
7.664 0 1
7.78024 0 1
7.89653 0 1
8.01286 0 1
8.12924 0 1
8.24567 0 1
8.36213 0 1
8.47864 0 1
8.59519 0 1
8.71178 0 1
8.82841 0 1
8.94508 0 1
9.06179 0 1
9.17853 0 1
9.29531 0 1
9.41212 0 1
9.52897 0 1
9.64584 0 1
9.76276 0 1
9.8797 0 1
9.99667 0 1
10.1137 0 1
10.2307 0 1
10.3478 0 1
10.4648 0 1
10.5819 0 1
10.6991 0 1
10.8162 0 1
10.9334 0 1
11.0506 0 1
11.1678 0 1
11.285 0 1
11.4023 0 1
11.5196 0 1
11.6369 0 1
11.7542 0 1
11.8715 0 1
11.9888 0 1
12.1062 0 1
12.2235 0 1
12.3409 0 1
12.4582 0 1
12.5756 0 1
12.693 0 1
12.8104 0 1
12.9278 0 1
13.0452 0 1
13.1626 0 1
13.28 0 1
13.3974 0 1
13.5149 0 1
13.6323 0 1
13.7497 0 1
13.8671 0 1
13.9845 0 1
14.1019 0 1
14.2193 0 1
14.3367 0 1
14.4541 0 1
14.5714 0 1
14.6888 0 1
14.8062 0 1
14.9235 0 1
15.0408 0 0
15.1581 0 0
15.2755 0 0
15.3927 0 0
15.51 0 0
15.6273 0 0
15.7445 0 0
15.8617 0 0
15.9789 0 0
16.0961 0 0
16.2132 0 0
16.3304 0 0
16.4475 0 0
16.5646 0 0
16.6816 0 0
16.7986 0 0
16.9156 0 0
17.0326 0 0
17.1496 0 0
17.2665 0 0
17.3833 0 0
17.5002 0 0
17.617 0 0
17.7338 0 0
17.8505 0 0
17.9672 0 0
18.0839 0 0
18.2005 0 0
18.3171 0 0
18.4337 0 0
18.5502 0 0
18.6666 0 0
18.7831 0 0
18.8994 0 0
19.0158 0 0
19.1321 0 0
19.2483 0 0
19.3645 0 0
19.4806 0 0
19.5967 0 0
19.7128 0 0
19.8288 0 0
19.9447 0 0
20.0606 0 1
20.1764 0 1
20.2922 0 1
20.4079 0 1
20.5236 0 1
20.6392 0 1
20.7548 0 1
20.8702 0 1
23.3078 0 1
23.4233 0 1
23.539 0 1
23.6547 0 1
23.7704 0 1
23.8862 0 1
24.0021 0 1
24.118 0 1
24.234 0 1
24.35 0 1
24.4661 1186 34.4384
24.5822 1204 34.6987
24.6984 1265 35.5668
24.8146 1323 36.3731
24.9309 1378 37.1214
25.0472 1603 40.0375
25.1636 1779 42.1782
25.28 2043 45.1996
25.3965 2108 45.913
25.513 2340 48.3735
25.6296 2539 50.3885
25.7462 2600 50.9902
25.8628 2705 52.0096
25.9795 2735 52.2972
26.0962 2726 52.2111
26.213 2770 52.6308
26.3298 2692 51.8845
26.4466 2547 50.4678
26.5635 2651 51.4879
26.6804 2566 50.6557
26.7973 2739 52.3355
26.9143 2703 51.9904
27.0313 2627 51.2543
27.1483 2748 52.4214
27.2653 2675 51.7204
27.3824 2680 51.7687
27.4996 2551 50.5074
27.6167 2721 52.1632
27.7339 2564 50.636
27.8511 2392 48.9081
27.9683 2407 49.0612
28.0855 2373 48.7134
28.2028 2106 45.8912
28.3201 2000 44.7214
28.4374 2036 45.1221
28.5547 1974 44.4297
28.6721 2087 45.6837
28.7894 2419 49.1833
28.9068 2447 49.4672
29.0242 2426 49.2544
29.1416 2425 49.2443
29.259 2382 48.8057
29.3764 2502 50.02
29.4939 2377 48.7545
29.6113 2462 49.6185
29.7288 2461 49.6085
29.8463 2491 49.9099
29.9638 2486 49.8598
30.0812 2591 50.9019
30.1987 2382 48.8057
30.3162 2541 50.4083
30.4337 2437 49.366
30.5512 2525 50.2494
30.6687 2568 50.6754
30.7862 2487 49.8698
30.9037 2537 50.3686
31.0212 2571 50.705
31.1387 2587 50.8626
31.2562 2433 49.3254
31.3737 2445 49.4469
31.4912 2422 49.2138
31.6087 2258 47.5184
31.7262 2121 46.0543
31.8436 1908 43.6807
31.9611 1947 44.1248
32.0785 2084 45.6508
32.1959 2061 45.3982
32.3134 2184 46.7333
32.4308 2385 48.8365
32.5482 2270 47.6445
32.6655 2297 47.927
32.7829 2253 47.4658
32.9002 2306 48.0208
33.0176 2335 48.3218
33.1349 2344 48.4149
33.2522 2323 48.1975
33.3694 2321 48.1768
33.4867 2362 48.6004
33.6039 2384 48.8262
33.7211 2345 48.4252
33.8383 2406 49.051
33.9554 2445 49.4469
34.0725 2457 49.5681
34.1896 2378 48.7647
34.3067 2461 49.6085
34.4237 2468 49.679
34.5407 2439 49.3862
34.6577 2460 49.5984
34.7746 2532 50.319
34.8915 2344 48.4149
35.0084 2376 48.7442
35.1252 2292 47.8748
35.242 2264 47.5815
35.3587 2104 45.8694
35.4755 2028 45.0333
35.5921 1753 41.8688
35.7088 1827 42.7434
35.8254 1822 42.6849
35.9419 2006 44.7884
36.0584 2006 44.7884
36.1749 2120 46.0435
36.2913 2146 46.3249
36.4077 2158 46.4543
36.524 2032 45.0777
36.6403 2014 44.8776
36.7565 1927 43.8976
36.8727 1900 43.589
36.9889 1845 42.9535
37.1049 1721 41.4849
37.221 0 1
37.3369 0 1
37.4529 0 1
37.5687 0 1
37.6845 0 1
37.8003 0 1
37.916 0 1
38.0316 0 1
38.1472 0 1
40.5851 0 1
40.7008 0 1
40.8164 0 1
40.9322 0 1
41.048 0 1
41.1639 0 1
41.2798 0 1
41.3958 0 1
41.5118 0 1
41.6279 0 1
41.744 1061 32.573
41.8602 1201 34.6554
41.9765 1298 36.0278
42.0928 1338 36.5787
42.2091 1414 37.6032
42.3255 1403 37.4566
42.4419 1574 39.6737
42.5584 1606 40.0749
42.675 1705 41.2916
42.7915 1826 42.7317
42.9081 1922 43.8406
43.0248 1933 43.9659
43.1415 2051 45.288
43.2582 1999 44.7102
43.375 2103 45.8585
43.4918 2088 45.6946
43.6087 2075 45.5522
43.7256 2087 45.6837
43.8425 2078 45.5851
43.9595 2066 45.4533
44.0765 2119 46.0326
44.1935 1975 44.441
44.3106 1826 42.7317
44.4277 1718 41.4488
44.5448 1785 42.2493
44.6619 1744 41.7612
44.7791 1921 43.8292
44.8963 1944 44.0908
45.0136 1924 43.8634
45.1308 2011 44.8442
45.2481 1999 44.7102
45.3654 1956 44.2267
45.4827 1935 43.9886
45.6001 1932 43.9545
45.7174 1937 44.0114
45.8348 1958 44.2493
45.9522 1962 44.2945
46.0697 1928 43.909
46.1871 1874 43.2897
46.3046 2045 45.2217
46.422 2040 45.1664
46.5395 2141 46.2709
46.657 2123 46.076
46.7745 2184 46.7333
46.892 2231 47.2335
47.0096 2206 46.9681
47.1271 2297 47.927
47.2446 2156 46.4327
47.3622 2186 46.7547
47.4797 2208 46.9894
47.5973 2140 46.2601
47.7149 2093 45.7493
47.8324 1987 44.5758
47.95 1866 43.1972
48.0675 1807 42.5088
48.1851 1742 41.7373
48.3027 1786 42.2611
48.4202 1934 43.9773
48.5378 2036 45.1221
48.6554 2067 45.4643
48.7729 2034 45.0999
48.8904 1924 43.8634
49.008 1956 44.2267
49.1255 1863 43.1625
49.243 1875 43.3013
49.3605 1978 44.4747
49.478 1935 43.9886
49.5955 1865 43.1856
49.713 1911 43.715
49.8304 1924 43.8634
49.9479 2002 44.7437
50.0653 2057 45.3542
50.1827 2187 46.7654
50.3001 2169 46.5725
50.4175 2331 48.2804
50.5348 2292 47.8748
50.6521 2228 47.2017
50.7694 2280 47.7493
50.8867 2243 47.3603
51.004 2306 48.0208
51.1212 2178 46.669
51.2384 2198 46.8828
51.3556 2031 45.0666
51.4727 1926 43.8862
51.5899 1869 43.2319
51.707 1863 43.1625
51.824 1869 43.2319
51.9411 1925 43.8748
52.0581 1963 44.3058
52.175 1970 44.3847
52.2919 1907 43.6692
52.4088 1838 42.8719
52.5257 1799 42.4146
52.6425 1735 41.6533
52.7593 1706 41.3038
52.876 1722 41.497
52.9927 1754 41.8808
53.1094 1704 41.2795
53.226 1733 41.6293
53.3426 1755 41.8927
53.4591 1780 42.19
53.5756 1764 42
53.692 1892 43.4971
53.8084 1838 42.8719
53.9248 1789 42.2966
54.0411 1722 41.497
54.1573 1750 41.833
54.2735 0 1
54.3896 0 1
54.5057 0 1
54.6217 0 1
54.7377 0 1
54.8537 0 1
54.9695 0 1
55.0853 0 1
55.2011 0 1
55.3168 0 1
55.4324 0 1
57.824 0 1
57.9396 0 1
58.0553 0 1
58.1711 0 1
58.2869 0 1
58.4028 0 1
58.5187 0 1
58.6347 0 1
58.7508 0 1
58.8669 0 1
58.983 1300 36.0555
59.0992 1569 39.6106
59.2155 1776 42.1426
59.3318 1873 43.2782
59.4482 2081 45.618
59.5646 2143 46.2925
59.681 2245 47.3814
59.7975 2405 49.0408
59.9141 2309 48.0521
60.0306 2182 46.7119
60.1473 2229 47.2123
60.2639 2163 46.5081
60.3807 2072 45.5192
60.4974 2055 45.3321
60.6142 2083 45.6399
60.731 2198 46.8828
60.8479 2234 47.2652
60.9648 2201 46.9148
61.0818 2223 47.1487
61.1987 2184 46.7333
61.3158 2160 46.4758
61.4328 2221 47.1275
61.5499 2174 46.6262
61.667 2159 46.465
61.7841 2145 46.3141
61.9013 2190 46.7974
62.0185 2251 47.4447
62.1357 2223 47.1487
62.253 2393 48.9183
62.3702 2575 50.7445
62.4875 2654 51.517
62.6049 2810 53.0094
62.7222 2771 52.6403
62.8396 2880 53.6656
62.9569 3026 55.0091
63.0743 2984 54.626
63.1918 3046 55.1906
63.3092 3015 54.909
63.4267 2808 52.9906
63.5441 2691 51.8748
63.6616 2499 49.99
63.7791 2437 49.366
63.8966 2304 48
64.0142 2321 48.1768
64.1317 2195 46.8508
64.2492 2145 46.3141
64.3668 2147 46.3357
64.4843 2192 46.8188
64.6019 2222 47.1381
64.7195 2127 46.1194
64.837 2035 45.111
64.9546 1968 44.3621
65.0722 2063 45.4203
65.1898 2079 45.5961
65.3074 2040 45.1664
65.4249 2153 46.4004
65.5425 2086 45.6727
65.6601 2171 46.594
65.7777 2264 47.5815
65.8952 2394 48.9285
66.0128 2451 49.5076
66.1304 2625 51.2348
66.2479 2741 52.3546
66.3655 2814 53.0471
66.483 3004 54.8088
66.6005 2976 54.5527
66.718 2910 53.9444
66.8355 2891 53.768
66.953 2845 53.3385
67.0705 2808 52.9906
67.1879 2579 50.7839
67.3054 2468 49.679
67.4228 2220 47.1169
67.5402 2151 46.3789
67.6576 1973 44.4185
67.7749 1855 43.0697
67.8923 1956 44.2267
68.0096 2002 44.7437
68.1269 2105 45.8803
68.2442 2169 46.5725
68.3614 2138 46.2385
68.4787 2101 45.8367
68.5958 1983 44.5309
68.713 1949 44.1475
68.8302 1992 44.6318
68.9473 1979 44.486
69.0643 1915 43.7607
69.1814 1868 43.2204
69.2984 1907 43.6692
69.4154 1952 44.1814
69.5323 2038 45.1442
69.6492 2184 46.7333
69.7661 2357 48.5489
69.8829 2515 50.1498
69.9997 2594 50.9313
70.1165 2564 50.636
70.2332 2545 50.448
70.3499 2457 49.5681
70.4665 2329 48.2597
70.5831 2262 47.5605
70.6996 2091 45.7275
70.8161 1956 44.2267
70.9326 1847 42.9767
71.049 1637 40.4599
71.1653 1448 38.0526
71.2817 1324 36.3868
71.3979 1186 34.4384
71.5141 1086 32.9545
71.6303 1113 33.3617
71.7464 1007 31.7333
71.8624 0 1
71.9784 0 1
72.0944 0 1
72.2102 0 1
72.3261 0 1
72.4418 0 1
72.5575 0 1
72.6732 0 1
75.1054 0 1
75.2209 0 1
75.3365 0 1
75.4521 0 1
75.5678 0 1
75.6835 0 1
75.7993 0 1
75.9151 0 1
76.031 0 1
76.147 1459 38.1969
76.263 1451 38.092
76.3791 1507 38.8201
76.4952 1370 37.0135
76.6113 1304 36.1109
76.7276 1335 36.5377
76.8438 1311 36.2077
76.9601 1459 38.1969
77.0765 1506 38.8072
77.1929 1574 39.6737
77.3093 1760 41.9524
77.4258 1868 43.2204
77.5423 1828 42.7551
77.6589 1807 42.5088
77.7755 1787 42.2729
77.8921 1689 41.0974
78.0088 1770 42.0714
78.1256 1641 40.5093
78.2423 1739 41.7013
78.3591 1705 41.2916
78.4759 1873 43.2782
78.5928 1960 44.2719
78.7097 2179 46.6798
78.8266 2402 49.0102
78.9436 2493 49.93
79.0606 2617 51.1566
79.1776 2500 50
79.2946 2664 51.614
79.4117 2752 52.4595
79.5288 2730 52.2494
79.6459 2496 49.96
79.7631 2399 48.9796
79.8802 2213 47.0425
79.9974 2050 45.2769
80.1147 1840 42.8952
80.2319 1760 41.9524
80.3491 1705 41.2916
80.4664 1728 41.5692
80.5837 1705 41.2916
80.701 1732 41.6173
80.8183 1868 43.2204
80.9357 1905 43.6463
81.053 1972 44.4072
81.1704 1987 44.5758
81.2877 1887 43.4396
81.4051 1855 43.0697
81.5225 1866 43.1972
81.6399 1763 41.9881
81.7573 1679 40.9756
81.8747 1766 42.0238
81.9922 1741 41.7253
82.1096 1893 43.5086
82.227 1975 44.441
82.3444 2177 46.6583
82.4619 2477 49.7695
82.5793 2539 50.3885
82.6967 2595 50.9411
82.8142 2780 52.7257
82.9316 2765 52.5833
83.049 2797 52.8867
83.1664 2641 51.3907
83.2838 2599 50.9804
83.4012 2414 49.1325
83.5186 2141 46.2709
83.636 2056 45.3431
83.7534 1963 44.3058
83.8708 1853 43.0465
83.9881 1753 41.8688
84.1055 1735 41.6533
84.2228 1750 41.833
84.3401 1694 41.1582
84.4575 1851 43.0232
84.5747 2049 45.2659
84.692 2086 45.6727
84.8093 2091 45.7275
84.9265 2017 44.911
85.0437 1843 42.9302
85.1609 1859 43.1161
85.2781 1766 42.0238
85.3952 1669 40.8534
85.5123 1703 41.2674
85.6294 1701 41.2432
85.7465 1825 42.72
85.8636 2000 44.7214
85.9806 2213 47.0425
86.0976 2404 49.0306
86.2145 2570 50.6952
86.3315 2593 50.9215
86.4484 2653 51.5073
86.5652 2642 51.4004
86.682 2549 50.4876
86.7988 2462 49.6185
86.9156 2466 49.6588
87.0323 2263 47.571
87.149 2173 46.6154
87.2657 2138 46.2385
87.3823 1950 44.1588
87.4988 1849 43
87.6154 1651 40.6325
87.7318 1617 40.2119
87.8483 1658 40.7185
87.9647 1521 39
88.081 1640 40.4969
88.1973 1656 40.694
88.3136 1648 40.5956
88.4298 1386 37.229
88.546 1276 35.7211
88.6621 1082 32.8938
88.7781 893 29.8831
88.8942 0 1
89.0101 0 1
89.126 0 1
89.2419 0 1
89.3577 0 1
89.4734 0 1
89.5891 0 1
89.7047 0 1
89.8203 0 1
89.9358 0 1
92.3269 0 1
92.4424 0 1
92.558 0 1
92.6736 0 1
92.7893 0 1
92.905 0 1
93.0208 0 1
93.1366 0 1
93.2525 0 1
93.3685 0 1
93.4845 0 1
93.6005 1227 35.0286
93.7167 1414 37.6032
93.8328 1662 40.7676
93.949 1814 42.5911
94.0653 1790 42.3084
94.1816 1794 42.3556
94.2979 1873 43.2782
94.4143 1920 43.8178
94.5307 1773 42.107
94.6472 1785 42.2493
94.7637 1849 43
94.8803 1963 44.3058
94.9969 1979 44.486
95.1135 2243 47.3603
95.2302 2455 49.548
95.3469 2651 51.4879
95.4637 2835 53.2447
95.5805 2851 53.3948
95.6973 2914 53.9815
95.8142 2869 53.563
95.9311 2808 52.9906
96.048 2710 52.0577
96.1649 2601 51
96.2819 2378 48.7647
96.3989 2292 47.8748
96.516 2147 46.3357
96.633 2061 45.3982
96.7501 1964 44.317
96.8673 1874 43.2897
96.9844 1762 41.9762
97.1016 1734 41.6413
97.2188 1751 41.845
97.336 1952 44.1814
97.4532 2071 45.5082
97.5704 2177 46.6583
97.6877 2165 46.5296
97.805 2100 45.8258
97.9223 2016 44.8999
98.0396 1928 43.909
98.1569 1856 43.0813
98.2743 1834 42.8252
98.3916 1836 42.8486
98.509 1899 43.5775
98.6264 1959 44.2606
98.7438 2089 45.7056
98.8612 2311 48.0729
98.9786 2505 50.05
99.096 2674 51.7107
99.2134 2834 53.2353
99.3308 2843 53.3198
99.4482 2855 53.4322
99.5656 2761 52.5452
99.6831 2803 52.9434
99.8005 2697 51.9326
99.9179 2516 50.1597
100.035 2532 50.319
100.153 2204 46.9468
100.27 2062 45.4093
100.388 1952 44.1814
100.505 1806 42.4971
100.622 1826 42.7317
100.74 1795 42.3674
100.857 1868 43.2204
100.975 2008 44.8107
101.092 2300 47.9583
101.209 2321 48.1768
101.327 2192 46.8188
101.444 2119 46.0326
101.561 2061 45.3982
101.679 1936 44
101.796 1986 44.5646
101.913 1859 43.1161
102.03 2001 44.7325
102.148 2039 45.1553
102.265 2247 47.4025
102.382 2547 50.4678
102.499 2681 51.7784
102.616 2879 53.6563
102.733 3012 54.8817
102.851 2963 54.4334
102.968 3070 55.4076
103.085 3098 55.6597
103.202 3136 56
103.319 2948 54.2955
103.436 2804 52.9528
103.552 2642 51.4004
103.669 2411 49.1019
103.786 2276 47.7074
103.903 2034 45.0999
104.02 1993 44.643
104.137 1884 43.4051
104.253 1936 44
104.37 1962 44.2945
104.487 2179 46.6798
104.603 2249 47.4236
104.72 2129 46.1411
104.836 1978 44.4747
104.953 1840 42.8952
105.069 1765 42.0119
105.186 1578 39.724
105.302 1600 40
105.418 1589 39.8623
105.535 1478 38.4448
105.651 1481 38.4838
105.767 1444 38
105.883 1559 39.4842
105.999 1590 39.8748
106.115 0 1
106.231 0 1
106.347 0 1
106.463 0 1
106.579 0 1
106.694 0 1
106.81 0 1
106.926 0 1
107.041 0 1
107.157 0 1
109.576 0 1
109.692 0 1
109.807 0 1
109.923 0 1
110.039 0 1
110.155 0 1
110.27 0 1
110.386 0 1
110.502 0 1
110.618 1137 33.7194
110.735 1344 36.6606
110.851 1524 39.0384
110.967 1704 41.2795
111.083 1912 43.7264
111.199 2139 46.2493
111.316 2146 46.3249
111.432 2286 47.8121
111.549 2337 48.3425
111.665 2413 49.1223
111.782 2427 49.2646
111.898 2369 48.6724
112.015 2237 47.2969
112.132 2113 45.9674
112.248 2056 45.3431
112.365 1953 44.1928
112.482 1830 42.7785
112.599 1800 42.4264
112.716 1786 42.2611
112.832 1710 41.3521
112.949 1690 41.1096
113.066 1769 42.0595
113.183 1912 43.7264
113.3 1952 44.1814
113.417 2109 45.9239
113.534 1920 43.8178
113.652 1992 44.6318
113.769 1942 44.0681
113.886 1898 43.566
114.003 1828 42.7551
114.12 1794 42.3556
114.238 1948 44.1362
114.355 2105 45.8803
114.472 2441 49.4065
114.589 2488 49.8799
114.707 2690 51.8652
114.824 2898 53.8331
114.942 2904 53.8888
115.059 3030 55.0454
115.176 3014 54.8999
115.294 2970 54.4977
115.411 2849 53.376
115.529 2780 52.7257
115.646 2451 49.5076
115.764 2255 47.4868
115.881 2201 46.9148
115.999 2045 45.2217
116.116 1927 43.8976
116.234 1929 43.9204
116.351 1849 43
116.469 1709 41.3401
116.586 1884 43.4051
116.704 2027 45.0222
116.821 2099 45.8148
116.939 2078 45.5851
117.056 2088 45.6946
117.174 1999 44.7102
117.291 2121 46.0543
117.409 2052 45.299
117.526 2006 44.7884
117.644 1973 44.4185
117.761 2103 45.8585
117.879 2125 46.0977
117.996 2456 49.558
118.114 2626 51.2445
118.231 2930 54.1295
118.349 3010 54.8635
118.466 3047 55.1996
118.584 2911 53.9537
118.701 2965 54.4518
118.819 2981 54.5985
118.936 2942 54.2402
119.053 2817 53.0754
119.171 2600 50.9902
119.288 2479 49.7896
119.405 2281 47.7598
119.523 2106 45.8912
119.64 1986 44.5646
119.757 1974 44.4297
119.875 1825 42.72
119.992 1835 42.8369
120.109 1785 42.2493
120.226 1800 42.4264
120.343 1875 43.3013
120.46 1984 44.5421
120.578 1876 43.3128
120.695 1927 43.8976
120.812 1851 43.0232
120.929 1919 43.8064
121.046 1930 43.9318
121.163 1904 43.6348
121.279 1899 43.5775
121.396 1840 42.8952
121.513 1760 41.9524
121.63 2135 46.2061
121.747 2116 46
121.863 2343 48.4045
121.98 2314 48.1041
122.097 2298 47.9375
122.213 2346 48.4355
122.33 2299 47.9479
122.446 2243 47.3603
122.563 2100 45.8258
122.679 2006 44.7884
122.795 1902 43.6119
122.912 1735 41.6533
123.028 1527 39.0768
123.144 1460 38.2099
123.26 1238 35.1852
123.377 0 1
123.493 0 1
123.609 0 1
123.725 0 1
123.84 0 1
123.956 0 1
124.072 0 1
124.188 0 1
124.303 0 1
124.419 0 1
126.852 0 1
126.968 0 1
127.083 0 1
127.199 0 1
127.315 0 1
127.431 0 1
127.547 0 1
127.663 0 1
127.779 0 1
127.895 0 1
128.011 0 1
128.127 0 1
128.243 0 1
128.359 2312 48.0833
128.476 2313 48.0937
128.592 2196 46.8615
128.708 2164 46.5188
128.825 2184 46.7333
128.941 2131 46.1628
129.058 2015 44.8888
129.174 1956 44.2267
129.291 1966 44.3396
129.408 2005 44.7772
129.524 2171 46.594
129.641 2259 47.5289
129.758 2173 46.6154
129.875 2198 46.8828
129.992 2356 48.5386
130.108 2333 48.3011
130.225 2273 47.676
130.342 2269 47.634
130.459 2290 47.8539
130.576 2341 48.3839
130.693 2457 49.5681
130.81 2436 49.3559
130.928 2690 51.8652
131.045 2762 52.5547
131.162 2744 52.3832
131.279 2839 53.2823
131.396 2743 52.3737
131.513 2694 51.9038
131.631 2681 51.7784
131.748 2616 51.1468
131.865 2535 50.3488
131.983 2462 49.6185
132.1 2321 48.1768
132.217 2243 47.3603
132.335 2221 47.1275
132.452 2066 45.4533
132.57 2129 46.1411
132.687 2076 45.5631
132.804 1852 43.0349
132.922 1972 44.4072
133.039 2052 45.299
133.157 2029 45.0444
133.274 2199 46.8935
133.392 2195 46.8508
133.509 2253 47.4658
133.627 2277 47.7179
133.744 2295 47.9062
133.862 2238 47.3075
133.979 2193 46.8295
134.097 2326 48.2286
134.214 2322 48.1871
134.332 2436 49.3559
134.449 2448 49.4773
134.567 2544 50.4381
134.684 2630 51.2835
134.802 2523 50.2295
134.919 2648 51.4587
135.037 2579 50.7839
135.154 2644 51.4198
135.272 2631 51.2933
135.389 2561 50.6063
135.507 2531 50.309
135.624 2435 49.3457
135.742 2355 48.5283
135.859 2200 46.9042
135.977 2225 47.1699
136.094 2216 47.0744
136.211 2095 45.7712
136.329 2169 46.5725
136.446 2090 45.7165
136.564 2131 46.1628
136.681 2095 45.7712
136.798 2249 47.4236
136.915 2283 47.7807
137.033 2274 47.6865
137.15 2321 48.1768
137.267 2390 48.8876
137.384 2264 47.5815
137.502 2232 47.244
137.619 2183 46.7226
137.736 2118 46.0217
137.853 2285 47.8017
137.97 2318 48.1456
138.087 2478 49.7795
138.204 2468 49.679
138.321 2432 49.3153
138.438 2434 49.3356
138.555 2479 49.7896
138.672 2419 49.1833
138.788 2335 48.3218
138.905 2314 48.1041
139.022 2158 46.4543
139.139 2016 44.8999
139.255 2014 44.8776
139.372 1883 43.3935
139.488 1841 42.9069
139.605 1654 40.6694
139.721 1584 39.7995
139.838 1462 38.2361
139.954 1362 36.9053
140.071 1354 36.7967
140.187 1293 35.9583
140.303 1295 35.9861
140.419 1146 33.8526
140.535 1127 33.5708
140.652 1136 33.7046
140.768 0 1
140.884 0 1
141 0 1
141.115 0 1
141.231 0 1
141.347 0 1
141.463 0 1
141.578 0 1
141.694 0 1
144.104 0 1
144.219 0 1
144.335 0 1
144.45 0 1
144.566 0 1
144.682 0 1
144.798 0 1
144.914 0 1
145.03 0 1
145.146 1454 38.1314
145.262 1482 38.4968
145.378 1634 40.4228
145.494 1654 40.6694
145.61 1781 42.2019
145.726 1851 43.0232
145.842 1872 43.2666
145.959 1874 43.2897
146.075 1944 44.0908
146.192 1777 42.1545
146.308 1767 42.0357
146.425 1741 41.7253
146.541 1736 41.6653
146.658 1853 43.0465
146.774 1938 44.0227
146.891 1988 44.587
147.008 2009 44.8219
147.125 2038 45.1442
147.241 2121 46.0543
147.358 2069 45.4863
147.475 2160 46.4758
147.592 2131 46.1628
147.709 2039 45.1553
147.826 2007 44.7996
147.943 2043 45.1996
148.06 1982 44.5197
148.177 2026 45.0111
148.294 1935 43.9886
148.411 1797 42.391
148.528 1840 42.8952
148.645 1870 43.2435
148.762 1854 43.0581
148.88 1818 42.638
148.997 1828 42.7551
149.114 1808 42.5206
149.231 1874 43.2897
149.349 1845 42.9535
149.466 1871 43.2551
149.583 1867 43.2088
149.701 1913 43.7379
149.818 1819 42.6497
149.935 1808 42.5206
150.053 1733 41.6293
150.17 1773 42.107
150.287 1758 41.9285
150.405 1921 43.8292
150.522 2035 45.111
150.64 2014 44.8776
150.757 2040 45.1664
150.875 2149 46.3573
150.992 2046 45.2327
151.11 2123 46.076
151.227 2101 45.8367
151.344 2159 46.465
151.462 2109 45.9239
151.579 2012 44.8553
151.697 2026 45.0111
151.814 2059 45.3762
151.932 1966 44.3396
152.049 2006 44.7884
152.167 1938 44.0227
152.284 1856 43.0813
152.402 1896 43.5431
152.519 1839 42.8836
152.636 1852 43.0349
152.754 1967 44.3509
152.871 1951 44.1701
152.989 2038 45.1442
153.106 1967 44.3509
153.223 2098 45.8039
153.341 2099 45.8148
153.458 1970 44.3847
153.575 1901 43.6005
153.693 1874 43.2897
153.81 1909 43.6921
153.927 2056 45.3431
154.044 2237 47.2969
154.162 2202 46.9255
154.279 2198 46.8828
154.396 2339 48.3632
154.513 2315 48.1144
154.63 2425 49.2443
154.747 2431 49.3052
154.864 2431 49.3052
154.981 2329 48.2597
155.098 2295 47.9062
155.215 2220 47.1169
155.332 2147 46.3357
155.449 2137 46.2277
155.566 2073 45.5302
155.683 2022 44.9667
155.8 1989 44.5982
155.917 1870 43.2435
156.033 1822 42.6849
156.15 0 1
156.267 0 1
156.383 0 1
156.5 0 1
156.617 0 1
156.733 0 1
156.85 0 1
156.966 0 1
157.082 0 1
157.199 0 1
157.315 0 1
157.431 0 1
157.547 0 1
157.664 0 1
157.78 0 1
157.896 0 1
158.012 0 1
158.128 0 1
158.244 0 1
158.359 0 1
158.475 0 1
158.591 0 1
158.706 0 1
