
6.15755 0 1
6.2731 0 1
6.3887 0 1
6.50437 0 1
6.62009 0 1
6.73587 0 1
6.8517 0 1
6.96759 0 1
7.08353 0 1
7.19952 0 1
7.31557 0 1
7.43166 0 1
7.54781 0 1
7.664 0 1
7.78024 0 1
7.89653 0 1
8.01286 0 1
8.12924 0 1
8.24567 0 1
8.36213 0 1
8.47864 0 1
8.59519 0 1
8.71178 0 1
8.82841 0 1
8.94508 0 1
9.06179 0 1
9.17853 0 1
9.29531 0 1
9.41212 0 1
9.52897 0 1
9.64584 0 1
9.76276 0 1
9.8797 0 1
9.99667 0 1
10.1137 0 1
10.2307 0 1
10.3478 0 1
10.4648 0 1
10.5819 0 1
10.6991 0 1
10.8162 0 1
10.9334 0 1
11.0506 0 1
11.1678 0 1
11.285 0 1
11.4023 0 1
11.5196 0 1
11.6369 0 1
11.7542 0 1
11.8715 0 1
11.9888 0 1
12.1062 0 1
12.2235 0 1
12.3409 0 1
12.4582 0 1
12.5756 0 1
12.693 0 1
12.8104 0 1
12.9278 0 1
13.0452 0 1
13.1626 0 1
13.28 0 1
13.3974 0 1
13.5149 0 1
13.6323 0 1
13.7497 0 1
13.8671 0 1
13.9845 0 1
14.1019 0 1
14.2193 0 1
14.3367 0 1
14.4541 0 1
14.5714 0 1
14.6888 0 1
14.8062 0 1
14.9235 0 1
15.0408 1386 37.229
15.1581 1555 39.4335
15.2755 1512 38.8844
15.3927 1570 39.6232
15.51 1491 38.6135
15.6273 1545 39.3065
15.7445 1520 38.9872
15.8617 1483 38.5097
15.9789 1386 37.229
16.0961 1372 37.0405
16.2132 1376 37.0945
16.3304 1289 35.9026
16.4475 1191 34.5109
16.5646 1227 35.0286
16.6816 1190 34.4964
16.7986 1140 33.7639
16.9156 1149 33.8969
17.0326 1159 34.0441
17.1496 1147 33.8674
17.2665 1078 32.8329
17.3833 1092 33.0454
17.5002 1055 32.4808
17.617 1116 33.4066
17.7338 1182 34.3802
17.8505 1164 34.1174
17.9672 1178 34.322
18.0839 1272 35.6651
18.2005 1231 35.0856
18.3171 1333 36.5103
18.4337 1399 37.4032
18.5502 1388 37.2559
18.6666 1370 37.0135
18.7831 1370 37.0135
18.8994 1317 36.2905
19.0158 1295 35.9861
19.1321 1282 35.805
19.2483 1255 35.426
19.3645 1160 34.0588
19.4806 1110 33.3167
19.5967 1030 32.0936
19.7128 944 30.7246
19.8288 875 29.5804
19.9447 808 28.4253
20.0606 0 1
20.1764 0 1
20.2922 0 1
20.4079 0 1
20.5236 0 1
20.6392 0 1
20.7548 0 1
20.8702 0 1
23.3078 0 1
23.4233 0 1
23.539 0 1
23.6547 0 1
23.7704 0 1
23.8862 0 1
24.0021 0 1
24.118 0 1
24.234 0 1
24.35 0 1
24.4661 592 24.3311
24.5822 691 26.2869
24.6984 733 27.074
24.8146 793 28.1603
24.9309 950 30.8221
25.0472 1014 31.8434
25.1636 1096 33.1059
25.28 1145 33.8378
25.3965 1164 34.1174
25.513 1236 35.1568
25.6296 1300 36.0555
25.7462 1303 36.0971
25.8628 1238 35.1852
25.9795 1287 35.8748
26.0962 1335 36.5377
26.213 1316 36.2767
26.3298 1342 36.6333
26.4466 1254 35.4119
26.5635 1292 35.9444
26.6804 1216 34.8712
26.7973 1250 35.3553
26.9143 1284 35.8329
27.0313 1364 36.9324
27.1483 1335 36.5377
27.2653 1400 37.4166
27.3824 1406 37.4967
27.4996 1389 37.2693
27.6167 1357 36.8375
27.7339 1375 37.081
27.8511 1369 37
27.9683 1275 35.7071
28.0855 1309 36.1801
28.2028 1267 35.5949
28.3201 1305 36.1248
28.4374 1361 36.8917
28.5547 1293 35.9583
28.6721 1316 36.2767
28.7894 1357 36.8375
28.9068 1376 37.0945
29.0242 1287 35.8748
29.1416 1268 35.609
29.259 1215 34.8569
29.3764 1228 35.0428
29.4939 1259 35.4824
29.6113 1289 35.9026
29.7288 1335 36.5377
29.8463 1309 36.1801
29.9638 1299 36.0416
30.0812 1309 36.1801
30.1987 1244 35.2704
30.3162 1322 36.3593
30.4337 1288 35.8887
30.5512 1292 35.9444
30.6687 1389 37.2693
30.7862 1323 36.3731
30.9037 1387 37.2424
31.0212 1375 37.081
31.1387 1474 38.3927
31.2562 1422 37.7094
31.3737 1425 37.7492
31.4912 1422 37.7094
31.6087 1325 36.4005
31.7262 1313 36.2353
31.8436 1258 35.4683
31.9611 1268 35.609
32.0785 1248 35.327
32.1959 1345 36.6742
32.3134 1264 35.5528
32.4308 1377 37.108
32.5482 1272 35.6651
32.6655 1327 36.428
32.7829 1248 35.327
32.9002 1322 36.3593
33.0176 1279 35.7631
33.1349 1313 36.2353
33.2522 1256 35.4401
33.3694 1253 35.3977
33.4867 1326 36.4143
33.6039 1273 35.6791
33.7211 1264 35.5528
33.8383 1239 35.1994
33.9554 1251 35.3695
34.0725 1280 35.7771
34.1896 1339 36.5923
34.3067 1398 37.3898
34.4237 1346 36.6879
34.5407 1378 37.1214
34.6577 1460 38.2099
34.7746 1442 37.9737
34.8915 1478 38.4448
35.0084 1408 37.5233
35.1252 1424 37.7359
35.242 1335 36.5377
35.3587 1353 36.7831
35.4755 1292 35.9444
35.5921 1261 35.5106
35.7088 1302 36.0832
35.8254 1346 36.6879
35.9419 1250 35.3553
36.0584 1298 36.0278
36.1749 1285 35.8469
36.2913 1241 35.2278
36.4077 1209 34.7707
36.524 1068 32.6803
36.6403 1067 32.665
36.7565 941 30.6757
36.8727 960 30.9839
36.9889 867 29.4449
37.1049 778 27.8927
37.221 0 1
37.3369 0 1
37.4529 0 1
37.5687 0 1
37.6845 0 1
37.8003 0 1
37.916 0 1
38.0316 0 1
38.1472 0 1
40.5851 0 1
40.7008 0 1
40.8164 0 1
40.9322 0 1
41.048 0 1
41.1639 0 1
41.2798 0 1
41.3958 0 1
41.5118 0 1
41.6279 0 1
41.744 758 27.5318
41.8602 863 29.3769
41.9765 911 30.1828
42.0928 979 31.289
42.2091 987 31.4166
42.3255 1065 32.6343
42.4419 995 31.5436
42.5584 1073 32.7567
42.675 1021 31.9531
42.7915 1077 32.8177
42.9081 1205 34.7131
43.0248 1126 33.5559
43.1415 1291 35.9305
43.2582 1309 36.1801
43.375 1289 35.9026
43.4918 1420 37.6829
43.6087 1365 36.9459
43.7256 1393 37.3229
43.8425 1357 36.8375
43.9595 1398 37.3898
44.0765 1439 37.9342
44.1935 1382 37.1753
44.3106 1398 37.3898
44.4277 1462 38.2361
44.5448 1432 37.8418
44.6619 1480 38.4708
44.7791 1535 39.1791
44.8963 1588 39.8497
45.0136 1613 40.1622
45.1308 1636 40.4475
45.2481 1575 39.6863
45.3654 1655 40.6817
45.4827 1672 40.8901
45.6001 1687 41.0731
45.7174 1692 41.1339
45.8348 1719 41.4608
45.9522 1620 40.2492
46.0697 1553 39.4081
46.1871 1587 39.8372
46.3046 1655 40.6817
46.422 1649 40.6079
46.5395 1730 41.5933
46.657 1984 44.5421
46.7745 1926 43.8862
46.892 2087 45.6837
47.0096 2226 47.1805
47.1271 2328 48.2494
47.2446 2298 47.9375
47.3622 2380 48.7852
47.4797 2392 48.9081
47.5973 2407 49.0612
47.7149 2412 49.1121
47.8324 2407 49.0612
47.95 2336 48.3322
48.0675 2344 48.4149
48.1851 2330 48.2701
48.3027 2374 48.7237
48.4202 2184 46.7333
48.5378 2254 47.4763
48.6554 2176 46.6476
48.7729 2251 47.4447
48.8904 2138 46.2385
49.008 2128 46.1303
49.1255 2047 45.2438
49.243 2051 45.288
49.3605 1844 42.9418
49.478 1636 40.4475
49.5955 1575 39.6863
49.713 1471 38.3536
49.8304 1530 39.1152
49.9479 1571 39.6358
50.0653 1794 42.3556
50.1827 1761 41.9643
50.3001 1700 41.2311
50.4175 1764 42
50.5348 1795 42.3674
50.6521 1838 42.8719
50.7694 1821 42.6732
50.8867 1833 42.8135
51.004 1794 42.3556
51.1212 1771 42.0833
51.2384 1655 40.6817
51.3556 1666 40.8167
51.4727 1584 39.7995
51.5899 1620 40.2492
51.707 1496 38.6782
51.824 1484 38.5227
51.9411 1527 39.0768
52.0581 1465 38.2753
52.175 1520 38.9872
52.2919 1454 38.1314
52.4088 1460 38.2099
52.5257 1446 38.0263
52.6425 1382 37.1753
52.7593 1353 36.7831
52.876 1271 35.6511
52.9927 1172 34.2345
53.1094 1271 35.6511
53.226 1154 33.9706
53.3426 1154 33.9706
53.4591 1150 33.9116
53.5756 1134 33.6749
53.692 1063 32.6037
53.8084 1117 33.4215
53.9248 1065 32.6343
54.0411 989 31.4484
54.1573 941 30.6757
54.2735 0 1
54.3896 0 1
54.5057 0 1
54.6217 0 1
54.7377 0 1
54.8537 0 1
54.9695 0 1
55.0853 0 1
55.2011 0 1
55.3168 0 1
55.4324 0 1
57.824 0 1
57.9396 0 1
58.0553 0 1
58.1711 0 1
58.2869 0 1
58.4028 0 1
58.5187 0 1
58.6347 0 1
58.7508 0 1
58.8669 0 1
58.983 1367 36.973
59.0992 1430 37.8153
59.2155 1577 39.7115
59.3318 1646 40.5709
59.4482 1739 41.7013
59.5646 1995 44.6654
59.681 1977 44.4635
59.7975 2011 44.8442
59.9141 2027 45.0222
60.0306 1963 44.3058
60.1473 1906 43.6578
60.2639 1947 44.1248
60.3807 1955 44.2154
60.4974 1995 44.6654
60.6142 1912 43.7264
60.731 1935 43.9886
60.8479 1914 43.7493
60.9648 1875 43.3013
61.0818 1871 43.2551
61.1987 1863 43.1625
61.3158 1880 43.359
61.4328 1822 42.6849
61.5499 1765 42.0119
61.667 1703 41.2674
61.7841 1760 41.9524
61.9013 1603 40.0375
62.0185 1645 40.5586
62.1357 1815 42.6028
62.253 1866 43.1972
62.3702 1949 44.1475
62.4875 2046 45.2327
62.6049 2182 46.7119
62.7222 2270 47.6445
62.8396 2261 47.55
62.9569 2338 48.3529
63.0743 2398 48.9694
63.1918 2462 49.6185
63.3092 2305 48.0104
63.4267 2240 47.3286
63.5441 2213 47.0425
63.6616 2062 45.4093
63.7791 2111 45.9456
63.8966 2070 45.4973
64.0142 2140 46.2601
64.1317 2024 44.9889
64.2492 1948 44.1362
64.3668 1990 44.6094
64.4843 1912 43.7264
64.6019 1876 43.3128
64.7195 1873 43.2782
64.837 1866 43.1972
64.9546 1947 44.1248
65.0722 1786 42.2611
65.1898 1739 41.7013
65.3074 1712 41.3763
65.4249 1637 40.4599
65.5425 1677 40.9512
65.6601 1752 41.8569
65.7777 1883 43.3935
65.8952 1842 42.9185
66.0128 2155 46.422
66.1304 2289 47.8435
66.2479 2223 47.1487
66.3655 2311 48.0729
66.483 2496 49.96
66.6005 2481 49.8096
66.718 2478 49.7795
66.8355 2511 50.1099
66.953 2355 48.5283
67.0705 2333 48.3011
67.1879 2195 46.8508
67.3054 2121 46.0543
67.4228 2139 46.2493
67.5402 1973 44.4185
67.6576 2002 44.7437
67.7749 2063 45.4203
67.8923 2020 44.9444
68.0096 1916 43.7721
68.1269 1857 43.0929
68.2442 1955 44.2154
68.3614 1976 44.4522
68.4787 1981 44.5084
68.5958 1990 44.6094
68.713 1901 43.6005
68.8302 1766 42.0238
68.9473 1829 42.7668
69.0643 1679 40.9756
69.1814 1636 40.4475
69.2984 1770 42.0714
69.4154 1804 42.4735
69.5323 1895 43.5316
69.6492 1975 44.441
69.7661 2094 45.7602
69.8829 2147 46.3357
69.9997 2222 47.1381
70.1165 2089 45.7056
70.2332 2130 46.1519
70.3499 2007 44.7996
70.4665 1900 43.589
70.5831 1803 42.4617
70.6996 1662 40.7676
70.8161 1547 39.3319
70.9326 1336 36.5513
71.049 1215 34.8569
71.1653 1218 34.8999
71.2817 1152 33.9411
71.3979 1078 32.8329
71.5141 970 31.1448
71.6303 960 30.9839
71.7464 917 30.282
71.8624 0 1
71.9784 0 1
72.0944 0 1
72.2102 0 1
72.3261 0 1
72.4418 0 1
72.5575 0 1
72.6732 0 1
75.1054 0 1
75.2209 0 1
75.3365 0 1
75.4521 0 1
75.5678 0 1
75.6835 0 1
75.7993 0 1
75.9151 0 1
76.031 0 1
76.147 1729 41.5812
76.263 1735 41.6533
76.3791 1673 40.9023
76.4952 1779 42.1782
76.6113 1786 42.2611
76.7276 1795 42.3674
76.8438 1892 43.4971
76.9601 1778 42.1663
77.0765 1885 43.4166
77.1929 1831 42.7902
77.3093 1969 44.3734
77.4258 1912 43.7264
77.5423 1985 44.5533
77.6589 1920 43.8178
77.7755 1752 41.8569
77.8921 1792 42.332
78.0088 1710 41.3521
78.1256 1676 40.939
78.2423 1588 39.8497
78.3591 1755 41.8927
78.4759 1832 42.8019
78.5928 1967 44.3509
78.7097 2118 46.0217
78.8266 2246 47.392
78.9436 2466 49.6588
79.0606 2464 49.6387
79.1776 2449 49.4874
79.2946 2557 50.5668
79.4117 2631 51.2933
79.5288 2505 50.05
79.6459 2542 50.4183
79.7631 2367 48.6518
79.8802 2262 47.5605
79.9974 2280 47.7493
80.1147 2148 46.3465
80.2319 2259 47.5289
80.3491 2176 46.6476
80.4664 2153 46.4004
80.5837 2181 46.7012
80.701 2199 46.8935
80.8183 2155 46.422
80.9357 2092 45.7384
81.053 2116 46
81.1704 2253 47.4658
81.2877 2302 47.9792
81.4051 2144 46.3033
81.5225 2030 45.0555
81.6399 1901 43.6005
81.7573 1840 42.8952
81.8747 1802 42.45
81.9922 1865 43.1856
82.1096 1921 43.8292
82.227 2090 45.7165
82.3444 2286 47.8121
82.4619 2559 50.5866
82.5793 2636 51.342
82.6967 2671 51.6817
82.8142 2774 52.6688
82.9316 2773 52.6593
83.049 2824 53.1413
83.1664 2812 53.0283
83.2838 2742 52.3641
83.4012 2613 51.1175
83.5186 2558 50.5767
83.636 2415 49.1426
83.7534 2344 48.4149
83.8708 2333 48.3011
83.9881 2341 48.3839
84.1055 2393 48.9183
84.2228 2384 48.8262
84.3401 2425 49.2443
84.4575 2403 49.0204
84.5747 2453 49.5278
84.692 2572 50.7149
84.8093 2572 50.7149
84.9265 2399 48.9796
85.0437 2354 48.518
85.1609 2165 46.5296
85.2781 2083 45.6399
85.3952 2013 44.8665
85.5123 1913 43.7379
85.6294 2085 45.6618
85.7465 2290 47.8539
85.8636 2363 48.6107
85.9806 2505 50.05
86.0976 2815 53.0566
86.2145 2876 53.6284
86.3315 2849 53.376
86.4484 2913 53.9722
86.5652 2989 54.6717
86.682 3023 54.9818
86.7988 3024 54.9909
86.9156 2862 53.4977
87.0323 2724 52.192
87.149 2617 51.1566
87.2657 2571 50.705
87.3823 2491 49.9099
87.4988 2443 49.4267
87.6154 2350 48.4768
87.7318 2195 46.8508
87.8483 2098 45.8039
87.9647 2012 44.8553
88.081 1867 43.2088
88.1973 1850 43.0116
88.3136 1890 43.4741
88.4298 1577 39.7115
88.546 1400 37.4166
88.6621 1255 35.426
88.7781 1105 33.2415
88.8942 0 1
89.0101 0 1
89.126 0 1
89.2419 0 1
89.3577 0 1
89.4734 0 1
89.5891 0 1
89.7047 0 1
89.8203 0 1
89.9358 0 1
92.3269 0 1
92.4424 0 1
92.558 0 1
92.6736 0 1
92.7893 0 1
92.905 0 1
93.0208 0 1
93.1366 0 1
93.2525 0 1
93.3685 0 1
93.4845 0 1
93.6005 2227 47.1911
93.7167 2600 50.9902
93.8328 2687 51.8363
93.949 2771 52.6403
94.0653 2862 53.4977
94.1816 2845 53.3385
94.2979 2628 51.264
94.4143 2535 50.3488
94.5307 2323 48.1975
94.6472 2237 47.2969
94.7637 2272 47.6655
94.8803 2468 49.679
94.9969 2646 51.4393
95.1135 2871 53.5817
95.2302 2967 54.4702
95.3469 3360 57.9655
95.4637 3397 58.2838
95.5805 3431 58.5747
95.6973 3464 58.8558
95.8142 3352 57.8965
95.9311 3443 58.6771
96.048 3408 58.3781
96.1649 3362 57.9828
96.2819 3244 56.9561
96.3989 3224 56.7803
96.516 3045 55.1815
96.633 3027 55.0182
96.7501 2998 54.754
96.8673 3059 55.3082
96.9844 3074 55.4437
97.1016 2994 54.7175
97.2188 3109 55.7584
97.336 3126 55.9106
97.4532 3168 56.285
97.5704 3210 56.6569
97.6877 3201 56.5774
97.805 3148 56.107
97.9223 3069 55.3986
98.0396 2868 53.5537
98.1569 2626 51.2445
98.2743 2610 51.0882
98.3916 2362 48.6004
98.509 2428 49.2747
98.6264 2739 52.3355
98.7438 2852 53.4041
98.8612 3140 56.0357
98.9786 3397 58.2838
99.096 3640 60.3324
99.2134 3660 60.4979
99.3308 3821 61.8142
99.4482 3844 62
99.5656 3736 61.1228
99.6831 3711 60.918
99.8005 3659 60.4897
99.9179 3682 60.6795
100.035 3406 58.3609
100.153 3382 58.155
100.27 3408 58.3781
100.388 3311 57.5413
100.505 3310 57.5326
100.622 3164 56.2494
100.74 3125 55.9017
100.857 3246 56.9737
100.975 3364 58
101.092 3435 58.6089
101.209 3437 58.6259
101.327 3505 59.203
101.444 3370 58.0517
101.561 3342 57.81
101.679 3007 54.8361
101.796 2705 52.0096
101.913 2615 51.1371
102.03 2571 50.705
102.148 2673 51.7011
102.265 2864 53.5164
102.382 3271 57.1927
102.499 3634 60.2827
102.616 3797 61.6198
102.733 3849 62.0403
102.851 4026 63.4508
102.968 3930 62.6897
103.085 4109 64.1015
103.202 4072 63.8122
103.319 3919 62.6019
103.436 3921 62.6179
103.552 3639 60.3241
103.669 3674 60.6135
103.786 3599 59.9917
103.903 3595 59.9583
104.02 3473 58.9322
104.137 3537 59.4727
104.253 3489 59.0678
104.37 3549 59.5735
104.487 3575 59.7913
104.603 3522 59.3464
104.72 3548 59.5651
104.836 3220 56.745
104.953 3146 56.0892
105.069 2784 52.7636
105.186 2473 49.7293
105.302 2136 46.2169
105.418 1940 44.0454
105.535 1677 40.9512
105.651 1778 42.1663
105.767 1660 40.7431
105.883 1611 40.1373
105.999 1782 42.2137
106.115 0 1
106.231 0 1
106.347 0 1
106.463 0 1
106.579 0 1
106.694 0 1
106.81 0 1
106.926 0 1
107.041 0 1
107.157 0 1
109.576 0 1
109.692 0 1
109.807 0 1
109.923 0 1
110.039 0 1
110.155 0 1
110.27 0 1
110.386 0 1
110.502 0 1
110.618 1367 36.973
110.735 1765 42.0119
110.851 2104 45.8694
110.967 2415 49.1426
111.083 2604 51.0294
111.199 3038 55.1181
111.316 3109 55.7584
111.432 3213 56.6833
111.549 3305 57.4891
111.665 3262 57.1139
111.782 3333 57.7321
111.898 3223 56.7715
112.015 3181 56.4004
112.132 3004 54.8088
112.248 3034 55.0818
112.365 2882 53.6843
112.482 2885 53.7122
112.599 2950 54.3139
112.716 2783 52.7541
112.832 2799 52.9056
112.949 2757 52.5071
113.066 2682 51.788
113.183 2817 53.0754
113.3 2913 53.9722
113.417 2826 53.1601
113.534 2793 52.8488
113.652 2777 52.6972
113.769 2633 51.3128
113.886 2506 50.06
114.003 2328 48.2494
114.12 2132 46.1736
114.238 2176 46.6476
114.355 2369 48.6724
114.472 2471 49.7092
114.589 2990 54.6809
114.707 3029 55.0364
114.824 3175 56.3471
114.942 3162 56.2317
115.059 3293 57.3847
115.176 3186 56.4447
115.294 3137 56.0089
115.411 3160 56.2139
115.529 3015 54.909
115.646 2946 54.2771
115.764 2927 54.1018
115.881 2822 53.1225
115.999 2778 52.7067
116.116 2757 52.5071
116.234 2584 50.8331
116.351 2655 51.5267
116.469 2495 49.95
116.586 2587 50.8626
116.704 2647 51.449
116.821 2592 50.9117
116.939 2699 51.9519
117.056 2755 52.4881
117.174 2744 52.3832
117.291 2669 51.6624
117.409 2603 51.0196
117.526 2392 48.9081
117.644 2237 47.2969
117.761 2162 46.4973
117.879 2235 47.2758
117.996 2447 49.4672
118.114 2699 51.9519
118.231 2984 54.626
118.349 2990 54.6809
118.466 3205 56.6127
118.584 3102 55.6956
118.701 3189 56.4712
118.819 3128 55.9285
118.936 3193 56.5066
119.053 3009 54.8544
119.171 3044 55.1725
119.288 2906 53.9073
119.405 2901 53.8609
119.523 2787 52.792
119.64 2725 52.2015
119.757 2627 51.2543
119.875 2623 51.2152
119.992 2603 51.0196
120.109 2494 49.94
120.226 2635 51.3323
120.343 2567 50.6656
120.46 2611 51.0979
120.578 2677 51.7397
120.695 2700 51.9615
120.812 2570 50.6952
120.929 2667 51.643
121.046 2513 50.1298
121.163 2320 48.1664
121.279 2115 45.9891
121.396 2132 46.1736
121.513 1876 43.3128
121.63 2002 44.7437
121.747 1986 44.5646
121.863 2151 46.3789
121.98 2296 47.9166
122.097 2250 47.4342
122.213 2207 46.9787
122.33 2144 46.3033
122.446 2126 46.1086
122.563 1927 43.8976
122.679 1800 42.4264
122.795 1727 41.5572
122.912 1722 41.497
123.028 1479 38.4578
123.144 1417 37.6431
123.26 1362 36.9053
123.377 0 1
123.493 0 1
123.609 0 1
123.725 0 1
123.84 0 1
123.956 0 1
124.072 0 1
124.188 0 1
124.303 0 1
124.419 0 1
126.852 0 1
126.968 0 1
127.083 0 1
127.199 0 1
127.315 0 1
127.431 0 1
127.547 0 1
127.663 0 1
127.779 0 1
127.895 0 1
128.011 0 1
128.127 0 1
128.243 0 1
128.359 2848 53.3667
128.476 2963 54.4334
128.592 2825 53.1507
128.708 2813 53.0377
128.825 2732 52.2685
128.941 2672 51.6914
129.058 2699 51.9519
129.174 2783 52.7541
129.291 2572 50.7149
129.408 2680 51.7687
129.524 2728 52.2303
129.641 2845 53.3385
129.758 2804 52.9528
129.875 2836 53.2541
129.992 2821 53.1131
130.108 2713 52.0865
130.225 2694 51.9038
130.342 2600 50.9902
130.459 2293 47.8853
130.576 2269 47.634
130.693 2202 46.9255
130.81 2370 48.6826
130.928 2576 50.7543
131.045 2694 51.9038
131.162 2790 52.8205
131.279 3034 55.0818
131.396 2990 54.6809
131.513 2943 54.2494
131.631 2974 54.5344
131.748 2953 54.3415
131.865 2997 54.7449
131.983 2840 53.2917
132.1 2728 52.2303
132.217 2767 52.6023
132.335 2732 52.2685
132.452 2687 51.8363
132.57 2697 51.9326
132.687 2527 50.2693
132.804 2717 52.1249
132.922 2610 51.0882
133.039 2555 50.547
133.157 2610 51.0882
133.274 2582 50.8134
133.392 2625 51.2348
133.509 2637 51.3517
133.627 2677 51.7397
133.744 2661 51.5849
133.862 2527 50.2693
133.979 2417 49.163
134.097 2220 47.1169
134.214 2101 45.8367
134.332 2261 47.55
134.449 2397 48.9592
134.567 2430 49.295
134.684 2633 51.3128
134.802 2665 51.6236
134.919 2720 52.1536
135.037 2814 53.0471
135.154 2839 53.2823
135.272 2812 53.0283
135.389 2781 52.7352
135.507 2709 52.0481
135.624 2602 51.0098
135.742 2678 51.7494
135.859 2593 50.9215
135.977 2616 51.1468
136.094 2476 49.7594
136.211 2537 50.3686
136.329 2531 50.309
136.446 2516 50.1597
136.564 2542 50.4183
136.681 2534 50.3389
136.798 2546 50.4579
136.915 2547 50.4678
137.033 2540 50.3984
137.15 2561 50.6063
137.267 2567 50.6656
137.384 2640 51.3809
137.502 2394 48.9285
137.619 2320 48.1664
137.736 2161 46.4866
137.853 2034 45.0999
137.97 2082 45.6289
138.087 2139 46.2493
138.204 2348 48.4562
138.321 2490 49.8999
138.438 2563 50.6261
138.555 2615 51.1371
138.672 2672 51.6914
138.788 2603 51.0196
138.905 2499 49.99
139.022 2423 49.224
139.139 2392 48.9081
139.255 2129 46.1411
139.372 1988 44.587
139.488 1904 43.6348
139.605 1733 41.6293
139.721 1664 40.7922
139.838 1660 40.7431
139.954 1535 39.1791
140.071 1490 38.6005
140.187 1395 37.3497
140.303 1312 36.2215
140.419 1246 35.2987
140.535 1176 34.2929
140.652 1146 33.8526
140.768 0 1
140.884 0 1
141 0 1
141.115 0 1
141.231 0 1
141.347 0 1
141.463 0 1
141.578 0 1
141.694 0 1
144.104 0 1
144.219 0 1
144.335 0 1
144.45 0 1
144.566 0 1
144.682 0 1
144.798 0 1
144.914 0 1
145.03 0 1
145.146 1900 43.589
145.262 1940 44.0454
145.378 1961 44.2832
145.494 2027 45.0222
145.61 2090 45.7165
145.726 2021 44.9555
145.842 1974 44.4297
145.959 2022 44.9667
146.075 1976 44.4522
146.192 2055 45.3321
146.308 2086 45.6727
146.425 1928 43.909
146.541 1924 43.8634
146.658 1770 42.0714
146.774 1745 41.7732
146.891 1716 41.4246
147.008 1819 42.6497
147.125 1955 44.2154
147.241 2085 45.6618
147.358 2201 46.9148
147.475 2095 45.7712
147.592 2132 46.1736
147.709 2099 45.8148
147.826 2113 45.9674
147.943 2150 46.3681
148.06 2101 45.8367
148.177 2045 45.2217
148.294 2112 45.9565
148.411 2059 45.3762
148.528 2098 45.8039
148.645 2085 45.6618
148.762 2024 44.9889
148.88 2096 45.7821
148.997 2091 45.7275
149.114 2012 44.8553
149.231 1993 44.643
149.349 1958 44.2493
149.466 1978 44.4747
149.583 2025 45
149.701 1968 44.3621
149.818 1922 43.8406
149.935 2026 45.0111
150.053 1922 43.8406
150.17 1929 43.9204
150.287 1796 42.3792
150.405 1770 42.0714
150.522 1694 41.1582
150.64 1824 42.7083
150.757 1911 43.715
150.875 1978 44.4747
150.992 1965 44.3283
151.11 2107 45.9021
151.227 2092 45.7384
151.344 2042 45.1885
151.462 2110 45.9347
151.579 2016 44.8999
151.697 2083 45.6399
151.814 2088 45.6946
151.932 2168 46.5618
152.049 2059 45.3762
152.167 2056 45.3431
152.284 1925 43.8748
152.402 2034 45.0999
152.519 1965 44.3283
152.636 1957 44.238
152.754 1900 43.589
152.871 1876 43.3128
152.989 1891 43.4856
153.106 1941 44.0568
153.223 1930 43.9318
153.341 2008 44.8107
153.458 1962 44.2945
153.575 1929 43.9204
153.693 1909 43.6921
153.81 1814 42.5911
153.927 1683 41.0244
154.044 1761 41.9643
154.162 1794 42.3556
154.279 1792 42.332
154.396 1896 43.5431
154.513 2007 44.7996
154.63 2018 44.9222
154.747 2057 45.3542
154.864 2138 46.2385
154.981 2131 46.1628
155.098 2059 45.3762
155.215 2008 44.8107
155.332 1983 44.5309
155.449 1998 44.699
155.566 2012 44.8553
155.683 1845 42.9535
155.8 1828 42.7551
155.917 1756 41.9047
156.033 1798 42.4028
156.15 0 1
156.267 0 1
156.383 0 1
156.5 0 1
156.617 0 1
156.733 0 1
156.85 0 1
156.966 0 1
157.082 0 1
157.199 0 1
157.315 0 1
157.431 0 1
157.547 0 1
157.664 0 1
157.78 0 1
157.896 0 1
158.012 0 1
158.128 0 1
158.244 0 1
158.359 0 1
158.475 0 1
158.591 0 1
158.706 0 1
