
6.15755 0 1
6.2731 0 1
6.3887 0 1
6.50437 0 1
6.62009 0 1
6.73587 0 1
6.8517 0 1
6.96759 0 1
7.08353 0 1
7.19952 0 1
7.31557 0 1
7.43166 0 1
7.54781 0 1
7.664 0 1
7.78024 0 1
7.89653 0 1
8.01286 0 1
8.12924 0 1
8.24567 0 1
8.36213 0 1
8.47864 0 1
8.59519 0 1
8.71178 0 1
8.82841 0 1
8.94508 0 1
9.06179 0 1
9.17853 0 1
9.29531 0 1
9.41212 0 1
9.52897 0 1
9.64584 0 1
9.76276 0 1
9.8797 0 1
9.99667 0 1
10.1137 0 1
10.2307 0 1
10.3478 0 1
10.4648 0 1
10.5819 0 1
10.6991 0 1
10.8162 0 1
10.9334 0 1
11.0506 0 1
11.1678 0 1
11.285 0 1
11.4023 0 1
11.5196 0 1
11.6369 0 1
11.7542 0 1
11.8715 0 1
11.9888 0 1
12.1062 0 1
12.2235 0 1
12.3409 0 1
12.4582 0 1
12.5756 0 1
12.693 0 1
12.8104 0 1
12.9278 0 1
13.0452 0 1
13.1626 0 1
13.28 0 1
13.3974 0 1
13.5149 0 1
13.6323 0 1
13.7497 0 1
13.8671 0 1
13.9845 0 1
14.1019 0 1
14.2193 0 1
14.3367 0 1
14.4541 0 1
14.5714 0 1
14.6888 0 1
14.8062 0 1
14.9235 0 1
15.0408 8210 90.6091
15.1581 8634 92.9193
15.2755 8939 94.5463
15.3927 9073 95.2523
15.51 9042 95.0894
15.6273 9018 94.9632
15.7445 8708 93.3167
15.8617 8544 92.4338
15.9789 8581 92.6337
16.0961 8344 91.3455
16.2132 8022 89.5656
16.3304 8108 90.0444
16.4475 7972 89.2861
16.5646 8020 89.5545
16.6816 7701 87.7553
16.7986 7379 85.9011
16.9156 7461 86.3771
17.0326 7247 85.1293
17.1496 7373 85.8662
17.2665 7154 84.5813
17.3833 6995 83.6361
17.5002 7080 84.1427
17.617 7103 84.2793
17.7338 7213 84.9294
17.8505 7534 86.7986
17.9672 7647 87.4471
18.0839 7905 88.9101
18.2005 7997 89.4259
18.3171 8029 89.6047
18.4337 8093 89.9611
18.5502 8318 91.2031
18.6666 8346 91.3564
18.7831 8462 91.9891
18.8994 8495 92.1683
19.0158 8125 90.1388
19.1321 7904 88.9044
19.2483 7631 87.3556
19.3645 7097 84.2437
19.4806 6731 82.0427
19.5967 6557 80.9753
19.7128 6105 78.1345
19.8288 5781 76.0329
19.9447 5157 71.8123
20.0606 0 1
20.1764 0 1
20.2922 0 1
20.4079 0 1
20.5236 0 1
20.6392 0 1
20.7548 0 1
20.8702 0 1
23.3078 0 1
23.4233 0 1
23.539 0 1
23.6547 0 1
23.7704 0 1
23.8862 0 1
24.0021 0 1
24.118 0 1
24.234 0 1
24.35 0 1
24.4661 3706 60.8769
24.5822 4066 63.7652
24.6984 4489 67
24.8146 5077 71.2531
24.9309 5691 75.4387
25.0472 6356 79.7245
25.1636 6857 82.807
25.28 7351 85.738
25.3965 7763 88.1079
25.513 8127 90.1499
25.6296 8081 89.8944
25.7462 8394 91.6188
25.8628 8415 91.7333
25.9795 8325 91.2414
26.0962 8393 91.6133
26.213 8248 90.8185
26.3298 8278 90.9835
26.4466 8442 91.8804
26.5635 8449 91.9184
26.6804 8646 92.9839
26.7973 8574 92.5959
26.9143 8430 91.815
27.0313 8372 91.4986
27.1483 8609 92.7847
27.2653 8616 92.8224
27.3824 8969 94.7048
27.4996 8946 94.5833
27.6167 8745 93.5147
27.7339 8557 92.5041
27.8511 8427 91.7987
27.9683 8503 92.2117
28.0855 8113 90.0722
28.2028 8186 90.4765
28.3201 8163 90.3493
28.4374 8175 90.4157
28.5547 8384 91.5642
28.6721 8366 91.4658
28.7894 8537 92.3959
28.9068 8366 91.4658
29.0242 8567 92.5581
29.1416 8217 90.6477
29.259 8258 90.8735
29.3764 8116 90.0888
29.4939 8118 90.0999
29.6113 8210 90.6091
29.7288 8209 90.6035
29.8463 8348 91.3674
29.9638 8264 90.9065
30.0812 8493 92.1575
30.1987 8484 92.1086
30.3162 8658 93.0484
30.4337 8513 92.2659
30.5512 8411 91.7115
30.6687 8374 91.5096
30.7862 8784 93.723
30.9037 9028 95.0158
31.0212 9065 95.2103
31.1387 9202 95.9271
31.2562 9014 94.9421
31.3737 8917 94.4299
31.4912 8824 93.9361
31.6087 8850 94.0744
31.7262 8697 93.2577
31.8436 8619 92.8386
31.9611 8542 92.4229
32.0785 8642 92.9624
32.1959 8752 93.5521
32.3134 8639 92.9462
32.4308 8690 93.2202
32.5482 8792 93.7657
32.6655 8721 93.3863
32.7829 8384 91.5642
32.9002 8614 92.8116
33.0176 8365 91.4604
33.1349 8419 91.7551
33.2522 8454 91.9456
33.3694 8155 90.305
33.4867 8412 91.717
33.6039 8545 92.4392
33.7211 8550 92.4662
33.8383 8762 93.6056
33.9554 8714 93.3488
34.0725 8776 93.6803
34.1896 8672 93.1236
34.3067 8717 93.3649
34.4237 8888 94.2762
34.5407 9141 95.6086
34.6577 9191 95.8697
34.7746 9237 96.1093
34.8915 9273 96.2964
35.0084 9071 95.2418
35.1252 8822 93.9255
35.242 8899 94.3345
35.3587 8778 93.691
35.4755 8845 94.0479
35.5921 8724 93.4024
35.7088 8709 93.322
35.8254 8587 92.6661
35.9419 8761 93.6002
36.0584 8723 93.397
36.1749 8521 92.3093
36.2913 8390 91.5969
36.4077 8103 90.0167
36.524 7842 88.5551
36.6403 7126 84.4156
36.7565 6667 81.6517
36.8727 6118 78.2176
36.9889 5676 75.3392
37.1049 5107 71.4633
37.221 0 1
37.3369 0 1
37.4529 0 1
37.5687 0 1
37.6845 0 1
37.8003 0 1
37.916 0 1
38.0316 0 1
38.1472 0 1
40.5851 0 1
40.7008 0 1
40.8164 0 1
40.9322 0 1
41.048 0 1
41.1639 0 1
41.2798 0 1
41.3958 0 1
41.5118 0 1
41.6279 0 1
41.744 4624 68
41.8602 5483 74.0473
41.9765 6402 80.0125
42.0928 7092 84.214
42.2091 7805 88.3459
42.3255 8478 92.0761
42.4419 8868 94.1701
42.5584 9473 97.3293
42.675 9509 97.5141
42.7915 9738 98.6813
42.9081 9593 97.9439
43.0248 9522 97.5807
43.1415 10142 100.707
43.2582 10329 101.632
43.375 10934 104.566
43.4918 11355 106.56
43.6087 11897 109.073
43.7256 11976 109.435
43.8425 12254 110.698
43.9595 12162 110.281
44.0765 12387 111.297
44.1935 12695 112.672
44.3106 12547 112.013
44.4277 12928 113.701
44.5448 12826 113.252
44.6619 12811 113.186
44.7791 12967 113.873
44.8963 12801 113.142
45.0136 12792 113.102
45.1308 12960 113.842
45.2481 12707 112.725
45.3654 12821 113.23
45.4827 12609 112.29
45.6001 12164 110.291
45.7174 11948 109.307
45.8348 11829 108.761
45.9522 11620 107.796
46.0697 11612 107.759
46.1871 11422 106.874
46.3046 11038 105.062
46.422 10695 103.417
46.5395 10225 101.119
46.657 10441 102.181
46.7745 10611 103.01
46.892 11165 105.665
47.0096 11401 106.775
47.1271 11674 108.046
47.2446 11473 107.112
47.3622 11310 106.348
47.4797 11024 104.995
47.5973 11027 105.01
47.7149 10731 103.591
47.8324 10444 102.196
47.95 10347 101.72
48.0675 10299 101.484
48.1851 10056 100.28
48.3027 9707 98.5241
48.4202 9886 99.4284
48.5378 9573 97.8417
48.6554 9534 97.6422
48.7729 9422 97.067
48.8904 9278 96.3224
49.008 9334 96.6126
49.1255 9134 95.572
49.243 8927 94.4828
49.3605 9144 95.6243
49.478 9243 96.1405
49.5955 9149 95.6504
49.713 8870 94.1807
49.8304 8770 93.6483
49.9479 8743 93.504
50.0653 8910 94.3928
50.1827 9140 95.6033
50.3001 9626 98.1122
50.4175 9739 98.6864
50.5348 10215 101.069
50.6521 10184 100.916
50.7694 10685 103.368
50.8867 10638 103.141
51.004 10756 103.711
51.1212 10497 102.455
51.2384 10444 102.196
51.3556 10511 102.523
51.4727 10296 101.469
51.5899 10090 100.449
51.707 10116 100.578
51.824 9894 99.4686
51.9411 9971 99.8549
52.0581 9791 98.9495
52.175 9470 97.3139
52.2919 9448 97.2008
52.4088 9460 97.2625
52.5257 9597 97.9643
52.6425 9408 96.9948
52.7593 9047 95.1157
52.876 8940 94.5516
52.9927 9193 95.8801
53.1094 9051 95.1367
53.226 9014 94.9421
53.3426 8744 93.5094
53.4591 8219 90.6587
53.5756 8028 89.5991
53.692 7678 87.6242
53.8084 7339 85.668
53.9248 6969 83.4805
54.0411 6488 80.5481
54.1573 6024 77.6144
54.2735 0 1
54.3896 0 1
54.5057 0 1
54.6217 0 1
54.7377 0 1
54.8537 0 1
54.9695 0 1
55.0853 0 1
55.2011 0 1
55.3168 0 1
55.4324 0 1
57.824 0 1
57.9396 0 1
58.0553 0 1
58.1711 0 1
58.2869 0 1
58.4028 0 1
58.5187 0 1
58.6347 0 1
58.7508 0 1
58.8669 0 1
58.983 8059 89.7719
59.0992 9299 96.4313
59.2155 10226 101.124
59.3318 11239 106.014
59.4482 12304 110.923
59.5646 13151 114.678
59.681 13472 116.069
59.7975 13686 116.987
59.9141 13831 117.605
60.0306 13894 117.873
60.1473 13471 116.065
60.2639 13466 116.043
60.3807 13562 116.456
60.4974 13569 116.486
60.6142 13368 115.62
60.731 13043 114.206
60.8479 13159 114.713
60.9648 12747 112.903
61.0818 13092 114.42
61.1987 13036 114.175
61.3158 12909 113.618
61.4328 13176 114.787
61.5499 13020 114.105
61.667 13156 114.7
61.7841 13098 114.446
61.9013 12963 113.855
62.0185 12636 112.41
62.1357 12926 113.693
62.253 12962 113.851
62.3702 13449 115.97
62.4875 13994 118.296
62.6049 14521 120.503
62.7222 14800 121.655
62.8396 15240 123.45
62.9569 15714 125.355
63.0743 16058 126.72
63.1918 15769 125.575
63.3092 15634 125.036
63.4267 15590 124.86
63.5441 15073 122.772
63.6616 14744 121.425
63.7791 14358 119.825
63.8966 14443 120.179
64.0142 14614 120.888
64.1317 14125 118.849
64.2492 13825 117.58
64.3668 13676 116.944
64.4843 13128 114.577
64.6019 13175 114.782
64.7195 13328 115.447
64.837 13342 115.508
64.9546 13232 115.03
65.0722 13236 115.048
65.1898 13409 115.797
65.3074 13277 115.226
65.4249 13178 114.795
65.5425 12979 113.925
65.6601 12829 113.265
65.7777 13059 114.276
65.8952 13449 115.97
66.0128 13962 118.161
66.1304 14421 120.087
66.2479 15054 122.695
66.3655 15690 125.26
66.483 16094 126.862
66.6005 16219 127.354
66.718 16628 128.95
66.8355 16296 127.656
66.953 16043 126.661
67.0705 15743 125.471
67.1879 15367 123.964
67.3054 14848 121.852
67.4228 14513 120.47
67.5402 14333 119.721
67.6576 14077 118.647
67.7749 13695 117.026
67.8923 13635 116.769
68.0096 13290 115.282
68.1269 13731 117.179
68.2442 13659 116.872
68.3614 13864 117.745
68.4787 13934 118.042
68.5958 13833 117.614
68.713 13614 116.679
68.8302 13847 117.673
68.9473 13433 115.901
69.0643 12953 113.811
69.1814 12742 112.88
69.2984 12426 111.472
69.4154 12610 112.294
69.5323 12813 113.195
69.6492 13681 116.966
69.7661 13826 117.584
69.8829 14330 119.708
69.9997 14637 120.983
70.1165 14457 120.237
70.2332 14373 119.887
70.3499 13772 117.354
70.4665 12947 113.785
70.5831 11909 109.128
70.6996 11018 104.967
70.8161 10112 100.558
70.9326 9048 95.121
71.049 8417 91.7442
71.1653 7843 88.5607
71.2817 7217 84.9529
71.3979 6990 83.6062
71.5141 6417 80.1062
71.6303 6007 77.5048
71.7464 5301 72.808
71.8624 0 1
71.9784 0 1
72.0944 0 1
72.2102 0 1
72.3261 0 1
72.4418 0 1
72.5575 0 1
72.6732 0 1
75.1054 0 1
75.2209 0 1
75.3365 0 1
75.4521 0 1
75.5678 0 1
75.6835 0 1
75.7993 0 1
75.9151 0 1
76.031 0 1
76.147 11190 105.783
76.263 12098 109.991
76.3791 12166 110.3
76.4952 12200 110.454
76.6113 12418 111.436
76.7276 12394 111.328
76.8438 12745 112.894
76.9601 12843 113.327
77.0765 12844 113.331
77.1929 13058 114.272
77.3093 13603 116.632
77.4258 13803 117.486
77.5423 13941 118.072
77.6589 13695 117.026
77.7755 13801 117.478
77.8921 13455 115.996
78.0088 13034 114.167
78.1256 12543 111.996
78.2423 11981 109.458
78.3591 12054 109.791
78.4759 12668 112.552
78.5928 13585 116.555
78.7097 14468 120.283
78.8266 15009 122.511
78.9436 15778 125.611
79.0606 15663 125.152
79.1776 16298 127.664
79.2946 16891 129.965
79.4117 17029 130.495
79.5288 16903 130.012
79.6459 17022 130.468
79.7631 16667 129.101
79.8802 15497 124.487
79.9974 15062 122.727
80.1147 14819 121.733
80.2319 15073 122.772
80.3491 15097 122.87
80.4664 15073 122.772
80.5837 15142 123.053
80.701 14756 121.474
80.8183 14628 120.946
80.9357 15110 122.923
81.053 15364 123.952
81.1704 15471 124.382
81.2877 15458 124.33
81.4051 15457 124.326
81.5225 15218 123.361
81.6399 15027 122.585
81.7573 13951 118.114
81.8747 13829 117.597
81.9922 13538 116.353
82.1096 13854 117.703
82.227 14838 121.811
82.3444 15926 126.198
82.4619 16801 129.619
82.5793 17506 132.31
82.6967 17604 132.68
82.8142 18111 134.577
82.9316 18590 136.345
83.049 18901 137.481
83.1664 18581 136.312
83.2838 18485 135.96
83.4012 17914 133.843
83.5186 17052 130.583
83.636 16444 128.234
83.7534 16494 128.429
83.8708 16397 128.051
83.9881 16363 127.918
84.1055 16431 128.183
84.2228 16868 129.877
84.3401 16563 128.697
84.4575 16588 128.794
84.5747 17261 131.381
84.692 17269 131.412
84.8093 17804 133.432
84.9265 17246 131.324
85.0437 17054 130.591
85.1609 16717 129.294
85.2781 15768 125.571
85.3952 15081 122.805
85.5123 14558 120.657
85.6294 14528 120.532
85.7465 15298 123.685
85.8636 16508 128.483
85.9806 17422 131.992
86.0976 18340 135.425
86.2145 18834 137.237
86.3315 18921 137.554
86.4484 19489 139.603
86.5652 19926 141.159
86.682 20038 141.556
86.7988 19700 140.357
86.9156 19318 138.989
87.0323 18958 137.688
87.149 18011 134.205
87.2657 17748 133.222
87.3823 17086 130.713
87.4988 16533 128.581
87.6154 16130 127.004
87.7318 15236 123.434
87.8483 14617 120.901
87.9647 13376 115.655
88.081 12706 112.721
88.1973 12031 109.686
88.3136 11616 107.778
88.4298 10581 102.864
88.546 9821 99.101
88.6621 8954 94.6256
88.7781 8025 89.5824
88.8942 0 1
89.0101 0 1
89.126 0 1
89.2419 0 1
89.3577 0 1
89.4734 0 1
89.5891 0 1
89.7047 0 1
89.8203 0 1
89.9358 0 1
92.3269 0 1
92.4424 0 1
92.558 0 1
92.6736 0 1
92.7893 0 1
92.905 0 1
93.0208 0 1
93.1366 0 1
93.2525 0 1
93.3685 0 1
93.4845 0 1
93.6005 15851 125.901
93.7167 17393 131.883
93.8328 18662 136.609
93.949 19962 141.287
94.0653 20068 141.662
94.1816 20690 143.84
94.2979 20428 142.927
94.4143 19513 139.689
94.5307 18161 134.763
94.6472 18031 134.28
94.7637 17605 132.684
94.8803 17546 132.461
94.9969 19009 137.873
95.1135 19934 141.188
95.2302 21176 145.52
95.3469 22146 148.815
95.4637 22946 151.479
95.5805 23378 152.899
95.6973 23622 153.695
95.8142 23972 154.829
95.9311 23720 154.013
96.048 23512 153.336
96.1649 23482 153.238
96.2819 22848 151.156
96.3989 22404 149.68
96.516 21769 147.543
96.633 21681 147.245
96.7501 21553 146.809
96.8673 21616 147.024
96.9844 21760 147.513
97.1016 21812 147.689
97.2188 21599 146.966
97.336 21749 147.475
97.4532 22692 150.639
97.5704 23125 152.069
97.6877 23105 152.003
97.805 23066 151.875
97.9223 22392 149.64
98.0396 21312 145.986
98.1569 20028 141.52
98.2743 18744 136.909
98.3916 18178 134.826
98.509 18228 135.011
98.6264 19589 139.961
98.7438 20680 143.805
98.8612 22205 149.013
98.9786 23397 152.961
99.096 24311 155.92
99.2134 24752 157.328
99.3308 25332 159.16
99.4482 25765 160.515
99.5656 25954 161.102
99.6831 25811 160.658
99.8005 25858 160.804
99.9179 24501 156.528
100.035 23761 154.146
100.153 23478 153.225
100.27 23251 152.483
100.388 23219 152.378
100.505 23114 152.033
100.622 22841 151.132
100.74 22906 151.347
100.857 22746 150.818
100.975 23117 152.043
101.092 23935 154.709
101.209 24453 156.375
101.327 24515 156.573
101.444 24112 155.28
101.561 23249 152.476
101.679 21813 147.692
101.796 20170 142.021
101.913 19598 139.993
102.03 19224 138.651
102.148 19755 140.552
102.265 21052 145.093
102.382 23225 152.398
102.499 24380 156.141
102.616 25196 158.732
102.733 25657 160.178
102.851 26328 162.259
102.968 26654 163.261
103.085 26610 163.126
103.202 26534 162.893
103.319 26102 161.561
103.436 25304 159.072
103.552 24386 156.16
103.669 23905 154.612
103.786 23893 154.574
103.903 23421 153.039
104.02 23140 152.118
104.137 22946 151.479
104.253 22408 149.693
104.37 23586 153.577
104.487 23212 152.355
104.603 23444 153.114
104.72 22894 151.308
104.836 22478 149.927
104.953 20882 144.506
105.069 19298 138.917
105.186 17359 131.754
105.302 15904 126.111
105.418 14074 118.634
105.535 12815 113.203
105.651 11953 109.33
105.767 11603 107.717
105.883 11290 106.254
105.999 11097 105.342
106.115 0 1
106.231 0 1
106.347 0 1
106.463 0 1
106.579 0 1
106.694 0 1
106.81 0 1
106.926 0 1
107.041 0 1
107.157 0 1
109.576 0 1
109.692 0 1
109.807 0 1
109.923 0 1
110.039 0 1
110.155 0 1
110.27 0 1
110.386 0 1
110.502 0 1
110.618 10950 104.642
110.735 13254 115.126
110.851 15667 125.168
110.967 17814 133.469
111.083 19871 140.965
111.199 21083 145.2
111.316 22035 148.442
111.432 22801 151
111.549 23549 153.457
111.665 23578 153.551
111.782 23244 152.46
111.898 23146 152.138
112.015 22637 150.456
112.132 22812 151.036
112.248 22119 148.725
112.365 21663 147.184
112.482 20997 144.903
112.599 21808 147.675
112.716 21168 145.492
112.832 21409 146.318
112.949 20879 144.496
113.066 21061 145.124
113.183 21870 147.885
113.3 21743 147.455
113.417 21993 148.3
113.534 21522 146.704
113.652 20885 144.516
113.769 19635 140.125
113.886 19003 137.851
114.003 17545 132.458
114.12 17182 131.08
114.238 17869 133.675
114.355 18819 137.182
114.472 19767 140.595
114.589 22673 150.576
114.707 23195 152.299
114.824 23673 153.86
114.942 23775 154.191
115.059 23836 154.389
115.176 24228 155.653
115.294 23478 153.225
115.411 23579 153.555
115.529 23129 152.082
115.646 22460 149.867
115.764 21975 148.24
115.881 21408 146.315
115.999 20673 143.781
116.116 20662 143.743
116.234 20290 142.443
116.351 20355 142.671
116.469 20069 141.665
116.586 20298 142.471
116.704 20898 144.561
116.821 20819 144.288
116.939 21547 146.789
117.056 21095 145.241
117.174 20469 143.07
117.291 19823 140.794
117.409 18726 136.843
117.526 17514 132.34
117.644 16986 130.33
117.761 16777 129.526
117.879 17345 131.7
117.996 18728 136.85
118.114 20201 142.13
118.231 21376 146.205
118.349 22239 149.127
118.466 22170 148.896
118.584 22566 150.22
118.701 22377 149.589
118.819 22466 149.887
118.936 21949 148.152
119.053 21988 148.284
119.171 21173 145.509
119.288 21023 144.993
119.405 20488 143.136
119.523 20037 141.552
119.64 19752 140.542
119.757 19391 139.252
119.875 18888 137.434
119.992 18758 136.96
120.109 18887 137.43
120.226 18615 136.437
120.343 18892 137.448
120.46 19278 138.845
120.578 19800 140.712
120.695 19253 138.755
120.812 18945 137.641
120.929 18188 134.863
121.046 16993 130.357
121.163 15944 126.27
121.279 15105 122.902
121.396 14589 120.785
121.513 14407 120.029
121.63 14546 120.607
121.747 15297 123.681
121.863 16148 127.075
121.98 16289 127.628
122.097 16408 128.094
122.213 15324 123.79
122.33 14819 121.733
122.446 13748 117.252
122.563 12932 113.719
122.679 12239 110.63
122.795 11773 108.503
122.912 10745 103.658
123.028 9970 99.8499
123.144 9262 96.2393
123.26 8731 93.4398
123.377 0 1
123.493 0 1
123.609 0 1
123.725 0 1
123.84 0 1
123.956 0 1
124.072 0 1
124.188 0 1
124.303 0 1
124.419 0 1
126.852 0 1
126.968 0 1
127.083 0 1
127.199 0 1
127.315 0 1
127.431 0 1
127.547 0 1
127.663 0 1
127.779 0 1
127.895 0 1
128.011 0 1
128.127 0 1
128.243 0 1
128.359 19727 140.453
128.476 19530 139.75
128.592 19361 139.144
128.708 19376 139.198
128.825 19003 137.851
128.941 18735 136.876
129.058 18633 136.503
129.174 18549 136.195
129.291 18522 136.096
129.408 18881 137.408
129.524 19160 138.42
129.641 19105 138.221
129.758 19186 138.514
129.875 18683 136.686
129.992 18577 136.297
130.108 17819 133.488
130.225 16936 130.138
130.342 16102 126.894
130.459 15594 124.876
130.576 15762 125.547
130.693 16622 128.926
130.81 17917 133.854
130.928 19013 137.888
131.045 19535 139.768
131.162 19897 141.057
131.279 20264 142.352
131.396 20444 142.983
131.513 20460 143.038
131.631 20045 141.58
131.748 20126 141.866
131.865 19646 140.164
131.983 19573 139.904
132.1 19325 139.014
132.217 19253 138.755
132.335 18932 137.594
132.452 18912 137.521
132.57 18917 137.539
132.687 18952 137.666
132.804 18511 136.055
132.922 18943 137.634
133.039 18934 137.601
133.157 19022 137.92
133.274 19423 139.366
133.392 19410 139.32
133.509 18940 137.623
133.627 18814 137.164
133.744 18350 135.462
133.862 17427 132.011
133.979 16764 129.476
134.097 16594 128.818
134.214 16639 128.992
134.332 17819 133.488
134.449 19164 138.434
134.567 20225 142.215
134.684 21151 145.434
134.802 21336 146.068
134.919 21627 147.061
135.037 21471 146.53
135.154 21269 145.839
135.272 21245 145.757
135.389 21364 146.164
135.507 21650 147.139
135.624 21556 146.82
135.742 21416 146.342
135.859 21187 145.558
135.977 21022 144.99
136.094 21122 145.334
136.211 21074 145.169
136.329 20988 144.872
136.446 20774 144.132
136.564 20699 143.871
136.681 21039 145.048
136.798 21097 145.248
136.915 21163 145.475
137.033 20917 144.627
137.15 20429 142.93
137.267 20362 142.695
137.384 19304 138.939
137.502 18487 135.967
137.619 17485 132.231
137.736 17343 131.693
137.853 16919 130.073
137.97 18571 136.275
138.087 19153 138.394
138.204 20751 144.052
138.321 20902 144.575
138.438 21263 145.818
138.555 21674 147.221
138.672 21047 145.076
138.788 20394 142.808
138.905 20048 141.591
139.022 18955 137.677
139.139 18100 134.536
139.255 17755 133.248
139.372 16939 130.15
139.488 15806 125.722
139.605 14559 120.661
139.721 13574 116.508
139.838 12831 113.274
139.954 12534 111.955
140.071 11902 109.096
140.187 11043 105.086
140.303 10570 102.811
140.419 10000 100
140.535 9573 97.8417
140.652 9203 95.9323
140.768 0 1
140.884 0 1
141 0 1
141.115 0 1
141.231 0 1
141.347 0 1
141.463 0 1
141.578 0 1
141.694 0 1
144.104 0 1
144.219 0 1
144.335 0 1
144.45 0 1
144.566 0 1
144.682 0 1
144.798 0 1
144.914 0 1
145.03 0 1
145.146 15388 124.048
145.262 15835 125.837
145.378 15807 125.726
145.494 15947 126.281
145.61 16306 127.695
145.726 15977 126.4
145.842 16191 127.244
145.959 16111 126.929
146.075 15615 124.96
146.192 15263 123.544
146.308 14891 122.029
146.425 14212 119.214
146.541 13983 118.25
146.658 13897 117.886
146.774 14246 119.357
146.891 15022 122.564
147.008 15633 125.032
147.125 16075 126.787
147.241 16398 128.055
147.358 16882 129.931
147.475 16620 128.919
147.592 16562 128.693
147.709 16540 128.608
147.826 16437 128.207
147.943 16518 128.522
148.06 16591 128.806
148.177 16722 129.314
148.294 16653 129.047
148.411 16575 128.744
148.528 16418 128.133
148.645 16448 128.25
148.762 16067 126.756
148.88 16061 126.732
148.997 16405 128.082
149.114 15855 125.917
149.231 15709 125.336
149.349 15771 125.583
149.466 15780 125.618
149.583 15803 125.71
149.701 15811 125.742
149.818 15529 124.615
149.935 14970 122.352
150.053 14682 121.169
150.17 14229 119.285
150.287 13821 117.563
150.405 14048 118.524
150.522 14604 120.847
150.64 15414 124.153
150.757 16049 126.685
150.875 16362 127.914
150.992 16778 129.53
151.11 16716 129.29
151.227 16396 128.047
151.344 16376 127.969
151.462 16084 126.823
151.579 16616 128.903
151.697 16556 128.67
151.814 16826 129.715
151.932 16634 128.973
152.049 16394 128.039
152.167 16171 127.165
152.284 16046 126.673
152.402 15966 126.357
152.519 15681 125.224
152.636 15648 125.092
152.754 15407 124.125
152.871 15495 124.479
152.989 15430 124.218
153.106 15610 124.94
153.223 15314 123.75
153.341 15238 123.442
153.458 15011 122.519
153.575 14641 121
153.693 13938 118.059
153.81 13277 115.226
153.927 13383 115.685
154.044 13769 117.341
154.162 14374 119.892
154.279 15262 123.539
154.396 15482 124.427
154.513 15966 126.357
154.63 15944 126.27
154.747 15998 126.483
154.864 15491 124.463
154.981 15582 124.828
155.098 15494 124.475
155.215 15555 124.72
155.332 15519 124.575
155.449 15443 124.27
155.566 15173 123.179
155.683 14832 121.787
155.8 14549 120.619
155.917 14050 118.533
156.033 13562 116.456
156.15 0 1
156.267 0 1
156.383 0 1
156.5 0 1
156.617 0 1
156.733 0 1
156.85 0 1
156.966 0 1
157.082 0 1
157.199 0 1
157.315 0 1
157.431 0 1
157.547 0 1
157.664 0 1
157.78 0 1
157.896 0 1
158.012 0 1
158.128 0 1
158.244 0 1
158.359 0 1
158.475 0 1
158.591 0 1
158.706 0 1
