
6.15755 0 1
6.2731 0 1
6.3887 0 1
6.50437 0 1
6.62009 0 1
6.73587 0 1
6.8517 0 1
6.96759 0 1
7.08353 0 1
7.19952 0 1
7.31557 0 1
7.43166 0 1
7.54781 0 1
7.664 0 1
7.78024 0 1
7.89653 0 1
8.01286 0 1
8.12924 0 1
8.24567 0 1
8.36213 0 1
8.47864 0 1
8.59519 0 1
8.71178 0 1
8.82841 0 1
8.94508 0 1
9.06179 0 1
9.17853 0 1
9.29531 0 1
9.41212 0 1
9.52897 0 1
9.64584 0 1
9.76276 0 1
9.8797 0 1
9.99667 0 1
10.1137 0 1
10.2307 0 1
10.3478 0 1
10.4648 0 1
10.5819 0 1
10.6991 0 1
10.8162 0 1
10.9334 0 1
11.0506 0 1
11.1678 0 1
11.285 0 1
11.4023 0 1
11.5196 0 1
11.6369 0 1
11.7542 0 1
11.8715 0 1
11.9888 0 1
12.1062 0 1
12.2235 0 1
12.3409 0 1
12.4582 0 1
12.5756 0 1
12.693 0 1
12.8104 0 1
12.9278 0 1
13.0452 0 1
13.1626 0 1
13.28 0 1
13.3974 0 1
13.5149 0 1
13.6323 0 1
13.7497 0 1
13.8671 0 1
13.9845 0 1
14.1019 0 1
14.2193 0 1
14.3367 0 1
14.4541 0 1
14.5714 0 1
14.6888 0 1
14.8062 0 1
14.9235 0 1
15.0408 0 0
15.1581 0 0
15.2755 0 0
15.3927 0 0
15.51 0 0
15.6273 0 0
15.7445 0 0
15.8617 0 0
15.9789 0 0
16.0961 0 0
16.2132 0 0
16.3304 0 0
16.4475 0 0
16.5646 0 0
16.6816 0 0
16.7986 0 0
16.9156 0 0
17.0326 0 0
17.1496 0 0
17.2665 0 0
17.3833 0 0
17.5002 0 0
17.617 0 0
17.7338 0 0
17.8505 0 0
17.9672 0 0
18.0839 0 0
18.2005 0 0
18.3171 0 0
18.4337 0 0
18.5502 0 0
18.6666 0 0
18.7831 0 0
18.8994 0 0
19.0158 0 0
19.1321 0 0
19.2483 0 0
19.3645 0 0
19.4806 0 0
19.5967 0 0
19.7128 0 0
19.8288 0 0
19.9447 0 0
20.0606 0 1
20.1764 0 1
20.2922 0 1
20.4079 0 1
20.5236 0 1
20.6392 0 1
20.7548 0 1
20.8702 0 1
23.3078 0 1
23.4233 0 1
23.539 0 1
23.6547 0 1
23.7704 0 1
23.8862 0 1
24.0021 0 1
24.118 0 1
24.234 0 1
24.35 0 1
24.4661 656 25.6125
24.5822 635 25.1992
24.6984 661 25.7099
24.8146 720 26.8328
24.9309 724 26.9072
25.0472 712 26.6833
25.1636 678 26.0384
25.28 782 27.9643
25.3965 823 28.688
25.513 731 27.037
25.6296 778 27.8927
25.7462 751 27.4044
25.8628 773 27.8029
25.9795 733 27.074
26.0962 740 27.2029
26.213 717 26.7769
26.3298 795 28.1957
26.4466 761 27.5862
26.5635 777 27.8747
26.6804 734 27.0924
26.7973 726 26.9444
26.9143 678 26.0384
27.0313 679 26.0576
27.1483 643 25.3574
27.2653 671 25.9037
27.3824 632 25.1396
27.4996 690 26.2679
27.6167 679 26.0576
27.7339 682 26.1151
27.8511 669 25.865
27.9683 652 25.5343
28.0855 710 26.6458
28.2028 660 25.6905
28.3201 636 25.219
28.4374 649 25.4755
28.5547 638 25.2587
28.6721 672 25.923
28.7894 683 26.1343
28.9068 725 26.9258
29.0242 683 26.1343
29.1416 736 27.1293
29.259 723 26.8887
29.3764 739 27.1846
29.4939 689 26.2488
29.6113 681 26.096
29.7288 768 27.7128
29.8463 709 26.6271
29.9638 712 26.6833
30.0812 733 27.074
30.1987 690 26.2679
30.3162 626 25.02
30.4337 661 25.7099
30.5512 609 24.6779
30.6687 634 25.1794
30.7862 636 25.219
30.9037 623 24.96
31.0212 713 26.7021
31.1387 674 25.9615
31.2562 626 25.02
31.3737 633 25.1595
31.4912 647 25.4362
31.6087 652 25.5343
31.7262 667 25.8263
31.8436 665 25.7876
31.9611 653 25.5539
32.0785 680 26.0768
32.1959 675 25.9808
32.3134 656 25.6125
32.4308 649 25.4755
32.5482 690 26.2679
32.6655 667 25.8263
32.7829 658 25.6515
32.9002 714 26.7208
33.0176 743 27.258
33.1349 707 26.5895
33.2522 697 26.4008
33.3694 709 26.6271
33.4867 686 26.1916
33.6039 686 26.1916
33.7211 692 26.3059
33.8383 736 27.1293
33.9554 692 26.3059
34.0725 627 25.04
34.1896 607 24.6374
34.3067 603 24.5561
34.4237 596 24.4131
34.5407 611 24.7184
34.6577 619 24.8797
34.7746 640 25.2982
34.8915 663 25.7488
35.0084 603 24.5561
35.1252 651 25.5147
35.242 652 25.5343
35.3587 612 24.7386
35.4755 583 24.1454
35.5921 638 25.2587
35.7088 660 25.6905
35.8254 656 25.6125
35.9419 675 25.9808
36.0584 649 25.4755
36.1749 682 26.1151
36.2913 691 26.2869
36.4077 689 26.2488
36.524 695 26.3629
36.6403 679 26.0576
36.7565 714 26.7208
36.8727 676 26
36.9889 654 25.5734
37.1049 638 25.2587
37.221 0 1
37.3369 0 1
37.4529 0 1
37.5687 0 1
37.6845 0 1
37.8003 0 1
37.916 0 1
38.0316 0 1
38.1472 0 1
40.5851 0 1
40.7008 0 1
40.8164 0 1
40.9322 0 1
41.048 0 1
41.1639 0 1
41.2798 0 1
41.3958 0 1
41.5118 0 1
41.6279 0 1
41.744 516 22.7156
41.8602 587 24.2281
41.9765 591 24.3105
42.0928 582 24.1247
42.2091 549 23.4307
42.3255 530 23.0217
42.4419 553 23.516
42.5584 597 24.4336
42.675 597 24.4336
42.7915 564 23.7487
42.9081 543 23.3024
43.0248 446 21.1187
43.1415 486 22.0454
43.2582 486 22.0454
43.375 481 21.9317
43.4918 536 23.1517
43.6087 509 22.561
43.7256 485 22.0227
43.8425 497 22.2935
43.9595 469 21.6564
44.0765 481 21.9317
44.1935 478 21.8632
44.3106 476 21.8174
44.4277 494 22.2261
44.5448 490 22.1359
44.6619 518 22.7596
44.7791 526 22.9347
44.8963 530 23.0217
45.0136 456 21.3542
45.1308 487 22.0681
45.2481 507 22.5167
45.3654 479 21.8861
45.4827 460 21.4476
45.6001 471 21.7025
45.7174 512 22.6274
45.8348 420 20.4939
45.9522 441 21
46.0697 476 21.8174
46.1871 464 21.5407
46.3046 512 22.6274
46.422 438 20.9284
46.5395 450 21.2132
46.657 376 19.3907
46.7745 380 19.4936
46.892 385 19.6214
47.0096 371 19.2614
47.1271 394 19.8494
47.2446 388 19.6977
47.3622 350 18.7083
47.4797 353 18.7883
47.5973 380 19.4936
47.7149 381 19.5192
47.8324 380 19.4936
47.95 343 18.5203
48.0675 402 20.0499
48.1851 404 20.0998
48.3027 418 20.445
48.4202 401 20.025
48.5378 358 18.9209
48.6554 394 19.8494
48.7729 367 19.1572
48.8904 360 18.9737
49.008 379 19.4679
49.1255 412 20.2978
49.243 389 19.7231
49.3605 394 19.8494
49.478 416 20.3961
49.5955 397 19.9249
49.713 428 20.6882
49.8304 385 19.6214
49.9479 426 20.6398
50.0653 383 19.5704
50.1827 358 18.9209
50.3001 321 17.9165
50.4175 344 18.5472
50.5348 352 18.7617
50.6521 365 19.105
50.7694 433 20.8087
50.8867 379 19.4679
51.004 399 19.975
51.1212 424 20.5913
51.2384 392 19.799
51.3556 461 21.4709
51.4727 457 21.3776
51.5899 468 21.6333
51.707 456 21.3542
51.824 516 22.7156
51.9411 467 21.6102
52.0581 490 22.1359
52.175 497 22.2935
52.2919 513 22.6495
52.4088 499 22.3383
52.5257 552 23.4947
52.6425 468 21.6333
52.7593 471 21.7025
52.876 503 22.4277
52.9927 545 23.3452
53.1094 472 21.7256
53.226 488 22.0907
53.3426 549 23.4307
53.4591 555 23.5584
53.5756 576 24
53.692 548 23.4094
53.8084 529 23
53.9248 448 21.166
54.0411 456 21.3542
54.1573 466 21.587
54.2735 0 1
54.3896 0 1
54.5057 0 1
54.6217 0 1
54.7377 0 1
54.8537 0 1
54.9695 0 1
55.0853 0 1
55.2011 0 1
55.3168 0 1
55.4324 0 1
57.824 0 1
57.9396 0 1
58.0553 0 1
58.1711 0 1
58.2869 0 1
58.4028 0 1
58.5187 0 1
58.6347 0 1
58.7508 0 1
58.8669 0 1
58.983 582 24.1247
59.0992 486 22.0454
59.2155 525 22.9129
59.3318 493 22.2036
59.4482 533 23.0868
59.5646 543 23.3024
59.681 560 23.6643
59.7975 496 22.2711
59.9141 579 24.0624
60.0306 574 23.9583
60.1473 586 24.2074
60.2639 621 24.9199
60.3807 577 24.0208
60.4974 577 24.0208
60.6142 563 23.7276
60.731 572 23.9165
60.8479 578 24.0416
60.9648 586 24.2074
61.0818 541 23.2594
61.1987 522 22.8473
61.3158 578 24.0416
61.4328 553 23.516
61.5499 566 23.7908
61.667 586 24.2074
61.7841 554 23.5372
61.9013 534 23.1084
62.0185 495 22.2486
62.1357 515 22.6936
62.253 520 22.8035
62.3702 536 23.1517
62.4875 517 22.7376
62.6049 468 21.6333
62.7222 424 20.5913
62.8396 464 21.5407
62.9569 481 21.9317
63.0743 474 21.7715
63.1918 466 21.587
63.3092 441 21
63.4267 523 22.8692
63.5441 513 22.6495
63.6616 518 22.7596
63.7791 491 22.1585
63.8966 501 22.383
64.0142 484 22
64.1317 535 23.1301
64.2492 494 22.2261
64.3668 473 21.7486
64.4843 493 22.2036
64.6019 458 21.4009
64.7195 488 22.0907
64.837 509 22.561
64.9546 487 22.0681
65.0722 478 21.8632
65.1898 477 21.8403
65.3074 451 21.2368
65.4249 475 21.7945
65.5425 461 21.4709
65.6601 457 21.3776
65.7777 446 21.1187
65.8952 464 21.5407
66.0128 457 21.3776
66.1304 456 21.3542
66.2479 358 18.9209
66.3655 377 19.4165
66.483 387 19.6723
66.6005 393 19.8242
66.718 402 20.0499
66.8355 410 20.2485
66.953 445 21.095
67.0705 432 20.7846
67.1879 433 20.8087
67.3054 454 21.3073
67.4228 466 21.587
67.5402 435 20.8567
67.6576 460 21.4476
67.7749 459 21.4243
67.8923 418 20.445
68.0096 454 21.3073
68.1269 434 20.8327
68.2442 462 21.4942
68.3614 419 20.4695
68.4787 388 19.6977
68.5958 421 20.5183
68.713 440 20.9762
68.8302 418 20.445
68.9473 414 20.347
69.0643 436 20.8806
69.1814 441 21
69.2984 443 21.0476
69.4154 428 20.6882
69.5323 401 20.025
69.6492 430 20.7364
69.7661 417 20.4206
69.8829 394 19.8494
69.9997 340 18.4391
70.1165 374 19.3391
70.2332 346 18.6011
70.3499 377 19.4165
70.4665 387 19.6723
70.5831 377 19.4165
70.6996 399 19.975
70.8161 406 20.1494
70.9326 396 19.8997
71.049 385 19.6214
71.1653 360 18.9737
71.2817 384 19.5959
71.3979 379 19.4679
71.5141 382 19.5448
71.6303 380 19.4936
71.7464 325 18.0278
71.8624 0 1
71.9784 0 1
72.0944 0 1
72.2102 0 1
72.3261 0 1
72.4418 0 1
72.5575 0 1
72.6732 0 1
75.1054 0 1
75.2209 0 1
75.3365 0 1
75.4521 0 1
75.5678 0 1
75.6835 0 1
75.7993 0 1
75.9151 0 1
76.031 0 1
76.147 285 16.8819
76.263 318 17.8326
76.3791 311 17.6352
76.4952 298 17.2627
76.6113 279 16.7033
76.7276 304 17.4356
76.8438 312 17.6635
76.9601 308 17.5499
77.0765 301 17.3494
77.1929 294 17.1464
77.3093 278 16.6733
77.4258 300 17.3205
77.5423 289 17
77.6589 271 16.4621
77.7755 295 17.1756
77.8921 267 16.3401
78.0088 296 17.2047
78.1256 266 16.3095
78.2423 265 16.2788
78.3591 260 16.1245
78.4759 264 16.2481
78.5928 269 16.4012
78.7097 261 16.1555
78.8266 263 16.2173
78.9436 223 14.9332
79.0606 218 14.7648
79.1776 188 13.7113
79.2946 194 13.9284
79.4117 185 13.6015
79.5288 193 13.8924
79.6459 250 15.8114
79.7631 212 14.5602
79.8802 230 15.1658
79.9974 194 13.9284
80.1147 240 15.4919
80.2319 210 14.4914
80.3491 194 13.9284
80.4664 183 13.5277
80.5837 180 13.4164
80.701 189 13.7477
80.8183 166 12.8841
80.9357 190 13.784
81.053 152 12.3288
81.1704 165 12.8452
81.2877 164 12.8062
81.4051 149 12.2066
81.5225 168 12.9615
81.6399 165 12.8452
81.7573 150 12.2474
81.8747 132 11.4891
81.9922 125 11.1803
82.1096 121 11
82.227 137 11.7047
82.3444 130 11.4018
82.4619 115 10.7238
82.5793 127 11.2694
82.6967 119 10.9087
82.8142 117 10.8167
82.9316 82 9.05539
83.049 88 9.38083
83.1664 102 10.0995
83.2838 104 10.198
83.4012 77 8.77496
83.5186 91 9.53939
83.636 85 9.21954
83.7534 73 8.544
83.8708 79 8.88819
83.9881 65 8.06226
84.1055 72 8.48528
84.2228 66 8.12404
84.3401 53 7.28011
84.4575 63 7.93725
84.5747 70 8.3666
84.692 65 8.06226
84.8093 67 8.18535
84.9265 83 9.11043
85.0437 62 7.87401
85.1609 57 7.54983
85.2781 56 7.48331
85.3952 69 8.30662
85.5123 49 7
85.6294 46 6.78233
85.7465 52 7.2111
85.8636 57 7.54983
85.9806 50 7.07107
86.0976 39 6.245
86.2145 37 6.08276
86.3315 49 7
86.4484 72 8.48528
86.5652 70 8.3666
86.682 68 8.24621
86.7988 71 8.42615
86.9156 72 8.48528
87.0323 74 8.60233
87.149 69 8.30662
87.2657 70 8.3666
87.3823 75 8.66025
87.4988 91 9.53939
87.6154 93 9.64365
87.7318 94 9.69536
87.8483 101 10.0499
87.9647 98 9.89949
88.081 103 10.1489
88.1973 114 10.6771
88.3136 115 10.7238
88.4298 129 11.3578
88.546 124 11.1355
88.6621 136 11.6619
88.7781 126 11.225
88.8942 0 1
89.0101 0 1
89.126 0 1
89.2419 0 1
89.3577 0 1
89.4734 0 1
89.5891 0 1
89.7047 0 1
89.8203 0 1
89.9358 0 1
92.3269 0 1
92.4424 0 1
92.558 0 1
92.6736 0 1
92.7893 0 1
92.905 0 1
93.0208 0 1
93.1366 0 1
93.2525 0 1
93.3685 0 1
93.4845 0 1
93.6005 251 15.843
93.7167 226 15.0333
93.8328 201 14.1774
93.949 215 14.6629
94.0653 202 14.2127
94.1816 211 14.5258
94.2979 217 14.7309
94.4143 185 13.6015
94.5307 196 14
94.6472 173 13.1529
94.7637 185 13.6015
94.8803 150 12.2474
94.9969 176 13.2665
95.1135 160 12.6491
95.2302 180 13.4164
95.3469 138 11.7473
95.4637 125 11.1803
95.5805 136 11.6619
95.6973 161 12.6886
95.8142 166 12.8841
95.9311 190 13.784
96.048 194 13.9284
96.1649 184 13.5647
96.2819 214 14.6287
96.3989 195 13.9642
96.516 186 13.6382
96.633 216 14.6969
96.7501 244 15.6205
96.8673 246 15.6844
96.9844 225 15
97.1016 237 15.3948
97.2188 224 14.9666
97.336 259 16.0935
97.4532 257 16.0312
97.5704 262 16.1864
97.6877 285 16.8819
97.805 267 16.3401
97.9223 299 17.2916
98.0396 261 16.1555
98.1569 272 16.4924
98.2743 260 16.1245
98.3916 295 17.1756
98.509 315 17.7482
98.6264 306 17.4929
98.7438 297 17.2337
98.8612 303 17.4069
98.9786 301 17.3494
99.096 223 14.9332
99.2134 206 14.3527
99.3308 274 16.5529
99.4482 358 18.9209
99.5656 359 18.9473
99.6831 324 18
99.8005 358 18.9209
99.9179 353 18.7883
100.035 360 18.9737
100.153 369 19.2094
100.27 361 19
100.388 383 19.5704
100.505 389 19.7231
100.622 356 18.868
100.74 412 20.2978
100.857 394 19.8494
100.975 411 20.2731
101.092 400 20
101.209 388 19.6977
101.327 413 20.3224
101.444 386 19.6469
101.561 421 20.5183
101.679 419 20.4695
101.796 391 19.7737
101.913 414 20.347
102.03 453 21.2838
102.148 442 21.0238
102.265 442 21.0238
102.382 402 20.0499
102.499 384 19.5959
102.616 324 18
102.733 279 16.7033
102.851 381 19.5192
102.968 422 20.5426
103.085 455 21.3307
103.202 454 21.3073
103.319 459 21.4243
103.436 427 20.664
103.552 471 21.7025
103.669 415 20.3715
103.786 432 20.7846
103.903 431 20.7605
104.02 473 21.7486
104.137 439 20.9523
104.253 468 21.6333
104.37 472 21.7256
104.487 474 21.7715
104.603 446 21.1187
104.72 486 22.0454
104.836 488 22.0907
104.953 476 21.8174
105.069 478 21.8632
105.186 432 20.7846
105.302 483 21.9773
105.418 495 22.2486
105.535 476 21.8174
105.651 465 21.5639
105.767 490 22.1359
105.883 423 20.567
105.999 395 19.8746
106.115 0 1
106.231 0 1
106.347 0 1
106.463 0 1
106.579 0 1
106.694 0 1
106.81 0 1
106.926 0 1
107.041 0 1
107.157 0 1
109.576 0 1
109.692 0 1
109.807 0 1
109.923 0 1
110.039 0 1
110.155 0 1
110.27 0 1
110.386 0 1
110.502 0 1
110.618 374 19.3391
110.735 362 19.0263
110.851 336 18.3303
110.967 399 19.975
111.083 315 17.7482
111.199 327 18.0831
111.316 294 17.1464
111.432 307 17.5214
111.549 347 18.6279
111.665 340 18.4391
111.782 373 19.3132
111.898 365 19.105
112.015 363 19.0526
112.132 316 17.7764
112.248 346 18.6011
112.365 339 18.412
112.482 318 17.8326
112.599 292 17.088
112.716 341 18.4662
112.832 339 18.412
112.949 314 17.72
113.066 309 17.5784
113.183 302 17.3781
113.3 296 17.2047
113.417 293 17.1172
113.534 254 15.9374
113.652 287 16.9411
113.769 277 16.6433
113.886 303 17.4069
114.003 288 16.9706
114.12 273 16.5227
114.238 299 17.2916
114.355 284 16.8523
114.472 261 16.1555
114.589 246 15.6844
114.707 262 16.1864
114.824 239 15.4596
114.942 234 15.2971
115.059 275 16.5831
115.176 277 16.6433
115.294 280 16.7332
115.411 241 15.5242
115.529 278 16.6733
115.646 288 16.9706
115.764 281 16.7631
115.881 264 16.2481
115.999 250 15.8114
116.116 296 17.2047
116.234 254 15.9374
116.351 267 16.3401
116.469 259 16.0935
116.586 258 16.0624
116.704 241 15.5242
116.821 286 16.9115
116.939 270 16.4317
117.056 271 16.4621
117.174 259 16.0935
117.291 280 16.7332
117.409 265 16.2788
117.526 247 15.7162
117.644 261 16.1555
117.761 230 15.1658
117.879 240 15.4919
117.996 236 15.3623
118.114 245 15.6525
118.231 224 14.9666
118.349 235 15.3297
118.466 269 16.4012
118.584 271 16.4621
118.701 285 16.8819
118.819 257 16.0312
118.936 261 16.1555
119.053 267 16.3401
119.171 253 15.906
119.288 271 16.4621
119.405 278 16.6733
119.523 276 16.6132
119.64 266 16.3095
119.757 295 17.1756
119.875 289 17
119.992 247 15.7162
120.109 261 16.1555
120.226 275 16.5831
120.343 275 16.5831
120.46 247 15.7162
120.578 280 16.7332
120.695 282 16.7929
120.812 270 16.4317
120.929 252 15.8745
121.046 323 17.9722
121.163 252 15.8745
121.279 243 15.5885
121.396 254 15.9374
121.513 256 16
121.63 228 15.0997
121.747 191 13.8203
121.863 215 14.6629
121.98 241 15.5242
122.097 233 15.2643
122.213 267 16.3401
122.33 263 16.2173
122.446 274 16.5529
122.563 303 17.4069
122.679 249 15.7797
122.795 305 17.4642
122.912 288 16.9706
123.028 320 17.8885
123.144 287 16.9411
123.26 274 16.5529
123.377 0 1
123.493 0 1
123.609 0 1
123.725 0 1
123.84 0 1
123.956 0 1
124.072 0 1
124.188 0 1
124.303 0 1
124.419 0 1
126.852 0 1
126.968 0 1
127.083 0 1
127.199 0 1
127.315 0 1
127.431 0 1
127.547 0 1
127.663 0 1
127.779 0 1
127.895 0 1
128.011 0 1
128.127 0 1
128.243 0 1
128.359 398 19.9499
128.476 389 19.7231
128.592 361 19
128.708 392 19.799
128.825 339 18.412
128.941 360 18.9737
129.058 336 18.3303
129.174 353 18.7883
129.291 372 19.2873
129.408 354 18.8149
129.524 369 19.2094
129.641 397 19.9249
129.758 352 18.7617
129.875 363 19.0526
129.992 370 19.2354
130.108 375 19.3649
130.225 340 18.4391
130.342 337 18.3576
130.459 302 17.3781
130.576 278 16.6733
130.693 262 16.1864
130.81 219 14.7986
130.928 254 15.9374
131.045 355 18.8414
131.162 392 19.799
131.279 399 19.975
131.396 366 19.1311
131.513 424 20.5913
131.631 425 20.6155
131.748 390 19.7484
131.865 427 20.664
131.983 420 20.4939
132.1 383 19.5704
132.217 390 19.7484
132.335 391 19.7737
132.452 434 20.8327
132.57 392 19.799
132.687 433 20.8087
132.804 446 21.1187
132.922 388 19.6977
133.039 414 20.347
133.157 429 20.7123
133.274 406 20.1494
133.392 419 20.4695
133.509 459 21.4243
133.627 412 20.2978
133.744 402 20.0499
133.862 431 20.7605
133.979 339 18.412
134.097 346 18.6011
134.214 331 18.1934
134.332 321 17.9165
134.449 301 17.3494
134.567 307 17.5214
134.684 333 18.2483
134.802 428 20.6882
134.919 409 20.2237
135.037 441 21
135.154 439 20.9523
135.272 425 20.6155
135.389 427 20.664
135.507 480 21.9089
135.624 419 20.4695
135.742 440 20.9762
135.859 428 20.6882
135.977 478 21.8632
136.094 453 21.2838
136.211 457 21.3776
136.329 404 20.0998
136.446 478 21.8632
136.564 435 20.8567
136.681 494 22.2261
136.798 454 21.3073
136.915 467 21.6102
137.033 449 21.1896
137.15 478 21.8632
137.267 454 21.3073
137.384 399 19.975
137.502 445 21.095
137.619 392 19.799
137.736 396 19.8997
137.853 344 18.5472
137.97 386 19.6469
138.087 346 18.6011
138.204 370 19.2354
138.321 416 20.3961
138.438 391 19.7737
138.555 455 21.3307
138.672 477 21.8403
138.788 485 22.0227
138.905 457 21.3776
139.022 474 21.7715
139.139 501 22.383
139.255 522 22.8473
139.372 486 22.0454
139.488 491 22.1585
139.605 497 22.2935
139.721 457 21.3776
139.838 469 21.6564
139.954 471 21.7025
140.071 492 22.1811
140.187 489 22.1133
140.303 460 21.4476
140.419 493 22.2036
140.535 536 23.1517
140.652 539 23.2164
140.768 0 1
140.884 0 1
141 0 1
141.115 0 1
141.231 0 1
141.347 0 1
141.463 0 1
141.578 0 1
141.694 0 1
144.104 0 1
144.219 0 1
144.335 0 1
144.45 0 1
144.566 0 1
144.682 0 1
144.798 0 1
144.914 0 1
145.03 0 1
145.146 477 21.8403
145.262 487 22.0681
145.378 457 21.3776
145.494 497 22.2935
145.61 477 21.8403
145.726 464 21.5407
145.842 435 20.8567
145.959 424 20.5913
146.075 399 19.975
146.192 443 21.0476
146.308 408 20.199
146.425 363 19.0526
146.541 384 19.5959
146.658 325 18.0278
146.774 395 19.8746
146.891 399 19.975
147.008 396 19.8997
147.125 478 21.8632
147.241 428 20.6882
147.358 477 21.8403
147.475 507 22.5167
147.592 448 21.166
147.709 459 21.4243
147.826 482 21.9545
147.943 456 21.3542
148.06 513 22.6495
148.177 492 22.1811
148.294 475 21.7945
148.411 519 22.7816
148.528 465 21.5639
148.645 492 22.1811
148.762 487 22.0681
148.88 512 22.6274
148.997 473 21.7486
149.114 454 21.3073
149.231 458 21.4009
149.349 484 22
149.466 429 20.7123
149.583 436 20.8806
149.701 438 20.9284
149.818 380 19.4936
149.935 393 19.8242
150.053 382 19.5448
150.17 367 19.1572
150.287 389 19.7231
150.405 404 20.0998
150.522 409 20.2237
150.64 422 20.5426
150.757 415 20.3715
150.875 438 20.9284
150.992 466 21.587
151.11 519 22.7816
151.227 478 21.8632
151.344 474 21.7715
151.462 485 22.0227
151.579 532 23.0651
151.697 487 22.0681
151.814 492 22.1811
151.932 484 22
152.049 512 22.6274
152.167 507 22.5167
152.284 438 20.9284
152.402 498 22.3159
152.519 491 22.1585
152.636 493 22.2036
152.754 497 22.2935
152.871 485 22.0227
152.989 499 22.3383
153.106 467 21.6102
153.223 473 21.7486
153.341 445 21.095
153.458 427 20.664
153.575 429 20.7123
153.693 422 20.5426
153.81 462 21.4942
153.927 424 20.5913
154.044 422 20.5426
154.162 456 21.3542
154.279 486 22.0454
154.396 457 21.3776
154.513 487 22.0681
154.63 521 22.8254
154.747 493 22.2036
154.864 535 23.1301
154.981 483 21.9773
155.098 491 22.1585
155.215 540 23.2379
155.332 532 23.0651
155.449 529 23
155.566 536 23.1517
155.683 527 22.9565
155.8 542 23.2809
155.917 522 22.8473
156.033 479 21.8861
156.15 0 1
156.267 0 1
156.383 0 1
156.5 0 1
156.617 0 1
156.733 0 1
156.85 0 1
156.966 0 1
157.082 0 1
157.199 0 1
157.315 0 1
157.431 0 1
157.547 0 1
157.664 0 1
157.78 0 1
157.896 0 1
158.012 0 1
158.128 0 1
158.244 0 1
158.359 0 1
158.475 0 1
158.591 0 1
158.706 0 1
