
6.15755 0 1
6.2731 0 1
6.3887 0 1
6.50437 0 1
6.62009 0 1
6.73587 0 1
6.8517 0 1
6.96759 0 1
7.08353 0 1
7.19952 0 1
7.31557 0 1
7.43166 0 1
7.54781 0 1
7.664 0 1
7.78024 0 1
7.89653 0 1
8.01286 0 1
8.12924 0 1
8.24567 0 1
8.36213 0 1
8.47864 0 1
8.59519 0 1
8.71178 0 1
8.82841 0 1
8.94508 0 1
9.06179 0 1
9.17853 0 1
9.29531 0 1
9.41212 0 1
9.52897 0 1
9.64584 0 1
9.76276 0 1
9.8797 0 1
9.99667 0 1
10.1137 0 1
10.2307 0 1
10.3478 0 1
10.4648 0 1
10.5819 0 1
10.6991 0 1
10.8162 0 1
10.9334 0 1
11.0506 0 1
11.1678 0 1
11.285 0 1
11.4023 0 1
11.5196 0 1
11.6369 0 1
11.7542 0 1
11.8715 0 1
11.9888 0 1
12.1062 0 1
12.2235 0 1
12.3409 0 1
12.4582 0 1
12.5756 0 1
12.693 0 1
12.8104 0 1
12.9278 0 1
13.0452 0 1
13.1626 0 1
13.28 0 1
13.3974 0 1
13.5149 0 1
13.6323 0 1
13.7497 0 1
13.8671 0 1
13.9845 0 1
14.1019 0 1
14.2193 0 1
14.3367 0 1
14.4541 0 1
14.5714 0 1
14.6888 0 1
14.8062 0 1
14.9235 0 1
15.0408 4445 66.6708
15.1581 4682 68.4251
15.2755 4716 68.6731
15.3927 4707 68.6076
15.51 4529 67.2978
15.6273 4524 67.2607
15.7445 4284 65.4523
15.8617 4128 64.2495
15.9789 4235 65.0769
16.0961 4376 66.1513
16.2132 4178 64.6375
16.3304 4196 64.7765
16.4475 4081 63.8827
16.5646 4061 63.726
16.6816 3946 62.8172
16.7986 3981 63.0952
16.9156 3860 62.1289
17.0326 3817 61.7819
17.1496 3837 61.9435
17.2665 3768 61.384
17.3833 3810 61.7252
17.5002 3687 60.7207
17.617 3717 60.9672
17.7338 3892 62.3859
17.8505 3866 62.1772
17.9672 3736 61.1228
18.0839 3906 62.498
18.2005 3785 61.5224
18.3171 3849 62.0403
18.4337 3822 61.8223
18.5502 3778 61.4654
18.6666 3812 61.7414
18.7831 3821 61.8142
18.8994 3838 61.9516
19.0158 3667 60.5558
19.1321 3593 59.9416
19.2483 3404 58.3438
19.3645 3098 55.6597
19.4806 3125 55.9017
19.5967 3245 56.9649
19.7128 3082 55.5158
19.8288 2849 53.376
19.9447 2571 50.705
20.0606 0 1
20.1764 0 1
20.2922 0 1
20.4079 0 1
20.5236 0 1
20.6392 0 1
20.7548 0 1
20.8702 0 1
23.3078 0 1
23.4233 0 1
23.539 0 1
23.6547 0 1
23.7704 0 1
23.8862 0 1
24.0021 0 1
24.118 0 1
24.234 0 1
24.35 0 1
24.4661 1628 40.3485
24.5822 1805 42.4853
24.6984 2182 46.7119
24.8146 2588 50.8724
24.9309 2964 54.4426
25.0472 3302 57.463
25.1636 3715 60.9508
25.28 3828 61.8708
25.3965 3896 62.4179
25.513 4063 63.7417
25.6296 4182 64.6684
25.7462 4247 65.169
25.8628 4170 64.5755
25.9795 4133 64.2884
26.0962 3975 63.0476
26.213 3838 61.9516
26.3298 3792 61.5792
26.4466 3571 59.7578
26.5635 3555 59.6238
26.6804 3365 58.0086
26.7973 3417 58.4551
26.9143 3274 57.2189
27.0313 3161 56.2228
27.1483 3210 56.6569
27.2653 3398 58.2924
27.3824 3573 59.7746
27.4996 3587 59.8916
27.6167 3579 59.8247
27.7339 3614 60.1166
27.8511 3510 59.2453
27.9683 3505 59.203
28.0855 3430 58.5662
28.2028 3482 59.0085
28.3201 3520 59.3296
28.4374 3750 61.2372
28.5547 3781 61.4898
28.6721 3761 61.327
28.7894 3806 61.6928
28.9068 3560 59.6657
29.0242 3684 60.696
29.1416 3736 61.1228
29.259 3551 59.5903
29.3764 3549 59.5735
29.4939 3481 59
29.6113 3437 58.6259
29.7288 3386 58.1893
29.8463 3241 56.9298
29.9638 3164 56.2494
30.0812 3207 56.6304
30.1987 3161 56.2228
30.3162 3123 55.8838
30.4337 3036 55.0999
30.5512 3109 55.7584
30.6687 3275 57.2276
30.7862 3267 57.1577
30.9037 3477 58.9661
31.0212 3504 59.1946
31.1387 3519 59.3212
31.2562 3562 59.6825
31.3737 3486 59.0424
31.4912 3493 59.1016
31.6087 3222 56.7627
31.7262 3301 57.4543
31.8436 3324 57.6541
31.9611 3429 58.5577
32.0785 3523 59.3549
32.1959 3352 57.8965
32.3134 3246 56.9737
32.4308 3351 57.8878
32.5482 3168 56.285
32.6655 3073 55.4346
32.7829 3099 55.6687
32.9002 3013 54.8908
33.0176 3045 55.1815
33.1349 2934 54.1664
33.2522 2996 54.7357
33.3694 2967 54.4702
33.4867 2992 54.6992
33.6039 2995 54.7266
33.7211 3021 54.9636
33.8383 2934 54.1664
33.9554 2870 53.5724
34.0725 2836 53.2541
34.1896 2864 53.5164
34.3067 2884 53.7029
34.4237 3006 54.827
34.5407 3131 55.9553
34.6577 3164 56.2494
34.7746 3123 55.8838
34.8915 3345 57.836
35.0084 3123 55.8838
35.1252 2997 54.7449
35.242 2879 53.6563
35.3587 2899 53.8424
35.4755 2830 53.1977
35.5921 2984 54.626
35.7088 3004 54.8088
35.8254 3110 55.7674
35.9419 3101 55.6866
36.0584 2963 54.4334
36.1749 2890 53.7587
36.2913 2837 53.2635
36.4077 2778 52.7067
36.524 2598 50.9706
36.6403 2469 49.689
36.7565 2368 48.6621
36.8727 2238 47.3075
36.9889 2145 46.3141
37.1049 1951 44.1701
37.221 0 1
37.3369 0 1
37.4529 0 1
37.5687 0 1
37.6845 0 1
37.8003 0 1
37.916 0 1
38.0316 0 1
38.1472 0 1
40.5851 0 1
40.7008 0 1
40.8164 0 1
40.9322 0 1
41.048 0 1
41.1639 0 1
41.2798 0 1
41.3958 0 1
41.5118 0 1
41.6279 0 1
41.744 1413 37.5899
41.8602 1655 40.6817
41.9765 1853 43.0465
42.0928 2098 45.8039
42.2091 2143 46.2925
42.3255 2228 47.2017
42.4419 2307 48.0312
42.5584 2365 48.6313
42.675 2191 46.8081
42.7915 2200 46.9042
42.9081 2053 45.31
43.0248 2176 46.6476
43.1415 2142 46.2817
43.2582 2171 46.594
43.375 2360 48.5798
43.4918 2319 48.156
43.6087 2365 48.6313
43.7256 2256 47.4974
43.8425 2270 47.6445
43.9595 2263 47.571
44.0765 2238 47.3075
44.1935 2170 46.5833
44.3106 2141 46.2709
44.4277 2379 48.775
44.5448 2359 48.5695
44.6619 2383 48.816
44.7791 2393 48.9183
44.8963 2399 48.9796
45.0136 2486 49.8598
45.1308 2478 49.7795
45.2481 2382 48.8057
45.3654 2475 49.7494
45.4827 2534 50.3389
45.6001 2540 50.3984
45.7174 2645 51.4296
45.8348 2454 49.5379
45.9522 2465 49.6488
46.0697 2480 49.7996
46.1871 2345 48.4252
46.3046 2305 48.0104
46.422 2150 46.3681
46.5395 2064 45.4313
46.657 2060 45.3872
46.7745 2211 47.0213
46.892 2333 48.3011
47.0096 2403 49.0204
47.1271 2454 49.5379
47.2446 2383 48.816
47.3622 2530 50.2991
47.4797 2394 48.9285
47.5973 2280 47.7493
47.7149 2289 47.8435
47.8324 2212 47.0319
47.95 2179 46.6798
48.0675 2254 47.4763
48.1851 2307 48.0312
48.3027 2326 48.2286
48.4202 2435 49.3457
48.5378 2460 49.5984
48.6554 2374 48.7237
48.7729 2445 49.4469
48.8904 2482 49.8197
49.008 2416 49.1528
49.1255 2313 48.0937
49.243 2393 48.9183
49.3605 2332 48.2908
49.478 2223 47.1487
49.5955 2179 46.6798
49.713 1948 44.1362
49.8304 1838 42.8719
49.9479 1913 43.7379
50.0653 1855 43.0697
50.1827 1876 43.3128
50.3001 2051 45.288
50.4175 2140 46.2601
50.5348 2090 45.7165
50.6521 2171 46.594
50.7694 2259 47.5289
50.8867 2334 48.3115
51.004 2252 47.4552
51.1212 2360 48.5798
51.2384 2216 47.0744
51.3556 2231 47.2335
51.4727 2263 47.571
51.5899 2295 47.9062
51.707 2480 49.7996
51.824 2599 50.9804
51.9411 2581 50.8035
52.0581 2623 51.2152
52.175 2790 52.8205
52.2919 3062 55.3353
52.4088 3408 58.3781
52.5257 3753 61.2617
52.6425 4091 63.9609
52.7593 4219 64.9538
52.876 4357 66.0076
52.9927 3957 62.9047
53.1094 3909 62.522
53.226 3721 61
53.3426 3582 59.8498
53.4591 3574 59.7829
53.5756 4071 63.8044
53.692 5578 74.686
53.8084 7664 87.5443
53.9248 9380 96.8504
54.0411 11113 105.418
54.1573 13259 115.148
54.2735 0 1
54.3896 0 1
54.5057 0 1
54.6217 0 1
54.7377 0 1
54.8537 0 1
54.9695 0 1
55.0853 0 1
55.2011 0 1
55.3168 0 1
55.4324 0 1
57.824 0 1
57.9396 0 1
58.0553 0 1
58.1711 0 1
58.2869 0 1
58.4028 0 1
58.5187 0 1
58.6347 0 1
58.7508 0 1
58.8669 0 1
58.983 114922 339.001
59.0992 128653 358.682
59.2155 133208 364.977
59.3318 129706 360.147
59.4482 125930 354.866
59.5646 118192 343.791
59.681 109812 331.379
59.7975 100862 317.588
59.9141 91719 302.851
60.0306 83057 288.196
60.1473 73807 271.674
60.2639 65299 255.537
60.3807 56630 237.971
60.4974 49016 221.396
60.6142 41871 204.624
60.731 36268 190.442
60.8479 31777 178.261
60.9648 28165 167.824
61.0818 24925 157.877
61.1987 21579 146.898
61.3158 18281 135.207
61.4328 14450 120.208
61.5499 11099 105.352
61.667 7946 89.1403
61.7841 5951 77.1427
61.9013 4647 68.1689
62.0185 4166 64.5446
62.1357 4325 65.7647
62.253 4261 65.2763
62.3702 4378 66.1665
62.4875 4217 64.9384
62.6049 3788 61.5467
62.7222 3527 59.3886
62.8396 3292 57.376
62.9569 3310 57.5326
63.0743 3187 56.4535
63.1918 3048 55.2087
63.3092 2967 54.4702
63.4267 2971 54.5069
63.5441 2890 53.7587
63.6616 2764 52.5738
63.7791 2760 52.5357
63.8966 2711 52.0673
64.0142 2733 52.2781
64.1317 2713 52.0865
64.2492 2645 51.4296
64.3668 2693 51.8941
64.4843 2665 51.6236
64.6019 2534 50.3389
64.7195 2536 50.3587
64.837 2547 50.4678
64.9546 2539 50.3885
65.0722 2502 50.02
65.1898 2391 48.8979
65.3074 2423 49.224
65.4249 2314 48.1041
65.5425 2323 48.1975
65.6601 2385 48.8365
65.7777 2328 48.2494
65.8952 2233 47.2546
66.0128 2423 49.224
66.1304 2466 49.6588
66.2479 2412 49.1121
66.3655 2410 49.0918
66.483 2411 49.1019
66.6005 2529 50.2892
66.718 2512 50.1199
66.8355 2479 49.7896
66.953 2611 51.0979
67.0705 2562 50.6162
67.1879 2525 50.2494
67.3054 2533 50.3289
67.4228 2498 49.98
67.5402 2575 50.7445
67.6576 2493 49.93
67.7749 2631 51.2933
67.8923 2435 49.3457
68.0096 2489 49.8899
68.1269 2371 48.6929
68.2442 2461 49.6085
68.3614 2393 48.9183
68.4787 2358 48.5592
68.5958 2442 49.4166
68.713 2252 47.4552
68.8302 2279 47.7389
68.9473 2362 48.6004
69.0643 2236 47.2864
69.1814 2209 47
69.2984 2258 47.5184
69.4154 2312 48.0833
69.5323 2281 47.7598
69.6492 2290 47.8539
69.7661 2291 47.8644
69.8829 2217 47.085
69.9997 2332 48.2908
70.1165 2391 48.8979
70.2332 2324 48.2079
70.3499 2265 47.592
70.4665 2212 47.0319
70.5831 2050 45.2769
70.6996 1823 42.6966
70.8161 1771 42.0833
70.9326 1611 40.1373
71.049 1509 38.8458
71.1653 1430 37.8153
71.2817 1457 38.1707
71.3979 1270 35.6371
71.5141 1155 33.9853
71.6303 1113 33.3617
71.7464 889 29.8161
71.8624 0 1
71.9784 0 1
72.0944 0 1
72.2102 0 1
72.3261 0 1
72.4418 0 1
72.5575 0 1
72.6732 0 1
75.1054 0 1
75.2209 0 1
75.3365 0 1
75.4521 0 1
75.5678 0 1
75.6835 0 1
75.7993 0 1
75.9151 0 1
76.031 0 1
76.147 1578 39.724
76.263 1848 42.9884
76.3791 1810 42.5441
76.4952 2037 45.1331
76.6113 1987 44.5758
76.7276 2116 46
76.8438 2108 45.913
76.9601 2024 44.9889
77.0765 2075 45.5522
77.1929 2116 46
77.3093 2048 45.2548
77.4258 2111 45.9456
77.5423 2001 44.7325
77.6589 1965 44.3283
77.7755 2025 45
77.8921 1853 43.0465
78.0088 1899 43.5775
78.1256 1849 43
78.2423 1945 44.1022
78.3591 1901 43.6005
78.4759 1990 44.6094
78.5928 1968 44.3621
78.7097 1910 43.7035
78.8266 1769 42.0595
78.9436 1951 44.1701
79.0606 2001 44.7325
79.1776 2047 45.2438
79.2946 2161 46.4866
79.4117 2057 45.3542
79.5288 2109 45.9239
79.6459 2141 46.2709
79.7631 2124 46.0869
79.8802 2199 46.8935
79.9974 2122 46.0652
80.1147 2083 45.6399
80.2319 2159 46.465
80.3491 2148 46.3465
80.4664 2166 46.5403
80.5837 2153 46.4004
80.701 2220 47.1169
80.8183 2164 46.5188
80.9357 2121 46.0543
81.053 2046 45.2327
81.1704 1995 44.6654
81.2877 2085 45.6618
81.4051 1941 44.0568
81.5225 1961 44.2832
81.6399 1932 43.9545
81.7573 1958 44.2493
81.8747 1784 42.2374
81.9922 1956 44.2267
82.1096 2058 45.3652
82.227 2058 45.3652
82.3444 1939 44.0341
82.4619 1953 44.1928
82.5793 1892 43.4971
82.6967 2054 45.3211
82.8142 2122 46.0652
82.9316 2265 47.592
83.049 2136 46.2169
83.1664 2160 46.4758
83.2838 2245 47.3814
83.4012 2188 46.7761
83.5186 2186 46.7547
83.636 2230 47.2229
83.7534 2121 46.0543
83.8708 2189 46.7868
83.9881 2181 46.7012
84.1055 2195 46.8508
84.2228 2264 47.5815
84.3401 2198 46.8828
84.4575 2126 46.1086
84.5747 2126 46.1086
84.692 2100 45.8258
84.8093 2050 45.2769
84.9265 1985 44.5533
85.0437 1985 44.5533
85.1609 1936 44
85.2781 1922 43.8406
85.3952 1983 44.5309
85.5123 2007 44.7996
85.6294 2056 45.3431
85.7465 2153 46.4004
85.8636 2141 46.2709
85.9806 2117 46.0109
86.0976 1986 44.5646
86.2145 2011 44.8442
86.3315 2182 46.7119
86.4484 2227 47.1911
86.5652 2351 48.4871
86.682 2193 46.8295
86.7988 2282 47.7703
86.9156 2105 45.8803
87.0323 2255 47.4868
87.149 2212 47.0319
87.2657 2198 46.8828
87.3823 2150 46.3681
87.4988 2091 45.7275
87.6154 2008 44.8107
87.7318 1992 44.6318
87.8483 1810 42.5441
87.9647 1732 41.6173
88.081 1537 39.2046
88.1973 1455 38.1445
88.3136 1392 37.3095
88.4298 1242 35.242
88.546 1145 33.8378
88.6621 1111 33.3317
88.7781 998 31.5911
88.8942 0 1
89.0101 0 1
89.126 0 1
89.2419 0 1
89.3577 0 1
89.4734 0 1
89.5891 0 1
89.7047 0 1
89.8203 0 1
89.9358 0 1
92.3269 0 1
92.4424 0 1
92.558 0 1
92.6736 0 1
92.7893 0 1
92.905 0 1
93.0208 0 1
93.1366 0 1
93.2525 0 1
93.3685 0 1
93.4845 0 1
93.6005 1765 42.0119
93.7167 1819 42.6497
93.8328 1896 43.5431
93.949 1908 43.6807
94.0653 1953 44.1928
94.1816 1946 44.1135
94.2979 1898 43.566
94.4143 1921 43.8292
94.5307 1969 44.3734
94.6472 1993 44.643
94.7637 2116 46
94.8803 2171 46.594
94.9969 2224 47.1593
95.1135 2166 46.5403
95.2302 2102 45.8476
95.3469 2124 46.0869
95.4637 2176 46.6476
95.5805 2191 46.8081
95.6973 2195 46.8508
95.8142 2177 46.6583
95.9311 2246 47.392
96.048 2121 46.0543
96.1649 2207 46.9787
96.2819 2195 46.8508
96.3989 2260 47.5395
96.516 2181 46.7012
96.633 2301 47.9687
96.7501 2277 47.7179
96.8673 2279 47.7389
96.9844 2238 47.3075
97.1016 2153 46.4004
97.2188 2228 47.2017
97.336 2140 46.2601
97.4532 2065 45.4423
97.5704 2059 45.3762
97.6877 2014 44.8776
97.805 2014 44.8776
97.9223 2022 44.9667
98.0396 1966 44.3396
98.1569 2022 44.9667
98.2743 2139 46.2493
98.3916 2201 46.9148
98.509 2196 46.8615
98.6264 2212 47.0319
98.7438 2225 47.1699
98.8612 2194 46.8402
98.9786 2306 48.0208
99.096 2247 47.4025
99.2134 2386 48.8467
99.3308 2384 48.8262
99.4482 2442 49.4166
99.5656 2290 47.8539
99.6831 2387 48.8569
99.8005 2357 48.5489
99.9179 2409 49.0816
100.035 2430 49.295
100.153 2462 49.6185
100.27 2467 49.6689
100.388 2401 49
100.505 2461 49.6085
100.622 2365 48.6313
100.74 2295 47.9062
100.857 2257 47.5079
100.975 2304 48
101.092 2278 47.7284
101.209 2239 47.3181
101.327 2060 45.3872
101.444 2131 46.1628
101.561 2202 46.9255
101.679 2254 47.4763
101.796 2272 47.6655
101.913 2401 49
102.03 2455 49.548
102.148 2539 50.3885
102.265 2499 49.99
102.382 2508 50.0799
102.499 2541 50.4083
102.616 2429 49.2849
102.733 2714 52.0961
102.851 2648 51.4587
102.968 2645 51.4296
103.085 2641 51.3907
103.202 2555 50.547
103.319 2638 51.3615
103.436 2680 51.7687
103.552 2649 51.4684
103.669 2724 52.192
103.786 2814 53.0471
103.903 2940 54.2218
104.02 2828 53.1789
104.137 2780 52.7257
104.253 2879 53.6563
104.37 2818 53.0848
104.487 2930 54.1295
104.603 2816 53.066
104.72 2900 53.8516
104.836 2801 52.9245
104.953 2727 52.2207
105.069 2814 53.0471
105.186 2752 52.4595
105.302 2762 52.5547
105.418 2724 52.192
105.535 2619 51.1762
105.651 2504 50.04
105.767 2427 49.2646
105.883 2340 48.3735
105.999 2098 45.8039
106.115 0 1
106.231 0 1
106.347 0 1
106.463 0 1
106.579 0 1
106.694 0 1
106.81 0 1
106.926 0 1
107.041 0 1
107.157 0 1
109.576 0 1
109.692 0 1
109.807 0 1
109.923 0 1
110.039 0 1
110.155 0 1
110.27 0 1
110.386 0 1
110.502 0 1
110.618 3521 59.338
110.735 4592 67.7643
110.851 5569 74.6257
110.967 6175 78.5812
111.083 6671 81.6762
111.199 6695 81.823
111.316 7166 84.6522
111.432 7579 87.0575
111.549 8241 90.78
111.665 8578 92.6175
111.782 8609 92.7847
111.898 9250 96.1769
112.015 9445 97.1854
112.132 9610 98.0306
112.248 9720 98.5901
112.365 9949 99.7447
112.482 10044 100.22
112.599 9815 99.0707
112.716 10055 100.275
112.832 9864 99.3177
112.949 9938 99.6895
113.066 9610 98.0306
113.183 9663 98.3006
113.3 9310 96.4883
113.417 8508 92.2388
113.534 6329 79.555
113.652 4392 66.2722
113.769 3283 57.2975
113.886 3075 55.4527
114.003 3658 60.4814
114.12 4840 69.5701
114.238 6447 80.2932
114.355 7084 84.1665
114.472 7398 86.0116
114.589 7229 85.0235
114.707 7526 86.7525
114.824 7598 87.1665
114.942 7879 88.7637
115.059 7915 88.9663
115.176 8155 90.305
115.294 7662 87.5329
115.411 7677 87.6185
115.529 7974 89.2973
115.646 8228 90.7083
115.764 7960 89.2188
115.881 7551 86.8965
115.999 7096 84.2378
116.116 6373 79.8311
116.234 5508 74.2159
116.351 4816 69.3974
116.469 4041 63.5689
116.586 3551 59.5903
116.704 2848 53.3667
116.821 2390 48.8876
116.939 2090 45.7165
117.056 1907 43.6692
117.174 1791 42.3202
117.291 1710 41.3521
117.409 1721 41.4849
117.526 1825 42.72
117.644 1875 43.3013
117.761 1955 44.2154
117.879 2004 44.7661
117.996 2075 45.5522
118.114 2102 45.8476
118.231 1980 44.4972
118.349 2055 45.3321
118.466 2041 45.1774
118.584 2159 46.465
118.701 2054 45.3211
118.819 2065 45.4423
118.936 1920 43.8178
119.053 1973 44.4185
119.171 1909 43.6921
119.288 1908 43.6807
119.405 2022 44.9667
119.523 2010 44.833
119.64 1918 43.795
119.757 2052 45.299
119.875 1966 44.3396
119.992 1954 44.2041
120.109 1846 42.9651
120.226 1865 43.1856
120.343 1929 43.9204
120.46 1886 43.4281
120.578 1849 43
120.695 1800 42.4264
120.812 1735 41.6533
120.929 1690 41.1096
121.046 1523 39.0256
121.163 1624 40.2989
121.279 1562 39.5221
121.396 1685 41.0488
121.513 1764 42
121.63 1739 41.7013
121.747 1736 41.6653
121.863 1744 41.7612
121.98 1696 41.1825
122.097 1623 40.2865
122.213 1554 39.4208
122.33 1455 38.1445
122.446 1484 38.5227
122.563 1378 37.1214
122.679 1248 35.327
122.795 1177 34.3074
122.912 1166 34.1467
123.028 1089 33
123.144 1087 32.9697
123.26 1062 32.5883
123.377 0 1
123.493 0 1
123.609 0 1
123.725 0 1
123.84 0 1
123.956 0 1
124.072 0 1
124.188 0 1
124.303 0 1
124.419 0 1
126.852 0 1
126.968 0 1
127.083 0 1
127.199 0 1
127.315 0 1
127.431 0 1
127.547 0 1
127.663 0 1
127.779 0 1
127.895 0 1
128.011 0 1
128.127 0 1
128.243 0 1
128.359 1971 44.3959
128.476 2041 45.1774
128.592 2157 46.4435
128.708 2192 46.8188
128.825 2193 46.8295
128.941 2185 46.744
129.058 2208 46.9894
129.174 2271 47.655
129.291 2146 46.3249
129.408 2112 45.9565
129.524 2187 46.7654
129.641 2125 46.0977
129.758 2137 46.2277
129.875 1977 44.4635
129.992 2053 45.31
130.108 1759 41.9404
130.225 1813 42.5793
130.342 1903 43.6234
130.459 1995 44.6654
130.576 2371 48.6929
130.693 2458 49.5782
130.81 2545 50.448
130.928 2621 51.1957
131.045 2580 50.7937
131.162 2664 51.614
131.279 2827 53.1695
131.396 2984 54.626
131.513 3022 54.9727
131.631 2986 54.6443
131.748 3009 54.8544
131.865 3193 56.5066
131.983 3644 60.3656
132.1 3713 60.9344
132.217 3864 62.1611
132.335 4132 64.2806
132.452 4173 64.5988
132.57 4428 66.5432
132.687 4552 67.4685
132.804 4924 70.1712
132.922 4896 69.9714
133.039 5025 70.8872
133.157 5193 72.0625
133.274 5320 72.9383
133.392 5332 73.0205
133.509 5492 74.108
133.627 5247 72.4362
133.744 5146 71.7356
133.862 5274 72.6223
133.979 5255 72.4914
134.097 5434 73.7157
134.214 5586 74.7395
134.332 5696 75.4718
134.449 5511 74.2361
134.567 5549 74.4916
134.684 5609 74.8933
134.802 5500 74.162
134.919 5587 74.7462
135.037 5498 74.1485
135.154 5312 72.8835
135.272 4966 70.4699
135.389 4853 69.6635
135.507 5126 71.5961
135.624 5543 74.4513
135.742 5673 75.3193
135.859 5616 74.94
135.977 5535 74.3976
136.094 5521 74.3034
136.211 5413 73.5731
136.329 5443 73.7767
136.446 5247 72.4362
136.564 5291 72.7393
136.681 5335 73.0411
136.798 5316 72.9109
136.915 5189 72.0347
137.033 5158 71.8192
137.15 4829 69.491
137.267 4930 70.214
137.384 4674 68.3667
137.502 4609 67.8896
137.619 4511 67.164
137.736 4669 68.3301
137.853 4472 66.873
137.97 4932 70.2282
138.087 4860 69.7137
138.204 4724 68.7314
138.321 4615 67.9338
138.438 4803 69.3037
138.555 4967 70.4769
138.672 4841 69.5773
138.788 4468 66.8431
138.905 4231 65.0461
139.022 4279 65.4141
139.139 4251 65.1997
139.255 4395 66.2948
139.372 4231 65.0461
139.488 4031 63.4902
139.605 3826 61.8547
139.721 3568 59.7327
139.838 3441 58.66
139.954 3250 57.0088
140.071 3010 54.8635
140.187 2917 54.0093
140.303 2760 52.5357
140.419 2660 51.5752
140.535 2510 50.0999
140.652 2447 49.4672
140.768 0 1
140.884 0 1
141 0 1
141.115 0 1
141.231 0 1
141.347 0 1
141.463 0 1
141.578 0 1
141.694 0 1
144.104 0 1
144.219 0 1
144.335 0 1
144.45 0 1
144.566 0 1
144.682 0 1
144.798 0 1
144.914 0 1
145.03 0 1
145.146 3840 61.9677
145.262 4042 63.5767
145.378 4075 63.8357
145.494 4235 65.0769
145.61 4429 66.5507
145.726 4419 66.4756
145.842 4279 65.4141
145.959 4375 66.1438
146.075 4389 66.2495
146.192 4225 65
146.308 4096 64
146.425 4082 63.8905
146.541 4392 66.2722
146.658 4478 66.9179
146.774 4467 66.8356
146.891 4598 67.8086
147.008 4364 66.0606
147.125 4353 65.9773
147.241 4504 67.1118
147.358 4607 67.8749
147.475 4574 67.6314
147.592 4542 67.3944
147.709 4380 66.1816
147.826 4312 65.6658
147.943 4235 65.0769
148.06 4290 65.4981
148.177 4339 65.8711
148.294 4586 67.72
148.411 4338 65.8635
148.528 4521 67.2384
148.645 4458 66.7683
148.762 4436 66.6033
148.88 4464 66.8132
148.997 4426 66.5282
149.114 4307 65.6277
149.231 4323 65.7495
149.349 4430 66.5582
149.466 4287 65.4752
149.583 4300 65.5744
149.701 4267 65.3223
149.818 4138 64.3273
149.935 4050 63.6396
150.053 3926 62.6578
150.17 3867 62.1852
150.287 4032 63.498
150.405 4086 63.9218
150.522 4065 63.7574
150.64 3885 62.3298
150.757 4000 63.2456
150.875 4069 63.7887
150.992 4180 64.6529
151.11 4249 65.1844
151.227 4270 65.3452
151.344 4099 64.0234
151.462 3873 62.2334
151.579 3844 62
151.697 4013 63.3482
151.814 4185 64.6916
151.932 4445 66.6708
152.049 4388 66.242
152.167 4449 66.7008
152.284 4502 67.0969
152.402 4541 67.3869
152.519 4500 67.082
152.636 4614 67.9264
152.754 4481 66.9403
152.871 4714 68.6586
152.989 4545 67.4166
153.106 4623 67.9926
153.223 4585 67.7126
153.341 4501 67.0895
153.458 4324 65.7571
153.575 4236 65.0846
153.693 4205 64.846
153.81 4100 64.0312
153.927 4203 64.8305
154.044 4027 63.4586
154.162 4027 63.4586
154.279 3960 62.9285
154.396 4093 63.9766
154.513 4179 64.6452
154.63 4210 64.8845
154.747 4304 65.6049
154.864 4323 65.7495
154.981 3981 63.0952
155.098 3877 62.2656
155.215 3992 63.1823
155.332 4070 63.7966
155.449 4169 64.5678
155.566 4417 66.4605
155.683 4313 65.6734
155.8 4550 67.4537
155.917 4542 67.3944
156.033 4618 67.9559
156.15 0 1
156.267 0 1
156.383 0 1
156.5 0 1
156.617 0 1
156.733 0 1
156.85 0 1
156.966 0 1
157.082 0 1
157.199 0 1
157.315 0 1
157.431 0 1
157.547 0 1
157.664 0 1
157.78 0 1
157.896 0 1
158.012 0 1
158.128 0 1
158.244 0 1
158.359 0 1
158.475 0 1
158.591 0 1
158.706 0 1
