
6.15755 0 1
6.2731 0 1
6.3887 0 1
6.50437 0 1
6.62009 0 1
6.73587 0 1
6.8517 0 1
6.96759 0 1
7.08353 0 1
7.19952 0 1
7.31557 0 1
7.43166 0 1
7.54781 0 1
7.664 0 1
7.78024 0 1
7.89653 0 1
8.01286 0 1
8.12924 0 1
8.24567 0 1
8.36213 0 1
8.47864 0 1
8.59519 0 1
8.71178 0 1
8.82841 0 1
8.94508 0 1
9.06179 0 1
9.17853 0 1
9.29531 0 1
9.41212 0 1
9.52897 0 1
9.64584 0 1
9.76276 0 1
9.8797 0 1
9.99667 0 1
10.1137 0 1
10.2307 0 1
10.3478 0 1
10.4648 0 1
10.5819 0 1
10.6991 0 1
10.8162 0 1
10.9334 0 1
11.0506 0 1
11.1678 0 1
11.285 0 1
11.4023 0 1
11.5196 0 1
11.6369 0 1
11.7542 0 1
11.8715 0 1
11.9888 0 1
12.1062 0 1
12.2235 0 1
12.3409 0 1
12.4582 0 1
12.5756 0 1
12.693 0 1
12.8104 0 1
12.9278 0 1
13.0452 0 1
13.1626 0 1
13.28 0 1
13.3974 0 1
13.5149 0 1
13.6323 0 1
13.7497 0 1
13.8671 0 1
13.9845 0 1
14.1019 0 1
14.2193 0 1
14.3367 0 1
14.4541 0 1
14.5714 0 1
14.6888 0 1
14.8062 0 1
14.9235 0 1
15.0408 1356 36.8239
15.1581 1431 37.8286
15.2755 1499 38.7169
15.3927 1591 39.8873
15.51 1588 39.8497
15.6273 1612 40.1497
15.7445 1541 39.2556
15.8617 1551 39.3827
15.9789 1555 39.4335
16.0961 1571 39.6358
16.2132 1625 40.3113
16.3304 1582 39.7744
16.4475 1674 40.9145
16.5646 1772 42.0951
16.6816 1834 42.8252
16.7986 1876 43.3128
16.9156 1924 43.8634
17.0326 1923 43.852
17.1496 1860 43.1277
17.2665 1899 43.5775
17.3833 1899 43.5775
17.5002 1765 42.0119
17.617 1773 42.107
17.7338 1659 40.7308
17.8505 1643 40.5339
17.9672 1600 40
18.0839 1560 39.4968
18.2005 1664 40.7922
18.3171 1652 40.6448
18.4337 1801 42.4382
18.5502 1815 42.6028
18.6666 1774 42.1189
18.7831 1926 43.8862
18.8994 1789 42.2966
19.0158 1794 42.3556
19.1321 1840 42.8952
19.2483 1657 40.7063
19.3645 1638 40.4722
19.4806 1496 38.6782
19.5967 1376 37.0945
19.7128 1354 36.7967
19.8288 1226 35.0143
19.9447 1157 34.0147
20.0606 0 1
20.1764 0 1
20.2922 0 1
20.4079 0 1
20.5236 0 1
20.6392 0 1
20.7548 0 1
20.8702 0 1
23.3078 0 1
23.4233 0 1
23.539 0 1
23.6547 0 1
23.7704 0 1
23.8862 0 1
24.0021 0 1
24.118 0 1
24.234 0 1
24.35 0 1
24.4661 742 27.2397
24.5822 909 30.1496
24.6984 959 30.9677
24.8146 1052 32.4345
24.9309 1247 35.3129
25.0472 1317 36.2905
25.1636 1499 38.7169
25.28 1585 39.8121
25.3965 1765 42.0119
25.513 1742 41.7373
25.6296 1859 43.1161
25.7462 1992 44.6318
25.8628 2019 44.9333
25.9795 2034 45.0999
26.0962 2027 45.0222
26.213 1924 43.8634
26.3298 1691 41.1218
26.4466 1667 40.8289
26.5635 1699 41.2189
26.6804 1675 40.9268
26.7973 1739 41.7013
26.9143 1765 42.0119
27.0313 1832 42.8019
27.1483 1810 42.5441
27.2653 1899 43.5775
27.3824 1831 42.7902
27.4996 2018 44.9222
27.6167 1883 43.3935
27.7339 1848 42.9884
27.8511 1871 43.2551
27.9683 1763 41.9881
28.0855 1650 40.6202
28.2028 1646 40.5709
28.3201 1527 39.0768
28.4374 1623 40.2865
28.5547 1600 40
28.6721 1688 41.0853
28.7894 1810 42.5441
28.9068 1835 42.8369
29.0242 1849 43
29.1416 1996 44.6766
29.259 1966 44.3396
29.3764 1938 44.0227
29.4939 1968 44.3621
29.6113 1840 42.8952
29.7288 1792 42.332
29.8463 1755 41.8927
29.9638 1656 40.694
30.0812 1541 39.2556
30.1987 1669 40.8534
30.3162 1631 40.3856
30.4337 1741 41.7253
30.5512 1645 40.5586
30.6687 1807 42.5088
30.7862 1881 43.3705
30.9037 1849 43
31.0212 1855 43.0697
31.1387 1851 43.0232
31.2562 1881 43.3705
31.3737 1770 42.0714
31.4912 1742 41.7373
31.6087 1689 41.0974
31.7262 1602 40.025
31.8436 1623 40.2865
31.9611 1515 38.923
32.0785 1590 39.8748
32.1959 1644 40.5463
32.3134 1665 40.8044
32.4308 1754 41.8808
32.5482 1813 42.5793
32.6655 1870 43.2435
32.7829 1900 43.589
32.9002 1882 43.382
33.0176 1855 43.0697
33.1349 1928 43.909
33.2522 1829 42.7668
33.3694 1759 41.9404
33.4867 1616 40.1995
33.6039 1612 40.1497
33.7211 1567 39.5854
33.8383 1453 38.1182
33.9554 1570 39.6232
34.0725 1606 40.0749
34.1896 1657 40.7063
34.3067 1743 41.7493
34.4237 1759 41.9404
34.5407 1772 42.0951
34.6577 1779 42.1782
34.7746 1740 41.7133
34.8915 1783 42.2256
35.0084 1777 42.1545
35.1252 1683 41.0244
35.242 1576 39.6989
35.3587 1593 39.9124
35.4755 1575 39.6863
35.5921 1463 38.2492
35.7088 1478 38.4448
35.8254 1441 37.9605
35.9419 1457 38.1707
36.0584 1612 40.1497
36.1749 1611 40.1373
36.2913 1596 39.95
36.4077 1669 40.8534
36.524 1556 39.4462
36.6403 1571 39.6358
36.7565 1582 39.7744
36.8727 1438 37.921
36.9889 1346 36.6879
37.1049 1160 34.0588
37.221 0 1
37.3369 0 1
37.4529 0 1
37.5687 0 1
37.6845 0 1
37.8003 0 1
37.916 0 1
38.0316 0 1
38.1472 0 1
40.5851 0 1
40.7008 0 1
40.8164 0 1
40.9322 0 1
41.048 0 1
41.1639 0 1
41.2798 0 1
41.3958 0 1
41.5118 0 1
41.6279 0 1
41.744 860 29.3258
41.8602 987 31.4166
41.9765 1057 32.5115
42.0928 1068 32.6803
42.2091 1098 33.1361
42.3255 1061 32.573
42.4419 1032 32.1248
42.5584 1045 32.3265
42.675 1069 32.6956
42.7915 1300 36.0555
42.9081 1297 36.0139
43.0248 1376 37.0945
43.1415 1407 37.51
43.2582 1447 38.0395
43.375 1420 37.6829
43.4918 1468 38.3145
43.6087 1512 38.8844
43.7256 1402 37.4433
43.8425 1405 37.4833
43.9595 1404 37.47
44.0765 1322 36.3593
44.1935 1331 36.4829
44.3106 1205 34.7131
44.4277 1247 35.3129
44.5448 1224 34.9857
44.6619 1266 35.5809
44.7791 1310 36.1939
44.8963 1333 36.5103
45.0136 1514 38.9102
45.1308 1460 38.2099
45.2481 1481 38.4838
45.3654 1513 38.8973
45.4827 1510 38.8587
45.6001 1520 38.9872
45.7174 1456 38.1576
45.8348 1313 36.2353
45.9522 1264 35.5528
46.0697 1184 34.4093
46.1871 1193 34.5398
46.3046 1207 34.7419
46.422 1361 36.8917
46.5395 1351 36.756
46.657 1380 37.1484
46.7745 1479 38.4578
46.892 1418 37.6563
47.0096 1524 39.0384
47.1271 1544 39.2938
47.2446 1485 38.5357
47.3622 1519 38.9744
47.4797 1461 38.223
47.5973 1438 37.921
47.7149 1392 37.3095
47.8324 1357 36.8375
47.95 1312 36.2215
48.0675 1252 35.3836
48.1851 1226 35.0143
48.3027 1326 36.4143
48.4202 1336 36.5513
48.5378 1460 38.2099
48.6554 1456 38.1576
48.7729 1624 40.2989
48.8904 1498 38.704
49.008 1531 39.128
49.1255 1497 38.6911
49.243 1445 38.0132
49.3605 1287 35.8748
49.478 1277 35.7351
49.5955 1150 33.9116
49.713 1110 33.3167
49.8304 1194 34.5543
49.9479 1238 35.1852
50.0653 1370 37.0135
50.1827 1408 37.5233
50.3001 1451 38.092
50.4175 1483 38.5097
50.5348 1477 38.4318
50.6521 1616 40.1995
50.7694 1548 39.3446
50.8867 1491 38.6135
51.004 1559 39.4842
51.1212 1459 38.1969
51.2384 1496 38.6782
51.3556 1434 37.8682
51.4727 1342 36.6333
51.5899 1356 36.8239
51.707 1319 36.318
51.824 1432 37.8418
51.9411 1596 39.95
52.0581 1677 40.9512
52.175 1779 42.1782
52.2919 1814 42.5911
52.4088 1764 42
52.5257 1905 43.6463
52.6425 1869 43.2319
52.7593 1905 43.6463
52.876 1847 42.9767
52.9927 1703 41.2674
53.1094 1680 40.9878
53.226 1616 40.1995
53.3426 1624 40.2989
53.4591 1564 39.5474
53.5756 1534 39.1663
53.692 1632 40.398
53.8084 1506 38.8072
53.9248 1504 38.7814
54.0411 1409 37.5366
54.1573 1388 37.2559
54.2735 0 1
54.3896 0 1
54.5057 0 1
54.6217 0 1
54.7377 0 1
54.8537 0 1
54.9695 0 1
55.0853 0 1
55.2011 0 1
55.3168 0 1
55.4324 0 1
57.824 0 1
57.9396 0 1
58.0553 0 1
58.1711 0 1
58.2869 0 1
58.4028 0 1
58.5187 0 1
58.6347 0 1
58.7508 0 1
58.8669 0 1
58.983 1181 34.3657
59.0992 1312 36.2215
59.2155 1457 38.1707
59.3318 1555 39.4335
59.4482 1585 39.8121
59.5646 1689 41.0974
59.681 1728 41.5692
59.7975 1683 41.0244
59.9141 1665 40.8044
60.0306 1668 40.8412
60.1473 1639 40.4846
60.2639 1532 39.1408
60.3807 1564 39.5474
60.4974 1640 40.4969
60.6142 1751 41.845
60.731 1830 42.7785
60.8479 1816 42.6146
60.9648 1888 43.4511
61.0818 1942 44.0681
61.1987 1874 43.2897
61.3158 1936 44
61.4328 1842 42.9185
61.5499 1646 40.5709
61.667 1514 38.9102
61.7841 1496 38.6782
61.9013 1412 37.5766
62.0185 1401 37.4299
62.1357 1475 38.4057
62.253 1560 39.4968
62.3702 1676 40.939
62.4875 1681 41
62.6049 1765 42.0119
62.7222 1787 42.2729
62.8396 1787 42.2729
62.9569 1882 43.382
63.0743 1877 43.3244
63.1918 1786 42.2611
63.3092 1754 41.8808
63.4267 1748 41.8091
63.5441 1706 41.3038
63.6616 1632 40.398
63.7791 1595 39.9375
63.8966 1485 38.5357
64.0142 1611 40.1373
64.1317 1577 39.7115
64.2492 1763 41.9881
64.3668 1754 41.8808
64.4843 1830 42.7785
64.6019 1793 42.3438
64.7195 1861 43.1393
64.837 1873 43.2782
64.9546 1888 43.4511
65.0722 1763 41.9881
65.1898 1630 40.3733
65.3074 1555 39.4335
65.4249 1379 37.1349
65.5425 1331 36.4829
65.6601 1395 37.3497
65.7777 1557 39.4588
65.8952 1589 39.8623
66.0128 1713 41.3884
66.1304 1719 41.4608
66.2479 1714 41.4005
66.3655 1747 41.7971
66.483 1766 42.0238
66.6005 1789 42.2966
66.718 1851 43.0232
66.8355 1738 41.6893
66.953 1787 42.2729
67.0705 1729 41.5812
67.1879 1739 41.7013
67.3054 1613 40.1622
67.4228 1547 39.3319
67.5402 1455 38.1445
67.6576 1483 38.5097
67.7749 1525 39.0512
67.8923 1686 41.0609
68.0096 1713 41.3884
68.1269 1793 42.3438
68.2442 1848 42.9884
68.3614 1703 41.2674
68.4787 1799 42.4146
68.5958 1833 42.8135
68.713 1673 40.9023
68.8302 1600 40
68.9473 1495 38.6652
69.0643 1345 36.6742
69.1814 1242 35.242
69.2984 1299 36.0416
69.4154 1486 38.5487
69.5323 1513 38.8973
69.6492 1584 39.7995
69.7661 1591 39.8873
69.8829 1750 41.833
69.9997 1655 40.6817
70.1165 1620 40.2492
70.2332 1608 40.0999
70.3499 1475 38.4057
70.4665 1399 37.4032
70.5831 1367 36.973
70.6996 1340 36.606
70.8161 1169 34.1906
70.9326 1189 34.4819
71.049 953 30.8707
71.1653 830 28.8097
71.2817 723 26.8887
71.3979 688 26.2298
71.5141 633 25.1595
71.6303 649 25.4755
71.7464 595 24.3926
71.8624 0 1
71.9784 0 1
72.0944 0 1
72.2102 0 1
72.3261 0 1
72.4418 0 1
72.5575 0 1
72.6732 0 1
75.1054 0 1
75.2209 0 1
75.3365 0 1
75.4521 0 1
75.5678 0 1
75.6835 0 1
75.7993 0 1
75.9151 0 1
76.031 0 1
76.147 1074 32.7719
76.263 1139 33.7491
76.3791 1110 33.3167
76.4952 1084 32.9242
76.6113 1212 34.8138
76.7276 1220 34.9285
76.8438 1305 36.1248
76.9601 1509 38.8458
77.0765 1513 38.8973
77.1929 1522 39.0128
77.3093 1571 39.6358
77.4258 1548 39.3446
77.5423 1567 39.5854
77.6589 1449 38.0657
77.7755 1305 36.1248
77.8921 1199 34.6266
78.0088 1171 34.2199
78.1256 1144 33.8231
78.2423 1072 32.7414
78.3591 1245 35.2846
78.4759 1245 35.2846
78.5928 1365 36.9459
78.7097 1455 38.1445
78.8266 1497 38.6911
78.9436 1509 38.8458
79.0606 1532 39.1408
79.1776 1519 38.9744
79.2946 1541 39.2556
79.4117 1550 39.37
79.5288 1617 40.2119
79.6459 1582 39.7744
79.7631 1405 37.4833
79.8802 1426 37.7624
79.9974 1368 36.9865
80.1147 1269 35.623
80.2319 1284 35.8329
80.3491 1318 36.3043
80.4664 1392 37.3095
80.5837 1507 38.8201
80.701 1460 38.2099
80.8183 1578 39.724
80.9357 1555 39.4335
81.053 1591 39.8873
81.1704 1579 39.7366
81.2877 1590 39.8748
81.4051 1542 39.2683
81.5225 1372 37.0405
81.6399 1275 35.7071
81.7573 1199 34.6266
81.8747 1113 33.3617
81.9922 1092 33.0454
82.1096 1237 35.171
82.227 1374 37.0675
82.3444 1513 38.8973
82.4619 1505 38.7943
82.5793 1586 39.8246
82.6967 1587 39.8372
82.8142 1581 39.7618
82.9316 1587 39.8372
83.049 1574 39.6737
83.1664 1608 40.0999
83.2838 1575 39.6863
83.4012 1518 38.9615
83.5186 1525 39.0512
83.636 1431 37.8286
83.7534 1318 36.3043
83.8708 1338 36.5787
83.9881 1234 35.1283
84.1055 1326 36.4143
84.2228 1432 37.8418
84.3401 1549 39.3573
84.4575 1627 40.3361
84.5747 1549 39.3573
84.692 1595 39.9375
84.8093 1655 40.6817
84.9265 1544 39.2938
85.0437 1465 38.2753
85.1609 1353 36.7831
85.2781 1147 33.8674
85.3952 1186 34.4384
85.5123 1110 33.3167
85.6294 1191 34.5109
85.7465 1303 36.0971
85.8636 1389 37.2693
85.9806 1383 37.1887
86.0976 1524 39.0384
86.2145 1527 39.0768
86.3315 1463 38.2492
86.4484 1636 40.4475
86.5652 1657 40.7063
86.682 1600 40
86.7988 1662 40.7676
86.9156 1642 40.5216
87.0323 1579 39.7366
87.149 1530 39.1152
87.2657 1398 37.3898
87.3823 1323 36.3731
87.4988 1128 33.5857
87.6154 1151 33.9264
87.7318 1143 33.8083
87.8483 1194 34.5543
87.9647 1295 35.9861
88.081 1236 35.1568
88.1973 1231 35.0856
88.3136 1224 34.9857
88.4298 1153 33.9559
88.546 1073 32.7567
88.6621 921 30.348
88.7781 726 26.9444
88.8942 0 1
89.0101 0 1
89.126 0 1
89.2419 0 1
89.3577 0 1
89.4734 0 1
89.5891 0 1
89.7047 0 1
89.8203 0 1
89.9358 0 1
92.3269 0 1
92.4424 0 1
92.558 0 1
92.6736 0 1
92.7893 0 1
92.905 0 1
93.0208 0 1
93.1366 0 1
93.2525 0 1
93.3685 0 1
93.4845 0 1
93.6005 1215 34.8569
93.7167 1283 35.819
93.8328 1403 37.4566
93.949 1410 37.55
94.0653 1428 37.7889
94.1816 1442 37.9737
94.2979 1305 36.1248
94.4143 1319 36.318
94.5307 1125 33.541
94.6472 1142 33.7935
94.7637 1188 34.4674
94.8803 1299 36.0416
94.9969 1385 37.2156
95.1135 1492 38.6264
95.2302 1528 39.0896
95.3469 1589 39.8623
95.4637 1627 40.3361
95.5805 1636 40.4475
95.6973 1603 40.0375
95.8142 1628 40.3485
95.9311 1741 41.7253
96.048 1672 40.8901
96.1649 1607 40.0874
96.2819 1661 40.7554
96.3989 1485 38.5357
96.516 1466 38.2884
96.633 1315 36.2629
96.7501 1321 36.3456
96.8673 1355 36.8103
96.9844 1414 37.6032
97.1016 1532 39.1408
97.2188 1591 39.8873
97.336 1690 41.1096
97.4532 1688 41.0853
97.5704 1739 41.7013
97.6877 1615 40.1871
97.805 1647 40.5832
97.9223 1451 38.092
98.0396 1339 36.5923
98.1569 1362 36.9053
98.2743 1249 35.3412
98.3916 1182 34.3802
98.509 1279 35.7631
98.6264 1400 37.4166
98.7438 1494 38.6523
98.8612 1603 40.0375
98.9786 1714 41.4005
99.096 1710 41.3521
99.2134 1781 42.2019
99.3308 1695 41.1704
99.4482 1691 41.1218
99.5656 1820 42.6615
99.6831 1752 41.8569
99.8005 1656 40.694
99.9179 1648 40.5956
100.035 1581 39.7618
100.153 1584 39.7995
100.27 1499 38.7169
100.388 1372 37.0405
100.505 1479 38.4578
100.622 1679 40.9756
100.74 1675 40.9268
100.857 1759 41.9404
100.975 1801 42.4382
101.092 1762 41.9762
101.209 1803 42.4617
101.327 1746 41.7852
101.444 1735 41.6533
101.561 1536 39.1918
101.679 1451 38.092
101.796 1259 35.4824
101.913 1258 35.4683
102.03 1256 35.4401
102.148 1461 38.223
102.265 1500 38.7298
102.382 1643 40.5339
102.499 1734 41.6413
102.616 1741 41.7253
102.733 1811 42.5558
102.851 1875 43.3013
102.968 1786 42.2611
103.085 1852 43.0349
103.202 1811 42.5558
103.319 1768 42.0476
103.436 1773 42.107
103.552 1627 40.3361
103.669 1650 40.6202
103.786 1556 39.4462
103.903 1554 39.4208
104.02 1557 39.4588
104.137 1636 40.4475
104.253 1777 42.1545
104.37 1954 44.2041
104.487 1900 43.589
104.603 1846 42.9651
104.72 1875 43.3013
104.836 1744 41.7612
104.953 1651 40.6325
105.069 1390 37.2827
105.186 1315 36.2629
105.302 1217 34.8855
105.418 1138 33.7343
105.535 1173 34.2491
105.651 1171 34.2199
105.767 1172 34.2345
105.883 1206 34.7275
105.999 1139 33.7491
106.115 0 1
106.231 0 1
106.347 0 1
106.463 0 1
106.579 0 1
106.694 0 1
106.81 0 1
106.926 0 1
107.041 0 1
107.157 0 1
109.576 0 1
109.692 0 1
109.807 0 1
109.923 0 1
110.039 0 1
110.155 0 1
110.27 0 1
110.386 0 1
110.502 0 1
110.618 808 28.4253
110.735 1015 31.8591
110.851 1167 34.1614
110.967 1349 36.7287
111.083 1432 37.8418
111.199 1558 39.4715
111.316 1640 40.4969
111.432 1687 41.0731
111.549 1647 40.5832
111.665 1711 41.3642
111.782 1768 42.0476
111.898 1648 40.5956
112.015 1707 41.3159
112.132 1586 39.8246
112.248 1520 38.9872
112.365 1415 37.6165
112.482 1445 38.0132
112.599 1545 39.3065
112.716 1629 40.3609
112.832 1733 41.6293
112.949 1716 41.4246
113.066 1785 42.2493
113.183 1769 42.0595
113.3 1723 41.509
113.417 1686 41.0609
113.534 1640 40.4969
113.652 1447 38.0395
113.769 1317 36.2905
113.886 1234 35.1283
114.003 1182 34.3802
114.12 1345 36.6742
114.238 1506 38.8072
114.355 1502 38.7556
114.472 1565 39.5601
114.589 1699 41.2189
114.707 1726 41.5452
114.824 1831 42.7902
114.942 1685 41.0488
115.059 1697 41.1947
115.176 1716 41.4246
115.294 1733 41.6293
115.411 1682 41.0122
115.529 1654 40.6694
115.646 1647 40.5832
115.764 1586 39.8246
115.881 1535 39.1791
115.999 1501 38.7427
116.116 1490 38.6005
116.234 1581 39.7618
116.351 1712 41.3763
116.469 1712 41.3763
116.586 1733 41.6293
116.704 1689 41.0974
116.821 1776 42.1426
116.939 1768 42.0476
117.056 1692 41.1339
117.174 1543 39.281
117.291 1421 37.6962
117.409 1327 36.428
117.526 1207 34.7419
117.644 1302 36.0832
117.761 1363 36.9188
117.879 1405 37.4833
117.996 1605 40.0625
118.114 1615 40.1871
118.231 1694 41.1582
118.349 1695 41.1704
118.466 1679 40.9756
118.584 1681 41
118.701 1688 41.0853
118.819 1717 41.4367
118.936 1717 41.4367
119.053 1598 39.975
119.171 1595 39.9375
119.288 1634 40.4228
119.405 1507 38.8201
119.523 1398 37.3898
119.64 1394 37.3363
119.757 1369 37
119.875 1541 39.2556
119.992 1630 40.3733
120.109 1649 40.6079
120.226 1715 41.4126
120.343 1590 39.8748
120.46 1598 39.975
120.578 1667 40.8289
120.695 1561 39.5095
120.812 1463 38.2492
120.929 1361 36.8917
121.046 1227 35.0286
121.163 1142 33.7935
121.279 1144 33.8231
121.396 1072 32.7414
121.513 1247 35.3129
121.63 1248 35.327
121.747 1260 35.4965
121.863 1296 36
121.98 1286 35.8608
122.097 1266 35.5809
122.213 1217 34.8855
122.33 1261 35.5106
122.446 1239 35.1994
122.563 1150 33.9116
122.679 1128 33.5857
122.795 1018 31.9061
122.912 908 30.133
123.028 833 28.8617
123.144 766 27.6767
123.26 691 26.2869
123.377 0 1
123.493 0 1
123.609 0 1
123.725 0 1
123.84 0 1
123.956 0 1
124.072 0 1
124.188 0 1
124.303 0 1
124.419 0 1
126.852 0 1
126.968 0 1
127.083 0 1
127.199 0 1
127.315 0 1
127.431 0 1
127.547 0 1
127.663 0 1
127.779 0 1
127.895 0 1
128.011 0 1
128.127 0 1
128.243 0 1
128.359 1515 38.923
128.476 1512 38.8844
128.592 1465 38.2753
128.708 1548 39.3446
128.825 1516 38.9358
128.941 1670 40.8656
129.058 1734 41.6413
129.174 1762 41.9762
129.291 1809 42.5323
129.408 1807 42.5088
129.524 1809 42.5323
129.641 1763 41.9881
129.758 1757 41.9166
129.875 1547 39.3319
129.992 1502 38.7556
130.108 1361 36.8917
130.225 1306 36.1386
130.342 1262 35.5246
130.459 1399 37.4032
130.576 1523 39.0256
130.693 1586 39.8246
130.81 1664 40.7922
130.928 1697 41.1947
131.045 1628 40.3485
131.162 1777 42.1545
131.279 1764 42
131.396 1791 42.3202
131.513 1762 41.9762
131.631 1784 42.2374
131.748 1724 41.5211
131.865 1651 40.6325
131.983 1598 39.975
132.1 1594 39.9249
132.217 1523 39.0256
132.335 1606 40.0749
132.452 1587 39.8372
132.57 1687 41.0731
132.687 1801 42.4382
132.804 1807 42.5088
132.922 1854 43.0581
133.039 1832 42.8019
133.157 1795 42.3674
133.274 1751 41.845
133.392 1674 40.9145
133.509 1591 39.8873
133.627 1458 38.1838
133.744 1358 36.8511
133.862 1330 36.4692
133.979 1368 36.9865
134.097 1430 37.8153
134.214 1600 40
134.332 1646 40.5709
134.449 1728 41.5692
134.567 1744 41.7612
134.684 1645 40.5586
134.802 1702 41.2553
134.919 1728 41.5692
135.037 1831 42.7902
135.154 1760 41.9524
135.272 1705 41.2916
135.389 1706 41.3038
135.507 1718 41.4488
135.624 1604 40.05
135.742 1616 40.1995
135.859 1582 39.7744
135.977 1578 39.724
136.094 1646 40.5709
136.211 1732 41.6173
136.329 1882 43.382
136.446 1847 42.9767
136.564 1785 42.2493
136.681 1834 42.8252
136.798 1878 43.3359
136.915 1791 42.3202
137.033 1682 41.0122
137.15 1606 40.0749
137.267 1508 38.833
137.384 1385 37.2156
137.502 1309 36.1801
137.619 1365 36.9459
137.736 1418 37.6563
137.853 1504 38.7814
137.97 1599 39.9875
138.087 1705 41.2916
138.204 1655 40.6817
138.321 1707 41.3159
138.438 1804 42.4735
138.555 1797 42.391
138.672 1750 41.833
138.788 1634 40.4228
138.905 1619 40.2368
139.022 1543 39.281
139.139 1416 37.6298
139.255 1402 37.4433
139.372 1299 36.0416
139.488 1181 34.3657
139.605 1210 34.7851
139.721 1275 35.7071
139.838 1210 34.7851
139.954 1133 33.6601
140.071 1146 33.8526
140.187 1028 32.0624
140.303 977 31.257
140.419 962 31.0161
140.535 892 29.8664
140.652 770 27.7489
140.768 0 1
140.884 0 1
141 0 1
141.115 0 1
141.231 0 1
141.347 0 1
141.463 0 1
141.578 0 1
141.694 0 1
144.104 0 1
144.219 0 1
144.335 0 1
144.45 0 1
144.566 0 1
144.682 0 1
144.798 0 1
144.914 0 1
145.03 0 1
145.146 1305 36.1248
145.262 1385 37.2156
145.378 1441 37.9605
145.494 1434 37.8682
145.61 1476 38.4187
145.726 1326 36.4143
145.842 1303 36.0971
145.959 1289 35.9026
146.075 1213 34.8281
146.192 1139 33.7491
146.308 1141 33.7787
146.425 1159 34.0441
146.541 1169 34.1906
146.658 1280 35.7771
146.774 1248 35.327
146.891 1288 35.8887
147.008 1375 37.081
147.125 1400 37.4166
147.241 1363 36.9188
147.358 1380 37.1484
147.475 1414 37.6032
147.592 1380 37.1484
147.709 1338 36.5787
147.826 1320 36.3318
147.943 1256 35.4401
148.06 1191 34.5109
148.177 1155 33.9853
148.294 1253 35.3977
148.411 1297 36.0139
148.528 1293 35.9583
148.645 1349 36.7287
148.762 1353 36.7831
148.88 1462 38.2361
148.997 1432 37.8418
149.114 1447 38.0395
149.231 1376 37.0945
149.349 1334 36.524
149.466 1317 36.2905
149.583 1269 35.623
149.701 1152 33.9411
149.818 1128 33.5857
149.935 1108 33.2866
150.053 1101 33.1813
150.17 1151 33.9264
150.287 1177 34.3074
150.405 1243 35.2562
150.522 1301 36.0694
150.64 1323 36.3731
150.757 1321 36.3456
150.875 1390 37.2827
150.992 1389 37.2693
151.11 1306 36.1386
151.227 1392 37.3095
151.344 1300 36.0555
151.462 1272 35.6651
151.579 1325 36.4005
151.697 1301 36.0694
151.814 1198 34.6121
151.932 1216 34.8712
152.049 1224 34.9857
152.167 1316 36.2767
152.284 1379 37.1349
152.402 1348 36.7151
152.519 1319 36.318
152.636 1325 36.4005
152.754 1291 35.9305
152.871 1362 36.9053
152.989 1311 36.2077
153.106 1270 35.6371
153.223 1247 35.3129
153.341 1100 33.1662
153.458 1105 33.2415
153.575 1053 32.45
153.693 1025 32.0156
153.81 1114 33.3766
153.927 1112 33.3467
154.044 1234 35.1283
154.162 1169 34.1906
154.279 1217 34.8855
154.396 1255 35.426
154.513 1339 36.5923
154.63 1224 34.9857
154.747 1337 36.565
154.864 1251 35.3695
154.981 1242 35.242
155.098 1209 34.7707
155.215 1201 34.6554
155.332 1160 34.0588
155.449 1060 32.5576
155.566 1175 34.2783
155.683 1138 33.7343
155.8 1118 33.4365
155.917 1187 34.4529
156.033 1137 33.7194
156.15 0 1
156.267 0 1
156.383 0 1
156.5 0 1
156.617 0 1
156.733 0 1
156.85 0 1
156.966 0 1
157.082 0 1
157.199 0 1
157.315 0 1
157.431 0 1
157.547 0 1
157.664 0 1
157.78 0 1
157.896 0 1
158.012 0 1
158.128 0 1
158.244 0 1
158.359 0 1
158.475 0 1
158.591 0 1
158.706 0 1
