
6.15755 0 1
6.2731 0 1
6.3887 0 1
6.50437 0 1
6.62009 0 1
6.73587 0 1
6.8517 0 1
6.96759 0 1
7.08353 0 1
7.19952 0 1
7.31557 0 1
7.43166 0 1
7.54781 0 1
7.664 0 1
7.78024 0 1
7.89653 0 1
8.01286 0 1
8.12924 0 1
8.24567 0 1
8.36213 0 1
8.47864 0 1
8.59519 0 1
8.71178 0 1
8.82841 0 1
8.94508 0 1
9.06179 0 1
9.17853 0 1
9.29531 0 1
9.41212 0 1
9.52897 0 1
9.64584 0 1
9.76276 0 1
9.8797 0 1
9.99667 0 1
10.1137 0 1
10.2307 0 1
10.3478 0 1
10.4648 0 1
10.5819 0 1
10.6991 0 1
10.8162 0 1
10.9334 0 1
11.0506 0 1
11.1678 0 1
11.285 0 1
11.4023 0 1
11.5196 0 1
11.6369 0 1
11.7542 0 1
11.8715 0 1
11.9888 0 1
12.1062 0 1
12.2235 0 1
12.3409 0 1
12.4582 0 1
12.5756 0 1
12.693 0 1
12.8104 0 1
12.9278 0 1
13.0452 0 1
13.1626 0 1
13.28 0 1
13.3974 0 1
13.5149 0 1
13.6323 0 1
13.7497 0 1
13.8671 0 1
13.9845 0 1
14.1019 0 1
14.2193 0 1
14.3367 0 1
14.4541 0 1
14.5714 0 1
14.6888 0 1
14.8062 0 1
14.9235 0 1
15.0408 0 0
15.1581 0 0
15.2755 0 0
15.3927 0 0
15.51 0 0
15.6273 0 0
15.7445 0 0
15.8617 0 0
15.9789 0 0
16.0961 0 0
16.2132 0 0
16.3304 0 0
16.4475 0 0
16.5646 0 0
16.6816 0 0
16.7986 0 0
16.9156 0 0
17.0326 0 0
17.1496 0 0
17.2665 0 0
17.3833 0 0
17.5002 0 0
17.617 0 0
17.7338 0 0
17.8505 0 0
17.9672 0 0
18.0839 0 0
18.2005 0 0
18.3171 0 0
18.4337 0 0
18.5502 0 0
18.6666 0 0
18.7831 0 0
18.8994 0 0
19.0158 0 0
19.1321 0 0
19.2483 0 0
19.3645 0 0
19.4806 0 0
19.5967 0 0
19.7128 0 0
19.8288 0 0
19.9447 0 0
20.0606 0 1
20.1764 0 1
20.2922 0 1
20.4079 0 1
20.5236 0 1
20.6392 0 1
20.7548 0 1
20.8702 0 1
23.3078 0 1
23.4233 0 1
23.539 0 1
23.6547 0 1
23.7704 0 1
23.8862 0 1
24.0021 0 1
24.118 0 1
24.234 0 1
24.35 0 1
24.4661 1598 39.975
24.5822 1551 39.3827
24.6984 1609 40.1123
24.8146 1523 39.0256
24.9309 1601 40.0125
25.0472 1521 39
25.1636 1509 38.8458
25.28 1620 40.2492
25.3965 1597 39.9625
25.513 1558 39.4715
25.6296 1656 40.694
25.7462 1666 40.8167
25.8628 1679 40.9756
25.9795 1592 39.8999
26.0962 1617 40.2119
26.213 1637 40.4599
26.3298 1561 39.5095
26.4466 1518 38.9615
26.5635 1424 37.7359
26.6804 1493 38.6394
26.7973 1427 37.7757
26.9143 1398 37.3898
27.0313 1557 39.4588
27.1483 1533 39.1535
27.2653 1586 39.8246
27.3824 1637 40.4599
27.4996 1644 40.5463
27.6167 1616 40.1995
27.7339 1610 40.1248
27.8511 1624 40.2989
27.9683 1656 40.694
28.0855 1633 40.4104
28.2028 1557 39.4588
28.3201 1614 40.1746
28.4374 1574 39.6737
28.5547 1564 39.5474
28.6721 1508 38.833
28.7894 1474 38.3927
28.9068 1465 38.2753
29.0242 1565 39.5601
29.1416 1464 38.2623
29.259 1537 39.2046
29.3764 1448 38.0526
29.4939 1524 39.0384
29.6113 1538 39.2173
29.7288 1562 39.5221
29.8463 1510 38.8587
29.9638 1491 38.6135
30.0812 1375 37.081
30.1987 1299 36.0416
30.3162 1325 36.4005
30.4337 1412 37.5766
30.5512 1361 36.8917
30.6687 1428 37.7889
30.7862 1461 38.223
30.9037 1529 39.1024
31.0212 1571 39.6358
31.1387 1631 40.3856
31.2562 1502 38.7556
31.3737 1505 38.7943
31.4912 1534 39.1663
31.6087 1532 39.1408
31.7262 1530 39.1152
31.8436 1486 38.5487
31.9611 1457 38.1707
32.0785 1468 38.3145
32.1959 1497 38.6911
32.3134 1406 37.4967
32.4308 1432 37.8418
32.5482 1511 38.8716
32.6655 1479 38.4578
32.7829 1486 38.5487
32.9002 1474 38.3927
33.0176 1492 38.6264
33.1349 1395 37.3497
33.2522 1464 38.2623
33.3694 1488 38.5746
33.4867 1570 39.6232
33.6039 1445 38.0132
33.7211 1377 37.108
33.8383 1362 36.9053
33.9554 1247 35.3129
34.0725 1196 34.5832
34.1896 1327 36.428
34.3067 1420 37.6829
34.4237 1388 37.2559
34.5407 1400 37.4166
34.6577 1510 38.8587
34.7746 1559 39.4842
34.8915 1526 39.064
35.0084 1517 38.9487
35.1252 1485 38.5357
35.242 1500 38.7298
35.3587 1516 38.9358
35.4755 1480 38.4708
35.5921 1563 39.5348
35.7088 1442 37.9737
35.8254 1421 37.6962
35.9419 1423 37.7227
36.0584 1405 37.4833
36.1749 1400 37.4166
36.2913 1313 36.2353
36.4077 1379 37.1349
36.524 1395 37.3497
36.6403 1352 36.7696
36.7565 1447 38.0395
36.8727 1482 38.4968
36.9889 1510 38.8587
37.1049 1479 38.4578
37.221 0 1
37.3369 0 1
37.4529 0 1
37.5687 0 1
37.6845 0 1
37.8003 0 1
37.916 0 1
38.0316 0 1
38.1472 0 1
40.5851 0 1
40.7008 0 1
40.8164 0 1
40.9322 0 1
41.048 0 1
41.1639 0 1
41.2798 0 1
41.3958 0 1
41.5118 0 1
41.6279 0 1
41.744 1068 32.6803
41.8602 1135 33.6898
41.9765 1151 33.9264
42.0928 1241 35.2278
42.2091 1165 34.1321
42.3255 1227 35.0286
42.4419 1106 33.2566
42.5584 1044 32.311
42.675 1013 31.8277
42.7915 905 30.0832
42.9081 958 30.9516
43.0248 1032 32.1248
43.1415 1087 32.9697
43.2582 1120 33.4664
43.375 1157 34.0147
43.4918 1168 34.176
43.6087 1148 33.8821
43.7256 1057 32.5115
43.8425 1093 33.0606
43.9595 1093 33.0606
44.0765 1086 32.9545
44.1935 1038 32.218
44.3106 1082 32.8938
44.4277 991 31.4802
44.5448 934 30.5614
44.6619 976 31.241
44.7791 947 30.7734
44.8963 872 29.5296
45.0136 867 29.4449
45.1308 872 29.5296
45.2481 893 29.8831
45.3654 877 29.6142
45.4827 900 30
45.6001 890 29.8329
45.7174 858 29.2916
45.8348 818 28.6007
45.9522 858 29.2916
46.0697 829 28.7924
46.1871 705 26.5518
46.3046 633 25.1595
46.422 693 26.3249
46.5395 707 26.5895
46.657 784 28
46.7745 813 28.5132
46.892 841 29
47.0096 833 28.8617
47.1271 854 29.2233
47.2446 843 29.0345
47.3622 796 28.2135
47.4797 765 27.6586
47.5973 801 28.3019
47.7149 763 27.6225
47.8324 734 27.0924
47.95 802 28.3196
48.0675 665 25.7876
48.1851 692 26.3059
48.3027 680 26.0768
48.4202 653 25.5539
48.5378 678 26.0384
48.6554 625 25
48.7729 670 25.8844
48.8904 683 26.1343
49.008 652 25.5343
49.1255 626 25.02
49.243 664 25.7682
49.3605 708 26.6083
49.478 670 25.8844
49.5955 612 24.7386
49.713 603 24.5561
49.8304 541 23.2594
49.9479 489 22.1133
50.0653 571 23.8956
50.1827 649 25.4755
50.3001 716 26.7582
50.4175 711 26.6646
50.5348 793 28.1603
50.6521 746 27.313
50.7694 757 27.5136
50.8867 851 29.1719
51.004 829 28.7924
51.1212 890 29.8329
51.2384 830 28.8097
51.3556 864 29.3939
51.4727 927 30.4467
51.5899 820 28.6356
51.707 861 29.3428
51.824 824 28.7054
51.9411 903 30.05
52.0581 885 29.7489
52.175 947 30.7734
52.2919 1007 31.7333
52.4088 1005 31.7017
52.5257 1014 31.8434
52.6425 1081 32.8786
52.7593 1062 32.5883
52.876 1079 32.8481
52.9927 1059 32.5423
53.1094 998 31.5911
53.226 1009 31.7648
53.3426 949 30.8058
53.4591 817 28.5832
53.5756 900 30
53.692 986 31.4006
53.8084 1061 32.573
53.9248 1228 35.0428
54.0411 1294 35.9722
54.1573 1230 35.0714
54.2735 0 1
54.3896 0 1
54.5057 0 1
54.6217 0 1
54.7377 0 1
54.8537 0 1
54.9695 0 1
55.0853 0 1
55.2011 0 1
55.3168 0 1
55.4324 0 1
57.824 0 1
57.9396 0 1
58.0553 0 1
58.1711 0 1
58.2869 0 1
58.4028 0 1
58.5187 0 1
58.6347 0 1
58.7508 0 1
58.8669 0 1
58.983 1238 35.1852
59.0992 1399 37.4032
59.2155 1412 37.5766
59.3318 1488 38.5746
59.4482 1527 39.0768
59.5646 1483 38.5097
59.681 1539 39.2301
59.7975 1495 38.6652
59.9141 1466 38.2884
60.0306 1496 38.6782
60.1473 1311 36.2077
60.2639 1358 36.8511
60.3807 1212 34.8138
60.4974 1245 35.2846
60.6142 1310 36.1939
60.731 1218 34.8999
60.8479 1242 35.242
60.9648 1215 34.8569
61.0818 1291 35.9305
61.1987 1320 36.3318
61.3158 1302 36.0832
61.4328 1243 35.2562
61.5499 1259 35.4824
61.667 1117 33.4215
61.7841 1057 32.5115
61.9013 985 31.3847
62.0185 1055 32.4808
62.1357 1063 32.6037
62.253 1154 33.9706
62.3702 1210 34.7851
62.4875 1335 36.5377
62.6049 1419 37.6696
62.7222 1408 37.5233
62.8396 1401 37.4299
62.9569 1453 38.1182
63.0743 1493 38.6394
63.1918 1489 38.5876
63.3092 1422 37.7094
63.4267 1490 38.6005
63.5441 1392 37.3095
63.6616 1335 36.5377
63.7791 1411 37.5633
63.8966 1284 35.8329
64.0142 1285 35.8469
64.1317 1342 36.6333
64.2492 1282 35.805
64.3668 1320 36.3318
64.4843 1295 35.9861
64.6019 1332 36.4966
64.7195 1341 36.6197
64.837 1303 36.0971
64.9546 1341 36.6197
65.0722 1317 36.2905
65.1898 1263 35.5387
65.3074 1107 33.2716
65.4249 1002 31.6544
65.5425 953 30.8707
65.6601 968 31.1127
65.7777 1080 32.8634
65.8952 1291 35.9305
66.0128 1386 37.229
66.1304 1378 37.1214
66.2479 1434 37.8682
66.3655 1457 38.1707
66.483 1520 38.9872
66.6005 1490 38.6005
66.718 1451 38.092
66.8355 1487 38.5616
66.953 1407 37.51
67.0705 1368 36.9865
67.1879 1266 35.5809
67.3054 1312 36.2215
67.4228 1200 34.641
67.5402 1188 34.4674
67.6576 1167 34.1614
67.7749 1157 34.0147
67.8923 1214 34.8425
68.0096 1214 34.8425
68.1269 1210 34.7851
68.2442 1269 35.623
68.3614 1237 35.171
68.4787 1289 35.9026
68.5958 1232 35.0999
68.713 1235 35.1426
68.8302 1163 34.1028
68.9473 1046 32.3419
69.0643 937 30.6105
69.1814 812 28.4956
69.2984 893 29.8831
69.4154 999 31.607
69.5323 1160 34.0588
69.6492 1260 35.4965
69.7661 1310 36.1939
69.8829 1412 37.5766
69.9997 1451 38.092
70.1165 1459 38.1969
70.2332 1470 38.3406
70.3499 1471 38.3536
70.4665 1386 37.229
70.5831 1477 38.4318
70.6996 1303 36.0971
70.8161 1328 36.4417
70.9326 1259 35.4824
71.049 1250 35.3553
71.1653 1122 33.4963
71.2817 1173 34.2491
71.3979 1081 32.8786
71.5141 1073 32.7567
71.6303 1060 32.5576
71.7464 1100 33.1662
71.8624 0 1
71.9784 0 1
72.0944 0 1
72.2102 0 1
72.3261 0 1
72.4418 0 1
72.5575 0 1
72.6732 0 1
75.1054 0 1
75.2209 0 1
75.3365 0 1
75.4521 0 1
75.5678 0 1
75.6835 0 1
75.7993 0 1
75.9151 0 1
76.031 0 1
76.147 1206 34.7275
76.263 1279 35.7631
76.3791 1215 34.8569
76.4952 1187 34.4529
76.6113 1205 34.7131
76.7276 1154 33.9706
76.8438 1118 33.4365
76.9601 1084 32.9242
77.0765 1212 34.8138
77.1929 1162 34.0881
77.3093 1293 35.9583
77.4258 1283 35.819
77.5423 1262 35.5246
77.6589 1196 34.5832
77.7755 1195 34.5688
77.8921 1020 31.9374
78.0088 934 30.5614
78.1256 835 28.8964
78.2423 790 28.1069
78.3591 941 30.6757
78.4759 1063 32.6037
78.5928 1230 35.0714
78.7097 1284 35.8329
78.8266 1296 36
78.9436 1445 38.0132
79.0606 1459 38.1969
79.1776 1404 37.47
79.2946 1375 37.081
79.4117 1365 36.9459
79.5288 1385 37.2156
79.6459 1372 37.0405
79.7631 1272 35.6651
79.8802 1173 34.2491
79.9974 1217 34.8855
80.1147 1052 32.4345
80.2319 1039 32.2335
80.3491 1006 31.7175
80.4664 1063 32.6037
80.5837 1003 31.6702
80.701 1102 33.1964
80.8183 1139 33.7491
80.9357 1114 33.3766
81.053 1160 34.0588
81.1704 1109 33.3017
81.2877 1089 33
81.4051 1102 33.1964
81.5225 922 30.3645
81.6399 851 29.1719
81.7573 781 27.9464
81.8747 693 26.3249
81.9922 754 27.4591
82.1096 895 29.9166
82.227 1044 32.311
82.3444 1100 33.1662
82.4619 1252 35.3836
82.5793 1229 35.0571
82.6967 1252 35.3836
82.8142 1224 34.9857
82.9316 1214 34.8425
83.049 1173 34.2491
83.1664 1181 34.3657
83.2838 1095 33.0908
83.4012 1084 32.9242
83.5186 975 31.225
83.636 999 31.607
83.7534 937 30.6105
83.8708 880 29.6648
83.9881 886 29.7658
84.1055 926 30.4302
84.2228 839 28.9655
84.3401 938 30.6268
84.4575 943 30.7083
84.5747 1034 32.1559
84.692 1037 32.2025
84.8093 1073 32.7567
84.9265 1042 32.28
85.0437 840 28.9828
85.1609 760 27.5681
85.2781 745 27.2947
85.3952 717 26.7769
85.5123 725 26.9258
85.6294 844 29.0517
85.7465 1026 32.0312
85.8636 1052 32.4345
85.9806 1157 34.0147
86.0976 1270 35.6371
86.2145 1296 36
86.3315 1378 37.1214
86.4484 1335 36.5377
86.5652 1364 36.9324
86.682 1365 36.9459
86.7988 1255 35.426
86.9156 1241 35.2278
87.0323 1119 33.4515
87.149 1121 33.4813
87.2657 1171 34.2199
87.3823 1098 33.1361
87.4988 1082 32.8938
87.6154 1057 32.5115
87.7318 1051 32.4191
87.8483 1137 33.7194
87.9647 1222 34.9571
88.081 1205 34.7131
88.1973 1299 36.0416
88.3136 1279 35.7631
88.4298 1347 36.7015
88.546 1173 34.2491
88.6621 1075 32.7872
88.7781 955 30.9031
88.8942 0 1
89.0101 0 1
89.126 0 1
89.2419 0 1
89.3577 0 1
89.4734 0 1
89.5891 0 1
89.7047 0 1
89.8203 0 1
89.9358 0 1
92.3269 0 1
92.4424 0 1
92.558 0 1
92.6736 0 1
92.7893 0 1
92.905 0 1
93.0208 0 1
93.1366 0 1
93.2525 0 1
93.3685 0 1
93.4845 0 1
93.6005 1205 34.7131
93.7167 1303 36.0971
93.8328 1301 36.0694
93.949 1245 35.2846
94.0653 1135 33.6898
94.1816 1054 32.4654
94.2979 934 30.5614
94.4143 891 29.8496
94.5307 911 30.1828
94.6472 971 31.1609
94.7637 1058 32.5269
94.8803 1219 34.9142
94.9969 1299 36.0416
95.1135 1332 36.4966
95.2302 1399 37.4032
95.3469 1383 37.1887
95.4637 1500 38.7298
95.5805 1525 39.0512
95.6973 1538 39.2173
95.8142 1503 38.7685
95.9311 1430 37.8153
96.048 1444 38
96.1649 1340 36.606
96.2819 1300 36.0555
96.3989 1258 35.4683
96.516 1192 34.5254
96.633 1125 33.541
96.7501 1126 33.5559
96.8673 1128 33.5857
96.9844 1190 34.4964
97.1016 1239 35.1994
97.2188 1341 36.6197
97.336 1382 37.1753
97.4532 1293 35.9583
97.5704 1384 37.2022
97.6877 1178 34.322
97.805 1075 32.7872
97.9223 1005 31.7017
98.0396 964 31.0483
98.1569 875 29.5804
98.2743 922 30.3645
98.3916 1007 31.7333
98.509 1086 32.9545
98.6264 1217 34.8855
98.7438 1299 36.0416
98.8612 1432 37.8418
98.9786 1467 38.3014
99.096 1499 38.7169
99.2134 1501 38.7427
99.3308 1535 39.1791
99.4482 1495 38.6652
99.5656 1458 38.1838
99.6831 1419 37.6696
99.8005 1367 36.973
99.9179 1315 36.2629
100.035 1251 35.3695
100.153 1171 34.2199
100.27 1117 33.4215
100.388 1159 34.0441
100.505 1250 35.3553
100.622 1223 34.9714
100.74 1293 35.9583
100.857 1332 36.4966
100.975 1382 37.1753
101.092 1297 36.0139
101.209 1276 35.7211
101.327 1242 35.242
101.444 1043 32.2955
101.561 983 31.3528
101.679 968 31.1127
101.796 924 30.3974
101.913 949 30.8058
102.03 1084 32.9242
102.148 1257 35.4542
102.265 1333 36.5103
102.382 1516 38.9358
102.499 1504 38.7814
102.616 1670 40.8656
102.733 1637 40.4599
102.851 1509 38.8458
102.968 1633 40.4104
103.085 1521 39
103.202 1553 39.4081
103.319 1547 39.3319
103.436 1427 37.7757
103.552 1349 36.7287
103.669 1181 34.3657
103.786 1270 35.6371
103.903 1176 34.2929
104.02 1327 36.428
104.137 1328 36.4417
104.253 1440 37.9473
104.37 1379 37.1349
104.487 1448 38.0526
104.603 1450 38.0789
104.72 1457 38.1707
104.836 1265 35.5668
104.953 1201 34.6554
105.069 1091 33.0303
105.186 1061 32.573
105.302 1109 33.3017
105.418 1093 33.0606
105.535 1366 36.9594
105.651 1544 39.2938
105.767 1547 39.3319
105.883 1691 41.1218
105.999 1734 41.6413
106.115 0 1
106.231 0 1
106.347 0 1
106.463 0 1
106.579 0 1
106.694 0 1
106.81 0 1
106.926 0 1
107.041 0 1
107.157 0 1
109.576 0 1
109.692 0 1
109.807 0 1
109.923 0 1
110.039 0 1
110.155 0 1
110.27 0 1
110.386 0 1
110.502 0 1
110.618 1233 35.1141
110.735 1431 37.8286
110.851 1549 39.3573
110.967 1611 40.1373
111.083 1667 40.8289
111.199 1681 41
111.316 1684 41.0366
111.432 1665 40.8044
111.549 1676 40.939
111.665 1622 40.2741
111.782 1588 39.8497
111.898 1483 38.5097
112.015 1441 37.9605
112.132 1325 36.4005
112.248 1319 36.318
112.365 1279 35.7631
112.482 1246 35.2987
112.599 1320 36.3318
112.716 1354 36.7967
112.832 1305 36.1248
112.949 1328 36.4417
113.066 1341 36.6197
113.183 1342 36.6333
113.3 1297 36.0139
113.417 1238 35.1852
113.534 1110 33.3167
113.652 1070 32.7109
113.769 1007 31.7333
113.886 1105 33.2415
114.003 1053 32.45
114.12 1180 34.3511
114.238 1344 36.6606
114.355 1461 38.223
114.472 1533 39.1535
114.589 1526 39.064
114.707 1533 39.1535
114.824 1641 40.5093
114.942 1627 40.3361
115.059 1616 40.1995
115.176 1547 39.3319
115.294 1573 39.6611
115.411 1487 38.5616
115.529 1482 38.4968
115.646 1353 36.7831
115.764 1325 36.4005
115.881 1240 35.2136
115.999 1287 35.8748
116.116 1299 36.0416
116.234 1373 37.054
116.351 1364 36.9324
116.469 1448 38.0526
116.586 1442 37.9737
116.704 1458 38.1838
116.821 1456 38.1576
116.939 1349 36.7287
117.056 1214 34.8425
117.174 1168 34.176
117.291 1114 33.3766
117.409 1116 33.4066
117.526 1112 33.3467
117.644 1251 35.3695
117.761 1352 36.7696
117.879 1597 39.9625
117.996 1505 38.7943
118.114 1577 39.7115
118.231 1686 41.0609
118.349 1700 41.2311
118.466 1676 40.939
118.584 1667 40.8289
118.701 1701 41.2432
118.819 1612 40.1497
118.936 1626 40.3237
119.053 1546 39.3192
119.171 1484 38.5227
119.288 1434 37.8682
119.405 1306 36.1386
119.523 1301 36.0694
119.64 1270 35.6371
119.757 1297 36.0139
119.875 1377 37.108
119.992 1483 38.5097
120.109 1346 36.6879
120.226 1424 37.7359
120.343 1421 37.6962
120.46 1307 36.1525
120.578 1313 36.2353
120.695 1369 37
120.812 1228 35.0428
120.929 1156 34
121.046 1141 33.7787
121.163 1075 32.7872
121.279 1246 35.2987
121.396 1295 35.9861
121.513 1473 38.3797
121.63 1545 39.3065
121.747 1589 39.8623
121.863 1627 40.3361
121.98 1614 40.1746
122.097 1653 40.6571
122.213 1635 40.4351
122.33 1586 39.8246
122.446 1684 41.0366
122.563 1567 39.5854
122.679 1525 39.0512
122.795 1519 38.9744
122.912 1389 37.2693
123.028 1494 38.6523
123.144 1370 37.0135
123.26 1236 35.1568
123.377 0 1
123.493 0 1
123.609 0 1
123.725 0 1
123.84 0 1
123.956 0 1
124.072 0 1
124.188 0 1
124.303 0 1
124.419 0 1
126.852 0 1
126.968 0 1
127.083 0 1
127.199 0 1
127.315 0 1
127.431 0 1
127.547 0 1
127.663 0 1
127.779 0 1
127.895 0 1
128.011 0 1
128.127 0 1
128.243 0 1
128.359 1516 38.9358
128.476 1413 37.5899
128.592 1456 38.1576
128.708 1489 38.5876
128.825 1516 38.9358
128.941 1592 39.8999
129.058 1600 40
129.174 1571 39.6358
129.291 1582 39.7744
129.408 1590 39.8748
129.524 1512 38.8844
129.641 1487 38.5616
129.758 1380 37.1484
129.875 1333 36.5103
129.992 1286 35.8608
130.108 1286 35.8608
130.225 1263 35.5387
130.342 1490 38.6005
130.459 1518 38.9615
130.576 1611 40.1373
130.693 1642 40.5216
130.81 1659 40.7308
130.928 1781 42.2019
131.045 1652 40.6448
131.162 1731 41.6053
131.279 1776 42.1426
131.396 1738 41.6893
131.513 1706 41.3038
131.631 1675 40.9268
131.748 1648 40.5956
131.865 1527 39.0768
131.983 1461 38.223
132.1 1482 38.4968
132.217 1468 38.3145
132.335 1601 40.0125
132.452 1695 41.1704
132.57 1584 39.7995
132.687 1648 40.5956
132.804 1638 40.4722
132.922 1645 40.5586
133.039 1560 39.4968
133.157 1579 39.7366
133.274 1415 37.6165
133.392 1397 37.3765
133.509 1337 36.565
133.627 1319 36.318
133.744 1359 36.8646
133.862 1405 37.4833
133.979 1464 38.2623
134.097 1641 40.5093
134.214 1649 40.6079
134.332 1661 40.7554
134.449 1700 41.2311
134.567 1709 41.3401
134.684 1726 41.5452
134.802 1769 42.0595
134.919 1705 41.2916
135.037 1786 42.2611
135.154 1703 41.2674
135.272 1671 40.8779
135.389 1661 40.7554
135.507 1525 39.0512
135.624 1435 37.8814
135.742 1516 38.9358
135.859 1559 39.4842
135.977 1617 40.2119
136.094 1565 39.5601
136.211 1604 40.05
136.329 1608 40.0999
136.446 1594 39.9249
136.564 1587 39.8372
136.681 1577 39.7115
136.798 1541 39.2556
136.915 1511 38.8716
137.033 1364 36.9324
137.15 1398 37.3898
137.267 1286 35.8608
137.384 1379 37.1349
137.502 1372 37.0405
137.619 1459 38.1969
137.736 1529 39.1024
137.853 1579 39.7366
137.97 1585 39.8121
138.087 1648 40.5956
138.204 1700 41.2311
138.321 1710 41.3521
138.438 1775 42.1307
138.555 1796 42.3792
138.672 1617 40.2119
138.788 1705 41.2916
138.905 1773 42.107
139.022 1574 39.6737
139.139 1572 39.6485
139.255 1489 38.5876
139.372 1477 38.4318
139.488 1473 38.3797
139.605 1631 40.3856
139.721 1628 40.3485
139.838 1603 40.0375
139.954 1648 40.5956
140.071 1585 39.8121
140.187 1566 39.5727
140.303 1521 39
140.419 1462 38.2361
140.535 1442 37.9737
140.652 1370 37.0135
140.768 0 1
140.884 0 1
141 0 1
141.115 0 1
141.231 0 1
141.347 0 1
141.463 0 1
141.578 0 1
141.694 0 1
144.104 0 1
144.219 0 1
144.335 0 1
144.45 0 1
144.566 0 1
144.682 0 1
144.798 0 1
144.914 0 1
145.03 0 1
145.146 1166 34.1467
145.262 1188 34.4674
145.378 1245 35.2846
145.494 1256 35.4401
145.61 1192 34.5254
145.726 1204 34.6987
145.842 1173 34.2491
145.959 1200 34.641
146.075 1147 33.8674
146.192 1099 33.1512
146.308 1099 33.1512
146.425 1086 32.9545
146.541 1133 33.6601
146.658 1292 35.9444
146.774 1258 35.4683
146.891 1302 36.0832
147.008 1287 35.8748
147.125 1354 36.7967
147.241 1289 35.9026
147.358 1344 36.6606
147.475 1367 36.973
147.592 1301 36.0694
147.709 1414 37.6032
147.826 1325 36.4005
147.943 1217 34.8855
148.06 1224 34.9857
148.177 1149 33.8969
148.294 1196 34.5832
148.411 1203 34.6843
148.528 1239 35.1994
148.645 1279 35.7631
148.762 1274 35.6931
148.88 1274 35.6931
148.997 1195 34.5688
149.114 1280 35.7771
149.231 1297 36.0139
149.349 1310 36.1939
149.466 1256 35.4401
149.583 1241 35.2278
149.701 1188 34.4674
149.818 1189 34.4819
149.935 1127 33.5708
150.053 1114 33.3766
150.17 1162 34.0881
150.287 1172 34.2345
150.405 1233 35.1141
150.522 1281 35.7911
150.64 1249 35.3412
150.757 1333 36.5103
150.875 1340 36.606
150.992 1391 37.2961
151.11 1358 36.8511
151.227 1346 36.6879
151.344 1461 38.223
151.462 1336 36.5513
151.579 1398 37.3898
151.697 1296 36
151.814 1247 35.3129
151.932 1283 35.819
152.049 1196 34.5832
152.167 1328 36.4417
152.284 1322 36.3593
152.402 1333 36.5103
152.519 1376 37.0945
152.636 1365 36.9459
152.754 1404 37.47
152.871 1312 36.2215
152.989 1329 36.4555
153.106 1345 36.6742
153.223 1330 36.4692
153.341 1300 36.0555
153.458 1308 36.1663
153.575 1203 34.6843
153.693 1244 35.2704
153.81 1194 34.5543
153.927 1244 35.2704
154.044 1288 35.8887
154.162 1357 36.8375
154.279 1431 37.8286
154.396 1469 38.3275
154.513 1504 38.7814
154.63 1539 39.2301
154.747 1456 38.1576
154.864 1510 38.8587
154.981 1506 38.8072
155.098 1487 38.5616
155.215 1499 38.7169
155.332 1388 37.2559
155.449 1345 36.6742
155.566 1363 36.9188
155.683 1324 36.3868
155.8 1503 38.7685
155.917 1458 38.1838
156.033 1460 38.2099
156.15 0 1
156.267 0 1
156.383 0 1
156.5 0 1
156.617 0 1
156.733 0 1
156.85 0 1
156.966 0 1
157.082 0 1
157.199 0 1
157.315 0 1
157.431 0 1
157.547 0 1
157.664 0 1
157.78 0 1
157.896 0 1
158.012 0 1
158.128 0 1
158.244 0 1
158.359 0 1
158.475 0 1
158.591 0 1
158.706 0 1
