
6.15755 0 1
6.2731 0 1
6.3887 0 1
6.50437 0 1
6.62009 0 1
6.73587 0 1
6.8517 0 1
6.96759 0 1
7.08353 0 1
7.19952 0 1
7.31557 0 1
7.43166 0 1
7.54781 0 1
7.664 0 1
7.78024 0 1
7.89653 0 1
8.01286 0 1
8.12924 0 1
8.24567 0 1
8.36213 0 1
8.47864 0 1
8.59519 0 1
8.71178 0 1
8.82841 0 1
8.94508 0 1
9.06179 0 1
9.17853 0 1
9.29531 0 1
9.41212 0 1
9.52897 0 1
9.64584 0 1
9.76276 0 1
9.8797 0 1
9.99667 0 1
10.1137 0 1
10.2307 0 1
10.3478 0 1
10.4648 0 1
10.5819 0 1
10.6991 0 1
10.8162 0 1
10.9334 0 1
11.0506 0 1
11.1678 0 1
11.285 0 1
11.4023 0 1
11.5196 0 1
11.6369 0 1
11.7542 0 1
11.8715 0 1
11.9888 0 1
12.1062 0 1
12.2235 0 1
12.3409 0 1
12.4582 0 1
12.5756 0 1
12.693 0 1
12.8104 0 1
12.9278 0 1
13.0452 0 1
13.1626 0 1
13.28 0 1
13.3974 0 1
13.5149 0 1
13.6323 0 1
13.7497 0 1
13.8671 0 1
13.9845 0 1
14.1019 0 1
14.2193 0 1
14.3367 0 1
14.4541 0 1
14.5714 0 1
14.6888 0 1
14.8062 0 1
14.9235 0 1
15.0408 60538 246.045
15.1581 64049 253.079
15.2755 67544 259.892
15.3927 69177 263.015
15.51 69309 263.266
15.6273 69455 263.543
15.7445 70842 266.162
15.8617 71036 266.526
15.9789 71646 267.668
16.0961 70039 264.649
16.2132 69785 264.169
16.3304 69224 263.105
16.4475 68769 262.238
16.5646 68324 261.389
16.6816 67875 260.528
16.7986 67493 259.794
16.9156 67096 259.029
17.0326 66452 257.783
17.1496 66014 256.932
17.2665 65766 256.449
17.3833 66031 256.965
17.5002 65893 256.696
17.617 66331 257.548
17.7338 66490 257.857
17.8505 66990 258.824
17.9672 67308 259.438
18.0839 68009 260.785
18.2005 65773 256.462
18.3171 62434 249.868
18.4337 59741 244.42
18.5502 58435 241.733
18.6666 60387 245.738
18.7831 63666 252.321
18.8994 65032 255.014
19.0158 64658 254.279
19.1321 65356 255.648
19.2483 66210 257.313
19.3645 65465 255.861
19.4806 65096 255.139
19.5967 63397 251.788
19.7128 59497 243.92
19.8288 52314 228.723
19.9447 42687 206.608
20.0606 0 1
20.1764 0 1
20.2922 0 1
20.4079 0 1
20.5236 0 1
20.6392 0 1
20.7548 0 1
20.8702 0 1
23.3078 0 1
23.4233 0 1
23.539 0 1
23.6547 0 1
23.7704 0 1
23.8862 0 1
24.0021 0 1
24.118 0 1
24.234 0 1
24.35 0 1
24.4661 23038 151.783
24.5822 26108 161.58
24.6984 29371 171.38
24.8146 34286 185.165
24.9309 42015 204.976
25.0472 52238 228.556
25.1636 61552 248.097
25.28 66790 258.438
25.3965 68897 262.482
25.513 69352 263.348
25.6296 69991 264.558
25.7462 69917 264.418
25.8628 69432 263.5
25.9795 69814 264.223
26.0962 69724 264.053
26.213 70012 264.598
26.3298 68294 261.331
26.4466 68386 261.507
26.5635 68544 261.809
26.6804 68561 261.842
26.7973 68205 261.161
26.9143 66637 258.141
27.0313 63609 252.208
27.1483 59900 244.745
27.2653 57581 239.96
27.3824 56749 238.22
27.4996 59055 243.012
27.6167 60740 246.455
27.7339 62467 249.934
27.8511 64413 253.797
27.9683 65016 254.982
28.0855 65303 255.545
28.2028 64710 254.382
28.3201 64606 254.177
28.4374 64278 253.531
28.5547 64720 254.401
28.6721 64100 253.18
28.7894 63970 252.923
28.9068 64534 254.035
29.0242 63542 252.075
29.1416 63559 252.109
29.259 62813 250.625
29.3764 62934 250.866
29.4939 62828 250.655
29.6113 62719 250.438
29.7288 61942 248.881
29.8463 62409 249.818
29.9638 62187 249.373
30.0812 61771 248.538
30.1987 61800 248.596
30.3162 61499 247.99
30.4337 61027 247.036
30.5512 58516 241.901
30.6687 54179 232.764
30.7862 50096 223.821
30.9037 49394 222.248
31.0212 51197 226.268
31.1387 55337 235.238
31.2562 57151 239.063
31.3737 58404 241.669
31.4912 58834 242.557
31.6087 58723 242.328
31.7262 57939 240.705
31.8436 57672 240.15
31.9611 56909 238.556
32.0785 57029 238.807
32.1959 56860 238.453
32.3134 56656 238.025
32.4308 56503 237.704
32.5482 55950 236.538
32.6655 55881 236.392
32.7829 54972 234.461
32.9002 55329 235.221
33.0176 54814 234.124
33.1349 54819 234.135
33.2522 54677 233.831
33.3694 53695 231.722
33.4867 53747 231.834
33.6039 53568 231.448
33.7211 53261 230.783
33.8383 53044 230.313
33.9554 52836 229.861
34.0725 52275 228.637
34.1896 50669 225.098
34.3067 47088 216.998
34.4237 43952 209.647
34.5407 41311 203.251
34.6577 41620 204.01
34.7746 43632 208.883
34.8915 46337 215.26
35.0084 47966 219.011
35.1252 49108 221.603
35.242 48631 220.524
35.3587 48689 220.656
35.4755 47177 217.203
35.5921 47212 217.283
35.7088 46506 215.652
35.8254 46555 215.766
35.9419 46163 214.856
36.0584 46079 214.66
36.1749 45685 213.74
36.2913 44906 211.91
36.4077 44430 210.784
36.524 43565 208.722
36.6403 40937 202.329
36.7565 36247 190.386
36.8727 31051 176.213
36.9889 27592 166.108
37.1049 25289 159.025
37.221 0 1
37.3369 0 1
37.4529 0 1
37.5687 0 1
37.6845 0 1
37.8003 0 1
37.916 0 1
38.0316 0 1
38.1472 0 1
40.5851 0 1
40.7008 0 1
40.8164 0 1
40.9322 0 1
41.048 0 1
41.1639 0 1
41.2798 0 1
41.3958 0 1
41.5118 0 1
41.6279 0 1
41.744 15753 125.511
41.8602 19375 139.194
41.9765 25875 160.857
42.0928 33829 183.927
42.2091 38474 196.148
42.3255 40007 200.017
42.4419 40372 200.928
42.5584 41685 204.169
42.675 42461 206.061
42.7915 42153 205.312
42.9081 43208 207.865
43.0248 43178 207.793
43.1415 41728 204.274
43.2582 39118 197.783
43.375 38574 196.403
43.4918 40669 201.666
43.6087 42628 206.465
43.7256 44527 211.014
43.8425 46598 215.866
43.9595 47179 217.207
44.0765 47618 218.215
44.1935 47884 218.824
44.3106 47640 218.266
44.4277 47862 218.774
44.5448 47692 218.385
44.6619 47450 217.83
44.7791 47899 218.858
44.8963 48506 220.241
45.0136 49416 222.297
45.1308 49248 221.919
45.2481 49076 221.531
45.3654 49685 222.901
45.4827 49642 222.805
45.6001 49867 223.309
45.7174 49934 223.459
45.8348 50086 223.799
45.9522 50279 224.23
46.0697 50551 224.835
46.1871 50650 225.056
46.3046 51271 226.431
46.422 51786 227.565
46.5395 51922 227.864
46.657 51410 226.738
46.7745 48742 220.776
46.892 45998 214.471
47.0096 47165 217.175
47.1271 49756 223.061
47.2446 51466 226.861
47.3622 52562 229.264
47.4797 54565 233.592
47.5973 54969 234.455
47.7149 54902 234.312
47.8324 54461 233.369
47.95 54524 233.504
48.0675 55082 234.696
48.1851 53991 232.36
48.3027 54280 232.981
48.4202 54493 233.437
48.5378 55000 234.521
48.6554 54416 233.272
48.7729 55190 234.926
48.8904 55027 234.578
49.008 55195 234.936
49.1255 55626 235.852
49.243 54458 233.362
49.3605 55002 234.525
49.478 55249 235.051
49.5955 55174 234.891
49.713 55754 236.123
49.8304 55706 236.021
49.9479 56155 236.97
50.0653 55442 235.461
50.1827 53091 230.415
50.3001 49717 222.973
50.4175 46335 215.256
50.5348 46800 216.333
50.6521 48765 220.828
50.7694 51697 227.37
50.8867 53842 232.039
51.004 56907 238.552
51.1212 58586 242.045
51.2384 58643 242.163
51.3556 59285 243.485
51.4727 58207 241.261
51.5899 57581 239.96
51.707 57846 240.512
51.824 57899 240.622
51.9411 58382 241.624
52.0581 58000 240.832
52.175 57951 240.73
52.2919 58130 241.102
52.4088 58114 241.068
52.5257 58202 241.251
52.6425 58209 241.265
52.7593 58465 241.795
52.876 57494 239.779
52.9927 58081 241
53.1094 58092 241.023
53.226 58125 241.091
53.3426 58581 242.035
53.4591 58951 242.798
53.5756 57930 240.687
53.692 54554 233.568
53.8084 48499 220.225
53.9248 40077 200.192
54.0411 32585 180.513
54.1573 28754 169.57
54.2735 0 1
54.3896 0 1
54.5057 0 1
54.6217 0 1
54.7377 0 1
54.8537 0 1
54.9695 0 1
55.0853 0 1
55.2011 0 1
55.3168 0 1
55.4324 0 1
57.824 0 1
57.9396 0 1
58.0553 0 1
58.1711 0 1
58.2869 0 1
58.4028 0 1
58.5187 0 1
58.6347 0 1
58.7508 0 1
58.8669 0 1
58.983 35858 189.362
59.0992 40270 200.674
59.2155 43983 209.721
59.3318 49655 222.834
59.4482 56473 237.64
59.5646 63251 251.498
59.681 69138 262.941
59.7975 72028 268.38
59.9141 74969 273.805
60.0306 76508 276.601
60.1473 77429 278.261
60.2639 77356 278.129
60.3807 77223 277.89
60.4974 77167 277.789
60.6142 76735 277.011
60.731 76642 276.843
60.8479 76682 276.915
60.9648 76436 276.471
61.0818 76798 277.125
61.1987 75717 275.167
61.3158 76857 277.231
61.4328 75122 274.084
61.5499 75490 274.754
61.667 75526 274.82
61.7841 75720 275.173
61.9013 75205 274.235
62.0185 75322 274.449
62.1357 75505 274.782
62.253 74658 273.236
62.3702 73641 271.369
62.4875 71803 267.961
62.6049 70707 265.908
62.7222 70955 266.374
62.8396 72946 270.085
62.9569 74868 273.62
63.0743 74519 272.982
63.1918 74390 272.745
63.3092 74646 273.214
63.4267 75780 275.282
63.5441 78200 279.643
63.6616 78352 279.914
63.7791 78281 279.787
63.8966 78041 279.358
64.0142 77300 278.029
64.1317 77617 278.598
64.2492 76822 277.168
64.3668 77064 277.604
64.4843 76865 277.245
64.6019 76643 276.845
64.7195 76824 277.171
64.837 75930 275.554
64.9546 76079 275.824
65.0722 75787 275.294
65.1898 76047 275.766
65.3074 75191 274.21
65.4249 75971 275.628
65.5425 75803 275.323
65.6601 75471 274.72
65.7777 74301 272.582
65.8952 73572 271.242
66.0128 71639 267.655
66.1304 70879 266.231
66.2479 69650 263.913
66.3655 72166 268.637
66.483 73763 271.593
66.6005 75327 274.458
66.718 74864 273.613
66.8355 73124 270.414
66.953 72692 269.615
67.0705 74111 272.233
67.1879 76293 276.212
67.3054 77329 278.081
67.4228 76699 276.946
67.5402 76381 276.371
67.6576 76078 275.822
67.7749 75453 274.687
67.8923 74683 273.282
68.0096 75143 274.122
68.1269 76105 275.871
68.2442 75992 275.666
68.3614 76414 276.431
68.4787 75380 274.554
68.5958 74881 273.644
68.713 74659 273.238
68.8302 74998 273.858
68.9473 74241 272.472
69.0643 74356 272.683
69.1814 74532 273.005
69.2984 74228 272.448
69.4154 73114 270.396
69.5323 71513 267.419
69.6492 70244 265.036
69.7661 70045 264.66
69.8829 70009 264.592
69.9997 70621 265.746
70.1165 72890 269.981
70.2332 73666 271.415
70.3499 71309 267.037
70.4665 66541 257.955
70.5831 61320 247.629
70.6996 55282 235.121
70.8161 52023 228.086
70.9326 48710 220.703
71.049 43962 209.671
71.1653 40065 200.162
71.2817 37134 192.702
71.3979 34218 184.981
71.5141 31555 177.637
71.6303 29681 172.282
71.7464 25968 161.146
71.8624 0 1
71.9784 0 1
72.0944 0 1
72.2102 0 1
72.3261 0 1
72.4418 0 1
72.5575 0 1
72.6732 0 1
75.1054 0 1
75.2209 0 1
75.3365 0 1
75.4521 0 1
75.5678 0 1
75.6835 0 1
75.7993 0 1
75.9151 0 1
76.031 0 1
76.147 42385 205.876
76.263 50469 224.653
76.3791 56203 237.072
76.4952 61013 247.008
76.6113 64105 253.19
76.7276 65289 255.517
76.8438 66675 258.215
76.9601 66786 258.43
77.0765 67134 259.102
77.1929 69359 263.361
77.3093 70407 265.343
77.4258 70556 265.624
77.5423 71341 267.097
77.6589 71286 266.994
77.7755 71537 267.464
77.8921 71117 266.678
78.0088 70992 266.443
78.1256 70873 266.22
78.2423 70333 265.204
78.3591 69755 264.112
78.4759 69652 263.917
78.5928 69229 263.114
78.7097 69094 262.857
78.8266 69466 263.564
78.9436 70796 266.075
79.0606 71796 267.948
79.1776 74534 273.009
79.2946 76904 277.316
79.4117 78203 279.648
79.5288 76794 277.117
79.6459 75636 275.02
79.7631 74280 272.544
79.8802 74234 272.459
79.9974 75449 274.68
80.1147 75871 275.447
80.2319 76264 276.159
80.3491 76925 277.354
80.4664 77862 279.038
80.5837 78843 280.79
80.701 80189 283.177
80.8183 82066 286.472
80.9357 83348 288.701
81.053 83978 289.79
81.1704 84354 290.438
81.2877 83953 289.746
81.4051 83480 288.929
81.5225 81284 285.103
81.6399 81497 285.477
81.7573 78672 280.485
81.8747 79444 281.858
81.9922 77037 277.555
82.1096 77679 278.71
82.227 76425 276.451
82.3444 77045 277.57
82.4619 78143 279.541
82.5793 78806 280.724
82.6967 79303 281.608
82.8142 81873 286.135
82.9316 83462 288.898
83.049 82808 287.764
83.1664 80811 284.273
83.2838 78812 280.735
83.4012 75487 274.749
83.5186 73812 271.684
83.636 73777 271.619
83.7534 75537 274.84
83.8708 76235 276.107
83.9881 76350 276.315
84.1055 77218 277.881
84.2228 77821 278.964
84.3401 78583 280.327
84.4575 78725 280.58
84.5747 80471 283.674
84.692 79522 281.996
84.8093 80485 283.699
84.9265 79564 282.071
85.0437 78027 279.333
85.1609 76858 277.233
85.2781 74677 273.271
85.3952 74130 272.268
85.5123 72297 268.881
85.6294 70671 265.84
85.7465 69309 263.266
85.8636 68152 261.059
85.9806 68395 261.524
86.0976 68637 261.987
86.2145 69362 263.367
86.3315 70246 265.04
86.4484 72302 268.89
86.5652 73596 271.286
86.682 72943 270.08
86.7988 70654 265.808
86.9156 67912 260.599
87.0323 66096 257.091
87.149 64837 254.631
87.2657 64787 254.533
87.3823 66237 257.365
87.4988 67646 260.088
87.6154 67049 258.938
87.7318 66207 257.307
87.8483 63923 252.83
87.9647 60063 245.078
88.081 57494 239.779
88.1973 53701 231.735
88.3136 49085 221.551
88.4298 44129 210.069
88.546 39061 197.639
88.6621 35683 188.899
88.7781 32097 179.156
88.8942 0 1
89.0101 0 1
89.126 0 1
89.2419 0 1
89.3577 0 1
89.4734 0 1
89.5891 0 1
89.7047 0 1
89.8203 0 1
89.9358 0 1
92.3269 0 1
92.4424 0 1
92.558 0 1
92.6736 0 1
92.7893 0 1
92.905 0 1
93.0208 0 1
93.1366 0 1
93.2525 0 1
93.3685 0 1
93.4845 0 1
93.6005 45815 214.044
93.7167 52154 228.373
93.8328 57586 239.971
93.949 62229 249.457
94.0653 65990 256.885
94.1816 67670 260.135
94.2979 69407 263.452
94.4143 70302 265.145
94.5307 69176 263.013
94.6472 69213 263.084
94.7637 68206 261.163
94.8803 66419 257.719
94.9969 65994 256.893
95.1135 65822 256.558
95.2302 65845 256.603
95.3469 67093 259.023
95.4637 68528 261.779
95.5805 69921 264.426
95.6973 71032 266.518
95.8142 71113 266.67
95.9311 69731 264.066
96.048 68726 262.156
96.1649 66407 257.696
96.2819 64357 253.687
96.3989 62942 250.882
96.516 61436 247.863
96.633 61844 248.685
96.7501 63647 252.284
96.8673 65398 255.73
96.9844 66819 258.494
97.1016 68112 260.983
97.2188 68608 261.931
97.336 70681 265.859
97.4532 70776 266.038
97.5704 72307 268.9
97.6877 71846 268.041
97.805 72101 268.516
97.9223 70875 266.224
98.0396 71244 266.916
98.1569 70146 264.851
98.2743 69661 263.934
98.3916 68052 260.868
98.509 66509 257.893
98.6264 66336 257.558
98.7438 65243 255.427
98.8612 66119 257.136
98.9786 67293 259.409
99.096 69292 263.234
99.2134 71797 267.95
99.3308 73227 270.605
99.4482 74619 273.165
99.5656 74536 273.013
99.6831 73228 270.607
99.8005 70975 266.411
99.9179 68309 261.36
100.035 66205 257.303
100.153 65291 255.521
100.27 66108 257.115
100.388 67258 259.341
100.505 68445 261.62
100.622 70275 265.094
100.74 70795 266.073
100.857 71343 267.101
100.975 71738 267.84
101.092 73635 271.358
101.209 73908 271.86
101.327 73848 271.75
101.444 73600 271.293
101.561 73506 271.12
101.679 73222 270.596
101.796 71977 268.285
101.913 70838 266.154
102.03 69013 262.703
102.148 68129 261.015
102.265 67075 258.988
102.382 69452 263.537
102.499 69856 264.303
102.616 72252 268.797
102.733 73886 271.82
102.851 76345 276.306
102.968 76673 276.899
103.085 76788 277.106
103.202 76204 276.051
103.319 73747 271.564
103.436 70807 266.096
103.552 68307 261.356
103.669 66577 258.025
103.786 66933 258.714
103.903 68219 261.188
104.02 70066 264.7
104.137 71835 268.021
104.253 72566 269.381
104.37 75766 275.256
104.487 75326 274.456
104.603 76692 276.933
104.72 76587 276.744
104.836 76600 276.767
104.953 74592 273.115
105.069 72623 269.487
105.186 69757 264.116
105.302 66517 257.909
105.418 62365 249.73
105.535 56867 238.468
105.651 51097 226.046
105.767 46835 216.414
105.883 42425 205.973
105.999 38485 196.176
106.115 0 1
106.231 0 1
106.347 0 1
106.463 0 1
106.579 0 1
106.694 0 1
106.81 0 1
106.926 0 1
107.041 0 1
107.157 0 1
109.576 0 1
109.692 0 1
109.807 0 1
109.923 0 1
110.039 0 1
110.155 0 1
110.27 0 1
110.386 0 1
110.502 0 1
110.618 30978 176.006
110.735 36650 191.442
110.851 41572 203.892
110.967 46547 215.748
111.083 52105 228.265
111.199 57093 238.941
111.316 61299 247.586
111.432 65029 255.008
111.549 66949 258.745
111.665 66861 258.575
111.782 66033 256.969
111.898 63458 251.909
112.015 62044 249.086
112.132 59640 244.213
112.248 57810 240.437
112.365 57353 239.485
112.482 57690 240.187
112.599 61193 247.372
112.716 62267 249.534
112.832 63408 251.809
112.949 64275 253.525
113.066 65071 255.09
113.183 65386 255.707
113.3 66130 257.158
113.417 65443 255.818
113.534 65836 256.585
113.652 66143 257.183
113.769 65281 255.501
113.886 64512 253.992
114.003 62896 250.791
114.12 61681 248.357
114.238 60704 246.382
114.355 60558 246.085
114.472 58437 241.737
114.589 65426 255.785
114.707 64655 254.273
114.824 66422 257.725
114.942 67879 260.536
115.059 69136 262.937
115.176 69030 262.736
115.294 67635 260.067
115.411 66179 257.253
115.529 63699 252.387
115.646 61220 247.427
115.764 59508 243.943
115.881 57262 239.295
115.999 57676 240.158
116.116 58785 242.456
116.234 60334 245.63
116.351 61707 248.409
116.469 63215 251.426
116.586 63768 252.523
116.704 64682 254.327
116.821 65258 255.456
116.939 65755 256.427
117.056 65271 255.482
117.174 65285 255.509
117.291 65103 255.153
117.409 64175 253.328
117.526 63357 251.708
117.644 62033 249.064
117.761 61001 246.984
117.879 59419 243.76
117.996 60153 245.261
118.114 61302 247.592
118.231 63684 252.357
118.349 64560 254.087
118.466 65760 256.437
118.584 66946 258.739
118.701 67140 259.114
118.819 66008 256.92
118.936 64569 254.104
119.053 62395 249.79
119.171 59440 243.803
119.288 57687 240.181
119.405 55409 235.391
119.523 54661 233.797
119.64 55084 234.7
119.757 55567 235.727
119.875 57062 238.877
119.992 58444 241.752
120.109 59840 244.622
120.226 59785 244.51
120.343 60260 245.479
120.46 60862 246.702
120.578 61662 248.318
120.695 61572 248.137
120.812 61176 247.338
120.929 61598 248.189
121.046 60313 245.587
121.163 60014 244.978
121.279 58925 242.745
121.396 57245 239.259
121.513 56452 237.596
121.63 55633 235.866
121.747 55390 235.351
121.863 55763 236.142
121.98 56013 236.671
122.097 55325 235.213
122.213 54206 232.822
122.33 52431 228.978
122.446 49790 223.137
122.563 46458 215.541
122.679 42275 205.609
122.795 38791 196.954
122.912 34276 185.138
123.028 30128 173.574
123.144 27654 166.295
123.26 25586 159.956
123.377 0 1
123.493 0 1
123.609 0 1
123.725 0 1
123.84 0 1
123.956 0 1
124.072 0 1
124.188 0 1
124.303 0 1
124.419 0 1
126.852 0 1
126.968 0 1
127.083 0 1
127.199 0 1
127.315 0 1
127.431 0 1
127.547 0 1
127.663 0 1
127.779 0 1
127.895 0 1
128.011 0 1
128.127 0 1
128.243 0 1
128.359 56976 238.696
128.476 57738 240.287
128.592 58581 242.035
128.708 57850 240.52
128.825 58837 242.563
128.941 60479 245.925
129.058 62713 250.426
129.174 64764 254.488
129.291 65862 256.636
129.408 66624 258.116
129.524 67358 259.534
129.641 67283 259.39
129.758 67291 259.405
129.875 67755 260.298
129.992 67667 260.129
130.108 67289 259.401
130.225 67010 258.863
130.342 65291 255.521
130.459 62841 250.681
130.576 62482 249.964
130.693 61337 247.663
130.81 61729 248.453
130.928 63108 251.213
131.045 63801 252.589
131.162 65603 256.131
131.279 66505 257.886
131.396 67253 259.332
131.513 66547 257.967
131.631 65327 255.591
131.748 63354 251.702
131.865 61609 248.212
131.983 59357 243.633
132.1 58433 241.729
132.217 57333 239.443
132.335 57103 238.962
132.452 59006 242.912
132.57 60628 246.228
132.687 63731 252.45
132.804 63664 252.317
132.922 64514 253.996
133.039 65647 256.217
133.157 66361 257.606
133.274 66002 256.909
133.392 66630 258.128
133.509 66869 258.59
133.627 67010 258.863
133.744 66891 258.633
133.862 64961 254.874
133.979 62886 250.771
134.097 61367 247.724
134.214 61268 247.524
134.332 61088 247.16
134.449 61885 248.767
134.567 62554 250.108
134.684 64412 253.795
134.802 64761 254.482
134.919 65709 256.338
135.037 65023 254.996
135.154 64381 253.734
135.272 62373 249.746
135.389 61331 247.651
135.507 59593 244.117
135.624 58341 241.539
135.742 57324 239.424
135.859 56654 238.021
135.977 57851 240.522
136.094 59981 244.91
136.211 61614 248.222
136.329 63347 251.688
136.446 64094 253.168
136.564 64532 254.031
136.681 65953 256.813
136.798 65808 256.531
136.915 66455 257.789
137.033 66145 257.187
137.15 67156 259.145
137.267 66457 257.793
137.384 65876 256.663
137.502 63806 252.598
137.619 61590 248.173
137.736 60630 246.232
137.853 57407 239.598
137.97 59170 243.249
138.087 59250 243.413
138.204 60623 246.217
138.321 61431 247.853
138.438 62426 249.852
138.555 63986 252.955
138.672 64182 253.342
138.788 62416 249.832
138.905 59785 244.51
139.022 57370 239.52
139.139 54448 233.341
139.255 51628 227.218
139.372 48563 220.37
139.488 45507 213.324
139.605 43762 209.194
139.721 42565 206.313
139.838 41635 204.047
139.954 40453 201.129
140.071 38593 196.451
140.187 35421 188.205
140.303 33003 181.667
140.419 30922 175.847
140.535 29428 171.546
140.652 27938 167.147
140.768 0 1
140.884 0 1
141 0 1
141.115 0 1
141.231 0 1
141.347 0 1
141.463 0 1
141.578 0 1
141.694 0 1
144.104 0 1
144.219 0 1
144.335 0 1
144.45 0 1
144.566 0 1
144.682 0 1
144.798 0 1
144.914 0 1
145.03 0 1
145.146 42670 206.567
145.262 46952 216.684
145.378 48029 219.155
145.494 49704 222.944
145.61 50492 224.704
145.726 50328 224.339
145.842 50998 225.827
145.959 51194 226.261
146.075 50864 225.53
146.192 50371 224.435
146.308 49581 222.668
146.425 47938 218.947
146.541 46849 216.446
146.658 45883 214.203
146.774 45676 213.719
146.891 45740 213.869
147.008 47545 218.048
147.125 47187 217.226
147.241 48062 219.23
147.358 49116 221.621
147.475 48478 220.177
147.592 48165 219.465
147.709 46680 216.056
147.826 46012 214.504
147.943 44054 209.89
148.06 43650 208.926
148.177 43020 207.413
148.294 42862 207.031
148.411 43938 209.614
148.528 45512 213.335
148.645 46967 216.719
148.762 48356 219.9
148.88 48893 221.118
148.997 50227 224.114
149.114 48565 220.375
149.231 49059 221.493
149.349 49494 222.472
149.466 49019 221.402
149.583 49798 223.155
149.701 49329 222.101
149.818 49007 221.375
149.935 48889 221.109
150.053 47599 218.172
150.17 46315 215.209
150.287 45519 213.352
150.405 45018 212.174
150.522 45312 212.866
150.64 45527 213.371
150.757 46596 215.861
150.875 47196 217.246
150.992 47751 218.52
151.11 47734 218.481
151.227 46690 216.079
151.344 45920 214.29
151.462 44193 210.221
151.579 43897 209.516
151.697 42378 205.859
151.814 41827 204.517
151.932 42241 205.526
152.049 43017 207.405
152.167 43950 209.643
152.284 45810 214.033
152.402 46534 215.717
152.519 47848 218.742
152.636 47386 217.683
152.754 47780 218.586
152.871 47415 217.75
152.989 47474 217.885
153.106 47763 218.547
153.223 48171 219.479
153.341 47563 218.089
153.458 47346 217.591
153.575 46509 215.659
153.693 45635 213.624
153.81 44438 210.803
153.927 43608 208.825
154.044 43206 207.861
154.162 44436 210.798
154.279 44573 211.123
154.396 45823 214.063
154.513 46234 215.021
154.63 46965 216.714
154.747 46164 214.858
154.864 45120 212.415
154.981 43865 209.44
155.098 42789 206.855
155.215 41686 204.171
155.332 40893 202.22
155.449 40341 200.851
155.566 40695 201.73
155.683 41416 203.509
155.8 42564 206.31
155.917 43536 208.653
156.033 43905 209.535
156.15 0 1
156.267 0 1
156.383 0 1
156.5 0 1
156.617 0 1
156.733 0 1
156.85 0 1
156.966 0 1
157.082 0 1
157.199 0 1
157.315 0 1
157.431 0 1
157.547 0 1
157.664 0 1
157.78 0 1
157.896 0 1
158.012 0 1
158.128 0 1
158.244 0 1
158.359 0 1
158.475 0 1
158.591 0 1
158.706 0 1
