
6.15755 0 1
6.2731 0 1
6.3887 0 1
6.50437 0 1
6.62009 0 1
6.73587 0 1
6.8517 0 1
6.96759 0 1
7.08353 0 1
7.19952 0 1
7.31557 0 1
7.43166 0 1
7.54781 0 1
7.664 0 1
7.78024 0 1
7.89653 0 1
8.01286 0 1
8.12924 0 1
8.24567 0 1
8.36213 0 1
8.47864 0 1
8.59519 0 1
8.71178 0 1
8.82841 0 1
8.94508 0 1
9.06179 0 1
9.17853 0 1
9.29531 0 1
9.41212 0 1
9.52897 0 1
9.64584 0 1
9.76276 0 1
9.8797 0 1
9.99667 0 1
10.1137 0 1
10.2307 0 1
10.3478 0 1
10.4648 0 1
10.5819 0 1
10.6991 0 1
10.8162 0 1
10.9334 0 1
11.0506 0 1
11.1678 0 1
11.285 0 1
11.4023 0 1
11.5196 0 1
11.6369 0 1
11.7542 0 1
11.8715 0 1
11.9888 0 1
12.1062 0 1
12.2235 0 1
12.3409 0 1
12.4582 0 1
12.5756 0 1
12.693 0 1
12.8104 0 1
12.9278 0 1
13.0452 0 1
13.1626 0 1
13.28 0 1
13.3974 0 1
13.5149 0 1
13.6323 0 1
13.7497 0 1
13.8671 0 1
13.9845 0 1
14.1019 0 1
14.2193 0 1
14.3367 0 1
14.4541 0 1
14.5714 0 1
14.6888 0 1
14.8062 0 1
14.9235 0 1
15.0408 1916 43.7721
15.1581 2067 45.4643
15.2755 2140 46.2601
15.3927 2100 45.8258
15.51 2107 45.9021
15.6273 2094 45.7602
15.7445 2233 47.2546
15.8617 2060 45.3872
15.9789 2043 45.1996
16.0961 2063 45.4203
16.2132 2016 44.8999
16.3304 2114 45.9783
16.4475 2209 47
16.5646 2205 46.9574
16.6816 2402 49.0102
16.7986 2391 48.8979
16.9156 2503 50.03
17.0326 2450 49.4975
17.1496 2475 49.7494
17.2665 2453 49.5278
17.3833 2491 49.9099
17.5002 2460 49.5984
17.617 2341 48.3839
17.7338 2139 46.2493
17.8505 2163 46.5081
17.9672 2156 46.4327
18.0839 2206 46.9681
18.2005 2145 46.3141
18.3171 2220 47.1169
18.4337 2260 47.5395
18.5502 2467 49.6689
18.6666 2419 49.1833
18.7831 2493 49.93
18.8994 2437 49.366
19.0158 2468 49.679
19.1321 2340 48.3735
19.2483 2164 46.5188
19.3645 2242 47.3498
19.4806 2033 45.0888
19.5967 1913 43.7379
19.7128 1759 41.9404
19.8288 1583 39.7869
19.9447 1487 38.5616
20.0606 0 1
20.1764 0 1
20.2922 0 1
20.4079 0 1
20.5236 0 1
20.6392 0 1
20.7548 0 1
20.8702 0 1
23.3078 0 1
23.4233 0 1
23.539 0 1
23.6547 0 1
23.7704 0 1
23.8862 0 1
24.0021 0 1
24.118 0 1
24.234 0 1
24.35 0 1
24.4661 1035 32.1714
24.5822 1169 34.1906
24.6984 1413 37.5899
24.8146 1531 39.128
24.9309 1529 39.1024
25.0472 1767 42.0357
25.1636 1987 44.5758
25.28 2064 45.4313
25.3965 2296 47.9166
25.513 2328 48.2494
25.6296 2558 50.5767
25.7462 2633 51.3128
25.8628 2694 51.9038
25.9795 2632 51.303
26.0962 2623 51.2152
26.213 2485 49.8498
26.3298 2440 49.3964
26.4466 2301 47.9687
26.5635 2192 46.8188
26.6804 2310 48.0625
26.7973 2301 47.9687
26.9143 2373 48.7134
27.0313 2307 48.0312
27.1483 2332 48.2908
27.2653 2513 50.1298
27.3824 2424 49.2341
27.4996 2486 49.8598
27.6167 2529 50.2892
27.7339 2472 49.7192
27.8511 2482 49.8197
27.9683 2364 48.621
28.0855 2234 47.2652
28.2028 2225 47.1699
28.3201 2130 46.1519
28.4374 2126 46.1086
28.5547 2145 46.3141
28.6721 2275 47.697
28.7894 2371 48.6929
28.9068 2533 50.3289
29.0242 2556 50.5569
29.1416 2662 51.5946
29.259 2487 49.8698
29.3764 2636 51.342
29.4939 2618 51.1664
29.6113 2415 49.1426
29.7288 2363 48.6107
29.8463 2243 47.3603
29.9638 2218 47.0956
30.0812 2154 46.4112
30.1987 2053 45.31
30.3162 2263 47.571
30.4337 2292 47.8748
30.5512 2355 48.5283
30.6687 2303 47.9896
30.7862 2420 49.1935
30.9037 2364 48.621
31.0212 2342 48.3942
31.1387 2460 49.5984
31.2562 2380 48.7852
31.3737 2349 48.4665
31.4912 2325 48.2183
31.6087 2251 47.4447
31.7262 2139 46.2493
31.8436 2100 45.8258
31.9611 1986 44.5646
32.0785 2054 45.3211
32.1959 2170 46.5833
32.3134 2253 47.4658
32.4308 2316 48.1248
32.5482 2436 49.3559
32.6655 2448 49.4773
32.7829 2537 50.3686
32.9002 2440 49.3964
33.0176 2483 49.8297
33.1349 2547 50.4678
33.2522 2446 49.4571
33.3694 2253 47.4658
33.4867 2204 46.9468
33.6039 2101 45.8367
33.7211 2018 44.9222
33.8383 1979 44.486
33.9554 2045 45.2217
34.0725 2177 46.6583
34.1896 2161 46.4866
34.3067 2241 47.3392
34.4237 2337 48.3425
34.5407 2256 47.4974
34.6577 2283 47.7807
34.7746 2313 48.0937
34.8915 2345 48.4252
35.0084 2232 47.244
35.1252 2258 47.5184
35.242 2185 46.744
35.3587 2130 46.1519
35.4755 2020 44.9444
35.5921 1914 43.7493
35.7088 1982 44.5197
35.8254 1973 44.4185
35.9419 2073 45.5302
36.0584 2083 45.6399
36.1749 2138 46.2385
36.2913 2099 45.8148
36.4077 2089 45.7056
36.524 2110 45.9347
36.6403 2031 45.0666
36.7565 2071 45.5082
36.8727 1862 43.1509
36.9889 1809 42.5323
37.1049 1542 39.2683
37.221 0 1
37.3369 0 1
37.4529 0 1
37.5687 0 1
37.6845 0 1
37.8003 0 1
37.916 0 1
38.0316 0 1
38.1472 0 1
40.5851 0 1
40.7008 0 1
40.8164 0 1
40.9322 0 1
41.048 0 1
41.1639 0 1
41.2798 0 1
41.3958 0 1
41.5118 0 1
41.6279 0 1
41.744 1136 33.7046
41.8602 1293 35.9583
41.9765 1395 37.3497
42.0928 1395 37.3497
42.2091 1383 37.1887
42.3255 1421 37.6962
42.4419 1385 37.2156
42.5584 1406 37.4967
42.675 1543 39.281
42.7915 1649 40.6079
42.9081 1758 41.9285
43.0248 1701 41.2432
43.1415 1813 42.5793
43.2582 1923 43.852
43.375 1957 44.238
43.4918 1899 43.5775
43.6087 1981 44.5084
43.7256 1919 43.8064
43.8425 1827 42.7434
43.9595 1831 42.7902
44.0765 1749 41.821
44.1935 1704 41.2795
44.3106 1662 40.7676
44.4277 1575 39.6863
44.5448 1614 40.1746
44.6619 1606 40.0749
44.7791 1722 41.497
44.8963 1770 42.0714
45.0136 1866 43.1972
45.1308 2036 45.1221
45.2481 1922 43.8406
45.3654 2070 45.4973
45.4827 1951 44.1701
45.6001 1960 44.2719
45.7174 1868 43.2204
45.8348 1775 42.1307
45.9522 1661 40.7554
46.0697 1652 40.6448
46.1871 1632 40.398
46.3046 1639 40.4846
46.422 1689 41.0974
46.5395 1725 41.5331
46.657 1807 42.5088
46.7745 1942 44.0681
46.892 1912 43.7264
47.0096 2004 44.7661
47.1271 1952 44.1814
47.2446 1993 44.643
47.3622 1998 44.699
47.4797 1897 43.5546
47.5973 1864 43.1741
47.7149 1882 43.382
47.8324 1806 42.4971
47.95 1738 41.6893
48.0675 1723 41.509
48.1851 1597 39.9625
48.3027 1734 41.6413
48.4202 1720 41.4729
48.5378 1842 42.9185
48.6554 1931 43.9431
48.7729 1972 44.4072
48.8904 1976 44.4522
49.008 2003 44.7549
49.1255 1978 44.4747
49.243 1936 44
49.3605 1720 41.4729
49.478 1651 40.6325
49.5955 1532 39.1408
49.713 1509 38.8458
49.8304 1529 39.1024
49.9479 1617 40.2119
50.0653 1746 41.7852
50.1827 1789 42.2966
50.3001 2012 44.8553
50.4175 1857 43.0929
50.5348 1905 43.6463
50.6521 1931 43.9431
50.7694 2052 45.299
50.8867 1945 44.1022
51.004 2024 44.9889
51.1212 1892 43.4971
51.2384 1898 43.566
51.3556 1961 44.2832
51.4727 1797 42.391
51.5899 1690 41.1096
51.707 1751 41.845
51.824 1846 42.9651
51.9411 2029 45.0444
52.0581 2104 45.8694
52.175 2277 47.7179
52.2919 2280 47.7493
52.4088 2328 48.2494
52.5257 2413 49.1223
52.6425 2392 48.9081
52.7593 2363 48.6107
52.876 2315 48.1144
52.9927 2248 47.4131
53.1094 2097 45.793
53.226 2035 45.111
53.3426 2025 45
53.4591 1868 43.2204
53.5756 1985 44.5533
53.692 2020 44.9444
53.8084 1940 44.0454
53.9248 1948 44.1362
54.0411 1899 43.5775
54.1573 1791 42.3202
54.2735 0 1
54.3896 0 1
54.5057 0 1
54.6217 0 1
54.7377 0 1
54.8537 0 1
54.9695 0 1
55.0853 0 1
55.2011 0 1
55.3168 0 1
55.4324 0 1
57.824 0 1
57.9396 0 1
58.0553 0 1
58.1711 0 1
58.2869 0 1
58.4028 0 1
58.5187 0 1
58.6347 0 1
58.7508 0 1
58.8669 0 1
58.983 1606 40.0749
59.0992 1874 43.2897
59.2155 1905 43.6463
59.3318 2036 45.1221
59.4482 2281 47.7598
59.5646 2272 47.6655
59.681 2373 48.7134
59.7975 2327 48.239
59.9141 2271 47.655
60.0306 2300 47.9583
60.1473 2175 46.6369
60.2639 2061 45.3982
60.3807 2045 45.2217
60.4974 2174 46.6262
60.6142 2212 47.0319
60.731 2289 47.8435
60.8479 2421 49.2037
60.9648 2487 49.8698
61.0818 2510 50.0999
61.1987 2568 50.6754
61.3158 2376 48.7442
61.4328 2425 49.2443
61.5499 2232 47.244
61.667 2094 45.7602
61.7841 1897 43.5546
61.9013 1857 43.0929
62.0185 1931 43.9431
62.1357 2080 45.607
62.253 2202 46.9255
62.3702 2245 47.3814
62.4875 2265 47.592
62.6049 2424 49.2341
62.7222 2318 48.1456
62.8396 2450 49.4975
62.9569 2528 50.2792
63.0743 2383 48.816
63.1918 2437 49.366
63.3092 2317 48.1352
63.4267 2316 48.1248
63.5441 2263 47.571
63.6616 2135 46.2061
63.7791 2021 44.9555
63.8966 2003 44.7549
64.0142 2037 45.1331
64.1317 2163 46.5081
64.2492 2215 47.0638
64.3668 2376 48.7442
64.4843 2426 49.2544
64.6019 2431 49.3052
64.7195 2464 49.6387
64.837 2416 49.1528
64.9546 2360 48.5798
65.0722 2314 48.1041
65.1898 2158 46.4543
65.3074 1854 43.0581
65.4249 1905 43.6463
65.5425 1703 41.2674
65.6601 1807 42.5088
65.7777 1900 43.589
65.8952 2104 45.8694
66.0128 2268 47.6235
66.1304 2339 48.3632
66.2479 2274 47.6865
66.3655 2324 48.2079
66.483 2345 48.4252
66.6005 2321 48.1768
66.718 2390 48.8876
66.8355 2311 48.0729
66.953 2455 49.548
67.0705 2369 48.6724
67.1879 2198 46.8828
67.3054 2067 45.4643
67.4228 1918 43.795
67.5402 1900 43.589
67.6576 1989 44.5982
67.7749 1971 44.3959
67.8923 2146 46.3249
68.0096 2248 47.4131
68.1269 2288 47.833
68.2442 2370 48.6826
68.3614 2342 48.3942
68.4787 2403 49.0204
68.5958 2298 47.9375
68.713 2213 47.0425
68.8302 1963 44.3058
68.9473 1929 43.9204
69.0643 1732 41.6173
69.1814 1700 41.2311
69.2984 1692 41.1339
69.4154 1876 43.3128
69.5323 1999 44.7102
69.6492 2134 46.1952
69.7661 2153 46.4004
69.8829 2173 46.6154
69.9997 2140 46.2601
70.1165 2215 47.0638
70.2332 2002 44.7437
70.3499 1983 44.5309
70.4665 1824 42.7083
70.5831 1718 41.4488
70.6996 1708 41.328
70.8161 1566 39.5727
70.9326 1472 38.3667
71.049 1259 35.4824
71.1653 1048 32.3728
71.2817 977 31.257
71.3979 921 30.348
71.5141 921 30.348
71.6303 865 29.4109
71.7464 753 27.4408
71.8624 0 1
71.9784 0 1
72.0944 0 1
72.2102 0 1
72.3261 0 1
72.4418 0 1
72.5575 0 1
72.6732 0 1
75.1054 0 1
75.2209 0 1
75.3365 0 1
75.4521 0 1
75.5678 0 1
75.6835 0 1
75.7993 0 1
75.9151 0 1
76.031 0 1
76.147 1380 37.1484
76.263 1497 38.6911
76.3791 1435 37.8814
76.4952 1485 38.5357
76.6113 1570 39.6232
76.7276 1638 40.4722
76.8438 1804 42.4735
76.9601 1965 44.3283
77.0765 1990 44.6094
77.1929 1964 44.317
77.3093 1971 44.3959
77.4258 1950 44.1588
77.5423 1955 44.2154
77.6589 1899 43.5775
77.7755 1758 41.9285
77.8921 1626 40.3237
78.0088 1519 38.9744
78.1256 1385 37.2156
78.2423 1394 37.3363
78.3591 1498 38.704
78.4759 1660 40.7431
78.5928 1793 42.3438
78.7097 1878 43.3359
78.8266 1820 42.6615
78.9436 2005 44.7772
79.0606 1962 44.2945
79.1776 2032 45.0777
79.2946 1992 44.6318
79.4117 2086 45.6727
79.5288 2051 45.288
79.6459 2016 44.8999
79.7631 1974 44.4297
79.8802 1903 43.6234
79.9974 1767 42.0357
80.1147 1711 41.3642
80.2319 1641 40.5093
80.3491 1669 40.8534
80.4664 1766 42.0238
80.5837 1867 43.2088
80.701 2085 45.6618
80.8183 2082 45.6289
80.9357 2088 45.6946
81.053 2034 45.0999
81.1704 2037 45.1331
81.2877 2111 45.9456
81.4051 1983 44.5309
81.5225 1759 41.9404
81.6399 1715 41.4126
81.7573 1526 39.064
81.8747 1540 39.2428
81.9922 1428 37.7889
82.1096 1680 40.9878
82.227 1842 42.9185
82.3444 1898 43.566
82.4619 2029 45.0444
82.5793 2052 45.299
82.6967 2093 45.7493
82.8142 2161 46.4866
82.9316 2089 45.7056
83.049 2189 46.7868
83.1664 2140 46.2601
83.2838 2119 46.0326
83.4012 2003 44.7549
83.5186 1908 43.6807
83.636 1835 42.8369
83.7534 1748 41.8091
83.8708 1666 40.8167
83.9881 1636 40.4475
84.1055 1784 42.2374
84.2228 1884 43.4051
84.3401 2046 45.2327
84.4575 2169 46.5725
84.5747 2197 46.8722
84.692 2079 45.5961
84.8093 2193 46.8295
84.9265 2066 45.4533
85.0437 1845 42.9535
85.1609 1833 42.8135
85.2781 1592 39.8999
85.3952 1503 38.7685
85.5123 1430 37.8153
85.6294 1547 39.3319
85.7465 1737 41.6773
85.8636 1816 42.6146
85.9806 1924 43.8634
86.0976 2003 44.7549
86.2145 2044 45.2106
86.3315 2042 45.1885
86.4484 2143 46.2925
86.5652 2205 46.9574
86.682 2170 46.5833
86.7988 2123 46.076
86.9156 2107 45.9021
87.0323 1991 44.6206
87.149 1967 44.3509
87.2657 1938 44.0227
87.3823 1560 39.4968
87.4988 1554 39.4208
87.6154 1430 37.8153
87.7318 1534 39.1663
87.8483 1591 39.8873
87.9647 1652 40.6448
88.081 1631 40.3856
88.1973 1554 39.4208
88.3136 1590 39.8748
88.4298 1558 39.4715
88.546 1395 37.3497
88.6621 1173 34.2491
88.7781 939 30.6431
88.8942 0 1
89.0101 0 1
89.126 0 1
89.2419 0 1
89.3577 0 1
89.4734 0 1
89.5891 0 1
89.7047 0 1
89.8203 0 1
89.9358 0 1
92.3269 0 1
92.4424 0 1
92.558 0 1
92.6736 0 1
92.7893 0 1
92.905 0 1
93.0208 0 1
93.1366 0 1
93.2525 0 1
93.3685 0 1
93.4845 0 1
93.6005 1602 40.025
93.7167 1788 42.2847
93.8328 1758 41.9285
93.949 1788 42.2847
94.0653 1874 43.2897
94.1816 1816 42.6146
94.2979 1781 42.2019
94.4143 1668 40.8412
94.5307 1560 39.4968
94.6472 1520 38.9872
94.7637 1543 39.281
94.8803 1709 41.3401
94.9969 1777 42.1545
95.1135 1991 44.6206
95.2302 1943 44.0795
95.3469 2018 44.9222
95.4637 2065 45.4423
95.5805 2101 45.8367
95.6973 2175 46.6369
95.8142 2218 47.0956
95.9311 2143 46.2925
96.048 2147 46.3357
96.1649 2118 46.0217
96.2819 1975 44.441
96.3989 1960 44.2719
96.516 1914 43.7493
96.633 1719 41.4608
96.7501 1764 42
96.8673 1789 42.2966
96.9844 1874 43.2897
97.1016 1979 44.486
97.2188 2145 46.3141
97.336 2246 47.392
97.4532 2226 47.1805
97.5704 2190 46.7974
97.6877 2220 47.1169
97.805 2145 46.3141
97.9223 1968 44.3621
98.0396 1852 43.0349
98.1569 1594 39.9249
98.2743 1570 39.6232
98.3916 1522 39.0128
98.509 1691 41.1218
98.6264 1856 43.0813
98.7438 1999 44.7102
98.8612 2031 45.0666
98.9786 2197 46.8722
99.096 2206 46.9681
99.2134 2249 47.4236
99.3308 2256 47.4974
99.4482 2229 47.2123
99.5656 2271 47.655
99.6831 2252 47.4552
99.8005 2321 48.1768
99.9179 2233 47.2546
100.035 2104 45.8694
100.153 2018 44.9222
100.27 1924 43.8634
100.388 1947 44.1248
100.505 1946 44.1135
100.622 2000 44.7214
100.74 2173 46.6154
100.857 2367 48.6518
100.975 2310 48.0625
101.092 2419 49.1833
101.209 2392 48.9081
101.327 2264 47.5815
101.444 2156 46.4327
101.561 2125 46.0977
101.679 1762 41.9762
101.796 1666 40.8167
101.913 1635 40.4351
102.03 1700 41.2311
102.148 1849 43
102.265 1956 44.2267
102.382 2207 46.9787
102.499 2230 47.2229
102.616 2254 47.4763
102.733 2352 48.4974
102.851 2467 49.6689
102.968 2361 48.5901
103.085 2375 48.734
103.202 2321 48.1768
103.319 2358 48.5592
103.436 2347 48.4458
103.552 2260 47.5395
103.669 2055 45.3321
103.786 2028 45.0333
103.903 2012 44.8553
104.02 2034 45.0999
104.137 2254 47.4763
104.253 2307 48.0312
104.37 2523 50.2295
104.487 2459 49.5883
104.603 2409 49.0816
104.72 2475 49.7494
104.836 2345 48.4252
104.953 2138 46.2385
105.069 1893 43.5086
105.186 1683 41.0244
105.302 1465 38.2753
105.418 1520 38.9872
105.535 1497 38.6911
105.651 1504 38.7814
105.767 1619 40.2368
105.883 1478 38.4448
105.999 1455 38.1445
106.115 0 1
106.231 0 1
106.347 0 1
106.463 0 1
106.579 0 1
106.694 0 1
106.81 0 1
106.926 0 1
107.041 0 1
107.157 0 1
109.576 0 1
109.692 0 1
109.807 0 1
109.923 0 1
110.039 0 1
110.155 0 1
110.27 0 1
110.386 0 1
110.502 0 1
110.618 1013 31.8277
110.735 1325 36.4005
110.851 1536 39.1918
110.967 1717 41.4367
111.083 1879 43.3474
111.199 2061 45.3982
111.316 2072 45.5192
111.432 2128 46.1303
111.549 2158 46.4543
111.665 2241 47.3392
111.782 2208 46.9894
111.898 2236 47.2864
112.015 2115 45.9891
112.132 2067 45.4643
112.248 1887 43.4396
112.365 1865 43.1856
112.482 1859 43.1161
112.599 1980 44.4972
112.716 2072 45.5192
112.832 2169 46.5725
112.949 2306 48.0208
113.066 2249 47.4236
113.183 2306 48.0208
113.3 2165 46.5296
113.417 2288 47.833
113.534 2035 45.111
113.652 1808 42.5206
113.769 1724 41.5211
113.886 1589 39.8623
114.003 1521 39
114.12 1682 41.0122
114.238 1831 42.7902
114.355 1925 43.8748
114.472 1951 44.1701
114.589 2173 46.6154
114.707 2102 45.8476
114.824 2216 47.0744
114.942 2255 47.4868
115.059 2289 47.8435
115.176 2286 47.8121
115.294 2165 46.5296
115.411 2217 47.085
115.529 2126 46.1086
115.646 2044 45.2106
115.764 2049 45.2659
115.881 1921 43.8292
115.999 1937 44.0114
116.116 1890 43.4741
116.234 2070 45.4973
116.351 2206 46.9681
116.469 2229 47.2123
116.586 2365 48.6313
116.704 2146 46.3249
116.821 2327 48.239
116.939 2265 47.592
117.056 2135 46.2061
117.174 2007 44.7996
117.291 1783 42.2256
117.409 1663 40.7799
117.526 1566 39.5727
117.644 1631 40.3856
117.761 1727 41.5572
117.879 1871 43.2551
117.996 1986 44.5646
118.114 2034 45.0999
118.231 2199 46.8935
118.349 2092 45.7384
118.466 2126 46.1086
118.584 2191 46.8081
118.701 2194 46.8402
118.819 2199 46.8935
118.936 2240 47.3286
119.053 2169 46.5725
119.171 2078 45.5851
119.288 2046 45.2327
119.405 1879 43.3474
119.523 1828 42.7551
119.64 1866 43.1972
119.757 1807 42.5088
119.875 1956 44.2267
119.992 2029 45.0444
120.109 2134 46.1952
120.226 2163 46.5081
120.343 2141 46.2709
120.46 2114 45.9783
120.578 2233 47.2546
120.695 2132 46.1736
120.812 1895 43.5316
120.929 1811 42.5558
121.046 1624 40.2989
121.163 1563 39.5348
121.279 1500 38.7298
121.396 1547 39.3319
121.513 1584 39.7995
121.63 1637 40.4599
121.747 1629 40.3609
121.863 1634 40.4228
121.98 1749 41.821
122.097 1746 41.7852
122.213 1608 40.0999
122.33 1683 41.0244
122.446 1679 40.9756
122.563 1515 38.923
122.679 1501 38.7427
122.795 1333 36.5103
122.912 1170 34.2053
123.028 1123 33.5112
123.144 1021 31.9531
123.26 894 29.8998
123.377 0 1
123.493 0 1
123.609 0 1
123.725 0 1
123.84 0 1
123.956 0 1
124.072 0 1
124.188 0 1
124.303 0 1
124.419 0 1
126.852 0 1
126.968 0 1
127.083 0 1
127.199 0 1
127.315 0 1
127.431 0 1
127.547 0 1
127.663 0 1
127.779 0 1
127.895 0 1
128.011 0 1
128.127 0 1
128.243 0 1
128.359 2035 45.111
128.476 1978 44.4747
128.592 1953 44.1928
128.708 2036 45.1221
128.825 2025 45
128.941 2172 46.6047
129.058 2243 47.3603
129.174 2316 48.1248
129.291 2327 48.239
129.408 2325 48.2183
129.524 2360 48.5798
129.641 2356 48.5386
129.758 2192 46.8188
129.875 2120 46.0435
129.992 1915 43.7607
130.108 1774 42.1189
130.225 1695 41.1704
130.342 1662 40.7676
130.459 1743 41.7493
130.576 1965 44.3283
130.693 2096 45.7821
130.81 2054 45.3211
130.928 2233 47.2546
131.045 2226 47.1805
131.162 2330 48.2701
131.279 2312 48.0833
131.396 2364 48.621
131.513 2300 47.9583
131.631 2233 47.2546
131.748 2169 46.5725
131.865 2177 46.6583
131.983 2140 46.2601
132.1 2116 46
132.217 2073 45.5302
132.335 2121 46.0543
132.452 2134 46.1952
132.57 2168 46.5618
132.687 2415 49.1426
132.804 2317 48.1352
132.922 2328 48.2494
133.039 2316 48.1248
133.157 2412 49.1121
133.274 2358 48.5592
133.392 2219 47.1063
133.509 2112 45.9565
133.627 1936 44
133.744 1838 42.8719
133.862 1699 41.2189
133.979 1839 42.8836
134.097 1947 44.1248
134.214 2059 45.3762
134.332 2149 46.3573
134.449 2204 46.9468
134.567 2184 46.7333
134.684 2349 48.4665
134.802 2354 48.518
134.919 2298 47.9375
135.037 2256 47.4974
135.154 2286 47.8121
135.272 2161 46.4866
135.389 2174 46.6262
135.507 2122 46.0652
135.624 2131 46.1628
135.742 2044 45.2106
135.859 2076 45.5631
135.977 2098 45.8039
136.094 2099 45.8148
136.211 2250 47.4342
136.329 2360 48.5798
136.446 2386 48.8467
136.564 2394 48.9285
136.681 2418 49.1732
136.798 2345 48.4252
136.915 2398 48.9694
137.033 2298 47.9375
137.15 2072 45.5192
137.267 1954 44.2041
137.384 1732 41.6173
137.502 1728 41.5692
137.619 1782 42.2137
137.736 1946 44.1135
137.853 1979 44.486
137.97 2034 45.0999
138.087 2102 45.8476
138.204 2247 47.4025
138.321 2230 47.2229
138.438 2257 47.5079
138.555 2308 48.0416
138.672 2387 48.8569
138.788 2256 47.4974
138.905 2145 46.3141
139.022 1977 44.4635
139.139 1828 42.7551
139.255 1829 42.7668
139.372 1717 41.4367
139.488 1593 39.9124
139.605 1573 39.6611
139.721 1589 39.8623
139.838 1609 40.1123
139.954 1643 40.5339
140.071 1490 38.6005
140.187 1452 38.1051
140.303 1323 36.3731
140.419 1225 35
140.535 1194 34.5543
140.652 1005 31.7017
140.768 0 1
140.884 0 1
141 0 1
141.115 0 1
141.231 0 1
141.347 0 1
141.463 0 1
141.578 0 1
141.694 0 1
144.104 0 1
144.219 0 1
144.335 0 1
144.45 0 1
144.566 0 1
144.682 0 1
144.798 0 1
144.914 0 1
145.03 0 1
145.146 1660 40.7431
145.262 1830 42.7785
145.378 1867 43.2088
145.494 1852 43.0349
145.61 1847 42.9767
145.726 1819 42.6497
145.842 1650 40.6202
145.959 1618 40.2244
146.075 1447 38.0395
146.192 1469 38.3275
146.308 1393 37.3229
146.425 1467 38.3014
146.541 1496 38.6782
146.658 1608 40.0999
146.774 1628 40.3485
146.891 1635 40.4351
147.008 1791 42.3202
147.125 1702 41.2553
147.241 1718 41.4488
147.358 1776 42.1426
147.475 1753 41.8688
147.592 1797 42.391
147.709 1682 41.0122
147.826 1718 41.4488
147.943 1653 40.6571
148.06 1661 40.7554
148.177 1626 40.3237
148.294 1579 39.7366
148.411 1606 40.0749
148.528 1722 41.497
148.645 1845 42.9535
148.762 1822 42.6849
148.88 1791 42.3202
148.997 1902 43.6119
149.114 1830 42.7785
149.231 1834 42.8252
149.349 1827 42.7434
149.466 1764 42
149.583 1587 39.8372
149.701 1543 39.281
149.818 1419 37.6696
149.935 1396 37.3631
150.053 1466 38.2884
150.17 1443 37.9868
150.287 1538 39.2173
150.405 1563 39.5348
150.522 1661 40.7554
150.64 1666 40.8167
150.757 1786 42.2611
150.875 1747 41.7971
150.992 1745 41.7732
151.11 1734 41.6413
151.227 1680 40.9878
151.344 1684 41.0366
151.462 1651 40.6325
151.579 1599 39.9875
151.697 1581 39.7618
151.814 1569 39.6106
151.932 1547 39.3319
152.049 1558 39.4715
152.167 1603 40.0375
152.284 1688 41.0853
152.402 1674 40.9145
152.519 1780 42.19
152.636 1830 42.7785
152.754 1768 42.0476
152.871 1694 41.1582
152.989 1772 42.0951
153.106 1688 41.0853
153.223 1565 39.5601
153.341 1415 37.6165
153.458 1320 36.3318
153.575 1379 37.1349
153.693 1346 36.6879
153.81 1468 38.3145
153.927 1512 38.8844
154.044 1577 39.7115
154.162 1577 39.7115
154.279 1526 39.064
154.396 1654 40.6694
154.513 1619 40.2368
154.63 1614 40.1746
154.747 1645 40.5586
154.864 1593 39.9124
154.981 1544 39.2938
155.098 1523 39.0256
155.215 1459 38.1969
155.332 1469 38.3275
155.449 1452 38.1051
155.566 1424 37.7359
155.683 1433 37.855
155.8 1475 38.4057
155.917 1456 38.1576
156.033 1472 38.3667
156.15 0 1
156.267 0 1
156.383 0 1
156.5 0 1
156.617 0 1
156.733 0 1
156.85 0 1
156.966 0 1
157.082 0 1
157.199 0 1
157.315 0 1
157.431 0 1
157.547 0 1
157.664 0 1
157.78 0 1
157.896 0 1
158.012 0 1
158.128 0 1
158.244 0 1
158.359 0 1
158.475 0 1
158.591 0 1
158.706 0 1
