
6.15755 0 1
6.2731 0 1
6.3887 0 1
6.50437 0 1
6.62009 0 1
6.73587 0 1
6.8517 0 1
6.96759 0 1
7.08353 0 1
7.19952 0 1
7.31557 0 1
7.43166 0 1
7.54781 0 1
7.664 0 1
7.78024 0 1
7.89653 0 1
8.01286 0 1
8.12924 0 1
8.24567 0 1
8.36213 0 1
8.47864 0 1
8.59519 0 1
8.71178 0 1
8.82841 0 1
8.94508 0 1
9.06179 0 1
9.17853 0 1
9.29531 0 1
9.41212 0 1
9.52897 0 1
9.64584 0 1
9.76276 0 1
9.8797 0 1
9.99667 0 1
10.1137 0 1
10.2307 0 1
10.3478 0 1
10.4648 0 1
10.5819 0 1
10.6991 0 1
10.8162 0 1
10.9334 0 1
11.0506 0 1
11.1678 0 1
11.285 0 1
11.4023 0 1
11.5196 0 1
11.6369 0 1
11.7542 0 1
11.8715 0 1
11.9888 0 1
12.1062 0 1
12.2235 0 1
12.3409 0 1
12.4582 0 1
12.5756 0 1
12.693 0 1
12.8104 0 1
12.9278 0 1
13.0452 0 1
13.1626 0 1
13.28 0 1
13.3974 0 1
13.5149 0 1
13.6323 0 1
13.7497 0 1
13.8671 0 1
13.9845 0 1
14.1019 0 1
14.2193 0 1
14.3367 0 1
14.4541 0 1
14.5714 0 1
14.6888 0 1
14.8062 0 1
14.9235 0 1
15.0408 667 25.8263
15.1581 751 27.4044
15.2755 853 29.2062
15.3927 819 28.6182
15.51 828 28.775
15.6273 774 27.8209
15.7445 809 28.4429
15.8617 874 29.5635
15.9789 798 28.2489
16.0961 829 28.7924
16.2132 807 28.4077
16.3304 746 27.313
16.4475 731 27.037
16.5646 748 27.3496
16.6816 691 26.2869
16.7986 729 27
16.9156 772 27.7849
17.0326 717 26.7769
17.1496 700 26.4575
17.2665 756 27.4955
17.3833 722 26.8701
17.5002 705 26.5518
17.617 621 24.9199
17.7338 646 25.4165
17.8505 733 27.074
17.9672 720 26.8328
18.0839 876 29.5973
18.2005 826 28.7402
18.3171 897 29.95
18.4337 848 29.1204
18.5502 909 30.1496
18.6666 938 30.6268
18.7831 907 30.1164
18.8994 864 29.3939
19.0158 842 29.0172
19.1321 841 29
19.2483 783 27.9821
19.3645 749 27.3679
19.4806 799 28.2666
19.5967 749 27.3679
19.7128 760 27.5681
19.8288 755 27.4773
19.9447 658 25.6515
20.0606 0 1
20.1764 0 1
20.2922 0 1
20.4079 0 1
20.5236 0 1
20.6392 0 1
20.7548 0 1
20.8702 0 1
23.3078 0 1
23.4233 0 1
23.539 0 1
23.6547 0 1
23.7704 0 1
23.8862 0 1
24.0021 0 1
24.118 0 1
24.234 0 1
24.35 0 1
24.4661 744 27.2764
24.5822 678 26.0384
24.6984 743 27.258
24.8146 748 27.3496
24.9309 728 26.9815
25.0472 721 26.8514
25.1636 716 26.7582
25.28 756 27.4955
25.3965 771 27.7669
25.513 779 27.9106
25.6296 827 28.7576
25.7462 823 28.688
25.8628 843 29.0345
25.9795 798 28.2489
26.0962 817 28.5832
26.213 825 28.7228
26.3298 847 29.1033
26.4466 843 29.0345
26.5635 818 28.6007
26.6804 768 27.7128
26.7973 771 27.7669
26.9143 761 27.5862
27.0313 744 27.2764
27.1483 791 28.1247
27.2653 727 26.9629
27.3824 751 27.4044
27.4996 785 28.0179
27.6167 768 27.7128
27.7339 735 27.1109
27.8511 776 27.8568
27.9683 745 27.2947
28.0855 756 27.4955
28.2028 812 28.4956
28.3201 728 26.9815
28.4374 709 26.6271
28.5547 716 26.7582
28.6721 789 28.0891
28.7894 744 27.2764
28.9068 722 26.8701
29.0242 780 27.9285
29.1416 768 27.7128
29.259 759 27.55
29.3764 767 27.6948
29.4939 725 26.9258
29.6113 658 25.6515
29.7288 713 26.7021
29.8463 625 25
29.9638 617 24.8395
30.0812 652 25.5343
30.1987 678 26.0384
30.3162 703 26.5141
30.4337 713 26.7021
30.5512 709 26.6271
30.6687 715 26.7395
30.7862 732 27.0555
30.9037 739 27.1846
31.0212 720 26.8328
31.1387 787 28.0535
31.2562 765 27.6586
31.3737 750 27.3861
31.4912 716 26.7582
31.6087 736 27.1293
31.7262 755 27.4773
31.8436 731 27.037
31.9611 722 26.8701
32.0785 690 26.2679
32.1959 702 26.4953
32.3134 684 26.1534
32.4308 746 27.313
32.5482 703 26.5141
32.6655 706 26.5707
32.7829 699 26.4386
32.9002 652 25.5343
33.0176 639 25.2784
33.1349 633 25.1595
33.2522 617 24.8395
33.3694 645 25.3969
33.4867 585 24.1868
33.6039 622 24.9399
33.7211 652 25.5343
33.8383 641 25.318
33.9554 637 25.2389
34.0725 637 25.2389
34.1896 706 26.5707
34.3067 696 26.3818
34.4237 706 26.5707
34.5407 727 26.9629
34.6577 768 27.7128
34.7746 782 27.9643
34.8915 746 27.313
35.0084 758 27.5318
35.1252 773 27.8029
35.242 747 27.3313
35.3587 774 27.8209
35.4755 706 26.5707
35.5921 755 27.4773
35.7088 734 27.0924
35.8254 699 26.4386
35.9419 691 26.2869
36.0584 680 26.0768
36.1749 677 26.0192
36.2913 640 25.2982
36.4077 656 25.6125
36.524 573 23.9374
36.6403 595 24.3926
36.7565 594 24.3721
36.8727 579 24.0624
36.9889 592 24.3311
37.1049 573 23.9374
37.221 0 1
37.3369 0 1
37.4529 0 1
37.5687 0 1
37.6845 0 1
37.8003 0 1
37.916 0 1
38.0316 0 1
38.1472 0 1
40.5851 0 1
40.7008 0 1
40.8164 0 1
40.9322 0 1
41.048 0 1
41.1639 0 1
41.2798 0 1
41.3958 0 1
41.5118 0 1
41.6279 0 1
41.744 442 21.0238
41.8602 489 22.1133
41.9765 505 22.4722
42.0928 479 21.8861
42.2091 464 21.5407
42.3255 475 21.7945
42.4419 424 20.5913
42.5584 445 21.095
42.675 502 22.4054
42.7915 492 22.1811
42.9081 517 22.7376
43.0248 535 23.1301
43.1415 521 22.8254
43.2582 516 22.7156
43.375 548 23.4094
43.4918 557 23.6008
43.6087 558 23.622
43.7256 542 23.2809
43.8425 537 23.1733
43.9595 524 22.891
44.0765 505 22.4722
44.1935 518 22.7596
44.3106 477 21.8403
44.4277 442 21.0238
44.5448 461 21.4709
44.6619 463 21.5174
44.7791 455 21.3307
44.8963 435 20.8567
45.0136 425 20.6155
45.1308 430 20.7364
45.2481 438 20.9284
45.3654 433 20.8087
45.4827 407 20.1742
45.6001 384 19.5959
45.7174 401 20.025
45.8348 361 19
45.9522 340 18.4391
46.0697 341 18.4662
46.1871 325 18.0278
46.3046 355 18.8414
46.422 372 19.2873
46.5395 416 20.3961
46.657 397 19.9249
46.7745 381 19.5192
46.892 415 20.3715
47.0096 388 19.6977
47.1271 397 19.9249
47.2446 381 19.5192
47.3622 364 19.0788
47.4797 364 19.0788
47.5973 361 19
47.7149 341 18.4662
47.8324 331 18.1934
47.95 340 18.4391
48.0675 349 18.6815
48.1851 325 18.0278
48.3027 307 17.5214
48.4202 343 18.5203
48.5378 336 18.3303
48.6554 336 18.3303
48.7729 367 19.1572
48.8904 331 18.1934
49.008 335 18.303
49.1255 342 18.4932
49.243 269 16.4012
49.3605 310 17.6068
49.478 302 17.3781
49.5955 310 17.6068
49.713 288 16.9706
49.8304 335 18.303
49.9479 413 20.3224
50.0653 338 18.3848
50.1827 372 19.2873
50.3001 323 17.9722
50.4175 337 18.3576
50.5348 359 18.9473
50.6521 371 19.2614
50.7694 373 19.3132
50.8867 378 19.4422
51.004 381 19.5192
51.1212 388 19.6977
51.2384 368 19.1833
51.3556 385 19.6214
51.4727 363 19.0526
51.5899 409 20.2237
51.707 427 20.664
51.824 442 21.0238
51.9411 382 19.5448
52.0581 398 19.9499
52.175 425 20.6155
52.2919 437 20.9045
52.4088 399 19.975
52.5257 466 21.587
52.6425 451 21.2368
52.7593 418 20.445
52.876 422 20.5426
52.9927 370 19.2354
53.1094 383 19.5704
53.226 378 19.4422
53.3426 429 20.7123
53.4591 459 21.4243
53.5756 464 21.5407
53.692 493 22.2036
53.8084 478 21.8632
53.9248 427 20.664
54.0411 444 21.0713
54.1573 482 21.9545
54.2735 0 1
54.3896 0 1
54.5057 0 1
54.6217 0 1
54.7377 0 1
54.8537 0 1
54.9695 0 1
55.0853 0 1
55.2011 0 1
55.3168 0 1
55.4324 0 1
57.824 0 1
57.9396 0 1
58.0553 0 1
58.1711 0 1
58.2869 0 1
58.4028 0 1
58.5187 0 1
58.6347 0 1
58.7508 0 1
58.8669 0 1
58.983 522 22.8473
59.0992 518 22.7596
59.2155 531 23.0434
59.3318 531 23.0434
59.4482 533 23.0868
59.5646 527 22.9565
59.681 569 23.8537
59.7975 535 23.1301
59.9141 563 23.7276
60.0306 532 23.0651
60.1473 542 23.2809
60.2639 505 22.4722
60.3807 532 23.0651
60.4974 554 23.5372
60.6142 524 22.891
60.731 534 23.1084
60.8479 553 23.516
60.9648 502 22.4054
61.0818 512 22.6274
61.1987 532 23.0651
61.3158 524 22.891
61.4328 463 21.5174
61.5499 429 20.7123
61.667 402 20.0499
61.7841 403 20.0749
61.9013 431 20.7605
62.0185 502 22.4054
62.1357 459 21.4243
62.253 475 21.7945
62.3702 451 21.2368
62.4875 452 21.2603
62.6049 461 21.4709
62.7222 463 21.5174
62.8396 483 21.9773
62.9569 485 22.0227
63.0743 494 22.2261
63.1918 493 22.2036
63.3092 494 22.2261
63.4267 508 22.5389
63.5441 492 22.1811
63.6616 494 22.2261
63.7791 447 21.1424
63.8966 425 20.6155
64.0142 499 22.3383
64.1317 484 22
64.2492 452 21.2603
64.3668 495 22.2486
64.4843 464 21.5407
64.6019 509 22.561
64.7195 465 21.5639
64.837 452 21.2603
64.9546 431 20.7605
65.0722 405 20.1246
65.1898 350 18.7083
65.3074 400 20
65.4249 397 19.9249
65.5425 403 20.0749
65.6601 420 20.4939
65.7777 429 20.7123
65.8952 434 20.8327
66.0128 426 20.6398
66.1304 402 20.0499
66.2479 442 21.0238
66.3655 489 22.1133
66.483 473 21.7486
66.6005 495 22.2486
66.718 509 22.561
66.8355 499 22.3383
66.953 480 21.9089
67.0705 451 21.2368
67.1879 453 21.2838
67.3054 430 20.7364
67.4228 487 22.0681
67.5402 423 20.567
67.6576 439 20.9523
67.7749 447 21.1424
67.8923 497 22.2935
68.0096 474 21.7715
68.1269 522 22.8473
68.2442 495 22.2486
68.3614 469 21.6564
68.4787 447 21.1424
68.5958 442 21.0238
68.713 399 19.975
68.8302 407 20.1742
68.9473 406 20.1494
69.0643 392 19.799
69.1814 455 21.3307
69.2984 430 20.7364
69.4154 506 22.4944
69.5323 433 20.8087
69.6492 437 20.9045
69.7661 424 20.5913
69.8829 447 21.1424
69.9997 488 22.0907
70.1165 552 23.4947
70.2332 541 23.2594
70.3499 523 22.8692
70.4665 530 23.0217
70.5831 570 23.8747
70.6996 529 23
70.8161 523 22.8692
70.9326 492 22.1811
71.049 507 22.5167
71.1653 502 22.4054
71.2817 458 21.4009
71.3979 568 23.8328
71.5141 501 22.383
71.6303 497 22.2935
71.7464 496 22.2711
71.8624 0 1
71.9784 0 1
72.0944 0 1
72.2102 0 1
72.3261 0 1
72.4418 0 1
72.5575 0 1
72.6732 0 1
75.1054 0 1
75.2209 0 1
75.3365 0 1
75.4521 0 1
75.5678 0 1
75.6835 0 1
75.7993 0 1
75.9151 0 1
76.031 0 1
76.147 516 22.7156
76.263 495 22.2486
76.3791 504 22.4499
76.4952 510 22.5832
76.6113 498 22.3159
76.7276 534 23.1084
76.8438 524 22.891
76.9601 520 22.8035
77.0765 555 23.5584
77.1929 577 24.0208
77.3093 571 23.8956
77.4258 543 23.3024
77.5423 506 22.4944
77.6589 489 22.1133
77.7755 441 21
77.8921 453 21.2838
78.0088 471 21.7025
78.1256 487 22.0681
78.2423 460 21.4476
78.3591 524 22.891
78.4759 470 21.6795
78.5928 498 22.3159
78.7097 450 21.2132
78.8266 360 18.9737
78.9436 438 20.9284
79.0606 516 22.7156
79.1776 567 23.8118
79.2946 522 22.8473
79.4117 567 23.8118
79.5288 572 23.9165
79.6459 515 22.6936
79.7631 519 22.7816
79.8802 529 23
79.9974 497 22.2935
80.1147 497 22.2935
80.2319 479 21.8861
80.3491 518 22.7596
80.4664 507 22.5167
80.5837 556 23.5797
80.701 542 23.2809
80.8183 532 23.0651
80.9357 543 23.3024
81.053 509 22.561
81.1704 516 22.7156
81.2877 462 21.4942
81.4051 462 21.4942
81.5225 425 20.6155
81.6399 420 20.4939
81.7573 454 21.3073
81.8747 471 21.7025
81.9922 487 22.0681
82.1096 500 22.3607
82.227 522 22.8473
82.3444 397 19.9249
82.4619 394 19.8494
82.5793 464 21.5407
82.6967 489 22.1133
82.8142 494 22.2261
82.9316 585 24.1868
83.049 532 23.0651
83.1664 460 21.4476
83.2838 470 21.6795
83.4012 485 22.0227
83.5186 505 22.4722
83.636 482 21.9545
83.7534 472 21.7256
83.8708 472 21.7256
83.9881 489 22.1133
84.1055 495 22.2486
84.2228 543 23.3024
84.3401 523 22.8692
84.4575 551 23.4734
84.5747 485 22.0227
84.692 530 23.0217
84.8093 504 22.4499
84.9265 486 22.0454
85.0437 402 20.0499
85.1609 436 20.8806
85.2781 469 21.6564
85.3952 464 21.5407
85.5123 494 22.2261
85.6294 522 22.8473
85.7465 567 23.8118
85.8636 499 22.3383
85.9806 434 20.8327
86.0976 441 21
86.2145 467 21.6102
86.3315 582 24.1247
86.4484 576 24
86.5652 627 25.04
86.682 620 24.8998
86.7988 584 24.1661
86.9156 611 24.7184
87.0323 566 23.7908
87.149 574 23.9583
87.2657 588 24.2487
87.3823 591 24.3105
87.4988 615 24.7992
87.6154 637 25.2389
87.7318 654 25.5734
87.8483 638 25.2587
87.9647 676 26
88.081 708 26.6083
88.1973 674 25.9615
88.3136 681 26.096
88.4298 578 24.0416
88.546 573 23.9374
88.6621 558 23.622
88.7781 557 23.6008
88.8942 0 1
89.0101 0 1
89.126 0 1
89.2419 0 1
89.3577 0 1
89.4734 0 1
89.5891 0 1
89.7047 0 1
89.8203 0 1
89.9358 0 1
92.3269 0 1
92.4424 0 1
92.558 0 1
92.6736 0 1
92.7893 0 1
92.905 0 1
93.0208 0 1
93.1366 0 1
93.2525 0 1
93.3685 0 1
93.4845 0 1
93.6005 753 27.4408
93.7167 728 26.9815
93.8328 689 26.2488
93.949 631 25.1197
94.0653 664 25.7682
94.1816 639 25.2784
94.2979 645 25.3969
94.4143 664 25.7682
94.5307 626 25.02
94.6472 723 26.8887
94.7637 700 26.4575
94.8803 709 26.6271
94.9969 744 27.2764
95.1135 625 25
95.2302 597 24.4336
95.3469 650 25.4951
95.4637 734 27.0924
95.5805 687 26.2107
95.6973 729 27
95.8142 774 27.8209
95.9311 793 28.1603
96.048 745 27.2947
96.1649 776 27.8568
96.2819 762 27.6043
96.3989 707 26.5895
96.516 749 27.3679
96.633 789 28.0891
96.7501 764 27.6405
96.8673 782 27.9643
96.9844 791 28.1247
97.1016 816 28.5657
97.2188 832 28.8444
97.336 827 28.7576
97.4532 800 28.2843
97.5704 770 27.7489
97.6877 722 26.8701
97.805 691 26.2869
97.9223 666 25.807
98.0396 712 26.6833
98.1569 729 27
98.2743 744 27.2764
98.3916 816 28.5657
98.509 790 28.1069
98.6264 753 27.4408
98.7438 722 26.8701
98.8612 631 25.1197
98.9786 677 26.0192
99.096 818 28.6007
99.2134 815 28.5482
99.3308 801 28.3019
99.4482 863 29.3769
99.5656 834 28.8791
99.6831 817 28.5832
99.8005 790 28.1069
99.9179 800 28.2843
100.035 791 28.1247
100.153 782 27.9643
100.27 801 28.3019
100.388 766 27.6767
100.505 820 28.6356
100.622 871 29.5127
100.74 911 30.1828
100.857 860 29.3258
100.975 865 29.4109
101.092 825 28.7228
101.209 809 28.4429
101.327 834 28.8791
101.444 765 27.6586
101.561 697 26.4008
101.679 742 27.2397
101.796 822 28.6705
101.913 908 30.133
102.03 889 29.8161
102.148 921 30.348
102.265 808 28.4253
102.382 779 27.9106
102.499 770 27.7489
102.616 830 28.8097
102.733 958 30.9516
102.851 942 30.692
102.968 922 30.3645
103.085 930 30.4959
103.202 914 30.2324
103.319 924 30.3974
103.436 934 30.5614
103.552 929 30.4795
103.669 881 29.6816
103.786 953 30.8707
103.903 925 30.4138
104.02 936 30.5941
104.137 963 31.0322
104.253 1003 31.6702
104.37 1064 32.619
104.487 1047 32.3574
104.603 1064 32.619
104.72 937 30.6105
104.836 891 29.8496
104.953 956 30.9192
105.069 884 29.7321
105.186 962 31.0161
105.302 965 31.0644
105.418 997 31.5753
105.535 1034 32.1559
105.651 1029 32.078
105.767 948 30.7896
105.883 883 29.7153
105.999 933 30.545
106.115 0 1
106.231 0 1
106.347 0 1
106.463 0 1
106.579 0 1
106.694 0 1
106.81 0 1
106.926 0 1
107.041 0 1
107.157 0 1
109.576 0 1
109.692 0 1
109.807 0 1
109.923 0 1
110.039 0 1
110.155 0 1
110.27 0 1
110.386 0 1
110.502 0 1
110.618 1070 32.7109
110.735 991 31.4802
110.851 969 31.1288
110.967 887 29.7825
111.083 962 31.0161
111.199 1022 31.9687
111.316 1072 32.7414
111.432 1098 33.1361
111.549 1057 32.5115
111.665 1054 32.4654
111.782 1009 31.7648
111.898 1045 32.3265
112.015 1023 31.9844
112.132 979 31.289
112.248 991 31.4802
112.365 954 30.8869
112.482 974 31.209
112.599 1050 32.4037
112.716 1061 32.573
112.832 1139 33.7491
112.949 1100 33.1662
113.066 1065 32.6343
113.183 1129 33.6006
113.3 1058 32.5269
113.417 1017 31.8904
113.534 1029 32.078
113.652 1012 31.8119
113.769 996 31.5595
113.886 1000 31.6228
114.003 1008 31.749
114.12 1011 31.7962
114.238 1069 32.6956
114.355 932 30.5287
114.472 874 29.5635
114.589 927 30.4467
114.707 1020 31.9374
114.824 997 31.5753
114.942 1053 32.45
115.059 1077 32.8177
115.176 1051 32.4191
115.294 1070 32.7109
115.411 983 31.3528
115.529 1010 31.7805
115.646 1014 31.8434
115.764 1040 32.249
115.881 969 31.1288
115.999 1011 31.7962
116.116 1007 31.7333
116.234 1107 33.2716
116.351 1135 33.6898
116.469 1102 33.1964
116.586 1237 35.171
116.704 1171 34.2199
116.821 1210 34.7851
116.939 1163 34.1028
117.056 1085 32.9393
117.174 1133 33.6601
117.291 1125 33.541
117.409 1113 33.3617
117.526 1124 33.5261
117.644 1120 33.4664
117.761 1116 33.4066
117.879 1165 34.1321
117.996 1043 32.2955
118.114 1003 31.6702
118.231 1039 32.2335
118.349 1108 33.2866
118.466 1109 33.3017
118.584 1059 32.5423
118.701 1134 33.6749
118.819 1128 33.5857
118.936 1065 32.6343
119.053 1106 33.2566
119.171 1076 32.8024
119.288 1091 33.0303
119.405 1049 32.3883
119.523 1076 32.8024
119.64 1070 32.7109
119.757 1080 32.8634
119.875 1151 33.9264
119.992 1194 34.5543
120.109 1180 34.3511
120.226 1186 34.4384
120.343 1158 34.0294
120.46 1253 35.3977
120.578 1121 33.4813
120.695 1164 34.1174
120.812 1095 33.0908
120.929 1213 34.8281
121.046 1151 33.9264
121.163 1077 32.8177
121.279 1152 33.9411
121.396 1155 33.9853
121.513 1215 34.8569
121.63 1125 33.541
121.747 1046 32.3419
121.863 1060 32.5576
121.98 1063 32.6037
122.097 1153 33.9559
122.213 1172 34.2345
122.33 1088 32.9848
122.446 1149 33.8969
122.563 1068 32.6803
122.679 1064 32.619
122.795 1076 32.8024
122.912 1131 33.6303
123.028 1045 32.3265
123.144 995 31.5436
123.26 945 30.7409
123.377 0 1
123.493 0 1
123.609 0 1
123.725 0 1
123.84 0 1
123.956 0 1
124.072 0 1
124.188 0 1
124.303 0 1
124.419 0 1
126.852 0 1
126.968 0 1
127.083 0 1
127.199 0 1
127.315 0 1
127.431 0 1
127.547 0 1
127.663 0 1
127.779 0 1
127.895 0 1
128.011 0 1
128.127 0 1
128.243 0 1
128.359 1274 35.6931
128.476 1210 34.7851
128.592 1330 36.4692
128.708 1238 35.1852
128.825 1279 35.7631
128.941 1303 36.0971
129.058 1294 35.9722
129.174 1316 36.2767
129.291 1281 35.7911
129.408 1306 36.1386
129.524 1335 36.5377
129.641 1349 36.7287
129.758 1368 36.9865
129.875 1404 37.47
129.992 1409 37.5366
130.108 1390 37.2827
130.225 1484 38.5227
130.342 1496 38.6782
130.459 1438 37.921
130.576 1432 37.8418
130.693 1315 36.2629
130.81 1294 35.9722
130.928 1360 36.8782
131.045 1463 38.2492
131.162 1479 38.4578
131.279 1482 38.4968
131.396 1513 38.8973
131.513 1437 37.9078
131.631 1444 38
131.748 1490 38.6005
131.865 1439 37.9342
131.983 1421 37.6962
132.1 1399 37.4032
132.217 1389 37.2693
132.335 1414 37.6032
132.452 1405 37.4833
132.57 1349 36.7287
132.687 1387 37.2424
132.804 1397 37.3765
132.922 1396 37.3631
133.039 1387 37.2424
133.157 1445 38.0132
133.274 1408 37.5233
133.392 1384 37.2022
133.509 1527 39.0768
133.627 1436 37.8946
133.744 1579 39.7366
133.862 1593 39.9124
133.979 1561 39.5095
134.097 1494 38.6523
134.214 1520 38.9872
134.332 1435 37.8814
134.449 1485 38.5357
134.567 1579 39.7366
134.684 1571 39.6358
134.802 1661 40.7554
134.919 1656 40.694
135.037 1611 40.1373
135.154 1678 40.9634
135.272 1579 39.7366
135.389 1615 40.1871
135.507 1566 39.5727
135.624 1502 38.7556
135.742 1487 38.5616
135.859 1454 38.1314
135.977 1454 38.1314
136.094 1474 38.3927
136.211 1451 38.092
136.329 1500 38.7298
136.446 1534 39.1663
136.564 1497 38.6911
136.681 1496 38.6782
136.798 1538 39.2173
136.915 1516 38.9358
137.033 1503 38.7685
137.15 1537 39.2046
137.267 1529 39.1024
137.384 1474 38.3927
137.502 1642 40.5216
137.619 1547 39.3319
137.736 1584 39.7995
137.853 1615 40.1871
137.97 1581 39.7618
138.087 1611 40.1373
138.204 1683 41.0244
138.321 1701 41.2432
138.438 1770 42.0714
138.555 1734 41.6413
138.672 1789 42.2966
138.788 1671 40.8779
138.905 1724 41.5211
139.022 1754 41.8808
139.139 1679 40.9756
139.255 1603 40.0375
139.372 1562 39.5221
139.488 1539 39.2301
139.605 1559 39.4842
139.721 1576 39.6989
139.838 1532 39.1408
139.954 1641 40.5093
140.071 1562 39.5221
140.187 1641 40.5093
140.303 1546 39.3192
140.419 1624 40.2989
140.535 1513 38.8973
140.652 1504 38.7814
140.768 0 1
140.884 0 1
141 0 1
141.115 0 1
141.231 0 1
141.347 0 1
141.463 0 1
141.578 0 1
141.694 0 1
144.104 0 1
144.219 0 1
144.335 0 1
144.45 0 1
144.566 0 1
144.682 0 1
144.798 0 1
144.914 0 1
145.03 0 1
145.146 1226 35.0143
145.262 1343 36.647
145.378 1385 37.2156
145.494 1317 36.2905
145.61 1386 37.229
145.726 1397 37.3765
145.842 1388 37.2559
145.959 1403 37.4566
146.075 1448 38.0526
146.192 1457 38.1707
146.308 1355 36.8103
146.425 1428 37.7889
146.541 1348 36.7151
146.658 1313 36.2353
146.774 1292 35.9444
146.891 1269 35.623
147.008 1225 35
147.125 1301 36.0694
147.241 1330 36.4692
147.358 1373 37.054
147.475 1343 36.647
147.592 1387 37.2424
147.709 1338 36.5787
147.826 1425 37.7492
147.943 1417 37.6431
148.06 1340 36.606
148.177 1459 38.1969
148.294 1367 36.973
148.411 1421 37.6962
148.528 1444 38
148.645 1478 38.4448
148.762 1508 38.833
148.88 1502 38.7556
148.997 1505 38.7943
149.114 1528 39.0896
149.231 1556 39.4462
149.349 1577 39.7115
149.466 1530 39.1152
149.583 1557 39.4588
149.701 1534 39.1663
149.818 1602 40.025
149.935 1554 39.4208
150.053 1446 38.0263
150.17 1545 39.3065
150.287 1568 39.598
150.405 1564 39.5474
150.522 1381 37.1618
150.64 1403 37.4566
150.757 1430 37.8153
150.875 1340 36.606
150.992 1386 37.229
151.11 1400 37.4166
151.227 1332 36.4966
151.344 1304 36.1109
151.462 1224 34.9857
151.579 1263 35.5387
151.697 1187 34.4529
151.814 1161 34.0735
151.932 1253 35.3977
152.049 1283 35.819
152.167 1297 36.0139
152.284 1245 35.2846
152.402 1293 35.9583
152.519 1377 37.108
152.636 1357 36.8375
152.754 1358 36.8511
152.871 1421 37.6962
152.989 1399 37.4032
153.106 1511 38.8716
153.223 1449 38.0657
153.341 1504 38.7814
153.458 1522 39.0128
153.575 1574 39.6737
153.693 1582 39.7744
153.81 1621 40.2616
153.927 1556 39.4462
154.044 1471 38.3536
154.162 1546 39.3192
154.279 1558 39.4715
154.396 1602 40.025
154.513 1636 40.4475
154.63 1623 40.2865
154.747 1615 40.1871
154.864 1617 40.2119
154.981 1628 40.3485
155.098 1589 39.8623
155.215 1512 38.8844
155.332 1446 38.0263
155.449 1427 37.7757
155.566 1280 35.7771
155.683 1300 36.0555
155.8 1265 35.5668
155.917 1248 35.327
156.033 1270 35.6371
156.15 0 1
156.267 0 1
156.383 0 1
156.5 0 1
156.617 0 1
156.733 0 1
156.85 0 1
156.966 0 1
157.082 0 1
157.199 0 1
157.315 0 1
157.431 0 1
157.547 0 1
157.664 0 1
157.78 0 1
157.896 0 1
158.012 0 1
158.128 0 1
158.244 0 1
158.359 0 1
158.475 0 1
158.591 0 1
158.706 0 1
