
6.15755 0 1
6.2731 0 1
6.3887 0 1
6.50437 0 1
6.62009 0 1
6.73587 0 1
6.8517 0 1
6.96759 0 1
7.08353 0 1
7.19952 0 1
7.31557 0 1
7.43166 0 1
7.54781 0 1
7.664 0 1
7.78024 0 1
7.89653 0 1
8.01286 0 1
8.12924 0 1
8.24567 0 1
8.36213 0 1
8.47864 0 1
8.59519 0 1
8.71178 0 1
8.82841 0 1
8.94508 0 1
9.06179 0 1
9.17853 0 1
9.29531 0 1
9.41212 0 1
9.52897 0 1
9.64584 0 1
9.76276 0 1
9.8797 0 1
9.99667 0 1
10.1137 0 1
10.2307 0 1
10.3478 0 1
10.4648 0 1
10.5819 0 1
10.6991 0 1
10.8162 0 1
10.9334 0 1
11.0506 0 1
11.1678 0 1
11.285 0 1
11.4023 0 1
11.5196 0 1
11.6369 0 1
11.7542 0 1
11.8715 0 1
11.9888 0 1
12.1062 0 1
12.2235 0 1
12.3409 0 1
12.4582 0 1
12.5756 0 1
12.693 0 1
12.8104 0 1
12.9278 0 1
13.0452 0 1
13.1626 0 1
13.28 0 1
13.3974 0 1
13.5149 0 1
13.6323 0 1
13.7497 0 1
13.8671 0 1
13.9845 0 1
14.1019 0 1
14.2193 0 1
14.3367 0 1
14.4541 0 1
14.5714 0 1
14.6888 0 1
14.8062 0 1
14.9235 0 1
15.0408 824 28.7054
15.1581 871 29.5127
15.2755 816 28.5657
15.3927 900 30
15.51 897 29.95
15.6273 827 28.7576
15.7445 850 29.1548
15.8617 878 29.6311
15.9789 894 29.8998
16.0961 870 29.4958
16.2132 980 31.305
16.3304 999 31.607
16.4475 1021 31.9531
16.5646 1064 32.619
16.6816 977 31.257
16.7986 1009 31.7648
16.9156 1000 31.6228
17.0326 1034 32.1559
17.1496 958 30.9516
17.2665 1025 32.0156
17.3833 952 30.8545
17.5002 940 30.6594
17.617 969 31.1288
17.7338 1006 31.7175
17.8505 1038 32.218
17.9672 1055 32.4808
18.0839 1119 33.4515
18.2005 1090 33.0151
18.3171 1058 32.5269
18.4337 1163 34.1028
18.5502 1170 34.2053
18.6666 1168 34.176
18.7831 1113 33.3617
18.8994 1122 33.4963
19.0158 1152 33.9411
19.1321 1141 33.7787
19.2483 1064 32.619
19.3645 1059 32.5423
19.4806 1058 32.5269
19.5967 1097 33.121
19.7128 1079 32.8481
19.8288 1076 32.8024
19.9447 1059 32.5423
20.0606 0 1
20.1764 0 1
20.2922 0 1
20.4079 0 1
20.5236 0 1
20.6392 0 1
20.7548 0 1
20.8702 0 1
23.3078 0 1
23.4233 0 1
23.539 0 1
23.6547 0 1
23.7704 0 1
23.8862 0 1
24.0021 0 1
24.118 0 1
24.234 0 1
24.35 0 1
24.4661 1104 33.2265
24.5822 1070 32.7109
24.6984 1086 32.9545
24.8146 1192 34.5254
24.9309 1132 33.6452
25.0472 1208 34.7563
25.1636 1263 35.5387
25.28 1238 35.1852
25.3965 1199 34.6266
25.513 1195 34.5688
25.6296 1225 35
25.7462 1164 34.1174
25.8628 1150 33.9116
25.9795 1188 34.4674
26.0962 1191 34.5109
26.213 1255 35.426
26.3298 1267 35.5949
26.4466 1274 35.6931
26.5635 1297 36.0139
26.6804 1322 36.3593
26.7973 1404 37.47
26.9143 1385 37.2156
27.0313 1385 37.2156
27.1483 1427 37.7757
27.2653 1396 37.3631
27.3824 1413 37.5899
27.4996 1386 37.229
27.6167 1394 37.3363
27.7339 1302 36.0832
27.8511 1252 35.3836
27.9683 1267 35.5949
28.0855 1204 34.6987
28.2028 1176 34.2929
28.3201 1164 34.1174
28.4374 1220 34.9285
28.5547 1207 34.7419
28.6721 1287 35.8748
28.7894 1348 36.7151
28.9068 1296 36
29.0242 1293 35.9583
29.1416 1258 35.4683
29.259 1279 35.7631
29.3764 1166 34.1467
29.4939 1171 34.2199
29.6113 1122 33.4963
29.7288 1152 33.9411
29.8463 1216 34.8712
29.9638 1225 35
30.0812 1302 36.0832
30.1987 1334 36.524
30.3162 1329 36.4555
30.4337 1329 36.4555
30.5512 1415 37.6165
30.6687 1445 38.0132
30.7862 1387 37.2424
30.9037 1419 37.6696
31.0212 1462 38.2361
31.1387 1403 37.4566
31.2562 1375 37.081
31.3737 1278 35.7491
31.4912 1267 35.5949
31.6087 1261 35.5106
31.7262 1288 35.8887
31.8436 1228 35.0428
31.9611 1217 34.8855
32.0785 1363 36.9188
32.1959 1329 36.4555
32.3134 1317 36.2905
32.4308 1409 37.5366
32.5482 1452 38.1051
32.6655 1304 36.1109
32.7829 1308 36.1663
32.9002 1197 34.5977
33.0176 1219 34.9142
33.1349 1238 35.1852
33.2522 1177 34.3074
33.3694 1258 35.4683
33.4867 1305 36.1248
33.6039 1281 35.7911
33.7211 1335 36.5377
33.8383 1333 36.5103
33.9554 1366 36.9594
34.0725 1412 37.5766
34.1896 1471 38.3536
34.3067 1473 38.3797
34.4237 1458 38.1838
34.5407 1475 38.4057
34.6577 1476 38.4187
34.7746 1458 38.1838
34.8915 1415 37.6165
35.0084 1386 37.229
35.1252 1353 36.7831
35.242 1299 36.0416
35.3587 1343 36.647
35.4755 1273 35.6791
35.5921 1191 34.5109
35.7088 1325 36.4005
35.8254 1385 37.2156
35.9419 1323 36.3731
36.0584 1438 37.921
36.1749 1422 37.7094
36.2913 1450 38.0789
36.4077 1366 36.9594
36.524 1315 36.2629
36.6403 1239 35.1994
36.7565 1266 35.5809
36.8727 1129 33.6006
36.9889 1264 35.5528
37.1049 1185 34.4238
37.221 0 1
37.3369 0 1
37.4529 0 1
37.5687 0 1
37.6845 0 1
37.8003 0 1
37.916 0 1
38.0316 0 1
38.1472 0 1
40.5851 0 1
40.7008 0 1
40.8164 0 1
40.9322 0 1
41.048 0 1
41.1639 0 1
41.2798 0 1
41.3958 0 1
41.5118 0 1
41.6279 0 1
41.744 1045 32.3265
41.8602 1054 32.4654
41.9765 1048 32.3728
42.0928 1059 32.5423
42.2091 1037 32.2025
42.3255 1108 33.2866
42.4419 1141 33.7787
42.5584 1261 35.5106
42.675 1260 35.4965
42.7915 1270 35.6371
42.9081 1326 36.4143
43.0248 1331 36.4829
43.1415 1401 37.4299
43.2582 1334 36.524
43.375 1359 36.8646
43.4918 1295 35.9861
43.6087 1330 36.4692
43.7256 1344 36.6606
43.8425 1232 35.0999
43.9595 1218 34.8999
44.0765 1215 34.8569
44.1935 1178 34.322
44.3106 1123 33.5112
44.4277 1095 33.0908
44.5448 1190 34.4964
44.6619 1162 34.0881
44.7791 1174 34.2637
44.8963 1181 34.3657
45.0136 1170 34.2053
45.1308 1067 32.665
45.2481 1038 32.218
45.3654 977 31.257
45.4827 937 30.6105
45.6001 929 30.4795
45.7174 925 30.4138
45.8348 951 30.8383
45.9522 949 30.8058
46.0697 1034 32.1559
46.1871 1029 32.078
46.3046 1041 32.2645
46.422 1118 33.4365
46.5395 1077 32.8177
46.657 1072 32.7414
46.7745 1187 34.4529
46.892 1128 33.5857
47.0096 1157 34.0147
47.1271 1174 34.2637
47.2446 1173 34.2491
47.3622 1063 32.6037
47.4797 1011 31.7962
47.5973 1007 31.7333
47.7149 932 30.5287
47.8324 968 31.1127
47.95 923 30.3809
48.0675 966 31.0805
48.1851 981 31.3209
48.3027 992 31.496
48.4202 964 31.0483
48.5378 930 30.4959
48.6554 905 30.0832
48.7729 857 29.2746
48.8904 847 29.1033
49.008 733 27.074
49.1255 727 26.9629
49.243 750 27.3861
49.3605 819 28.6182
49.478 888 29.7993
49.5955 887 29.7825
49.713 906 30.0998
49.8304 969 31.1288
49.9479 962 31.0161
50.0653 1070 32.7109
50.1827 1049 32.3883
50.3001 1031 32.1092
50.4175 1130 33.6155
50.5348 1085 32.9393
50.6521 1081 32.8786
50.7694 1104 33.2265
50.8867 1062 32.5883
51.004 1111 33.3317
51.1212 1048 32.3728
51.2384 1055 32.4808
51.3556 1007 31.7333
51.4727 1089 33
51.5899 1045 32.3265
51.707 1141 33.7787
51.824 1180 34.3511
51.9411 1165 34.1321
52.0581 1171 34.2199
52.175 1189 34.4819
52.2919 1130 33.6155
52.4088 1082 32.8938
52.5257 990 31.4643
52.6425 1088 32.9848
52.7593 1065 32.6343
52.876 1132 33.6452
52.9927 1109 33.3017
53.1094 1202 34.6699
53.226 1269 35.623
53.3426 1398 37.3898
53.4591 1485 38.5357
53.5756 1527 39.0768
53.692 1586 39.8246
53.8084 1565 39.5601
53.9248 1596 39.95
54.0411 1573 39.6611
54.1573 1630 40.3733
54.2735 0 1
54.3896 0 1
54.5057 0 1
54.6217 0 1
54.7377 0 1
54.8537 0 1
54.9695 0 1
55.0853 0 1
55.2011 0 1
55.3168 0 1
55.4324 0 1
57.824 0 1
57.9396 0 1
58.0553 0 1
58.1711 0 1
58.2869 0 1
58.4028 0 1
58.5187 0 1
58.6347 0 1
58.7508 0 1
58.8669 0 1
58.983 1827 42.7434
59.0992 1963 44.3058
59.2155 1927 43.8976
59.3318 1951 44.1701
59.4482 1928 43.909
59.5646 1900 43.589
59.681 1947 44.1248
59.7975 1850 43.0116
59.9141 1792 42.332
60.0306 1915 43.7607
60.1473 1780 42.19
60.2639 1777 42.1545
60.3807 1858 43.1045
60.4974 1797 42.391
60.6142 1782 42.2137
60.731 1723 41.509
60.8479 1639 40.4846
60.9648 1551 39.3827
61.0818 1429 37.8021
61.1987 1417 37.6431
61.3158 1426 37.7624
61.4328 1373 37.054
61.5499 1483 38.5097
61.667 1521 39
61.7841 1573 39.6611
61.9013 1666 40.8167
62.0185 1711 41.3642
62.1357 1802 42.45
62.253 1856 43.0813
62.3702 1866 43.1972
62.4875 1965 44.3283
62.6049 1944 44.0908
62.7222 1948 44.1362
62.8396 1800 42.4264
62.9569 1887 43.4396
63.0743 1861 43.1393
63.1918 1815 42.6028
63.3092 1832 42.8019
63.4267 1770 42.0714
63.5441 1719 41.4608
63.6616 1753 41.8688
63.7791 1714 41.4005
63.8966 1758 41.9285
64.0142 1732 41.6173
64.1317 1710 41.3521
64.2492 1691 41.1218
64.3668 1603 40.0375
64.4843 1430 37.8153
64.6019 1400 37.4166
64.7195 1295 35.9861
64.837 1306 36.1386
64.9546 1296 36
65.0722 1358 36.8511
65.1898 1419 37.6696
65.3074 1557 39.4588
65.4249 1601 40.0125
65.5425 1691 41.1218
65.6601 1843 42.9302
65.7777 1757 41.9166
65.8952 1943 44.0795
66.0128 1858 43.1045
66.1304 1876 43.3128
66.2479 1894 43.5201
66.3655 1926 43.8862
66.483 1857 43.0929
66.6005 1970 44.3847
66.718 1886 43.4281
66.8355 1779 42.1782
66.953 1826 42.7317
67.0705 1882 43.382
67.1879 1744 41.7612
67.3054 1794 42.3556
67.4228 1796 42.3792
67.5402 1786 42.2611
67.6576 1796 42.3792
67.7749 1782 42.2137
67.8923 1742 41.7373
68.0096 1777 42.1545
68.1269 1587 39.8372
68.2442 1449 38.0657
68.3614 1457 38.1707
68.4787 1395 37.3497
68.5958 1376 37.0945
68.713 1504 38.7814
68.8302 1591 39.8873
68.9473 1692 41.1339
69.0643 1838 42.8719
69.1814 1900 43.589
69.2984 2034 45.0999
69.4154 2146 46.3249
69.5323 2181 46.7012
69.6492 2180 46.6905
69.7661 2258 47.5184
69.8829 2237 47.2969
69.9997 2285 47.8017
70.1165 2291 47.8644
70.2332 2242 47.3498
70.3499 2346 48.4355
70.4665 2178 46.669
70.5831 2244 47.3709
70.6996 2215 47.0638
70.8161 2153 46.4004
70.9326 2170 46.5833
71.049 2173 46.6154
71.1653 2196 46.8615
71.2817 2203 46.9361
71.3979 2234 47.2652
71.5141 2044 45.2106
71.6303 1840 42.8952
71.7464 1653 40.6571
71.8624 0 1
71.9784 0 1
72.0944 0 1
72.2102 0 1
72.3261 0 1
72.4418 0 1
72.5575 0 1
72.6732 0 1
75.1054 0 1
75.2209 0 1
75.3365 0 1
75.4521 0 1
75.5678 0 1
75.6835 0 1
75.7993 0 1
75.9151 0 1
76.031 0 1
76.147 2170 46.5833
76.263 2302 47.9792
76.3791 2337 48.3425
76.4952 2542 50.4183
76.6113 2528 50.2792
76.7276 2490 49.8999
76.8438 2476 49.7594
76.9601 2305 48.0104
77.0765 2145 46.3141
77.1929 2057 45.3542
77.3093 1788 42.2847
77.4258 1719 41.4608
77.5423 1732 41.6173
77.6589 1717 41.4367
77.7755 1862 43.1509
77.8921 1987 44.5758
78.0088 2251 47.4447
78.1256 2396 48.949
78.2423 2563 50.6261
78.3591 2627 51.2543
78.4759 2647 51.449
78.5928 2796 52.8772
78.7097 2764 52.5738
78.8266 2687 51.8363
78.9436 2835 53.2447
79.0606 2750 52.4404
79.1776 2756 52.4976
79.2946 2712 52.0769
79.4117 2672 51.6914
79.5288 2556 50.5569
79.6459 2633 51.3128
79.7631 2516 50.1597
79.8802 2475 49.7494
79.9974 2438 49.3761
80.1147 2515 50.1498
80.2319 2650 51.4782
80.3491 2713 52.0865
80.4664 2595 50.9411
80.5837 2491 49.9099
80.701 2331 48.2804
80.8183 2145 46.3141
80.9357 1869 43.2319
81.053 1797 42.391
81.1704 1648 40.5956
81.2877 1711 41.3642
81.4051 1710 41.3521
81.5225 1881 43.3705
81.6399 2141 46.2709
81.7573 2312 48.0833
81.8747 2327 48.239
81.9922 2687 51.8363
82.1096 2677 51.7397
82.227 2643 51.4101
82.3444 2715 52.1057
82.4619 2662 51.5946
82.5793 2681 51.7784
82.6967 2609 51.0784
82.8142 2539 50.3885
82.9316 2632 51.303
83.049 2626 51.2445
83.1664 2510 50.0999
83.2838 2446 49.4571
83.4012 2432 49.3153
83.5186 2433 49.3254
83.636 2445 49.4469
83.7534 2397 48.9592
83.8708 2524 50.2394
83.9881 2588 50.8724
84.1055 2512 50.1199
84.2228 2357 48.5489
84.3401 2149 46.3573
84.4575 2121 46.0543
84.5747 1837 42.8602
84.692 1740 41.7133
84.8093 1637 40.4599
84.9265 1637 40.4599
85.0437 1805 42.4853
85.1609 1952 44.1814
85.2781 2205 46.9574
85.3952 2401 49
85.5123 2521 50.2096
85.6294 2675 51.7204
85.7465 2841 53.301
85.8636 2941 54.231
85.9806 3004 54.8088
86.0976 3031 55.0545
86.2145 3036 55.0999
86.3315 3102 55.6956
86.4484 2965 54.4518
86.5652 3100 55.6776
86.682 3167 56.2761
86.7988 3070 55.4076
86.9156 3179 56.3826
87.0323 3124 55.8928
87.149 3052 55.2449
87.2657 3047 55.1996
87.3823 3111 55.7763
87.4988 3168 56.285
87.6154 3273 57.2101
87.7318 3276 57.2364
87.8483 3003 54.7996
87.9647 2735 52.2972
88.081 2538 50.3786
88.1973 2325 48.2183
88.3136 2211 47.0213
88.4298 2188 46.7761
88.546 2285 47.8017
88.6621 2447 49.4672
88.7781 2702 51.9808
88.8942 0 1
89.0101 0 1
89.126 0 1
89.2419 0 1
89.3577 0 1
89.4734 0 1
89.5891 0 1
89.7047 0 1
89.8203 0 1
89.9358 0 1
92.3269 0 1
92.4424 0 1
92.558 0 1
92.6736 0 1
92.7893 0 1
92.905 0 1
93.0208 0 1
93.1366 0 1
93.2525 0 1
93.3685 0 1
93.4845 0 1
93.6005 2391 48.8979
93.7167 2383 48.816
93.8328 2460 49.5984
93.949 2543 50.4282
94.0653 2699 51.9519
94.1816 2927 54.1018
94.2979 3188 56.4624
94.4143 3449 58.7282
94.5307 3740 61.1555
94.6472 3785 61.5224
94.7637 3871 62.2174
94.8803 3936 62.7375
94.9969 4046 63.6082
95.1135 3902 62.466
95.2302 4114 64.1405
95.3469 4147 64.3972
95.4637 4061 63.726
95.5805 3891 62.3779
95.6973 4087 63.9296
95.8142 3992 63.1823
95.9311 4030 63.4823
96.048 3749 61.2291
96.1649 3776 61.4492
96.2819 3725 61.0328
96.3989 3846 62.0161
96.516 3979 63.0793
96.633 4045 63.6003
96.7501 3931 62.6977
96.8673 3841 61.9758
96.9844 3625 60.208
97.1016 3332 57.7235
97.2188 3046 55.1906
97.336 2815 53.0566
97.4532 2502 50.02
97.5704 2543 50.4282
97.6877 2545 50.448
97.805 2754 52.4786
97.9223 2964 54.4426
98.0396 3215 56.701
98.1569 3462 58.8388
98.2743 3722 61.0082
98.3916 3924 62.6418
98.509 3984 63.1189
98.6264 4082 63.8905
98.7438 4161 64.5058
98.8612 4133 64.2884
98.9786 4126 64.2339
99.096 4086 63.9218
99.2134 4008 63.3088
99.3308 4058 63.7024
99.4482 4112 64.1249
99.5656 4174 64.6065
99.6831 3967 62.9841
99.8005 3965 62.9682
99.9179 3839 61.9597
100.035 3987 63.1427
100.153 4067 63.773
100.27 4084 63.9062
100.388 4071 63.8044
100.505 3875 62.2495
100.622 3623 60.1914
100.74 3389 58.2151
100.857 3013 54.8908
100.975 2802 52.9339
101.092 2573 50.7247
101.209 2639 51.3712
101.327 2729 52.2398
101.444 2937 54.1941
101.561 3256 57.0614
101.679 3708 60.8933
101.796 3801 61.6523
101.913 4054 63.671
102.03 3997 63.2218
102.148 4159 64.4903
102.265 4208 64.8691
102.382 4310 65.6506
102.499 4328 65.7875
102.616 4256 65.238
102.733 4220 64.9615
102.851 4233 65.0615
102.968 4156 64.467
103.085 4102 64.0469
103.202 4163 64.5213
103.319 4046 63.6082
103.436 3997 63.2218
103.552 4066 63.7652
103.669 4212 64.8999
103.786 4086 63.9218
103.903 4275 65.3835
104.02 4149 64.4127
104.137 3749 61.2291
104.253 3656 60.4649
104.37 3330 57.7062
104.487 3025 55
104.603 2777 52.6972
104.72 2719 52.144
104.836 2847 53.3573
104.953 3112 55.7853
105.069 3427 58.5406
105.186 3700 60.8276
105.302 4075 63.8357
105.418 4245 65.1537
105.535 4408 66.3928
105.651 4512 67.1714
105.767 4500 67.082
105.883 4510 67.1565
105.999 4643 68.1396
106.115 0 1
106.231 0 1
106.347 0 1
106.463 0 1
106.579 0 1
106.694 0 1
106.81 0 1
106.926 0 1
107.041 0 1
107.157 0 1
109.576 0 1
109.692 0 1
109.807 0 1
109.923 0 1
110.039 0 1
110.155 0 1
110.27 0 1
110.386 0 1
110.502 0 1
110.618 3928 62.6738
110.735 4193 64.7534
110.851 4167 64.5523
110.967 4257 65.2457
111.083 4133 64.2884
111.199 4112 64.1249
111.316 4143 64.3661
111.432 4187 64.707
111.549 4160 64.4981
111.665 4081 63.8827
111.782 3876 62.2575
111.898 3951 62.857
112.015 3940 62.7694
112.132 3883 62.3137
112.248 4079 63.867
112.365 4128 64.2495
112.482 3790 61.563
112.599 3729 61.0655
112.716 3409 58.3866
112.832 3143 56.0625
112.949 2905 53.8981
113.066 2755 52.4881
113.183 2628 51.264
113.3 2648 51.4587
113.417 2768 52.6118
113.534 2988 54.6626
113.652 3259 57.0877
113.769 3500 59.1608
113.886 3682 60.6795
114.003 3759 61.3107
114.12 3818 61.79
114.238 3941 62.7774
114.355 3897 62.426
114.472 3780 61.4817
114.589 3950 62.849
114.707 3848 62.0322
114.824 3742 61.1719
114.942 3803 61.6685
115.059 3912 62.546
115.176 3913 62.554
115.294 3813 61.7495
115.411 3751 61.2454
115.529 3861 62.1369
115.646 3643 60.3573
115.764 3776 61.4492
115.881 3914 62.562
115.999 3837 61.9435
116.116 3743 61.1801
116.234 3541 59.5063
116.351 3278 57.2538
116.469 3101 55.6866
116.586 2817 53.0754
116.704 2708 52.0384
116.821 2656 51.5364
116.939 2632 51.303
117.056 2732 52.2685
117.174 2970 54.4977
117.291 3164 56.2494
117.409 3372 58.0689
117.526 3612 60.0999
117.644 3698 60.8112
117.761 3776 61.4492
117.879 3851 62.0564
117.996 3858 62.1128
118.114 3867 62.1852
118.231 3735 61.1146
118.349 3699 60.8194
118.466 3666 60.5475
118.584 3789 61.5549
118.701 3816 61.7738
118.819 3787 61.5386
118.936 3694 60.7783
119.053 3579 59.8247
119.171 3390 58.2237
119.288 3773 61.4248
119.405 3800 61.6441
119.523 3752 61.2536
119.64 3708 60.8933
119.757 3489 59.0678
119.875 3457 58.7963
119.992 3230 56.8331
120.109 2987 54.6535
120.226 2835 53.2447
120.343 2687 51.8363
120.46 2622 51.2055
120.578 2618 51.1664
120.695 2539 50.3885
120.812 2759 52.5262
120.929 2843 53.3198
121.046 3071 55.4166
121.163 3289 57.3498
121.279 3500 59.1608
121.396 3553 59.607
121.513 3539 59.4895
121.63 3640 60.3324
121.747 3640 60.3324
121.863 3506 59.2115
121.98 3497 59.1354
122.097 3637 60.3075
122.213 3578 59.8164
122.33 3613 60.1082
122.446 3501 59.1692
122.563 3599 59.9917
122.679 3607 60.0583
122.795 3385 58.1808
122.912 3402 58.3267
123.028 3367 58.0259
123.144 3517 59.3043
123.26 3513 59.2706
123.377 0 1
123.493 0 1
123.609 0 1
123.725 0 1
123.84 0 1
123.956 0 1
124.072 0 1
124.188 0 1
124.303 0 1
124.419 0 1
126.852 0 1
126.968 0 1
127.083 0 1
127.199 0 1
127.315 0 1
127.431 0 1
127.547 0 1
127.663 0 1
127.779 0 1
127.895 0 1
128.011 0 1
128.127 0 1
128.243 0 1
128.359 3668 60.564
128.476 3728 61.0574
128.592 3659 60.4897
128.708 3595 59.9583
128.825 3439 58.643
128.941 3202 56.5862
129.058 3060 55.3173
129.174 2932 54.1479
129.291 2754 52.4786
129.408 2735 52.2972
129.524 2779 52.7162
129.641 2938 54.2033
129.758 3111 55.7763
129.875 3225 56.7891
129.992 3390 58.2237
130.108 3538 59.4811
130.225 3522 59.3464
130.342 3609 60.075
130.459 3653 60.4401
130.576 3729 61.0655
130.693 3669 60.5723
130.81 3574 59.7829
130.928 3606 60.05
131.045 3514 59.279
131.162 3622 60.1831
131.279 3656 60.4649
131.396 3697 60.803
131.513 3644 60.3656
131.631 3572 59.7662
131.748 3673 60.6053
131.865 3758 61.3025
131.983 3732 61.0901
132.1 3652 60.4318
132.217 3516 59.2959
132.335 3469 58.8982
132.452 3386 58.1893
132.57 3057 55.2901
132.687 2931 54.1387
132.804 2799 52.9056
132.922 2738 52.3259
133.039 2768 52.6118
133.157 2837 53.2635
133.274 2962 54.4243
133.392 3067 55.3805
133.509 3353 57.9051
133.627 3312 57.55
133.744 3444 58.6856
133.862 3554 59.6154
133.979 3564 59.6992
134.097 3468 58.8897
134.214 3401 58.3181
134.332 3387 58.1979
134.449 3386 58.1893
134.567 3294 57.3934
134.684 3553 59.607
134.802 3565 59.7076
134.919 3585 59.8749
135.037 3457 58.7963
135.154 3456 58.7878
135.272 3524 59.3633
135.389 3501 59.1692
135.507 3517 59.3043
135.624 3551 59.5903
135.742 3457 58.7963
135.859 3517 59.3043
135.977 3289 57.3498
136.094 3215 56.701
136.211 3003 54.7996
136.329 2923 54.0648
136.446 2799 52.9056
136.564 2713 52.0865
136.681 2739 52.3355
136.798 2829 53.1883
136.915 2901 53.8609
137.033 2946 54.2771
137.15 3155 56.1694
137.267 3306 57.4978
137.384 3283 57.2975
137.502 3390 58.2237
137.619 3379 58.1292
137.736 3309 57.5239
137.853 3380 58.1378
137.97 3272 57.2014
138.087 3174 56.3383
138.204 3217 56.7186
138.321 3371 58.0603
138.438 3443 58.6771
138.555 3452 58.7537
138.672 3438 58.6345
138.788 3363 57.9914
138.905 3414 58.4294
139.022 3349 57.8705
139.139 3478 58.9746
139.255 3478 58.9746
139.372 3397 58.2838
139.488 3313 57.5587
139.605 3317 57.5934
139.721 3176 56.356
139.838 3001 54.7814
139.954 2859 53.4696
140.071 2790 52.8205
140.187 2782 52.7447
140.303 2687 51.8363
140.419 2620 51.1859
140.535 2739 52.3355
140.652 2850 53.3854
140.768 0 1
140.884 0 1
141 0 1
141.115 0 1
141.231 0 1
141.347 0 1
141.463 0 1
141.578 0 1
141.694 0 1
144.104 0 1
144.219 0 1
144.335 0 1
144.45 0 1
144.566 0 1
144.682 0 1
144.798 0 1
144.914 0 1
145.03 0 1
145.146 1908 43.6807
145.262 2100 45.8258
145.378 2168 46.5618
145.494 2172 46.6047
145.61 2246 47.392
145.726 2332 48.2908
145.842 2340 48.3735
145.959 2462 49.6185
146.075 2495 49.95
146.192 2534 50.3389
146.308 2477 49.7695
146.425 2540 50.3984
146.541 2535 50.3488
146.658 2403 49.0204
146.774 2493 49.93
146.891 2508 50.0799
147.008 2487 49.8698
147.125 2587 50.8626
147.241 2589 50.8822
147.358 2696 51.923
147.475 2617 51.1566
147.592 2605 51.0392
147.709 2618 51.1664
147.826 2663 51.6043
147.943 2711 52.0673
148.06 2762 52.5547
148.177 2655 51.5267
148.294 2595 50.9411
148.411 2592 50.9117
148.528 2475 49.7494
148.645 2479 49.7896
148.762 2382 48.8057
148.88 2232 47.244
148.997 2276 47.7074
149.114 2346 48.4355
149.231 2343 48.4045
149.349 2366 48.6415
149.466 2352 48.4974
149.583 2352 48.4974
149.701 2453 49.5278
149.818 2567 50.6656
149.935 2550 50.4975
150.053 2647 51.449
150.17 2606 51.049
150.287 2525 50.2494
150.405 2574 50.7346
150.522 2626 51.2445
150.64 2555 50.547
150.757 2465 49.6488
150.875 2591 50.9019
150.992 2649 51.4684
151.11 2746 52.4023
151.227 2649 51.4684
151.344 2758 52.5167
151.462 2587 50.8626
151.579 2723 52.1824
151.697 2653 51.5073
151.814 2609 51.0784
151.932 2631 51.2933
152.049 2583 50.8232
152.167 2609 51.0784
152.284 2461 49.6085
152.402 2415 49.1426
152.519 2429 49.2849
152.636 2450 49.4975
152.754 2433 49.3254
152.871 2358 48.5592
152.989 2435 49.3457
153.106 2438 49.3761
153.223 2482 49.8197
153.341 2472 49.7192
153.458 2523 50.2295
153.575 2699 51.9519
153.693 2712 52.0769
153.81 2600 50.9902
153.927 2531 50.309
154.044 2516 50.1597
154.162 2609 51.0784
154.279 2646 51.4393
154.396 2594 50.9313
154.513 2684 51.8073
154.63 2722 52.1728
154.747 2849 53.376
154.864 2853 53.4135
154.981 2822 53.1225
155.098 2803 52.9434
155.215 2862 53.4977
155.332 2856 53.4416
155.449 2790 52.8205
155.566 2658 51.5558
155.683 2638 51.3615
155.8 2559 50.5866
155.917 2598 50.9706
156.033 2580 50.7937
156.15 0 1
156.267 0 1
156.383 0 1
156.5 0 1
156.617 0 1
156.733 0 1
156.85 0 1
156.966 0 1
157.082 0 1
157.199 0 1
157.315 0 1
157.431 0 1
157.547 0 1
157.664 0 1
157.78 0 1
157.896 0 1
158.012 0 1
158.128 0 1
158.244 0 1
158.359 0 1
158.475 0 1
158.591 0 1
158.706 0 1
