
6.15755 0 1
6.2731 0 1
6.3887 0 1
6.50437 0 1
6.62009 0 1
6.73587 0 1
6.8517 0 1
6.96759 0 1
7.08353 0 1
7.19952 0 1
7.31557 0 1
7.43166 0 1
7.54781 0 1
7.664 0 1
7.78024 0 1
7.89653 0 1
8.01286 0 1
8.12924 0 1
8.24567 0 1
8.36213 0 1
8.47864 0 1
8.59519 0 1
8.71178 0 1
8.82841 0 1
8.94508 0 1
9.06179 0 1
9.17853 0 1
9.29531 0 1
9.41212 0 1
9.52897 0 1
9.64584 0 1
9.76276 0 1
9.8797 0 1
9.99667 0 1
10.1137 0 1
10.2307 0 1
10.3478 0 1
10.4648 0 1
10.5819 0 1
10.6991 0 1
10.8162 0 1
10.9334 0 1
11.0506 0 1
11.1678 0 1
11.285 0 1
11.4023 0 1
11.5196 0 1
11.6369 0 1
11.7542 0 1
11.8715 0 1
11.9888 0 1
12.1062 0 1
12.2235 0 1
12.3409 0 1
12.4582 0 1
12.5756 0 1
12.693 0 1
12.8104 0 1
12.9278 0 1
13.0452 0 1
13.1626 0 1
13.28 0 1
13.3974 0 1
13.5149 0 1
13.6323 0 1
13.7497 0 1
13.8671 0 1
13.9845 0 1
14.1019 0 1
14.2193 0 1
14.3367 0 1
14.4541 0 1
14.5714 0 1
14.6888 0 1
14.8062 0 1
14.9235 0 1
15.0408 2863 53.507
15.1581 2985 54.6352
15.2755 3016 54.9181
15.3927 3097 55.6507
15.51 2930 54.1295
15.6273 2860 53.479
15.7445 2899 53.8424
15.8617 2689 51.8556
15.9789 2707 52.0288
16.0961 2667 51.643
16.2132 2689 51.8556
16.3304 2635 51.3323
16.4475 2656 51.5364
16.5646 2660 51.5752
16.6816 2509 50.0899
16.7986 2577 50.7642
16.9156 2521 50.2096
17.0326 2508 50.0799
17.1496 2568 50.6754
17.2665 2438 49.3761
17.3833 2366 48.6415
17.5002 2478 49.7795
17.617 2559 50.5866
17.7338 2490 49.8999
17.8505 2491 49.9099
17.9672 2558 50.5767
18.0839 2406 49.051
18.2005 2472 49.7192
18.3171 2428 49.2747
18.4337 2412 49.1121
18.5502 2548 50.4777
18.6666 2540 50.3984
18.7831 2461 49.6085
18.8994 2424 49.2341
19.0158 2314 48.1041
19.1321 2181 46.7012
19.2483 2087 45.6837
19.3645 2016 44.8999
19.4806 2001 44.7325
19.5967 1914 43.7493
19.7128 1874 43.2897
19.8288 1838 42.8719
19.9447 1736 41.6653
20.0606 0 1
20.1764 0 1
20.2922 0 1
20.4079 0 1
20.5236 0 1
20.6392 0 1
20.7548 0 1
20.8702 0 1
23.3078 0 1
23.4233 0 1
23.539 0 1
23.6547 0 1
23.7704 0 1
23.8862 0 1
24.0021 0 1
24.118 0 1
24.234 0 1
24.35 0 1
24.4661 983 31.3528
24.5822 1214 34.8425
24.6984 1370 37.0135
24.8146 1630 40.3733
24.9309 1851 43.0232
25.0472 2117 46.0109
25.1636 2178 46.669
25.28 2282 47.7703
25.3965 2512 50.1199
25.513 2600 50.9902
25.6296 2699 51.9519
25.7462 2692 51.8845
25.8628 2807 52.9811
25.9795 2726 52.2111
26.0962 2649 51.4684
26.213 2576 50.7543
26.3298 2507 50.07
26.4466 2376 48.7442
26.5635 2098 45.8039
26.6804 2103 45.8585
26.7973 2152 46.3897
26.9143 2181 46.7012
27.0313 2108 45.913
27.1483 2233 47.2546
27.2653 2248 47.4131
27.3824 2371 48.6929
27.4996 2344 48.4149
27.6167 2269 47.634
27.7339 2245 47.3814
27.8511 2027 45.0222
27.9683 2035 45.111
28.0855 2241 47.3392
28.2028 2348 48.4562
28.3201 2313 48.0937
28.4374 2517 50.1697
28.5547 2403 49.0204
28.6721 2446 49.4571
28.7894 2406 49.051
28.9068 2358 48.5592
29.0242 2446 49.4571
29.1416 2245 47.3814
29.259 2293 47.8853
29.3764 2317 48.1352
29.4939 2250 47.4342
29.6113 2183 46.7226
29.7288 2201 46.9148
29.8463 2079 45.5961
29.9638 2042 45.1885
30.0812 2114 45.9783
30.1987 2067 45.4643
30.3162 1986 44.5646
30.4337 1966 44.3396
30.5512 2146 46.3249
30.6687 2218 47.0956
30.7862 2303 47.9896
30.9037 2357 48.5489
31.0212 2475 49.7494
31.1387 2433 49.3254
31.2562 2316 48.1248
31.3737 2085 45.6618
31.4912 2070 45.4973
31.6087 2229 47.2123
31.7262 2289 47.8435
31.8436 2347 48.4458
31.9611 2298 47.9375
32.0785 2293 47.8853
32.1959 2267 47.613
32.3134 2236 47.2864
32.4308 2111 45.9456
32.5482 2112 45.9565
32.6655 2138 46.2385
32.7829 2066 45.4533
32.9002 2024 44.9889
33.0176 2055 45.3321
33.1349 1982 44.5197
33.2522 1895 43.5316
33.3694 2054 45.3211
33.4867 1940 44.0454
33.6039 1877 43.3244
33.7211 1944 44.0908
33.8383 1966 44.3396
33.9554 1963 44.3058
34.0725 2062 45.4093
34.1896 1937 44.0114
34.3067 2141 46.2709
34.4237 2244 47.3709
34.5407 2277 47.7179
34.6577 2269 47.634
34.7746 2199 46.8935
34.8915 1996 44.6766
35.0084 1965 44.3283
35.1252 1796 42.3792
35.242 1745 41.7732
35.3587 1883 43.3935
35.4755 2005 44.7772
35.5921 2074 45.5412
35.7088 2074 45.5412
35.8254 2039 45.1553
35.9419 2068 45.4753
36.0584 2001 44.7325
36.1749 1978 44.4747
36.2913 1933 43.9659
36.4077 1871 43.2551
36.524 1823 42.6966
36.6403 1738 41.6893
36.7565 1677 40.9512
36.8727 1587 39.8372
36.9889 1552 39.3954
37.1049 1340 36.606
37.221 0 1
37.3369 0 1
37.4529 0 1
37.5687 0 1
37.6845 0 1
37.8003 0 1
37.916 0 1
38.0316 0 1
38.1472 0 1
40.5851 0 1
40.7008 0 1
40.8164 0 1
40.9322 0 1
41.048 0 1
41.1639 0 1
41.2798 0 1
41.3958 0 1
41.5118 0 1
41.6279 0 1
41.744 969 31.1288
41.8602 1071 32.7261
41.9765 1172 34.2345
42.0928 1302 36.0832
42.2091 1369 37
42.3255 1554 39.4208
42.4419 1528 39.0896
42.5584 1599 39.9875
42.675 1581 39.7618
42.7915 1542 39.2683
42.9081 1566 39.5727
43.0248 1569 39.6106
43.1415 1603 40.0375
43.2582 1619 40.2368
43.375 1669 40.8534
43.4918 1683 41.0244
43.6087 1675 40.9268
43.7256 1766 42.0238
43.8425 1590 39.8748
43.9595 1450 38.0789
44.0765 1436 37.8946
44.1935 1485 38.5357
44.3106 1601 40.0125
44.4277 1770 42.0714
44.5448 1651 40.6325
44.6619 1698 41.2068
44.7791 1778 42.1663
44.8963 1701 41.2432
45.0136 1756 41.9047
45.1308 1803 42.4617
45.2481 1695 41.1704
45.3654 1724 41.5211
45.4827 1705 41.2916
45.6001 1706 41.3038
45.7174 1737 41.6773
45.8348 1786 42.2611
45.9522 1701 41.2432
46.0697 1661 40.7554
46.1871 1589 39.8623
46.3046 1622 40.2741
46.422 1574 39.6737
46.5395 1574 39.6737
46.657 1626 40.3237
46.7745 1593 39.9124
46.892 1681 41
47.0096 1687 41.0731
47.1271 1695 41.1704
47.2446 1728 41.5692
47.3622 1740 41.7133
47.4797 1581 39.7618
47.5973 1488 38.5746
47.7149 1507 38.8201
47.8324 1620 40.2492
47.95 1702 41.2553
48.0675 1632 40.398
48.1851 1771 42.0833
48.3027 1687 41.0731
48.4202 1688 41.0853
48.5378 1710 41.3521
48.6554 1759 41.9404
48.7729 1683 41.0244
48.8904 1762 41.9762
49.008 1743 41.7493
49.1255 1681 41
49.243 1670 40.8656
49.3605 1578 39.724
49.478 1655 40.6817
49.5955 1523 39.0256
49.713 1514 38.9102
49.8304 1450 38.0789
49.9479 1406 37.4967
50.0653 1495 38.6652
50.1827 1443 37.9868
50.3001 1462 38.2361
50.4175 1546 39.3192
50.5348 1580 39.7492
50.6521 1537 39.2046
50.7694 1649 40.6079
50.8867 1635 40.4351
51.004 1498 38.704
51.1212 1427 37.7757
51.2384 1511 38.8716
51.3556 1555 39.4335
51.4727 1636 40.4475
51.5899 1726 41.5452
51.707 1675 40.9268
51.824 1705 41.2916
51.9411 1725 41.5331
52.0581 1631 40.3856
52.175 1610 40.1248
52.2919 1604 40.05
52.4088 1632 40.398
52.5257 1685 41.0488
52.6425 1658 40.7185
52.7593 1670 40.8656
52.876 1682 41.0122
52.9927 1665 40.8044
53.1094 1611 40.1373
53.226 1577 39.7115
53.3426 1576 39.6989
53.4591 1516 38.9358
53.5756 1438 37.921
53.692 1360 36.8782
53.8084 1309 36.1801
53.9248 1263 35.5387
54.0411 1174 34.2637
54.1573 1148 33.8821
54.2735 0 1
54.3896 0 1
54.5057 0 1
54.6217 0 1
54.7377 0 1
54.8537 0 1
54.9695 0 1
55.0853 0 1
55.2011 0 1
55.3168 0 1
55.4324 0 1
57.824 0 1
57.9396 0 1
58.0553 0 1
58.1711 0 1
58.2869 0 1
58.4028 0 1
58.5187 0 1
58.6347 0 1
58.7508 0 1
58.8669 0 1
58.983 2414 49.1325
59.0992 3017 54.9272
59.2155 3478 58.9746
59.3318 3894 62.4019
59.4482 4453 66.7308
59.5646 4621 67.9779
59.681 4722 68.7168
59.7975 4822 69.4406
59.9141 4977 70.5479
60.0306 5080 71.2741
60.1473 5056 71.1056
60.2639 5283 72.6842
60.3807 5359 73.2052
60.4974 5438 73.7428
60.6142 5340 73.0753
60.731 5470 73.9594
60.8479 5371 73.2871
60.9648 5337 73.0548
61.0818 5208 72.1665
61.1987 5160 71.8331
61.3158 5148 71.7496
61.4328 5035 70.9577
61.5499 5088 71.3302
61.667 4949 70.3491
61.7841 4917 70.1213
61.9013 4625 68.0074
62.0185 4590 67.7495
62.1357 4538 67.3647
62.253 4464 66.8132
62.3702 4262 65.284
62.4875 4280 65.4217
62.6049 4075 63.8357
62.7222 4177 64.6297
62.8396 4271 65.3529
62.9569 4148 64.405
63.0743 3944 62.8013
63.1918 3496 59.127
63.3092 3167 56.2761
63.4267 2991 54.69
63.5441 2888 53.7401
63.6616 2622 51.2055
63.7791 2581 50.8035
63.8966 2485 49.8498
64.0142 2324 48.2079
64.1317 2268 47.6235
64.2492 2206 46.9681
64.3668 2081 45.618
64.4843 1960 44.2719
64.6019 1887 43.4396
64.7195 1988 44.587
64.837 2044 45.2106
64.9546 1943 44.0795
65.0722 1953 44.1928
65.1898 2046 45.2327
65.3074 1993 44.643
65.4249 1953 44.1928
65.5425 1794 42.3556
65.6601 1785 42.2493
65.7777 1831 42.7902
65.8952 1675 40.9268
66.0128 1800 42.4264
66.1304 1782 42.2137
66.2479 1777 42.1545
66.3655 1851 43.0232
66.483 1970 44.3847
66.6005 1927 43.8976
66.718 1965 44.3283
66.8355 2010 44.833
66.953 1848 42.9884
67.0705 1891 43.4856
67.1879 1825 42.72
67.3054 1839 42.8836
67.4228 1908 43.6807
67.5402 1862 43.1509
67.6576 1927 43.8976
67.7749 1970 44.3847
67.8923 1910 43.7035
68.0096 1925 43.8748
68.1269 1842 42.9185
68.2442 1866 43.1972
68.3614 1847 42.9767
68.4787 1843 42.9302
68.5958 1796 42.3792
68.713 2032 45.0777
68.8302 1949 44.1475
68.9473 1992 44.6318
69.0643 1943 44.0795
69.1814 1875 43.3013
69.2984 1814 42.5911
69.4154 1713 41.3884
69.5323 1750 41.833
69.6492 1764 42
69.7661 1748 41.8091
69.8829 1767 42.0357
69.9997 1870 43.2435
70.1165 1955 44.2154
70.2332 1864 43.1741
70.3499 1772 42.0951
70.4665 1740 41.7133
70.5831 1606 40.0749
70.6996 1434 37.8682
70.8161 1323 36.3731
70.9326 1247 35.3129
71.049 1200 34.641
71.1653 1139 33.7491
71.2817 1043 32.2955
71.3979 1084 32.9242
71.5141 1023 31.9844
71.6303 872 29.5296
71.7464 729 27
71.8624 0 1
71.9784 0 1
72.0944 0 1
72.2102 0 1
72.3261 0 1
72.4418 0 1
72.5575 0 1
72.6732 0 1
75.1054 0 1
75.2209 0 1
75.3365 0 1
75.4521 0 1
75.5678 0 1
75.6835 0 1
75.7993 0 1
75.9151 0 1
76.031 0 1
76.147 1147 33.8674
76.263 1338 36.5787
76.3791 1436 37.8946
76.4952 1463 38.2492
76.6113 1505 38.7943
76.7276 1624 40.2989
76.8438 1680 40.9878
76.9601 1680 40.9878
77.0765 1671 40.8779
77.1929 1629 40.3609
77.3093 1588 39.8497
77.4258 1642 40.5216
77.5423 1599 39.9875
77.6589 1672 40.8901
77.7755 1603 40.0375
77.8921 1647 40.5832
78.0088 1637 40.4599
78.1256 1585 39.8121
78.2423 1584 39.7995
78.3591 1508 38.833
78.4759 1461 38.223
78.5928 1471 38.3536
78.7097 1450 38.0789
78.8266 1445 38.0132
78.9436 1486 38.5487
79.0606 1649 40.6079
79.1776 1542 39.2683
79.2946 1646 40.5709
79.4117 1657 40.7063
79.5288 1699 41.2189
79.6459 1718 41.4488
79.7631 1636 40.4475
79.8802 1619 40.2368
79.9974 1642 40.5216
80.1147 1599 39.9875
80.2319 1635 40.4351
80.3491 1741 41.7253
80.4664 1675 40.9268
80.5837 1698 41.2068
80.701 1710 41.3521
80.8183 1650 40.6202
80.9357 1649 40.6079
81.053 1631 40.3856
81.1704 1684 41.0366
81.2877 1642 40.5216
81.4051 1676 40.939
81.5225 1778 42.1663
81.6399 1715 41.4126
81.7573 1719 41.4608
81.8747 1589 39.8623
81.9922 1603 40.0375
82.1096 1550 39.37
82.227 1488 38.5746
82.3444 1500 38.7298
82.4619 1557 39.4588
82.5793 1558 39.4715
82.6967 1626 40.3237
82.8142 1642 40.5216
82.9316 1745 41.7732
83.049 1743 41.7493
83.1664 1781 42.2019
83.2838 1739 41.7013
83.4012 1686 41.0609
83.5186 1600 40
83.636 1601 40.0125
83.7534 1660 40.7431
83.8708 1713 41.3884
83.9881 1716 41.4246
84.1055 1731 41.6053
84.2228 1736 41.6653
84.3401 1707 41.3159
84.4575 1773 42.107
84.5747 1658 40.7185
84.692 1743 41.7493
84.8093 1748 41.8091
84.9265 1695 41.1704
85.0437 1698 41.2068
85.1609 1848 42.9884
85.2781 1742 41.7373
85.3952 1766 42.0238
85.5123 1633 40.4104
85.6294 1530 39.1152
85.7465 1601 40.0125
85.8636 1541 39.2556
85.9806 1567 39.5854
86.0976 1608 40.0999
86.2145 1619 40.2368
86.3315 1687 41.0731
86.4484 1661 40.7554
86.5652 1707 41.3159
86.682 1786 42.2611
86.7988 1869 43.2319
86.9156 1757 41.9166
87.0323 1755 41.8927
87.149 1699 41.2189
87.2657 1701 41.2432
87.3823 1647 40.5832
87.4988 1650 40.6202
87.6154 1611 40.1373
87.7318 1619 40.2368
87.8483 1494 38.6523
87.9647 1479 38.4578
88.081 1287 35.8748
88.1973 1243 35.2562
88.3136 1176 34.2929
88.4298 1170 34.2053
88.546 1069 32.6956
88.6621 1049 32.3883
88.7781 956 30.9192
88.8942 0 1
89.0101 0 1
89.126 0 1
89.2419 0 1
89.3577 0 1
89.4734 0 1
89.5891 0 1
89.7047 0 1
89.8203 0 1
89.9358 0 1
92.3269 0 1
92.4424 0 1
92.558 0 1
92.6736 0 1
92.7893 0 1
92.905 0 1
93.0208 0 1
93.1366 0 1
93.2525 0 1
93.3685 0 1
93.4845 0 1
93.6005 1476 38.4187
93.7167 1442 37.9737
93.8328 1554 39.4208
93.949 1652 40.6448
94.0653 1674 40.9145
94.1816 1739 41.7013
94.2979 1794 42.3556
94.4143 1718 41.4488
94.5307 1773 42.107
94.6472 1607 40.0874
94.7637 1641 40.5093
94.8803 1549 39.3573
94.9969 1577 39.7115
95.1135 1649 40.6079
95.2302 1778 42.1663
95.3469 1705 41.2916
95.4637 1703 41.2674
95.5805 1762 41.9762
95.6973 1825 42.72
95.8142 1767 42.0357
95.9311 1845 42.9535
96.048 1788 42.2847
96.1649 1845 42.9535
96.2819 1796 42.3792
96.3989 1798 42.4028
96.516 1802 42.45
96.633 1807 42.5088
96.7501 1769 42.0595
96.8673 1895 43.5316
96.9844 1813 42.5793
97.1016 1856 43.0813
97.2188 1865 43.1856
97.336 1823 42.6966
97.4532 1747 41.7971
97.5704 1888 43.4511
97.6877 1787 42.2729
97.805 1790 42.3084
97.9223 1784 42.2374
98.0396 1849 43
98.1569 1778 42.1663
98.2743 1759 41.9404
98.3916 1759 41.9404
98.509 1701 41.2432
98.6264 1700 41.2311
98.7438 1820 42.6615
98.8612 1809 42.5323
98.9786 1774 42.1189
99.096 1849 43
99.2134 1844 42.9418
99.3308 1870 43.2435
99.4482 1855 43.0697
99.5656 2001 44.7325
99.6831 1921 43.8292
99.8005 1834 42.8252
99.9179 1855 43.0697
100.035 1881 43.3705
100.153 1924 43.8634
100.27 1937 44.0114
100.388 2028 45.0333
100.505 1917 43.7836
100.622 1867 43.2088
100.74 1887 43.4396
100.857 1881 43.3705
100.975 1817 42.6263
101.092 1908 43.6807
101.209 1872 43.2666
101.327 1945 44.1022
101.444 1963 44.3058
101.561 1927 43.8976
101.679 1853 43.0465
101.796 1904 43.6348
101.913 1875 43.3013
102.03 1846 42.9651
102.148 1860 43.1277
102.265 1931 43.9431
102.382 1901 43.6005
102.499 1852 43.0349
102.616 1953 44.1928
102.733 2013 44.8665
102.851 2006 44.7884
102.968 2072 45.5192
103.085 2015 44.8888
103.202 2049 45.2659
103.319 2091 45.7275
103.436 2028 45.0333
103.552 2006 44.7884
103.669 2086 45.6727
103.786 2088 45.6946
103.903 2097 45.793
104.02 2128 46.1303
104.137 1995 44.6654
104.253 2045 45.2217
104.37 2040 45.1664
104.487 2020 44.9444
104.603 2042 45.1885
104.72 2009 44.8219
104.836 1956 44.2267
104.953 1903 43.6234
105.069 1778 42.1663
105.186 1805 42.4853
105.302 1634 40.4228
105.418 1452 38.1051
105.535 1363 36.9188
105.651 1340 36.606
105.767 1253 35.3977
105.883 1120 33.4664
105.999 1065 32.6343
106.115 0 1
106.231 0 1
106.347 0 1
106.463 0 1
106.579 0 1
106.694 0 1
106.81 0 1
106.926 0 1
107.041 0 1
107.157 0 1
109.576 0 1
109.692 0 1
109.807 0 1
109.923 0 1
110.039 0 1
110.155 0 1
110.27 0 1
110.386 0 1
110.502 0 1
110.618 1063 32.6037
110.735 1235 35.1426
110.851 1369 37
110.967 1443 37.9868
111.083 1530 39.1152
111.199 1600 40
111.316 1632 40.398
111.432 1907 43.6692
111.549 1922 43.8406
111.665 1937 44.0114
111.782 1898 43.566
111.898 1880 43.359
112.015 1854 43.0581
112.132 1861 43.1393
112.248 1791 42.3202
112.365 1809 42.5323
112.482 1969 44.3734
112.599 1847 42.9767
112.716 1885 43.4166
112.832 1849 43
112.949 1787 42.2729
113.066 1783 42.2256
113.183 1703 41.2674
113.3 1661 40.7554
113.417 1784 42.2374
113.534 1678 40.9634
113.652 1715 41.4126
113.769 1782 42.2137
113.886 1664 40.7922
114.003 1641 40.5093
114.12 1752 41.8569
114.238 1823 42.6966
114.355 1829 42.7668
114.472 1629 40.3609
114.589 1619 40.2368
114.707 1603 40.0375
114.824 1648 40.5956
114.942 1717 41.4367
115.059 1761 41.9643
115.176 1823 42.6966
115.294 1744 41.7612
115.411 1678 40.9634
115.529 1736 41.6653
115.646 1725 41.5331
115.764 1677 40.9512
115.881 1711 41.3642
115.999 1711 41.3642
116.116 1744 41.7612
116.234 1761 41.9643
116.351 1768 42.0476
116.469 1698 41.2068
116.586 1601 40.0125
116.704 1590 39.8748
116.821 1591 39.8873
116.939 1605 40.0625
117.056 1560 39.4968
117.174 1595 39.9375
117.291 1453 38.1182
117.409 1529 39.1024
117.526 1562 39.5221
117.644 1505 38.7943
117.761 1654 40.6694
117.879 1664 40.7922
117.996 1614 40.1746
118.114 1513 38.8973
118.231 1473 38.3797
118.349 1552 39.3954
118.466 1621 40.2616
118.584 1715 41.4126
118.701 1707 41.3159
118.819 1712 41.3763
118.936 1599 39.9875
119.053 1613 40.1622
119.171 1517 38.9487
119.288 1642 40.5216
119.405 1593 39.9124
119.523 1638 40.4722
119.64 1551 39.3827
119.757 1588 39.8497
119.875 1614 40.1746
119.992 1575 39.6863
120.109 1556 39.4462
120.226 1514 38.9102
120.343 1532 39.1408
120.46 1551 39.3827
120.578 1488 38.5746
120.695 1462 38.2361
120.812 1449 38.0657
120.929 1505 38.7943
121.046 1446 38.0263
121.163 1397 37.3765
121.279 1462 38.2361
121.396 1494 38.6523
121.513 1523 39.0256
121.63 1472 38.3667
121.747 1382 37.1753
121.863 1368 36.9865
121.98 1270 35.6371
122.097 1334 36.524
122.213 1359 36.8646
122.33 1330 36.4692
122.446 1269 35.623
122.563 1151 33.9264
122.679 1041 32.2645
122.795 1017 31.8904
122.912 959 30.9677
123.028 964 31.0483
123.144 922 30.3645
123.26 796 28.2135
123.377 0 1
123.493 0 1
123.609 0 1
123.725 0 1
123.84 0 1
123.956 0 1
124.072 0 1
124.188 0 1
124.303 0 1
124.419 0 1
126.852 0 1
126.968 0 1
127.083 0 1
127.199 0 1
127.315 0 1
127.431 0 1
127.547 0 1
127.663 0 1
127.779 0 1
127.895 0 1
128.011 0 1
128.127 0 1
128.243 0 1
128.359 1678 40.9634
128.476 1688 41.0853
128.592 1773 42.107
128.708 1787 42.2729
128.825 1794 42.3556
128.941 1852 43.0349
129.058 1838 42.8719
129.174 1835 42.8369
129.291 1740 41.7133
129.408 1810 42.5441
129.524 1782 42.2137
129.641 1861 43.1393
129.758 1791 42.3202
129.875 1787 42.2729
129.992 1752 41.8569
130.108 1831 42.7902
130.225 1842 42.9185
130.342 2076 45.5631
130.459 2302 47.9792
130.576 2548 50.4777
130.693 2879 53.6563
130.81 3192 56.4978
130.928 3329 57.6975
131.045 3538 59.4811
131.162 3859 62.1208
131.279 4358 66.0151
131.396 4531 67.3127
131.513 4121 64.195
131.631 4273 65.3682
131.748 5442 73.7699
131.865 6195 78.7083
131.983 6746 82.134
132.1 6935 83.2766
132.217 6880 82.9458
132.335 6465 80.4052
132.452 5959 77.1946
132.57 5592 74.7797
132.687 5225 72.2842
132.804 5248 72.4431
132.922 5111 71.4913
133.039 4932 70.2282
133.157 4908 70.0571
133.274 5010 70.7814
133.392 4892 69.9428
133.509 4670 68.3374
133.627 4664 68.2935
133.744 4815 69.3902
133.862 4857 69.6922
133.979 4772 69.0797
134.097 4712 68.644
134.214 4690 68.4836
134.332 4481 66.9403
134.449 4385 66.2193
134.567 4113 64.1327
134.684 4181 64.6607
134.802 4412 66.4229
134.919 4582 67.6905
135.037 4373 66.1287
135.154 3872 62.2254
135.272 3727 61.0492
135.389 3809 61.7171
135.507 4213 64.9076
135.624 4222 64.9769
135.742 4306 65.6201
135.859 4406 66.3777
135.977 4419 66.4756
136.094 4371 66.1135
136.211 4276 65.3911
136.329 4407 66.3852
136.446 4459 66.7757
136.564 4291 65.5057
136.681 4313 65.6734
136.798 4227 65.0154
136.915 4104 64.0625
137.033 4122 64.2028
137.15 4068 63.7809
137.267 3946 62.8172
137.384 4013 63.3482
137.502 4057 63.6946
137.619 3939 62.7615
137.736 4036 63.5295
137.853 3996 63.2139
137.97 4196 64.7765
138.087 3952 62.8649
138.204 3953 62.8729
138.321 3852 62.0645
138.438 4017 63.3798
138.555 4322 65.7419
138.672 4120 64.1872
138.788 3914 62.562
138.905 3504 59.1946
139.022 3510 59.2453
139.139 3897 62.426
139.255 3902 62.466
139.372 3749 61.2291
139.488 3835 61.9274
139.605 3608 60.0666
139.721 3315 57.576
139.838 3023 54.9818
139.954 2900 53.8516
140.071 2669 51.6624
140.187 2570 50.6952
140.303 2425 49.2443
140.419 2420 49.1935
140.535 2216 47.0744
140.652 2048 45.2548
140.768 0 1
140.884 0 1
141 0 1
141.115 0 1
141.231 0 1
141.347 0 1
141.463 0 1
141.578 0 1
141.694 0 1
144.104 0 1
144.219 0 1
144.335 0 1
144.45 0 1
144.566 0 1
144.682 0 1
144.798 0 1
144.914 0 1
145.03 0 1
145.146 4046 63.6082
145.262 4210 64.8845
145.378 4428 66.5432
145.494 4463 66.8057
145.61 4411 66.4154
145.726 4562 67.5426
145.842 4346 65.9242
145.959 4340 65.8787
146.075 4270 65.3452
146.192 4170 64.5755
146.308 3874 62.2415
146.425 3799 61.636
146.541 3944 62.8013
146.658 4175 64.6142
146.774 4287 65.4752
146.891 4541 67.3869
147.008 4467 66.8356
147.125 4388 66.242
147.241 4368 66.0908
147.358 4657 68.2422
147.475 4638 68.1029
147.592 4312 65.6658
147.709 4041 63.5689
147.826 4058 63.7024
147.943 4109 64.1015
148.06 4391 66.2646
148.177 4596 67.7938
148.294 4668 68.3228
148.411 4698 68.542
148.528 4611 67.9043
148.645 4659 68.2569
148.762 4561 67.5352
148.88 4614 67.9264
148.997 4625 68.0074
149.114 4473 66.8805
149.231 4640 68.1175
149.349 4677 68.3886
149.466 4568 67.587
149.583 4390 66.2571
149.701 4406 66.3777
149.818 4105 64.0703
149.935 3975 63.0476
150.053 3891 62.3779
150.17 3845 62.0081
150.287 4073 63.8201
150.405 4160 64.4981
150.522 4151 64.4283
150.64 4063 63.7417
150.757 4098 64.0156
150.875 4079 63.867
150.992 4192 64.7457
151.11 4004 63.2772
151.227 4014 63.3561
151.344 3683 60.6877
151.462 3451 58.7452
151.579 3505 59.203
151.697 3745 61.1964
151.814 3853 62.0725
151.932 3931 62.6977
152.049 4000 63.2456
152.167 3964 62.9603
152.284 3948 62.8331
152.402 3870 62.2093
152.519 3925 62.6498
152.636 3922 62.6259
152.754 3904 62.482
152.871 3811 61.7333
152.989 3729 61.0655
153.106 3916 62.578
153.223 3611 60.0916
153.341 3563 59.6909
153.458 3414 58.4294
153.575 3333 57.7321
153.693 3359 57.9569
153.81 3458 58.8048
153.927 3543 59.5231
154.044 3423 58.5064
154.162 3365 58.0086
154.279 3370 58.0517
154.396 3306 57.4978
154.513 3447 58.7112
154.63 3300 57.4456
154.747 3308 57.5152
154.864 3199 56.5597
154.981 2854 53.4228
155.098 2974 54.5344
155.215 3081 55.5068
155.332 3192 56.4978
155.449 3342 57.81
155.566 3365 58.0086
155.683 3414 58.4294
155.8 3244 56.9561
155.917 3220 56.745
156.033 3228 56.8155
156.15 0 1
156.267 0 1
156.383 0 1
156.5 0 1
156.617 0 1
156.733 0 1
156.85 0 1
156.966 0 1
157.082 0 1
157.199 0 1
157.315 0 1
157.431 0 1
157.547 0 1
157.664 0 1
157.78 0 1
157.896 0 1
158.012 0 1
158.128 0 1
158.244 0 1
158.359 0 1
158.475 0 1
158.591 0 1
158.706 0 1
