
6.15755 0 1
6.2731 0 1
6.3887 0 1
6.50437 0 1
6.62009 0 1
6.73587 0 1
6.8517 0 1
6.96759 0 1
7.08353 0 1
7.19952 0 1
7.31557 0 1
7.43166 0 1
7.54781 0 1
7.664 0 1
7.78024 0 1
7.89653 0 1
8.01286 0 1
8.12924 0 1
8.24567 0 1
8.36213 0 1
8.47864 0 1
8.59519 0 1
8.71178 0 1
8.82841 0 1
8.94508 0 1
9.06179 0 1
9.17853 0 1
9.29531 0 1
9.41212 0 1
9.52897 0 1
9.64584 0 1
9.76276 0 1
9.8797 0 1
9.99667 0 1
10.1137 0 1
10.2307 0 1
10.3478 0 1
10.4648 0 1
10.5819 0 1
10.6991 0 1
10.8162 0 1
10.9334 0 1
11.0506 0 1
11.1678 0 1
11.285 0 1
11.4023 0 1
11.5196 0 1
11.6369 0 1
11.7542 0 1
11.8715 0 1
11.9888 0 1
12.1062 0 1
12.2235 0 1
12.3409 0 1
12.4582 0 1
12.5756 0 1
12.693 0 1
12.8104 0 1
12.9278 0 1
13.0452 0 1
13.1626 0 1
13.28 0 1
13.3974 0 1
13.5149 0 1
13.6323 0 1
13.7497 0 1
13.8671 0 1
13.9845 0 1
14.1019 0 1
14.2193 0 1
14.3367 0 1
14.4541 0 1
14.5714 0 1
14.6888 0 1
14.8062 0 1
14.9235 0 1
15.0408 978 31.273
15.1581 1004 31.686
15.2755 1083 32.909
15.3927 1031 32.1092
15.51 1018 31.9061
15.6273 988 31.4325
15.7445 987 31.4166
15.8617 916 30.2655
15.9789 977 31.257
16.0961 1001 31.6386
16.2132 894 29.8998
16.3304 913 30.2159
16.4475 876 29.5973
16.5646 957 30.9354
16.6816 1000 31.6228
16.7986 931 30.5123
16.9156 926 30.4302
17.0326 885 29.7489
17.1496 1005 31.7017
17.2665 955 30.9031
17.3833 972 31.1769
17.5002 902 30.0333
17.617 900 30
17.7338 973 31.1929
17.8505 1004 31.686
17.9672 924 30.3974
18.0839 1002 31.6544
18.2005 932 30.5287
18.3171 941 30.6757
18.4337 865 29.4109
18.5502 860 29.3258
18.6666 892 29.8664
18.7831 906 30.0998
18.8994 880 29.6648
19.0158 872 29.5296
19.1321 845 29.0689
19.2483 777 27.8747
19.3645 766 27.6767
19.4806 743 27.258
19.5967 712 26.6833
19.7128 671 25.9037
19.8288 591 24.3105
19.9447 509 22.561
20.0606 0 1
20.1764 0 1
20.2922 0 1
20.4079 0 1
20.5236 0 1
20.6392 0 1
20.7548 0 1
20.8702 0 1
23.3078 0 1
23.4233 0 1
23.539 0 1
23.6547 0 1
23.7704 0 1
23.8862 0 1
24.0021 0 1
24.118 0 1
24.234 0 1
24.35 0 1
24.4661 387 19.6723
24.5822 442 21.0238
24.6984 440 20.9762
24.8146 577 24.0208
24.9309 648 25.4558
25.0472 743 27.258
25.1636 778 27.8927
25.28 872 29.5296
25.3965 837 28.931
25.513 944 30.7246
25.6296 880 29.6648
25.7462 976 31.241
25.8628 944 30.7246
25.9795 950 30.8221
26.0962 976 31.241
26.213 920 30.3315
26.3298 911 30.1828
26.4466 939 30.6431
26.5635 927 30.4467
26.6804 880 29.6648
26.7973 858 29.2916
26.9143 804 28.3549
27.0313 717 26.7769
27.1483 705 26.5518
27.2653 760 27.5681
27.3824 802 28.3196
27.4996 862 29.3598
27.6167 792 28.1425
27.7339 860 29.3258
27.8511 847 29.1033
27.9683 880 29.6648
28.0855 912 30.1993
28.2028 882 29.6985
28.3201 856 29.2575
28.4374 843 29.0345
28.5547 782 27.9643
28.6721 832 28.8444
28.7894 797 28.2312
28.9068 755 27.4773
29.0242 823 28.688
29.1416 822 28.6705
29.259 835 28.8964
29.3764 825 28.7228
29.4939 821 28.6531
29.6113 857 29.2746
29.7288 782 27.9643
29.8463 833 28.8617
29.9638 823 28.688
30.0812 816 28.5657
30.1987 820 28.6356
30.3162 758 27.5318
30.4337 751 27.4044
30.5512 677 26.0192
30.6687 762 27.6043
30.7862 802 28.3196
30.9037 786 28.0357
31.0212 834 28.8791
31.1387 872 29.5296
31.2562 916 30.2655
31.3737 912 30.1993
31.4912 886 29.7658
31.6087 823 28.688
31.7262 830 28.8097
31.8436 779 27.9106
31.9611 763 27.6225
32.0785 687 26.2107
32.1959 778 27.8927
32.3134 750 27.3861
32.4308 699 26.4386
32.5482 775 27.8388
32.6655 787 28.0535
32.7829 761 27.5862
32.9002 760 27.5681
33.0176 738 27.1662
33.1349 765 27.6586
33.2522 723 26.8887
33.3694 728 26.9815
33.4867 727 26.9629
33.6039 774 27.8209
33.7211 751 27.4044
33.8383 785 28.0179
33.9554 773 27.8029
34.0725 681 26.096
34.1896 663 25.7488
34.3067 716 26.7582
34.4237 744 27.2764
34.5407 764 27.6405
34.6577 787 28.0535
34.7746 779 27.9106
34.8915 840 28.9828
35.0084 792 28.1425
35.1252 804 28.3549
35.242 833 28.8617
35.3587 817 28.5832
35.4755 756 27.4955
35.5921 686 26.1916
35.7088 694 26.3439
35.8254 677 26.0192
35.9419 739 27.1846
36.0584 739 27.1846
36.1749 701 26.4764
36.2913 720 26.8328
36.4077 719 26.8142
36.524 710 26.6458
36.6403 644 25.3772
36.7565 619 24.8797
36.8727 568 23.8328
36.9889 586 24.2074
37.1049 526 22.9347
37.221 0 1
37.3369 0 1
37.4529 0 1
37.5687 0 1
37.6845 0 1
37.8003 0 1
37.916 0 1
38.0316 0 1
38.1472 0 1
40.5851 0 1
40.7008 0 1
40.8164 0 1
40.9322 0 1
41.048 0 1
41.1639 0 1
41.2798 0 1
41.3958 0 1
41.5118 0 1
41.6279 0 1
41.744 310 17.6068
41.8602 401 20.025
41.9765 471 21.7025
42.0928 476 21.8174
42.2091 550 23.4521
42.3255 524 22.891
42.4419 542 23.2809
42.5584 545 23.3452
42.675 573 23.9374
42.7915 526 22.9347
42.9081 537 23.1733
43.0248 565 23.7697
43.1415 517 22.7376
43.2582 535 23.1301
43.375 564 23.7487
43.4918 582 24.1247
43.6087 630 25.0998
43.7256 618 24.8596
43.8425 556 23.5797
43.9595 570 23.8747
44.0765 578 24.0416
44.1935 592 24.3311
44.3106 562 23.7065
44.4277 538 23.1948
44.5448 513 22.6495
44.6619 529 23
44.7791 546 23.3666
44.8963 599 24.4745
45.0136 604 24.5764
45.1308 623 24.96
45.2481 649 25.4755
45.3654 631 25.1197
45.4827 606 24.6171
45.6001 617 24.8395
45.7174 670 25.8844
45.8348 622 24.9399
45.9522 640 25.2982
46.0697 567 23.8118
46.1871 556 23.5797
46.3046 540 23.2379
46.422 492 22.1811
46.5395 495 22.2486
46.657 482 21.9545
46.7745 530 23.0217
46.892 542 23.2809
47.0096 531 23.0434
47.1271 579 24.0624
47.2446 603 24.5561
47.3622 570 23.8747
47.4797 560 23.6643
47.5973 602 24.5357
47.7149 555 23.5584
47.8324 558 23.622
47.95 528 22.9783
48.0675 516 22.7156
48.1851 481 21.9317
48.3027 475 21.7945
48.4202 538 23.1948
48.5378 541 23.2594
48.6554 567 23.8118
48.7729 593 24.3516
48.8904 601 24.5153
49.008 596 24.4131
49.1255 597 24.4336
49.243 579 24.0624
49.3605 547 23.388
49.478 575 23.9792
49.5955 548 23.4094
49.713 548 23.4094
49.8304 469 21.6564
49.9479 440 20.9762
50.0653 486 22.0454
50.1827 496 22.2711
50.3001 468 21.6333
50.4175 492 22.1811
50.5348 540 23.2379
50.6521 549 23.4307
50.7694 561 23.6854
50.8867 539 23.2164
51.004 571 23.8956
51.1212 563 23.7276
51.2384 580 24.0832
51.3556 490 22.1359
51.4727 457 21.3776
51.5899 488 22.0907
51.707 458 21.4009
51.824 525 22.9129
51.9411 528 22.9783
52.0581 603 24.5561
52.175 537 23.1733
52.2919 528 22.9783
52.4088 548 23.4094
52.5257 563 23.7276
52.6425 562 23.7065
52.7593 554 23.5372
52.876 612 24.7386
52.9927 546 23.3666
53.1094 606 24.6171
53.226 561 23.6854
53.3426 513 22.6495
53.4591 446 21.1187
53.5756 465 21.5639
53.692 407 20.1742
53.8084 402 20.0499
53.9248 422 20.5426
54.0411 407 20.1742
54.1573 381 19.5192
54.2735 0 1
54.3896 0 1
54.5057 0 1
54.6217 0 1
54.7377 0 1
54.8537 0 1
54.9695 0 1
55.0853 0 1
55.2011 0 1
55.3168 0 1
55.4324 0 1
57.824 0 1
57.9396 0 1
58.0553 0 1
58.1711 0 1
58.2869 0 1
58.4028 0 1
58.5187 0 1
58.6347 0 1
58.7508 0 1
58.8669 0 1
58.983 487 22.0681
59.0992 595 24.3926
59.2155 753 27.4408
59.3318 825 28.7228
59.4482 882 29.6985
59.5646 929 30.4795
59.681 988 31.4325
59.7975 1015 31.8591
59.9141 994 31.5278
60.0306 996 31.5595
60.1473 976 31.241
60.2639 1046 32.3419
60.3807 988 31.4325
60.4974 994 31.5278
60.6142 984 31.3688
60.731 1073 32.7567
60.8479 1010 31.7805
60.9648 1049 32.3883
61.0818 954 30.8869
61.1987 986 31.4006
61.3158 955 30.9031
61.4328 941 30.6757
61.5499 900 30
61.667 961 31
61.7841 795 28.1957
61.9013 759 27.55
62.0185 802 28.3196
62.1357 730 27.0185
62.253 694 26.3439
62.3702 730 27.0185
62.4875 745 27.2947
62.6049 714 26.7208
62.7222 691 26.2869
62.8396 743 27.258
62.9569 753 27.4408
63.0743 687 26.2107
63.1918 733 27.074
63.3092 707 26.5895
63.4267 640 25.2982
63.5441 666 25.807
63.6616 678 26.0384
63.7791 622 24.9399
63.8966 623 24.96
64.0142 591 24.3105
64.1317 634 25.1794
64.2492 657 25.632
64.3668 654 25.5734
64.4843 660 25.6905
64.6019 664 25.7682
64.7195 559 23.6432
64.837 606 24.6171
64.9546 625 25
65.0722 688 26.2298
65.1898 636 25.219
65.3074 613 24.7588
65.4249 634 25.1794
65.5425 541 23.2594
65.6601 615 24.7992
65.7777 521 22.8254
65.8952 550 23.4521
66.0128 603 24.5561
66.1304 611 24.7184
66.2479 635 25.1992
66.3655 625 25
66.483 630 25.0998
66.6005 628 25.0599
66.718 653 25.5539
66.8355 591 24.3105
66.953 621 24.9199
67.0705 644 25.3772
67.1879 576 24
67.3054 575 23.9792
67.4228 556 23.5797
67.5402 566 23.7908
67.6576 618 24.8596
67.7749 632 25.1396
67.8923 588 24.2487
68.0096 601 24.5153
68.1269 600 24.4949
68.2442 567 23.8118
68.3614 630 25.0998
68.4787 562 23.7065
68.5958 641 25.318
68.713 641 25.318
68.8302 604 24.5764
68.9473 595 24.3926
69.0643 565 23.7697
69.1814 529 23
69.2984 604 24.5764
69.4154 536 23.1517
69.5323 558 23.622
69.6492 586 24.2074
69.7661 620 24.8998
69.8829 569 23.8537
69.9997 593 24.3516
70.1165 569 23.8537
70.2332 621 24.9199
70.3499 560 23.6643
70.4665 551 23.4734
70.5831 496 22.2711
70.6996 440 20.9762
70.8161 456 21.3542
70.9326 398 19.9499
71.049 360 18.9737
71.1653 337 18.3576
71.2817 322 17.9444
71.3979 320 17.8885
71.5141 260 16.1245
71.6303 251 15.843
71.7464 200 14.1421
71.8624 0 1
71.9784 0 1
72.0944 0 1
72.2102 0 1
72.3261 0 1
72.4418 0 1
72.5575 0 1
72.6732 0 1
75.1054 0 1
75.2209 0 1
75.3365 0 1
75.4521 0 1
75.5678 0 1
75.6835 0 1
75.7993 0 1
75.9151 0 1
76.031 0 1
76.147 313 17.6918
76.263 400 20
76.3791 429 20.7123
76.4952 460 21.4476
76.6113 477 21.8403
76.7276 507 22.5167
76.8438 486 22.0454
76.9601 546 23.3666
77.0765 474 21.7715
77.1929 502 22.4054
77.3093 507 22.5167
77.4258 514 22.6716
77.5423 489 22.1133
77.6589 535 23.1301
77.7755 513 22.6495
77.8921 490 22.1359
78.0088 495 22.2486
78.1256 511 22.6053
78.2423 505 22.4722
78.3591 448 21.166
78.4759 476 21.8174
78.5928 435 20.8567
78.7097 473 21.7486
78.8266 464 21.5407
78.9436 499 22.3383
79.0606 496 22.2711
79.1776 506 22.4944
79.2946 547 23.388
79.4117 506 22.4944
79.5288 530 23.0217
79.6459 491 22.1585
79.7631 482 21.9545
79.8802 522 22.8473
79.9974 512 22.6274
80.1147 525 22.9129
80.2319 473 21.7486
80.3491 546 23.3666
80.4664 523 22.8692
80.5837 488 22.0907
80.701 526 22.9347
80.8183 523 22.8692
80.9357 537 23.1733
81.053 530 23.0217
81.1704 545 23.3452
81.2877 562 23.7065
81.4051 529 23
81.5225 526 22.9347
81.6399 542 23.2809
81.7573 517 22.7376
81.8747 470 21.6795
81.9922 490 22.1359
82.1096 480 21.9089
82.227 485 22.0227
82.3444 454 21.3073
82.4619 505 22.4722
82.5793 529 23
82.6967 545 23.3452
82.8142 553 23.516
82.9316 556 23.5797
83.049 560 23.6643
83.1664 518 22.7596
83.2838 509 22.561
83.4012 517 22.7376
83.5186 533 23.0868
83.636 533 23.0868
83.7534 542 23.2809
83.8708 573 23.9374
83.9881 571 23.8956
84.1055 572 23.9165
84.2228 579 24.0624
84.3401 557 23.6008
84.4575 480 21.9089
84.5747 515 22.6936
84.692 548 23.4094
84.8093 516 22.7156
84.9265 545 23.3452
85.0437 540 23.2379
85.1609 538 23.1948
85.2781 524 22.891
85.3952 496 22.2711
85.5123 483 21.9773
85.6294 501 22.383
85.7465 490 22.1359
85.8636 499 22.3383
85.9806 551 23.4734
86.0976 538 23.1948
86.2145 510 22.5832
86.3315 585 24.1868
86.4484 551 23.4734
86.5652 565 23.7697
86.682 527 22.9565
86.7988 558 23.622
86.9156 504 22.4499
87.0323 523 22.8692
87.149 531 23.0434
87.2657 576 24
87.3823 507 22.5167
87.4988 542 23.2809
87.6154 531 23.0434
87.7318 460 21.4476
87.8483 456 21.3542
87.9647 450 21.2132
88.081 456 21.3542
88.1973 393 19.8242
88.3136 364 19.0788
88.4298 364 19.0788
88.546 307 17.5214
88.6621 316 17.7764
88.7781 276 16.6132
88.8942 0 1
89.0101 0 1
89.126 0 1
89.2419 0 1
89.3577 0 1
89.4734 0 1
89.5891 0 1
89.7047 0 1
89.8203 0 1
89.9358 0 1
92.3269 0 1
92.4424 0 1
92.558 0 1
92.6736 0 1
92.7893 0 1
92.905 0 1
93.0208 0 1
93.1366 0 1
93.2525 0 1
93.3685 0 1
93.4845 0 1
93.6005 434 20.8327
93.7167 439 20.9523
93.8328 513 22.6495
93.949 489 22.1133
94.0653 512 22.6274
94.1816 554 23.5372
94.2979 516 22.7156
94.4143 541 23.2594
94.5307 520 22.8035
94.6472 499 22.3383
94.7637 556 23.5797
94.8803 528 22.9783
94.9969 493 22.2036
95.1135 517 22.7376
95.2302 601 24.5153
95.3469 525 22.9129
95.4637 564 23.7487
95.5805 543 23.3024
95.6973 590 24.2899
95.8142 562 23.7065
95.9311 542 23.2809
96.048 509 22.561
96.1649 533 23.0868
96.2819 589 24.2693
96.3989 554 23.5372
96.516 548 23.4094
96.633 586 24.2074
96.7501 630 25.0998
96.8673 592 24.3311
96.9844 581 24.1039
97.1016 535 23.1301
97.2188 537 23.1733
97.336 534 23.1084
97.4532 565 23.7697
97.5704 563 23.7276
97.6877 578 24.0416
97.805 570 23.8747
97.9223 560 23.6643
98.0396 581 24.1039
98.1569 565 23.7697
98.2743 548 23.4094
98.3916 583 24.1454
98.509 570 23.8747
98.6264 519 22.7816
98.7438 562 23.7065
98.8612 590 24.2899
98.9786 669 25.865
99.096 625 25
99.2134 648 25.4558
99.3308 608 24.6577
99.4482 596 24.4131
99.5656 616 24.8193
99.6831 580 24.0832
99.8005 602 24.5357
99.9179 598 24.454
100.035 629 25.0799
100.153 640 25.2982
100.27 632 25.1396
100.388 657 25.632
100.505 612 24.7386
100.622 653 25.5539
100.74 621 24.9199
100.857 612 24.7386
100.975 589 24.2693
101.092 625 25
101.209 590 24.2899
101.327 623 24.96
101.444 634 25.1794
101.561 627 25.04
101.679 618 24.8596
101.796 587 24.2281
101.913 627 25.04
102.03 600 24.4949
102.148 593 24.3516
102.265 622 24.9399
102.382 614 24.779
102.499 614 24.779
102.616 653 25.5539
102.733 659 25.671
102.851 710 26.6458
102.968 686 26.1916
103.085 676 26
103.202 669 25.865
103.319 651 25.5147
103.436 670 25.8844
103.552 664 25.7682
103.669 645 25.3969
103.786 718 26.7955
103.903 719 26.8142
104.02 695 26.3629
104.137 686 26.1916
104.253 627 25.04
104.37 671 25.9037
104.487 630 25.0998
104.603 642 25.3377
104.72 639 25.2784
104.836 625 25
104.953 681 26.096
105.069 672 25.923
105.186 592 24.3311
105.302 571 23.8956
105.418 506 22.4944
105.535 458 21.4009
105.651 418 20.445
105.767 354 18.8149
105.883 350 18.7083
105.999 362 19.0263
106.115 0 1
106.231 0 1
106.347 0 1
106.463 0 1
106.579 0 1
106.694 0 1
106.81 0 1
106.926 0 1
107.041 0 1
107.157 0 1
109.576 0 1
109.692 0 1
109.807 0 1
109.923 0 1
110.039 0 1
110.155 0 1
110.27 0 1
110.386 0 1
110.502 0 1
110.618 334 18.2757
110.735 379 19.4679
110.851 449 21.1896
110.967 495 22.2486
111.083 550 23.4521
111.199 538 23.1948
111.316 596 24.4131
111.432 622 24.9399
111.549 649 25.4755
111.665 608 24.6577
111.782 652 25.5343
111.898 604 24.5764
112.015 625 25
112.132 653 25.5539
112.248 594 24.3721
112.365 663 25.7488
112.482 640 25.2982
112.599 658 25.6515
112.716 638 25.2587
112.832 610 24.6982
112.949 620 24.8998
113.066 555 23.5584
113.183 615 24.7992
113.3 599 24.4745
113.417 594 24.3721
113.534 613 24.7588
113.652 596 24.4131
113.769 631 25.1197
113.886 621 24.9199
114.003 567 23.8118
114.12 571 23.8956
114.238 560 23.6643
114.355 560 23.6643
114.472 562 23.7065
114.589 571 23.8956
114.707 554 23.5372
114.824 546 23.3666
114.942 592 24.3311
115.059 623 24.96
115.176 602 24.5357
115.294 583 24.1454
115.411 583 24.1454
115.529 570 23.8747
115.646 554 23.5372
115.764 562 23.7065
115.881 602 24.5357
115.999 555 23.5584
116.116 588 24.2487
116.234 598 24.454
116.351 571 23.8956
116.469 533 23.0868
116.586 552 23.4947
116.704 536 23.1517
116.821 535 23.1301
116.939 555 23.5584
117.056 519 22.7816
117.174 547 23.388
117.291 553 23.516
117.409 550 23.4521
117.526 566 23.7908
117.644 530 23.0217
117.761 513 22.6495
117.879 562 23.7065
117.996 497 22.2935
118.114 523 22.8692
118.231 534 23.1084
118.349 525 22.9129
118.466 598 24.454
118.584 564 23.7487
118.701 566 23.7908
118.819 537 23.1733
118.936 587 24.2281
119.053 549 23.4307
119.171 497 22.2935
119.288 477 21.8403
119.405 545 23.3452
119.523 593 24.3516
119.64 561 23.6854
119.757 529 23
119.875 532 23.0651
119.992 555 23.5584
120.109 540 23.2379
120.226 521 22.8254
120.343 521 22.8254
120.46 508 22.5389
120.578 498 22.3159
120.695 532 23.0651
120.812 482 21.9545
120.929 544 23.3238
121.046 490 22.1359
121.163 537 23.1733
121.279 493 22.2036
121.396 487 22.0681
121.513 444 21.0713
121.63 475 21.7945
121.747 434 20.8327
121.863 429 20.7123
121.98 422 20.5426
122.097 450 21.2132
122.213 421 20.5183
122.33 421 20.5183
122.446 428 20.6882
122.563 392 19.799
122.679 377 19.4165
122.795 354 18.8149
122.912 344 18.5472
123.028 274 16.5529
123.144 307 17.5214
123.26 283 16.8226
123.377 0 1
123.493 0 1
123.609 0 1
123.725 0 1
123.84 0 1
123.956 0 1
124.072 0 1
124.188 0 1
124.303 0 1
124.419 0 1
126.852 0 1
126.968 0 1
127.083 0 1
127.199 0 1
127.315 0 1
127.431 0 1
127.547 0 1
127.663 0 1
127.779 0 1
127.895 0 1
128.011 0 1
128.127 0 1
128.243 0 1
128.359 528 22.9783
128.476 551 23.4734
128.592 569 23.8537
128.708 606 24.6171
128.825 600 24.4949
128.941 596 24.4131
129.058 583 24.1454
129.174 651 25.5147
129.291 558 23.622
129.408 556 23.5797
129.524 600 24.4949
129.641 630 25.0998
129.758 605 24.5967
129.875 634 25.1794
129.992 600 24.4949
130.108 596 24.4131
130.225 593 24.3516
130.342 628 25.0599
130.459 552 23.4947
130.576 615 24.7992
130.693 555 23.5584
130.81 613 24.7588
130.928 607 24.6374
131.045 664 25.7682
131.162 715 26.7395
131.279 666 25.807
131.396 742 27.2397
131.513 793 28.1603
131.631 770 27.7489
131.748 827 28.7576
131.865 756 27.4955
131.983 800 28.2843
132.1 782 27.9643
132.217 888 29.7993
132.335 887 29.7825
132.452 961 31
132.57 1012 31.8119
132.687 1005 31.7017
132.804 1031 32.1092
132.922 1105 33.2415
133.039 1060 32.5576
133.157 1116 33.4066
133.274 1063 32.6037
133.392 1166 34.1467
133.509 1118 33.4365
133.627 1109 33.3017
133.744 1126 33.5559
133.862 1042 32.28
133.979 1060 32.5576
134.097 1027 32.0468
134.214 1019 31.9218
134.332 990 31.4643
134.449 1019 31.9218
134.567 1014 31.8434
134.684 1066 32.6497
134.802 1113 33.3617
134.919 1072 32.7414
135.037 1166 34.1467
135.154 1185 34.4238
135.272 1083 32.909
135.389 1068 32.6803
135.507 948 30.7896
135.624 1030 32.0936
135.742 1019 31.9218
135.859 1028 32.0624
135.977 1093 33.0606
136.094 1112 33.3467
136.211 1132 33.6452
136.329 1150 33.9116
136.446 1144 33.8231
136.564 1167 34.1614
136.681 1107 33.2716
136.798 1155 33.9853
136.915 1228 35.0428
137.033 1160 34.0588
137.15 1158 34.0294
137.267 1210 34.7851
137.384 1118 33.4365
137.502 1132 33.6452
137.619 1030 32.0936
137.736 1066 32.6497
137.853 993 31.5119
137.97 1068 32.6803
138.087 1026 32.0312
138.204 1064 32.619
138.321 1095 33.0908
138.438 1091 33.0303
138.555 1145 33.8378
138.672 1178 34.322
138.788 1123 33.5112
138.905 1233 35.1141
139.022 1109 33.3017
139.139 973 31.1929
139.255 954 30.8869
139.372 946 30.7571
139.488 949 30.8058
139.605 990 31.4643
139.721 913 30.2159
139.838 856 29.2575
139.954 827 28.7576
140.071 731 27.037
140.187 718 26.7955
140.303 675 25.9808
140.419 685 26.1725
140.535 659 25.671
140.652 583 24.1454
140.768 0 1
140.884 0 1
141 0 1
141.115 0 1
141.231 0 1
141.347 0 1
141.463 0 1
141.578 0 1
141.694 0 1
144.104 0 1
144.219 0 1
144.335 0 1
144.45 0 1
144.566 0 1
144.682 0 1
144.798 0 1
144.914 0 1
145.03 0 1
145.146 1303 36.0971
145.262 1456 38.1576
145.378 1446 38.0263
145.494 1457 38.1707
145.61 1505 38.7943
145.726 1572 39.6485
145.842 1616 40.1995
145.959 1681 41
146.075 1642 40.5216
146.192 1756 41.9047
146.308 1794 42.3556
146.425 1780 42.19
146.541 1781 42.2019
146.658 1744 41.7612
146.774 1928 43.909
146.891 1893 43.5086
147.008 1846 42.9651
147.125 1729 41.5812
147.241 1749 41.821
147.358 1931 43.9431
147.475 2068 45.4753
147.592 2161 46.4866
147.709 2096 45.7821
147.826 2095 45.7712
147.943 1975 44.441
148.06 1867 43.2088
148.177 2035 45.111
148.294 1972 44.4072
148.411 2047 45.2438
148.528 2109 45.9239
148.645 2036 45.1221
148.762 2077 45.5741
148.88 2114 45.9783
148.997 2171 46.594
149.114 2082 45.6289
149.231 2019 44.9333
149.349 2072 45.5192
149.466 2030 45.0555
149.583 2045 45.2217
149.701 2079 45.5961
149.818 1944 44.0908
149.935 1891 43.4856
150.053 1900 43.589
150.17 1826 42.7317
150.287 1778 42.1663
150.405 1801 42.4382
150.522 1748 41.8091
150.64 1743 41.7493
150.757 1617 40.2119
150.875 1637 40.4599
150.992 1755 41.8927
151.11 1753 41.8688
151.227 1902 43.6119
151.344 1802 42.45
151.462 1813 42.5793
151.579 1731 41.6053
151.697 1669 40.8534
151.814 1603 40.0375
151.932 1742 41.7373
152.049 1675 40.9268
152.167 1717 41.4367
152.284 1765 42.0119
152.402 1779 42.1782
152.519 1756 41.9047
152.636 1792 42.332
152.754 1690 41.1096
152.871 1765 42.0119
152.989 1719 41.4608
153.106 1739 41.7013
153.223 1747 41.7971
153.341 1685 41.0488
153.458 1660 40.7431
153.575 1603 40.0375
153.693 1509 38.8458
153.81 1490 38.6005
153.927 1500 38.7298
154.044 1493 38.6394
154.162 1522 39.0128
154.279 1486 38.5487
154.396 1398 37.3898
154.513 1456 38.1576
154.63 1599 39.9875
154.747 1720 41.4729
154.864 1670 40.8656
154.981 1630 40.3733
155.098 1616 40.1995
155.215 1535 39.1791
155.332 1589 39.8623
155.449 1544 39.2938
155.566 1604 40.05
155.683 1623 40.2865
155.8 1591 39.8873
155.917 1650 40.6202
156.033 1665 40.8044
156.15 0 1
156.267 0 1
156.383 0 1
156.5 0 1
156.617 0 1
156.733 0 1
156.85 0 1
156.966 0 1
157.082 0 1
157.199 0 1
157.315 0 1
157.431 0 1
157.547 0 1
157.664 0 1
157.78 0 1
157.896 0 1
158.012 0 1
158.128 0 1
158.244 0 1
158.359 0 1
158.475 0 1
158.591 0 1
158.706 0 1
