
6.15755 0 1
6.2731 0 1
6.3887 0 1
6.50437 0 1
6.62009 0 1
6.73587 0 1
6.8517 0 1
6.96759 0 1
7.08353 0 1
7.19952 0 1
7.31557 0 1
7.43166 0 1
7.54781 0 1
7.664 0 1
7.78024 0 1
7.89653 0 1
8.01286 0 1
8.12924 0 1
8.24567 0 1
8.36213 0 1
8.47864 0 1
8.59519 0 1
8.71178 0 1
8.82841 0 1
8.94508 0 1
9.06179 0 1
9.17853 0 1
9.29531 0 1
9.41212 0 1
9.52897 0 1
9.64584 0 1
9.76276 0 1
9.8797 0 1
9.99667 0 1
10.1137 0 1
10.2307 0 1
10.3478 0 1
10.4648 0 1
10.5819 0 1
10.6991 0 1
10.8162 0 1
10.9334 0 1
11.0506 0 1
11.1678 0 1
11.285 0 1
11.4023 0 1
11.5196 0 1
11.6369 0 1
11.7542 0 1
11.8715 0 1
11.9888 0 1
12.1062 0 1
12.2235 0 1
12.3409 0 1
12.4582 0 1
12.5756 0 1
12.693 0 1
12.8104 0 1
12.9278 0 1
13.0452 0 1
13.1626 0 1
13.28 0 1
13.3974 0 1
13.5149 0 1
13.6323 0 1
13.7497 0 1
13.8671 0 1
13.9845 0 1
14.1019 0 1
14.2193 0 1
14.3367 0 1
14.4541 0 1
14.5714 0 1
14.6888 0 1
14.8062 0 1
14.9235 0 1
15.0408 0 0
15.1581 0 0
15.2755 0 0
15.3927 0 0
15.51 0 0
15.6273 0 0
15.7445 0 0
15.8617 0 0
15.9789 0 0
16.0961 0 0
16.2132 0 0
16.3304 0 0
16.4475 0 0
16.5646 0 0
16.6816 0 0
16.7986 0 0
16.9156 0 0
17.0326 0 0
17.1496 0 0
17.2665 0 0
17.3833 0 0
17.5002 0 0
17.617 0 0
17.7338 0 0
17.8505 0 0
17.9672 0 0
18.0839 0 0
18.2005 0 0
18.3171 0 0
18.4337 0 0
18.5502 0 0
18.6666 0 0
18.7831 0 0
18.8994 0 0
19.0158 0 0
19.1321 0 0
19.2483 0 0
19.3645 0 0
19.4806 0 0
19.5967 0 0
19.7128 0 0
19.8288 0 0
19.9447 0 0
20.0606 0 1
20.1764 0 1
20.2922 0 1
20.4079 0 1
20.5236 0 1
20.6392 0 1
20.7548 0 1
20.8702 0 1
23.3078 0 1
23.4233 0 1
23.539 0 1
23.6547 0 1
23.7704 0 1
23.8862 0 1
24.0021 0 1
24.118 0 1
24.234 0 1
24.35 0 1
24.4661 1709 41.3401
24.5822 1649 40.6079
24.6984 1632 40.398
24.8146 1634 40.4228
24.9309 1732 41.6173
25.0472 1626 40.3237
25.1636 1460 38.2099
25.28 1473 38.3797
25.3965 1453 38.1182
25.513 1522 39.0128
25.6296 1607 40.0874
25.7462 1739 41.7013
25.8628 1810 42.5441
25.9795 1875 43.3013
26.0962 1771 42.0833
26.213 1856 43.0813
26.3298 1814 42.5911
26.4466 1900 43.589
26.5635 1713 41.3884
26.6804 1647 40.5832
26.7973 1689 41.0974
26.9143 1752 41.8569
27.0313 1725 41.5331
27.1483 1812 42.5676
27.2653 1795 42.3674
27.3824 1873 43.2782
27.4996 1836 42.8486
27.6167 1747 41.7971
27.7339 1759 41.9404
27.8511 1782 42.2137
27.9683 1778 42.1663
28.0855 1736 41.6653
28.2028 1760 41.9524
28.3201 1716 41.4246
28.4374 1696 41.1825
28.5547 1582 39.7744
28.6721 1482 38.4968
28.7894 1483 38.5097
28.9068 1441 37.9605
29.0242 1429 37.8021
29.1416 1450 38.0789
29.259 1685 41.0488
29.3764 1750 41.833
29.4939 1817 42.6263
29.6113 1800 42.4264
29.7288 1768 42.0476
29.8463 1722 41.497
29.9638 1762 41.9762
30.0812 1691 41.1218
30.1987 1614 40.1746
30.3162 1684 41.0366
30.4337 1572 39.6485
30.5512 1753 41.8688
30.6687 1702 41.2553
30.7862 1743 41.7493
30.9037 1758 41.9285
31.0212 1752 41.8569
31.1387 1796 42.3792
31.2562 1778 42.1663
31.3737 1723 41.509
31.4912 1722 41.497
31.6087 1729 41.5812
31.7262 1786 42.2611
31.8436 1771 42.0833
31.9611 1616 40.1995
32.0785 1655 40.6817
32.1959 1490 38.6005
32.3134 1524 39.0384
32.4308 1422 37.7094
32.5482 1489 38.5876
32.6655 1497 38.6911
32.7829 1658 40.7185
32.9002 1738 41.6893
33.0176 1669 40.8534
33.1349 1735 41.6533
33.2522 1757 41.9166
33.3694 1730 41.5933
33.4867 1769 42.0595
33.6039 1725 41.5331
33.7211 1602 40.025
33.8383 1647 40.5832
33.9554 1562 39.5221
34.0725 1583 39.7869
34.1896 1556 39.4462
34.3067 1672 40.8901
34.4237 1749 41.821
34.5407 1832 42.8019
34.6577 1806 42.4971
34.7746 1790 42.3084
34.8915 1756 41.9047
35.0084 1737 41.6773
35.1252 1711 41.3642
35.242 1861 43.1393
35.3587 1745 41.7732
35.4755 1697 41.1947
35.5921 1718 41.4488
35.7088 1683 41.0244
35.8254 1555 39.4335
35.9419 1445 38.0132
36.0584 1392 37.3095
36.1749 1431 37.8286
36.2913 1470 38.3406
36.4077 1519 38.9744
36.524 1602 40.025
36.6403 1612 40.1497
36.7565 1631 40.3856
36.8727 1719 41.4608
36.9889 1703 41.2674
37.1049 1667 40.8289
37.221 0 1
37.3369 0 1
37.4529 0 1
37.5687 0 1
37.6845 0 1
37.8003 0 1
37.916 0 1
38.0316 0 1
38.1472 0 1
40.5851 0 1
40.7008 0 1
40.8164 0 1
40.9322 0 1
41.048 0 1
41.1639 0 1
41.2798 0 1
41.3958 0 1
41.5118 0 1
41.6279 0 1
41.744 1273 35.6791
41.8602 1308 36.1663
41.9765 1409 37.5366
42.0928 1408 37.5233
42.2091 1430 37.8153
42.3255 1445 38.0132
42.4419 1372 37.0405
42.5584 1303 36.0971
42.675 1240 35.2136
42.7915 1203 34.6843
42.9081 1296 36
43.0248 1367 36.973
43.1415 1366 36.9594
43.2582 1302 36.0832
43.375 1340 36.606
43.4918 1445 38.0132
43.6087 1363 36.9188
43.7256 1375 37.081
43.8425 1393 37.3229
43.9595 1428 37.7889
44.0765 1308 36.1663
44.1935 1315 36.2629
44.3106 1320 36.3318
44.4277 1304 36.1109
44.5448 1141 33.7787
44.6619 1053 32.45
44.7791 1052 32.4345
44.8963 1019 31.9218
45.0136 1023 31.9844
45.1308 1086 32.9545
45.2481 1078 32.8329
45.3654 1169 34.1906
45.4827 1184 34.4093
45.6001 1079 32.8481
45.7174 1201 34.6554
45.8348 1110 33.3167
45.9522 1102 33.1964
46.0697 1009 31.7648
46.1871 955 30.9031
46.3046 841 29
46.422 921 30.348
46.5395 985 31.3847
46.657 994 31.5278
46.7745 922 30.3645
46.892 1079 32.8481
47.0096 1077 32.8177
47.1271 1050 32.4037
47.2446 1077 32.8177
47.3622 1056 32.4962
47.4797 1065 32.6343
47.5973 1006 31.7175
47.7149 1020 31.9374
47.8324 1016 31.8748
47.95 989 31.4484
48.0675 878 29.6311
48.1851 861 29.3428
48.3027 797 28.2312
48.4202 853 29.2062
48.5378 876 29.5973
48.6554 850 29.1548
48.7729 927 30.4467
48.8904 964 31.0483
49.008 963 31.0322
49.1255 946 30.7571
49.243 918 30.2985
49.3605 922 30.3645
49.478 853 29.2062
49.5955 812 28.4956
49.713 783 27.9821
49.8304 740 27.2029
49.9479 716 26.7582
50.0653 809 28.4429
50.1827 900 30
50.3001 989 31.4484
50.4175 930 30.4959
50.5348 1068 32.6803
50.6521 1054 32.4654
50.7694 1089 33
50.8867 1073 32.7567
51.004 1139 33.7491
51.1212 1173 34.2491
51.2384 1147 33.8674
51.3556 1151 33.9264
51.4727 1159 34.0441
51.5899 1098 33.1361
51.707 1035 32.1714
51.824 984 31.3688
51.9411 1076 32.8024
52.0581 1069 32.6956
52.175 1128 33.5857
52.2919 1228 35.0428
52.4088 1223 34.9714
52.5257 1264 35.5528
52.6425 1339 36.5923
52.7593 1270 35.6371
52.876 1285 35.8469
52.9927 1206 34.7275
53.1094 1118 33.4365
53.226 1094 33.0757
53.3426 1107 33.2716
53.4591 979 31.289
53.5756 1078 32.8329
53.692 1201 34.6554
53.8084 1333 36.5103
53.9248 1321 36.3456
54.0411 1370 37.0135
54.1573 1448 38.0526
54.2735 0 1
54.3896 0 1
54.5057 0 1
54.6217 0 1
54.7377 0 1
54.8537 0 1
54.9695 0 1
55.0853 0 1
55.2011 0 1
55.3168 0 1
55.4324 0 1
57.824 0 1
57.9396 0 1
58.0553 0 1
58.1711 0 1
58.2869 0 1
58.4028 0 1
58.5187 0 1
58.6347 0 1
58.7508 0 1
58.8669 0 1
58.983 1453 38.1182
59.0992 1546 39.3192
59.2155 1653 40.6571
59.3318 1669 40.8534
59.4482 1707 41.3159
59.5646 1726 41.5452
59.681 1718 41.4488
59.7975 1657 40.7063
59.9141 1692 41.1339
60.0306 1637 40.4599
60.1473 1543 39.281
60.2639 1415 37.6165
60.3807 1399 37.4032
60.4974 1375 37.081
60.6142 1359 36.8646
60.731 1498 38.704
60.8479 1513 38.8973
60.9648 1569 39.6106
61.0818 1480 38.4708
61.1987 1534 39.1663
61.3158 1467 38.3014
61.4328 1485 38.5357
61.5499 1482 38.4968
61.667 1329 36.4555
61.7841 1315 36.2629
61.9013 1275 35.7071
62.0185 1249 35.3412
62.1357 1323 36.3731
62.253 1431 37.8286
62.3702 1527 39.0768
62.4875 1626 40.3237
62.6049 1658 40.7185
62.7222 1641 40.5093
62.8396 1719 41.4608
62.9569 1761 41.9643
63.0743 1858 43.1045
63.1918 1829 42.7668
63.3092 1794 42.3556
63.4267 1738 41.6893
63.5441 1563 39.5348
63.6616 1606 40.0749
63.7791 1472 38.3667
63.8966 1457 38.1707
64.0142 1504 38.7814
64.1317 1564 39.5474
64.2492 1569 39.6106
64.3668 1648 40.5956
64.4843 1673 40.9023
64.6019 1750 41.833
64.7195 1704 41.2795
64.837 1737 41.6773
64.9546 1754 41.8808
65.0722 1561 39.5095
65.1898 1426 37.7624
65.3074 1357 36.8375
65.4249 1217 34.8855
65.5425 1160 34.0588
65.6601 1241 35.2278
65.7777 1368 36.9865
65.8952 1550 39.37
66.0128 1545 39.3065
66.1304 1694 41.1582
66.2479 1706 41.3038
66.3655 1808 42.5206
66.483 1839 42.8836
66.6005 1772 42.0951
66.718 1781 42.2019
66.8355 1742 41.7373
66.953 1646 40.5709
67.0705 1719 41.4608
67.1879 1557 39.4588
67.3054 1467 38.3014
67.4228 1365 36.9459
67.5402 1411 37.5633
67.6576 1373 37.054
67.7749 1467 38.3014
67.8923 1461 38.223
68.0096 1410 37.55
68.1269 1374 37.0675
68.2442 1475 38.4057
68.3614 1494 38.6523
68.4787 1488 38.5746
68.5958 1391 37.2961
68.713 1315 36.2629
68.8302 1231 35.0856
68.9473 1127 33.5708
69.0643 988 31.4325
69.1814 1020 31.9374
69.2984 1044 32.311
69.4154 1228 35.0428
69.5323 1275 35.7071
69.6492 1382 37.1753
69.7661 1498 38.704
69.8829 1559 39.4842
69.9997 1494 38.6523
70.1165 1631 40.3856
70.2332 1621 40.2616
70.3499 1653 40.6571
70.4665 1473 38.3797
70.5831 1562 39.5221
70.6996 1443 37.9868
70.8161 1405 37.4833
70.9326 1286 35.8608
71.049 1237 35.171
71.1653 1218 34.8999
71.2817 1220 34.9285
71.3979 1289 35.9026
71.5141 1244 35.2704
71.6303 1308 36.1663
71.7464 1172 34.2345
71.8624 0 1
71.9784 0 1
72.0944 0 1
72.2102 0 1
72.3261 0 1
72.4418 0 1
72.5575 0 1
72.6732 0 1
75.1054 0 1
75.2209 0 1
75.3365 0 1
75.4521 0 1
75.5678 0 1
75.6835 0 1
75.7993 0 1
75.9151 0 1
76.031 0 1
76.147 1275 35.7071
76.263 1349 36.7287
76.3791 1283 35.819
76.4952 1217 34.8855
76.6113 1215 34.8569
76.7276 1360 36.8782
76.8438 1249 35.3412
76.9601 1286 35.8608
77.0765 1346 36.6879
77.1929 1382 37.1753
77.3093 1375 37.081
77.4258 1437 37.9078
77.5423 1439 37.9342
77.6589 1350 36.7423
77.7755 1241 35.2278
77.8921 1108 33.2866
78.0088 970 31.1448
78.1256 973 31.1929
78.2423 895 29.9166
78.3591 982 31.3369
78.4759 1179 34.3366
78.5928 1217 34.8855
78.7097 1327 36.428
78.8266 1346 36.6879
78.9436 1481 38.4838
79.0606 1500 38.7298
79.1776 1506 38.8072
79.2946 1597 39.9625
79.4117 1544 39.2938
79.5288 1444 38
79.6459 1424 37.7359
79.7631 1417 37.6431
79.8802 1256 35.4401
79.9974 1234 35.1283
80.1147 1163 34.1028
80.2319 1262 35.5246
80.3491 1242 35.242
80.4664 1217 34.8855
80.5837 1250 35.3553
80.701 1209 34.7707
80.8183 1337 36.565
80.9357 1296 36
81.053 1338 36.5787
81.1704 1296 36
81.2877 1241 35.2278
81.4051 1118 33.4365
81.5225 990 31.4643
81.6399 886 29.7658
81.7573 862 29.3598
81.8747 843 29.0345
81.9922 904 30.0666
82.1096 1075 32.7872
82.227 1189 34.4819
82.3444 1178 34.322
82.4619 1252 35.3836
82.5793 1338 36.5787
82.6967 1288 35.8887
82.8142 1339 36.5923
82.9316 1366 36.9594
83.049 1374 37.0675
83.1664 1368 36.9865
83.2838 1258 35.4683
83.4012 1239 35.1994
83.5186 1195 34.5688
83.636 1202 34.6699
83.7534 1047 32.3574
83.8708 1144 33.8231
83.9881 1155 33.9853
84.1055 1183 34.3948
84.2228 1127 33.5708
84.3401 1131 33.6303
84.4575 1261 35.5106
84.5747 1198 34.6121
84.692 1232 35.0999
84.8093 1198 34.6121
84.9265 1059 32.5423
85.0437 901 30.0167
85.1609 879 29.6479
85.2781 774 27.8209
85.3952 774 27.8209
85.5123 767 27.6948
85.6294 942 30.692
85.7465 1087 32.9697
85.8636 1231 35.0856
85.9806 1320 36.3318
86.0976 1385 37.2156
86.2145 1427 37.7757
86.3315 1513 38.8973
86.4484 1375 37.081
86.5652 1506 38.8072
86.682 1470 38.3406
86.7988 1467 38.3014
86.9156 1355 36.8103
87.0323 1335 36.5377
87.149 1288 35.8887
87.2657 1274 35.6931
87.3823 1319 36.318
87.4988 1285 35.8469
87.6154 1336 36.5513
87.7318 1285 35.8469
87.8483 1323 36.3731
87.9647 1376 37.0945
88.081 1409 37.5366
88.1973 1406 37.4967
88.3136 1428 37.7889
88.4298 1324 36.3868
88.546 1108 33.2866
88.6621 990 31.4643
88.7781 870 29.4958
88.8942 0 1
89.0101 0 1
89.126 0 1
89.2419 0 1
89.3577 0 1
89.4734 0 1
89.5891 0 1
89.7047 0 1
89.8203 0 1
89.9358 0 1
92.3269 0 1
92.4424 0 1
92.558 0 1
92.6736 0 1
92.7893 0 1
92.905 0 1
93.0208 0 1
93.1366 0 1
93.2525 0 1
93.3685 0 1
93.4845 0 1
93.6005 1440 37.9473
93.7167 1391 37.2961
93.8328 1366 36.9594
93.949 1352 36.7696
94.0653 1064 32.619
94.1816 1002 31.6544
94.2979 976 31.241
94.4143 895 29.9166
94.5307 927 30.4467
94.6472 1051 32.4191
94.7637 1207 34.7419
94.8803 1342 36.6333
94.9969 1448 38.0526
95.1135 1515 38.923
95.2302 1552 39.3954
95.3469 1565 39.5601
95.4637 1675 40.9268
95.5805 1650 40.6202
95.6973 1646 40.5709
95.8142 1680 40.9878
95.9311 1614 40.1746
96.048 1655 40.6817
96.1649 1430 37.8153
96.2819 1414 37.6032
96.3989 1490 38.6005
96.516 1532 39.1408
96.633 1420 37.6829
96.7501 1482 38.4968
96.8673 1453 38.1182
96.9844 1531 39.128
97.1016 1510 38.8587
97.2188 1463 38.2492
97.336 1488 38.5746
97.4532 1519 38.9744
97.5704 1365 36.9459
97.6877 1214 34.8425
97.805 1131 33.6303
97.9223 909 30.1496
98.0396 850 29.1548
98.1569 915 30.249
98.2743 937 30.6105
98.3916 1166 34.1467
98.509 1340 36.606
98.6264 1392 37.3095
98.7438 1467 38.3014
98.8612 1550 39.37
98.9786 1582 39.7744
99.096 1614 40.1746
99.2134 1631 40.3856
99.3308 1701 41.2432
99.4482 1761 41.9643
99.5656 1634 40.4228
99.6831 1615 40.1871
99.8005 1563 39.5348
99.9179 1542 39.2683
100.035 1581 39.7618
100.153 1532 39.1408
100.27 1501 38.7427
100.388 1527 39.0768
100.505 1530 39.1152
100.622 1624 40.2989
100.74 1535 39.1791
100.857 1486 38.5487
100.975 1544 39.2938
101.092 1555 39.4335
101.209 1478 38.4448
101.327 1225 35
101.444 1057 32.5115
101.561 943 30.7083
101.679 902 30.0333
101.796 919 30.315
101.913 1143 33.8083
102.03 1327 36.428
102.148 1531 39.128
102.265 1657 40.7063
102.382 1752 41.8569
102.499 1696 41.1825
102.616 1762 41.9762
102.733 1778 42.1663
102.851 1794 42.3556
102.968 1787 42.2729
103.085 1709 41.3401
103.202 1742 41.7373
103.319 1731 41.6053
103.436 1698 41.2068
103.552 1618 40.2244
103.669 1651 40.6325
103.786 1618 40.2244
103.903 1653 40.6571
104.02 1545 39.3065
104.137 1633 40.4104
104.253 1629 40.3609
104.37 1605 40.0625
104.487 1600 40
104.603 1622 40.2741
104.72 1487 38.5616
104.836 1263 35.5387
104.953 1072 32.7414
105.069 1014 31.8434
105.186 983 31.3528
105.302 1023 31.9844
105.418 1255 35.426
105.535 1499 38.7169
105.651 1650 40.6202
105.767 1845 42.9535
105.883 1846 42.9651
105.999 1865 43.1856
106.115 0 1
106.231 0 1
106.347 0 1
106.463 0 1
106.579 0 1
106.694 0 1
106.81 0 1
106.926 0 1
107.041 0 1
107.157 0 1
109.576 0 1
109.692 0 1
109.807 0 1
109.923 0 1
110.039 0 1
110.155 0 1
110.27 0 1
110.386 0 1
110.502 0 1
110.618 1365 36.9459
110.735 1639 40.4846
110.851 1701 41.2432
110.967 1751 41.845
111.083 1724 41.5211
111.199 1723 41.509
111.316 1834 42.8252
111.432 1823 42.6966
111.549 1802 42.45
111.665 1935 43.9886
111.782 1684 41.0366
111.898 1740 41.7133
112.015 1684 41.0366
112.132 1777 42.1545
112.248 1646 40.5709
112.365 1625 40.3113
112.482 1469 38.3275
112.599 1696 41.1825
112.716 1506 38.8072
112.832 1581 39.7618
112.949 1667 40.8289
113.066 1569 39.6106
113.183 1548 39.3446
113.3 1369 37
113.417 1138 33.7343
113.534 994 31.5278
113.652 937 30.6105
113.769 926 30.4302
113.886 982 31.3369
114.003 1045 32.3265
114.12 1418 37.6563
114.238 1580 39.7492
114.355 1650 40.6202
114.472 1595 39.9375
114.589 1756 41.9047
114.707 1693 41.1461
114.824 1751 41.845
114.942 1742 41.7373
115.059 1814 42.5911
115.176 1734 41.6413
115.294 1673 40.9023
115.411 1709 41.3401
115.529 1600 40
115.646 1560 39.4968
115.764 1617 40.2119
115.881 1634 40.4228
115.999 1582 39.7744
116.116 1630 40.3733
116.234 1446 38.0263
116.351 1512 38.8844
116.469 1496 38.6782
116.586 1539 39.2301
116.704 1513 38.8973
116.821 1430 37.8153
116.939 1240 35.2136
117.056 1136 33.7046
117.174 1072 32.7414
117.291 990 31.4643
117.409 952 30.8545
117.526 1075 32.7872
117.644 1296 36
117.761 1438 37.921
117.879 1536 39.1918
117.996 1618 40.2244
118.114 1706 41.3038
118.231 1717 41.4367
118.349 1666 40.8167
118.466 1696 41.1825
118.584 1769 42.0595
118.701 1751 41.845
118.819 1670 40.8656
118.936 1625 40.3113
119.053 1651 40.6325
119.171 1677 40.9512
119.288 1606 40.0749
119.405 1602 40.025
119.523 1541 39.2556
119.64 1561 39.5095
119.757 1498 38.704
119.875 1524 39.0384
119.992 1560 39.4968
120.109 1525 39.0512
120.226 1550 39.37
120.343 1425 37.7492
120.46 1425 37.7492
120.578 1290 35.9166
120.695 1167 34.1614
120.812 1108 33.2866
120.929 1028 32.0624
121.046 1017 31.8904
121.163 1028 32.0624
121.279 1142 33.7935
121.396 1319 36.318
121.513 1437 37.9078
121.63 1516 38.9358
121.747 1604 40.05
121.863 1571 39.6358
121.98 1622 40.2741
122.097 1568 39.598
122.213 1685 41.0488
122.33 1657 40.7063
122.446 1571 39.6358
122.563 1605 40.0625
122.679 1600 40
122.795 1553 39.4081
122.912 1539 39.2301
123.028 1533 39.1535
123.144 1464 38.2623
123.26 1412 37.5766
123.377 0 1
123.493 0 1
123.609 0 1
123.725 0 1
123.84 0 1
123.956 0 1
124.072 0 1
124.188 0 1
124.303 0 1
124.419 0 1
126.852 0 1
126.968 0 1
127.083 0 1
127.199 0 1
127.315 0 1
127.431 0 1
127.547 0 1
127.663 0 1
127.779 0 1
127.895 0 1
128.011 0 1
128.127 0 1
128.243 0 1
128.359 1696 41.1825
128.476 1765 42.0119
128.592 1750 41.833
128.708 1755 41.8927
128.825 1696 41.1825
128.941 1744 41.7612
129.058 1677 40.9512
129.174 1713 41.3884
129.291 1719 41.4608
129.408 1631 40.3856
129.524 1368 36.9865
129.641 1293 35.9583
129.758 1214 34.8425
129.875 1132 33.6452
129.992 1088 32.9848
130.108 1114 33.3766
130.225 1265 35.5668
130.342 1403 37.4566
130.459 1475 38.4057
130.576 1551 39.3827
130.693 1646 40.5709
130.81 1713 41.3884
130.928 1728 41.5692
131.045 1733 41.6293
131.162 1816 42.6146
131.279 1724 41.5211
131.396 1810 42.5441
131.513 1778 42.1663
131.631 1753 41.8688
131.748 1698 41.2068
131.865 1759 41.9404
131.983 1758 41.9285
132.1 1799 42.4146
132.217 1734 41.6413
132.335 1680 40.9878
132.452 1708 41.328
132.57 1753 41.8688
132.687 1649 40.6079
132.804 1701 41.2432
132.922 1527 39.0768
133.039 1549 39.3573
133.157 1348 36.7151
133.274 1240 35.2136
133.392 1158 34.0294
133.509 1077 32.8177
133.627 1026 32.0312
133.744 1245 35.2846
133.862 1337 36.565
133.979 1445 38.0132
134.097 1470 38.3406
134.214 1527 39.0768
134.332 1640 40.4969
134.449 1639 40.4846
134.567 1723 41.509
134.684 1795 42.3674
134.802 1748 41.8091
134.919 1812 42.5676
135.037 1800 42.4264
135.154 1778 42.1663
135.272 1713 41.3884
135.389 1724 41.5211
135.507 1676 40.939
135.624 1701 41.2432
135.742 1741 41.7253
135.859 1812 42.5676
135.977 1656 40.694
136.094 1755 41.8927
136.211 1634 40.4228
136.329 1647 40.5832
136.446 1617 40.2119
136.564 1574 39.6737
136.681 1461 38.223
136.798 1338 36.5787
136.915 1185 34.4238
137.033 1210 34.7851
137.15 1088 32.9848
137.267 1150 33.9116
137.384 1222 34.9571
137.502 1267 35.5949
137.619 1413 37.5899
137.736 1504 38.7814
137.853 1516 38.9358
137.97 1622 40.2741
138.087 1708 41.328
138.204 1789 42.2966
138.321 1828 42.7551
138.438 1866 43.1972
138.555 1820 42.6615
138.672 1824 42.7083
138.788 1826 42.7317
138.905 1765 42.0119
139.022 1797 42.391
139.139 1824 42.7083
139.255 1798 42.4028
139.372 1730 41.5933
139.488 1755 41.8927
139.605 1798 42.4028
139.721 1772 42.0951
139.838 1768 42.0476
139.954 1775 42.1307
140.071 1761 41.9643
140.187 1662 40.7676
140.303 1605 40.0625
140.419 1478 38.4448
140.535 1317 36.2905
140.652 1237 35.171
140.768 0 1
140.884 0 1
141 0 1
141.115 0 1
141.231 0 1
141.347 0 1
141.463 0 1
141.578 0 1
141.694 0 1
144.104 0 1
144.219 0 1
144.335 0 1
144.45 0 1
144.566 0 1
144.682 0 1
144.798 0 1
144.914 0 1
145.03 0 1
145.146 1216 34.8712
145.262 1241 35.2278
145.378 1243 35.2562
145.494 1141 33.7787
145.61 1081 32.8786
145.726 995 31.5436
145.842 943 30.7083
145.959 995 31.5436
146.075 927 30.4467
146.192 903 30.05
146.308 945 30.7409
146.425 1005 31.7017
146.541 1114 33.3766
146.658 1111 33.3317
146.774 1221 34.9428
146.891 1304 36.1109
147.008 1352 36.7696
147.125 1336 36.5513
147.241 1373 37.054
147.358 1418 37.6563
147.475 1403 37.4566
147.592 1421 37.6962
147.709 1376 37.0945
147.826 1401 37.4299
147.943 1305 36.1248
148.06 1364 36.9324
148.177 1336 36.5513
148.294 1360 36.8782
148.411 1319 36.318
148.528 1316 36.2767
148.645 1277 35.7351
148.762 1362 36.9053
148.88 1321 36.3456
148.997 1247 35.3129
149.114 1295 35.9861
149.231 1264 35.5528
149.349 1120 33.4664
149.466 1124 33.5261
149.583 1020 31.9374
149.701 920 30.3315
149.818 905 30.0832
149.935 817 28.5832
150.053 963 31.0322
150.17 1031 32.1092
150.287 987 31.4166
150.405 1113 33.3617
150.522 1224 34.9857
150.64 1369 37
150.757 1305 36.1248
150.875 1385 37.2156
150.992 1428 37.7889
151.11 1398 37.3898
151.227 1439 37.9342
151.344 1409 37.5366
151.462 1366 36.9594
151.579 1375 37.081
151.697 1300 36.0555
151.814 1337 36.565
151.932 1341 36.6197
152.049 1327 36.428
152.167 1332 36.4966
152.284 1417 37.6431
152.402 1349 36.7287
152.519 1345 36.6742
152.636 1339 36.5923
152.754 1364 36.9324
152.871 1226 35.0143
152.989 1190 34.4964
153.106 1119 33.4515
153.223 1029 32.078
153.341 945 30.7409
153.458 931 30.5123
153.575 914 30.2324
153.693 1106 33.2566
153.81 1089 33
153.927 1096 33.1059
154.044 1277 35.7351
154.162 1358 36.8511
154.279 1401 37.4299
154.396 1443 37.9868
154.513 1470 38.3406
154.63 1488 38.5746
154.747 1553 39.4081
154.864 1510 38.8587
154.981 1548 39.3446
155.098 1474 38.3927
155.215 1501 38.7427
155.332 1552 39.3954
155.449 1536 39.1918
155.566 1452 38.1051
155.683 1501 38.7427
155.8 1512 38.8844
155.917 1394 37.3363
156.033 1513 38.8973
156.15 0 1
156.267 0 1
156.383 0 1
156.5 0 1
156.617 0 1
156.733 0 1
156.85 0 1
156.966 0 1
157.082 0 1
157.199 0 1
157.315 0 1
157.431 0 1
157.547 0 1
157.664 0 1
157.78 0 1
157.896 0 1
158.012 0 1
158.128 0 1
158.244 0 1
158.359 0 1
158.475 0 1
158.591 0 1
158.706 0 1
