
6.15755 0 1
6.2731 0 1
6.3887 0 1
6.50437 0 1
6.62009 0 1
6.73587 0 1
6.8517 0 1
6.96759 0 1
7.08353 0 1
7.19952 0 1
7.31557 0 1
7.43166 0 1
7.54781 0 1
7.664 0 1
7.78024 0 1
7.89653 0 1
8.01286 0 1
8.12924 0 1
8.24567 0 1
8.36213 0 1
8.47864 0 1
8.59519 0 1
8.71178 0 1
8.82841 0 1
8.94508 0 1
9.06179 0 1
9.17853 0 1
9.29531 0 1
9.41212 0 1
9.52897 0 1
9.64584 0 1
9.76276 0 1
9.8797 0 1
9.99667 0 1
10.1137 0 1
10.2307 0 1
10.3478 0 1
10.4648 0 1
10.5819 0 1
10.6991 0 1
10.8162 0 1
10.9334 0 1
11.0506 0 1
11.1678 0 1
11.285 0 1
11.4023 0 1
11.5196 0 1
11.6369 0 1
11.7542 0 1
11.8715 0 1
11.9888 0 1
12.1062 0 1
12.2235 0 1
12.3409 0 1
12.4582 0 1
12.5756 0 1
12.693 0 1
12.8104 0 1
12.9278 0 1
13.0452 0 1
13.1626 0 1
13.28 0 1
13.3974 0 1
13.5149 0 1
13.6323 0 1
13.7497 0 1
13.8671 0 1
13.9845 0 1
14.1019 0 1
14.2193 0 1
14.3367 0 1
14.4541 0 1
14.5714 0 1
14.6888 0 1
14.8062 0 1
14.9235 0 1
15.0408 8724 93.4024
15.1581 9145 95.6295
15.2755 9446 97.1905
15.3927 9438 97.1494
15.51 9658 98.2751
15.6273 9422 97.067
15.7445 9350 96.6954
15.8617 9130 95.551
15.9789 9141 95.6086
16.0961 9239 96.1197
16.2132 8969 94.7048
16.3304 8943 94.5674
16.4475 9191 95.8697
16.5646 9353 96.7109
16.6816 9572 97.8366
16.7986 9438 97.1494
16.9156 9503 97.4833
17.0326 9516 97.55
17.1496 9487 97.4012
17.2665 9243 96.1405
17.3833 9093 95.3572
17.5002 8866 94.1594
17.617 8986 94.7945
17.7338 8940 94.5516
17.8505 9003 94.8841
17.9672 9283 96.3483
18.0839 9705 98.514
18.2005 10056 100.28
18.3171 10038 100.19
18.4337 10275 101.366
18.5502 10567 102.796
18.6666 10580 102.859
18.7831 10484 102.391
18.8994 10646 103.179
19.0158 10191 100.95
19.1321 10076 100.379
19.2483 9581 97.8826
19.3645 9509 97.5141
19.4806 9218 96.0104
19.5967 8627 92.8816
19.7128 8531 92.3634
19.8288 8343 91.34
19.9447 7537 86.8159
20.0606 0 1
20.1764 0 1
20.2922 0 1
20.4079 0 1
20.5236 0 1
20.6392 0 1
20.7548 0 1
20.8702 0 1
23.3078 0 1
23.4233 0 1
23.539 0 1
23.6547 0 1
23.7704 0 1
23.8862 0 1
24.0021 0 1
24.118 0 1
24.234 0 1
24.35 0 1
24.4661 9093 95.3572
24.5822 8927 94.4828
24.6984 8602 92.747
24.8146 8576 92.6067
24.9309 8545 92.4392
25.0472 8885 94.2603
25.1636 9032 95.0368
25.28 9376 96.8297
25.3965 9812 99.0555
25.513 9951 99.7547
25.6296 9989 99.945
25.7462 10181 100.901
25.8628 10269 101.336
25.9795 10107 100.534
26.0962 9536 97.6524
26.213 9324 96.5609
26.3298 9286 96.3639
26.4466 8813 93.8776
26.5635 8834 93.9894
26.6804 9267 96.2653
26.7973 9436 97.1391
26.9143 9637 98.1682
27.0313 9659 98.2802
27.1483 10027 100.135
27.2653 10107 100.534
27.3824 10154 100.767
27.4996 10114 100.568
27.6167 9957 99.7848
27.7339 9730 98.6408
27.8511 9611 98.0357
27.9683 9376 96.8297
28.0855 9207 95.9531
28.2028 8926 94.4775
28.3201 8634 92.9193
28.4374 8603 92.7524
28.5547 8519 92.2984
28.6721 8752 93.5521
28.7894 9041 95.0842
28.9068 9220 96.0208
29.0242 9507 97.5038
29.1416 9445 97.1854
29.259 9368 96.7884
29.3764 9435 97.1339
29.4939 9309 96.4832
29.6113 9016 94.9526
29.7288 8933 94.5145
29.8463 8508 92.2388
29.9638 8383 91.5587
30.0812 8462 91.9891
30.1987 8574 92.5959
30.3162 8960 94.6573
30.4337 8948 94.5939
30.5512 9297 96.421
30.6687 9504 97.4885
30.7862 9813 99.0606
30.9037 9883 99.4133
31.0212 9713 98.5546
31.1387 9913 99.564
31.2562 9540 97.6729
31.3737 9505 97.4936
31.4912 9314 96.5091
31.6087 9145 95.6295
31.7262 8845 94.0479
31.8436 8678 93.1558
31.9611 8289 91.0439
32.0785 8162 90.3438
32.1959 8403 91.6679
32.3134 8753 93.5575
32.4308 8799 93.803
32.5482 9197 95.901
32.6655 9386 96.8814
32.7829 8956 94.6361
32.9002 9266 96.2601
33.0176 9071 95.2418
33.1349 9247 96.1613
33.2522 9172 95.7706
33.3694 8592 92.693
33.4867 8534 92.3797
33.6039 8348 91.3674
33.7211 8112 90.0666
33.8383 8105 90.0278
33.9554 8422 91.7715
34.0725 8896 94.3186
34.1896 8608 92.7793
34.3067 9078 95.2785
34.4237 9132 95.5615
34.5407 9386 96.8814
34.6577 9333 96.6075
34.7746 9356 96.7264
34.8915 9165 95.734
35.0084 9218 96.0104
35.1252 9158 95.6974
35.242 8980 94.7629
35.3587 8704 93.2952
35.4755 8581 92.6337
35.5921 8125 90.1388
35.7088 7866 88.6905
35.8254 7953 89.1796
35.9419 7923 89.0112
36.0584 8178 90.4323
36.1749 8658 93.0484
36.2913 8712 93.3381
36.4077 8749 93.5361
36.524 8813 93.8776
36.6403 8842 94.0319
36.7565 8981 94.7681
36.8727 8755 93.5682
36.9889 8553 92.4824
37.1049 8208 90.598
37.221 0 1
37.3369 0 1
37.4529 0 1
37.5687 0 1
37.6845 0 1
37.8003 0 1
37.916 0 1
38.0316 0 1
38.1472 0 1
40.5851 0 1
40.7008 0 1
40.8164 0 1
40.9322 0 1
41.048 0 1
41.1639 0 1
41.2798 0 1
41.3958 0 1
41.5118 0 1
41.6279 0 1
41.744 7172 84.6877
41.8602 7536 86.8101
41.9765 7641 87.4128
42.0928 7684 87.6584
42.2091 7565 86.977
42.3255 7270 85.2643
42.4419 6984 83.5703
42.5584 6929 83.2406
42.675 6644 81.5107
42.7915 6864 82.8493
42.9081 6999 83.66
43.0248 7173 84.6936
43.1415 7232 85.0412
43.2582 7267 85.2467
43.375 7541 86.8389
43.4918 7536 86.8101
43.6087 7610 87.2353
43.7256 7465 86.4002
43.8425 7348 85.7205
43.9595 7227 85.0118
44.0765 7182 84.7467
44.1935 7075 84.113
44.3106 6662 81.6211
44.4277 6422 80.1374
44.5448 6141 78.3645
44.6619 6025 77.6209
44.7791 5633 75.0533
44.8963 5687 75.4122
45.0136 5776 76
45.1308 5979 77.324
45.2481 5948 77.1233
45.3654 6030 77.6531
45.4827 6018 77.5758
45.6001 6078 77.9615
45.7174 6037 77.6981
45.8348 6070 77.9102
45.9522 5826 76.3282
46.0697 5608 74.8866
46.1871 5296 72.7736
46.3046 5202 72.1249
46.422 5285 72.698
46.5395 5493 74.1148
46.657 5467 73.9392
46.7745 5698 75.4851
46.892 5649 75.1598
47.0096 5678 75.3525
47.1271 5782 76.0395
47.2446 5744 75.7892
47.3622 5731 75.7034
47.4797 5630 75.0333
47.5973 5620 74.9667
47.7149 5467 73.9392
47.8324 5456 73.8647
47.95 5054 71.0915
48.0675 4865 69.7496
48.1851 4779 69.1303
48.3027 4518 67.2161
48.4202 4583 67.6979
48.5378 4674 68.3667
48.6554 4806 69.3253
48.7729 4946 70.3278
48.8904 5045 71.0282
49.008 5157 71.8123
49.1255 5287 72.7118
49.243 5373 73.3008
49.3605 5290 72.7324
49.478 5222 72.2634
49.5955 4994 70.6682
49.713 4877 69.8355
49.8304 4884 69.8856
49.9479 5047 71.0422
50.0653 5099 71.4073
50.1827 5309 72.8629
50.3001 5514 74.2563
50.4175 5734 75.7232
50.5348 5846 76.4591
50.6521 6098 78.0897
50.7694 6298 79.3599
50.8867 6302 79.3851
51.004 6418 80.1124
51.1212 6226 78.905
51.2384 6345 79.6555
51.3556 6469 80.4301
51.4727 6433 80.206
51.5899 6276 79.2212
51.707 6257 79.1012
51.824 5986 77.3692
51.9411 5983 77.3499
52.0581 6357 79.7308
52.175 6637 81.4678
52.2919 6975 83.5165
52.4088 7352 85.7438
52.5257 7394 85.9884
52.6425 7602 87.1894
52.7593 7738 87.9659
52.876 7620 87.2926
52.9927 7654 87.4871
53.1094 7709 87.8009
53.226 7396 86
53.3426 7154 84.5813
53.4591 7056 84
53.5756 7031 83.8511
53.692 7796 88.295
53.8084 7939 89.1011
53.9248 8043 89.6828
54.0411 8521 92.3093
54.1573 8748 93.5307
54.2735 0 1
54.3896 0 1
54.5057 0 1
54.6217 0 1
54.7377 0 1
54.8537 0 1
54.9695 0 1
55.0853 0 1
55.2011 0 1
55.3168 0 1
55.4324 0 1
57.824 0 1
57.9396 0 1
58.0553 0 1
58.1711 0 1
58.2869 0 1
58.4028 0 1
58.5187 0 1
58.6347 0 1
58.7508 0 1
58.8669 0 1
58.983 9297 96.421
59.0992 10172 100.856
59.2155 10629 103.097
59.3318 10833 104.082
59.4482 11046 105.1
59.5646 10771 103.783
59.681 11039 105.067
59.7975 11074 105.233
59.9141 10795 103.899
60.0306 10575 102.835
60.1473 10672 103.305
60.2639 10451 102.23
60.3807 9929 99.6444
60.4974 9531 97.6268
60.6142 9244 96.1457
60.731 9323 96.5557
60.8479 9178 95.8019
60.9648 9495 97.4423
61.0818 9911 99.554
61.1987 9884 99.4183
61.3158 10424 102.098
61.4328 10356 101.764
61.5499 10420 102.078
61.667 10182 100.906
61.7841 10044 100.22
61.9013 9481 97.3704
62.0185 9113 95.462
62.1357 8809 93.8563
62.253 8792 93.7657
62.3702 9102 95.4044
62.4875 9407 96.9897
62.6049 9680 98.387
62.7222 9731 98.6458
62.8396 9997 99.985
62.9569 10152 100.757
63.0743 9944 99.7196
63.1918 9990 99.95
63.3092 10002 100.01
63.4267 9963 99.8148
63.5441 9666 98.3158
63.6616 9739 98.6864
63.7791 9408 96.9948
63.8966 9344 96.6644
64.0142 8914 94.414
64.1317 8339 91.3181
64.2492 8342 91.3345
64.3668 8643 92.9677
64.4843 8656 93.0376
64.6019 8945 94.578
64.7195 9215 95.9948
64.837 9576 97.857
64.9546 9481 97.3704
65.0722 9732 98.6509
65.1898 9822 99.106
65.3074 9740 98.6914
65.4249 9194 95.8853
65.5425 8820 93.9149
65.6601 8536 92.3905
65.7777 8275 90.967
65.8952 8438 91.8586
66.0128 8681 93.1719
66.1304 8994 94.8367
66.2479 9155 95.6818
66.3655 9479 97.3602
66.483 9565 97.8008
66.6005 9878 99.3881
66.718 9859 99.2925
66.8355 9759 98.7877
66.953 9952 99.7597
67.0705 9831 99.1514
67.1879 9919 99.5942
67.3054 9871 99.3529
67.4228 9639 98.1784
67.5402 9334 96.6126
67.6576 9089 95.3362
67.7749 8644 92.9731
67.8923 8473 92.0489
68.0096 8679 93.1612
68.1269 8835 93.9947
68.2442 9048 95.121
68.3614 9508 97.509
68.4787 9773 98.8585
68.5958 9995 99.975
68.713 10153 100.762
68.8302 10397 101.966
68.9473 10352 101.745
69.0643 10297 101.474
69.1814 9749 98.737
69.2984 9224 96.0417
69.4154 8908 94.3822
69.5323 8766 93.6269
69.6492 9084 95.31
69.7661 9619 98.0765
69.8829 9796 98.9747
69.9997 10144 100.717
70.1165 10390 101.931
70.2332 10640 103.15
70.3499 10433 102.142
70.4665 10900 104.403
70.5831 10706 103.47
70.6996 10688 103.383
70.8161 10701 103.446
70.9326 10697 103.426
71.049 10534 102.635
71.1653 10212 101.054
71.2817 9652 98.2446
71.3979 9109 95.4411
71.5141 8423 91.7769
71.6303 8278 90.9835
71.7464 7921 89
71.8624 0 1
71.9784 0 1
72.0944 0 1
72.2102 0 1
72.3261 0 1
72.4418 0 1
72.5575 0 1
72.6732 0 1
75.1054 0 1
75.2209 0 1
75.3365 0 1
75.4521 0 1
75.5678 0 1
75.6835 0 1
75.7993 0 1
75.9151 0 1
76.031 0 1
76.147 9447 97.1957
76.263 10243 101.208
76.3791 10413 102.044
76.4952 10001 100.005
76.6113 9787 98.9293
76.7276 9139 95.5981
76.8438 8890 94.2868
76.9601 9018 94.9632
77.0765 9221 96.026
77.1929 9587 97.9132
77.3093 10024 100.12
77.4258 10399 101.975
77.5423 10400 101.98
77.6589 10795 103.899
77.7755 10837 104.101
77.8921 10844 104.135
78.0088 10269 101.336
78.1256 10057 100.285
78.2423 9288 96.3743
78.3591 8736 93.4666
78.4759 8261 90.89
78.5928 8745 93.5147
78.7097 9337 96.6282
78.8266 9556 97.7548
78.9436 10269 101.336
79.0606 10339 101.681
79.1776 10296 101.469
79.2946 10540 102.665
79.4117 10700 103.441
79.5288 10731 103.591
79.6459 10642 103.16
79.7631 10549 102.708
79.8802 10609 103
79.9974 10560 102.762
80.1147 10412 102.039
80.2319 10156 100.777
80.3491 9141 95.6086
80.4664 8920 94.4458
80.5837 9259 96.2237
80.701 9201 95.9218
80.8183 9441 97.1648
80.9357 9918 99.5892
81.053 10202 101.005
81.1704 10438 102.167
81.2877 10626 103.082
81.4051 10746 103.663
81.5225 11022 104.986
81.6399 10561 102.767
81.7573 10162 100.807
81.8747 9337 96.6282
81.9922 8811 93.8669
82.1096 8556 92.4986
82.227 8718 93.3702
82.3444 9187 95.8488
82.4619 9763 98.8079
82.5793 10219 101.089
82.6967 10150 100.747
82.8142 10672 103.305
82.9316 10665 103.271
83.049 10780 103.827
83.1664 10693 103.407
83.2838 10550 102.713
83.4012 10800 103.923
83.5186 10578 102.849
83.636 10776 103.808
83.7534 10350 101.735
83.8708 10211 101.049
83.9881 9641 98.1886
84.1055 8918 94.4352
84.2228 9163 95.7236
84.3401 9316 96.5194
84.4575 9548 97.7139
84.5747 9827 99.1312
84.692 10360 101.784
84.8093 10908 104.441
84.9265 11025 105
85.0437 11450 107.005
85.1609 11411 106.822
85.2781 10736 103.615
85.3952 10143 100.712
85.5123 9672 98.3463
85.6294 9066 95.2155
85.7465 8834 93.9894
85.8636 9296 96.4158
85.9806 9902 99.5088
86.0976 10367 101.818
86.2145 10929 104.542
86.3315 11026 105.005
86.4484 11192 105.792
86.5652 11319 106.391
86.682 11533 107.392
86.7988 11686 108.102
86.9156 11473 107.112
87.0323 11500 107.238
87.149 11284 106.226
87.2657 11108 105.394
87.3823 10908 104.441
87.4988 10779 103.822
87.6154 10110 100.548
87.7318 9550 97.7241
87.8483 9731 98.6458
87.9647 10046 100.23
88.081 10447 102.211
88.1973 10909 104.446
88.3136 11253 106.08
88.4298 11411 106.822
88.546 11710 108.213
88.6621 11928 109.215
88.7781 11556 107.499
88.8942 0 1
89.0101 0 1
89.126 0 1
89.2419 0 1
89.3577 0 1
89.4734 0 1
89.5891 0 1
89.7047 0 1
89.8203 0 1
89.9358 0 1
92.3269 0 1
92.4424 0 1
92.558 0 1
92.6736 0 1
92.7893 0 1
92.905 0 1
93.0208 0 1
93.1366 0 1
93.2525 0 1
93.3685 0 1
93.4845 0 1
93.6005 10504 102.489
93.7167 10686 103.373
93.8328 11002 104.89
93.949 11229 105.967
94.0653 11349 106.532
94.1816 10552 102.723
94.2979 10221 101.099
94.4143 9410 97.0052
94.5307 9050 95.1315
94.6472 8854 94.0957
94.7637 8994 94.8367
94.8803 9573 97.8417
94.9969 9955 99.7747
95.1135 10546 102.694
95.2302 10561 102.767
95.3469 10997 104.867
95.4637 11030 105.024
95.5805 11182 105.745
95.6973 11188 105.773
95.8142 11353 106.55
95.9311 11308 106.339
96.048 11119 105.447
96.1649 11077 105.247
96.2819 11068 105.205
96.3989 10739 103.629
96.516 10503 102.484
96.633 9738 98.6813
96.7501 9342 96.654
96.8673 9454 97.2317
96.9844 9417 97.0412
97.1016 9810 99.0454
97.2188 10135 100.673
97.336 10456 102.255
97.4532 10899 104.398
97.5704 11060 105.167
97.6877 11224 105.943
97.805 11136 105.527
97.9223 10689 103.388
98.0396 10006 100.03
98.1569 9608 98.0204
98.2743 9103 95.4096
98.3916 8882 94.2444
98.509 8934 94.5198
98.6264 9754 98.7623
98.7438 10102 100.509
98.8612 10455 102.25
98.9786 10620 103.053
99.096 10634 103.121
99.2134 10773 103.793
99.3308 10800 103.923
99.4482 10676 103.325
99.5656 10900 104.403
99.6831 10655 103.223
99.8005 10547 102.699
99.9179 10417 102.064
100.035 10318 101.578
100.153 9925 99.6243
100.27 9422 97.067
100.388 9028 95.0158
100.505 9081 95.2943
100.622 9355 96.7212
100.74 9533 97.6371
100.857 10023 100.115
100.975 10383 101.897
101.092 10599 102.951
101.209 11035 105.048
101.327 11024 104.995
101.444 11169 105.683
101.561 10692 103.402
101.679 10214 101.064
101.796 9439 97.1545
101.913 8883 94.2497
102.03 9189 95.8593
102.148 9601 97.9847
102.265 9498 97.4577
102.382 11241 106.024
102.499 10713 103.504
102.616 11121 105.456
102.733 11317 106.381
102.851 11255 106.09
102.968 11307 106.334
103.085 11431 106.916
103.202 11308 106.339
103.319 11358 106.574
103.436 11166 105.669
103.552 11207 105.863
103.669 10838 104.106
103.786 10336 101.666
103.903 9828 99.1363
104.02 9832 99.1564
104.137 10078 100.389
104.253 10380 101.882
104.37 10600 102.956
104.487 11275 106.184
104.603 11314 106.367
104.72 11716 108.24
104.836 11611 107.754
104.953 11775 108.513
105.069 11253 106.08
105.186 10534 102.635
105.302 9936 99.6795
105.418 9466 97.2934
105.535 9467 97.2985
105.651 10092 100.459
105.767 10703 103.455
105.883 11113 105.418
105.999 11317 106.381
106.115 0 1
106.231 0 1
106.347 0 1
106.463 0 1
106.579 0 1
106.694 0 1
106.81 0 1
106.926 0 1
107.041 0 1
107.157 0 1
109.576 0 1
109.692 0 1
109.807 0 1
109.923 0 1
110.039 0 1
110.155 0 1
110.27 0 1
110.386 0 1
110.502 0 1
110.618 8482 92.0978
110.735 9197 95.901
110.851 9571 97.8315
110.967 9976 99.8799
111.083 10039 100.195
111.199 10310 101.538
111.316 10373 101.848
111.432 10576 102.84
111.549 10429 102.122
111.665 10381 101.887
111.782 10326 101.617
111.898 10176 100.876
112.015 10136 100.678
112.132 9775 98.8686
112.248 9437 97.1442
112.365 8960 94.6573
112.482 8800 93.8083
112.599 8604 92.7577
112.716 8548 92.4554
112.832 8961 94.6626
112.949 9133 95.5667
113.066 9615 98.0561
113.183 9451 97.2163
113.3 9714 98.5596
113.417 9823 99.111
113.534 9675 98.3616
113.652 9307 96.4728
113.769 8813 93.8776
113.886 8222 90.6752
114.003 7500 86.6025
114.12 7550 86.8907
114.238 7855 88.6284
114.355 8499 92.19
114.472 8699 93.2684
114.589 8583 92.6445
114.707 8886 94.2656
114.824 8873 94.1966
114.942 8985 94.7892
115.059 8967 94.6942
115.176 8829 93.9628
115.294 8792 93.7657
115.411 8628 92.887
115.529 8187 90.482
115.646 8207 90.5925
115.764 7755 88.0625
115.881 7524 86.741
115.999 7190 84.7939
116.116 7047 83.9464
116.234 6959 83.4206
116.351 7004 83.6899
116.469 7239 85.0823
116.586 7455 86.3423
116.704 7709 87.8009
116.821 7890 88.8257
116.939 7651 87.47
117.056 8010 89.4986
117.174 7718 87.8521
117.291 7450 86.3134
117.409 7069 84.0773
117.526 6820 82.5833
117.644 6243 79.0127
117.761 6415 80.0937
117.879 6907 83.1084
117.996 7084 84.1665
118.114 7476 86.4639
118.231 7711 87.8123
118.349 7482 86.4986
118.466 7711 87.8123
118.584 7761 88.0965
118.701 7716 87.8408
118.819 7866 88.6905
118.936 7737 87.9602
119.053 7658 87.51
119.171 7553 86.908
119.288 7415 86.1104
119.405 7281 85.3288
119.523 7040 83.9047
119.64 6941 83.3127
119.757 6830 82.6438
119.875 7107 84.303
119.992 7084 84.1665
120.109 7287 85.3639
120.226 7512 86.6718
120.343 7727 87.9034
120.46 8201 90.5594
120.578 8305 91.1318
120.695 8277 90.978
120.812 8375 91.515
120.929 8258 90.8735
121.046 7628 87.3384
121.163 7528 86.764
121.279 7197 84.8351
121.396 7087 84.1843
121.513 7587 87.1034
121.63 7958 89.2076
121.747 8545 92.4392
121.863 8638 92.9408
121.98 8746 93.5201
122.097 8959 94.652
122.213 8895 94.3133
122.33 9044 95.0999
122.446 9377 96.8349
122.563 9274 96.3016
122.679 9173 95.7758
122.795 8909 94.3875
122.912 9004 94.8894
123.028 8800 93.8083
123.144 8672 93.1236
123.26 8315 91.1866
123.377 0 1
123.493 0 1
123.609 0 1
123.725 0 1
123.84 0 1
123.956 0 1
124.072 0 1
124.188 0 1
124.303 0 1
124.419 0 1
126.852 0 1
126.968 0 1
127.083 0 1
127.199 0 1
127.315 0 1
127.431 0 1
127.547 0 1
127.663 0 1
127.779 0 1
127.895 0 1
128.011 0 1
128.127 0 1
128.243 0 1
128.359 10477 102.357
128.476 10301 101.494
128.592 9981 99.905
128.708 9510 97.5192
128.825 9234 96.0937
128.941 9451 97.2163
129.058 9703 98.5038
129.174 9906 99.5289
129.291 10166 100.827
129.408 10715 103.513
129.524 10529 102.611
129.641 10573 102.825
129.758 10938 104.585
129.875 10576 102.84
129.992 10274 101.361
130.108 9638 98.1733
130.225 9122 95.5092
130.342 8850 94.0744
130.459 8947 94.5886
130.576 9066 95.2155
130.693 9619 98.0765
130.81 10030 100.15
130.928 10083 100.414
131.045 10391 101.936
131.162 10350 101.735
131.279 10565 102.786
131.396 10634 103.121
131.513 10586 102.888
131.631 10455 102.25
131.748 10370 101.833
131.865 10112 100.558
131.983 9950 99.7497
132.1 9634 98.1529
132.217 9321 96.5453
132.335 9033 95.0421
132.452 8976 94.7418
132.57 9060 95.184
132.687 9198 95.9062
132.804 10059 100.295
132.922 10115 100.573
133.039 10131 100.653
133.157 10367 101.818
133.274 10330 101.637
133.392 10076 100.379
133.509 10110 100.548
133.627 9610 98.0306
133.744 8806 93.8403
133.862 8524 92.3255
133.979 8506 92.228
134.097 8653 93.0215
134.214 9157 95.6922
134.332 9082 95.2995
134.449 9503 97.4833
134.567 9555 97.7497
134.684 9739 98.6864
134.802 9719 98.585
134.919 9774 98.8635
135.037 9642 98.1937
135.154 9314 96.5091
135.272 9075 95.2628
135.389 8949 94.5992
135.507 8691 93.2255
135.624 8553 92.4824
135.742 8154 90.2995
135.859 7749 88.0284
135.977 7484 86.5101
136.094 7702 87.761
136.211 7822 88.4421
136.329 8039 89.6605
136.446 8297 91.0879
136.564 8246 90.8075
136.681 8263 90.901
136.798 8363 91.4494
136.915 8394 91.6188
137.033 8506 92.228
137.15 7984 89.3532
137.267 7577 87.046
137.384 7187 84.7762
137.502 6981 83.5524
137.619 6872 82.8975
137.736 7245 85.1176
137.853 7659 87.5157
137.97 7989 89.3812
138.087 8387 91.5806
138.204 8580 92.6283
138.321 8829 93.9628
138.438 8880 94.2338
138.555 9072 95.247
138.672 8958 94.6467
138.788 9180 95.8123
138.905 9019 94.9684
139.022 8910 94.3928
139.139 8761 93.6002
139.255 8752 93.5521
139.372 8525 92.3309
139.488 8475 92.0598
139.605 8492 92.152
139.721 8741 93.4933
139.838 8810 93.8616
139.954 9280 96.3328
140.071 9381 96.8556
140.187 9859 99.2925
140.303 9713 98.5546
140.419 9874 99.368
140.535 10049 100.245
140.652 9946 99.7296
140.768 0 1
140.884 0 1
141 0 1
141.115 0 1
141.231 0 1
141.347 0 1
141.463 0 1
141.578 0 1
141.694 0 1
144.104 0 1
144.219 0 1
144.335 0 1
144.45 0 1
144.566 0 1
144.682 0 1
144.798 0 1
144.914 0 1
145.03 0 1
145.146 15411 124.141
145.262 17323 131.617
145.378 18179 134.83
145.494 18753 136.942
145.61 19691 140.325
145.726 20501 143.182
145.842 20597 143.517
145.959 20464 143.052
146.075 20071 141.672
146.192 19575 139.911
146.308 19636 140.129
146.425 20183 142.067
146.541 21824 147.729
146.658 23217 152.371
146.774 24726 157.245
146.891 25546 159.831
147.008 26547 162.933
147.125 27514 165.873
147.241 28255 168.092
147.358 28654 169.275
147.475 28319 168.283
147.592 28474 168.742
147.709 27879 166.97
147.826 27346 165.366
147.943 26983 164.265
148.06 26182 161.809
148.177 25421 159.44
148.294 24944 157.937
148.411 25123 158.502
148.528 25736 160.424
148.645 25889 160.901
148.762 26867 163.912
148.88 27088 164.584
148.997 28842 169.829
149.114 26127 161.638
149.231 27005 164.332
149.349 26957 164.186
149.466 26414 162.524
149.583 24596 156.831
149.701 23707 153.971
149.818 22564 150.213
149.935 21925 148.071
150.053 21560 146.833
150.17 22841 151.132
150.287 23980 154.855
150.405 24705 157.178
150.522 25130 158.524
150.64 25909 160.963
150.757 26103 161.564
150.875 26480 162.727
150.992 26211 161.898
151.11 27048 164.463
151.227 26117 161.608
151.344 26219 161.923
151.462 25750 160.468
151.579 25242 158.877
151.697 24836 157.594
151.814 24153 155.412
151.932 24469 156.426
152.049 24650 157.003
152.167 25233 158.849
152.284 26022 161.313
152.402 27394 165.511
152.519 28061 167.514
152.636 28594 169.098
152.754 29048 170.435
152.871 29099 170.584
152.989 28732 169.505
153.106 27654 166.295
153.223 26165 161.756
153.341 25260 158.934
153.458 24345 156.029
153.575 23748 154.104
153.693 24371 156.112
153.81 25895 160.919
153.927 27072 164.536
154.044 27742 166.559
154.162 28821 169.767
154.279 29808 172.65
154.396 30251 173.928
154.513 31102 176.358
154.63 31626 177.837
154.747 31339 177.028
154.864 31680 177.989
154.981 31166 176.539
155.098 30666 175.117
155.215 30646 175.06
155.332 29630 172.134
155.449 29416 171.511
155.566 29176 170.81
155.683 30178 173.718
155.8 31182 176.584
155.917 32226 179.516
156.033 33086 181.896
156.15 0 1
156.267 0 1
156.383 0 1
156.5 0 1
156.617 0 1
156.733 0 1
156.85 0 1
156.966 0 1
157.082 0 1
157.199 0 1
157.315 0 1
157.431 0 1
157.547 0 1
157.664 0 1
157.78 0 1
157.896 0 1
158.012 0 1
158.128 0 1
158.244 0 1
158.359 0 1
158.475 0 1
158.591 0 1
158.706 0 1
