
6.15755 0 1
6.2731 0 1
6.3887 0 1
6.50437 0 1
6.62009 0 1
6.73587 0 1
6.8517 0 1
6.96759 0 1
7.08353 0 1
7.19952 0 1
7.31557 0 1
7.43166 0 1
7.54781 0 1
7.664 0 1
7.78024 0 1
7.89653 0 1
8.01286 0 1
8.12924 0 1
8.24567 0 1
8.36213 0 1
8.47864 0 1
8.59519 0 1
8.71178 0 1
8.82841 0 1
8.94508 0 1
9.06179 0 1
9.17853 0 1
9.29531 0 1
9.41212 0 1
9.52897 0 1
9.64584 0 1
9.76276 0 1
9.8797 0 1
9.99667 0 1
10.1137 0 1
10.2307 0 1
10.3478 0 1
10.4648 0 1
10.5819 0 1
10.6991 0 1
10.8162 0 1
10.9334 0 1
11.0506 0 1
11.1678 0 1
11.285 0 1
11.4023 0 1
11.5196 0 1
11.6369 0 1
11.7542 0 1
11.8715 0 1
11.9888 0 1
12.1062 0 1
12.2235 0 1
12.3409 0 1
12.4582 0 1
12.5756 0 1
12.693 0 1
12.8104 0 1
12.9278 0 1
13.0452 0 1
13.1626 0 1
13.28 0 1
13.3974 0 1
13.5149 0 1
13.6323 0 1
13.7497 0 1
13.8671 0 1
13.9845 0 1
14.1019 0 1
14.2193 0 1
14.3367 0 1
14.4541 0 1
14.5714 0 1
14.6888 0 1
14.8062 0 1
14.9235 0 1
15.0408 0 0
15.1581 0 0
15.2755 0 0
15.3927 0 0
15.51 0 0
15.6273 0 0
15.7445 0 0
15.8617 0 0
15.9789 0 0
16.0961 0 0
16.2132 0 0
16.3304 0 0
16.4475 0 0
16.5646 0 0
16.6816 0 0
16.7986 0 0
16.9156 0 0
17.0326 0 0
17.1496 0 0
17.2665 0 0
17.3833 0 0
17.5002 0 0
17.617 0 0
17.7338 0 0
17.8505 0 0
17.9672 0 0
18.0839 0 0
18.2005 0 0
18.3171 0 0
18.4337 0 0
18.5502 0 0
18.6666 0 0
18.7831 0 0
18.8994 0 0
19.0158 0 0
19.1321 0 0
19.2483 0 0
19.3645 0 0
19.4806 0 0
19.5967 0 0
19.7128 0 0
19.8288 0 0
19.9447 0 0
20.0606 0 1
20.1764 0 1
20.2922 0 1
20.4079 0 1
20.5236 0 1
20.6392 0 1
20.7548 0 1
20.8702 0 1
23.3078 0 1
23.4233 0 1
23.539 0 1
23.6547 0 1
23.7704 0 1
23.8862 0 1
24.0021 0 1
24.118 0 1
24.234 0 1
24.35 0 1
24.4661 1086 32.9545
24.5822 1048 32.3728
24.6984 1070 32.7109
24.8146 1079 32.8481
24.9309 1071 32.7261
25.0472 1086 32.9545
25.1636 1119 33.4515
25.28 1091 33.0303
25.3965 1114 33.3766
25.513 1132 33.6452
25.6296 1093 33.0606
25.7462 1133 33.6601
25.8628 1156 34
25.9795 1267 35.5949
26.0962 1245 35.2846
26.213 1252 35.3836
26.3298 1179 34.3366
26.4466 1239 35.1994
26.5635 1207 34.7419
26.6804 1250 35.3553
26.7973 1138 33.7343
26.9143 1114 33.3766
27.0313 1100 33.1662
27.1483 1173 34.2491
27.2653 1143 33.8083
27.3824 1253 35.3977
27.4996 1240 35.2136
27.6167 1173 34.2491
27.7339 1129 33.6006
27.8511 1179 34.3366
27.9683 1111 33.3317
28.0855 1110 33.3167
28.2028 1055 32.4808
28.3201 1086 32.9545
28.4374 1082 32.8938
28.5547 1065 32.6343
28.6721 974 31.209
28.7894 1041 32.2645
28.9068 1013 31.8277
29.0242 1001 31.6386
29.1416 1022 31.9687
29.259 1064 32.619
29.3764 1101 33.1813
29.4939 1095 33.0908
29.6113 1109 33.3017
29.7288 1147 33.8674
29.8463 1134 33.6749
29.9638 1156 34
30.0812 1197 34.5977
30.1987 1134 33.6749
30.3162 1177 34.3074
30.4337 1032 32.1248
30.5512 1088 32.9848
30.6687 1222 34.9571
30.7862 1160 34.0588
30.9037 1178 34.322
31.0212 1176 34.2929
31.1387 1252 35.3836
31.2562 1143 33.8083
31.3737 1142 33.7935
31.4912 1146 33.8526
31.6087 1122 33.4963
31.7262 1074 32.7719
31.8436 1082 32.8938
31.9611 1093 33.0606
32.0785 1049 32.3883
32.1959 1036 32.187
32.3134 1040 32.249
32.4308 1004 31.686
32.5482 1017 31.8904
32.6655 1043 32.2955
32.7829 1101 33.1813
32.9002 1082 32.8938
33.0176 1129 33.6006
33.1349 1123 33.5112
33.2522 1035 32.1714
33.3694 1133 33.6601
33.4867 1123 33.5112
33.6039 1150 33.9116
33.7211 1115 33.3916
33.8383 1134 33.6749
33.9554 1101 33.1813
34.0725 1029 32.078
34.1896 1048 32.3728
34.3067 1114 33.3766
34.4237 1131 33.6303
34.5407 1181 34.3657
34.6577 1214 34.8425
34.7746 1100 33.1662
34.8915 1174 34.2637
35.0084 1136 33.7046
35.1252 1130 33.6155
35.242 1103 33.2114
35.3587 1086 32.9545
35.4755 1035 32.1714
35.5921 1121 33.4813
35.7088 1052 32.4345
35.8254 1005 31.7017
35.9419 1032 32.1248
36.0584 1022 31.9687
36.1749 1001 31.6386
36.2913 975 31.225
36.4077 1022 31.9687
36.524 999 31.607
36.6403 1018 31.9061
36.7565 1055 32.4808
36.8727 1082 32.8938
36.9889 1156 34
37.1049 1074 32.7719
37.221 0 1
37.3369 0 1
37.4529 0 1
37.5687 0 1
37.6845 0 1
37.8003 0 1
37.916 0 1
38.0316 0 1
38.1472 0 1
40.5851 0 1
40.7008 0 1
40.8164 0 1
40.9322 0 1
41.048 0 1
41.1639 0 1
41.2798 0 1
41.3958 0 1
41.5118 0 1
41.6279 0 1
41.744 842 29.0172
41.8602 837 28.931
41.9765 903 30.05
42.0928 907 30.1164
42.2091 986 31.4006
42.3255 1003 31.6702
42.4419 976 31.241
42.5584 969 31.1288
42.675 989 31.4484
42.7915 949 30.8058
42.9081 916 30.2655
43.0248 962 31.0161
43.1415 906 30.0998
43.2582 958 30.9516
43.375 994 31.5278
43.4918 1046 32.3419
43.6087 1053 32.45
43.7256 1018 31.9061
43.8425 937 30.6105
43.9595 926 30.4302
44.0765 933 30.545
44.1935 903 30.05
44.3106 897 29.95
44.4277 864 29.3939
44.5448 838 28.9482
44.6619 826 28.7402
44.7791 751 27.4044
44.8963 824 28.7054
45.0136 794 28.178
45.1308 794 28.178
45.2481 760 27.5681
45.3654 772 27.7849
45.4827 798 28.2489
45.6001 809 28.4429
45.7174 789 28.0891
45.8348 784 28
45.9522 835 28.8964
46.0697 821 28.6531
46.1871 805 28.3725
46.3046 781 27.9464
46.422 792 28.1425
46.5395 750 27.3861
46.657 704 26.533
46.7745 815 28.5482
46.892 801 28.3019
47.0096 742 27.2397
47.1271 766 27.6767
47.2446 766 27.6767
47.3622 798 28.2489
47.4797 789 28.0891
47.5973 752 27.4226
47.7149 745 27.2947
47.8324 689 26.2488
47.95 695 26.3629
48.0675 710 26.6458
48.1851 613 24.7588
48.3027 650 25.4951
48.4202 586 24.2074
48.5378 615 24.7992
48.6554 586 24.2074
48.7729 605 24.5967
48.8904 594 24.3721
49.008 682 26.1151
49.1255 651 25.5147
49.243 628 25.0599
49.3605 702 26.4953
49.478 661 25.7099
49.5955 630 25.0998
49.713 686 26.1916
49.8304 649 25.4755
49.9479 614 24.779
50.0653 621 24.9199
50.1827 733 27.074
50.3001 722 26.8701
50.4175 712 26.6833
50.5348 783 27.9821
50.6521 772 27.7849
50.7694 819 28.6182
50.8867 819 28.6182
51.004 817 28.5832
51.1212 824 28.7054
51.2384 801 28.3019
51.3556 821 28.6531
51.4727 775 27.8388
51.5899 806 28.3901
51.707 761 27.5862
51.824 770 27.7489
51.9411 757 27.5136
52.0581 708 26.6083
52.175 746 27.313
52.2919 752 27.4226
52.4088 835 28.8964
52.5257 872 29.5296
52.6425 856 29.2575
52.7593 871 29.5127
52.876 950 30.8221
52.9927 940 30.6594
53.1094 970 31.1448
53.226 902 30.0333
53.3426 942 30.692
53.4591 962 31.0161
53.5756 982 31.3369
53.692 900 30
53.8084 1068 32.6803
53.9248 1021 31.9531
54.0411 1058 32.5269
54.1573 1089 33
54.2735 0 1
54.3896 0 1
54.5057 0 1
54.6217 0 1
54.7377 0 1
54.8537 0 1
54.9695 0 1
55.0853 0 1
55.2011 0 1
55.3168 0 1
55.4324 0 1
57.824 0 1
57.9396 0 1
58.0553 0 1
58.1711 0 1
58.2869 0 1
58.4028 0 1
58.5187 0 1
58.6347 0 1
58.7508 0 1
58.8669 0 1
58.983 1100 33.1662
59.0992 1220 34.9285
59.2155 1259 35.4824
59.3318 1230 35.0714
59.4482 1385 37.2156
59.5646 1292 35.9444
59.681 1325 36.4005
59.7975 1332 36.4966
59.9141 1263 35.5387
60.0306 1265 35.5668
60.1473 1178 34.322
60.2639 1149 33.8969
60.3807 1117 33.4215
60.4974 1062 32.5883
60.6142 1035 32.1714
60.731 1032 32.1248
60.8479 952 30.8545
60.9648 1015 31.8591
61.0818 1064 32.619
61.1987 1010 31.7805
61.3158 1108 33.2866
61.4328 1080 32.8634
61.5499 1132 33.6452
61.667 1057 32.5115
61.7841 1066 32.6497
61.9013 1119 33.4515
62.0185 1025 32.0156
62.1357 1071 32.7261
62.253 1045 32.3265
62.3702 1060 32.5576
62.4875 1156 34
62.6049 1127 33.5708
62.7222 1208 34.7563
62.8396 1231 35.0856
62.9569 1171 34.2199
63.0743 1300 36.0555
63.1918 1215 34.8569
63.3092 1155 33.9853
63.4267 1140 33.7639
63.5441 1087 32.9697
63.6616 1023 31.9844
63.7791 1055 32.4808
63.8966 1005 31.7017
64.0142 960 30.9839
64.1317 915 30.249
64.2492 895 29.9166
64.3668 836 28.9137
64.4843 915 30.249
64.6019 882 29.6985
64.7195 905 30.0832
64.837 1012 31.8119
64.9546 954 30.8869
65.0722 989 31.4484
65.1898 1003 31.6702
65.3074 1056 32.4962
65.4249 952 30.8545
65.5425 929 30.4795
65.6601 924 30.3974
65.7777 874 29.5635
65.8952 958 30.9516
66.0128 1050 32.4037
66.1304 1066 32.6497
66.2479 1065 32.6343
66.3655 1087 32.9697
66.483 1196 34.5832
66.6005 1153 33.9559
66.718 1170 34.2053
66.8355 1099 33.1512
66.953 1076 32.8024
67.0705 1118 33.4365
67.1879 1043 32.2955
67.3054 962 31.0161
67.4228 1007 31.7333
67.5402 937 30.6105
67.6576 856 29.2575
67.7749 814 28.5307
67.8923 825 28.7228
68.0096 743 27.258
68.1269 856 29.2575
68.2442 884 29.7321
68.3614 883 29.7153
68.4787 1015 31.8591
68.5958 878 29.6311
68.713 999 31.607
68.8302 956 30.9192
68.9473 1049 32.3883
69.0643 997 31.5753
69.1814 973 31.1929
69.2984 1003 31.6702
69.4154 931 30.5123
69.5323 957 30.9354
69.6492 1061 32.573
69.7661 1080 32.8634
69.8829 1189 34.4819
69.9997 1226 35.0143
70.1165 1163 34.1028
70.2332 1295 35.9861
70.3499 1229 35.0571
70.4665 1210 34.7851
70.5831 1209 34.7707
70.6996 1200 34.641
70.8161 1192 34.5254
70.9326 1101 33.1813
71.049 1067 32.665
71.1653 1043 32.2955
71.2817 895 29.9166
71.3979 898 29.9666
71.5141 891 29.8496
71.6303 877 29.6142
71.7464 854 29.2233
71.8624 0 1
71.9784 0 1
72.0944 0 1
72.2102 0 1
72.3261 0 1
72.4418 0 1
72.5575 0 1
72.6732 0 1
75.1054 0 1
75.2209 0 1
75.3365 0 1
75.4521 0 1
75.5678 0 1
75.6835 0 1
75.7993 0 1
75.9151 0 1
76.031 0 1
76.147 1330 36.4692
76.263 1473 38.3797
76.3791 1487 38.5616
76.4952 1531 39.128
76.6113 1333 36.5103
76.7276 1257 35.4542
76.8438 1293 35.9583
76.9601 1314 36.2491
77.0765 1358 36.8511
77.1929 1396 37.3631
77.3093 1439 37.9342
77.4258 1490 38.6005
77.5423 1500 38.7298
77.6589 1530 39.1152
77.7755 1612 40.1497
77.8921 1571 39.6358
78.0088 1521 39
78.1256 1523 39.0256
78.2423 1339 36.5923
78.3591 1293 35.9583
78.4759 1331 36.4829
78.5928 1351 36.756
78.7097 1394 37.3363
78.8266 1486 38.5487
78.9436 1577 39.7115
79.0606 1574 39.6737
79.1776 1607 40.0874
79.2946 1590 39.8748
79.4117 1575 39.6863
79.5288 1554 39.4208
79.6459 1553 39.4081
79.7631 1423 37.7227
79.8802 1445 38.0132
79.9974 1298 36.0278
80.1147 1333 36.5103
80.2319 1215 34.8569
80.3491 1082 32.8938
80.4664 1083 32.909
80.5837 1046 32.3419
80.701 1007 31.7333
80.8183 1051 32.4191
80.9357 1076 32.8024
81.053 1172 34.2345
81.1704 1109 33.3017
81.2877 1138 33.7343
81.4051 1046 32.3419
81.5225 1107 33.2716
81.6399 1026 32.0312
81.7573 1027 32.0468
81.8747 906 30.0998
81.9922 921 30.348
82.1096 853 29.2062
82.227 909 30.1496
82.3444 957 30.9354
82.4619 1021 31.9531
82.5793 1148 33.8821
82.6967 1062 32.5883
82.8142 1126 33.5559
82.9316 1047 32.3574
83.049 1077 32.8177
83.1664 1048 32.3728
83.2838 1018 31.9061
83.4012 973 31.1929
83.5186 892 29.8664
83.636 849 29.1376
83.7534 810 28.4605
83.8708 771 27.7669
83.9881 751 27.4044
84.1055 690 26.2679
84.2228 725 26.9258
84.3401 750 27.3861
84.4575 808 28.4253
84.5747 838 28.9482
84.692 822 28.6705
84.8093 857 29.2746
84.9265 863 29.3769
85.0437 826 28.7402
85.1609 836 28.9137
85.2781 850 29.1548
85.3952 872 29.5296
85.5123 799 28.2666
85.6294 787 28.0535
85.7465 830 28.8097
85.8636 882 29.6985
85.9806 994 31.5278
86.0976 1018 31.9061
86.2145 1082 32.8938
86.3315 1110 33.3167
86.4484 1165 34.1321
86.5652 1249 35.3412
86.682 1153 33.9559
86.7988 1163 34.1028
86.9156 1133 33.6601
87.0323 1057 32.5115
87.149 1003 31.6702
87.2657 990 31.4643
87.3823 949 30.8058
87.4988 882 29.6985
87.6154 884 29.7321
87.7318 814 28.5307
87.8483 867 29.4449
87.9647 885 29.7489
88.081 1038 32.218
88.1973 1079 32.8481
88.3136 1165 34.1321
88.4298 1101 33.1813
88.546 1051 32.4191
88.6621 1137 33.7194
88.7781 1096 33.1059
88.8942 0 1
89.0101 0 1
89.126 0 1
89.2419 0 1
89.3577 0 1
89.4734 0 1
89.5891 0 1
89.7047 0 1
89.8203 0 1
89.9358 0 1
92.3269 0 1
92.4424 0 1
92.558 0 1
92.6736 0 1
92.7893 0 1
92.905 0 1
93.0208 0 1
93.1366 0 1
93.2525 0 1
93.3685 0 1
93.4845 0 1
93.6005 1080 32.8634
93.7167 1157 34.0147
93.8328 1050 32.4037
93.949 1135 33.6898
94.0653 1121 33.4813
94.1816 1070 32.7109
94.2979 1093 33.0606
94.4143 1008 31.749
94.5307 958 30.9516
94.6472 1050 32.4037
94.7637 1031 32.1092
94.8803 1027 32.0468
94.9969 1138 33.7343
95.1135 1221 34.9428
95.2302 1280 35.7771
95.3469 1281 35.7911
95.4637 1279 35.7631
95.5805 1345 36.6742
95.6973 1326 36.4143
95.8142 1388 37.2559
95.9311 1272 35.6651
96.048 1225 35
96.1649 1258 35.4683
96.2819 1212 34.8138
96.3989 1085 32.9393
96.516 1045 32.3265
96.633 1040 32.249
96.7501 1005 31.7017
96.8673 918 30.2985
96.9844 950 30.8221
97.1016 991 31.4802
97.2188 1042 32.28
97.336 1129 33.6006
97.4532 1131 33.6303
97.5704 1103 33.2114
97.6877 1059 32.5423
97.805 1080 32.8634
97.9223 1036 32.187
98.0396 954 30.8869
98.1569 999 31.607
98.2743 1006 31.7175
98.3916 1043 32.2955
98.509 999 31.607
98.6264 1071 32.7261
98.7438 1185 34.4238
98.8612 1199 34.6266
98.9786 1226 35.0143
99.096 1292 35.9444
99.2134 1323 36.3731
99.3308 1321 36.3456
99.4482 1381 37.1618
99.5656 1335 36.5377
99.6831 1264 35.5528
99.8005 1161 34.0735
99.9179 1158 34.0294
100.035 1111 33.3317
100.153 1050 32.4037
100.27 968 31.1127
100.388 940 30.6594
100.505 923 30.3809
100.622 1012 31.8119
100.74 1012 31.8119
100.857 1088 32.9848
100.975 1191 34.5109
101.092 1123 33.5112
101.209 1161 34.0735
101.327 1041 32.2645
101.444 1055 32.4808
101.561 1094 33.0757
101.679 963 31.0322
101.796 1048 32.3728
101.913 994 31.5278
102.03 1060 32.5576
102.148 1116 33.4066
102.265 1242 35.242
102.382 1230 35.0714
102.499 1318 36.3043
102.616 1427 37.7757
102.733 1452 38.1051
102.851 1444 38
102.968 1569 39.6106
103.085 1434 37.8682
103.202 1419 37.6696
103.319 1271 35.6511
103.436 1261 35.5106
103.552 1229 35.0571
103.669 1157 34.0147
103.786 1126 33.5559
103.903 1042 32.28
104.02 1080 32.8634
104.137 1052 32.4345
104.253 1153 33.9559
104.37 1233 35.1141
104.487 1268 35.609
104.603 1315 36.2629
104.72 1332 36.4966
104.836 1181 34.3657
104.953 1213 34.8281
105.069 1227 35.0286
105.186 1187 34.4529
105.302 1175 34.2783
105.418 1138 33.7343
105.535 1225 35
105.651 1381 37.1618
105.767 1377 37.108
105.883 1541 39.2556
105.999 1517 38.9487
106.115 0 1
106.231 0 1
106.347 0 1
106.463 0 1
106.579 0 1
106.694 0 1
106.81 0 1
106.926 0 1
107.041 0 1
107.157 0 1
109.576 0 1
109.692 0 1
109.807 0 1
109.923 0 1
110.039 0 1
110.155 0 1
110.27 0 1
110.386 0 1
110.502 0 1
110.618 1215 34.8569
110.735 1355 36.8103
110.851 1450 38.0789
110.967 1500 38.7298
111.083 1545 39.3065
111.199 1593 39.9124
111.316 1585 39.8121
111.432 1569 39.6106
111.549 1664 40.7922
111.665 1573 39.6611
111.782 1567 39.5854
111.898 1498 38.704
112.015 1424 37.7359
112.132 1366 36.9594
112.248 1300 36.0555
112.365 1303 36.0971
112.482 1273 35.6791
112.599 1223 34.9714
112.716 1195 34.5688
112.832 1353 36.7831
112.949 1399 37.4032
113.066 1420 37.6829
113.183 1368 36.9865
113.3 1386 37.229
113.417 1362 36.9053
113.534 1327 36.428
113.652 1292 35.9444
113.769 1252 35.3836
113.886 1231 35.0856
114.003 1262 35.5246
114.12 1337 36.565
114.238 1459 38.1969
114.355 1524 39.0384
114.472 1637 40.4599
114.589 1554 39.4208
114.707 1657 40.7063
114.824 1721 41.4849
114.942 1632 40.398
115.059 1661 40.7554
115.176 1694 41.1582
115.294 1677 40.9512
115.411 1595 39.9375
115.529 1600 40
115.646 1559 39.4842
115.764 1504 38.7814
115.881 1393 37.3229
115.999 1362 36.9053
116.116 1386 37.229
116.234 1451 38.092
116.351 1419 37.6696
116.469 1563 39.5348
116.586 1615 40.1871
116.704 1489 38.5876
116.821 1659 40.7308
116.939 1577 39.7115
117.056 1536 39.1918
117.174 1522 39.0128
117.291 1485 38.5357
117.409 1424 37.7359
117.526 1498 38.704
117.644 1438 37.921
117.761 1668 40.8412
117.879 1680 40.9878
117.996 1793 42.3438
118.114 1937 44.0114
118.231 1988 44.587
118.349 1890 43.4741
118.466 1987 44.5758
118.584 2031 45.0666
118.701 2039 45.1553
118.819 2011 44.8442
118.936 1896 43.5431
119.053 1872 43.2666
119.171 1797 42.391
119.288 1783 42.2256
119.405 1693 41.1461
119.523 1641 40.5093
119.64 1594 39.9249
119.757 1619 40.2368
119.875 1662 40.7676
119.992 1770 42.0714
120.109 1748 41.8091
120.226 1830 42.7785
120.343 1765 42.0119
120.46 1809 42.5323
120.578 1846 42.9651
120.695 1807 42.5088
120.812 1766 42.0238
120.929 1690 41.1096
121.046 1615 40.1871
121.163 1709 41.3401
121.279 1667 40.8289
121.396 1708 41.328
121.513 1912 43.7264
121.63 1833 42.8135
121.747 1984 44.5421
121.863 1969 44.3734
121.98 1852 43.0349
122.097 2110 45.9347
122.213 2059 45.3762
122.33 2090 45.7165
122.446 1959 44.2606
122.563 1978 44.4747
122.679 2008 44.8107
122.795 1846 42.9651
122.912 1807 42.5088
123.028 1694 41.1582
123.144 1617 40.2119
123.26 1546 39.3192
123.377 0 1
123.493 0 1
123.609 0 1
123.725 0 1
123.84 0 1
123.956 0 1
124.072 0 1
124.188 0 1
124.303 0 1
124.419 0 1
126.852 0 1
126.968 0 1
127.083 0 1
127.199 0 1
127.315 0 1
127.431 0 1
127.547 0 1
127.663 0 1
127.779 0 1
127.895 0 1
128.011 0 1
128.127 0 1
128.243 0 1
128.359 1779 42.1782
128.476 1695 41.1704
128.592 1608 40.0999
128.708 1641 40.5093
128.825 1722 41.497
128.941 1844 42.9418
129.058 1894 43.5201
129.174 1838 42.8719
129.291 1845 42.9535
129.408 1816 42.6146
129.524 1812 42.5676
129.641 1754 41.8808
129.758 1685 41.0488
129.875 1672 40.8901
129.992 1586 39.8246
130.108 1664 40.7922
130.225 1590 39.8748
130.342 1749 41.821
130.459 1808 42.5206
130.576 1836 42.8486
130.693 1848 42.9884
130.81 1765 42.0119
130.928 1888 43.4511
131.045 1856 43.0813
131.162 1842 42.9185
131.279 1850 43.0116
131.396 1825 42.72
131.513 1860 43.1277
131.631 1685 41.0488
131.748 1766 42.0238
131.865 1661 40.7554
131.983 1535 39.1791
132.1 1467 38.3014
132.217 1461 38.223
132.335 1556 39.4462
132.452 1591 39.8873
132.57 1634 40.4228
132.687 1595 39.9375
132.804 1574 39.6737
132.922 1613 40.1622
133.039 1544 39.2938
133.157 1577 39.7115
133.274 1603 40.0375
133.392 1516 38.9358
133.509 1483 38.5097
133.627 1516 38.9358
133.744 1445 38.0132
133.862 1537 39.2046
133.979 1609 40.1123
134.097 1592 39.8999
134.214 1615 40.1871
134.332 1622 40.2741
134.449 1642 40.5216
134.567 1666 40.8167
134.684 1701 41.2432
134.802 1683 41.0244
134.919 1704 41.2795
135.037 1586 39.8246
135.154 1662 40.7676
135.272 1545 39.3065
135.389 1553 39.4081
135.507 1454 38.1314
135.624 1337 36.565
135.742 1355 36.8103
135.859 1394 37.3363
135.977 1402 37.4433
136.094 1496 38.6782
136.211 1441 37.9605
136.329 1471 38.3536
136.446 1445 38.0132
136.564 1397 37.3765
136.681 1451 38.092
136.798 1476 38.4187
136.915 1402 37.4433
137.033 1339 36.5923
137.15 1394 37.3363
137.267 1301 36.0694
137.384 1279 35.7631
137.502 1368 36.9865
137.619 1413 37.5899
137.736 1438 37.921
137.853 1580 39.7492
137.97 1510 38.8587
138.087 1443 37.9868
138.204 1520 38.9872
138.321 1535 39.1791
138.438 1475 38.4057
138.555 1525 39.0512
138.672 1515 38.923
138.788 1475 38.4057
138.905 1538 39.2173
139.022 1548 39.3446
139.139 1428 37.7889
139.255 1343 36.647
139.372 1324 36.3868
139.488 1407 37.51
139.605 1463 38.2492
139.721 1472 38.3667
139.838 1467 38.3014
139.954 1455 38.1445
140.071 1445 38.0132
140.187 1443 37.9868
140.303 1408 37.5233
140.419 1356 36.8239
140.535 1429 37.8021
140.652 1280 35.7771
140.768 0 1
140.884 0 1
141 0 1
141.115 0 1
141.231 0 1
141.347 0 1
141.463 0 1
141.578 0 1
141.694 0 1
144.104 0 1
144.219 0 1
144.335 0 1
144.45 0 1
144.566 0 1
144.682 0 1
144.798 0 1
144.914 0 1
145.03 0 1
145.146 1318 36.3043
145.262 1388 37.2559
145.378 1364 36.9324
145.494 1402 37.4433
145.61 1262 35.5246
145.726 1364 36.9324
145.842 1283 35.819
145.959 1278 35.7491
146.075 1338 36.5787
146.192 1316 36.2767
146.308 1411 37.5633
146.425 1378 37.1214
146.541 1417 37.6431
146.658 1426 37.7624
146.774 1464 38.2623
146.891 1492 38.6264
147.008 1462 38.2361
147.125 1549 39.3573
147.241 1487 38.5616
147.358 1471 38.3536
147.475 1413 37.5899
147.592 1454 38.1314
147.709 1418 37.6563
147.826 1349 36.7287
147.943 1373 37.054
148.06 1411 37.5633
148.177 1417 37.6431
148.294 1453 38.1182
148.411 1479 38.4578
148.528 1469 38.3275
148.645 1465 38.2753
148.762 1444 38
148.88 1428 37.7889
148.997 1330 36.4692
149.114 1402 37.4433
149.231 1309 36.1801
149.349 1334 36.524
149.466 1296 36
149.583 1309 36.1801
149.701 1270 35.6371
149.818 1322 36.3593
149.935 1339 36.5923
150.053 1397 37.3765
150.17 1368 36.9865
150.287 1458 38.1838
150.405 1456 38.1576
150.522 1534 39.1663
150.64 1535 39.1791
150.757 1546 39.3192
150.875 1481 38.4838
150.992 1479 38.4578
151.11 1494 38.6523
151.227 1527 39.0768
151.344 1421 37.6962
151.462 1329 36.4555
151.579 1340 36.606
151.697 1356 36.8239
151.814 1470 38.3406
151.932 1520 38.9872
152.049 1530 39.1152
152.167 1519 38.9744
152.284 1472 38.3667
152.402 1543 39.281
152.519 1521 39
152.636 1474 38.3927
152.754 1530 39.1152
152.871 1475 38.4057
152.989 1444 38
153.106 1483 38.5097
153.223 1388 37.2559
153.341 1451 38.092
153.458 1411 37.5633
153.575 1565 39.5601
153.693 1524 39.0384
153.81 1606 40.0749
153.927 1581 39.7618
154.044 1659 40.7308
154.162 1677 40.9512
154.279 1701 41.2432
154.396 1733 41.6293
154.513 1719 41.4608
154.63 1757 41.9166
154.747 1714 41.4005
154.864 1695 41.1704
154.981 1617 40.2119
155.098 1538 39.2173
155.215 1578 39.724
155.332 1568 39.598
155.449 1681 41
155.566 1660 40.7431
155.683 1752 41.8569
155.8 1739 41.7013
155.917 1639 40.4846
156.033 1641 40.5093
156.15 0 1
156.267 0 1
156.383 0 1
156.5 0 1
156.617 0 1
156.733 0 1
156.85 0 1
156.966 0 1
157.082 0 1
157.199 0 1
157.315 0 1
157.431 0 1
157.547 0 1
157.664 0 1
157.78 0 1
157.896 0 1
158.012 0 1
158.128 0 1
158.244 0 1
158.359 0 1
158.475 0 1
158.591 0 1
158.706 0 1
