
6.15755 0 1
6.2731 0 1
6.3887 0 1
6.50437 0 1
6.62009 0 1
6.73587 0 1
6.8517 0 1
6.96759 0 1
7.08353 0 1
7.19952 0 1
7.31557 0 1
7.43166 0 1
7.54781 0 1
7.664 0 1
7.78024 0 1
7.89653 0 1
8.01286 0 1
8.12924 0 1
8.24567 0 1
8.36213 0 1
8.47864 0 1
8.59519 0 1
8.71178 0 1
8.82841 0 1
8.94508 0 1
9.06179 0 1
9.17853 0 1
9.29531 0 1
9.41212 0 1
9.52897 0 1
9.64584 0 1
9.76276 0 1
9.8797 0 1
9.99667 0 1
10.1137 0 1
10.2307 0 1
10.3478 0 1
10.4648 0 1
10.5819 0 1
10.6991 0 1
10.8162 0 1
10.9334 0 1
11.0506 0 1
11.1678 0 1
11.285 0 1
11.4023 0 1
11.5196 0 1
11.6369 0 1
11.7542 0 1
11.8715 0 1
11.9888 0 1
12.1062 0 1
12.2235 0 1
12.3409 0 1
12.4582 0 1
12.5756 0 1
12.693 0 1
12.8104 0 1
12.9278 0 1
13.0452 0 1
13.1626 0 1
13.28 0 1
13.3974 0 1
13.5149 0 1
13.6323 0 1
13.7497 0 1
13.8671 0 1
13.9845 0 1
14.1019 0 1
14.2193 0 1
14.3367 0 1
14.4541 0 1
14.5714 0 1
14.6888 0 1
14.8062 0 1
14.9235 0 1
15.0408 0 0
15.1581 0 0
15.2755 0 0
15.3927 0 0
15.51 0 0
15.6273 0 0
15.7445 0 0
15.8617 0 0
15.9789 0 0
16.0961 0 0
16.2132 0 0
16.3304 0 0
16.4475 0 0
16.5646 0 0
16.6816 0 0
16.7986 0 0
16.9156 0 0
17.0326 0 0
17.1496 0 0
17.2665 0 0
17.3833 0 0
17.5002 0 0
17.617 0 0
17.7338 0 0
17.8505 0 0
17.9672 0 0
18.0839 0 0
18.2005 0 0
18.3171 0 0
18.4337 0 0
18.5502 0 0
18.6666 0 0
18.7831 0 0
18.8994 0 0
19.0158 0 0
19.1321 0 0
19.2483 0 0
19.3645 0 0
19.4806 0 0
19.5967 0 0
19.7128 0 0
19.8288 0 0
19.9447 0 0
20.0606 0 1
20.1764 0 1
20.2922 0 1
20.4079 0 1
20.5236 0 1
20.6392 0 1
20.7548 0 1
20.8702 0 1
23.3078 0 1
23.4233 0 1
23.539 0 1
23.6547 0 1
23.7704 0 1
23.8862 0 1
24.0021 0 1
24.118 0 1
24.234 0 1
24.35 0 1
24.4661 3751 61.2454
24.5822 3846 62.0161
24.6984 3836 61.9355
24.8146 3974 63.0397
24.9309 3937 62.7455
25.0472 4129 64.2573
25.1636 4027 63.4586
25.28 4128 64.2495
25.3965 4140 64.3428
25.513 4060 63.7181
25.6296 4133 64.2884
25.7462 4106 64.0781
25.8628 4013 63.3482
25.9795 3830 61.887
26.0962 3927 62.6658
26.213 3863 62.153
26.3298 3636 60.2993
26.4466 3752 61.2536
26.5635 3662 60.5145
26.6804 3746 61.2046
26.7973 3610 60.0833
26.9143 3576 59.7997
27.0313 3380 58.1378
27.1483 3311 57.5413
27.2653 3241 56.9298
27.3824 3181 56.4004
27.4996 3264 57.1314
27.6167 3440 58.6515
27.7339 3584 59.8665
27.8511 3797 61.6198
27.9683 3836 61.9355
28.0855 3842 61.9839
28.2028 3992 63.1823
28.3201 3793 61.5873
28.4374 3918 62.5939
28.5547 3978 63.0714
28.6721 3868 62.1932
28.7894 3796 61.6117
28.9068 3745 61.1964
29.0242 3773 61.4248
29.1416 3713 60.9344
29.259 3646 60.3821
29.3764 3612 60.0999
29.4939 3553 59.607
29.6113 3468 58.8897
29.7288 3506 59.2115
29.8463 3632 60.2661
29.9638 3634 60.2827
30.0812 3611 60.0916
30.1987 3600 60
30.3162 3610 60.0833
30.4337 3637 60.3075
30.5512 3461 58.8303
30.6687 3241 56.9298
30.7862 3310 57.5326
30.9037 3265 57.1402
31.0212 3420 58.4808
31.1387 3729 61.0655
31.2562 3805 61.6847
31.3737 3959 62.9206
31.4912 4023 63.4271
31.6087 4072 63.8122
31.7262 3961 62.9365
31.8436 3954 62.8808
31.9611 3831 61.8951
32.0785 3795 61.6036
32.1959 3680 60.663
32.3134 3623 60.1914
32.4308 3617 60.1415
32.5482 3574 59.7829
32.6655 3438 58.6345
32.7829 3501 59.1692
32.9002 3389 58.2151
33.0176 3311 57.5413
33.1349 3412 58.4123
33.2522 3456 58.7878
33.3694 3492 59.0931
33.4867 3436 58.6174
33.6039 3482 59.0085
33.7211 3493 59.1016
33.8383 3544 59.5315
33.9554 3771 61.4085
34.0725 3717 60.9672
34.1896 3621 60.1747
34.3067 3553 59.607
34.4237 3222 56.7627
34.5407 3200 56.5685
34.6577 3430 58.5662
34.7746 3399 58.3009
34.8915 3541 59.5063
35.0084 3525 59.3717
35.1252 3596 59.9667
35.242 3536 59.4643
35.3587 3648 60.3987
35.4755 3653 60.4401
35.5921 3610 60.0833
35.7088 3495 59.1185
35.8254 3488 59.0593
35.9419 3492 59.0931
36.0584 3459 58.8133
36.1749 3467 58.8812
36.2913 3413 58.4209
36.4077 3419 58.4722
36.524 3387 58.1979
36.6403 3252 57.0263
36.7565 3460 58.8218
36.8727 3273 57.2101
36.9889 3309 57.5239
37.1049 3171 56.3116
37.221 0 1
37.3369 0 1
37.4529 0 1
37.5687 0 1
37.6845 0 1
37.8003 0 1
37.916 0 1
38.0316 0 1
38.1472 0 1
40.5851 0 1
40.7008 0 1
40.8164 0 1
40.9322 0 1
41.048 0 1
41.1639 0 1
41.2798 0 1
41.3958 0 1
41.5118 0 1
41.6279 0 1
41.744 2823 53.1319
41.8602 2909 53.9351
41.9765 3048 55.2087
42.0928 3046 55.1906
42.2091 3138 56.0179
42.3255 3006 54.827
42.4419 3001 54.7814
42.5584 3016 54.9181
42.675 3025 55
42.7915 2953 54.3415
42.9081 2826 53.1601
43.0248 2791 52.8299
43.1415 2566 50.6557
43.2582 2459 49.5883
43.375 2394 48.9285
43.4918 2565 50.6458
43.6087 2586 50.8527
43.7256 2767 52.6023
43.8425 2702 51.9808
43.9595 2843 53.3198
44.0765 2835 53.2447
44.1935 2814 53.0471
44.3106 2810 53.0094
44.4277 2827 53.1695
44.5448 2710 52.0577
44.6619 2676 51.7301
44.7791 2717 52.1249
44.8963 2824 53.1413
45.0136 2690 51.8652
45.1308 2669 51.6624
45.2481 2656 51.5364
45.3654 2704 52
45.4827 2622 51.2055
45.6001 2636 51.342
45.7174 2621 51.1957
45.8348 2504 50.04
45.9522 2524 50.2394
46.0697 2427 49.2646
46.1871 2336 48.3322
46.3046 2270 47.6445
46.422 2327 48.239
46.5395 2201 46.9148
46.657 2026 45.0111
46.7745 2011 44.8442
46.892 1899 43.5775
47.0096 1834 42.8252
47.1271 1968 44.3621
47.2446 1977 44.4635
47.3622 1887 43.4396
47.4797 2054 45.3211
47.5973 2037 45.1331
47.7149 2072 45.5192
47.8324 1953 44.1928
47.95 1952 44.1814
48.0675 2017 44.911
48.1851 1908 43.6807
48.3027 2021 44.9555
48.4202 2003 44.7549
48.5378 1995 44.6654
48.6554 2022 44.9667
48.7729 2151 46.3789
48.8904 2042 45.1885
49.008 2037 45.1331
49.1255 2055 45.3321
49.243 2105 45.8803
49.3605 2027 45.0222
49.478 2114 45.9783
49.5955 2068 45.4753
49.713 2167 46.551
49.8304 2096 45.7821
49.9479 2207 46.9787
50.0653 2048 45.2548
50.1827 2092 45.7384
50.3001 1856 43.0813
50.4175 1742 41.7373
50.5348 1681 41
50.6521 1912 43.7264
50.7694 2155 46.422
50.8867 2298 47.9375
51.004 2467 49.6689
51.1212 2496 49.96
51.2384 2605 51.0392
51.3556 2576 50.7543
51.4727 2597 50.9608
51.5899 2617 51.1566
51.707 2695 51.9134
51.824 2669 51.6624
51.9411 2741 52.3546
52.0581 2764 52.5738
52.175 2743 52.3737
52.2919 2741 52.3546
52.4088 2810 53.0094
52.5257 2887 53.7308
52.6425 2778 52.7067
52.7593 2965 54.4518
52.876 2911 53.9537
52.9927 2933 54.1572
53.1094 2925 54.0833
53.226 2927 54.1018
53.3426 2866 53.535
53.4591 2987 54.6535
53.5756 2971 54.5069
53.692 2852 53.4041
53.8084 2735 52.2972
53.9248 2677 51.7397
54.0411 2364 48.621
54.1573 2272 47.6655
54.2735 0 1
54.3896 0 1
54.5057 0 1
54.6217 0 1
54.7377 0 1
54.8537 0 1
54.9695 0 1
55.0853 0 1
55.2011 0 1
55.3168 0 1
55.4324 0 1
57.824 0 1
57.9396 0 1
58.0553 0 1
58.1711 0 1
58.2869 0 1
58.4028 0 1
58.5187 0 1
58.6347 0 1
58.7508 0 1
58.8669 0 1
58.983 3217 56.7186
59.0992 3017 54.9272
59.2155 2944 54.2586
59.3318 2861 53.4883
59.4482 3061 55.3263
59.5646 3185 56.4358
59.681 3508 59.2284
59.7975 3496 59.127
59.9141 3507 59.2199
60.0306 3593 59.9416
60.1473 3624 60.1997
60.2639 3499 59.1523
60.3807 3530 59.4138
60.4974 3486 59.0424
60.6142 3553 59.607
60.731 3608 60.0666
60.8479 3617 60.1415
60.9648 3597 59.975
61.0818 3521 59.338
61.1987 3557 59.6406
61.3158 3500 59.1608
61.4328 3446 58.7026
61.5499 3585 59.8749
61.667 3419 58.4722
61.7841 3483 59.0169
61.9013 3504 59.1946
62.0185 3548 59.5651
62.1357 3428 58.5491
62.253 3523 59.3549
62.3702 3203 56.5951
62.4875 3094 55.6237
62.6049 2925 54.0833
62.7222 2931 54.1387
62.8396 2954 54.3507
62.9569 3130 55.9464
63.0743 3202 56.5862
63.1918 3292 57.376
63.3092 3295 57.4021
63.4267 3408 58.3781
63.5441 3438 58.6345
63.6616 3449 58.7282
63.7791 3355 57.9224
63.8966 3435 58.6089
64.0142 3409 58.3866
64.1317 3316 57.5847
64.2492 3325 57.6628
64.3668 3454 58.7707
64.4843 3451 58.7452
64.6019 3528 59.397
64.7195 3424 58.515
64.837 3416 58.4466
64.9546 3474 58.9406
65.0722 3361 57.9741
65.1898 3375 58.0948
65.3074 3376 58.1034
65.4249 3353 57.9051
65.5425 3396 58.2752
65.6601 3316 57.5847
65.7777 3304 57.4804
65.8952 3309 57.5239
66.0128 3043 55.1634
66.1304 2836 53.2541
66.2479 2731 52.259
66.3655 2632 51.303
66.483 2847 53.3573
66.6005 2992 54.6992
66.718 3183 56.4181
66.8355 3118 55.8391
66.953 3285 57.3149
67.0705 3384 58.1722
67.1879 3373 58.0775
67.3054 3345 57.836
67.4228 3210 56.6569
67.5402 3346 57.8446
67.6576 3324 57.6541
67.7749 3233 56.8595
67.8923 3476 58.9576
68.0096 3315 57.576
68.1269 3343 57.8187
68.2442 3544 59.5315
68.3614 3441 58.66
68.4787 3383 58.1636
68.5958 3374 58.0861
68.713 3417 58.4551
68.8302 3342 57.81
68.9473 3347 57.8533
69.0643 3289 57.3498
69.1814 3352 57.8965
69.2984 3267 57.1577
69.4154 3419 58.4722
69.5323 3294 57.3934
69.6492 3224 56.7803
69.7661 3031 55.0545
69.8829 2684 51.8073
69.9997 2681 51.7784
70.1165 2986 54.6443
70.2332 2981 54.5985
70.3499 3099 55.6687
70.4665 3146 56.0892
70.5831 3281 57.28
70.6996 3285 57.3149
70.8161 3331 57.7148
70.9326 3386 58.1893
71.049 3316 57.5847
71.1653 3235 56.8771
71.2817 3264 57.1314
71.3979 3294 57.3934
71.5141 3134 55.9821
71.6303 3190 56.4801
71.7464 2972 54.5161
71.8624 0 1
71.9784 0 1
72.0944 0 1
72.2102 0 1
72.3261 0 1
72.4418 0 1
72.5575 0 1
72.6732 0 1
75.1054 0 1
75.2209 0 1
75.3365 0 1
75.4521 0 1
75.5678 0 1
75.6835 0 1
75.7993 0 1
75.9151 0 1
76.031 0 1
76.147 2888 53.7401
76.263 3198 56.5509
76.3791 3226 56.7979
76.4952 3265 57.1402
76.6113 3243 56.9473
76.7276 3270 57.1839
76.8438 3297 57.4195
76.9601 3323 57.6455
77.0765 3398 58.2924
77.1929 3356 57.931
77.3093 3331 57.7148
77.4258 3404 58.3438
77.5423 3330 57.7062
77.6589 3372 58.0689
77.7755 3408 58.3781
77.8921 3394 58.258
78.0088 3376 58.1034
78.1256 3324 57.6541
78.2423 3411 58.4038
78.3591 3297 57.4195
78.4759 3280 57.2713
78.5928 3266 57.1489
78.7097 3121 55.8659
78.8266 3149 56.116
78.9436 2488 49.8799
79.0606 2413 49.1223
79.1776 2467 49.6689
79.2946 2819 53.0943
79.4117 2978 54.5711
79.5288 3079 55.4887
79.6459 3171 56.3116
79.7631 3198 56.5509
79.8802 3299 57.4369
79.9974 3301 57.4543
80.1147 3262 57.1139
80.2319 3348 57.8619
80.3491 3275 57.2276
80.4664 3242 56.9386
80.5837 3307 57.5065
80.701 3382 58.155
80.8183 3263 57.1227
80.9357 3359 57.9569
81.053 3314 57.5674
81.1704 3363 57.9914
81.2877 3373 58.0775
81.4051 3334 57.7408
81.5225 3385 58.1808
81.6399 3202 56.5862
81.7573 3303 57.4717
81.8747 3272 57.2014
81.9922 3246 56.9737
82.1096 3290 57.3585
82.227 3215 56.701
82.3444 3213 56.6833
82.4619 3073 55.4346
82.5793 2700 51.9615
82.6967 2603 51.0196
82.8142 2443 49.4267
82.9316 2657 51.5461
83.049 2808 52.9906
83.1664 2877 53.6377
83.2838 3083 55.5248
83.4012 3067 55.3805
83.5186 3161 56.2228
83.636 3240 56.921
83.7534 3204 56.6039
83.8708 3232 56.8507
83.9881 3130 55.9464
84.1055 3194 56.5155
84.2228 3226 56.7979
84.3401 3248 56.9912
84.4575 3312 57.55
84.5747 3259 57.0877
84.692 3414 58.4294
84.8093 3263 57.1227
84.9265 3394 58.258
85.0437 3155 56.1694
85.1609 3226 56.7979
85.2781 3275 57.2276
85.3952 3201 56.5774
85.5123 3122 55.8749
85.6294 3137 56.0089
85.7465 3182 56.4092
85.8636 3307 57.5065
85.9806 3149 56.116
86.0976 2915 53.9907
86.2145 2796 52.8772
86.3315 2504 50.04
86.4484 2726 52.2111
86.5652 3021 54.9636
86.682 3061 55.3263
86.7988 3179 56.3826
86.9156 3280 57.2713
87.0323 3243 56.9473
87.149 3270 57.1839
87.2657 3422 58.4979
87.3823 3235 56.8771
87.4988 3350 57.8792
87.6154 3471 58.9152
87.7318 3398 58.2924
87.8483 3376 58.1034
87.9647 3598 59.9833
88.081 3428 58.5491
88.1973 3526 59.3801
88.3136 3536 59.4643
88.4298 3635 60.291
88.546 3457 58.7963
88.6621 3438 58.6345
88.7781 3345 57.836
88.8942 0 1
89.0101 0 1
89.126 0 1
89.2419 0 1
89.3577 0 1
89.4734 0 1
89.5891 0 1
89.7047 0 1
89.8203 0 1
89.9358 0 1
92.3269 0 1
92.4424 0 1
92.558 0 1
92.6736 0 1
92.7893 0 1
92.905 0 1
93.0208 0 1
93.1366 0 1
93.2525 0 1
93.3685 0 1
93.4845 0 1
93.6005 3310 57.5326
93.7167 3400 58.3095
93.8328 3453 58.7622
93.949 3459 58.8133
94.0653 3378 58.1206
94.1816 3404 58.3438
94.2979 3432 58.5833
94.4143 3306 57.4978
94.5307 3373 58.0775
94.6472 3345 57.836
94.7637 3360 57.9655
94.8803 3435 58.6089
94.9969 3259 57.0877
95.1135 3461 58.8303
95.2302 3207 56.6304
95.3469 3157 56.1872
95.4637 2927 54.1018
95.5805 2883 53.6936
95.6973 2889 53.7494
95.8142 3103 55.7046
95.9311 3235 56.8771
96.048 3164 56.2494
96.1649 3272 57.2014
96.2819 3474 58.9406
96.3989 3478 58.9746
96.516 3628 60.2329
96.633 3640 60.3324
96.7501 3581 59.8415
96.8673 3644 60.3656
96.9844 3637 60.3075
97.1016 3713 60.9344
97.2188 3673 60.6053
97.336 3732 61.0901
97.4532 3731 61.0819
97.5704 3830 61.887
97.6877 3737 61.131
97.805 3723 61.0164
97.9223 3716 60.959
98.0396 3645 60.3738
98.1569 3594 59.95
98.2743 3665 60.5392
98.3916 3532 59.4306
98.509 3627 60.2246
98.6264 3540 59.4979
98.7438 3489 59.0678
98.8612 3506 59.2115
98.9786 3358 57.9483
99.096 3198 56.5509
99.2134 3098 55.6597
99.3308 3083 55.5248
99.4482 3448 58.7197
99.5656 3454 58.7707
99.6831 3499 59.1523
99.8005 3368 58.0345
99.9179 3625 60.208
100.035 3597 59.975
100.153 3751 61.2454
100.27 3725 61.0328
100.388 3781 61.4898
100.505 3736 61.1228
100.622 3753 61.2617
100.74 3857 62.1048
100.857 3827 61.8628
100.975 3827 61.8628
101.092 3793 61.5873
101.209 3850 62.0484
101.327 4033 63.5059
101.444 3840 61.9677
101.561 3807 61.7009
101.679 3807 61.7009
101.796 3902 62.466
101.913 3886 62.3378
102.03 3742 61.1719
102.148 3725 61.0328
102.265 3840 61.9677
102.382 3498 59.1439
102.499 3620 60.1664
102.616 3392 58.2409
102.733 3276 57.2364
102.851 3222 56.7627
102.968 3474 58.9406
103.085 3496 59.127
103.202 3554 59.6154
103.319 3563 59.6909
103.436 3739 61.1474
103.552 3671 60.5888
103.669 3821 61.8142
103.786 3944 62.8013
103.903 4013 63.3482
104.02 3928 62.6738
104.137 3851 62.0564
104.253 4095 63.9922
104.37 3854 62.0806
104.487 4096 64
104.603 4089 63.9453
104.72 3967 62.9841
104.836 3960 62.9285
104.953 4076 63.8436
105.069 3964 62.9603
105.186 3974 63.0397
105.302 4028 63.4665
105.418 3935 62.7296
105.535 3964 62.9603
105.651 3889 62.3618
105.767 3967 62.9841
105.883 3877 62.2656
105.999 3593 59.9416
106.115 0 1
106.231 0 1
106.347 0 1
106.463 0 1
106.579 0 1
106.694 0 1
106.81 0 1
106.926 0 1
107.041 0 1
107.157 0 1
109.576 0 1
109.692 0 1
109.807 0 1
109.923 0 1
110.039 0 1
110.155 0 1
110.27 0 1
110.386 0 1
110.502 0 1
110.618 3794 61.5955
110.735 3740 61.1555
110.851 3688 60.7289
110.967 3646 60.3821
111.083 3508 59.2284
111.199 3392 58.2409
111.316 3331 57.7148
111.432 3276 57.2364
111.549 3407 58.3695
111.665 3466 58.8727
111.782 3586 59.8832
111.898 3606 60.05
112.015 3570 59.7495
112.132 3802 61.6604
112.248 3858 62.1128
112.365 3706 60.8769
112.482 3666 60.5475
112.599 3727 61.0492
112.716 3853 62.0725
112.832 3739 61.1474
112.949 3777 61.4573
113.066 3757 61.2944
113.183 3804 61.6766
113.3 3689 60.7371
113.417 3805 61.6847
113.534 3665 60.5392
113.652 3553 59.607
113.769 3607 60.0583
113.886 3629 60.2412
114.003 3555 59.6238
114.12 3580 59.8331
114.238 3494 59.1101
114.355 3466 58.8727
114.472 3344 57.8273
114.589 3264 57.1314
114.707 3028 55.0273
114.824 2916 54
114.942 2921 54.0463
115.059 3054 55.263
115.176 3076 55.4617
115.294 3272 57.2014
115.411 3233 56.8595
115.529 3268 57.1664
115.646 3365 58.0086
115.764 3559 59.6574
115.881 3459 58.8133
115.999 3436 58.6174
116.116 3540 59.4979
116.234 3521 59.338
116.351 3522 59.3464
116.469 3610 60.0833
116.586 3553 59.607
116.704 3728 61.0574
116.821 3570 59.7495
116.939 3632 60.2661
117.056 3537 59.4727
117.174 3397 58.2838
117.291 3673 60.6053
117.409 3566 59.716
117.526 3438 58.6345
117.644 3476 58.9576
117.761 3492 59.0931
117.879 3431 58.5747
117.996 3339 57.7841
118.114 3386 58.1893
118.231 3490 59.0762
118.349 3096 55.6417
118.466 3048 55.2087
118.584 3038 55.1181
118.701 3109 55.7584
118.819 3205 56.6127
118.936 3235 56.8771
119.053 3219 56.7362
119.171 3263 57.1227
119.288 3338 57.7754
119.405 3463 58.8473
119.523 3303 57.4717
119.64 3566 59.716
119.757 3403 58.3352
119.875 3545 59.5399
119.992 3477 58.9661
120.109 3495 59.1185
120.226 3608 60.0666
120.343 3492 59.0931
120.46 3596 59.9667
120.578 3595 59.9583
120.695 3512 59.2621
120.812 3512 59.2621
120.929 3622 60.1831
121.046 3534 59.4475
121.163 3395 58.2666
121.279 3426 58.532
121.396 3404 58.3438
121.513 3594 59.95
121.63 3519 59.3212
121.747 3338 57.7754
121.863 3317 57.5934
121.98 3291 57.3672
122.097 2945 54.2679
122.213 2894 53.7959
122.33 2932 54.1479
122.446 3041 55.1453
122.563 2990 54.6809
122.679 3081 55.5068
122.795 3087 55.5608
122.912 3161 56.2228
123.028 3267 57.1577
123.144 3367 58.0259
123.26 3430 58.5662
123.377 0 1
123.493 0 1
123.609 0 1
123.725 0 1
123.84 0 1
123.956 0 1
124.072 0 1
124.188 0 1
124.303 0 1
124.419 0 1
126.852 0 1
126.968 0 1
127.083 0 1
127.199 0 1
127.315 0 1
127.431 0 1
127.547 0 1
127.663 0 1
127.779 0 1
127.895 0 1
128.011 0 1
128.127 0 1
128.243 0 1
128.359 3710 60.9098
128.476 3865 62.1691
128.592 3687 60.7207
128.708 3726 61.041
128.825 3882 62.3057
128.941 3958 62.9126
129.058 3953 62.8729
129.174 3962 62.9444
129.291 3998 63.2297
129.408 4011 63.3325
129.524 3931 62.6977
129.641 4009 63.3167
129.758 3998 63.2297
129.875 3968 62.9921
129.992 3896 62.4179
130.108 3876 62.2575
130.225 3873 62.2334
130.342 3949 62.8411
130.459 3709 60.9016
130.576 3918 62.5939
130.693 3836 61.9355
130.81 3744 61.1882
130.928 3552 59.5987
131.045 3339 57.7841
131.162 3326 57.6715
131.279 3382 58.155
131.396 3467 58.8812
131.513 3462 58.8388
131.631 3471 58.9152
131.748 3568 59.7327
131.865 3774 61.4329
131.983 3732 61.0901
132.1 3910 62.53
132.217 3875 62.2495
132.335 3942 62.7853
132.452 3848 62.0322
132.57 3958 62.9126
132.687 3783 61.5061
132.804 4149 64.4127
132.922 3820 61.8061
133.039 3859 62.1208
133.157 3959 62.9206
133.274 3851 62.0564
133.392 3850 62.0484
133.509 3807 61.7009
133.627 3953 62.8729
133.744 3843 61.9919
133.862 3856 62.0967
133.979 3826 61.8547
134.097 3878 62.2736
134.214 3908 62.514
134.332 3713 60.9344
134.449 3638 60.3158
134.567 3592 59.9333
134.684 3389 58.2151
134.802 3331 57.7148
134.919 3537 59.4727
135.037 3506 59.2115
135.154 3532 59.4306
135.272 3630 60.2495
135.389 3813 61.7495
135.507 3863 62.153
135.624 3850 62.0484
135.742 3928 62.6738
135.859 3938 62.7535
135.977 4160 64.4981
136.094 4006 63.293
136.211 4007 63.3009
136.329 3888 62.3538
136.446 4031 63.4902
136.564 3916 62.578
136.681 3888 62.3538
136.798 4030 63.4823
136.915 3966 62.9762
137.033 3960 62.9285
137.15 3940 62.7694
137.267 3851 62.0564
137.384 3916 62.578
137.502 3794 61.5955
137.619 3837 61.9435
137.736 3920 62.6099
137.853 3767 61.3759
137.97 3736 61.1228
138.087 3782 61.498
138.204 3484 59.0254
138.321 3422 58.4979
138.438 3416 58.4466
138.555 3512 59.2621
138.672 3555 59.6238
138.788 3638 60.3158
138.905 3754 61.2699
139.022 3882 62.3057
139.139 3912 62.546
139.255 3955 62.8888
139.372 3947 62.8252
139.488 3893 62.3939
139.605 3890 62.3699
139.721 3971 63.0159
139.838 3844 62
139.954 3799 61.636
140.071 3844 62
140.187 3846 62.0161
140.303 3812 61.7414
140.419 3991 63.1744
140.535 4001 63.2535
140.652 4039 63.5531
140.768 0 1
140.884 0 1
141 0 1
141.115 0 1
141.231 0 1
141.347 0 1
141.463 0 1
141.578 0 1
141.694 0 1
144.104 0 1
144.219 0 1
144.335 0 1
144.45 0 1
144.566 0 1
144.682 0 1
144.798 0 1
144.914 0 1
145.03 0 1
145.146 3123 55.8838
145.262 3270 57.1839
145.378 3311 57.5413
145.494 3183 56.4181
145.61 3374 58.0861
145.726 3271 57.1927
145.842 3500 59.1608
145.959 3458 58.8048
146.075 3532 59.4306
146.192 3653 60.4401
146.308 3691 60.7536
146.425 3705 60.8687
146.541 3795 61.6036
146.658 3673 60.6053
146.774 3641 60.3407
146.891 3621 60.1747
147.008 3414 58.4294
147.125 3224 56.7803
147.241 3381 58.1464
147.358 3336 57.7581
147.475 3318 57.6021
147.592 3357 57.9396
147.709 3322 57.6368
147.826 3415 58.438
147.943 3443 58.6771
148.06 3291 57.3672
148.177 3298 57.4282
148.294 3215 56.701
148.411 3189 56.4712
148.528 3150 56.1249
148.645 3108 55.7494
148.762 3057 55.2901
148.88 3188 56.4624
148.997 3041 55.1453
149.114 3276 57.2364
149.231 3243 56.9473
149.349 3304 57.4804
149.466 3294 57.3934
149.583 3213 56.6833
149.701 3420 58.4808
149.818 3371 58.0603
149.935 3333 57.7321
150.053 3320 57.6194
150.17 3455 58.7792
150.287 3378 58.1206
150.405 3286 57.3236
150.522 3069 55.3986
150.64 3096 55.6417
150.757 2923 54.0648
150.875 2849 53.376
150.992 2923 54.0648
151.11 2851 53.3948
151.227 2952 54.3323
151.344 3017 54.9272
151.462 3241 56.9298
151.579 3109 55.7584
151.697 3143 56.0625
151.814 3179 56.3826
151.932 3015 54.909
152.049 3194 56.5155
152.167 3233 56.8595
152.284 3068 55.3895
152.402 3292 57.376
152.519 3271 57.1927
152.636 3236 56.8859
152.754 3205 56.6127
152.871 3266 57.1489
152.989 3387 58.1979
153.106 3316 57.5847
153.223 3329 57.6975
153.341 3363 57.9914
153.458 3325 57.6628
153.575 3381 58.1464
153.693 3327 57.6802
153.81 3304 57.4804
153.927 3286 57.3236
154.044 3111 55.7763
154.162 3057 55.2901
154.279 3068 55.3895
154.396 3032 55.0636
154.513 3051 55.2359
154.63 3083 55.5248
154.747 2989 54.6717
154.864 3078 55.4797
154.981 3163 56.2406
155.098 3288 57.3411
155.215 3222 56.7627
155.332 3257 57.0701
155.449 3332 57.7235
155.566 3339 57.7841
155.683 3304 57.4804
155.8 3299 57.4369
155.917 3286 57.3236
156.033 3424 58.515
156.15 0 1
156.267 0 1
156.383 0 1
156.5 0 1
156.617 0 1
156.733 0 1
156.85 0 1
156.966 0 1
157.082 0 1
157.199 0 1
157.315 0 1
157.431 0 1
157.547 0 1
157.664 0 1
157.78 0 1
157.896 0 1
158.012 0 1
158.128 0 1
158.244 0 1
158.359 0 1
158.475 0 1
158.591 0 1
158.706 0 1
