
6.15755 0 1
6.2731 0 1
6.3887 0 1
6.50437 0 1
6.62009 0 1
6.73587 0 1
6.8517 0 1
6.96759 0 1
7.08353 0 1
7.19952 0 1
7.31557 0 1
7.43166 0 1
7.54781 0 1
7.664 0 1
7.78024 0 1
7.89653 0 1
8.01286 0 1
8.12924 0 1
8.24567 0 1
8.36213 0 1
8.47864 0 1
8.59519 0 1
8.71178 0 1
8.82841 0 1
8.94508 0 1
9.06179 0 1
9.17853 0 1
9.29531 0 1
9.41212 0 1
9.52897 0 1
9.64584 0 1
9.76276 0 1
9.8797 0 1
9.99667 0 1
10.1137 0 1
10.2307 0 1
10.3478 0 1
10.4648 0 1
10.5819 0 1
10.6991 0 1
10.8162 0 1
10.9334 0 1
11.0506 0 1
11.1678 0 1
11.285 0 1
11.4023 0 1
11.5196 0 1
11.6369 0 1
11.7542 0 1
11.8715 0 1
11.9888 0 1
12.1062 0 1
12.2235 0 1
12.3409 0 1
12.4582 0 1
12.5756 0 1
12.693 0 1
12.8104 0 1
12.9278 0 1
13.0452 0 1
13.1626 0 1
13.28 0 1
13.3974 0 1
13.5149 0 1
13.6323 0 1
13.7497 0 1
13.8671 0 1
13.9845 0 1
14.1019 0 1
14.2193 0 1
14.3367 0 1
14.4541 0 1
14.5714 0 1
14.6888 0 1
14.8062 0 1
14.9235 0 1
15.0408 184 13.5647
15.1581 201 14.1774
15.2755 191 13.8203
15.3927 197 14.0357
15.51 220 14.8324
15.6273 182 13.4907
15.7445 191 13.8203
15.8617 205 14.3178
15.9789 206 14.3527
16.0961 193 13.8924
16.2132 201 14.1774
16.3304 247 15.7162
16.4475 206 14.3527
16.5646 234 15.2971
16.6816 218 14.7648
16.7986 238 15.4272
16.9156 222 14.8997
17.0326 247 15.7162
17.1496 187 13.6748
17.2665 235 15.3297
17.3833 239 15.4596
17.5002 233 15.2643
17.617 224 14.9666
17.7338 247 15.7162
17.8505 214 14.6287
17.9672 255 15.9687
18.0839 260 16.1245
18.2005 279 16.7033
18.3171 287 16.9411
18.4337 264 16.2481
18.5502 251 15.843
18.6666 292 17.088
18.7831 267 16.3401
18.8994 288 16.9706
19.0158 273 16.5227
19.1321 231 15.1987
19.2483 256 16
19.3645 237 15.3948
19.4806 256 16
19.5967 247 15.7162
19.7128 251 15.843
19.8288 270 16.4317
19.9447 230 15.1658
20.0606 0 1
20.1764 0 1
20.2922 0 1
20.4079 0 1
20.5236 0 1
20.6392 0 1
20.7548 0 1
20.8702 0 1
23.3078 0 1
23.4233 0 1
23.539 0 1
23.6547 0 1
23.7704 0 1
23.8862 0 1
24.0021 0 1
24.118 0 1
24.234 0 1
24.35 0 1
24.4661 246 15.6844
24.5822 256 16
24.6984 274 16.5529
24.8146 290 17.0294
24.9309 280 16.7332
25.0472 284 16.8523
25.1636 291 17.0587
25.28 287 16.9411
25.3965 254 15.9374
25.513 272 16.4924
25.6296 264 16.2481
25.7462 283 16.8226
25.8628 258 16.0624
25.9795 268 16.3707
26.0962 291 17.0587
26.213 302 17.3781
26.3298 273 16.5227
26.4466 301 17.3494
26.5635 298 17.2627
26.6804 308 17.5499
26.7973 323 17.9722
26.9143 321 17.9165
27.0313 334 18.2757
27.1483 349 18.6815
27.2653 346 18.6011
27.3824 325 18.0278
27.4996 356 18.868
27.6167 319 17.8606
27.7339 335 18.303
27.8511 303 17.4069
27.9683 268 16.3707
28.0855 278 16.6733
28.2028 308 17.5499
28.3201 281 16.7631
28.4374 286 16.9115
28.5547 282 16.7929
28.6721 328 18.1108
28.7894 283 16.8226
28.9068 282 16.7929
29.0242 283 16.8226
29.1416 275 16.5831
29.259 312 17.6635
29.3764 291 17.0587
29.4939 291 17.0587
29.6113 280 16.7332
29.7288 285 16.8819
29.8463 245 15.6525
29.9638 328 18.1108
30.0812 294 17.1464
30.1987 332 18.2209
30.3162 310 17.6068
30.4337 315 17.7482
30.5512 328 18.1108
30.6687 335 18.303
30.7862 366 19.1311
30.9037 353 18.7883
31.0212 331 18.1934
31.1387 306 17.4929
31.2562 321 17.9165
31.3737 325 18.0278
31.4912 316 17.7764
31.6087 314 17.72
31.7262 261 16.1555
31.8436 273 16.5227
31.9611 292 17.088
32.0785 317 17.8045
32.1959 312 17.6635
32.3134 369 19.2094
32.4308 315 17.7482
32.5482 312 17.6635
32.6655 328 18.1108
32.7829 303 17.4069
32.9002 299 17.2916
33.0176 313 17.6918
33.1349 288 16.9706
33.2522 299 17.2916
33.3694 279 16.7033
33.4867 292 17.088
33.6039 324 18
33.7211 326 18.0555
33.8383 315 17.7482
33.9554 340 18.4391
34.0725 336 18.3303
34.1896 324 18
34.3067 366 19.1311
34.4237 348 18.6548
34.5407 369 19.2094
34.6577 363 19.0526
34.7746 345 18.5742
34.8915 337 18.3576
35.0084 354 18.8149
35.1252 341 18.4662
35.242 309 17.5784
35.3587 296 17.2047
35.4755 295 17.1756
35.5921 316 17.7764
35.7088 334 18.2757
35.8254 309 17.5784
35.9419 300 17.3205
36.0584 338 18.3848
36.1749 349 18.6815
36.2913 329 18.1384
36.4077 345 18.5742
36.524 311 17.6352
36.6403 301 17.3494
36.7565 283 16.8226
36.8727 305 17.4642
36.9889 305 17.4642
37.1049 303 17.4069
37.221 0 1
37.3369 0 1
37.4529 0 1
37.5687 0 1
37.6845 0 1
37.8003 0 1
37.916 0 1
38.0316 0 1
38.1472 0 1
40.5851 0 1
40.7008 0 1
40.8164 0 1
40.9322 0 1
41.048 0 1
41.1639 0 1
41.2798 0 1
41.3958 0 1
41.5118 0 1
41.6279 0 1
41.744 207 14.3875
41.8602 275 16.5831
41.9765 285 16.8819
42.0928 267 16.3401
42.2091 237 15.3948
42.3255 268 16.3707
42.4419 275 16.5831
42.5584 304 17.4356
42.675 323 17.9722
42.7915 342 18.4932
42.9081 288 16.9706
43.0248 317 17.8045
43.1415 344 18.5472
43.2582 353 18.7883
43.375 319 17.8606
43.4918 347 18.6279
43.6087 307 17.5214
43.7256 315 17.7482
43.8425 297 17.2337
43.9595 302 17.3781
44.0765 303 17.4069
44.1935 281 16.7631
44.3106 278 16.6733
44.4277 260 16.1245
44.5448 287 16.9411
44.6619 304 17.4356
44.7791 297 17.2337
44.8963 279 16.7033
45.0136 262 16.1864
45.1308 276 16.6132
45.2481 260 16.1245
45.3654 234 15.2971
45.4827 243 15.5885
45.6001 244 15.6205
45.7174 231 15.1987
45.8348 235 15.3297
45.9522 235 15.3297
46.0697 257 16.0312
46.1871 242 15.5563
46.3046 278 16.6733
46.422 271 16.4621
46.5395 282 16.7929
46.657 285 16.8819
46.7745 297 17.2337
46.892 260 16.1245
47.0096 268 16.3707
47.1271 271 16.4621
47.2446 288 16.9706
47.3622 261 16.1555
47.4797 249 15.7797
47.5973 252 15.8745
47.7149 234 15.2971
47.8324 256 16
47.95 244 15.6205
48.0675 254 15.9374
48.1851 243 15.5885
48.3027 247 15.7162
48.4202 241 15.5242
48.5378 260 16.1245
48.6554 251 15.843
48.7729 217 14.7309
48.8904 189 13.7477
49.008 197 14.0357
49.1255 211 14.5258
49.243 206 14.3527
49.3605 212 14.5602
49.478 204 14.2829
49.5955 204 14.2829
49.713 215 14.6629
49.8304 268 16.3707
49.9479 280 16.7332
50.0653 249 15.7797
50.1827 275 16.5831
50.3001 272 16.4924
50.4175 259 16.0935
50.5348 269 16.4012
50.6521 277 16.6433
50.7694 285 16.8819
50.8867 269 16.4012
51.004 249 15.7797
51.1212 276 16.6132
51.2384 282 16.7929
51.3556 283 16.8226
51.4727 269 16.4012
51.5899 257 16.0312
51.707 261 16.1555
51.824 305 17.4642
51.9411 307 17.5214
52.0581 300 17.3205
52.175 275 16.5831
52.2919 285 16.8819
52.4088 267 16.3401
52.5257 262 16.1864
52.6425 289 17
52.7593 276 16.6132
52.876 262 16.1864
52.9927 289 17
53.1094 333 18.2483
53.226 334 18.2757
53.3426 352 18.7617
53.4591 360 18.9737
53.5756 384 19.5959
53.692 419 20.4695
53.8084 429 20.7123
53.9248 386 19.6469
54.0411 440 20.9762
54.1573 450 21.2132
54.2735 0 1
54.3896 0 1
54.5057 0 1
54.6217 0 1
54.7377 0 1
54.8537 0 1
54.9695 0 1
55.0853 0 1
55.2011 0 1
55.3168 0 1
55.4324 0 1
57.824 0 1
57.9396 0 1
58.0553 0 1
58.1711 0 1
58.2869 0 1
58.4028 0 1
58.5187 0 1
58.6347 0 1
58.7508 0 1
58.8669 0 1
58.983 468 21.6333
59.0992 506 22.4944
59.2155 519 22.7816
59.3318 509 22.561
59.4482 481 21.9317
59.5646 520 22.8035
59.681 504 22.4499
59.7975 429 20.7123
59.9141 500 22.3607
60.0306 468 21.6333
60.1473 463 21.5174
60.2639 451 21.2368
60.3807 460 21.4476
60.4974 475 21.7945
60.6142 475 21.7945
60.731 444 21.0713
60.8479 433 20.8087
60.9648 425 20.6155
61.0818 421 20.5183
61.1987 391 19.7737
61.3158 408 20.199
61.4328 388 19.6977
61.5499 359 18.9473
61.667 409 20.2237
61.7841 442 21.0238
61.9013 489 22.1133
62.0185 477 21.8403
62.1357 463 21.5174
62.253 497 22.2935
62.3702 492 22.1811
62.4875 515 22.6936
62.6049 540 23.2379
62.7222 481 21.9317
62.8396 521 22.8254
62.9569 479 21.8861
63.0743 492 22.1811
63.1918 496 22.2711
63.3092 458 21.4009
63.4267 439 20.9523
63.5441 451 21.2368
63.6616 431 20.7605
63.7791 462 21.4942
63.8966 475 21.7945
64.0142 474 21.7715
64.1317 468 21.6333
64.2492 461 21.4709
64.3668 458 21.4009
64.4843 413 20.3224
64.6019 391 19.7737
64.7195 379 19.4679
64.837 377 19.4165
64.9546 336 18.3303
65.0722 355 18.8414
65.1898 371 19.2614
65.3074 351 18.735
65.4249 458 21.4009
65.5425 427 20.664
65.6601 520 22.8035
65.7777 471 21.7025
65.8952 485 22.0227
66.0128 566 23.7908
66.1304 523 22.8692
66.2479 503 22.4277
66.3655 492 22.1811
66.483 555 23.5584
66.6005 526 22.9347
66.718 477 21.8403
66.8355 504 22.4499
66.953 472 21.7256
67.0705 506 22.4944
67.1879 505 22.4722
67.3054 472 21.7256
67.4228 442 21.0238
67.5402 502 22.4054
67.6576 522 22.8473
67.7749 523 22.8692
67.8923 500 22.3607
68.0096 484 22
68.1269 400 20
68.2442 384 19.5959
68.3614 412 20.2978
68.4787 401 20.025
68.5958 364 19.0788
68.713 419 20.4695
68.8302 429 20.7123
68.9473 458 21.4009
69.0643 500 22.3607
69.1814 516 22.7156
69.2984 525 22.9129
69.4154 555 23.5584
69.5323 580 24.0832
69.6492 595 24.3926
69.7661 635 25.1992
69.8829 596 24.4131
69.9997 612 24.7386
70.1165 591 24.3105
70.2332 642 25.3377
70.3499 631 25.1197
70.4665 628 25.0599
70.5831 628 25.0599
70.6996 655 25.593
70.8161 571 23.8956
70.9326 635 25.1992
71.049 575 23.9792
71.1653 607 24.6374
71.2817 611 24.7184
71.3979 632 25.1396
71.5141 583 24.1454
71.6303 509 22.561
71.7464 417 20.4206
71.8624 0 1
71.9784 0 1
72.0944 0 1
72.2102 0 1
72.3261 0 1
72.4418 0 1
72.5575 0 1
72.6732 0 1
75.1054 0 1
75.2209 0 1
75.3365 0 1
75.4521 0 1
75.5678 0 1
75.6835 0 1
75.7993 0 1
75.9151 0 1
76.031 0 1
76.147 612 24.7386
76.263 660 25.6905
76.3791 711 26.6646
76.4952 682 26.1151
76.6113 673 25.9422
76.7276 695 26.3629
76.8438 741 27.2213
76.9601 679 26.0576
77.0765 559 23.6432
77.1929 557 23.6008
77.3093 486 22.0454
77.4258 500 22.3607
77.5423 489 22.1133
77.6589 545 23.3452
77.7755 553 23.516
77.8921 558 23.622
78.0088 639 25.2784
78.1256 671 25.9037
78.2423 690 26.2679
78.3591 808 28.4253
78.4759 773 27.8029
78.5928 816 28.5657
78.7097 764 27.6405
78.8266 759 27.55
78.9436 863 29.3769
79.0606 812 28.4956
79.1776 726 26.9444
79.2946 782 27.9643
79.4117 817 28.5832
79.5288 774 27.8209
79.6459 808 28.4253
79.7631 758 27.5318
79.8802 760 27.5681
79.9974 746 27.313
80.1147 734 27.0924
80.2319 804 28.3549
80.3491 733 27.074
80.4664 815 28.5482
80.5837 764 27.6405
80.701 671 25.9037
80.8183 604 24.5764
80.9357 566 23.7908
81.053 482 21.9545
81.1704 453 21.2838
81.2877 485 22.0227
81.4051 542 23.2809
81.5225 565 23.7697
81.6399 691 26.2869
81.7573 706 26.5707
81.8747 738 27.1662
81.9922 799 28.2666
82.1096 782 27.9643
82.227 795 28.1957
82.3444 800 28.2843
82.4619 770 27.7489
82.5793 845 29.0689
82.6967 826 28.7402
82.8142 827 28.7576
82.9316 759 27.55
83.049 754 27.4591
83.1664 795 28.1957
83.2838 746 27.313
83.4012 723 26.8887
83.5186 710 26.6458
83.636 766 27.6767
83.7534 755 27.4773
83.8708 786 28.0357
83.9881 736 27.1293
84.1055 703 26.5141
84.2228 738 27.1662
84.3401 633 25.1595
84.4575 587 24.2281
84.5747 534 23.1084
84.692 560 23.6643
84.8093 531 23.0434
84.9265 499 22.3383
85.0437 563 23.7276
85.1609 596 24.4131
85.2781 673 25.9422
85.3952 737 27.1477
85.5123 796 28.2135
85.6294 863 29.3769
85.7465 922 30.3645
85.8636 898 29.9666
85.9806 893 29.8831
86.0976 914 30.2324
86.2145 884 29.7321
86.3315 995 31.5436
86.4484 954 30.8869
86.5652 907 30.1164
86.682 991 31.4802
86.7988 950 30.8221
86.9156 989 31.4484
87.0323 988 31.4325
87.149 932 30.5287
87.2657 914 30.2324
87.3823 1000 31.6228
87.4988 1026 32.0312
87.6154 1014 31.8434
87.7318 957 30.9354
87.8483 937 30.6105
87.9647 841 29
88.081 774 27.8209
88.1973 706 26.5707
88.3136 692 26.3059
88.4298 679 26.0576
88.546 709 26.6271
88.6621 759 27.55
88.7781 833 28.8617
88.8942 0 1
89.0101 0 1
89.126 0 1
89.2419 0 1
89.3577 0 1
89.4734 0 1
89.5891 0 1
89.7047 0 1
89.8203 0 1
89.9358 0 1
92.3269 0 1
92.4424 0 1
92.558 0 1
92.6736 0 1
92.7893 0 1
92.905 0 1
93.0208 0 1
93.1366 0 1
93.2525 0 1
93.3685 0 1
93.4845 0 1
93.6005 803 28.3373
93.7167 749 27.3679
93.8328 807 28.4077
93.949 799 28.2666
94.0653 849 29.1376
94.1816 912 30.1993
94.2979 997 31.5753
94.4143 1088 32.9848
94.5307 1157 34.0147
94.6472 1214 34.8425
94.7637 1263 35.5387
94.8803 1280 35.7771
94.9969 1225 35
95.1135 1281 35.7911
95.2302 1301 36.0694
95.3469 1287 35.8748
95.4637 1279 35.7631
95.5805 1220 34.9285
95.6973 1267 35.5949
95.8142 1256 35.4401
95.9311 1244 35.2704
96.048 1175 34.2783
96.1649 1184 34.4093
96.2819 1209 34.7707
96.3989 1196 34.5832
96.516 1247 35.3129
96.633 1301 36.0694
96.7501 1225 35
96.8673 1165 34.1321
96.9844 1087 32.9697
97.1016 1008 31.749
97.2188 914 30.2324
97.336 855 29.2404
97.4532 814 28.5307
97.5704 826 28.7402
97.6877 845 29.0689
97.805 886 29.7658
97.9223 964 31.0483
98.0396 1045 32.3265
98.1569 1152 33.9411
98.2743 1159 34.0441
98.3916 1242 35.242
98.509 1246 35.2987
98.6264 1310 36.1939
98.7438 1306 36.1386
98.8612 1305 36.1248
98.9786 1306 36.1386
99.096 1314 36.2491
99.2134 1306 36.1386
99.3308 1293 35.9583
99.4482 1295 35.9861
99.5656 1210 34.7851
99.6831 1338 36.5787
99.8005 1283 35.819
99.9179 1288 35.8887
100.035 1268 35.609
100.153 1238 35.1852
100.27 1305 36.1248
100.388 1265 35.5668
100.505 1139 33.7491
100.622 1052 32.4345
100.74 1107 33.2716
100.857 1015 31.8591
100.975 860 29.3258
101.092 817 28.5832
101.209 787 28.0535
101.327 816 28.5657
101.444 936 30.5941
101.561 1028 32.0624
101.679 1059 32.5423
101.796 1237 35.171
101.913 1314 36.2491
102.03 1249 35.3412
102.148 1336 36.5513
102.265 1278 35.7491
102.382 1388 37.2559
102.499 1331 36.4829
102.616 1333 36.5103
102.733 1400 37.4166
102.851 1333 36.5103
102.968 1278 35.7491
103.085 1344 36.6606
103.202 1333 36.5103
103.319 1322 36.3593
103.436 1158 34.0294
103.552 1193 34.5398
103.669 1365 36.9459
103.786 1362 36.9053
103.903 1376 37.0945
104.02 1290 35.9166
104.137 1158 34.0294
104.253 1099 33.1512
104.37 1036 32.187
104.487 936 30.5941
104.603 912 30.1993
104.72 858 29.2916
104.836 908 30.133
104.953 945 30.7409
105.069 1046 32.3419
105.186 1133 33.6601
105.302 1209 34.7707
105.418 1345 36.6742
105.535 1334 36.524
105.651 1392 37.3095
105.767 1432 37.8418
105.883 1403 37.4566
105.999 1372 37.0405
106.115 0 1
106.231 0 1
106.347 0 1
106.463 0 1
106.579 0 1
106.694 0 1
106.81 0 1
106.926 0 1
107.041 0 1
107.157 0 1
109.576 0 1
109.692 0 1
109.807 0 1
109.923 0 1
110.039 0 1
110.155 0 1
110.27 0 1
110.386 0 1
110.502 0 1
110.618 1269 35.623
110.735 1230 35.0714
110.851 1259 35.4824
110.967 1255 35.426
111.083 1327 36.428
111.199 1276 35.7211
111.316 1262 35.5246
111.432 1291 35.9305
111.549 1250 35.3553
111.665 1291 35.9305
111.782 1224 34.9857
111.898 1229 35.0571
112.015 1198 34.6121
112.132 1195 34.5688
112.248 1183 34.3948
112.365 1228 35.0428
112.482 1104 33.2265
112.599 1118 33.4365
112.716 1000 31.6228
112.832 969 31.1288
112.949 885 29.7489
113.066 818 28.6007
113.183 806 28.3901
113.3 738 27.1662
113.417 784 28
113.534 896 29.9333
113.652 951 30.8383
113.769 1024 32
113.886 1095 33.0908
114.003 1191 34.5109
114.12 1128 33.5857
114.238 1145 33.8378
114.355 1198 34.6121
114.472 1140 33.7639
114.589 1261 35.5106
114.707 1220 34.9285
114.824 1141 33.7787
114.942 1191 34.5109
115.059 1164 34.1174
115.176 1168 34.176
115.294 1154 33.9706
115.411 1092 33.0454
115.529 1106 33.2566
115.646 1102 33.1964
115.764 1123 33.5112
115.881 1152 33.9411
115.999 1202 34.6699
116.116 1107 33.2716
116.234 1042 32.28
116.351 966 31.0805
116.469 869 29.4788
116.586 823 28.688
116.704 818 28.6007
116.821 805 28.3725
116.939 781 27.9464
117.056 848 29.1204
117.174 893 29.8831
117.291 912 30.1993
117.409 1024 32
117.526 1052 32.4345
117.644 1120 33.4664
117.761 1178 34.322
117.879 1168 34.176
117.996 1144 33.8231
118.114 1118 33.4365
118.231 1109 33.3017
118.349 1050 32.4037
118.466 1113 33.3617
118.584 1079 32.8481
118.701 1110 33.3167
118.819 1159 34.0441
118.936 1149 33.8969
119.053 1026 32.0312
119.171 1063 32.6037
119.288 1049 32.3883
119.405 1138 33.7343
119.523 1119 33.4515
119.64 1088 32.9848
119.757 1028 32.0624
119.875 996 31.5595
119.992 932 30.5287
120.109 900 30
120.226 823 28.688
120.343 763 27.6225
120.46 689 26.2488
120.578 811 28.4781
120.695 810 28.4605
120.812 790 28.1069
120.929 853 29.2062
121.046 910 30.1662
121.163 976 31.241
121.279 1045 32.3265
121.396 1094 33.0757
121.513 1030 32.0936
121.63 1072 32.7414
121.747 1030 32.0936
121.863 1024 32
121.98 997 31.5753
122.097 1029 32.078
122.213 1008 31.749
122.33 1033 32.1403
122.446 1028 32.0624
122.563 961 31
122.679 994 31.5278
122.795 975 31.225
122.912 990 31.4643
123.028 994 31.5278
123.144 991 31.4802
123.26 1035 32.1714
123.377 0 1
123.493 0 1
123.609 0 1
123.725 0 1
123.84 0 1
123.956 0 1
124.072 0 1
124.188 0 1
124.303 0 1
124.419 0 1
126.852 0 1
126.968 0 1
127.083 0 1
127.199 0 1
127.315 0 1
127.431 0 1
127.547 0 1
127.663 0 1
127.779 0 1
127.895 0 1
128.011 0 1
128.127 0 1
128.243 0 1
128.359 1064 32.619
128.476 1120 33.4664
128.592 1101 33.1813
128.708 990 31.4643
128.825 1004 31.686
128.941 915 30.249
129.058 887 29.7825
129.174 878 29.6311
129.291 805 28.3725
129.408 835 28.8964
129.524 750 27.3861
129.641 803 28.3373
129.758 823 28.688
129.875 885 29.7489
129.992 970 31.1448
130.108 931 30.5123
130.225 1032 32.1248
130.342 1084 32.9242
130.459 1063 32.6037
130.576 1047 32.3574
130.693 1097 33.121
130.81 957 30.9354
130.928 1004 31.686
131.045 986 31.4006
131.162 1009 31.7648
131.279 1039 32.2335
131.396 1051 32.4191
131.513 1028 32.0624
131.631 996 31.5595
131.748 1005 31.7017
131.865 1097 33.121
131.983 1035 32.1714
132.1 1005 31.7017
132.217 1059 32.5423
132.335 990 31.4643
132.452 901 30.0167
132.57 906 30.0998
132.687 822 28.6705
132.804 731 27.037
132.922 764 27.6405
133.039 801 28.3019
133.157 838 28.9482
133.274 799 28.2666
133.392 853 29.2062
133.509 831 28.8271
133.627 903 30.05
133.744 981 31.3209
133.862 969 31.1288
133.979 1009 31.7648
134.097 983 31.3528
134.214 976 31.241
134.332 922 30.3645
134.449 875 29.5804
134.567 972 31.1769
134.684 996 31.5595
134.802 949 30.8058
134.919 987 31.4166
135.037 1026 32.0312
135.154 914 30.2324
135.272 936 30.5941
135.389 974 31.209
135.507 930 30.4959
135.624 969 31.1288
135.742 942 30.692
135.859 974 31.209
135.977 934 30.5614
136.094 904 30.0666
136.211 802 28.3196
136.329 791 28.1247
136.446 804 28.3549
136.564 754 27.4591
136.681 751 27.4044
136.798 749 27.3679
136.915 774 27.8209
137.033 777 27.8747
137.15 942 30.692
137.267 904 30.0666
137.384 913 30.2159
137.502 924 30.3974
137.619 932 30.5287
137.736 949 30.8058
137.853 952 30.8545
137.97 916 30.2655
138.087 885 29.7489
138.204 917 30.282
138.321 948 30.7896
138.438 947 30.7734
138.555 920 30.3315
138.672 886 29.7658
138.788 921 30.348
138.905 922 30.3645
139.022 986 31.4006
139.139 966 31.0805
139.255 930 30.4959
139.372 935 30.5778
139.488 888 29.7993
139.605 851 29.1719
139.721 865 29.4109
139.838 833 28.8617
139.954 790 28.1069
140.071 824 28.7054
140.187 784 28
140.303 729 27
140.419 803 28.3373
140.535 754 27.4591
140.652 800 28.2843
140.768 0 1
140.884 0 1
141 0 1
141.115 0 1
141.231 0 1
141.347 0 1
141.463 0 1
141.578 0 1
141.694 0 1
144.104 0 1
144.219 0 1
144.335 0 1
144.45 0 1
144.566 0 1
144.682 0 1
144.798 0 1
144.914 0 1
145.03 0 1
145.146 460 21.4476
145.262 609 24.6779
145.378 551 23.4734
145.494 608 24.6577
145.61 574 23.9583
145.726 615 24.7992
145.842 639 25.2784
145.959 671 25.9037
146.075 647 25.4362
146.192 662 25.7294
146.308 691 26.2869
146.425 696 26.3818
146.541 668 25.8457
146.658 672 25.923
146.774 616 24.8193
146.891 657 25.632
147.008 678 26.0384
147.125 659 25.671
147.241 675 25.9808
147.358 688 26.2298
147.475 688 26.2298
147.592 723 26.8887
147.709 665 25.7876
147.826 690 26.2679
147.943 706 26.5707
148.06 710 26.6458
148.177 665 25.7876
148.294 651 25.5147
148.411 649 25.4755
148.528 677 26.0192
148.645 636 25.219
148.762 608 24.6577
148.88 615 24.7992
148.997 584 24.1661
149.114 636 25.219
149.231 612 24.7386
149.349 581 24.1039
149.466 643 25.3574
149.583 654 25.5734
149.701 639 25.2784
149.818 641 25.318
149.935 686 26.1916
150.053 641 25.318
150.17 656 25.6125
150.287 668 25.8457
150.405 692 26.3059
150.522 691 26.2869
150.64 698 26.4197
150.757 637 25.2389
150.875 638 25.2587
150.992 707 26.5895
151.11 703 26.5141
151.227 698 26.4197
151.344 692 26.3059
151.462 680 26.0768
151.579 719 26.8142
151.697 730 27.0185
151.814 670 25.8844
151.932 695 26.3629
152.049 677 26.0192
152.167 709 26.6271
152.284 702 26.4953
152.402 659 25.671
152.519 599 24.4745
152.636 629 25.0799
152.754 603 24.5561
152.871 587 24.2281
152.989 645 25.3969
153.106 659 25.671
153.223 661 25.7099
153.341 628 25.0599
153.458 663 25.7488
153.575 695 26.3629
153.693 730 27.0185
153.81 651 25.5147
153.927 721 26.8514
154.044 637 25.2389
154.162 664 25.7682
154.279 651 25.5147
154.396 650 25.4951
154.513 688 26.2298
154.63 694 26.3439
154.747 718 26.7955
154.864 723 26.8887
154.981 724 26.9072
155.098 689 26.2488
155.215 780 27.9285
155.332 761 27.5862
155.449 762 27.6043
155.566 669 25.865
155.683 752 27.4226
155.8 718 26.7955
155.917 695 26.3629
156.033 649 25.4755
156.15 0 1
156.267 0 1
156.383 0 1
156.5 0 1
156.617 0 1
156.733 0 1
156.85 0 1
156.966 0 1
157.082 0 1
157.199 0 1
157.315 0 1
157.431 0 1
157.547 0 1
157.664 0 1
157.78 0 1
157.896 0 1
158.012 0 1
158.128 0 1
158.244 0 1
158.359 0 1
158.475 0 1
158.591 0 1
158.706 0 1
