
6.15755 0 1
6.2731 0 1
6.3887 0 1
6.50437 0 1
6.62009 0 1
6.73587 0 1
6.8517 0 1
6.96759 0 1
7.08353 0 1
7.19952 0 1
7.31557 0 1
7.43166 0 1
7.54781 0 1
7.664 0 1
7.78024 0 1
7.89653 0 1
8.01286 0 1
8.12924 0 1
8.24567 0 1
8.36213 0 1
8.47864 0 1
8.59519 0 1
8.71178 0 1
8.82841 0 1
8.94508 0 1
9.06179 0 1
9.17853 0 1
9.29531 0 1
9.41212 0 1
9.52897 0 1
9.64584 0 1
9.76276 0 1
9.8797 0 1
9.99667 0 1
10.1137 0 1
10.2307 0 1
10.3478 0 1
10.4648 0 1
10.5819 0 1
10.6991 0 1
10.8162 0 1
10.9334 0 1
11.0506 0 1
11.1678 0 1
11.285 0 1
11.4023 0 1
11.5196 0 1
11.6369 0 1
11.7542 0 1
11.8715 0 1
11.9888 0 1
12.1062 0 1
12.2235 0 1
12.3409 0 1
12.4582 0 1
12.5756 0 1
12.693 0 1
12.8104 0 1
12.9278 0 1
13.0452 0 1
13.1626 0 1
13.28 0 1
13.3974 0 1
13.5149 0 1
13.6323 0 1
13.7497 0 1
13.8671 0 1
13.9845 0 1
14.1019 0 1
14.2193 0 1
14.3367 0 1
14.4541 0 1
14.5714 0 1
14.6888 0 1
14.8062 0 1
14.9235 0 1
15.0408 1400 37.4166
15.1581 1450 38.0789
15.2755 1505 38.7943
15.3927 1538 39.2173
15.51 1528 39.0896
15.6273 1570 39.6232
15.7445 1521 39
15.8617 1446 38.0263
15.9789 1449 38.0657
16.0961 1477 38.4318
16.2132 1443 37.9868
16.3304 1533 39.1535
16.4475 1470 38.3406
16.5646 1678 40.9634
16.6816 1589 39.8623
16.7986 1642 40.5216
16.9156 1701 41.2432
17.0326 1726 41.5452
17.1496 1738 41.6893
17.2665 1713 41.3884
17.3833 1724 41.5211
17.5002 1713 41.3884
17.617 1594 39.9249
17.7338 1526 39.064
17.8505 1549 39.3573
17.9672 1515 38.923
18.0839 1460 38.2099
18.2005 1563 39.5348
18.3171 1524 39.0384
18.4337 1566 39.5727
18.5502 1557 39.4588
18.6666 1510 38.8587
18.7831 1582 39.7744
18.8994 1603 40.0375
19.0158 1492 38.6264
19.1321 1459 38.1969
19.2483 1448 38.0526
19.3645 1394 37.3363
19.4806 1268 35.609
19.5967 1249 35.3412
19.7128 1098 33.1361
19.8288 1045 32.3265
19.9447 955 30.9031
20.0606 0 1
20.1764 0 1
20.2922 0 1
20.4079 0 1
20.5236 0 1
20.6392 0 1
20.7548 0 1
20.8702 0 1
23.3078 0 1
23.4233 0 1
23.539 0 1
23.6547 0 1
23.7704 0 1
23.8862 0 1
24.0021 0 1
24.118 0 1
24.234 0 1
24.35 0 1
24.4661 559 23.6432
24.5822 585 24.1868
24.6984 701 26.4764
24.8146 765 27.6586
24.9309 841 29
25.0472 882 29.6985
25.1636 1065 32.6343
25.28 1120 33.4664
25.3965 1194 34.5543
25.513 1326 36.4143
25.6296 1391 37.2961
25.7462 1467 38.3014
25.8628 1454 38.1314
25.9795 1483 38.5097
26.0962 1413 37.5899
26.213 1431 37.8286
26.3298 1368 36.9865
26.4466 1358 36.8511
26.5635 1353 36.7831
26.6804 1330 36.4692
26.7973 1252 35.3836
26.9143 1272 35.6651
27.0313 1240 35.2136
27.1483 1312 36.2215
27.2653 1334 36.524
27.3824 1377 37.108
27.4996 1318 36.3043
27.6167 1330 36.4692
27.7339 1261 35.5106
27.8511 1308 36.1663
27.9683 1328 36.4417
28.0855 1191 34.5109
28.2028 1211 34.7994
28.3201 1118 33.4365
28.4374 1079 32.8481
28.5547 1104 33.2265
28.6721 1134 33.6749
28.7894 1165 34.1321
28.9068 1176 34.2929
29.0242 1261 35.5106
29.1416 1290 35.9166
29.259 1348 36.7151
29.3764 1311 36.2077
29.4939 1336 36.5513
29.6113 1240 35.2136
29.7288 1274 35.6931
29.8463 1185 34.4238
29.9638 1208 34.7563
30.0812 1150 33.9116
30.1987 1179 34.3366
30.3162 1118 33.4365
30.4337 1145 33.8378
30.5512 1135 33.6898
30.6687 1212 34.8138
30.7862 1163 34.1028
30.9037 1221 34.9428
31.0212 1243 35.2562
31.1387 1236 35.1568
31.2562 1184 34.4093
31.3737 1157 34.0147
31.4912 1172 34.2345
31.6087 1087 32.9697
31.7262 1052 32.4345
31.8436 1010 31.7805
31.9611 1017 31.8904
32.0785 978 31.273
32.1959 997 31.5753
32.3134 1026 32.0312
32.4308 1083 32.909
32.5482 1136 33.7046
32.6655 1170 34.2053
32.7829 1190 34.4964
32.9002 1238 35.1852
33.0176 1162 34.0881
33.1349 1146 33.8526
33.2522 1180 34.3511
33.3694 1137 33.7194
33.4867 1127 33.5708
33.6039 1096 33.1059
33.7211 1124 33.5261
33.8383 1082 32.8938
33.9554 1036 32.187
34.0725 1048 32.3728
34.1896 1080 32.8634
34.3067 1070 32.7109
34.4237 1067 32.665
34.5407 1170 34.2053
34.6577 1065 32.6343
34.7746 1090 33.0151
34.8915 1088 32.9848
35.0084 1091 33.0303
35.1252 1069 32.6956
35.242 1030 32.0936
35.3587 1044 32.311
35.4755 987 31.4166
35.5921 904 30.0666
35.7088 887 29.7825
35.8254 930 30.4959
35.9419 966 31.0805
36.0584 949 30.8058
36.1749 988 31.4325
36.2913 972 31.1769
36.4077 1031 32.1092
36.524 1115 33.3916
36.6403 1033 32.1403
36.7565 960 30.9839
36.8727 848 29.1204
36.9889 892 29.8664
37.1049 768 27.7128
37.221 0 1
37.3369 0 1
37.4529 0 1
37.5687 0 1
37.6845 0 1
37.8003 0 1
37.916 0 1
38.0316 0 1
38.1472 0 1
40.5851 0 1
40.7008 0 1
40.8164 0 1
40.9322 0 1
41.048 0 1
41.1639 0 1
41.2798 0 1
41.3958 0 1
41.5118 0 1
41.6279 0 1
41.744 467 21.6102
41.8602 532 23.0651
41.9765 579 24.0624
42.0928 646 25.4165
42.2091 618 24.8596
42.3255 642 25.3377
42.4419 702 26.4953
42.5584 679 26.0576
42.675 749 27.3679
42.7915 773 27.8029
42.9081 789 28.0891
43.0248 815 28.5482
43.1415 860 29.3258
43.2582 918 30.2985
43.375 862 29.3598
43.4918 869 29.4788
43.6087 905 30.0832
43.7256 920 30.3315
43.8425 900 30
43.9595 840 28.9828
44.0765 792 28.1425
44.1935 806 28.3901
44.3106 800 28.2843
44.4277 745 27.2947
44.5448 712 26.6833
44.6619 650 25.4951
44.7791 740 27.2029
44.8963 781 27.9464
45.0136 807 28.4077
45.1308 889 29.8161
45.2481 839 28.9655
45.3654 921 30.348
45.4827 906 30.0998
45.6001 899 29.9833
45.7174 912 30.1993
45.8348 873 29.5466
45.9522 823 28.688
46.0697 785 28.0179
46.1871 744 27.2764
46.3046 791 28.1247
46.422 798 28.2489
46.5395 834 28.8791
46.657 869 29.4788
46.7745 835 28.8964
46.892 878 29.6311
47.0096 897 29.95
47.1271 878 29.6311
47.2446 843 29.0345
47.3622 926 30.4302
47.4797 871 29.5127
47.5973 905 30.0832
47.7149 828 28.775
47.8324 783 27.9821
47.95 777 27.8747
48.0675 754 27.4591
48.1851 700 26.4575
48.3027 716 26.7582
48.4202 716 26.7582
48.5378 785 28.0179
48.6554 819 28.6182
48.7729 878 29.6311
48.8904 911 30.1828
49.008 875 29.5804
49.1255 905 30.0832
49.243 849 29.1376
49.3605 794 28.178
49.478 798 28.2489
49.5955 714 26.7208
49.713 717 26.7769
49.8304 749 27.3679
49.9479 752 27.4226
50.0653 806 28.3901
50.1827 843 29.0345
50.3001 836 28.9137
50.4175 838 28.9482
50.5348 858 29.2916
50.6521 891 29.8496
50.7694 921 30.348
50.8867 889 29.8161
51.004 857 29.2746
51.1212 910 30.1662
51.2384 790 28.1069
51.3556 827 28.7576
51.4727 759 27.55
51.5899 705 26.5518
51.707 665 25.7876
51.824 660 25.6905
51.9411 746 27.313
52.0581 765 27.6586
52.175 868 29.4618
52.2919 874 29.5635
52.4088 921 30.348
52.5257 929 30.4795
52.6425 935 30.5778
52.7593 912 30.1993
52.876 896 29.9333
52.9927 921 30.348
53.1094 844 29.0517
53.226 813 28.5132
53.3426 768 27.7128
53.4591 738 27.1662
53.5756 717 26.7769
53.692 712 26.6833
53.8084 709 26.6271
53.9248 716 26.7582
54.0411 698 26.4197
54.1573 654 25.5734
54.2735 0 1
54.3896 0 1
54.5057 0 1
54.6217 0 1
54.7377 0 1
54.8537 0 1
54.9695 0 1
55.0853 0 1
55.2011 0 1
55.3168 0 1
55.4324 0 1
57.824 0 1
57.9396 0 1
58.0553 0 1
58.1711 0 1
58.2869 0 1
58.4028 0 1
58.5187 0 1
58.6347 0 1
58.7508 0 1
58.8669 0 1
58.983 562 23.7065
59.0992 646 25.4165
59.2155 728 26.9815
59.3318 795 28.1957
59.4482 875 29.5804
59.5646 957 30.9354
59.681 959 30.9677
59.7975 1060 32.5576
59.9141 1091 33.0303
60.0306 1000 31.6228
60.1473 1004 31.686
60.2639 1023 31.9844
60.3807 979 31.289
60.4974 919 30.315
60.6142 919 30.315
60.731 966 31.0805
60.8479 1066 32.6497
60.9648 1157 34.0147
61.0818 1217 34.8855
61.1987 1188 34.4674
61.3158 1179 34.3366
61.4328 1251 35.3695
61.5499 1221 34.9428
61.667 1138 33.7343
61.7841 1105 33.2415
61.9013 1044 32.311
62.0185 1045 32.3265
62.1357 1092 33.0454
62.253 1125 33.541
62.3702 1157 34.0147
62.4875 1230 35.0714
62.6049 1214 34.8425
62.7222 1250 35.3553
62.8396 1208 34.7563
62.9569 1221 34.9428
63.0743 1265 35.5668
63.1918 1291 35.9305
63.3092 1212 34.8138
63.4267 1207 34.7419
63.5441 1144 33.8231
63.6616 1113 33.3617
63.7791 1043 32.2955
63.8966 973 31.1929
64.0142 924 30.3974
64.1317 972 31.1769
64.2492 972 31.1769
64.3668 1012 31.8119
64.4843 1211 34.7994
64.6019 1288 35.8887
64.7195 1291 35.9305
64.837 1359 36.8646
64.9546 1269 35.623
65.0722 1243 35.2562
65.1898 1301 36.0694
65.3074 1123 33.5112
65.4249 1052 32.4345
65.5425 1103 33.2114
65.6601 1143 33.8083
65.7777 1189 34.4819
65.8952 1159 34.0441
66.0128 1250 35.3553
66.1304 1268 35.609
66.2479 1317 36.2905
66.3655 1275 35.7071
66.483 1344 36.6606
66.6005 1344 36.6606
66.718 1332 36.4966
66.8355 1326 36.4143
66.953 1350 36.7423
67.0705 1303 36.0971
67.1879 1216 34.8712
67.3054 1204 34.6987
67.4228 1076 32.8024
67.5402 1031 32.1092
67.6576 943 30.7083
67.7749 1023 31.9844
67.8923 1048 32.3728
68.0096 1163 34.1028
68.1269 1217 34.8855
68.2442 1327 36.428
68.3614 1350 36.7423
68.4787 1347 36.7015
68.5958 1349 36.7287
68.713 1345 36.6742
68.8302 1298 36.0278
68.9473 1247 35.3129
69.0643 1178 34.322
69.1814 1204 34.6987
69.2984 1142 33.7935
69.4154 1231 35.0856
69.5323 1273 35.6791
69.6492 1267 35.5949
69.7661 1378 37.1214
69.8829 1458 38.1838
69.9997 1331 36.4829
70.1165 1366 36.9594
70.2332 1352 36.7696
70.3499 1309 36.1801
70.4665 1242 35.242
70.5831 1227 35.0286
70.6996 1166 34.1467
70.8161 1065 32.6343
70.9326 1051 32.4191
71.049 911 30.1828
71.1653 745 27.2947
71.2817 606 24.6171
71.3979 439 20.9523
71.5141 499 22.3383
71.6303 460 21.4476
71.7464 368 19.1833
71.8624 0 1
71.9784 0 1
72.0944 0 1
72.2102 0 1
72.3261 0 1
72.4418 0 1
72.5575 0 1
72.6732 0 1
75.1054 0 1
75.2209 0 1
75.3365 0 1
75.4521 0 1
75.5678 0 1
75.6835 0 1
75.7993 0 1
75.9151 0 1
76.031 0 1
76.147 860 29.3258
76.263 918 30.2985
76.3791 924 30.3974
76.4952 884 29.7321
76.6113 895 29.9166
76.7276 845 29.0689
76.8438 909 30.1496
76.9601 1044 32.311
77.0765 1101 33.1813
77.1929 1204 34.6987
77.3093 1339 36.5923
77.4258 1342 36.6333
77.5423 1378 37.1214
77.6589 1342 36.6333
77.7755 1321 36.3456
77.8921 1213 34.8281
78.0088 1141 33.7787
78.1256 1100 33.1662
78.2423 1088 32.9848
78.3591 1016 31.8748
78.4759 1154 33.9706
78.5928 1194 34.5543
78.7097 1222 34.9571
78.8266 1279 35.7631
78.9436 1307 36.1525
79.0606 1318 36.3043
79.1776 1253 35.3977
79.2946 1331 36.4829
79.4117 1332 36.4966
79.5288 1246 35.2987
79.6459 1345 36.6742
79.7631 1275 35.7071
79.8802 1227 35.0286
79.9974 1167 34.1614
80.1147 1070 32.7109
80.2319 1008 31.749
80.3491 875 29.5804
80.4664 946 30.7571
80.5837 943 30.7083
80.701 1044 32.311
80.8183 1196 34.5832
80.9357 1266 35.5809
81.053 1205 34.7131
81.1704 1336 36.5513
81.2877 1306 36.1386
81.4051 1252 35.3836
81.5225 1287 35.8748
81.6399 1217 34.8855
81.7573 1063 32.6037
81.8747 1006 31.7175
81.9922 1048 32.3728
82.1096 974 31.209
82.227 1126 33.5559
82.3444 1100 33.1662
82.4619 1204 34.6987
82.5793 1202 34.6699
82.6967 1214 34.8425
82.8142 1204 34.6987
82.9316 1282 35.805
83.049 1186 34.4384
83.1664 1223 34.9714
83.2838 1170 34.2053
83.4012 1154 33.9706
83.5186 1136 33.7046
83.636 1126 33.5559
83.7534 990 31.4643
83.8708 905 30.0832
83.9881 791 28.1247
84.1055 840 28.9828
84.2228 826 28.7402
84.3401 938 30.6268
84.4575 948 30.7896
84.5747 1067 32.665
84.692 1133 33.6601
84.8093 1174 34.2637
84.9265 1126 33.5559
85.0437 1076 32.8024
85.1609 1072 32.7414
85.2781 973 31.1929
85.3952 855 29.2404
85.5123 880 29.6648
85.6294 898 29.9666
85.7465 890 29.8329
85.8636 943 30.7083
85.9806 1008 31.749
86.0976 1070 32.7109
86.2145 1143 33.8083
86.3315 1120 33.4664
86.4484 1060 32.5576
86.5652 1115 33.3916
86.682 1138 33.7343
86.7988 1092 33.0454
86.9156 1035 32.1714
87.0323 991 31.4802
87.149 985 31.3847
87.2657 933 30.545
87.3823 834 28.8791
87.4988 726 26.9444
87.6154 665 25.7876
87.7318 560 23.6643
87.8483 593 24.3516
87.9647 636 25.219
88.081 709 26.6271
88.1973 790 28.1069
88.3136 781 27.9464
88.4298 809 28.4429
88.546 708 26.6083
88.6621 615 24.7992
88.7781 525 22.9129
88.8942 0 1
89.0101 0 1
89.126 0 1
89.2419 0 1
89.3577 0 1
89.4734 0 1
89.5891 0 1
89.7047 0 1
89.8203 0 1
89.9358 0 1
92.3269 0 1
92.4424 0 1
92.558 0 1
92.6736 0 1
92.7893 0 1
92.905 0 1
93.0208 0 1
93.1366 0 1
93.2525 0 1
93.3685 0 1
93.4845 0 1
93.6005 576 24
93.7167 637 25.2389
93.8328 681 26.096
93.949 697 26.4008
94.0653 725 26.9258
94.1816 819 28.6182
94.2979 788 28.0713
94.4143 811 28.4781
94.5307 742 27.2397
94.6472 763 27.6225
94.7637 683 26.1343
94.8803 738 27.1662
94.9969 758 27.5318
95.1135 838 28.9482
95.2302 789 28.0891
95.3469 809 28.4429
95.4637 911 30.1828
95.5805 871 29.5127
95.6973 895 29.9166
95.8142 942 30.692
95.9311 911 30.1828
96.048 886 29.7658
96.1649 876 29.5973
96.2819 840 28.9828
96.3989 859 29.3087
96.516 821 28.6531
96.633 754 27.4591
96.7501 719 26.8142
96.8673 654 25.5734
96.9844 626 25.02
97.1016 637 25.2389
97.2188 701 26.4764
97.336 765 27.6586
97.4532 828 28.775
97.5704 902 30.0333
97.6877 867 29.4449
97.805 936 30.5941
97.9223 890 29.8329
98.0396 825 28.7228
98.1569 771 27.7669
98.2743 694 26.3439
98.3916 704 26.533
98.509 678 26.0384
98.6264 736 27.1293
98.7438 788 28.0713
98.8612 853 29.2062
98.9786 860 29.3258
99.096 872 29.5296
99.2134 854 29.2233
99.3308 910 30.1662
99.4482 919 30.315
99.5656 882 29.6985
99.6831 915 30.249
99.8005 883 29.7153
99.9179 835 28.8964
100.035 808 28.4253
100.153 869 29.4788
100.27 733 27.074
100.388 666 25.807
100.505 659 25.671
100.622 642 25.3377
100.74 685 26.1725
100.857 759 27.55
100.975 827 28.7576
101.092 836 28.9137
101.209 936 30.5941
101.327 847 29.1033
101.444 852 29.189
101.561 851 29.1719
101.679 784 28
101.796 730 27.0185
101.913 693 26.3249
102.03 695 26.3629
102.148 734 27.0924
102.265 769 27.7308
102.382 805 28.3725
102.499 837 28.931
102.616 945 30.7409
102.733 879 29.6479
102.851 929 30.4795
102.968 943 30.7083
103.085 877 29.6142
103.202 869 29.4788
103.319 882 29.6985
103.436 880 29.6648
103.552 795 28.1957
103.669 781 27.9464
103.786 753 27.4408
103.903 704 26.533
104.02 665 25.7876
104.137 639 25.2784
104.253 695 26.3629
104.37 785 28.0179
104.487 778 27.8927
104.603 862 29.3598
104.72 881 29.6816
104.836 886 29.7658
104.953 849 29.1376
105.069 811 28.4781
105.186 710 26.6458
105.302 655 25.593
105.418 559 23.6432
105.535 558 23.622
105.651 547 23.388
105.767 579 24.0624
105.883 562 23.7065
105.999 534 23.1084
106.115 0 1
106.231 0 1
106.347 0 1
106.463 0 1
106.579 0 1
106.694 0 1
106.81 0 1
106.926 0 1
107.041 0 1
107.157 0 1
109.576 0 1
109.692 0 1
109.807 0 1
109.923 0 1
110.039 0 1
110.155 0 1
110.27 0 1
110.386 0 1
110.502 0 1
110.618 267 16.3401
110.735 369 19.2094
110.851 457 21.3776
110.967 486 22.0454
111.083 544 23.3238
111.199 628 25.0599
111.316 688 26.2298
111.432 650 25.4951
111.549 719 26.8142
111.665 744 27.2764
111.782 757 27.5136
111.898 738 27.1662
112.015 746 27.313
112.132 721 26.8514
112.248 626 25.02
112.365 636 25.219
112.482 561 23.6854
112.599 580 24.0832
112.716 559 23.6432
112.832 638 25.2587
112.949 637 25.2389
113.066 740 27.2029
113.183 719 26.8142
113.3 743 27.258
113.417 726 26.9444
113.534 744 27.2764
113.652 716 26.7582
113.769 646 25.4165
113.886 618 24.8596
114.003 604 24.5764
114.12 533 23.0868
114.238 654 25.5734
114.355 623 24.96
114.472 658 25.6515
114.589 709 26.6271
114.707 754 27.4591
114.824 807 28.4077
114.942 764 27.6405
115.059 770 27.7489
115.176 739 27.1846
115.294 777 27.8747
115.411 772 27.7849
115.529 705 26.5518
115.646 748 27.3496
115.764 672 25.923
115.881 676 26
115.999 662 25.7294
116.116 507 22.5167
116.234 544 23.3238
116.351 619 24.8797
116.469 636 25.219
116.586 673 25.9422
116.704 748 27.3496
116.821 730 27.0185
116.939 755 27.4773
117.056 709 26.6271
117.174 720 26.8328
117.291 692 26.3059
117.409 623 24.96
117.526 552 23.4947
117.644 576 24
117.761 624 24.98
117.879 631 25.1197
117.996 761 27.5862
118.114 668 25.8457
118.231 712 26.6833
118.349 725 26.9258
118.466 773 27.8029
118.584 726 26.9444
118.701 747 27.3313
118.819 699 26.4386
118.936 681 26.096
119.053 694 26.3439
119.171 657 25.632
119.288 659 25.671
119.405 661 25.7099
119.523 561 23.6854
119.64 595 24.3926
119.757 557 23.6008
119.875 561 23.6854
119.992 590 24.2899
120.109 606 24.6171
120.226 621 24.9199
120.343 635 25.1992
120.46 663 25.7488
120.578 714 26.7208
120.695 682 26.1151
120.812 715 26.7395
120.929 672 25.923
121.046 605 24.5967
121.163 576 24
121.279 561 23.6854
121.396 548 23.4094
121.513 596 24.4131
121.63 618 24.8596
121.747 616 24.8193
121.863 603 24.5561
121.98 572 23.9165
122.097 621 24.9199
122.213 605 24.5967
122.33 588 24.2487
122.446 573 23.9374
122.563 475 21.7945
122.679 509 22.561
122.795 481 21.9317
122.912 423 20.567
123.028 372 19.2873
123.144 317 17.8045
123.26 292 17.088
123.377 0 1
123.493 0 1
123.609 0 1
123.725 0 1
123.84 0 1
123.956 0 1
124.072 0 1
124.188 0 1
124.303 0 1
124.419 0 1
126.852 0 1
126.968 0 1
127.083 0 1
127.199 0 1
127.315 0 1
127.431 0 1
127.547 0 1
127.663 0 1
127.779 0 1
127.895 0 1
128.011 0 1
128.127 0 1
128.243 0 1
128.359 690 26.2679
128.476 625 25
128.592 702 26.4953
128.708 618 24.8596
128.825 631 25.1197
128.941 613 24.7588
129.058 657 25.632
129.174 743 27.258
129.291 691 26.2869
129.408 776 27.8568
129.524 788 28.0713
129.641 795 28.1957
129.758 716 26.7582
129.875 764 27.6405
129.992 749 27.3679
130.108 689 26.2488
130.225 664 25.7682
130.342 607 24.6374
130.459 612 24.7386
130.576 658 25.6515
130.693 741 27.2213
130.81 695 26.3629
130.928 685 26.1725
131.045 754 27.4591
131.162 737 27.1477
131.279 803 28.3373
131.396 773 27.8029
131.513 768 27.7128
131.631 788 28.0713
131.748 741 27.2213
131.865 703 26.5141
131.983 707 26.5895
132.1 692 26.3059
132.217 664 25.7682
132.335 659 25.671
132.452 637 25.2389
132.57 685 26.1725
132.687 659 25.671
132.804 684 26.1534
132.922 779 27.9106
133.039 729 27
133.157 772 27.7849
133.274 807 28.4077
133.392 794 28.178
133.509 782 27.9643
133.627 706 26.5707
133.744 702 26.4953
133.862 649 25.4755
133.979 601 24.5153
134.097 662 25.7294
134.214 719 26.8142
134.332 719 26.8142
134.449 714 26.7208
134.567 732 27.0555
134.684 794 28.178
134.802 808 28.4253
134.919 769 27.7308
135.037 773 27.8029
135.154 773 27.8029
135.272 748 27.3496
135.389 765 27.6586
135.507 711 26.6646
135.624 722 26.8701
135.742 702 26.4953
135.859 650 25.4951
135.977 672 25.923
136.094 631 25.1197
136.211 645 25.3969
136.329 715 26.7395
136.446 730 27.0185
136.564 770 27.7489
136.681 753 27.4408
136.798 776 27.8568
136.915 770 27.7489
137.033 779 27.9106
137.15 718 26.7955
137.267 647 25.4362
137.384 626 25.02
137.502 630 25.0998
137.619 611 24.7184
137.736 658 25.6515
137.853 669 25.865
137.97 655 25.593
138.087 678 26.0384
138.204 689 26.2488
138.321 707 26.5895
138.438 783 27.9821
138.555 768 27.7128
138.672 722 26.8701
138.788 701 26.4764
138.905 705 26.5518
139.022 658 25.6515
139.139 597 24.4336
139.255 607 24.6374
139.372 550 23.4521
139.488 520 22.8035
139.605 466 21.587
139.721 461 21.4709
139.838 401 20.025
139.954 432 20.7846
140.071 438 20.9284
140.187 386 19.6469
140.303 398 19.9499
140.419 354 18.8149
140.535 329 18.1384
140.652 290 17.0294
140.768 0 1
140.884 0 1
141 0 1
141.115 0 1
141.231 0 1
141.347 0 1
141.463 0 1
141.578 0 1
141.694 0 1
144.104 0 1
144.219 0 1
144.335 0 1
144.45 0 1
144.566 0 1
144.682 0 1
144.798 0 1
144.914 0 1
145.03 0 1
145.146 521 22.8254
145.262 521 22.8254
145.378 545 23.3452
145.494 606 24.6171
145.61 558 23.622
145.726 598 24.454
145.842 583 24.1454
145.959 533 23.0868
146.075 531 23.0434
146.192 525 22.9129
146.308 520 22.8035
146.425 502 22.4054
146.541 514 22.6716
146.658 543 23.3024
146.774 548 23.4094
146.891 557 23.6008
147.008 615 24.7992
147.125 586 24.2074
147.241 587 24.2281
147.358 607 24.6374
147.475 569 23.8537
147.592 633 25.1595
147.709 565 23.7697
147.826 594 24.3721
147.943 570 23.8747
148.06 508 22.5389
148.177 554 23.5372
148.294 537 23.1733
148.411 557 23.6008
148.528 501 22.383
148.645 561 23.6854
148.762 500 22.3607
148.88 594 24.3721
148.997 629 25.0799
149.114 582 24.1247
149.231 588 24.2487
149.349 521 22.8254
149.466 576 24
149.583 547 23.388
149.701 551 23.4734
149.818 487 22.0681
149.935 509 22.561
150.053 476 21.8174
150.17 474 21.7715
150.287 481 21.9317
150.405 510 22.5832
150.522 523 22.8692
150.64 506 22.4944
150.757 551 23.4734
150.875 515 22.6936
150.992 593 24.3516
151.11 573 23.9374
151.227 585 24.1868
151.344 572 23.9165
151.462 510 22.5832
151.579 615 24.7992
151.697 510 22.5832
151.814 515 22.6936
151.932 458 21.4009
152.049 500 22.3607
152.167 490 22.1359
152.284 524 22.891
152.402 539 23.2164
152.519 494 22.2261
152.636 547 23.388
152.754 554 23.5372
152.871 582 24.1247
152.989 551 23.4734
153.106 595 24.3926
153.223 517 22.7376
153.341 499 22.3383
153.458 481 21.9317
153.575 473 21.7486
153.693 502 22.4054
153.81 504 22.4499
153.927 501 22.383
154.044 499 22.3383
154.162 525 22.9129
154.279 551 23.4734
154.396 546 23.3666
154.513 616 24.8193
154.63 580 24.0832
154.747 576 24
154.864 524 22.891
154.981 510 22.5832
155.098 510 22.5832
155.215 488 22.0907
155.332 501 22.383
155.449 510 22.5832
155.566 449 21.1896
155.683 437 20.9045
155.8 487 22.0681
155.917 497 22.2935
156.033 481 21.9317
156.15 0 1
156.267 0 1
156.383 0 1
156.5 0 1
156.617 0 1
156.733 0 1
156.85 0 1
156.966 0 1
157.082 0 1
157.199 0 1
157.315 0 1
157.431 0 1
157.547 0 1
157.664 0 1
157.78 0 1
157.896 0 1
158.012 0 1
158.128 0 1
158.244 0 1
158.359 0 1
158.475 0 1
158.591 0 1
158.706 0 1
