
6.15755 0 1
6.2731 0 1
6.3887 0 1
6.50437 0 1
6.62009 0 1
6.73587 0 1
6.8517 0 1
6.96759 0 1
7.08353 0 1
7.19952 0 1
7.31557 0 1
7.43166 0 1
7.54781 0 1
7.664 0 1
7.78024 0 1
7.89653 0 1
8.01286 0 1
8.12924 0 1
8.24567 0 1
8.36213 0 1
8.47864 0 1
8.59519 0 1
8.71178 0 1
8.82841 0 1
8.94508 0 1
9.06179 0 1
9.17853 0 1
9.29531 0 1
9.41212 0 1
9.52897 0 1
9.64584 0 1
9.76276 0 1
9.8797 0 1
9.99667 0 1
10.1137 0 1
10.2307 0 1
10.3478 0 1
10.4648 0 1
10.5819 0 1
10.6991 0 1
10.8162 0 1
10.9334 0 1
11.0506 0 1
11.1678 0 1
11.285 0 1
11.4023 0 1
11.5196 0 1
11.6369 0 1
11.7542 0 1
11.8715 0 1
11.9888 0 1
12.1062 0 1
12.2235 0 1
12.3409 0 1
12.4582 0 1
12.5756 0 1
12.693 0 1
12.8104 0 1
12.9278 0 1
13.0452 0 1
13.1626 0 1
13.28 0 1
13.3974 0 1
13.5149 0 1
13.6323 0 1
13.7497 0 1
13.8671 0 1
13.9845 0 1
14.1019 0 1
14.2193 0 1
14.3367 0 1
14.4541 0 1
14.5714 0 1
14.6888 0 1
14.8062 0 1
14.9235 0 1
15.0408 800 28.2843
15.1581 859 29.3087
15.2755 813 28.5132
15.3927 854 29.2233
15.51 903 30.05
15.6273 928 30.4631
15.7445 888 29.7993
15.8617 897 29.95
15.9789 887 29.7825
16.0961 823 28.688
16.2132 775 27.8388
16.3304 768 27.7128
16.4475 807 28.4077
16.5646 788 28.0713
16.6816 794 28.178
16.7986 802 28.3196
16.9156 804 28.3549
17.0326 764 27.6405
17.1496 787 28.0535
17.2665 716 26.7582
17.3833 781 27.9464
17.5002 779 27.9106
17.617 750 27.3861
17.7338 798 28.2489
17.8505 801 28.3019
17.9672 817 28.5832
18.0839 720 26.8328
18.2005 694 26.3439
18.3171 721 26.8514
18.4337 701 26.4764
18.5502 766 27.6767
18.6666 813 28.5132
18.7831 841 29
18.8994 801 28.3019
19.0158 722 26.8701
19.1321 712 26.6833
19.2483 707 26.5895
19.3645 719 26.8142
19.4806 647 25.4362
19.5967 600 24.4949
19.7128 547 23.388
19.8288 513 22.6495
19.9447 421 20.5183
20.0606 0 1
20.1764 0 1
20.2922 0 1
20.4079 0 1
20.5236 0 1
20.6392 0 1
20.7548 0 1
20.8702 0 1
23.3078 0 1
23.4233 0 1
23.539 0 1
23.6547 0 1
23.7704 0 1
23.8862 0 1
24.0021 0 1
24.118 0 1
24.234 0 1
24.35 0 1
24.4661 342 18.4932
24.5822 361 19
24.6984 459 21.4243
24.8146 478 21.8632
24.9309 583 24.1454
25.0472 619 24.8797
25.1636 719 26.8142
25.28 713 26.7021
25.3965 813 28.5132
25.513 824 28.7054
25.6296 838 28.9482
25.7462 821 28.6531
25.8628 840 28.9828
25.9795 827 28.7576
26.0962 825 28.7228
26.213 757 27.5136
26.3298 816 28.5657
26.4466 826 28.7402
26.5635 705 26.5518
26.6804 673 25.9422
26.7973 687 26.2107
26.9143 625 25
27.0313 666 25.807
27.1483 704 26.533
27.2653 693 26.3249
27.3824 708 26.6083
27.4996 729 27
27.6167 702 26.4953
27.7339 757 27.5136
27.8511 688 26.2298
27.9683 723 26.8887
28.0855 713 26.7021
28.2028 721 26.8514
28.3201 661 25.7099
28.4374 664 25.7682
28.5547 686 26.1916
28.6721 760 27.5681
28.7894 720 26.8328
28.9068 759 27.55
29.0242 742 27.2397
29.1416 731 27.037
29.259 712 26.6833
29.3764 719 26.8142
29.4939 733 27.074
29.6113 708 26.6083
29.7288 696 26.3818
29.8463 662 25.7294
29.9638 663 25.7488
30.0812 707 26.5895
30.1987 649 25.4755
30.3162 663 25.7488
30.4337 591 24.3105
30.5512 669 25.865
30.6687 698 26.4197
30.7862 697 26.4008
30.9037 753 27.4408
31.0212 745 27.2947
31.1387 699 26.4386
31.2562 692 26.3059
31.3737 766 27.6767
31.4912 708 26.6083
31.6087 720 26.8328
31.7262 622 24.9399
31.8436 676 26
31.9611 681 26.096
32.0785 703 26.5141
32.1959 700 26.4575
32.3134 737 27.1477
32.4308 722 26.8701
32.5482 648 25.4558
32.6655 654 25.5734
32.7829 633 25.1595
32.9002 664 25.7682
33.0176 637 25.2389
33.1349 622 24.9399
33.2522 646 25.4165
33.3694 642 25.3377
33.4867 623 24.96
33.6039 593 24.3516
33.7211 626 25.02
33.8383 636 25.219
33.9554 581 24.1039
34.0725 623 24.96
34.1896 540 23.2379
34.3067 643 25.3574
34.4237 681 26.096
34.5407 701 26.4764
34.6577 695 26.3629
34.7746 669 25.865
34.8915 701 26.4764
35.0084 642 25.3377
35.1252 637 25.2389
35.242 615 24.7992
35.3587 579 24.0624
35.4755 553 23.516
35.5921 615 24.7992
35.7088 637 25.2389
35.8254 658 25.6515
35.9419 670 25.8844
36.0584 666 25.807
36.1749 592 24.3311
36.2913 582 24.1247
36.4077 582 24.1247
36.524 563 23.7276
36.6403 545 23.3452
36.7565 534 23.1084
36.8727 474 21.7715
36.9889 448 21.166
37.1049 441 21
37.221 0 1
37.3369 0 1
37.4529 0 1
37.5687 0 1
37.6845 0 1
37.8003 0 1
37.916 0 1
38.0316 0 1
38.1472 0 1
40.5851 0 1
40.7008 0 1
40.8164 0 1
40.9322 0 1
41.048 0 1
41.1639 0 1
41.2798 0 1
41.3958 0 1
41.5118 0 1
41.6279 0 1
41.744 304 17.4356
41.8602 324 18
41.9765 350 18.7083
42.0928 393 19.8242
42.2091 400 20
42.3255 456 21.3542
42.4419 446 21.1187
42.5584 442 21.0238
42.675 427 20.664
42.7915 460 21.4476
42.9081 415 20.3715
43.0248 463 21.5174
43.1415 478 21.8632
43.2582 494 22.2261
43.375 471 21.7025
43.4918 482 21.9545
43.6087 512 22.6274
43.7256 490 22.1359
43.8425 485 22.0227
43.9595 437 20.9045
44.0765 462 21.4942
44.1935 451 21.2368
44.3106 479 21.8861
44.4277 506 22.4944
44.5448 540 23.2379
44.6619 479 21.8861
44.7791 510 22.5832
44.8963 508 22.5389
45.0136 522 22.8473
45.1308 529 23
45.2481 548 23.4094
45.3654 496 22.2711
45.4827 528 22.9783
45.6001 504 22.4499
45.7174 515 22.6936
45.8348 486 22.0454
45.9522 480 21.9089
46.0697 452 21.2603
46.1871 445 21.095
46.3046 421 20.5183
46.422 430 20.7364
46.5395 463 21.5174
46.657 487 22.0681
46.7745 487 22.0681
46.892 493 22.2036
47.0096 505 22.4722
47.1271 511 22.6053
47.2446 490 22.1359
47.3622 446 21.1187
47.4797 425 20.6155
47.5973 430 20.7364
47.7149 480 21.9089
47.8324 455 21.3307
47.95 495 22.2486
48.0675 476 21.8174
48.1851 461 21.4709
48.3027 493 22.2036
48.4202 486 22.0454
48.5378 532 23.0651
48.6554 468 21.6333
48.7729 482 21.9545
48.8904 476 21.8174
49.008 518 22.7596
49.1255 499 22.3383
49.243 488 22.0907
49.3605 489 22.1133
49.478 454 21.3073
49.5955 389 19.7231
49.713 442 21.0238
49.8304 409 20.2237
49.9479 401 20.025
50.0653 409 20.2237
50.1827 431 20.7605
50.3001 435 20.8567
50.4175 476 21.8174
50.5348 482 21.9545
50.6521 433 20.8087
50.7694 462 21.4942
50.8867 411 20.2731
51.004 451 21.2368
51.1212 485 22.0227
51.2384 424 20.5913
51.3556 472 21.7256
51.4727 443 21.0476
51.5899 453 21.2838
51.707 451 21.2368
51.824 454 21.3073
51.9411 455 21.3307
52.0581 451 21.2368
52.175 434 20.8327
52.2919 462 21.4942
52.4088 432 20.7846
52.5257 475 21.7945
52.6425 485 22.0227
52.7593 463 21.5174
52.876 457 21.3776
52.9927 437 20.9045
53.1094 408 20.199
53.226 401 20.025
53.3426 398 19.9499
53.4591 385 19.6214
53.5756 412 20.2978
53.692 367 19.1572
53.8084 392 19.799
53.9248 381 19.5192
54.0411 331 18.1934
54.1573 314 17.72
54.2735 0 1
54.3896 0 1
54.5057 0 1
54.6217 0 1
54.7377 0 1
54.8537 0 1
54.9695 0 1
55.0853 0 1
55.2011 0 1
55.3168 0 1
55.4324 0 1
57.824 0 1
57.9396 0 1
58.0553 0 1
58.1711 0 1
58.2869 0 1
58.4028 0 1
58.5187 0 1
58.6347 0 1
58.7508 0 1
58.8669 0 1
58.983 1633 40.4104
59.0992 2342 48.3942
59.2155 2943 54.2494
59.3318 3333 57.7321
59.4482 3669 60.5723
59.5646 3731 61.0819
59.681 3666 60.5475
59.7975 3735 61.1146
59.9141 3710 60.9098
60.0306 3580 59.8331
60.1473 3510 59.2453
60.2639 3439 58.643
60.3807 3496 59.127
60.4974 3342 57.81
60.6142 3237 56.8946
60.731 3176 56.356
60.8479 3003 54.7996
60.9648 2733 52.2781
61.0818 2563 50.6261
61.1987 2084 45.6508
61.3158 1733 41.6293
61.4328 1380 37.1484
61.5499 1293 35.9583
61.667 1113 33.3617
61.7841 977 31.257
61.9013 850 29.1548
62.0185 797 28.2312
62.1357 749 27.3679
62.253 656 25.6125
62.3702 720 26.8328
62.4875 763 27.6225
62.6049 687 26.2107
62.7222 776 27.8568
62.8396 741 27.2213
62.9569 736 27.1293
63.0743 666 25.807
63.1918 613 24.7588
63.3092 591 24.3105
63.4267 587 24.2281
63.5441 561 23.6854
63.6616 587 24.2281
63.7791 605 24.5967
63.8966 610 24.6982
64.0142 603 24.5561
64.1317 594 24.3721
64.2492 562 23.7065
64.3668 549 23.4307
64.4843 573 23.9374
64.6019 534 23.1084
64.7195 586 24.2074
64.837 534 23.1084
64.9546 562 23.7065
65.0722 581 24.1039
65.1898 539 23.2164
65.3074 546 23.3666
65.4249 519 22.7816
65.5425 502 22.4054
65.6601 533 23.0868
65.7777 461 21.4709
65.8952 512 22.6274
66.0128 452 21.2603
66.1304 526 22.9347
66.2479 493 22.2036
66.3655 499 22.3383
66.483 545 23.3452
66.6005 538 23.1948
66.718 538 23.1948
66.8355 478 21.8632
66.953 503 22.4277
67.0705 521 22.8254
67.1879 508 22.5389
67.3054 570 23.8747
67.4228 625 25
67.5402 579 24.0624
67.6576 584 24.1661
67.7749 534 23.1084
67.8923 532 23.0651
68.0096 538 23.1948
68.1269 581 24.1039
68.2442 559 23.6432
68.3614 610 24.6982
68.4787 630 25.0998
68.5958 623 24.96
68.713 628 25.0599
68.8302 618 24.8596
68.9473 592 24.3311
69.0643 614 24.779
69.1814 618 24.8596
69.2984 567 23.8118
69.4154 596 24.4131
69.5323 558 23.622
69.6492 516 22.7156
69.7661 526 22.9347
69.8829 517 22.7376
69.9997 500 22.3607
70.1165 532 23.0651
70.2332 512 22.6274
70.3499 485 22.0227
70.4665 477 21.8403
70.5831 406 20.1494
70.6996 363 19.0526
70.8161 341 18.4662
70.9326 350 18.7083
71.049 314 17.72
71.1653 351 18.735
71.2817 306 17.4929
71.3979 255 15.9687
71.5141 280 16.7332
71.6303 216 14.6969
71.7464 200 14.1421
71.8624 0 1
71.9784 0 1
72.0944 0 1
72.2102 0 1
72.3261 0 1
72.4418 0 1
72.5575 0 1
72.6732 0 1
75.1054 0 1
75.2209 0 1
75.3365 0 1
75.4521 0 1
75.5678 0 1
75.6835 0 1
75.7993 0 1
75.9151 0 1
76.031 0 1
76.147 332 18.2209
76.263 348 18.6548
76.3791 419 20.4695
76.4952 445 21.095
76.6113 471 21.7025
76.7276 521 22.8254
76.8438 438 20.9284
76.9601 463 21.5174
77.0765 431 20.7605
77.1929 454 21.3073
77.3093 467 21.6102
77.4258 451 21.2368
77.5423 445 21.095
77.6589 485 22.0227
77.7755 429 20.7123
77.8921 468 21.6333
78.0088 454 21.3073
78.1256 442 21.0238
78.2423 405 20.1246
78.3591 422 20.5426
78.4759 408 20.199
78.5928 410 20.2485
78.7097 428 20.6882
78.8266 415 20.3715
78.9436 441 21
79.0606 485 22.0227
79.1776 488 22.0907
79.2946 491 22.1585
79.4117 475 21.7945
79.5288 482 21.9545
79.6459 448 21.166
79.7631 475 21.7945
79.8802 460 21.4476
79.9974 430 20.7364
80.1147 526 22.9347
80.2319 513 22.6495
80.3491 519 22.7816
80.4664 507 22.5167
80.5837 480 21.9089
80.701 464 21.5407
80.8183 472 21.7256
80.9357 507 22.5167
81.053 466 21.587
81.1704 457 21.3776
81.2877 491 22.1585
81.4051 474 21.7715
81.5225 494 22.2261
81.6399 454 21.3073
81.7573 468 21.6333
81.8747 455 21.3307
81.9922 455 21.3307
82.1096 409 20.2237
82.227 426 20.6398
82.3444 408 20.199
82.4619 428 20.6882
82.5793 419 20.4695
82.6967 442 21.0238
82.8142 489 22.1133
82.9316 491 22.1585
83.049 456 21.3542
83.1664 462 21.4942
83.2838 478 21.8632
83.4012 429 20.7123
83.5186 457 21.3776
83.636 459 21.4243
83.7534 459 21.4243
83.8708 525 22.9129
83.9881 500 22.3607
84.1055 470 21.6795
84.2228 477 21.8403
84.3401 487 22.0681
84.4575 491 22.1585
84.5747 447 21.1424
84.692 502 22.4054
84.8093 504 22.4499
84.9265 479 21.8861
85.0437 457 21.3776
85.1609 486 22.0454
85.2781 503 22.4277
85.3952 479 21.8861
85.5123 480 21.9089
85.6294 468 21.6333
85.7465 449 21.1896
85.8636 433 20.8087
85.9806 428 20.6882
86.0976 464 21.5407
86.2145 453 21.2838
86.3315 530 23.0217
86.4484 467 21.6102
86.5652 502 22.4054
86.682 505 22.4722
86.7988 498 22.3159
86.9156 495 22.2486
87.0323 421 20.5183
87.149 439 20.9523
87.2657 501 22.383
87.3823 475 21.7945
87.4988 472 21.7256
87.6154 480 21.9089
87.7318 434 20.8327
87.8483 420 20.4939
87.9647 406 20.1494
88.081 385 19.6214
88.1973 338 18.3848
88.3136 325 18.0278
88.4298 285 16.8819
88.546 231 15.1987
88.6621 249 15.7797
88.7781 227 15.0665
88.8942 0 1
89.0101 0 1
89.126 0 1
89.2419 0 1
89.3577 0 1
89.4734 0 1
89.5891 0 1
89.7047 0 1
89.8203 0 1
89.9358 0 1
92.3269 0 1
92.4424 0 1
92.558 0 1
92.6736 0 1
92.7893 0 1
92.905 0 1
93.0208 0 1
93.1366 0 1
93.2525 0 1
93.3685 0 1
93.4845 0 1
93.6005 406 20.1494
93.7167 424 20.5913
93.8328 421 20.5183
93.949 457 21.3776
94.0653 456 21.3542
94.1816 476 21.8174
94.2979 449 21.1896
94.4143 501 22.383
94.5307 503 22.4277
94.6472 460 21.4476
94.7637 505 22.4722
94.8803 431 20.7605
94.9969 451 21.2368
95.1135 455 21.3307
95.2302 441 21
95.3469 439 20.9523
95.4637 488 22.0907
95.5805 501 22.383
95.6973 507 22.5167
95.8142 488 22.0907
95.9311 499 22.3383
96.048 500 22.3607
96.1649 483 21.9773
96.2819 471 21.7025
96.3989 484 22
96.516 471 21.7025
96.633 493 22.2036
96.7501 519 22.7816
96.8673 538 23.1948
96.9844 521 22.8254
97.1016 502 22.4054
97.2188 441 21
97.336 461 21.4709
97.4532 539 23.2164
97.5704 510 22.5832
97.6877 525 22.9129
97.805 485 22.0227
97.9223 496 22.2711
98.0396 508 22.5389
98.1569 476 21.8174
98.2743 505 22.4722
98.3916 469 21.6564
98.509 474 21.7715
98.6264 467 21.6102
98.7438 478 21.8632
98.8612 485 22.0227
98.9786 471 21.7025
99.096 542 23.2809
99.2134 527 22.9565
99.3308 529 23
99.4482 524 22.891
99.5656 545 23.3452
99.6831 540 23.2379
99.8005 509 22.561
99.9179 509 22.561
100.035 484 22
100.153 541 23.2594
100.27 533 23.0868
100.388 601 24.5153
100.505 521 22.8254
100.622 558 23.622
100.74 522 22.8473
100.857 503 22.4277
100.975 477 21.8403
101.092 553 23.516
101.209 515 22.6936
101.327 513 22.6495
101.444 553 23.516
101.561 572 23.9165
101.679 533 23.0868
101.796 506 22.4944
101.913 475 21.7945
102.03 512 22.6274
102.148 470 21.6795
102.265 504 22.4499
102.382 516 22.7156
102.499 541 23.2594
102.616 534 23.1084
102.733 577 24.0208
102.851 554 23.5372
102.968 590 24.2899
103.085 542 23.2809
103.202 559 23.6432
103.319 500 22.3607
103.436 556 23.5797
103.552 553 23.516
103.669 559 23.6432
103.786 560 23.6643
103.903 539 23.2164
104.02 572 23.9165
104.137 547 23.388
104.253 593 24.3516
104.37 538 23.1948
104.487 575 23.9792
104.603 566 23.7908
104.72 503 22.4277
104.836 562 23.7065
104.953 505 22.4722
105.069 502 22.4054
105.186 476 21.8174
105.302 438 20.9284
105.418 440 20.9762
105.535 383 19.5704
105.651 320 17.8885
105.767 346 18.6011
105.883 308 17.5499
105.999 280 16.7332
106.115 0 1
106.231 0 1
106.347 0 1
106.463 0 1
106.579 0 1
106.694 0 1
106.81 0 1
106.926 0 1
107.041 0 1
107.157 0 1
109.576 0 1
109.692 0 1
109.807 0 1
109.923 0 1
110.039 0 1
110.155 0 1
110.27 0 1
110.386 0 1
110.502 0 1
110.618 282 16.7929
110.735 267 16.3401
110.851 341 18.4662
110.967 388 19.6977
111.083 442 21.0238
111.199 436 20.8806
111.316 453 21.2838
111.432 518 22.7596
111.549 496 22.2711
111.665 562 23.7065
111.782 560 23.6643
111.898 520 22.8035
112.015 514 22.6716
112.132 519 22.7816
112.248 494 22.2261
112.365 527 22.9565
112.482 548 23.4094
112.599 524 22.891
112.716 522 22.8473
112.832 530 23.0217
112.949 467 21.6102
113.066 469 21.6564
113.183 522 22.8473
113.3 429 20.7123
113.417 490 22.1359
113.534 443 21.0476
113.652 476 21.8174
113.769 466 21.587
113.886 528 22.9783
114.003 484 22
114.12 465 21.5639
114.238 447 21.1424
114.355 423 20.567
114.472 432 20.7846
114.589 429 20.7123
114.707 482 21.9545
114.824 456 21.3542
114.942 493 22.2036
115.059 475 21.7945
115.176 470 21.6795
115.294 511 22.6053
115.411 475 21.7945
115.529 450 21.2132
115.646 468 21.6333
115.764 468 21.6333
115.881 454 21.3073
115.999 478 21.8632
116.116 500 22.3607
116.234 433 20.8087
116.351 420 20.4939
116.469 434 20.8327
116.586 462 21.4942
116.704 448 21.166
116.821 487 22.0681
116.939 450 21.2132
117.056 443 21.0476
117.174 472 21.7256
117.291 440 20.9762
117.409 427 20.664
117.526 430 20.7364
117.644 405 20.1246
117.761 399 19.975
117.879 429 20.7123
117.996 392 19.799
118.114 434 20.8327
118.231 417 20.4206
118.349 445 21.095
118.466 427 20.664
118.584 488 22.0907
118.701 468 21.6333
118.819 424 20.5913
118.936 444 21.0713
119.053 464 21.5407
119.171 409 20.2237
119.288 454 21.3073
119.405 437 20.9045
119.523 428 20.6882
119.64 423 20.567
119.757 434 20.8327
119.875 455 21.3307
119.992 407 20.1742
120.109 453 21.2838
120.226 449 21.1896
120.343 433 20.8087
120.46 444 21.0713
120.578 422 20.5426
120.695 415 20.3715
120.812 426 20.6398
120.929 410 20.2485
121.046 387 19.6723
121.163 413 20.3224
121.279 396 19.8997
121.396 375 19.3649
121.513 410 20.2485
121.63 365 19.105
121.747 331 18.1934
121.863 319 17.8606
121.98 365 19.105
122.097 371 19.2614
122.213 322 17.9444
122.33 305 17.4642
122.446 319 17.8606
122.563 330 18.1659
122.679 331 18.1934
122.795 288 16.9706
122.912 268 16.3707
123.028 237 15.3948
123.144 220 14.8324
123.26 234 15.2971
123.377 0 1
123.493 0 1
123.609 0 1
123.725 0 1
123.84 0 1
123.956 0 1
124.072 0 1
124.188 0 1
124.303 0 1
124.419 0 1
126.852 0 1
126.968 0 1
127.083 0 1
127.199 0 1
127.315 0 1
127.431 0 1
127.547 0 1
127.663 0 1
127.779 0 1
127.895 0 1
128.011 0 1
128.127 0 1
128.243 0 1
128.359 493 22.2036
128.476 425 20.6155
128.592 454 21.3073
128.708 510 22.5832
128.825 478 21.8632
128.941 471 21.7025
129.058 500 22.3607
129.174 503 22.4277
129.291 505 22.4722
129.408 505 22.4722
129.524 514 22.6716
129.641 504 22.4499
129.758 500 22.3607
129.875 474 21.7715
129.992 491 22.1585
130.108 484 22
130.225 480 21.9089
130.342 502 22.4054
130.459 475 21.7945
130.576 535 23.1301
130.693 479 21.8861
130.81 480 21.9089
130.928 496 22.2711
131.045 499 22.3383
131.162 566 23.7908
131.279 601 24.5153
131.396 618 24.8596
131.513 687 26.2107
131.631 694 26.3439
131.748 679 26.0576
131.865 710 26.6458
131.983 699 26.4386
132.1 704 26.533
132.217 719 26.8142
132.335 735 27.1109
132.452 767 27.6948
132.57 822 28.6705
132.687 816 28.5657
132.804 801 28.3019
132.922 844 29.0517
133.039 792 28.1425
133.157 798 28.2489
133.274 855 29.2404
133.392 786 28.0357
133.509 783 27.9821
133.627 737 27.1477
133.744 788 28.0713
133.862 806 28.3901
133.979 740 27.2029
134.097 718 26.7955
134.214 772 27.7849
134.332 671 25.9037
134.449 663 25.7488
134.567 729 27
134.684 716 26.7582
134.802 803 28.3373
134.919 809 28.4429
135.037 875 29.5804
135.154 732 27.0555
135.272 829 28.7924
135.389 846 29.0861
135.507 774 27.8209
135.624 779 27.9106
135.742 827 28.7576
135.859 840 28.9828
135.977 817 28.5832
136.094 847 29.1033
136.211 856 29.2575
136.329 838 28.9482
136.446 829 28.7924
136.564 830 28.8097
136.681 804 28.3549
136.798 828 28.775
136.915 825 28.7228
137.033 810 28.4605
137.15 802 28.3196
137.267 783 27.9821
137.384 821 28.6531
137.502 839 28.9655
137.619 804 28.3549
137.736 867 29.4449
137.853 717 26.7769
137.97 689 26.2488
138.087 689 26.2488
138.204 672 25.923
138.321 770 27.7489
138.438 762 27.6043
138.555 768 27.7128
138.672 837 28.931
138.788 799 28.2666
138.905 783 27.9821
139.022 816 28.5657
139.139 766 27.6767
139.255 718 26.7955
139.372 689 26.2488
139.488 618 24.8596
139.605 641 25.318
139.721 606 24.6171
139.838 532 23.0651
139.954 549 23.4307
140.071 542 23.2809
140.187 512 22.6274
140.303 468 21.6333
140.419 425 20.6155
140.535 459 21.4243
140.652 430 20.7364
140.768 0 1
140.884 0 1
141 0 1
141.115 0 1
141.231 0 1
141.347 0 1
141.463 0 1
141.578 0 1
141.694 0 1
144.104 0 1
144.219 0 1
144.335 0 1
144.45 0 1
144.566 0 1
144.682 0 1
144.798 0 1
144.914 0 1
145.03 0 1
145.146 1320 36.3318
145.262 1568 39.598
145.378 1549 39.3573
145.494 1493 38.6394
145.61 1571 39.6358
145.726 1634 40.4228
145.842 1646 40.5709
145.959 1676 40.939
146.075 1695 41.1704
146.192 1845 42.9535
146.308 1900 43.589
146.425 1878 43.3359
146.541 1971 44.3959
146.658 1977 44.4635
146.774 1924 43.8634
146.891 1884 43.4051
147.008 1858 43.1045
147.125 1955 44.2154
147.241 2153 46.4004
147.358 2255 47.4868
147.475 2187 46.7654
147.592 2348 48.4562
147.709 2410 49.0918
147.826 2457 49.5681
147.943 2597 50.9608
148.06 2585 50.8429
148.177 2580 50.7937
148.294 2773 52.6593
148.411 2803 52.9434
148.528 2851 53.3948
148.645 2894 53.7959
148.762 2954 54.3507
148.88 2914 53.9815
148.997 3163 56.2406
149.114 2942 54.2402
149.231 3011 54.8726
149.349 3165 56.2583
149.466 2979 54.5802
149.583 2978 54.5711
149.701 2793 52.8488
149.818 2527 50.2693
149.935 2512 50.1199
150.053 2636 51.342
150.17 2953 54.3415
150.287 3129 55.9375
150.405 3291 57.3672
150.522 3128 55.9285
150.64 2942 54.2402
150.757 2862 53.4977
150.875 2955 54.3599
150.992 3257 57.0701
151.11 3056 55.2811
151.227 2931 54.1387
151.344 3179 56.3826
151.462 3305 57.4891
151.579 3362 57.9828
151.697 3339 57.7841
151.814 3581 59.8415
151.932 3493 59.1016
152.049 3587 59.8916
152.167 3648 60.3987
152.284 3744 61.1882
152.402 3800 61.6441
152.519 3663 60.5227
152.636 3773 61.4248
152.754 3899 62.442
152.871 3910 62.53
152.989 3893 62.3939
153.106 3968 62.9921
153.223 3643 60.3573
153.341 3409 58.3866
153.458 3118 55.8391
153.575 3012 54.8817
153.693 3794 61.5955
153.81 5013 70.8025
153.927 6205 78.7718
154.044 6464 80.399
154.162 6698 81.8413
154.279 6845 82.7345
154.396 6999 83.66
154.513 7090 84.2021
154.63 7612 87.2468
154.747 7898 88.8707
154.864 7912 88.9494
154.981 8175 90.4157
155.098 8353 91.3947
155.215 8530 92.358
155.332 8638 92.9408
155.449 8982 94.7734
155.566 8863 94.1435
155.683 8990 94.8156
155.8 8672 93.1236
155.917 8283 91.011
156.033 8047 89.7051
156.15 0 1
156.267 0 1
156.383 0 1
156.5 0 1
156.617 0 1
156.733 0 1
156.85 0 1
156.966 0 1
157.082 0 1
157.199 0 1
157.315 0 1
157.431 0 1
157.547 0 1
157.664 0 1
157.78 0 1
157.896 0 1
158.012 0 1
158.128 0 1
158.244 0 1
158.359 0 1
158.475 0 1
158.591 0 1
158.706 0 1
