
6.15755 0 1
6.2731 0 1
6.3887 0 1
6.50437 0 1
6.62009 0 1
6.73587 0 1
6.8517 0 1
6.96759 0 1
7.08353 0 1
7.19952 0 1
7.31557 0 1
7.43166 0 1
7.54781 0 1
7.664 0 1
7.78024 0 1
7.89653 0 1
8.01286 0 1
8.12924 0 1
8.24567 0 1
8.36213 0 1
8.47864 0 1
8.59519 0 1
8.71178 0 1
8.82841 0 1
8.94508 0 1
9.06179 0 1
9.17853 0 1
9.29531 0 1
9.41212 0 1
9.52897 0 1
9.64584 0 1
9.76276 0 1
9.8797 0 1
9.99667 0 1
10.1137 0 1
10.2307 0 1
10.3478 0 1
10.4648 0 1
10.5819 0 1
10.6991 0 1
10.8162 0 1
10.9334 0 1
11.0506 0 1
11.1678 0 1
11.285 0 1
11.4023 0 1
11.5196 0 1
11.6369 0 1
11.7542 0 1
11.8715 0 1
11.9888 0 1
12.1062 0 1
12.2235 0 1
12.3409 0 1
12.4582 0 1
12.5756 0 1
12.693 0 1
12.8104 0 1
12.9278 0 1
13.0452 0 1
13.1626 0 1
13.28 0 1
13.3974 0 1
13.5149 0 1
13.6323 0 1
13.7497 0 1
13.8671 0 1
13.9845 0 1
14.1019 0 1
14.2193 0 1
14.3367 0 1
14.4541 0 1
14.5714 0 1
14.6888 0 1
14.8062 0 1
14.9235 0 1
15.0408 0 0
15.1581 0 0
15.2755 0 0
15.3927 0 0
15.51 0 0
15.6273 0 0
15.7445 0 0
15.8617 0 0
15.9789 0 0
16.0961 0 0
16.2132 0 0
16.3304 0 0
16.4475 0 0
16.5646 0 0
16.6816 0 0
16.7986 0 0
16.9156 0 0
17.0326 0 0
17.1496 0 0
17.2665 0 0
17.3833 0 0
17.5002 0 0
17.617 0 0
17.7338 0 0
17.8505 0 0
17.9672 0 0
18.0839 0 0
18.2005 0 0
18.3171 0 0
18.4337 0 0
18.5502 0 0
18.6666 0 0
18.7831 0 0
18.8994 0 0
19.0158 0 0
19.1321 0 0
19.2483 0 0
19.3645 0 0
19.4806 0 0
19.5967 0 0
19.7128 0 0
19.8288 0 0
19.9447 0 0
20.0606 0 1
20.1764 0 1
20.2922 0 1
20.4079 0 1
20.5236 0 1
20.6392 0 1
20.7548 0 1
20.8702 0 1
23.3078 0 1
23.4233 0 1
23.539 0 1
23.6547 0 1
23.7704 0 1
23.8862 0 1
24.0021 0 1
24.118 0 1
24.234 0 1
24.35 0 1
24.4661 1870 43.2435
24.5822 1848 42.9884
24.6984 1770 42.0714
24.8146 1780 42.19
24.9309 1805 42.4853
25.0472 1904 43.6348
25.1636 1875 43.3013
25.28 1883 43.3935
25.3965 1915 43.7607
25.513 1929 43.9204
25.6296 1796 42.3792
25.7462 1908 43.6807
25.8628 1938 44.0227
25.9795 2017 44.911
26.0962 1893 43.5086
26.213 1951 44.1701
26.3298 1920 43.8178
26.4466 1784 42.2374
26.5635 1721 41.4849
26.6804 1632 40.398
26.7973 1565 39.5601
26.9143 1580 39.7492
27.0313 1674 40.9145
27.1483 1792 42.332
27.2653 1950 44.1588
27.3824 1848 42.9884
27.4996 1862 43.1509
27.6167 1951 44.1701
27.7339 1957 44.238
27.8511 1860 43.1277
27.9683 1856 43.0813
28.0855 1821 42.6732
28.2028 1898 43.566
28.3201 1709 41.3401
28.4374 1899 43.5775
28.5547 1814 42.5911
28.6721 1826 42.7317
28.7894 1890 43.4741
28.9068 1837 42.8602
29.0242 1850 43.0116
29.1416 1881 43.3705
29.259 1850 43.0116
29.3764 1912 43.7264
29.4939 1857 43.0929
29.6113 1896 43.5431
29.7288 1780 42.19
29.8463 1764 42
29.9638 1791 42.3202
30.0812 1715 41.4126
30.1987 1507 38.8201
30.3162 1487 38.5616
30.4337 1575 39.6863
30.5512 1530 39.1152
30.6687 1676 40.939
30.7862 1782 42.2137
30.9037 1876 43.3128
31.0212 1867 43.2088
31.1387 1915 43.7607
31.2562 1791 42.3202
31.3737 1854 43.0581
31.4912 1845 42.9535
31.6087 1860 43.1277
31.7262 1836 42.8486
31.8436 1916 43.7721
31.9611 1859 43.1161
32.0785 1909 43.6921
32.1959 1804 42.4735
32.3134 1943 44.0795
32.4308 1832 42.8019
32.5482 1900 43.589
32.6655 1935 43.9886
32.7829 1952 44.1814
32.9002 1836 42.8486
33.0176 1847 42.9767
33.1349 1888 43.4511
33.2522 1914 43.7493
33.3694 1874 43.2897
33.4867 1807 42.5088
33.6039 1822 42.6849
33.7211 1675 40.9268
33.8383 1631 40.3856
33.9554 1498 38.704
34.0725 1532 39.1408
34.1896 1553 39.4081
34.3067 1708 41.328
34.4237 1777 42.1545
34.5407 1806 42.4971
34.6577 1863 43.1625
34.7746 1992 44.6318
34.8915 1917 43.7836
35.0084 1878 43.3359
35.1252 1870 43.2435
35.242 1818 42.638
35.3587 1925 43.8748
35.4755 1880 43.359
35.5921 1926 43.8862
35.7088 1765 42.0119
35.8254 1858 43.1045
35.9419 1901 43.6005
36.0584 1870 43.2435
36.1749 1851 43.0232
36.2913 1858 43.1045
36.4077 1892 43.4971
36.524 1881 43.3705
36.6403 1840 42.8952
36.7565 1931 43.9431
36.8727 1878 43.3359
36.9889 1901 43.6005
37.1049 1806 42.4971
37.221 0 1
37.3369 0 1
37.4529 0 1
37.5687 0 1
37.6845 0 1
37.8003 0 1
37.916 0 1
38.0316 0 1
38.1472 0 1
40.5851 0 1
40.7008 0 1
40.8164 0 1
40.9322 0 1
41.048 0 1
41.1639 0 1
41.2798 0 1
41.3958 0 1
41.5118 0 1
41.6279 0 1
41.744 1584 39.7995
41.8602 1563 39.5348
41.9765 1588 39.8497
42.0928 1708 41.328
42.2091 1745 41.7732
42.3255 1646 40.5709
42.4419 1599 39.9875
42.5584 1423 37.7227
42.675 1338 36.5787
42.7915 1311 36.2077
42.9081 1337 36.565
43.0248 1495 38.6652
43.1415 1534 39.1663
43.2582 1640 40.4969
43.375 1698 41.2068
43.4918 1719 41.4608
43.6087 1649 40.6079
43.7256 1692 41.1339
43.8425 1640 40.4969
43.9595 1630 40.3733
44.0765 1591 39.8873
44.1935 1566 39.5727
44.3106 1509 38.8458
44.4277 1487 38.5616
44.5448 1487 38.5616
44.6619 1432 37.8418
44.7791 1435 37.8814
44.8963 1460 38.2099
45.0136 1562 39.5221
45.1308 1445 38.0132
45.2481 1497 38.6911
45.3654 1537 39.2046
45.4827 1500 38.7298
45.6001 1435 37.8814
45.7174 1385 37.2156
45.8348 1470 38.3406
45.9522 1421 37.6962
46.0697 1419 37.6696
46.1871 1127 33.5708
46.3046 1074 32.7719
46.422 1049 32.3883
46.5395 1199 34.6266
46.657 1307 36.1525
46.7745 1290 35.9166
46.892 1418 37.6563
47.0096 1394 37.3363
47.1271 1412 37.5766
47.2446 1404 37.47
47.3622 1379 37.1349
47.4797 1387 37.2424
47.5973 1342 36.6333
47.7149 1298 36.0278
47.8324 1206 34.7275
47.95 1225 35
48.0675 1193 34.5398
48.1851 1216 34.8712
48.3027 1212 34.8138
48.4202 1262 35.5246
48.5378 1206 34.7275
48.6554 1214 34.8425
48.7729 1317 36.2905
48.8904 1324 36.3868
49.008 1353 36.7831
49.1255 1304 36.1109
49.243 1297 36.0139
49.3605 1341 36.6197
49.478 1260 35.4965
49.5955 1273 35.6791
49.713 1085 32.9393
49.8304 1012 31.8119
49.9479 1100 33.1662
50.0653 1131 33.6303
50.1827 1382 37.1753
50.3001 1468 38.3145
50.4175 1559 39.4842
50.5348 1606 40.0749
50.6521 1563 39.5348
50.7694 1712 41.3763
50.8867 1723 41.509
51.004 1774 42.1189
51.1212 1801 42.4382
51.2384 1775 42.1307
51.3556 1721 41.4849
51.4727 1772 42.0951
51.5899 1751 41.845
51.707 1780 42.19
51.824 1853 43.0465
51.9411 1853 43.0465
52.0581 1861 43.1393
52.175 1968 44.3621
52.2919 2028 45.0333
52.4088 2024 44.9889
52.5257 2071 45.5082
52.6425 2092 45.7384
52.7593 2161 46.4866
52.876 2221 47.1275
52.9927 2152 46.3897
53.1094 2173 46.6154
53.226 1982 44.5197
53.3426 1868 43.2204
53.4591 1716 41.4246
53.5756 1729 41.5812
53.692 1902 43.6119
53.8084 2174 46.6262
53.9248 2267 47.613
54.0411 2408 49.0714
54.1573 2366 48.6415
54.2735 0 1
54.3896 0 1
54.5057 0 1
54.6217 0 1
54.7377 0 1
54.8537 0 1
54.9695 0 1
55.0853 0 1
55.2011 0 1
55.3168 0 1
55.4324 0 1
57.824 0 1
57.9396 0 1
58.0553 0 1
58.1711 0 1
58.2869 0 1
58.4028 0 1
58.5187 0 1
58.6347 0 1
58.7508 0 1
58.8669 0 1
58.983 2942 54.2402
59.0992 3154 56.1605
59.2155 3210 56.6569
59.3318 3381 58.1464
59.4482 3496 59.127
59.5646 3477 58.9661
59.681 3481 59
59.7975 3453 58.7622
59.9141 3160 56.2139
60.0306 3182 56.4092
60.1473 3126 55.9106
60.2639 3105 55.7225
60.3807 3098 55.6597
60.4974 3171 56.3116
60.6142 3250 57.0088
60.731 3279 57.2626
60.8479 3346 57.8446
60.9648 3486 59.0424
61.0818 3454 58.7707
61.1987 3470 58.9067
61.3158 3434 58.6003
61.4328 3482 59.0085
61.5499 3457 58.7963
61.667 3334 57.7408
61.7841 3038 55.1181
61.9013 2848 53.3667
62.0185 2716 52.1153
62.1357 2762 52.5547
62.253 2948 54.2955
62.3702 3191 56.4889
62.4875 3407 58.3695
62.6049 3687 60.7207
62.7222 3641 60.3407
62.8396 3773 61.4248
62.9569 3755 61.2781
63.0743 3676 60.63
63.1918 3741 61.1637
63.3092 3597 59.975
63.4267 3595 59.9583
63.5441 3460 58.8218
63.6616 3323 57.6455
63.7791 3277 57.2451
63.8966 3352 57.8965
64.0142 3315 57.576
64.1317 3434 58.6003
64.2492 3561 59.6741
64.3668 3723 61.0164
64.4843 3641 60.3407
64.6019 3704 60.8605
64.7195 3763 61.3433
64.837 3862 62.145
64.9546 3944 62.8013
65.0722 3730 61.0737
65.1898 3600 60
65.3074 3427 58.5406
65.4249 3251 57.0175
65.5425 2914 53.9815
65.6601 2829 53.1883
65.7777 2951 54.3231
65.8952 3286 57.3236
66.0128 3537 59.4727
66.1304 3867 62.1852
66.2479 3836 61.9355
66.3655 3936 62.7375
66.483 4109 64.1015
66.6005 4147 64.3972
66.718 4158 64.4826
66.8355 4120 64.1872
66.953 4059 63.7103
67.0705 4019 63.3956
67.1879 3706 60.8769
67.3054 3623 60.1914
67.4228 3643 60.3573
67.5402 3534 59.4475
67.6576 3750 61.2372
67.7749 3730 61.0737
67.8923 3971 63.0159
68.0096 4066 63.7652
68.1269 4228 65.0231
68.2442 4317 65.7039
68.3614 4346 65.9242
68.4787 4327 65.7799
68.5958 4396 66.3023
68.713 4329 65.7951
68.8302 4335 65.8407
68.9473 4119 64.1794
69.0643 3837 61.9435
69.1814 3468 58.8897
69.2984 3271 57.1927
69.4154 3267 57.1577
69.5323 3795 61.6036
69.6492 4188 64.7148
69.7661 4536 67.3498
69.8829 4540 67.3795
69.9997 4872 69.7997
70.1165 4723 68.7241
70.2332 4819 69.419
70.3499 4841 69.5773
70.4665 4771 69.0724
70.5831 4700 68.5565
70.6996 4617 67.9485
70.8161 4555 67.4907
70.9326 4210 64.8845
71.049 4071 63.8044
71.1653 4015 63.364
71.2817 3994 63.1981
71.3979 4127 64.2417
71.5141 4253 65.215
71.6303 4210 64.8845
71.7464 4066 63.7652
71.8624 0 1
71.9784 0 1
72.0944 0 1
72.2102 0 1
72.3261 0 1
72.4418 0 1
72.5575 0 1
72.6732 0 1
75.1054 0 1
75.2209 0 1
75.3365 0 1
75.4521 0 1
75.5678 0 1
75.6835 0 1
75.7993 0 1
75.9151 0 1
76.031 0 1
76.147 4268 65.3299
76.263 4516 67.2012
76.3791 4407 66.3852
76.4952 4348 65.9394
76.6113 4252 65.2074
76.7276 4493 67.0298
76.8438 4461 66.7907
76.9601 4768 69.0507
77.0765 4936 70.2567
77.1929 5076 71.2461
77.3093 5149 71.7565
77.4258 5177 71.9514
77.5423 5249 72.45
77.6589 5152 71.7774
77.7755 5195 72.0763
77.8921 4780 69.1375
78.0088 4461 66.7907
78.1256 4010 63.3246
78.2423 3822 61.8223
78.3591 3591 59.925
78.4759 3664 60.531
78.5928 4128 64.2495
78.7097 4598 67.8086
78.8266 5192 72.0555
78.9436 4890 69.9285
79.0606 5068 71.1899
79.1776 5064 71.1618
79.2946 5238 72.374
79.4117 5255 72.4914
79.5288 5036 70.9648
79.6459 4937 70.2638
79.7631 4945 70.3207
79.8802 4863 69.7352
79.9974 4562 67.5426
80.1147 4297 65.5515
80.2319 4287 65.4752
80.3491 4224 64.9923
80.4664 4454 66.7383
80.5837 4663 68.2862
80.701 4862 69.728
80.8183 4938 70.2709
80.9357 5146 71.7356
81.053 5155 71.7983
81.1704 5087 71.3232
81.2877 4964 70.4557
81.4051 4937 70.2638
81.5225 4945 70.3207
81.6399 4515 67.1937
81.7573 4142 64.3584
81.8747 3783 61.5061
81.9922 3572 59.7662
82.1096 3846 62.0161
82.227 3912 62.546
82.3444 4299 65.5668
82.4619 4578 67.6609
82.5793 4595 67.7864
82.6967 5052 71.0774
82.8142 4931 70.2211
82.9316 4928 70.1997
83.049 4865 69.7496
83.1664 4772 69.0797
83.2838 4659 68.2569
83.4012 4644 68.1469
83.5186 4444 66.6633
83.636 4202 64.8228
83.7534 4000 63.2456
83.8708 3842 61.9839
83.9881 3820 61.8061
84.1055 4095 63.9922
84.2228 4400 66.3325
84.3401 4517 67.2086
84.4575 4644 68.1469
84.5747 4794 69.2387
84.692 4976 70.5408
84.8093 4995 70.6753
84.9265 4768 69.0507
85.0437 4796 69.2532
85.1609 4442 66.6483
85.2781 4109 64.1015
85.3952 3899 62.442
85.5123 3544 59.5315
85.6294 3613 60.1082
85.7465 3796 61.6117
85.8636 4183 64.6761
85.9806 4521 67.2384
86.0976 4666 68.3081
86.2145 5032 70.9366
86.3315 5048 71.0493
86.4484 5473 73.9797
86.5652 5346 73.1163
86.682 5278 72.6498
86.7988 5335 73.0411
86.9156 5170 71.9027
87.0323 5109 71.4773
87.149 4970 70.4982
87.2657 4679 68.4032
87.3823 4542 67.3944
87.4988 4282 65.437
87.6154 4400 66.3325
87.7318 4759 68.9855
87.8483 5270 72.5948
87.9647 5411 73.5595
88.081 5513 74.2496
88.1973 5523 74.3169
88.3136 5826 76.3282
88.4298 5556 74.5386
88.546 5688 75.4188
88.6621 5530 74.364
88.7781 5020 70.852
88.8942 0 1
89.0101 0 1
89.126 0 1
89.2419 0 1
89.3577 0 1
89.4734 0 1
89.5891 0 1
89.7047 0 1
89.8203 0 1
89.9358 0 1
92.3269 0 1
92.4424 0 1
92.558 0 1
92.6736 0 1
92.7893 0 1
92.905 0 1
93.0208 0 1
93.1366 0 1
93.2525 0 1
93.3685 0 1
93.4845 0 1
93.6005 5546 74.4715
93.7167 5566 74.6056
93.8328 5570 74.6324
93.949 5526 74.3371
94.0653 5451 73.8309
94.1816 5296 72.7736
94.2979 5292 72.7461
94.4143 4896 69.9714
94.5307 4412 66.4229
94.6472 4354 65.9848
94.7637 4441 66.6408
94.8803 4647 68.1689
94.9969 4877 69.8355
95.1135 5161 71.8401
95.2302 5232 72.3326
95.3469 5525 74.3303
95.4637 5776 76
95.5805 5803 76.1774
95.6973 5837 76.4003
95.8142 5978 77.3175
95.9311 5802 76.1709
96.048 5719 75.6241
96.1649 5514 74.2563
96.2819 5455 73.858
96.3989 5088 71.3302
96.516 5019 70.8449
96.633 4622 67.9853
96.7501 4609 67.8896
96.8673 4642 68.1322
96.9844 4949 70.3491
97.1016 5386 73.3894
97.2188 5720 75.6307
97.336 5933 77.026
97.4532 5947 77.1168
97.5704 5926 76.9805
97.6877 5798 76.1446
97.805 5782 76.0395
97.9223 5569 74.6257
98.0396 5276 72.6361
98.1569 4866 69.7567
98.2743 4730 68.775
98.3916 4554 67.4833
98.509 4589 67.7422
98.6264 4897 69.9786
98.7438 5216 72.2219
98.8612 5546 74.4715
98.9786 5676 75.3392
99.096 5918 76.9285
99.2134 6048 77.7689
99.3308 6060 77.846
99.4482 6278 79.2338
99.5656 6040 77.7174
99.6831 5974 77.2917
99.8005 5940 77.0714
99.9179 5867 76.5963
100.035 5480 74.027
100.153 5122 71.5681
100.27 4741 68.8549
100.388 4860 69.7137
100.505 5099 71.4073
100.622 5686 75.4056
100.74 5908 76.8635
100.857 5958 77.1881
100.975 6218 78.8543
101.092 6257 79.1012
101.209 6016 77.5629
101.327 6142 78.3709
101.444 6113 78.1857
101.561 5869 76.6094
101.679 5534 74.3909
101.796 5074 71.232
101.913 5057 71.1126
102.03 4962 70.4415
102.148 5034 70.9507
102.265 5808 76.2102
102.382 5481 74.0338
102.499 5893 76.7659
102.616 6061 77.8524
102.733 6366 79.7872
102.851 6604 81.265
102.968 6623 81.3818
103.085 6506 80.6598
103.202 6463 80.3928
103.319 6286 79.2843
103.436 5932 77.0195
103.552 5897 76.7919
103.669 5466 73.9324
103.786 5053 71.0845
103.903 5014 70.8096
104.02 5576 74.6726
104.137 5988 77.3822
104.253 6485 80.5295
104.37 6515 80.7155
104.487 6661 81.6149
104.603 6712 81.9268
104.72 6644 81.5107
104.836 6563 81.0123
104.953 6638 81.4739
105.069 6294 79.3347
105.186 5969 77.2593
105.302 5456 73.8647
105.418 5295 72.7668
105.535 5451 73.8309
105.651 5898 76.7984
105.767 6046 77.756
105.883 6256 79.0949
105.999 6548 80.9197
106.115 0 1
106.231 0 1
106.347 0 1
106.463 0 1
106.579 0 1
106.694 0 1
106.81 0 1
106.926 0 1
107.041 0 1
107.157 0 1
109.576 0 1
109.692 0 1
109.807 0 1
109.923 0 1
110.039 0 1
110.155 0 1
110.27 0 1
110.386 0 1
110.502 0 1
110.618 5372 73.2939
110.735 5651 75.1731
110.851 5926 76.9805
110.967 6113 78.1857
111.083 5993 77.4145
111.199 6280 79.2465
111.316 6376 79.8499
111.432 6592 81.1911
111.549 6492 80.5729
111.665 6585 81.148
111.782 6247 79.038
111.898 5902 76.8245
112.015 5769 75.9539
112.132 5195 72.0763
112.248 4685 68.4471
112.365 4826 69.4694
112.482 5034 70.9507
112.599 5299 72.7942
112.716 5770 75.9605
112.832 5998 77.4468
112.949 5907 76.857
113.066 5936 77.0454
113.183 6027 77.6338
113.3 5812 76.2365
113.417 5919 76.935
113.534 5782 76.0395
113.652 5562 74.5788
113.769 5110 71.4843
113.886 4811 69.3614
114.003 4757 68.971
114.12 4867 69.7639
114.238 4943 70.3065
114.355 5157 71.8123
114.472 5354 73.171
114.589 5413 73.5731
114.707 5504 74.1889
114.824 5652 75.1798
114.942 5764 75.921
115.059 5789 76.0855
115.176 5780 76.0263
115.294 5613 74.92
115.411 5653 75.1864
115.529 5434 73.7157
115.646 4979 70.562
115.764 4616 67.9412
115.881 4376 66.1513
115.999 4416 66.453
116.116 4792 69.2243
116.234 5249 72.45
116.351 5637 75.08
116.469 5718 75.6175
116.586 5674 75.326
116.704 5823 76.3086
116.821 5865 76.5833
116.939 5830 76.3544
117.056 5855 76.518
117.174 5610 74.8999
117.291 5305 72.8354
117.409 5217 72.2288
117.526 4838 69.5557
117.644 4930 70.214
117.761 4924 70.1712
117.879 5250 72.4569
117.996 5293 72.753
118.114 5487 74.0743
118.231 5590 74.7663
118.349 5561 74.5721
118.466 5752 75.8419
118.584 5825 76.3217
118.701 5881 76.6877
118.819 5824 76.3151
118.936 5929 77
119.053 5822 76.302
119.171 5435 73.7225
119.288 5182 71.9861
119.405 4541 67.3869
119.523 4244 65.146
119.64 4452 66.7233
119.757 4827 69.4766
119.875 5114 71.5122
119.992 5611 74.9066
120.109 5772 75.9737
120.226 5740 75.7628
120.343 5636 75.0733
120.46 5761 75.9013
120.578 5667 75.2795
120.695 5622 74.98
120.812 5625 75
120.929 5508 74.2159
121.046 5061 71.1407
121.163 5197 72.0902
121.279 4850 69.6419
121.396 4782 69.152
121.513 4960 70.4273
121.63 5108 71.4703
121.747 5105 71.4493
121.863 5455 73.858
121.98 5491 74.1013
122.097 5560 74.5654
122.213 5721 75.6373
122.33 5726 75.6703
122.446 5624 74.9933
122.563 5609 74.8933
122.679 5656 75.2064
122.795 5574 74.6592
122.912 5515 74.263
123.028 4853 69.6635
123.144 4495 67.0448
123.26 4178 64.6375
123.377 0 1
123.493 0 1
123.609 0 1
123.725 0 1
123.84 0 1
123.956 0 1
124.072 0 1
124.188 0 1
124.303 0 1
124.419 0 1
126.852 0 1
126.968 0 1
127.083 0 1
127.199 0 1
127.315 0 1
127.431 0 1
127.547 0 1
127.663 0 1
127.779 0 1
127.895 0 1
128.011 0 1
128.127 0 1
128.243 0 1
128.359 4933 70.2353
128.476 4610 67.897
128.592 4741 68.8549
128.708 5271 72.6017
128.825 5848 76.4722
128.941 6115 78.1985
129.058 6397 79.9812
129.174 6308 79.4229
129.291 6509 80.6784
129.408 6353 79.7057
129.524 6326 79.5362
129.641 6451 80.3181
129.758 6310 79.4355
129.875 6106 78.1409
129.992 6006 77.4984
130.108 5792 76.1052
130.225 5587 74.7462
130.342 5354 73.171
130.459 5313 72.8903
130.576 5824 76.3151
130.693 5731 75.7034
130.81 5958 77.1881
130.928 5947 77.1168
131.045 6058 77.8332
131.162 6198 78.7274
131.279 6319 79.4921
131.396 6228 78.9177
131.513 6207 78.7845
131.631 6022 77.6015
131.748 5580 74.6994
131.865 5152 71.7774
131.983 4540 67.3795
132.1 4631 68.0515
132.217 4989 70.6329
132.335 5406 73.5255
132.452 5901 76.818
132.57 6063 77.8653
132.687 5969 77.2593
132.804 6169 78.543
132.922 6222 78.8797
133.039 6083 77.9936
133.157 6030 77.6531
133.274 6096 78.0769
133.392 6103 78.1217
133.509 5685 75.3989
133.627 5828 76.3413
133.744 5574 74.6592
133.862 5450 73.8241
133.979 5399 73.4779
134.097 5315 72.904
134.214 5581 74.7061
134.332 5672 75.3127
134.449 5869 76.6094
134.567 5785 76.0592
134.684 5860 76.5506
134.802 6021 77.5951
134.919 6097 78.0833
135.037 6111 78.1729
135.154 5921 76.948
135.272 5826 76.3282
135.389 5385 73.3826
135.507 4951 70.3633
135.624 4373 66.1287
135.742 4629 68.0368
135.859 5054 71.0915
135.977 5454 73.8512
136.094 5841 76.4264
136.211 5861 76.5572
136.329 5968 77.2528
136.446 6222 78.8797
136.564 6109 78.1601
136.681 6311 79.4418
136.798 6012 77.5371
136.915 6096 78.0769
137.033 5984 77.3563
137.15 5798 76.1446
137.267 5793 76.1118
137.384 5519 74.29
137.502 5297 72.7805
137.619 5292 72.7461
137.736 5301 72.808
137.853 5419 73.6139
137.97 5412 73.5663
138.087 5857 76.531
138.204 5890 76.7463
138.321 5972 77.2787
138.438 6024 77.6144
138.555 6005 77.4919
138.672 6133 78.3135
138.788 6008 77.5113
138.905 5745 75.7958
139.022 5531 74.3707
139.139 4952 70.3704
139.255 4624 68
139.372 4588 67.7348
139.488 4981 70.5762
139.605 5391 73.4234
139.721 5695 75.4652
139.838 5910 76.8765
139.954 5989 77.3886
140.071 5937 77.0519
140.187 5946 77.1103
140.303 5913 76.896
140.419 5931 77.013
140.535 5949 77.1298
140.652 5896 76.7854
140.768 0 1
140.884 0 1
141 0 1
141.115 0 1
141.231 0 1
141.347 0 1
141.463 0 1
141.578 0 1
141.694 0 1
144.104 0 1
144.219 0 1
144.335 0 1
144.45 0 1
144.566 0 1
144.682 0 1
144.798 0 1
144.914 0 1
145.03 0 1
145.146 5017 70.8308
145.262 5155 71.7983
145.378 5369 73.2735
145.494 5200 72.111
145.61 5032 70.9366
145.726 5171 71.9097
145.842 5046 71.0352
145.959 4858 69.6994
146.075 4772 69.0797
146.192 4773 69.0869
146.308 4625 68.0074
146.425 4639 68.1102
146.541 4690 68.4836
146.658 4791 69.217
146.774 4882 69.8713
146.891 4974 70.5266
147.008 4906 70.0428
147.125 5015 70.8167
147.241 4990 70.6399
147.358 4878 69.8427
147.475 4781 69.1448
147.592 4470 66.8581
147.709 4182 64.6684
147.826 3850 62.0484
147.943 3662 60.5145
148.06 3986 63.1348
148.177 4423 66.5056
148.294 4662 68.2788
148.411 4794 69.2387
148.528 5022 70.8661
148.645 4801 69.2892
148.762 4739 68.8404
148.88 4826 69.4694
148.997 4706 68.6003
149.114 4997 70.6895
149.231 4733 68.7968
149.349 4862 69.728
149.466 4578 67.6609
149.583 4682 68.4251
149.701 4541 67.3869
149.818 4526 67.2756
149.935 4391 66.2646
150.053 4300 65.5744
150.17 4409 66.4003
150.287 4575 67.6387
150.405 4634 68.0735
150.522 4673 68.3593
150.64 4627 68.0221
150.757 4791 69.217
150.875 4691 68.4909
150.992 4461 66.7907
151.11 4450 66.7083
151.227 4155 64.4593
151.344 3936 62.7375
151.462 3630 60.2495
151.579 3588 59.8999
151.697 3853 62.0725
151.814 4145 64.3817
151.932 4526 67.2756
152.049 4698 68.542
152.167 4673 68.3593
152.284 4749 68.913
152.402 4752 68.9348
152.519 4677 68.3886
152.636 4906 70.0428
152.754 4833 69.5198
152.871 4789 69.2026
152.989 4718 68.6877
153.106 4634 68.0735
153.223 4619 67.9632
153.341 4540 67.3795
153.458 4519 67.2235
153.575 4544 67.4092
153.693 4337 65.8559
153.81 4426 66.5282
153.927 4522 67.2458
154.044 4582 67.6905
154.162 4733 68.7968
154.279 4732 68.7895
154.396 4703 68.5784
154.513 4735 68.8113
154.63 4739 68.8404
154.747 4528 67.2904
154.864 4352 65.9697
154.981 4218 64.9461
155.098 3933 62.7136
155.215 3913 62.554
155.332 3976 63.0555
155.449 4399 66.325
155.566 4686 68.4544
155.683 4794 69.2387
155.8 4890 69.9285
155.917 4911 70.0785
156.033 4748 68.9057
156.15 0 1
156.267 0 1
156.383 0 1
156.5 0 1
156.617 0 1
156.733 0 1
156.85 0 1
156.966 0 1
157.082 0 1
157.199 0 1
157.315 0 1
157.431 0 1
157.547 0 1
157.664 0 1
157.78 0 1
157.896 0 1
158.012 0 1
158.128 0 1
158.244 0 1
158.359 0 1
158.475 0 1
158.591 0 1
158.706 0 1
