
6.15755 0 1
6.2731 0 1
6.3887 0 1
6.50437 0 1
6.62009 0 1
6.73587 0 1
6.8517 0 1
6.96759 0 1
7.08353 0 1
7.19952 0 1
7.31557 0 1
7.43166 0 1
7.54781 0 1
7.664 0 1
7.78024 0 1
7.89653 0 1
8.01286 0 1
8.12924 0 1
8.24567 0 1
8.36213 0 1
8.47864 0 1
8.59519 0 1
8.71178 0 1
8.82841 0 1
8.94508 0 1
9.06179 0 1
9.17853 0 1
9.29531 0 1
9.41212 0 1
9.52897 0 1
9.64584 0 1
9.76276 0 1
9.8797 0 1
9.99667 0 1
10.1137 0 1
10.2307 0 1
10.3478 0 1
10.4648 0 1
10.5819 0 1
10.6991 0 1
10.8162 0 1
10.9334 0 1
11.0506 0 1
11.1678 0 1
11.285 0 1
11.4023 0 1
11.5196 0 1
11.6369 0 1
11.7542 0 1
11.8715 0 1
11.9888 0 1
12.1062 0 1
12.2235 0 1
12.3409 0 1
12.4582 0 1
12.5756 0 1
12.693 0 1
12.8104 0 1
12.9278 0 1
13.0452 0 1
13.1626 0 1
13.28 0 1
13.3974 0 1
13.5149 0 1
13.6323 0 1
13.7497 0 1
13.8671 0 1
13.9845 0 1
14.1019 0 1
14.2193 0 1
14.3367 0 1
14.4541 0 1
14.5714 0 1
14.6888 0 1
14.8062 0 1
14.9235 0 1
15.0408 0 0
15.1581 0 0
15.2755 0 0
15.3927 0 0
15.51 0 0
15.6273 0 0
15.7445 0 0
15.8617 0 0
15.9789 0 0
16.0961 0 0
16.2132 0 0
16.3304 0 0
16.4475 0 0
16.5646 0 0
16.6816 0 0
16.7986 0 0
16.9156 0 0
17.0326 0 0
17.1496 0 0
17.2665 0 0
17.3833 0 0
17.5002 0 0
17.617 0 0
17.7338 0 0
17.8505 0 0
17.9672 0 0
18.0839 0 0
18.2005 0 0
18.3171 0 0
18.4337 0 0
18.5502 0 0
18.6666 0 0
18.7831 0 0
18.8994 0 0
19.0158 0 0
19.1321 0 0
19.2483 0 0
19.3645 0 0
19.4806 0 0
19.5967 0 0
19.7128 0 0
19.8288 0 0
19.9447 0 0
20.0606 0 1
20.1764 0 1
20.2922 0 1
20.4079 0 1
20.5236 0 1
20.6392 0 1
20.7548 0 1
20.8702 0 1
23.3078 0 1
23.4233 0 1
23.539 0 1
23.6547 0 1
23.7704 0 1
23.8862 0 1
24.0021 0 1
24.118 0 1
24.234 0 1
24.35 0 1
24.4661 14843 121.832
24.5822 14772 121.54
24.6984 14650 121.037
24.8146 14554 120.64
24.9309 14184 119.097
25.0472 13844 117.661
25.1636 13936 118.051
25.28 14307 119.612
25.3965 14738 121.4
25.513 15105 122.902
25.6296 15729 125.415
25.7462 16220 127.358
25.8628 16050 126.689
25.9795 16125 126.984
26.0962 16174 127.177
26.213 16065 126.748
26.3298 15696 125.284
26.4466 15112 122.931
26.5635 14568 120.698
26.6804 14284 119.516
26.7973 14326 119.691
26.9143 14928 122.18
27.0313 15241 123.454
27.1483 15330 123.814
27.2653 15832 125.825
27.3824 16004 126.507
27.4996 16298 127.664
27.6167 16016 126.554
27.7339 15570 124.78
27.8511 15516 124.563
27.9683 14850 121.861
28.0855 14685 121.182
28.2028 14537 120.569
28.3201 14328 119.7
28.4374 13590 116.576
28.5547 13105 114.477
28.6721 12963 113.855
28.7894 13060 114.28
28.9068 13433 115.901
29.0242 13770 117.346
29.1416 14363 119.846
29.259 14519 120.495
29.3764 14686 121.186
29.4939 14589 120.785
29.6113 14709 121.281
29.7288 14641 121
29.8463 14225 119.269
29.9638 13798 117.465
30.0812 13399 115.754
30.1987 13200 114.891
30.3162 13144 114.647
30.4337 13662 116.885
30.5512 14093 118.714
30.6687 14678 121.153
30.7862 14492 120.383
30.9037 14971 122.356
31.0212 15026 122.581
31.1387 14841 121.824
31.2562 14842 121.828
31.3737 14310 119.624
31.4912 14393 119.971
31.6087 14050 118.533
31.7262 13901 117.903
31.8436 13551 116.409
31.9611 13361 115.59
32.0785 12614 112.312
32.1959 12477 111.7
32.3134 12594 112.223
32.4308 13148 114.665
32.5482 13237 115.052
32.6655 13579 116.529
32.7829 14062 118.583
32.9002 14240 119.331
33.0176 13953 118.123
33.1349 14314 119.641
33.2522 14151 118.958
33.3694 14275 119.478
33.4867 14218 119.239
33.6039 13411 115.806
33.7211 12999 114.013
33.8383 12839 113.309
33.9554 12650 112.472
34.0725 13026 114.132
34.1896 13513 116.245
34.3067 13803 117.486
34.4237 13963 118.165
34.5407 14279 119.495
34.6577 14452 120.216
34.7746 14198 119.155
34.8915 14681 121.165
35.0084 14446 120.192
35.1252 13935 118.047
35.242 13874 117.788
35.3587 13620 116.705
35.4755 13438 115.922
35.5921 12821 113.23
35.7088 12522 111.902
35.8254 11993 109.513
35.9419 12130 110.136
36.0584 12006 109.572
36.1749 12264 110.743
36.2913 12741 112.876
36.4077 12974 113.903
36.524 13312 115.378
36.6403 13429 115.884
36.7565 13422 115.853
36.8727 13950 118.11
36.9889 13598 116.61
37.1049 13304 115.343
37.221 0 1
37.3369 0 1
37.4529 0 1
37.5687 0 1
37.6845 0 1
37.8003 0 1
37.916 0 1
38.0316 0 1
38.1472 0 1
40.5851 0 1
40.7008 0 1
40.8164 0 1
40.9322 0 1
41.048 0 1
41.1639 0 1
41.2798 0 1
41.3958 0 1
41.5118 0 1
41.6279 0 1
41.744 10255 101.267
41.8602 10590 102.908
41.9765 10933 104.561
42.0928 11223 105.939
42.2091 11260 106.113
42.3255 10981 104.79
42.4419 10358 101.774
42.5584 9974 99.8699
42.675 9486 97.3961
42.7915 9970 99.8499
42.9081 10268 101.331
43.0248 10501 102.474
43.1415 10852 104.173
43.2582 11178 105.726
43.375 10924 104.518
43.4918 11210 105.877
43.6087 11016 104.957
43.7256 10972 104.747
43.8425 10562 102.772
43.9595 10570 102.811
44.0765 10237 101.178
44.1935 10106 100.529
44.3106 9697 98.4733
44.4277 9215 95.9948
44.5448 8802 93.819
44.6619 8193 90.5152
44.7791 8259 90.879
44.8963 8374 91.5096
45.0136 8425 91.7878
45.1308 8753 93.5575
45.2481 8880 94.2338
45.3654 8878 94.2231
45.4827 8927 94.4828
45.6001 8715 93.3542
45.7174 8885 94.2603
45.8348 8766 93.6269
45.9522 7993 89.4036
46.0697 7823 88.4477
46.1871 7503 86.6199
46.3046 7311 85.5044
46.422 7538 86.8217
46.5395 7991 89.3924
46.657 8038 89.6549
46.7745 8062 89.7886
46.892 8226 90.6973
47.0096 8304 91.1263
47.1271 8376 91.5205
47.2446 8222 90.6752
47.3622 7987 89.37
47.4797 7803 88.3346
47.5973 7611 87.241
47.7149 7594 87.1436
47.8324 7195 84.8233
47.95 6770 82.28
48.0675 6425 80.1561
48.1851 6039 77.711
48.3027 5875 76.6485
48.4202 6018 77.5758
48.5378 6140 78.3582
48.6554 6341 79.6304
48.7729 6491 80.5667
48.8904 6716 81.9512
49.008 6597 81.2219
49.1255 6592 81.1911
49.243 6810 82.5227
49.3605 6672 81.6823
49.478 6309 79.4292
49.5955 5939 77.0649
49.713 5931 77.013
49.8304 6046 77.756
49.9479 6185 78.6448
50.0653 6685 81.7618
50.1827 6879 82.9397
50.3001 7368 85.8371
50.4175 7451 86.3192
50.5348 7792 88.2723
50.6521 7869 88.7074
50.7694 8156 90.3106
50.8867 8394 91.6188
51.004 8346 91.3564
51.1212 8268 90.9285
51.2384 8361 91.4385
51.3556 8568 92.5635
51.4727 8084 89.9111
51.5899 7824 88.4534
51.707 7525 86.7468
51.824 7565 86.977
51.9411 7819 88.4251
52.0581 8058 89.7664
52.175 8529 92.3526
52.2919 8823 93.9308
52.4088 9181 95.8175
52.5257 9418 97.0464
52.6425 9612 98.0408
52.7593 9833 99.1615
52.876 9949 99.7447
52.9927 9705 98.514
53.1094 9428 97.0979
53.226 8922 94.4563
53.3426 8937 94.5357
53.4591 9164 95.7288
53.5756 9743 98.7066
53.692 10206 101.025
53.8084 10912 104.461
53.9248 11426 106.892
54.0411 11610 107.75
54.1573 11917 109.165
54.2735 0 1
54.3896 0 1
54.5057 0 1
54.6217 0 1
54.7377 0 1
54.8537 0 1
54.9695 0 1
55.0853 0 1
55.2011 0 1
55.3168 0 1
55.4324 0 1
57.824 0 1
57.9396 0 1
58.0553 0 1
58.1711 0 1
58.2869 0 1
58.4028 0 1
58.5187 0 1
58.6347 0 1
58.7508 0 1
58.8669 0 1
58.983 12647 112.459
59.0992 13838 117.635
59.2155 14127 118.857
59.3318 14490 120.374
59.4482 14902 122.074
59.5646 14514 120.474
59.681 14426 120.108
59.7975 14143 118.924
59.9141 13875 117.792
60.0306 13403 115.771
60.1473 12769 113
60.2639 11981 109.458
60.3807 11310 106.348
60.4974 10878 104.298
60.6142 10939 104.59
60.731 11143 105.56
60.8479 11576 107.592
60.9648 11728 108.296
61.0818 12079 109.905
61.1987 11965 109.385
61.3158 12301 110.91
61.4328 11873 108.963
61.5499 11793 108.596
61.667 11476 107.126
61.7841 10742 103.644
61.9013 10619 103.049
62.0185 10591 102.913
62.1357 10879 104.302
62.253 11348 106.527
62.3702 11923 109.192
62.4875 12279 110.811
62.6049 12653 112.486
62.7222 13184 114.822
62.8396 13110 114.499
62.9569 13281 115.243
63.0743 13156 114.7
63.1918 12967 113.873
63.3092 12903 113.591
63.4267 12382 111.274
63.5441 11989 109.494
63.6616 11270 106.16
63.7791 10477 102.357
63.8966 9997 99.985
64.0142 9717 98.5748
64.1317 9668 98.326
64.2492 9652 98.2446
64.3668 9815 99.0707
64.4843 10372 101.843
64.6019 10556 102.742
64.7195 10757 103.716
64.837 10926 104.528
64.9546 10817 104.005
65.0722 10588 102.898
65.1898 10157 100.782
65.3074 10053 100.265
65.4249 9254 96.1977
65.5425 9374 96.8194
65.6601 9588 97.9183
65.7777 10004 100.02
65.8952 10559 102.757
66.0128 11146 105.575
66.1304 11644 107.907
66.2479 11896 109.069
66.3655 12197 110.44
66.483 12289 110.856
66.6005 12678 112.597
66.718 12491 111.763
66.8355 12353 111.144
66.953 11999 109.54
67.0705 11699 108.162
67.1879 11089 105.304
67.3054 10391 101.936
67.4228 9763 98.8079
67.5402 9038 95.0684
67.6576 8870 94.1807
67.7749 9021 94.9789
67.8923 9098 95.3834
68.0096 9703 98.5038
68.1269 10210 101.045
68.2442 10458 102.264
68.3614 10795 103.899
68.4787 11089 105.304
68.5958 11096 105.338
68.713 10917 104.484
68.8302 10556 102.742
68.9473 10036 100.18
69.0643 9733 98.656
69.1814 9516 97.55
69.2984 10044 100.22
69.4154 10442 102.186
69.5323 11221 105.929
69.6492 11980 109.453
69.7661 12295 110.883
69.8829 13088 114.403
69.9997 13382 115.681
70.1165 13492 116.155
70.2332 13611 116.666
70.3499 13449 115.97
70.4665 13376 115.655
70.5831 13100 114.455
70.6996 12757 112.947
70.8161 11986 109.481
70.9326 11466 107.079
71.049 10544 102.684
71.1653 10040 100.2
71.2817 9428 97.0979
71.3979 9200 95.9166
71.5141 9352 96.7057
71.6303 9571 97.8315
71.7464 9048 95.121
71.8624 0 1
71.9784 0 1
72.0944 0 1
72.2102 0 1
72.3261 0 1
72.4418 0 1
72.5575 0 1
72.6732 0 1
75.1054 0 1
75.2209 0 1
75.3365 0 1
75.4521 0 1
75.5678 0 1
75.6835 0 1
75.7993 0 1
75.9151 0 1
76.031 0 1
76.147 11125 105.475
76.263 11614 107.768
76.3791 11365 106.607
76.4952 10679 103.339
76.6113 9693 98.453
76.7276 9442 97.17
76.8438 9929 99.6444
76.9601 10469 102.318
77.0765 10961 104.695
77.1929 11361 106.588
77.3093 11968 109.398
77.4258 12162 110.281
77.5423 11857 108.89
77.6589 12107 110.032
77.7755 11722 108.268
77.8921 10853 104.178
78.0088 10373 101.848
78.1256 9799 98.9899
78.2423 9444 97.1802
78.3591 9559 97.7701
78.4759 10420 102.078
78.5928 11192 105.792
78.7097 11823 108.734
78.8266 12271 110.775
78.9436 12824 113.243
79.0606 12765 112.982
79.1776 13265 115.174
79.2946 13253 115.122
79.4117 13024 114.123
79.5288 12894 113.552
79.6459 12724 112.801
79.7631 12042 109.736
79.8802 11149 105.589
79.9974 10793 103.889
80.1147 10030 100.15
80.2319 8942 94.5621
80.3491 8464 92
80.4664 8727 93.4184
80.5837 8975 94.7365
80.701 9540 97.6729
80.8183 10173 100.861
80.9357 10291 101.445
81.053 10548 102.703
81.1704 10648 103.189
81.2877 10515 102.543
81.4051 10224 101.114
81.5225 9974 99.8699
81.6399 9121 95.5039
81.7573 8618 92.8332
81.8747 8112 90.0666
81.9922 8270 90.9395
82.1096 8930 94.4987
82.227 9648 98.2242
82.3444 10460 102.274
82.4619 10957 104.676
82.5793 11050 105.119
82.6967 11046 105.1
82.8142 11294 106.273
82.9316 11196 105.811
83.049 11222 105.934
83.1664 10916 104.48
83.2838 10671 103.301
83.4012 10041 100.205
83.5186 9500 97.4679
83.636 8916 94.4246
83.7534 8293 91.0659
83.8708 7580 87.0632
83.9881 7281 85.3288
84.1055 7266 85.2408
84.2228 7693 87.7097
84.3401 8125 90.1388
84.4575 8873 94.1966
84.5747 9417 97.0412
84.692 9613 98.0459
84.8093 9680 98.387
84.9265 9407 96.9897
85.0437 9266 96.2601
85.1609 8525 92.3309
85.2781 8230 90.7193
85.3952 7996 89.4204
85.5123 7967 89.2581
85.6294 8286 91.0275
85.7465 9149 95.6504
85.8636 9985 99.925
85.9806 10629 103.097
86.0976 11283 106.221
86.2145 11553 107.485
86.3315 11911 109.138
86.4484 12161 110.277
86.5652 12263 110.738
86.682 12455 111.602
86.7988 12245 110.657
86.9156 11814 108.692
87.0323 11231 105.976
87.149 10941 104.599
87.2657 10477 102.357
87.3823 9686 98.4175
87.4988 8985 94.7892
87.6154 9057 95.1683
87.7318 9387 96.8865
87.8483 10175 100.871
87.9647 10790 103.875
88.081 11557 107.503
88.1973 12001 109.549
88.3136 12116 110.073
88.4298 11910 109.133
88.546 11770 108.49
88.6621 11215 105.901
88.7781 10784 103.846
88.8942 0 1
89.0101 0 1
89.126 0 1
89.2419 0 1
89.3577 0 1
89.4734 0 1
89.5891 0 1
89.7047 0 1
89.8203 0 1
89.9358 0 1
92.3269 0 1
92.4424 0 1
92.558 0 1
92.6736 0 1
92.7893 0 1
92.905 0 1
93.0208 0 1
93.1366 0 1
93.2525 0 1
93.3685 0 1
93.4845 0 1
93.6005 19179 138.488
93.7167 20573 143.433
93.8328 21367 146.175
93.949 22069 148.556
94.0653 22734 150.778
94.1816 22163 148.872
94.2979 21969 148.219
94.4143 22069 148.556
94.5307 22536 150.12
94.6472 23690 153.916
94.7637 25161 158.622
94.8803 27772 166.649
94.9969 30359 174.238
95.1135 32460 180.167
95.2302 34261 185.097
95.3469 36247 190.386
95.4637 37800 194.422
95.5805 38379 195.906
95.6973 40275 200.686
95.8142 40631 201.571
95.9311 41326 203.288
96.048 40774 201.926
96.1649 40427 201.065
96.2819 39825 199.562
96.3989 37916 194.72
96.516 36193 190.245
96.633 34297 185.194
96.7501 34154 184.808
96.8673 35211 187.646
96.9844 37961 194.836
97.1016 40793 201.973
97.2188 43790 209.261
97.336 45037 212.219
97.4532 45394 213.059
97.5704 44824 211.717
97.6877 43948 209.638
97.805 41389 203.443
97.9223 38566 196.382
98.0396 36026 189.805
98.1569 34373 185.4
98.2743 33755 183.725
98.3916 34439 185.577
98.509 38100 195.192
98.6264 39441 198.598
98.7438 42374 205.849
98.8612 43315 208.123
98.9786 44271 210.407
99.096 44854 211.788
99.2134 45766 213.93
99.3308 45879 214.194
99.4482 45638 213.631
99.5656 44983 212.092
99.6831 44121 210.05
99.8005 42423 205.968
99.9179 41638 204.054
100.035 39540 198.847
100.153 36923 192.154
100.27 34410 185.499
100.388 34827 186.62
100.505 37071 192.538
100.622 39626 199.063
100.74 42239 205.521
100.857 43213 207.877
100.975 43674 208.983
101.092 43399 208.324
101.209 43028 207.432
101.327 41385 203.433
101.444 38870 197.155
101.561 35865 189.381
101.679 33344 182.603
101.796 31769 178.239
101.913 31171 176.553
102.03 33170 182.126
102.148 35673 188.873
102.265 39847 199.617
102.382 35755 189.09
102.499 38727 196.792
102.616 38871 197.157
102.733 39023 197.542
102.851 38053 195.072
102.968 37883 194.636
103.085 36494 191.034
103.202 34513 185.777
103.319 32913 181.419
103.436 30744 175.34
103.552 28649 169.26
103.669 25562 159.881
103.786 23305 152.66
103.903 22417 149.723
104.02 22635 150.449
104.137 22952 151.499
104.253 23987 154.877
104.37 22606 150.353
104.487 23157 152.174
104.603 22338 149.459
104.72 20888 144.527
104.836 19742 140.506
104.953 17624 132.755
105.069 16258 127.507
105.186 14864 121.918
105.302 14050 118.533
105.418 14199 119.16
105.535 14531 120.545
105.651 15552 124.708
105.767 16278 127.585
105.883 16840 129.769
105.999 16949 130.188
106.115 0 1
106.231 0 1
106.347 0 1
106.463 0 1
106.579 0 1
106.694 0 1
106.81 0 1
106.926 0 1
107.041 0 1
107.157 0 1
109.576 0 1
109.692 0 1
109.807 0 1
109.923 0 1
110.039 0 1
110.155 0 1
110.27 0 1
110.386 0 1
110.502 0 1
110.618 11845 108.835
110.735 13000 114.018
110.851 14062 118.583
110.967 14747 121.437
111.083 14886 122.008
111.199 14990 122.434
111.316 15422 124.185
111.432 15738 125.451
111.549 15173 123.179
111.665 14905 122.086
111.782 14621 120.917
111.898 13901 117.903
112.015 13251 115.113
112.132 12365 111.198
112.248 11570 107.564
112.365 11023 104.99
112.482 11024 104.995
112.599 10886 104.336
112.716 11569 107.559
112.832 12384 111.283
112.949 12568 112.107
113.066 12543 111.996
113.183 12501 111.808
113.3 12276 110.797
113.417 12104 110.018
113.534 11438 106.949
113.652 11029 105.019
113.769 10479 102.367
113.886 10624 103.073
114.003 10438 102.167
114.12 11332 106.452
114.238 12497 111.79
114.355 13207 114.922
114.472 14602 120.839
114.589 13460 116.017
114.707 14380 119.917
114.824 14690 121.202
114.942 14595 120.81
115.059 15022 122.564
115.176 14415 120.062
115.294 14115 118.807
115.411 13752 117.269
115.529 13296 115.308
115.646 12889 113.53
115.764 12246 110.662
115.881 11531 107.382
115.999 11039 105.067
116.116 10962 104.7
116.234 11651 107.94
116.351 12265 110.747
116.469 12804 113.155
116.586 13050 114.237
116.704 13166 114.743
116.821 12970 113.886
116.939 12763 112.973
117.056 12306 110.932
117.174 12064 109.836
117.291 11509 107.28
117.409 11212 105.887
117.526 11293 106.269
117.644 11748 108.388
117.761 12751 112.92
117.879 13568 116.482
117.996 14237 119.319
118.114 14797 121.643
118.231 15050 122.678
118.349 15431 124.222
118.466 15558 124.732
118.584 15402 124.105
118.701 15839 125.853
118.819 15069 122.756
118.936 14757 121.478
119.053 14353 119.804
119.171 13970 118.195
119.288 13278 115.23
119.405 12634 112.401
119.523 11752 108.407
119.64 11635 107.866
119.757 11885 109.018
119.875 12098 109.991
119.992 12455 111.602
120.109 12855 113.38
120.226 13077 114.355
120.343 13198 114.883
120.46 12974 113.903
120.578 13097 114.442
120.695 12681 112.61
120.812 12386 111.292
120.929 12015 109.613
121.046 11901 109.092
121.163 11762 108.453
121.279 11913 109.147
121.396 12681 112.61
121.513 13422 115.853
121.63 13934 118.042
121.747 14596 120.814
121.863 14986 122.417
121.98 15158 123.118
122.097 15511 124.543
122.213 15299 123.689
122.33 15369 123.972
122.446 15082 122.809
122.563 14688 121.194
122.679 14212 119.214
122.795 14162 119.004
122.912 13868 117.762
123.028 13098 114.446
123.144 12564 112.089
123.26 11665 108.005
123.377 0 1
123.493 0 1
123.609 0 1
123.725 0 1
123.84 0 1
123.956 0 1
124.072 0 1
124.188 0 1
124.303 0 1
124.419 0 1
126.852 0 1
126.968 0 1
127.083 0 1
127.199 0 1
127.315 0 1
127.431 0 1
127.547 0 1
127.663 0 1
127.779 0 1
127.895 0 1
128.011 0 1
128.127 0 1
128.243 0 1
128.359 13977 118.224
128.476 13303 115.339
128.592 13000 114.018
128.708 12976 113.912
128.825 13449 115.97
128.941 14179 119.076
129.058 14583 120.76
129.174 14794 121.631
129.291 14769 121.528
129.408 14520 120.499
129.524 14367 119.862
129.641 14173 119.05
129.758 13960 118.152
129.875 13416 115.827
129.992 12913 113.635
130.108 12874 113.464
130.225 12722 112.792
130.342 13551 116.409
130.459 14007 118.351
130.576 15088 122.833
130.693 15201 123.292
130.81 15291 123.657
130.928 15496 124.483
131.045 15463 124.35
131.162 15770 125.579
131.279 15402 124.105
131.396 15279 123.608
131.513 15002 122.483
131.631 14643 121.008
131.748 14535 120.561
131.865 13986 118.262
131.983 12904 113.596
132.1 12629 112.379
132.217 12387 111.297
132.335 12679 112.601
132.452 13295 115.304
132.57 13880 117.813
132.687 13549 116.4
132.804 14088 118.693
132.922 13630 116.748
133.039 13695 117.026
133.157 13304 115.343
133.274 13035 114.171
133.392 12475 111.692
133.509 12543 111.996
133.627 12017 109.622
133.744 11994 109.517
133.862 12226 110.571
133.979 13020 114.105
134.097 13466 116.043
134.214 13989 118.275
134.332 13809 117.512
134.449 14183 119.092
134.567 14101 118.748
134.684 14461 120.254
134.802 14517 120.487
134.919 14336 119.733
135.037 14334 119.725
135.154 14245 119.352
135.272 13704 117.064
135.389 13516 116.258
135.507 13086 114.394
135.624 12378 111.256
135.742 12057 109.804
135.859 12229 110.585
135.977 12362 111.185
136.094 13260 115.152
136.211 13470 116.06
136.329 13469 116.056
136.446 13704 117.064
136.564 13624 116.722
136.681 13582 116.542
136.798 13281 115.243
136.915 12740 112.872
137.033 12365 111.198
137.15 12114 110.064
137.267 11955 109.339
137.384 11761 108.448
137.502 12203 110.467
137.619 12951 113.802
137.736 13291 115.287
137.853 13171 114.765
137.97 13981 118.241
138.087 13288 115.274
138.204 13833 117.614
138.321 14177 119.067
138.438 14111 118.79
138.555 14653 121.05
138.672 14368 119.867
138.788 14132 118.878
138.905 14135 118.891
139.022 13786 117.414
139.139 13130 114.586
139.255 12368 111.212
139.372 12337 111.072
139.488 12366 111.203
139.605 12868 113.437
139.721 13466 116.043
139.838 13818 117.55
139.954 14023 118.419
140.071 13227 115.009
140.187 13748 117.252
140.303 13498 116.181
140.419 13365 115.607
140.535 12892 113.543
140.652 12331 111.045
140.768 0 1
140.884 0 1
141 0 1
141.115 0 1
141.231 0 1
141.347 0 1
141.463 0 1
141.578 0 1
141.694 0 1
144.104 0 1
144.219 0 1
144.335 0 1
144.45 0 1
144.566 0 1
144.682 0 1
144.798 0 1
144.914 0 1
145.03 0 1
145.146 11621 107.801
145.262 11792 108.591
145.378 11771 108.494
145.494 11689 108.116
145.61 11195 105.806
145.726 10895 104.379
145.842 10602 102.966
145.959 10539 102.66
146.075 10335 101.661
146.192 10730 103.586
146.308 11042 105.081
146.425 11457 107.037
146.541 11735 108.328
146.658 11834 108.784
146.774 12077 109.895
146.891 12252 110.689
147.008 12244 110.653
147.125 12552 112.036
147.241 12456 111.606
147.358 12325 111.018
147.475 12291 110.865
147.592 12016 109.618
147.709 11495 107.215
147.826 11393 106.738
147.943 10756 103.711
148.06 10497 102.455
148.177 10869 104.254
148.294 11297 106.287
148.411 11760 108.444
148.528 11765 108.467
148.645 11730 108.305
148.762 11635 107.866
148.88 11847 108.844
148.997 11322 106.405
149.114 11589 107.652
149.231 11201 105.835
149.349 10856 104.192
149.466 10444 102.196
149.583 10116 100.578
149.701 10189 100.941
149.818 10392 101.941
149.935 10706 103.47
150.053 11034 105.043
150.17 11440 106.958
150.287 11514 107.303
150.405 11679 108.069
150.522 11822 108.729
150.64 11952 109.325
150.757 12096 109.982
150.875 12038 109.718
150.992 11989 109.494
151.11 11910 109.133
151.227 11557 107.503
151.344 11559 107.513
151.462 10758 103.721
151.579 10575 102.835
151.697 10326 101.617
151.814 10612 103.015
151.932 11070 105.214
152.049 11635 107.866
152.167 11419 106.86
152.284 11588 107.648
152.402 11590 107.657
152.519 11892 109.05
152.636 11471 107.103
152.754 11372 106.64
152.871 10850 104.163
152.989 10748 103.673
153.106 10362 101.794
153.223 10220 101.094
153.341 10402 101.99
153.458 10632 103.112
153.575 10960 104.69
153.693 11269 106.156
153.81 11421 106.869
153.927 11879 108.991
154.044 12289 110.856
154.162 12418 111.436
154.279 12793 113.106
154.396 13101 114.46
154.513 13279 115.235
154.63 13373 115.642
154.747 13029 114.145
154.864 12885 113.512
154.981 12557 112.058
155.098 12471 111.674
155.215 11892 109.05
155.332 11871 108.954
155.449 12015 109.613
155.566 12284 110.833
155.683 12945 113.776
155.8 12764 112.978
155.917 12733 112.841
156.033 12434 111.508
156.15 0 1
156.267 0 1
156.383 0 1
156.5 0 1
156.617 0 1
156.733 0 1
156.85 0 1
156.966 0 1
157.082 0 1
157.199 0 1
157.315 0 1
157.431 0 1
157.547 0 1
157.664 0 1
157.78 0 1
157.896 0 1
158.012 0 1
158.128 0 1
158.244 0 1
158.359 0 1
158.475 0 1
158.591 0 1
158.706 0 1
