
6.15755 0 1
6.2731 0 1
6.3887 0 1
6.50437 0 1
6.62009 0 1
6.73587 0 1
6.8517 0 1
6.96759 0 1
7.08353 0 1
7.19952 0 1
7.31557 0 1
7.43166 0 1
7.54781 0 1
7.664 0 1
7.78024 0 1
7.89653 0 1
8.01286 0 1
8.12924 0 1
8.24567 0 1
8.36213 0 1
8.47864 0 1
8.59519 0 1
8.71178 0 1
8.82841 0 1
8.94508 0 1
9.06179 0 1
9.17853 0 1
9.29531 0 1
9.41212 0 1
9.52897 0 1
9.64584 0 1
9.76276 0 1
9.8797 0 1
9.99667 0 1
10.1137 0 1
10.2307 0 1
10.3478 0 1
10.4648 0 1
10.5819 0 1
10.6991 0 1
10.8162 0 1
10.9334 0 1
11.0506 0 1
11.1678 0 1
11.285 0 1
11.4023 0 1
11.5196 0 1
11.6369 0 1
11.7542 0 1
11.8715 0 1
11.9888 0 1
12.1062 0 1
12.2235 0 1
12.3409 0 1
12.4582 0 1
12.5756 0 1
12.693 0 1
12.8104 0 1
12.9278 0 1
13.0452 0 1
13.1626 0 1
13.28 0 1
13.3974 0 1
13.5149 0 1
13.6323 0 1
13.7497 0 1
13.8671 0 1
13.9845 0 1
14.1019 0 1
14.2193 0 1
14.3367 0 1
14.4541 0 1
14.5714 0 1
14.6888 0 1
14.8062 0 1
14.9235 0 1
15.0408 8638 92.9408
15.1581 8981 94.7681
15.2755 9154 95.6765
15.3927 9116 95.4777
15.51 9284 96.3535
15.6273 9172 95.7706
15.7445 9108 95.4358
15.8617 8958 94.6467
15.9789 8783 93.7177
16.0961 8873 94.1966
16.2132 8702 93.2845
16.3304 8648 92.9946
16.4475 9008 94.9105
16.5646 9038 95.0684
16.6816 9310 96.4883
16.7986 9175 95.7862
16.9156 9199 95.9114
17.0326 9188 95.8541
17.1496 9097 95.3782
17.2665 9095 95.3677
17.3833 8774 93.6696
17.5002 8712 93.3381
17.617 8573 92.5905
17.7338 8610 92.7901
17.8505 8712 93.3381
17.9672 9080 95.289
18.0839 9442 97.17
18.2005 9919 99.5942
18.3171 9880 99.3982
18.4337 9943 99.7146
18.5502 10248 101.232
18.6666 10315 101.563
18.7831 10286 101.42
18.8994 10094 100.469
19.0158 9905 99.5239
19.1321 9738 98.6813
19.2483 9259 96.2237
19.3645 9124 95.5196
19.4806 8702 93.2845
19.5967 8269 90.934
19.7128 8329 91.2634
19.8288 8080 89.8888
19.9447 7437 86.238
20.0606 0 1
20.1764 0 1
20.2922 0 1
20.4079 0 1
20.5236 0 1
20.6392 0 1
20.7548 0 1
20.8702 0 1
23.3078 0 1
23.4233 0 1
23.539 0 1
23.6547 0 1
23.7704 0 1
23.8862 0 1
24.0021 0 1
24.118 0 1
24.234 0 1
24.35 0 1
24.4661 8756 93.5735
24.5822 8362 91.444
24.6984 8417 91.7442
24.8146 8220 90.6642
24.9309 8436 91.8477
25.0472 8471 92.038
25.1636 8610 92.7901
25.28 8940 94.5516
25.3965 9168 95.7497
25.513 9372 96.8091
25.6296 9676 98.3667
25.7462 9709 98.5343
25.8628 9622 98.0918
25.9795 9684 98.4073
26.0962 9429 97.103
26.213 8863 94.1435
26.3298 8828 93.9574
26.4466 8471 92.038
26.5635 8561 92.5257
26.6804 8913 94.4087
26.7973 9151 95.6609
26.9143 9200 95.9166
27.0313 9407 96.9897
27.1483 9637 98.1682
27.2653 9691 98.4429
27.3824 9783 98.909
27.4996 9797 98.9798
27.6167 9489 97.4115
27.7339 9616 98.0612
27.8511 9275 96.3068
27.9683 9258 96.2185
28.0855 8767 93.6323
28.2028 8767 93.6323
28.3201 8187 90.482
28.4374 8257 90.868
28.5547 8198 90.5428
28.6721 8536 92.3905
28.7894 8602 92.747
28.9068 8982 94.7734
29.0242 8961 94.6626
29.1416 9148 95.6452
29.259 9120 95.4987
29.3764 9036 95.0579
29.4939 8872 94.1913
29.6113 8684 93.188
29.7288 8377 91.526
29.8463 8085 89.9166
29.9638 8212 90.6201
30.0812 8159 90.3272
30.1987 8208 90.598
30.3162 8499 92.19
30.4337 8627 92.8816
30.5512 9132 95.5615
30.6687 9092 95.352
30.7862 9470 97.3139
30.9037 9283 96.3483
31.0212 9333 96.6075
31.1387 9196 95.8958
31.2562 9323 96.5557
31.3737 8918 94.4352
31.4912 9078 95.2785
31.6087 8785 93.7283
31.7262 8618 92.8332
31.8436 8352 91.3893
31.9611 8046 89.6995
32.0785 7953 89.1796
32.1959 8319 91.2086
32.3134 8287 91.033
32.4308 8491 92.1466
32.5482 8870 94.1807
32.6655 8800 93.8083
32.7829 8847 94.0585
32.9002 8798 93.7977
33.0176 8756 93.5735
33.1349 8776 93.6803
33.2522 8753 93.5575
33.3694 8233 90.7359
33.4867 8262 90.8955
33.6039 7926 89.0281
33.7211 7941 89.1123
33.8383 8032 89.6214
33.9554 8231 90.7249
34.0725 8312 91.1702
34.1896 8668 93.1021
34.3067 8785 93.7283
34.4237 8875 94.2072
34.5407 8801 93.8136
34.6577 9053 95.1473
34.7746 9008 94.9105
34.8915 8921 94.451
35.0084 9032 95.0368
35.1252 8675 93.1397
35.242 8604 92.7577
35.3587 8286 91.0275
35.4755 8162 90.3438
35.5921 7824 88.4534
35.7088 7636 87.3842
35.8254 7529 86.7698
35.9419 7699 87.7439
36.0584 7867 88.6961
36.1749 8223 90.6808
36.2913 8299 91.0988
36.4077 8395 91.6242
36.524 8328 91.2579
36.6403 8278 90.9835
36.7565 8355 91.4057
36.8727 8470 92.0326
36.9889 8151 90.2829
37.1049 7771 88.1533
37.221 0 1
37.3369 0 1
37.4529 0 1
37.5687 0 1
37.6845 0 1
37.8003 0 1
37.916 0 1
38.0316 0 1
38.1472 0 1
40.5851 0 1
40.7008 0 1
40.8164 0 1
40.9322 0 1
41.048 0 1
41.1639 0 1
41.2798 0 1
41.3958 0 1
41.5118 0 1
41.6279 0 1
41.744 6735 82.067
41.8602 7160 84.6168
41.9765 7187 84.7762
42.0928 7255 85.1763
42.2091 7181 84.7408
42.3255 7023 83.8033
42.4419 6707 81.8963
42.5584 6578 81.1049
42.675 6388 79.925
42.7915 6355 79.7183
42.9081 6658 81.5966
43.0248 6937 83.2887
43.1415 6933 83.2646
43.2582 6845 82.7345
43.375 7063 84.0417
43.4918 7004 83.6899
43.6087 7151 84.5636
43.7256 7195 84.8233
43.8425 7123 84.3979
43.9595 6975 83.5165
44.0765 6804 82.4864
44.1935 6486 80.5357
44.3106 6326 79.5362
44.4277 6128 78.2815
44.5448 5745 75.7958
44.6619 5490 74.0945
44.7791 5450 73.8241
44.8963 5478 74.0135
45.0136 5523 74.3169
45.1308 5643 75.1199
45.2481 5724 75.6571
45.3654 5850 76.4853
45.4827 5799 76.1512
45.6001 5576 74.6726
45.7174 5617 74.9466
45.8348 5565 74.5989
45.9522 5422 73.6342
46.0697 5236 72.3602
46.1871 5037 70.9718
46.3046 4795 69.2459
46.422 4918 70.1285
46.5395 5155 71.7983
46.657 5270 72.5948
46.7745 5443 73.7767
46.892 5446 73.797
47.0096 5508 74.2159
47.1271 5457 73.8715
47.2446 5431 73.6953
47.3622 5567 74.6123
47.4797 5316 72.9109
47.5973 5164 71.861
47.7149 5110 71.4843
47.8324 5108 71.4703
47.95 4863 69.7352
48.0675 4739 68.8404
48.1851 4381 66.1891
48.3027 4346 65.9242
48.4202 4399 66.325
48.5378 4530 67.3053
48.6554 4478 66.9179
48.7729 4828 69.4838
48.8904 4754 68.9493
49.008 5020 70.852
49.1255 5054 71.0915
49.243 4892 69.9428
49.3605 5146 71.7356
49.478 4876 69.8284
49.5955 4733 68.7968
49.713 4619 67.9632
49.8304 4573 67.624
49.9479 4600 67.8233
50.0653 4831 69.5054
50.1827 5010 70.7814
50.3001 5256 72.4983
50.4175 5370 73.2803
50.5348 5642 75.1132
50.6521 5693 75.452
50.7694 5788 76.0789
50.8867 5968 77.2528
51.004 5945 77.1038
51.1212 6097 78.0833
51.2384 6053 77.801
51.3556 5996 77.4338
51.4727 6068 77.8974
51.5899 6154 78.4474
51.707 5955 77.1686
51.824 5703 75.5182
51.9411 5856 76.5245
52.0581 6062 77.8588
52.175 6189 78.6702
52.2919 6823 82.6015
52.4088 7017 83.7675
52.5257 7008 83.7138
52.6425 7081 84.1487
52.7593 7441 86.2612
52.876 7477 86.4696
52.9927 7420 86.1394
53.1094 7348 85.7205
53.226 7134 84.463
53.3426 6802 82.4742
53.4591 6613 81.3204
53.5756 6837 82.6862
53.692 7248 85.1352
53.8084 7665 87.55
53.9248 7857 88.6397
54.0411 7965 89.2468
54.1573 8188 90.4876
54.2735 0 1
54.3896 0 1
54.5057 0 1
54.6217 0 1
54.7377 0 1
54.8537 0 1
54.9695 0 1
55.0853 0 1
55.2011 0 1
55.3168 0 1
55.4324 0 1
57.824 0 1
57.9396 0 1
58.0553 0 1
58.1711 0 1
58.2869 0 1
58.4028 0 1
58.5187 0 1
58.6347 0 1
58.7508 0 1
58.8669 0 1
58.983 8961 94.6626
59.0992 9713 98.5546
59.2155 9869 99.3428
59.3318 10134 100.668
59.4482 10280 101.39
59.5646 10432 102.137
59.681 10554 102.733
59.7975 10528 102.606
59.9141 10412 102.039
60.0306 10295 101.464
60.1473 9986 99.93
60.2639 10046 100.23
60.3807 9488 97.4064
60.4974 9069 95.2313
60.6142 8720 93.3809
60.731 8573 92.5905
60.8479 8844 94.0425
60.9648 9132 95.5615
61.0818 9333 96.6075
61.1987 9556 97.7548
61.3158 9858 99.2875
61.4328 9782 98.904
61.5499 10038 100.19
61.667 10074 100.369
61.7841 9555 97.7497
61.9013 9282 96.3431
62.0185 8639 92.9462
62.1357 8441 91.8749
62.253 8294 91.0714
62.3702 8677 93.1504
62.4875 9085 95.3153
62.6049 9330 96.5919
62.7222 9134 95.572
62.8396 9505 97.4936
62.9569 9514 97.5397
63.0743 9433 97.1236
63.1918 9663 98.3006
63.3092 9525 97.5961
63.4267 9556 97.7548
63.5441 9248 96.1665
63.6616 9240 96.1249
63.7791 9018 94.9632
63.8966 8902 94.3504
64.0142 8259 90.879
64.1317 7877 88.7525
64.2492 7845 88.572
64.3668 8052 89.7329
64.4843 8274 90.9615
64.6019 8511 92.2551
64.7195 8639 92.9462
64.837 8940 94.5516
64.9546 8931 94.504
65.0722 9299 96.4313
65.1898 9203 95.9323
65.3074 9054 95.1525
65.4249 8841 94.0266
65.5425 8544 92.4338
65.6601 8186 90.4765
65.7777 7738 87.9659
65.8952 7899 88.8763
66.0128 8358 91.4221
66.1304 8561 92.5257
66.2479 8742 93.4987
66.3655 8901 94.3451
66.483 9176 95.7914
66.6005 9258 96.2185
66.718 9430 97.1082
66.8355 9353 96.7109
66.953 9380 96.8504
67.0705 9338 96.6333
67.1879 9388 96.8917
67.3054 9243 96.1405
67.4228 9177 95.7967
67.5402 8911 94.3981
67.6576 8578 92.6175
67.7749 8165 90.3604
67.8923 8058 89.7664
68.0096 7910 88.9382
68.1269 8271 90.945
68.2442 8717 93.3649
68.3614 8911 94.3981
68.4787 9214 95.9896
68.5958 9380 96.8504
68.713 9689 98.4327
68.8302 9831 99.1514
68.9473 9919 99.5942
69.0643 9456 97.242
69.1814 9217 96.0052
69.2984 8808 93.8509
69.4154 8248 90.8185
69.5323 8220 90.6642
69.6492 8698 93.2631
69.7661 9266 96.2601
69.8829 9578 97.8673
69.9997 9722 98.6002
70.1165 9804 99.0152
70.2332 9849 99.2421
70.3499 10084 100.419
70.4665 10189 100.941
70.5831 10273 101.356
70.6996 10153 100.762
70.8161 10203 101.01
70.9326 10002 100.01
71.049 9879 99.3932
71.1653 9541 97.678
71.2817 9367 96.7833
71.3979 8829 93.9628
71.5141 8248 90.8185
71.6303 7873 88.7299
71.7464 7705 87.7781
71.8624 0 1
71.9784 0 1
72.0944 0 1
72.2102 0 1
72.3261 0 1
72.4418 0 1
72.5575 0 1
72.6732 0 1
75.1054 0 1
75.2209 0 1
75.3365 0 1
75.4521 0 1
75.5678 0 1
75.6835 0 1
75.7993 0 1
75.9151 0 1
76.031 0 1
76.147 9091 95.3467
76.263 9660 98.2853
76.3791 9617 98.0663
76.4952 9436 97.1391
76.6113 8958 94.6467
76.7276 8681 93.1719
76.8438 8280 90.9945
76.9601 8419 91.7551
77.0765 8946 94.5833
77.1929 8932 94.5093
77.3093 9352 96.7057
77.4258 9702 98.4987
77.5423 10006 100.03
77.6589 10075 100.374
77.7755 10428 102.118
77.8921 10056 100.28
78.0088 9834 99.1665
78.1256 9314 96.5091
78.2423 8902 94.3504
78.3591 8453 91.9402
78.4759 8096 89.9778
78.5928 8404 91.6733
78.7097 8768 93.6376
78.8266 9028 95.0158
78.9436 9719 98.585
79.0606 9637 98.1682
79.1776 9997 99.985
79.2946 10190 100.946
79.4117 10116 100.578
79.5288 10162 100.807
79.6459 10281 101.395
79.7631 10093 100.464
79.8802 10132 100.658
79.9974 9862 99.3076
80.1147 9965 99.8248
80.2319 9402 96.9639
80.3491 8811 93.8669
80.4664 8356 91.4112
80.5837 8491 92.1466
80.701 8831 93.9734
80.8183 9170 95.7601
80.9357 9364 96.7678
81.053 9599 97.9745
81.1704 9752 98.7522
81.2877 10027 100.135
81.4051 10281 101.395
81.5225 10356 101.764
81.6399 9836 99.1766
81.7573 9851 99.2522
81.8747 9112 95.4568
81.9922 8733 93.4505
82.1096 8040 89.666
82.227 8331 91.2743
82.3444 8679 93.1612
82.4619 9260 96.2289
82.5793 9945 99.7246
82.6967 9672 98.3463
82.8142 10197 100.98
82.9316 10046 100.23
83.049 10082 100.409
83.1664 10088 100.439
83.2838 10138 100.688
83.4012 10216 101.074
83.5186 10113 100.563
83.636 10103 100.514
83.7534 9716 98.5698
83.8708 9662 98.2955
83.9881 8973 94.7259
84.1055 8619 92.8386
84.2228 8746 93.5201
84.3401 8764 93.6162
84.4575 8980 94.7629
84.5747 9438 97.1494
84.692 9780 98.8939
84.8093 10266 101.321
84.9265 10537 102.65
85.0437 10721 103.542
85.1609 10494 102.44
85.2781 10371 101.838
85.3952 9711 98.5444
85.5123 9163 95.7236
85.6294 8751 93.5468
85.7465 8327 91.2524
85.8636 8761 93.6002
85.9806 9405 96.9794
86.0976 9885 99.4233
86.2145 10235 101.168
86.3315 10216 101.074
86.4484 11027 105.01
86.5652 10815 103.995
86.682 11047 105.105
86.7988 11033 105.038
86.9156 10905 104.427
87.0323 10937 104.58
87.149 10836 104.096
87.2657 10789 103.87
87.3823 10539 102.66
87.4988 10185 100.921
87.6154 9244 96.1457
87.7318 9243 96.1405
87.8483 9231 96.0781
87.9647 9470 97.3139
88.081 9834 99.1665
88.1973 10380 101.882
88.3136 10588 102.898
88.4298 10759 103.726
88.546 11146 105.575
88.6621 11070 105.214
88.7781 11107 105.39
88.8942 0 1
89.0101 0 1
89.126 0 1
89.2419 0 1
89.3577 0 1
89.4734 0 1
89.5891 0 1
89.7047 0 1
89.8203 0 1
89.9358 0 1
92.3269 0 1
92.4424 0 1
92.558 0 1
92.6736 0 1
92.7893 0 1
92.905 0 1
93.0208 0 1
93.1366 0 1
93.2525 0 1
93.3685 0 1
93.4845 0 1
93.6005 10189 100.941
93.7167 10253 101.257
93.8328 10457 102.259
93.949 10594 102.927
94.0653 10523 102.582
94.1816 10226 101.124
94.2979 9656 98.2649
94.4143 9022 94.9842
94.5307 8770 93.6483
94.6472 8291 91.0549
94.7637 8548 92.4554
94.8803 9172 95.7706
94.9969 9438 97.1494
95.1135 9798 98.9848
95.2302 10116 100.578
95.3469 9993 99.965
95.4637 10359 101.779
95.5805 10484 102.391
95.6973 10626 103.082
95.8142 10519 102.562
95.9311 10687 103.378
96.048 10574 102.83
96.1649 10595 102.932
96.2819 10460 102.274
96.3989 10234 101.163
96.516 9695 98.4632
96.633 9228 96.0625
96.7501 8803 93.8243
96.8673 8877 94.2178
96.9844 8793 93.771
97.1016 9318 96.5298
97.2188 9420 97.0567
97.336 9901 99.5038
97.4532 10069 100.344
97.5704 10378 101.872
97.6877 10271 101.346
97.805 10329 101.632
97.9223 9975 99.8749
98.0396 9707 98.5241
98.1569 9005 94.8947
98.2743 8465 92.0054
98.3916 8429 91.8096
98.509 8676 93.145
98.6264 9023 94.9895
98.7438 9332 96.6023
98.8612 9787 98.9293
98.9786 9905 99.5239
99.096 9993 99.965
99.2134 10211 101.049
99.3308 10072 100.359
99.4482 10275 101.366
99.5656 10224 101.114
99.6831 10120 100.598
99.8005 9938 99.6895
99.9179 9934 99.6695
100.035 9756 98.7725
100.153 9362 96.7574
100.27 8842 94.0319
100.388 8509 92.2442
100.505 8639 92.9462
100.622 8972 94.7206
100.74 9131 95.5563
100.857 9312 96.4987
100.975 9658 98.2751
101.092 9948 99.7397
101.209 10431 102.132
101.327 10573 102.825
101.444 10494 102.44
101.561 10031 100.155
101.679 9696 98.4683
101.796 8972 94.7206
101.913 8418 91.7497
102.03 8539 92.4067
102.148 8892 94.2974
102.265 8999 94.8631
102.382 10392 101.941
102.499 10200 100.995
102.616 10308 101.528
102.733 10559 102.757
102.851 10771 103.783
102.968 10680 103.344
103.085 10957 104.676
103.202 11038 105.062
103.319 10627 103.087
103.436 10472 102.333
103.552 10742 103.644
103.669 10119 100.593
103.786 9677 98.3717
103.903 9339 96.6385
104.02 9304 96.4572
104.137 9468 97.3036
104.253 9638 98.1733
104.37 10105 100.524
104.487 10396 101.961
104.603 10961 104.695
104.72 10974 104.757
104.836 11364 106.602
104.953 11127 105.485
105.069 10680 103.344
105.186 10049 100.245
105.302 9453 97.2265
105.418 8890 94.2868
105.535 9009 94.9158
105.651 9513 97.5346
105.767 9977 99.8849
105.883 10362 101.794
105.999 10477 102.357
106.115 0 1
106.231 0 1
106.347 0 1
106.463 0 1
106.579 0 1
106.694 0 1
106.81 0 1
106.926 0 1
107.041 0 1
107.157 0 1
109.576 0 1
109.692 0 1
109.807 0 1
109.923 0 1
110.039 0 1
110.155 0 1
110.27 0 1
110.386 0 1
110.502 0 1
110.618 7713 87.8237
110.735 8654 93.0269
110.851 9000 94.8683
110.967 9343 96.6592
111.083 9368 96.7884
111.199 9770 98.8433
111.316 9994 99.97
111.432 10044 100.22
111.549 10024 100.12
111.665 9894 99.4686
111.782 9773 98.8585
111.898 9658 98.2751
112.015 9520 97.5705
112.132 9204 95.9375
112.248 8841 94.0266
112.365 8404 91.6733
112.482 8197 90.5373
112.599 7914 88.9607
112.716 8134 90.1887
112.832 8255 90.857
112.949 8392 91.6079
113.066 8771 93.6536
113.183 9127 95.5353
113.3 9118 95.4882
113.417 9178 95.8019
113.534 9016 94.9526
113.652 8795 93.7817
113.769 8294 91.0714
113.886 7856 88.6341
114.003 7237 85.0706
114.12 7230 85.0294
114.238 7550 86.8907
114.355 7846 88.5776
114.472 8358 91.4221
114.589 8196 90.5318
114.707 8423 91.7769
114.824 8182 90.4544
114.942 8398 91.6406
115.059 8630 92.8978
115.176 8263 90.901
115.294 8115 90.0833
115.411 8045 89.6939
115.529 7834 88.5099
115.646 7697 87.7325
115.764 7314 85.5219
115.881 7117 84.3623
115.999 6827 82.6257
116.116 6496 80.5978
116.234 6476 80.4736
116.351 6658 81.5966
116.469 6753 82.1766
116.586 7016 83.7616
116.704 7035 83.8749
116.821 7263 85.2232
116.939 7392 85.9767
117.056 7578 87.0517
117.174 7340 85.6738
117.291 7037 83.8868
117.409 6518 80.7341
117.526 6301 79.3788
117.644 5965 77.2334
117.761 5979 77.324
117.879 6473 80.455
117.996 6794 82.4257
118.114 6839 82.6982
118.231 7069 84.0773
118.349 7087 84.1843
118.466 7261 85.2115
118.584 7407 86.0639
118.701 7383 85.9244
118.819 7213 84.9294
118.936 7219 84.9647
119.053 7141 84.5044
119.171 7075 84.113
119.288 7087 84.1843
119.405 6814 82.547
119.523 6810 82.5227
119.64 6537 80.8517
119.757 6386 79.9125
119.875 6338 79.6116
119.992 6738 82.0853
120.109 6951 83.3727
120.226 7224 84.9941
120.343 7299 85.4342
120.46 7596 87.155
120.578 7703 87.7667
120.695 7777 88.1873
120.812 8095 89.9722
120.929 7780 88.2043
121.046 7141 84.5044
121.163 7077 84.1249
121.279 6653 81.5659
121.396 6821 82.5893
121.513 7136 84.4748
121.63 7563 86.9655
121.747 7776 88.1816
121.863 8171 90.3936
121.98 8354 91.4002
122.097 8329 91.2634
122.213 8557 92.5041
122.33 8543 92.4284
122.446 8662 93.0699
122.563 8598 92.7254
122.679 8539 92.4067
122.795 8637 92.9355
122.912 8350 91.3783
123.028 8291 91.0549
123.144 7895 88.8538
123.26 7668 87.5671
123.377 0 1
123.493 0 1
123.609 0 1
123.725 0 1
123.84 0 1
123.956 0 1
124.072 0 1
124.188 0 1
124.303 0 1
124.419 0 1
126.852 0 1
126.968 0 1
127.083 0 1
127.199 0 1
127.315 0 1
127.431 0 1
127.547 0 1
127.663 0 1
127.779 0 1
127.895 0 1
128.011 0 1
128.127 0 1
128.243 0 1
128.359 9822 99.106
128.476 9348 96.6851
128.592 9267 96.2653
128.708 8928 94.4881
128.825 8828 93.9574
128.941 8862 94.1382
129.058 9042 95.0894
129.174 9228 96.0625
129.291 9548 97.7139
129.408 9972 99.8599
129.524 10079 100.394
129.641 10102 100.509
129.758 10197 100.98
129.875 10099 100.494
129.992 9664 98.3056
130.108 9087 95.3258
130.225 8629 92.8924
130.342 8281 91
130.459 8094 89.9667
130.576 8546 92.4446
130.693 9010 94.921
130.81 9462 97.2728
130.928 9518 97.5602
131.045 9676 98.3667
131.162 9856 99.2774
131.279 9895 99.4736
131.396 9941 99.7046
131.513 9880 99.3982
131.631 9862 99.3076
131.748 9731 98.6458
131.865 9339 96.6385
131.983 9105 95.4201
132.1 8955 94.6309
132.217 8717 93.3649
132.335 8359 91.4276
132.452 8403 91.6679
132.57 8589 92.6769
132.687 8643 92.9677
132.804 9282 96.3431
132.922 9327 96.5764
133.039 9482 97.3756
133.157 9407 96.9897
133.274 9655 98.2599
133.392 9577 97.8621
133.509 9340 96.6437
133.627 8850 94.0744
133.744 8376 91.5205
133.862 8080 89.8888
133.979 7981 89.3364
134.097 8170 90.3881
134.214 8505 92.2226
134.332 8464 92
134.449 8811 93.8669
134.567 9011 94.9263
134.684 9119 95.4935
134.802 9210 95.9687
134.919 9080 95.289
135.037 9064 95.205
135.154 8979 94.7576
135.272 8549 92.4608
135.389 8436 91.8477
135.507 8248 90.8185
135.624 7961 89.2244
135.742 7706 87.7838
135.859 7234 85.0529
135.977 7144 84.5222
136.094 7221 84.9765
136.211 7227 85.0118
136.329 7459 86.3655
136.446 7770 88.1476
136.564 7666 87.5557
136.681 7786 88.2383
136.798 7954 89.1852
136.915 7941 89.1123
137.033 7803 88.3346
137.15 7590 87.1206
137.267 7122 84.3919
137.384 7068 84.0714
137.502 6568 81.0432
137.619 6742 82.1097
137.736 6962 83.4386
137.853 7249 85.1411
137.97 7562 86.9598
138.087 7952 89.174
138.204 8132 90.1776
138.321 8151 90.2829
138.438 8285 91.022
138.555 8540 92.4121
138.672 8458 91.9674
138.788 8555 92.4932
138.905 8629 92.8924
139.022 8534 92.3797
139.139 8311 91.1647
139.255 8344 91.3455
139.372 8030 89.6103
139.488 7953 89.1796
139.605 7879 88.7637
139.721 7975 89.3029
139.838 8358 91.4221
139.954 8844 94.0425
140.071 8723 93.397
140.187 9213 95.9844
140.303 9276 96.312
140.419 9440 97.1597
140.535 9373 96.8143
140.652 9304 96.4572
140.768 0 1
140.884 0 1
141 0 1
141.115 0 1
141.231 0 1
141.347 0 1
141.463 0 1
141.578 0 1
141.694 0 1
144.104 0 1
144.219 0 1
144.335 0 1
144.45 0 1
144.566 0 1
144.682 0 1
144.798 0 1
144.914 0 1
145.03 0 1
145.146 13894 117.873
145.262 15228 123.402
145.378 16143 127.055
145.494 16906 130.023
145.61 17412 131.955
145.726 18319 135.348
145.842 18660 136.602
145.959 18739 136.89
146.075 18200 134.907
146.192 18024 134.253
146.308 18006 134.186
146.425 19115 138.257
146.541 19994 141.4
146.658 21785 147.597
146.774 22831 151.099
146.891 24195 155.547
147.008 24979 158.047
147.125 25903 160.944
147.241 26829 163.796
147.358 27424 165.602
147.475 27294 165.209
147.592 27129 164.709
147.709 27200 164.924
147.826 26601 163.098
147.943 26394 162.462
148.06 25337 159.176
148.177 25230 158.84
148.294 24406 156.224
148.411 24705 157.178
148.528 25244 158.884
148.645 26044 161.382
148.762 26795 163.692
148.88 27010 164.347
148.997 28335 168.33
149.114 25622 160.069
149.231 27062 164.505
149.349 26452 162.641
149.466 26525 162.865
149.583 24865 157.686
149.701 23097 151.977
149.818 22394 149.646
149.935 21331 146.051
150.053 21761 147.516
150.17 22662 150.539
150.287 23708 153.974
150.405 24244 155.705
150.522 25049 158.269
150.64 25496 159.675
150.757 25837 160.739
150.875 26619 163.153
150.992 26128 161.642
151.11 26661 163.282
151.227 26252 162.025
151.344 25606 160.019
151.462 25062 158.31
151.579 24879 157.731
151.697 24781 157.42
151.814 24227 155.65
151.932 23577 153.548
152.049 24281 155.824
152.167 24920 157.861
152.284 26046 161.388
152.402 27157 164.794
152.519 27768 166.637
152.636 28562 169.003
152.754 28691 169.384
152.871 28862 169.888
152.989 28808 169.729
153.106 27708 166.457
153.223 26516 162.837
153.341 24808 157.506
153.458 23938 154.719
153.575 23912 154.635
153.693 24367 156.099
153.81 25680 160.25
153.927 26752 163.56
154.044 27687 166.394
154.162 28256 168.095
154.279 29303 171.181
154.396 30308 174.092
154.513 30809 175.525
154.63 31611 177.795
154.747 31239 176.746
154.864 31280 176.862
154.981 30667 175.12
155.098 30619 174.983
155.215 30348 174.207
155.332 29716 172.383
155.449 29414 171.505
155.566 28979 170.232
155.683 29650 172.192
155.8 30588 174.894
155.917 32095 179.151
156.033 33136 182.033
156.15 0 1
156.267 0 1
156.383 0 1
156.5 0 1
156.617 0 1
156.733 0 1
156.85 0 1
156.966 0 1
157.082 0 1
157.199 0 1
157.315 0 1
157.431 0 1
157.547 0 1
157.664 0 1
157.78 0 1
157.896 0 1
158.012 0 1
158.128 0 1
158.244 0 1
158.359 0 1
158.475 0 1
158.591 0 1
158.706 0 1
