
6.15755 0 1
6.2731 0 1
6.3887 0 1
6.50437 0 1
6.62009 0 1
6.73587 0 1
6.8517 0 1
6.96759 0 1
7.08353 0 1
7.19952 0 1
7.31557 0 1
7.43166 0 1
7.54781 0 1
7.664 0 1
7.78024 0 1
7.89653 0 1
8.01286 0 1
8.12924 0 1
8.24567 0 1
8.36213 0 1
8.47864 0 1
8.59519 0 1
8.71178 0 1
8.82841 0 1
8.94508 0 1
9.06179 0 1
9.17853 0 1
9.29531 0 1
9.41212 0 1
9.52897 0 1
9.64584 0 1
9.76276 0 1
9.8797 0 1
9.99667 0 1
10.1137 0 1
10.2307 0 1
10.3478 0 1
10.4648 0 1
10.5819 0 1
10.6991 0 1
10.8162 0 1
10.9334 0 1
11.0506 0 1
11.1678 0 1
11.285 0 1
11.4023 0 1
11.5196 0 1
11.6369 0 1
11.7542 0 1
11.8715 0 1
11.9888 0 1
12.1062 0 1
12.2235 0 1
12.3409 0 1
12.4582 0 1
12.5756 0 1
12.693 0 1
12.8104 0 1
12.9278 0 1
13.0452 0 1
13.1626 0 1
13.28 0 1
13.3974 0 1
13.5149 0 1
13.6323 0 1
13.7497 0 1
13.8671 0 1
13.9845 0 1
14.1019 0 1
14.2193 0 1
14.3367 0 1
14.4541 0 1
14.5714 0 1
14.6888 0 1
14.8062 0 1
14.9235 0 1
15.0408 0 0
15.1581 0 0
15.2755 0 0
15.3927 0 0
15.51 0 0
15.6273 0 0
15.7445 0 0
15.8617 0 0
15.9789 0 0
16.0961 0 0
16.2132 0 0
16.3304 0 0
16.4475 0 0
16.5646 0 0
16.6816 0 0
16.7986 0 0
16.9156 0 0
17.0326 0 0
17.1496 0 0
17.2665 0 0
17.3833 0 0
17.5002 0 0
17.617 0 0
17.7338 0 0
17.8505 0 0
17.9672 0 0
18.0839 0 0
18.2005 0 0
18.3171 0 0
18.4337 0 0
18.5502 0 0
18.6666 0 0
18.7831 0 0
18.8994 0 0
19.0158 0 0
19.1321 0 0
19.2483 0 0
19.3645 0 0
19.4806 0 0
19.5967 0 0
19.7128 0 0
19.8288 0 0
19.9447 0 0
20.0606 0 1
20.1764 0 1
20.2922 0 1
20.4079 0 1
20.5236 0 1
20.6392 0 1
20.7548 0 1
20.8702 0 1
23.3078 0 1
23.4233 0 1
23.539 0 1
23.6547 0 1
23.7704 0 1
23.8862 0 1
24.0021 0 1
24.118 0 1
24.234 0 1
24.35 0 1
24.4661 1220 34.9285
24.5822 1205 34.7131
24.6984 1205 34.7131
24.8146 1187 34.4529
24.9309 1151 33.9264
25.0472 1177 34.3074
25.1636 1136 33.7046
25.28 1187 34.4529
25.3965 1258 35.4683
25.513 1216 34.8712
25.6296 1244 35.2704
25.7462 1314 36.2491
25.8628 1331 36.4829
25.9795 1367 36.973
26.0962 1395 37.3497
26.213 1429 37.8021
26.3298 1442 37.9737
26.4466 1417 37.6431
26.5635 1320 36.3318
26.6804 1296 36
26.7973 1250 35.3553
26.9143 1289 35.9026
27.0313 1275 35.7071
27.1483 1356 36.8239
27.2653 1409 37.5366
27.3824 1370 37.0135
27.4996 1399 37.4032
27.6167 1438 37.921
27.7339 1350 36.7423
27.8511 1309 36.1801
27.9683 1367 36.973
28.0855 1273 35.6791
28.2028 1268 35.609
28.3201 1207 34.7419
28.4374 1249 35.3412
28.5547 1211 34.7994
28.6721 1111 33.3317
28.7894 1198 34.6121
28.9068 1127 33.5708
29.0242 1165 34.1321
29.1416 1152 33.9411
29.259 1218 34.8999
29.3764 1261 35.5106
29.4939 1257 35.4542
29.6113 1256 35.4401
29.7288 1285 35.8469
29.8463 1296 36
29.9638 1327 36.428
30.0812 1254 35.4119
30.1987 1136 33.7046
30.3162 1232 35.0999
30.4337 1183 34.3948
30.5512 1249 35.3412
30.6687 1332 36.4966
30.7862 1321 36.3456
30.9037 1320 36.3318
31.0212 1369 37
31.1387 1334 36.524
31.2562 1313 36.2353
31.3737 1363 36.9188
31.4912 1369 37
31.6087 1236 35.1568
31.7262 1229 35.0571
31.8436 1247 35.3129
31.9611 1170 34.2053
32.0785 1114 33.3766
32.1959 1115 33.3916
32.3134 1136 33.7046
32.4308 1175 34.2783
32.5482 1140 33.7639
32.6655 1162 34.0881
32.7829 1226 35.0143
32.9002 1288 35.8887
33.0176 1320 36.3318
33.1349 1203 34.6843
33.2522 1272 35.6651
33.3694 1246 35.2987
33.4867 1252 35.3836
33.6039 1241 35.2278
33.7211 1197 34.5977
33.8383 1179 34.3366
33.9554 1178 34.322
34.0725 1161 34.0735
34.1896 1234 35.1283
34.3067 1197 34.5977
34.4237 1279 35.7631
34.5407 1256 35.4401
34.6577 1320 36.3318
34.7746 1270 35.6371
34.8915 1346 36.6879
35.0084 1298 36.0278
35.1252 1321 36.3456
35.242 1317 36.2905
35.3587 1192 34.5254
35.4755 1229 35.0571
35.5921 1141 33.7787
35.7088 1122 33.4963
35.8254 1147 33.8674
35.9419 1070 32.7109
36.0584 1019 31.9218
36.1749 1046 32.3419
36.2913 1051 32.4191
36.4077 1163 34.1028
36.524 1168 34.176
36.6403 1214 34.8425
36.7565 1273 35.6791
36.8727 1197 34.5977
36.9889 1186 34.4384
37.1049 1243 35.2562
37.221 0 1
37.3369 0 1
37.4529 0 1
37.5687 0 1
37.6845 0 1
37.8003 0 1
37.916 0 1
38.0316 0 1
38.1472 0 1
40.5851 0 1
40.7008 0 1
40.8164 0 1
40.9322 0 1
41.048 0 1
41.1639 0 1
41.2798 0 1
41.3958 0 1
41.5118 0 1
41.6279 0 1
41.744 861 29.3428
41.8602 942 30.692
41.9765 1001 31.6386
42.0928 1002 31.6544
42.2091 1004 31.686
42.3255 993 31.5119
42.4419 1015 31.8591
42.5584 967 31.0966
42.675 897 29.95
42.7915 892 29.8664
42.9081 901 30.0167
43.0248 916 30.2655
43.1415 985 31.3847
43.2582 974 31.209
43.375 1015 31.8591
43.4918 991 31.4802
43.6087 1001 31.6386
43.7256 1010 31.7805
43.8425 997 31.5753
43.9595 1013 31.8277
44.0765 967 31.0966
44.1935 936 30.5941
44.3106 859 29.3087
44.4277 876 29.5973
44.5448 799 28.2666
44.6619 695 26.3629
44.7791 741 27.2213
44.8963 652 25.5343
45.0136 746 27.313
45.1308 758 27.5318
45.2481 715 26.7395
45.3654 778 27.8927
45.4827 795 28.1957
45.6001 818 28.6007
45.7174 726 26.9444
45.8348 808 28.4253
45.9522 756 27.4955
46.0697 723 26.8887
46.1871 669 25.865
46.3046 637 25.2389
46.422 644 25.3772
46.5395 708 26.6083
46.657 666 25.807
46.7745 691 26.2869
46.892 808 28.4253
47.0096 761 27.5862
47.1271 752 27.4226
47.2446 775 27.8388
47.3622 710 26.6458
47.4797 701 26.4764
47.5973 746 27.313
47.7149 700 26.4575
47.8324 691 26.2869
47.95 661 25.7099
48.0675 565 23.7697
48.1851 534 23.1084
48.3027 494 22.2261
48.4202 562 23.7065
48.5378 572 23.9165
48.6554 526 22.9347
48.7729 595 24.3926
48.8904 643 25.3574
49.008 617 24.8395
49.1255 627 25.04
49.243 591 24.3105
49.3605 614 24.779
49.478 593 24.3516
49.5955 557 23.6008
49.713 562 23.7065
49.8304 522 22.8473
49.9479 526 22.9347
50.0653 563 23.7276
50.1827 594 24.3721
50.3001 682 26.1151
50.4175 693 26.3249
50.5348 705 26.5518
50.6521 691 26.2869
50.7694 769 27.7308
50.8867 762 27.6043
51.004 801 28.3019
51.1212 755 27.4773
51.2384 814 28.5307
51.3556 820 28.6356
51.4727 851 29.1719
51.5899 752 27.4226
51.707 726 26.9444
51.824 695 26.3629
51.9411 749 27.3679
52.0581 751 27.4044
52.175 785 28.0179
52.2919 811 28.4781
52.4088 817 28.5832
52.5257 913 30.2159
52.6425 963 31.0322
52.7593 973 31.1929
52.876 947 30.7734
52.9927 978 31.273
53.1094 967 31.0966
53.226 915 30.249
53.3426 860 29.3258
53.4591 860 29.3258
53.5756 884 29.7321
53.692 958 30.9516
53.8084 984 31.3688
53.9248 1097 33.121
54.0411 1105 33.2415
54.1573 1191 34.5109
54.2735 0 1
54.3896 0 1
54.5057 0 1
54.6217 0 1
54.7377 0 1
54.8537 0 1
54.9695 0 1
55.0853 0 1
55.2011 0 1
55.3168 0 1
55.4324 0 1
57.824 0 1
57.9396 0 1
58.0553 0 1
58.1711 0 1
58.2869 0 1
58.4028 0 1
58.5187 0 1
58.6347 0 1
58.7508 0 1
58.8669 0 1
58.983 1284 35.8329
59.0992 1347 36.7015
59.2155 1396 37.3631
59.3318 1453 38.1182
59.4482 1514 38.9102
59.5646 1425 37.7492
59.681 1439 37.9342
59.7975 1390 37.2827
59.9141 1376 37.0945
60.0306 1394 37.3363
60.1473 1299 36.0416
60.2639 1221 34.9428
60.3807 1126 33.5559
60.4974 1087 32.9697
60.6142 1093 33.0606
60.731 1104 33.2265
60.8479 1080 32.8634
60.9648 1211 34.7994
61.0818 1212 34.8138
61.1987 1332 36.4966
61.3158 1271 35.6511
61.4328 1237 35.171
61.5499 1251 35.3695
61.667 1166 34.1467
61.7841 1087 32.9697
61.9013 1063 32.6037
62.0185 1008 31.749
62.1357 1034 32.1559
62.253 1148 33.8821
62.3702 1238 35.1852
62.4875 1272 35.6651
62.6049 1301 36.0694
62.7222 1257 35.4542
62.8396 1353 36.7831
62.9569 1359 36.8646
63.0743 1367 36.973
63.1918 1356 36.8239
63.3092 1315 36.2629
63.4267 1319 36.318
63.5441 1233 35.1141
63.6616 1115 33.3916
63.7791 1108 33.2866
63.8966 972 31.1769
64.0142 1018 31.9061
64.1317 915 30.249
64.2492 986 31.4006
64.3668 1061 32.573
64.4843 1043 32.2955
64.6019 1092 33.0454
64.7195 1152 33.9411
64.837 1058 32.5269
64.9546 1139 33.7491
65.0722 1093 33.0606
65.1898 1094 33.0757
65.3074 960 30.9839
65.4249 862 29.3598
65.5425 830 28.8097
65.6601 892 29.8664
65.7777 979 31.289
65.8952 1036 32.187
66.0128 1087 32.9697
66.1304 1092 33.0454
66.2479 1170 34.2053
66.3655 1215 34.8569
66.483 1278 35.7491
66.6005 1231 35.0856
66.718 1237 35.171
66.8355 1181 34.3657
66.953 1203 34.6843
67.0705 1124 33.5261
67.1879 1117 33.4215
67.3054 1008 31.749
67.4228 959 30.9677
67.5402 847 29.1033
67.6576 893 29.8831
67.7749 836 28.9137
67.8923 847 29.1033
68.0096 928 30.4631
68.1269 954 30.8869
68.2442 1035 32.1714
68.3614 1080 32.8634
68.4787 1095 33.0908
68.5958 1093 33.0606
68.713 1079 32.8481
68.8302 941 30.6757
68.9473 905 30.0832
69.0643 895 29.9166
69.1814 868 29.4618
69.2984 862 29.3598
69.4154 1018 31.9061
69.5323 1036 32.187
69.6492 1061 32.573
69.7661 1206 34.7275
69.8829 1288 35.8887
69.9997 1191 34.5109
70.1165 1285 35.8469
70.2332 1357 36.8375
70.3499 1376 37.0945
70.4665 1226 35.0143
70.5831 1256 35.4401
70.6996 1197 34.5977
70.8161 1163 34.1028
70.9326 1104 33.2265
71.049 1120 33.4664
71.1653 1002 31.6544
71.2817 863 29.3769
71.3979 929 30.4795
71.5141 888 29.7993
71.6303 882 29.6985
71.7464 882 29.6985
71.8624 0 1
71.9784 0 1
72.0944 0 1
72.2102 0 1
72.3261 0 1
72.4418 0 1
72.5575 0 1
72.6732 0 1
75.1054 0 1
75.2209 0 1
75.3365 0 1
75.4521 0 1
75.5678 0 1
75.6835 0 1
75.7993 0 1
75.9151 0 1
76.031 0 1
76.147 1118 33.4365
76.263 1158 34.0294
76.3791 1062 32.5883
76.4952 983 31.3528
76.6113 955 30.9031
76.7276 940 30.6594
76.8438 966 31.0805
76.9601 993 31.5119
77.0765 1000 31.6228
77.1929 1063 32.6037
77.3093 1117 33.4215
77.4258 1208 34.7563
77.5423 1185 34.4238
77.6589 1153 33.9559
77.7755 1044 32.311
77.8921 976 31.241
78.0088 878 29.6311
78.1256 867 29.4449
78.2423 821 28.6531
78.3591 844 29.0517
78.4759 991 31.4802
78.5928 1047 32.3574
78.7097 1174 34.2637
78.8266 1176 34.2929
78.9436 1243 35.2562
79.0606 1206 34.7275
79.1776 1291 35.9305
79.2946 1246 35.2987
79.4117 1318 36.3043
79.5288 1268 35.609
79.6459 1275 35.7071
79.7631 1189 34.4819
79.8802 1115 33.3916
79.9974 1054 32.4654
80.1147 931 30.5123
80.2319 921 30.348
80.3491 824 28.7054
80.4664 863 29.3769
80.5837 893 29.8831
80.701 997 31.5753
80.8183 1010 31.7805
80.9357 1022 31.9687
81.053 1002 31.6544
81.1704 1099 33.1512
81.2877 1048 32.3728
81.4051 1056 32.4962
81.5225 888 29.7993
81.6399 814 28.5307
81.7573 779 27.9106
81.8747 771 27.7669
81.9922 747 27.3313
82.1096 871 29.5127
82.227 932 30.5287
82.3444 1037 32.2025
82.4619 1094 33.0757
82.5793 1144 33.8231
82.6967 1116 33.4066
82.8142 1156 34
82.9316 1069 32.6956
83.049 1094 33.0757
83.1664 1079 32.8481
83.2838 1031 32.1092
83.4012 963 31.0322
83.5186 1008 31.749
83.636 880 29.6648
83.7534 830 28.8097
83.8708 779 27.9106
83.9881 775 27.8388
84.1055 789 28.0891
84.2228 814 28.5307
84.3401 847 29.1033
84.4575 911 30.1828
84.5747 979 31.289
84.692 1036 32.187
84.8093 942 30.692
84.9265 996 31.5595
85.0437 875 29.5804
85.1609 828 28.775
85.2781 729 27
85.3952 698 26.4197
85.5123 781 27.9464
85.6294 820 28.6356
85.7465 828 28.775
85.8636 1019 31.9218
85.9806 1064 32.619
86.0976 1113 33.3617
86.2145 1171 34.2199
86.3315 1235 35.1426
86.4484 1308 36.1663
86.5652 1230 35.0714
86.682 1209 34.7707
86.7988 1250 35.3553
86.9156 1202 34.6699
87.0323 1170 34.2053
87.149 1084 32.9242
87.2657 1005 31.7017
87.3823 1001 31.6386
87.4988 961 31
87.6154 947 30.7734
87.7318 985 31.3847
87.8483 1029 32.078
87.9647 1104 33.2265
88.081 1181 34.3657
88.1973 1196 34.5832
88.3136 1320 36.3318
88.4298 1217 34.8855
88.546 1101 33.1813
88.6621 994 31.5278
88.7781 921 30.348
88.8942 0 1
89.0101 0 1
89.126 0 1
89.2419 0 1
89.3577 0 1
89.4734 0 1
89.5891 0 1
89.7047 0 1
89.8203 0 1
89.9358 0 1
92.3269 0 1
92.4424 0 1
92.558 0 1
92.6736 0 1
92.7893 0 1
92.905 0 1
93.0208 0 1
93.1366 0 1
93.2525 0 1
93.3685 0 1
93.4845 0 1
93.6005 1131 33.6303
93.7167 1218 34.8999
93.8328 1134 33.6749
93.949 1126 33.5559
94.0653 1046 32.3419
94.1816 960 30.9839
94.2979 903 30.05
94.4143 966 31.0805
94.5307 842 29.0172
94.6472 853 29.2062
94.7637 1004 31.686
94.8803 1089 33
94.9969 1133 33.6601
95.1135 1197 34.5977
95.2302 1346 36.6879
95.3469 1348 36.7151
95.4637 1325 36.4005
95.5805 1397 37.3765
95.6973 1431 37.8286
95.8142 1367 36.973
95.9311 1291 35.9305
96.048 1274 35.6931
96.1649 1236 35.1568
96.2819 1176 34.2929
96.3989 1082 32.8938
96.516 1106 33.2566
96.633 1058 32.5269
96.7501 992 31.496
96.8673 1036 32.187
96.9844 1077 32.8177
97.1016 1111 33.3317
97.2188 1199 34.6266
97.336 1291 35.9305
97.4532 1229 35.0571
97.5704 1215 34.8569
97.6877 1137 33.7194
97.805 992 31.496
97.9223 922 30.3645
98.0396 886 29.7658
98.1569 799 28.2666
98.2743 836 28.9137
98.3916 926 30.4302
98.509 1064 32.619
98.6264 1158 34.0294
98.7438 1245 35.2846
98.8612 1314 36.2491
98.9786 1333 36.5103
99.096 1465 38.2753
99.2134 1294 35.9722
99.3308 1357 36.8375
99.4482 1324 36.3868
99.5656 1304 36.1109
99.6831 1233 35.1141
99.8005 1210 34.7851
99.9179 1143 33.8083
100.035 1132 33.6452
100.153 1046 32.3419
100.27 998 31.5911
100.388 1039 32.2335
100.505 991 31.4802
100.622 1097 33.121
100.74 1117 33.4215
100.857 1186 34.4384
100.975 1235 35.1426
101.092 1180 34.3511
101.209 1174 34.2637
101.327 1099 33.1512
101.444 1022 31.9687
101.561 932 30.5287
101.679 923 30.3809
101.796 864 29.3939
101.913 898 29.9666
102.03 979 31.289
102.148 1214 34.8425
102.265 1274 35.6931
102.382 1356 36.8239
102.499 1376 37.0945
102.616 1425 37.7492
102.733 1374 37.0675
102.851 1391 37.2961
102.968 1335 36.5377
103.085 1427 37.7757
103.202 1360 36.8782
103.319 1309 36.1801
103.436 1272 35.6651
103.552 1147 33.8674
103.669 1094 33.0757
103.786 1156 34
103.903 1079 32.8481
104.02 1130 33.6155
104.137 1201 34.6554
104.253 1254 35.4119
104.37 1298 36.0278
104.487 1335 36.5377
104.603 1349 36.7287
104.72 1283 35.819
104.836 1172 34.2345
104.953 1038 32.218
105.069 1036 32.187
105.186 951 30.8383
105.302 958 30.9516
105.418 1062 32.5883
105.535 1208 34.7563
105.651 1356 36.8239
105.767 1399 37.4032
105.883 1595 39.9375
105.999 1575 39.6863
106.115 0 1
106.231 0 1
106.347 0 1
106.463 0 1
106.579 0 1
106.694 0 1
106.81 0 1
106.926 0 1
107.041 0 1
107.157 0 1
109.576 0 1
109.692 0 1
109.807 0 1
109.923 0 1
110.039 0 1
110.155 0 1
110.27 0 1
110.386 0 1
110.502 0 1
110.618 1157 34.0147
110.735 1316 36.2767
110.851 1420 37.6829
110.967 1468 38.3145
111.083 1515 38.923
111.199 1497 38.6911
111.316 1598 39.975
111.432 1567 39.5854
111.549 1522 39.0128
111.665 1397 37.3765
111.782 1450 38.0789
111.898 1360 36.8782
112.015 1307 36.1525
112.132 1266 35.5809
112.248 1120 33.4664
112.365 1171 34.2199
112.482 1131 33.6303
112.599 1263 35.5387
112.716 1211 34.7994
112.832 1282 35.805
112.949 1255 35.426
113.066 1266 35.5809
113.183 1216 34.8712
113.3 1178 34.322
113.417 1077 32.8177
113.534 975 31.225
113.652 955 30.9031
113.769 953 30.8707
113.886 937 30.6105
114.003 1008 31.749
114.12 1161 34.0735
114.238 1229 35.0571
114.355 1347 36.7015
114.472 1345 36.6742
114.589 1473 38.3797
114.707 1465 38.2753
114.824 1485 38.5357
114.942 1438 37.921
115.059 1551 39.3827
115.176 1430 37.8153
115.294 1431 37.8286
115.411 1370 37.0135
115.529 1324 36.3868
115.646 1297 36.0139
115.764 1254 35.4119
115.881 1187 34.4529
115.999 1209 34.7707
116.116 1245 35.2846
116.234 1299 36.0416
116.351 1368 36.9865
116.469 1283 35.819
116.586 1325 36.4005
116.704 1347 36.7015
116.821 1294 35.9722
116.939 1142 33.7935
117.056 1098 33.1361
117.174 1082 32.8938
117.291 1049 32.3883
117.409 961 31
117.526 997 31.5753
117.644 1137 33.7194
117.761 1244 35.2704
117.879 1354 36.7967
117.996 1373 37.054
118.114 1509 38.8458
118.231 1570 39.6232
118.349 1473 38.3797
118.466 1473 38.3797
118.584 1542 39.2683
118.701 1557 39.4588
118.819 1451 38.092
118.936 1457 38.1707
119.053 1422 37.7094
119.171 1352 36.7696
119.288 1282 35.805
119.405 1246 35.2987
119.523 1216 34.8712
119.64 1160 34.0588
119.757 1248 35.327
119.875 1276 35.7211
119.992 1285 35.8469
120.109 1315 36.2629
120.226 1341 36.6197
120.343 1309 36.1801
120.46 1332 36.4966
120.578 1177 34.3074
120.695 1116 33.4066
120.812 1026 32.0312
120.929 1090 33.0151
121.046 947 30.7734
121.163 947 30.7734
121.279 1142 33.7935
121.396 1221 34.9428
121.513 1359 36.8646
121.63 1413 37.5899
121.747 1450 38.0789
121.863 1431 37.8286
121.98 1474 38.3927
122.097 1475 38.4057
122.213 1455 38.1445
122.33 1463 38.2492
122.446 1490 38.6005
122.563 1368 36.9865
122.679 1441 37.9605
122.795 1344 36.6606
122.912 1374 37.0675
123.028 1296 36
123.144 1254 35.4119
123.26 1174 34.2637
123.377 0 1
123.493 0 1
123.609 0 1
123.725 0 1
123.84 0 1
123.956 0 1
124.072 0 1
124.188 0 1
124.303 0 1
124.419 0 1
126.852 0 1
126.968 0 1
127.083 0 1
127.199 0 1
127.315 0 1
127.431 0 1
127.547 0 1
127.663 0 1
127.779 0 1
127.895 0 1
128.011 0 1
128.127 0 1
128.243 0 1
128.359 1352 36.7696
128.476 1378 37.1214
128.592 1333 36.5103
128.708 1326 36.4143
128.825 1440 37.9473
128.941 1455 38.1445
129.058 1452 38.1051
129.174 1462 38.2361
129.291 1403 37.4566
129.408 1401 37.4299
129.524 1325 36.4005
129.641 1164 34.1174
129.758 1142 33.7935
129.875 1124 33.5261
129.992 1082 32.8938
130.108 1081 32.8786
130.225 1167 34.1614
130.342 1264 35.5528
130.459 1382 37.1753
130.576 1489 38.5876
130.693 1559 39.4842
130.81 1497 38.6911
130.928 1568 39.598
131.045 1502 38.7556
131.162 1561 39.5095
131.279 1630 40.3733
131.396 1607 40.0874
131.513 1588 39.8497
131.631 1493 38.6394
131.748 1480 38.4708
131.865 1435 37.8814
131.983 1379 37.1349
132.1 1397 37.3765
132.217 1517 38.9487
132.335 1492 38.6264
132.452 1530 39.1152
132.57 1367 36.973
132.687 1493 38.6394
132.804 1499 38.7169
132.922 1415 37.6165
133.039 1364 36.9324
133.157 1293 35.9583
133.274 1277 35.7351
133.392 1220 34.9285
133.509 1197 34.5977
133.627 1145 33.8378
133.744 1291 35.9305
133.862 1330 36.4692
133.979 1412 37.5766
134.097 1479 38.4578
134.214 1497 38.6911
134.332 1520 38.9872
134.449 1534 39.1663
134.567 1497 38.6911
134.684 1655 40.6817
134.802 1610 40.1248
134.919 1622 40.2741
135.037 1585 39.8121
135.154 1586 39.8246
135.272 1521 39
135.389 1465 38.2753
135.507 1438 37.921
135.624 1461 38.223
135.742 1446 38.0263
135.859 1516 38.9358
135.977 1440 37.9473
136.094 1499 38.7169
136.211 1505 38.7943
136.329 1499 38.7169
136.446 1433 37.855
136.564 1459 38.1969
136.681 1359 36.8646
136.798 1355 36.8103
136.915 1209 34.7707
137.033 1194 34.5543
137.15 1257 35.4542
137.267 1184 34.4093
137.384 1196 34.5832
137.502 1383 37.1887
137.619 1432 37.8418
137.736 1408 37.5233
137.853 1423 37.7227
137.97 1552 39.3954
138.087 1497 38.6911
138.204 1573 39.6611
138.321 1701 41.2432
138.438 1539 39.2301
138.555 1577 39.7115
138.672 1564 39.5474
138.788 1544 39.2938
138.905 1480 38.4708
139.022 1485 38.5357
139.139 1501 38.7427
139.255 1444 38
139.372 1468 38.3145
139.488 1489 38.5876
139.605 1529 39.1024
139.721 1609 40.1123
139.838 1481 38.4838
139.954 1470 38.3406
140.071 1457 38.1707
140.187 1446 38.0263
140.303 1405 37.4833
140.419 1250 35.3553
140.535 1212 34.8138
140.652 1174 34.2637
140.768 0 1
140.884 0 1
141 0 1
141.115 0 1
141.231 0 1
141.347 0 1
141.463 0 1
141.578 0 1
141.694 0 1
144.104 0 1
144.219 0 1
144.335 0 1
144.45 0 1
144.566 0 1
144.682 0 1
144.798 0 1
144.914 0 1
145.03 0 1
145.146 1079 32.8481
145.262 1100 33.1662
145.378 1106 33.2566
145.494 1089 33
145.61 1076 32.8024
145.726 1058 32.5269
145.842 1025 32.0156
145.959 1007 31.7333
146.075 952 30.8545
146.192 988 31.4325
146.308 998 31.5911
146.425 1116 33.4066
146.541 1168 34.176
146.658 1107 33.2716
146.774 1161 34.0735
146.891 1151 33.9264
147.008 1187 34.4529
147.125 1234 35.1283
147.241 1274 35.6931
147.358 1329 36.4555
147.475 1261 35.5106
147.592 1283 35.819
147.709 1229 35.0571
147.826 1206 34.7275
147.943 1238 35.1852
148.06 1202 34.6699
148.177 1207 34.7419
148.294 1179 34.3366
148.411 1244 35.2704
148.528 1222 34.9571
148.645 1156 34
148.762 1193 34.5398
148.88 1229 35.0571
148.997 1156 34
149.114 1272 35.6651
149.231 1146 33.8526
149.349 1083 32.909
149.466 1109 33.3017
149.583 1101 33.1813
149.701 1068 32.6803
149.818 1005 31.7017
149.935 1022 31.9687
150.053 1047 32.3574
150.17 1123 33.5112
150.287 1160 34.0588
150.405 1188 34.4674
150.522 1198 34.6121
150.64 1218 34.8999
150.757 1277 35.7351
150.875 1276 35.7211
150.992 1188 34.4674
151.11 1319 36.318
151.227 1283 35.819
151.344 1331 36.4829
151.462 1231 35.0856
151.579 1274 35.6931
151.697 1270 35.6371
151.814 1205 34.7131
151.932 1185 34.4238
152.049 1249 35.3412
152.167 1210 34.7851
152.284 1285 35.8469
152.402 1306 36.1386
152.519 1201 34.6554
152.636 1267 35.5949
152.754 1202 34.6699
152.871 1108 33.2866
152.989 1139 33.7491
153.106 1117 33.4215
153.223 1115 33.3916
153.341 1038 32.218
153.458 1059 32.5423
153.575 1061 32.573
153.693 1115 33.3916
153.81 1108 33.2866
153.927 1130 33.6155
154.044 1227 35.0286
154.162 1284 35.8329
154.279 1288 35.8887
154.396 1299 36.0416
154.513 1417 37.6431
154.63 1355 36.8103
154.747 1394 37.3363
154.864 1366 36.9594
154.981 1449 38.0657
155.098 1267 35.5949
155.215 1367 36.973
155.332 1351 36.756
155.449 1303 36.0971
155.566 1275 35.7071
155.683 1398 37.3898
155.8 1388 37.2559
155.917 1375 37.081
156.033 1377 37.108
156.15 0 1
156.267 0 1
156.383 0 1
156.5 0 1
156.617 0 1
156.733 0 1
156.85 0 1
156.966 0 1
157.082 0 1
157.199 0 1
157.315 0 1
157.431 0 1
157.547 0 1
157.664 0 1
157.78 0 1
157.896 0 1
158.012 0 1
158.128 0 1
158.244 0 1
158.359 0 1
158.475 0 1
158.591 0 1
158.706 0 1
