
6.15755 0 1
6.2731 0 1
6.3887 0 1
6.50437 0 1
6.62009 0 1
6.73587 0 1
6.8517 0 1
6.96759 0 1
7.08353 0 1
7.19952 0 1
7.31557 0 1
7.43166 0 1
7.54781 0 1
7.664 0 1
7.78024 0 1
7.89653 0 1
8.01286 0 1
8.12924 0 1
8.24567 0 1
8.36213 0 1
8.47864 0 1
8.59519 0 1
8.71178 0 1
8.82841 0 1
8.94508 0 1
9.06179 0 1
9.17853 0 1
9.29531 0 1
9.41212 0 1
9.52897 0 1
9.64584 0 1
9.76276 0 1
9.8797 0 1
9.99667 0 1
10.1137 0 1
10.2307 0 1
10.3478 0 1
10.4648 0 1
10.5819 0 1
10.6991 0 1
10.8162 0 1
10.9334 0 1
11.0506 0 1
11.1678 0 1
11.285 0 1
11.4023 0 1
11.5196 0 1
11.6369 0 1
11.7542 0 1
11.8715 0 1
11.9888 0 1
12.1062 0 1
12.2235 0 1
12.3409 0 1
12.4582 0 1
12.5756 0 1
12.693 0 1
12.8104 0 1
12.9278 0 1
13.0452 0 1
13.1626 0 1
13.28 0 1
13.3974 0 1
13.5149 0 1
13.6323 0 1
13.7497 0 1
13.8671 0 1
13.9845 0 1
14.1019 0 1
14.2193 0 1
14.3367 0 1
14.4541 0 1
14.5714 0 1
14.6888 0 1
14.8062 0 1
14.9235 0 1
15.0408 15896 126.079
15.1581 16610 128.88
15.2755 16996 130.369
15.3927 16944 130.169
15.51 17139 130.916
15.6273 17056 130.599
15.7445 17106 130.79
15.8617 17253 131.351
15.9789 17156 130.981
16.0961 17452 132.106
16.2132 17796 133.402
16.3304 18447 135.82
16.4475 18882 137.412
16.5646 19455 139.481
16.6816 20054 141.612
16.7986 20618 143.59
16.9156 21297 145.935
17.0326 21662 147.18
17.1496 21983 148.267
17.2665 22353 149.509
17.3833 22229 149.094
17.5002 22379 149.596
17.617 22310 149.365
17.7338 21418 146.349
17.8505 20758 144.076
17.9672 20444 142.983
18.0839 20056 141.619
18.2005 21051 145.09
18.3171 21906 148.007
18.4337 22341 149.469
18.5502 23019 151.72
18.6666 23756 154.13
18.7831 24060 155.113
18.8994 23642 153.76
19.0158 23251 152.483
19.1321 22920 151.394
19.2483 22581 150.27
19.3645 22264 149.211
19.4806 22028 148.418
19.5967 21476 146.547
19.7128 21125 145.344
19.8288 20423 142.909
19.9447 18705 136.766
20.0606 0 1
20.1764 0 1
20.2922 0 1
20.4079 0 1
20.5236 0 1
20.6392 0 1
20.7548 0 1
20.8702 0 1
23.3078 0 1
23.4233 0 1
23.539 0 1
23.6547 0 1
23.7704 0 1
23.8862 0 1
24.0021 0 1
24.118 0 1
24.234 0 1
24.35 0 1
24.4661 22148 148.822
24.5822 22115 148.711
24.6984 21633 147.082
24.8146 21658 147.167
24.9309 21611 147.007
25.0472 21790 147.614
25.1636 21766 147.533
25.28 22906 151.347
25.3965 23235 152.43
25.513 23957 154.78
25.6296 24880 157.734
25.7462 25291 159.031
25.8628 25375 159.295
25.9795 25075 158.351
26.0962 25057 158.294
26.213 24184 155.512
26.3298 23785 154.224
26.4466 22532 150.107
26.5635 21997 148.314
26.6804 21940 148.122
26.7973 22833 151.106
26.9143 23322 152.715
27.0313 24144 155.383
27.1483 24541 156.656
27.2653 24970 158.019
27.3824 25509 159.715
27.4996 25108 158.455
27.6167 24297 155.875
27.7339 24024 154.997
27.8511 23438 153.095
27.9683 23003 151.667
28.0855 22524 150.08
28.2028 22444 149.813
28.3201 22033 148.435
28.4374 21920 148.054
28.5547 21722 147.384
28.6721 21688 147.268
28.7894 22612 150.373
28.9068 23126 152.072
29.0242 23788 154.234
29.1416 24102 155.248
29.259 24691 157.134
29.3764 24814 157.525
29.4939 24884 157.747
29.6113 24731 157.261
29.7288 23760 154.143
29.8463 22693 150.642
29.9638 21479 146.557
30.0812 20943 144.717
30.1987 20929 144.669
30.3162 21562 146.84
30.4337 22192 148.97
30.5512 22951 151.496
30.6687 23313 152.686
30.7862 23876 154.519
30.9037 23887 154.554
31.0212 24156 155.422
31.1387 23672 153.857
31.2562 23757 154.133
31.3737 23359 152.837
31.4912 22979 151.588
31.6087 22401 149.67
31.7262 22154 148.842
31.8436 21972 148.23
31.9611 21408 146.315
32.0785 21607 146.993
32.1959 21467 146.516
32.3134 22049 148.489
32.4308 22839 151.126
32.5482 23021 151.727
32.6655 23411 153.007
32.7829 24227 155.65
32.9002 24313 155.926
33.0176 24343 156.022
33.1349 24243 155.702
33.2522 24149 155.399
33.3694 23184 152.263
33.4867 22469 149.897
33.6039 20966 144.796
33.7211 20357 142.678
33.8383 19497 139.632
33.9554 20121 141.849
34.0725 21024 144.997
34.1896 21870 147.885
34.3067 22068 148.553
34.4237 22623 150.409
34.5407 22989 151.621
34.6577 23116 152.039
34.7746 22986 151.611
34.8915 22725 150.748
35.0084 22497 149.99
35.1252 21960 148.189
35.242 21857 147.841
35.3587 20950 144.741
35.4755 21058 145.114
35.5921 20694 143.854
35.7088 20376 142.745
35.8254 20509 143.21
35.9419 20587 143.482
36.0584 21179 145.53
36.1749 21686 147.262
36.2913 22002 148.331
36.4077 22471 149.903
36.524 23444 153.114
36.6403 22946 151.479
36.7565 23328 152.735
36.8727 22779 150.927
36.9889 22612 150.373
37.1049 21146 145.417
37.221 0 1
37.3369 0 1
37.4529 0 1
37.5687 0 1
37.6845 0 1
37.8003 0 1
37.916 0 1
38.0316 0 1
38.1472 0 1
40.5851 0 1
40.7008 0 1
40.8164 0 1
40.9322 0 1
41.048 0 1
41.1639 0 1
41.2798 0 1
41.3958 0 1
41.5118 0 1
41.6279 0 1
41.744 17773 133.315
41.8602 19175 138.474
41.9765 19413 139.331
42.0928 19262 138.788
42.2091 18759 136.963
42.3255 17821 133.495
42.4419 16543 128.62
42.5584 15632 125.028
42.675 15358 123.927
42.7915 15718 125.371
42.9081 16704 129.244
43.0248 17071 130.656
43.1415 17501 132.291
43.2582 17931 133.907
43.375 18041 134.317
43.4918 18360 135.499
43.6087 18212 134.952
43.7256 17992 134.134
43.8425 17491 132.254
43.9595 17466 132.159
44.0765 17219 131.221
44.1935 16582 128.771
44.3106 16075 126.787
44.4277 15616 124.964
44.5448 15440 124.258
44.6619 14650 121.037
44.7791 14597 120.818
44.8963 15194 123.264
45.0136 15448 124.29
45.1308 15571 124.784
45.2481 15907 126.123
45.3654 15909 126.131
45.4827 15580 124.82
45.6001 15802 125.706
45.7174 15228 123.402
45.8348 14352 119.8
45.9522 13417 115.832
46.0697 12624 112.357
46.1871 11801 108.632
46.3046 11782 108.545
46.422 12502 111.812
46.5395 12827 113.256
46.657 13321 115.417
46.7745 13649 116.829
46.892 13603 116.632
47.0096 13747 117.248
47.1271 13957 118.14
47.2446 13898 117.89
47.3622 13958 118.144
47.4797 13853 117.699
47.5973 13703 117.06
47.7149 13130 114.586
47.8324 13120 114.543
47.95 12764 112.978
48.0675 12099 109.995
48.1851 12063 109.832
48.3027 11877 108.982
48.4202 12135 110.159
48.5378 12321 111
48.6554 12955 113.82
48.7729 13204 114.909
48.8904 13375 115.65
49.008 13333 115.469
49.1255 13249 115.104
49.243 12836 113.296
49.3605 12024 109.654
49.478 11480 107.145
49.5955 10748 103.673
49.713 10143 100.712
49.8304 10426 102.108
49.9479 11287 106.24
50.0653 11657 107.968
50.1827 12623 112.352
50.3001 12939 113.75
50.4175 13185 114.826
50.5348 13417 115.832
50.6521 14147 118.941
50.7694 14106 118.769
50.8867 14302 119.591
51.004 14671 121.124
51.1212 14736 121.392
51.2384 14692 121.211
51.3556 14906 122.09
51.4727 14547 120.611
51.5899 14430 120.125
51.707 14098 118.735
51.824 14358 119.825
51.9411 15069 122.756
52.0581 15714 125.355
52.175 16560 128.686
52.2919 17162 131.004
52.4088 17196 131.134
52.5257 17290 131.491
52.6425 17293 131.503
52.7593 17311 131.571
52.876 16928 130.108
52.9927 15845 125.877
53.1094 14845 121.84
53.226 14485 120.354
53.3426 13827 117.588
53.4591 14016 118.389
53.5756 15036 122.621
53.692 16160 127.122
53.8084 16914 130.054
53.9248 17236 131.286
54.0411 17866 133.664
54.1573 17938 133.933
54.2735 0 1
54.3896 0 1
54.5057 0 1
54.6217 0 1
54.7377 0 1
54.8537 0 1
54.9695 0 1
55.0853 0 1
55.2011 0 1
55.3168 0 1
55.4324 0 1
57.824 0 1
57.9396 0 1
58.0553 0 1
58.1711 0 1
58.2869 0 1
58.4028 0 1
58.5187 0 1
58.6347 0 1
58.7508 0 1
58.8669 0 1
58.983 19421 139.359
59.0992 20751 144.052
59.2155 21675 147.224
59.3318 21902 147.993
59.4482 22398 149.66
59.5646 22715 150.715
59.681 22884 151.275
59.7975 22812 151.036
59.9141 22618 150.393
60.0306 22277 149.255
60.1473 22043 148.469
60.2639 20866 144.451
60.3807 20148 141.944
60.4974 19672 140.257
60.6142 19994 141.4
60.731 20437 142.958
60.8479 21141 145.399
60.9648 21516 146.683
61.0818 22167 148.886
61.1987 21707 147.333
61.3158 21512 146.67
61.4328 20963 144.786
61.5499 19991 141.39
61.667 18823 137.197
61.7841 17844 133.581
61.9013 16855 129.827
62.0185 16564 128.701
62.1357 17034 130.514
62.253 18343 135.436
62.3702 19246 138.73
62.4875 20326 142.569
62.6049 20740 144.014
62.7222 20963 144.786
62.8396 21507 146.653
62.9569 21946 148.142
63.0743 21997 148.314
63.1918 22207 149.02
63.3092 21945 148.138
63.4267 21695 147.292
63.5441 21339 146.079
63.6616 20750 144.049
63.7791 19786 140.663
63.8966 19142 138.355
64.0142 18575 136.29
64.1317 18855 137.314
64.2492 19374 139.191
64.3668 20316 142.534
64.4843 20652 143.708
64.6019 21003 144.924
64.7195 20789 144.184
64.837 20852 144.402
64.9546 20654 143.715
65.0722 19917 141.128
65.1898 18131 134.651
65.3074 17741 133.195
65.4249 16105 126.905
65.5425 15689 125.256
65.6601 15707 125.328
65.7777 16431 128.183
65.8952 17635 132.797
66.0128 18704 136.763
66.1304 19605 140.018
66.2479 20418 142.892
66.3655 20533 143.293
66.483 21056 145.107
66.6005 21531 146.734
66.718 21985 148.273
66.8355 21805 147.665
66.953 21731 147.414
67.0705 21420 146.356
67.1879 21066 145.141
67.3054 20445 142.986
67.4228 19793 140.688
67.5402 18425 135.739
67.6576 18181 134.837
67.7749 18082 134.469
67.8923 18990 137.804
68.0096 19928 141.167
68.1269 20741 144.017
68.2442 20901 144.572
68.3614 21101 145.262
68.4787 21064 145.134
68.5958 21127 145.351
68.713 20460 143.038
68.8302 18622 136.462
68.9473 17766 133.289
69.0643 17063 130.625
69.1814 15837 125.845
69.2984 16177 127.189
69.4154 17121 130.847
69.5323 18353 135.473
69.6492 19514 139.693
69.7661 20602 143.534
69.8829 21039 145.048
69.9997 21815 147.699
70.1165 22199 148.993
70.2332 22814 151.043
70.3499 22914 151.374
70.4665 23266 152.532
70.5831 23077 151.911
70.6996 22745 150.814
70.8161 22565 150.217
70.9326 22065 148.543
71.049 21097 145.248
71.1653 19728 140.456
71.2817 18894 137.455
71.3979 17953 133.989
71.5141 18070 134.425
71.6303 18475 135.923
71.7464 18850 137.295
71.8624 0 1
71.9784 0 1
72.0944 0 1
72.2102 0 1
72.3261 0 1
72.4418 0 1
72.5575 0 1
72.6732 0 1
75.1054 0 1
75.2209 0 1
75.3365 0 1
75.4521 0 1
75.5678 0 1
75.6835 0 1
75.7993 0 1
75.9151 0 1
76.031 0 1
76.147 19892 141.039
76.263 20544 143.332
76.3791 19653 140.189
76.4952 18566 136.257
76.6113 19282 138.86
76.7276 19695 140.339
76.8438 21346 146.103
76.9601 22284 149.278
77.0765 22328 149.426
77.1929 22567 150.223
77.3093 22433 149.777
77.4258 22365 149.549
77.5423 20810 144.257
77.6589 19148 138.376
77.7755 18069 134.421
77.8921 16787 129.565
78.0088 16124 126.98
78.1256 15625 125
78.2423 16325 127.769
78.3591 17997 134.153
78.4759 19150 138.384
78.5928 20134 141.894
78.7097 21040 145.052
78.8266 21509 146.659
78.9436 22759 150.861
79.0606 23125 152.069
79.1776 23033 151.766
79.2946 23287 152.601
79.4117 23826 154.357
79.5288 23464 153.18
79.6459 23112 152.026
79.7631 22159 148.859
79.8802 21512 146.67
79.9974 20348 142.646
80.1147 18759 136.963
80.2319 18575 136.29
80.3491 19754 140.549
80.4664 21298 145.938
80.5837 21881 147.922
80.701 21991 148.294
80.8183 22572 150.24
80.9357 22520 150.067
81.053 22042 148.465
81.1704 21400 146.287
81.2877 20097 141.764
81.4051 18486 135.963
81.5225 17129 130.878
81.6399 15694 125.276
81.7573 15943 126.266
81.8747 16017 126.558
81.9922 17530 132.401
82.1096 19039 137.982
82.227 20369 142.72
82.3444 21002 144.921
82.4619 22033 148.435
82.5793 23123 152.062
82.6967 22577 150.256
82.8142 23283 152.588
82.9316 23442 153.108
83.049 23352 152.814
83.1664 23201 152.319
83.2838 22974 151.572
83.4012 22368 149.559
83.5186 21401 146.291
83.636 19891 141.035
83.7534 18699 136.744
83.8708 18429 135.753
83.9881 19615 140.054
84.1055 20901 144.572
84.2228 22371 149.569
84.3401 22368 149.559
84.4575 22770 150.897
84.5747 22600 150.333
84.692 21951 148.159
84.8093 20558 143.381
84.9265 19030 137.949
85.0437 17821 133.495
85.1609 16694 129.205
85.2781 16081 126.811
85.3952 15975 126.392
85.5123 17368 131.788
85.6294 18942 137.63
85.7465 20614 143.576
85.8636 21255 145.791
85.9806 22026 148.412
86.0976 22682 150.605
86.2145 23277 152.568
86.3315 24027 155.006
86.4484 24346 156.032
86.5652 24533 156.63
86.682 24452 156.371
86.7988 24276 155.808
86.9156 23999 154.916
87.0323 23402 152.977
87.149 22118 148.721
87.2657 20796 144.208
87.3823 20028 141.52
87.4988 20411 142.867
87.6154 21488 146.588
87.7318 23138 152.112
87.8483 23712 153.987
87.9647 23559 153.489
88.081 23625 153.704
88.1973 23713 153.99
88.3136 22387 149.623
88.4298 20607 143.551
88.546 19266 138.802
88.6621 17801 133.42
88.7781 16774 129.514
88.8942 0 1
89.0101 0 1
89.126 0 1
89.2419 0 1
89.3577 0 1
89.4734 0 1
89.5891 0 1
89.7047 0 1
89.8203 0 1
89.9358 0 1
92.3269 0 1
92.4424 0 1
92.558 0 1
92.6736 0 1
92.7893 0 1
92.905 0 1
93.0208 0 1
93.1366 0 1
93.2525 0 1
93.3685 0 1
93.4845 0 1
93.6005 19920 141.138
93.7167 18900 137.477
93.8328 17990 134.127
93.949 17224 131.24
94.0653 16656 129.058
94.1816 16891 129.965
94.2979 17428 132.015
94.4143 18661 136.605
94.5307 19832 140.826
94.6472 20872 144.471
94.7637 21660 147.173
94.8803 22331 149.436
94.9969 22953 151.502
95.1135 23190 152.283
95.2302 23682 153.89
95.3469 24007 154.942
95.4637 24174 155.48
95.5805 24273 155.798
95.6973 24310 155.917
95.8142 24000 154.919
95.9311 23527 153.385
96.048 22317 149.389
96.1649 21437 146.414
96.2819 20240 142.267
96.3989 19806 140.734
96.516 20664 143.75
96.633 21850 147.817
96.7501 23146 152.138
96.8673 23357 152.83
96.9844 23292 152.617
97.1016 22915 151.377
97.2188 21762 147.519
97.336 20959 144.772
97.4532 19599 139.996
97.5704 18406 135.669
97.6877 17415 131.966
97.805 17061 130.618
97.9223 16660 129.074
98.0396 16980 130.307
98.1569 18469 135.901
98.2743 19610 140.036
98.3916 20772 144.125
98.509 21773 147.557
98.6264 22026 148.412
98.7438 22652 150.506
98.8612 22897 151.318
98.9786 23564 153.506
99.096 23537 153.418
99.2134 23722 154.019
99.3308 23496 153.284
99.4482 23464 153.18
99.5656 22898 151.321
99.6831 22029 148.422
99.8005 21112 145.3
99.9179 19842 140.862
100.035 19304 138.939
100.153 20708 143.903
100.27 21755 147.496
100.388 22718 150.725
100.505 22729 150.761
100.622 22738 150.791
100.74 22425 149.75
100.857 21869 147.882
100.975 20686 143.826
101.092 19370 139.176
101.209 18366 135.521
101.327 17203 131.16
101.444 16565 128.705
101.561 16700 129.228
101.679 17626 132.763
101.796 19193 138.539
101.913 20536 143.304
102.03 21651 147.143
102.148 22319 149.395
102.265 21291 145.914
102.382 25539 159.809
102.499 24280 155.82
102.616 24551 156.688
102.733 24593 156.822
102.851 24695 157.146
102.968 25205 158.761
103.085 24793 157.458
103.202 24118 155.3
103.319 22999 151.654
103.436 21629 147.068
103.552 21337 146.072
103.669 22278 149.258
103.786 23746 154.097
103.903 24739 157.286
104.02 24856 157.658
104.137 25027 158.199
104.253 24358 156.07
104.37 23849 154.431
104.487 22309 149.362
104.603 21045 145.069
104.72 19567 139.882
104.836 18735 136.876
104.953 18021 134.242
105.069 18147 134.711
105.186 19264 138.795
105.302 20704 143.889
105.418 22110 148.694
105.535 23032 151.763
105.651 24187 155.522
105.767 25044 158.253
105.883 25303 159.069
105.999 25554 159.856
106.115 0 1
106.231 0 1
106.347 0 1
106.463 0 1
106.579 0 1
106.694 0 1
106.81 0 1
106.926 0 1
107.041 0 1
107.157 0 1
109.576 0 1
109.692 0 1
109.807 0 1
109.923 0 1
110.039 0 1
110.155 0 1
110.27 0 1
110.386 0 1
110.502 0 1
110.618 20282 142.415
110.735 21388 146.246
110.851 21727 147.401
110.967 22039 148.455
111.083 22410 149.7
111.199 23014 151.704
111.316 23003 151.667
111.432 22988 151.618
111.549 22531 150.103
111.665 21793 147.625
111.782 20814 144.271
111.898 19737 140.488
112.015 18538 136.154
112.132 19127 138.3
112.248 20181 142.06
112.365 21122 145.334
112.482 21745 147.462
112.599 20830 144.326
112.716 21015 144.966
112.832 20107 141.799
112.949 19015 137.895
113.066 17563 132.525
113.183 16662 129.081
113.3 15820 125.778
113.417 14970 122.352
113.534 14657 121.066
113.652 14848 121.852
113.769 15462 124.346
113.886 16483 128.386
114.003 17402 131.917
114.12 17687 132.992
114.238 17854 133.619
114.355 18351 135.466
114.472 18671 136.642
114.589 18091 134.503
114.707 18613 136.429
114.824 18393 135.621
114.942 18655 136.583
115.059 18185 134.852
115.176 17819 133.488
115.294 16751 129.426
115.411 15980 126.412
115.529 14849 121.856
115.646 14702 121.252
115.764 15597 124.888
115.881 15947 126.281
115.999 16317 127.738
116.116 15925 126.194
116.234 16171 127.165
116.351 15608 124.932
116.469 14774 121.548
116.586 13785 117.41
116.704 13115 114.521
116.821 12355 111.153
116.939 12084 109.927
117.056 11523 107.345
117.174 11441 106.963
117.291 11865 108.927
117.409 12343 111.099
117.526 13101 114.46
117.644 13420 115.845
117.761 13942 118.076
117.879 14314 119.641
117.996 14469 120.287
118.114 14806 121.68
118.231 15023 122.568
118.349 15008 122.507
118.466 15196 123.272
118.584 15334 123.831
118.701 15030 122.597
118.819 14909 122.102
118.936 14298 119.574
119.053 13959 118.148
119.171 13238 115.057
119.288 13406 115.784
119.405 14223 119.26
119.523 14929 122.184
119.64 15505 124.519
119.757 15182 123.215
119.875 15200 123.288
119.992 15060 122.719
120.109 14837 121.807
120.226 14313 119.637
120.343 13428 115.879
120.46 13213 114.948
120.578 12810 113.181
120.695 12442 111.544
120.812 12337 111.072
120.929 12663 112.53
121.046 13103 114.468
121.163 13846 117.669
121.279 14458 120.241
121.396 15043 122.65
121.513 15477 124.407
121.63 16362 127.914
121.747 16518 128.522
121.863 16614 128.895
121.98 17127 130.87
122.097 17501 132.291
122.213 17615 132.722
122.33 17512 132.333
122.446 17724 133.132
122.563 17632 132.786
122.679 17251 131.343
122.795 16382 127.992
122.912 15756 125.523
123.028 15964 126.349
123.144 16781 129.541
123.26 17616 132.725
123.377 0 1
123.493 0 1
123.609 0 1
123.725 0 1
123.84 0 1
123.956 0 1
124.072 0 1
124.188 0 1
124.303 0 1
124.419 0 1
126.852 0 1
126.968 0 1
127.083 0 1
127.199 0 1
127.315 0 1
127.431 0 1
127.547 0 1
127.663 0 1
127.779 0 1
127.895 0 1
128.011 0 1
128.127 0 1
128.243 0 1
128.359 18772 137.011
128.476 20063 141.644
128.592 21028 145.01
128.708 20889 144.53
128.825 21540 146.765
128.941 21078 145.183
129.058 20916 144.624
129.174 20348 142.646
129.291 19227 138.661
129.408 18580 136.308
129.524 17421 131.989
129.641 16992 130.353
129.758 16385 128.004
129.875 16225 127.377
129.992 16369 127.941
130.108 17108 130.798
130.225 17737 133.18
130.342 17667 132.917
130.459 18099 134.533
130.576 18164 134.774
130.693 18689 136.708
130.81 19040 137.986
130.928 18989 137.801
131.045 19252 138.752
131.162 19362 139.147
131.279 19159 138.416
131.396 19417 139.345
131.513 19004 137.855
131.631 18351 135.466
131.748 17336 131.666
131.865 16965 130.25
131.983 17386 131.856
132.1 18369 135.532
132.217 18925 137.568
132.335 18846 137.281
132.452 18713 136.795
132.57 18530 136.125
132.687 17357 131.746
132.804 17526 132.386
132.922 16191 127.244
133.039 15207 123.317
133.157 14838 121.811
133.274 14372 119.883
133.392 14161 119
133.509 14034 118.465
133.627 14478 120.325
133.744 14956 122.295
133.862 15006 122.499
133.979 15151 123.089
134.097 14991 122.438
134.214 15691 125.264
134.332 15263 123.544
134.449 15486 124.443
134.567 15545 124.68
134.684 15535 124.639
134.802 15790 125.658
134.919 15473 124.391
135.037 14944 122.246
135.154 14635 120.975
135.272 13877 117.801
135.389 13552 116.413
135.507 13334 115.473
135.624 14135 118.891
135.742 14343 119.762
135.859 14397 119.987
135.977 14396 119.983
136.094 14047 118.52
136.211 13748 117.252
136.329 13436 115.914
136.446 12928 113.701
136.564 12078 109.9
136.681 11698 108.157
136.798 11600 107.703
136.915 11146 105.575
137.033 10909 104.446
137.15 10954 104.661
137.267 11403 106.785
137.384 11681 108.079
137.502 11815 108.697
137.619 11961 109.366
137.736 12315 110.973
137.853 12146 110.209
137.97 12467 111.656
138.087 12866 113.428
138.204 13205 114.913
138.321 13435 115.909
138.438 13690 117.004
138.555 13522 116.284
138.672 13774 117.363
138.788 13577 116.52
138.905 13445 115.953
139.022 12732 112.836
139.139 13151 114.678
139.255 14146 118.937
139.372 14441 120.171
139.488 14868 121.934
139.605 15108 122.915
139.721 15537 124.648
139.838 15507 124.527
139.954 15210 123.329
140.071 14415 120.062
140.187 14325 119.687
140.303 13653 116.846
140.419 13494 116.164
140.535 13353 115.555
140.652 12914 113.64
140.768 0 1
140.884 0 1
141 0 1
141.115 0 1
141.231 0 1
141.347 0 1
141.463 0 1
141.578 0 1
141.694 0 1
144.104 0 1
144.219 0 1
144.335 0 1
144.45 0 1
144.566 0 1
144.682 0 1
144.798 0 1
144.914 0 1
145.03 0 1
145.146 12616 112.321
145.262 12539 111.978
145.378 12051 109.777
145.494 11650 107.935
145.61 11323 106.41
145.726 11029 105.019
145.842 10694 103.412
145.959 10985 104.809
146.075 11079 105.257
146.192 11108 105.394
146.308 11217 105.91
146.425 11545 107.448
146.541 11313 106.363
146.658 11347 106.522
146.774 11263 106.127
146.891 11336 106.471
147.008 11597 107.689
147.125 11478 107.135
147.241 11464 107.07
147.358 11515 107.308
147.475 11158 105.631
147.592 10681 103.349
147.709 10375 101.858
147.826 10177 100.881
147.943 10559 102.757
148.06 10668 103.286
148.177 10924 104.518
148.294 11016 104.957
148.411 10767 103.764
148.528 10520 102.567
148.645 10557 102.747
148.762 10171 100.851
148.88 10107 100.534
148.997 9781 98.8989
149.114 8806 93.8403
149.231 8872 94.1913
149.349 8573 92.5905
149.466 8544 92.4338
149.583 8608 92.7793
149.701 8661 93.0645
149.818 8991 94.8209
149.935 9121 95.5039
150.053 9030 95.0263
150.17 9347 96.6799
150.287 9371 96.8039
150.405 9439 97.1545
150.522 9565 97.8008
150.64 9728 98.6306
150.757 9872 99.3579
150.875 10083 100.414
150.992 9982 99.91
151.11 10066 100.329
151.227 9470 97.3139
151.344 9383 96.8659
151.462 9499 97.4628
151.579 9692 98.448
151.697 10157 100.782
151.814 10548 102.703
151.932 10630 103.102
152.049 10611 103.01
152.167 10637 103.136
152.284 10588 102.898
152.402 10306 101.518
152.519 10156 100.777
152.636 9757 98.7775
152.754 9881 99.4032
152.871 9394 96.9226
152.989 9446 97.1905
153.106 9340 96.6437
153.223 9536 97.6524
153.341 9681 98.3921
153.458 9922 99.6092
153.575 10263 101.306
153.693 10412 102.039
153.81 10214 101.064
153.927 10710 103.489
154.044 10875 104.283
154.162 10941 104.599
154.279 11365 106.607
154.396 11816 108.701
154.513 11942 109.279
154.63 12006 109.572
154.747 11780 108.536
154.864 12009 109.586
154.981 11513 107.299
155.098 11601 107.708
155.215 12314 110.968
155.332 12483 111.727
155.449 12611 112.299
155.566 12759 112.956
155.683 12769 113
155.8 12669 112.557
155.917 13031 114.153
156.033 12663 112.53
156.15 0 1
156.267 0 1
156.383 0 1
156.5 0 1
156.617 0 1
156.733 0 1
156.85 0 1
156.966 0 1
157.082 0 1
157.199 0 1
157.315 0 1
157.431 0 1
157.547 0 1
157.664 0 1
157.78 0 1
157.896 0 1
158.012 0 1
158.128 0 1
158.244 0 1
158.359 0 1
158.475 0 1
158.591 0 1
158.706 0 1
