
6.15755 0 1
6.2731 0 1
6.3887 0 1
6.50437 0 1
6.62009 0 1
6.73587 0 1
6.8517 0 1
6.96759 0 1
7.08353 0 1
7.19952 0 1
7.31557 0 1
7.43166 0 1
7.54781 0 1
7.664 0 1
7.78024 0 1
7.89653 0 1
8.01286 0 1
8.12924 0 1
8.24567 0 1
8.36213 0 1
8.47864 0 1
8.59519 0 1
8.71178 0 1
8.82841 0 1
8.94508 0 1
9.06179 0 1
9.17853 0 1
9.29531 0 1
9.41212 0 1
9.52897 0 1
9.64584 0 1
9.76276 0 1
9.8797 0 1
9.99667 0 1
10.1137 0 1
10.2307 0 1
10.3478 0 1
10.4648 0 1
10.5819 0 1
10.6991 0 1
10.8162 0 1
10.9334 0 1
11.0506 0 1
11.1678 0 1
11.285 0 1
11.4023 0 1
11.5196 0 1
11.6369 0 1
11.7542 0 1
11.8715 0 1
11.9888 0 1
12.1062 0 1
12.2235 0 1
12.3409 0 1
12.4582 0 1
12.5756 0 1
12.693 0 1
12.8104 0 1
12.9278 0 1
13.0452 0 1
13.1626 0 1
13.28 0 1
13.3974 0 1
13.5149 0 1
13.6323 0 1
13.7497 0 1
13.8671 0 1
13.9845 0 1
14.1019 0 1
14.2193 0 1
14.3367 0 1
14.4541 0 1
14.5714 0 1
14.6888 0 1
14.8062 0 1
14.9235 0 1
15.0408 49013 221.389
15.1581 51163 226.192
15.2755 53537 231.381
15.3927 53723 231.782
15.51 53061 230.35
15.6273 52488 229.103
15.7445 51567 227.084
15.8617 50877 225.559
15.9789 50921 225.657
16.0961 51521 226.982
16.2132 52650 229.456
16.3304 53493 231.286
16.4475 53554 231.417
16.5646 53553 231.415
16.6816 53963 232.299
16.7986 54464 233.375
16.9156 54140 232.68
17.0326 54577 233.617
17.1496 54964 234.444
17.2665 54687 233.853
17.3833 54942 234.397
17.5002 54427 233.296
17.617 54803 234.1
17.7338 54874 234.252
17.8505 55824 236.271
17.9672 55299 235.157
18.0839 55213 234.974
18.2005 55395 235.361
18.3171 55930 236.495
18.4337 57951 240.73
18.5502 59216 243.343
18.6666 60272 245.504
18.7831 60252 245.463
18.8994 59944 244.835
19.0158 58086 241.01
19.1321 55847 236.32
19.2483 53484 231.266
19.3645 51992 228.018
19.4806 49624 222.764
19.5967 48231 219.616
19.7128 46410 215.43
19.8288 43234 207.928
19.9447 37996 194.926
20.0606 0 1
20.1764 0 1
20.2922 0 1
20.4079 0 1
20.5236 0 1
20.6392 0 1
20.7548 0 1
20.8702 0 1
23.3078 0 1
23.4233 0 1
23.539 0 1
23.6547 0 1
23.7704 0 1
23.8862 0 1
24.0021 0 1
24.118 0 1
24.234 0 1
24.35 0 1
24.4661 28825 169.779
24.5822 33281 182.431
24.6984 37116 192.655
24.8146 42811 206.908
24.9309 46802 216.338
25.0472 49759 223.067
25.1636 51873 227.756
25.28 53743 231.825
25.3965 55564 235.72
25.513 57483 239.756
25.6296 59363 243.645
25.7462 60543 246.055
25.8628 60990 246.962
25.9795 62057 249.112
26.0962 62954 250.906
26.213 63456 251.905
26.3298 63493 251.978
26.4466 63608 252.206
26.5635 63853 252.692
26.6804 63279 251.553
26.7973 63623 252.236
26.9143 64282 253.539
27.0313 65292 255.523
27.1483 67449 259.709
27.2653 68969 262.619
27.3824 69791 264.18
27.4996 69150 262.964
27.6167 68138 261.033
27.7339 67317 259.455
27.8511 65924 256.757
27.9683 64961 254.874
28.0855 64248 253.472
28.2028 64351 253.675
28.3201 64530 254.028
28.4374 64226 253.428
28.5547 63483 251.958
28.6721 62164 249.327
28.7894 61140 247.265
28.9068 59786 244.512
29.0242 59081 243.066
29.1416 59173 243.255
29.259 59215 243.341
29.3764 59463 243.85
29.4939 60398 245.76
29.6113 60337 245.636
29.7288 61777 248.55
29.8463 63176 251.348
29.9638 63444 251.881
30.0812 63485 251.962
30.1987 63526 252.044
30.3162 63848 252.682
30.4337 64536 254.039
30.5512 66062 257.025
30.6687 67774 260.334
30.7862 68994 262.667
30.9037 69742 264.087
31.0212 69953 264.486
31.1387 68507 261.738
31.2562 67944 260.661
31.3737 66965 258.776
31.4912 65600 256.125
31.6087 65444 255.82
31.7262 65572 256.07
31.8436 65503 255.936
31.9611 65014 254.978
32.0785 64680 254.323
32.1959 62714 250.428
32.3134 61534 248.06
32.4308 59882 244.708
32.5482 59707 244.35
32.6655 59750 244.438
32.7829 59618 244.168
32.9002 58956 242.809
33.0176 59782 244.504
33.1349 60245 245.449
33.2522 61970 248.938
33.3694 62631 250.262
33.4867 63717 252.422
33.6039 63839 252.664
33.7211 64075 253.13
33.8383 63973 252.929
33.9554 64079 253.138
34.0725 64670 254.303
34.1896 66119 257.136
34.3067 67434 259.681
34.4237 68048 260.86
34.5407 69826 264.246
34.6577 69787 264.172
34.7746 69760 264.121
34.8915 68800 262.298
35.0084 67657 260.11
35.1252 66496 257.868
35.242 66618 258.105
35.3587 66164 257.224
35.4755 66642 258.151
35.5921 66001 256.907
35.7088 64135 253.249
35.8254 61800 248.596
35.9419 59184 243.278
36.0584 56684 238.084
36.1749 53849 232.054
36.2913 51352 226.61
36.4077 50331 224.346
36.524 48646 220.558
36.6403 47493 217.929
36.7565 46634 215.949
36.8727 45598 213.537
36.9889 44969 212.059
37.1049 42439 206.007
37.221 0 1
37.3369 0 1
37.4529 0 1
37.5687 0 1
37.6845 0 1
37.8003 0 1
37.916 0 1
38.0316 0 1
38.1472 0 1
40.5851 0 1
40.7008 0 1
40.8164 0 1
40.9322 0 1
41.048 0 1
41.1639 0 1
41.2798 0 1
41.3958 0 1
41.5118 0 1
41.6279 0 1
41.744 28968 170.2
41.8602 32119 179.218
41.9765 35791 189.185
42.0928 39562 198.902
42.2091 43752 209.17
42.3255 47872 218.797
42.4419 51398 226.711
42.5584 54070 232.53
42.675 55215 234.979
42.7915 56051 236.751
42.9081 57652 240.108
43.0248 60857 246.692
43.1415 63247 251.49
43.2582 65529 255.986
43.375 67624 260.046
43.4918 69145 262.954
43.6087 69191 263.042
43.7256 68252 261.251
43.8425 68134 261.025
43.9595 66537 257.948
44.0765 65661 256.244
44.1935 66307 257.501
44.3106 67199 259.228
44.4277 67419 259.652
44.5448 65495 255.92
44.6619 61896 248.789
44.7791 60450 245.866
44.8963 56608 237.924
45.0136 53234 230.725
45.1308 52017 228.072
45.2481 51442 226.808
45.3654 51058 225.96
45.4827 51897 227.809
45.6001 54608 233.684
45.7174 58028 240.89
45.8348 62072 249.143
45.9522 64365 253.703
46.0697 66227 257.346
46.1871 66398 257.678
46.3046 66057 257.016
46.422 66335 257.556
46.5395 67700 260.192
46.657 69875 264.339
46.7745 71922 268.183
46.892 73064 270.304
47.0096 73921 271.884
47.1271 74812 273.518
47.2446 74870 273.624
47.3622 74589 273.11
47.4797 73238 270.625
47.5973 71431 267.266
47.7149 71008 266.473
47.8324 72605 269.453
47.95 72692 269.615
48.0675 69335 263.315
48.1851 68366 261.469
48.3027 63959 252.901
48.4202 59439 243.801
48.5378 54784 234.06
48.6554 51497 226.93
48.7729 50864 225.53
48.8904 51104 226.062
49.008 52426 228.967
49.1255 55632 235.864
49.243 59757 244.452
49.3605 64166 253.31
49.478 68472 261.672
49.5955 69544 263.712
49.713 69136 262.937
49.8304 68702 262.111
49.9479 69051 262.776
50.0653 70291 265.124
50.1827 72421 269.112
50.3001 73899 271.844
50.4175 75452 274.685
50.5348 77296 278.022
50.6521 77146 277.752
50.7694 77836 278.991
50.8867 76813 277.152
51.004 75630 275.009
51.1212 74151 272.307
51.2384 74628 273.181
51.3556 75521 274.811
51.4727 75685 275.109
51.5899 73522 271.149
51.707 70779 266.043
51.824 66388 257.659
51.9411 61062 247.107
52.0581 55933 236.502
52.175 52854 229.9
52.2919 52152 228.368
52.4088 51790 227.574
52.5257 53725 231.787
52.6425 55709 236.028
52.7593 59456 243.836
52.876 63859 252.703
52.9927 66131 257.159
53.1094 67040 258.921
53.226 66388 257.659
53.3426 64209 253.395
53.4591 62257 249.514
53.5756 60379 245.721
53.692 59425 243.772
53.8084 58711 242.304
53.9248 57320 239.416
54.0411 55492 235.567
54.1573 52615 229.38
54.2735 0 1
54.3896 0 1
54.5057 0 1
54.6217 0 1
54.7377 0 1
54.8537 0 1
54.9695 0 1
55.0853 0 1
55.2011 0 1
55.3168 0 1
55.4324 0 1
57.824 0 1
57.9396 0 1
58.0553 0 1
58.1711 0 1
58.2869 0 1
58.4028 0 1
58.5187 0 1
58.6347 0 1
58.7508 0 1
58.8669 0 1
58.983 61558 248.109
59.0992 69590 263.799
59.2155 75622 274.995
59.3318 80729 284.128
59.4482 85249 291.974
59.5646 88195 296.976
59.681 89806 299.676
59.7975 91644 302.728
59.9141 93481 305.747
60.0306 96183 310.134
60.1473 97762 312.669
60.2639 96657 310.897
60.3807 93396 305.608
60.4974 88141 296.885
60.6142 81997 286.351
60.731 74969 273.805
60.8479 67721 260.233
60.9648 63334 251.662
61.0818 63251 251.498
61.1987 65579 256.084
61.3158 72681 269.594
61.4328 80967 284.547
61.5499 89909 299.848
61.667 97005 311.456
61.7841 101246 318.192
61.9013 101857 319.15
62.0185 101951 319.298
62.1357 101664 318.848
62.253 102711 320.486
62.3702 104742 323.639
62.4875 107153 327.342
62.6049 109450 330.832
62.7222 111113 333.336
62.8396 111653 334.145
62.9569 112125 334.851
63.0743 112368 335.213
63.1918 110993 333.156
63.3092 109814 331.382
63.4267 109541 330.97
63.5441 110642 332.629
63.6616 109525 330.946
63.7791 106664 326.595
63.8966 101417 318.46
64.0142 94337 307.143
64.1317 85300 292.062
64.2492 75905 275.509
64.3668 68405 261.543
64.4843 63809 252.604
64.6019 62963 250.924
64.7195 64523 254.014
64.837 70926 266.319
64.9546 80402 283.552
65.0722 91939 303.214
65.1898 100525 317.057
65.3074 106195 325.876
65.4249 106926 326.995
65.5425 107059 327.199
65.6601 106487 326.323
65.7777 106859 326.893
65.8952 108426 329.281
66.0128 110888 332.998
66.1304 113377 336.715
66.2479 115234 339.461
66.3655 117221 342.376
66.483 117746 343.141
66.6005 118115 343.679
66.718 117075 342.162
66.8355 115964 340.535
66.953 114466 338.328
67.0705 114597 338.522
67.1879 115278 339.526
67.3054 114370 338.186
67.4228 110305 332.122
67.5402 104631 323.467
67.6576 95451 308.951
67.7749 86085 293.402
67.8923 75009 273.878
68.0096 66736 258.333
68.1269 62437 249.874
68.2442 62115 249.229
68.3614 64417 253.805
68.4787 72222 268.742
68.5958 83390 288.773
68.713 96091 309.985
68.8302 106870 326.91
68.9473 112588 335.541
69.0643 114350 338.157
69.1814 112908 336.018
69.2984 109444 330.823
69.4154 107116 327.286
69.5323 106448 326.264
69.6492 107562 327.966
69.7661 108109 328.799
69.8829 108345 329.158
69.9997 108171 328.894
70.1165 106869 326.908
70.2332 105957 325.51
70.3499 102456 320.087
70.4665 98610 314.022
70.5831 93356 305.542
70.6996 90451 300.751
70.8161 88602 297.661
70.9326 85619 292.607
71.049 79966 282.783
71.1653 72485 269.23
71.2817 65364 255.664
71.3979 56792 238.311
71.5141 47310 217.509
71.6303 36102 190.005
71.7464 25427 159.458
71.8624 0 1
71.9784 0 1
72.0944 0 1
72.2102 0 1
72.3261 0 1
72.4418 0 1
72.5575 0 1
72.6732 0 1
75.1054 0 1
75.2209 0 1
75.3365 0 1
75.4521 0 1
75.5678 0 1
75.6835 0 1
75.7993 0 1
75.9151 0 1
76.031 0 1
76.147 85069 291.666
76.263 90536 300.892
76.3791 90807 301.342
76.4952 85965 293.198
76.6113 79863 282.6
76.7276 73781 271.627
76.8438 68149 261.054
76.9601 60979 246.939
77.0765 56845 238.422
77.1929 56599 237.905
77.3093 59004 242.907
77.4258 66373 257.63
77.5423 80711 284.097
77.6589 97198 311.766
77.7755 111788 334.347
77.8921 119579 345.802
78.0088 122032 349.331
78.1256 121326 348.319
78.2423 119931 346.311
78.3591 118275 343.911
78.4759 119068 345.062
78.5928 122511 350.016
78.7097 126794 356.081
78.8266 125663 354.49
78.9436 133109 364.841
79.0606 131573 362.73
79.1776 132761 364.364
79.2946 134057 366.138
79.4117 134294 366.461
79.5288 131883 363.157
79.6459 131542 362.687
79.7631 132879 364.526
79.8802 136008 368.793
79.9974 136211 369.068
80.1147 129753 360.212
80.2319 118287 343.929
80.3491 105723 325.151
80.4664 93824 306.307
80.5837 78750 280.624
80.701 68343 261.425
80.8183 63383 251.76
80.9357 64937 254.827
81.053 69150 262.964
81.1704 81918 286.213
81.2877 103333 321.455
81.4051 122632 350.189
81.5225 138352 371.957
81.6399 142885 378.001
81.7573 143934 379.386
81.8747 137327 370.577
81.9922 137092 370.259
82.1096 137252 370.475
82.227 139571 373.592
82.3444 143512 378.83
82.4619 148797 385.742
82.5793 149892 387.159
82.6967 152597 390.637
82.8142 154382 392.915
82.9316 154587 393.176
83.049 154580 393.167
83.1664 152033 389.914
83.2838 149705 386.917
83.4012 151556 389.302
83.5186 152658 390.715
83.636 151825 389.647
83.7534 142007 376.838
83.8708 129139 359.359
83.9881 117222 342.377
84.1055 105575 324.923
84.2228 92269 303.758
84.3401 77997 279.279
84.4575 69791 264.18
84.5747 70008 264.59
84.692 77362 278.14
84.8093 95696 309.348
84.9265 117408 342.649
85.0437 137567 370.9
85.1609 153061 391.23
85.2781 160320 400.4
85.3952 159602 399.502
85.5123 156153 395.162
85.6294 154502 393.067
85.7465 155492 394.325
85.8636 159403 399.253
85.9806 163528 404.386
86.0976 166846 408.468
86.2145 168872 410.94
86.3315 174858 418.16
86.4484 169247 411.396
86.5652 169499 411.703
86.682 164200 405.216
86.7988 158435 398.039
86.9156 154671 393.282
87.0323 154915 393.592
87.149 155973 394.934
87.2657 152222 390.156
87.3823 141428 376.069
87.4988 127095 356.504
87.6154 112611 335.576
87.7318 97508 312.263
87.8483 80122 283.058
87.9647 64762 254.484
88.081 57873 240.568
88.1973 57464 239.716
88.3136 61487 247.966
88.4298 73927 271.895
88.546 90294 300.49
88.6621 103548 321.789
88.7781 110352 332.193
88.8942 0 1
89.0101 0 1
89.126 0 1
89.2419 0 1
89.3577 0 1
89.4734 0 1
89.5891 0 1
89.7047 0 1
89.8203 0 1
89.9358 0 1
92.3269 0 1
92.4424 0 1
92.558 0 1
92.6736 0 1
92.7893 0 1
92.905 0 1
93.0208 0 1
93.1366 0 1
93.2525 0 1
93.3685 0 1
93.4845 0 1
93.6005 71602 267.586
93.7167 83905 289.664
93.8328 104601 323.421
93.949 128544 358.53
94.0653 150419 387.839
94.1816 165056 406.271
94.2979 173392 416.404
94.4143 176592 420.229
94.5307 178309 422.267
94.6472 181804 426.385
94.7637 185629 430.847
94.8803 189653 435.492
94.9969 194243 440.73
95.1135 197001 443.848
95.2302 202357 449.841
95.3469 203770 451.409
95.4637 206352 454.26
95.5805 206844 454.801
95.6973 205029 452.801
95.8142 201993 449.436
95.9311 199408 446.551
96.048 199128 446.238
96.1649 200002 447.216
96.2819 198230 445.23
96.3989 188959 434.694
96.516 172889 415.799
96.633 156237 395.268
96.7501 139797 373.894
96.8673 124484 352.823
96.9844 108981 330.123
97.1016 97772 312.685
97.2188 93468 305.725
97.336 98107 313.22
97.4532 113311 336.617
97.5704 137376 370.643
97.6877 161780 402.219
97.805 182733 427.473
97.9223 195791 442.483
98.0396 200314 447.565
98.1569 198537 445.575
98.2743 196364 443.13
98.3916 196488 443.27
98.509 201237 448.594
98.6264 203418 451.019
98.7438 208950 457.11
98.8612 211974 460.406
98.9786 215144 463.836
99.096 217117 465.958
99.2134 217070 465.908
99.3308 216340 465.124
99.4482 215749 464.488
99.5656 213490 462.05
99.6831 213666 462.24
99.8005 213569 462.135
99.9179 208512 456.631
100.035 195437 442.083
100.153 176778 420.45
100.27 158651 398.31
100.388 141265 375.852
100.505 123663 351.658
100.622 109268 330.557
100.74 101269 318.228
100.857 102050 319.453
100.975 112146 334.882
101.092 135745 368.436
101.209 162744 403.415
101.327 188628 434.313
101.444 205489 453.309
101.561 211817 460.236
101.679 209387 457.588
101.796 205393 453.203
101.913 203311 450.9
102.03 205094 452.873
102.148 209253 457.442
102.265 216652 465.459
102.382 213734 462.314
102.499 219113 468.095
102.616 220996 470.102
102.733 221808 470.965
102.851 221134 470.249
102.968 221707 470.858
103.085 218715 467.67
103.202 216787 465.604
103.319 216918 465.745
103.436 215843 464.589
103.552 206910 454.874
103.669 190945 436.973
103.786 171513 414.141
103.903 153677 392.017
104.02 136485 369.439
104.137 120013 346.429
104.253 107713 328.197
104.37 102246 319.759
104.487 106871 326.911
104.603 116886 341.886
104.72 133293 365.093
104.836 150362 387.765
104.953 163836 404.767
105.069 168019 409.901
105.186 167003 408.66
105.302 163138 403.903
105.418 155744 394.644
105.535 148186 384.949
105.651 140571 374.928
105.767 133113 364.847
105.883 126982 356.345
105.999 118066 343.607
106.115 0 1
106.231 0 1
106.347 0 1
106.463 0 1
106.579 0 1
106.694 0 1
106.81 0 1
106.926 0 1
107.041 0 1
107.157 0 1
109.576 0 1
109.692 0 1
109.807 0 1
109.923 0 1
110.039 0 1
110.155 0 1
110.27 0 1
110.386 0 1
110.502 0 1
110.618 115926 340.479
110.735 131445 362.553
110.851 146008 382.11
110.967 156184 395.201
111.083 165038 406.249
111.199 173779 416.868
111.316 181294 425.786
111.432 185586 430.797
111.549 190725 436.721
111.665 191424 437.52
111.782 189926 435.805
111.898 192695 438.97
112.015 197667 444.598
112.132 199199 446.317
112.248 190033 435.928
112.365 173842 416.944
112.482 154459 393.013
112.599 136591 369.582
112.716 120776 347.528
112.832 105723 325.151
112.949 97956 312.979
113.066 95729 309.401
113.183 99734 315.807
113.3 113418 336.776
113.417 136742 369.786
113.534 159580 399.475
113.652 176957 420.663
113.769 183264 428.093
113.886 182402 427.085
114.003 177969 421.864
114.12 177583 421.406
114.238 177892 421.772
114.355 182947 427.723
114.472 186343 431.675
114.589 188822 434.537
114.707 191015 437.053
114.824 192035 438.218
114.942 192201 438.407
115.059 192616 438.88
115.176 192410 438.646
115.294 187005 432.441
115.411 185437 430.624
115.529 185765 431.005
115.646 187420 432.92
115.764 184308 429.311
115.881 172987 415.917
115.999 156695 395.847
116.116 140434 374.745
116.234 126244 355.308
116.351 112088 334.795
116.469 100526 317.058
116.586 96070 309.952
116.704 95727 309.398
116.821 102225 319.726
116.939 117630 342.972
117.056 138936 372.741
117.174 155414 394.226
117.291 167024 408.686
117.409 169504 411.709
117.526 168292 410.234
117.644 164701 405.834
117.761 164382 405.441
117.879 166483 408.023
117.996 170717 413.179
118.114 175705 419.172
118.231 175368 418.77
118.349 178478 422.467
118.466 178115 422.037
118.584 177840 421.711
118.701 177618 421.448
118.819 174848 418.148
118.936 171486 414.109
119.053 170005 412.317
119.171 169695 411.941
119.288 169273 411.428
119.405 166661 408.241
119.523 159773 399.716
119.64 146466 382.709
119.757 132013 363.336
119.875 119009 344.977
119.992 106618 326.524
120.109 97383 312.062
120.226 93232 305.339
120.343 92583 304.275
120.46 95044 308.292
120.578 104068 322.596
120.695 119062 345.054
120.812 132033 363.363
120.929 140427 374.736
121.046 142607 377.633
121.163 139920 374.059
121.279 135829 368.55
121.396 132857 364.496
121.513 132515 364.026
121.63 133987 366.042
121.747 133685 365.63
121.863 134196 366.328
121.98 134087 366.179
122.097 132813 364.435
122.213 131690 362.891
122.33 127707 357.361
122.446 123841 351.91
122.563 116528 341.362
122.679 110670 332.671
122.795 105556 324.894
122.912 101635 318.802
123.028 97868 312.839
123.144 90874 301.453
123.26 80244 283.274
123.377 0 1
123.493 0 1
123.609 0 1
123.725 0 1
123.84 0 1
123.956 0 1
124.072 0 1
124.188 0 1
124.303 0 1
124.419 0 1
126.852 0 1
126.968 0 1
127.083 0 1
127.199 0 1
127.315 0 1
127.431 0 1
127.547 0 1
127.663 0 1
127.779 0 1
127.895 0 1
128.011 0 1
128.127 0 1
128.243 0 1
128.359 158121 397.644
128.476 159556 399.445
128.592 158556 398.191
128.708 151309 388.985
128.825 142830 377.929
128.941 134473 366.706
129.058 124737 353.181
129.174 117058 342.137
129.291 111702 334.218
129.408 110473 332.375
129.524 111298 333.614
129.641 116780 341.731
129.758 127908 357.642
129.875 139633 373.675
129.992 149542 386.707
130.108 153652 391.985
130.225 154144 392.612
130.342 153689 392.032
130.459 151575 389.326
130.576 160221 400.276
130.693 162676 403.331
130.81 166499 408.043
130.928 169050 411.157
131.045 171215 413.781
131.162 173564 416.61
131.279 175035 418.372
131.396 174209 417.384
131.513 172992 415.923
131.631 168956 411.043
131.748 167013 408.672
131.865 168864 410.931
131.983 169717 411.967
132.1 166163 407.631
132.217 159076 398.843
132.335 149957 387.243
132.452 140457 374.776
132.57 132221 363.622
132.687 121978 349.253
132.804 119228 345.294
132.922 115353 339.637
133.039 114757 338.758
133.157 117040 342.111
133.274 123117 350.88
133.392 132994 364.683
133.509 141550 376.231
133.627 147735 384.363
133.744 149332 386.435
133.862 150539 387.994
133.979 149937 387.217
134.097 150805 388.336
134.214 156141 395.147
134.332 160335 400.419
134.449 163108 403.866
134.567 165466 406.775
134.684 167467 409.227
134.802 169029 411.131
134.919 169710 411.959
135.037 167034 408.698
135.154 164377 405.434
135.272 161871 402.332
135.389 164374 405.431
135.507 163972 404.935
135.624 162554 403.18
135.742 159482 399.352
135.859 153723 392.075
135.977 146038 382.149
136.094 138548 372.22
136.211 130162 360.78
136.329 125132 353.74
136.446 120877 347.674
136.564 118704 344.534
136.681 117470 342.739
136.798 118022 343.543
136.915 122832 350.474
137.033 129498 359.858
137.15 136246 369.115
137.267 140712 375.116
137.384 142056 376.903
137.502 141190 375.753
137.619 139733 373.809
137.736 143126 378.32
137.853 142850 377.955
137.97 151509 389.242
138.087 151129 388.753
138.204 152946 391.083
138.321 153199 391.406
138.438 151573 389.324
138.555 150667 388.158
138.672 147391 383.915
138.788 142767 377.845
138.905 134984 367.402
139.022 131703 362.909
139.139 129696 360.133
139.255 126294 355.379
139.372 120819 347.59
139.488 113299 336.599
139.605 104643 323.486
139.721 95491 309.016
139.838 87990 296.631
139.954 80336 283.436
140.071 73474 271.061
140.187 69704 264.015
140.303 63491 251.974
140.419 59233 243.378
140.535 56299 237.274
140.652 54445 233.335
140.768 0 1
140.884 0 1
141 0 1
141.115 0 1
141.231 0 1
141.347 0 1
141.463 0 1
141.578 0 1
141.694 0 1
144.104 0 1
144.219 0 1
144.335 0 1
144.45 0 1
144.566 0 1
144.682 0 1
144.798 0 1
144.914 0 1
145.03 0 1
145.146 88850 298.077
145.262 90616 301.025
145.378 91652 302.741
145.494 91234 302.05
145.61 92148 303.559
145.726 93154 305.211
145.842 96498 310.641
145.959 99293 315.108
146.075 99722 315.788
146.192 100409 316.874
146.308 99802 315.915
146.425 99806 315.921
146.541 101091 317.948
146.658 102841 320.688
146.774 106187 325.863
146.891 109102 330.306
147.008 111831 334.411
147.125 111709 334.229
147.241 113819 337.371
147.358 114923 339.003
147.475 114625 338.563
147.592 112851 335.933
147.709 110985 333.144
147.826 109482 330.881
147.943 109501 330.909
148.06 110573 332.525
148.177 108861 329.941
148.294 107838 328.387
148.411 107174 327.374
148.528 104805 323.736
148.645 101806 319.071
148.762 100708 317.345
148.88 99162 314.9
148.997 99701 315.755
149.114 95909 309.692
149.231 95132 308.435
149.349 95634 309.247
149.466 95014 308.243
149.583 96280 310.29
149.701 97338 311.99
149.818 97959 312.984
149.935 97873 312.847
150.053 96780 311.095
150.17 97305 311.937
150.287 98397 313.683
150.405 100555 317.104
150.522 103954 322.419
150.64 106635 326.55
150.757 108309 329.103
150.875 109091 330.289
150.992 110680 332.686
151.11 110949 333.09
151.227 108842 329.912
151.344 106875 326.917
151.462 105357 324.587
151.579 103381 321.529
151.697 104917 323.909
151.814 105792 325.257
151.932 103825 322.219
152.049 102704 320.475
152.167 100994 317.796
152.284 98716 314.191
152.402 97267 311.877
152.519 95336 308.765
152.636 94422 307.282
152.754 94002 306.597
152.871 92626 304.345
152.989 91357 302.253
153.106 92258 303.74
153.223 91671 302.772
153.341 92548 304.217
153.458 92578 304.266
153.575 91078 301.791
153.693 89589 299.314
153.81 90068 300.113
153.927 91832 303.038
154.044 94186 306.897
154.162 96431 310.533
154.279 98258 313.461
154.396 100164 316.487
154.513 100541 317.082
154.63 101738 318.964
154.747 101859 319.154
154.864 100662 317.273
154.981 97871 312.843
155.098 95917 309.705
155.215 96160 310.097
155.332 95752 309.438
155.449 94851 307.979
155.566 93100 305.123
155.683 91095 301.819
155.8 89168 298.61
155.917 86712 294.469
156.033 84117 290.029
156.15 0 1
156.267 0 1
156.383 0 1
156.5 0 1
156.617 0 1
156.733 0 1
156.85 0 1
156.966 0 1
157.082 0 1
157.199 0 1
157.315 0 1
157.431 0 1
157.547 0 1
157.664 0 1
157.78 0 1
157.896 0 1
158.012 0 1
158.128 0 1
158.244 0 1
158.359 0 1
158.475 0 1
158.591 0 1
158.706 0 1
