
6.15755 0 1
6.2731 0 1
6.3887 0 1
6.50437 0 1
6.62009 0 1
6.73587 0 1
6.8517 0 1
6.96759 0 1
7.08353 0 1
7.19952 0 1
7.31557 0 1
7.43166 0 1
7.54781 0 1
7.664 0 1
7.78024 0 1
7.89653 0 1
8.01286 0 1
8.12924 0 1
8.24567 0 1
8.36213 0 1
8.47864 0 1
8.59519 0 1
8.71178 0 1
8.82841 0 1
8.94508 0 1
9.06179 0 1
9.17853 0 1
9.29531 0 1
9.41212 0 1
9.52897 0 1
9.64584 0 1
9.76276 0 1
9.8797 0 1
9.99667 0 1
10.1137 0 1
10.2307 0 1
10.3478 0 1
10.4648 0 1
10.5819 0 1
10.6991 0 1
10.8162 0 1
10.9334 0 1
11.0506 0 1
11.1678 0 1
11.285 0 1
11.4023 0 1
11.5196 0 1
11.6369 0 1
11.7542 0 1
11.8715 0 1
11.9888 0 1
12.1062 0 1
12.2235 0 1
12.3409 0 1
12.4582 0 1
12.5756 0 1
12.693 0 1
12.8104 0 1
12.9278 0 1
13.0452 0 1
13.1626 0 1
13.28 0 1
13.3974 0 1
13.5149 0 1
13.6323 0 1
13.7497 0 1
13.8671 0 1
13.9845 0 1
14.1019 0 1
14.2193 0 1
14.3367 0 1
14.4541 0 1
14.5714 0 1
14.6888 0 1
14.8062 0 1
14.9235 0 1
15.0408 700 26.4575
15.1581 722 26.8701
15.2755 698 26.4197
15.3927 784 28
15.51 784 28
15.6273 709 26.6271
15.7445 679 26.0576
15.8617 675 25.9808
15.9789 648 25.4558
16.0961 669 25.865
16.2132 633 25.1595
16.3304 614 24.779
16.4475 601 24.5153
16.5646 621 24.9199
16.6816 614 24.779
16.7986 583 24.1454
16.9156 566 23.7908
17.0326 555 23.5584
17.1496 587 24.2281
17.2665 559 23.6432
17.3833 565 23.7697
17.5002 576 24
17.617 592 24.3311
17.7338 624 24.98
17.8505 598 24.454
17.9672 577 24.0208
18.0839 549 23.4307
18.2005 532 23.0651
18.3171 538 23.1948
18.4337 571 23.8956
18.5502 596 24.4131
18.6666 569 23.8537
18.7831 602 24.5357
18.8994 521 22.8254
19.0158 560 23.6643
19.1321 523 22.8692
19.2483 461 21.4709
19.3645 477 21.8403
19.4806 476 21.8174
19.5967 422 20.5426
19.7128 425 20.6155
19.8288 411 20.2731
19.9447 384 19.5959
20.0606 0 1
20.1764 0 1
20.2922 0 1
20.4079 0 1
20.5236 0 1
20.6392 0 1
20.7548 0 1
20.8702 0 1
23.3078 0 1
23.4233 0 1
23.539 0 1
23.6547 0 1
23.7704 0 1
23.8862 0 1
24.0021 0 1
24.118 0 1
24.234 0 1
24.35 0 1
24.4661 273 16.5227
24.5822 302 17.3781
24.6984 324 18
24.8146 410 20.2485
24.9309 499 22.3383
25.0472 506 22.4944
25.1636 548 23.4094
25.28 633 25.1595
25.3965 633 25.1595
25.513 680 26.0768
25.6296 688 26.2298
25.7462 743 27.258
25.8628 814 28.5307
25.9795 742 27.2397
26.0962 736 27.1293
26.213 752 27.4226
26.3298 704 26.533
26.4466 801 28.3019
26.5635 823 28.688
26.6804 753 27.4408
26.7973 555 23.5584
26.9143 614 24.779
27.0313 886 29.7658
27.1483 1224 34.9857
27.2653 1311 36.2077
27.3824 1286 35.8608
27.4996 1259 35.4824
27.6167 1264 35.5528
27.7339 1269 35.623
27.8511 1305 36.1248
27.9683 1336 36.5513
28.0855 1492 38.6264
28.2028 1503 38.7685
28.3201 1444 38
28.4374 1444 38
28.5547 1510 38.8587
28.6721 1471 38.3536
28.7894 1402 37.4433
28.9068 1329 36.4555
29.0242 1339 36.5923
29.1416 1340 36.606
29.259 1153 33.9559
29.3764 1036 32.187
29.4939 930 30.4959
29.6113 802 28.3196
29.7288 769 27.7308
29.8463 750 27.3861
29.9638 645 25.3969
30.0812 589 24.2693
30.1987 551 23.4734
30.3162 487 22.0681
30.4337 603 24.5561
30.5512 726 26.9444
30.6687 969 31.1288
30.7862 1043 32.2955
30.9037 1007 31.7333
31.0212 930 30.4959
31.1387 891 29.8496
31.2562 772 27.7849
31.3737 703 26.5141
31.4912 688 26.2298
31.6087 580 24.0832
31.7262 565 23.7697
31.8436 602 24.5357
31.9611 557 23.6008
32.0785 533 23.0868
32.1959 545 23.3452
32.3134 525 22.9129
32.4308 549 23.4307
32.5482 570 23.8747
32.6655 506 22.4944
32.7829 518 22.7596
32.9002 463 21.5174
33.0176 507 22.5167
33.1349 537 23.1733
33.2522 521 22.8254
33.3694 513 22.6495
33.4867 498 22.3159
33.6039 513 22.6495
33.7211 509 22.561
33.8383 466 21.587
33.9554 450 21.2132
34.0725 502 22.4054
34.1896 499 22.3383
34.3067 547 23.388
34.4237 534 23.1084
34.5407 564 23.7487
34.6577 484 22
34.7746 526 22.9347
34.8915 497 22.2935
35.0084 526 22.9347
35.1252 509 22.561
35.242 522 22.8473
35.3587 487 22.0681
35.4755 451 21.2368
35.5921 489 22.1133
35.7088 492 22.1811
35.8254 445 21.095
35.9419 487 22.0681
36.0584 469 21.6564
36.1749 485 22.0227
36.2913 466 21.587
36.4077 445 21.095
36.524 406 20.1494
36.6403 437 20.9045
36.7565 403 20.0749
36.8727 391 19.7737
36.9889 368 19.1833
37.1049 294 17.1464
37.221 0 1
37.3369 0 1
37.4529 0 1
37.5687 0 1
37.6845 0 1
37.8003 0 1
37.916 0 1
38.0316 0 1
38.1472 0 1
40.5851 0 1
40.7008 0 1
40.8164 0 1
40.9322 0 1
41.048 0 1
41.1639 0 1
41.2798 0 1
41.3958 0 1
41.5118 0 1
41.6279 0 1
41.744 231 15.1987
41.8602 265 16.2788
41.9765 271 16.4621
42.0928 296 17.2047
42.2091 375 19.3649
42.3255 406 20.1494
42.4419 373 19.3132
42.5584 355 18.8414
42.675 366 19.1311
42.7915 321 17.9165
42.9081 358 18.9209
43.0248 371 19.2614
43.1415 399 19.975
43.2582 367 19.1572
43.375 388 19.6977
43.4918 370 19.2354
43.6087 352 18.7617
43.7256 367 19.1572
43.8425 357 18.8944
43.9595 337 18.3576
44.0765 370 19.2354
44.1935 374 19.3391
44.3106 386 19.6469
44.4277 339 18.412
44.5448 379 19.4679
44.6619 392 19.799
44.7791 406 20.1494
44.8963 401 20.025
45.0136 401 20.025
45.1308 400 20
45.2481 370 19.2354
45.3654 391 19.7737
45.4827 392 19.799
45.6001 388 19.6977
45.7174 403 20.0749
45.8348 408 20.199
45.9522 393 19.8242
46.0697 383 19.5704
46.1871 334 18.2757
46.3046 361 19
46.422 321 17.9165
46.5395 351 18.735
46.657 388 19.6977
46.7745 416 20.3961
46.892 391 19.7737
47.0096 383 19.5704
47.1271 396 19.8997
47.2446 404 20.0998
47.3622 397 19.9249
47.4797 362 19.0263
47.5973 355 18.8414
47.7149 368 19.1833
47.8324 388 19.6977
47.95 384 19.5959
48.0675 383 19.5704
48.1851 408 20.199
48.3027 401 20.025
48.4202 368 19.1833
48.5378 362 19.0263
48.6554 373 19.3132
48.7729 413 20.3224
48.8904 400 20
49.008 412 20.2978
49.1255 413 20.3224
49.243 358 18.9209
49.3605 390 19.7484
49.478 383 19.5704
49.5955 347 18.6279
49.713 300 17.3205
49.8304 320 17.8885
49.9479 341 18.4662
50.0653 363 19.0526
50.1827 346 18.6011
50.3001 332 18.2209
50.4175 348 18.6548
50.5348 399 19.975
50.6521 357 18.8944
50.7694 344 18.5472
50.8867 336 18.3303
51.004 375 19.3649
51.1212 376 19.3907
51.2384 338 18.3848
51.3556 379 19.4679
51.4727 372 19.2873
51.5899 359 18.9473
51.707 395 19.8746
51.824 362 19.0263
51.9411 332 18.2209
52.0581 353 18.7883
52.175 343 18.5203
52.2919 372 19.2873
52.4088 369 19.2094
52.5257 388 19.6977
52.6425 356 18.868
52.7593 397 19.9249
52.876 358 18.9209
52.9927 388 19.6977
53.1094 370 19.2354
53.226 340 18.4391
53.3426 327 18.0831
53.4591 340 18.4391
53.5756 334 18.2757
53.692 322 17.9444
53.8084 296 17.2047
53.9248 319 17.8606
54.0411 302 17.3781
54.1573 237 15.3948
54.2735 0 1
54.3896 0 1
54.5057 0 1
54.6217 0 1
54.7377 0 1
54.8537 0 1
54.9695 0 1
55.0853 0 1
55.2011 0 1
55.3168 0 1
55.4324 0 1
57.824 0 1
57.9396 0 1
58.0553 0 1
58.1711 0 1
58.2869 0 1
58.4028 0 1
58.5187 0 1
58.6347 0 1
58.7508 0 1
58.8669 0 1
58.983 603 24.5561
59.0992 784 28
59.2155 893 29.8831
59.3318 1032 32.1248
59.4482 1091 33.0303
59.5646 1102 33.1964
59.681 1071 32.7261
59.7975 1070 32.7109
59.9141 1092 33.0454
60.0306 1111 33.3317
60.1473 1007 31.7333
60.2639 1027 32.0468
60.3807 1029 32.078
60.4974 979 31.289
60.6142 958 30.9516
60.731 899 29.9833
60.8479 918 30.2985
60.9648 930 30.4959
61.0818 907 30.1164
61.1987 831 28.8271
61.3158 877 29.6142
61.4328 877 29.6142
61.5499 811 28.4781
61.667 833 28.8617
61.7841 783 27.9821
61.9013 730 27.0185
62.0185 722 26.8701
62.1357 727 26.9629
62.253 755 27.4773
62.3702 705 26.5518
62.4875 671 25.9037
62.6049 711 26.6646
62.7222 660 25.6905
62.8396 707 26.5895
62.9569 618 24.8596
63.0743 585 24.1868
63.1918 563 23.7276
63.3092 526 22.9347
63.4267 499 22.3383
63.5441 473 21.7486
63.6616 451 21.2368
63.7791 502 22.4054
63.8966 480 21.9089
64.0142 424 20.5913
64.1317 519 22.7816
64.2492 486 22.0454
64.3668 437 20.9045
64.4843 449 21.1896
64.6019 474 21.7715
64.7195 462 21.4942
64.837 480 21.9089
64.9546 484 22
65.0722 464 21.5407
65.1898 455 21.3307
65.3074 461 21.4709
65.4249 436 20.8806
65.5425 455 21.3307
65.6601 459 21.4243
65.7777 446 21.1187
65.8952 452 21.2603
66.0128 497 22.2935
66.1304 439 20.9523
66.2479 445 21.095
66.3655 458 21.4009
66.483 410 20.2485
66.6005 481 21.9317
66.718 501 22.383
66.8355 466 21.587
66.953 423 20.567
67.0705 420 20.4939
67.1879 448 21.166
67.3054 470 21.6795
67.4228 461 21.4709
67.5402 483 21.9773
67.6576 468 21.6333
67.7749 442 21.0238
67.8923 457 21.3776
68.0096 435 20.8567
68.1269 455 21.3307
68.2442 463 21.5174
68.3614 458 21.4009
68.4787 483 21.9773
68.5958 469 21.6564
68.713 453 21.2838
68.8302 459 21.4243
68.9473 446 21.1187
69.0643 407 20.1742
69.1814 422 20.5426
69.2984 446 21.1187
69.4154 468 21.6333
69.5323 431 20.7605
69.6492 459 21.4243
69.7661 461 21.4709
69.8829 427 20.664
69.9997 431 20.7605
70.1165 414 20.347
70.2332 442 21.0238
70.3499 415 20.3715
70.4665 373 19.3132
70.5831 335 18.303
70.6996 354 18.8149
70.8161 323 17.9722
70.9326 290 17.0294
71.049 249 15.7797
71.1653 259 16.0935
71.2817 250 15.8114
71.3979 237 15.3948
71.5141 214 14.6287
71.6303 224 14.9666
71.7464 168 12.9615
71.8624 0 1
71.9784 0 1
72.0944 0 1
72.2102 0 1
72.3261 0 1
72.4418 0 1
72.5575 0 1
72.6732 0 1
75.1054 0 1
75.2209 0 1
75.3365 0 1
75.4521 0 1
75.5678 0 1
75.6835 0 1
75.7993 0 1
75.9151 0 1
76.031 0 1
76.147 243 15.5885
76.263 320 17.8885
76.3791 310 17.6068
76.4952 352 18.7617
76.6113 334 18.2757
76.7276 392 19.799
76.8438 387 19.6723
76.9601 381 19.5192
77.0765 353 18.7883
77.1929 410 20.2485
77.3093 388 19.6977
77.4258 385 19.6214
77.5423 385 19.6214
77.6589 389 19.7231
77.7755 379 19.4679
77.8921 366 19.1311
78.0088 421 20.5183
78.1256 372 19.2873
78.2423 375 19.3649
78.3591 351 18.735
78.4759 392 19.799
78.5928 371 19.2614
78.7097 369 19.2094
78.8266 371 19.2614
78.9436 376 19.3907
79.0606 357 18.8944
79.1776 390 19.7484
79.2946 364 19.0788
79.4117 404 20.0998
79.5288 406 20.1494
79.6459 369 19.2094
79.7631 399 19.975
79.8802 387 19.6723
79.9974 426 20.6398
80.1147 410 20.2485
80.2319 428 20.6882
80.3491 381 19.5192
80.4664 379 19.4679
80.5837 374 19.3391
80.701 413 20.3224
80.8183 411 20.2731
80.9357 376 19.3907
81.053 384 19.5959
81.1704 400 20
81.2877 439 20.9523
81.4051 448 21.166
81.5225 423 20.567
81.6399 393 19.8242
81.7573 396 19.8997
81.8747 383 19.5704
81.9922 387 19.6723
82.1096 396 19.8997
82.227 426 20.6398
82.3444 405 20.1246
82.4619 402 20.0499
82.5793 406 20.1494
82.6967 401 20.025
82.8142 420 20.4939
82.9316 458 21.4009
83.049 393 19.8242
83.1664 369 19.2094
83.2838 419 20.4695
83.4012 395 19.8746
83.5186 400 20
83.636 414 20.347
83.7534 401 20.025
83.8708 442 21.0238
83.9881 410 20.2485
84.1055 416 20.3961
84.2228 411 20.2731
84.3401 358 18.9209
84.4575 402 20.0499
84.5747 412 20.2978
84.692 374 19.3391
84.8093 427 20.664
84.9265 423 20.567
85.0437 370 19.2354
85.1609 403 20.0749
85.2781 418 20.445
85.3952 405 20.1246
85.5123 402 20.0499
85.6294 390 19.7484
85.7465 416 20.3961
85.8636 368 19.1833
85.9806 374 19.3391
86.0976 401 20.025
86.2145 382 19.5448
86.3315 395 19.8746
86.4484 433 20.8087
86.5652 401 20.025
86.682 408 20.199
86.7988 440 20.9762
86.9156 425 20.6155
87.0323 410 20.2485
87.149 403 20.0749
87.2657 403 20.0749
87.3823 381 19.5192
87.4988 401 20.025
87.6154 383 19.5704
87.7318 386 19.6469
87.8483 378 19.4422
87.9647 310 17.6068
88.081 356 18.868
88.1973 310 17.6068
88.3136 289 17
88.4298 268 16.3707
88.546 281 16.7631
88.6621 254 15.9374
88.7781 219 14.7986
88.8942 0 1
89.0101 0 1
89.126 0 1
89.2419 0 1
89.3577 0 1
89.4734 0 1
89.5891 0 1
89.7047 0 1
89.8203 0 1
89.9358 0 1
92.3269 0 1
92.4424 0 1
92.558 0 1
92.6736 0 1
92.7893 0 1
92.905 0 1
93.0208 0 1
93.1366 0 1
93.2525 0 1
93.3685 0 1
93.4845 0 1
93.6005 326 18.0555
93.7167 333 18.2483
93.8328 384 19.5959
93.949 398 19.9499
94.0653 390 19.7484
94.1816 434 20.8327
94.2979 430 20.7364
94.4143 413 20.3224
94.5307 415 20.3715
94.6472 393 19.8242
94.7637 389 19.7231
94.8803 448 21.166
94.9969 415 20.3715
95.1135 401 20.025
95.2302 400 20
95.3469 397 19.9249
95.4637 382 19.5448
95.5805 414 20.347
95.6973 393 19.8242
95.8142 411 20.2731
95.9311 448 21.166
96.048 410 20.2485
96.1649 428 20.6882
96.2819 454 21.3073
96.3989 440 20.9762
96.516 392 19.799
96.633 391 19.7737
96.7501 405 20.1246
96.8673 432 20.7846
96.9844 415 20.3715
97.1016 422 20.5426
97.2188 437 20.9045
97.336 391 19.7737
97.4532 407 20.1742
97.5704 436 20.8806
97.6877 413 20.3224
97.805 438 20.9284
97.9223 416 20.3961
98.0396 426 20.6398
98.1569 406 20.1494
98.2743 402 20.0499
98.3916 464 21.5407
98.509 439 20.9523
98.6264 452 21.2603
98.7438 428 20.6882
98.8612 453 21.2838
98.9786 412 20.2978
99.096 401 20.025
99.2134 471 21.7025
99.3308 407 20.1742
99.4482 444 21.0713
99.5656 460 21.4476
99.6831 465 21.5639
99.8005 482 21.9545
99.9179 444 21.0713
100.035 490 22.1359
100.153 491 22.1585
100.27 459 21.4243
100.388 435 20.8567
100.505 422 20.5426
100.622 400 20
100.74 490 22.1359
100.857 465 21.5639
100.975 425 20.6155
101.092 451 21.2368
101.209 490 22.1359
101.327 449 21.1896
101.444 452 21.2603
101.561 448 21.166
101.679 518 22.7596
101.796 491 22.1585
101.913 449 21.1896
102.03 414 20.347
102.148 472 21.7256
102.265 443 21.0476
102.382 449 21.1896
102.499 448 21.166
102.616 484 22
102.733 505 22.4722
102.851 470 21.6795
102.968 527 22.9565
103.085 467 21.6102
103.202 496 22.2711
103.319 460 21.4476
103.436 506 22.4944
103.552 465 21.5639
103.669 493 22.2036
103.786 480 21.9089
103.903 460 21.4476
104.02 440 20.9762
104.137 458 21.4009
104.253 467 21.6102
104.37 475 21.7945
104.487 449 21.1896
104.603 498 22.3159
104.72 452 21.2603
104.836 510 22.5832
104.953 480 21.9089
105.069 455 21.3307
105.186 425 20.6155
105.302 411 20.2731
105.418 395 19.8746
105.535 373 19.3132
105.651 289 17
105.767 314 17.72
105.883 306 17.4929
105.999 296 17.2047
106.115 0 1
106.231 0 1
106.347 0 1
106.463 0 1
106.579 0 1
106.694 0 1
106.81 0 1
106.926 0 1
107.041 0 1
107.157 0 1
109.576 0 1
109.692 0 1
109.807 0 1
109.923 0 1
110.039 0 1
110.155 0 1
110.27 0 1
110.386 0 1
110.502 0 1
110.618 234 15.2971
110.735 261 16.1555
110.851 337 18.3576
110.967 328 18.1108
111.083 342 18.4932
111.199 402 20.0499
111.316 431 20.7605
111.432 433 20.8087
111.549 469 21.6564
111.665 456 21.3542
111.782 467 21.6102
111.898 489 22.1133
112.015 497 22.2935
112.132 444 21.0713
112.248 474 21.7715
112.365 424 20.5913
112.482 417 20.4206
112.599 407 20.1742
112.716 417 20.4206
112.832 407 20.1742
112.949 404 20.0998
113.066 425 20.6155
113.183 389 19.7231
113.3 450 21.2132
113.417 443 21.0476
113.534 420 20.4939
113.652 430 20.7364
113.769 488 22.0907
113.886 480 21.9089
114.003 406 20.1494
114.12 425 20.6155
114.238 397 19.9249
114.355 409 20.2237
114.472 375 19.3649
114.589 344 18.5472
114.707 394 19.8494
114.824 415 20.3715
114.942 414 20.347
115.059 449 21.1896
115.176 434 20.8327
115.294 422 20.5426
115.411 375 19.3649
115.529 392 19.799
115.646 401 20.025
115.764 434 20.8327
115.881 392 19.799
115.999 362 19.0263
116.116 342 18.4932
116.234 324 18
116.351 374 19.3391
116.469 379 19.4679
116.586 407 20.1742
116.704 357 18.8944
116.821 374 19.3391
116.939 403 20.0749
117.056 407 20.1742
117.174 365 19.105
117.291 382 19.5448
117.409 428 20.6882
117.526 415 20.3715
117.644 384 19.5959
117.761 370 19.2354
117.879 367 19.1572
117.996 350 18.7083
118.114 354 18.8149
118.231 361 19
118.349 401 20.025
118.466 366 19.1311
118.584 365 19.105
118.701 371 19.2614
118.819 375 19.3649
118.936 381 19.5192
119.053 375 19.3649
119.171 364 19.0788
119.288 388 19.6977
119.405 370 19.2354
119.523 383 19.5704
119.64 357 18.8944
119.757 344 18.5472
119.875 365 19.105
119.992 355 18.8414
120.109 379 19.4679
120.226 357 18.8944
120.343 371 19.2614
120.46 370 19.2354
120.578 384 19.5959
120.695 394 19.8494
120.812 370 19.2354
120.929 363 19.0526
121.046 371 19.2614
121.163 380 19.4936
121.279 342 18.4932
121.396 334 18.2757
121.513 300 17.3205
121.63 320 17.8885
121.747 324 18
121.863 312 17.6635
121.98 307 17.5214
122.097 318 17.8326
122.213 314 17.72
122.33 271 16.4621
122.446 302 17.3781
122.563 276 16.6132
122.679 271 16.4621
122.795 284 16.8523
122.912 230 15.1658
123.028 231 15.1987
123.144 171 13.0767
123.26 152 12.3288
123.377 0 1
123.493 0 1
123.609 0 1
123.725 0 1
123.84 0 1
123.956 0 1
124.072 0 1
124.188 0 1
124.303 0 1
124.419 0 1
126.852 0 1
126.968 0 1
127.083 0 1
127.199 0 1
127.315 0 1
127.431 0 1
127.547 0 1
127.663 0 1
127.779 0 1
127.895 0 1
128.011 0 1
128.127 0 1
128.243 0 1
128.359 382 19.5448
128.476 406 20.1494
128.592 409 20.2237
128.708 392 19.799
128.825 390 19.7484
128.941 372 19.2873
129.058 425 20.6155
129.174 383 19.5704
129.291 399 19.975
129.408 422 20.5426
129.524 420 20.4939
129.641 420 20.4939
129.758 449 21.1896
129.875 444 21.0713
129.992 427 20.664
130.108 452 21.2603
130.225 436 20.8806
130.342 402 20.0499
130.459 403 20.0749
130.576 438 20.9284
130.693 357 18.8944
130.81 410 20.2485
130.928 404 20.0998
131.045 427 20.664
131.162 498 22.3159
131.279 546 23.3666
131.396 557 23.6008
131.513 541 23.2594
131.631 573 23.9374
131.748 550 23.4521
131.865 541 23.2594
131.983 605 24.5967
132.1 593 24.3516
132.217 578 24.0416
132.335 604 24.5764
132.452 660 25.6905
132.57 622 24.9399
132.687 613 24.7588
132.804 704 26.533
132.922 712 26.6833
133.039 741 27.2213
133.157 751 27.4044
133.274 714 26.7208
133.392 752 27.4226
133.509 761 27.5862
133.627 764 27.6405
133.744 752 27.4226
133.862 817 28.5832
133.979 801 28.3019
134.097 780 27.9285
134.214 669 25.865
134.332 630 25.0998
134.449 625 25
134.567 736 27.1293
134.684 740 27.2029
134.802 793 28.1603
134.919 766 27.6767
135.037 805 28.3725
135.154 881 29.6816
135.272 825 28.7228
135.389 860 29.3258
135.507 776 27.8568
135.624 882 29.6985
135.742 864 29.3939
135.859 798 28.2489
135.977 836 28.9137
136.094 835 28.8964
136.211 828 28.775
136.329 809 28.4429
136.446 923 30.3809
136.564 852 29.189
136.681 871 29.5127
136.798 925 30.4138
136.915 893 29.8831
137.033 895 29.9166
137.15 923 30.3809
137.267 904 30.0666
137.384 952 30.8545
137.502 906 30.0998
137.619 891 29.8496
137.736 875 29.5804
137.853 765 27.6586
137.97 758 27.5318
138.087 748 27.3496
138.204 744 27.2764
138.321 798 28.2489
138.438 858 29.2916
138.555 965 31.0644
138.672 972 31.1769
138.788 969 31.1288
138.905 988 31.4325
139.022 1012 31.8119
139.139 917 30.282
139.255 900 30
139.372 782 27.9643
139.488 803 28.3373
139.605 638 25.2587
139.721 681 26.096
139.838 664 25.7682
139.954 638 25.2587
140.071 627 25.04
140.187 623 24.96
140.303 584 24.1661
140.419 558 23.622
140.535 543 23.3024
140.652 506 22.4944
140.768 0 1
140.884 0 1
141 0 1
141.115 0 1
141.231 0 1
141.347 0 1
141.463 0 1
141.578 0 1
141.694 0 1
144.104 0 1
144.219 0 1
144.335 0 1
144.45 0 1
144.566 0 1
144.682 0 1
144.798 0 1
144.914 0 1
145.03 0 1
145.146 916 30.2655
145.262 909 30.1496
145.378 909 30.1496
145.494 923 30.3809
145.61 994 31.5278
145.726 992 31.496
145.842 1012 31.8119
145.959 982 31.3369
146.075 955 30.9031
146.192 926 30.4302
146.308 1009 31.7648
146.425 930 30.4959
146.541 918 30.2985
146.658 880 29.6648
146.774 906 30.0998
146.891 839 28.9655
147.008 844 29.0517
147.125 885 29.7489
147.241 945 30.7409
147.358 929 30.4795
147.475 966 31.0805
147.592 973 31.1929
147.709 947 30.7734
147.826 971 31.1609
147.943 1032 32.1248
148.06 919 30.315
148.177 935 30.5778
148.294 895 29.9166
148.411 913 30.2159
148.528 935 30.5778
148.645 934 30.5614
148.762 1035 32.1714
148.88 927 30.4467
148.997 941 30.6757
149.114 941 30.6757
149.231 989 31.4484
149.349 943 30.7083
149.466 990 31.4643
149.583 943 30.7083
149.701 976 31.241
149.818 986 31.4006
149.935 941 30.6757
150.053 875 29.5804
150.17 847 29.1033
150.287 868 29.4618
150.405 771 27.7669
150.522 834 28.8791
150.64 785 28.0179
150.757 807 28.4077
150.875 849 29.1376
150.992 782 27.9643
151.11 817 28.5832
151.227 846 29.0861
151.344 852 29.189
151.462 850 29.1548
151.579 824 28.7054
151.697 798 28.2489
151.814 743 27.258
151.932 763 27.6225
152.049 823 28.688
152.167 799 28.2666
152.284 814 28.5307
152.402 804 28.3549
152.519 813 28.5132
152.636 837 28.931
152.754 816 28.5657
152.871 806 28.3901
152.989 839 28.9655
153.106 868 29.4618
153.223 836 28.9137
153.341 778 27.8927
153.458 762 27.6043
153.575 773 27.8029
153.693 752 27.4226
153.81 799 28.2666
153.927 692 26.3059
154.044 691 26.2869
154.162 637 25.2389
154.279 745 27.2947
154.396 726 26.9444
154.513 749 27.3679
154.63 772 27.7849
154.747 744 27.2764
154.864 744 27.2764
154.981 767 27.6948
155.098 842 29.0172
155.215 764 27.6405
155.332 732 27.0555
155.449 722 26.8701
155.566 775 27.8388
155.683 804 28.3549
155.8 759 27.55
155.917 769 27.7308
156.033 731 27.037
156.15 0 1
156.267 0 1
156.383 0 1
156.5 0 1
156.617 0 1
156.733 0 1
156.85 0 1
156.966 0 1
157.082 0 1
157.199 0 1
157.315 0 1
157.431 0 1
157.547 0 1
157.664 0 1
157.78 0 1
157.896 0 1
158.012 0 1
158.128 0 1
158.244 0 1
158.359 0 1
158.475 0 1
158.591 0 1
158.706 0 1
