
6.15755 0 1
6.2731 0 1
6.3887 0 1
6.50437 0 1
6.62009 0 1
6.73587 0 1
6.8517 0 1
6.96759 0 1
7.08353 0 1
7.19952 0 1
7.31557 0 1
7.43166 0 1
7.54781 0 1
7.664 0 1
7.78024 0 1
7.89653 0 1
8.01286 0 1
8.12924 0 1
8.24567 0 1
8.36213 0 1
8.47864 0 1
8.59519 0 1
8.71178 0 1
8.82841 0 1
8.94508 0 1
9.06179 0 1
9.17853 0 1
9.29531 0 1
9.41212 0 1
9.52897 0 1
9.64584 0 1
9.76276 0 1
9.8797 0 1
9.99667 0 1
10.1137 0 1
10.2307 0 1
10.3478 0 1
10.4648 0 1
10.5819 0 1
10.6991 0 1
10.8162 0 1
10.9334 0 1
11.0506 0 1
11.1678 0 1
11.285 0 1
11.4023 0 1
11.5196 0 1
11.6369 0 1
11.7542 0 1
11.8715 0 1
11.9888 0 1
12.1062 0 1
12.2235 0 1
12.3409 0 1
12.4582 0 1
12.5756 0 1
12.693 0 1
12.8104 0 1
12.9278 0 1
13.0452 0 1
13.1626 0 1
13.28 0 1
13.3974 0 1
13.5149 0 1
13.6323 0 1
13.7497 0 1
13.8671 0 1
13.9845 0 1
14.1019 0 1
14.2193 0 1
14.3367 0 1
14.4541 0 1
14.5714 0 1
14.6888 0 1
14.8062 0 1
14.9235 0 1
15.0408 9016 94.9526
15.1581 9627 98.1173
15.2755 9678 98.3768
15.3927 9618 98.0714
15.51 9687 98.4226
15.6273 9809 99.0404
15.7445 9738 98.6813
15.8617 9572 97.8366
15.9789 9733 98.656
16.0961 9879 99.3932
16.2132 9884 99.4183
16.3304 10604 102.976
16.4475 10612 103.015
16.5646 11294 106.273
16.6816 11602 107.713
16.7986 11981 109.458
16.9156 12011 109.595
17.0326 12348 111.122
17.1496 12213 110.512
17.2665 12960 113.842
17.3833 13015 114.083
17.5002 13276 115.222
17.617 13266 115.178
17.7338 13355 115.564
17.8505 13270 115.195
17.9672 13105 114.477
18.0839 12450 111.58
18.2005 12202 110.463
18.3171 12335 111.063
18.4337 12774 113.022
18.5502 13255 115.13
18.6666 13563 116.46
18.7831 13674 116.936
18.8994 13638 116.782
19.0158 13455 115.996
19.1321 13258 115.143
19.2483 12873 113.459
19.3645 12686 112.632
19.4806 12461 111.629
19.5967 12085 109.932
19.7128 12100 110
19.8288 11913 109.147
19.9447 10508 102.509
20.0606 0 1
20.1764 0 1
20.2922 0 1
20.4079 0 1
20.5236 0 1
20.6392 0 1
20.7548 0 1
20.8702 0 1
23.3078 0 1
23.4233 0 1
23.539 0 1
23.6547 0 1
23.7704 0 1
23.8862 0 1
24.0021 0 1
24.118 0 1
24.234 0 1
24.35 0 1
24.4661 12313 110.964
24.5822 12303 110.919
24.6984 12319 110.991
24.8146 12213 110.512
24.9309 12120 110.091
25.0472 11755 108.42
25.1636 12174 110.336
25.28 12549 112.022
25.3965 12473 111.683
25.513 12858 113.393
25.6296 13523 116.288
25.7462 14003 118.334
25.8628 14101 118.748
25.9795 14264 119.432
26.0962 14581 120.752
26.213 14602 120.839
26.3298 14869 121.939
26.4466 14370 119.875
26.5635 14239 119.327
26.6804 13499 116.185
26.7973 13065 114.302
26.9143 12836 113.296
27.0313 13085 114.39
27.1483 13651 116.837
27.2653 14048 118.524
27.3824 14111 118.79
27.4996 14123 118.84
27.6167 13747 117.248
27.7339 13448 115.966
27.8511 13415 115.823
27.9683 13139 114.625
28.0855 12841 113.318
28.2028 12793 113.106
28.3201 12383 111.279
28.4374 12350 111.131
28.5547 12162 110.281
28.6721 12188 110.399
28.7894 11991 109.503
28.9068 12374 111.238
29.0242 12491 111.763
29.1416 12891 113.539
29.259 13082 114.377
29.3764 13244 115.083
29.4939 13728 117.167
29.6113 13820 117.558
29.7288 14142 118.92
29.8463 13847 117.673
29.9638 14050 118.533
30.0812 13813 117.529
30.1987 13273 115.209
30.3162 12438 111.526
30.4337 11994 109.517
30.5512 12034 109.7
30.6687 12592 112.214
30.7862 13304 115.343
30.9037 13437 115.918
31.0212 13437 115.918
31.1387 13394 115.732
31.2562 13346 115.525
31.3737 13192 114.856
31.4912 12860 113.402
31.6087 12732 112.836
31.7262 12444 111.553
31.8436 12360 111.176
31.9611 12102 110.009
32.0785 11745 108.374
32.1959 11705 108.19
32.3134 11809 108.669
32.4308 11901 109.092
32.5482 12162 110.281
32.6655 12343 111.099
32.7829 12755 112.938
32.9002 12923 113.679
33.0176 13372 115.637
33.1349 13444 115.948
33.2522 13624 116.722
33.3694 13490 116.146
33.4867 13724 117.149
33.6039 13548 116.396
33.7211 13587 116.563
33.8383 13162 114.726
33.9554 12487 111.745
34.0725 11636 107.87
34.1896 11479 107.14
34.3067 11492 107.201
34.4237 12240 110.635
34.5407 12473 111.683
34.6577 12509 111.844
34.7746 12881 113.494
34.8915 12891 113.539
35.0084 12789 113.088
35.1252 12573 112.129
35.242 12378 111.256
35.3587 11999 109.54
35.4755 12053 109.786
35.5921 11843 108.826
35.7088 11718 108.25
35.8254 11397 106.757
35.9419 11495 107.215
36.0584 11030 105.024
36.1749 11253 106.08
36.2913 11418 106.855
36.4077 11649 107.931
36.524 12025 109.659
36.6403 12005 109.567
36.7565 12552 112.036
36.8727 12720 112.783
36.9889 12859 113.398
37.1049 12696 112.677
37.221 0 1
37.3369 0 1
37.4529 0 1
37.5687 0 1
37.6845 0 1
37.8003 0 1
37.916 0 1
38.0316 0 1
38.1472 0 1
40.5851 0 1
40.7008 0 1
40.8164 0 1
40.9322 0 1
41.048 0 1
41.1639 0 1
41.2798 0 1
41.3958 0 1
41.5118 0 1
41.6279 0 1
41.744 9470 97.3139
41.8602 9941 99.7046
41.9765 10354 101.755
42.0928 10933 104.561
42.2091 10678 103.334
42.3255 11148 105.584
42.4419 10785 103.851
42.5584 10679 103.339
42.675 10520 102.567
42.7915 10003 100.015
42.9081 9390 96.902
43.0248 8914 94.414
43.1415 9139 95.5981
43.2582 9618 98.0714
43.375 9649 98.2293
43.4918 10141 100.703
43.6087 10162 100.807
43.7256 10231 101.148
43.8425 9873 99.363
43.9595 9665 98.3107
44.0765 9486 97.3961
44.1935 9292 96.395
44.3106 9081 95.2943
44.4277 8863 94.1435
44.5448 8638 92.9408
44.6619 8339 91.3181
44.7791 8170 90.3881
44.8963 7673 87.5957
45.0136 7545 86.862
45.1308 7800 88.3176
45.2481 7847 88.5833
45.3654 7858 88.6454
45.4827 8099 89.9944
45.6001 8191 90.5041
45.7174 8449 91.9184
45.8348 8504 92.2171
45.9522 8549 92.4608
46.0697 8240 90.7744
46.1871 8315 91.1866
46.3046 8022 89.5656
46.422 7447 86.296
46.5395 6938 83.2947
46.657 6671 81.6762
46.7745 7080 84.1427
46.892 7286 85.3581
47.0096 7575 87.0345
47.1271 7539 86.8274
47.2446 7619 87.2869
47.3622 7660 87.5214
47.4797 7401 86.0291
47.5973 7302 85.4517
47.7149 7164 84.6404
47.8324 7085 84.1724
47.95 7018 83.7735
48.0675 6626 81.4002
48.1851 6627 81.4064
48.3027 6464 80.399
48.4202 6196 78.7147
48.5378 6088 78.0256
48.6554 6233 78.9494
48.7729 6265 79.1518
48.8904 6459 80.3679
49.008 6699 81.8474
49.1255 7045 83.9345
49.243 7326 85.5921
49.3605 7342 85.6855
49.478 7280 85.3229
49.5955 7264 85.2291
49.713 7265 85.235
49.8304 7051 83.9702
49.9479 6610 81.3019
50.0653 6102 78.1153
50.1827 6243 79.0127
50.3001 6500 80.6226
50.4175 6805 82.4924
50.5348 7267 85.2467
50.6521 7611 87.241
50.7694 7838 88.5325
50.8867 7993 89.4036
51.004 7995 89.4148
51.1212 8293 91.0659
51.2384 8000 89.4427
51.3556 8300 91.1043
51.4727 8069 89.8276
51.5899 8277 90.978
51.707 8191 90.5041
51.824 7927 89.0337
51.9411 8031 89.6158
52.0581 7893 88.8426
52.175 8081 89.8944
52.2919 8515 92.2768
52.4088 8701 93.2792
52.5257 9060 95.184
52.6425 9345 96.6695
52.7593 9655 98.2599
52.876 9964 99.8198
52.9927 10127 100.633
53.1094 10257 101.277
53.226 10303 101.504
53.3426 10269 101.336
53.4591 10110 100.548
53.5756 9151 95.6609
53.692 8705 93.3006
53.8084 8466 92.0109
53.9248 8759 93.5895
54.0411 9506 97.4987
54.1573 9974 99.8699
54.2735 0 1
54.3896 0 1
54.5057 0 1
54.6217 0 1
54.7377 0 1
54.8537 0 1
54.9695 0 1
55.0853 0 1
55.2011 0 1
55.3168 0 1
55.4324 0 1
57.824 0 1
57.9396 0 1
58.0553 0 1
58.1711 0 1
58.2869 0 1
58.4028 0 1
58.5187 0 1
58.6347 0 1
58.7508 0 1
58.8669 0 1
58.983 10047 100.235
59.0992 10982 104.795
59.2155 11555 107.494
59.3318 12296 110.887
59.4482 12515 111.87
59.5646 12970 113.886
59.681 13053 114.25
59.7975 13012 114.07
59.9141 12953 113.811
60.0306 12688 112.641
60.1473 12415 111.423
60.2639 12300 110.905
60.3807 11952 109.325
60.4974 11569 107.559
60.6142 11237 106.005
60.731 10836 104.096
60.8479 10793 103.889
60.9648 10740 103.634
61.0818 10980 104.785
61.1987 11232 105.981
61.3158 11818 108.711
61.4328 12368 111.212
61.5499 12462 111.633
61.667 12318 110.986
61.7841 12622 112.348
61.9013 12436 111.517
62.0185 11900 109.087
62.1357 11277 106.193
62.253 10317 101.573
62.3702 10163 100.812
62.4875 10576 102.84
62.6049 10797 103.909
62.7222 11073 105.228
62.8396 11963 109.375
62.9569 12439 111.53
63.0743 12559 112.067
63.1918 12646 112.454
63.3092 12351 111.135
63.4267 12458 111.615
63.5441 12217 110.531
63.6616 12006 109.572
63.7791 11821 108.724
63.8966 11309 106.344
64.0142 11145 105.57
64.1317 10480 102.372
64.2492 10180 100.896
64.3668 10009 100.045
64.4843 9936 99.6795
64.6019 10364 101.804
64.7195 10740 103.634
64.837 11257 106.099
64.9546 11683 108.088
65.0722 12118 110.082
65.1898 12055 109.795
65.3074 12408 111.391
65.4249 11923 109.192
65.5425 11909 109.128
65.6601 11236 106
65.7777 10409 102.025
65.8952 9781 98.8989
66.0128 9507 97.5038
66.1304 9889 99.4435
66.2479 10366 101.814
66.3655 11109 105.399
66.483 11461 107.056
66.6005 11915 109.156
66.718 12088 109.945
66.8355 12166 110.3
66.953 12342 111.095
67.0705 12208 110.49
67.1879 12000 109.545
67.3054 11597 107.689
67.4228 11458 107.042
67.5402 11174 105.707
67.6576 10861 104.216
67.7749 10271 101.346
67.8923 10040 100.2
68.0096 9987 99.935
68.1269 9799 98.9899
68.2442 10143 100.712
68.3614 10593 102.922
68.4787 10694 103.412
68.5958 11730 108.305
68.713 12150 110.227
68.8302 12329 111.036
68.9473 12305 110.928
69.0643 12284 110.833
69.1814 12224 110.562
69.2984 11664 108
69.4154 11023 104.99
69.5323 10216 101.074
69.6492 9932 99.6594
69.7661 10258 101.282
69.8829 10842 104.125
69.9997 11351 106.541
70.1165 12010 109.59
70.2332 12545 112.004
70.3499 12639 112.423
70.4665 13103 114.468
70.5831 12887 113.521
70.6996 12939 113.75
70.8161 12745 112.894
70.9326 12433 111.503
71.049 12439 111.53
71.1653 12102 110.009
71.2817 11835 108.789
71.3979 11139 105.541
71.5141 10451 102.23
71.6303 9875 99.373
71.7464 9069 95.2313
71.8624 0 1
71.9784 0 1
72.0944 0 1
72.2102 0 1
72.3261 0 1
72.4418 0 1
72.5575 0 1
72.6732 0 1
75.1054 0 1
75.2209 0 1
75.3365 0 1
75.4521 0 1
75.5678 0 1
75.6835 0 1
75.7993 0 1
75.9151 0 1
76.031 0 1
76.147 11702 108.176
76.263 12010 109.59
76.3791 12022 109.645
76.4952 11727 108.291
76.6113 11363 106.597
76.7276 10638 103.141
76.8438 10204 101.015
76.9601 10264 101.311
77.0765 10472 102.333
77.1929 10781 103.832
77.3093 11864 108.922
77.4258 12576 112.143
77.5423 12804 113.155
77.6589 13015 114.083
77.7755 13007 114.048
77.8921 13025 114.127
78.0088 12589 112.201
78.1256 11777 108.522
78.2423 10903 104.417
78.3591 10013 100.065
78.4759 9473 97.3293
78.5928 9590 97.9285
78.7097 10346 101.715
78.8266 11044 105.09
78.9436 12155 110.25
79.0606 12394 111.328
79.1776 12735 112.849
79.2946 12983 113.943
79.4117 12929 113.706
79.5288 12959 113.838
79.6459 13030 114.149
79.7631 12778 113.04
79.8802 12479 111.709
79.9974 12343 111.099
80.1147 11953 109.33
80.2319 11534 107.396
80.3491 10633 103.116
80.4664 9927 99.6343
80.5837 10089 100.444
80.701 10312 101.548
80.8183 10831 104.072
80.9357 11606 107.731
81.053 12354 111.149
81.1704 12939 113.75
81.2877 12973 113.899
81.4051 12730 112.827
81.5225 12897 113.565
81.6399 12422 111.454
81.7573 12360 111.176
81.8747 11157 105.627
81.9922 10328 101.627
82.1096 9676 98.3667
82.227 9937 99.6845
82.3444 10331 101.642
82.4619 11198 105.821
82.5793 12215 110.521
82.6967 12189 110.404
82.8142 12723 112.796
82.9316 12968 113.877
83.049 13107 114.486
83.1664 12903 113.591
83.2838 13047 114.223
83.4012 12915 113.644
83.5186 12702 112.703
83.636 12276 110.797
83.7534 12025 109.659
83.8708 11575 107.587
83.9881 10833 104.082
84.1055 10038 100.19
84.2228 10203 101.01
84.3401 10199 100.99
84.4575 10811 103.976
84.5747 11724 108.277
84.692 12627 112.37
84.8093 13179 114.8
84.9265 13304 115.343
85.0437 13481 116.108
85.1609 13260 115.152
85.2781 12767 112.991
85.3952 11880 108.995
85.5123 10977 104.771
85.6294 10342 101.696
85.7465 10313 101.553
85.8636 10435 102.152
85.9806 11350 106.536
86.0976 12060 109.818
86.2145 12694 112.668
86.3315 13127 114.573
86.4484 13672 116.927
86.5652 13866 117.754
86.682 13810 117.516
86.7988 14012 118.372
86.9156 13991 118.284
87.0323 13930 118.025
87.149 13509 116.228
87.2657 13297 115.313
87.3823 12824 113.243
87.4988 12109 110.041
87.6154 11258 106.104
87.7318 10934 104.566
87.8483 11183 105.75
87.9647 11632 107.852
88.081 12342 111.095
88.1973 13164 114.734
88.3136 14015 118.385
88.4298 13978 118.229
88.546 13941 118.072
88.6621 13964 118.169
88.7781 13454 115.991
88.8942 0 1
89.0101 0 1
89.126 0 1
89.2419 0 1
89.3577 0 1
89.4734 0 1
89.5891 0 1
89.7047 0 1
89.8203 0 1
89.9358 0 1
92.3269 0 1
92.4424 0 1
92.558 0 1
92.6736 0 1
92.7893 0 1
92.905 0 1
93.0208 0 1
93.1366 0 1
93.2525 0 1
93.3685 0 1
93.4845 0 1
93.6005 13264 115.169
93.7167 13351 115.547
93.8328 13342 115.508
93.949 13119 114.538
94.0653 12824 113.243
94.1816 11768 108.48
94.2979 11351 106.541
94.4143 10933 104.561
94.5307 10544 102.684
94.6472 10734 103.605
94.7637 11526 107.359
94.8803 12046 109.754
94.9969 12691 112.654
95.1135 13319 115.408
95.2302 13265 115.174
95.3469 13640 116.79
95.4637 13723 117.145
95.5805 13926 118.008
95.6973 14078 118.651
95.8142 14119 118.823
95.9311 13875 117.792
96.048 13596 116.602
96.1649 13507 116.22
96.2819 12944 113.772
96.3989 12508 111.839
96.516 11775 108.513
96.633 10996 104.862
96.7501 10932 104.556
96.8673 11205 105.854
96.9844 12026 109.663
97.1016 12691 112.654
97.2188 13476 116.086
97.336 13821 117.563
97.4532 13805 117.495
97.5704 13683 116.974
97.6877 13441 115.935
97.805 12764 112.978
97.9223 11928 109.215
98.0396 11149 105.589
98.1569 10654 103.218
98.2743 10689 103.388
98.3916 10891 104.36
98.509 11555 107.494
98.6264 12302 110.914
98.7438 12626 112.365
98.8612 12989 113.969
98.9786 13238 115.057
99.096 13666 116.902
99.2134 13666 116.902
99.3308 13733 117.188
99.4482 13756 117.286
99.5656 13439 115.927
99.6831 13458 116.009
99.8005 12919 113.662
99.9179 12679 112.601
100.035 12014 109.608
100.153 11408 106.808
100.27 10812 103.981
100.388 10738 103.624
100.505 11249 106.061
100.622 12180 110.363
100.74 12826 113.252
100.857 13433 115.901
100.975 13796 117.456
101.092 13694 117.021
101.209 13585 116.555
101.327 13147 114.66
101.444 12435 111.512
101.561 11881 109
101.679 11246 106.047
101.796 10635 103.126
101.913 10482 102.382
102.03 11409 106.813
102.148 12108 110.036
102.265 11749 108.393
102.382 14276 119.482
102.499 13504 116.207
102.616 14080 118.659
102.733 14087 118.689
102.851 14283 119.512
102.968 14417 120.071
103.085 14359 119.829
103.202 14280 119.499
103.319 13951 118.114
103.436 13645 116.812
103.552 13201 114.896
103.669 12217 110.531
103.786 11502 107.247
103.903 11304 106.32
104.02 12145 110.204
104.137 13052 114.245
104.253 13674 116.936
104.37 14630 120.955
104.487 14607 120.859
104.603 14612 120.88
104.72 14184 119.097
104.836 13785 117.41
104.953 13296 115.308
105.069 12314 110.968
105.186 11603 107.717
105.302 11258 106.104
105.418 11553 107.485
105.535 12212 110.508
105.651 12940 113.754
105.767 13685 116.983
105.883 13753 117.273
105.999 14390 119.958
106.115 0 1
106.231 0 1
106.347 0 1
106.463 0 1
106.579 0 1
106.694 0 1
106.81 0 1
106.926 0 1
107.041 0 1
107.157 0 1
109.576 0 1
109.692 0 1
109.807 0 1
109.923 0 1
110.039 0 1
110.155 0 1
110.27 0 1
110.386 0 1
110.502 0 1
110.618 11247 106.052
110.735 11915 109.156
110.851 11933 109.238
110.967 12557 112.058
111.083 12675 112.583
111.199 12630 112.383
111.316 13145 114.652
111.432 13018 114.096
111.549 12900 113.578
111.665 12597 112.236
111.782 12354 111.149
111.898 12191 110.413
112.015 11431 106.916
112.132 10524 102.587
112.248 9787 98.9293
112.365 9803 99.0101
112.482 10690 103.392
112.599 11027 105.01
112.716 11678 108.065
112.832 11900 109.087
112.949 11788 108.573
113.066 11706 108.194
113.183 11645 107.912
113.3 11326 106.424
113.417 10648 103.189
113.534 9983 99.915
113.652 9179 95.8071
113.769 8812 93.8723
113.886 8869 94.1754
114.003 9053 95.1473
114.12 9756 98.7725
114.238 10018 100.09
114.355 10294 101.459
114.472 10559 102.757
114.589 10307 101.523
114.707 10727 103.571
114.824 10564 102.781
114.942 10558 102.752
115.059 10447 102.211
115.176 10307 101.523
115.294 10052 100.26
115.411 9684 98.4073
115.529 9253 96.1925
115.646 8588 92.6715
115.764 8137 90.2053
115.881 7610 87.2353
115.999 7908 88.9269
116.116 8451 91.9293
116.234 8926 94.4775
116.351 9001 94.8736
116.469 9108 95.4358
116.586 8871 94.186
116.704 8843 94.0372
116.821 8667 93.0967
116.939 8316 91.1921
117.056 7802 88.3289
117.174 7285 85.3522
117.291 7116 84.3564
117.409 6876 82.9216
117.526 7121 84.386
117.644 7304 85.4634
117.761 7685 87.6641
117.879 8005 89.4707
117.996 8155 90.305
118.114 8485 92.1141
118.231 8783 93.7177
118.349 8657 93.043
118.466 8680 93.1665
118.584 8672 93.1236
118.701 8727 93.4184
118.819 8835 93.9947
118.936 8665 93.086
119.053 8285 91.022
119.171 8128 90.1554
119.288 7629 87.3441
119.405 7375 85.8778
119.523 7224 84.9941
119.64 7589 87.1149
119.757 8155 90.305
119.875 8604 92.7577
119.992 8820 93.9149
120.109 9116 95.4777
120.226 8825 93.9415
120.343 8959 94.652
120.46 9105 95.4201
120.578 8549 92.4608
120.695 8369 91.4822
120.812 7890 88.8257
120.929 7743 87.9943
121.046 7489 86.539
121.163 7504 86.6256
121.279 8032 89.6214
121.396 8378 91.5314
121.513 8946 94.5833
121.63 9011 94.9263
121.747 9353 96.7109
121.863 9501 97.4731
121.98 10129 100.643
122.097 10064 100.319
122.213 10110 100.548
122.33 10157 100.782
122.446 9967 99.8349
122.563 10250 101.242
122.679 10026 100.13
122.795 9799 98.9899
122.912 9737 98.6762
123.028 9104 95.4149
123.144 8593 92.6984
123.26 8656 93.0376
123.377 0 1
123.493 0 1
123.609 0 1
123.725 0 1
123.84 0 1
123.956 0 1
124.072 0 1
124.188 0 1
124.303 0 1
124.419 0 1
126.852 0 1
126.968 0 1
127.083 0 1
127.199 0 1
127.315 0 1
127.431 0 1
127.547 0 1
127.663 0 1
127.779 0 1
127.895 0 1
128.011 0 1
128.127 0 1
128.243 0 1
128.359 10373 101.848
128.476 10117 100.583
128.592 10287 101.425
128.708 11211 105.882
128.825 11725 108.282
128.941 12021 109.64
129.058 12052 109.782
129.174 12253 110.693
129.291 12022 109.645
129.408 11802 108.637
129.524 11423 106.878
129.641 10908 104.441
129.758 10392 101.941
129.875 9955 99.7747
129.992 9652 98.2446
130.108 9453 97.2265
130.225 9647 98.2191
130.342 10099 100.494
130.459 10418 102.069
130.576 10520 102.567
130.693 10642 103.16
130.81 10982 104.795
130.928 10846 104.144
131.045 10989 104.828
131.162 11141 105.551
131.279 11289 106.25
131.396 10990 104.833
131.513 10920 104.499
131.631 10633 103.116
131.748 10070 100.349
131.865 9620 98.0816
131.983 9238 96.1145
132.1 9206 95.9479
132.217 9599 97.9745
132.335 10343 101.701
132.452 10443 102.191
132.57 10573 102.825
132.687 10227 101.129
132.804 10747 103.668
132.922 10268 101.331
133.039 9840 99.1968
133.157 9531 97.6268
133.274 9013 94.9368
133.392 8738 93.4773
133.509 8244 90.7965
133.627 8199 90.5483
133.744 8090 89.9444
133.862 8266 90.9175
133.979 8504 92.2171
134.097 8918 94.4352
134.214 8749 93.5361
134.332 8787 93.739
134.449 8981 94.7681
134.567 8887 94.2709
134.684 8761 93.6002
134.802 8986 94.7945
134.919 8796 93.787
135.037 8895 94.3133
135.154 8412 91.717
135.272 8158 90.3216
135.389 7844 88.5664
135.507 7319 85.5512
135.624 7079 84.1368
135.742 7352 85.7438
135.859 7779 88.1986
135.977 8019 89.5489
136.094 8140 90.2219
136.211 8062 89.7886
136.329 7877 88.7525
136.446 7832 88.4986
136.564 7772 88.1589
136.681 7392 85.9767
136.798 7028 83.8332
136.915 6754 82.1827
137.033 6470 80.4363
137.15 6278 79.2338
137.267 6415 80.0937
137.384 6474 80.4612
137.502 6529 80.8022
137.619 6913 83.1445
137.736 7113 84.3386
137.853 6958 83.4146
137.97 7236 85.0647
138.087 7274 85.2877
138.204 7474 86.4523
138.321 7646 87.4414
138.438 7839 88.5381
138.555 8020 89.5545
138.672 7977 89.3141
138.788 7764 88.1136
138.905 7771 88.1533
139.022 7360 85.7904
139.139 7282 85.3346
139.255 7426 86.1742
139.372 7793 88.278
139.488 8136 90.1998
139.605 8695 93.247
139.721 9064 95.205
139.838 8945 94.578
139.954 9020 94.9737
140.071 8966 94.689
140.187 8841 94.0266
140.303 8760 93.5949
140.419 8328 91.2579
140.535 8314 91.1811
140.652 7761 88.0965
140.768 0 1
140.884 0 1
141 0 1
141.115 0 1
141.231 0 1
141.347 0 1
141.463 0 1
141.578 0 1
141.694 0 1
144.104 0 1
144.219 0 1
144.335 0 1
144.45 0 1
144.566 0 1
144.682 0 1
144.798 0 1
144.914 0 1
145.03 0 1
145.146 7610 87.2353
145.262 7602 87.1894
145.378 7433 86.2148
145.494 7200 84.8528
145.61 6939 83.3007
145.726 6739 82.0914
145.842 6461 80.3803
145.959 6231 78.9367
146.075 6329 79.555
146.192 6647 81.5291
146.308 6489 80.5543
146.425 6563 81.0123
146.541 6619 81.3572
146.658 6479 80.4922
146.774 6582 81.1295
146.891 6577 81.0987
147.008 6652 81.5598
147.125 6831 82.6499
147.241 6706 81.8902
147.358 6616 81.3388
147.475 6380 79.8749
147.592 6186 78.6511
147.709 5866 76.5898
147.826 5785 76.0592
147.943 5601 74.8398
148.06 6010 77.5242
148.177 6218 78.8543
148.294 6213 78.8226
148.411 6346 79.6618
148.528 6120 78.2304
148.645 6173 78.5684
148.762 6036 77.6917
148.88 5775 75.9934
148.997 6029 77.6466
149.114 5337 73.0548
149.231 5254 72.4845
149.349 5238 72.374
149.466 5005 70.746
149.583 4876 69.8284
149.701 5110 71.4843
149.818 5074 71.232
149.935 5155 71.7983
150.053 5315 72.904
150.17 5286 72.7049
150.287 5509 74.2226
150.405 5502 74.1755
150.522 5509 74.2226
150.64 5558 74.552
150.757 5810 76.2234
150.875 5825 76.3217
150.992 5793 76.1118
151.11 5717 75.6108
151.227 5524 74.3236
151.344 5420 73.6206
151.462 5088 71.3302
151.579 5322 72.952
151.697 5583 74.7195
151.814 5948 77.1233
151.932 6135 78.3262
152.049 6108 78.1537
152.167 6144 78.3837
152.284 6083 77.9936
152.402 6086 78.0128
152.519 5991 77.4016
152.636 5959 77.1946
152.754 5707 75.5447
152.871 5556 74.5386
152.989 5461 73.8986
153.106 5550 74.4983
153.223 5419 73.6139
153.341 5582 74.7128
153.458 5859 76.5441
153.575 5836 76.3937
153.693 5862 76.5637
153.81 6002 77.4726
153.927 6076 77.9487
154.044 6050 77.7817
154.162 6151 78.4283
154.279 6461 80.3803
154.396 6565 81.0247
154.513 6890 83.006
154.63 6728 82.0244
154.747 6838 82.6922
154.864 6730 82.0366
154.981 6555 80.963
155.098 6354 79.712
155.215 6607 81.2835
155.332 6902 83.0783
155.449 7197 84.8351
155.566 7087 84.1843
155.683 7267 85.2467
155.8 7387 85.9477
155.917 7580 87.0632
156.033 7559 86.9425
156.15 0 1
156.267 0 1
156.383 0 1
156.5 0 1
156.617 0 1
156.733 0 1
156.85 0 1
156.966 0 1
157.082 0 1
157.199 0 1
157.315 0 1
157.431 0 1
157.547 0 1
157.664 0 1
157.78 0 1
157.896 0 1
158.012 0 1
158.128 0 1
158.244 0 1
158.359 0 1
158.475 0 1
158.591 0 1
158.706 0 1
