
6.15755 0 1
6.2731 0 1
6.3887 0 1
6.50437 0 1
6.62009 0 1
6.73587 0 1
6.8517 0 1
6.96759 0 1
7.08353 0 1
7.19952 0 1
7.31557 0 1
7.43166 0 1
7.54781 0 1
7.664 0 1
7.78024 0 1
7.89653 0 1
8.01286 0 1
8.12924 0 1
8.24567 0 1
8.36213 0 1
8.47864 0 1
8.59519 0 1
8.71178 0 1
8.82841 0 1
8.94508 0 1
9.06179 0 1
9.17853 0 1
9.29531 0 1
9.41212 0 1
9.52897 0 1
9.64584 0 1
9.76276 0 1
9.8797 0 1
9.99667 0 1
10.1137 0 1
10.2307 0 1
10.3478 0 1
10.4648 0 1
10.5819 0 1
10.6991 0 1
10.8162 0 1
10.9334 0 1
11.0506 0 1
11.1678 0 1
11.285 0 1
11.4023 0 1
11.5196 0 1
11.6369 0 1
11.7542 0 1
11.8715 0 1
11.9888 0 1
12.1062 0 1
12.2235 0 1
12.3409 0 1
12.4582 0 1
12.5756 0 1
12.693 0 1
12.8104 0 1
12.9278 0 1
13.0452 0 1
13.1626 0 1
13.28 0 1
13.3974 0 1
13.5149 0 1
13.6323 0 1
13.7497 0 1
13.8671 0 1
13.9845 0 1
14.1019 0 1
14.2193 0 1
14.3367 0 1
14.4541 0 1
14.5714 0 1
14.6888 0 1
14.8062 0 1
14.9235 0 1
15.0408 2938 54.2033
15.1581 3122 55.8749
15.2755 3081 55.5068
15.3927 3037 55.109
15.51 3072 55.4256
15.6273 3039 55.1271
15.7445 3028 55.0273
15.8617 3026 55.0091
15.9789 2934 54.1664
16.0961 2934 54.1664
16.2132 2982 54.6077
16.3304 2997 54.7449
16.4475 3007 54.8361
16.5646 3000 54.7723
16.6816 3077 55.4707
16.7986 3066 55.3715
16.9156 3067 55.3805
17.0326 3021 54.9636
17.1496 3054 55.263
17.2665 2958 54.3875
17.3833 2925 54.0833
17.5002 2884 53.7029
17.617 2810 53.0094
17.7338 2978 54.5711
17.8505 2889 53.7494
17.9672 2995 54.7266
18.0839 3092 55.6058
18.2005 3166 56.2672
18.3171 3292 57.376
18.4337 3350 57.8792
18.5502 3428 58.5491
18.6666 3432 58.5833
18.7831 3487 59.0508
18.8994 3450 58.7367
19.0158 3260 57.0964
19.1321 3254 57.0438
19.2483 3075 55.4527
19.3645 3113 55.7943
19.4806 2898 53.8331
19.5967 2800 52.915
19.7128 2825 53.1507
19.8288 2743 52.3737
19.9447 2408 49.0714
20.0606 0 1
20.1764 0 1
20.2922 0 1
20.4079 0 1
20.5236 0 1
20.6392 0 1
20.7548 0 1
20.8702 0 1
23.3078 0 1
23.4233 0 1
23.539 0 1
23.6547 0 1
23.7704 0 1
23.8862 0 1
24.0021 0 1
24.118 0 1
24.234 0 1
24.35 0 1
24.4661 2906 53.9073
24.5822 2836 53.2541
24.6984 2829 53.1883
24.8146 2778 52.7067
24.9309 2789 52.811
25.0472 2821 53.1131
25.1636 2809 53
25.28 2977 54.5619
25.3965 3102 55.6956
25.513 3109 55.7584
25.6296 3155 56.1694
25.7462 3321 57.6281
25.8628 3125 55.9017
25.9795 3339 57.7841
26.0962 3140 56.0357
26.213 2989 54.6717
26.3298 2903 53.8795
26.4466 2842 53.3104
26.5635 2782 52.7447
26.6804 2963 54.4334
26.7973 2969 54.4885
26.9143 3065 55.3624
27.0313 3097 55.6507
27.1483 3237 56.8946
27.2653 3254 57.0438
27.3824 3162 56.2317
27.4996 3335 57.7495
27.6167 3210 56.6569
27.7339 3261 57.1052
27.8511 3124 55.8928
27.9683 3105 55.7225
28.0855 2946 54.2771
28.2028 2815 53.0566
28.3201 2786 52.7826
28.4374 2790 52.8205
28.5547 2720 52.1536
28.6721 2802 52.9339
28.7894 2968 54.4794
28.9068 2960 54.4059
29.0242 3047 55.1996
29.1416 3085 55.5428
29.259 3002 54.7905
29.3764 2928 54.111
29.4939 2999 54.7631
29.6113 2949 54.3047
29.7288 2894 53.7959
29.8463 2722 52.1728
29.9638 2669 51.6624
30.0812 2647 51.449
30.1987 2772 52.6498
30.3162 2847 53.3573
30.4337 2877 53.6377
30.5512 3062 55.3353
30.6687 2987 54.6535
30.7862 3024 54.9909
30.9037 3034 55.0818
31.0212 3097 55.6507
31.1387 3125 55.9017
31.2562 3088 55.5698
31.3737 3011 54.8726
31.4912 3040 55.1362
31.6087 2845 53.3385
31.7262 2910 53.9444
31.8436 2714 52.0961
31.9611 2723 52.1824
32.0785 2697 51.9326
32.1959 2714 52.0961
32.3134 2799 52.9056
32.4308 2905 53.8981
32.5482 2932 54.1479
32.6655 2940 54.2218
32.7829 2927 54.1018
32.9002 2873 53.6004
33.0176 2892 53.7773
33.1349 2877 53.6377
33.2522 2921 54.0463
33.3694 2753 52.469
33.4867 2628 51.264
33.6039 2698 51.9423
33.7211 2581 50.8035
33.8383 2715 52.1057
33.9554 2707 52.0288
34.0725 2836 53.2541
34.1896 2893 53.7866
34.3067 2986 54.6443
34.4237 2920 54.037
34.5407 2974 54.5344
34.6577 3031 55.0545
34.7746 3006 54.827
34.8915 2949 54.3047
35.0084 2952 54.3323
35.1252 2852 53.4041
35.242 2842 53.3104
35.3587 2786 52.7826
35.4755 2654 51.517
35.5921 2729 52.2398
35.7088 2613 51.1175
35.8254 2561 50.6063
35.9419 2535 50.3488
36.0584 2579 50.7839
36.1749 2598 50.9706
36.2913 2738 52.3259
36.4077 2808 52.9906
36.524 2809 53
36.6403 2805 52.9623
36.7565 2886 53.7215
36.8727 2832 53.2165
36.9889 2723 52.1824
37.1049 2696 51.923
37.221 0 1
37.3369 0 1
37.4529 0 1
37.5687 0 1
37.6845 0 1
37.8003 0 1
37.916 0 1
38.0316 0 1
38.1472 0 1
40.5851 0 1
40.7008 0 1
40.8164 0 1
40.9322 0 1
41.048 0 1
41.1639 0 1
41.2798 0 1
41.3958 0 1
41.5118 0 1
41.6279 0 1
41.744 2242 47.3498
41.8602 2370 48.6826
41.9765 2398 48.9694
42.0928 2461 49.6085
42.2091 2336 48.3322
42.3255 2314 48.1041
42.4419 2276 47.7074
42.5584 2254 47.4763
42.675 2134 46.1952
42.7915 2118 46.0217
42.9081 2294 47.8957
43.0248 2209 47
43.1415 2399 48.9796
43.2582 2320 48.1664
43.375 2389 48.8774
43.4918 2367 48.6518
43.6087 2327 48.239
43.7256 2346 48.4355
43.8425 2380 48.7852
43.9595 2319 48.156
44.0765 2259 47.5289
44.1935 2251 47.4447
44.3106 2144 46.3033
44.4277 2072 45.5192
44.5448 1947 44.1248
44.6619 1827 42.7434
44.7791 1897 43.5546
44.8963 1851 43.0232
45.0136 1821 42.6732
45.1308 1924 43.8634
45.2481 1856 43.0813
45.3654 1769 42.0595
45.4827 1860 43.1277
45.6001 1915 43.7607
45.7174 1908 43.6807
45.8348 1924 43.8634
45.9522 1786 42.2611
46.0697 1781 42.2019
46.1871 1662 40.7676
46.3046 1600 40
46.422 1600 40
46.5395 1806 42.4971
46.657 1708 41.328
46.7745 1828 42.7551
46.892 1850 43.0116
47.0096 1875 43.3013
47.1271 1838 42.8719
47.2446 1824 42.7083
47.3622 1861 43.1393
47.4797 1792 42.332
47.5973 1835 42.8369
47.7149 1725 41.5331
47.8324 1661 40.7554
47.95 1568 39.598
48.0675 1600 40
48.1851 1542 39.2683
48.3027 1482 38.4968
48.4202 1426 37.7624
48.5378 1476 38.4187
48.6554 1497 38.6911
48.7729 1567 39.5854
48.8904 1586 39.8246
49.008 1683 41.0244
49.1255 1635 40.4351
49.243 1710 41.3521
49.3605 1749 41.821
49.478 1625 40.3113
49.5955 1507 38.8201
49.713 1533 39.1535
49.8304 1576 39.6989
49.9479 1575 39.6863
50.0653 1610 40.1248
50.1827 1784 42.2374
50.3001 1729 41.5812
50.4175 1835 42.8369
50.5348 1780 42.19
50.6521 1958 44.2493
50.7694 1989 44.5982
50.8867 1983 44.5309
51.004 1929 43.9204
51.1212 2028 45.0333
51.2384 2010 44.833
51.3556 2109 45.9239
51.4727 2108 45.913
51.5899 2006 44.7884
51.707 1997 44.6878
51.824 1894 43.5201
51.9411 2001 44.7325
52.0581 1930 43.9318
52.175 2130 46.1519
52.2919 2137 46.2277
52.4088 2234 47.2652
52.5257 2270 47.6445
52.6425 2405 49.0408
52.7593 2456 49.558
52.876 2490 49.8999
52.9927 2482 49.8197
53.1094 2460 49.5984
53.226 2402 49.0102
53.3426 2334 48.3115
53.4591 2274 47.6865
53.5756 2371 48.6929
53.692 2383 48.816
53.8084 2549 50.4876
53.9248 2574 50.7346
54.0411 2668 51.6527
54.1573 2774 52.6688
54.2735 0 1
54.3896 0 1
54.5057 0 1
54.6217 0 1
54.7377 0 1
54.8537 0 1
54.9695 0 1
55.0853 0 1
55.2011 0 1
55.3168 0 1
55.4324 0 1
57.824 0 1
57.9396 0 1
58.0553 0 1
58.1711 0 1
58.2869 0 1
58.4028 0 1
58.5187 0 1
58.6347 0 1
58.7508 0 1
58.8669 0 1
58.983 3010 54.8635
59.0992 3273 57.2101
59.2155 3433 58.5918
59.3318 3461 58.8303
59.4482 3464 58.8558
59.5646 3594 59.95
59.681 3492 59.0931
59.7975 3509 59.2368
59.9141 3453 58.7622
60.0306 3429 58.5577
60.1473 3398 58.2924
60.2639 3200 56.5685
60.3807 3221 56.7539
60.4974 3024 54.9909
60.6142 2977 54.5619
60.731 2918 54.0185
60.8479 2921 54.0463
60.9648 3044 55.1725
61.0818 3022 54.9727
61.1987 3175 56.3471
61.3158 3260 57.0964
61.4328 3252 57.0263
61.5499 3339 57.7841
61.667 3228 56.8155
61.7841 3135 55.9911
61.9013 3007 54.8361
62.0185 3001 54.7814
62.1357 2819 53.0943
62.253 2862 53.4977
62.3702 2873 53.6004
62.4875 3020 54.9545
62.6049 3136 56
62.7222 3139 56.0268
62.8396 3157 56.1872
62.9569 3196 56.5332
63.0743 3188 56.4624
63.1918 3295 57.4021
63.3092 3169 56.2939
63.4267 3135 55.9911
63.5441 3125 55.9017
63.6616 3089 55.5788
63.7791 2937 54.1941
63.8966 2905 53.8981
64.0142 2860 53.479
64.1317 2725 52.2015
64.2492 2585 50.8429
64.3668 2636 51.342
64.4843 2732 52.2685
64.6019 2780 52.7257
64.7195 2943 54.2494
64.837 3013 54.8908
64.9546 3010 54.8635
65.0722 3045 55.1815
65.1898 3051 55.2359
65.3074 3082 55.5158
65.4249 2908 53.9259
65.5425 2806 52.9717
65.6601 2702 51.9808
65.7777 2590 50.892
65.8952 2673 51.7011
66.0128 2697 51.9326
66.1304 2908 53.9259
66.2479 3023 54.9818
66.3655 3038 55.1181
66.483 3063 55.3444
66.6005 3155 56.1694
66.718 3105 55.7225
66.8355 3222 56.7627
66.953 3055 55.2721
67.0705 3194 56.5155
67.1879 3249 57
67.3054 3055 55.2721
67.4228 3115 55.8122
67.5402 3059 55.3082
67.6576 2933 54.1572
67.7749 2726 52.2111
67.8923 2717 52.1249
68.0096 2698 51.9423
68.1269 2785 52.7731
68.2442 2845 53.3385
68.3614 2974 54.5344
68.4787 3089 55.5788
68.5958 3172 56.3205
68.713 3190 56.4801
68.8302 3360 57.9655
68.9473 3329 57.6975
69.0643 3172 56.3205
69.1814 3110 55.7674
69.2984 2819 53.0943
69.4154 2859 53.4696
69.5323 2779 52.7162
69.6492 2945 54.2679
69.7661 3093 55.6147
69.8829 3170 56.3028
69.9997 3246 56.9737
70.1165 3359 57.9569
70.2332 3324 57.6541
70.3499 3400 58.3095
70.4665 3554 59.6154
70.5831 3470 58.9067
70.6996 3543 59.5231
70.8161 3318 57.6021
70.9326 3299 57.4369
71.049 3309 57.5239
71.1653 3142 56.0535
71.2817 3167 56.2761
71.3979 2934 54.1664
71.5141 2703 51.9904
71.6303 2588 50.8724
71.7464 2577 50.7642
71.8624 0 1
71.9784 0 1
72.0944 0 1
72.2102 0 1
72.3261 0 1
72.4418 0 1
72.5575 0 1
72.6732 0 1
75.1054 0 1
75.2209 0 1
75.3365 0 1
75.4521 0 1
75.5678 0 1
75.6835 0 1
75.7993 0 1
75.9151 0 1
76.031 0 1
76.147 3098 55.6597
76.263 3219 56.7362
76.3791 3343 57.8187
76.4952 3244 56.9561
76.6113 3001 54.7814
76.7276 2935 54.1756
76.8438 2811 53.0189
76.9601 2855 53.4322
77.0765 2941 54.231
77.1929 3018 54.9363
77.3093 3063 55.3444
77.4258 3193 56.5066
77.5423 3354 57.9137
77.6589 3346 57.8446
77.7755 3474 58.9406
77.8921 3390 58.2237
78.0088 3315 57.576
78.1256 3172 56.3205
78.2423 3062 55.3353
78.3591 2897 53.8238
78.4759 2723 52.1824
78.5928 2810 53.0094
78.7097 2906 53.9073
78.8266 3143 56.0625
78.9436 3414 58.4294
79.0606 3251 57.0175
79.1776 3356 57.931
79.2946 3437 58.6259
79.4117 3427 58.5406
79.5288 3422 58.4979
79.6459 3491 59.0847
79.7631 3284 57.3062
79.8802 3342 57.81
79.9974 3373 58.0775
80.1147 3178 56.3738
80.2319 3062 55.3353
80.3491 2952 54.3323
80.4664 2798 52.8961
80.5837 2750 52.4404
80.701 2915 53.9907
80.8183 3095 55.6327
80.9357 3152 56.1427
81.053 3288 57.3411
81.1704 3205 56.6127
81.2877 3371 58.0603
81.4051 3458 58.8048
81.5225 3561 59.6741
81.6399 3357 57.9396
81.7573 3326 57.6715
81.8747 2923 54.0648
81.9922 2836 53.2541
82.1096 2657 51.5461
82.227 2783 52.7541
82.3444 2885 53.7122
82.4619 3077 55.4707
82.5793 3232 56.8507
82.6967 3259 57.0877
82.8142 3314 57.5674
82.9316 3463 58.8473
83.049 3461 58.8303
83.1664 3518 59.3127
83.2838 3383 58.1636
83.4012 3491 59.0847
83.5186 3373 58.0775
83.636 3353 57.9051
83.7534 3335 57.7495
83.8708 3154 56.1605
83.9881 3088 55.5698
84.1055 2847 53.3573
84.2228 2894 53.7959
84.3401 2966 54.461
84.4575 3041 55.1453
84.5747 3015 54.909
84.692 3304 57.4804
84.8093 3335 57.7495
84.9265 3427 58.5406
85.0437 3638 60.3158
85.1609 3583 59.8582
85.2781 3356 57.931
85.3952 3408 58.3781
85.5123 3073 55.4346
85.6294 2980 54.5894
85.7465 2910 53.9444
85.8636 3033 55.0727
85.9806 3218 56.7274
86.0976 3290 57.3585
86.2145 3518 59.3127
86.3315 3509 59.2368
86.4484 3716 60.959
86.5652 3618 60.1498
86.682 3657 60.4731
86.7988 3642 60.349
86.9156 3672 60.597
87.0323 3671 60.5888
87.149 3639 60.3241
87.2657 3637 60.3075
87.3823 3579 59.8247
87.4988 3386 58.1893
87.6154 3002 54.7905
87.7318 3225 56.7891
87.8483 3067 55.3805
87.9647 3166 56.2672
88.081 3193 56.5066
88.1973 3463 58.8473
88.3136 3515 59.2874
88.4298 3563 59.6909
88.546 3712 60.9262
88.6621 3788 61.5467
88.7781 3624 60.1997
88.8942 0 1
89.0101 0 1
89.126 0 1
89.2419 0 1
89.3577 0 1
89.4734 0 1
89.5891 0 1
89.7047 0 1
89.8203 0 1
89.9358 0 1
92.3269 0 1
92.4424 0 1
92.558 0 1
92.6736 0 1
92.7893 0 1
92.905 0 1
93.0208 0 1
93.1366 0 1
93.2525 0 1
93.3685 0 1
93.4845 0 1
93.6005 3404 58.3438
93.7167 3307 57.5065
93.8328 3468 58.8897
93.949 3506 59.2115
94.0653 3527 59.3886
94.1816 3394 58.258
94.2979 3166 56.2672
94.4143 3088 55.5698
94.5307 2849 53.376
94.6472 2828 53.1789
94.7637 2947 54.2863
94.8803 3039 55.1271
94.9969 3150 56.1249
95.1135 3383 58.1636
95.2302 3364 58
95.3469 3417 58.4551
95.4637 3500 59.1608
95.5805 3526 59.3801
95.6973 3551 59.5903
95.8142 3576 59.7997
95.9311 3522 59.3464
96.048 3643 60.3573
96.1649 3479 58.983
96.2819 3635 60.291
96.3989 3394 58.258
96.516 3329 57.6975
96.633 3076 55.4617
96.7501 2962 54.4243
96.8673 2928 54.111
96.9844 3010 54.8635
97.1016 3071 55.4166
97.2188 3204 56.6039
97.336 3267 57.1577
97.4532 3381 58.1464
97.5704 3399 58.3009
97.6877 3528 59.397
97.805 3477 58.9661
97.9223 3406 58.3609
98.0396 3307 57.5065
98.1569 3099 55.6687
98.2743 2918 54.0185
98.3916 2777 52.6972
98.509 2929 54.1202
98.6264 3146 56.0892
98.7438 3208 56.6392
98.8612 3205 56.6127
98.9786 3291 57.3672
99.096 3350 57.8792
99.2134 3410 58.3952
99.3308 3388 58.2065
99.4482 3452 58.7537
99.5656 3430 58.5662
99.6831 3489 59.0678
99.8005 3282 57.2887
99.9179 3215 56.701
100.035 3179 56.3826
100.153 3154 56.1605
100.27 2975 54.5436
100.388 2763 52.5642
100.505 2892 53.7773
100.622 2917 54.0093
100.74 3020 54.9545
100.857 3059 55.3082
100.975 3219 56.7362
101.092 3317 57.5934
101.209 3419 58.4722
101.327 3500 59.1608
101.444 3525 59.3717
101.561 3427 58.5406
101.679 3195 56.5243
101.796 2983 54.6168
101.913 2856 53.4416
102.03 2887 53.7308
102.148 2907 53.9166
102.265 2928 54.111
102.382 3538 59.4811
102.499 3483 59.0169
102.616 3442 58.6686
102.733 3574 59.7829
102.851 3565 59.7076
102.968 3514 59.279
103.085 3588 59.8999
103.202 3635 60.291
103.319 3558 59.649
103.436 3655 60.4566
103.552 3475 58.9491
103.669 3407 58.3695
103.786 3277 57.2451
103.903 3056 55.2811
104.02 3019 54.9454
104.137 3083 55.5248
104.253 3229 56.8243
104.37 3305 57.4891
104.487 3454 58.7707
104.603 3564 59.6992
104.72 3689 60.7371
104.836 3742 61.1719
104.953 3639 60.3241
105.069 3637 60.3075
105.186 3361 57.9741
105.302 3112 55.7853
105.418 2960 54.4059
105.535 3064 55.3534
105.651 3184 56.4269
105.767 3446 58.7026
105.883 3582 59.8498
105.999 3605 60.0417
106.115 0 1
106.231 0 1
106.347 0 1
106.463 0 1
106.579 0 1
106.694 0 1
106.81 0 1
106.926 0 1
107.041 0 1
107.157 0 1
109.576 0 1
109.692 0 1
109.807 0 1
109.923 0 1
110.039 0 1
110.155 0 1
110.27 0 1
110.386 0 1
110.502 0 1
110.618 2606 51.049
110.735 2941 54.231
110.851 3007 54.8361
110.967 3152 56.1427
111.083 3139 56.0268
111.199 3260 57.0964
111.316 3283 57.2975
111.432 3387 58.1979
111.549 3239 56.9122
111.665 3318 57.6021
111.782 3323 57.6455
111.898 3181 56.4004
112.015 3176 56.356
112.132 3130 55.9464
112.248 2917 54.0093
112.365 2855 53.4322
112.482 2610 51.0882
112.599 2613 51.1175
112.716 2831 53.2071
112.832 2809 53
112.949 2828 53.1789
113.066 2963 54.4334
113.183 3067 55.3805
113.3 3061 55.3263
113.417 3050 55.2268
113.534 3032 55.0636
113.652 2954 54.3507
113.769 2849 53.376
113.886 2542 50.4183
114.003 2403 49.0204
114.12 2373 48.7134
114.238 2469 49.689
114.355 2680 51.7687
114.472 2810 53.0094
114.589 2713 52.0865
114.707 2822 53.1225
114.824 2904 53.8888
114.942 2815 53.0566
115.059 2875 53.619
115.176 2743 52.3737
115.294 2758 52.5167
115.411 2717 52.1249
115.529 2602 51.0098
115.646 2495 49.95
115.764 2479 49.7896
115.881 2385 48.8365
115.999 2334 48.3115
116.116 2274 47.6865
116.234 2201 46.9148
116.351 2232 47.244
116.469 2228 47.2017
116.586 2374 48.7237
116.704 2394 48.9285
116.821 2402 49.0102
116.939 2458 49.5782
117.056 2399 48.9796
117.174 2397 48.9592
117.291 2342 48.3942
117.409 2237 47.2969
117.526 2122 46.0652
117.644 2015 44.8888
117.761 2051 45.288
117.879 2159 46.465
117.996 2203 46.9361
118.114 2372 48.7032
118.231 2411 49.1019
118.349 2424 49.2341
118.466 2442 49.4166
118.584 2524 50.2394
118.701 2383 48.816
118.819 2423 49.224
118.936 2455 49.548
119.053 2505 50.05
119.171 2439 49.3862
119.288 2424 49.2341
119.405 2271 47.655
119.523 2275 47.697
119.64 2116 46
119.757 2102 45.8476
119.875 2157 46.4435
119.992 2238 47.3075
120.109 2320 48.1664
120.226 2341 48.3839
120.343 2531 50.309
120.46 2490 49.8999
120.578 2578 50.774
120.695 2582 50.8134
120.812 2688 51.8459
120.929 2646 51.4393
121.046 2435 49.3457
121.163 2356 48.5386
121.279 2252 47.4552
121.396 2204 46.9468
121.513 2321 48.1768
121.63 2512 50.1199
121.747 2615 51.1371
121.863 2643 51.4101
121.98 2812 53.0283
122.097 2810 53.0094
122.213 2862 53.4977
122.33 2872 53.591
122.446 2821 53.1131
122.563 2928 54.111
122.679 2870 53.5724
122.795 2863 53.507
122.912 2855 53.4322
123.028 2654 51.517
123.144 2649 51.4684
123.26 2550 50.4975
123.377 0 1
123.493 0 1
123.609 0 1
123.725 0 1
123.84 0 1
123.956 0 1
124.072 0 1
124.188 0 1
124.303 0 1
124.419 0 1
126.852 0 1
126.968 0 1
127.083 0 1
127.199 0 1
127.315 0 1
127.431 0 1
127.547 0 1
127.663 0 1
127.779 0 1
127.895 0 1
128.011 0 1
128.127 0 1
128.243 0 1
128.359 3265 57.1402
128.476 3172 56.3205
128.592 3006 54.827
128.708 2947 54.2863
128.825 2896 53.8145
128.941 2896 53.8145
129.058 2940 54.2218
129.174 3065 55.3624
129.291 3235 56.8771
129.408 3183 56.4181
129.524 3331 57.7148
129.641 3339 57.7841
129.758 3438 58.6345
129.875 3282 57.2887
129.992 3169 56.2939
130.108 3139 56.0268
130.225 2896 53.8145
130.342 2831 53.2071
130.459 2777 52.6972
130.576 2868 53.5537
130.693 2947 54.2863
130.81 3073 55.4346
130.928 3172 56.3205
131.045 3293 57.3847
131.162 3211 56.6657
131.279 3195 56.5243
131.396 3377 58.112
131.513 3225 56.7891
131.631 3385 58.1808
131.748 3256 57.0614
131.865 3121 55.8659
131.983 3157 56.1872
132.1 2920 54.037
132.217 2979 54.5802
132.335 2758 52.5167
132.452 2773 52.6593
132.57 2766 52.5928
132.687 2901 53.8609
132.804 3078 55.4797
132.922 3141 56.0446
133.039 3149 56.116
133.157 3239 56.9122
133.274 3217 56.7186
133.392 3233 56.8595
133.509 3186 56.4447
133.627 2998 54.754
133.744 2894 53.7959
133.862 2694 51.9038
133.979 2561 50.6063
134.097 2675 51.7204
134.214 2851 53.3948
134.332 2942 54.2402
134.449 2993 54.7083
134.567 2956 54.3691
134.684 3167 56.2761
134.802 3088 55.5698
134.919 3035 55.0908
135.037 3053 55.254
135.154 3008 54.8452
135.272 2842 53.3104
135.389 2812 53.0283
135.507 2728 52.2303
135.624 2677 51.7397
135.742 2457 49.5681
135.859 2441 49.4065
135.977 2417 49.163
136.094 2372 48.7032
136.211 2468 49.679
136.329 2531 50.309
136.446 2530 50.2991
136.564 2682 51.788
136.681 2615 51.1371
136.798 2677 51.7397
136.915 2596 50.951
137.033 2484 49.8397
137.15 2522 50.2195
137.267 2411 49.1019
137.384 2251 47.4447
137.502 2300 47.9583
137.619 2144 46.3033
137.736 2425 49.2443
137.853 2433 49.3254
137.97 2541 50.4083
138.087 2705 52.0096
138.204 2690 51.8652
138.321 2730 52.2494
138.438 2852 53.4041
138.555 2826 53.1601
138.672 2881 53.6749
138.788 2733 52.2781
138.905 2820 53.1037
139.022 2830 53.1977
139.139 2741 52.3546
139.255 2814 53.0471
139.372 2736 52.3068
139.488 2775 52.6783
139.605 2624 51.225
139.721 2779 52.7162
139.838 2770 52.6308
139.954 3014 54.8999
140.071 2987 54.6535
140.187 3014 54.8999
140.303 3096 55.6417
140.419 3190 56.4801
140.535 3102 55.6956
140.652 3091 55.5968
140.768 0 1
140.884 0 1
141 0 1
141.115 0 1
141.231 0 1
141.347 0 1
141.463 0 1
141.578 0 1
141.694 0 1
144.104 0 1
144.219 0 1
144.335 0 1
144.45 0 1
144.566 0 1
144.682 0 1
144.798 0 1
144.914 0 1
145.03 0 1
145.146 4639 68.1102
145.262 5096 71.3863
145.378 5356 73.1847
145.494 5736 75.7364
145.61 5832 76.3675
145.726 6246 79.0316
145.842 6321 79.5047
145.959 6228 78.9177
146.075 5957 77.1816
146.192 6099 78.0961
146.308 5924 76.9675
146.425 6327 79.5424
146.541 6840 82.7043
146.658 7303 85.4576
146.774 7663 87.5386
146.891 7969 89.2693
147.008 8349 91.3729
147.125 8846 94.0532
147.241 8823 93.9308
147.358 9088 95.331
147.475 9086 95.3205
147.592 9007 94.9052
147.709 9135 95.5772
147.826 8998 94.8578
147.943 8844 94.0425
148.06 8432 91.8259
148.177 8387 91.5806
148.294 8202 90.5649
148.411 8175 90.4157
148.528 8417 91.7442
148.645 8634 92.9193
148.762 8858 94.1169
148.88 8986 94.7945
148.997 9551 97.7292
149.114 8446 91.9021
149.231 8991 94.8209
149.349 9020 94.9737
149.466 8681 93.1719
149.583 8299 91.0988
149.701 7651 87.47
149.818 7422 86.151
149.935 7211 84.9176
150.053 7228 85.0176
150.17 7540 86.8332
150.287 7926 89.0281
150.405 8069 89.8276
150.522 8191 90.5041
150.64 8564 92.5419
150.757 8643 92.9677
150.875 8836 94
150.992 8909 94.3875
151.11 8879 94.2284
151.227 8669 93.1075
151.344 8634 92.9193
151.462 8373 91.5041
151.579 8488 92.1303
151.697 8319 91.2086
151.814 8080 89.8888
151.932 7887 88.8088
152.049 8190 90.4986
152.167 8346 91.3564
152.284 8683 93.1826
152.402 8956 94.6361
152.519 9444 97.1802
152.636 9641 98.1886
152.754 9540 97.6729
152.871 9704 98.5089
152.989 9669 98.3311
153.106 9093 95.3572
153.223 8748 93.5307
153.341 8402 91.6624
153.458 7968 89.2637
153.575 7914 88.9607
153.693 8048 89.7106
153.81 8466 92.0109
153.927 8937 94.5357
154.044 9074 95.2575
154.162 9478 97.355
154.279 9749 98.737
154.396 10149 100.742
154.513 10357 101.769
154.63 10303 101.504
154.747 10562 102.772
154.864 10367 101.818
154.981 10246 101.223
155.098 10278 101.38
155.215 9969 99.8449
155.332 9975 99.8749
155.449 9806 99.0252
155.566 9743 98.7066
155.683 10103 100.514
155.8 10435 102.152
155.917 10664 103.267
156.033 10996 104.862
156.15 0 1
156.267 0 1
156.383 0 1
156.5 0 1
156.617 0 1
156.733 0 1
156.85 0 1
156.966 0 1
157.082 0 1
157.199 0 1
157.315 0 1
157.431 0 1
157.547 0 1
157.664 0 1
157.78 0 1
157.896 0 1
158.012 0 1
158.128 0 1
158.244 0 1
158.359 0 1
158.475 0 1
158.591 0 1
158.706 0 1
