
6.15755 0 1
6.2731 0 1
6.3887 0 1
6.50437 0 1
6.62009 0 1
6.73587 0 1
6.8517 0 1
6.96759 0 1
7.08353 0 1
7.19952 0 1
7.31557 0 1
7.43166 0 1
7.54781 0 1
7.664 0 1
7.78024 0 1
7.89653 0 1
8.01286 0 1
8.12924 0 1
8.24567 0 1
8.36213 0 1
8.47864 0 1
8.59519 0 1
8.71178 0 1
8.82841 0 1
8.94508 0 1
9.06179 0 1
9.17853 0 1
9.29531 0 1
9.41212 0 1
9.52897 0 1
9.64584 0 1
9.76276 0 1
9.8797 0 1
9.99667 0 1
10.1137 0 1
10.2307 0 1
10.3478 0 1
10.4648 0 1
10.5819 0 1
10.6991 0 1
10.8162 0 1
10.9334 0 1
11.0506 0 1
11.1678 0 1
11.285 0 1
11.4023 0 1
11.5196 0 1
11.6369 0 1
11.7542 0 1
11.8715 0 1
11.9888 0 1
12.1062 0 1
12.2235 0 1
12.3409 0 1
12.4582 0 1
12.5756 0 1
12.693 0 1
12.8104 0 1
12.9278 0 1
13.0452 0 1
13.1626 0 1
13.28 0 1
13.3974 0 1
13.5149 0 1
13.6323 0 1
13.7497 0 1
13.8671 0 1
13.9845 0 1
14.1019 0 1
14.2193 0 1
14.3367 0 1
14.4541 0 1
14.5714 0 1
14.6888 0 1
14.8062 0 1
14.9235 0 1
15.0408 151 12.2882
15.1581 142 11.9164
15.2755 174 13.1909
15.3927 149 12.2066
15.51 148 12.1655
15.6273 163 12.7671
15.7445 142 11.9164
15.8617 154 12.4097
15.9789 164 12.8062
16.0961 166 12.8841
16.2132 149 12.2066
16.3304 136 11.6619
16.4475 177 13.3041
16.5646 167 12.9228
16.6816 159 12.6095
16.7986 155 12.4499
16.9156 155 12.4499
17.0326 164 12.8062
17.1496 160 12.6491
17.2665 181 13.4536
17.3833 184 13.5647
17.5002 180 13.4164
17.617 178 13.3417
17.7338 153 12.3693
17.8505 175 13.2288
17.9672 168 12.9615
18.0839 187 13.6748
18.2005 162 12.7279
18.3171 161 12.6886
18.4337 161 12.6886
18.5502 173 13.1529
18.6666 181 13.4536
18.7831 193 13.8924
18.8994 195 13.9642
19.0158 187 13.6748
19.1321 169 13
19.2483 135 11.619
19.3645 161 12.6886
19.4806 156 12.49
19.5967 166 12.8841
19.7128 162 12.7279
19.8288 132 11.4891
19.9447 106 10.2956
20.0606 0 1
20.1764 0 1
20.2922 0 1
20.4079 0 1
20.5236 0 1
20.6392 0 1
20.7548 0 1
20.8702 0 1
23.3078 0 1
23.4233 0 1
23.539 0 1
23.6547 0 1
23.7704 0 1
23.8862 0 1
24.0021 0 1
24.118 0 1
24.234 0 1
24.35 0 1
24.4661 84 9.16515
24.5822 100 10
24.6984 99 9.94987
24.8146 127 11.2694
24.9309 116 10.7703
25.0472 156 12.49
25.1636 156 12.49
25.28 165 12.8452
25.3965 160 12.6491
25.513 173 13.1529
25.6296 177 13.3041
25.7462 189 13.7477
25.8628 219 14.7986
25.9795 178 13.3417
26.0962 191 13.8203
26.213 218 14.7648
26.3298 184 13.5647
26.4466 189 13.7477
26.5635 195 13.9642
26.6804 212 14.5602
26.7973 167 12.9228
26.9143 205 14.3178
27.0313 207 14.3875
27.1483 205 14.3178
27.2653 194 13.9284
27.3824 204 14.2829
27.4996 234 15.2971
27.6167 207 14.3875
27.7339 211 14.5258
27.8511 203 14.2478
27.9683 207 14.3875
28.0855 209 14.4568
28.2028 211 14.5258
28.3201 168 12.9615
28.4374 207 14.3875
28.5547 195 13.9642
28.6721 184 13.5647
28.7894 190 13.784
28.9068 193 13.8924
29.0242 177 13.3041
29.1416 181 13.4536
29.259 178 13.3417
29.3764 185 13.6015
29.4939 189 13.7477
29.6113 197 14.0357
29.7288 174 13.1909
29.8463 188 13.7113
29.9638 197 14.0357
30.0812 202 14.2127
30.1987 175 13.2288
30.3162 182 13.4907
30.4337 193 13.8924
30.5512 177 13.3041
30.6687 207 14.3875
30.7862 182 13.4907
30.9037 198 14.0712
31.0212 226 15.0333
31.1387 222 14.8997
31.2562 221 14.8661
31.3737 185 13.6015
31.4912 213 14.5945
31.6087 204 14.2829
31.7262 219 14.7986
31.8436 206 14.3527
31.9611 188 13.7113
32.0785 166 12.8841
32.1959 195 13.9642
32.3134 181 13.4536
32.4308 186 13.6382
32.5482 169 13
32.6655 188 13.7113
32.7829 195 13.9642
32.9002 163 12.7671
33.0176 197 14.0357
33.1349 157 12.53
33.2522 181 13.4536
33.3694 188 13.7113
33.4867 194 13.9284
33.6039 185 13.6015
33.7211 204 14.2829
33.8383 169 13
33.9554 219 14.7986
34.0725 195 13.9642
34.1896 185 13.6015
34.3067 208 14.4222
34.4237 222 14.8997
34.5407 193 13.8924
34.6577 210 14.4914
34.7746 224 14.9666
34.8915 212 14.5602
35.0084 202 14.2127
35.1252 196 14
35.242 213 14.5945
35.3587 195 13.9642
35.4755 193 13.8924
35.5921 213 14.5945
35.7088 195 13.9642
35.8254 160 12.6491
35.9419 189 13.7477
36.0584 182 13.4907
36.1749 173 13.1529
36.2913 163 12.7671
36.4077 170 13.0384
36.524 160 12.6491
36.6403 163 12.7671
36.7565 145 12.0416
36.8727 133 11.5326
36.9889 150 12.2474
37.1049 135 11.619
37.221 0 1
37.3369 0 1
37.4529 0 1
37.5687 0 1
37.6845 0 1
37.8003 0 1
37.916 0 1
38.0316 0 1
38.1472 0 1
40.5851 0 1
40.7008 0 1
40.8164 0 1
40.9322 0 1
41.048 0 1
41.1639 0 1
41.2798 0 1
41.3958 0 1
41.5118 0 1
41.6279 0 1
41.744 58 7.61577
41.8602 92 9.59166
41.9765 108 10.3923
42.0928 112 10.583
42.2091 128 11.3137
42.3255 156 12.49
42.4419 143 11.9583
42.5584 165 12.8452
42.675 158 12.5698
42.7915 182 13.4907
42.9081 180 13.4164
43.0248 195 13.9642
43.1415 172 13.1149
43.2582 161 12.6886
43.375 208 14.4222
43.4918 214 14.6287
43.6087 213 14.5945
43.7256 203 14.2478
43.8425 214 14.6287
43.9595 193 13.8924
44.0765 187 13.6748
44.1935 199 14.1067
44.3106 188 13.7113
44.4277 193 13.8924
44.5448 204 14.2829
44.6619 185 13.6015
44.7791 223 14.9332
44.8963 179 13.3791
45.0136 143 11.9583
45.1308 156 12.49
45.2481 171 13.0767
45.3654 141 11.8743
45.4827 155 12.4499
45.6001 163 12.7671
45.7174 169 13
45.8348 190 13.784
45.9522 210 14.4914
46.0697 213 14.5945
46.1871 202 14.2127
46.3046 212 14.5602
46.422 209 14.4568
46.5395 200 14.1421
46.657 211 14.5258
46.7745 237 15.3948
46.892 201 14.1774
47.0096 235 15.3297
47.1271 220 14.8324
47.2446 213 14.5945
47.3622 216 14.6969
47.4797 224 14.9666
47.5973 191 13.8203
47.7149 229 15.1327
47.8324 207 14.3875
47.95 208 14.4222
48.0675 218 14.7648
48.1851 222 14.8997
48.3027 189 13.7477
48.4202 219 14.7986
48.5378 171 13.0767
48.6554 178 13.3417
48.7729 162 12.7279
48.8904 158 12.5698
49.008 160 12.6491
49.1255 159 12.6095
49.243 191 13.8203
49.3605 181 13.4536
49.478 211 14.5258
49.5955 207 14.3875
49.713 214 14.6287
49.8304 206 14.3527
49.9479 191 13.8203
50.0653 218 14.7648
50.1827 200 14.1421
50.3001 212 14.5602
50.4175 202 14.2127
50.5348 205 14.3178
50.6521 228 15.0997
50.7694 235 15.3297
50.8867 233 15.2643
51.004 224 14.9666
51.1212 209 14.4568
51.2384 213 14.5945
51.3556 182 13.4907
51.4727 227 15.0665
51.5899 210 14.4914
51.707 209 14.4568
51.824 195 13.9642
51.9411 181 13.4536
52.0581 161 12.6886
52.175 170 13.0384
52.2919 167 12.9228
52.4088 176 13.2665
52.5257 150 12.2474
52.6425 157 12.53
52.7593 209 14.4568
52.876 209 14.4568
52.9927 189 13.7477
53.1094 195 13.9642
53.226 191 13.8203
53.3426 200 14.1421
53.4591 195 13.9642
53.5756 203 14.2478
53.692 190 13.784
53.8084 149 12.2066
53.9248 165 12.8452
54.0411 178 13.3417
54.1573 163 12.7671
54.2735 0 1
54.3896 0 1
54.5057 0 1
54.6217 0 1
54.7377 0 1
54.8537 0 1
54.9695 0 1
55.0853 0 1
55.2011 0 1
55.3168 0 1
55.4324 0 1
57.824 0 1
57.9396 0 1
58.0553 0 1
58.1711 0 1
58.2869 0 1
58.4028 0 1
58.5187 0 1
58.6347 0 1
58.7508 0 1
58.8669 0 1
58.983 196 14
59.0992 199 14.1067
59.2155 205 14.3178
59.3318 261 16.1555
59.4482 246 15.6844
59.5646 283 16.8226
59.681 281 16.7631
59.7975 265 16.2788
59.9141 263 16.2173
60.0306 263 16.2173
60.1473 290 17.0294
60.2639 299 17.2916
60.3807 286 16.9115
60.4974 290 17.0294
60.6142 289 17
60.731 217 14.7309
60.8479 217 14.7309
60.9648 203 14.2478
61.0818 211 14.5258
61.1987 197 14.0357
61.3158 238 15.4272
61.4328 250 15.8114
61.5499 250 15.8114
61.667 253 15.906
61.7841 314 17.72
61.9013 337 18.3576
62.0185 325 18.0278
62.1357 326 18.0555
62.253 289 17
62.3702 284 16.8523
62.4875 279 16.7033
62.6049 338 18.3848
62.7222 302 17.3781
62.8396 307 17.5214
62.9569 333 18.2483
63.0743 329 18.1384
63.1918 329 18.1384
63.3092 340 18.4391
63.4267 325 18.0278
63.5441 362 19.0263
63.6616 304 17.4356
63.7791 315 17.7482
63.8966 310 17.6068
64.0142 291 17.0587
64.1317 268 16.3707
64.2492 231 15.1987
64.3668 234 15.2971
64.4843 204 14.2829
64.6019 207 14.3875
64.7195 207 14.3875
64.837 213 14.5945
64.9546 247 15.7162
65.0722 289 17
65.1898 284 16.8523
65.3074 312 17.6635
65.4249 333 18.2483
65.5425 338 18.3848
65.6601 325 18.0278
65.7777 306 17.4929
65.8952 300 17.3205
66.0128 345 18.5742
66.1304 323 17.9722
66.2479 354 18.8149
66.3655 363 19.0526
66.483 356 18.868
66.6005 349 18.6815
66.718 388 19.6977
66.8355 364 19.0788
66.953 338 18.3848
67.0705 341 18.4662
67.1879 313 17.6918
67.3054 344 18.5472
67.4228 321 17.9165
67.5402 329 18.1384
67.6576 310 17.6068
67.7749 271 16.4621
67.8923 229 15.1327
68.0096 244 15.6205
68.1269 210 14.4914
68.2442 199 14.1067
68.3614 195 13.9642
68.4787 235 15.3297
68.5958 229 15.1327
68.713 232 15.2315
68.8302 300 17.3205
68.9473 326 18.0555
69.0643 345 18.5742
69.1814 307 17.5214
69.2984 350 18.7083
69.4154 335 18.303
69.5323 322 17.9444
69.6492 317 17.8045
69.7661 330 18.1659
69.8829 331 18.1934
69.9997 317 17.8045
70.1165 354 18.8149
70.2332 311 17.6352
70.3499 331 18.1934
70.4665 292 17.088
70.5831 283 16.8226
70.6996 269 16.4012
70.8161 248 15.748
70.9326 289 17
71.049 206 14.3527
71.1653 239 15.4596
71.2817 248 15.748
71.3979 211 14.5258
71.5141 160 12.6491
71.6303 142 11.9164
71.7464 83 9.11043
71.8624 0 1
71.9784 0 1
72.0944 0 1
72.2102 0 1
72.3261 0 1
72.4418 0 1
72.5575 0 1
72.6732 0 1
75.1054 0 1
75.2209 0 1
75.3365 0 1
75.4521 0 1
75.5678 0 1
75.6835 0 1
75.7993 0 1
75.9151 0 1
76.031 0 1
76.147 257 16.0312
76.263 271 16.4621
76.3791 283 16.8226
76.4952 247 15.7162
76.6113 258 16.0624
76.7276 276 16.6132
76.8438 242 15.5563
76.9601 224 14.9666
77.0765 178 13.3417
77.1929 202 14.2127
77.3093 193 13.8924
77.4258 217 14.7309
77.5423 270 16.4317
77.6589 265 16.2788
77.7755 304 17.4356
77.8921 331 18.1934
78.0088 357 18.8944
78.1256 398 19.9499
78.2423 369 19.2094
78.3591 352 18.7617
78.4759 380 19.4936
78.5928 389 19.7231
78.7097 418 20.445
78.8266 373 19.3132
78.9436 393 19.8242
79.0606 410 20.2485
79.1776 405 20.1246
79.2946 427 20.664
79.4117 394 19.8494
79.5288 398 19.9499
79.6459 423 20.567
79.7631 411 20.2731
79.8802 383 19.5704
79.9974 362 19.0263
80.1147 404 20.0998
80.2319 375 19.3649
80.3491 374 19.3391
80.4664 336 18.3303
80.5837 294 17.1464
80.701 240 15.4919
80.8183 190 13.784
80.9357 195 13.9642
81.053 219 14.7986
81.1704 220 14.8324
81.2877 276 16.6132
81.4051 317 17.8045
81.5225 390 19.7484
81.6399 394 19.8494
81.7573 428 20.6882
81.8747 421 20.5183
81.9922 447 21.1424
82.1096 417 20.4206
82.227 450 21.2132
82.3444 420 20.4939
82.4619 441 21
82.5793 447 21.1424
82.6967 408 20.199
82.8142 457 21.3776
82.9316 474 21.7715
83.049 500 22.3607
83.1664 471 21.7025
83.2838 448 21.166
83.4012 416 20.3961
83.5186 465 21.5639
83.636 473 21.7486
83.7534 448 21.166
83.8708 428 20.6882
83.9881 404 20.0998
84.1055 353 18.7883
84.2228 316 17.7764
84.3401 271 16.4621
84.4575 249 15.7797
84.5747 209 14.4568
84.692 207 14.3875
84.8093 252 15.8745
84.9265 302 17.3781
85.0437 356 18.868
85.1609 398 19.9499
85.2781 422 20.5426
85.3952 487 22.0681
85.5123 489 22.1133
85.6294 469 21.6564
85.7465 539 23.2164
85.8636 465 21.5639
85.9806 457 21.3776
86.0976 456 21.3542
86.2145 517 22.7376
86.3315 557 23.6008
86.4484 497 22.2935
86.5652 479 21.8861
86.682 526 22.9347
86.7988 484 22
86.9156 477 21.8403
87.0323 481 21.9317
87.149 450 21.2132
87.2657 445 21.095
87.3823 416 20.3961
87.4988 458 21.4009
87.6154 366 19.1311
87.7318 314 17.72
87.8483 291 17.0587
87.9647 229 15.1327
88.081 191 13.8203
88.1973 177 13.3041
88.3136 176 13.2665
88.4298 192 13.8564
88.546 212 14.5602
88.6621 280 16.7332
88.7781 289 17
88.8942 0 1
89.0101 0 1
89.126 0 1
89.2419 0 1
89.3577 0 1
89.4734 0 1
89.5891 0 1
89.7047 0 1
89.8203 0 1
89.9358 0 1
92.3269 0 1
92.4424 0 1
92.558 0 1
92.6736 0 1
92.7893 0 1
92.905 0 1
93.0208 0 1
93.1366 0 1
93.2525 0 1
93.3685 0 1
93.4845 0 1
93.6005 199 14.1067
93.7167 225 15
93.8328 265 16.2788
93.949 320 17.8885
94.0653 418 20.445
94.1816 443 21.0476
94.2979 539 23.2164
94.4143 538 23.1948
94.5307 554 23.5372
94.6472 580 24.0832
94.7637 591 24.3105
94.8803 539 23.2164
94.9969 584 24.1661
95.1135 578 24.0416
95.2302 560 23.6643
95.3469 581 24.1039
95.4637 607 24.6374
95.5805 554 23.5372
95.6973 586 24.2074
95.8142 613 24.7588
95.9311 625 25
96.048 571 23.8956
96.1649 566 23.7908
96.2819 576 24
96.3989 603 24.5561
96.516 543 23.3024
96.633 525 22.9129
96.7501 444 21.0713
96.8673 468 21.6333
96.9844 338 18.3848
97.1016 301 17.3494
97.2188 299 17.2916
97.336 276 16.6132
97.4532 295 17.1756
97.5704 288 16.9706
97.6877 413 20.3224
97.805 470 21.6795
97.9223 539 23.2164
98.0396 602 24.5357
98.1569 633 25.1595
98.2743 592 24.3311
98.3916 560 23.6643
98.509 567 23.8118
98.6264 542 23.2809
98.7438 639 25.2784
98.8612 602 24.5357
98.9786 622 24.9399
99.096 640 25.2982
99.2134 590 24.2899
99.3308 596 24.4131
99.4482 648 25.4558
99.5656 615 24.7992
99.6831 566 23.7908
99.8005 577 24.0208
99.9179 580 24.0832
100.035 575 23.9792
100.153 531 23.0434
100.27 524 22.891
100.388 472 21.7256
100.505 441 21
100.622 344 18.5472
100.74 310 17.6068
100.857 321 17.9165
100.975 310 17.6068
101.092 310 17.6068
101.209 390 19.7484
101.327 469 21.6564
101.444 552 23.4947
101.561 579 24.0624
101.679 637 25.2389
101.796 595 24.3926
101.913 593 24.3516
102.03 592 24.3311
102.148 590 24.2899
102.265 626 25.02
102.382 589 24.2693
102.499 585 24.1868
102.616 611 24.7184
102.733 608 24.6577
102.851 675 25.9808
102.968 622 24.9399
103.085 609 24.6779
103.202 631 25.1197
103.319 610 24.6982
103.436 635 25.1992
103.552 619 24.8797
103.669 606 24.6171
103.786 597 24.4336
103.903 519 22.7816
104.02 469 21.6564
104.137 447 21.1424
104.253 364 19.0788
104.37 323 17.9722
104.487 330 18.1659
104.603 336 18.3303
104.72 319 17.8606
104.836 391 19.7737
104.953 429 20.7123
105.069 489 22.1133
105.186 450 21.2132
105.302 482 21.9545
105.418 468 21.6333
105.535 459 21.4243
105.651 417 20.4206
105.767 383 19.5704
105.883 371 19.2614
105.999 336 18.3303
106.115 0 1
106.231 0 1
106.347 0 1
106.463 0 1
106.579 0 1
106.694 0 1
106.81 0 1
106.926 0 1
107.041 0 1
107.157 0 1
109.576 0 1
109.692 0 1
109.807 0 1
109.923 0 1
110.039 0 1
110.155 0 1
110.27 0 1
110.386 0 1
110.502 0 1
110.618 356 18.868
110.735 401 20.025
110.851 416 20.3961
110.967 380 19.4936
111.083 448 21.166
111.199 473 21.7486
111.316 477 21.8403
111.432 537 23.1733
111.549 571 23.8956
111.665 574 23.9583
111.782 564 23.7487
111.898 535 23.1301
112.015 503 22.4277
112.132 582 24.1247
112.248 538 23.1948
112.365 535 23.1301
112.482 488 22.0907
112.599 498 22.3159
112.716 362 19.0263
112.832 393 19.8242
112.949 294 17.1464
113.066 295 17.1756
113.183 292 17.088
113.3 314 17.72
113.417 320 17.8885
113.534 358 18.9209
113.652 415 20.3715
113.769 466 21.587
113.886 537 23.1733
114.003 502 22.4054
114.12 533 23.0868
114.238 527 22.9565
114.355 520 22.8035
114.472 527 22.9565
114.589 533 23.0868
114.707 542 23.2809
114.824 492 22.1811
114.942 532 23.0651
115.059 517 22.7376
115.176 497 22.2935
115.294 512 22.6274
115.411 525 22.9129
115.529 495 22.2486
115.646 497 22.2935
115.764 464 21.5407
115.881 474 21.7715
115.999 488 22.0907
116.116 466 21.587
116.234 426 20.6398
116.351 336 18.3303
116.469 297 17.2337
116.586 261 16.1555
116.704 287 16.9411
116.821 262 16.1864
116.939 281 16.7631
117.056 326 18.0555
117.174 349 18.6815
117.291 455 21.3307
117.409 444 21.0713
117.526 401 20.025
117.644 483 21.9773
117.761 513 22.6495
117.879 498 22.3159
117.996 468 21.6333
118.114 479 21.8861
118.231 435 20.8567
118.349 509 22.561
118.466 530 23.0217
118.584 499 22.3383
118.701 469 21.6564
118.819 485 22.0227
118.936 479 21.8861
119.053 475 21.7945
119.171 491 22.1585
119.288 432 20.7846
119.405 487 22.0681
119.523 450 21.2132
119.64 435 20.8567
119.757 421 20.5183
119.875 418 20.445
119.992 348 18.6548
120.109 311 17.6352
120.226 282 16.7929
120.343 303 17.4069
120.46 259 16.0935
120.578 265 16.2788
120.695 281 16.7631
120.812 350 18.7083
120.929 368 19.1833
121.046 399 19.975
121.163 370 19.2354
121.279 404 20.0998
121.396 444 21.0713
121.513 400 20
121.63 364 19.0788
121.747 396 19.8997
121.863 357 18.8944
121.98 363 19.0526
122.097 387 19.6723
122.213 386 19.6469
122.33 371 19.2614
122.446 358 18.9209
122.563 336 18.3303
122.679 332 18.2209
122.795 278 16.6733
122.912 291 17.0587
123.028 253 15.906
123.144 235 15.3297
123.26 217 14.7309
123.377 0 1
123.493 0 1
123.609 0 1
123.725 0 1
123.84 0 1
123.956 0 1
124.072 0 1
124.188 0 1
124.303 0 1
124.419 0 1
126.852 0 1
126.968 0 1
127.083 0 1
127.199 0 1
127.315 0 1
127.431 0 1
127.547 0 1
127.663 0 1
127.779 0 1
127.895 0 1
128.011 0 1
128.127 0 1
128.243 0 1
128.359 421 20.5183
128.476 401 20.025
128.592 429 20.7123
128.708 414 20.347
128.825 475 21.7945
128.941 498 22.3159
129.058 385 19.6214
129.174 378 19.4422
129.291 311 17.6352
129.408 317 17.8045
129.524 321 17.9165
129.641 315 17.7482
129.758 334 18.2757
129.875 403 20.0749
129.992 377 19.4165
130.108 409 20.2237
130.225 426 20.6398
130.342 475 21.7945
130.459 504 22.4499
130.576 494 22.2261
130.693 447 21.1424
130.81 436 20.8806
130.928 463 21.5174
131.045 466 21.587
131.162 487 22.0681
131.279 499 22.3383
131.396 454 21.3073
131.513 478 21.8632
131.631 474 21.7715
131.748 446 21.1187
131.865 470 21.6795
131.983 440 20.9762
132.1 464 21.5407
132.217 426 20.6398
132.335 479 21.8861
132.452 440 20.9762
132.57 431 20.7605
132.687 371 19.2614
132.804 341 18.4662
132.922 355 18.8414
133.039 362 19.0263
133.157 332 18.2209
133.274 322 17.9444
133.392 355 18.8414
133.509 358 18.9209
133.627 398 19.9499
133.744 419 20.4695
133.862 413 20.3224
133.979 471 21.7025
134.097 383 19.5704
134.214 425 20.6155
134.332 463 21.5174
134.449 446 21.1187
134.567 474 21.7715
134.684 476 21.8174
134.802 458 21.4009
134.919 437 20.9045
135.037 466 21.587
135.154 462 21.4942
135.272 442 21.0238
135.389 450 21.2132
135.507 425 20.6155
135.624 472 21.7256
135.742 474 21.7715
135.859 429 20.7123
135.977 454 21.3073
136.094 420 20.4939
136.211 411 20.2731
136.329 374 19.3391
136.446 360 18.9737
136.564 351 18.735
136.681 332 18.2209
136.798 350 18.7083
136.915 322 17.9444
137.033 367 19.1572
137.15 357 18.8944
137.267 365 19.105
137.384 402 20.0499
137.502 409 20.2237
137.619 404 20.0998
137.736 398 19.9499
137.853 382 19.5448
137.97 401 20.025
138.087 380 19.4936
138.204 439 20.9523
138.321 434 20.8327
138.438 382 19.5448
138.555 419 20.4695
138.672 374 19.3391
138.788 427 20.664
138.905 417 20.4206
139.022 371 19.2614
139.139 331 18.1934
139.255 305 17.4642
139.372 348 18.6548
139.488 293 17.1172
139.605 285 16.8819
139.721 319 17.8606
139.838 274 16.5529
139.954 228 15.0997
140.071 198 14.0712
140.187 210 14.4914
140.303 189 13.7477
140.419 156 12.49
140.535 156 12.49
140.652 161 12.6886
140.768 0 1
140.884 0 1
141 0 1
141.115 0 1
141.231 0 1
141.347 0 1
141.463 0 1
141.578 0 1
141.694 0 1
144.104 0 1
144.219 0 1
144.335 0 1
144.45 0 1
144.566 0 1
144.682 0 1
144.798 0 1
144.914 0 1
145.03 0 1
145.146 274 16.5529
145.262 252 15.8745
145.378 268 16.3707
145.494 254 15.9374
145.61 226 15.0333
145.726 287 16.9411
145.842 240 15.4919
145.959 249 15.7797
146.075 282 16.7929
146.192 252 15.8745
146.308 299 17.2916
146.425 311 17.6352
146.541 333 18.2483
146.658 314 17.72
146.774 265 16.2788
146.891 261 16.1555
147.008 269 16.4012
147.125 322 17.9444
147.241 291 17.0587
147.358 324 18
147.475 343 18.5203
147.592 313 17.6918
147.709 293 17.1172
147.826 304 17.4356
147.943 273 16.5227
148.06 290 17.0294
148.177 310 17.6068
148.294 288 16.9706
148.411 297 17.2337
148.528 323 17.9722
148.645 327 18.0831
148.762 313 17.6918
148.88 299 17.2916
148.997 284 16.8523
149.114 253 15.906
149.231 250 15.8114
149.349 261 16.1555
149.466 274 16.5529
149.583 249 15.7797
149.701 238 15.4272
149.818 267 16.3401
149.935 280 16.7332
150.053 287 16.9411
150.17 278 16.6733
150.287 295 17.1756
150.405 266 16.3095
150.522 260 16.1245
150.64 292 17.088
150.757 307 17.5214
150.875 293 17.1172
150.992 306 17.4929
151.11 287 16.9411
151.227 297 17.2337
151.344 307 17.5214
151.462 318 17.8326
151.579 281 16.7631
151.697 321 17.9165
151.814 309 17.5784
151.932 296 17.2047
152.049 317 17.8045
152.167 298 17.2627
152.284 326 18.0555
152.402 285 16.8819
152.519 305 17.4642
152.636 258 16.0624
152.754 287 16.9411
152.871 252 15.8745
152.989 250 15.8114
153.106 278 16.6733
153.223 247 15.7162
153.341 260 16.1245
153.458 277 16.6433
153.575 270 16.4317
153.693 245 15.6525
153.81 269 16.4012
153.927 264 16.2481
154.044 259 16.0935
154.162 253 15.906
154.279 230 15.1658
154.396 267 16.3401
154.513 291 17.0587
154.63 260 16.1245
154.747 260 16.1245
154.864 263 16.2173
154.981 259 16.0935
155.098 261 16.1555
155.215 249 15.7797
155.332 254 15.9374
155.449 268 16.3707
155.566 256 16
155.683 243 15.5885
155.8 238 15.4272
155.917 268 16.3707
156.033 258 16.0624
156.15 0 1
156.267 0 1
156.383 0 1
156.5 0 1
156.617 0 1
156.733 0 1
156.85 0 1
156.966 0 1
157.082 0 1
157.199 0 1
157.315 0 1
157.431 0 1
157.547 0 1
157.664 0 1
157.78 0 1
157.896 0 1
158.012 0 1
158.128 0 1
158.244 0 1
158.359 0 1
158.475 0 1
158.591 0 1
158.706 0 1
