
6.15755 0 1
6.2731 0 1
6.3887 0 1
6.50437 0 1
6.62009 0 1
6.73587 0 1
6.8517 0 1
6.96759 0 1
7.08353 0 1
7.19952 0 1
7.31557 0 1
7.43166 0 1
7.54781 0 1
7.664 0 1
7.78024 0 1
7.89653 0 1
8.01286 0 1
8.12924 0 1
8.24567 0 1
8.36213 0 1
8.47864 0 1
8.59519 0 1
8.71178 0 1
8.82841 0 1
8.94508 0 1
9.06179 0 1
9.17853 0 1
9.29531 0 1
9.41212 0 1
9.52897 0 1
9.64584 0 1
9.76276 0 1
9.8797 0 1
9.99667 0 1
10.1137 0 1
10.2307 0 1
10.3478 0 1
10.4648 0 1
10.5819 0 1
10.6991 0 1
10.8162 0 1
10.9334 0 1
11.0506 0 1
11.1678 0 1
11.285 0 1
11.4023 0 1
11.5196 0 1
11.6369 0 1
11.7542 0 1
11.8715 0 1
11.9888 0 1
12.1062 0 1
12.2235 0 1
12.3409 0 1
12.4582 0 1
12.5756 0 1
12.693 0 1
12.8104 0 1
12.9278 0 1
13.0452 0 1
13.1626 0 1
13.28 0 1
13.3974 0 1
13.5149 0 1
13.6323 0 1
13.7497 0 1
13.8671 0 1
13.9845 0 1
14.1019 0 1
14.2193 0 1
14.3367 0 1
14.4541 0 1
14.5714 0 1
14.6888 0 1
14.8062 0 1
14.9235 0 1
15.0408 8825 93.9415
15.1581 9052 95.142
15.2755 9334 96.6126
15.3927 9421 97.0618
15.51 9412 97.0155
15.6273 9466 97.2934
15.7445 9205 95.9427
15.8617 9370 96.7988
15.9789 9262 96.2393
16.0961 9626 98.1122
16.2132 9807 99.0303
16.3304 10069 100.344
16.4475 10287 101.425
16.5646 10435 102.152
16.6816 11126 105.48
16.7986 11287 106.24
16.9156 11600 107.703
17.0326 11872 108.959
17.1496 12001 109.549
17.2665 12409 111.396
17.3833 12420 111.445
17.5002 12548 112.018
17.617 12677 112.592
17.7338 12690 112.65
17.8505 12733 112.841
17.9672 12753 112.929
18.0839 12000 109.545
18.2005 11503 107.252
18.3171 11594 107.675
18.4337 12210 110.499
18.5502 12597 112.236
18.6666 13078 114.359
18.7831 12923 113.679
18.8994 12928 113.701
19.0158 12700 112.694
19.1321 12560 112.071
19.2483 12357 111.162
19.3645 12181 110.368
19.4806 11828 108.757
19.5967 11600 107.703
19.7128 11414 106.836
19.8288 11114 105.423
19.9447 9997 99.985
20.0606 0 1
20.1764 0 1
20.2922 0 1
20.4079 0 1
20.5236 0 1
20.6392 0 1
20.7548 0 1
20.8702 0 1
23.3078 0 1
23.4233 0 1
23.539 0 1
23.6547 0 1
23.7704 0 1
23.8862 0 1
24.0021 0 1
24.118 0 1
24.234 0 1
24.35 0 1
24.4661 11594 107.675
24.5822 11621 107.801
24.6984 11473 107.112
24.8146 11605 107.727
24.9309 11427 106.897
25.0472 11393 106.738
25.1636 11426 106.892
25.28 11581 107.615
25.3965 11934 109.243
25.513 12390 111.31
25.6296 13106 114.481
25.7462 13110 114.499
25.8628 13546 116.387
25.9795 13647 116.82
26.0962 13627 116.735
26.213 13723 117.145
26.3298 13543 116.374
26.4466 13670 116.919
26.5635 13405 115.78
26.6804 12944 113.772
26.7973 12175 110.34
26.9143 12126 110.118
27.0313 12401 111.36
27.1483 13018 114.096
27.2653 13083 114.381
27.3824 13402 115.767
27.4996 13477 116.09
27.6167 12973 113.899
27.7339 12638 112.419
27.8511 12659 112.512
27.9683 12214 110.517
28.0855 12229 110.585
28.2028 11929 109.22
28.3201 11582 107.62
28.4374 11501 107.243
28.5547 11718 108.25
28.6721 11513 107.299
28.7894 11332 106.452
28.9068 11536 107.406
29.0242 11837 108.798
29.1416 12113 110.059
29.259 12692 112.659
29.3764 12776 113.031
29.4939 13129 114.582
29.6113 13005 114.039
29.7288 13183 114.817
29.8463 13153 114.687
29.9638 13334 115.473
30.0812 13052 114.245
30.1987 12403 111.369
30.3162 11616 107.778
30.4337 11206 105.858
30.5512 11394 106.743
30.6687 11910 109.133
30.7862 12567 112.103
30.9037 12697 112.681
31.0212 12911 113.627
31.1387 12789 113.088
31.2562 12568 112.107
31.3737 12450 111.58
31.4912 12380 111.265
31.6087 11799 108.623
31.7262 11813 108.688
31.8436 11423 106.878
31.9611 11482 107.154
32.0785 11305 106.325
32.1959 11078 105.252
32.3134 11104 105.376
32.4308 11146 105.575
32.5482 11360 106.583
32.6655 11611 107.754
32.7829 12080 109.909
32.9002 12445 111.557
33.0176 12629 112.379
33.1349 12958 113.833
33.2522 13140 114.63
33.3694 12899 113.574
33.4867 12903 113.591
33.6039 12804 113.155
33.7211 12734 112.845
33.8383 12095 109.977
33.9554 11487 107.177
34.0725 10825 104.043
34.1896 10634 103.121
34.3067 11068 105.205
34.4237 11460 107.051
34.5407 12035 109.704
34.6577 12273 110.784
34.7746 12327 111.027
34.8915 12243 110.648
35.0084 12040 109.727
35.1252 11875 108.972
35.242 11636 107.87
35.3587 11222 105.934
35.4755 11378 106.668
35.5921 11137 105.532
35.7088 11106 105.385
35.8254 10766 103.759
35.9419 10784 103.846
36.0584 10419 102.074
36.1749 10615 103.029
36.2913 10707 103.475
36.4077 11161 105.646
36.524 11329 106.438
36.6403 11728 108.296
36.7565 11982 109.462
36.8727 12278 110.806
36.9889 12143 110.195
37.1049 12007 109.576
37.221 0 1
37.3369 0 1
37.4529 0 1
37.5687 0 1
37.6845 0 1
37.8003 0 1
37.916 0 1
38.0316 0 1
38.1472 0 1
40.5851 0 1
40.7008 0 1
40.8164 0 1
40.9322 0 1
41.048 0 1
41.1639 0 1
41.2798 0 1
41.3958 0 1
41.5118 0 1
41.6279 0 1
41.744 8690 93.2202
41.8602 9485 97.391
41.9765 9934 99.6695
42.0928 10210 101.045
42.2091 10248 101.232
42.3255 10091 100.454
42.4419 10248 101.232
42.5584 10213 101.059
42.675 9851 99.2522
42.7915 9373 96.8143
42.9081 8555 92.4932
43.0248 8554 92.4878
43.1415 8623 92.8601
43.2582 8811 93.8669
43.375 9349 96.6902
43.4918 9344 96.6644
43.6087 9228 96.0625
43.7256 9571 97.8315
43.8425 9154 95.6765
43.9595 9113 95.462
44.0765 9016 94.9526
44.1935 8496 92.1737
44.3106 8427 91.7987
44.4277 8107 90.0389
44.5448 8128 90.1554
44.6619 7568 86.9943
44.7791 7573 87.023
44.8963 7396 86
45.0136 7212 84.9235
45.1308 7375 85.8778
45.2481 7484 86.5101
45.3654 7527 86.7583
45.4827 7607 87.2181
45.6001 7933 89.0674
45.7174 7849 88.5946
45.8348 7956 89.1964
45.9522 7926 89.0281
46.0697 7920 88.9944
46.1871 7723 87.8806
46.3046 7250 85.1469
46.422 6868 82.8734
46.5395 6367 79.7935
46.657 6311 79.4418
46.7745 6556 80.9691
46.892 6784 82.365
47.0096 6865 82.8553
47.1271 7117 84.3623
47.2446 7108 84.309
47.3622 7308 85.4868
47.4797 7029 83.8391
47.5973 6767 82.2618
47.7149 6653 81.5659
47.8324 6589 81.1727
47.95 6329 79.555
48.0675 6086 78.0128
48.1851 6069 77.9038
48.3027 5875 76.6485
48.4202 5754 75.8551
48.5378 5691 75.4387
48.6554 5801 76.1643
48.7729 5903 76.831
48.8904 6199 78.7337
49.008 6386 79.9125
49.1255 6549 80.9259
49.243 6527 80.7899
49.3605 6767 82.2618
49.478 6827 82.6257
49.5955 6838 82.6922
49.713 6813 82.5409
49.8304 6448 80.2994
49.9479 5913 76.896
50.0653 5679 75.3591
50.1827 5730 75.6968
50.3001 5950 77.1362
50.4175 6457 80.3555
50.5348 6644 81.5107
50.6521 7089 84.1962
50.7694 7315 85.5278
50.8867 7324 85.5804
51.004 7492 86.5563
51.1212 7603 87.1952
51.2384 7517 86.7006
51.3556 7743 87.9943
51.4727 7724 87.8863
51.5899 7687 87.6755
51.707 7406 86.0581
51.824 7601 87.1837
51.9411 7514 86.6833
52.0581 7442 86.267
52.175 7494 86.5679
52.2919 7763 88.1079
52.4088 8211 90.6146
52.5257 8703 93.2899
52.6425 8983 94.7787
52.7593 9330 96.5919
52.876 9359 96.7419
52.9927 9499 97.4628
53.1094 9615 98.0561
53.226 9669 98.3311
53.3426 9513 97.5346
53.4591 9126 95.5301
53.5756 8346 91.3564
53.692 8088 89.9333
53.8084 7854 88.6228
53.9248 8455 91.9511
54.0411 8920 94.4458
54.1573 9345 96.6695
54.2735 0 1
54.3896 0 1
54.5057 0 1
54.6217 0 1
54.7377 0 1
54.8537 0 1
54.9695 0 1
55.0853 0 1
55.2011 0 1
55.3168 0 1
55.4324 0 1
57.824 0 1
57.9396 0 1
58.0553 0 1
58.1711 0 1
58.2869 0 1
58.4028 0 1
58.5187 0 1
58.6347 0 1
58.7508 0 1
58.8669 0 1
58.983 9360 96.7471
59.0992 10215 101.069
59.2155 10811 103.976
59.3318 11339 106.485
59.4482 11749 108.393
59.5646 12035 109.704
59.681 12216 110.526
59.7975 12296 110.887
59.9141 11921 109.183
60.0306 11976 109.435
60.1473 11702 108.176
60.2639 11525 107.355
60.3807 11208 105.868
60.4974 10815 103.995
60.6142 10458 102.264
60.731 10255 101.267
60.8479 10138 100.688
60.9648 10069 100.344
61.0818 10427 102.113
61.1987 10679 103.339
61.3158 11377 106.663
61.4328 11512 107.294
61.5499 11813 108.688
61.667 11947 109.302
61.7841 11776 108.517
61.9013 11503 107.252
62.0185 11052 105.128
62.1357 10208 101.035
62.253 9689 98.4327
62.3702 9387 96.8865
62.4875 9488 97.4064
62.6049 10103 100.514
62.7222 10619 103.049
62.8396 11237 106.005
62.9569 11202 105.84
63.0743 11637 107.875
63.1918 11600 107.703
63.3092 11476 107.126
63.4267 11434 106.93
63.5441 11392 106.733
63.6616 11165 105.665
63.7791 10757 103.716
63.8966 10440 102.176
64.0142 10291 101.445
64.1317 9916 99.5791
64.2492 9431 97.1133
64.3668 9339 96.6385
64.4843 9455 97.2368
64.6019 9617 98.0663
64.7195 10141 100.703
64.837 10636 103.131
64.9546 10918 104.489
65.0722 11111 105.409
65.1898 11042 105.081
65.3074 11388 106.715
65.4249 11011 104.933
65.5425 10746 103.663
65.6601 10075 100.374
65.7777 9461 97.2677
65.8952 8866 94.1594
66.0128 8653 93.0215
66.1304 9084 95.31
66.2479 9558 97.765
66.3655 10308 101.528
66.483 10551 102.718
66.6005 10809 103.966
66.718 11195 105.806
66.8355 11295 106.278
66.953 11251 106.071
67.0705 11212 105.887
67.1879 11017 104.962
67.3054 10861 104.216
67.4228 10568 102.801
67.5402 10264 101.311
67.6576 9950 99.7497
67.7749 9414 97.0258
67.8923 9282 96.3431
68.0096 9071 95.2418
68.1269 9180 95.8123
68.2442 9392 96.9123
68.3614 9845 99.222
68.4787 10282 101.4
68.5958 10956 104.671
68.713 11271 106.165
68.8302 11157 105.627
68.9473 11379 106.672
69.0643 11297 106.287
69.1814 11123 105.466
69.2984 10782 103.836
69.4154 9811 99.0505
69.5323 9185 95.8384
69.6492 9021 94.9789
69.7661 9591 97.9337
69.8829 10217 101.079
69.9997 10775 103.803
70.1165 11132 105.508
70.2332 11565 107.541
70.3499 11606 107.731
70.4665 11954 109.334
70.5831 12030 109.681
70.6996 12017 109.622
70.8161 11808 108.665
70.9326 11840 108.812
71.049 11457 107.037
71.1653 10978 104.776
71.2817 10823 104.034
71.3979 10266 101.321
71.5141 9687 98.4226
71.6303 8856 94.1063
71.7464 8466 92.0109
71.8624 0 1
71.9784 0 1
72.0944 0 1
72.2102 0 1
72.3261 0 1
72.4418 0 1
72.5575 0 1
72.6732 0 1
75.1054 0 1
75.2209 0 1
75.3365 0 1
75.4521 0 1
75.5678 0 1
75.6835 0 1
75.7993 0 1
75.9151 0 1
76.031 0 1
76.147 10545 102.689
76.263 11155 105.617
76.3791 11215 105.901
76.4952 10748 103.673
76.6113 10464 102.294
76.7276 9848 99.2371
76.8438 9476 97.3447
76.9601 9327 96.5764
77.0765 9998 99.99
77.1929 10235 101.168
77.3093 11101 105.361
77.4258 11744 108.37
77.5423 12108 110.036
77.6589 11909 109.128
77.7755 12003 109.558
77.8921 12052 109.782
78.0088 11330 106.442
78.1256 10463 102.289
78.2423 9717 98.5748
78.3591 9252 96.1873
78.4759 8514 92.2713
78.5928 8854 94.0957
78.7097 9658 98.2751
78.8266 10456 102.255
78.9436 11267 106.146
79.0606 11378 106.668
79.1776 11738 108.342
79.2946 11732 108.314
79.4117 11775 108.513
79.5288 11810 108.674
79.6459 11854 108.876
79.7631 11604 107.722
79.8802 11440 106.958
79.9974 11054 105.138
80.1147 10763 103.745
80.2319 10277 101.376
80.3491 9679 98.3819
80.4664 9226 96.0521
80.5837 9156 95.687
80.701 9553 97.7394
80.8183 10177 100.881
80.9357 10898 104.393
81.053 11316 106.377
81.1704 11734 108.324
81.2877 11695 108.143
81.4051 11903 109.101
81.5225 11826 108.747
81.6399 11399 106.766
81.7573 10929 104.542
81.8747 9698 98.4784
81.9922 9051 95.1367
82.1096 8716 93.3595
82.227 9225 96.0469
82.3444 9552 97.7343
82.4619 10553 102.728
82.5793 11257 106.099
82.6967 11158 105.631
82.8142 11496 107.219
82.9316 11630 107.842
83.049 11693 108.134
83.1664 11884 109.014
83.2838 11928 109.215
83.4012 11650 107.935
83.5186 11437 106.944
83.636 11186 105.764
83.7534 10795 103.899
83.8708 10461 102.279
83.9881 9740 98.6914
84.1055 9148 95.6452
84.2228 9443 97.1751
84.3401 9557 97.7599
84.4575 9987 99.935
84.5747 10999 104.876
84.692 11813 108.688
84.8093 11913 109.147
84.9265 12209 110.494
85.0437 12198 110.445
85.1609 12300 110.905
85.2781 11238 106.009
85.3952 10680 103.344
85.5123 9641 98.1886
85.6294 9331 96.5971
85.7465 9158 95.6974
85.8636 9732 98.6509
85.9806 10499 102.465
86.0976 11318 106.386
86.2145 11877 108.982
86.3315 12095 109.977
86.4484 12721 112.787
86.5652 12591 112.21
86.682 12685 112.628
86.7988 12898 113.569
86.9156 12746 112.898
87.0323 12540 111.982
87.149 12214 110.517
87.2657 12044 109.745
87.3823 11657 107.968
87.4988 11172 105.698
87.6154 10295 101.464
87.7318 10115 100.573
87.8483 10123 100.613
87.9647 10883 104.322
88.081 11814 108.692
88.1973 12509 111.844
88.3136 12726 112.81
88.4298 12963 113.855
88.546 12680 112.606
88.6621 12825 113.248
88.7781 12309 110.946
88.8942 0 1
89.0101 0 1
89.126 0 1
89.2419 0 1
89.3577 0 1
89.4734 0 1
89.5891 0 1
89.7047 0 1
89.8203 0 1
89.9358 0 1
92.3269 0 1
92.4424 0 1
92.558 0 1
92.6736 0 1
92.7893 0 1
92.905 0 1
93.0208 0 1
93.1366 0 1
93.2525 0 1
93.3685 0 1
93.4845 0 1
93.6005 12255 110.702
93.7167 12499 111.799
93.8328 12458 111.615
93.949 12114 110.064
94.0653 11395 106.747
94.1816 10804 103.942
94.2979 9978 99.8899
94.4143 9958 99.7898
94.5307 9712 98.5495
94.6472 10221 101.099
94.7637 10725 103.562
94.8803 11286 106.236
94.9969 11789 108.577
95.1135 12047 109.759
95.2302 12356 111.158
95.3469 12568 112.107
95.4637 12601 112.254
95.5805 12943 113.767
95.6973 13049 114.232
95.8142 13166 114.743
95.9311 12791 113.097
96.048 12536 111.964
96.1649 12321 111
96.2819 12015 109.613
96.3989 11425 106.888
96.516 10696 103.421
96.633 10096 100.479
96.7501 10274 101.361
96.8673 10591 102.913
96.9844 11374 106.649
97.1016 11885 109.018
97.2188 12361 111.18
97.336 12890 113.534
97.4532 12808 113.172
97.5704 12518 111.884
97.6877 12274 110.788
97.805 11772 108.499
97.9223 10870 104.259
98.0396 10311 101.543
98.1569 9562 97.7855
98.2743 9593 97.9439
98.3916 10101 100.504
98.509 10819 104.014
98.6264 11518 107.322
98.7438 11769 108.485
98.8612 11988 109.49
98.9786 12356 111.158
99.096 12509 111.844
99.2134 12794 113.111
99.3308 12661 112.521
99.4482 12744 112.889
99.5656 12705 112.716
99.6831 12418 111.436
99.8005 12001 109.549
99.9179 11757 108.43
100.035 11022 104.986
100.153 10403 101.995
100.27 9840 99.1968
100.388 10032 100.16
100.505 10719 103.533
100.622 11457 107.037
100.74 12242 110.644
100.857 12409 111.396
100.975 12563 112.085
101.092 12633 112.397
101.209 12450 111.58
101.327 12123 110.104
101.444 11454 107.023
101.561 10707 103.475
101.679 10191 100.95
101.796 9852 99.2572
101.913 9835 99.1716
102.03 10385 101.907
102.148 11237 106.005
102.265 11284 106.226
102.382 13117 114.529
102.499 12564 112.089
102.616 12931 113.715
102.733 13230 115.022
102.851 13232 115.03
102.968 13495 116.168
103.085 13289 115.278
103.202 13109 114.495
103.319 12845 113.336
103.436 12229 110.585
103.552 11916 109.16
103.669 11143 105.56
103.786 10670 103.296
103.903 10753 103.697
104.02 11524 107.35
104.137 12432 111.499
104.253 13090 114.412
104.37 13364 115.603
104.487 13687 116.991
104.603 13671 116.923
104.72 13525 116.297
104.836 12866 113.428
104.953 11938 109.261
105.069 11454 107.023
105.186 10771 103.783
105.302 10511 102.523
105.418 10768 103.769
105.535 11362 106.593
105.651 12201 110.458
105.767 12725 112.805
105.883 13204 114.909
105.999 13247 115.096
106.115 0 1
106.231 0 1
106.347 0 1
106.463 0 1
106.579 0 1
106.694 0 1
106.81 0 1
106.926 0 1
107.041 0 1
107.157 0 1
109.576 0 1
109.692 0 1
109.807 0 1
109.923 0 1
110.039 0 1
110.155 0 1
110.27 0 1
110.386 0 1
110.502 0 1
110.618 10393 101.946
110.735 10971 104.743
110.851 11170 105.688
110.967 11680 108.074
111.083 11651 107.94
111.199 11899 109.083
111.316 12127 110.123
111.432 11955 109.339
111.549 12016 109.618
111.665 11769 108.485
111.782 11503 107.252
111.898 11083 105.276
112.015 10408 102.02
112.132 9767 98.8281
112.248 9106 95.4254
112.365 9195 95.8906
112.482 9849 99.2421
112.599 10387 101.917
112.716 11032 105.033
112.832 11189 105.778
112.949 10924 104.518
113.066 11022 104.986
113.183 10688 103.383
113.3 10249 101.237
113.417 9483 97.3807
113.534 9091 95.3467
113.652 8578 92.6175
113.769 8151 90.2829
113.886 7933 89.0674
114.003 8437 91.8531
114.12 8741 93.4933
114.238 9192 95.8749
114.355 9541 97.678
114.472 9686 98.4175
114.589 9680 98.387
114.707 9765 98.818
114.824 9716 98.5698
114.942 9779 98.8888
115.059 9564 97.7957
115.176 9447 97.1957
115.294 9276 96.312
115.411 8886 94.2656
115.529 8549 92.4608
115.646 7768 88.1363
115.764 7197 84.8351
115.881 7161 84.6227
115.999 7604 87.2009
116.116 8075 89.861
116.234 8380 91.5423
116.351 8387 91.5806
116.469 8309 91.1537
116.586 8401 91.657
116.704 8324 91.236
116.821 7755 88.0625
116.939 7590 87.1206
117.056 7173 84.6936
117.174 6640 81.4862
117.291 6247 79.038
117.409 6254 79.0822
117.526 6569 81.0494
117.644 6804 82.4864
117.761 7148 84.5458
117.879 7369 85.8429
117.996 7671 87.5842
118.114 7809 88.3685
118.231 7844 88.5664
118.349 8024 89.5768
118.466 8014 89.5209
118.584 8212 90.6201
118.701 8202 90.5649
118.819 7879 88.7637
118.936 7956 89.1964
119.053 7644 87.43
119.171 7428 86.1858
119.288 7074 84.1071
119.405 6569 81.0494
119.523 6599 81.2342
119.64 7167 84.6581
119.757 7764 88.1136
119.875 8100 90
119.992 8370 91.4877
120.109 8369 91.4822
120.226 8386 91.5751
120.343 8505 92.2226
120.46 8079 89.8833
120.578 7873 88.7299
120.695 7554 86.9138
120.812 7206 84.8882
120.929 7146 84.534
121.046 6963 83.4446
121.163 7002 83.678
121.279 7301 85.4459
121.396 7852 88.6115
121.513 8182 90.4544
121.63 8570 92.5743
121.747 8784 93.723
121.863 8777 93.6856
121.98 9193 95.8801
122.097 9182 95.8228
122.213 9204 95.9375
122.33 9361 96.7523
122.446 9619 98.0765
122.563 9505 97.4936
122.679 9262 96.2393
122.795 8984 94.784
122.912 8985 94.7892
123.028 8295 91.0769
123.144 7957 89.202
123.26 8133 90.1831
123.377 0 1
123.493 0 1
123.609 0 1
123.725 0 1
123.84 0 1
123.956 0 1
124.072 0 1
124.188 0 1
124.303 0 1
124.419 0 1
126.852 0 1
126.968 0 1
127.083 0 1
127.199 0 1
127.315 0 1
127.431 0 1
127.547 0 1
127.663 0 1
127.779 0 1
127.895 0 1
128.011 0 1
128.127 0 1
128.243 0 1
128.359 9404 96.9742
128.476 9660 98.2853
128.592 9803 99.0101
128.708 10195 100.97
128.825 10951 104.647
128.941 11344 106.508
129.058 11234 105.991
129.174 11417 106.85
129.291 11271 106.165
129.408 11249 106.061
129.524 10676 103.325
129.641 10080 100.399
129.758 9550 97.7241
129.875 9120 95.4987
129.992 9000 94.8683
130.108 8737 93.4719
130.225 8992 94.8262
130.342 9491 97.4218
130.459 9700 98.4886
130.576 9770 98.8433
130.693 9894 99.4686
130.81 9847 99.2321
130.928 10234 101.163
131.045 10157 100.782
131.162 10215 101.069
131.279 10438 102.167
131.396 10272 101.351
131.513 10073 100.364
131.631 9732 98.6509
131.748 9480 97.3653
131.865 8772 93.659
131.983 8471 92.038
132.1 8563 92.5365
132.217 9053 95.1473
132.335 9751 98.7472
132.452 9749 98.737
132.57 9743 98.7066
132.687 9641 98.1886
132.804 10004 100.02
132.922 9508 97.509
133.039 9198 95.9062
133.157 8619 92.8386
133.274 8374 91.5096
133.392 7977 89.3141
133.509 7466 86.406
133.627 7520 86.7179
133.744 7403 86.0407
133.862 7789 88.2553
133.979 7926 89.0281
134.097 8031 89.6158
134.214 8295 91.0769
134.332 7981 89.3364
134.449 8298 91.0934
134.567 8164 90.3549
134.684 8295 91.0769
134.802 8193 90.5152
134.919 8198 90.5428
135.037 8008 89.4874
135.154 7829 88.4816
135.272 7474 86.4523
135.389 7313 85.5161
135.507 6705 81.8841
135.624 6748 82.1462
135.742 7010 83.7257
135.859 7166 84.6522
135.977 7404 86.0465
136.094 7297 85.4225
136.211 7272 85.276
136.329 7205 84.8823
136.446 7205 84.8823
136.564 6927 83.2286
136.681 6659 81.6027
136.798 6456 80.3492
136.915 6217 78.848
137.033 5959 77.1946
137.15 5719 75.6241
137.267 5602 74.8465
137.384 5933 77.026
137.502 6270 79.1833
137.619 6139 78.3518
137.736 6450 80.3119
137.853 6396 79.975
137.97 6567 81.037
138.087 6670 81.6701
138.204 6784 82.365
138.321 7021 83.7914
138.438 7234 85.0529
138.555 7113 84.3386
138.672 7330 85.6154
138.788 7145 84.5281
138.905 7041 83.9107
139.022 6865 82.8553
139.139 6672 81.6823
139.255 6878 82.9337
139.372 7212 84.9235
139.488 7687 87.6755
139.605 7889 88.82
139.721 8038 89.6549
139.838 8186 90.4765
139.954 8430 91.815
140.071 8230 90.7193
140.187 8244 90.7965
140.303 7908 88.9269
140.419 7634 87.3728
140.535 7424 86.1626
140.652 7287 85.3639
140.768 0 1
140.884 0 1
141 0 1
141.115 0 1
141.231 0 1
141.347 0 1
141.463 0 1
141.578 0 1
141.694 0 1
144.104 0 1
144.219 0 1
144.335 0 1
144.45 0 1
144.566 0 1
144.682 0 1
144.798 0 1
144.914 0 1
145.03 0 1
145.146 6901 83.0723
145.262 6925 83.2166
145.378 6854 82.7889
145.494 6553 80.9506
145.61 6387 79.9187
145.726 6074 77.9359
145.842 5837 76.4003
145.959 5768 75.9474
146.075 5862 76.5637
146.192 5902 76.8245
146.308 5837 76.4003
146.425 5963 77.2205
146.541 5931 77.013
146.658 6068 77.8974
146.774 5868 76.6029
146.891 5986 77.3692
147.008 5957 77.1816
147.125 5982 77.3434
147.241 6110 78.1665
147.358 6005 77.4919
147.475 5715 75.5976
147.592 5685 75.3989
147.709 5318 72.9246
147.826 5131 71.631
147.943 5169 71.8958
148.06 5280 72.6636
148.177 5501 74.1687
148.294 5740 75.7628
148.411 5779 76.0197
148.528 5636 75.0733
148.645 5557 74.5453
148.762 5588 74.7529
148.88 5357 73.1915
148.997 5442 73.7699
149.114 4630 68.0441
149.231 4924 70.1712
149.349 4649 68.1836
149.466 4571 67.6092
149.583 4399 66.325
149.701 4493 67.0298
149.818 4599 67.8159
149.935 4710 68.6294
150.053 4824 69.455
150.17 4769 69.0579
150.287 4895 69.9643
150.405 5044 71.0211
150.522 4985 70.6045
150.64 5114 71.5122
150.757 5222 72.2634
150.875 5194 72.0694
150.992 5279 72.6567
151.11 5195 72.0763
151.227 4921 70.1498
151.344 4886 69.8999
151.462 4631 68.0515
151.579 4825 69.4622
151.697 5026 70.8943
151.814 5403 73.5051
151.932 5534 74.3909
152.049 5407 73.5323
152.167 5472 73.973
152.284 5627 75.0133
152.402 5524 74.3236
152.519 5487 74.0743
152.636 5267 72.5741
152.754 5237 72.3671
152.871 5012 70.7955
152.989 4937 70.2638
153.106 5183 71.9931
153.223 4845 69.606
153.341 4943 70.3065
153.458 5181 71.9792
153.575 5288 72.7186
153.693 5268 72.581
153.81 5325 72.9726
153.927 5632 75.0467
154.044 5628 75.02
154.162 5734 75.7232
154.279 5869 76.6094
154.396 6024 77.6144
154.513 6266 79.1581
154.63 6228 78.9177
154.747 6269 79.177
154.864 5974 77.2917
154.981 6071 77.9166
155.098 5833 76.3741
155.215 5984 77.3563
155.332 6324 79.5236
155.449 6642 81.4985
155.566 6718 81.9634
155.683 6778 82.3286
155.8 6727 82.0183
155.917 6881 82.9518
156.033 6671 81.6762
156.15 0 1
156.267 0 1
156.383 0 1
156.5 0 1
156.617 0 1
156.733 0 1
156.85 0 1
156.966 0 1
157.082 0 1
157.199 0 1
157.315 0 1
157.431 0 1
157.547 0 1
157.664 0 1
157.78 0 1
157.896 0 1
158.012 0 1
158.128 0 1
158.244 0 1
158.359 0 1
158.475 0 1
158.591 0 1
158.706 0 1
