
6.15755 0 1
6.2731 0 1
6.3887 0 1
6.50437 0 1
6.62009 0 1
6.73587 0 1
6.8517 0 1
6.96759 0 1
7.08353 0 1
7.19952 0 1
7.31557 0 1
7.43166 0 1
7.54781 0 1
7.664 0 1
7.78024 0 1
7.89653 0 1
8.01286 0 1
8.12924 0 1
8.24567 0 1
8.36213 0 1
8.47864 0 1
8.59519 0 1
8.71178 0 1
8.82841 0 1
8.94508 0 1
9.06179 0 1
9.17853 0 1
9.29531 0 1
9.41212 0 1
9.52897 0 1
9.64584 0 1
9.76276 0 1
9.8797 0 1
9.99667 0 1
10.1137 0 1
10.2307 0 1
10.3478 0 1
10.4648 0 1
10.5819 0 1
10.6991 0 1
10.8162 0 1
10.9334 0 1
11.0506 0 1
11.1678 0 1
11.285 0 1
11.4023 0 1
11.5196 0 1
11.6369 0 1
11.7542 0 1
11.8715 0 1
11.9888 0 1
12.1062 0 1
12.2235 0 1
12.3409 0 1
12.4582 0 1
12.5756 0 1
12.693 0 1
12.8104 0 1
12.9278 0 1
13.0452 0 1
13.1626 0 1
13.28 0 1
13.3974 0 1
13.5149 0 1
13.6323 0 1
13.7497 0 1
13.8671 0 1
13.9845 0 1
14.1019 0 1
14.2193 0 1
14.3367 0 1
14.4541 0 1
14.5714 0 1
14.6888 0 1
14.8062 0 1
14.9235 0 1
15.0408 0 0
15.1581 0 0
15.2755 0 0
15.3927 0 0
15.51 0 0
15.6273 0 0
15.7445 0 0
15.8617 0 0
15.9789 0 0
16.0961 0 0
16.2132 0 0
16.3304 0 0
16.4475 0 0
16.5646 0 0
16.6816 0 0
16.7986 0 0
16.9156 0 0
17.0326 0 0
17.1496 0 0
17.2665 0 0
17.3833 0 0
17.5002 0 0
17.617 0 0
17.7338 0 0
17.8505 0 0
17.9672 0 0
18.0839 0 0
18.2005 0 0
18.3171 0 0
18.4337 0 0
18.5502 0 0
18.6666 0 0
18.7831 0 0
18.8994 0 0
19.0158 0 0
19.1321 0 0
19.2483 0 0
19.3645 0 0
19.4806 0 0
19.5967 0 0
19.7128 0 0
19.8288 0 0
19.9447 0 0
20.0606 0 1
20.1764 0 1
20.2922 0 1
20.4079 0 1
20.5236 0 1
20.6392 0 1
20.7548 0 1
20.8702 0 1
23.3078 0 1
23.4233 0 1
23.539 0 1
23.6547 0 1
23.7704 0 1
23.8862 0 1
24.0021 0 1
24.118 0 1
24.234 0 1
24.35 0 1
24.4661 1476 38.4187
24.5822 1475 38.4057
24.6984 1486 38.5487
24.8146 1415 37.6165
24.9309 1359 36.8646
25.0472 1324 36.3868
25.1636 1338 36.5787
25.28 1405 37.4833
25.3965 1475 38.4057
25.513 1491 38.6135
25.6296 1595 39.9375
25.7462 1653 40.6571
25.8628 1593 39.9124
25.9795 1702 41.2553
26.0962 1629 40.3609
26.213 1628 40.3485
26.3298 1646 40.5709
26.4466 1663 40.7799
26.5635 1577 39.7115
26.6804 1556 39.4462
26.7973 1487 38.5616
26.9143 1524 39.0384
27.0313 1480 38.4708
27.1483 1634 40.4228
27.2653 1607 40.0874
27.3824 1632 40.398
27.4996 1629 40.3609
27.6167 1611 40.1373
27.7339 1601 40.0125
27.8511 1512 38.8844
27.9683 1552 39.3954
28.0855 1423 37.7227
28.2028 1428 37.7889
28.3201 1428 37.7889
28.4374 1324 36.3868
28.5547 1348 36.7151
28.6721 1297 36.0139
28.7894 1373 37.054
28.9068 1411 37.5633
29.0242 1512 38.8844
29.1416 1535 39.1791
29.259 1636 40.4475
29.3764 1587 39.8372
29.4939 1580 39.7492
29.6113 1609 40.1123
29.7288 1616 40.1995
29.8463 1591 39.8873
29.9638 1509 38.8458
30.0812 1545 39.3065
30.1987 1484 38.5227
30.3162 1455 38.1445
30.4337 1467 38.3014
30.5512 1567 39.5854
30.6687 1520 38.9872
30.7862 1642 40.5216
30.9037 1578 39.724
31.0212 1649 40.6079
31.1387 1658 40.7185
31.2562 1661 40.7554
31.3737 1668 40.8412
31.4912 1512 38.8844
31.6087 1423 37.7227
31.7262 1493 38.6394
31.8436 1409 37.5366
31.9611 1384 37.2022
32.0785 1372 37.0405
32.1959 1404 37.47
32.3134 1387 37.2424
32.4308 1420 37.6829
32.5482 1524 39.0384
32.6655 1492 38.6264
32.7829 1605 40.0625
32.9002 1535 39.1791
33.0176 1623 40.2865
33.1349 1598 39.975
33.2522 1632 40.398
33.3694 1645 40.5586
33.4867 1676 40.939
33.6039 1630 40.3733
33.7211 1600 40
33.8383 1558 39.4715
33.9554 1592 39.8999
34.0725 1561 39.5095
34.1896 1549 39.3573
34.3067 1590 39.8748
34.4237 1663 40.7799
34.5407 1618 40.2244
34.6577 1670 40.8656
34.7746 1613 40.1622
34.8915 1686 41.0609
35.0084 1623 40.2865
35.1252 1533 39.1535
35.242 1568 39.598
35.3587 1462 38.2361
35.4755 1435 37.8814
35.5921 1385 37.2156
35.7088 1358 36.8511
35.8254 1299 36.0416
35.9419 1278 35.7491
36.0584 1361 36.8917
36.1749 1388 37.2559
36.2913 1501 38.7427
36.4077 1547 39.3319
36.524 1541 39.2556
36.6403 1614 40.1746
36.7565 1644 40.5463
36.8727 1586 39.8246
36.9889 1626 40.3237
37.1049 1614 40.1746
37.221 0 1
37.3369 0 1
37.4529 0 1
37.5687 0 1
37.6845 0 1
37.8003 0 1
37.916 0 1
38.0316 0 1
38.1472 0 1
40.5851 0 1
40.7008 0 1
40.8164 0 1
40.9322 0 1
41.048 0 1
41.1639 0 1
41.2798 0 1
41.3958 0 1
41.5118 0 1
41.6279 0 1
41.744 1366 36.9594
41.8602 1449 38.0657
41.9765 1446 38.0263
42.0928 1441 37.9605
42.2091 1481 38.4838
42.3255 1476 38.4187
42.4419 1470 38.3406
42.5584 1391 37.2961
42.675 1316 36.2767
42.7915 1329 36.4555
42.9081 1438 37.921
43.0248 1379 37.1349
43.1415 1487 38.5616
43.2582 1477 38.4318
43.375 1479 38.4578
43.4918 1466 38.2884
43.6087 1504 38.7814
43.7256 1458 38.1838
43.8425 1442 37.9737
43.9595 1426 37.7624
44.0765 1385 37.2156
44.1935 1370 37.0135
44.3106 1197 34.5977
44.4277 1195 34.5688
44.5448 1067 32.665
44.6619 1087 32.9697
44.7791 1109 33.3017
44.8963 1186 34.4384
45.0136 1169 34.1906
45.1308 1248 35.327
45.2481 1295 35.9861
45.3654 1322 36.3593
45.4827 1329 36.4555
45.6001 1254 35.4119
45.7174 1264 35.5528
45.8348 1272 35.6651
45.9522 1257 35.4542
46.0697 1225 35
46.1871 1167 34.1614
46.3046 1123 33.5112
46.422 1079 32.8481
46.5395 1107 33.2716
46.657 1125 33.541
46.7745 1150 33.9116
46.892 1162 34.0881
47.0096 1178 34.322
47.1271 1192 34.5254
47.2446 1243 35.2562
47.3622 1194 34.5543
47.4797 1152 33.9411
47.5973 1083 32.909
47.7149 1043 32.2955
47.8324 957 30.9354
47.95 961 31
48.0675 849 29.1376
48.1851 857 29.2746
48.3027 819 28.6182
48.4202 829 28.7924
48.5378 895 29.9166
48.6554 919 30.315
48.7729 983 31.3528
48.8904 1035 32.1714
49.008 1043 32.2955
49.1255 1043 32.2955
49.243 1130 33.6155
49.3605 1113 33.3617
49.478 1083 32.909
49.5955 1025 32.0156
49.713 1032 32.1248
49.8304 972 31.1769
49.9479 1042 32.28
50.0653 1107 33.2716
50.1827 1180 34.3511
50.3001 1210 34.7851
50.4175 1192 34.5254
50.5348 1278 35.7491
50.6521 1359 36.8646
50.7694 1261 35.5106
50.8867 1337 36.565
51.004 1354 36.7967
51.1212 1371 37.027
51.2384 1353 36.7831
51.3556 1207 34.7419
51.4727 1220 34.9285
51.5899 1213 34.8281
51.707 1088 32.9848
51.824 1048 32.3728
51.9411 1207 34.7419
52.0581 1277 35.7351
52.175 1383 37.1887
52.2919 1477 38.4318
52.4088 1539 39.2301
52.5257 1593 39.9124
52.6425 1535 39.1791
52.7593 1577 39.7115
52.876 1588 39.8497
52.9927 1607 40.0874
53.1094 1653 40.6571
53.226 1503 38.7685
53.3426 1561 39.5095
53.4591 1503 38.7685
53.5756 1581 39.7618
53.692 1633 40.4104
53.8084 1654 40.6694
53.9248 1718 41.4488
54.0411 1717 41.4367
54.1573 1721 41.4849
54.2735 0 1
54.3896 0 1
54.5057 0 1
54.6217 0 1
54.7377 0 1
54.8537 0 1
54.9695 0 1
55.0853 0 1
55.2011 0 1
55.3168 0 1
55.4324 0 1
57.824 0 1
57.9396 0 1
58.0553 0 1
58.1711 0 1
58.2869 0 1
58.4028 0 1
58.5187 0 1
58.6347 0 1
58.7508 0 1
58.8669 0 1
58.983 2174 46.6262
59.0992 2225 47.1699
59.2155 2176 46.6476
59.3318 2281 47.7598
59.4482 2251 47.4447
59.5646 2224 47.1593
59.681 2242 47.3498
59.7975 2108 45.913
59.9141 1997 44.6878
60.0306 2013 44.8665
60.1473 1804 42.4735
60.2639 1722 41.497
60.3807 1530 39.1152
60.4974 1612 40.1497
60.6142 1668 40.8412
60.731 1755 41.8927
60.8479 1964 44.317
60.9648 1990 44.6094
61.0818 2114 45.9783
61.1987 2170 46.5833
61.3158 2226 47.1805
61.4328 2154 46.4112
61.5499 2145 46.3141
61.667 2212 47.0319
61.7841 2048 45.2548
61.9013 2078 45.5851
62.0185 2100 45.8258
62.1357 2026 45.0111
62.253 2134 46.1952
62.3702 2181 46.7012
62.4875 2228 47.2017
62.6049 2191 46.8081
62.7222 2246 47.392
62.8396 2236 47.2864
62.9569 2295 47.9062
63.0743 2333 48.3011
63.1918 2295 47.9062
63.3092 2193 46.8295
63.4267 2189 46.7868
63.5441 2047 45.2438
63.6616 1802 42.45
63.7791 1734 41.6413
63.8966 1469 38.3275
64.0142 1565 39.5601
64.1317 1682 41.0122
64.2492 1860 43.1277
64.3668 1972 44.4072
64.4843 2034 45.0999
64.6019 2188 46.7761
64.7195 2210 47.0106
64.837 2220 47.1169
64.9546 2174 46.6262
65.0722 2219 47.1063
65.1898 2152 46.3897
65.3074 2222 47.1381
65.4249 2080 45.607
65.5425 2045 45.2217
65.6601 2165 46.5296
65.7777 2098 45.8039
65.8952 2267 47.613
66.0128 2266 47.6025
66.1304 2338 48.3529
66.2479 2370 48.6826
66.3655 2328 48.2494
66.483 2385 48.8365
66.6005 2420 49.1935
66.718 2313 48.0937
66.8355 2401 49
66.953 2260 47.5395
67.0705 2231 47.2335
67.1879 2049 45.2659
67.3054 1880 43.359
67.4228 1715 41.4126
67.5402 1547 39.3319
67.6576 1600 40
67.7749 1718 41.4488
67.8923 1883 43.3935
68.0096 1970 44.3847
68.1269 2177 46.6583
68.2442 2246 47.392
68.3614 2428 49.2747
68.4787 2439 49.3862
68.5958 2478 49.7795
68.713 2432 49.3153
68.8302 2383 48.816
68.9473 2311 48.0729
69.0643 2425 49.2443
69.1814 2296 47.9166
69.2984 2344 48.4149
69.4154 2372 48.7032
69.5323 2433 49.3254
69.6492 2631 51.2933
69.7661 2597 50.9608
69.8829 2561 50.6063
69.9997 2638 51.3615
70.1165 2675 51.7204
70.2332 2709 52.0481
70.3499 2757 52.5071
70.4665 2640 51.3809
70.5831 2583 50.8232
70.6996 2340 48.3735
70.8161 2415 49.1426
70.9326 2128 46.1303
71.049 1944 44.0908
71.1653 1824 42.7083
71.2817 1599 39.9875
71.3979 1659 40.7308
71.5141 1832 42.8019
71.6303 1993 44.643
71.7464 2006 44.7884
71.8624 0 1
71.9784 0 1
72.0944 0 1
72.2102 0 1
72.3261 0 1
72.4418 0 1
72.5575 0 1
72.6732 0 1
75.1054 0 1
75.2209 0 1
75.3365 0 1
75.4521 0 1
75.5678 0 1
75.6835 0 1
75.7993 0 1
75.9151 0 1
76.031 0 1
76.147 2360 48.5798
76.263 2392 48.9081
76.3791 2229 47.2123
76.4952 1939 44.0341
76.6113 1777 42.1545
76.7276 1856 43.0813
76.8438 2085 45.6618
76.9601 2354 48.518
77.0765 2778 52.7067
77.1929 2802 52.9339
77.3093 3056 55.2811
77.4258 2991 54.69
77.5423 3064 55.3534
77.6589 3109 55.7584
77.7755 2982 54.6077
77.8921 3025 55
78.0088 2995 54.7266
78.1256 2817 53.0754
78.2423 2769 52.6213
78.3591 2897 53.8238
78.4759 2885 53.7122
78.5928 2964 54.4426
78.7097 2991 54.69
78.8266 3279 57.2626
78.9436 3005 54.8179
79.0606 3148 56.107
79.1776 3226 56.7979
79.2946 3285 57.3149
79.4117 3175 56.3471
79.5288 3120 55.857
79.6459 3043 55.1634
79.7631 2997 54.7449
79.8802 2796 52.8772
79.9974 2559 50.5866
80.1147 2303 47.9896
80.2319 2058 45.3652
80.3491 1967 44.3509
80.4664 2294 47.8957
80.5837 2674 51.7107
80.701 2890 53.7587
80.8183 3113 55.7943
80.9357 3255 57.0526
81.053 3320 57.6194
81.1704 3198 56.5509
81.2877 3225 56.7891
81.4051 3158 56.1961
81.5225 3188 56.4624
81.6399 3077 55.4707
81.7573 3106 55.7315
81.8747 2948 54.2955
81.9922 3080 55.4977
82.1096 3033 55.0727
82.227 3171 56.3116
82.3444 3163 56.2406
82.4619 3262 57.1139
82.5793 3351 57.8878
82.6967 3476 58.9576
82.8142 3354 57.9137
82.9316 3334 57.7408
83.049 3380 58.1378
83.1664 3264 57.1314
83.2838 3179 56.3826
83.4012 3065 55.3624
83.5186 2894 53.7959
83.636 2718 52.1344
83.7534 2356 48.5386
83.8708 2019 44.9333
83.9881 2026 45.0111
84.1055 2199 46.8935
84.2228 2476 49.7594
84.3401 2810 53.0094
84.4575 3269 57.1752
84.5747 3370 58.0517
84.692 3392 58.2409
84.8093 3521 59.338
84.9265 3494 59.1101
85.0437 3478 58.9746
85.1609 3478 58.9746
85.2781 3362 57.9828
85.3952 3300 57.4456
85.5123 3265 57.1402
85.6294 3344 57.8273
85.7465 3527 59.3886
85.8636 3487 59.0508
85.9806 3674 60.6135
86.0976 3741 61.1637
86.2145 3748 61.2209
86.3315 3798 61.6279
86.4484 3973 63.0317
86.5652 3857 62.1048
86.682 3872 62.2254
86.7988 3749 61.2291
86.9156 3714 60.9426
87.0323 3555 59.6238
87.149 3483 59.0169
87.2657 3143 56.0625
87.3823 2684 51.8073
87.4988 2557 50.5668
87.6154 2645 51.4296
87.7318 2894 53.7959
87.8483 3471 58.9152
87.9647 3820 61.8061
88.081 4173 64.5988
88.1973 4294 65.5286
88.3136 4246 65.1613
88.4298 4298 65.5591
88.546 4348 65.9394
88.6621 4225 65
88.7781 4209 64.8768
88.8942 0 1
89.0101 0 1
89.126 0 1
89.2419 0 1
89.3577 0 1
89.4734 0 1
89.5891 0 1
89.7047 0 1
89.8203 0 1
89.9358 0 1
92.3269 0 1
92.4424 0 1
92.558 0 1
92.6736 0 1
92.7893 0 1
92.905 0 1
93.0208 0 1
93.1366 0 1
93.2525 0 1
93.3685 0 1
93.4845 0 1
93.6005 4497 67.0597
93.7167 4471 66.8655
93.8328 4516 67.2012
93.949 4517 67.2086
94.0653 4594 67.7791
94.1816 4569 67.5944
94.2979 4396 66.3023
94.4143 4347 65.9318
94.5307 4377 66.1589
94.6472 4348 65.9394
94.7637 4265 65.307
94.8803 4374 66.1362
94.9969 4424 66.5132
95.1135 4670 68.3374
95.2302 4731 68.7823
95.3469 4768 69.0507
95.4637 4774 69.0941
95.5805 4877 69.8355
95.6973 5093 71.3653
95.8142 4854 69.6707
95.9311 4928 70.1997
96.048 4742 68.8622
96.1649 4530 67.3053
96.2819 4267 65.3223
96.3989 3946 62.8172
96.516 3572 59.7662
96.633 3045 55.1815
96.7501 3019 54.9454
96.8673 3321 57.6281
96.9844 3710 60.9098
97.1016 4281 65.4294
97.2188 4575 67.6387
97.336 4968 70.484
97.4532 5046 71.0352
97.5704 5218 72.2357
97.6877 5130 71.624
97.805 5097 71.3933
97.9223 5054 71.0915
98.0396 5029 70.9154
98.1569 4937 70.2638
98.2743 4830 69.4982
98.3916 4827 69.4766
98.509 4705 68.593
98.6264 4815 69.3902
98.7438 4932 70.2282
98.8612 4959 70.4202
98.9786 5232 72.3326
99.096 5277 72.643
99.2134 5308 72.856
99.3308 5355 73.1779
99.4482 5282 72.6774
99.5656 5160 71.8331
99.6831 5141 71.7008
99.8005 5005 70.746
99.9179 4851 69.6491
100.035 4326 65.7723
100.153 3704 60.8605
100.27 3458 58.8048
100.388 3446 58.7026
100.505 4027 63.4586
100.622 4482 66.9477
100.74 5090 71.3442
100.857 5339 73.0685
100.975 5490 74.0945
101.092 5559 74.5587
101.209 5431 73.6953
101.327 5503 74.1822
101.444 5441 73.7631
101.561 5487 74.0743
101.679 5349 73.1369
101.796 5304 72.8286
101.913 5169 71.8958
102.03 5164 71.861
102.148 5204 72.1388
102.265 5498 74.1485
102.382 5209 72.1734
102.499 5567 74.6123
102.616 5688 75.4188
102.733 5731 75.7034
102.851 5861 76.5572
102.968 5950 77.1362
103.085 5725 75.6637
103.202 5787 76.0723
103.319 5488 74.081
103.436 5254 72.4845
103.552 4640 68.1175
103.669 4109 64.1015
103.786 3702 60.8441
103.903 3760 61.3188
104.02 4235 65.0769
104.137 4896 69.9714
104.253 5644 75.1266
104.37 5776 76
104.487 5864 76.5768
104.603 5958 77.1881
104.72 5983 77.3499
104.836 5998 77.4468
104.953 5995 77.4274
105.069 6026 77.6273
105.186 5822 76.302
105.302 5787 76.0723
105.418 5638 75.0866
105.535 5793 76.1118
105.651 5624 74.9933
105.767 5683 75.3857
105.883 5972 77.2787
105.999 6249 79.0506
106.115 0 1
106.231 0 1
106.347 0 1
106.463 0 1
106.579 0 1
106.694 0 1
106.81 0 1
106.926 0 1
107.041 0 1
107.157 0 1
109.576 0 1
109.692 0 1
109.807 0 1
109.923 0 1
110.039 0 1
110.155 0 1
110.27 0 1
110.386 0 1
110.502 0 1
110.618 5153 71.7844
110.735 5340 73.0753
110.851 5495 74.1283
110.967 5631 75.04
111.083 5760 75.8947
111.199 5888 76.7333
111.316 5893 76.7659
111.432 5803 76.1774
111.549 5699 75.4917
111.665 5708 75.5513
111.782 5592 74.7797
111.898 5180 71.9722
112.015 4643 68.1396
112.132 4090 63.9531
112.248 3650 60.4152
112.365 3603 60.025
112.482 3979 63.0793
112.599 4314 65.681
112.716 4976 70.5408
112.832 5271 72.6017
112.949 5326 72.9794
113.066 5295 72.7668
113.183 5345 73.1095
113.3 5281 72.6705
113.417 5256 72.4983
113.534 5222 72.2634
113.652 5093 71.3653
113.769 5125 71.5891
113.886 4966 70.4699
114.003 4940 70.2851
114.12 4744 68.8767
114.238 4790 69.2098
114.355 4844 69.5989
114.472 4838 69.5557
114.589 4835 69.5342
114.707 4913 70.0928
114.824 5078 71.2601
114.942 5121 71.5612
115.059 5101 71.4213
115.176 5139 71.6868
115.294 5070 71.2039
115.411 4605 67.8602
115.529 4371 66.1135
115.646 4052 63.6553
115.764 3466 58.8727
115.881 3185 56.4358
115.999 3366 58.0172
116.116 3825 61.8466
116.234 4395 66.2948
116.351 4705 68.593
116.469 4931 70.2211
116.586 5069 71.1969
116.704 5122 71.5681
116.821 4938 70.2709
116.939 4952 70.3704
117.056 4889 69.9214
117.174 4928 70.1997
117.291 4843 69.5917
117.409 4913 70.0928
117.526 4676 68.3813
117.644 4781 69.1448
117.761 4563 67.55
117.879 4589 67.7422
117.996 4615 67.9338
118.114 4864 69.7424
118.231 4950 70.3562
118.349 5078 71.2601
118.466 5191 72.0486
118.584 4983 70.5904
118.701 5133 71.645
118.819 5006 70.7531
118.936 4729 68.7677
119.053 4651 68.1982
119.171 4371 66.1135
119.288 3928 62.6738
119.405 3452 58.7537
119.523 3137 56.0089
119.64 3428 58.5491
119.757 3705 60.8687
119.875 4167 64.5523
119.992 4491 67.0149
120.109 4621 67.9779
120.226 4923 70.1641
120.343 4809 69.347
120.46 4684 68.4398
120.578 4826 69.4694
120.695 4780 69.1375
120.812 4838 69.5557
120.929 4713 68.6513
121.046 4701 68.5638
121.163 4672 68.352
121.279 4630 68.0441
121.396 4587 67.7274
121.513 4560 67.5278
121.63 4621 67.9779
121.747 4557 67.5056
121.863 4671 68.3447
121.98 4657 68.2422
122.097 4718 68.6877
122.213 4699 68.5493
122.33 4846 69.6132
122.446 4763 69.0145
122.563 4616 67.9412
122.679 4556 67.4981
122.795 4292 65.5134
122.912 4181 64.6607
123.028 3673 60.6053
123.144 3277 57.2451
123.26 3018 54.9363
123.377 0 1
123.493 0 1
123.609 0 1
123.725 0 1
123.84 0 1
123.956 0 1
124.072 0 1
124.188 0 1
124.303 0 1
124.419 0 1
126.852 0 1
126.968 0 1
127.083 0 1
127.199 0 1
127.315 0 1
127.431 0 1
127.547 0 1
127.663 0 1
127.779 0 1
127.895 0 1
128.011 0 1
128.127 0 1
128.243 0 1
128.359 3653 60.4401
128.476 3320 57.6194
128.592 3370 58.0517
128.708 3924 62.6418
128.825 4357 66.0076
128.941 4850 69.6419
129.058 4893 69.95
129.174 5101 71.4213
129.291 5119 71.5472
129.408 5129 71.617
129.524 4950 70.3562
129.641 5000 70.7107
129.758 4972 70.5124
129.875 4852 69.6563
129.992 4960 70.4273
130.108 4932 70.2282
130.225 4790 69.2098
130.342 4748 68.9057
130.459 4721 68.7095
130.576 4917 70.1213
130.693 4643 68.1396
130.81 4727 68.7532
130.928 4836 69.5414
131.045 5013 70.8025
131.162 4831 69.5054
131.279 5079 71.2671
131.396 4858 69.6994
131.513 4707 68.6076
131.631 4625 68.0074
131.748 4272 65.3605
131.865 3792 61.5792
131.983 3355 57.9224
132.1 3407 58.3695
132.217 3651 60.4235
132.335 4103 64.0547
132.452 4518 67.2161
132.57 4773 69.0869
132.687 4582 67.6905
132.804 4868 69.7711
132.922 4740 68.8477
133.039 4677 68.3886
133.157 4662 68.2788
133.274 4833 69.5198
133.392 4587 67.7274
133.509 4662 68.2788
133.627 4695 68.5201
133.744 4630 68.0441
133.862 4590 67.7495
133.979 4551 67.4611
134.097 4561 67.5352
134.214 4549 67.4463
134.332 4556 67.4981
134.449 4601 67.8307
134.567 4623 67.9926
134.684 4777 69.1158
134.802 4639 68.1102
134.919 4751 68.9275
135.037 4596 67.7938
135.154 4571 67.6092
135.272 4302 65.5896
135.389 3915 62.57
135.507 3494 59.1101
135.624 3202 56.5862
135.742 3326 57.6715
135.859 3700 60.8276
135.977 4207 64.8614
136.094 4523 67.2533
136.211 4563 67.55
136.329 4702 68.5711
136.446 4780 69.1375
136.564 4743 68.8694
136.681 4622 67.9853
136.798 4574 67.6314
136.915 4544 67.4092
137.033 4528 67.2904
137.15 4501 67.0895
137.267 4508 67.1416
137.384 4384 66.2118
137.502 4342 65.8939
137.619 4461 66.7907
137.736 4395 66.2948
137.853 4349 65.9469
137.97 4221 64.9692
138.087 4558 67.513
138.204 4578 67.6609
138.321 4458 66.7683
138.438 4635 68.0808
138.555 4615 67.9338
138.672 4446 66.6783
138.788 4401 66.34
138.905 4261 65.2763
139.022 3907 62.506
139.139 3629 60.2412
139.255 3277 57.2451
139.372 3217 56.7186
139.488 3490 59.0762
139.605 3984 63.1189
139.721 4380 66.1816
139.838 4556 67.4981
139.954 4515 67.1937
140.071 4384 66.2118
140.187 4544 67.4092
140.303 4591 67.7569
140.419 4399 66.325
140.535 4489 67
140.652 4388 66.242
140.768 0 1
140.884 0 1
141 0 1
141.115 0 1
141.231 0 1
141.347 0 1
141.463 0 1
141.578 0 1
141.694 0 1
144.104 0 1
144.219 0 1
144.335 0 1
144.45 0 1
144.566 0 1
144.682 0 1
144.798 0 1
144.914 0 1
145.03 0 1
145.146 3875 62.2495
145.262 3945 62.8092
145.378 3892 62.3859
145.494 3818 61.79
145.61 3830 61.887
145.726 3739 61.1474
145.842 3689 60.7371
145.959 3811 61.7333
146.075 3743 61.1801
146.192 3592 59.9333
146.308 3673 60.6053
146.425 3722 61.0082
146.541 3644 60.3656
146.658 3668 60.564
146.774 3591 59.925
146.891 3727 61.0492
147.008 3699 60.8194
147.125 3670 60.5805
147.241 3807 61.7009
147.358 3594 59.95
147.475 3452 58.7537
147.592 3299 57.4369
147.709 3082 55.5158
147.826 2858 53.4603
147.943 2775 52.6783
148.06 2851 53.3948
148.177 3189 56.4712
148.294 3506 59.2115
148.411 3529 59.4054
148.528 3682 60.6795
148.645 3581 59.8415
148.762 3603 60.025
148.88 3511 59.2537
148.997 3502 59.1777
149.114 3636 60.2993
149.231 3458 58.8048
149.349 3429 58.5577
149.466 3414 58.4294
149.583 3362 57.9828
149.701 3364 58
149.818 3384 58.1722
149.935 3339 57.7841
150.053 3451 58.7452
150.17 3398 58.2924
150.287 3416 58.4466
150.405 3368 58.0345
150.522 3380 58.1378
150.64 3404 58.3438
150.757 3503 59.1861
150.875 3477 58.9661
150.992 3315 57.576
151.11 3207 56.6304
151.227 3110 55.7674
151.344 2936 54.1849
151.462 2709 52.0481
151.579 2641 51.3907
151.697 2811 53.0189
151.814 3125 55.9017
151.932 3413 58.4209
152.049 3490 59.0762
152.167 3357 57.9396
152.284 3573 59.7746
152.402 3485 59.0339
152.519 3529 59.4054
152.636 3476 58.9576
152.754 3416 58.4466
152.871 3378 58.1206
152.989 3251 57.0175
153.106 3362 57.9828
153.223 3404 58.3438
153.341 3301 57.4543
153.458 3362 57.9828
153.575 3333 57.7321
153.693 3490 59.0762
153.81 3440 58.6515
153.927 3351 57.8878
154.044 3333 57.7321
154.162 3452 58.7537
154.279 3439 58.643
154.396 3500 59.1608
154.513 3442 58.6686
154.63 3412 58.4123
154.747 3448 58.7197
154.864 3315 57.576
154.981 3257 57.0701
155.098 2974 54.5344
155.215 2882 53.6843
155.332 2943 54.2494
155.449 3316 57.5847
155.566 3470 58.9067
155.683 3501 59.1692
155.8 3718 60.9754
155.917 3662 60.5145
156.033 3526 59.3801
156.15 0 1
156.267 0 1
156.383 0 1
156.5 0 1
156.617 0 1
156.733 0 1
156.85 0 1
156.966 0 1
157.082 0 1
157.199 0 1
157.315 0 1
157.431 0 1
157.547 0 1
157.664 0 1
157.78 0 1
157.896 0 1
158.012 0 1
158.128 0 1
158.244 0 1
158.359 0 1
158.475 0 1
158.591 0 1
158.706 0 1
