
6.15755 0 1
6.2731 0 1
6.3887 0 1
6.50437 0 1
6.62009 0 1
6.73587 0 1
6.8517 0 1
6.96759 0 1
7.08353 0 1
7.19952 0 1
7.31557 0 1
7.43166 0 1
7.54781 0 1
7.664 0 1
7.78024 0 1
7.89653 0 1
8.01286 0 1
8.12924 0 1
8.24567 0 1
8.36213 0 1
8.47864 0 1
8.59519 0 1
8.71178 0 1
8.82841 0 1
8.94508 0 1
9.06179 0 1
9.17853 0 1
9.29531 0 1
9.41212 0 1
9.52897 0 1
9.64584 0 1
9.76276 0 1
9.8797 0 1
9.99667 0 1
10.1137 0 1
10.2307 0 1
10.3478 0 1
10.4648 0 1
10.5819 0 1
10.6991 0 1
10.8162 0 1
10.9334 0 1
11.0506 0 1
11.1678 0 1
11.285 0 1
11.4023 0 1
11.5196 0 1
11.6369 0 1
11.7542 0 1
11.8715 0 1
11.9888 0 1
12.1062 0 1
12.2235 0 1
12.3409 0 1
12.4582 0 1
12.5756 0 1
12.693 0 1
12.8104 0 1
12.9278 0 1
13.0452 0 1
13.1626 0 1
13.28 0 1
13.3974 0 1
13.5149 0 1
13.6323 0 1
13.7497 0 1
13.8671 0 1
13.9845 0 1
14.1019 0 1
14.2193 0 1
14.3367 0 1
14.4541 0 1
14.5714 0 1
14.6888 0 1
14.8062 0 1
14.9235 0 1
15.0408 853 29.2062
15.1581 885 29.7489
15.2755 867 29.4449
15.3927 872 29.5296
15.51 958 30.9516
15.6273 912 30.1993
15.7445 920 30.3315
15.8617 912 30.1993
15.9789 880 29.6648
16.0961 903 30.05
16.2132 896 29.9333
16.3304 888 29.7993
16.4475 886 29.7658
16.5646 979 31.289
16.6816 963 31.0322
16.7986 1043 32.2955
16.9156 1020 31.9374
17.0326 1076 32.8024
17.1496 1090 33.0151
17.2665 1050 32.4037
17.3833 1017 31.8904
17.5002 1019 31.9218
17.617 1014 31.8434
17.7338 955 30.9031
17.8505 928 30.4631
17.9672 901 30.0167
18.0839 950 30.8221
18.2005 942 30.692
18.3171 897 29.95
18.4337 1006 31.7175
18.5502 1011 31.7962
18.6666 1062 32.5883
18.7831 1050 32.4037
18.8994 1094 33.0757
19.0158 1044 32.311
19.1321 981 31.3209
19.2483 961 31
19.3645 916 30.2655
19.4806 829 28.7924
19.5967 773 27.8029
19.7128 715 26.7395
19.8288 628 25.0599
19.9447 615 24.7992
20.0606 0 1
20.1764 0 1
20.2922 0 1
20.4079 0 1
20.5236 0 1
20.6392 0 1
20.7548 0 1
20.8702 0 1
23.3078 0 1
23.4233 0 1
23.539 0 1
23.6547 0 1
23.7704 0 1
23.8862 0 1
24.0021 0 1
24.118 0 1
24.234 0 1
24.35 0 1
24.4661 414 20.347
24.5822 471 21.7025
24.6984 488 22.0907
24.8146 556 23.5797
24.9309 676 26
25.0472 729 27
25.1636 807 28.4077
25.28 870 29.4958
25.3965 891 29.8496
25.513 943 30.7083
25.6296 987 31.4166
25.7462 1051 32.4191
25.8628 1077 32.8177
25.9795 1117 33.4215
26.0962 1110 33.3167
26.213 1070 32.7109
26.3298 995 31.5436
26.4466 976 31.241
26.5635 898 29.9666
26.6804 897 29.95
26.7973 966 31.0805
26.9143 973 31.1929
27.0313 958 30.9516
27.1483 1025 32.0156
27.2653 1029 32.078
27.3824 1078 32.8329
27.4996 1067 32.665
27.6167 1048 32.3728
27.7339 969 31.1288
27.8511 1001 31.6386
27.9683 936 30.5941
28.0855 964 31.0483
28.2028 926 30.4302
28.3201 850 29.1548
28.4374 843 29.0345
28.5547 922 30.3645
28.6721 877 29.6142
28.7894 948 30.7896
28.9068 971 31.1609
29.0242 991 31.4802
29.1416 1030 32.0936
29.259 1072 32.7414
29.3764 1075 32.7872
29.4939 1042 32.28
29.6113 1015 31.8591
29.7288 987 31.4166
29.8463 920 30.3315
29.9638 880 29.6648
30.0812 893 29.8831
30.1987 896 29.9333
30.3162 887 29.7825
30.4337 958 30.9516
30.5512 985 31.3847
30.6687 967 31.0966
30.7862 1020 31.9374
30.9037 966 31.0805
31.0212 1023 31.9844
31.1387 1053 32.45
31.2562 931 30.5123
31.3737 983 31.3528
31.4912 916 30.2655
31.6087 879 29.6479
31.7262 908 30.133
31.8436 874 29.5635
31.9611 858 29.2916
32.0785 837 28.931
32.1959 859 29.3087
32.3134 933 30.545
32.4308 957 30.9354
32.5482 1016 31.8748
32.6655 1045 32.3265
32.7829 1030 32.0936
32.9002 1037 32.2025
33.0176 1019 31.9218
33.1349 1027 32.0468
33.2522 1024 32
33.3694 952 30.8545
33.4867 916 30.2655
33.6039 908 30.133
33.7211 801 28.3019
33.8383 836 28.9137
33.9554 837 28.931
34.0725 843 29.0345
34.1896 891 29.8496
34.3067 958 30.9516
34.4237 960 30.9839
34.5407 959 30.9677
34.6577 989 31.4484
34.7746 1021 31.9531
34.8915 949 30.8058
35.0084 926 30.4302
35.1252 938 30.6268
35.242 928 30.4631
35.3587 897 29.95
35.4755 860 29.3258
35.5921 806 28.3901
35.7088 786 28.0357
35.8254 802 28.3196
35.9419 845 29.0689
36.0584 788 28.0713
36.1749 836 28.9137
36.2913 846 29.0861
36.4077 888 29.7993
36.524 853 29.2062
36.6403 813 28.5132
36.7565 794 28.178
36.8727 867 29.4449
36.9889 759 27.55
37.1049 641 25.318
37.221 0 1
37.3369 0 1
37.4529 0 1
37.5687 0 1
37.6845 0 1
37.8003 0 1
37.916 0 1
38.0316 0 1
38.1472 0 1
40.5851 0 1
40.7008 0 1
40.8164 0 1
40.9322 0 1
41.048 0 1
41.1639 0 1
41.2798 0 1
41.3958 0 1
41.5118 0 1
41.6279 0 1
41.744 461 21.4709
41.8602 510 22.5832
41.9765 558 23.622
42.0928 580 24.0832
42.2091 601 24.5153
42.3255 572 23.9165
42.4419 556 23.5797
42.5584 566 23.7908
42.675 610 24.6982
42.7915 666 25.807
42.9081 683 26.1343
43.0248 736 27.1293
43.1415 796 28.2135
43.2582 789 28.0891
43.375 717 26.7769
43.4918 785 28.0179
43.6087 798 28.2489
43.7256 771 27.7669
43.8425 819 28.6182
43.9595 791 28.1247
44.0765 783 27.9821
44.1935 709 26.6271
44.3106 706 26.5707
44.4277 662 25.7294
44.5448 611 24.7184
44.6619 659 25.671
44.7791 695 26.3629
44.8963 739 27.1846
45.0136 772 27.7849
45.1308 823 28.688
45.2481 793 28.1603
45.3654 776 27.8568
45.4827 802 28.3196
45.6001 864 29.3939
45.7174 800 28.2843
45.8348 747 27.3313
45.9522 691 26.2869
46.0697 670 25.8844
46.1871 723 26.8887
46.3046 675 25.9808
46.422 699 26.4386
46.5395 724 26.9072
46.657 720 26.8328
46.7745 762 27.6043
46.892 751 27.4044
47.0096 788 28.0713
47.1271 910 30.1662
47.2446 882 29.6985
47.3622 800 28.2843
47.4797 798 28.2489
47.5973 774 27.8209
47.7149 776 27.8568
47.8324 735 27.1109
47.95 702 26.4953
48.0675 659 25.671
48.1851 679 26.0576
48.3027 660 25.6905
48.4202 709 26.6271
48.5378 742 27.2397
48.6554 833 28.8617
48.7729 813 28.5132
48.8904 845 29.0689
49.008 837 28.931
49.1255 822 28.6705
49.243 774 27.8209
49.3605 709 26.6271
49.478 721 26.8514
49.5955 613 24.7588
49.713 645 25.3969
49.8304 653 25.5539
49.9479 727 26.9629
50.0653 737 27.1477
50.1827 745 27.2947
50.3001 801 28.3019
50.4175 829 28.7924
50.5348 795 28.1957
50.6521 801 28.3019
50.7694 871 29.5127
50.8867 807 28.4077
51.004 789 28.0891
51.1212 778 27.8927
51.2384 761 27.5862
51.3556 720 26.8328
51.4727 698 26.4197
51.5899 662 25.7294
51.707 658 25.6515
51.824 660 25.6905
51.9411 707 26.5895
52.0581 788 28.0713
52.175 831 28.8271
52.2919 811 28.4781
52.4088 853 29.2062
52.5257 847 29.1033
52.6425 814 28.5307
52.7593 865 29.4109
52.876 794 28.178
52.9927 756 27.4955
53.1094 714 26.7208
53.226 650 25.4951
53.3426 623 24.96
53.4591 606 24.6171
53.5756 627 25.04
53.692 670 25.8844
53.8084 635 25.1992
53.9248 640 25.2982
54.0411 603 24.5561
54.1573 576 24
54.2735 0 1
54.3896 0 1
54.5057 0 1
54.6217 0 1
54.7377 0 1
54.8537 0 1
54.9695 0 1
55.0853 0 1
55.2011 0 1
55.3168 0 1
55.4324 0 1
57.824 0 1
57.9396 0 1
58.0553 0 1
58.1711 0 1
58.2869 0 1
58.4028 0 1
58.5187 0 1
58.6347 0 1
58.7508 0 1
58.8669 0 1
58.983 545 23.3452
59.0992 673 25.9422
59.2155 713 26.7021
59.3318 828 28.775
59.4482 864 29.3939
59.5646 887 29.7825
59.681 863 29.3769
59.7975 919 30.315
59.9141 961 31
60.0306 964 31.0483
60.1473 885 29.7489
60.2639 881 29.6816
60.3807 818 28.6007
60.4974 846 29.0861
60.6142 886 29.7658
60.731 939 30.6431
60.8479 1003 31.6702
60.9648 991 31.4802
61.0818 1042 32.28
61.1987 1072 32.7414
61.3158 1084 32.9242
61.4328 1018 31.9061
61.5499 951 30.8383
61.667 895 29.9166
61.7841 851 29.1719
61.9013 873 29.5466
62.0185 859 29.3087
62.1357 818 28.6007
62.253 943 30.7083
62.3702 990 31.4643
62.4875 974 31.209
62.6049 1083 32.909
62.7222 1054 32.4654
62.8396 1066 32.6497
62.9569 1097 33.121
63.0743 1044 32.311
63.1918 1015 31.8591
63.3092 936 30.5941
63.4267 914 30.2324
63.5441 939 30.6431
63.6616 959 30.9677
63.7791 875 29.5804
63.8966 787 28.0535
64.0142 818 28.6007
64.1317 847 29.1033
64.2492 892 29.8664
64.3668 980 31.305
64.4843 1038 32.218
64.6019 1014 31.8434
64.7195 1026 32.0312
64.837 979 31.289
64.9546 1032 32.1248
65.0722 1030 32.0936
65.1898 973 31.1929
65.3074 819 28.6182
65.4249 808 28.4253
65.5425 741 27.2213
65.6601 729 27
65.7777 888 29.7993
65.8952 1003 31.6702
66.0128 898 29.9666
66.1304 962 31.0161
66.2479 1031 32.1092
66.3655 1113 33.3617
66.483 1043 32.2955
66.6005 1044 32.311
66.718 1082 32.8938
66.8355 996 31.5595
66.953 1015 31.8591
67.0705 1002 31.6544
67.1879 921 30.348
67.3054 908 30.133
67.4228 838 28.9482
67.5402 801 28.3019
67.6576 866 29.4279
67.7749 885 29.7489
67.8923 865 29.4109
68.0096 993 31.5119
68.1269 1026 32.0312
68.2442 1090 33.0151
68.3614 1065 32.6343
68.4787 1070 32.7109
68.5958 1057 32.5115
68.713 1013 31.8277
68.8302 949 30.8058
68.9473 928 30.4631
69.0643 933 30.545
69.1814 891 29.8496
69.2984 908 30.133
69.4154 1024 32
69.5323 1105 33.2415
69.6492 1166 34.1467
69.7661 1184 34.4093
69.8829 1160 34.0588
69.9997 1182 34.3802
70.1165 1163 34.1028
70.2332 1099 33.1512
70.3499 1069 32.6956
70.4665 1034 32.1559
70.5831 1009 31.7648
70.6996 927 30.4467
70.8161 889 29.8161
70.9326 796 28.2135
71.049 684 26.1534
71.1653 609 24.6779
71.2817 461 21.4709
71.3979 478 21.8632
71.5141 421 20.5183
71.6303 411 20.2731
71.7464 410 20.2485
71.8624 0 1
71.9784 0 1
72.0944 0 1
72.2102 0 1
72.3261 0 1
72.4418 0 1
72.5575 0 1
72.6732 0 1
75.1054 0 1
75.2209 0 1
75.3365 0 1
75.4521 0 1
75.5678 0 1
75.6835 0 1
75.7993 0 1
75.9151 0 1
76.031 0 1
76.147 680 26.0768
76.263 766 27.6767
76.3791 719 26.8142
76.4952 698 26.4197
76.6113 702 26.4953
76.7276 742 27.2397
76.8438 785 28.0179
76.9601 885 29.7489
77.0765 942 30.692
77.1929 997 31.5753
77.3093 956 30.9192
77.4258 969 31.1288
77.5423 951 30.8383
77.6589 875 29.5804
77.7755 784 28
77.8921 827 28.7576
78.0088 701 26.4764
78.1256 687 26.2107
78.2423 656 25.6125
78.3591 714 26.7208
78.4759 752 27.4226
78.5928 804 28.3549
78.7097 869 29.4788
78.8266 867 29.4449
78.9436 897 29.95
79.0606 950 30.8221
79.1776 943 30.7083
79.2946 907 30.1164
79.4117 935 30.5778
79.5288 879 29.6479
79.6459 889 29.8161
79.7631 885 29.7489
79.8802 874 29.5635
79.9974 858 29.2916
80.1147 746 27.313
80.2319 691 26.2869
80.3491 767 27.6948
80.4664 736 27.1293
80.5837 815 28.5482
80.701 884 29.7321
80.8183 899 29.9833
80.9357 923 30.3809
81.053 952 30.8545
81.1704 896 29.9333
81.2877 886 29.7658
81.4051 902 30.0333
81.5225 837 28.931
81.6399 726 26.9444
81.7573 693 26.3249
81.8747 632 25.1396
81.9922 632 25.1396
82.1096 753 27.4408
82.227 811 28.4781
82.3444 873 29.5466
82.4619 872 29.5296
82.5793 972 31.1769
82.6967 955 30.9031
82.8142 893 29.8831
82.9316 923 30.3809
83.049 965 31.0644
83.1664 908 30.133
83.2838 975 31.225
83.4012 863 29.3769
83.5186 884 29.7321
83.636 874 29.5635
83.7534 773 27.8029
83.8708 784 28
83.9881 662 25.7294
84.1055 733 27.074
84.2228 809 28.4429
84.3401 825 28.7228
84.4575 946 30.7571
84.5747 980 31.305
84.692 938 30.6268
84.8093 938 30.6268
84.9265 918 30.2985
85.0437 845 29.0689
85.1609 801 28.3019
85.2781 758 27.5318
85.3952 695 26.3629
85.5123 712 26.6833
85.6294 703 26.5141
85.7465 783 27.9821
85.8636 878 29.6311
85.9806 862 29.3598
86.0976 958 30.9516
86.2145 899 29.9833
86.3315 925 30.4138
86.4484 1016 31.8748
86.5652 968 31.1127
86.682 1009 31.7648
86.7988 979 31.289
86.9156 943 30.7083
87.0323 917 30.282
87.149 959 30.9677
87.2657 877 29.6142
87.3823 757 27.5136
87.4988 637 25.2389
87.6154 606 24.6171
87.7318 677 26.0192
87.8483 680 26.0768
87.9647 705 26.5518
88.081 765 27.6586
88.1973 778 27.8927
88.3136 712 26.6833
88.4298 665 25.7876
88.546 595 24.3926
88.6621 533 23.0868
88.7781 405 20.1246
88.8942 0 1
89.0101 0 1
89.126 0 1
89.2419 0 1
89.3577 0 1
89.4734 0 1
89.5891 0 1
89.7047 0 1
89.8203 0 1
89.9358 0 1
92.3269 0 1
92.4424 0 1
92.558 0 1
92.6736 0 1
92.7893 0 1
92.905 0 1
93.0208 0 1
93.1366 0 1
93.2525 0 1
93.3685 0 1
93.4845 0 1
93.6005 713 26.7021
93.7167 743 27.258
93.8328 791 28.1247
93.949 725 26.9258
94.0653 814 28.5307
94.1816 744 27.2764
94.2979 821 28.6531
94.4143 780 27.9285
94.5307 727 26.9629
94.6472 660 25.6905
94.7637 680 26.0768
94.8803 776 27.8568
94.9969 799 28.2666
95.1135 842 29.0172
95.2302 870 29.4958
95.3469 907 30.1164
95.4637 940 30.6594
95.5805 867 29.4449
95.6973 915 30.249
95.8142 969 31.1288
95.9311 941 30.6757
96.048 970 31.1448
96.1649 927 30.4467
96.2819 909 30.1496
96.3989 871 29.5127
96.516 827 28.7576
96.633 795 28.1957
96.7501 733 27.074
96.8673 732 27.0555
96.9844 706 26.5707
97.1016 865 29.4109
97.2188 874 29.5635
97.336 828 28.775
97.4532 927 30.4467
97.5704 942 30.692
97.6877 970 31.1448
97.805 989 31.4484
97.9223 873 29.5466
98.0396 789 28.0891
98.1569 733 27.074
98.2743 687 26.2107
98.3916 724 26.9072
98.509 751 27.4044
98.6264 839 28.9655
98.7438 857 29.2746
98.8612 897 29.95
98.9786 934 30.5614
99.096 961 31
99.2134 962 31.0161
99.3308 945 30.7409
99.4482 975 31.225
99.5656 937 30.6105
99.6831 1000 31.6228
99.8005 990 31.4643
99.9179 942 30.692
100.035 901 30.0167
100.153 870 29.4958
100.27 836 28.9137
100.388 762 27.6043
100.505 806 28.3901
100.622 871 29.5127
100.74 895 29.9166
100.857 990 31.4643
100.975 948 30.7896
101.092 973 31.1929
101.209 1045 32.3265
101.327 1027 32.0468
101.444 975 31.225
101.561 883 29.7153
101.679 846 29.0861
101.796 724 26.9072
101.913 768 27.7128
102.03 712 26.6833
102.148 811 28.4781
102.265 915 30.249
102.382 957 30.9354
102.499 1010 31.7805
102.616 1006 31.7175
102.733 1027 32.0468
102.851 1049 32.3883
102.968 1046 32.3419
103.085 1102 33.1964
103.202 1063 32.6037
103.319 1009 31.7648
103.436 1032 32.1248
103.552 993 31.5119
103.669 927 30.4467
103.786 912 30.1993
103.903 754 27.4591
104.02 844 29.0517
104.137 940 30.6594
104.253 983 31.3528
104.37 974 31.209
104.487 1063 32.6037
104.603 1064 32.619
104.72 989 31.4484
104.836 1019 31.9218
104.953 939 30.6431
105.069 812 28.4956
105.186 759 27.55
105.302 714 26.7208
105.418 670 25.8844
105.535 679 26.0576
105.651 623 24.96
105.767 660 25.6905
105.883 686 26.1916
105.999 642 25.3377
106.115 0 1
106.231 0 1
106.347 0 1
106.463 0 1
106.579 0 1
106.694 0 1
106.81 0 1
106.926 0 1
107.041 0 1
107.157 0 1
109.576 0 1
109.692 0 1
109.807 0 1
109.923 0 1
110.039 0 1
110.155 0 1
110.27 0 1
110.386 0 1
110.502 0 1
110.618 405 20.1246
110.735 562 23.7065
110.851 645 25.3969
110.967 712 26.6833
111.083 752 27.4226
111.199 824 28.7054
111.316 865 29.4109
111.432 947 30.7734
111.549 943 30.7083
111.665 930 30.4959
111.782 976 31.241
111.898 918 30.2985
112.015 895 29.9166
112.132 852 29.189
112.248 799 28.2666
112.365 702 26.4953
112.482 770 27.7489
112.599 769 27.7308
112.716 848 29.1204
112.832 919 30.315
112.949 950 30.8221
113.066 935 30.5778
113.183 940 30.6594
113.3 944 30.7246
113.417 965 31.0644
113.534 886 29.7658
113.652 831 28.8271
113.769 766 27.6767
113.886 696 26.3818
114.003 717 26.7769
114.12 734 27.0924
114.238 770 27.7489
114.355 852 29.189
114.472 834 28.8791
114.589 880 29.6648
114.707 904 30.0666
114.824 945 30.7409
114.942 977 31.257
115.059 929 30.4795
115.176 1019 31.9218
115.294 1008 31.749
115.411 981 31.3209
115.529 904 30.0666
115.646 878 29.6311
115.764 873 29.5466
115.881 838 28.9482
115.999 752 27.4226
116.116 739 27.1846
116.234 859 29.3087
116.351 919 30.315
116.469 884 29.7321
116.586 917 30.282
116.704 948 30.7896
116.821 938 30.6268
116.939 946 30.7571
117.056 973 31.1929
117.174 899 29.9833
117.291 808 28.4253
117.409 753 27.4408
117.526 740 27.2029
117.644 725 26.9258
117.761 743 27.258
117.879 793 28.1603
117.996 824 28.7054
118.114 892 29.8664
118.231 904 30.0666
118.349 909 30.1496
118.466 992 31.496
118.584 1019 31.9218
118.701 909 30.1496
118.819 941 30.6757
118.936 920 30.3315
119.053 883 29.7153
119.171 875 29.5804
119.288 857 29.2746
119.405 886 29.7658
119.523 802 28.3196
119.64 746 27.313
119.757 775 27.8388
119.875 802 28.3196
119.992 847 29.1033
120.109 879 29.6479
120.226 911 30.1828
120.343 878 29.6311
120.46 972 31.1769
120.578 928 30.4631
120.695 924 30.3974
120.812 832 28.8444
120.929 783 27.9821
121.046 716 26.7582
121.163 668 25.8457
121.279 660 25.6905
121.396 694 26.3439
121.513 729 27
121.63 702 26.4953
121.747 788 28.0713
121.863 837 28.931
121.98 825 28.7228
122.097 782 27.9643
122.213 797 28.2312
122.33 727 26.9629
122.446 775 27.8388
122.563 683 26.1343
122.679 647 25.4362
122.795 631 25.1197
122.912 567 23.8118
123.028 492 22.1811
123.144 435 20.8567
123.26 410 20.2485
123.377 0 1
123.493 0 1
123.609 0 1
123.725 0 1
123.84 0 1
123.956 0 1
124.072 0 1
124.188 0 1
124.303 0 1
124.419 0 1
126.852 0 1
126.968 0 1
127.083 0 1
127.199 0 1
127.315 0 1
127.431 0 1
127.547 0 1
127.663 0 1
127.779 0 1
127.895 0 1
128.011 0 1
128.127 0 1
128.243 0 1
128.359 960 30.9839
128.476 973 31.1929
128.592 941 30.6757
128.708 938 30.6268
128.825 930 30.4959
128.941 1008 31.749
129.058 1014 31.8434
129.174 1133 33.6601
129.291 1076 32.8024
129.408 1103 33.2114
129.524 1148 33.8821
129.641 1133 33.6601
129.758 1130 33.6155
129.875 1093 33.0606
129.992 869 29.4788
130.108 911 30.1828
130.225 891 29.8496
130.342 887 29.7825
130.459 921 30.348
130.576 944 30.7246
130.693 1033 32.1403
130.81 1037 32.2025
130.928 1096 33.1059
131.045 1144 33.8231
131.162 1129 33.6006
131.279 1149 33.8969
131.396 1154 33.9706
131.513 1128 33.5857
131.631 1057 32.5115
131.748 1105 33.2415
131.865 1088 32.9848
131.983 1018 31.9061
132.1 1009 31.7648
132.217 978 31.273
132.335 926 30.4302
132.452 969 31.1288
132.57 1107 33.2716
132.687 1092 33.0454
132.804 1131 33.6303
132.922 1145 33.8378
133.039 1132 33.6452
133.157 1109 33.3017
133.274 1125 33.541
133.392 1152 33.9411
133.509 968 31.1127
133.627 971 31.1609
133.744 944 30.7246
133.862 898 29.9666
133.979 907 30.1164
134.097 964 31.0483
134.214 1007 31.7333
134.332 1032 32.1248
134.449 1054 32.4654
134.567 1122 33.4963
134.684 1132 33.6452
134.802 1156 34
134.919 1186 34.4384
135.037 1195 34.5688
135.154 1124 33.5261
135.272 1135 33.6898
135.389 1066 32.6497
135.507 1069 32.6956
135.624 1009 31.7648
135.742 928 30.4631
135.859 921 30.348
135.977 950 30.8221
136.094 1057 32.5115
136.211 1032 32.1248
136.329 1135 33.6898
136.446 1131 33.6303
136.564 1063 32.6037
136.681 1116 33.4066
136.798 1156 34
136.915 1121 33.4813
137.033 1051 32.4191
137.15 984 31.3688
137.267 913 30.2159
137.384 841 29
137.502 816 28.5657
137.619 878 29.6311
137.736 926 30.4302
137.853 946 30.7571
137.97 1003 31.6702
138.087 999 31.607
138.204 1072 32.7414
138.321 1112 33.3467
138.438 1038 32.218
138.555 1103 33.2114
138.672 1079 32.8481
138.788 980 31.305
138.905 952 30.8545
139.022 912 30.1993
139.139 844 29.0517
139.255 808 28.4253
139.372 726 26.9444
139.488 665 25.7876
139.605 669 25.865
139.721 670 25.8844
139.838 666 25.807
139.954 675 25.9808
140.071 712 26.6833
140.187 575 23.9792
140.303 579 24.0624
140.419 496 22.2711
140.535 486 22.0454
140.652 448 21.166
140.768 0 1
140.884 0 1
141 0 1
141.115 0 1
141.231 0 1
141.347 0 1
141.463 0 1
141.578 0 1
141.694 0 1
144.104 0 1
144.219 0 1
144.335 0 1
144.45 0 1
144.566 0 1
144.682 0 1
144.798 0 1
144.914 0 1
145.03 0 1
145.146 692 26.3059
145.262 769 27.7308
145.378 729 27
145.494 809 28.4429
145.61 765 27.6586
145.726 766 27.6767
145.842 696 26.3818
145.959 663 25.7488
146.075 635 25.1992
146.192 651 25.5147
146.308 615 24.7992
146.425 662 25.7294
146.541 695 26.3629
146.658 688 26.2298
146.774 746 27.313
146.891 691 26.2869
147.008 720 26.8328
147.125 751 27.4044
147.241 778 27.8927
147.358 788 28.0713
147.475 714 26.7208
147.592 789 28.0891
147.709 750 27.3861
147.826 706 26.5707
147.943 691 26.2869
148.06 693 26.3249
148.177 612 24.7386
148.294 645 25.3969
148.411 656 25.6125
148.528 715 26.7395
148.645 706 26.5707
148.762 732 27.0555
148.88 802 28.3196
148.997 805 28.3725
149.114 755 27.4773
149.231 763 27.6225
149.349 748 27.3496
149.466 712 26.6833
149.583 711 26.6646
149.701 701 26.4764
149.818 646 25.4165
149.935 606 24.6171
150.053 594 24.3721
150.17 595 24.3926
150.287 698 26.4197
150.405 672 25.923
150.522 655 25.593
150.64 735 27.1109
150.757 722 26.8701
150.875 804 28.3549
150.992 742 27.2397
151.11 773 27.8029
151.227 751 27.4044
151.344 675 25.9808
151.462 644 25.3772
151.579 675 25.9808
151.697 638 25.2587
151.814 640 25.2982
151.932 623 24.96
152.049 634 25.1794
152.167 650 25.4951
152.284 617 24.8395
152.402 692 26.3059
152.519 715 26.7395
152.636 696 26.3818
152.754 690 26.2679
152.871 739 27.1846
152.989 701 26.4764
153.106 652 25.5343
153.223 655 25.593
153.341 599 24.4745
153.458 609 24.6779
153.575 597 24.4336
153.693 599 24.4745
153.81 598 24.454
153.927 645 25.3969
154.044 596 24.4131
154.162 639 25.2784
154.279 707 26.5895
154.396 702 26.4953
154.513 688 26.2298
154.63 704 26.533
154.747 713 26.7021
154.864 671 25.9037
154.981 683 26.1343
155.098 679 26.0576
155.215 604 24.5764
155.332 601 24.5153
155.449 586 24.2074
155.566 601 24.5153
155.683 582 24.1247
155.8 658 25.6515
155.917 640 25.2982
156.033 673 25.9422
156.15 0 1
156.267 0 1
156.383 0 1
156.5 0 1
156.617 0 1
156.733 0 1
156.85 0 1
156.966 0 1
157.082 0 1
157.199 0 1
157.315 0 1
157.431 0 1
157.547 0 1
157.664 0 1
157.78 0 1
157.896 0 1
158.012 0 1
158.128 0 1
158.244 0 1
158.359 0 1
158.475 0 1
158.591 0 1
158.706 0 1
