
6.15755 0 1
6.2731 0 1
6.3887 0 1
6.50437 0 1
6.62009 0 1
6.73587 0 1
6.8517 0 1
6.96759 0 1
7.08353 0 1
7.19952 0 1
7.31557 0 1
7.43166 0 1
7.54781 0 1
7.664 0 1
7.78024 0 1
7.89653 0 1
8.01286 0 1
8.12924 0 1
8.24567 0 1
8.36213 0 1
8.47864 0 1
8.59519 0 1
8.71178 0 1
8.82841 0 1
8.94508 0 1
9.06179 0 1
9.17853 0 1
9.29531 0 1
9.41212 0 1
9.52897 0 1
9.64584 0 1
9.76276 0 1
9.8797 0 1
9.99667 0 1
10.1137 0 1
10.2307 0 1
10.3478 0 1
10.4648 0 1
10.5819 0 1
10.6991 0 1
10.8162 0 1
10.9334 0 1
11.0506 0 1
11.1678 0 1
11.285 0 1
11.4023 0 1
11.5196 0 1
11.6369 0 1
11.7542 0 1
11.8715 0 1
11.9888 0 1
12.1062 0 1
12.2235 0 1
12.3409 0 1
12.4582 0 1
12.5756 0 1
12.693 0 1
12.8104 0 1
12.9278 0 1
13.0452 0 1
13.1626 0 1
13.28 0 1
13.3974 0 1
13.5149 0 1
13.6323 0 1
13.7497 0 1
13.8671 0 1
13.9845 0 1
14.1019 0 1
14.2193 0 1
14.3367 0 1
14.4541 0 1
14.5714 0 1
14.6888 0 1
14.8062 0 1
14.9235 0 1
15.0408 1357 36.8375
15.1581 1473 38.3797
15.2755 1450 38.0789
15.3927 1549 39.3573
15.51 1599 39.9875
15.6273 1587 39.8372
15.7445 1600 40
15.8617 1540 39.2428
15.9789 1540 39.2428
16.0961 1514 38.9102
16.2132 1448 38.0526
16.3304 1574 39.6737
16.4475 1677 40.9512
16.5646 1641 40.5093
16.6816 1756 41.9047
16.7986 1695 41.1704
16.9156 1812 42.5676
17.0326 1836 42.8486
17.1496 1822 42.6849
17.2665 1784 42.2374
17.3833 1865 43.1856
17.5002 1720 41.4729
17.617 1692 41.1339
17.7338 1596 39.95
17.8505 1522 39.0128
17.9672 1547 39.3319
18.0839 1699 41.2189
18.2005 1585 39.8121
18.3171 1609 40.1123
18.4337 1696 41.1825
18.5502 1734 41.6413
18.6666 1718 41.4488
18.7831 1755 41.8927
18.8994 1793 42.3438
19.0158 1771 42.0833
19.1321 1732 41.6173
19.2483 1646 40.5709
19.3645 1611 40.1373
19.4806 1481 38.4838
19.5967 1428 37.7889
19.7128 1246 35.2987
19.8288 1218 34.8999
19.9447 1118 33.4365
20.0606 0 1
20.1764 0 1
20.2922 0 1
20.4079 0 1
20.5236 0 1
20.6392 0 1
20.7548 0 1
20.8702 0 1
23.3078 0 1
23.4233 0 1
23.539 0 1
23.6547 0 1
23.7704 0 1
23.8862 0 1
24.0021 0 1
24.118 0 1
24.234 0 1
24.35 0 1
24.4661 718 26.7955
24.5822 841 29
24.6984 993 31.5119
24.8146 1115 33.3916
24.9309 1222 34.9571
25.0472 1320 36.3318
25.1636 1369 37
25.28 1654 40.6694
25.3965 1660 40.7431
25.513 1780 42.19
25.6296 1849 43
25.7462 1934 43.9773
25.8628 1913 43.7379
25.9795 1926 43.8862
26.0962 1882 43.382
26.213 1890 43.4741
26.3298 1764 42
26.4466 1671 40.8779
26.5635 1602 40.025
26.6804 1573 39.6611
26.7973 1687 41.0731
26.9143 1683 41.0244
27.0313 1723 41.509
27.1483 1823 42.6966
27.2653 1870 43.2435
27.3824 1889 43.4626
27.4996 1853 43.0465
27.6167 1782 42.2137
27.7339 1856 43.0813
27.8511 1704 41.2795
27.9683 1704 41.2795
28.0855 1670 40.8656
28.2028 1603 40.0375
28.3201 1544 39.2938
28.4374 1547 39.3319
28.5547 1465 38.2753
28.6721 1550 39.37
28.7894 1721 41.4849
28.9068 1754 41.8808
29.0242 1777 42.1545
29.1416 1907 43.6692
29.259 1933 43.9659
29.3764 1860 43.1277
29.4939 1791 42.3202
29.6113 1870 43.2435
29.7288 1760 41.9524
29.8463 1673 40.9023
29.9638 1638 40.4722
30.0812 1644 40.5463
30.1987 1566 39.5727
30.3162 1640 40.4969
30.4337 1568 39.598
30.5512 1693 41.1461
30.6687 1672 40.8901
30.7862 1730 41.5933
30.9037 1776 42.1426
31.0212 1803 42.4617
31.1387 1761 41.9643
31.2562 1778 42.1663
31.3737 1690 41.1096
31.4912 1630 40.3733
31.6087 1633 40.4104
31.7262 1641 40.5093
31.8436 1584 39.7995
31.9611 1475 38.4057
32.0785 1519 38.9744
32.1959 1596 39.95
32.3134 1644 40.5463
32.4308 1719 41.4608
32.5482 1835 42.8369
32.6655 1845 42.9535
32.7829 1823 42.6966
32.9002 1841 42.9069
33.0176 1832 42.8019
33.1349 1773 42.107
33.2522 1715 41.4126
33.3694 1708 41.328
33.4867 1597 39.9625
33.6039 1526 39.064
33.7211 1588 39.8497
33.8383 1509 38.8458
33.9554 1519 38.9744
34.0725 1583 39.7869
34.1896 1644 40.5463
34.3067 1647 40.5832
34.4237 1629 40.3609
34.5407 1731 41.6053
34.6577 1727 41.5572
34.7746 1642 40.5216
34.8915 1713 41.3884
35.0084 1639 40.4846
35.1252 1586 39.8246
35.242 1510 38.8587
35.3587 1577 39.7115
35.4755 1503 38.7685
35.5921 1438 37.921
35.7088 1394 37.3363
35.8254 1452 38.1051
35.9419 1596 39.95
36.0584 1517 38.9487
36.1749 1627 40.3361
36.2913 1525 39.0512
36.4077 1618 40.2244
36.524 1535 39.1791
36.6403 1494 38.6523
36.7565 1451 38.092
36.8727 1359 36.8646
36.9889 1281 35.7911
37.1049 1171 34.2199
37.221 0 1
37.3369 0 1
37.4529 0 1
37.5687 0 1
37.6845 0 1
37.8003 0 1
37.916 0 1
38.0316 0 1
38.1472 0 1
40.5851 0 1
40.7008 0 1
40.8164 0 1
40.9322 0 1
41.048 0 1
41.1639 0 1
41.2798 0 1
41.3958 0 1
41.5118 0 1
41.6279 0 1
41.744 819 28.6182
41.8602 951 30.8383
41.9765 1022 31.9687
42.0928 1021 31.9531
42.2091 1012 31.8119
42.3255 972 31.1769
42.4419 1021 31.9531
42.5584 1012 31.8119
42.675 1112 33.3467
42.7915 1226 35.0143
42.9081 1289 35.9026
43.0248 1284 35.8329
43.1415 1385 37.2156
43.2582 1440 37.9473
43.375 1425 37.7492
43.4918 1399 37.4032
43.6087 1445 38.0132
43.7256 1409 37.5366
43.8425 1364 36.9324
43.9595 1333 36.5103
44.0765 1354 36.7967
44.1935 1247 35.3129
44.3106 1294 35.9722
44.4277 1151 33.9264
44.5448 1174 34.2637
44.6619 1214 34.8425
44.7791 1281 35.7911
44.8963 1336 36.5513
45.0136 1354 36.7967
45.1308 1437 37.9078
45.2481 1405 37.4833
45.3654 1469 38.3275
45.4827 1470 38.3406
45.6001 1414 37.6032
45.7174 1413 37.5899
45.8348 1200 34.641
45.9522 1248 35.327
46.0697 1214 34.8425
46.1871 1161 34.0735
46.3046 1246 35.2987
46.422 1330 36.4692
46.5395 1279 35.7631
46.657 1392 37.3095
46.7745 1417 37.6431
46.892 1448 38.0526
47.0096 1474 38.3927
47.1271 1428 37.7889
47.2446 1432 37.8418
47.3622 1440 37.9473
47.4797 1481 38.4838
47.5973 1419 37.6696
47.7149 1426 37.7624
47.8324 1326 36.4143
47.95 1332 36.4966
48.0675 1224 34.9857
48.1851 1241 35.2278
48.3027 1333 36.5103
48.4202 1350 36.7423
48.5378 1445 38.0132
48.6554 1470 38.3406
48.7729 1497 38.6911
48.8904 1409 37.5366
49.008 1529 39.1024
49.1255 1408 37.5233
49.243 1392 37.3095
49.3605 1287 35.8748
49.478 1204 34.6987
49.5955 1230 35.0714
49.713 1154 33.9706
49.8304 1134 33.6749
49.9479 1309 36.1801
50.0653 1239 35.1994
50.1827 1390 37.2827
50.3001 1344 36.6606
50.4175 1418 37.6563
50.5348 1468 38.3145
50.6521 1508 38.833
50.7694 1445 38.0132
50.8867 1473 38.3797
51.004 1482 38.4968
51.1212 1428 37.7889
51.2384 1343 36.647
51.3556 1436 37.8946
51.4727 1275 35.7071
51.5899 1286 35.8608
51.707 1252 35.3836
51.824 1461 38.223
51.9411 1527 39.0768
52.0581 1596 39.95
52.175 1704 41.2795
52.2919 1776 42.1426
52.4088 1799 42.4146
52.5257 1870 43.2435
52.6425 1851 43.0232
52.7593 1843 42.9302
52.876 1787 42.2729
52.9927 1690 41.1096
53.1094 1588 39.8497
53.226 1491 38.6135
53.3426 1481 38.4838
53.4591 1436 37.8946
53.5756 1454 38.1314
53.692 1613 40.1622
53.8084 1579 39.7366
53.9248 1501 38.7427
54.0411 1356 36.8239
54.1573 1317 36.2905
54.2735 0 1
54.3896 0 1
54.5057 0 1
54.6217 0 1
54.7377 0 1
54.8537 0 1
54.9695 0 1
55.0853 0 1
55.2011 0 1
55.3168 0 1
55.4324 0 1
57.824 0 1
57.9396 0 1
58.0553 0 1
58.1711 0 1
58.2869 0 1
58.4028 0 1
58.5187 0 1
58.6347 0 1
58.7508 0 1
58.8669 0 1
58.983 1128 33.5857
59.0992 1185 34.4238
59.2155 1388 37.2559
59.3318 1544 39.2938
59.4482 1539 39.2301
59.5646 1669 40.8534
59.681 1662 40.7676
59.7975 1600 40
59.9141 1677 40.9512
60.0306 1615 40.1871
60.1473 1563 39.5348
60.2639 1640 40.4969
60.3807 1517 38.9487
60.4974 1606 40.0749
60.6142 1666 40.8167
60.731 1708 41.328
60.8479 1761 41.9643
60.9648 1778 42.1663
61.0818 1793 42.3438
61.1987 1786 42.2611
61.3158 1798 42.4028
61.4328 1708 41.328
61.5499 1643 40.5339
61.667 1511 38.8716
61.7841 1411 37.5633
61.9013 1453 38.1182
62.0185 1449 38.0657
62.1357 1499 38.7169
62.253 1605 40.0625
62.3702 1583 39.7869
62.4875 1615 40.1871
62.6049 1707 41.3159
62.7222 1724 41.5211
62.8396 1779 42.1782
62.9569 1805 42.4853
63.0743 1867 43.2088
63.1918 1752 41.8569
63.3092 1761 41.9643
63.4267 1695 41.1704
63.5441 1587 39.8372
63.6616 1555 39.4335
63.7791 1537 39.2046
63.8966 1411 37.5633
64.0142 1488 38.5746
64.1317 1492 38.6264
64.2492 1590 39.8748
64.3668 1688 41.0853
64.4843 1756 41.9047
64.6019 1873 43.2782
64.7195 1728 41.5692
64.837 1768 42.0476
64.9546 1761 41.9643
65.0722 1681 41
65.1898 1550 39.37
65.3074 1496 38.6782
65.4249 1383 37.1887
65.5425 1330 36.4692
65.6601 1317 36.2905
65.7777 1448 38.0526
65.8952 1584 39.7995
66.0128 1645 40.5586
66.1304 1733 41.6293
66.2479 1677 40.9512
66.3655 1749 41.821
66.483 1749 41.821
66.6005 1793 42.3438
66.718 1720 41.4729
66.8355 1690 41.1096
66.953 1703 41.2674
67.0705 1697 41.1947
67.1879 1598 39.975
67.3054 1541 39.2556
67.4228 1338 36.5787
67.5402 1455 38.1445
67.6576 1389 37.2693
67.7749 1508 38.833
67.8923 1544 39.2938
68.0096 1612 40.1497
68.1269 1732 41.6173
68.2442 1789 42.2966
68.3614 1710 41.3521
68.4787 1692 41.1339
68.5958 1717 41.4367
68.713 1578 39.724
68.8302 1536 39.1918
68.9473 1322 36.3593
69.0643 1364 36.9324
69.1814 1320 36.3318
69.2984 1324 36.3868
69.4154 1365 36.9459
69.5323 1512 38.8844
69.6492 1522 39.0128
69.7661 1591 39.8873
69.8829 1716 41.4246
69.9997 1664 40.7922
70.1165 1482 38.4968
70.2332 1527 39.0768
70.3499 1510 38.8587
70.4665 1363 36.9188
70.5831 1355 36.8103
70.6996 1325 36.4005
70.8161 1221 34.9428
70.9326 1023 31.9844
71.049 930 30.4959
71.1653 813 28.5132
71.2817 754 27.4591
71.3979 654 25.5734
71.5141 655 25.593
71.6303 627 25.04
71.7464 632 25.1396
71.8624 0 1
71.9784 0 1
72.0944 0 1
72.2102 0 1
72.3261 0 1
72.4418 0 1
72.5575 0 1
72.6732 0 1
75.1054 0 1
75.2209 0 1
75.3365 0 1
75.4521 0 1
75.5678 0 1
75.6835 0 1
75.7993 0 1
75.9151 0 1
76.031 0 1
76.147 1012 31.8119
76.263 1068 32.6803
76.3791 1079 32.8481
76.4952 1091 33.0303
76.6113 1075 32.7872
76.7276 1245 35.2846
76.8438 1431 37.8286
76.9601 1458 38.1838
77.0765 1493 38.6394
77.1929 1566 39.5727
77.3093 1486 38.5487
77.4258 1483 38.5097
77.5423 1541 39.2556
77.6589 1392 37.3095
77.7755 1344 36.6606
77.8921 1206 34.7275
78.0088 1153 33.9559
78.1256 1072 32.7414
78.2423 993 31.5119
78.3591 1111 33.3317
78.4759 1177 34.3074
78.5928 1369 37
78.7097 1304 36.1109
78.8266 1386 37.229
78.9436 1407 37.51
79.0606 1430 37.8153
79.1776 1431 37.8286
79.2946 1515 38.923
79.4117 1559 39.4842
79.5288 1570 39.6232
79.6459 1477 38.4318
79.7631 1451 38.092
79.8802 1350 36.7423
79.9974 1228 35.0428
80.1147 1268 35.609
80.2319 1211 34.7994
80.3491 1265 35.5668
80.4664 1338 36.5787
80.5837 1398 37.3898
80.701 1523 39.0256
80.8183 1590 39.8748
80.9357 1533 39.1535
81.053 1525 39.0512
81.1704 1530 39.1152
81.2877 1518 38.9615
81.4051 1483 38.5097
81.5225 1356 36.8239
81.6399 1193 34.5398
81.7573 1092 33.0454
81.8747 995 31.5436
81.9922 1115 33.3916
82.1096 1211 34.7994
82.227 1333 36.5103
82.3444 1419 37.6696
82.4619 1417 37.6431
82.5793 1473 38.3797
82.6967 1585 39.8121
82.8142 1529 39.1024
82.9316 1549 39.3573
83.049 1571 39.6358
83.1664 1466 38.2884
83.2838 1520 38.9872
83.4012 1528 39.0896
83.5186 1415 37.6165
83.636 1372 37.0405
83.7534 1305 36.1248
83.8708 1268 35.609
83.9881 1215 34.8569
84.1055 1304 36.1109
84.2228 1379 37.1349
84.3401 1495 38.6652
84.4575 1559 39.4842
84.5747 1576 39.6989
84.692 1527 39.0768
84.8093 1614 40.1746
84.9265 1550 39.37
85.0437 1442 37.9737
85.1609 1320 36.3318
85.2781 1222 34.9571
85.3952 1063 32.6037
85.5123 1095 33.0908
85.6294 1197 34.5977
85.7465 1268 35.609
85.8636 1337 36.565
85.9806 1438 37.921
86.0976 1503 38.7685
86.2145 1486 38.5487
86.3315 1525 39.0512
86.4484 1554 39.4208
86.5652 1582 39.7744
86.682 1619 40.2368
86.7988 1567 39.5854
86.9156 1644 40.5463
87.0323 1562 39.5221
87.149 1432 37.8418
87.2657 1324 36.3868
87.3823 1198 34.6121
87.4988 1085 32.9393
87.6154 1110 33.3167
87.7318 1136 33.7046
87.8483 1158 34.0294
87.9647 1266 35.5809
88.081 1232 35.0999
88.1973 1228 35.0428
88.3136 1142 33.7935
88.4298 1057 32.5115
88.546 1034 32.1559
88.6621 910 30.1662
88.7781 724 26.9072
88.8942 0 1
89.0101 0 1
89.126 0 1
89.2419 0 1
89.3577 0 1
89.4734 0 1
89.5891 0 1
89.7047 0 1
89.8203 0 1
89.9358 0 1
92.3269 0 1
92.4424 0 1
92.558 0 1
92.6736 0 1
92.7893 0 1
92.905 0 1
93.0208 0 1
93.1366 0 1
93.2525 0 1
93.3685 0 1
93.4845 0 1
93.6005 1212 34.8138
93.7167 1274 35.6931
93.8328 1302 36.0832
93.949 1327 36.428
94.0653 1399 37.4032
94.1816 1267 35.5949
94.2979 1275 35.7071
94.4143 1155 33.9853
94.5307 1087 32.9697
94.6472 1107 33.2716
94.7637 1187 34.4529
94.8803 1227 35.0286
94.9969 1314 36.2491
95.1135 1432 37.8418
95.2302 1508 38.833
95.3469 1470 38.3406
95.4637 1572 39.6485
95.5805 1583 39.7869
95.6973 1586 39.8246
95.8142 1614 40.1746
95.9311 1500 38.7298
96.048 1573 39.6611
96.1649 1600 40
96.2819 1521 39
96.3989 1469 38.3275
96.516 1357 36.8375
96.633 1369 37
96.7501 1280 35.7771
96.8673 1295 35.9861
96.9844 1415 37.6165
97.1016 1501 38.7427
97.2188 1557 39.4588
97.336 1648 40.5956
97.4532 1589 39.8623
97.5704 1637 40.4599
97.6877 1623 40.2865
97.805 1530 39.1152
97.9223 1438 37.921
98.0396 1316 36.2767
98.1569 1284 35.8329
98.2743 1145 33.8378
98.3916 1138 33.7343
98.509 1218 34.8999
98.6264 1373 37.054
98.7438 1441 37.9605
98.8612 1544 39.2938
98.9786 1607 40.0874
99.096 1677 40.9512
99.2134 1666 40.8167
99.3308 1721 41.4849
99.4482 1662 40.7676
99.5656 1676 40.939
99.6831 1678 40.9634
99.8005 1650 40.6202
99.9179 1566 39.5727
100.035 1529 39.1024
100.153 1475 38.4057
100.27 1451 38.092
100.388 1433 37.855
100.505 1412 37.5766
100.622 1568 39.598
100.74 1662 40.7676
100.857 1771 42.0833
100.975 1674 40.9145
101.092 1766 42.0238
101.209 1776 42.1426
101.327 1733 41.6293
101.444 1575 39.6863
101.561 1430 37.8153
101.679 1352 36.7696
101.796 1236 35.1568
101.913 1193 34.5398
102.03 1258 35.4683
102.148 1321 36.3456
102.265 1526 39.064
102.382 1613 40.1622
102.499 1685 41.0488
102.616 1731 41.6053
102.733 1772 42.0951
102.851 1762 41.9762
102.968 1834 42.8252
103.085 1774 42.1189
103.202 1769 42.0595
103.319 1729 41.5812
103.436 1745 41.7732
103.552 1646 40.5709
103.669 1534 39.1663
103.786 1488 38.5746
103.903 1458 38.1838
104.02 1396 37.3631
104.137 1496 38.6782
104.253 1661 40.7554
104.37 1858 43.1045
104.487 1819 42.6497
104.603 1878 43.3359
104.72 1820 42.6615
104.836 1679 40.9756
104.953 1602 40.025
105.069 1436 37.8946
105.186 1244 35.2704
105.302 1106 33.2566
105.418 1087 32.9697
105.535 1108 33.2866
105.651 1125 33.541
105.767 1079 32.8481
105.883 1125 33.541
105.999 1093 33.0606
106.115 0 1
106.231 0 1
106.347 0 1
106.463 0 1
106.579 0 1
106.694 0 1
106.81 0 1
106.926 0 1
107.041 0 1
107.157 0 1
109.576 0 1
109.692 0 1
109.807 0 1
109.923 0 1
110.039 0 1
110.155 0 1
110.27 0 1
110.386 0 1
110.502 0 1
110.618 790 28.1069
110.735 986 31.4006
110.851 1134 33.6749
110.967 1233 35.1141
111.083 1379 37.1349
111.199 1452 38.1051
111.316 1592 39.8999
111.432 1633 40.4104
111.549 1648 40.5956
111.665 1682 41.0122
111.782 1614 40.1746
111.898 1604 40.05
112.015 1527 39.0768
112.132 1519 38.9744
112.248 1444 38
112.365 1377 37.108
112.482 1402 37.4433
112.599 1478 38.4448
112.716 1586 39.8246
112.832 1675 40.9268
112.949 1603 40.0375
113.066 1712 41.3763
113.183 1643 40.5339
113.3 1707 41.3159
113.417 1649 40.6079
113.534 1509 38.8458
113.652 1383 37.1887
113.769 1235 35.1426
113.886 1205 34.7131
114.003 1172 34.2345
114.12 1245 35.2846
114.238 1368 36.9865
114.355 1465 38.2753
114.472 1492 38.6264
114.589 1687 41.0731
114.707 1676 40.939
114.824 1729 41.5812
114.942 1696 41.1825
115.059 1666 40.8167
115.176 1714 41.4005
115.294 1684 41.0366
115.411 1650 40.6202
115.529 1604 40.05
115.646 1582 39.7744
115.764 1472 38.3667
115.881 1347 36.7015
115.999 1418 37.6563
116.116 1454 38.1314
116.234 1591 39.8873
116.351 1651 40.6325
116.469 1694 41.1582
116.586 1714 41.4005
116.704 1726 41.5452
116.821 1673 40.9023
116.939 1710 41.3521
117.056 1592 39.8999
117.174 1463 38.2492
117.291 1408 37.5233
117.409 1276 35.7211
117.526 1206 34.7275
117.644 1170 34.2053
117.761 1312 36.2215
117.879 1447 38.0395
117.996 1477 38.4318
118.114 1562 39.5221
118.231 1599 39.9875
118.349 1631 40.3856
118.466 1595 39.9375
118.584 1685 41.0488
118.701 1666 40.8167
118.819 1543 39.281
118.936 1592 39.8999
119.053 1617 40.2119
119.171 1543 39.281
119.288 1533 39.1535
119.405 1376 37.0945
119.523 1313 36.2353
119.64 1376 37.0945
119.757 1392 37.3095
119.875 1481 38.4838
119.992 1436 37.8946
120.109 1506 38.8072
120.226 1577 39.7115
120.343 1550 39.37
120.46 1579 39.7366
120.578 1582 39.7744
120.695 1483 38.5097
120.812 1404 37.47
120.929 1314 36.2491
121.046 1300 36.0555
121.163 1076 32.8024
121.279 1098 33.1361
121.396 1117 33.4215
121.513 1226 35.0143
121.63 1157 34.0147
121.747 1249 35.3412
121.863 1260 35.4965
121.98 1252 35.3836
122.097 1233 35.1141
122.213 1203 34.6843
122.33 1208 34.7563
122.446 1234 35.1283
122.563 1160 34.0588
122.679 973 31.1929
122.795 952 30.8545
122.912 909 30.1496
123.028 824 28.7054
123.144 758 27.5318
123.26 664 25.7682
123.377 0 1
123.493 0 1
123.609 0 1
123.725 0 1
123.84 0 1
123.956 0 1
124.072 0 1
124.188 0 1
124.303 0 1
124.419 0 1
126.852 0 1
126.968 0 1
127.083 0 1
127.199 0 1
127.315 0 1
127.431 0 1
127.547 0 1
127.663 0 1
127.779 0 1
127.895 0 1
128.011 0 1
128.127 0 1
128.243 0 1
128.359 1473 38.3797
128.476 1516 38.9358
128.592 1497 38.6911
128.708 1579 39.7366
128.825 1539 39.2301
128.941 1553 39.4081
129.058 1625 40.3113
129.174 1695 41.1704
129.291 1683 41.0244
129.408 1769 42.0595
129.524 1685 41.0488
129.641 1757 41.9166
129.758 1596 39.95
129.875 1512 38.8844
129.992 1433 37.855
130.108 1357 36.8375
130.225 1204 34.6987
130.342 1196 34.5832
130.459 1353 36.7831
130.576 1490 38.6005
130.693 1522 39.0128
130.81 1627 40.3361
130.928 1688 41.0853
131.045 1614 40.1746
131.162 1679 40.9756
131.279 1650 40.6202
131.396 1774 42.1189
131.513 1717 41.4367
131.631 1717 41.4367
131.748 1617 40.2119
131.865 1635 40.4351
131.983 1559 39.4842
132.1 1622 40.2741
132.217 1479 38.4578
132.335 1538 39.2173
132.452 1552 39.3954
132.57 1633 40.4104
132.687 1677 40.9512
132.804 1744 41.7612
132.922 1814 42.5911
133.039 1733 41.6293
133.157 1715 41.4126
133.274 1788 42.2847
133.392 1569 39.6106
133.509 1533 39.1535
133.627 1341 36.6197
133.744 1317 36.2905
133.862 1306 36.1386
133.979 1360 36.8782
134.097 1412 37.5766
134.214 1568 39.598
134.332 1622 40.2741
134.449 1635 40.4351
134.567 1632 40.398
134.684 1715 41.4126
134.802 1758 41.9285
134.919 1695 41.1704
135.037 1738 41.6893
135.154 1710 41.3521
135.272 1716 41.4246
135.389 1685 41.0488
135.507 1661 40.7554
135.624 1630 40.3733
135.742 1594 39.9249
135.859 1523 39.0256
135.977 1562 39.5221
136.094 1660 40.7431
136.211 1778 42.1663
136.329 1777 42.1545
136.446 1795 42.3674
136.564 1753 41.8688
136.681 1814 42.5911
136.798 1784 42.2374
136.915 1715 41.4126
137.033 1597 39.9625
137.15 1520 38.9872
137.267 1411 37.5633
137.384 1327 36.428
137.502 1276 35.7211
137.619 1320 36.3318
137.736 1489 38.5876
137.853 1436 37.8946
137.97 1598 39.975
138.087 1563 39.5348
138.204 1638 40.4722
138.321 1677 40.9512
138.438 1705 41.2916
138.555 1724 41.5211
138.672 1699 41.2189
138.788 1521 39
138.905 1562 39.5221
139.022 1528 39.0896
139.139 1421 37.6962
139.255 1304 36.1109
139.372 1197 34.5977
139.488 1223 34.9714
139.605 1160 34.0588
139.721 1077 32.8177
139.838 1141 33.7787
139.954 1156 34
140.071 1088 32.9848
140.187 985 31.3847
140.303 922 30.3645
140.419 859 29.3087
140.535 843 29.0345
140.652 774 27.8209
140.768 0 1
140.884 0 1
141 0 1
141.115 0 1
141.231 0 1
141.347 0 1
141.463 0 1
141.578 0 1
141.694 0 1
144.104 0 1
144.219 0 1
144.335 0 1
144.45 0 1
144.566 0 1
144.682 0 1
144.798 0 1
144.914 0 1
145.03 0 1
145.146 1226 35.0143
145.262 1375 37.081
145.378 1310 36.1939
145.494 1427 37.7757
145.61 1372 37.0405
145.726 1281 35.7911
145.842 1273 35.6791
145.959 1186 34.4384
146.075 1117 33.4215
146.192 1123 33.5112
146.308 993 31.5119
146.425 1090 33.0151
146.541 1171 34.2199
146.658 1242 35.242
146.774 1170 34.2053
146.891 1278 35.7491
147.008 1301 36.0694
147.125 1279 35.7631
147.241 1267 35.5949
147.358 1384 37.2022
147.475 1371 37.027
147.592 1314 36.2491
147.709 1248 35.327
147.826 1296 36
147.943 1279 35.7631
148.06 1252 35.3836
148.177 1186 34.4384
148.294 1190 34.4964
148.411 1181 34.3657
148.528 1279 35.7631
148.645 1315 36.2629
148.762 1356 36.8239
148.88 1361 36.8917
148.997 1363 36.9188
149.114 1328 36.4417
149.231 1368 36.9865
149.349 1424 37.7359
149.466 1342 36.6333
149.583 1285 35.8469
149.701 1185 34.4238
149.818 1081 32.8786
149.935 1077 32.8177
150.053 1087 32.9697
150.17 1084 32.9242
150.287 1117 33.4215
150.405 1205 34.7131
150.522 1168 34.176
150.64 1246 35.2987
150.757 1270 35.6371
150.875 1340 36.606
150.992 1340 36.606
151.11 1331 36.4829
151.227 1278 35.7491
151.344 1296 36
151.462 1212 34.8138
151.579 1227 35.0286
151.697 1198 34.6121
151.814 1166 34.1467
151.932 1131 33.6303
152.049 1182 34.3802
152.167 1265 35.5668
152.284 1302 36.0832
152.402 1287 35.8748
152.519 1292 35.9444
152.636 1314 36.2491
152.754 1330 36.4692
152.871 1249 35.3412
152.989 1260 35.4965
153.106 1245 35.2846
153.223 1129 33.6006
153.341 1154 33.9706
153.458 1081 32.8786
153.575 1003 31.6702
153.693 1040 32.249
153.81 1048 32.3728
153.927 1106 33.2566
154.044 1147 33.8674
154.162 1163 34.1028
154.279 1153 33.9559
154.396 1233 35.1141
154.513 1191 34.5109
154.63 1269 35.623
154.747 1283 35.819
154.864 1214 34.8425
154.981 1215 34.8569
155.098 1136 33.7046
155.215 1116 33.4066
155.332 1092 33.0454
155.449 1058 32.5269
155.566 1024 32
155.683 1120 33.4664
155.8 1172 34.2345
155.917 1163 34.1028
156.033 1161 34.0735
156.15 0 1
156.267 0 1
156.383 0 1
156.5 0 1
156.617 0 1
156.733 0 1
156.85 0 1
156.966 0 1
157.082 0 1
157.199 0 1
157.315 0 1
157.431 0 1
157.547 0 1
157.664 0 1
157.78 0 1
157.896 0 1
158.012 0 1
158.128 0 1
158.244 0 1
158.359 0 1
158.475 0 1
158.591 0 1
158.706 0 1
