
6.15755 0 1
6.2731 0 1
6.3887 0 1
6.50437 0 1
6.62009 0 1
6.73587 0 1
6.8517 0 1
6.96759 0 1
7.08353 0 1
7.19952 0 1
7.31557 0 1
7.43166 0 1
7.54781 0 1
7.664 0 1
7.78024 0 1
7.89653 0 1
8.01286 0 1
8.12924 0 1
8.24567 0 1
8.36213 0 1
8.47864 0 1
8.59519 0 1
8.71178 0 1
8.82841 0 1
8.94508 0 1
9.06179 0 1
9.17853 0 1
9.29531 0 1
9.41212 0 1
9.52897 0 1
9.64584 0 1
9.76276 0 1
9.8797 0 1
9.99667 0 1
10.1137 0 1
10.2307 0 1
10.3478 0 1
10.4648 0 1
10.5819 0 1
10.6991 0 1
10.8162 0 1
10.9334 0 1
11.0506 0 1
11.1678 0 1
11.285 0 1
11.4023 0 1
11.5196 0 1
11.6369 0 1
11.7542 0 1
11.8715 0 1
11.9888 0 1
12.1062 0 1
12.2235 0 1
12.3409 0 1
12.4582 0 1
12.5756 0 1
12.693 0 1
12.8104 0 1
12.9278 0 1
13.0452 0 1
13.1626 0 1
13.28 0 1
13.3974 0 1
13.5149 0 1
13.6323 0 1
13.7497 0 1
13.8671 0 1
13.9845 0 1
14.1019 0 1
14.2193 0 1
14.3367 0 1
14.4541 0 1
14.5714 0 1
14.6888 0 1
14.8062 0 1
14.9235 0 1
15.0408 1093 33.0606
15.1581 1149 33.8969
15.2755 1042 32.28
15.3927 1117 33.4215
15.51 1103 33.2114
15.6273 1151 33.9264
15.7445 1006 31.7175
15.8617 1014 31.8434
15.9789 1057 32.5115
16.0961 970 31.1448
16.2132 1006 31.7175
16.3304 980 31.305
16.4475 1046 32.3419
16.5646 963 31.0322
16.6816 992 31.496
16.7986 965 31.0644
16.9156 968 31.1127
17.0326 924 30.3974
17.1496 962 31.0161
17.2665 903 30.05
17.3833 954 30.8869
17.5002 915 30.249
17.617 871 29.5127
17.7338 950 30.8221
17.8505 947 30.7734
17.9672 969 31.1288
18.0839 968 31.1127
18.2005 946 30.7571
18.3171 1010 31.7805
18.4337 958 30.9516
18.5502 949 30.8058
18.6666 970 31.1448
18.7831 919 30.315
18.8994 924 30.3974
19.0158 929 30.4795
19.1321 875 29.5804
19.2483 852 29.189
19.3645 831 28.8271
19.4806 806 28.3901
19.5967 796 28.2135
19.7128 758 27.5318
19.8288 745 27.2947
19.9447 602 24.5357
20.0606 0 1
20.1764 0 1
20.2922 0 1
20.4079 0 1
20.5236 0 1
20.6392 0 1
20.7548 0 1
20.8702 0 1
23.3078 0 1
23.4233 0 1
23.539 0 1
23.6547 0 1
23.7704 0 1
23.8862 0 1
24.0021 0 1
24.118 0 1
24.234 0 1
24.35 0 1
24.4661 380 19.4936
24.5822 475 21.7945
24.6984 505 22.4722
24.8146 595 24.3926
24.9309 634 25.1794
25.0472 695 26.3629
25.1636 840 28.9828
25.28 893 29.8831
25.3965 978 31.273
25.513 1064 32.619
25.6296 1023 31.9844
25.7462 1050 32.4037
25.8628 1073 32.7567
25.9795 1033 32.1403
26.0962 1004 31.686
26.213 1062 32.5883
26.3298 886 29.7658
26.4466 946 30.7571
26.5635 928 30.4631
26.6804 832 28.8444
26.7973 855 29.2404
26.9143 894 29.8998
27.0313 889 29.8161
27.1483 853 29.2062
27.2653 872 29.5296
27.3824 867 29.4449
27.4996 871 29.5127
27.6167 839 28.9655
27.7339 795 28.1957
27.8511 851 29.1719
27.9683 875 29.5804
28.0855 896 29.9333
28.2028 864 29.3939
28.3201 896 29.9333
28.4374 888 29.7993
28.5547 851 29.1719
28.6721 870 29.4958
28.7894 859 29.3087
28.9068 878 29.6311
29.0242 880 29.6648
29.1416 853 29.2062
29.259 910 30.1662
29.3764 851 29.1719
29.4939 912 30.1993
29.6113 839 28.9655
29.7288 832 28.8444
29.8463 825 28.7228
29.9638 834 28.8791
30.0812 813 28.5132
30.1987 842 29.0172
30.3162 834 28.8791
30.4337 788 28.0713
30.5512 856 29.2575
30.6687 889 29.8161
30.7862 842 29.0172
30.9037 860 29.3258
31.0212 930 30.4959
31.1387 903 30.05
31.2562 880 29.6648
31.3737 825 28.7228
31.4912 799 28.2666
31.6087 865 29.4109
31.7262 820 28.6356
31.8436 873 29.5466
31.9611 788 28.0713
32.0785 850 29.1548
32.1959 853 29.2062
32.3134 773 27.8029
32.4308 799 28.2666
32.5482 826 28.7402
32.6655 838 28.9482
32.7829 772 27.7849
32.9002 775 27.8388
33.0176 801 28.3019
33.1349 733 27.074
33.2522 802 28.3196
33.3694 759 27.55
33.4867 769 27.7308
33.6039 743 27.258
33.7211 797 28.2312
33.8383 793 28.1603
33.9554 854 29.2233
34.0725 801 28.3019
34.1896 828 28.775
34.3067 815 28.5482
34.4237 779 27.9106
34.5407 818 28.6007
34.6577 806 28.3901
34.7746 804 28.3549
34.8915 778 27.8927
35.0084 712 26.6833
35.1252 772 27.7849
35.242 722 26.8701
35.3587 840 28.9828
35.4755 752 27.4226
35.5921 749 27.3679
35.7088 697 26.4008
35.8254 652 25.5343
35.9419 726 26.9444
36.0584 689 26.2488
36.1749 749 27.3679
36.2913 750 27.3861
36.4077 702 26.4953
36.524 697 26.4008
36.6403 669 25.865
36.7565 609 24.6779
36.8727 579 24.0624
36.9889 562 23.7065
37.1049 506 22.4944
37.221 0 1
37.3369 0 1
37.4529 0 1
37.5687 0 1
37.6845 0 1
37.8003 0 1
37.916 0 1
38.0316 0 1
38.1472 0 1
40.5851 0 1
40.7008 0 1
40.8164 0 1
40.9322 0 1
41.048 0 1
41.1639 0 1
41.2798 0 1
41.3958 0 1
41.5118 0 1
41.6279 0 1
41.744 277 16.6433
41.8602 366 19.1311
41.9765 396 19.8997
42.0928 476 21.8174
42.2091 500 22.3607
42.3255 572 23.9165
42.4419 594 24.3721
42.5584 617 24.8395
42.675 559 23.6432
42.7915 555 23.5584
42.9081 604 24.5764
43.0248 592 24.3311
43.1415 568 23.8328
43.2582 605 24.5967
43.375 604 24.5764
43.4918 589 24.2693
43.6087 603 24.5561
43.7256 560 23.6643
43.8425 541 23.2594
43.9595 523 22.8692
44.0765 539 23.2164
44.1935 579 24.0624
44.3106 581 24.1039
44.4277 548 23.4094
44.5448 526 22.9347
44.6619 502 22.4054
44.7791 549 23.4307
44.8963 573 23.9374
45.0136 582 24.1247
45.1308 583 24.1454
45.2481 619 24.8797
45.3654 590 24.2899
45.4827 633 25.1595
45.6001 626 25.02
45.7174 660 25.6905
45.8348 646 25.4165
45.9522 632 25.1396
46.0697 601 24.5153
46.1871 598 24.454
46.3046 573 23.9374
46.422 533 23.0868
46.5395 527 22.9565
46.657 524 22.891
46.7745 540 23.2379
46.892 526 22.9347
47.0096 600 24.4949
47.1271 604 24.5764
47.2446 594 24.3721
47.3622 567 23.8118
47.4797 568 23.8328
47.5973 541 23.2594
47.7149 614 24.779
47.8324 595 24.3926
47.95 505 22.4722
48.0675 532 23.0651
48.1851 499 22.3383
48.3027 512 22.6274
48.4202 556 23.5797
48.5378 567 23.8118
48.6554 553 23.516
48.7729 584 24.1661
48.8904 592 24.3311
49.008 605 24.5967
49.1255 555 23.5584
49.243 596 24.4131
49.3605 575 23.9792
49.478 555 23.5584
49.5955 563 23.7276
49.713 529 23
49.8304 519 22.7816
49.9479 530 23.0217
50.0653 473 21.7486
50.1827 494 22.2261
50.3001 449 21.1896
50.4175 515 22.6936
50.5348 536 23.1517
50.6521 568 23.8328
50.7694 515 22.6936
50.8867 481 21.9317
51.004 517 22.7376
51.1212 537 23.1733
51.2384 536 23.1517
51.3556 538 23.1948
51.4727 543 23.3024
51.5899 502 22.4054
51.707 508 22.5389
51.824 511 22.6053
51.9411 485 22.0227
52.0581 505 22.4722
52.175 525 22.9129
52.2919 534 23.1084
52.4088 594 24.3721
52.5257 559 23.6432
52.6425 590 24.2899
52.7593 582 24.1247
52.876 547 23.388
52.9927 523 22.8692
53.1094 540 23.2379
53.226 533 23.0868
53.3426 520 22.8035
53.4591 570 23.8747
53.5756 500 22.3607
53.692 475 21.7945
53.8084 428 20.6882
53.9248 374 19.3391
54.0411 403 20.0749
54.1573 373 19.3132
54.2735 0 1
54.3896 0 1
54.5057 0 1
54.6217 0 1
54.7377 0 1
54.8537 0 1
54.9695 0 1
55.0853 0 1
55.2011 0 1
55.3168 0 1
55.4324 0 1
57.824 0 1
57.9396 0 1
58.0553 0 1
58.1711 0 1
58.2869 0 1
58.4028 0 1
58.5187 0 1
58.6347 0 1
58.7508 0 1
58.8669 0 1
58.983 389 19.7231
59.0992 413 20.3224
59.2155 543 23.3024
59.3318 558 23.622
59.4482 646 25.4165
59.5646 712 26.6833
59.681 710 26.6458
59.7975 667 25.8263
59.9141 769 27.7308
60.0306 793 28.1603
60.1473 784 28
60.2639 726 26.9444
60.3807 795 28.1957
60.4974 741 27.2213
60.6142 722 26.8701
60.731 741 27.2213
60.8479 795 28.1957
60.9648 808 28.4253
61.0818 800 28.2843
61.1987 781 27.9464
61.3158 780 27.9285
61.4328 824 28.7054
61.5499 879 29.6479
61.667 789 28.0891
61.7841 767 27.6948
61.9013 849 29.1376
62.0185 765 27.6586
62.1357 741 27.2213
62.253 743 27.258
62.3702 626 25.02
62.4875 655 25.593
62.6049 641 25.318
62.7222 672 25.923
62.8396 685 26.1725
62.9569 719 26.8142
63.0743 720 26.8328
63.1918 742 27.2397
63.3092 670 25.8844
63.4267 722 26.8701
63.5441 733 27.074
63.6616 677 26.0192
63.7791 640 25.2982
63.8966 650 25.4951
64.0142 608 24.6577
64.1317 598 24.454
64.2492 615 24.7992
64.3668 619 24.8797
64.4843 624 24.98
64.6019 654 25.5734
64.7195 611 24.7184
64.837 613 24.7588
64.9546 660 25.6905
65.0722 635 25.1992
65.1898 651 25.5147
65.3074 653 25.5539
65.4249 665 25.7876
65.5425 655 25.593
65.6601 630 25.0998
65.7777 645 25.3969
65.8952 591 24.3105
66.0128 566 23.7908
66.1304 615 24.7992
66.2479 577 24.0208
66.3655 624 24.98
66.483 604 24.5764
66.6005 648 25.4558
66.718 681 26.096
66.8355 633 25.1595
66.953 643 25.3574
67.0705 646 25.4165
67.1879 625 25
67.3054 621 24.9199
67.4228 558 23.622
67.5402 608 24.6577
67.6576 537 23.1733
67.7749 585 24.1868
67.8923 608 24.6577
68.0096 580 24.0832
68.1269 608 24.6577
68.2442 619 24.8797
68.3614 635 25.1992
68.4787 631 25.1197
68.5958 622 24.9399
68.713 616 24.8193
68.8302 646 25.4165
68.9473 706 26.5707
69.0643 614 24.779
69.1814 645 25.3969
69.2984 627 25.04
69.4154 582 24.1247
69.5323 587 24.2281
69.6492 555 23.5584
69.7661 573 23.9374
69.8829 609 24.6779
69.9997 607 24.6374
70.1165 595 24.3926
70.2332 620 24.8998
70.3499 625 25
70.4665 616 24.8193
70.5831 514 22.6716
70.6996 492 22.1811
70.8161 465 21.5639
70.9326 433 20.8087
71.049 400 20
71.1653 346 18.6011
71.2817 336 18.3303
71.3979 294 17.1464
71.5141 268 16.3707
71.6303 259 16.0935
71.7464 216 14.6969
71.8624 0 1
71.9784 0 1
72.0944 0 1
72.2102 0 1
72.3261 0 1
72.4418 0 1
72.5575 0 1
72.6732 0 1
75.1054 0 1
75.2209 0 1
75.3365 0 1
75.4521 0 1
75.5678 0 1
75.6835 0 1
75.7993 0 1
75.9151 0 1
76.031 0 1
76.147 355 18.8414
76.263 431 20.7605
76.3791 439 20.9523
76.4952 474 21.7715
76.6113 439 20.9523
76.7276 485 22.0227
76.8438 492 22.1811
76.9601 500 22.3607
77.0765 507 22.5167
77.1929 516 22.7156
77.3093 554 23.5372
77.4258 535 23.1301
77.5423 523 22.8692
77.6589 584 24.1661
77.7755 588 24.2487
77.8921 577 24.0208
78.0088 562 23.7065
78.1256 545 23.3452
78.2423 552 23.4947
78.3591 533 23.0868
78.4759 531 23.0434
78.5928 487 22.0681
78.7097 449 21.1896
78.8266 470 21.6795
78.9436 548 23.4094
79.0606 473 21.7486
79.1776 500 22.3607
79.2946 533 23.0868
79.4117 590 24.2899
79.5288 544 23.3238
79.6459 572 23.9165
79.7631 520 22.8035
79.8802 573 23.9374
79.9974 512 22.6274
80.1147 539 23.2164
80.2319 507 22.5167
80.3491 474 21.7715
80.4664 537 23.1733
80.5837 544 23.3238
80.701 551 23.4734
80.8183 557 23.6008
80.9357 514 22.6716
81.053 562 23.7065
81.1704 612 24.7386
81.2877 581 24.1039
81.4051 589 24.2693
81.5225 622 24.9399
81.6399 627 25.04
81.7573 597 24.4336
81.8747 590 24.2899
81.9922 565 23.7697
82.1096 572 23.9165
82.227 504 22.4499
82.3444 513 22.6495
82.4619 499 22.3383
82.5793 529 23
82.6967 544 23.3238
82.8142 538 23.1948
82.9316 560 23.6643
83.049 549 23.4307
83.1664 623 24.96
83.2838 614 24.779
83.4012 573 23.9374
83.5186 583 24.1454
83.636 561 23.6854
83.7534 507 22.5167
83.8708 538 23.1948
83.9881 490 22.1359
84.1055 499 22.3383
84.2228 528 22.9783
84.3401 568 23.8328
84.4575 587 24.2281
84.5747 513 22.6495
84.692 575 23.9792
84.8093 589 24.2693
84.9265 616 24.8193
85.0437 606 24.6171
85.1609 576 24
85.2781 614 24.779
85.3952 649 25.4755
85.5123 575 23.9792
85.6294 600 24.4949
85.7465 569 23.8537
85.8636 523 22.8692
85.9806 501 22.383
86.0976 547 23.388
86.2145 563 23.7276
86.3315 573 23.9374
86.4484 585 24.1868
86.5652 626 25.02
86.682 643 25.3574
86.7988 618 24.8596
86.9156 623 24.96
87.0323 601 24.5153
87.149 629 25.0799
87.2657 562 23.7065
87.3823 533 23.0868
87.4988 525 22.9129
87.6154 532 23.0651
87.7318 498 22.3159
87.8483 467 21.6102
87.9647 472 21.7256
88.081 487 22.0681
88.1973 465 21.5639
88.3136 428 20.6882
88.4298 423 20.567
88.546 401 20.025
88.6621 340 18.4391
88.7781 365 19.105
88.8942 0 1
89.0101 0 1
89.126 0 1
89.2419 0 1
89.3577 0 1
89.4734 0 1
89.5891 0 1
89.7047 0 1
89.8203 0 1
89.9358 0 1
92.3269 0 1
92.4424 0 1
92.558 0 1
92.6736 0 1
92.7893 0 1
92.905 0 1
93.0208 0 1
93.1366 0 1
93.2525 0 1
93.3685 0 1
93.4845 0 1
93.6005 447 21.1424
93.7167 460 21.4476
93.8328 539 23.2164
93.949 536 23.1517
94.0653 579 24.0624
94.1816 585 24.1868
94.2979 620 24.8998
94.4143 631 25.1197
94.5307 642 25.3377
94.6472 640 25.2982
94.7637 673 25.9422
94.8803 546 23.3666
94.9969 565 23.7697
95.1135 575 23.9792
95.2302 564 23.7487
95.3469 563 23.7276
95.4637 625 25
95.5805 661 25.7099
95.6973 674 25.9615
95.8142 599 24.4745
95.9311 613 24.7588
96.048 611 24.7184
96.1649 614 24.779
96.2819 644 25.3772
96.3989 670 25.8844
96.516 570 23.8747
96.633 554 23.5372
96.7501 594 24.3721
96.8673 557 23.6008
96.9844 618 24.8596
97.1016 587 24.2281
97.2188 584 24.1661
97.336 622 24.9399
97.4532 640 25.2982
97.5704 630 25.0998
97.6877 648 25.4558
97.805 665 25.7876
97.9223 706 26.5707
98.0396 685 26.1725
98.1569 684 26.1534
98.2743 634 25.1794
98.3916 646 25.4165
98.509 592 24.3311
98.6264 662 25.7294
98.7438 631 25.1197
98.8612 640 25.2982
98.9786 699 26.4386
99.096 686 26.1916
99.2134 741 27.2213
99.3308 784 28
99.4482 723 26.8887
99.5656 780 27.9285
99.6831 766 27.6767
99.8005 788 28.0713
99.9179 702 26.4953
100.035 683 26.1343
100.153 691 26.2869
100.27 705 26.5518
100.388 694 26.3439
100.505 699 26.4386
100.622 777 27.8747
100.74 729 27
100.857 732 27.0555
100.975 705 26.5518
101.092 675 25.9808
101.209 716 26.7582
101.327 697 26.4008
101.444 760 27.5681
101.561 752 27.4226
101.679 715 26.7395
101.796 732 27.0555
101.913 672 25.923
102.03 627 25.04
102.148 636 25.219
102.265 652 25.5343
102.382 662 25.7294
102.499 668 25.8457
102.616 704 26.533
102.733 720 26.8328
102.851 702 26.4953
102.968 779 27.9106
103.085 777 27.8747
103.202 716 26.7582
103.319 730 27.0185
103.436 724 26.9072
103.552 687 26.2107
103.669 714 26.7208
103.786 713 26.7021
103.903 744 27.2764
104.02 713 26.7021
104.137 731 27.037
104.253 684 26.1534
104.37 675 25.9808
104.487 667 25.8263
104.603 711 26.6646
104.72 722 26.8701
104.836 709 26.6271
104.953 715 26.7395
105.069 684 26.1534
105.186 683 26.1343
105.302 651 25.5147
105.418 528 22.9783
105.535 553 23.516
105.651 523 22.8692
105.767 441 21
105.883 400 20
105.999 401 20.025
106.115 0 1
106.231 0 1
106.347 0 1
106.463 0 1
106.579 0 1
106.694 0 1
106.81 0 1
106.926 0 1
107.041 0 1
107.157 0 1
109.576 0 1
109.692 0 1
109.807 0 1
109.923 0 1
110.039 0 1
110.155 0 1
110.27 0 1
110.386 0 1
110.502 0 1
110.618 320 17.8885
110.735 358 18.9209
110.851 392 19.799
110.967 461 21.4709
111.083 500 22.3607
111.199 557 23.6008
111.316 648 25.4558
111.432 638 25.2587
111.549 651 25.5147
111.665 687 26.2107
111.782 609 24.6779
111.898 659 25.671
112.015 622 24.9399
112.132 632 25.1396
112.248 578 24.0416
112.365 593 24.3516
112.482 663 25.7488
112.599 641 25.318
112.716 696 26.3818
112.832 665 25.7876
112.949 625 25
113.066 564 23.7487
113.183 616 24.8193
113.3 616 24.8193
113.417 606 24.6171
113.534 609 24.6779
113.652 622 24.9399
113.769 642 25.3377
113.886 620 24.8998
114.003 594 24.3721
114.12 611 24.7184
114.238 550 23.4521
114.355 549 23.4307
114.472 567 23.8118
114.589 528 22.9783
114.707 628 25.0599
114.824 601 24.5153
114.942 545 23.3452
115.059 569 23.8537
115.176 605 24.5967
115.294 616 24.8193
115.411 556 23.5797
115.529 607 24.6374
115.646 554 23.5372
115.764 577 24.0208
115.881 554 23.5372
115.999 600 24.4949
116.116 522 22.8473
116.234 569 23.8537
116.351 602 24.5357
116.469 582 24.1247
116.586 538 23.1948
116.704 564 23.7487
116.821 564 23.7487
116.939 520 22.8035
117.056 548 23.4094
117.174 511 22.6053
117.291 548 23.4094
117.409 546 23.3666
117.526 526 22.9347
117.644 508 22.5389
117.761 502 22.4054
117.879 476 21.8174
117.996 519 22.7816
118.114 510 22.5832
118.231 533 23.0868
118.349 531 23.0434
118.466 576 24
118.584 554 23.5372
118.701 563 23.7276
118.819 555 23.5584
118.936 571 23.8956
119.053 514 22.6716
119.171 498 22.3159
119.288 488 22.0907
119.405 509 22.561
119.523 511 22.6053
119.64 491 22.1585
119.757 512 22.6274
119.875 528 22.9783
119.992 549 23.4307
120.109 540 23.2379
120.226 535 23.1301
120.343 539 23.2164
120.46 505 22.4722
120.578 485 22.0227
120.695 501 22.383
120.812 543 23.3024
120.929 531 23.0434
121.046 544 23.3238
121.163 474 21.7715
121.279 464 21.5407
121.396 456 21.3542
121.513 461 21.4709
121.63 450 21.2132
121.747 399 19.975
121.863 470 21.6795
121.98 438 20.9284
122.097 489 22.1133
122.213 441 21
122.33 441 21
122.446 419 20.4695
122.563 361 19
122.679 368 19.1833
122.795 319 17.8606
122.912 306 17.4929
123.028 295 17.1756
123.144 290 17.0294
123.26 287 16.9411
123.377 0 1
123.493 0 1
123.609 0 1
123.725 0 1
123.84 0 1
123.956 0 1
124.072 0 1
124.188 0 1
124.303 0 1
124.419 0 1
126.852 0 1
126.968 0 1
127.083 0 1
127.199 0 1
127.315 0 1
127.431 0 1
127.547 0 1
127.663 0 1
127.779 0 1
127.895 0 1
128.011 0 1
128.127 0 1
128.243 0 1
128.359 484 22
128.476 498 22.3159
128.592 583 24.1454
128.708 570 23.8747
128.825 568 23.8328
128.941 572 23.9165
129.058 560 23.6643
129.174 541 23.2594
129.291 594 24.3721
129.408 560 23.6643
129.524 549 23.4307
129.641 591 24.3105
129.758 615 24.7992
129.875 621 24.9199
129.992 585 24.1868
130.108 610 24.6982
130.225 541 23.2594
130.342 544 23.3238
130.459 534 23.1084
130.576 608 24.6577
130.693 556 23.5797
130.81 552 23.4947
130.928 613 24.7588
131.045 682 26.1151
131.162 714 26.7208
131.279 744 27.2764
131.396 789 28.0891
131.513 810 28.4605
131.631 755 27.4773
131.748 694 26.3439
131.865 791 28.1247
131.983 860 29.3258
132.1 912 30.1993
132.217 1002 31.6544
132.335 1029 32.078
132.452 1037 32.2025
132.57 1091 33.0303
132.687 1143 33.8083
132.804 1217 34.8855
132.922 1239 35.1994
133.039 1226 35.0143
133.157 1274 35.6931
133.274 1353 36.7831
133.392 1370 37.0135
133.509 1360 36.8782
133.627 1370 37.0135
133.744 1233 35.1141
133.862 1209 34.7707
133.979 1186 34.4384
134.097 1220 34.9285
134.214 1401 37.4299
134.332 1399 37.4032
134.449 1478 38.4448
134.567 1597 39.9625
134.684 1676 40.939
134.802 1681 41
134.919 1728 41.5692
135.037 1726 41.5452
135.154 1667 40.8289
135.272 1413 37.5899
135.389 1483 38.5097
135.507 1565 39.5601
135.624 1696 41.1825
135.742 1676 40.939
135.859 1730 41.5933
135.977 1708 41.328
136.094 1690 41.1096
136.211 1726 41.5452
136.329 1717 41.4367
136.446 1639 40.4846
136.564 1572 39.6485
136.681 1572 39.6485
136.798 1573 39.6611
136.915 1554 39.4208
137.033 1559 39.4842
137.15 1487 38.5616
137.267 1337 36.565
137.384 1172 34.2345
137.502 1126 33.5559
137.619 1089 33
137.736 1098 33.1361
137.853 1145 33.8378
137.97 1217 34.8855
138.087 1254 35.4119
138.204 1269 35.623
138.321 1269 35.623
138.438 1326 36.4143
138.555 1321 36.3456
138.672 1320 36.3318
138.788 1251 35.3695
138.905 1034 32.1559
139.022 947 30.7734
139.139 981 31.3209
139.255 1059 32.5423
139.372 949 30.8058
139.488 1034 32.1559
139.605 986 31.4006
139.721 914 30.2324
139.838 858 29.2916
139.954 790 28.1069
140.071 737 27.1477
140.187 756 27.4955
140.303 669 25.865
140.419 652 25.5343
140.535 661 25.7099
140.652 591 24.3105
140.768 0 1
140.884 0 1
141 0 1
141.115 0 1
141.231 0 1
141.347 0 1
141.463 0 1
141.578 0 1
141.694 0 1
144.104 0 1
144.219 0 1
144.335 0 1
144.45 0 1
144.566 0 1
144.682 0 1
144.798 0 1
144.914 0 1
145.03 0 1
145.146 1312 36.2215
145.262 1330 36.4692
145.378 1443 37.9868
145.494 1469 38.3275
145.61 1535 39.1791
145.726 1494 38.6523
145.842 1529 39.1024
145.959 1588 39.8497
146.075 1612 40.1497
146.192 1596 39.95
146.308 1561 39.5095
146.425 1615 40.1871
146.541 1665 40.8044
146.658 1597 39.9625
146.774 1575 39.6863
146.891 1667 40.8289
147.008 1697 41.1947
147.125 1710 41.3521
147.241 1835 42.8369
147.358 1755 41.8927
147.475 1794 42.3556
147.592 1609 40.1123
147.709 1638 40.4722
147.826 1564 39.5474
147.943 1615 40.1871
148.06 1638 40.4722
148.177 1764 42
148.294 1886 43.4281
148.411 1962 44.2945
148.528 1964 44.317
148.645 1994 44.6542
148.762 2030 45.0555
148.88 2163 46.5081
148.997 2230 47.2229
149.114 2182 46.7119
149.231 2456 49.558
149.349 2593 50.9215
149.466 2837 53.2635
149.583 2979 54.5802
149.701 3257 57.0701
149.818 3157 56.1872
149.935 3472 58.9237
150.053 3591 59.925
150.17 3784 61.5142
150.287 4099 64.0234
150.405 4348 65.9394
150.522 4497 67.0597
150.64 4659 68.2569
150.757 5035 70.9577
150.875 5113 71.5052
150.992 5275 72.6292
151.11 5210 72.1803
151.227 4436 66.6033
151.344 3603 60.025
151.462 4013 63.3482
151.579 5360 73.212
151.697 6095 78.0705
151.814 6430 80.1873
151.932 6636 81.4616
152.049 6928 83.2346
152.167 7069 84.0773
152.284 7299 85.4342
152.402 7345 85.703
152.519 7195 84.8233
152.636 7342 85.6855
152.754 7551 86.8965
152.871 7591 87.1263
152.989 7370 85.8487
153.106 7581 87.0689
153.223 7496 86.5794
153.341 7397 86.0058
153.458 7270 85.2643
153.575 7231 85.0353
153.693 7144 84.5222
153.81 7146 84.534
153.927 6996 83.6421
154.044 7060 84.0238
154.162 6977 83.5284
154.279 7094 84.2259
154.396 7043 83.9226
154.513 7224 84.9941
154.63 6784 82.365
154.747 6430 80.1873
154.864 6947 83.3487
154.981 7579 87.0575
155.098 8156 90.3106
155.215 8521 92.3093
155.332 8870 94.1807
155.449 8927 94.4828
155.566 9289 96.3795
155.683 9412 97.0155
155.8 9589 97.9234
155.917 9814 99.0656
156.033 10203 101.01
156.15 0 1
156.267 0 1
156.383 0 1
156.5 0 1
156.617 0 1
156.733 0 1
156.85 0 1
156.966 0 1
157.082 0 1
157.199 0 1
157.315 0 1
157.431 0 1
157.547 0 1
157.664 0 1
157.78 0 1
157.896 0 1
158.012 0 1
158.128 0 1
158.244 0 1
158.359 0 1
158.475 0 1
158.591 0 1
158.706 0 1
