
6.15755 0 1
6.2731 0 1
6.3887 0 1
6.50437 0 1
6.62009 0 1
6.73587 0 1
6.8517 0 1
6.96759 0 1
7.08353 0 1
7.19952 0 1
7.31557 0 1
7.43166 0 1
7.54781 0 1
7.664 0 1
7.78024 0 1
7.89653 0 1
8.01286 0 1
8.12924 0 1
8.24567 0 1
8.36213 0 1
8.47864 0 1
8.59519 0 1
8.71178 0 1
8.82841 0 1
8.94508 0 1
9.06179 0 1
9.17853 0 1
9.29531 0 1
9.41212 0 1
9.52897 0 1
9.64584 0 1
9.76276 0 1
9.8797 0 1
9.99667 0 1
10.1137 0 1
10.2307 0 1
10.3478 0 1
10.4648 0 1
10.5819 0 1
10.6991 0 1
10.8162 0 1
10.9334 0 1
11.0506 0 1
11.1678 0 1
11.285 0 1
11.4023 0 1
11.5196 0 1
11.6369 0 1
11.7542 0 1
11.8715 0 1
11.9888 0 1
12.1062 0 1
12.2235 0 1
12.3409 0 1
12.4582 0 1
12.5756 0 1
12.693 0 1
12.8104 0 1
12.9278 0 1
13.0452 0 1
13.1626 0 1
13.28 0 1
13.3974 0 1
13.5149 0 1
13.6323 0 1
13.7497 0 1
13.8671 0 1
13.9845 0 1
14.1019 0 1
14.2193 0 1
14.3367 0 1
14.4541 0 1
14.5714 0 1
14.6888 0 1
14.8062 0 1
14.9235 0 1
15.0408 0 0
15.1581 0 0
15.2755 0 0
15.3927 0 0
15.51 0 0
15.6273 0 0
15.7445 0 0
15.8617 0 0
15.9789 0 0
16.0961 0 0
16.2132 0 0
16.3304 0 0
16.4475 0 0
16.5646 0 0
16.6816 0 0
16.7986 0 0
16.9156 0 0
17.0326 0 0
17.1496 0 0
17.2665 0 0
17.3833 0 0
17.5002 0 0
17.617 0 0
17.7338 0 0
17.8505 0 0
17.9672 0 0
18.0839 0 0
18.2005 0 0
18.3171 0 0
18.4337 0 0
18.5502 0 0
18.6666 0 0
18.7831 0 0
18.8994 0 0
19.0158 0 0
19.1321 0 0
19.2483 0 0
19.3645 0 0
19.4806 0 0
19.5967 0 0
19.7128 0 0
19.8288 0 0
19.9447 0 0
20.0606 0 1
20.1764 0 1
20.2922 0 1
20.4079 0 1
20.5236 0 1
20.6392 0 1
20.7548 0 1
20.8702 0 1
23.3078 0 1
23.4233 0 1
23.539 0 1
23.6547 0 1
23.7704 0 1
23.8862 0 1
24.0021 0 1
24.118 0 1
24.234 0 1
24.35 0 1
24.4661 1652 40.6448
24.5822 1575 39.6863
24.6984 1558 39.4715
24.8146 1424 37.7359
24.9309 1426 37.7624
25.0472 1417 37.6431
25.1636 1444 38
25.28 1559 39.4842
25.3965 1593 39.9124
25.513 1735 41.6533
25.6296 1825 42.72
25.7462 1789 42.2966
25.8628 1910 43.7035
25.9795 1839 42.8836
26.0962 1825 42.72
26.213 1878 43.3359
26.3298 1807 42.5088
26.4466 1716 41.4246
26.5635 1734 41.6413
26.6804 1630 40.3733
26.7973 1657 40.7063
26.9143 1683 41.0244
27.0313 1725 41.5331
27.1483 1772 42.0951
27.2653 1813 42.5793
27.3824 1789 42.2966
27.4996 1777 42.1545
27.6167 1779 42.1782
27.7339 1833 42.8135
27.8511 1802 42.45
27.9683 1688 41.0853
28.0855 1653 40.6571
28.2028 1619 40.2368
28.3201 1504 38.7814
28.4374 1442 37.9737
28.5547 1358 36.8511
28.6721 1444 38
28.7894 1424 37.7359
28.9068 1509 38.8458
29.0242 1597 39.9625
29.1416 1715 41.4126
29.259 1714 41.4005
29.3764 1754 41.8808
29.4939 1792 42.332
29.6113 1841 42.9069
29.7288 1775 42.1307
29.8463 1786 42.2611
29.9638 1729 41.5812
30.0812 1748 41.8091
30.1987 1628 40.3485
30.3162 1588 39.8497
30.4337 1586 39.8246
30.5512 1666 40.8167
30.6687 1750 41.833
30.7862 1748 41.8091
30.9037 1737 41.6773
31.0212 1768 42.0476
31.1387 1828 42.7551
31.2562 1856 43.0813
31.3737 1780 42.19
31.4912 1752 41.8569
31.6087 1705 41.2916
31.7262 1648 40.5956
31.8436 1463 38.2492
31.9611 1397 37.3765
32.0785 1449 38.0657
32.1959 1394 37.3363
32.3134 1474 38.3927
32.4308 1522 39.0128
32.5482 1662 40.7676
32.6655 1782 42.2137
32.7829 1758 41.9285
32.9002 1800 42.4264
33.0176 1731 41.6053
33.1349 1849 43
33.2522 1793 42.3438
33.3694 1821 42.6732
33.4867 1774 42.1189
33.6039 1740 41.7133
33.7211 1719 41.4608
33.8383 1681 41
33.9554 1682 41.0122
34.0725 1673 40.9023
34.1896 1773 42.107
34.3067 1752 41.8569
34.4237 1793 42.3438
34.5407 1863 43.1625
34.6577 1829 42.7668
34.7746 1748 41.8091
34.8915 1812 42.5676
35.0084 1824 42.7083
35.1252 1752 41.8569
35.242 1712 41.3763
35.3587 1681 41
35.4755 1684 41.0366
35.5921 1512 38.8844
35.7088 1388 37.2559
35.8254 1325 36.4005
35.9419 1303 36.0971
36.0584 1427 37.7757
36.1749 1497 38.6911
36.2913 1562 39.5221
36.4077 1674 40.9145
36.524 1761 41.9643
36.6403 1822 42.6849
36.7565 1833 42.8135
36.8727 1793 42.3438
36.9889 1771 42.0833
37.1049 1827 42.7434
37.221 0 1
37.3369 0 1
37.4529 0 1
37.5687 0 1
37.6845 0 1
37.8003 0 1
37.916 0 1
38.0316 0 1
38.1472 0 1
40.5851 0 1
40.7008 0 1
40.8164 0 1
40.9322 0 1
41.048 0 1
41.1639 0 1
41.2798 0 1
41.3958 0 1
41.5118 0 1
41.6279 0 1
41.744 1516 38.9358
41.8602 1579 39.7366
41.9765 1594 39.9249
42.0928 1607 40.0874
42.2091 1668 40.8412
42.3255 1688 41.0853
42.4419 1562 39.5221
42.5584 1548 39.3446
42.675 1543 39.281
42.7915 1554 39.4208
42.9081 1561 39.5095
43.0248 1541 39.2556
43.1415 1592 39.8999
43.2582 1607 40.0874
43.375 1603 40.0375
43.4918 1695 41.1704
43.6087 1645 40.5586
43.7256 1675 40.9268
43.8425 1566 39.5727
43.9595 1490 38.6005
44.0765 1530 39.1152
44.1935 1491 38.6135
44.3106 1377 37.108
44.4277 1330 36.4692
44.5448 1095 33.0908
44.6619 1022 31.9687
44.7791 1168 34.176
44.8963 1205 34.7131
45.0136 1297 36.0139
45.1308 1366 36.9594
45.2481 1494 38.6523
45.3654 1413 37.5899
45.4827 1395 37.3497
45.6001 1394 37.3363
45.7174 1464 38.2623
45.8348 1451 38.092
45.9522 1399 37.4032
46.0697 1369 37
46.1871 1307 36.1525
46.3046 1345 36.6742
46.422 1317 36.2905
46.5395 1307 36.1525
46.657 1323 36.3731
46.7745 1355 36.8103
46.892 1344 36.6606
47.0096 1347 36.7015
47.1271 1329 36.4555
47.2446 1381 37.1618
47.3622 1319 36.318
47.4797 1321 36.3456
47.5973 1295 35.9861
47.7149 1254 35.4119
47.8324 1187 34.4529
47.95 1038 32.218
48.0675 964 31.0483
48.1851 914 30.2324
48.3027 870 29.4958
48.4202 962 31.0161
48.5378 1054 32.4654
48.6554 1152 33.9411
48.7729 1214 34.8425
48.8904 1202 34.6699
49.008 1169 34.1906
49.1255 1201 34.6554
49.243 1269 35.623
49.3605 1242 35.242
49.478 1256 35.4401
49.5955 1255 35.426
49.713 1315 36.2629
49.8304 1267 35.5949
49.9479 1260 35.4965
50.0653 1219 34.9142
50.1827 1331 36.4829
50.3001 1392 37.3095
50.4175 1450 38.0789
50.5348 1488 38.5746
50.6521 1532 39.1408
50.7694 1632 40.398
50.8867 1571 39.6358
51.004 1542 39.2683
51.1212 1571 39.6358
51.2384 1612 40.1497
51.3556 1547 39.3319
51.4727 1442 37.9737
51.5899 1331 36.4829
51.707 1238 35.1852
51.824 1271 35.6511
51.9411 1449 38.0657
52.0581 1608 40.0999
52.175 1757 41.9166
52.2919 1820 42.6615
52.4088 1947 44.1248
52.5257 1955 44.2154
52.6425 1963 44.3058
52.7593 1873 43.2782
52.876 1935 43.9886
52.9927 2066 45.4533
53.1094 2065 45.4423
53.226 2166 46.5403
53.3426 1977 44.4635
53.4591 2097 45.793
53.5756 2077 45.5741
53.692 2053 45.31
53.8084 2204 46.9468
53.9248 2151 46.3789
54.0411 2330 48.2701
54.1573 2262 47.5605
54.2735 0 1
54.3896 0 1
54.5057 0 1
54.6217 0 1
54.7377 0 1
54.8537 0 1
54.9695 0 1
55.0853 0 1
55.2011 0 1
55.3168 0 1
55.4324 0 1
57.824 0 1
57.9396 0 1
58.0553 0 1
58.1711 0 1
58.2869 0 1
58.4028 0 1
58.5187 0 1
58.6347 0 1
58.7508 0 1
58.8669 0 1
58.983 2941 54.231
59.0992 2944 54.2586
59.2155 3239 56.9122
59.3318 3155 56.1694
59.4482 3176 56.356
59.5646 3194 56.5155
59.681 3055 55.2721
59.7975 3021 54.9636
59.9141 2991 54.69
60.0306 2762 52.5547
60.1473 2613 51.1175
60.2639 2419 49.1833
60.3807 2241 47.3392
60.4974 2227 47.1911
60.6142 2437 49.366
60.731 2637 51.3517
60.8479 2931 54.1387
60.9648 3105 55.7225
61.0818 3246 56.9737
61.1987 3285 57.3149
61.3158 3235 56.8771
61.4328 3268 57.1664
61.5499 3294 57.3934
61.667 3312 57.55
61.7841 3239 56.9122
61.9013 3180 56.3915
62.0185 3220 56.745
62.1357 3183 56.4181
62.253 3214 56.6922
62.3702 3182 56.4092
62.4875 3185 56.4358
62.6049 3359 57.9569
62.7222 3404 58.3438
62.8396 3461 58.8303
62.9569 3510 59.2453
63.0743 3454 58.7707
63.1918 3398 58.2924
63.3092 3331 57.7148
63.4267 3185 56.4358
63.5441 3001 54.7814
63.6616 2853 53.4135
63.7791 2573 50.7247
63.8966 2293 47.8853
64.0142 2346 48.4355
64.1317 2541 50.4083
64.2492 2884 53.7029
64.3668 3103 55.7046
64.4843 3356 57.931
64.6019 3400 58.3095
64.7195 3539 59.4895
64.837 3501 59.1692
64.9546 3525 59.3717
65.0722 3562 59.6825
65.1898 3513 59.2706
65.3074 3496 59.127
65.4249 3422 58.4979
65.5425 3536 59.4643
65.6601 3495 59.1185
65.7777 3516 59.2959
65.8952 3574 59.7829
66.0128 3443 58.6771
66.1304 3572 59.7662
66.2479 3654 60.4483
66.3655 3709 60.9016
66.483 3723 61.0164
66.6005 3797 61.6198
66.718 3746 61.2046
66.8355 3705 60.8687
66.953 3459 58.8133
67.0705 3522 59.3464
67.1879 3311 57.5413
67.3054 2939 54.2125
67.4228 2548 50.4777
67.5402 2452 49.5177
67.6576 2506 50.06
67.7749 2775 52.6783
67.8923 3227 56.8067
68.0096 3536 59.4643
68.1269 3758 61.3025
68.2442 3827 61.8628
68.3614 3995 63.206
68.4787 3868 62.1932
68.5958 4060 63.7181
68.713 3927 62.6658
68.8302 4057 63.6946
68.9473 4196 64.7765
69.0643 3856 62.0967
69.1814 4005 63.2851
69.2984 4023 63.4271
69.4154 4193 64.7534
69.5323 3983 63.111
69.6492 4205 64.846
69.7661 4153 64.4438
69.8829 4302 65.5896
69.9997 4376 66.1513
70.1165 4436 66.6033
70.2332 4415 66.4455
70.3499 4351 65.9621
70.4665 4225 65
70.5831 4179 64.6452
70.6996 3924 62.6418
70.8161 3771 61.4085
70.9326 3646 60.3821
71.049 3134 55.9821
71.1653 2820 53.1037
71.2817 2697 51.9326
71.3979 2808 52.9906
71.5141 3085 55.5428
71.6303 3316 57.5847
71.7464 3343 57.8187
71.8624 0 1
71.9784 0 1
72.0944 0 1
72.2102 0 1
72.3261 0 1
72.4418 0 1
72.5575 0 1
72.6732 0 1
75.1054 0 1
75.2209 0 1
75.3365 0 1
75.4521 0 1
75.5678 0 1
75.6835 0 1
75.7993 0 1
75.9151 0 1
76.031 0 1
76.147 3564 59.6992
76.263 3664 60.531
76.3791 3384 58.1722
76.4952 2965 54.4518
76.6113 2973 54.5252
76.7276 3124 55.8928
76.8438 3460 58.8218
76.9601 4021 63.4114
77.0765 4359 66.0227
77.1929 4557 67.5056
77.3093 4614 67.9264
77.4258 4697 68.5347
77.5423 4665 68.3008
77.6589 4681 68.4178
77.7755 4665 68.3008
77.8921 4594 67.7791
78.0088 4617 67.9485
78.1256 4665 68.3008
78.2423 4588 67.7348
78.3591 4599 67.8159
78.4759 4563 67.55
78.5928 4523 67.2533
78.7097 4478 66.9179
78.8266 4719 68.695
78.9436 4299 65.5668
79.0606 4661 68.2715
79.1776 4550 67.4537
79.2946 4636 68.0882
79.4117 4561 67.5352
79.5288 4552 67.4685
79.6459 4332 65.8179
79.7631 4153 64.4438
79.8802 3867 62.1852
79.9974 3677 60.6383
80.1147 3239 56.9122
80.2319 3002 54.7905
80.3491 3082 55.5158
80.4664 3334 57.7408
80.5837 3921 62.6179
80.701 4249 65.1844
80.8183 4387 66.2344
80.9357 4592 67.7643
81.053 4541 67.3869
81.1704 4592 67.7643
81.2877 4426 66.5282
81.4051 4523 67.2533
81.5225 4571 67.6092
81.6399 4437 66.6108
81.7573 4608 67.8823
81.8747 4478 66.9179
81.9922 4428 66.5432
82.1096 4315 65.6887
82.227 4292 65.5134
82.3444 4235 65.0769
82.4619 4438 66.6183
82.5793 4204 64.8383
82.6967 4421 66.4906
82.8142 4442 66.6483
82.9316 4552 67.4685
83.049 4456 66.7533
83.1664 4334 65.8331
83.2838 4126 64.2339
83.4012 3829 61.8789
83.5186 3527 59.3886
83.636 3335 57.7495
83.7534 2976 54.5527
83.8708 2852 53.4041
83.9881 2844 53.3292
84.1055 2983 54.6168
84.2228 3458 58.8048
84.3401 3737 61.131
84.4575 4198 64.792
84.5747 4202 64.8228
84.692 4496 67.0522
84.8093 4319 65.7191
84.9265 4467 66.8356
85.0437 4408 66.3928
85.1609 4361 66.0379
85.2781 4431 66.5658
85.3952 4426 66.5282
85.5123 4440 66.6333
85.6294 4620 67.9706
85.7465 4398 66.3174
85.8636 4430 66.5582
85.9806 4395 66.2948
86.0976 4532 67.3201
86.2145 4562 67.5426
86.3315 4470 66.8581
86.4484 4750 68.9202
86.5652 4827 69.4766
86.682 4649 68.1836
86.7988 4654 68.2202
86.9156 4475 66.8954
87.0323 4200 64.8074
87.149 3896 62.4179
87.2657 3703 60.8523
87.3823 3380 58.1378
87.4988 3257 57.0701
87.6154 3397 58.2838
87.7318 3890 62.3699
87.8483 4361 66.0379
87.9647 4854 69.6707
88.081 4998 70.6965
88.1973 5017 70.8308
88.3136 5075 71.239
88.4298 5075 71.239
88.546 5139 71.6868
88.6621 5021 70.859
88.7781 4993 70.6612
88.8942 0 1
89.0101 0 1
89.126 0 1
89.2419 0 1
89.3577 0 1
89.4734 0 1
89.5891 0 1
89.7047 0 1
89.8203 0 1
89.9358 0 1
92.3269 0 1
92.4424 0 1
92.558 0 1
92.6736 0 1
92.7893 0 1
92.905 0 1
93.0208 0 1
93.1366 0 1
93.2525 0 1
93.3685 0 1
93.4845 0 1
93.6005 4922 70.157
93.7167 5098 71.4003
93.8328 5105 71.4493
93.949 4968 70.484
94.0653 4949 70.3491
94.1816 5026 70.8943
94.2979 5086 71.3162
94.4143 5013 70.8025
94.5307 4983 70.5904
94.6472 5013 70.8025
94.7637 4894 69.9571
94.8803 5045 71.0282
94.9969 4949 70.3491
95.1135 5123 71.5751
95.2302 5112 71.4983
95.3469 5008 70.7672
95.4637 5177 71.9514
95.5805 5060 71.1337
95.6973 5222 72.2634
95.8142 5254 72.4845
95.9311 5134 71.6519
96.048 4932 70.2282
96.1649 4681 68.4178
96.2819 4355 65.9924
96.3989 3867 62.1852
96.516 3638 60.3158
96.633 3408 58.3781
96.7501 3569 59.7411
96.8673 3834 61.9193
96.9844 4300 65.5744
97.1016 4746 68.8912
97.2188 5162 71.8471
97.336 5295 72.7668
97.4532 5365 73.2462
97.5704 5546 74.4715
97.6877 5349 73.1369
97.805 5331 73.0137
97.9223 5296 72.7736
98.0396 5244 72.4155
98.1569 5224 72.2772
98.2743 5421 73.6274
98.3916 5421 73.6274
98.509 5363 73.2325
98.6264 5272 72.6085
98.7438 5152 71.7774
98.8612 5353 73.1642
98.9786 5325 72.9726
99.096 5319 72.9315
99.2134 5208 72.1665
99.3308 5516 74.2698
99.4482 5494 74.1215
99.5656 5362 73.2257
99.6831 5243 72.4086
99.8005 5121 71.5612
99.9179 4704 68.5857
100.035 4245 65.1537
100.153 3792 61.5792
100.27 3733 61.0983
100.388 4023 63.4271
100.505 4493 67.0298
100.622 5016 70.8237
100.74 5352 73.1574
100.857 5438 73.7428
100.975 5616 74.94
101.092 5643 75.1199
101.209 5579 74.6927
101.327 5733 75.7166
101.444 5681 75.3724
101.561 5490 74.0945
101.679 5686 75.4056
101.796 5577 74.6793
101.913 5689 75.4255
102.03 5549 74.4916
102.148 5669 75.2928
102.265 5891 76.7529
102.382 5313 72.8903
102.499 5784 76.0526
102.616 5855 76.518
102.733 5820 76.2889
102.851 5824 76.3151
102.968 5879 76.6746
103.085 5748 75.8156
103.202 5853 76.5049
103.319 5494 74.1215
103.436 5161 71.8401
103.552 4657 68.2422
103.669 4152 64.436
103.786 4022 63.4192
103.903 4271 65.3529
104.02 4839 69.5629
104.137 5198 72.0972
104.253 5850 76.4853
104.37 5963 77.2205
104.487 6029 77.6466
104.603 6162 78.4984
104.72 6065 77.8781
104.836 6051 77.7882
104.953 6049 77.7753
105.069 6208 78.7909
105.186 5980 77.3305
105.302 5997 77.4403
105.418 6187 78.6575
105.535 6132 78.3071
105.651 6107 78.1473
105.767 6069 77.9038
105.883 6146 78.3964
105.999 6044 77.7432
106.115 0 1
106.231 0 1
106.347 0 1
106.463 0 1
106.579 0 1
106.694 0 1
106.81 0 1
106.926 0 1
107.041 0 1
107.157 0 1
109.576 0 1
109.692 0 1
109.807 0 1
109.923 0 1
110.039 0 1
110.155 0 1
110.27 0 1
110.386 0 1
110.502 0 1
110.618 5754 75.8551
110.735 5803 76.1774
110.851 5895 76.7789
110.967 5783 76.046
111.083 5889 76.7398
111.199 5776 76
111.316 6002 77.4726
111.432 5947 77.1168
111.549 5741 75.7694
111.665 5831 76.361
111.782 5434 73.7157
111.898 5189 72.0347
112.015 4627 68.0221
112.132 4044 63.5925
112.248 3742 61.1719
112.365 3955 62.8888
112.482 4387 66.2344
112.599 4825 69.4622
112.716 5231 72.3257
112.832 5459 73.885
112.949 5557 74.5453
113.066 5433 73.7089
113.183 5460 73.8918
113.3 5413 73.5731
113.417 5415 73.5867
113.534 5361 73.2189
113.652 5348 73.13
113.769 5222 72.2634
113.886 5212 72.1942
114.003 5181 71.9792
114.12 5175 71.9375
114.238 5266 72.5672
114.355 5110 71.4843
114.472 5067 71.1829
114.589 5147 71.7426
114.707 5076 71.2461
114.824 5121 71.5612
114.942 5148 71.7496
115.059 5270 72.5948
115.176 5047 71.0422
115.294 4917 70.1213
115.411 4743 68.8694
115.529 4508 67.1416
115.646 3987 63.1427
115.764 3678 60.6465
115.881 3580 59.8331
115.999 3942 62.7853
116.116 4497 67.0597
116.234 4875 69.8212
116.351 5175 71.9375
116.469 5173 71.9236
116.586 5196 72.0833
116.704 5281 72.6705
116.821 5277 72.643
116.939 5169 71.8958
117.056 5198 72.0972
117.174 5112 71.4983
117.291 5223 72.2703
117.409 5345 73.1095
117.526 5257 72.5052
117.644 5134 71.6519
117.761 5230 72.3187
117.879 5202 72.1249
117.996 5131 71.631
118.114 5366 73.253
118.231 5052 71.0774
118.349 5236 72.3602
118.466 5214 72.208
118.584 5163 71.854
118.701 5239 72.3809
118.819 5289 72.7255
118.936 5087 71.3232
119.053 4890 69.9285
119.171 4513 67.1789
119.288 4064 63.7495
119.405 3667 60.5558
119.523 3603 60.025
119.64 3949 62.8411
119.757 4328 65.7875
119.875 4795 69.2459
119.992 4946 70.3278
120.109 5038 70.9789
120.226 5187 72.0208
120.343 5121 71.5612
120.46 5220 72.2496
120.578 5188 72.0278
120.695 5067 71.1829
120.812 5093 71.3653
120.929 5224 72.2772
121.046 5253 72.4776
121.163 5139 71.6868
121.279 5154 71.7914
121.396 4988 70.6258
121.513 5215 72.215
121.63 5016 70.8237
121.747 5172 71.9166
121.863 4999 70.7036
121.98 5190 72.0417
122.097 5039 70.9859
122.213 5175 71.9375
122.33 5043 71.0141
122.446 5133 71.645
122.563 5088 71.3302
122.679 4747 68.8985
122.795 4550 67.4537
122.912 4484 66.9627
123.028 4089 63.9453
123.144 3748 61.2209
123.26 3585 59.8749
123.377 0 1
123.493 0 1
123.609 0 1
123.725 0 1
123.84 0 1
123.956 0 1
124.072 0 1
124.188 0 1
124.303 0 1
124.419 0 1
126.852 0 1
126.968 0 1
127.083 0 1
127.199 0 1
127.315 0 1
127.431 0 1
127.547 0 1
127.663 0 1
127.779 0 1
127.895 0 1
128.011 0 1
128.127 0 1
128.243 0 1
128.359 4089 63.9453
128.476 4012 63.3404
128.592 4253 65.215
128.708 4833 69.5198
128.825 5261 72.5328
128.941 5602 74.8465
129.058 5668 75.2861
129.174 5676 75.3392
129.291 5620 74.9667
129.408 5743 75.7826
129.524 5650 75.1665
129.641 5830 76.3544
129.758 5665 75.2662
129.875 5707 75.5447
129.992 5847 76.4657
130.108 5588 74.7529
130.225 5572 74.6458
130.342 5611 74.9066
130.459 5450 73.8241
130.576 5734 75.7232
130.693 5500 74.162
130.81 5426 73.6614
130.928 5489 74.0878
131.045 5517 74.2765
131.162 5573 74.6525
131.279 5752 75.8419
131.396 5395 73.4507
131.513 5437 73.736
131.631 5091 71.3512
131.748 4863 69.7352
131.865 4469 66.8506
131.983 4116 64.1561
132.1 4153 64.4438
132.217 4476 66.9029
132.335 5017 70.8308
132.452 5258 72.5121
132.57 5467 73.9392
132.687 5442 73.7699
132.804 5615 74.9333
132.922 5499 74.1552
133.039 5507 74.2092
133.157 5510 74.2294
133.274 5402 73.4983
133.392 5539 74.4245
133.509 5485 74.0608
133.627 5443 73.7767
133.744 5509 74.2226
133.862 5287 72.7118
133.979 5355 73.1779
134.097 5342 73.089
134.214 5482 74.0405
134.332 5320 72.9383
134.449 5321 72.9452
134.567 5436 73.7292
134.684 5397 73.4643
134.802 5590 74.7663
134.919 5224 72.2772
135.037 5304 72.8286
135.154 5108 71.4703
135.272 4870 69.7854
135.389 4506 67.1267
135.507 4241 65.123
135.624 3965 62.9682
135.742 4138 64.3273
135.859 4622 67.9853
135.977 5261 72.5328
136.094 5383 73.3689
136.211 5411 73.5595
136.329 5493 74.1148
136.446 5529 74.3572
136.564 5448 73.8106
136.681 5519 74.29
136.798 5581 74.7061
136.915 5644 75.1266
137.033 5291 72.7393
137.15 5555 74.5319
137.267 5424 73.6478
137.384 5312 72.8835
137.502 5230 72.3187
137.619 5048 71.0493
137.736 5154 71.7914
137.853 5123 71.5751
137.97 5084 71.3022
138.087 5253 72.4776
138.204 5158 71.8192
138.321 5240 72.3878
138.438 5436 73.7292
138.555 5488 74.081
138.672 5353 73.1642
138.788 5030 70.9225
138.905 4930 70.214
139.022 4721 68.7095
139.139 4060 63.7181
139.255 4112 64.1249
139.372 4186 64.6993
139.488 4530 67.3053
139.605 5058 71.1196
139.721 5206 72.1526
139.838 5366 73.253
139.954 5380 73.3485
140.071 5494 74.1215
140.187 5453 73.8444
140.303 5332 73.0205
140.419 5253 72.4776
140.535 5335 73.0411
140.652 5120 71.5542
140.768 0 1
140.884 0 1
141 0 1
141.115 0 1
141.231 0 1
141.347 0 1
141.463 0 1
141.578 0 1
141.694 0 1
144.104 0 1
144.219 0 1
144.335 0 1
144.45 0 1
144.566 0 1
144.682 0 1
144.798 0 1
144.914 0 1
145.03 0 1
145.146 4665 68.3008
145.262 4660 68.2642
145.378 4626 68.0147
145.494 4726 68.7459
145.61 4678 68.3959
145.726 4643 68.1396
145.842 4629 68.0368
145.959 4520 67.2309
146.075 4504 67.1118
146.192 4380 66.1816
146.308 4417 66.4605
146.425 4337 65.8559
146.541 4380 66.1816
146.658 4434 66.5883
146.774 4482 66.9477
146.891 4523 67.2533
147.008 4507 67.1342
147.125 4600 67.8233
147.241 4493 67.0298
147.358 4246 65.1613
147.475 4231 65.0461
147.592 3904 62.482
147.709 3665 60.5392
147.826 3509 59.2368
147.943 3446 58.7026
148.06 3760 61.3188
148.177 4050 63.6396
148.294 4283 65.4446
148.411 4532 67.3201
148.528 4472 66.873
148.645 4388 66.242
148.762 4364 66.0606
148.88 4390 66.2571
148.997 4259 65.261
149.114 4420 66.4831
149.231 4409 66.4003
149.349 4294 65.5286
149.466 4215 64.923
149.583 4206 64.8537
149.701 4028 63.4665
149.818 4132 64.2806
149.935 3930 62.6897
150.053 4156 64.467
150.17 4088 63.9375
150.287 4023 63.4271
150.405 4194 64.7611
150.522 4221 64.9692
150.64 4297 65.5515
150.757 4310 65.6506
150.875 4329 65.7951
150.992 4169 64.5678
151.11 3921 62.6179
151.227 3949 62.8411
151.344 3475 58.9491
151.462 3356 57.931
151.579 3308 57.5152
151.697 3538 59.4811
151.814 3883 62.3137
151.932 4127 64.2417
152.049 4475 66.8954
152.167 4355 65.9924
152.284 4373 66.1287
152.402 4277 65.3988
152.519 4262 65.284
152.636 4401 66.34
152.754 4262 65.284
152.871 4269 65.3376
152.989 4125 64.2262
153.106 4146 64.3894
153.223 3937 62.7455
153.341 4003 63.2693
153.458 3998 63.2297
153.575 3991 63.1744
153.693 4007 63.3009
153.81 4009 63.3167
153.927 4041 63.5689
154.044 4137 64.3195
154.162 4377 66.1589
154.279 4361 66.0379
154.396 4266 65.3146
154.513 4348 65.9394
154.63 4317 65.7039
154.747 4185 64.6916
154.864 4124 64.2184
154.981 3700 60.8276
155.098 3428 58.5491
155.215 3510 59.2453
155.332 3814 61.7576
155.449 4088 63.9375
155.566 4250 65.192
155.683 4247 65.169
155.8 4452 66.7233
155.917 4328 65.7875
156.033 4410 66.4078
156.15 0 1
156.267 0 1
156.383 0 1
156.5 0 1
156.617 0 1
156.733 0 1
156.85 0 1
156.966 0 1
157.082 0 1
157.199 0 1
157.315 0 1
157.431 0 1
157.547 0 1
157.664 0 1
157.78 0 1
157.896 0 1
158.012 0 1
158.128 0 1
158.244 0 1
158.359 0 1
158.475 0 1
158.591 0 1
158.706 0 1
