
6.15755 0 1
6.2731 0 1
6.3887 0 1
6.50437 0 1
6.62009 0 1
6.73587 0 1
6.8517 0 1
6.96759 0 1
7.08353 0 1
7.19952 0 1
7.31557 0 1
7.43166 0 1
7.54781 0 1
7.664 0 1
7.78024 0 1
7.89653 0 1
8.01286 0 1
8.12924 0 1
8.24567 0 1
8.36213 0 1
8.47864 0 1
8.59519 0 1
8.71178 0 1
8.82841 0 1
8.94508 0 1
9.06179 0 1
9.17853 0 1
9.29531 0 1
9.41212 0 1
9.52897 0 1
9.64584 0 1
9.76276 0 1
9.8797 0 1
9.99667 0 1
10.1137 0 1
10.2307 0 1
10.3478 0 1
10.4648 0 1
10.5819 0 1
10.6991 0 1
10.8162 0 1
10.9334 0 1
11.0506 0 1
11.1678 0 1
11.285 0 1
11.4023 0 1
11.5196 0 1
11.6369 0 1
11.7542 0 1
11.8715 0 1
11.9888 0 1
12.1062 0 1
12.2235 0 1
12.3409 0 1
12.4582 0 1
12.5756 0 1
12.693 0 1
12.8104 0 1
12.9278 0 1
13.0452 0 1
13.1626 0 1
13.28 0 1
13.3974 0 1
13.5149 0 1
13.6323 0 1
13.7497 0 1
13.8671 0 1
13.9845 0 1
14.1019 0 1
14.2193 0 1
14.3367 0 1
14.4541 0 1
14.5714 0 1
14.6888 0 1
14.8062 0 1
14.9235 0 1
15.0408 0 0
15.1581 0 0
15.2755 0 0
15.3927 0 0
15.51 0 0
15.6273 0 0
15.7445 0 0
15.8617 0 0
15.9789 0 0
16.0961 0 0
16.2132 0 0
16.3304 0 0
16.4475 0 0
16.5646 0 0
16.6816 0 0
16.7986 0 0
16.9156 0 0
17.0326 0 0
17.1496 0 0
17.2665 0 0
17.3833 0 0
17.5002 0 0
17.617 0 0
17.7338 0 0
17.8505 0 0
17.9672 0 0
18.0839 0 0
18.2005 0 0
18.3171 0 0
18.4337 0 0
18.5502 0 0
18.6666 0 0
18.7831 0 0
18.8994 0 0
19.0158 0 0
19.1321 0 0
19.2483 0 0
19.3645 0 0
19.4806 0 0
19.5967 0 0
19.7128 0 0
19.8288 0 0
19.9447 0 0
20.0606 0 1
20.1764 0 1
20.2922 0 1
20.4079 0 1
20.5236 0 1
20.6392 0 1
20.7548 0 1
20.8702 0 1
23.3078 0 1
23.4233 0 1
23.539 0 1
23.6547 0 1
23.7704 0 1
23.8862 0 1
24.0021 0 1
24.118 0 1
24.234 0 1
24.35 0 1
24.4661 1203 34.6843
24.5822 1245 35.2846
24.6984 1235 35.1426
24.8146 1217 34.8855
24.9309 1193 34.5398
25.0472 1245 35.2846
25.1636 1199 34.6266
25.28 1223 34.9714
25.3965 1291 35.9305
25.513 1271 35.6511
25.6296 1324 36.3868
25.7462 1478 38.4448
25.8628 1395 37.3497
25.9795 1529 39.1024
26.0962 1433 37.855
26.213 1452 38.1051
26.3298 1384 37.2022
26.4466 1371 37.027
26.5635 1400 37.4166
26.6804 1365 36.9459
26.7973 1387 37.2424
26.9143 1299 36.0416
27.0313 1331 36.4829
27.1483 1386 37.229
27.2653 1456 38.1576
27.3824 1417 37.6431
27.4996 1367 36.973
27.6167 1449 38.0657
27.7339 1445 38.0132
27.8511 1411 37.5633
27.9683 1454 38.1314
28.0855 1465 38.2753
28.2028 1408 37.5233
28.3201 1467 38.3014
28.4374 1390 37.2827
28.5547 1454 38.1314
28.6721 1369 37
28.7894 1412 37.5766
28.9068 1427 37.7757
29.0242 1476 38.4187
29.1416 1524 39.0384
29.259 1496 38.6782
29.3764 1565 39.5601
29.4939 1540 39.2428
29.6113 1592 39.8999
29.7288 1602 40.025
29.8463 1518 38.9615
29.9638 1466 38.2884
30.0812 1517 38.9487
30.1987 1425 37.7492
30.3162 1355 36.8103
30.4337 1290 35.9166
30.5512 1281 35.7911
30.6687 1359 36.8646
30.7862 1426 37.7624
30.9037 1418 37.6563
31.0212 1416 37.6298
31.1387 1421 37.6962
31.2562 1385 37.2156
31.3737 1382 37.1753
31.4912 1388 37.2559
31.6087 1432 37.8418
31.7262 1360 36.8782
31.8436 1361 36.8917
31.9611 1375 37.081
32.0785 1303 36.0971
32.1959 1257 35.4542
32.3134 1314 36.2491
32.4308 1280 35.7771
32.5482 1352 36.7696
32.6655 1340 36.606
32.7829 1401 37.4299
32.9002 1316 36.2767
33.0176 1381 37.1618
33.1349 1402 37.4433
33.2522 1421 37.6962
33.3694 1359 36.8646
33.4867 1396 37.3631
33.6039 1367 36.973
33.7211 1324 36.3868
33.8383 1327 36.428
33.9554 1329 36.4555
34.0725 1158 34.0294
34.1896 1153 33.9559
34.3067 1174 34.2637
34.4237 1230 35.0714
34.5407 1296 36
34.6577 1259 35.4824
34.7746 1295 35.9861
34.8915 1183 34.3948
35.0084 1146 33.8526
35.1252 1242 35.242
35.242 1206 34.7275
35.3587 1249 35.3412
35.4755 1243 35.2562
35.5921 1228 35.0428
35.7088 1189 34.4819
35.8254 1162 34.0881
35.9419 1117 33.4215
36.0584 1160 34.0588
36.1749 1218 34.8999
36.2913 1228 35.0428
36.4077 1224 34.9857
36.524 1329 36.4555
36.6403 1267 35.5949
36.7565 1280 35.7771
36.8727 1286 35.8608
36.9889 1284 35.8329
37.1049 1287 35.8748
37.221 0 1
37.3369 0 1
37.4529 0 1
37.5687 0 1
37.6845 0 1
37.8003 0 1
37.916 0 1
38.0316 0 1
38.1472 0 1
40.5851 0 1
40.7008 0 1
40.8164 0 1
40.9322 0 1
41.048 0 1
41.1639 0 1
41.2798 0 1
41.3958 0 1
41.5118 0 1
41.6279 0 1
41.744 1021 31.9531
41.8602 1051 32.4191
41.9765 1030 32.0936
42.0928 1049 32.3883
42.2091 1055 32.4808
42.3255 1056 32.4962
42.4419 1116 33.4066
42.5584 1086 32.9545
42.675 1080 32.8634
42.7915 1001 31.6386
42.9081 881 29.6816
43.0248 952 30.8545
43.1415 950 30.8221
43.2582 1018 31.9061
43.375 1002 31.6544
43.4918 971 31.1609
43.6087 1028 32.0624
43.7256 920 30.3315
43.8425 954 30.8869
43.9595 946 30.7571
44.0765 973 31.1929
44.1935 962 31.0161
44.3106 944 30.7246
44.4277 884 29.7321
44.5448 830 28.8097
44.6619 827 28.7576
44.7791 855 29.2404
44.8963 792 28.1425
45.0136 837 28.931
45.1308 822 28.6705
45.2481 806 28.3901
45.3654 887 29.7825
45.4827 841 29
45.6001 859 29.3087
45.7174 793 28.1603
45.8348 785 28.0179
45.9522 859 29.3087
46.0697 810 28.4605
46.1871 781 27.9464
46.3046 804 28.3549
46.422 686 26.1916
46.5395 711 26.6646
46.657 717 26.7769
46.7745 749 27.3679
46.892 759 27.55
47.0096 788 28.0713
47.1271 746 27.313
47.2446 738 27.1662
47.3622 688 26.2298
47.4797 690 26.2679
47.5973 704 26.533
47.7149 657 25.632
47.8324 678 26.0384
47.95 674 25.9615
48.0675 648 25.4558
48.1851 618 24.8596
48.3027 648 25.4558
48.4202 656 25.6125
48.5378 636 25.219
48.6554 689 26.2488
48.7729 647 25.4362
48.8904 663 25.7488
49.008 652 25.5343
49.1255 667 25.8263
49.243 666 25.807
49.3605 669 25.865
49.478 634 25.1794
49.5955 660 25.6905
49.713 679 26.0576
49.8304 635 25.1992
49.9479 609 24.6779
50.0653 576 24
50.1827 553 23.516
50.3001 661 25.7099
50.4175 690 26.2679
50.5348 733 27.074
50.6521 706 26.5707
50.7694 731 27.037
50.8867 697 26.4008
51.004 739 27.1846
51.1212 724 26.9072
51.2384 725 26.9258
51.3556 739 27.1846
51.4727 788 28.0713
51.5899 799 28.2666
51.707 794 28.178
51.824 853 29.2062
51.9411 800 28.2843
52.0581 850 29.1548
52.175 875 29.5804
52.2919 910 30.1662
52.4088 949 30.8058
52.5257 985 31.3847
52.6425 973 31.1929
52.7593 996 31.5595
52.876 976 31.241
52.9927 1032 32.1248
53.1094 1021 31.9531
53.226 949 30.8058
53.3426 1004 31.686
53.4591 972 31.1769
53.5756 940 30.6594
53.692 843 29.0345
53.8084 891 29.8496
53.9248 975 31.225
54.0411 1064 32.619
54.1573 1013 31.8277
54.2735 0 1
54.3896 0 1
54.5057 0 1
54.6217 0 1
54.7377 0 1
54.8537 0 1
54.9695 0 1
55.0853 0 1
55.2011 0 1
55.3168 0 1
55.4324 0 1
57.824 0 1
57.9396 0 1
58.0553 0 1
58.1711 0 1
58.2869 0 1
58.4028 0 1
58.5187 0 1
58.6347 0 1
58.7508 0 1
58.8669 0 1
58.983 987 31.4166
59.0992 1102 33.1964
59.2155 1191 34.5109
59.3318 1192 34.5254
59.4482 1138 33.7343
59.5646 1224 34.9857
59.681 1134 33.6749
59.7975 1209 34.7707
59.9141 1132 33.6452
60.0306 1068 32.6803
60.1473 1141 33.7787
60.2639 1106 33.2566
60.3807 1041 32.2645
60.4974 1036 32.187
60.6142 1055 32.4808
60.731 1111 33.3317
60.8479 1125 33.541
60.9648 1086 32.9545
61.0818 1137 33.7194
61.1987 1072 32.7414
61.3158 1090 33.0151
61.4328 1059 32.5423
61.5499 1074 32.7719
61.667 1141 33.7787
61.7841 1060 32.5576
61.9013 1023 31.9844
62.0185 1024 32
62.1357 1004 31.686
62.253 955 30.9031
62.3702 995 31.5436
62.4875 1018 31.9061
62.6049 1022 31.9687
62.7222 1091 33.0303
62.8396 1046 32.3419
62.9569 1113 33.3617
63.0743 1121 33.4813
63.1918 1065 32.6343
63.3092 950 30.8221
63.4267 1019 31.9218
63.5441 996 31.5595
63.6616 955 30.9031
63.7791 969 31.1288
63.8966 995 31.5436
64.0142 979 31.289
64.1317 918 30.2985
64.2492 1044 32.311
64.3668 955 30.9031
64.4843 1048 32.3728
64.6019 1054 32.4654
64.7195 1043 32.2955
64.837 996 31.5595
64.9546 978 31.273
65.0722 1067 32.665
65.1898 1058 32.5269
65.3074 1011 31.7962
65.4249 956 30.9192
65.5425 977 31.257
65.6601 921 30.348
65.7777 809 28.4429
65.8952 914 30.2324
66.0128 886 29.7658
66.1304 979 31.289
66.2479 1024 32
66.3655 1010 31.7805
66.483 1066 32.6497
66.6005 1073 32.7567
66.718 1054 32.4654
66.8355 1000 31.6228
66.953 884 29.7321
67.0705 907 30.1164
67.1879 934 30.5614
67.3054 855 29.2404
67.4228 930 30.4959
67.5402 932 30.5287
67.6576 924 30.3974
67.7749 984 31.3688
67.8923 936 30.5941
68.0096 1011 31.7962
68.1269 1045 32.3265
68.2442 1039 32.2335
68.3614 976 31.241
68.4787 1041 32.2645
68.5958 1030 32.0936
68.713 1057 32.5115
68.8302 1087 32.9697
68.9473 1071 32.7261
69.0643 1090 33.0151
69.1814 1063 32.6037
69.2984 953 30.8707
69.4154 967 31.0966
69.5323 896 29.9333
69.6492 919 30.315
69.7661 1084 32.9242
69.8829 1040 32.249
69.9997 1079 32.8481
70.1165 1141 33.7787
70.2332 1210 34.7851
70.3499 1113 33.3617
70.4665 1146 33.8526
70.5831 1025 32.0156
70.6996 992 31.496
70.8161 966 31.0805
70.9326 953 30.8707
71.049 948 30.7896
71.1653 938 30.6268
71.2817 1039 32.2335
71.3979 946 30.7571
71.5141 1022 31.9687
71.6303 1003 31.6702
71.7464 949 30.8058
71.8624 0 1
71.9784 0 1
72.0944 0 1
72.2102 0 1
72.3261 0 1
72.4418 0 1
72.5575 0 1
72.6732 0 1
75.1054 0 1
75.2209 0 1
75.3365 0 1
75.4521 0 1
75.5678 0 1
75.6835 0 1
75.7993 0 1
75.9151 0 1
76.031 0 1
76.147 867 29.4449
76.263 947 30.7734
76.3791 937 30.6105
76.4952 925 30.4138
76.6113 1020 31.9374
76.7276 975 31.225
76.8438 1030 32.0936
76.9601 1105 33.2415
77.0765 1100 33.1662
77.1929 1138 33.7343
77.3093 1121 33.4813
77.4258 1120 33.4664
77.5423 1109 33.3017
77.6589 1065 32.6343
77.7755 1131 33.6303
77.8921 1092 33.0454
78.0088 1040 32.249
78.1256 1032 32.1248
78.2423 950 30.8221
78.3591 972 31.1769
78.4759 939 30.6431
78.5928 854 29.2233
78.7097 896 29.9333
78.8266 933 30.545
78.9436 1052 32.4345
79.0606 1049 32.3883
79.1776 1104 33.2265
79.2946 1121 33.4813
79.4117 1117 33.4215
79.5288 1087 32.9697
79.6459 1080 32.8634
79.7631 974 31.209
79.8802 846 29.0861
79.9974 879 29.6479
80.1147 889 29.8161
80.2319 934 30.5614
80.3491 936 30.5941
80.4664 948 30.7896
80.5837 988 31.4325
80.701 995 31.5436
80.8183 923 30.3809
80.9357 1025 32.0156
81.053 1019 31.9218
81.1704 1002 31.6544
81.2877 991 31.4802
81.4051 1046 32.3419
81.5225 964 31.0483
81.6399 964 31.0483
81.7573 970 31.1448
81.8747 880 29.6648
81.9922 857 29.2746
82.1096 901 30.0167
82.227 834 28.8791
82.3444 877 29.6142
82.4619 960 30.9839
82.5793 999 31.607
82.6967 1003 31.6702
82.8142 1071 32.7261
82.9316 1024 32
83.049 989 31.4484
83.1664 937 30.6105
83.2838 909 30.1496
83.4012 874 29.5635
83.5186 765 27.6586
83.636 723 26.8887
83.7534 779 27.9106
83.8708 818 28.6007
83.9881 857 29.2746
84.1055 901 30.0167
84.2228 878 29.6311
84.3401 911 30.1828
84.4575 955 30.9031
84.5747 1004 31.686
84.692 950 30.8221
84.8093 1025 32.0156
84.9265 962 31.0161
85.0437 973 31.1929
85.1609 976 31.241
85.2781 935 30.5778
85.3952 952 30.8545
85.5123 822 28.6705
85.6294 856 29.2575
85.7465 901 30.0167
85.8636 956 30.9192
85.9806 1004 31.686
86.0976 971 31.1609
86.2145 1084 32.9242
86.3315 1172 34.2345
86.4484 1071 32.7261
86.5652 1118 33.4365
86.682 1157 34.0147
86.7988 1122 33.4963
86.9156 1047 32.3574
87.0323 945 30.7409
87.149 906 30.0998
87.2657 929 30.4795
87.3823 903 30.05
87.4988 1033 32.1403
87.6154 1044 32.311
87.7318 1064 32.619
87.8483 1090 33.0151
87.9647 1076 32.8024
88.081 1125 33.541
88.1973 1188 34.4674
88.3136 1180 34.3511
88.4298 1211 34.7994
88.546 1199 34.6266
88.6621 1145 33.8378
88.7781 1104 33.2265
88.8942 0 1
89.0101 0 1
89.126 0 1
89.2419 0 1
89.3577 0 1
89.4734 0 1
89.5891 0 1
89.7047 0 1
89.8203 0 1
89.9358 0 1
92.3269 0 1
92.4424 0 1
92.558 0 1
92.6736 0 1
92.7893 0 1
92.905 0 1
93.0208 0 1
93.1366 0 1
93.2525 0 1
93.3685 0 1
93.4845 0 1
93.6005 1167 34.1614
93.7167 1127 33.5708
93.8328 1194 34.5543
93.949 1166 34.1467
94.0653 1134 33.6749
94.1816 1098 33.1361
94.2979 1067 32.665
94.4143 1014 31.8434
94.5307 997 31.5753
94.6472 982 31.3369
94.7637 986 31.4006
94.8803 1068 32.6803
94.9969 1099 33.1512
95.1135 1113 33.3617
95.2302 1211 34.7994
95.3469 1159 34.0441
95.4637 1193 34.5398
95.5805 1237 35.171
95.6973 1251 35.3695
95.8142 1198 34.6121
95.9311 1210 34.7851
96.048 1138 33.7343
96.1649 1130 33.6155
96.2819 987 31.4166
96.3989 985 31.3847
96.516 947 30.7734
96.633 970 31.1448
96.7501 1108 33.2866
96.8673 1116 33.4066
96.9844 1231 35.0856
97.1016 1148 33.8821
97.2188 1141 33.7787
97.336 1259 35.4824
97.4532 1206 34.7275
97.5704 1305 36.1248
97.6877 1223 34.9714
97.805 1134 33.6749
97.9223 1108 33.2866
98.0396 1031 32.1092
98.1569 1117 33.4215
98.2743 928 30.4631
98.3916 1003 31.6702
98.509 1072 32.7414
98.6264 1089 33
98.7438 1122 33.4963
98.8612 1217 34.8855
98.9786 1204 34.6987
99.096 1219 34.9142
99.2134 1219 34.9142
99.3308 1211 34.7994
99.4482 1276 35.7211
99.5656 1225 35
99.6831 1221 34.9428
99.8005 1122 33.4963
99.9179 1078 32.8329
100.035 943 30.7083
100.153 920 30.3315
100.27 1077 32.8177
100.388 1150 33.9116
100.505 1183 34.3948
100.622 1164 34.1174
100.74 1203 34.6843
100.857 1246 35.2987
100.975 1217 34.8855
101.092 1251 35.3695
101.209 1215 34.8569
101.327 1195 34.5688
101.444 1180 34.3511
101.561 1140 33.7639
101.679 1055 32.4808
101.796 1049 32.3883
101.913 1001 31.6386
102.03 1057 32.5115
102.148 1054 32.4654
102.265 1166 34.1467
102.382 1234 35.1283
102.499 1209 34.7707
102.616 1166 34.1467
102.733 1302 36.0832
102.851 1289 35.9026
102.968 1277 35.7351
103.085 1344 36.6606
103.202 1234 35.1283
103.319 1218 34.8999
103.436 1116 33.4066
103.552 1013 31.8277
103.669 981 31.3209
103.786 1074 32.7719
103.903 1200 34.641
104.02 1194 34.5543
104.137 1229 35.0571
104.253 1219 34.9142
104.37 1326 36.4143
104.487 1246 35.2987
104.603 1316 36.2767
104.72 1296 36
104.836 1289 35.9026
104.953 1239 35.1994
105.069 1188 34.4674
105.186 1129 33.6006
105.302 1114 33.3766
105.418 1050 32.4037
105.535 1139 33.7491
105.651 1240 35.2136
105.767 1316 36.2767
105.883 1339 36.5923
105.999 1309 36.1801
106.115 0 1
106.231 0 1
106.347 0 1
106.463 0 1
106.579 0 1
106.694 0 1
106.81 0 1
106.926 0 1
107.041 0 1
107.157 0 1
109.576 0 1
109.692 0 1
109.807 0 1
109.923 0 1
110.039 0 1
110.155 0 1
110.27 0 1
110.386 0 1
110.502 0 1
110.618 1043 32.2955
110.735 1210 34.7851
110.851 1233 35.1141
110.967 1315 36.2629
111.083 1286 35.8608
111.199 1267 35.5949
111.316 1313 36.2353
111.432 1300 36.0555
111.549 1330 36.4692
111.665 1288 35.8887
111.782 1237 35.171
111.898 1189 34.4819
112.015 1003 31.6702
112.132 1026 32.0312
112.248 996 31.5595
112.365 1080 32.8634
112.482 1181 34.3657
112.599 1319 36.318
112.716 1246 35.2987
112.832 1211 34.7994
112.949 1219 34.9142
113.066 1224 34.9857
113.183 1253 35.3977
113.3 1144 33.8231
113.417 1244 35.2704
113.534 1192 34.5254
113.652 1039 32.2335
113.769 1008 31.749
113.886 1028 32.0624
114.003 983 31.3528
114.12 1096 33.1059
114.238 1183 34.3948
114.355 1171 34.2199
114.472 1245 35.2846
114.589 1270 35.6371
114.707 1235 35.1426
114.824 1218 34.8999
114.942 1317 36.2905
115.059 1274 35.6931
115.176 1244 35.2704
115.294 1261 35.5106
115.411 1202 34.6699
115.529 1155 33.9853
115.646 1039 32.2335
115.764 958 30.9516
115.881 958 30.9516
115.999 1144 33.8231
116.116 1191 34.5109
116.234 1207 34.7419
116.351 1197 34.5977
116.469 1153 33.9559
116.586 1271 35.6511
116.704 1208 34.7563
116.821 1173 34.2491
116.939 1234 35.1283
117.056 1163 34.1028
117.174 1105 33.2415
117.291 1023 31.9844
117.409 1009 31.7648
117.526 1032 32.1248
117.644 1051 32.4191
117.761 1102 33.1964
117.879 1208 34.7563
117.996 1252 35.3836
118.114 1214 34.8425
118.231 1240 35.2136
118.349 1227 35.0286
118.466 1280 35.7771
118.584 1304 36.1109
118.701 1289 35.9026
118.819 1266 35.5809
118.936 1189 34.4819
119.053 1193 34.5398
119.171 1043 32.2955
119.288 1037 32.2025
119.405 935 30.5778
119.523 1032 32.1248
119.64 1093 33.0606
119.757 1208 34.7563
119.875 1177 34.3074
119.992 1200 34.641
120.109 1250 35.3553
120.226 1127 33.5708
120.343 1164 34.1174
120.46 1163 34.1028
120.578 1058 32.5269
120.695 1109 33.3017
120.812 1106 33.2566
120.929 1149 33.8969
121.046 968 31.1127
121.163 1019 31.9218
121.279 993 31.5119
121.396 1060 32.5576
121.513 1174 34.2637
121.63 1209 34.7707
121.747 1228 35.0428
121.863 1193 34.5398
121.98 1238 35.1852
122.097 1254 35.4119
122.213 1277 35.7351
122.33 1268 35.609
122.446 1228 35.0428
122.563 1230 35.0714
122.679 1204 34.6987
122.795 1112 33.3467
122.912 1084 32.9242
123.028 888 29.7993
123.144 976 31.241
123.26 923 30.3809
123.377 0 1
123.493 0 1
123.609 0 1
123.725 0 1
123.84 0 1
123.956 0 1
124.072 0 1
124.188 0 1
124.303 0 1
124.419 0 1
126.852 0 1
126.968 0 1
127.083 0 1
127.199 0 1
127.315 0 1
127.431 0 1
127.547 0 1
127.663 0 1
127.779 0 1
127.895 0 1
128.011 0 1
128.127 0 1
128.243 0 1
128.359 955 30.9031
128.476 961 31
128.592 1118 33.4365
128.708 1162 34.0881
128.825 1226 35.0143
128.941 1207 34.7419
129.058 1306 36.1386
129.174 1312 36.2215
129.291 1270 35.6371
129.408 1214 34.8425
129.524 1254 35.4119
129.641 1175 34.2783
129.758 1112 33.3467
129.875 1066 32.6497
129.992 1087 32.9697
130.108 1060 32.5576
130.225 1045 32.3265
130.342 1183 34.3948
130.459 1296 36
130.576 1344 36.6606
130.693 1344 36.6606
130.81 1355 36.8103
130.928 1341 36.6197
131.045 1340 36.606
131.162 1335 36.5377
131.279 1286 35.8608
131.396 1319 36.318
131.513 1332 36.4966
131.631 1219 34.9142
131.748 1222 34.9571
131.865 1066 32.6497
131.983 996 31.5595
132.1 1072 32.7414
132.217 1202 34.6699
132.335 1232 35.0999
132.452 1363 36.9188
132.57 1313 36.2353
132.687 1284 35.8329
132.804 1301 36.0694
132.922 1200 34.641
133.039 1251 35.3695
133.157 1262 35.5246
133.274 1220 34.9285
133.392 1240 35.2136
133.509 1118 33.4365
133.627 1101 33.1813
133.744 1088 32.9848
133.862 1123 33.5112
133.979 1191 34.5109
134.097 1293 35.9583
134.214 1250 35.3553
134.332 1333 36.5103
134.449 1346 36.6879
134.567 1294 35.9722
134.684 1364 36.9324
134.802 1287 35.8748
134.919 1286 35.8608
135.037 1304 36.1109
135.154 1255 35.426
135.272 1238 35.1852
135.389 1119 33.4515
135.507 990 31.4643
135.624 989 31.4484
135.742 1115 33.3916
135.859 1211 34.7994
135.977 1311 36.2077
136.094 1244 35.2704
136.211 1300 36.0555
136.329 1296 36
136.446 1297 36.0139
136.564 1278 35.7491
136.681 1228 35.0428
136.798 1290 35.9166
136.915 1173 34.2491
137.033 1058 32.5269
137.15 1079 32.8481
137.267 1020 31.9374
137.384 1073 32.7567
137.502 1154 33.9706
137.619 1198 34.6121
137.736 1288 35.8887
137.853 1299 36.0416
137.97 1282 35.805
138.087 1332 36.4966
138.204 1308 36.1663
138.321 1369 37
138.438 1296 36
138.555 1367 36.973
138.672 1275 35.7071
138.788 1380 37.1484
138.905 1229 35.0571
139.022 1169 34.1906
139.139 993 31.5119
139.255 1058 32.5269
139.372 1100 33.1662
139.488 1263 35.5387
139.605 1249 35.3412
139.721 1379 37.1349
139.838 1292 35.9444
139.954 1387 37.2424
140.071 1295 35.9861
140.187 1274 35.6931
140.303 1223 34.9714
140.419 1276 35.7211
140.535 1151 33.9264
140.652 1149 33.8969
140.768 0 1
140.884 0 1
141 0 1
141.115 0 1
141.231 0 1
141.347 0 1
141.463 0 1
141.578 0 1
141.694 0 1
144.104 0 1
144.219 0 1
144.335 0 1
144.45 0 1
144.566 0 1
144.682 0 1
144.798 0 1
144.914 0 1
145.03 0 1
145.146 989 31.4484
145.262 1018 31.9061
145.378 1005 31.7017
145.494 1016 31.8748
145.61 980 31.305
145.726 936 30.5941
145.842 920 30.3315
145.959 908 30.133
146.075 904 30.0666
146.192 861 29.3428
146.308 914 30.2324
146.425 922 30.3645
146.541 909 30.1496
146.658 1049 32.3883
146.774 994 31.5278
146.891 1084 32.9242
147.008 1056 32.4962
147.125 1040 32.249
147.241 1071 32.7261
147.358 1060 32.5576
147.475 995 31.5436
147.592 1102 33.1964
147.709 1012 31.8119
147.826 946 30.7571
147.943 849 29.1376
148.06 833 28.8617
148.177 870 29.4958
148.294 901 30.0167
148.411 940 30.6594
148.528 1027 32.0468
148.645 1053 32.45
148.762 1041 32.2645
148.88 1070 32.7109
148.997 1006 31.7175
149.114 1063 32.6037
149.231 1031 32.1092
149.349 986 31.4006
149.466 978 31.273
149.583 959 30.9677
149.701 875 29.5804
149.818 880 29.6648
149.935 887 29.7825
150.053 900 30
150.17 978 31.273
150.287 932 30.5287
150.405 969 31.1288
150.522 1008 31.749
150.64 1045 32.3265
150.757 1116 33.4066
150.875 1048 32.3728
150.992 1100 33.1662
151.11 1083 32.909
151.227 1025 32.0156
151.344 1036 32.187
151.462 1021 31.9531
151.579 980 31.305
151.697 905 30.0832
151.814 855 29.2404
151.932 897 29.95
152.049 979 31.289
152.167 1033 32.1403
152.284 1074 32.7719
152.402 1107 33.2716
152.519 1117 33.4215
152.636 1083 32.909
152.754 1130 33.6155
152.871 1073 32.7567
152.989 1037 32.2025
153.106 994 31.5278
153.223 993 31.5119
153.341 954 30.8869
153.458 961 31
153.575 958 30.9516
153.693 1021 31.9531
153.81 1052 32.4345
153.927 982 31.3369
154.044 1046 32.3419
154.162 1069 32.6956
154.279 1117 33.4215
154.396 1088 32.9848
154.513 1107 33.2716
154.63 1138 33.7343
154.747 1189 34.4819
154.864 1169 34.1906
154.981 1109 33.3017
155.098 1082 32.8938
155.215 1038 32.218
155.332 1006 31.7175
155.449 995 31.5436
155.566 1041 32.2645
155.683 1070 32.7109
155.8 1075 32.7872
155.917 1146 33.8526
156.033 1113 33.3617
156.15 0 1
156.267 0 1
156.383 0 1
156.5 0 1
156.617 0 1
156.733 0 1
156.85 0 1
156.966 0 1
157.082 0 1
157.199 0 1
157.315 0 1
157.431 0 1
157.547 0 1
157.664 0 1
157.78 0 1
157.896 0 1
158.012 0 1
158.128 0 1
158.244 0 1
158.359 0 1
158.475 0 1
158.591 0 1
158.706 0 1
