
6.15755 0 1
6.2731 0 1
6.3887 0 1
6.50437 0 1
6.62009 0 1
6.73587 0 1
6.8517 0 1
6.96759 0 1
7.08353 0 1
7.19952 0 1
7.31557 0 1
7.43166 0 1
7.54781 0 1
7.664 0 1
7.78024 0 1
7.89653 0 1
8.01286 0 1
8.12924 0 1
8.24567 0 1
8.36213 0 1
8.47864 0 1
8.59519 0 1
8.71178 0 1
8.82841 0 1
8.94508 0 1
9.06179 0 1
9.17853 0 1
9.29531 0 1
9.41212 0 1
9.52897 0 1
9.64584 0 1
9.76276 0 1
9.8797 0 1
9.99667 0 1
10.1137 0 1
10.2307 0 1
10.3478 0 1
10.4648 0 1
10.5819 0 1
10.6991 0 1
10.8162 0 1
10.9334 0 1
11.0506 0 1
11.1678 0 1
11.285 0 1
11.4023 0 1
11.5196 0 1
11.6369 0 1
11.7542 0 1
11.8715 0 1
11.9888 0 1
12.1062 0 1
12.2235 0 1
12.3409 0 1
12.4582 0 1
12.5756 0 1
12.693 0 1
12.8104 0 1
12.9278 0 1
13.0452 0 1
13.1626 0 1
13.28 0 1
13.3974 0 1
13.5149 0 1
13.6323 0 1
13.7497 0 1
13.8671 0 1
13.9845 0 1
14.1019 0 1
14.2193 0 1
14.3367 0 1
14.4541 0 1
14.5714 0 1
14.6888 0 1
14.8062 0 1
14.9235 0 1
15.0408 0 0
15.1581 0 0
15.2755 0 0
15.3927 0 0
15.51 0 0
15.6273 0 0
15.7445 0 0
15.8617 0 0
15.9789 0 0
16.0961 0 0
16.2132 0 0
16.3304 0 0
16.4475 0 0
16.5646 0 0
16.6816 0 0
16.7986 0 0
16.9156 0 0
17.0326 0 0
17.1496 0 0
17.2665 0 0
17.3833 0 0
17.5002 0 0
17.617 0 0
17.7338 0 0
17.8505 0 0
17.9672 0 0
18.0839 0 0
18.2005 0 0
18.3171 0 0
18.4337 0 0
18.5502 0 0
18.6666 0 0
18.7831 0 0
18.8994 0 0
19.0158 0 0
19.1321 0 0
19.2483 0 0
19.3645 0 0
19.4806 0 0
19.5967 0 0
19.7128 0 0
19.8288 0 0
19.9447 0 0
20.0606 0 1
20.1764 0 1
20.2922 0 1
20.4079 0 1
20.5236 0 1
20.6392 0 1
20.7548 0 1
20.8702 0 1
23.3078 0 1
23.4233 0 1
23.539 0 1
23.6547 0 1
23.7704 0 1
23.8862 0 1
24.0021 0 1
24.118 0 1
24.234 0 1
24.35 0 1
24.4661 1533 39.1535
24.5822 1503 38.7685
24.6984 1488 38.5746
24.8146 1419 37.6696
24.9309 1382 37.1753
25.0472 1443 37.9868
25.1636 1363 36.9188
25.28 1502 38.7556
25.3965 1562 39.5221
25.513 1603 40.0375
25.6296 1683 41.0244
25.7462 1657 40.7063
25.8628 1588 39.8497
25.9795 1688 41.0853
26.0962 1681 41
26.213 1672 40.8901
26.3298 1719 41.4608
26.4466 1593 39.9124
26.5635 1562 39.5221
26.6804 1418 37.6563
26.7973 1493 38.6394
26.9143 1567 39.5854
27.0313 1500 38.7298
27.1483 1550 39.37
27.2653 1650 40.6202
27.3824 1649 40.6079
27.4996 1652 40.6448
27.6167 1661 40.7554
27.7339 1672 40.8901
27.8511 1532 39.1408
27.9683 1533 39.1535
28.0855 1589 39.8623
28.2028 1506 38.8072
28.3201 1460 38.2099
28.4374 1370 37.0135
28.5547 1318 36.3043
28.6721 1294 35.9722
28.7894 1395 37.3497
28.9068 1377 37.108
29.0242 1529 39.1024
29.1416 1517 38.9487
29.259 1505 38.7943
29.3764 1494 38.6523
29.4939 1568 39.598
29.6113 1603 40.0375
29.7288 1603 40.0375
29.8463 1560 39.4968
29.9638 1584 39.7995
30.0812 1454 38.1314
30.1987 1394 37.3363
30.3162 1498 38.704
30.4337 1381 37.1618
30.5512 1470 38.3406
30.6687 1511 38.8716
30.7862 1530 39.1152
30.9037 1532 39.1408
31.0212 1692 41.1339
31.1387 1612 40.1497
31.2562 1567 39.5854
31.3737 1633 40.4104
31.4912 1461 38.223
31.6087 1474 38.3927
31.7262 1501 38.7427
31.8436 1407 37.51
31.9611 1370 37.0135
32.0785 1350 36.7423
32.1959 1278 35.7491
32.3134 1362 36.9053
32.4308 1398 37.3898
32.5482 1508 38.833
32.6655 1572 39.6485
32.7829 1539 39.2301
32.9002 1588 39.8497
33.0176 1677 40.9512
33.1349 1608 40.0999
33.2522 1609 40.1123
33.3694 1569 39.6106
33.4867 1554 39.4208
33.6039 1489 38.5876
33.7211 1485 38.5357
33.8383 1472 38.3667
33.9554 1425 37.7492
34.0725 1411 37.5633
34.1896 1498 38.704
34.3067 1500 38.7298
34.4237 1524 39.0384
34.5407 1625 40.3113
34.6577 1610 40.1248
34.7746 1633 40.4104
34.8915 1633 40.4104
35.0084 1570 39.6232
35.1252 1597 39.9625
35.242 1468 38.3145
35.3587 1468 38.3145
35.4755 1464 38.2623
35.5921 1509 38.8458
35.7088 1277 35.7351
35.8254 1277 35.7351
35.9419 1330 36.4692
36.0584 1386 37.229
36.1749 1411 37.5633
36.2913 1433 37.855
36.4077 1585 39.8121
36.524 1493 38.6394
36.6403 1620 40.2492
36.7565 1620 40.2492
36.8727 1556 39.4462
36.9889 1576 39.6989
37.1049 1575 39.6863
37.221 0 1
37.3369 0 1
37.4529 0 1
37.5687 0 1
37.6845 0 1
37.8003 0 1
37.916 0 1
38.0316 0 1
38.1472 0 1
40.5851 0 1
40.7008 0 1
40.8164 0 1
40.9322 0 1
41.048 0 1
41.1639 0 1
41.2798 0 1
41.3958 0 1
41.5118 0 1
41.6279 0 1
41.744 1278 35.7491
41.8602 1266 35.5809
41.9765 1352 36.7696
42.0928 1403 37.4566
42.2091 1377 37.108
42.3255 1231 35.0856
42.4419 1274 35.6931
42.5584 1219 34.9142
42.675 1244 35.2704
42.7915 1234 35.1283
42.9081 1169 34.1906
43.0248 1315 36.2629
43.1415 1381 37.1618
43.2582 1296 36
43.375 1333 36.5103
43.4918 1355 36.8103
43.6087 1371 37.027
43.7256 1393 37.3229
43.8425 1262 35.5246
43.9595 1264 35.5528
44.0765 1239 35.1994
44.1935 1201 34.6554
44.3106 1114 33.3766
44.4277 1062 32.5883
44.5448 1015 31.8591
44.6619 996 31.5595
44.7791 990 31.4643
44.8963 1026 32.0312
45.0136 1040 32.249
45.1308 1104 33.2265
45.2481 1180 34.3511
45.3654 1160 34.0588
45.4827 1162 34.0881
45.6001 1163 34.1028
45.7174 1127 33.5708
45.8348 1102 33.1964
45.9522 1169 34.1906
46.0697 1037 32.2025
46.1871 1011 31.7962
46.3046 1014 31.8434
46.422 959 30.9677
46.5395 1025 32.0156
46.657 1033 32.1403
46.7745 1083 32.909
46.892 1008 31.749
47.0096 1095 33.0908
47.1271 1149 33.8969
47.2446 1017 31.8904
47.3622 1075 32.7872
47.4797 1034 32.1559
47.5973 1010 31.7805
47.7149 983 31.3528
47.8324 972 31.1769
47.95 924 30.3974
48.0675 813 28.5132
48.1851 749 27.3679
48.3027 777 27.8747
48.4202 787 28.0535
48.5378 921 30.348
48.6554 912 30.1993
48.7729 960 30.9839
48.8904 937 30.6105
49.008 997 31.5753
49.1255 947 30.7734
49.243 1008 31.749
49.3605 1010 31.7805
49.478 965 31.0644
49.5955 868 29.4618
49.713 876 29.5973
49.8304 864 29.3939
49.9479 802 28.3196
50.0653 984 31.3688
50.1827 1056 32.4962
50.3001 1085 32.9393
50.4175 1120 33.4664
50.5348 1095 33.0908
50.6521 1136 33.7046
50.7694 1154 33.9706
50.8867 1210 34.7851
51.004 1179 34.3366
51.1212 1152 33.9411
51.2384 1150 33.9116
51.3556 1137 33.7194
51.4727 1097 33.121
51.5899 1070 32.7109
51.707 1068 32.6803
51.824 1092 33.0454
51.9411 1155 33.9853
52.0581 1205 34.7131
52.175 1303 36.0971
52.2919 1415 37.6165
52.4088 1404 37.47
52.5257 1314 36.2491
52.6425 1451 38.092
52.7593 1490 38.6005
52.876 1490 38.6005
52.9927 1464 38.2623
53.1094 1375 37.081
53.226 1384 37.2022
53.3426 1353 36.7831
53.4591 1316 36.2767
53.5756 1447 38.0395
53.692 1487 38.5616
53.8084 1543 39.281
53.9248 1651 40.6325
54.0411 1540 39.2428
54.1573 1559 39.4842
54.2735 0 1
54.3896 0 1
54.5057 0 1
54.6217 0 1
54.7377 0 1
54.8537 0 1
54.9695 0 1
55.0853 0 1
55.2011 0 1
55.3168 0 1
55.4324 0 1
57.824 0 1
57.9396 0 1
58.0553 0 1
58.1711 0 1
58.2869 0 1
58.4028 0 1
58.5187 0 1
58.6347 0 1
58.7508 0 1
58.8669 0 1
58.983 1952 44.1814
59.0992 1986 44.5646
59.2155 2005 44.7772
59.3318 2020 44.9444
59.4482 2088 45.6946
59.5646 2049 45.2659
59.681 2108 45.913
59.7975 1975 44.441
59.9141 1914 43.7493
60.0306 1817 42.6263
60.1473 1785 42.2493
60.2639 1602 40.025
60.3807 1522 39.0128
60.4974 1540 39.2428
60.6142 1633 40.4104
60.731 1673 40.9023
60.8479 1811 42.5558
60.9648 1846 42.9651
61.0818 1898 43.566
61.1987 1958 44.2493
61.3158 1967 44.3509
61.4328 1985 44.5533
61.5499 1919 43.8064
61.667 1851 43.0232
61.7841 1761 41.9643
61.9013 1744 41.7612
62.0185 1851 43.0232
62.1357 1848 42.9884
62.253 1822 42.6849
62.3702 1928 43.909
62.4875 1914 43.7493
62.6049 1924 43.8634
62.7222 2106 45.8912
62.8396 2046 45.2327
62.9569 2053 45.31
63.0743 2000 44.7214
63.1918 2018 44.9222
63.3092 1877 43.3244
63.4267 1857 43.0929
63.5441 1841 42.9069
63.6616 1657 40.7063
63.7791 1558 39.4715
63.8966 1476 38.4187
64.0142 1505 38.7943
64.1317 1558 39.4715
64.2492 1684 41.0366
64.3668 1763 41.9881
64.4843 1909 43.6921
64.6019 1944 44.0908
64.7195 1900 43.589
64.837 1973 44.4185
64.9546 1935 43.9886
65.0722 1969 44.3734
65.1898 1822 42.6849
65.3074 1745 41.7732
65.4249 1762 41.9762
65.5425 1738 41.6893
65.6601 1742 41.7373
65.7777 1810 42.5441
65.8952 1887 43.4396
66.0128 1958 44.2493
66.1304 1976 44.4522
66.2479 1936 44
66.3655 1970 44.3847
66.483 1990 44.6094
66.6005 2134 46.1952
66.718 2091 45.7275
66.8355 2040 45.1664
66.953 1991 44.6206
67.0705 1959 44.2606
67.1879 1825 42.72
67.3054 1634 40.4228
67.4228 1498 38.704
67.5402 1449 38.0657
67.6576 1541 39.2556
67.7749 1607 40.0874
67.8923 1722 41.497
68.0096 1909 43.6921
68.1269 1982 44.5197
68.2442 2074 45.5412
68.3614 2208 46.9894
68.4787 2155 46.422
68.5958 2086 45.6727
68.713 2120 46.0435
68.8302 2080 45.607
68.9473 2032 45.0777
69.0643 1937 44.0114
69.1814 1906 43.6578
69.2984 1979 44.486
69.4154 2044 45.2106
69.5323 2091 45.7275
69.6492 2244 47.3709
69.7661 2346 48.4355
69.8829 2273 47.676
69.9997 2366 48.6415
70.1165 2389 48.8774
70.2332 2389 48.8774
70.3499 2388 48.8672
70.4665 2324 48.2079
70.5831 2360 48.5798
70.6996 2159 46.465
70.8161 2175 46.6369
70.9326 2018 44.9222
71.049 1838 42.8719
71.1653 1672 40.8901
71.2817 1561 39.5095
71.3979 1574 39.6737
71.5141 1740 41.7133
71.6303 1978 44.4747
71.7464 1932 43.9545
71.8624 0 1
71.9784 0 1
72.0944 0 1
72.2102 0 1
72.3261 0 1
72.4418 0 1
72.5575 0 1
72.6732 0 1
75.1054 0 1
75.2209 0 1
75.3365 0 1
75.4521 0 1
75.5678 0 1
75.6835 0 1
75.7993 0 1
75.9151 0 1
76.031 0 1
76.147 2159 46.465
76.263 2190 46.7974
76.3791 2083 45.6399
76.4952 1845 42.9535
76.6113 1720 41.4729
76.7276 1906 43.6578
76.8438 2010 44.833
76.9601 2248 47.4131
77.0765 2463 49.6286
77.1929 2619 51.1762
77.3093 2664 51.614
77.4258 2764 52.5738
77.5423 2657 51.5461
77.6589 2704 52
77.7755 2714 52.0961
77.8921 2479 49.7896
78.0088 2404 49.0306
78.1256 2506 50.06
78.2423 2423 49.224
78.3591 2339 48.3632
78.4759 2496 49.96
78.5928 2583 50.8232
78.7097 2597 50.9608
78.8266 2901 53.8609
78.9436 2734 52.2877
79.0606 2831 53.2071
79.1776 2908 53.9259
79.2946 2830 53.1977
79.4117 2939 54.2125
79.5288 2917 54.0093
79.6459 2796 52.8772
79.7631 2712 52.0769
79.8802 2528 50.2792
79.9974 2375 48.734
80.1147 2150 46.3681
80.2319 1967 44.3509
80.3491 1931 43.9431
80.4664 2157 46.4435
80.5837 2479 49.7896
80.701 2642 51.4004
80.8183 2800 52.915
80.9357 2895 53.8052
81.053 2865 53.5257
81.1704 3034 55.0818
81.2877 2962 54.4243
81.4051 2964 54.4426
81.5225 2803 52.9434
81.6399 2605 51.0392
81.7573 2640 51.3809
81.8747 2575 50.7445
81.9922 2451 49.5076
82.1096 2534 50.3389
82.227 2616 51.1468
82.3444 2788 52.8015
82.4619 2866 53.535
82.5793 2847 53.3573
82.6967 3161 56.2228
82.8142 2940 54.2218
82.9316 3037 55.109
83.049 3036 55.0999
83.1664 2925 54.0833
83.2838 2962 54.4243
83.4012 2836 53.2541
83.5186 2681 51.7784
83.636 2466 49.6588
83.7534 2258 47.5184
83.8708 1987 44.5758
83.9881 2025 45
84.1055 2228 47.2017
84.2228 2351 48.4871
84.3401 2718 52.1344
84.4575 2890 53.7587
84.5747 3028 55.0273
84.692 3211 56.6657
84.8093 3153 56.1516
84.9265 3108 55.7494
85.0437 3115 55.8122
85.1609 3162 56.2317
85.2781 3058 55.2992
85.3952 2957 54.3783
85.5123 2894 53.7959
85.6294 2845 53.3385
85.7465 3032 55.0636
85.8636 3217 56.7186
85.9806 3312 57.55
86.0976 3451 58.7452
86.2145 3503 59.1861
86.3315 3525 59.3717
86.4484 3834 61.9193
86.5652 3838 61.9516
86.682 3814 61.7576
86.7988 3727 61.0492
86.9156 3570 59.7495
87.0323 3510 59.2453
87.149 3451 58.7452
87.2657 3067 55.3805
87.3823 2838 53.2729
87.4988 2655 51.5267
87.6154 2852 53.4041
87.7318 3145 56.0803
87.8483 3620 60.1664
87.9647 3955 62.8888
88.081 4014 63.3561
88.1973 4227 65.0154
88.3136 4206 64.8537
88.4298 4236 65.0846
88.546 4204 64.8383
88.6621 4096 64
88.7781 4050 63.6396
88.8942 0 1
89.0101 0 1
89.126 0 1
89.2419 0 1
89.3577 0 1
89.4734 0 1
89.5891 0 1
89.7047 0 1
89.8203 0 1
89.9358 0 1
92.3269 0 1
92.4424 0 1
92.558 0 1
92.6736 0 1
92.7893 0 1
92.905 0 1
93.0208 0 1
93.1366 0 1
93.2525 0 1
93.3685 0 1
93.4845 0 1
93.6005 4681 68.4178
93.7167 4758 68.9783
93.8328 4673 68.3593
93.949 4692 68.4982
94.0653 4658 68.2495
94.1816 4769 69.0579
94.2979 4534 67.335
94.4143 4397 66.3099
94.5307 4351 65.9621
94.6472 4344 65.909
94.7637 4238 65.0999
94.8803 4490 67.0075
94.9969 4519 67.2235
95.1135 4781 69.1448
95.2302 4886 69.8999
95.3469 5112 71.4983
95.4637 5110 71.4843
95.5805 5187 72.0208
95.6973 5164 71.861
95.8142 5226 72.2911
95.9311 5344 73.1027
96.048 5038 70.9789
96.1649 4825 69.4622
96.2819 4601 67.8307
96.3989 4341 65.8863
96.516 4114 64.1405
96.633 3753 61.2617
96.7501 3679 60.6548
96.8673 3949 62.8411
96.9844 4354 65.9848
97.1016 4811 69.3614
97.2188 5271 72.6017
97.336 5475 73.9932
97.4532 5525 74.3303
97.5704 5408 73.5391
97.6877 5431 73.6953
97.805 5484 74.054
97.9223 5424 73.6478
98.0396 5164 71.861
98.1569 4997 70.6895
98.2743 4841 69.5773
98.3916 4916 70.1142
98.509 4826 69.4694
98.6264 5035 70.9577
98.7438 5317 72.9178
98.8612 5597 74.8131
98.9786 5715 75.5976
99.096 5827 76.3348
99.2134 5886 76.7203
99.3308 5876 76.6551
99.4482 6002 77.4726
99.5656 5725 75.6637
99.6831 5747 75.809
99.8005 5400 73.4847
99.9179 5323 72.9589
100.035 5024 70.8802
100.153 4488 66.9925
100.27 4172 64.591
100.388 4272 65.3605
100.505 4697 68.5347
100.622 5185 72.0069
100.74 5760 75.8947
100.857 6046 77.756
100.975 6077 77.9551
101.092 6012 77.5371
101.209 6216 78.8416
101.327 6119 78.224
101.444 6131 78.3007
101.561 5970 77.2658
101.679 5776 76
101.796 5738 75.7496
101.913 5487 74.0743
102.03 5491 74.1013
102.148 5639 75.0933
102.265 6091 78.0449
102.382 5670 75.2994
102.499 6252 79.0696
102.616 6450 80.3119
102.733 6464 80.399
102.851 6650 81.5475
102.968 6717 81.9573
103.085 6544 80.895
103.202 6611 81.3081
103.319 6098 78.0897
103.436 5990 77.3951
103.552 5620 74.9667
103.669 5295 72.7668
103.786 4821 69.4334
103.903 4770 69.0652
104.02 5135 71.6589
104.137 5876 76.6551
104.253 6555 80.963
104.37 6628 81.4125
104.487 7006 83.7019
104.603 7019 83.7795
104.72 6913 83.1445
104.836 6940 83.3067
104.953 6886 82.9819
105.069 6586 81.1542
105.186 6505 80.6536
105.302 6296 79.3473
105.418 6236 78.9683
105.535 6173 78.5684
105.651 6297 79.3536
105.767 6710 81.9146
105.883 6685 81.7618
105.999 6889 83
106.115 0 1
106.231 0 1
106.347 0 1
106.463 0 1
106.579 0 1
106.694 0 1
106.81 0 1
106.926 0 1
107.041 0 1
107.157 0 1
109.576 0 1
109.692 0 1
109.807 0 1
109.923 0 1
110.039 0 1
110.155 0 1
110.27 0 1
110.386 0 1
110.502 0 1
110.618 5755 75.8617
110.735 6057 77.8267
110.851 6236 78.9683
110.967 6488 80.5481
111.083 6610 81.3019
111.199 6579 81.111
111.316 6463 80.3928
111.432 6468 80.4239
111.549 6389 79.9312
111.665 6415 80.0937
111.782 6280 79.2465
111.898 5863 76.5702
112.015 5485 74.0608
112.132 5029 70.9154
112.248 4479 66.9253
112.365 4467 66.8356
112.482 4720 68.7023
112.599 5067 71.1829
112.716 5628 75.02
112.832 6039 77.711
112.949 5833 76.3741
113.066 6005 77.4919
113.183 5938 77.0584
113.3 5888 76.7333
113.417 5888 76.7333
113.534 5609 74.8933
113.652 5519 74.29
113.769 5289 72.7255
113.886 5173 71.9236
114.003 5153 71.7844
114.12 4926 70.1855
114.238 5203 72.1318
114.355 5289 72.7255
114.472 5350 73.1437
114.589 5285 72.698
114.707 5470 73.9594
114.824 5679 75.3591
114.942 5588 74.7529
115.059 5579 74.6927
115.176 5539 74.4245
115.294 5436 73.7292
115.411 5215 72.215
115.529 5024 70.8802
115.646 4604 67.8528
115.764 4296 65.5439
115.881 4004 63.2772
115.999 4000 63.2456
116.116 4372 66.1211
116.234 4779 69.1303
116.351 5235 72.3533
116.469 5380 73.3485
116.586 5560 74.5654
116.704 5513 74.2496
116.821 5508 74.2159
116.939 5402 73.4983
117.056 5444 73.7835
117.174 5223 72.2703
117.291 5233 72.3395
117.409 5115 71.5192
117.526 4892 69.9428
117.644 4823 69.4478
117.761 4999 70.7036
117.879 5186 72.0139
117.996 5059 71.1266
118.114 5289 72.7255
118.231 5326 72.9794
118.349 5270 72.5948
118.466 5443 73.7767
118.584 5420 73.6206
118.701 5496 74.135
118.819 5374 73.3076
118.936 5315 72.904
119.053 5066 71.1758
119.171 4944 70.3136
119.288 4609 67.8896
119.405 4123 64.2106
119.523 3723 61.0164
119.64 3831 61.8951
119.757 4176 64.622
119.875 4594 67.7791
119.992 4899 69.9929
120.109 5278 72.6498
120.226 5289 72.7255
120.343 5315 72.904
120.46 5362 73.2257
120.578 5173 71.9236
120.695 5130 71.624
120.812 5082 71.2881
120.929 4912 70.0857
121.046 4951 70.3633
121.163 4807 69.3325
121.279 4602 67.838
121.396 4664 68.2935
121.513 4496 67.0522
121.63 4902 70.0143
121.747 4701 68.5638
121.863 4840 69.5701
121.98 5004 70.739
122.097 4915 70.1071
122.213 5061 71.1407
122.33 5143 71.7147
122.446 5042 71.007
122.563 5056 71.1056
122.679 4957 70.406
122.795 4678 68.3959
122.912 4666 68.3081
123.028 4394 66.2873
123.144 3962 62.9444
123.26 3513 59.2706
123.377 0 1
123.493 0 1
123.609 0 1
123.725 0 1
123.84 0 1
123.956 0 1
124.072 0 1
124.188 0 1
124.303 0 1
124.419 0 1
126.852 0 1
126.968 0 1
127.083 0 1
127.199 0 1
127.315 0 1
127.431 0 1
127.547 0 1
127.663 0 1
127.779 0 1
127.895 0 1
128.011 0 1
128.127 0 1
128.243 0 1
128.359 4422 66.4981
128.476 3919 62.6019
128.592 3903 62.474
128.708 4433 66.5808
128.825 4750 68.9202
128.941 5154 71.7914
129.058 5268 72.581
129.174 5437 73.736
129.291 5346 73.1163
129.408 5321 72.9452
129.524 5323 72.9589
129.641 5242 72.4017
129.758 5249 72.45
129.875 5095 71.3793
129.992 4980 70.5691
130.108 4840 69.5701
130.225 4783 69.1592
130.342 4883 69.8785
130.459 4982 70.5833
130.576 5120 71.5542
130.693 5041 71
130.81 4957 70.406
130.928 5134 71.6519
131.045 5063 71.1548
131.162 5095 71.3793
131.279 5160 71.8331
131.396 5006 70.7531
131.513 5006 70.7531
131.631 4829 69.491
131.748 4762 69.0072
131.865 4380 66.1816
131.983 3891 62.3779
132.1 3751 61.2454
132.217 4005 63.2851
132.335 4364 66.0606
132.452 4745 68.884
132.57 4924 70.1712
132.687 4881 69.8642
132.804 5281 72.6705
132.922 4962 70.4415
133.039 5057 71.1126
133.157 5141 71.7008
133.274 4904 70.0286
133.392 4805 69.3181
133.509 4735 68.8113
133.627 4647 68.1689
133.744 4608 67.8823
133.862 4513 67.1789
133.979 4645 68.1542
134.097 4602 67.838
134.214 4793 69.2315
134.332 4556 67.4981
134.449 4734 68.8041
134.567 4791 69.217
134.684 4863 69.7352
134.802 4761 69
134.919 4980 70.5691
135.037 4825 69.4622
135.154 4757 68.971
135.272 4777 69.1158
135.389 4293 65.521
135.507 4007 63.3009
135.624 3634 60.2827
135.742 3670 60.5805
135.859 3764 61.3514
135.977 4231 65.0461
136.094 4621 67.9779
136.211 4743 68.8694
136.329 4825 69.4622
136.446 5003 70.7319
136.564 4983 70.5904
136.681 4862 69.728
136.798 4821 69.4334
136.915 4756 68.9638
137.033 4666 68.3081
137.15 4685 68.4471
137.267 4492 67.0224
137.384 4470 66.8581
137.502 4439 66.6258
137.619 4415 66.4455
137.736 4472 66.873
137.853 4489 67
137.97 4456 66.7533
138.087 4694 68.5128
138.204 4571 67.6092
138.321 4690 68.4836
138.438 4776 69.1086
138.555 4821 69.4334
138.672 4584 67.7052
138.788 4626 68.0147
138.905 4577 67.6535
139.022 4254 65.2227
139.139 4038 63.5453
139.255 3670 60.5805
139.372 3635 60.291
139.488 3823 61.8304
139.605 4089 63.9453
139.721 4389 66.2495
139.838 4582 67.6905
139.954 4848 69.6276
140.071 4662 68.2788
140.187 4697 68.5347
140.303 4710 68.6294
140.419 4553 67.4759
140.535 4635 68.0808
140.652 4551 67.4611
140.768 0 1
140.884 0 1
141 0 1
141.115 0 1
141.231 0 1
141.347 0 1
141.463 0 1
141.578 0 1
141.694 0 1
144.104 0 1
144.219 0 1
144.335 0 1
144.45 0 1
144.566 0 1
144.682 0 1
144.798 0 1
144.914 0 1
145.03 0 1
145.146 3862 62.145
145.262 4182 64.6684
145.378 3964 62.9603
145.494 3857 62.1048
145.61 3829 61.8789
145.726 3897 62.426
145.842 3766 61.3677
145.959 3668 60.564
146.075 3640 60.3324
146.192 3686 60.7124
146.308 3711 60.918
146.425 3656 60.4649
146.541 3757 61.2944
146.658 3681 60.6712
146.774 3699 60.8194
146.891 3725 61.0328
147.008 3807 61.7009
147.125 3817 61.7819
147.241 3809 61.7171
147.358 3727 61.0492
147.475 3730 61.0737
147.592 3473 58.9322
147.709 3274 57.2189
147.826 3016 54.9181
147.943 2872 53.591
148.06 3055 55.2721
148.177 3304 57.4804
148.294 3507 59.2199
148.411 3728 61.0574
148.528 3707 60.8851
148.645 3710 60.9098
148.762 3709 60.9016
148.88 3582 59.8498
148.997 3622 60.1831
149.114 3804 61.6766
149.231 3607 60.0583
149.349 3564 59.6992
149.466 3509 59.2368
149.583 3410 58.3952
149.701 3356 57.931
149.818 3431 58.5747
149.935 3423 58.5064
150.053 3449 58.7282
150.17 3363 57.9914
150.287 3305 57.4891
150.405 3430 58.5662
150.522 3569 59.7411
150.64 3554 59.6154
150.757 3442 58.6686
150.875 3675 60.6218
150.992 3590 59.9166
151.11 3372 58.0689
151.227 3253 57.0351
151.344 3048 55.2087
151.462 2690 51.8652
151.579 2792 52.8394
151.697 2915 53.9907
151.814 3021 54.9636
151.932 3414 58.4294
152.049 3481 59
152.167 3617 60.1415
152.284 3665 60.5392
152.402 3553 59.607
152.519 3572 59.7662
152.636 3619 60.1581
152.754 3492 59.0931
152.871 3328 57.6888
152.989 3404 58.3438
153.106 3412 58.4123
153.223 3217 56.7186
153.341 3347 57.8533
153.458 3295 57.4021
153.575 3358 57.9483
153.693 3405 58.3524
153.81 3344 57.8273
153.927 3423 58.5064
154.044 3347 57.8533
154.162 3512 59.2621
154.279 3497 59.1354
154.396 3622 60.1831
154.513 3651 60.4235
154.63 3624 60.1997
154.747 3498 59.1439
154.864 3375 58.0948
154.981 3178 56.3738
155.098 3032 55.0636
155.215 2915 53.9907
155.332 3105 55.7225
155.449 3216 56.7098
155.566 3615 60.1249
155.683 3622 60.1831
155.8 3569 59.7411
155.917 3668 60.564
156.033 3609 60.075
156.15 0 1
156.267 0 1
156.383 0 1
156.5 0 1
156.617 0 1
156.733 0 1
156.85 0 1
156.966 0 1
157.082 0 1
157.199 0 1
157.315 0 1
157.431 0 1
157.547 0 1
157.664 0 1
157.78 0 1
157.896 0 1
158.012 0 1
158.128 0 1
158.244 0 1
158.359 0 1
158.475 0 1
158.591 0 1
158.706 0 1
