
6.15755 0 1
6.2731 0 1
6.3887 0 1
6.50437 0 1
6.62009 0 1
6.73587 0 1
6.8517 0 1
6.96759 0 1
7.08353 0 1
7.19952 0 1
7.31557 0 1
7.43166 0 1
7.54781 0 1
7.664 0 1
7.78024 0 1
7.89653 0 1
8.01286 0 1
8.12924 0 1
8.24567 0 1
8.36213 0 1
8.47864 0 1
8.59519 0 1
8.71178 0 1
8.82841 0 1
8.94508 0 1
9.06179 0 1
9.17853 0 1
9.29531 0 1
9.41212 0 1
9.52897 0 1
9.64584 0 1
9.76276 0 1
9.8797 0 1
9.99667 0 1
10.1137 0 1
10.2307 0 1
10.3478 0 1
10.4648 0 1
10.5819 0 1
10.6991 0 1
10.8162 0 1
10.9334 0 1
11.0506 0 1
11.1678 0 1
11.285 0 1
11.4023 0 1
11.5196 0 1
11.6369 0 1
11.7542 0 1
11.8715 0 1
11.9888 0 1
12.1062 0 1
12.2235 0 1
12.3409 0 1
12.4582 0 1
12.5756 0 1
12.693 0 1
12.8104 0 1
12.9278 0 1
13.0452 0 1
13.1626 0 1
13.28 0 1
13.3974 0 1
13.5149 0 1
13.6323 0 1
13.7497 0 1
13.8671 0 1
13.9845 0 1
14.1019 0 1
14.2193 0 1
14.3367 0 1
14.4541 0 1
14.5714 0 1
14.6888 0 1
14.8062 0 1
14.9235 0 1
15.0408 931 30.5123
15.1581 1005 31.7017
15.2755 1030 32.0936
15.3927 1024 32
15.51 1037 32.2025
15.6273 1034 32.1559
15.7445 1027 32.0468
15.8617 1023 31.9844
15.9789 981 31.3209
16.0961 952 30.8545
16.2132 958 30.9516
16.3304 957 30.9354
16.4475 918 30.2985
16.5646 939 30.6431
16.6816 882 29.6985
16.7986 879 29.6479
16.9156 852 29.189
17.0326 840 28.9828
17.1496 834 28.8791
17.2665 790 28.1069
17.3833 813 28.5132
17.5002 851 29.1719
17.617 740 27.2029
17.7338 776 27.8568
17.8505 808 28.4253
17.9672 949 30.8058
18.0839 916 30.2655
18.2005 851 29.1719
18.3171 780 27.9285
18.4337 800 28.2843
18.5502 811 28.4781
18.6666 826 28.7402
18.7831 853 29.2062
18.8994 822 28.6705
19.0158 806 28.3901
19.1321 781 27.9464
19.2483 767 27.6948
19.3645 721 26.8514
19.4806 713 26.7021
19.5967 724 26.9072
19.7128 656 25.6125
19.8288 645 25.3969
19.9447 591 24.3105
20.0606 0 1
20.1764 0 1
20.2922 0 1
20.4079 0 1
20.5236 0 1
20.6392 0 1
20.7548 0 1
20.8702 0 1
23.3078 0 1
23.4233 0 1
23.539 0 1
23.6547 0 1
23.7704 0 1
23.8862 0 1
24.0021 0 1
24.118 0 1
24.234 0 1
24.35 0 1
24.4661 391 19.7737
24.5822 452 21.2603
24.6984 534 23.1084
24.8146 582 24.1247
24.9309 631 25.1197
25.0472 749 27.3679
25.1636 828 28.775
25.28 836 28.9137
25.3965 929 30.4795
25.513 953 30.8707
25.6296 926 30.4302
25.7462 918 30.2985
25.8628 952 30.8545
25.9795 943 30.7083
26.0962 923 30.3809
26.213 863 29.3769
26.3298 791 28.1247
26.4466 784 28
26.5635 780 27.9285
26.6804 796 28.2135
26.7973 787 28.0535
26.9143 809 28.4429
27.0313 752 27.4226
27.1483 715 26.7395
27.2653 733 27.074
27.3824 761 27.5862
27.4996 807 28.4077
27.6167 768 27.7128
27.7339 754 27.4591
27.8511 756 27.4955
27.9683 789 28.0891
28.0855 831 28.8271
28.2028 836 28.9137
28.3201 838 28.9482
28.4374 828 28.775
28.5547 859 29.3087
28.6721 860 29.3258
28.7894 810 28.4605
28.9068 829 28.7924
29.0242 825 28.7228
29.1416 839 28.9655
29.259 778 27.8927
29.3764 798 28.2489
29.4939 750 27.3861
29.6113 699 26.4386
29.7288 753 27.4408
29.8463 669 25.865
29.9638 708 26.6083
30.0812 739 27.1846
30.1987 728 26.9815
30.3162 783 27.9821
30.4337 760 27.5681
30.5512 741 27.2213
30.6687 714 26.7208
30.7862 788 28.0713
30.9037 797 28.2312
31.0212 861 29.3428
31.1387 794 28.178
31.2562 806 28.3901
31.3737 749 27.3679
31.4912 790 28.1069
31.6087 751 27.4044
31.7262 813 28.5132
31.8436 755 27.4773
31.9611 800 28.2843
32.0785 819 28.6182
32.1959 800 28.2843
32.3134 794 28.178
32.4308 750 27.3861
32.5482 721 26.8514
32.6655 715 26.7395
32.7829 743 27.258
32.9002 673 25.9422
33.0176 675 25.9808
33.1349 658 25.6515
33.2522 672 25.923
33.3694 644 25.3772
33.4867 618 24.8596
33.6039 645 25.3969
33.7211 704 26.533
33.8383 702 26.4953
33.9554 745 27.2947
34.0725 767 27.6948
34.1896 729 27
34.3067 754 27.4591
34.4237 697 26.4008
34.5407 784 28
34.6577 768 27.7128
34.7746 760 27.5681
34.8915 708 26.6083
35.0084 706 26.5707
35.1252 707 26.5895
35.242 700 26.4575
35.3587 720 26.8328
35.4755 725 26.9258
35.5921 751 27.4044
35.7088 709 26.6271
35.8254 736 27.1293
35.9419 707 26.5895
36.0584 705 26.5518
36.1749 637 25.2389
36.2913 652 25.5343
36.4077 635 25.1992
36.524 600 24.4949
36.6403 584 24.1661
36.7565 500 22.3607
36.8727 494 22.2261
36.9889 459 21.4243
37.1049 398 19.9499
37.221 0 1
37.3369 0 1
37.4529 0 1
37.5687 0 1
37.6845 0 1
37.8003 0 1
37.916 0 1
38.0316 0 1
38.1472 0 1
40.5851 0 1
40.7008 0 1
40.8164 0 1
40.9322 0 1
41.048 0 1
41.1639 0 1
41.2798 0 1
41.3958 0 1
41.5118 0 1
41.6279 0 1
41.744 313 17.6918
41.8602 356 18.868
41.9765 404 20.0998
42.0928 456 21.3542
42.2091 450 21.2132
42.3255 448 21.166
42.4419 496 22.2711
42.5584 531 23.0434
42.675 500 22.3607
42.7915 532 23.0651
42.9081 545 23.3452
43.0248 566 23.7908
43.1415 538 23.1948
43.2582 485 22.0227
43.375 502 22.4054
43.4918 525 22.9129
43.6087 585 24.1868
43.7256 576 24
43.8425 489 22.1133
43.9595 518 22.7596
44.0765 516 22.7156
44.1935 549 23.4307
44.3106 563 23.7276
44.4277 553 23.516
44.5448 555 23.5584
44.6619 590 24.2899
44.7791 594 24.3721
44.8963 577 24.0208
45.0136 593 24.3516
45.1308 568 23.8328
45.2481 599 24.4745
45.3654 507 22.5167
45.4827 560 23.6643
45.6001 510 22.5832
45.7174 554 23.5372
45.8348 511 22.6053
45.9522 577 24.0208
46.0697 560 23.6643
46.1871 561 23.6854
46.3046 508 22.5389
46.422 531 23.0434
46.5395 544 23.3238
46.657 558 23.622
46.7745 524 22.891
46.892 508 22.5389
47.0096 579 24.0624
47.1271 573 23.9374
47.2446 571 23.8956
47.3622 540 23.2379
47.4797 543 23.3024
47.5973 523 22.8692
47.7149 554 23.5372
47.8324 615 24.7992
47.95 574 23.9583
48.0675 553 23.516
48.1851 551 23.4734
48.3027 536 23.1517
48.4202 633 25.1595
48.5378 580 24.0832
48.6554 565 23.7697
48.7729 555 23.5584
48.8904 571 23.8956
49.008 551 23.4734
49.1255 540 23.2379
49.243 527 22.9565
49.3605 563 23.7276
49.478 519 22.7816
49.5955 495 22.2486
49.713 565 23.7697
49.8304 525 22.9129
49.9479 523 22.8692
50.0653 508 22.5389
50.1827 543 23.3024
50.3001 518 22.7596
50.4175 535 23.1301
50.5348 514 22.6716
50.6521 503 22.4277
50.7694 545 23.3452
50.8867 499 22.3383
51.004 510 22.5832
51.1212 496 22.2711
51.2384 530 23.0217
51.3556 577 24.0208
51.4727 611 24.7184
51.5899 573 23.9374
51.707 596 24.4131
51.824 632 25.1396
51.9411 611 24.7184
52.0581 584 24.1661
52.175 539 23.2164
52.2919 612 24.7386
52.4088 638 25.2587
52.5257 666 25.807
52.6425 576 24
52.7593 573 23.9374
52.876 602 24.5357
52.9927 612 24.7386
53.1094 591 24.3105
53.226 548 23.4094
53.3426 572 23.9165
53.4591 615 24.7992
53.5756 614 24.779
53.692 753 27.4408
53.8084 866 29.4279
53.9248 932 30.5287
54.0411 876 29.5973
54.1573 869 29.4788
54.2735 0 1
54.3896 0 1
54.5057 0 1
54.6217 0 1
54.7377 0 1
54.8537 0 1
54.9695 0 1
55.0853 0 1
55.2011 0 1
55.3168 0 1
55.4324 0 1
57.824 0 1
57.9396 0 1
58.0553 0 1
58.1711 0 1
58.2869 0 1
58.4028 0 1
58.5187 0 1
58.6347 0 1
58.7508 0 1
58.8669 0 1
58.983 61632 248.258
59.0992 71427 267.258
59.2155 80021 282.88
59.3318 87428 295.682
59.4482 93315 305.475
59.5646 94721 307.768
59.681 93371 305.567
59.7975 89684 299.473
59.9141 87847 296.39
60.0306 87121 295.163
60.1473 87180 295.263
60.2639 86567 294.223
60.3807 84178 290.134
60.4974 79980 282.807
60.6142 74876 273.635
60.731 69129 262.924
60.8479 62886 250.771
60.9648 56118 236.892
61.0818 49582 222.67
61.1987 42363 205.823
61.3158 35356 188.032
61.4328 28470 168.731
61.5499 22747 150.821
61.667 18153 134.733
61.7841 14867 121.93
61.9013 13388 115.707
62.0185 12575 112.138
62.1357 11949 109.311
62.253 11093 105.323
62.3702 9947 99.7346
62.4875 8883 94.2497
62.6049 7803 88.3346
62.7222 6666 81.6456
62.8396 5355 73.1779
62.9569 4275 65.3835
63.0743 3284 57.3062
63.1918 2728 52.2303
63.3092 2165 46.5296
63.4267 1845 42.9535
63.5441 1497 38.6911
63.6616 1377 37.108
63.7791 1157 34.0147
63.8966 1004 31.686
64.0142 903 30.05
64.1317 817 28.5832
64.2492 811 28.4781
64.3668 741 27.2213
64.4843 709 26.6271
64.6019 658 25.6515
64.7195 663 25.7488
64.837 648 25.4558
64.9546 637 25.2389
65.0722 626 25.02
65.1898 574 23.9583
65.3074 643 25.3574
65.4249 629 25.0799
65.5425 618 24.8596
65.6601 633 25.1595
65.7777 636 25.219
65.8952 628 25.0599
66.0128 666 25.807
66.1304 657 25.632
66.2479 679 26.0576
66.3655 627 25.04
66.483 605 24.5967
66.6005 606 24.6171
66.718 613 24.7588
66.8355 630 25.0998
66.953 616 24.8193
67.0705 585 24.1868
67.1879 629 25.0799
67.3054 661 25.7099
67.4228 669 25.865
67.5402 590 24.2899
67.6576 702 26.4953
67.7749 670 25.8844
67.8923 595 24.3926
68.0096 617 24.8395
68.1269 606 24.6171
68.2442 621 24.9199
68.3614 613 24.7588
68.4787 577 24.0208
68.5958 600 24.4949
68.713 578 24.0416
68.8302 598 24.454
68.9473 572 23.9165
69.0643 599 24.4745
69.1814 527 22.9565
69.2984 566 23.7908
69.4154 602 24.5357
69.5323 588 24.2487
69.6492 635 25.1992
69.7661 567 23.8118
69.8829 589 24.2693
69.9997 577 24.0208
70.1165 667 25.8263
70.2332 576 24
70.3499 555 23.5584
70.4665 569 23.8537
70.5831 547 23.388
70.6996 469 21.6564
70.8161 467 21.6102
70.9326 406 20.1494
71.049 428 20.6882
71.1653 393 19.8242
71.2817 389 19.7231
71.3979 340 18.4391
71.5141 319 17.8606
71.6303 292 17.088
71.7464 246 15.6844
71.8624 0 1
71.9784 0 1
72.0944 0 1
72.2102 0 1
72.3261 0 1
72.4418 0 1
72.5575 0 1
72.6732 0 1
75.1054 0 1
75.2209 0 1
75.3365 0 1
75.4521 0 1
75.5678 0 1
75.6835 0 1
75.7993 0 1
75.9151 0 1
76.031 0 1
76.147 381 19.5192
76.263 412 20.2978
76.3791 508 22.5389
76.4952 507 22.5167
76.6113 499 22.3383
76.7276 533 23.0868
76.8438 570 23.8747
76.9601 511 22.6053
77.0765 534 23.1084
77.1929 515 22.6936
77.3093 535 23.1301
77.4258 531 23.0434
77.5423 540 23.2379
77.6589 541 23.2594
77.7755 472 21.7256
77.8921 467 21.6102
78.0088 481 21.9317
78.1256 444 21.0713
78.2423 469 21.6564
78.3591 496 22.2711
78.4759 517 22.7376
78.5928 542 23.2809
78.7097 527 22.9565
78.8266 509 22.561
78.9436 536 23.1517
79.0606 528 22.9783
79.1776 513 22.6495
79.2946 505 22.4722
79.4117 582 24.1247
79.5288 530 23.0217
79.6459 577 24.0208
79.7631 485 22.0227
79.8802 538 23.1948
79.9974 553 23.516
80.1147 577 24.0208
80.2319 546 23.3666
80.3491 560 23.6643
80.4664 563 23.7276
80.5837 542 23.2809
80.701 511 22.6053
80.8183 564 23.7487
80.9357 520 22.8035
81.053 526 22.9347
81.1704 549 23.4307
81.2877 519 22.7816
81.4051 567 23.8118
81.5225 521 22.8254
81.6399 517 22.7376
81.7573 514 22.6716
81.8747 448 21.166
81.9922 462 21.4942
82.1096 522 22.8473
82.227 543 23.3024
82.3444 499 22.3383
82.4619 513 22.6495
82.5793 511 22.6053
82.6967 486 22.0454
82.8142 542 23.2809
82.9316 542 23.2809
83.049 609 24.6779
83.1664 554 23.5372
83.2838 548 23.4094
83.4012 570 23.8747
83.5186 554 23.5372
83.636 520 22.8035
83.7534 594 24.3721
83.8708 590 24.2899
83.9881 593 24.3516
84.1055 595 24.3926
84.2228 567 23.8118
84.3401 555 23.5584
84.4575 513 22.6495
84.5747 535 23.1301
84.692 519 22.7816
84.8093 576 24
84.9265 565 23.7697
85.0437 600 24.4949
85.1609 549 23.4307
85.2781 527 22.9565
85.3952 512 22.6274
85.5123 510 22.5832
85.6294 483 21.9773
85.7465 519 22.7816
85.8636 523 22.8692
85.9806 554 23.5372
86.0976 549 23.4307
86.2145 557 23.6008
86.3315 547 23.388
86.4484 559 23.6432
86.5652 572 23.9165
86.682 575 23.9792
86.7988 565 23.7697
86.9156 573 23.9374
87.0323 487 22.0681
87.149 512 22.6274
87.2657 554 23.5372
87.3823 527 22.9565
87.4988 526 22.9347
87.6154 542 23.2809
87.7318 527 22.9565
87.8483 483 21.9773
87.9647 502 22.4054
88.081 459 21.4243
88.1973 415 20.3715
88.3136 361 19
88.4298 345 18.5742
88.546 337 18.3576
88.6621 306 17.4929
88.7781 324 18
88.8942 0 1
89.0101 0 1
89.126 0 1
89.2419 0 1
89.3577 0 1
89.4734 0 1
89.5891 0 1
89.7047 0 1
89.8203 0 1
89.9358 0 1
92.3269 0 1
92.4424 0 1
92.558 0 1
92.6736 0 1
92.7893 0 1
92.905 0 1
93.0208 0 1
93.1366 0 1
93.2525 0 1
93.3685 0 1
93.4845 0 1
93.6005 433 20.8087
93.7167 480 21.9089
93.8328 517 22.7376
93.949 506 22.4944
94.0653 558 23.622
94.1816 537 23.1733
94.2979 562 23.7065
94.4143 517 22.7376
94.5307 569 23.8537
94.6472 495 22.2486
94.7637 575 23.9792
94.8803 543 23.3024
94.9969 541 23.2594
95.1135 545 23.3452
95.2302 524 22.891
95.3469 547 23.388
95.4637 566 23.7908
95.5805 578 24.0416
95.6973 599 24.4745
95.8142 613 24.7588
95.9311 557 23.6008
96.048 502 22.4054
96.1649 601 24.5153
96.2819 573 23.9374
96.3989 527 22.9565
96.516 559 23.6432
96.633 584 24.1661
96.7501 605 24.5967
96.8673 588 24.2487
96.9844 625 25
97.1016 553 23.516
97.2188 583 24.1454
97.336 586 24.2074
97.4532 561 23.6854
97.5704 585 24.1868
97.6877 583 24.1454
97.805 573 23.9374
97.9223 615 24.7992
98.0396 616 24.8193
98.1569 575 23.9792
98.2743 576 24
98.3916 582 24.1247
98.509 546 23.3666
98.6264 555 23.5584
98.7438 537 23.1733
98.8612 615 24.7992
98.9786 569 23.8537
99.096 632 25.1396
99.2134 587 24.2281
99.3308 660 25.6905
99.4482 630 25.0998
99.5656 596 24.4131
99.6831 640 25.2982
99.8005 637 25.2389
99.9179 601 24.5153
100.035 586 24.2074
100.153 584 24.1661
100.27 606 24.6171
100.388 600 24.4949
100.505 637 25.2389
100.622 554 23.5372
100.74 572 23.9165
100.857 556 23.5797
100.975 597 24.4336
101.092 601 24.5153
101.209 610 24.6982
101.327 618 24.8596
101.444 607 24.6374
101.561 628 25.0599
101.679 609 24.6779
101.796 605 24.5967
101.913 595 24.3926
102.03 523 22.8692
102.148 552 23.4947
102.265 620 24.8998
102.382 620 24.8998
102.499 587 24.2281
102.616 642 25.3377
102.733 681 26.096
102.851 666 25.807
102.968 615 24.7992
103.085 661 25.7099
103.202 657 25.632
103.319 586 24.2074
103.436 576 24
103.552 630 25.0998
103.669 619 24.8797
103.786 642 25.3377
103.903 657 25.632
104.02 619 24.8797
104.137 618 24.8596
104.253 593 24.3516
104.37 594 24.3721
104.487 611 24.7184
104.603 643 25.3574
104.72 641 25.318
104.836 615 24.7992
104.953 604 24.5764
105.069 544 23.3238
105.186 531 23.0434
105.302 557 23.6008
105.418 434 20.8327
105.535 432 20.7846
105.651 416 20.3961
105.767 403 20.0749
105.883 339 18.412
105.999 324 18
106.115 0 1
106.231 0 1
106.347 0 1
106.463 0 1
106.579 0 1
106.694 0 1
106.81 0 1
106.926 0 1
107.041 0 1
107.157 0 1
109.576 0 1
109.692 0 1
109.807 0 1
109.923 0 1
110.039 0 1
110.155 0 1
110.27 0 1
110.386 0 1
110.502 0 1
110.618 317 17.8045
110.735 340 18.4391
110.851 384 19.5959
110.967 386 19.6469
111.083 474 21.7715
111.199 519 22.7816
111.316 602 24.5357
111.432 598 24.454
111.549 619 24.8797
111.665 575 23.9792
111.782 601 24.5153
111.898 572 23.9165
112.015 547 23.388
112.132 553 23.516
112.248 520 22.8035
112.365 530 23.0217
112.482 536 23.1517
112.599 575 23.9792
112.716 558 23.622
112.832 585 24.1868
112.949 577 24.0208
113.066 523 22.8692
113.183 544 23.3238
113.3 524 22.891
113.417 528 22.9783
113.534 528 22.9783
113.652 561 23.6854
113.769 562 23.7065
113.886 590 24.2899
114.003 580 24.0832
114.12 535 23.1301
114.238 516 22.7156
114.355 479 21.8861
114.472 433 20.8087
114.589 485 22.0227
114.707 488 22.0907
114.824 534 23.1084
114.942 529 23
115.059 585 24.1868
115.176 603 24.5561
115.294 556 23.5797
115.411 569 23.8537
115.529 504 22.4499
115.646 575 23.9792
115.764 558 23.622
115.881 533 23.0868
115.999 494 22.2261
116.116 522 22.8473
116.234 539 23.2164
116.351 497 22.2935
116.469 556 23.5797
116.586 527 22.9565
116.704 552 23.4947
116.821 503 22.4277
116.939 519 22.7816
117.056 538 23.1948
117.174 545 23.3452
117.291 529 23
117.409 550 23.4521
117.526 563 23.7276
117.644 552 23.4947
117.761 475 21.7945
117.879 488 22.0907
117.996 475 21.7945
118.114 435 20.8567
118.231 521 22.8254
118.349 523 22.8692
118.466 543 23.3024
118.584 562 23.7065
118.701 570 23.8747
118.819 554 23.5372
118.936 532 23.0651
119.053 568 23.8328
119.171 498 22.3159
119.288 500 22.3607
119.405 505 22.4722
119.523 470 21.6795
119.64 474 21.7715
119.757 527 22.9565
119.875 505 22.4722
119.992 499 22.3383
120.109 498 22.3159
120.226 528 22.9783
120.343 516 22.7156
120.46 501 22.383
120.578 511 22.6053
120.695 473 21.7486
120.812 559 23.6432
120.929 518 22.7596
121.046 545 23.3452
121.163 462 21.4942
121.279 473 21.7486
121.396 469 21.6564
121.513 474 21.7715
121.63 422 20.5426
121.747 389 19.7231
121.863 422 20.5426
121.98 443 21.0476
122.097 414 20.347
122.213 421 20.5183
122.33 410 20.2485
122.446 409 20.2237
122.563 373 19.3132
122.679 361 19
122.795 335 18.303
122.912 308 17.5499
123.028 269 16.4012
123.144 294 17.1464
123.26 264 16.2481
123.377 0 1
123.493 0 1
123.609 0 1
123.725 0 1
123.84 0 1
123.956 0 1
124.072 0 1
124.188 0 1
124.303 0 1
124.419 0 1
126.852 0 1
126.968 0 1
127.083 0 1
127.199 0 1
127.315 0 1
127.431 0 1
127.547 0 1
127.663 0 1
127.779 0 1
127.895 0 1
128.011 0 1
128.127 0 1
128.243 0 1
128.359 515 22.6936
128.476 533 23.0868
128.592 534 23.1084
128.708 521 22.8254
128.825 593 24.3516
128.941 566 23.7908
129.058 591 24.3105
129.174 600 24.4949
129.291 592 24.3311
129.408 553 23.516
129.524 594 24.3721
129.641 600 24.4949
129.758 622 24.9399
129.875 642 25.3377
129.992 700 26.4575
130.108 674 25.9615
130.225 623 24.96
130.342 696 26.3818
130.459 620 24.8998
130.576 648 25.4558
130.693 598 24.454
130.81 639 25.2784
130.928 753 27.4408
131.045 891 29.8496
131.162 1029 32.078
131.279 1247 35.3129
131.396 1462 38.2361
131.513 1576 39.6989
131.631 1709 41.3401
131.748 1748 41.8091
131.865 1908 43.6807
131.983 2039 45.1553
132.1 2095 45.7712
132.217 2144 46.3033
132.335 2273 47.676
132.452 2244 47.3709
132.57 2241 47.3392
132.687 2341 48.3839
132.804 2357 48.5489
132.922 2342 48.3942
133.039 2310 48.0625
133.157 2298 47.9375
133.274 2331 48.2804
133.392 2303 47.9896
133.509 2243 47.3603
133.627 2143 46.2925
133.744 2165 46.5296
133.862 2147 46.3357
133.979 1933 43.9659
134.097 1467 38.3014
134.214 1339 36.5923
134.332 1324 36.3868
134.449 1572 39.6485
134.567 1778 42.1663
134.684 1809 42.5323
134.802 1892 43.4971
134.919 1753 41.8688
135.037 1692 41.1339
135.154 1775 42.1307
135.272 1599 39.9875
135.389 1605 40.0625
135.507 1628 40.3485
135.624 1475 38.4057
135.742 1521 39
135.859 1491 38.6135
135.977 1542 39.2683
136.094 1553 39.4081
136.211 1596 39.95
136.329 1499 38.7169
136.446 1489 38.5876
136.564 1464 38.2623
136.681 1592 39.8999
136.798 1525 39.0512
136.915 1558 39.4715
137.033 1488 38.5746
137.15 1383 37.1887
137.267 1454 38.1314
137.384 1478 38.4448
137.502 1373 37.054
137.619 1366 36.9594
137.736 1263 35.5387
137.853 1129 33.6006
137.97 1103 33.2114
138.087 1213 34.8281
138.204 1268 35.609
138.321 1314 36.2491
138.438 1282 35.805
138.555 1341 36.6197
138.672 1349 36.7287
138.788 1328 36.4417
138.905 1225 35
139.022 1226 35.0143
139.139 1148 33.8821
139.255 1088 32.9848
139.372 1121 33.4813
139.488 1066 32.6497
139.605 969 31.1288
139.721 970 31.1448
139.838 908 30.133
139.954 845 29.0689
140.071 804 28.3549
140.187 780 27.9285
140.303 727 26.9629
140.419 666 25.807
140.535 721 26.8514
140.652 697 26.4008
140.768 0 1
140.884 0 1
141 0 1
141.115 0 1
141.231 0 1
141.347 0 1
141.463 0 1
141.578 0 1
141.694 0 1
144.104 0 1
144.219 0 1
144.335 0 1
144.45 0 1
144.566 0 1
144.682 0 1
144.798 0 1
144.914 0 1
145.03 0 1
145.146 1344 36.6606
145.262 1443 37.9868
145.378 1439 37.9342
145.494 1581 39.7618
145.61 1586 39.8246
145.726 1599 39.9875
145.842 1658 40.7185
145.959 1700 41.2311
146.075 1662 40.7676
146.192 1601 40.0125
146.308 1582 39.7744
146.425 1495 38.6652
146.541 1507 38.8201
146.658 1524 39.0384
146.774 1577 39.7115
146.891 1629 40.3609
147.008 1749 41.821
147.125 1761 41.9643
147.241 1908 43.6807
147.358 1934 43.9773
147.475 1916 43.7721
147.592 1904 43.6348
147.709 1894 43.5201
147.826 1879 43.3474
147.943 1803 42.4617
148.06 1757 41.9166
148.177 1859 43.1161
148.294 1846 42.9651
148.411 1925 43.8748
148.528 1941 44.0568
148.645 1929 43.9204
148.762 1935 43.9886
148.88 1972 44.4072
148.997 2034 45.0999
149.114 2025 45
149.231 1942 44.0681
149.349 1990 44.6094
149.466 2012 44.8553
149.583 2126 46.1086
149.701 2014 44.8776
149.818 1994 44.6542
149.935 2019 44.9333
150.053 1885 43.4166
150.17 1833 42.8135
150.287 1905 43.6463
150.405 1838 42.8719
150.522 1876 43.3128
150.64 1928 43.909
150.757 1918 43.795
150.875 1981 44.5084
150.992 2016 44.8999
151.11 1928 43.909
151.227 1820 42.6615
151.344 1867 43.2088
151.462 1874 43.2897
151.579 1799 42.4146
151.697 1836 42.8486
151.814 1975 44.441
151.932 2068 45.4753
152.049 2045 45.2217
152.167 2035 45.111
152.284 2093 45.7493
152.402 2166 46.5403
152.519 2177 46.6583
152.636 2192 46.8188
152.754 2245 47.3814
152.871 2221 47.1275
152.989 2150 46.3681
153.106 2267 47.613
153.223 2221 47.1275
153.341 2170 46.5833
153.458 2250 47.4342
153.575 2156 46.4327
153.693 2047 45.2438
153.81 2031 45.0666
153.927 1970 44.3847
154.044 2133 46.1844
154.162 2223 47.1487
154.279 2256 47.4974
154.396 2148 46.3465
154.513 2172 46.6047
154.63 2173 46.6154
154.747 2192 46.8188
154.864 2032 45.0777
154.981 2013 44.8665
155.098 1943 44.0795
155.215 2065 45.4423
155.332 2199 46.8935
155.449 2248 47.4131
155.566 2225 47.1699
155.683 2437 49.366
155.8 2393 48.9183
155.917 2369 48.6724
156.033 2351 48.4871
156.15 0 1
156.267 0 1
156.383 0 1
156.5 0 1
156.617 0 1
156.733 0 1
156.85 0 1
156.966 0 1
157.082 0 1
157.199 0 1
157.315 0 1
157.431 0 1
157.547 0 1
157.664 0 1
157.78 0 1
157.896 0 1
158.012 0 1
158.128 0 1
158.244 0 1
158.359 0 1
158.475 0 1
158.591 0 1
158.706 0 1
