
6.15755 0 1
6.2731 0 1
6.3887 0 1
6.50437 0 1
6.62009 0 1
6.73587 0 1
6.8517 0 1
6.96759 0 1
7.08353 0 1
7.19952 0 1
7.31557 0 1
7.43166 0 1
7.54781 0 1
7.664 0 1
7.78024 0 1
7.89653 0 1
8.01286 0 1
8.12924 0 1
8.24567 0 1
8.36213 0 1
8.47864 0 1
8.59519 0 1
8.71178 0 1
8.82841 0 1
8.94508 0 1
9.06179 0 1
9.17853 0 1
9.29531 0 1
9.41212 0 1
9.52897 0 1
9.64584 0 1
9.76276 0 1
9.8797 0 1
9.99667 0 1
10.1137 0 1
10.2307 0 1
10.3478 0 1
10.4648 0 1
10.5819 0 1
10.6991 0 1
10.8162 0 1
10.9334 0 1
11.0506 0 1
11.1678 0 1
11.285 0 1
11.4023 0 1
11.5196 0 1
11.6369 0 1
11.7542 0 1
11.8715 0 1
11.9888 0 1
12.1062 0 1
12.2235 0 1
12.3409 0 1
12.4582 0 1
12.5756 0 1
12.693 0 1
12.8104 0 1
12.9278 0 1
13.0452 0 1
13.1626 0 1
13.28 0 1
13.3974 0 1
13.5149 0 1
13.6323 0 1
13.7497 0 1
13.8671 0 1
13.9845 0 1
14.1019 0 1
14.2193 0 1
14.3367 0 1
14.4541 0 1
14.5714 0 1
14.6888 0 1
14.8062 0 1
14.9235 0 1
15.0408 1716 41.4246
15.1581 1855 43.0697
15.2755 1956 44.2267
15.3927 1935 43.9886
15.51 2002 44.7437
15.6273 1986 44.5646
15.7445 1937 44.0114
15.8617 1866 43.1972
15.9789 1905 43.6463
16.0961 1860 43.1277
16.2132 1950 44.1588
16.3304 1995 44.6654
16.4475 2061 45.3982
16.5646 2033 45.0888
16.6816 2235 47.2758
16.7986 2285 47.8017
16.9156 2332 48.2908
17.0326 2395 48.9387
17.1496 2272 47.6655
17.2665 2320 48.1664
17.3833 2289 47.8435
17.5002 2224 47.1593
17.617 2150 46.3681
17.7338 1995 44.6654
17.8505 1953 44.1928
17.9672 2006 44.7884
18.0839 2005 44.7772
18.2005 2078 45.5851
18.3171 2092 45.7384
18.4337 2094 45.7602
18.5502 2142 46.2817
18.6666 2203 46.9361
18.7831 2244 47.3709
18.8994 2278 47.7284
19.0158 2301 47.9687
19.1321 2062 45.4093
19.2483 2116 46
19.3645 1942 44.0681
19.4806 1795 42.3674
19.5967 1689 41.0974
19.7128 1524 39.0384
19.8288 1512 38.8844
19.9447 1379 37.1349
20.0606 0 1
20.1764 0 1
20.2922 0 1
20.4079 0 1
20.5236 0 1
20.6392 0 1
20.7548 0 1
20.8702 0 1
23.3078 0 1
23.4233 0 1
23.539 0 1
23.6547 0 1
23.7704 0 1
23.8862 0 1
24.0021 0 1
24.118 0 1
24.234 0 1
24.35 0 1
24.4661 922 30.3645
24.5822 1066 32.6497
24.6984 1278 35.7491
24.8146 1391 37.2961
24.9309 1511 38.8716
25.0472 1583 39.7869
25.1636 1795 42.3674
25.28 1992 44.6318
25.3965 2024 44.9889
25.513 2190 46.7974
25.6296 2233 47.2546
25.7462 2385 48.8365
25.8628 2445 49.4469
25.9795 2349 48.4665
26.0962 2329 48.2597
26.213 2335 48.3218
26.3298 2193 46.8295
26.4466 2207 46.9787
26.5635 2040 45.1664
26.6804 2168 46.5618
26.7973 2138 46.2385
26.9143 2050 45.2769
27.0313 2193 46.8295
27.1483 2311 48.0729
27.2653 2401 49
27.3824 2274 47.6865
27.4996 2332 48.2908
27.6167 2354 48.518
27.7339 2281 47.7598
27.8511 2175 46.6369
27.9683 2137 46.2277
28.0855 2069 45.4863
28.2028 2103 45.8585
28.3201 1966 44.3396
28.4374 1914 43.7493
28.5547 1941 44.0568
28.6721 2037 45.1331
28.7894 2108 45.913
28.9068 2192 46.8188
29.0242 2387 48.8569
29.1416 2375 48.734
29.259 2375 48.734
29.3764 2515 50.1498
29.4939 2337 48.3425
29.6113 2308 48.0416
29.7288 2164 46.5188
29.8463 2145 46.3141
29.9638 2029 45.0444
30.0812 1952 44.1814
30.1987 1941 44.0568
30.3162 2050 45.2769
30.4337 2012 44.8553
30.5512 2126 46.1086
30.6687 2135 46.2061
30.7862 2088 45.6946
30.9037 2125 46.0977
31.0212 2209 47
31.1387 2236 47.2864
31.2562 2139 46.2493
31.3737 2246 47.392
31.4912 2088 45.6946
31.6087 2073 45.5302
31.7262 1957 44.238
31.8436 2005 44.7772
31.9611 1855 43.0697
32.0785 1942 44.0681
32.1959 2011 44.8442
32.3134 2108 45.913
32.4308 2157 46.4435
32.5482 2270 47.6445
32.6655 2187 46.7654
32.7829 2144 46.3033
32.9002 2309 48.0521
33.0176 2296 47.9166
33.1349 2353 48.5077
33.2522 2249 47.4236
33.3694 2069 45.4863
33.4867 1960 44.2719
33.6039 1979 44.486
33.7211 1869 43.2319
33.8383 1806 42.4971
33.9554 1895 43.5316
34.0725 1934 43.9773
34.1896 2087 45.6837
34.3067 2101 45.8367
34.4237 2052 45.299
34.5407 2213 47.0425
34.6577 2183 46.7226
34.7746 2032 45.0777
34.8915 2121 46.0543
35.0084 2060 45.3872
35.1252 1976 44.4522
35.242 2017 44.911
35.3587 2000 44.7214
35.4755 1929 43.9204
35.5921 1842 42.9185
35.7088 1845 42.9535
35.8254 1786 42.2611
35.9419 1894 43.5201
36.0584 1943 44.0795
36.1749 1974 44.4297
36.2913 2043 45.1996
36.4077 2047 45.2438
36.524 1977 44.4635
36.6403 1900 43.589
36.7565 1897 43.5546
36.8727 1688 41.0853
36.9889 1551 39.3827
37.1049 1428 37.7889
37.221 0 1
37.3369 0 1
37.4529 0 1
37.5687 0 1
37.6845 0 1
37.8003 0 1
37.916 0 1
38.0316 0 1
38.1472 0 1
40.5851 0 1
40.7008 0 1
40.8164 0 1
40.9322 0 1
41.048 0 1
41.1639 0 1
41.2798 0 1
41.3958 0 1
41.5118 0 1
41.6279 0 1
41.744 1020 31.9374
41.8602 1139 33.7491
41.9765 1236 35.1568
42.0928 1230 35.0714
42.2091 1247 35.3129
42.3255 1250 35.3553
42.4419 1215 34.8569
42.5584 1287 35.8748
42.675 1476 38.4187
42.7915 1561 39.5095
42.9081 1579 39.7366
43.0248 1649 40.6079
43.1415 1722 41.497
43.2582 1780 42.19
43.375 1817 42.6263
43.4918 1830 42.7785
43.6087 1807 42.5088
43.7256 1827 42.7434
43.8425 1774 42.1189
43.9595 1676 40.939
44.0765 1727 41.5572
44.1935 1560 39.4968
44.3106 1559 39.4842
44.4277 1478 38.4448
44.5448 1497 38.6911
44.6619 1558 39.4715
44.7791 1639 40.4846
44.8963 1793 42.3438
45.0136 1758 41.9285
45.1308 1845 42.9535
45.2481 1847 42.9767
45.3654 1916 43.7721
45.4827 1863 43.1625
45.6001 1803 42.4617
45.7174 1741 41.7253
45.8348 1604 40.05
45.9522 1580 39.7492
46.0697 1419 37.6696
46.1871 1452 38.1051
46.3046 1546 39.3192
46.422 1630 40.3733
46.5395 1703 41.2674
46.657 1755 41.8927
46.7745 1761 41.9643
46.892 1762 41.9762
47.0096 1792 42.332
47.1271 1806 42.4971
47.2446 1830 42.7785
47.3622 1842 42.9185
47.4797 1774 42.1189
47.5973 1813 42.5793
47.7149 1756 41.9047
47.8324 1609 40.1123
47.95 1555 39.4335
48.0675 1500 38.7298
48.1851 1514 38.9102
48.3027 1554 39.4208
48.4202 1691 41.1218
48.5378 1789 42.2966
48.6554 1837 42.8602
48.7729 1852 43.0349
48.8904 1901 43.6005
49.008 1862 43.1509
49.1255 1835 42.8369
49.243 1787 42.2729
49.3605 1559 39.4842
49.478 1526 39.064
49.5955 1477 38.4318
49.713 1397 37.3765
49.8304 1506 38.8072
49.9479 1582 39.7744
50.0653 1652 40.6448
50.1827 1720 41.4729
50.3001 1745 41.7732
50.4175 1872 43.2666
50.5348 1852 43.0349
50.6521 1914 43.7493
50.7694 1940 44.0454
50.8867 1851 43.0232
51.004 1900 43.589
51.1212 1823 42.6966
51.2384 1885 43.4166
51.3556 1804 42.4735
51.4727 1690 41.1096
51.5899 1652 40.6448
51.707 1664 40.7922
51.824 1763 41.9881
51.9411 1868 43.2204
52.0581 1966 44.3396
52.175 2042 45.1885
52.2919 2192 46.8188
52.4088 2258 47.5184
52.5257 2311 48.0729
52.6425 2304 48
52.7593 2218 47.0956
52.876 2213 47.0425
52.9927 2112 45.9565
53.1094 2024 44.9889
53.226 1857 43.0929
53.3426 1816 42.6146
53.4591 1706 41.3038
53.5756 1870 43.2435
53.692 1824 42.7083
53.8084 1862 43.1509
53.9248 1804 42.4735
54.0411 1718 41.4488
54.1573 1617 40.2119
54.2735 0 1
54.3896 0 1
54.5057 0 1
54.6217 0 1
54.7377 0 1
54.8537 0 1
54.9695 0 1
55.0853 0 1
55.2011 0 1
55.3168 0 1
55.4324 0 1
57.824 0 1
57.9396 0 1
58.0553 0 1
58.1711 0 1
58.2869 0 1
58.4028 0 1
58.5187 0 1
58.6347 0 1
58.7508 0 1
58.8669 0 1
58.983 1387 37.2424
59.0992 1612 40.1497
59.2155 1737 41.6773
59.3318 1844 42.9418
59.4482 1910 43.7035
59.5646 2007 44.7996
59.681 2151 46.3789
59.7975 2114 45.9783
59.9141 2152 46.3897
60.0306 2070 45.4973
60.1473 1959 44.2606
60.2639 1976 44.4522
60.3807 1939 44.0341
60.4974 1998 44.699
60.6142 2143 46.2925
60.731 2223 47.1487
60.8479 2293 47.8853
60.9648 2259 47.5289
61.0818 2340 48.3735
61.1987 2282 47.7703
61.3158 2315 48.1144
61.4328 2167 46.551
61.5499 2131 46.1628
61.667 1895 43.5316
61.7841 1796 42.3792
61.9013 1715 41.4126
62.0185 1712 41.3763
62.1357 1858 43.1045
62.253 1969 44.3734
62.3702 2068 45.4753
62.4875 2090 45.7165
62.6049 2196 46.8615
62.7222 2257 47.5079
62.8396 2262 47.5605
62.9569 2255 47.4868
63.0743 2255 47.4868
63.1918 2189 46.7868
63.3092 2165 46.5296
63.4267 2170 46.5833
63.5441 2110 45.9347
63.6616 1986 44.5646
63.7791 1853 43.0465
63.8966 1779 42.1782
64.0142 1792 42.332
64.1317 1900 43.589
64.2492 2120 46.0435
64.3668 2295 47.9062
64.4843 2277 47.7179
64.6019 2290 47.8539
64.7195 2313 48.0937
64.837 2263 47.571
64.9546 2263 47.571
65.0722 2156 46.4327
65.1898 1940 44.0454
65.3074 1805 42.4853
65.4249 1684 41.0366
65.5425 1646 40.5709
65.6601 1682 41.0122
65.7777 1805 42.4853
65.8952 1823 42.6966
66.0128 1956 44.2267
66.1304 2137 46.2277
66.2479 2200 46.9042
66.3655 2232 47.244
66.483 2159 46.465
66.6005 2254 47.4763
66.718 2285 47.8017
66.8355 2152 46.3897
66.953 2115 45.9891
67.0705 2132 46.1736
67.1879 1935 43.9886
67.3054 1933 43.9659
67.4228 1827 42.7434
67.5402 1761 41.9643
67.6576 1852 43.0349
67.7749 1838 42.8719
67.8923 1888 43.4511
68.0096 2070 45.4973
68.1269 2161 46.4866
68.2442 2258 47.5184
68.3614 2171 46.594
68.4787 2136 46.2169
68.5958 2164 46.5188
68.713 2108 45.913
68.8302 1963 44.3058
68.9473 1732 41.6173
69.0643 1669 40.8534
69.1814 1634 40.4228
69.2984 1605 40.0625
69.4154 1814 42.5911
69.5323 1853 43.0465
69.6492 1964 44.317
69.7661 1962 44.2945
69.8829 2158 46.4543
69.9997 1992 44.6318
70.1165 1882 43.382
70.2332 1934 43.9773
70.3499 1908 43.6807
70.4665 1788 42.2847
70.5831 1609 40.1123
70.6996 1535 39.1791
70.8161 1467 38.3014
70.9326 1425 37.7492
71.049 1185 34.4238
71.1653 973 31.1929
71.2817 845 29.0689
71.3979 864 29.3939
71.5141 772 27.7849
71.6303 792 28.1425
71.7464 717 26.7769
71.8624 0 1
71.9784 0 1
72.0944 0 1
72.2102 0 1
72.3261 0 1
72.4418 0 1
72.5575 0 1
72.6732 0 1
75.1054 0 1
75.2209 0 1
75.3365 0 1
75.4521 0 1
75.5678 0 1
75.6835 0 1
75.7993 0 1
75.9151 0 1
76.031 0 1
76.147 1263 35.5387
76.263 1332 36.4966
76.3791 1368 36.9865
76.4952 1393 37.3229
76.6113 1502 38.7556
76.7276 1562 39.5221
76.8438 1675 40.9268
76.9601 1831 42.7902
77.0765 1845 42.9535
77.1929 1872 43.2666
77.3093 1840 42.8952
77.4258 1872 43.2666
77.5423 1885 43.4166
77.6589 1832 42.8019
77.7755 1593 39.9124
77.8921 1499 38.7169
78.0088 1419 37.6696
78.1256 1280 35.7771
78.2423 1339 36.5923
78.3591 1518 38.9615
78.4759 1632 40.398
78.5928 1660 40.7431
78.7097 1668 40.8412
78.8266 1756 41.9047
78.9436 1852 43.0349
79.0606 1837 42.8602
79.1776 1869 43.2319
79.2946 1911 43.715
79.4117 1993 44.643
79.5288 1932 43.9545
79.6459 1928 43.909
79.7631 1846 42.9651
79.8802 1744 41.7612
79.9974 1629 40.3609
80.1147 1570 39.6232
80.2319 1568 39.598
80.3491 1603 40.0375
80.4664 1678 40.9634
80.5837 1815 42.6028
80.701 1835 42.8369
80.8183 1944 44.0908
80.9357 1954 44.2041
81.053 2011 44.8442
81.1704 1957 44.238
81.2877 2039 45.1553
81.4051 1860 43.1277
81.5225 1659 40.7308
81.6399 1604 40.05
81.7573 1483 38.5097
81.8747 1346 36.6879
81.9922 1361 36.8917
82.1096 1568 39.598
82.227 1743 41.7493
82.3444 1772 42.0951
82.4619 1774 42.1189
82.5793 1924 43.8634
82.6967 1941 44.0568
82.8142 1966 44.3396
82.9316 2036 45.1221
83.049 2033 45.0888
83.1664 1909 43.6921
83.2838 1961 44.2832
83.4012 1942 44.0681
83.5186 1817 42.6263
83.636 1808 42.5206
83.7534 1674 40.9145
83.8708 1616 40.1995
83.9881 1599 39.9875
84.1055 1672 40.8901
84.2228 1775 42.1307
84.3401 1918 43.795
84.4575 2055 45.3321
84.5747 2013 44.8665
84.692 1962 44.2945
84.8093 1954 44.2041
84.9265 1939 44.0341
85.0437 1841 42.9069
85.1609 1634 40.4228
85.2781 1571 39.6358
85.3952 1458 38.1838
85.5123 1352 36.7696
85.6294 1428 37.7889
85.7465 1607 40.0874
85.8636 1685 41.0488
85.9806 1833 42.8135
86.0976 1909 43.6921
86.2145 1933 43.9659
86.3315 1890 43.4741
86.4484 2012 44.8553
86.5652 2011 44.8442
86.682 2065 45.4423
86.7988 1979 44.486
86.9156 1985 44.5533
87.0323 1898 43.566
87.149 1888 43.4511
87.2657 1817 42.6263
87.3823 1589 39.8623
87.4988 1368 36.9865
87.6154 1392 37.3095
87.7318 1456 38.1576
87.8483 1514 38.9102
87.9647 1545 39.3065
88.081 1601 40.0125
88.1973 1548 39.3446
88.3136 1471 38.3536
88.4298 1420 37.6829
88.546 1292 35.9444
88.6621 1122 33.4963
88.7781 886 29.7658
88.8942 0 1
89.0101 0 1
89.126 0 1
89.2419 0 1
89.3577 0 1
89.4734 0 1
89.5891 0 1
89.7047 0 1
89.8203 0 1
89.9358 0 1
92.3269 0 1
92.4424 0 1
92.558 0 1
92.6736 0 1
92.7893 0 1
92.905 0 1
93.0208 0 1
93.1366 0 1
93.2525 0 1
93.3685 0 1
93.4845 0 1
93.6005 1493 38.6394
93.7167 1702 41.2553
93.8328 1700 41.2311
93.949 1734 41.6413
94.0653 1774 42.1189
94.1816 1702 41.2553
94.2979 1626 40.3237
94.4143 1565 39.5601
94.5307 1471 38.3536
94.6472 1421 37.6962
94.7637 1456 38.1576
94.8803 1627 40.3361
94.9969 1714 41.4005
95.1135 1887 43.4396
95.2302 1917 43.7836
95.3469 1896 43.5431
95.4637 2043 45.1996
95.5805 2028 45.0333
95.6973 2100 45.8258
95.8142 2032 45.0777
95.9311 1959 44.2606
96.048 1968 44.3621
96.1649 1974 44.4297
96.2819 1933 43.9659
96.3989 1906 43.6578
96.516 1850 43.0116
96.633 1714 41.4005
96.7501 1630 40.3733
96.8673 1675 40.9268
96.9844 1870 43.2435
97.1016 1841 42.9069
97.2188 2025 45
97.336 2123 46.076
97.4532 2162 46.4973
97.5704 2115 45.9891
97.6877 2085 45.6618
97.805 1969 44.3734
97.9223 1796 42.3792
98.0396 1652 40.6448
98.1569 1575 39.6863
98.2743 1443 37.9868
98.3916 1493 38.6394
98.509 1549 39.3573
98.6264 1705 41.2916
98.7438 1864 43.1741
98.8612 1907 43.6692
98.9786 2027 45.0222
99.096 2146 46.3249
99.2134 2172 46.6047
99.3308 2183 46.7226
99.4482 2202 46.9255
99.5656 2108 45.913
99.6831 2144 46.3033
99.8005 2094 45.7602
99.9179 2066 45.4533
100.035 2014 44.8776
100.153 1835 42.8369
100.27 1857 43.0929
100.388 1823 42.6966
100.505 1778 42.1663
100.622 1960 44.2719
100.74 1979 44.486
100.857 2172 46.6047
100.975 2228 47.2017
101.092 2218 47.0956
101.209 2213 47.0425
101.327 2164 46.5188
101.444 2048 45.2548
101.561 1776 42.1426
101.679 1717 41.4367
101.796 1560 39.4968
101.913 1511 38.8716
102.03 1569 39.6106
102.148 1774 42.1189
102.265 1816 42.6146
102.382 2059 45.3762
102.499 2058 45.3652
102.616 2183 46.7226
102.733 2225 47.1699
102.851 2284 47.7912
102.968 2195 46.8508
103.085 2266 47.6025
103.202 2311 48.0729
103.319 2251 47.4447
103.436 2170 46.5833
103.552 2158 46.4543
103.669 2019 44.9333
103.786 1831 42.7902
103.903 1842 42.9185
104.02 1896 43.5431
104.137 2017 44.911
104.253 2085 45.6618
104.37 2285 47.8017
104.487 2320 48.1664
104.603 2321 48.1768
104.72 2221 47.1275
104.836 2103 45.8585
104.953 1979 44.486
105.069 1786 42.2611
105.186 1588 39.8497
105.302 1425 37.7492
105.418 1380 37.1484
105.535 1383 37.1887
105.651 1395 37.3497
105.767 1441 37.9605
105.883 1426 37.7624
105.999 1363 36.9188
106.115 0 1
106.231 0 1
106.347 0 1
106.463 0 1
106.579 0 1
106.694 0 1
106.81 0 1
106.926 0 1
107.041 0 1
107.157 0 1
109.576 0 1
109.692 0 1
109.807 0 1
109.923 0 1
110.039 0 1
110.155 0 1
110.27 0 1
110.386 0 1
110.502 0 1
110.618 966 31.0805
110.735 1207 34.7419
110.851 1499 38.7169
110.967 1625 40.3113
111.083 1686 41.0609
111.199 1801 42.4382
111.316 1966 44.3396
111.432 2008 44.8107
111.549 2078 45.5851
111.665 2112 45.9565
111.782 2203 46.9361
111.898 1997 44.6878
112.015 1968 44.3621
112.132 2000 44.7214
112.248 1859 43.1161
112.365 1767 42.0357
112.482 1715 41.4126
112.599 1935 43.9886
112.716 1958 44.2493
112.832 2047 45.2438
112.949 2141 46.2709
113.066 2179 46.6798
113.183 2178 46.669
113.3 2139 46.2493
113.417 2047 45.2438
113.534 1941 44.0568
113.652 1791 42.3202
113.769 1602 40.025
113.886 1511 38.8716
114.003 1438 37.921
114.12 1589 39.8623
114.238 1673 40.9023
114.355 1772 42.0951
114.472 1893 43.5086
114.589 2155 46.422
114.707 2045 45.2217
114.824 2182 46.7119
114.942 2178 46.669
115.059 2189 46.7868
115.176 2137 46.2277
115.294 2166 46.5403
115.411 2178 46.669
115.529 2077 45.5741
115.646 2078 45.5851
115.764 1956 44.2267
115.881 1773 42.107
115.999 1815 42.6028
116.116 1865 43.1856
116.234 1913 43.7379
116.351 2002 44.7437
116.469 2121 46.0543
116.586 2250 47.4342
116.704 2126 46.1086
116.821 2029 45.0444
116.939 2140 46.2601
117.056 2011 44.8442
117.174 1872 43.2666
117.291 1736 41.6653
117.409 1585 39.8121
117.526 1456 38.1576
117.644 1542 39.2683
117.761 1672 40.8901
117.879 1725 41.5331
117.996 1922 43.8406
118.114 1971 44.3959
118.231 2034 45.0999
118.349 2078 45.5851
118.466 2074 45.5412
118.584 2072 45.5192
118.701 2074 45.5412
118.819 2116 46
118.936 2093 45.7493
119.053 2048 45.2548
119.171 1979 44.486
119.288 1942 44.0681
119.405 1785 42.2493
119.523 1715 41.4126
119.64 1717 41.4367
119.757 1756 41.9047
119.875 1809 42.5323
119.992 1926 43.8862
120.109 1996 44.6766
120.226 2016 44.8999
120.343 1985 44.5533
120.46 2046 45.2327
120.578 1957 44.238
120.695 1893 43.5086
120.812 1856 43.0813
120.929 1669 40.8534
121.046 1593 39.9124
121.163 1445 38.0132
121.279 1407 37.51
121.396 1415 37.6165
121.513 1453 38.1182
121.63 1554 39.4208
121.747 1626 40.3237
121.863 1600 40
121.98 1666 40.8167
122.097 1705 41.2916
122.213 1575 39.6863
122.33 1567 39.5854
122.446 1518 38.9615
122.563 1380 37.1484
122.679 1347 36.7015
122.795 1279 35.7631
122.912 1122 33.4963
123.028 1022 31.9687
123.144 907 30.1164
123.26 816 28.5657
123.377 0 1
123.493 0 1
123.609 0 1
123.725 0 1
123.84 0 1
123.956 0 1
124.072 0 1
124.188 0 1
124.303 0 1
124.419 0 1
126.852 0 1
126.968 0 1
127.083 0 1
127.199 0 1
127.315 0 1
127.431 0 1
127.547 0 1
127.663 0 1
127.779 0 1
127.895 0 1
128.011 0 1
128.127 0 1
128.243 0 1
128.359 1878 43.3359
128.476 1886 43.4281
128.592 1927 43.8976
128.708 1871 43.2551
128.825 1936 44
128.941 1971 44.3959
129.058 2110 45.9347
129.174 2180 46.6905
129.291 2221 47.1275
129.408 2247 47.4025
129.524 2159 46.465
129.641 2233 47.2546
129.758 2066 45.4533
129.875 1897 43.5546
129.992 1772 42.0951
130.108 1692 41.1339
130.225 1593 39.9124
130.342 1566 39.5727
130.459 1621 40.2616
130.576 1876 43.3128
130.693 1883 43.3935
130.81 2026 45.0111
130.928 2112 45.9565
131.045 2058 45.3652
131.162 2158 46.4543
131.279 2190 46.7974
131.396 2155 46.422
131.513 2152 46.3897
131.631 2099 45.8148
131.748 2060 45.3872
131.865 2019 44.9333
131.983 2048 45.2548
132.1 1973 44.4185
132.217 1881 43.3705
132.335 1990 44.6094
132.452 2041 45.1774
132.57 2067 45.4643
132.687 2187 46.7654
132.804 2279 47.7389
132.922 2267 47.613
133.039 2155 46.422
133.157 2211 47.0213
133.274 2191 46.8081
133.392 2019 44.9333
133.509 1897 43.5546
133.627 1799 42.4146
133.744 1625 40.3113
133.862 1581 39.7618
133.979 1650 40.6202
134.097 1842 42.9185
134.214 1988 44.587
134.332 2017 44.911
134.449 2100 45.8258
134.567 2093 45.7493
134.684 2175 46.6369
134.802 2234 47.2652
134.919 2248 47.4131
135.037 2191 46.8081
135.154 2251 47.4447
135.272 2061 45.3982
135.389 2140 46.2601
135.507 2090 45.7165
135.624 1986 44.5646
135.742 1930 43.9318
135.859 2000 44.7214
135.977 1965 44.3283
136.094 2126 46.1086
136.211 2081 45.618
136.329 2265 47.592
136.446 2320 48.1664
136.564 2239 47.3181
136.681 2242 47.3498
136.798 2284 47.7912
136.915 2133 46.1844
137.033 2086 45.6727
137.15 1934 43.9773
137.267 1839 42.8836
137.384 1686 41.0609
137.502 1603 40.0375
137.619 1684 41.0366
137.736 1852 43.0349
137.853 1904 43.6348
137.97 1986 44.5646
138.087 2013 44.8665
138.204 2142 46.2817
138.321 2131 46.1628
138.438 2156 46.4327
138.555 2235 47.2758
138.672 2202 46.9255
138.788 2098 45.8039
138.905 2064 45.4313
139.022 1916 43.7721
139.139 1729 41.5812
139.255 1699 41.2189
139.372 1606 40.0749
139.488 1444 38
139.605 1415 37.6165
139.721 1379 37.1349
139.838 1390 37.2827
139.954 1396 37.3631
140.071 1303 36.0971
140.187 1260 35.4965
140.303 1144 33.8231
140.419 1053 32.45
140.535 1042 32.28
140.652 932 30.5287
140.768 0 1
140.884 0 1
141 0 1
141.115 0 1
141.231 0 1
141.347 0 1
141.463 0 1
141.578 0 1
141.694 0 1
144.104 0 1
144.219 0 1
144.335 0 1
144.45 0 1
144.566 0 1
144.682 0 1
144.798 0 1
144.914 0 1
145.03 0 1
145.146 1616 40.1995
145.262 1677 40.9512
145.378 1679 40.9756
145.494 1740 41.7133
145.61 1668 40.8412
145.726 1607 40.0874
145.842 1615 40.1871
145.959 1456 38.1576
146.075 1448 38.0526
146.192 1374 37.0675
146.308 1341 36.6197
146.425 1351 36.756
146.541 1399 37.4032
146.658 1498 38.704
146.774 1525 39.0512
146.891 1569 39.6106
147.008 1664 40.7922
147.125 1662 40.7676
147.241 1747 41.7971
147.358 1758 41.9285
147.475 1655 40.6817
147.592 1728 41.5692
147.709 1600 40
147.826 1658 40.7185
147.943 1630 40.3733
148.06 1513 38.8973
148.177 1471 38.3536
148.294 1586 39.8246
148.411 1587 39.8372
148.528 1571 39.6358
148.645 1701 41.2432
148.762 1775 42.1307
148.88 1754 41.8808
148.997 1787 42.2729
149.114 1720 41.4729
149.231 1661 40.7554
149.349 1761 41.9643
149.466 1695 41.1704
149.583 1608 40.0999
149.701 1447 38.0395
149.818 1539 39.2301
149.935 1385 37.2156
150.053 1365 36.9459
150.17 1421 37.6962
150.287 1504 38.7814
150.405 1562 39.5221
150.522 1559 39.4842
150.64 1624 40.2989
150.757 1685 41.0488
150.875 1630 40.3733
150.992 1669 40.8534
151.11 1642 40.5216
151.227 1637 40.4599
151.344 1691 41.1218
151.462 1617 40.2119
151.579 1555 39.4335
151.697 1536 39.1918
151.814 1454 38.1314
151.932 1509 38.8458
152.049 1531 39.128
152.167 1512 38.8844
152.284 1649 40.6079
152.402 1642 40.5216
152.519 1676 40.939
152.636 1664 40.7922
152.754 1668 40.8412
152.871 1676 40.939
152.989 1617 40.2119
153.106 1590 39.8748
153.223 1489 38.5876
153.341 1385 37.2156
153.458 1303 36.0971
153.575 1254 35.4119
153.693 1317 36.2905
153.81 1400 37.4166
153.927 1380 37.1484
154.044 1461 38.223
154.162 1455 38.1445
154.279 1520 38.9872
154.396 1563 39.5348
154.513 1595 39.9375
154.63 1553 39.4081
154.747 1574 39.6737
154.864 1554 39.4208
154.981 1481 38.4838
155.098 1464 38.2623
155.215 1504 38.7814
155.332 1416 37.6298
155.449 1319 36.318
155.566 1342 36.6333
155.683 1406 37.4967
155.8 1510 38.8587
155.917 1448 38.0526
156.033 1435 37.8814
156.15 0 1
156.267 0 1
156.383 0 1
156.5 0 1
156.617 0 1
156.733 0 1
156.85 0 1
156.966 0 1
157.082 0 1
157.199 0 1
157.315 0 1
157.431 0 1
157.547 0 1
157.664 0 1
157.78 0 1
157.896 0 1
158.012 0 1
158.128 0 1
158.244 0 1
158.359 0 1
158.475 0 1
158.591 0 1
158.706 0 1
