
6.15755 0 1
6.2731 0 1
6.3887 0 1
6.50437 0 1
6.62009 0 1
6.73587 0 1
6.8517 0 1
6.96759 0 1
7.08353 0 1
7.19952 0 1
7.31557 0 1
7.43166 0 1
7.54781 0 1
7.664 0 1
7.78024 0 1
7.89653 0 1
8.01286 0 1
8.12924 0 1
8.24567 0 1
8.36213 0 1
8.47864 0 1
8.59519 0 1
8.71178 0 1
8.82841 0 1
8.94508 0 1
9.06179 0 1
9.17853 0 1
9.29531 0 1
9.41212 0 1
9.52897 0 1
9.64584 0 1
9.76276 0 1
9.8797 0 1
9.99667 0 1
10.1137 0 1
10.2307 0 1
10.3478 0 1
10.4648 0 1
10.5819 0 1
10.6991 0 1
10.8162 0 1
10.9334 0 1
11.0506 0 1
11.1678 0 1
11.285 0 1
11.4023 0 1
11.5196 0 1
11.6369 0 1
11.7542 0 1
11.8715 0 1
11.9888 0 1
12.1062 0 1
12.2235 0 1
12.3409 0 1
12.4582 0 1
12.5756 0 1
12.693 0 1
12.8104 0 1
12.9278 0 1
13.0452 0 1
13.1626 0 1
13.28 0 1
13.3974 0 1
13.5149 0 1
13.6323 0 1
13.7497 0 1
13.8671 0 1
13.9845 0 1
14.1019 0 1
14.2193 0 1
14.3367 0 1
14.4541 0 1
14.5714 0 1
14.6888 0 1
14.8062 0 1
14.9235 0 1
15.0408 0 0
15.1581 0 0
15.2755 0 0
15.3927 0 0
15.51 0 0
15.6273 0 0
15.7445 0 0
15.8617 0 0
15.9789 0 0
16.0961 0 0
16.2132 0 0
16.3304 0 0
16.4475 0 0
16.5646 0 0
16.6816 0 0
16.7986 0 0
16.9156 0 0
17.0326 0 0
17.1496 0 0
17.2665 0 0
17.3833 0 0
17.5002 0 0
17.617 0 0
17.7338 0 0
17.8505 0 0
17.9672 0 0
18.0839 0 0
18.2005 0 0
18.3171 0 0
18.4337 0 0
18.5502 0 0
18.6666 0 0
18.7831 0 0
18.8994 0 0
19.0158 0 0
19.1321 0 0
19.2483 0 0
19.3645 0 0
19.4806 0 0
19.5967 0 0
19.7128 0 0
19.8288 0 0
19.9447 0 0
20.0606 0 1
20.1764 0 1
20.2922 0 1
20.4079 0 1
20.5236 0 1
20.6392 0 1
20.7548 0 1
20.8702 0 1
23.3078 0 1
23.4233 0 1
23.539 0 1
23.6547 0 1
23.7704 0 1
23.8862 0 1
24.0021 0 1
24.118 0 1
24.234 0 1
24.35 0 1
24.4661 1218 34.8999
24.5822 1157 34.0147
24.6984 1142 33.7935
24.8146 1140 33.7639
24.9309 1204 34.6987
25.0472 1160 34.0588
25.1636 1155 33.9853
25.28 1239 35.1994
25.3965 1239 35.1994
25.513 1260 35.4965
25.6296 1372 37.0405
25.7462 1408 37.5233
25.8628 1313 36.2353
25.9795 1422 37.7094
26.0962 1415 37.6165
26.213 1367 36.973
26.3298 1439 37.9342
26.4466 1324 36.3868
26.5635 1377 37.108
26.6804 1260 35.4965
26.7973 1285 35.8469
26.9143 1286 35.8608
27.0313 1315 36.2629
27.1483 1329 36.4555
27.2653 1336 36.5513
27.3824 1377 37.108
27.4996 1332 36.4966
27.6167 1365 36.9459
27.7339 1306 36.1386
27.8511 1352 36.7696
27.9683 1226 35.0143
28.0855 1188 34.4674
28.2028 1189 34.4819
28.3201 1147 33.8674
28.4374 1166 34.1467
28.5547 1071 32.7261
28.6721 1120 33.4664
28.7894 1165 34.1321
28.9068 1192 34.5254
29.0242 1202 34.6699
29.1416 1319 36.318
29.259 1298 36.0278
29.3764 1378 37.1214
29.4939 1278 35.7491
29.6113 1325 36.4005
29.7288 1348 36.7151
29.8463 1378 37.1214
29.9638 1329 36.4555
30.0812 1271 35.6511
30.1987 1241 35.2278
30.3162 1222 34.9571
30.4337 1230 35.0714
30.5512 1253 35.3977
30.6687 1348 36.7151
30.7862 1317 36.2905
30.9037 1326 36.4143
31.0212 1396 37.3631
31.1387 1405 37.4833
31.2562 1374 37.0675
31.3737 1354 36.7967
31.4912 1359 36.8646
31.6087 1256 35.4401
31.7262 1163 34.1028
31.8436 1172 34.2345
31.9611 1152 33.9411
32.0785 1088 32.9848
32.1959 1117 33.4215
32.3134 1138 33.7343
32.4308 1205 34.7131
32.5482 1203 34.6843
32.6655 1260 35.4965
32.7829 1314 36.2491
32.9002 1300 36.0555
33.0176 1352 36.7696
33.1349 1366 36.9594
33.2522 1314 36.2491
33.3694 1323 36.3731
33.4867 1461 38.223
33.6039 1315 36.2629
33.7211 1298 36.0278
33.8383 1284 35.8329
33.9554 1285 35.8469
34.0725 1282 35.805
34.1896 1297 36.0139
34.3067 1293 35.9583
34.4237 1239 35.1994
34.5407 1399 37.4032
34.6577 1348 36.7151
34.7746 1432 37.8418
34.8915 1382 37.1753
35.0084 1328 36.4417
35.1252 1327 36.428
35.242 1263 35.5387
35.3587 1251 35.3695
35.4755 1121 33.4813
35.5921 1046 32.3419
35.7088 1120 33.4664
35.8254 1074 32.7719
35.9419 1103 33.2114
36.0584 1090 33.0151
36.1749 1184 34.4093
36.2913 1217 34.8855
36.4077 1294 35.9722
36.524 1349 36.7287
36.6403 1281 35.7911
36.7565 1345 36.6742
36.8727 1328 36.4417
36.9889 1340 36.606
37.1049 1366 36.9594
37.221 0 1
37.3369 0 1
37.4529 0 1
37.5687 0 1
37.6845 0 1
37.8003 0 1
37.916 0 1
38.0316 0 1
38.1472 0 1
40.5851 0 1
40.7008 0 1
40.8164 0 1
40.9322 0 1
41.048 0 1
41.1639 0 1
41.2798 0 1
41.3958 0 1
41.5118 0 1
41.6279 0 1
41.744 1116 33.4066
41.8602 1136 33.7046
41.9765 1162 34.0881
42.0928 1191 34.5109
42.2091 1181 34.3657
42.3255 1237 35.171
42.4419 1200 34.641
42.5584 1134 33.6749
42.675 1071 32.7261
42.7915 1027 32.0468
42.9081 1145 33.8378
43.0248 1187 34.4529
43.1415 1185 34.4238
43.2582 1246 35.2987
43.375 1206 34.7275
43.4918 1214 34.8425
43.6087 1182 34.3802
43.7256 1202 34.6699
43.8425 1141 33.7787
43.9595 1133 33.6601
44.0765 1167 34.1614
44.1935 1073 32.7567
44.3106 953 30.8707
44.4277 929 30.4795
44.5448 836 28.9137
44.6619 890 29.8329
44.7791 935 30.5778
44.8963 929 30.4795
45.0136 953 30.8707
45.1308 1028 32.0624
45.2481 1079 32.8481
45.3654 1045 32.3265
45.4827 1040 32.249
45.6001 1054 32.4654
45.7174 1024 32
45.8348 1054 32.4654
45.9522 1032 32.1248
46.0697 965 31.0644
46.1871 966 31.0805
46.3046 859 29.3087
46.422 881 29.6816
46.5395 885 29.7489
46.657 952 30.8545
46.7745 947 30.7734
46.892 957 30.9354
47.0096 918 30.2985
47.1271 938 30.6268
47.2446 938 30.6268
47.3622 891 29.8496
47.4797 873 29.5466
47.5973 888 29.7993
47.7149 823 28.688
47.8324 834 28.8791
47.95 735 27.1109
48.0675 697 26.4008
48.1851 710 26.6458
48.3027 658 25.6515
48.4202 701 26.4764
48.5378 761 27.5862
48.6554 737 27.1477
48.7729 868 29.4618
48.8904 828 28.775
49.008 846 29.0861
49.1255 852 29.189
49.243 831 28.8271
49.3605 887 29.7825
49.478 884 29.7321
49.5955 808 28.4253
49.713 791 28.1247
49.8304 823 28.688
49.9479 813 28.5132
50.0653 871 29.5127
50.1827 897 29.95
50.3001 949 30.8058
50.4175 1027 32.0468
50.5348 986 31.4006
50.6521 1048 32.3728
50.7694 1026 32.0312
50.8867 1090 33.0151
51.004 1113 33.3617
51.1212 1085 32.9393
51.2384 1036 32.187
51.3556 1027 32.0468
51.4727 963 31.0322
51.5899 900 30
51.707 901 30.0167
51.824 937 30.6105
51.9411 998 31.5911
52.0581 1034 32.1559
52.175 1092 33.0454
52.2919 1272 35.6651
52.4088 1235 35.1426
52.5257 1290 35.9166
52.6425 1324 36.3868
52.7593 1339 36.5923
52.876 1256 35.4401
52.9927 1296 36
53.1094 1335 36.5377
53.226 1310 36.1939
53.3426 1244 35.2704
53.4591 1279 35.7631
53.5756 1296 36
53.692 1318 36.3043
53.8084 1377 37.108
53.9248 1380 37.1484
54.0411 1433 37.855
54.1573 1417 37.6431
54.2735 0 1
54.3896 0 1
54.5057 0 1
54.6217 0 1
54.7377 0 1
54.8537 0 1
54.9695 0 1
55.0853 0 1
55.2011 0 1
55.3168 0 1
55.4324 0 1
57.824 0 1
57.9396 0 1
58.0553 0 1
58.1711 0 1
58.2869 0 1
58.4028 0 1
58.5187 0 1
58.6347 0 1
58.7508 0 1
58.8669 0 1
58.983 1788 42.2847
59.0992 1784 42.2374
59.2155 1783 42.2256
59.3318 1839 42.8836
59.4482 1852 43.0349
59.5646 1901 43.6005
59.681 1837 42.8602
59.7975 1769 42.0595
59.9141 1706 41.3038
60.0306 1629 40.3609
60.1473 1603 40.0375
60.2639 1355 36.8103
60.3807 1402 37.4433
60.4974 1313 36.2353
60.6142 1369 37
60.731 1464 38.2623
60.8479 1675 40.9268
60.9648 1730 41.5933
61.0818 1699 41.2189
61.1987 1773 42.107
61.3158 1787 42.2729
61.4328 1830 42.7785
61.5499 1766 42.0238
61.667 1802 42.45
61.7841 1749 41.821
61.9013 1704 41.2795
62.0185 1677 40.9512
62.1357 1652 40.6448
62.253 1802 42.45
62.3702 1748 41.8091
62.4875 1867 43.2088
62.6049 1845 42.9535
62.7222 1860 43.1277
62.8396 1883 43.3935
62.9569 1834 42.8252
63.0743 1787 42.2729
63.1918 1875 43.3013
63.3092 1777 42.1545
63.4267 1743 41.7493
63.5441 1695 41.1704
63.6616 1553 39.4081
63.7791 1430 37.8153
63.8966 1339 36.5923
64.0142 1301 36.0694
64.1317 1409 37.5366
64.2492 1627 40.3361
64.3668 1589 39.8623
64.4843 1691 41.1218
64.6019 1845 42.9535
64.7195 1792 42.332
64.837 1855 43.0697
64.9546 1890 43.4741
65.0722 1889 43.4626
65.1898 1844 42.9418
65.3074 1930 43.9318
65.4249 1816 42.6146
65.5425 1737 41.6773
65.6601 1743 41.7493
65.7777 1796 42.3792
65.8952 1793 42.3438
66.0128 1919 43.8064
66.1304 1944 44.0908
66.2479 1918 43.795
66.3655 1951 44.1701
66.483 1951 44.1701
66.6005 1968 44.3621
66.718 2044 45.2106
66.8355 1941 44.0568
66.953 1971 44.3959
67.0705 1844 42.9418
67.1879 1696 41.1825
67.3054 1610 40.1248
67.4228 1443 37.9868
67.5402 1319 36.318
67.6576 1353 36.7831
67.7749 1396 37.3631
67.8923 1609 40.1123
68.0096 1796 42.3792
68.1269 1838 42.8719
68.2442 1932 43.9545
68.3614 2039 45.1553
68.4787 2056 45.3431
68.5958 2099 45.8148
68.713 2127 46.1194
68.8302 2051 45.288
68.9473 1999 44.7102
69.0643 2064 45.4313
69.1814 2019 44.9333
69.2984 2022 44.9667
69.4154 2037 45.1331
69.5323 2109 45.9239
69.6492 2157 46.4435
69.7661 2228 47.2017
69.8829 2163 46.5081
69.9997 2227 47.1911
70.1165 2299 47.9479
70.2332 2221 47.1275
70.3499 2173 46.6154
70.4665 2243 47.3603
70.5831 2146 46.3249
70.6996 2124 46.0869
70.8161 2061 45.3982
70.9326 1938 44.0227
71.049 1791 42.3202
71.1653 1534 39.1663
71.2817 1407 37.51
71.3979 1461 38.223
71.5141 1575 39.6863
71.6303 1729 41.5812
71.7464 1755 41.8927
71.8624 0 1
71.9784 0 1
72.0944 0 1
72.2102 0 1
72.3261 0 1
72.4418 0 1
72.5575 0 1
72.6732 0 1
75.1054 0 1
75.2209 0 1
75.3365 0 1
75.4521 0 1
75.5678 0 1
75.6835 0 1
75.7993 0 1
75.9151 0 1
76.031 0 1
76.147 1997 44.6878
76.263 1977 44.4635
76.3791 1929 43.9204
76.4952 1630 40.3733
76.6113 1589 39.8623
76.7276 1647 40.5832
76.8438 1797 42.391
76.9601 2104 45.8694
77.0765 2305 48.0104
77.1929 2513 50.1298
77.3093 2514 50.1398
77.4258 2570 50.6952
77.5423 2577 50.7642
77.6589 2509 50.0899
77.7755 2528 50.2792
77.8921 2588 50.8724
78.0088 2494 49.94
78.1256 2472 49.7192
78.2423 2513 50.1298
78.3591 2461 49.6085
78.4759 2463 49.6286
78.5928 2573 50.7247
78.7097 2663 51.6043
78.8266 2855 53.4322
78.9436 2621 51.1957
79.0606 2704 52
79.1776 2721 52.1632
79.2946 2767 52.6023
79.4117 2672 51.6914
79.5288 2704 52
79.6459 2665 51.6236
79.7631 2623 51.2152
79.8802 2349 48.4665
79.9974 2331 48.2804
80.1147 1967 44.3509
80.2319 1743 41.7493
80.3491 1702 41.2553
80.4664 1996 44.6766
80.5837 2193 46.8295
80.701 2490 49.8999
80.8183 2794 52.8583
80.9357 2750 52.4404
81.053 2792 52.8394
81.1704 2868 53.5537
81.2877 2953 54.3415
81.4051 2822 53.1225
81.5225 2828 53.1789
81.6399 2786 52.7826
81.7573 2691 51.8748
81.8747 2680 51.7687
81.9922 2638 51.3615
82.1096 2588 50.8724
82.227 2652 51.4976
82.3444 2837 53.2635
82.4619 2906 53.9073
82.5793 2897 53.8238
82.6967 2914 53.9815
82.8142 2892 53.7773
82.9316 2899 53.8424
83.049 2881 53.6749
83.1664 2822 53.1225
83.2838 2756 52.4976
83.4012 2733 52.2781
83.5186 2553 50.5272
83.636 2350 48.4768
83.7534 2039 45.1553
83.8708 1822 42.6849
83.9881 1730 41.5933
84.1055 1976 44.4522
84.2228 2227 47.1911
84.3401 2548 50.4777
84.4575 2861 53.4883
84.5747 2984 54.626
84.692 3012 54.8817
84.8093 3035 55.0908
84.9265 3096 55.6417
85.0437 3032 55.0636
85.1609 3150 56.1249
85.2781 3046 55.1906
85.3952 2990 54.6809
85.5123 2839 53.2823
85.6294 2769 52.6213
85.7465 2967 54.4702
85.8636 2964 54.4426
85.9806 3378 58.1206
86.0976 3331 57.7148
86.2145 3268 57.1664
86.3315 3248 56.9912
86.4484 3452 58.7537
86.5652 3562 59.6825
86.682 3459 58.8133
86.7988 3321 57.6281
86.9156 3442 58.6686
87.0323 3228 56.8155
87.149 3042 55.1543
87.2657 2773 52.6593
87.3823 2455 49.548
87.4988 2230 47.2229
87.6154 2348 48.4562
87.7318 2674 51.7107
87.8483 3147 56.0981
87.9647 3509 59.2368
88.081 3592 59.9333
88.1973 3773 61.4248
88.3136 3733 61.0983
88.4298 3801 61.6523
88.546 3778 61.4654
88.6621 3769 61.3922
88.7781 3558 59.649
88.8942 0 1
89.0101 0 1
89.126 0 1
89.2419 0 1
89.3577 0 1
89.4734 0 1
89.5891 0 1
89.7047 0 1
89.8203 0 1
89.9358 0 1
92.3269 0 1
92.4424 0 1
92.558 0 1
92.6736 0 1
92.7893 0 1
92.905 0 1
93.0208 0 1
93.1366 0 1
93.2525 0 1
93.3685 0 1
93.4845 0 1
93.6005 3861 62.1369
93.7167 3931 62.6977
93.8328 4112 64.1249
93.949 4016 63.3719
94.0653 4023 63.4271
94.1816 4009 63.3167
94.2979 4071 63.8044
94.4143 3875 62.2495
94.5307 3982 63.1031
94.6472 3743 61.1801
94.7637 3764 61.3514
94.8803 3894 62.4019
94.9969 3992 63.1823
95.1135 4048 63.6239
95.2302 4180 64.6529
95.3469 4164 64.5291
95.4637 4352 65.9697
95.5805 4324 65.7571
95.6973 4369 66.0984
95.8142 4460 66.7832
95.9311 4319 65.7191
96.048 4180 64.6529
96.1649 4033 63.5059
96.2819 3765 61.3596
96.3989 3595 59.9583
96.516 3149 56.116
96.633 2818 53.0848
96.7501 2762 52.5547
96.8673 2969 54.4885
96.9844 3447 58.7112
97.1016 3864 62.1611
97.2188 4414 66.4379
97.336 4572 67.6166
97.4532 4583 67.6979
97.5704 4563 67.55
97.6877 4531 67.3127
97.805 4661 68.2715
97.9223 4610 67.897
98.0396 4451 66.7158
98.1569 4398 66.3174
98.2743 4335 65.8407
98.3916 4349 65.9469
98.509 4333 65.8255
98.6264 4312 65.6658
98.7438 4430 66.5582
98.8612 4611 67.9043
98.9786 4817 69.4046
99.096 4699 68.5493
99.2134 4747 68.8985
99.3308 4858 69.6994
99.4482 4730 68.775
99.5656 4804 69.3109
99.6831 4553 67.4759
99.8005 4498 67.0671
99.9179 4207 64.8614
100.035 3891 62.3779
100.153 3377 58.112
100.27 3038 55.1181
100.388 3159 56.205
100.505 3613 60.1082
100.622 4118 64.1716
100.74 4694 68.5128
100.857 4761 69
100.975 4897 69.9786
101.092 4880 69.857
101.209 4881 69.8642
101.327 5046 71.0352
101.444 4884 69.8856
101.561 4960 70.4273
101.679 4981 70.5762
101.796 4845 69.606
101.913 4650 68.1909
102.03 4650 68.1909
102.148 4673 68.3593
102.265 4968 70.484
102.382 4655 68.2276
102.499 4970 70.4982
102.616 5178 71.9583
102.733 5162 71.8471
102.851 5315 72.904
102.968 5233 72.3395
103.085 5253 72.4776
103.202 5051 71.0704
103.319 4916 70.1142
103.436 4628 68.0294
103.552 4364 66.0606
103.669 3680 60.663
103.786 3394 58.258
103.903 3465 58.8643
104.02 3954 62.8808
104.137 4746 68.8912
104.253 5163 71.854
104.37 5082 71.2881
104.487 5342 73.089
104.603 5503 74.1822
104.72 5515 74.263
104.836 5436 73.7292
104.953 5367 73.2598
105.069 5441 73.7631
105.186 5374 73.3076
105.302 5359 73.2052
105.418 5111 71.4913
105.535 5080 71.2741
105.651 5158 71.8192
105.767 5084 71.3022
105.883 5326 72.9794
105.999 5560 74.5654
106.115 0 1
106.231 0 1
106.347 0 1
106.463 0 1
106.579 0 1
106.694 0 1
106.81 0 1
106.926 0 1
107.041 0 1
107.157 0 1
109.576 0 1
109.692 0 1
109.807 0 1
109.923 0 1
110.039 0 1
110.155 0 1
110.27 0 1
110.386 0 1
110.502 0 1
110.618 4708 68.6149
110.735 4779 69.1303
110.851 4845 69.606
110.967 5056 71.1056
111.083 5166 71.8749
111.199 5223 72.2703
111.316 5338 73.0616
111.432 5185 72.0069
111.549 5159 71.8262
111.665 5166 71.8749
111.782 4957 70.406
111.898 4610 67.897
112.015 4192 64.7457
112.132 3676 60.63
112.248 3228 56.8155
112.365 3157 56.1872
112.482 3620 60.1664
112.599 3994 63.1981
112.716 4520 67.2309
112.832 4709 68.6222
112.949 4815 69.3902
113.066 4758 68.9783
113.183 4758 68.9783
113.3 4784 69.1665
113.417 4818 69.4118
113.534 4818 69.4118
113.652 4622 67.9853
113.769 4730 68.775
113.886 4430 66.5582
114.003 4362 66.0454
114.12 4344 65.909
114.238 4275 65.3835
114.355 4325 65.7647
114.472 4283 65.4446
114.589 4408 66.3928
114.707 4618 67.9559
114.824 4466 66.8281
114.942 4610 67.897
115.059 4648 68.1762
115.176 4488 66.9925
115.294 4578 67.6609
115.411 4313 65.6734
115.529 3831 61.8951
115.646 3570 59.7495
115.764 3141 56.0446
115.881 2935 54.1756
115.999 3133 55.9732
116.116 3558 59.649
116.234 3974 63.0397
116.351 4166 64.5446
116.469 4433 66.5808
116.586 4507 67.1342
116.704 4499 67.0746
116.821 4522 67.2458
116.939 4512 67.1714
117.056 4495 67.0448
117.174 4488 66.9925
117.291 4498 67.0671
117.409 4449 66.7008
117.526 4304 65.6049
117.644 4271 65.3529
117.761 4220 64.9615
117.879 4290 65.4981
117.996 4090 63.9531
118.114 4254 65.2227
118.231 4373 66.1287
118.349 4453 66.7308
118.466 4636 68.0882
118.584 4488 66.9925
118.701 4611 67.9043
118.819 4443 66.6558
118.936 4500 67.082
119.053 4253 65.215
119.171 3808 61.709
119.288 3423 58.5064
119.405 3007 54.8361
119.523 2883 53.6936
119.64 3051 55.2359
119.757 3320 57.6194
119.875 3811 61.7333
119.992 4165 64.5368
120.109 4265 65.307
120.226 4378 66.1665
120.343 4260 65.2687
120.46 4407 66.3852
120.578 4328 65.7875
120.695 4329 65.7951
120.812 4362 66.0454
120.929 4282 65.437
121.046 4335 65.8407
121.163 4150 64.4205
121.279 4217 64.9384
121.396 4080 63.8749
121.513 4094 63.9844
121.63 4008 63.3088
121.747 4098 64.0156
121.863 4002 63.2614
121.98 4280 65.4217
122.097 4283 65.4446
122.213 4298 65.5591
122.33 4164 64.5291
122.446 4294 65.5286
122.563 4271 65.3529
122.679 4072 63.8122
122.795 3843 61.9919
122.912 3725 61.0328
123.028 3289 57.3498
123.144 3001 54.7814
123.26 2675 51.7204
123.377 0 1
123.493 0 1
123.609 0 1
123.725 0 1
123.84 0 1
123.956 0 1
124.072 0 1
124.188 0 1
124.303 0 1
124.419 0 1
126.852 0 1
126.968 0 1
127.083 0 1
127.199 0 1
127.315 0 1
127.431 0 1
127.547 0 1
127.663 0 1
127.779 0 1
127.895 0 1
128.011 0 1
128.127 0 1
128.243 0 1
128.359 3228 56.8155
128.476 2978 54.5711
128.592 3051 55.2359
128.708 3529 59.4054
128.825 4015 63.364
128.941 4344 65.909
129.058 4581 67.6831
129.174 4593 67.7717
129.291 4639 68.1102
129.408 4511 67.164
129.524 4541 67.3869
129.641 4414 66.4379
129.758 4548 67.4389
129.875 4352 65.9697
129.992 4416 66.453
130.108 4304 65.6049
130.225 4215 64.923
130.342 4363 66.053
130.459 4127 64.2417
130.576 4308 65.6354
130.693 4262 65.284
130.81 4237 65.0922
130.928 4373 66.1287
131.045 4338 65.8635
131.162 4535 67.3424
131.279 4393 66.2797
131.396 4321 65.7343
131.513 4264 65.2993
131.631 4030 63.4823
131.748 3776 61.4492
131.865 3402 58.3267
131.983 3010 54.8635
132.1 2964 54.4426
132.217 3229 56.8243
132.335 3701 60.8358
132.452 4034 63.5138
132.57 4231 65.0461
132.687 4106 64.0781
132.804 4429 66.5507
132.922 4279 65.4141
133.039 4194 64.7611
133.157 4275 65.3835
133.274 4271 65.3529
133.392 4209 64.8768
133.509 4217 64.9384
133.627 4242 65.1306
133.744 4000 63.2456
133.862 4084 63.9062
133.979 4088 63.9375
134.097 4111 64.1171
134.214 4058 63.7024
134.332 3909 62.522
134.449 4049 63.6318
134.567 4075 63.8357
134.684 4139 64.3351
134.802 4116 64.1561
134.919 4165 64.5368
135.037 4153 64.4438
135.154 4053 63.6632
135.272 3789 61.5549
135.389 3445 58.6941
135.507 3149 56.116
135.624 2823 53.1319
135.742 2933 54.1572
135.859 3098 55.6597
135.977 3743 61.1801
136.094 3983 63.111
136.211 4198 64.792
136.329 4202 64.8228
136.446 4138 64.3273
136.564 4240 65.1153
136.681 4242 65.1306
136.798 4098 64.0156
136.915 4036 63.5295
137.033 4038 63.5453
137.15 4042 63.5767
137.267 3971 63.0159
137.384 3831 61.8951
137.502 3948 62.8331
137.619 3846 62.0161
137.736 3822 61.8223
137.853 3711 60.918
137.97 3893 62.3939
138.087 3880 62.2896
138.204 3928 62.6738
138.321 3979 63.0793
138.438 4021 63.4114
138.555 4130 64.2651
138.672 4021 63.4114
138.788 3944 62.8013
138.905 3750 61.2372
139.022 3648 60.3987
139.139 3132 55.9643
139.255 2958 54.3875
139.372 2956 54.3691
139.488 3265 57.1402
139.605 3613 60.1082
139.721 3850 62.0484
139.838 3971 63.0159
139.954 4040 63.561
140.071 4099 64.0234
140.187 4027 63.4586
140.303 3955 62.8888
140.419 4007 63.3009
140.535 3901 62.458
140.652 3915 62.57
140.768 0 1
140.884 0 1
141 0 1
141.115 0 1
141.231 0 1
141.347 0 1
141.463 0 1
141.578 0 1
141.694 0 1
144.104 0 1
144.219 0 1
144.335 0 1
144.45 0 1
144.566 0 1
144.682 0 1
144.798 0 1
144.914 0 1
145.03 0 1
145.146 3438 58.6345
145.262 3351 57.8878
145.378 3403 58.3352
145.494 3349 57.8705
145.61 3353 57.9051
145.726 3325 57.6628
145.842 3300 57.4456
145.959 3224 56.7803
146.075 3260 57.0964
146.192 3282 57.2887
146.308 3212 56.6745
146.425 3172 56.3205
146.541 3161 56.2228
146.658 3184 56.4269
146.774 3152 56.1427
146.891 3161 56.2228
147.008 3131 55.9553
147.125 3093 55.6147
147.241 3169 56.2939
147.358 3176 56.356
147.475 2975 54.5436
147.592 2879 53.6563
147.709 2583 50.8232
147.826 2341 48.3839
147.943 2400 48.9898
148.06 2463 49.6286
148.177 2864 53.5164
148.294 2990 54.6809
148.411 3208 56.6392
148.528 3121 55.8659
148.645 3179 56.3826
148.762 3104 55.7136
148.88 3202 56.5862
148.997 3010 54.8635
149.114 3247 56.9825
149.231 3041 55.1453
149.349 3024 54.9909
149.466 2891 53.768
149.583 2864 53.5164
149.701 2833 53.2259
149.818 2897 53.8238
149.935 2924 54.074
150.053 2959 54.3967
150.17 2834 53.2353
150.287 2960 54.4059
150.405 2907 53.9166
150.522 2975 54.5436
150.64 2868 53.5537
150.757 2973 54.5252
150.875 3010 54.8635
150.992 2978 54.5711
151.11 2774 52.6688
151.227 2736 52.3068
151.344 2511 50.1099
151.462 2274 47.6865
151.579 2363 48.6107
151.697 2369 48.6724
151.814 2640 51.3809
151.932 2892 53.7773
152.049 3040 55.1362
152.167 2952 54.3323
152.284 3026 55.0091
152.402 3055 55.2721
152.519 2958 54.3875
152.636 2993 54.7083
152.754 2969 54.4885
152.871 2943 54.2494
152.989 2923 54.0648
153.106 2906 53.9073
153.223 2883 53.6936
153.341 2888 53.7401
153.458 2865 53.5257
153.575 2834 53.2353
153.693 2834 53.2353
153.81 2953 54.3415
153.927 2969 54.4885
154.044 2898 53.8331
154.162 2996 54.7357
154.279 2935 54.1756
154.396 3004 54.8088
154.513 3055 55.2721
154.63 2995 54.7266
154.747 2825 53.1507
154.864 2776 52.6878
154.981 2680 51.7687
155.098 2522 50.2195
155.215 2434 49.3356
155.332 2647 51.449
155.449 2760 52.5357
155.566 3005 54.8179
155.683 3008 54.8452
155.8 3082 55.5158
155.917 3084 55.5338
156.033 3059 55.3082
156.15 0 1
156.267 0 1
156.383 0 1
156.5 0 1
156.617 0 1
156.733 0 1
156.85 0 1
156.966 0 1
157.082 0 1
157.199 0 1
157.315 0 1
157.431 0 1
157.547 0 1
157.664 0 1
157.78 0 1
157.896 0 1
158.012 0 1
158.128 0 1
158.244 0 1
158.359 0 1
158.475 0 1
158.591 0 1
158.706 0 1
