
6.15755 0 1
6.2731 0 1
6.3887 0 1
6.50437 0 1
6.62009 0 1
6.73587 0 1
6.8517 0 1
6.96759 0 1
7.08353 0 1
7.19952 0 1
7.31557 0 1
7.43166 0 1
7.54781 0 1
7.664 0 1
7.78024 0 1
7.89653 0 1
8.01286 0 1
8.12924 0 1
8.24567 0 1
8.36213 0 1
8.47864 0 1
8.59519 0 1
8.71178 0 1
8.82841 0 1
8.94508 0 1
9.06179 0 1
9.17853 0 1
9.29531 0 1
9.41212 0 1
9.52897 0 1
9.64584 0 1
9.76276 0 1
9.8797 0 1
9.99667 0 1
10.1137 0 1
10.2307 0 1
10.3478 0 1
10.4648 0 1
10.5819 0 1
10.6991 0 1
10.8162 0 1
10.9334 0 1
11.0506 0 1
11.1678 0 1
11.285 0 1
11.4023 0 1
11.5196 0 1
11.6369 0 1
11.7542 0 1
11.8715 0 1
11.9888 0 1
12.1062 0 1
12.2235 0 1
12.3409 0 1
12.4582 0 1
12.5756 0 1
12.693 0 1
12.8104 0 1
12.9278 0 1
13.0452 0 1
13.1626 0 1
13.28 0 1
13.3974 0 1
13.5149 0 1
13.6323 0 1
13.7497 0 1
13.8671 0 1
13.9845 0 1
14.1019 0 1
14.2193 0 1
14.3367 0 1
14.4541 0 1
14.5714 0 1
14.6888 0 1
14.8062 0 1
14.9235 0 1
15.0408 112867 335.957
15.1581 117204 342.351
15.2755 121584 348.689
15.3927 123166 350.95
15.51 119810 346.136
15.6273 118023 343.545
15.7445 117869 343.321
15.8617 118926 344.856
15.9789 121753 348.931
16.0961 122768 350.383
16.2132 124547 352.912
16.3304 125212 353.853
16.4475 125280 353.949
16.5646 124846 353.336
16.6816 123732 351.756
16.7986 124061 352.223
16.9156 124039 352.192
17.0326 123342 351.201
17.1496 123902 351.997
17.2665 122207 349.581
17.3833 123328 351.181
17.5002 123132 350.902
17.617 122920 350.599
17.7338 122703 350.29
17.8505 120628 347.315
17.9672 117728 343.115
18.0839 113987 337.62
18.2005 111220 333.497
18.3171 110892 333.005
18.4337 112799 335.856
18.5502 115945 340.507
18.6666 117900 343.366
18.7831 121947 349.209
18.8994 122477 349.967
19.0158 118043 343.574
19.1321 115212 339.429
19.2483 113612 337.064
19.3645 114336 338.136
19.4806 113098 336.3
19.5967 111655 334.148
19.7128 108330 329.135
19.8288 100444 316.929
19.9447 87508 295.818
20.0606 0 1
20.1764 0 1
20.2922 0 1
20.4079 0 1
20.5236 0 1
20.6392 0 1
20.7548 0 1
20.8702 0 1
23.3078 0 1
23.4233 0 1
23.539 0 1
23.6547 0 1
23.7704 0 1
23.8862 0 1
24.0021 0 1
24.118 0 1
24.234 0 1
24.35 0 1
24.4661 40850 202.114
24.5822 49333 222.11
24.6984 60271 245.502
24.8146 72590 269.425
24.9309 85373 292.187
25.0472 97895 312.882
25.1636 109599 331.057
25.28 120628 347.315
25.3965 128233 358.096
25.513 133748 365.716
25.6296 136779 369.836
25.7462 137531 370.852
25.8628 137004 370.141
25.9795 137621 370.973
26.0962 137177 370.374
26.213 136869 369.958
26.3298 135673 368.338
26.4466 134682 366.99
26.5635 131883 363.157
26.6804 128892 359.015
26.7973 125092 353.683
26.9143 120571 347.233
27.0313 117705 343.082
27.1483 119238 345.309
27.2653 121269 348.237
27.3824 124000 352.136
27.4996 124222 352.451
27.6167 120914 347.727
27.7339 117263 342.437
27.8511 115701 340.148
27.9683 117270 342.447
28.0855 120817 347.587
28.2028 126109 355.118
28.3201 127794 357.483
28.4374 130294 360.963
28.5547 132152 363.527
28.6721 132084 363.434
28.7894 132473 363.968
28.9068 132512 364.022
29.0242 131880 363.153
29.1416 131741 362.961
29.259 132307 363.74
29.3764 132188 363.577
29.4939 132145 363.518
29.6113 131513 362.647
29.7288 131354 362.428
29.8463 132140 363.511
29.9638 130489 361.233
30.0812 128660 358.692
30.1987 126436 355.578
30.3162 122221 349.601
30.4337 118379 344.062
30.5512 114803 338.826
30.6687 114074 337.748
30.7862 114252 338.012
30.9037 117261 342.434
31.0212 119563 345.779
31.1387 118980 344.935
31.2562 116124 340.77
31.3737 114824 338.857
31.4912 116906 341.915
31.6087 120217 346.723
31.7262 123379 351.253
31.8436 126228 355.286
31.9611 126574 355.772
32.0785 127607 357.221
32.1959 127545 357.134
32.3134 126944 356.292
32.4308 127582 357.186
32.5482 127445 356.994
32.6655 128155 357.987
32.7829 127908 357.642
32.9002 127724 357.385
33.0176 127899 357.63
33.1349 127137 356.563
33.2522 127247 356.717
33.3694 126531 355.712
33.4867 127444 356.993
33.6039 126492 355.657
33.7211 125594 354.392
33.8383 123781 351.825
33.9554 121835 349.049
34.0725 117434 342.686
34.1896 113895 337.483
34.3067 110814 332.887
34.4237 109950 331.587
34.5407 112773 335.817
34.6577 113404 336.755
34.7746 113420 336.779
34.8915 110333 332.164
35.0084 108272 329.047
35.1252 110057 331.748
35.242 113887 337.471
35.3587 118086 343.636
35.4755 121689 348.84
35.5921 123615 351.589
35.7088 124827 353.309
35.8254 125344 354.04
35.9419 125616 354.423
36.0584 124921 353.442
36.1749 125086 353.675
36.2913 124160 352.363
36.4077 122495 349.993
36.524 119886 346.246
36.6403 113291 336.587
36.7565 105212 324.364
36.8727 94359 307.179
36.9889 82554 287.322
37.1049 72319 268.922
37.221 0 1
37.3369 0 1
37.4529 0 1
37.5687 0 1
37.6845 0 1
37.8003 0 1
37.916 0 1
38.0316 0 1
38.1472 0 1
40.5851 0 1
40.7008 0 1
40.8164 0 1
40.9322 0 1
41.048 0 1
41.1639 0 1
41.2798 0 1
41.3958 0 1
41.5118 0 1
41.6279 0 1
41.744 41499 203.713
41.8602 51222 226.323
41.9765 62796 250.591
42.0928 75893 275.487
42.2091 87331 295.518
42.3255 95937 309.737
42.4419 100848 317.566
42.5584 101836 319.118
42.675 103129 321.137
42.7915 101833 319.113
42.9081 100239 316.605
43.0248 97350 312.01
43.1415 94899 308.057
43.2582 93401 305.616
43.375 95644 309.264
43.4918 97228 311.814
43.6087 97554 312.336
43.7256 93845 306.341
43.8425 92022 303.351
43.9595 93598 305.938
44.0765 97671 312.524
44.1935 101305 318.284
44.3106 102972 320.893
44.4277 104111 322.662
44.5448 103420 321.59
44.6619 102219 319.717
44.7791 103020 320.967
44.8963 102680 320.437
45.0136 103774 322.14
45.1308 103443 321.626
45.2481 103498 321.711
45.3654 103368 321.509
45.4827 103169 321.199
45.6001 103740 322.087
45.7174 103840 322.242
45.8348 103347 321.476
45.9522 103147 321.165
46.0697 103814 322.202
46.1871 103287 321.383
46.3046 103405 321.566
46.422 103418 321.587
46.5395 102000 319.374
46.657 99589 315.577
46.7745 96645 310.878
46.892 95887 309.656
47.0096 97802 312.733
47.1271 100692 317.32
47.2446 99046 314.716
47.3622 96340 310.387
47.4797 95134 308.438
47.5973 97949 312.968
47.7149 100806 317.5
47.8324 103102 321.095
47.95 104224 322.837
48.0675 105109 324.205
48.1851 103090 321.076
48.3027 103834 322.233
48.4202 103858 322.27
48.5378 103251 321.327
48.6554 103396 321.552
48.7729 103549 321.79
48.8904 103100 321.092
49.008 102964 320.88
49.1255 102711 320.486
49.243 102586 320.29
49.3605 101996 319.368
49.478 102390 319.984
49.5955 101656 318.835
49.713 101921 319.251
49.8304 101457 318.523
49.9479 102426 320.041
50.0653 100532 317.068
50.1827 97332 311.981
50.3001 92468 304.086
50.4175 89514 299.189
50.5348 88629 297.706
50.6521 89317 298.859
50.7694 90132 300.22
50.8867 89281 298.799
51.004 90941 301.564
51.1212 94907 308.07
51.2384 98515 313.871
51.3556 101973 319.332
51.4727 101196 318.113
51.5899 101579 318.715
51.707 100910 317.663
51.824 101607 318.759
51.9411 102193 319.676
52.0581 100666 317.279
52.175 101135 318.017
52.2919 100367 316.808
52.4088 100509 317.032
52.5257 101282 318.248
52.6425 101594 318.738
52.7593 100332 316.752
52.876 100442 316.926
52.9927 99613 315.615
53.1094 99696 315.747
53.226 99232 315.011
53.3426 99071 314.755
53.4591 99484 315.411
53.5756 99310 315.135
53.692 96246 310.235
53.8084 89035 298.387
53.9248 75680 275.1
54.0411 61145 247.275
54.1573 49163 221.727
54.2735 0 1
54.3896 0 1
54.5057 0 1
54.6217 0 1
54.7377 0 1
54.8537 0 1
54.9695 0 1
55.0853 0 1
55.2011 0 1
55.3168 0 1
55.4324 0 1
57.824 0 1
57.9396 0 1
58.0553 0 1
58.1711 0 1
58.2869 0 1
58.4028 0 1
58.5187 0 1
58.6347 0 1
58.7508 0 1
58.8669 0 1
58.983 55784 236.186
59.0992 67047 258.934
59.2155 74435 272.828
59.3318 79575 282.09
59.4482 84481 290.656
59.5646 89894 299.823
59.681 95337 308.767
59.7975 100664 317.276
59.9141 105860 325.361
60.0306 109409 330.77
60.1473 110749 332.79
60.2639 110204 331.97
60.3807 109567 331.009
60.4974 108938 330.058
60.6142 107625 328.062
60.731 107402 327.722
60.8479 106269 325.989
60.9648 105607 324.972
61.0818 104329 323
61.1987 103939 322.396
61.3158 103339 321.464
61.4328 102650 320.39
61.5499 101983 319.348
61.667 100698 317.329
61.7841 100155 316.473
61.9013 99461 315.374
62.0185 98345 313.6
62.1357 98970 314.595
62.253 98354 313.614
62.3702 98359 313.622
62.4875 96846 311.201
62.6049 94455 307.335
62.7222 91818 303.015
62.8396 89563 299.271
62.9569 89933 299.888
63.0743 87469 295.752
63.1918 84733 291.089
63.3092 85918 293.118
63.4267 89175 298.622
63.5441 91141 301.896
63.6616 90340 300.566
63.7791 89559 299.264
63.8966 88002 296.651
64.0142 86002 293.261
64.1317 84543 290.763
64.2492 83448 288.874
64.3668 82065 286.47
64.4843 81405 285.316
64.6019 80004 282.85
64.7195 78770 280.66
64.837 77786 278.901
64.9546 76491 276.57
65.0722 75194 274.215
65.1898 74309 272.597
65.3074 71540 267.47
65.4249 71050 266.552
65.5425 69182 263.025
65.6601 68374 261.484
65.7777 67888 260.553
65.8952 67441 259.694
66.0128 66967 258.78
66.1304 64468 253.905
66.2479 61694 248.383
66.3655 58825 242.539
66.483 58774 242.433
66.6005 58625 242.126
66.718 57349 239.477
66.8355 55267 235.089
66.953 55669 235.943
67.0705 56561 237.826
67.1879 56156 236.973
67.3054 54966 234.448
67.4228 53944 232.258
67.5402 52592 229.329
67.6576 51846 227.697
67.7749 52095 228.243
67.8923 51793 227.581
68.0096 52026 228.092
68.1269 53417 231.121
68.2442 54963 234.442
68.3614 56630 237.971
68.4787 57170 239.102
68.5958 58270 241.392
68.713 59097 243.099
68.8302 60008 244.965
68.9473 60614 246.199
69.0643 61590 248.173
69.1814 62520 250.04
69.2984 64288 253.551
69.4154 65880 256.671
69.5323 67949 260.67
69.6492 69937 264.456
69.7661 71879 268.103
69.8829 71932 268.201
69.9997 70139 264.838
70.1165 70383 265.298
70.2332 71029 266.513
70.3499 70528 265.571
70.4665 67829 260.44
70.5831 66765 258.389
70.6996 65421 255.775
70.8161 60581 246.132
70.9326 54578 233.619
71.049 48108 219.335
71.1653 43878 209.471
71.2817 41210 203.002
71.3979 38078 195.136
71.5141 35708 188.966
71.6303 33883 184.073
71.7464 30080 173.436
71.8624 0 1
71.9784 0 1
72.0944 0 1
72.2102 0 1
72.3261 0 1
72.4418 0 1
72.5575 0 1
72.6732 0 1
75.1054 0 1
75.2209 0 1
75.3365 0 1
75.4521 0 1
75.5678 0 1
75.6835 0 1
75.7993 0 1
75.9151 0 1
76.031 0 1
76.147 51506 226.949
76.263 67835 260.452
76.3791 80962 284.538
76.4952 89120 298.53
76.6113 92720 304.5
76.7276 92294 303.799
76.8438 94161 306.857
76.9601 95640 309.257
77.0765 96684 310.941
77.1929 99425 315.317
77.3093 101177 318.083
77.4258 102358 319.934
77.5423 103640 321.932
77.6589 104513 323.285
77.7755 105288 324.481
77.8921 105435 324.708
78.0088 105553 324.889
78.1256 105135 324.245
78.2423 106515 326.366
78.3591 106856 326.888
78.4759 109806 331.37
78.5928 112769 335.811
78.7097 114427 338.271
78.8266 115285 339.536
78.9436 115849 340.366
79.0606 110380 332.235
79.1776 108081 328.757
79.2946 109083 330.277
79.4117 110898 333.014
79.5288 109524 330.944
79.6459 113702 337.197
79.7631 117090 342.184
79.8802 121426 348.462
79.9974 123699 351.709
80.1147 122821 350.458
80.2319 122159 349.513
80.3491 120864 347.655
80.4664 121925 349.178
80.5837 122840 350.485
80.701 124876 353.378
80.8183 127448 356.999
80.9357 130410 361.123
81.053 131154 362.152
81.1704 131568 362.723
81.2877 132363 363.817
81.4051 132345 363.793
81.5225 129964 360.505
81.6399 130443 361.169
81.7573 124228 352.46
81.8747 125059 353.637
81.9922 122882 350.545
82.1096 126033 355.011
82.227 128400 358.329
82.3444 131676 362.872
82.4619 134727 367.052
82.5793 134626 366.914
82.6967 128685 358.727
82.8142 125966 354.917
82.9316 123760 351.795
83.049 119754 346.055
83.1664 116829 341.803
83.2838 116703 341.618
83.4012 119826 346.159
83.5186 124423 352.736
83.636 126656 355.888
83.7534 128315 358.211
83.8708 128561 358.554
83.9881 126858 356.171
84.1055 125593 354.391
84.2228 126113 355.124
84.3401 126450 355.598
84.4575 127151 356.582
84.5747 128952 359.099
84.692 129154 359.38
84.8093 130068 360.649
84.9265 127728 357.391
85.0437 126769 356.046
85.1609 125154 353.771
85.2781 122312 349.731
85.3952 120436 347.039
85.5123 120649 347.346
85.6294 118914 344.839
85.7465 120055 346.49
85.8636 121195 348.131
85.9806 121298 348.279
86.0976 121327 348.32
86.2145 118455 344.173
86.3315 114305 338.09
86.4484 112667 335.659
86.5652 111135 333.369
86.682 108825 329.886
86.7988 105185 324.322
86.9156 104602 323.422
87.0323 107467 327.822
87.149 111197 333.462
87.2657 114620 338.556
87.3823 116992 342.041
87.4988 116780 341.731
87.6154 115545 339.919
87.7318 115489 339.837
87.8483 113585 337.024
87.9647 107174 327.374
88.081 99049 314.721
88.1973 86675 294.406
88.3136 76700 276.948
88.4298 68182 261.117
88.546 61835 248.666
88.6621 58326 241.508
88.7781 53723 231.782
88.8942 0 1
89.0101 0 1
89.126 0 1
89.2419 0 1
89.3577 0 1
89.4734 0 1
89.5891 0 1
89.7047 0 1
89.8203 0 1
89.9358 0 1
92.3269 0 1
92.4424 0 1
92.558 0 1
92.6736 0 1
92.7893 0 1
92.905 0 1
93.0208 0 1
93.1366 0 1
93.2525 0 1
93.3685 0 1
93.4845 0 1
93.6005 68681 262.071
93.7167 85487 292.382
93.8328 100441 316.924
93.949 110779 332.835
94.0653 116555 341.402
94.1816 118077 343.623
94.2979 119961 346.354
94.4143 119673 345.938
94.5307 120286 346.823
94.6472 120009 346.423
94.7637 120608 347.287
94.8803 120837 347.616
94.9969 120679 347.389
95.1135 121181 348.111
95.2302 120776 347.528
95.3469 120953 347.783
95.4637 119259 345.339
95.5805 115932 340.488
95.6973 114463 338.324
95.8142 111712 334.233
95.9311 106381 326.161
96.048 103495 321.706
96.1649 102097 319.526
96.2819 103414 321.58
96.3989 105849 325.344
96.516 111465 333.864
96.633 115401 339.707
96.7501 117620 342.958
96.8673 118506 344.247
96.9844 119337 345.452
97.1016 119124 345.143
97.2188 119963 346.357
97.336 121206 348.147
97.4532 122050 349.357
97.5704 123161 350.943
97.6877 123007 350.724
97.805 122752 350.36
97.9223 122466 349.951
98.0396 122227 349.61
98.1569 122069 349.384
98.2743 121959 349.226
98.3916 121996 349.279
98.509 121406 348.434
98.6264 123960 352.08
98.7438 123185 350.977
98.8612 123330 351.184
98.9786 122836 350.48
99.096 120269 346.798
99.2134 118400 344.093
99.3308 121402 348.428
99.4482 123200 350.999
99.5656 121169 348.093
99.6831 117070 342.155
99.8005 114498 338.376
99.9179 114310 338.098
100.035 115758 340.232
100.153 119252 345.329
100.27 122587 350.124
100.388 123663 351.658
100.505 124136 352.329
100.622 124380 352.675
100.74 124777 353.238
100.857 125469 354.216
100.975 125194 353.828
101.092 126953 356.305
101.209 127993 357.761
101.327 128052 357.844
101.444 127806 357.5
101.561 127139 356.566
101.679 127618 357.237
101.796 126806 356.098
101.913 126685 355.928
102.03 126045 355.028
102.148 127323 356.823
102.265 126186 355.227
102.382 130674 361.489
102.499 127734 357.399
102.616 125333 354.024
102.733 123840 351.909
102.851 125747 354.608
102.968 126512 355.685
103.085 126164 355.196
103.202 121361 348.369
103.319 117236 342.397
103.436 115156 339.346
103.552 116242 340.943
103.669 120102 346.557
103.786 124396 352.698
103.903 127123 356.543
104.02 127723 357.384
104.137 128026 357.807
104.253 127472 357.032
104.37 131864 363.131
104.487 131093 362.068
104.603 131855 363.118
104.72 132262 363.678
104.836 131248 362.282
104.953 131226 362.251
105.069 130039 360.609
105.186 129559 359.943
105.302 126626 355.845
105.418 120058 346.494
105.535 108664 329.642
105.651 96699 310.965
105.767 84287 290.322
105.883 72592 269.429
105.999 62754 250.507
106.115 0 1
106.231 0 1
106.347 0 1
106.463 0 1
106.579 0 1
106.694 0 1
106.81 0 1
106.926 0 1
107.041 0 1
107.157 0 1
109.576 0 1
109.692 0 1
109.807 0 1
109.923 0 1
110.039 0 1
110.155 0 1
110.27 0 1
110.386 0 1
110.502 0 1
110.618 59776 244.491
110.735 71133 266.708
110.851 79697 282.307
110.967 87861 296.414
111.083 93721 306.139
111.199 98314 313.551
111.316 103426 321.599
111.432 109962 331.605
111.549 113327 336.641
111.665 110197 331.959
111.782 107029 327.153
111.898 103870 322.289
112.015 100594 317.166
112.132 101567 318.696
112.248 103970 322.444
112.365 107770 328.283
112.482 108630 329.591
112.599 114475 338.342
112.716 113951 337.566
112.832 113807 337.353
112.949 113952 337.568
113.066 114171 337.892
113.183 115114 339.285
113.3 114887 338.95
113.417 115711 340.163
113.534 114931 339.015
113.652 114922 339.001
113.769 114616 338.55
113.886 114964 339.063
114.003 114479 338.347
114.12 114304 338.089
114.238 114923 339.003
114.355 114614 338.547
114.472 109551 330.985
114.589 117058 342.137
114.707 110745 332.784
114.824 110198 331.961
114.942 112130 334.858
115.059 114379 338.2
115.176 114230 337.979
115.294 110385 332.242
115.411 106755 326.734
115.529 103141 321.156
115.646 100619 317.205
115.764 100823 317.526
115.881 103846 322.251
115.999 107214 327.435
116.116 109542 330.971
116.234 110658 332.653
116.351 112600 335.559
116.469 112662 335.652
116.586 113116 336.327
116.704 113274 336.562
116.821 113400 336.749
116.939 113630 337.09
117.056 113493 336.887
117.174 112878 335.973
117.291 114129 337.83
117.409 113487 336.878
117.526 112640 335.619
117.644 112694 335.699
117.761 112163 334.907
117.879 112217 334.988
117.996 112458 335.348
118.114 110781 332.838
118.231 110461 332.357
118.349 107752 328.256
118.466 108831 329.895
118.584 111324 333.653
118.701 111346 333.685
118.819 109055 330.235
118.936 104811 323.745
119.053 101078 317.928
119.171 97359 312.024
119.288 95188 308.526
119.405 95597 309.188
119.523 97680 312.538
119.64 101787 319.041
119.757 104048 322.565
119.875 105444 324.721
119.992 106687 326.63
120.109 106618 326.524
120.226 106551 326.422
120.343 107770 328.283
120.46 107400 327.719
120.578 107756 328.262
120.695 107874 328.442
120.812 108133 328.836
120.929 108468 329.345
121.046 106695 326.642
121.163 106710 326.665
121.279 106654 326.579
121.396 105915 325.446
121.513 105421 324.686
121.63 106057 325.664
121.747 104231 322.848
121.863 102207 319.698
121.98 99461 315.374
122.097 96248 310.239
122.213 93430 305.663
122.33 89359 298.93
122.446 83742 289.382
122.563 76370 276.351
122.679 67859 260.498
122.795 60189 245.334
122.912 52570 229.281
123.028 47420 217.761
123.144 44930 211.967
123.26 42930 207.196
123.377 0 1
123.493 0 1
123.609 0 1
123.725 0 1
123.84 0 1
123.956 0 1
124.072 0 1
124.188 0 1
124.303 0 1
124.419 0 1
126.852 0 1
126.968 0 1
127.083 0 1
127.199 0 1
127.315 0 1
127.431 0 1
127.547 0 1
127.663 0 1
127.779 0 1
127.895 0 1
128.011 0 1
128.127 0 1
128.243 0 1
128.359 96659 310.9
128.476 98775 314.285
128.592 101457 318.523
128.708 103998 322.487
128.825 108761 329.789
128.941 111990 334.649
129.058 114055 337.72
129.174 116418 341.201
129.291 116708 341.626
129.408 117354 342.57
129.524 117376 342.602
129.641 118131 343.702
129.758 117504 342.789
129.875 118208 343.814
129.992 118008 343.523
130.108 117156 342.281
130.225 117244 342.409
130.342 116588 341.45
130.459 114811 338.838
130.576 116273 340.988
130.693 114010 337.654
130.81 112511 335.427
130.928 108753 329.777
131.045 107296 327.561
131.162 108801 329.85
131.279 110818 332.893
131.396 113021 336.186
131.513 111309 333.63
131.631 108673 329.656
131.748 105036 324.093
131.865 102238 319.747
131.983 98891 314.469
132.1 98889 314.466
132.217 100545 317.088
132.335 102911 320.797
132.452 107110 327.277
132.57 110445 332.333
132.687 113788 337.325
132.804 112553 335.489
132.922 114054 337.719
133.039 114627 338.566
133.157 115312 339.576
133.274 115610 340.015
133.392 115129 339.307
133.509 115618 340.026
133.627 115328 339.6
133.744 115023 339.15
133.862 113899 337.489
133.979 113199 336.451
134.097 112824 335.893
134.214 113596 337.04
134.332 109155 330.386
134.449 107204 327.42
134.567 105306 324.509
134.684 105892 325.411
134.802 108014 328.655
134.919 110586 332.545
135.037 109172 330.412
135.154 106464 326.288
135.272 103917 322.362
135.389 101867 319.166
135.507 98952 314.566
135.624 97159 311.703
135.742 96568 310.754
135.859 99444 315.347
135.977 102882 320.752
136.094 106547 326.415
136.211 108815 329.871
136.329 111041 333.228
136.446 111581 334.037
136.564 112263 335.057
136.681 113603 337.05
136.798 111987 334.645
136.915 113232 336.5
137.033 113304 336.607
137.15 113164 336.399
137.267 112965 336.103
137.384 112465 335.358
137.502 110906 333.026
137.619 109784 331.337
137.736 110465 332.363
137.853 104453 323.192
137.97 105898 325.42
138.087 101902 319.221
138.204 101368 318.383
138.321 101931 319.266
138.438 104040 322.552
138.555 106864 326.901
138.672 106482 326.316
138.788 103774 322.14
138.905 100705 317.341
139.022 97726 312.612
139.139 93467 305.724
139.255 88695 297.817
139.372 83751 289.398
139.488 79263 281.537
139.605 77093 277.656
139.721 74480 272.91
139.838 72383 269.041
139.954 68225 261.199
140.071 63312 251.619
140.187 57714 240.237
140.303 54210 232.83
140.419 50716 225.202
140.535 48804 220.916
140.652 45534 213.387
140.768 0 1
140.884 0 1
141 0 1
141.115 0 1
141.231 0 1
141.347 0 1
141.463 0 1
141.578 0 1
141.694 0 1
144.104 0 1
144.219 0 1
144.335 0 1
144.45 0 1
144.566 0 1
144.682 0 1
144.798 0 1
144.914 0 1
145.03 0 1
145.146 73246 270.64
145.262 79210 281.443
145.378 82026 286.402
145.494 84874 291.331
145.61 85203 291.896
145.726 85653 292.665
145.842 85434 292.291
145.959 85867 293.031
146.075 85194 291.88
146.192 85001 291.549
146.308 84490 290.672
146.425 83653 289.228
146.541 82942 287.997
146.658 81780 285.972
146.774 79986 282.818
146.891 77731 278.803
147.008 77964 279.22
147.125 77121 277.707
147.241 79140 281.318
147.358 80592 283.887
147.475 80746 284.158
147.592 79565 282.073
147.709 77814 278.952
147.826 75990 275.663
147.943 73543 271.188
148.06 72409 269.089
148.177 71033 266.52
148.294 72386 269.046
148.411 74634 273.192
148.528 77688 278.726
148.645 79273 281.555
148.762 82017 286.386
148.88 83178 288.406
148.997 85284 292.034
149.114 81664 285.769
149.231 83421 288.827
149.349 84789 291.186
149.466 84264 290.283
149.583 84159 290.102
149.701 83617 289.166
149.818 82850 287.837
149.935 82075 286.487
150.053 82368 286.998
150.17 80811 284.273
150.287 80561 283.833
150.405 79272 281.553
150.522 77995 279.276
150.64 76565 276.704
150.757 77156 277.77
150.875 79050 281.158
150.992 79193 281.413
151.11 80127 283.067
151.227 78102 279.467
151.344 76183 276.013
151.462 74129 272.266
151.579 73645 271.376
151.697 71475 267.348
151.814 70598 265.703
151.932 71302 267.024
152.049 72623 269.487
152.167 74868 273.62
152.284 77614 278.593
152.402 79885 282.639
152.519 80483 283.695
152.636 81478 285.444
152.754 81696 285.825
152.871 82116 286.559
152.989 81262 285.065
153.106 81690 285.815
153.223 81534 285.542
153.341 80550 283.813
153.458 79525 282.002
153.575 79188 281.404
153.693 78023 279.326
153.81 77700 278.747
153.927 76968 277.431
154.044 75159 274.151
154.162 74871 273.626
154.279 74149 272.303
154.396 75054 273.96
154.513 76606 276.778
154.63 78094 279.453
154.747 77738 278.815
154.864 75778 275.278
154.981 73771 271.608
155.098 72020 268.365
155.215 70442 265.409
155.332 67879 260.536
155.449 67581 259.963
155.566 68291 261.325
155.683 69808 264.212
155.8 71461 267.322
155.917 72971 270.131
156.033 74191 272.38
156.15 0 1
156.267 0 1
156.383 0 1
156.5 0 1
156.617 0 1
156.733 0 1
156.85 0 1
156.966 0 1
157.082 0 1
157.199 0 1
157.315 0 1
157.431 0 1
157.547 0 1
157.664 0 1
157.78 0 1
157.896 0 1
158.012 0 1
158.128 0 1
158.244 0 1
158.359 0 1
158.475 0 1
158.591 0 1
158.706 0 1
