
6.15755 0 1
6.2731 0 1
6.3887 0 1
6.50437 0 1
6.62009 0 1
6.73587 0 1
6.8517 0 1
6.96759 0 1
7.08353 0 1
7.19952 0 1
7.31557 0 1
7.43166 0 1
7.54781 0 1
7.664 0 1
7.78024 0 1
7.89653 0 1
8.01286 0 1
8.12924 0 1
8.24567 0 1
8.36213 0 1
8.47864 0 1
8.59519 0 1
8.71178 0 1
8.82841 0 1
8.94508 0 1
9.06179 0 1
9.17853 0 1
9.29531 0 1
9.41212 0 1
9.52897 0 1
9.64584 0 1
9.76276 0 1
9.8797 0 1
9.99667 0 1
10.1137 0 1
10.2307 0 1
10.3478 0 1
10.4648 0 1
10.5819 0 1
10.6991 0 1
10.8162 0 1
10.9334 0 1
11.0506 0 1
11.1678 0 1
11.285 0 1
11.4023 0 1
11.5196 0 1
11.6369 0 1
11.7542 0 1
11.8715 0 1
11.9888 0 1
12.1062 0 1
12.2235 0 1
12.3409 0 1
12.4582 0 1
12.5756 0 1
12.693 0 1
12.8104 0 1
12.9278 0 1
13.0452 0 1
13.1626 0 1
13.28 0 1
13.3974 0 1
13.5149 0 1
13.6323 0 1
13.7497 0 1
13.8671 0 1
13.9845 0 1
14.1019 0 1
14.2193 0 1
14.3367 0 1
14.4541 0 1
14.5714 0 1
14.6888 0 1
14.8062 0 1
14.9235 0 1
15.0408 0 0
15.1581 0 0
15.2755 0 0
15.3927 0 0
15.51 0 0
15.6273 0 0
15.7445 0 0
15.8617 0 0
15.9789 0 0
16.0961 0 0
16.2132 0 0
16.3304 0 0
16.4475 0 0
16.5646 0 0
16.6816 0 0
16.7986 0 0
16.9156 0 0
17.0326 0 0
17.1496 0 0
17.2665 0 0
17.3833 0 0
17.5002 0 0
17.617 0 0
17.7338 0 0
17.8505 0 0
17.9672 0 0
18.0839 0 0
18.2005 0 0
18.3171 0 0
18.4337 0 0
18.5502 0 0
18.6666 0 0
18.7831 0 0
18.8994 0 0
19.0158 0 0
19.1321 0 0
19.2483 0 0
19.3645 0 0
19.4806 0 0
19.5967 0 0
19.7128 0 0
19.8288 0 0
19.9447 0 0
20.0606 0 1
20.1764 0 1
20.2922 0 1
20.4079 0 1
20.5236 0 1
20.6392 0 1
20.7548 0 1
20.8702 0 1
23.3078 0 1
23.4233 0 1
23.539 0 1
23.6547 0 1
23.7704 0 1
23.8862 0 1
24.0021 0 1
24.118 0 1
24.234 0 1
24.35 0 1
24.4661 1365 36.9459
24.5822 1335 36.5377
24.6984 1401 37.4299
24.8146 1345 36.6742
24.9309 1404 37.47
25.0472 1358 36.8511
25.1636 1489 38.5876
25.28 1425 37.7492
25.3965 1362 36.9053
25.513 1454 38.1314
25.6296 1513 38.8973
25.7462 1499 38.7169
25.8628 1438 37.921
25.9795 1533 39.1535
26.0962 1478 38.4448
26.213 1500 38.7298
26.3298 1451 38.092
26.4466 1444 38
26.5635 1379 37.1349
26.6804 1451 38.092
26.7973 1326 36.4143
26.9143 1339 36.5923
27.0313 1250 35.3553
27.1483 1320 36.3318
27.2653 1249 35.3412
27.3824 1352 36.7696
27.4996 1370 37.0135
27.6167 1258 35.4683
27.7339 1242 35.242
27.8511 1265 35.5668
27.9683 1264 35.5528
28.0855 1235 35.1426
28.2028 1283 35.819
28.3201 1247 35.3129
28.4374 1290 35.9166
28.5547 1356 36.8239
28.6721 1349 36.7287
28.7894 1368 36.9865
28.9068 1386 37.229
29.0242 1342 36.6333
29.1416 1337 36.565
29.259 1380 37.1484
29.3764 1377 37.108
29.4939 1441 37.9605
29.6113 1430 37.8153
29.7288 1429 37.8021
29.8463 1398 37.3898
29.9638 1401 37.4299
30.0812 1413 37.5899
30.1987 1354 36.7967
30.3162 1220 34.9285
30.4337 1225 35
30.5512 1146 33.8526
30.6687 1159 34.0441
30.7862 1178 34.322
30.9037 1219 34.9142
31.0212 1291 35.9305
31.1387 1254 35.4119
31.2562 1276 35.7211
31.3737 1192 34.5254
31.4912 1185 34.4238
31.6087 1242 35.242
31.7262 1193 34.5398
31.8436 1278 35.7491
31.9611 1270 35.6371
32.0785 1341 36.6197
32.1959 1328 36.4417
32.3134 1394 37.3363
32.4308 1300 36.0555
32.5482 1357 36.8375
32.6655 1394 37.3363
32.7829 1308 36.1663
32.9002 1370 37.0135
33.0176 1367 36.973
33.1349 1327 36.428
33.2522 1336 36.5513
33.3694 1391 37.2961
33.4867 1382 37.1753
33.6039 1427 37.7757
33.7211 1332 36.4966
33.8383 1287 35.8748
33.9554 1301 36.0694
34.0725 1252 35.3836
34.1896 1168 34.176
34.3067 1048 32.3728
34.4237 1118 33.4365
34.5407 1193 34.5398
34.6577 1173 34.2491
34.7746 1229 35.0571
34.8915 1206 34.7275
35.0084 1147 33.8674
35.1252 1153 33.9559
35.242 1171 34.2199
35.3587 1227 35.0286
35.4755 1152 33.9411
35.5921 1234 35.1283
35.7088 1234 35.1283
35.8254 1240 35.2136
35.9419 1284 35.8329
36.0584 1293 35.9583
36.1749 1297 36.0139
36.2913 1292 35.9444
36.4077 1265 35.5668
36.524 1327 36.428
36.6403 1337 36.565
36.7565 1291 35.9305
36.8727 1272 35.6651
36.9889 1327 36.428
37.1049 1333 36.5103
37.221 0 1
37.3369 0 1
37.4529 0 1
37.5687 0 1
37.6845 0 1
37.8003 0 1
37.916 0 1
38.0316 0 1
38.1472 0 1
40.5851 0 1
40.7008 0 1
40.8164 0 1
40.9322 0 1
41.048 0 1
41.1639 0 1
41.2798 0 1
41.3958 0 1
41.5118 0 1
41.6279 0 1
41.744 1027 32.0468
41.8602 1114 33.3766
41.9765 1082 32.8938
42.0928 1140 33.7639
42.2091 1133 33.6601
42.3255 1110 33.3167
42.4419 1146 33.8526
42.5584 1155 33.9853
42.675 1084 32.9242
42.7915 1132 33.6452
42.9081 1037 32.2025
43.0248 937 30.6105
43.1415 924 30.3974
43.2582 907 30.1164
43.375 991 31.4802
43.4918 999 31.607
43.6087 994 31.5278
43.7256 998 31.5911
43.8425 970 31.1448
43.9595 865 29.4109
44.0765 932 30.5287
44.1935 1030 32.0936
44.3106 924 30.3974
44.4277 946 30.7571
44.5448 994 31.5278
44.6619 991 31.4802
44.7791 985 31.3847
44.8963 966 31.0805
45.0136 1010 31.7805
45.1308 1020 31.9374
45.2481 956 30.9192
45.3654 954 30.8869
45.4827 999 31.607
45.6001 973 31.1929
45.7174 978 31.273
45.8348 920 30.3315
45.9522 888 29.7993
46.0697 899 29.9833
46.1871 849 29.1376
46.3046 892 29.8664
46.422 875 29.5804
46.5395 800 28.2843
46.657 804 28.3549
46.7745 806 28.3901
46.892 748 27.3496
47.0096 730 27.0185
47.1271 775 27.8388
47.2446 782 27.9643
47.3622 772 27.7849
47.4797 712 26.6833
47.5973 726 26.9444
47.7149 753 27.4408
47.8324 708 26.6083
47.95 676 26
48.0675 762 27.6043
48.1851 753 27.4408
48.3027 730 27.0185
48.4202 754 27.4591
48.5378 776 27.8568
48.6554 726 26.9444
48.7729 766 27.6767
48.8904 756 27.4955
49.008 756 27.4955
49.1255 774 27.8209
49.243 735 27.1109
49.3605 740 27.2029
49.478 743 27.258
49.5955 742 27.2397
49.713 762 27.6043
49.8304 770 27.7489
49.9479 778 27.8927
50.0653 754 27.4591
50.1827 723 26.8887
50.3001 663 25.7488
50.4175 631 25.1197
50.5348 622 24.9399
50.6521 735 27.1109
50.7694 754 27.4591
50.8867 766 27.6767
51.004 759 27.55
51.1212 784 28
51.2384 810 28.4605
51.3556 832 28.8444
51.4727 903 30.05
51.5899 882 29.6985
51.707 890 29.8329
51.824 937 30.6105
51.9411 909 30.1496
52.0581 944 30.7246
52.175 949 30.8058
52.2919 952 30.8545
52.4088 942 30.692
52.5257 968 31.1127
52.6425 993 31.5119
52.7593 969 31.1288
52.876 999 31.607
52.9927 983 31.3528
53.1094 1000 31.6228
53.226 997 31.5753
53.3426 1005 31.7017
53.4591 1061 32.573
53.5756 1011 31.7962
53.692 1011 31.7962
53.8084 978 31.273
53.9248 881 29.6816
54.0411 812 28.4956
54.1573 877 29.6142
54.2735 0 1
54.3896 0 1
54.5057 0 1
54.6217 0 1
54.7377 0 1
54.8537 0 1
54.9695 0 1
55.0853 0 1
55.2011 0 1
55.3168 0 1
55.4324 0 1
57.824 0 1
57.9396 0 1
58.0553 0 1
58.1711 0 1
58.2869 0 1
58.4028 0 1
58.5187 0 1
58.6347 0 1
58.7508 0 1
58.8669 0 1
58.983 1000 31.6228
59.0992 997 31.5753
59.2155 977 31.257
59.3318 1012 31.8119
59.4482 1046 32.3419
59.5646 1034 32.1559
59.681 1083 32.909
59.7975 1086 32.9545
59.9141 1054 32.4654
60.0306 1110 33.3167
60.1473 1063 32.6037
60.2639 1105 33.2415
60.3807 1092 33.0454
60.4974 1101 33.1813
60.6142 1071 32.7261
60.731 1116 33.4066
60.8479 1140 33.7639
60.9648 1020 31.9374
61.0818 1006 31.7175
61.1987 1057 32.5115
61.3158 1071 32.7261
61.4328 1022 31.9687
61.5499 1069 32.6956
61.667 1031 32.1092
61.7841 1002 31.6544
61.9013 1018 31.9061
62.0185 1033 32.1403
62.1357 976 31.241
62.253 1079 32.8481
62.3702 991 31.4802
62.4875 944 30.7246
62.6049 876 29.5973
62.7222 847 29.1033
62.8396 851 29.1719
62.9569 911 30.1828
63.0743 888 29.7993
63.1918 900 30
63.3092 890 29.8329
63.4267 926 30.4302
63.5441 967 31.0966
63.6616 979 31.289
63.7791 947 30.7734
63.8966 1023 31.9844
64.0142 991 31.4802
64.1317 977 31.257
64.2492 883 29.7153
64.3668 937 30.6105
64.4843 934 30.5614
64.6019 978 31.273
64.7195 906 30.0998
64.837 840 28.9828
64.9546 877 29.6142
65.0722 936 30.5941
65.1898 958 30.9516
65.3074 918 30.2985
65.4249 857 29.2746
65.5425 853 29.2062
65.6601 922 30.3645
65.7777 871 29.5127
65.8952 888 29.7993
66.0128 881 29.6816
66.1304 815 28.5482
66.2479 741 27.2213
66.3655 754 27.4591
66.483 734 27.0924
66.6005 757 27.5136
66.718 729 27
66.8355 794 28.178
66.953 847 29.1033
67.0705 867 29.4449
67.1879 844 29.0517
67.3054 837 28.931
67.4228 830 28.8097
67.5402 855 29.2404
67.6576 838 28.9482
67.7749 888 29.7993
67.8923 822 28.6705
68.0096 848 29.1204
68.1269 829 28.7924
68.2442 889 29.8161
68.3614 812 28.4956
68.4787 822 28.6705
68.5958 870 29.4958
68.713 818 28.6007
68.8302 848 29.1204
68.9473 754 27.4591
69.0643 794 28.178
69.1814 844 29.0517
69.2984 772 27.7849
69.4154 809 28.4429
69.5323 784 28
69.6492 824 28.7054
69.7661 816 28.5657
69.8829 705 26.5518
69.9997 727 26.9629
70.1165 711 26.6646
70.2332 715 26.7395
70.3499 739 27.1846
70.4665 755 27.4773
70.5831 745 27.2947
70.6996 782 27.9643
70.8161 715 26.7395
70.9326 808 28.4253
71.049 745 27.2947
71.1653 733 27.074
71.2817 714 26.7208
71.3979 672 25.923
71.5141 705 26.5518
71.6303 718 26.7955
71.7464 629 25.0799
71.8624 0 1
71.9784 0 1
72.0944 0 1
72.2102 0 1
72.3261 0 1
72.4418 0 1
72.5575 0 1
72.6732 0 1
75.1054 0 1
75.2209 0 1
75.3365 0 1
75.4521 0 1
75.5678 0 1
75.6835 0 1
75.7993 0 1
75.9151 0 1
76.031 0 1
76.147 555 23.5584
76.263 563 23.7276
76.3791 597 24.4336
76.4952 599 24.4745
76.6113 560 23.6643
76.7276 606 24.6171
76.8438 566 23.7908
76.9601 567 23.8118
77.0765 569 23.8537
77.1929 549 23.4307
77.3093 561 23.6854
77.4258 529 23
77.5423 576 24
77.6589 553 23.516
77.7755 496 22.2711
77.8921 555 23.5584
78.0088 514 22.6716
78.1256 483 21.9773
78.2423 525 22.9129
78.3591 470 21.6795
78.4759 483 21.9773
78.5928 534 23.1084
78.7097 474 21.7715
78.8266 468 21.6333
78.9436 453 21.2838
79.0606 400 20
79.1776 366 19.1311
79.2946 312 17.6635
79.4117 389 19.7231
79.5288 429 20.7123
79.6459 452 21.2603
79.7631 418 20.445
79.8802 409 20.2237
79.9974 403 20.0749
80.1147 393 19.8242
80.2319 390 19.7484
80.3491 370 19.2354
80.4664 376 19.3907
80.5837 387 19.6723
80.701 395 19.8746
80.8183 355 18.8414
80.9357 351 18.735
81.053 364 19.0788
81.1704 342 18.4932
81.2877 275 16.5831
81.4051 312 17.6635
81.5225 287 16.9411
81.6399 280 16.7332
81.7573 255 15.9687
81.8747 280 16.7332
81.9922 254 15.9374
82.1096 249 15.7797
82.227 258 16.0624
82.3444 240 15.4919
82.4619 228 15.0997
82.5793 226 15.0333
82.6967 254 15.9374
82.8142 183 13.5277
82.9316 158 12.5698
83.049 189 13.7477
83.1664 190 13.784
83.2838 178 13.3417
83.4012 208 14.4222
83.5186 169 13
83.636 172 13.1149
83.7534 161 12.6886
83.8708 138 11.7473
83.9881 143 11.9583
84.1055 141 11.8743
84.2228 129 11.3578
84.3401 109 10.4403
84.4575 132 11.4891
84.5747 125 11.1803
84.692 116 10.7703
84.8093 98 9.89949
84.9265 116 10.7703
85.0437 103 10.1489
85.1609 92 9.59166
85.2781 101 10.0499
85.3952 102 10.0995
85.5123 103 10.1489
85.6294 96 9.79796
85.7465 102 10.0995
85.8636 110 10.4881
85.9806 121 11
86.0976 106 10.2956
86.2145 79 8.88819
86.3315 107 10.3441
86.4484 123 11.0905
86.5652 124 11.1355
86.682 142 11.9164
86.7988 130 11.4018
86.9156 125 11.1803
87.0323 135 11.619
87.149 148 12.1655
87.2657 158 12.5698
87.3823 150 12.2474
87.4988 158 12.5698
87.6154 173 13.1529
87.7318 201 14.1774
87.8483 202 14.2127
87.9647 193 13.8924
88.081 178 13.3417
88.1973 240 15.4919
88.3136 232 15.2315
88.4298 236 15.3623
88.546 265 16.2788
88.6621 239 15.4596
88.7781 268 16.3707
88.8942 0 1
89.0101 0 1
89.126 0 1
89.2419 0 1
89.3577 0 1
89.4734 0 1
89.5891 0 1
89.7047 0 1
89.8203 0 1
89.9358 0 1
92.3269 0 1
92.4424 0 1
92.558 0 1
92.6736 0 1
92.7893 0 1
92.905 0 1
93.0208 0 1
93.1366 0 1
93.2525 0 1
93.3685 0 1
93.4845 0 1
93.6005 408 20.199
93.7167 386 19.6469
93.8328 401 20.025
93.949 414 20.347
94.0653 401 20.025
94.1816 366 19.1311
94.2979 387 19.6723
94.4143 371 19.2614
94.5307 341 18.4662
94.6472 314 17.72
94.7637 356 18.868
94.8803 333 18.2483
94.9969 340 18.4391
95.1135 337 18.3576
95.2302 326 18.0555
95.3469 287 16.9411
95.4637 244 15.6205
95.5805 218 14.7648
95.6973 326 18.0555
95.8142 370 19.2354
95.9311 393 19.8242
96.048 382 19.5448
96.1649 378 19.4422
96.2819 380 19.4936
96.3989 391 19.7737
96.516 420 20.4939
96.633 432 20.7846
96.7501 433 20.8087
96.8673 413 20.3224
96.9844 457 21.3776
97.1016 487 22.0681
97.2188 503 22.4277
97.336 494 22.2261
97.4532 509 22.561
97.5704 518 22.7596
97.6877 521 22.8254
97.805 564 23.7487
97.9223 548 23.4094
98.0396 558 23.622
98.1569 557 23.6008
98.2743 524 22.891
98.3916 640 25.2982
98.509 634 25.1794
98.6264 597 24.4336
98.7438 624 24.98
98.8612 647 25.4362
98.9786 556 23.5797
99.096 395 19.8746
99.2134 428 20.6882
99.3308 560 23.6643
99.4482 708 26.6083
99.5656 745 27.2947
99.6831 702 26.4953
99.8005 677 26.0192
99.9179 750 27.3861
100.035 733 27.074
100.153 740 27.2029
100.27 736 27.1293
100.388 749 27.3679
100.505 738 27.1662
100.622 757 27.5136
100.74 769 27.7308
100.857 732 27.0555
100.975 794 28.178
101.092 804 28.3549
101.209 866 29.4279
101.327 864 29.3939
101.444 830 28.8097
101.561 799 28.2666
101.679 836 28.9137
101.796 793 28.1603
101.913 816 28.5657
102.03 843 29.0345
102.148 826 28.7402
102.265 921 30.348
102.382 832 28.8444
102.499 800 28.2843
102.616 624 24.98
102.733 556 23.5797
102.851 692 26.3059
102.968 870 29.4958
103.085 872 29.5296
103.202 892 29.8664
103.319 868 29.4618
103.436 928 30.4631
103.552 885 29.7489
103.669 879 29.6479
103.786 830 28.8097
103.903 854 29.2233
104.02 887 29.7825
104.137 868 29.4618
104.253 914 30.2324
104.37 851 29.1719
104.487 807 28.4077
104.603 937 30.6105
104.72 898 29.9666
104.836 946 30.7571
104.953 921 30.348
105.069 955 30.9031
105.186 927 30.4467
105.302 951 30.8383
105.418 938 30.6268
105.535 938 30.6268
105.651 907 30.1164
105.767 831 28.8271
105.883 860 29.3258
105.999 756 27.4955
106.115 0 1
106.231 0 1
106.347 0 1
106.463 0 1
106.579 0 1
106.694 0 1
106.81 0 1
106.926 0 1
107.041 0 1
107.157 0 1
109.576 0 1
109.692 0 1
109.807 0 1
109.923 0 1
110.039 0 1
110.155 0 1
110.27 0 1
110.386 0 1
110.502 0 1
110.618 732 27.0555
110.735 708 26.6083
110.851 725 26.9258
110.967 723 26.8887
111.083 634 25.1794
111.199 608 24.6577
111.316 556 23.5797
111.432 626 25.02
111.549 670 25.8844
111.665 700 26.4575
111.782 693 26.3249
111.898 651 25.5147
112.015 667 25.8263
112.132 627 25.04
112.248 585 24.1868
112.365 607 24.6374
112.482 614 24.779
112.599 647 25.4362
112.716 590 24.2899
112.832 612 24.7386
112.949 563 23.7276
113.066 560 23.6643
113.183 600 24.4949
113.3 583 24.1454
113.417 586 24.2074
113.534 582 24.1247
113.652 548 23.4094
113.769 571 23.8956
113.886 596 24.4131
114.003 541 23.2594
114.12 516 22.7156
114.238 573 23.9374
114.355 471 21.7025
114.472 495 22.2486
114.589 457 21.3776
114.707 512 22.6274
114.824 428 20.6882
114.942 428 20.6882
115.059 500 22.3607
115.176 482 21.9545
115.294 493 22.2036
115.411 491 22.1585
115.529 466 21.587
115.646 521 22.8254
115.764 483 21.9773
115.881 506 22.4944
115.999 507 22.5167
116.116 481 21.9317
116.234 464 21.5407
116.351 524 22.891
116.469 493 22.2036
116.586 497 22.2935
116.704 508 22.5389
116.821 537 23.1733
116.939 470 21.6795
117.056 526 22.9347
117.174 525 22.9129
117.291 513 22.6495
117.409 490 22.1359
117.526 501 22.383
117.644 478 21.8632
117.761 478 21.8632
117.879 463 21.5174
117.996 381 19.5192
118.114 382 19.5448
118.231 434 20.8327
118.349 466 21.587
118.466 449 21.1896
118.584 462 21.4942
118.701 455 21.3307
118.819 490 22.1359
118.936 538 23.1948
119.053 537 23.1733
119.171 476 21.8174
119.288 514 22.6716
119.405 518 22.7596
119.523 501 22.383
119.64 531 23.0434
119.757 512 22.6274
119.875 520 22.8035
119.992 542 23.2809
120.109 493 22.2036
120.226 497 22.2935
120.343 523 22.8692
120.46 516 22.7156
120.578 543 23.3024
120.695 531 23.0434
120.812 524 22.891
120.929 536 23.1517
121.046 531 23.0434
121.163 535 23.1301
121.279 537 23.1733
121.396 537 23.1733
121.513 484 22
121.63 406 20.1494
121.747 372 19.2873
121.863 410 20.2485
121.98 456 21.3542
122.097 508 22.5389
122.213 545 23.3452
122.33 566 23.7908
122.446 532 23.0651
122.563 558 23.622
122.679 565 23.7697
122.795 600 24.4949
122.912 576 24
123.028 583 24.1454
123.144 571 23.8956
123.26 540 23.2379
123.377 0 1
123.493 0 1
123.609 0 1
123.725 0 1
123.84 0 1
123.956 0 1
124.072 0 1
124.188 0 1
124.303 0 1
124.419 0 1
126.852 0 1
126.968 0 1
127.083 0 1
127.199 0 1
127.315 0 1
127.431 0 1
127.547 0 1
127.663 0 1
127.779 0 1
127.895 0 1
128.011 0 1
128.127 0 1
128.243 0 1
128.359 735 27.1109
128.476 699 26.4386
128.592 704 26.533
128.708 742 27.2397
128.825 744 27.2764
128.941 708 26.6083
129.058 744 27.2764
129.174 738 27.1662
129.291 755 27.4773
129.408 713 26.7021
129.524 767 27.6948
129.641 728 26.9815
129.758 729 27
129.875 719 26.8142
129.992 746 27.313
130.108 698 26.4197
130.225 734 27.0924
130.342 657 25.632
130.459 575 23.9792
130.576 576 24
130.693 529 23
130.81 493 22.2036
130.928 507 22.5167
131.045 621 24.9199
131.162 728 26.9815
131.279 743 27.258
131.396 753 27.4408
131.513 715 26.7395
131.631 775 27.8388
131.748 746 27.313
131.865 752 27.4226
131.983 804 28.3549
132.1 819 28.6182
132.217 837 28.931
132.335 758 27.5318
132.452 753 27.4408
132.57 803 28.3373
132.687 783 27.9821
132.804 769 27.7308
132.922 781 27.9464
133.039 858 29.2916
133.157 755 27.4773
133.274 798 28.2489
133.392 791 28.1247
133.509 811 28.4781
133.627 740 27.2029
133.744 775 27.8388
133.862 771 27.7669
133.979 668 25.8457
134.097 657 25.632
134.214 624 24.98
134.332 576 24
134.449 580 24.0832
134.567 634 25.1794
134.684 741 27.2213
134.802 829 28.7924
134.919 837 28.931
135.037 866 29.4279
135.154 843 29.0345
135.272 812 28.4956
135.389 871 29.5127
135.507 908 30.133
135.624 841 29
135.742 873 29.5466
135.859 869 29.4788
135.977 916 30.2655
136.094 881 29.6816
136.211 886 29.7658
136.329 852 29.189
136.446 917 30.282
136.564 898 29.9666
136.681 938 30.6268
136.798 866 29.4279
136.915 866 29.4279
137.033 822 28.6705
137.15 925 30.4138
137.267 848 29.1204
137.384 833 28.8617
137.502 857 29.2746
137.619 734 27.0924
137.736 690 26.2679
137.853 668 25.8457
137.97 672 25.923
138.087 717 26.7769
138.204 705 26.5518
138.321 745 27.2947
138.438 855 29.2404
138.555 884 29.7321
138.672 898 29.9666
138.788 943 30.7083
138.905 947 30.7734
139.022 944 30.7246
139.139 901 30.0167
139.255 966 31.0805
139.372 958 30.9516
139.488 961 31
139.605 958 30.9516
139.721 968 31.1127
139.838 1021 31.9531
139.954 1000 31.6228
140.071 959 30.9677
140.187 924 30.3974
140.303 935 30.5778
140.419 954 30.8869
140.535 948 30.7896
140.652 1000 31.6228
140.768 0 1
140.884 0 1
141 0 1
141.115 0 1
141.231 0 1
141.347 0 1
141.463 0 1
141.578 0 1
141.694 0 1
144.104 0 1
144.219 0 1
144.335 0 1
144.45 0 1
144.566 0 1
144.682 0 1
144.798 0 1
144.914 0 1
145.03 0 1
145.146 896 29.9333
145.262 886 29.7658
145.378 907 30.1164
145.494 935 30.5778
145.61 864 29.3939
145.726 890 29.8329
145.842 876 29.5973
145.959 904 30.0666
146.075 836 28.9137
146.192 842 29.0172
146.308 817 28.5832
146.425 778 27.8927
146.541 725 26.9258
146.658 755 27.4773
146.774 755 27.4773
146.891 726 26.9444
147.008 802 28.3196
147.125 818 28.6007
147.241 899 29.9833
147.358 912 30.1993
147.475 933 30.545
147.592 952 30.8545
147.709 985 31.3847
147.826 855 29.2404
147.943 923 30.3809
148.06 924 30.3974
148.177 959 30.9677
148.294 891 29.8496
148.411 887 29.7825
148.528 947 30.7734
148.645 974 31.209
148.762 943 30.7083
148.88 923 30.3809
148.997 867 29.4449
149.114 961 31
149.231 879 29.6479
149.349 890 29.8329
149.466 856 29.2575
149.583 837 28.931
149.701 809 28.4429
149.818 821 28.6531
149.935 746 27.313
150.053 734 27.0924
150.17 722 26.8701
150.287 705 26.5518
150.405 799 28.2666
150.522 753 27.4408
150.64 779 27.9106
150.757 858 29.2916
150.875 859 29.3087
150.992 915 30.249
151.11 869 29.4788
151.227 937 30.6105
151.344 947 30.7734
151.462 952 30.8545
151.579 937 30.6105
151.697 943 30.7083
151.814 966 31.0805
151.932 940 30.6594
152.049 947 30.7734
152.167 919 30.315
152.284 944 30.7246
152.402 1005 31.7017
152.519 966 31.0805
152.636 961 31
152.754 916 30.2655
152.871 896 29.9333
152.989 911 30.1828
153.106 900 30
153.223 894 29.8998
153.341 790 28.1069
153.458 840 28.9828
153.575 831 28.8271
153.693 820 28.6356
153.81 758 27.5318
153.927 774 27.8209
154.044 810 28.4605
154.162 848 29.1204
154.279 906 30.0998
154.396 916 30.2655
154.513 933 30.545
154.63 945 30.7409
154.747 973 31.1929
154.864 955 30.9031
154.981 964 31.0483
155.098 984 31.3688
155.215 1016 31.8748
155.332 1004 31.686
155.449 1024 32
155.566 941 30.6757
155.683 973 31.1929
155.8 1007 31.7333
155.917 993 31.5119
156.033 1030 32.0936
156.15 0 1
156.267 0 1
156.383 0 1
156.5 0 1
156.617 0 1
156.733 0 1
156.85 0 1
156.966 0 1
157.082 0 1
157.199 0 1
157.315 0 1
157.431 0 1
157.547 0 1
157.664 0 1
157.78 0 1
157.896 0 1
158.012 0 1
158.128 0 1
158.244 0 1
158.359 0 1
158.475 0 1
158.591 0 1
158.706 0 1
