
6.15755 0 1
6.2731 0 1
6.3887 0 1
6.50437 0 1
6.62009 0 1
6.73587 0 1
6.8517 0 1
6.96759 0 1
7.08353 0 1
7.19952 0 1
7.31557 0 1
7.43166 0 1
7.54781 0 1
7.664 0 1
7.78024 0 1
7.89653 0 1
8.01286 0 1
8.12924 0 1
8.24567 0 1
8.36213 0 1
8.47864 0 1
8.59519 0 1
8.71178 0 1
8.82841 0 1
8.94508 0 1
9.06179 0 1
9.17853 0 1
9.29531 0 1
9.41212 0 1
9.52897 0 1
9.64584 0 1
9.76276 0 1
9.8797 0 1
9.99667 0 1
10.1137 0 1
10.2307 0 1
10.3478 0 1
10.4648 0 1
10.5819 0 1
10.6991 0 1
10.8162 0 1
10.9334 0 1
11.0506 0 1
11.1678 0 1
11.285 0 1
11.4023 0 1
11.5196 0 1
11.6369 0 1
11.7542 0 1
11.8715 0 1
11.9888 0 1
12.1062 0 1
12.2235 0 1
12.3409 0 1
12.4582 0 1
12.5756 0 1
12.693 0 1
12.8104 0 1
12.9278 0 1
13.0452 0 1
13.1626 0 1
13.28 0 1
13.3974 0 1
13.5149 0 1
13.6323 0 1
13.7497 0 1
13.8671 0 1
13.9845 0 1
14.1019 0 1
14.2193 0 1
14.3367 0 1
14.4541 0 1
14.5714 0 1
14.6888 0 1
14.8062 0 1
14.9235 0 1
15.0408 4530 67.3053
15.1581 4801 69.2892
15.2755 5055 71.0985
15.3927 5072 71.218
15.51 5257 72.5052
15.6273 5150 71.7635
15.7445 4802 69.2965
15.8617 4514 67.1863
15.9789 4295 65.5362
16.0961 4400 66.3325
16.2132 5039 70.9859
16.3304 5661 75.2396
16.4475 6340 79.6241
16.5646 6670 81.6701
16.6816 7190 84.7939
16.7986 7352 85.7438
16.9156 7363 85.8079
17.0326 7501 86.6083
17.1496 7419 86.1336
17.2665 7349 85.7263
17.3833 7487 86.5275
17.5002 7258 85.1939
17.617 7345 85.703
17.7338 7215 84.9412
17.8505 7463 86.3887
17.9672 7325 85.5862
18.0839 7508 86.6487
18.2005 7651 87.47
18.3171 7706 87.7838
18.4337 7714 87.8294
18.5502 7859 88.651
18.6666 7872 88.7243
18.7831 7865 88.6848
18.8994 7589 87.1149
19.0158 7694 87.7154
19.1321 7146 84.534
19.2483 6470 80.4363
19.3645 5887 76.7268
19.4806 5183 71.9931
19.5967 4729 68.7677
19.7128 5020 70.852
19.8288 5468 73.9459
19.9447 5387 73.3962
20.0606 0 1
20.1764 0 1
20.2922 0 1
20.4079 0 1
20.5236 0 1
20.6392 0 1
20.7548 0 1
20.8702 0 1
23.3078 0 1
23.4233 0 1
23.539 0 1
23.6547 0 1
23.7704 0 1
23.8862 0 1
24.0021 0 1
24.118 0 1
24.234 0 1
24.35 0 1
24.4661 6486 80.5357
24.5822 6052 77.7946
24.6984 5501 74.1687
24.8146 5064 71.1618
24.9309 4837 69.5485
25.0472 5313 72.8903
25.1636 6059 77.8396
25.28 6760 82.2192
25.3965 7687 87.6755
25.513 8027 89.5935
25.6296 8589 92.6769
25.7462 8670 93.1128
25.8628 8663 93.0752
25.9795 8685 93.1933
26.0962 8686 93.1987
26.213 8689 93.2148
26.3298 8566 92.5527
26.4466 8319 91.2086
26.5635 8267 90.923
26.6804 8258 90.8735
26.7973 8502 92.2063
26.9143 8657 93.043
27.0313 8555 92.4932
27.1483 8638 92.9408
27.2653 8660 93.0591
27.3824 8595 92.7092
27.4996 8720 93.3809
27.6167 8497 92.1792
27.7339 8383 91.5587
27.8511 8202 90.5649
27.9683 7725 87.892
28.0855 7213 84.9294
28.2028 6199 78.7337
28.3201 5187 72.0208
28.4374 4503 67.1044
28.5547 4508 67.1416
28.6721 5063 71.1548
28.7894 5872 76.629
28.9068 6859 82.8191
29.0242 7535 86.8044
29.1416 8166 90.3659
29.259 8369 91.4822
29.3764 8377 91.526
29.4939 8520 92.3038
29.6113 8362 91.444
29.7288 8238 90.7634
29.8463 8208 90.598
29.9638 8197 90.5373
30.0812 8007 89.4818
30.1987 8187 90.482
30.3162 8219 90.6587
30.4337 8382 91.5533
30.5512 8301 91.1098
30.6687 8331 91.2743
30.7862 8343 91.34
30.9037 8172 90.3991
31.0212 8374 91.5096
31.1387 8500 92.1954
31.2562 8237 90.7579
31.3737 8255 90.857
31.4912 8083 89.9055
31.6087 7346 85.7088
31.7262 6535 80.8393
31.8436 5426 73.6614
31.9611 4644 68.1469
32.0785 4348 65.9394
32.1959 4765 69.029
32.3134 5558 74.552
32.4308 6449 80.3057
32.5482 7482 86.4986
32.6655 7935 89.0786
32.7829 8136 90.1998
32.9002 8211 90.6146
33.0176 8320 91.214
33.1349 8412 91.717
33.2522 8244 90.7965
33.3694 8036 89.6437
33.4867 8001 89.4483
33.6039 8027 89.5935
33.7211 7828 88.476
33.8383 7787 88.244
33.9554 8024 89.5768
34.0725 7872 88.7243
34.1896 7887 88.8088
34.3067 7968 89.2637
34.4237 7828 88.476
34.5407 7941 89.1123
34.6577 8135 90.1942
34.7746 8047 89.7051
34.8915 7940 89.1067
35.0084 8020 89.5545
35.1252 7816 88.4081
35.242 7536 86.8101
35.3587 6902 83.0783
35.4755 6052 77.7946
35.5921 4966 70.4699
35.7088 4077 63.8514
35.8254 3902 62.466
35.9419 4349 65.9469
36.0584 5009 70.7743
36.1749 6010 77.5242
36.2913 6989 83.6002
36.4077 7501 86.6083
36.524 7523 86.7352
36.6403 7745 88.0057
36.7565 7868 88.7017
36.8727 7710 87.8066
36.9889 7686 87.6698
37.1049 7504 86.6256
37.221 0 1
37.3369 0 1
37.4529 0 1
37.5687 0 1
37.6845 0 1
37.8003 0 1
37.916 0 1
38.0316 0 1
38.1472 0 1
40.5851 0 1
40.7008 0 1
40.8164 0 1
40.9322 0 1
41.048 0 1
41.1639 0 1
41.2798 0 1
41.3958 0 1
41.5118 0 1
41.6279 0 1
41.744 5453 73.8444
41.8602 5895 76.7789
41.9765 6294 79.3347
42.0928 6315 79.467
42.2091 6378 79.8624
42.3255 6314 79.4607
42.4419 6236 78.9683
42.5584 6021 77.5951
42.675 6034 77.6788
42.7915 6049 77.7753
42.9081 5905 76.844
43.0248 6101 78.1089
43.1415 5857 76.531
43.2582 5898 76.7984
43.375 5858 76.5376
43.4918 5987 77.3757
43.6087 5944 77.0973
43.7256 5771 75.9671
43.8425 5683 75.3857
43.9595 5536 74.4043
44.0765 5399 73.4779
44.1935 5095 71.3793
44.3106 4502 67.0969
44.4277 3484 59.0254
44.5448 2617 51.1566
44.6619 2488 49.8799
44.7791 3001 54.7814
44.8963 3502 59.1777
45.0136 4219 64.9538
45.1308 4666 68.3081
45.2481 4772 69.0797
45.3654 4692 68.4982
45.4827 4528 67.2904
45.6001 4739 68.8404
45.7174 4510 67.1565
45.8348 4363 66.053
45.9522 4269 65.3376
46.0697 4306 65.6201
46.1871 4063 63.7417
46.3046 4113 64.1327
46.422 4195 64.7688
46.5395 3935 62.7296
46.657 4095 63.9922
46.7745 3933 62.7136
46.892 4001 63.2535
47.0096 4045 63.6003
47.1271 4071 63.8044
47.2446 3928 62.6738
47.3622 3773 61.4248
47.4797 3949 62.8411
47.5973 3713 60.9344
47.7149 3503 59.1861
47.8324 3231 56.8419
47.95 2787 52.792
48.0675 2132 46.1736
48.1851 1756 41.9047
48.3027 1850 43.0116
48.4202 2307 48.0312
48.5378 2837 53.2635
48.6554 3235 56.8771
48.7729 3384 58.1722
48.8904 3394 58.258
49.008 3433 58.5918
49.1255 3375 58.0948
49.243 3401 58.3181
49.3605 3245 56.9649
49.478 3296 57.4108
49.5955 3267 57.1577
49.713 3211 56.6657
49.8304 3271 57.1927
49.9479 3278 57.2538
50.0653 3329 57.6975
50.1827 3520 59.3296
50.3001 3623 60.1914
50.4175 3600 60
50.5348 3810 61.7252
50.6521 3979 63.0793
50.7694 3956 62.8967
50.8867 3966 62.9762
51.004 4118 64.1716
51.1212 4072 63.8122
51.2384 4163 64.5213
51.3556 4044 63.5925
51.4727 3229 56.8243
51.5899 2354 48.518
51.707 2126 46.1086
51.824 2534 50.3389
51.9411 3185 56.4358
52.0581 4017 63.3798
52.175 4743 68.8694
52.2919 4828 69.4838
52.4088 4974 70.5266
52.5257 5095 71.3793
52.6425 5118 71.5402
52.7593 5275 72.6292
52.876 5264 72.5534
52.9927 5328 72.9932
53.1094 5235 72.3533
53.226 5272 72.6085
53.3426 5260 72.5259
53.4591 5267 72.5741
53.5756 5374 73.3076
53.692 5579 74.6927
53.8084 5718 75.6175
53.9248 5711 75.5712
54.0411 5809 76.2168
54.1573 6154 78.4474
54.2735 0 1
54.3896 0 1
54.5057 0 1
54.6217 0 1
54.7377 0 1
54.8537 0 1
54.9695 0 1
55.0853 0 1
55.2011 0 1
55.3168 0 1
55.4324 0 1
57.824 0 1
57.9396 0 1
58.0553 0 1
58.1711 0 1
58.2869 0 1
58.4028 0 1
58.5187 0 1
58.6347 0 1
58.7508 0 1
58.8669 0 1
58.983 6407 80.0437
59.0992 6576 81.0925
59.2155 6732 82.0488
59.3318 6869 82.8794
59.4482 6956 83.4026
59.5646 6978 83.5344
59.681 6739 82.0914
59.7975 6728 82.0244
59.9141 6284 79.2717
60.0306 5727 75.6769
60.1473 5116 71.5262
60.2639 4058 63.7024
60.3807 3532 59.4306
60.4974 3691 60.7536
60.6142 4262 65.284
60.731 5122 71.5681
60.8479 5741 75.7694
60.9648 6032 77.666
61.0818 6174 78.5748
61.1987 6160 78.4857
61.3158 6065 77.8781
61.4328 5980 77.3305
61.5499 5841 76.4264
61.667 5698 75.4851
61.7841 5778 76.0132
61.9013 5751 75.8353
62.0185 5592 74.7797
62.1357 5743 75.7826
62.253 5679 75.3591
62.3702 5698 75.4851
62.4875 5779 76.0197
62.6049 5874 76.642
62.7222 6001 77.4661
62.8396 6001 77.4661
62.9569 6054 77.8075
63.0743 6037 77.6981
63.1918 5948 77.1233
63.3092 5702 75.5116
63.4267 5652 75.1798
63.5441 5042 71.007
63.6616 4370 66.106
63.7791 3582 59.8498
63.8966 3097 55.6507
64.0142 3158 56.1961
64.1317 3805 61.6847
64.2492 4590 67.7495
64.3668 5132 71.638
64.4843 5237 72.3671
64.6019 5386 73.3894
64.7195 5387 73.3962
64.837 5456 73.8647
64.9546 5332 73.0205
65.0722 5244 72.4155
65.1898 5030 70.9225
65.3074 5044 71.0211
65.4249 4884 69.8856
65.5425 4911 70.0785
65.6601 5030 70.9225
65.7777 4977 70.5479
65.8952 5152 71.7774
66.0128 5267 72.5741
66.1304 5350 73.1437
66.2479 5533 74.3841
66.3655 5444 73.7835
66.483 5514 74.2563
66.6005 5490 74.0945
66.718 5521 74.3034
66.8355 5454 73.8512
66.953 5572 74.6458
67.0705 5139 71.6868
67.1879 4806 69.3253
67.3054 4053 63.6632
67.4228 3161 56.2228
67.5402 2695 51.9134
67.6576 3037 55.109
67.7749 3516 59.2959
67.8923 4378 66.1665
68.0096 4783 69.1592
68.1269 5088 71.3302
68.2442 5459 73.885
68.3614 5338 73.0616
68.4787 5273 72.6154
68.5958 5249 72.45
68.713 5128 71.6101
68.8302 5039 70.9859
68.9473 4960 70.4273
69.0643 4875 69.8212
69.1814 4973 70.5195
69.2984 5009 70.7743
69.4154 5208 72.1665
69.5323 5373 73.3008
69.6492 5619 74.96
69.7661 5615 74.9333
69.8829 5811 76.2299
69.9997 5960 77.201
70.1165 5884 76.7072
70.2332 5966 77.2399
70.3499 5986 77.3692
70.4665 6070 77.9102
70.5831 6114 78.1921
70.6996 5741 75.7694
70.8161 5451 73.8309
70.9326 4868 69.7711
71.049 3893 62.3939
71.1653 3076 55.4617
71.2817 2860 53.479
71.3979 3133 55.9732
71.5141 3960 62.9285
71.6303 4624 68
71.7464 4554 67.4833
71.8624 0 1
71.9784 0 1
72.0944 0 1
72.2102 0 1
72.3261 0 1
72.4418 0 1
72.5575 0 1
72.6732 0 1
75.1054 0 1
75.2209 0 1
75.3365 0 1
75.4521 0 1
75.5678 0 1
75.6835 0 1
75.7993 0 1
75.9151 0 1
76.031 0 1
76.147 5241 72.3948
76.263 4975 70.5337
76.3791 3682 60.6795
76.4952 2848 53.3667
76.6113 2814 53.0471
76.7276 3444 58.6856
76.8438 4609 67.8896
76.9601 5465 73.9256
77.0765 5720 75.6307
77.1929 5738 75.7496
77.3093 5833 76.3741
77.4258 5889 76.7398
77.5423 5890 76.7463
77.6589 5646 75.1399
77.7755 5309 72.8629
77.8921 5274 72.6223
78.0088 5180 71.9722
78.1256 5073 71.225
78.2423 5236 72.3602
78.3591 5256 72.4983
78.4759 5493 74.1148
78.5928 5624 74.9933
78.7097 5767 75.9408
78.8266 5673 75.3193
78.9436 6129 78.2879
79.0606 5871 76.6225
79.1776 6085 78.0064
79.2946 6017 77.5693
79.4117 5848 76.4722
79.5288 5903 76.831
79.6459 5870 76.6159
79.7631 5547 74.4782
79.8802 5035 70.9577
79.9974 4018 63.3877
80.1147 2909 53.9351
80.2319 2701 51.9711
80.3491 3372 58.0689
80.4664 4459 66.7757
80.5837 5321 72.9452
80.701 5551 74.505
80.8183 5553 74.5185
80.9357 5446 73.797
81.053 5630 75.0333
81.1704 5487 74.0743
81.2877 5280 72.6636
81.4051 5189 72.0347
81.5225 4822 69.4406
81.6399 4788 69.1954
81.7573 4714 68.6586
81.8747 4659 68.2569
81.9922 4802 69.2965
82.1096 5080 71.2741
82.227 5290 72.7324
82.3444 5319 72.9315
82.4619 5548 74.4849
82.5793 5490 74.0945
82.6967 5366 73.253
82.8142 5518 74.2832
82.9316 5420 73.6206
83.049 5485 74.0608
83.1664 5497 74.1418
83.2838 5251 72.4638
83.4012 5055 71.0985
83.5186 4578 67.6609
83.636 3602 60.0167
83.7534 2562 50.6162
83.8708 2431 49.3052
83.9881 2755 52.4881
84.1055 3705 60.8687
84.2228 4619 67.9632
84.3401 4957 70.406
84.4575 5071 71.211
84.5747 5187 72.0208
84.692 5077 71.2531
84.8093 5090 71.3442
84.9265 4951 70.3633
85.0437 4735 68.8113
85.1609 4689 68.4763
85.2781 4564 67.5574
85.3952 4584 67.7052
85.5123 4789 69.2026
85.6294 4984 70.5975
85.7465 5427 73.6682
85.8636 5376 73.3212
85.9806 5549 74.4916
86.0976 5733 75.7166
86.2145 5926 76.9805
86.3315 6154 78.4474
86.4484 5936 77.0454
86.5652 6081 77.9808
86.682 6125 78.2624
86.7988 6081 77.9808
86.9156 6009 77.5177
87.0323 5613 74.92
87.149 4905 70.0357
87.2657 3932 62.7057
87.3823 3278 57.2538
87.4988 3481 59
87.6154 4711 68.6367
87.7318 5785 76.0592
87.8483 6173 78.5684
87.9647 6194 78.702
88.081 6304 79.3977
88.1973 6561 81
88.3136 6464 80.399
88.4298 6183 78.6321
88.546 6087 78.0192
88.6621 5913 76.896
88.7781 5724 75.6571
88.8942 0 1
89.0101 0 1
89.126 0 1
89.2419 0 1
89.3577 0 1
89.4734 0 1
89.5891 0 1
89.7047 0 1
89.8203 0 1
89.9358 0 1
92.3269 0 1
92.4424 0 1
92.558 0 1
92.6736 0 1
92.7893 0 1
92.905 0 1
93.0208 0 1
93.1366 0 1
93.2525 0 1
93.3685 0 1
93.4845 0 1
93.6005 6763 82.2375
93.7167 6597 81.2219
93.8328 6679 81.7251
93.949 6269 79.177
94.0653 6166 78.5239
94.1816 6018 77.5758
94.2979 5941 77.0779
94.4143 5958 77.1881
94.5307 5969 77.2593
94.6472 6211 78.8099
94.7637 6405 80.0312
94.8803 6542 80.8826
94.9969 6750 82.1584
95.1135 6717 81.9573
95.2302 7095 84.2318
95.3469 7011 83.7317
95.4637 7133 84.4571
95.5805 7108 84.309
95.6973 7230 85.0294
95.8142 7193 84.8116
95.9311 6851 82.7708
96.048 6992 83.6182
96.1649 6179 78.6066
96.2819 5320 72.9383
96.3989 4536 67.3498
96.516 3924 62.6418
96.633 4183 64.6761
96.7501 4740 68.8477
96.8673 5789 76.0855
96.9844 6591 81.185
97.1016 6900 83.0662
97.2188 6969 83.4805
97.336 6909 83.1204
97.4532 6919 83.1805
97.5704 6694 81.8169
97.6877 6475 80.4674
97.805 6258 79.1075
97.9223 6008 77.5113
98.0396 5933 77.026
98.1569 6044 77.7432
98.2743 6203 78.7591
98.3916 6447 80.2932
98.509 6645 81.5169
98.6264 6972 83.4985
98.7438 6950 83.3667
98.8612 7140 84.4985
98.9786 7287 85.3639
99.096 7125 84.4097
99.2134 7333 85.6329
99.3308 7219 84.9647
99.4482 7272 85.276
99.5656 7033 83.863
99.6831 6837 82.6862
99.8005 6328 79.5487
99.9179 5414 73.5799
100.035 4629 68.0368
100.153 4552 67.4685
100.27 5240 72.3878
100.388 6183 78.6321
100.505 6787 82.3833
100.622 6838 82.6922
100.74 7143 84.5163
100.857 7303 85.4576
100.975 7168 84.664
101.092 7096 84.2378
101.209 6791 82.4075
101.327 6657 81.5904
101.444 6432 80.1998
101.561 6356 79.7245
101.679 6174 78.5748
101.796 6407 80.0437
101.913 6568 81.0432
102.03 6906 83.1023
102.148 7300 85.44
102.265 7009 83.7198
102.382 7564 86.9713
102.499 7758 88.0795
102.616 7610 87.2353
102.733 7709 87.8009
102.851 7658 87.51
102.968 7688 87.6812
103.085 7647 87.4471
103.202 7239 85.0823
103.319 6752 82.1706
103.436 6052 77.7946
103.552 5126 71.5961
103.669 5011 70.7884
103.786 5530 74.364
103.903 6639 81.4801
104.02 7259 85.1998
104.137 7579 87.0575
104.253 7774 88.1703
104.37 7805 88.3459
104.487 7742 87.9886
104.603 7620 87.2926
104.72 7291 85.3874
104.836 7245 85.1176
104.953 6837 82.6862
105.069 6912 83.1384
105.186 6862 82.8372
105.302 7150 84.5577
105.418 7527 86.7583
105.535 7705 87.7781
105.651 8012 89.5098
105.767 8232 90.7304
105.883 8473 92.0489
105.999 8498 92.1846
106.115 0 1
106.231 0 1
106.347 0 1
106.463 0 1
106.579 0 1
106.694 0 1
106.81 0 1
106.926 0 1
107.041 0 1
107.157 0 1
109.576 0 1
109.692 0 1
109.807 0 1
109.923 0 1
110.039 0 1
110.155 0 1
110.27 0 1
110.386 0 1
110.502 0 1
110.618 7784 88.227
110.735 7970 89.2749
110.851 8050 89.7218
110.967 8303 91.1208
111.083 8232 90.7304
111.199 8229 90.7138
111.316 8244 90.7965
111.432 8325 91.2414
111.549 8153 90.294
111.665 7919 88.9888
111.782 7226 85.0059
111.898 6519 80.7403
112.015 5817 76.2693
112.132 5525 74.3303
112.248 5972 77.2787
112.365 6949 83.3607
112.482 7140 84.4985
112.599 7862 88.6679
112.716 7702 87.761
112.832 7797 88.3006
112.949 7776 88.1816
113.066 7676 87.6128
113.183 7528 86.764
113.3 7329 85.6096
113.417 6929 83.2406
113.534 6747 82.1401
113.652 6871 82.8915
113.769 7050 83.9643
113.886 6942 83.3187
114.003 7310 85.4985
114.12 7577 87.046
114.238 7678 87.6242
114.355 7931 89.0562
114.472 7838 88.5325
114.589 7907 88.9213
114.707 8126 90.1443
114.824 8063 89.7942
114.942 7953 89.1796
115.059 8018 89.5433
115.176 7900 88.8819
115.294 7497 86.5852
115.411 6809 82.5167
115.529 6300 79.3725
115.646 5875 76.6485
115.764 6037 77.6981
115.881 6741 82.1036
115.999 7391 85.9709
116.116 7794 88.2836
116.234 7903 88.8988
116.351 7929 89.0449
116.469 8031 89.6158
116.586 7832 88.4986
116.704 7806 88.3516
116.821 7673 87.5957
116.939 7364 85.8138
117.056 7132 84.4512
117.174 6800 82.4621
117.291 7068 84.0714
117.409 7004 83.6899
117.526 7319 85.5512
117.644 7531 86.7813
117.761 7889 88.82
117.879 8113 90.0722
117.996 8156 90.3106
118.114 8272 90.9505
118.231 8074 89.8554
118.349 8241 90.78
118.466 8099 89.9944
118.584 8167 90.3715
118.701 7862 88.6679
118.819 7681 87.6413
118.936 7156 84.5931
119.053 6551 80.9382
119.171 6222 78.8797
119.288 6115 78.1985
119.405 6270 79.1833
119.523 6901 83.0723
119.64 7290 85.3815
119.757 7671 87.5842
119.875 7633 87.367
119.992 7840 88.5438
120.109 7727 87.9034
120.226 7664 87.5443
120.343 7582 87.0747
120.46 7560 86.9483
120.578 7270 85.2643
120.695 7037 83.8868
120.812 6957 83.4086
120.929 6830 82.6438
121.046 6769 82.2739
121.163 6995 83.6361
121.279 7508 86.6487
121.396 7587 87.1034
121.513 7683 87.6527
121.63 8029 89.6047
121.747 7797 88.3006
121.863 7918 88.9831
121.98 8225 90.6918
122.097 7888 88.8144
122.213 7986 89.3644
122.33 7809 88.3685
122.446 7597 87.1608
122.563 7168 84.664
122.679 6895 83.0361
122.795 6539 80.8641
122.912 6128 78.2815
123.028 6205 78.7718
123.144 6480 80.4984
123.26 6921 83.1925
123.377 0 1
123.493 0 1
123.609 0 1
123.725 0 1
123.84 0 1
123.956 0 1
124.072 0 1
124.188 0 1
124.303 0 1
124.419 0 1
126.852 0 1
126.968 0 1
127.083 0 1
127.199 0 1
127.315 0 1
127.431 0 1
127.547 0 1
127.663 0 1
127.779 0 1
127.895 0 1
128.011 0 1
128.127 0 1
128.243 0 1
128.359 7438 86.2438
128.476 7708 87.7952
128.592 8073 89.8499
128.708 8193 90.5152
128.825 8443 91.8858
128.941 8505 92.2226
129.058 8472 92.0435
129.174 8500 92.1954
129.291 8528 92.3472
129.408 8324 91.236
129.524 7772 88.1589
129.641 7737 87.9602
129.758 7429 86.1916
129.875 7381 85.9127
129.992 7454 86.3366
130.108 7733 87.9375
130.225 8070 89.8332
130.342 8375 91.515
130.459 8085 89.9166
130.576 8598 92.7254
130.693 8437 91.8531
130.81 8642 92.9624
130.928 8378 91.5314
131.045 8432 91.8259
131.162 8158 90.3216
131.279 8374 91.5096
131.396 7958 89.2076
131.513 7717 87.8465
131.631 7355 85.7613
131.748 7541 86.8389
131.865 7572 87.0172
131.983 8008 89.4874
132.1 8234 90.7414
132.217 8456 91.9565
132.335 8518 92.293
132.452 8582 92.6391
132.57 8500 92.1954
132.687 8422 91.7715
132.804 8594 92.7038
132.922 8317 91.1976
133.039 8046 89.6995
133.157 7620 87.2926
133.274 7579 87.0575
133.392 7504 86.6256
133.509 7602 87.1894
133.627 7376 85.8836
133.744 7933 89.0674
133.862 8265 90.912
133.979 8448 91.913
134.097 8454 91.9456
134.214 8218 90.6532
134.332 8702 93.2845
134.449 8270 90.9395
134.567 8072 89.8443
134.684 8286 91.0275
134.802 8168 90.377
134.919 8144 90.2441
135.037 7908 88.9269
135.154 7541 86.8389
135.272 7593 87.1378
135.389 7591 87.1263
135.507 7844 88.5664
135.624 8182 90.4544
135.742 8376 91.5205
135.859 8396 91.6297
135.977 8451 91.9293
136.094 8426 91.7932
136.211 8508 92.2388
136.329 8402 91.6624
136.446 8264 90.9065
136.564 8145 90.2497
136.681 7786 88.2383
136.798 7675 87.6071
136.915 7481 86.4928
137.033 7337 85.6563
137.15 7425 86.1684
137.267 7547 86.8735
137.384 7688 87.6812
137.502 7974 89.2973
137.619 8062 89.7886
137.736 8300 91.1043
137.853 8232 90.7304
137.97 8116 90.0888
138.087 8085 89.9166
138.204 8009 89.493
138.321 7797 88.3006
138.438 7950 89.1628
138.555 7950 89.1628
138.672 7879 88.7637
138.788 7762 88.1022
138.905 7714 87.8294
139.022 7928 89.0393
139.139 8026 89.5879
139.255 8284 91.0165
139.372 8153 90.294
139.488 8426 91.7932
139.605 8613 92.8062
139.721 8621 92.8493
139.838 8450 91.9239
139.954 8462 91.9891
140.071 8390 91.5969
140.187 8378 91.5314
140.303 8066 89.8109
140.419 7766 88.1249
140.535 7486 86.5217
140.652 7302 85.4517
140.768 0 1
140.884 0 1
141 0 1
141.115 0 1
141.231 0 1
141.347 0 1
141.463 0 1
141.578 0 1
141.694 0 1
144.104 0 1
144.219 0 1
144.335 0 1
144.45 0 1
144.566 0 1
144.682 0 1
144.798 0 1
144.914 0 1
145.03 0 1
145.146 5658 75.2197
145.262 6054 77.8075
145.378 6075 77.9423
145.494 5888 76.7333
145.61 5873 76.6355
145.726 5794 76.1183
145.842 5652 75.1798
145.959 5627 75.0133
146.075 5846 76.4591
146.192 5734 75.7232
146.308 6010 77.5242
146.425 6223 78.886
146.541 6154 78.4474
146.658 6172 78.5621
146.774 6178 78.6003
146.891 5838 76.4068
147.008 5738 75.7496
147.125 5848 76.4722
147.241 5958 77.1881
147.358 6137 78.339
147.475 6280 79.2465
147.592 6268 79.1707
147.709 6146 78.3964
147.826 6233 78.9494
147.943 6440 80.2496
148.06 6286 79.2843
148.177 6480 80.4984
148.294 6478 80.486
148.411 6714 81.939
148.528 6627 81.4064
148.645 6672 81.6823
148.762 6686 81.768
148.88 6617 81.3449
148.997 6737 82.0792
149.114 6477 80.4798
149.231 6505 80.6536
149.349 6301 79.3788
149.466 6317 79.4796
149.583 6144 78.3837
149.701 5950 77.1362
149.818 5858 76.5376
149.935 6009 77.5177
150.053 5941 77.0779
150.17 6269 79.177
150.287 6321 79.5047
150.405 6328 79.5487
150.522 6215 78.8353
150.64 6258 79.1075
150.757 6046 77.756
150.875 6170 78.5493
150.992 6164 78.5111
151.11 6384 79.8999
151.227 6417 80.1062
151.344 6581 81.1234
151.462 6426 80.1623
151.579 6679 81.7251
151.697 6923 83.2046
151.814 6737 82.0792
151.932 6963 83.4446
152.049 7004 83.6899
152.167 7095 84.2318
152.284 7006 83.7019
152.402 7118 84.3682
152.519 7084 84.1665
152.636 7009 83.7198
152.754 7116 84.3564
152.871 6979 83.5404
152.989 6727 82.0183
153.106 6473 80.455
153.223 6677 81.7129
153.341 6566 81.0309
153.458 6459 80.3679
153.575 6509 80.6784
153.693 6720 81.9756
153.81 6751 82.1645
153.927 6670 81.6701
154.044 6702 81.8657
154.162 6498 80.6102
154.279 6435 80.2185
154.396 6382 79.8874
154.513 6525 80.7775
154.63 7001 83.672
154.747 7231 85.0353
154.864 7288 85.3698
154.981 7388 85.9535
155.098 7360 85.7904
155.215 7477 86.4696
155.332 7447 86.296
155.449 7459 86.3655
155.566 7373 85.8662
155.683 7534 86.7986
155.8 7587 87.1034
155.917 7872 88.7243
156.033 7673 87.5957
156.15 0 1
156.267 0 1
156.383 0 1
156.5 0 1
156.617 0 1
156.733 0 1
156.85 0 1
156.966 0 1
157.082 0 1
157.199 0 1
157.315 0 1
157.431 0 1
157.547 0 1
157.664 0 1
157.78 0 1
157.896 0 1
158.012 0 1
158.128 0 1
158.244 0 1
158.359 0 1
158.475 0 1
158.591 0 1
158.706 0 1
