
6.15755 0 1
6.2731 0 1
6.3887 0 1
6.50437 0 1
6.62009 0 1
6.73587 0 1
6.8517 0 1
6.96759 0 1
7.08353 0 1
7.19952 0 1
7.31557 0 1
7.43166 0 1
7.54781 0 1
7.664 0 1
7.78024 0 1
7.89653 0 1
8.01286 0 1
8.12924 0 1
8.24567 0 1
8.36213 0 1
8.47864 0 1
8.59519 0 1
8.71178 0 1
8.82841 0 1
8.94508 0 1
9.06179 0 1
9.17853 0 1
9.29531 0 1
9.41212 0 1
9.52897 0 1
9.64584 0 1
9.76276 0 1
9.8797 0 1
9.99667 0 1
10.1137 0 1
10.2307 0 1
10.3478 0 1
10.4648 0 1
10.5819 0 1
10.6991 0 1
10.8162 0 1
10.9334 0 1
11.0506 0 1
11.1678 0 1
11.285 0 1
11.4023 0 1
11.5196 0 1
11.6369 0 1
11.7542 0 1
11.8715 0 1
11.9888 0 1
12.1062 0 1
12.2235 0 1
12.3409 0 1
12.4582 0 1
12.5756 0 1
12.693 0 1
12.8104 0 1
12.9278 0 1
13.0452 0 1
13.1626 0 1
13.28 0 1
13.3974 0 1
13.5149 0 1
13.6323 0 1
13.7497 0 1
13.8671 0 1
13.9845 0 1
14.1019 0 1
14.2193 0 1
14.3367 0 1
14.4541 0 1
14.5714 0 1
14.6888 0 1
14.8062 0 1
14.9235 0 1
15.0408 0 0
15.1581 0 0
15.2755 0 0
15.3927 0 0
15.51 0 0
15.6273 0 0
15.7445 0 0
15.8617 0 0
15.9789 0 0
16.0961 0 0
16.2132 0 0
16.3304 0 0
16.4475 0 0
16.5646 0 0
16.6816 0 0
16.7986 0 0
16.9156 0 0
17.0326 0 0
17.1496 0 0
17.2665 0 0
17.3833 0 0
17.5002 0 0
17.617 0 0
17.7338 0 0
17.8505 0 0
17.9672 0 0
18.0839 0 0
18.2005 0 0
18.3171 0 0
18.4337 0 0
18.5502 0 0
18.6666 0 0
18.7831 0 0
18.8994 0 0
19.0158 0 0
19.1321 0 0
19.2483 0 0
19.3645 0 0
19.4806 0 0
19.5967 0 0
19.7128 0 0
19.8288 0 0
19.9447 0 0
20.0606 0 1
20.1764 0 1
20.2922 0 1
20.4079 0 1
20.5236 0 1
20.6392 0 1
20.7548 0 1
20.8702 0 1
23.3078 0 1
23.4233 0 1
23.539 0 1
23.6547 0 1
23.7704 0 1
23.8862 0 1
24.0021 0 1
24.118 0 1
24.234 0 1
24.35 0 1
24.4661 29811 172.659
24.5822 30063 173.387
24.6984 30592 174.906
24.8146 30963 175.963
24.9309 31511 177.513
25.0472 32129 179.246
25.1636 32637 180.657
25.28 32950 181.521
25.3965 32679 180.773
25.513 32692 180.809
25.6296 32867 181.293
25.7462 32579 180.497
25.8628 31680 177.989
25.9795 31304 176.929
26.0962 30581 174.874
26.213 30110 173.522
26.3298 29021 170.356
26.4466 28251 168.08
26.5635 27586 166.09
26.6804 26747 163.545
26.7973 25744 160.449
26.9143 24340 156.013
27.0313 22910 151.36
27.1483 22870 151.228
27.2653 22541 150.137
27.3824 22027 148.415
27.4996 21711 147.347
27.6167 20419 142.895
27.7339 19575 139.911
27.8511 18555 136.217
27.9683 17813 133.465
28.0855 17381 131.837
28.2028 16798 129.607
28.3201 17072 130.66
28.4374 17246 131.324
28.5547 17377 131.822
28.6721 17917 133.854
28.7894 18138 134.677
28.9068 18411 135.687
29.0242 18375 135.554
29.1416 18682 136.682
29.259 18831 137.226
29.3764 18451 135.834
29.4939 18520 136.088
29.6113 18202 134.915
29.7288 18478 135.934
29.8463 18420 135.72
29.9638 18075 134.443
30.0812 17960 134.015
30.1987 18003 134.175
30.3162 17446 132.083
30.4337 17190 131.111
30.5512 16976 130.292
30.6687 16548 128.639
30.7862 16367 127.934
30.9037 16661 129.077
31.0212 16437 128.207
31.1387 16460 128.297
31.2562 15824 125.793
31.3737 15458 124.33
31.4912 14954 122.287
31.6087 14352 119.8
31.7262 14851 121.865
31.8436 14867 121.93
31.9611 15012 122.523
32.0785 15258 123.523
32.1959 15750 125.499
32.3134 16230 127.397
32.4308 16747 129.41
32.5482 16806 129.638
32.6655 16881 129.927
32.7829 17087 130.717
32.9002 17365 131.776
33.0176 17098 130.759
33.1349 17280 131.453
33.2522 17189 131.107
33.3694 17415 131.966
33.4867 17175 131.053
33.6039 17269 131.412
33.7211 17248 131.332
33.8383 17023 130.472
33.9554 17143 130.931
34.0725 16529 128.565
34.1896 16177 127.189
34.3067 16066 126.752
34.4237 15775 125.599
34.5407 15697 125.288
34.6577 15776 125.603
34.7746 15810 125.738
34.8915 15277 123.6
35.0084 14705 121.264
35.1252 13926 118.008
35.242 13860 117.729
35.3587 13719 117.128
35.4755 13636 116.773
35.5921 14021 118.41
35.7088 14430 120.125
35.8254 15187 123.236
35.9419 15507 124.527
36.0584 16120 126.965
36.1749 16428 128.172
36.2913 16677 129.139
36.4077 16671 129.116
36.524 16323 127.761
36.6403 16414 128.117
36.7565 16597 128.829
36.8727 16441 128.222
36.9889 16525 128.55
37.1049 16178 127.193
37.221 0 1
37.3369 0 1
37.4529 0 1
37.5687 0 1
37.6845 0 1
37.8003 0 1
37.916 0 1
38.0316 0 1
38.1472 0 1
40.5851 0 1
40.7008 0 1
40.8164 0 1
40.9322 0 1
41.048 0 1
41.1639 0 1
41.2798 0 1
41.3958 0 1
41.5118 0 1
41.6279 0 1
41.744 13146 114.656
41.8602 13698 117.038
41.9765 14004 118.338
42.0928 13941 118.072
42.2091 14067 118.604
42.3255 13840 117.644
42.4419 13913 117.953
42.5584 13956 118.136
42.675 13735 117.196
42.7915 13627 116.735
42.9081 13384 115.689
43.0248 13092 114.42
43.1415 12829 113.265
43.2582 12822 113.234
43.375 12567 112.103
43.4918 12687 112.637
43.6087 12169 110.313
43.7256 11712 108.222
43.8425 11236 106
43.9595 10610 103.005
44.0765 10229 101.139
44.1935 10479 102.367
44.3106 10474 102.343
44.4277 10775 103.803
44.5448 11114 105.423
44.6619 11244 106.038
44.7791 11370 106.63
44.8963 11601 107.708
45.0136 11367 106.616
45.1308 11421 106.869
45.2481 11134 105.518
45.3654 10783 103.841
45.4827 11116 105.432
45.6001 10770 103.779
45.7174 10715 103.513
45.8348 10647 103.184
45.9522 10695 103.417
46.0697 10387 101.917
46.1871 10278 101.38
46.3046 10256 101.272
46.422 9997 99.985
46.5395 10048 100.24
46.657 9556 97.7548
46.7745 9284 96.3535
46.892 9295 96.4106
47.0096 9088 95.331
47.1271 9180 95.8123
47.2446 8949 94.5992
47.3622 8545 92.4392
47.4797 7887 88.8088
47.5973 7712 87.818
47.7149 7407 86.0639
47.8324 7351 85.738
47.95 7603 87.1952
48.0675 7966 89.2525
48.1851 8171 90.3936
48.3027 8183 90.4599
48.4202 8383 91.5587
48.5378 8228 90.7083
48.6554 8474 92.0543
48.7729 8161 90.3383
48.8904 8185 90.471
49.008 8272 90.9505
49.1255 8209 90.6035
49.243 8127 90.1499
49.3605 8351 91.3838
49.478 8321 91.2195
49.5955 8423 91.7769
49.713 8347 91.3619
49.8304 8429 91.8096
49.9479 8605 92.7631
50.0653 8583 92.6445
50.1827 8335 91.2962
50.3001 8294 91.0714
50.4175 8272 90.9505
50.5348 8425 91.7878
50.6521 8466 92.0109
50.7694 8715 93.3542
50.8867 8723 93.397
51.004 8224 90.6863
51.1212 8166 90.3659
51.2384 8549 92.4608
51.3556 9017 94.9579
51.4727 9464 97.2831
51.5899 10050 100.25
51.707 10634 103.121
51.824 11061 105.171
51.9411 11208 105.868
52.0581 11563 107.531
52.175 11788 108.573
52.2919 11699 108.162
52.4088 12241 110.639
52.5257 12212 110.508
52.6425 12345 111.108
52.7593 12476 111.696
52.876 12602 112.259
52.9927 12646 112.454
53.1094 13044 114.21
53.226 13170 114.761
53.3426 13500 116.19
53.4591 13291 115.287
53.5756 13823 117.571
53.692 13741 117.222
53.8084 13558 116.439
53.9248 13195 114.869
54.0411 12749 112.911
54.1573 12967 113.873
54.2735 0 1
54.3896 0 1
54.5057 0 1
54.6217 0 1
54.7377 0 1
54.8537 0 1
54.9695 0 1
55.0853 0 1
55.2011 0 1
55.3168 0 1
55.4324 0 1
57.824 0 1
57.9396 0 1
58.0553 0 1
58.1711 0 1
58.2869 0 1
58.4028 0 1
58.5187 0 1
58.6347 0 1
58.7508 0 1
58.8669 0 1
58.983 15342 123.863
59.0992 15620 124.98
59.2155 15185 123.227
59.3318 14702 121.252
59.4482 14162 119.004
59.5646 14062 118.583
59.681 13498 116.181
59.7975 13526 116.301
59.9141 13767 117.333
60.0306 13956 118.136
60.1473 14429 120.121
60.2639 14828 121.77
60.3807 15195 123.268
60.4974 15134 123.02
60.6142 15090 122.841
60.731 15278 123.604
60.8479 14762 121.499
60.9648 15324 123.79
61.0818 14829 121.774
61.1987 14869 121.939
61.3158 14755 121.47
61.4328 14918 122.139
61.5499 14724 121.342
61.667 14695 121.223
61.7841 14403 120.012
61.9013 14339 119.746
62.0185 14431 120.129
62.1357 14299 119.578
62.253 14146 118.937
62.3702 14020 118.406
62.4875 14050 118.533
62.6049 13618 116.696
62.7222 13742 117.226
62.8396 13383 115.685
62.9569 12707 112.725
63.0743 12452 111.589
63.1918 11708 108.204
63.3092 11728 108.296
63.4267 12040 109.727
63.5441 12455 111.602
63.6616 13276 115.222
63.7791 13219 114.974
63.8966 13394 115.732
64.0142 13409 115.797
64.1317 13571 116.495
64.2492 13404 115.776
64.3668 13286 115.265
64.4843 13367 115.616
64.6019 13279 115.235
64.7195 13260 115.152
64.837 13058 114.272
64.9546 12911 113.627
65.0722 12826 113.252
65.1898 12807 113.168
65.3074 13154 114.691
65.4249 12865 113.424
65.5425 12859 113.398
65.6601 12857 113.389
65.7777 12802 113.146
65.8952 13002 114.026
66.0128 12577 112.147
66.1304 12498 111.794
66.2479 12363 111.189
66.3655 12232 110.598
66.483 11843 108.826
66.6005 11289 106.25
66.718 10920 104.499
66.8355 10441 102.181
66.953 10448 102.215
67.0705 11195 105.806
67.1879 11749 108.393
67.3054 12320 110.995
67.4228 12586 112.187
67.5402 12646 112.454
67.6576 12458 111.615
67.7749 12613 112.308
67.8923 12337 111.072
68.0096 12575 112.138
68.1269 12633 112.397
68.2442 12626 112.365
68.3614 12596 112.232
68.4787 12572 112.125
68.5958 12581 112.165
68.713 12785 113.071
68.8302 12838 113.305
68.9473 12704 112.712
69.0643 12694 112.668
69.1814 12742 112.88
69.2984 12758 112.951
69.4154 12784 113.066
69.5323 12705 112.716
69.6492 12955 113.82
69.7661 12765 112.982
69.8829 13076 114.35
69.9997 12438 111.526
70.1165 12321 111
70.2332 11864 108.922
70.3499 11346 106.518
70.4665 10632 103.112
70.5831 10777 103.812
70.6996 11435 106.935
70.8161 12210 110.499
70.9326 12374 111.238
71.049 12901 113.583
71.1653 12839 113.309
71.2817 12673 112.574
71.3979 12786 113.075
71.5141 12259 110.72
71.6303 12279 110.811
71.7464 11036 105.052
71.8624 0 1
71.9784 0 1
72.0944 0 1
72.2102 0 1
72.3261 0 1
72.4418 0 1
72.5575 0 1
72.6732 0 1
75.1054 0 1
75.2209 0 1
75.3365 0 1
75.4521 0 1
75.5678 0 1
75.6835 0 1
75.7993 0 1
75.9151 0 1
76.031 0 1
76.147 10913 104.465
76.263 11966 109.389
76.3791 12247 110.666
76.4952 12181 110.368
76.6113 12087 109.941
76.7276 12078 109.9
76.8438 12178 110.354
76.9601 11990 109.499
77.0765 11992 109.508
77.1929 12023 109.649
77.3093 12001 109.549
77.4258 12049 109.768
77.5423 11963 109.375
77.6589 11931 109.229
77.7755 11729 108.301
77.8921 11630 107.842
78.0088 11637 107.875
78.1256 11748 108.388
78.2423 11653 107.949
78.3591 11470 107.098
78.4759 11329 106.438
78.5928 11304 106.32
78.7097 11581 107.615
78.8266 11210 105.877
78.9436 11537 107.41
79.0606 11028 105.014
79.1776 10172 100.856
79.2946 9408 96.9948
79.4117 9084 95.31
79.5288 9195 95.8906
79.6459 10037 100.185
79.7631 10472 102.333
79.8802 10524 102.587
79.9974 10601 102.961
80.1147 10375 101.858
80.2319 10341 101.691
80.3491 10289 101.435
80.4664 10129 100.643
80.5837 10128 100.638
80.701 10200 100.995
80.8183 9948 99.7397
80.9357 9822 99.106
81.053 10025 100.125
81.1704 9859 99.2925
81.2877 9864 99.3177
81.4051 9649 98.2293
81.5225 9881 99.4032
81.6399 9341 96.6488
81.7573 9427 97.0927
81.8747 9383 96.8659
81.9922 9258 96.2185
82.1096 9326 96.5712
82.227 9236 96.1041
82.3444 9071 95.2418
82.4619 9058 95.1735
82.5793 9085 95.3153
82.6967 8835 93.9947
82.8142 8579 92.6229
82.9316 7575 87.0345
83.049 6259 79.1138
83.1664 6530 80.8084
83.2838 7695 87.7211
83.4012 8213 90.6256
83.5186 8277 90.978
83.636 8184 90.4655
83.7534 7899 88.8763
83.8708 7990 89.3868
83.9881 7882 88.7806
84.1055 7678 87.6242
84.2228 7720 87.8635
84.3401 7778 88.193
84.4575 7524 86.741
84.5747 7646 87.4414
84.692 7472 86.4407
84.8093 7562 86.9598
84.9265 7387 85.9477
85.0437 7393 85.9826
85.1609 7412 86.093
85.2781 7324 85.5804
85.3952 7380 85.9069
85.5123 7308 85.4868
85.6294 7255 85.1763
85.7465 7375 85.8778
85.8636 7447 86.296
85.9806 7480 86.487
86.0976 7229 85.0235
86.2145 7541 86.8389
86.3315 7252 85.1587
86.4484 7109 84.3149
86.5652 6315 79.467
86.682 5972 77.2787
86.7988 6700 81.8535
86.9156 6843 82.7224
87.0323 6857 82.807
87.149 6569 81.0494
87.2657 6713 81.9329
87.3823 6489 80.5543
87.4988 6429 80.181
87.6154 6140 78.3582
87.7318 6019 77.5822
87.8483 5838 76.4068
87.9647 5864 76.5768
88.081 5834 76.3806
88.1973 5715 75.5976
88.3136 5580 74.6994
88.4298 5188 72.0278
88.546 5050 71.0634
88.6621 4860 69.7137
88.7781 4699 68.5493
88.8942 0 1
89.0101 0 1
89.126 0 1
89.2419 0 1
89.3577 0 1
89.4734 0 1
89.5891 0 1
89.7047 0 1
89.8203 0 1
89.9358 0 1
92.3269 0 1
92.4424 0 1
92.558 0 1
92.6736 0 1
92.7893 0 1
92.905 0 1
93.0208 0 1
93.1366 0 1
93.2525 0 1
93.3685 0 1
93.4845 0 1
93.6005 3977 63.0635
93.7167 4287 65.4752
93.8328 4331 65.8103
93.949 4261 65.2763
94.0653 4602 67.838
94.1816 4625 68.0074
94.2979 4601 67.8307
94.4143 4685 68.4471
94.5307 4896 69.9714
94.6472 5031 70.9295
94.7637 4873 69.8069
94.8803 5101 71.4213
94.9969 5218 72.2357
95.1135 5307 72.8492
95.2302 5194 72.0694
95.3469 5317 72.9178
95.4637 5335 73.0411
95.5805 4982 70.5833
95.6973 4522 67.2458
95.8142 4222 64.9769
95.9311 4769 69.0579
96.048 5336 73.0479
96.1649 5503 74.1822
96.2819 5514 74.2563
96.3989 5589 74.7596
96.516 5575 74.6659
96.633 5548 74.4849
96.7501 5809 76.2168
96.8673 5555 74.5319
96.9844 5769 75.9539
97.1016 5916 76.9155
97.2188 6046 77.756
97.336 6137 78.339
97.4532 6302 79.3851
97.5704 6286 79.2843
97.6877 6398 79.9875
97.805 6499 80.6164
97.9223 6484 80.5233
98.0396 6734 82.061
98.1569 6790 82.4015
98.2743 6760 82.2192
98.3916 6911 83.1324
98.509 7065 84.0536
98.6264 7162 84.6286
98.7438 7203 84.8705
98.8612 7322 85.5687
98.9786 7484 86.5101
99.096 7424 86.1626
99.2134 7069 84.0773
99.3308 7121 84.386
99.4482 7376 85.8836
99.5656 7810 88.3742
99.6831 8013 89.5154
99.8005 8248 90.8185
99.9179 8332 91.2798
100.035 8285 91.022
100.153 8385 91.5696
100.27 8563 92.5365
100.388 8566 92.5527
100.505 8628 92.887
100.622 8879 94.2284
100.74 8744 93.5094
100.857 9039 95.0737
100.975 9280 96.3328
101.092 9346 96.6747
101.209 9460 97.2625
101.327 9525 97.5961
101.444 9302 96.4469
101.561 9622 98.0918
101.679 9684 98.4073
101.796 9677 98.3717
101.913 9693 98.453
102.03 9652 98.2446
102.148 9768 98.8332
102.265 10505 102.494
102.382 9317 96.5246
102.499 9933 99.6644
102.616 9835 99.1716
102.733 9286 96.3639
102.851 8692 93.2309
102.968 8985 94.7892
103.085 9217 96.0052
103.202 9579 97.8724
103.319 9976 99.8799
103.436 9780 98.8939
103.552 9731 98.6458
103.669 9670 98.3362
103.786 9510 97.5192
103.903 9332 96.6023
104.02 9423 97.0721
104.137 9202 95.9271
104.253 9377 96.8349
104.37 8978 94.7523
104.487 9499 97.4628
104.603 9435 97.1339
104.72 9175 95.7862
104.836 9041 95.0842
104.953 9220 96.0208
105.069 9163 95.7236
105.186 8853 94.0904
105.302 8770 93.6483
105.418 8803 93.8243
105.535 8437 91.8531
105.651 8714 93.3488
105.767 8328 91.2579
105.883 8559 92.5149
105.999 8491 92.1466
106.115 0 1
106.231 0 1
106.347 0 1
106.463 0 1
106.579 0 1
106.694 0 1
106.81 0 1
106.926 0 1
107.041 0 1
107.157 0 1
109.576 0 1
109.692 0 1
109.807 0 1
109.923 0 1
110.039 0 1
110.155 0 1
110.27 0 1
110.386 0 1
110.502 0 1
110.618 4998 70.6965
110.735 4981 70.5762
110.851 5077 71.2531
110.967 5023 70.8731
111.083 4947 70.3349
111.199 4908 70.0571
111.316 4867 69.7639
111.432 4703 68.5784
111.549 4170 64.5755
111.665 3743 61.1801
111.782 3936 62.7375
111.898 4256 65.238
112.015 4355 65.9924
112.132 4248 65.1767
112.248 4162 64.5136
112.365 4104 64.0625
112.482 3913 62.554
112.599 3957 62.9047
112.716 3959 62.9206
112.832 3990 63.1664
112.949 3874 62.2415
113.066 3783 61.5061
113.183 3800 61.6441
113.3 3857 62.1048
113.417 3741 61.1637
113.534 3816 61.7738
113.652 3709 60.9016
113.769 3891 62.3779
113.886 3807 61.7009
114.003 3804 61.6766
114.12 3887 62.3458
114.238 3970 63.0079
114.355 3822 61.8223
114.472 3759 61.3107
114.589 3130 55.9464
114.707 3308 57.5152
114.824 3885 62.3298
114.942 4208 64.8691
115.059 4180 64.6529
115.176 3974 63.0397
115.294 3419 58.4722
115.411 3604 60.0333
115.529 3986 63.1348
115.646 4074 63.8279
115.764 3992 63.1823
115.881 3941 62.7774
115.999 3978 63.0714
116.116 3905 62.49
116.234 4079 63.867
116.351 4047 63.616
116.469 4124 64.2184
116.586 4052 63.6553
116.704 4166 64.5446
116.821 3981 63.0952
116.939 4126 64.2339
117.056 4286 65.4675
117.174 4425 66.5207
117.291 4401 66.34
117.409 4377 66.1589
117.526 4376 66.1513
117.644 4546 67.424
117.761 4670 68.3374
117.879 4638 68.1029
117.996 4193 64.7534
118.114 3728 61.0574
118.231 3385 58.1808
118.349 3444 58.6856
118.466 4253 65.215
118.584 4776 69.1086
118.701 4997 70.6895
118.819 4934 70.2424
118.936 4786 69.1809
119.053 4676 68.3813
119.171 4830 69.4982
119.288 4923 70.1641
119.405 4844 69.5989
119.523 4951 70.3633
119.64 4994 70.6682
119.757 5043 71.0141
119.875 5047 71.0422
119.992 5003 70.7319
120.109 5011 70.7884
120.226 5083 71.2952
120.343 5036 70.9648
120.46 5259 72.519
120.578 5207 72.1595
120.695 5396 73.4575
120.812 5337 73.0548
120.929 5602 74.8465
121.046 5625 75
121.163 5730 75.6968
121.279 5666 75.2728
121.396 5747 75.809
121.513 5658 75.2197
121.63 5335 73.0411
121.747 4800 69.282
121.863 4382 66.1967
121.98 4044 63.5925
122.097 4337 65.8559
122.213 5188 72.0278
122.33 5906 76.8505
122.446 6103 78.1217
122.563 6128 78.2815
122.679 6332 79.5739
122.795 6159 78.4793
122.912 5969 77.2593
123.028 6197 78.721
123.144 6267 79.1644
123.26 6166 78.5239
123.377 0 1
123.493 0 1
123.609 0 1
123.725 0 1
123.84 0 1
123.956 0 1
124.072 0 1
124.188 0 1
124.303 0 1
124.419 0 1
126.852 0 1
126.968 0 1
127.083 0 1
127.199 0 1
127.315 0 1
127.431 0 1
127.547 0 1
127.663 0 1
127.779 0 1
127.895 0 1
128.011 0 1
128.127 0 1
128.243 0 1
128.359 8502 92.2063
128.476 8637 92.9355
128.592 8867 94.1647
128.708 8683 93.1826
128.825 8987 94.7998
128.941 8844 94.0425
129.058 9011 94.9263
129.174 8998 94.8578
129.291 9052 95.142
129.408 9153 95.6713
129.524 9227 96.0573
129.641 9383 96.8659
129.758 9330 96.5919
129.875 9599 97.9745
129.992 9377 96.8349
130.108 9572 97.8366
130.225 9421 97.0618
130.342 9181 95.8175
130.459 8598 92.7254
130.576 8385 91.5696
130.693 7784 88.227
130.81 7485 86.5159
130.928 7187 84.7762
131.045 7633 87.367
131.162 8362 91.444
131.279 9506 97.4987
131.396 9979 99.8949
131.513 10281 101.395
131.631 10441 102.181
131.748 10611 103.01
131.865 10530 102.616
131.983 10568 102.801
132.1 10403 101.995
132.217 10391 101.936
132.335 10281 101.395
132.452 10527 102.601
132.57 10568 102.801
132.687 10268 101.331
132.804 10779 103.822
132.922 10538 102.655
133.039 10590 102.908
133.157 10776 103.808
133.274 10768 103.769
133.392 10853 104.178
133.509 10859 104.207
133.627 11010 104.929
133.744 10769 103.774
133.862 10396 101.961
133.979 10185 100.921
134.097 9595 97.9541
134.214 9274 96.3016
134.332 8844 94.0425
134.449 8673 93.1289
134.567 8865 94.1541
134.684 9455 97.2368
134.802 10026 100.13
134.919 10969 104.733
135.037 11311 106.353
135.154 11559 107.513
135.272 11520 107.331
135.389 11743 108.365
135.507 11604 107.722
135.624 11945 109.293
135.742 11817 108.706
135.859 11742 108.361
135.977 11671 108.032
136.094 11944 109.289
136.211 11626 107.824
136.329 11808 108.665
136.446 11780 108.536
136.564 11706 108.194
136.681 11878 108.986
136.798 11742 108.361
136.915 11825 108.743
137.033 11858 108.894
137.15 11928 109.215
137.267 11954 109.334
137.384 11667 108.014
137.502 11498 107.229
137.619 10756 103.711
137.736 10505 102.494
137.853 9977 99.8849
137.97 10102 100.509
138.087 9591 97.9337
138.204 10152 100.757
138.321 10756 103.711
138.438 11175 105.712
138.555 11891 109.046
138.672 12229 110.585
138.788 12710 112.739
138.905 12862 113.411
139.022 13093 114.425
139.139 12921 113.671
139.255 12771 113.009
139.372 12956 113.824
139.488 13071 114.328
139.605 13112 114.508
139.721 12998 114.009
139.838 12987 113.961
139.954 12935 113.732
140.071 12772 113.013
140.187 13153 114.687
140.303 12995 113.996
140.419 13124 114.56
140.535 12967 113.873
140.652 12627 112.37
140.768 0 1
140.884 0 1
141 0 1
141.115 0 1
141.231 0 1
141.347 0 1
141.463 0 1
141.578 0 1
141.694 0 1
144.104 0 1
144.219 0 1
144.335 0 1
144.45 0 1
144.566 0 1
144.682 0 1
144.798 0 1
144.914 0 1
145.03 0 1
145.146 11850 108.858
145.262 12044 109.745
145.378 11928 109.215
145.494 12047 109.759
145.61 12241 110.639
145.726 12066 109.845
145.842 11791 108.586
145.959 11651 107.94
146.075 11239 106.014
146.192 10888 104.346
146.308 10628 103.092
146.425 10261 101.297
146.541 9919 99.5942
146.658 9911 99.554
146.774 9902 99.5088
146.891 10253 101.257
147.008 10647 103.184
147.125 11326 106.424
147.241 11555 107.494
147.358 11609 107.745
147.475 12192 110.417
147.592 12124 110.109
147.709 12423 111.459
147.826 12584 112.178
147.943 12496 111.786
148.06 12387 111.297
148.177 12493 111.772
148.294 12314 110.968
148.411 12226 110.571
148.528 12195 110.431
148.645 12182 110.372
148.762 12215 110.521
148.88 12199 110.449
148.997 11900 109.087
149.114 12651 112.477
149.231 12376 111.247
149.349 12380 111.265
149.466 11958 109.353
149.583 11953 109.33
149.701 11409 106.813
149.818 11076 105.243
149.935 10528 102.606
150.053 10405 102.005
150.17 10309 101.533
150.287 10119 100.593
150.405 10198 100.985
150.522 10532 102.626
150.64 10710 103.489
150.757 11507 107.271
150.875 11774 108.508
150.992 11734 108.324
151.11 11659 107.977
151.227 12124 110.109
151.344 12247 110.666
151.462 12305 110.928
151.579 12797 113.124
151.697 12498 111.794
151.814 12402 111.364
151.932 12611 112.299
152.049 12433 111.503
152.167 12354 111.149
152.284 12459 111.62
152.402 12528 111.929
152.519 12391 111.315
152.636 12610 112.294
152.754 12352 111.14
152.871 12363 111.189
152.989 12388 111.301
153.106 12289 110.856
153.223 11701 108.171
153.341 11238 106.009
153.458 11047 105.105
153.575 10604 102.976
153.693 10536 102.645
153.81 10487 102.406
153.927 10417 102.064
154.044 10582 102.869
154.162 10801 103.928
154.279 11424 106.883
154.396 11913 109.147
154.513 12066 109.845
154.63 12137 110.168
154.747 12399 111.351
154.864 12419 111.441
154.981 12757 112.947
155.098 12782 113.058
155.215 12773 113.018
155.332 13033 114.162
155.449 12914 113.64
155.566 12771 113.009
155.683 12779 113.044
155.8 12711 112.743
155.917 12630 112.383
156.033 12686 112.632
156.15 0 1
156.267 0 1
156.383 0 1
156.5 0 1
156.617 0 1
156.733 0 1
156.85 0 1
156.966 0 1
157.082 0 1
157.199 0 1
157.315 0 1
157.431 0 1
157.547 0 1
157.664 0 1
157.78 0 1
157.896 0 1
158.012 0 1
158.128 0 1
158.244 0 1
158.359 0 1
158.475 0 1
158.591 0 1
158.706 0 1
