
6.15755 0 1
6.2731 0 1
6.3887 0 1
6.50437 0 1
6.62009 0 1
6.73587 0 1
6.8517 0 1
6.96759 0 1
7.08353 0 1
7.19952 0 1
7.31557 0 1
7.43166 0 1
7.54781 0 1
7.664 0 1
7.78024 0 1
7.89653 0 1
8.01286 0 1
8.12924 0 1
8.24567 0 1
8.36213 0 1
8.47864 0 1
8.59519 0 1
8.71178 0 1
8.82841 0 1
8.94508 0 1
9.06179 0 1
9.17853 0 1
9.29531 0 1
9.41212 0 1
9.52897 0 1
9.64584 0 1
9.76276 0 1
9.8797 0 1
9.99667 0 1
10.1137 0 1
10.2307 0 1
10.3478 0 1
10.4648 0 1
10.5819 0 1
10.6991 0 1
10.8162 0 1
10.9334 0 1
11.0506 0 1
11.1678 0 1
11.285 0 1
11.4023 0 1
11.5196 0 1
11.6369 0 1
11.7542 0 1
11.8715 0 1
11.9888 0 1
12.1062 0 1
12.2235 0 1
12.3409 0 1
12.4582 0 1
12.5756 0 1
12.693 0 1
12.8104 0 1
12.9278 0 1
13.0452 0 1
13.1626 0 1
13.28 0 1
13.3974 0 1
13.5149 0 1
13.6323 0 1
13.7497 0 1
13.8671 0 1
13.9845 0 1
14.1019 0 1
14.2193 0 1
14.3367 0 1
14.4541 0 1
14.5714 0 1
14.6888 0 1
14.8062 0 1
14.9235 0 1
15.0408 0 0
15.1581 0 0
15.2755 0 0
15.3927 0 0
15.51 0 0
15.6273 0 0
15.7445 0 0
15.8617 0 0
15.9789 0 0
16.0961 0 0
16.2132 0 0
16.3304 0 0
16.4475 0 0
16.5646 0 0
16.6816 0 0
16.7986 0 0
16.9156 0 0
17.0326 0 0
17.1496 0 0
17.2665 0 0
17.3833 0 0
17.5002 0 0
17.617 0 0
17.7338 0 0
17.8505 0 0
17.9672 0 0
18.0839 0 0
18.2005 0 0
18.3171 0 0
18.4337 0 0
18.5502 0 0
18.6666 0 0
18.7831 0 0
18.8994 0 0
19.0158 0 0
19.1321 0 0
19.2483 0 0
19.3645 0 0
19.4806 0 0
19.5967 0 0
19.7128 0 0
19.8288 0 0
19.9447 0 0
20.0606 0 1
20.1764 0 1
20.2922 0 1
20.4079 0 1
20.5236 0 1
20.6392 0 1
20.7548 0 1
20.8702 0 1
23.3078 0 1
23.4233 0 1
23.539 0 1
23.6547 0 1
23.7704 0 1
23.8862 0 1
24.0021 0 1
24.118 0 1
24.234 0 1
24.35 0 1
24.4661 5677 75.3459
24.5822 5841 76.4264
24.6984 6101 78.1089
24.8146 6130 78.2943
24.9309 6239 78.9873
25.0472 6184 78.6384
25.1636 6305 79.404
25.28 6437 80.2309
25.3965 6700 81.8535
25.513 6460 80.3741
25.6296 6390 79.9375
25.7462 6180 78.613
25.8628 6298 79.3599
25.9795 6314 79.4607
26.0962 6033 77.6724
26.213 6003 77.479
26.3298 5903 76.831
26.4466 5787 76.0723
26.5635 5785 76.0592
26.6804 5809 76.2168
26.7973 5600 74.8331
26.9143 5669 75.2928
27.0313 5365 73.2462
27.1483 4996 70.6824
27.2653 4941 70.2922
27.3824 5060 71.1337
27.4996 5099 71.4073
27.6167 5397 73.4643
27.7339 5589 74.7596
27.8511 5878 76.6681
27.9683 6079 77.9679
28.0855 6106 78.1409
28.2028 6217 78.848
28.3201 6063 77.8653
28.4374 6150 78.4219
28.5547 6032 77.666
28.6721 6107 78.1473
28.7894 5983 77.3499
28.9068 5900 76.8115
29.0242 5718 75.6175
29.1416 5601 74.8398
29.259 5600 74.8331
29.3764 5721 75.6373
29.4939 5640 75.0999
29.6113 5569 74.6257
29.7288 5510 74.2294
29.8463 5546 74.4715
29.9638 5673 75.3193
30.0812 5750 75.8288
30.1987 5719 75.6241
30.3162 5682 75.379
30.4337 5627 75.0133
30.5512 5591 74.773
30.6687 5285 72.698
30.7862 5072 71.218
30.9037 5073 71.225
31.0212 5571 74.6391
31.1387 5640 75.0999
31.2562 6108 78.1537
31.3737 6254 79.0822
31.4912 6265 79.1518
31.6087 6311 79.4418
31.7262 6119 78.224
31.8436 6205 78.7718
31.9611 6104 78.1281
32.0785 5996 77.4338
32.1959 5732 75.71
32.3134 5717 75.6108
32.4308 5594 74.793
32.5482 5478 74.0135
32.6655 5486 74.0675
32.7829 5289 72.7255
32.9002 5419 73.6139
33.0176 5351 73.1505
33.1349 5194 72.0694
33.2522 5311 72.8766
33.3694 5213 72.2011
33.4867 5243 72.4086
33.6039 5405 73.5187
33.7211 5620 74.9667
33.8383 5584 74.7262
33.9554 5745 75.7958
34.0725 5800 76.1577
34.1896 5674 75.326
34.3067 5320 72.9383
34.4237 5155 71.7983
34.5407 4915 70.1071
34.6577 5090 71.3442
34.7746 5424 73.6478
34.8915 5592 74.7797
35.0084 5571 74.6391
35.1252 5536 74.4043
35.242 5655 75.1997
35.3587 5797 76.138
35.4755 5487 74.0743
35.5921 5527 74.3438
35.7088 5532 74.3774
35.8254 5343 73.0958
35.9419 5369 73.2735
36.0584 5298 72.7874
36.1749 5411 73.5595
36.2913 5409 73.5459
36.4077 5386 73.3894
36.524 5271 72.6017
36.6403 5230 72.3187
36.7565 5233 72.3395
36.8727 5089 71.3372
36.9889 5196 72.0833
37.1049 5064 71.1618
37.221 0 1
37.3369 0 1
37.4529 0 1
37.5687 0 1
37.6845 0 1
37.8003 0 1
37.916 0 1
38.0316 0 1
38.1472 0 1
40.5851 0 1
40.7008 0 1
40.8164 0 1
40.9322 0 1
41.048 0 1
41.1639 0 1
41.2798 0 1
41.3958 0 1
41.5118 0 1
41.6279 0 1
41.744 4466 66.8281
41.8602 4695 68.5201
41.9765 4718 68.6877
42.0928 4716 68.6731
42.2091 4825 69.4622
42.3255 4714 68.6586
42.4419 4847 69.6204
42.5584 4614 67.9264
42.675 4693 68.5055
42.7915 4686 68.4544
42.9081 4521 67.2384
43.0248 4342 65.8939
43.1415 4026 63.4508
43.2582 3810 61.7252
43.375 3753 61.2617
43.4918 3974 63.0397
43.6087 4067 63.773
43.7256 4239 65.1076
43.8425 4325 65.7647
43.9595 4396 66.3023
44.0765 4486 66.9776
44.1935 4397 66.3099
44.3106 4269 65.3376
44.4277 4262 65.284
44.5448 4259 65.261
44.6619 4210 64.8845
44.7791 4224 64.9923
44.8963 4195 64.7688
45.0136 4270 65.3452
45.1308 4190 64.7302
45.2481 4336 65.8483
45.3654 4225 65
45.4827 4180 64.6529
45.6001 4045 63.6003
45.7174 4018 63.3877
45.8348 3927 62.6658
45.9522 3904 62.482
46.0697 3772 61.4166
46.1871 3813 61.7495
46.3046 3664 60.531
46.422 3546 59.5483
46.5395 3508 59.2284
46.657 3338 57.7754
46.7745 2961 54.4151
46.892 2994 54.7175
47.0096 2971 54.5069
47.1271 2984 54.626
47.2446 3153 56.1516
47.3622 3159 56.205
47.4797 3083 55.5248
47.5973 3159 56.205
47.7149 3187 56.4535
47.8324 3073 55.4346
47.95 3144 56.0714
48.0675 3187 56.4535
48.1851 2975 54.5436
48.3027 3078 55.4797
48.4202 3060 55.3173
48.5378 3075 55.4527
48.6554 3210 56.6569
48.7729 3121 55.8659
48.8904 3066 55.3715
49.008 3300 57.4456
49.1255 3073 55.4346
49.243 3229 56.8243
49.3605 3235 56.8771
49.478 3291 57.3672
49.5955 3256 57.0614
49.713 3297 57.4195
49.8304 3154 56.1605
49.9479 3452 58.7537
50.0653 3428 58.5491
50.1827 3254 57.0438
50.3001 2863 53.507
50.4175 2686 51.8266
50.5348 2717 52.1249
50.6521 3021 54.9636
50.7694 3514 59.279
50.8867 3573 59.7746
51.004 3731 61.0819
51.1212 3979 63.0793
51.2384 3885 62.3298
51.3556 4051 63.6475
51.4727 4115 64.1483
51.5899 4139 64.3351
51.707 4174 64.6065
51.824 4117 64.1639
51.9411 4194 64.7611
52.0581 4323 65.7495
52.175 4430 66.5582
52.2919 4365 66.0681
52.4088 4326 65.7723
52.5257 4581 67.6831
52.6425 4497 67.0597
52.7593 4541 67.3869
52.876 4508 67.1416
52.9927 4379 66.174
53.1094 4465 66.8207
53.226 4477 66.9104
53.3426 4751 68.9275
53.4591 4667 68.3154
53.5756 4424 66.5132
53.692 4599 67.8159
53.8084 4274 65.3758
53.9248 4065 63.7574
54.0411 3873 62.2334
54.1573 3640 60.3324
54.2735 0 1
54.3896 0 1
54.5057 0 1
54.6217 0 1
54.7377 0 1
54.8537 0 1
54.9695 0 1
55.0853 0 1
55.2011 0 1
55.3168 0 1
55.4324 0 1
57.824 0 1
57.9396 0 1
58.0553 0 1
58.1711 0 1
58.2869 0 1
58.4028 0 1
58.5187 0 1
58.6347 0 1
58.7508 0 1
58.8669 0 1
58.983 4931 70.2211
59.0992 4740 68.8477
59.2155 4479 66.9253
59.3318 4553 67.4759
59.4482 4717 68.6804
59.5646 4945 70.3207
59.681 5263 72.5465
59.7975 5507 74.2092
59.9141 5558 74.552
60.0306 5545 74.4648
60.1473 5609 74.8933
60.2639 5534 74.3909
60.3807 5465 73.9256
60.4974 5603 74.8532
60.6142 5639 75.0933
60.731 5540 74.4312
60.8479 5642 75.1132
60.9648 5683 75.3857
61.0818 5535 74.3976
61.1987 5482 74.0405
61.3158 5639 75.0933
61.4328 5576 74.6726
61.5499 5533 74.3841
61.667 5600 74.8331
61.7841 5366 73.253
61.9013 5420 73.6206
62.0185 5448 73.8106
62.1357 5214 72.208
62.253 5191 72.0486
62.3702 5102 71.4283
62.4875 4917 70.1213
62.6049 4489 67
62.7222 4441 66.6408
62.8396 4568 67.587
62.9569 4775 69.1014
63.0743 5062 71.1477
63.1918 5156 71.8053
63.3092 5087 71.3232
63.4267 5291 72.7393
63.5441 5349 73.1369
63.6616 5350 73.1437
63.7791 5316 72.9109
63.8966 5328 72.9932
64.0142 5373 73.3008
64.1317 5366 73.253
64.2492 5386 73.3894
64.3668 5425 73.6546
64.4843 5286 72.7049
64.6019 5322 72.952
64.7195 5395 73.4507
64.837 5194 72.0694
64.9546 5306 72.8423
65.0722 5269 72.5879
65.1898 5054 71.0915
65.3074 5382 73.3621
65.4249 5228 72.3049
65.5425 5225 72.2842
65.6601 5147 71.7426
65.7777 5006 70.7531
65.8952 5042 71.007
66.0128 4917 70.1213
66.1304 4582 67.6905
66.2479 4242 65.1306
66.3655 4292 65.5134
66.483 4362 66.0454
66.6005 4762 69.0072
66.718 4790 69.2098
66.8355 4959 70.4202
66.953 5126 71.5961
67.0705 5199 72.1041
67.1879 5116 71.5262
67.3054 5235 72.3533
67.4228 4989 70.6329
67.5402 5156 71.8053
67.6576 5284 72.6911
67.7749 5128 71.6101
67.8923 5291 72.7393
68.0096 5241 72.3948
68.1269 5260 72.5259
68.2442 5253 72.4776
68.3614 5220 72.2496
68.4787 5223 72.2703
68.5958 5219 72.2426
68.713 5221 72.2565
68.8302 5125 71.5891
68.9473 5362 73.2257
69.0643 5196 72.0833
69.1814 5305 72.8354
69.2984 5239 72.3809
69.4154 5284 72.6911
69.5323 5257 72.5052
69.6492 4958 70.4131
69.7661 4802 69.2965
69.8829 4432 66.5733
69.9997 4421 66.4906
70.1165 4476 66.9029
70.2332 4736 68.8186
70.3499 4903 70.0214
70.4665 4976 70.5408
70.5831 4919 70.1356
70.6996 5040 70.993
70.8161 5263 72.5465
70.9326 5167 71.8818
71.049 5194 72.0694
71.1653 5229 72.3118
71.2817 5092 71.3583
71.3979 4986 70.6116
71.5141 5050 71.0634
71.6303 4913 70.0928
71.7464 4618 67.9559
71.8624 0 1
71.9784 0 1
72.0944 0 1
72.2102 0 1
72.3261 0 1
72.4418 0 1
72.5575 0 1
72.6732 0 1
75.1054 0 1
75.2209 0 1
75.3365 0 1
75.4521 0 1
75.5678 0 1
75.6835 0 1
75.7993 0 1
75.9151 0 1
76.031 0 1
76.147 4469 66.8506
76.263 4898 69.9857
76.3791 5016 70.8237
76.4952 5001 70.7177
76.6113 5032 70.9366
76.7276 5127 71.6031
76.8438 5194 72.0694
76.9601 5038 70.9789
77.0765 5220 72.2496
77.1929 5225 72.2842
77.3093 5094 71.3723
77.4258 5168 71.8888
77.5423 5177 71.9514
77.6589 5294 72.7599
77.7755 5170 71.9027
77.8921 5164 71.861
78.0088 5272 72.6085
78.1256 5078 71.2601
78.2423 5179 71.9653
78.3591 5098 71.4003
78.4759 5208 72.1665
78.5928 5096 71.3863
78.7097 4930 70.214
78.8266 4763 69.0145
78.9436 3942 62.7853
79.0606 3886 62.3378
79.1776 3901 62.458
79.2946 4362 66.0454
79.4117 4593 67.7717
79.5288 4800 69.282
79.6459 5025 70.8872
79.7631 5077 71.2531
79.8802 5054 71.0915
79.9974 5056 71.1056
80.1147 5128 71.6101
80.2319 5233 72.3395
80.3491 5188 72.0278
80.4664 5141 71.7008
80.5837 5062 71.1477
80.701 5350 73.1437
80.8183 5259 72.519
80.9357 5126 71.5961
81.053 5242 72.4017
81.1704 5130 71.624
81.2877 5432 73.7021
81.4051 5307 72.8492
81.5225 5248 72.4431
81.6399 5052 71.0774
81.7573 5398 73.4711
81.8747 4979 70.562
81.9922 5074 71.232
82.1096 5096 71.3863
82.227 4998 70.6965
82.3444 4820 69.4262
82.4619 4791 69.217
82.5793 4259 65.261
82.6967 4287 65.4752
82.8142 3923 62.6339
82.9316 4215 64.923
83.049 4439 66.6258
83.1664 4538 67.3647
83.2838 4783 69.1592
83.4012 4878 69.8427
83.5186 4813 69.3758
83.636 4934 70.2424
83.7534 4946 70.3278
83.8708 5012 70.7955
83.9881 5040 70.993
84.1055 4954 70.3847
84.2228 4871 69.7925
84.3401 5081 71.2811
84.4575 5153 71.7844
84.5747 5128 71.6101
84.692 5105 71.4493
84.8093 5084 71.3022
84.9265 5125 71.5891
85.0437 5108 71.4703
85.1609 4991 70.647
85.2781 5039 70.9859
85.3952 5071 71.211
85.5123 4949 70.3491
85.6294 5138 71.6798
85.7465 5035 70.9577
85.8636 4948 70.342
85.9806 4951 70.3633
86.0976 4637 68.0955
86.2145 4291 65.5057
86.3315 3968 62.9921
86.4484 4424 66.5132
86.5652 4618 67.9559
86.682 4875 69.8212
86.7988 4911 70.0785
86.9156 5030 70.9225
87.0323 5025 70.8872
87.149 5256 72.4983
87.2657 5271 72.6017
87.3823 5140 71.6938
87.4988 5209 72.1734
87.6154 5387 73.3962
87.7318 5311 72.8766
87.8483 5312 72.8835
87.9647 5445 73.7902
88.081 5624 74.9933
88.1973 5483 74.0473
88.3136 5571 74.6391
88.4298 5334 73.0342
88.546 5394 73.4439
88.6621 5412 73.5663
88.7781 5352 73.1574
88.8942 0 1
89.0101 0 1
89.126 0 1
89.2419 0 1
89.3577 0 1
89.4734 0 1
89.5891 0 1
89.7047 0 1
89.8203 0 1
89.9358 0 1
92.3269 0 1
92.4424 0 1
92.558 0 1
92.6736 0 1
92.7893 0 1
92.905 0 1
93.0208 0 1
93.1366 0 1
93.2525 0 1
93.3685 0 1
93.4845 0 1
93.6005 5307 72.8492
93.7167 5411 73.5595
93.8328 5382 73.3621
93.949 5378 73.3348
94.0653 5353 73.1642
94.1816 5407 73.5323
94.2979 5166 71.8749
94.4143 5300 72.8011
94.5307 5365 73.2462
94.6472 5252 72.4707
94.7637 5179 71.9653
94.8803 5266 72.5672
94.9969 5379 73.3417
95.1135 5221 72.2565
95.2302 4889 69.9214
95.3469 4809 69.347
95.4637 4547 67.4314
95.5805 4419 66.4756
95.6973 4580 67.6757
95.8142 4821 69.4334
95.9311 4975 70.5337
96.048 5000 70.7107
96.1649 5212 72.1942
96.2819 5368 73.2666
96.3989 5453 73.8444
96.516 5566 74.6056
96.633 5521 74.3034
96.7501 5651 75.1731
96.8673 5652 75.1798
96.9844 5716 75.6042
97.1016 5901 76.818
97.2188 5926 76.9805
97.336 5935 77.039
97.4532 5800 76.1577
97.5704 5871 76.6225
97.6877 5746 75.8024
97.805 5821 76.2955
97.9223 5827 76.3348
98.0396 5685 75.3989
98.1569 5836 76.3937
98.2743 5625 75
98.3916 5699 75.4917
98.509 5702 75.5116
98.6264 5414 73.5799
98.7438 5547 74.4782
98.8612 5405 73.5187
98.9786 5243 72.4086
99.096 4832 69.5126
99.2134 4763 69.0145
99.3308 4739 68.8404
99.4482 5163 71.854
99.5656 5327 72.9863
99.6831 5483 74.0473
99.8005 5493 74.1148
99.9179 5744 75.7892
100.035 5627 75.0133
100.153 5747 75.809
100.27 5644 75.1266
100.388 5872 76.629
100.505 5927 76.987
100.622 6007 77.5048
100.74 6119 78.224
100.857 5774 75.9868
100.975 6013 77.5435
101.092 6125 78.2624
101.209 5862 76.5637
101.327 5892 76.7594
101.444 6121 78.2368
101.561 5935 77.039
101.679 5821 76.2955
101.796 5934 77.0325
101.913 5911 76.883
102.03 5870 76.6159
102.148 5762 75.9078
102.265 6087 78.0192
102.382 5384 73.3757
102.499 5462 73.9053
102.616 5405 73.5187
102.733 5027 70.9013
102.851 5040 70.993
102.968 5375 73.3144
103.085 5494 74.1215
103.202 5348 73.13
103.319 5606 74.8732
103.436 5674 75.326
103.552 5822 76.302
103.669 5957 77.1816
103.786 5943 77.0909
103.903 6016 77.5629
104.02 6144 78.3837
104.137 6229 78.924
104.253 6346 79.6618
104.37 6096 78.0769
104.487 6344 79.6492
104.603 6350 79.6869
104.72 6175 78.5812
104.836 6319 79.4921
104.953 6187 78.6575
105.069 6284 79.2717
105.186 6099 78.0961
105.302 6386 79.9125
105.418 6202 78.7528
105.535 6121 78.2368
105.651 6068 77.8974
105.767 6092 78.0513
105.883 6031 77.6595
105.999 5787 76.0723
106.115 0 1
106.231 0 1
106.347 0 1
106.463 0 1
106.579 0 1
106.694 0 1
106.81 0 1
106.926 0 1
107.041 0 1
107.157 0 1
109.576 0 1
109.692 0 1
109.807 0 1
109.923 0 1
110.039 0 1
110.155 0 1
110.27 0 1
110.386 0 1
110.502 0 1
110.618 5604 74.8599
110.735 5695 75.4652
110.851 5838 76.4068
110.967 5659 75.2263
111.083 5532 74.3774
111.199 5334 73.0342
111.316 5152 71.7774
111.432 5328 72.9932
111.549 5355 73.1779
111.665 5501 74.1687
111.782 5387 73.3962
111.898 5628 75.02
112.015 5740 75.7628
112.132 5663 75.2529
112.248 5770 75.9605
112.365 5923 76.961
112.482 5952 77.1492
112.599 5788 76.0789
112.716 5956 77.1751
112.832 5974 77.2917
112.949 5851 76.4918
113.066 5900 76.8115
113.183 5701 75.505
113.3 5711 75.5712
113.417 5642 75.1132
113.534 5641 75.1066
113.652 5598 74.8198
113.769 5625 75
113.886 5398 73.4711
114.003 5460 73.8918
114.12 5493 74.1148
114.238 5427 73.6682
114.355 5450 73.8241
114.472 5260 72.5259
114.589 4972 70.5124
114.707 4873 69.8069
114.824 4544 67.4092
114.942 4507 67.1342
115.059 4834 69.527
115.176 4934 70.2424
115.294 4935 70.2496
115.411 5118 71.5402
115.529 5098 71.4003
115.646 5320 72.9383
115.764 5294 72.7599
115.881 5478 74.0135
115.999 5249 72.45
116.116 5499 74.1552
116.234 5442 73.7699
116.351 5488 74.081
116.469 5625 75
116.586 5682 75.379
116.704 5539 74.4245
116.821 5587 74.7462
116.939 5578 74.686
117.056 5616 74.94
117.174 5490 74.0945
117.291 5445 73.7902
117.409 5540 74.4312
117.526 5517 74.2765
117.644 5418 73.6071
117.761 5415 73.5867
117.879 5368 73.2666
117.996 5252 72.4707
118.114 5267 72.5741
118.231 5413 73.5731
118.349 5118 71.5402
118.466 4799 69.2748
118.584 4788 69.1954
118.701 4815 69.3902
118.819 4803 69.3037
118.936 4837 69.5485
119.053 4986 70.6116
119.171 5164 71.861
119.288 5057 71.1126
119.405 5288 72.7186
119.523 5424 73.6478
119.64 5410 73.5527
119.757 5338 73.0616
119.875 5525 74.3303
119.992 5494 74.1215
120.109 5492 74.108
120.226 5501 74.1687
120.343 5570 74.6324
120.46 5464 73.9189
120.578 5585 74.7329
120.695 5464 73.9189
120.812 5473 73.9797
120.929 5200 72.111
121.046 5382 73.3621
121.163 5439 73.7496
121.279 5370 73.2803
121.396 5514 74.2563
121.513 5398 73.4711
121.63 5346 73.1163
121.747 5254 72.4845
121.863 5160 71.8331
121.98 4950 70.3562
122.097 4752 68.9348
122.213 4492 67.0224
122.33 4559 67.5204
122.446 4600 67.8233
122.563 4662 68.2788
122.679 4815 69.3902
122.795 4898 69.9857
122.912 5019 70.8449
123.028 5165 71.8679
123.144 5202 72.1249
123.26 5322 72.952
123.377 0 1
123.493 0 1
123.609 0 1
123.725 0 1
123.84 0 1
123.956 0 1
124.072 0 1
124.188 0 1
124.303 0 1
124.419 0 1
126.852 0 1
126.968 0 1
127.083 0 1
127.199 0 1
127.315 0 1
127.431 0 1
127.547 0 1
127.663 0 1
127.779 0 1
127.895 0 1
128.011 0 1
128.127 0 1
128.243 0 1
128.359 5743 75.7826
128.476 5904 76.8375
128.592 5978 77.3175
128.708 6025 77.6209
128.825 5896 76.7854
128.941 6135 78.3262
129.058 6153 78.4411
129.174 6074 77.9359
129.291 6138 78.3454
129.408 6203 78.7591
129.524 6176 78.5875
129.641 6096 78.0769
129.758 6006 77.4984
129.875 6112 78.1793
129.992 6172 78.5621
130.108 6124 78.256
130.225 5989 77.3886
130.342 5989 77.3886
130.459 5966 77.2399
130.576 6096 78.0769
130.693 5981 77.3369
130.81 5911 76.883
130.928 5696 75.4718
131.045 5358 73.1984
131.162 5061 71.1407
131.279 5188 72.0278
131.396 5372 73.2939
131.513 5453 73.8444
131.631 5607 74.8799
131.748 5733 75.7166
131.865 5796 76.1315
131.983 5854 76.5114
132.1 5994 77.4209
132.217 6026 77.6273
132.335 6138 78.3454
132.452 6213 78.8226
132.57 6043 77.7367
132.687 6128 78.2815
132.804 6396 79.975
132.922 6161 78.492
133.039 6073 77.9295
133.157 6213 78.8226
133.274 6121 78.2368
133.392 5929 77
133.509 5954 77.1622
133.627 6240 78.9937
133.744 6092 78.0513
133.862 6016 77.5629
133.979 5983 77.3499
134.097 5894 76.7724
134.214 6101 78.1089
134.332 5772 75.9737
134.449 5823 76.3086
134.567 5616 74.94
134.684 5216 72.2219
134.802 5159 71.8262
134.919 5504 74.1889
135.037 5510 74.2294
135.154 5558 74.552
135.272 5673 75.3193
135.389 5818 76.2758
135.507 6051 77.7882
135.624 6185 78.6448
135.742 6232 78.943
135.859 6148 78.4092
135.977 6199 78.7337
136.094 6182 78.6257
136.211 6185 78.6448
136.329 6278 79.2338
136.446 6272 79.196
136.564 6282 79.2591
136.681 6230 78.9303
136.798 6125 78.2624
136.915 6192 78.6893
137.033 6165 78.5175
137.15 6144 78.3837
137.267 5997 77.4403
137.384 5960 77.201
137.502 6142 78.3709
137.619 6006 77.4984
137.736 6132 78.3071
137.853 5923 76.961
137.97 5839 76.4133
138.087 6062 77.8588
138.204 5678 75.3525
138.321 5415 73.5867
138.438 5370 73.2803
138.555 5388 73.403
138.672 5636 75.0733
138.788 5677 75.3459
138.905 5895 76.7789
139.022 6114 78.1921
139.139 6028 77.6402
139.255 6141 78.3645
139.372 6099 78.0961
139.488 6040 77.7174
139.605 5996 77.4338
139.721 5969 77.2593
139.838 5910 76.8765
139.954 5894 76.7724
140.071 5933 77.026
140.187 6024 77.6144
140.303 6157 78.4666
140.419 6171 78.5557
140.535 6057 77.8267
140.652 6150 78.4219
140.768 0 1
140.884 0 1
141 0 1
141.115 0 1
141.231 0 1
141.347 0 1
141.463 0 1
141.578 0 1
141.694 0 1
144.104 0 1
144.219 0 1
144.335 0 1
144.45 0 1
144.566 0 1
144.682 0 1
144.798 0 1
144.914 0 1
145.03 0 1
145.146 5050 71.0634
145.262 4953 70.3776
145.378 5063 71.1548
145.494 4991 70.647
145.61 5181 71.9792
145.726 5091 71.3512
145.842 5234 72.3464
145.959 5299 72.7942
146.075 5494 74.1215
146.192 5665 75.2662
146.308 5829 76.3479
146.425 6007 77.5048
146.541 5880 76.6812
146.658 5819 76.2824
146.774 5724 75.6571
146.891 5546 74.4715
147.008 5311 72.8766
147.125 5103 71.4353
147.241 5166 71.8749
147.358 5136 71.6659
147.475 5190 72.0417
147.592 5237 72.3671
147.709 5158 71.8192
147.826 5217 72.2288
147.943 5259 72.519
148.06 5079 71.2671
148.177 5105 71.4493
148.294 4970 70.4982
148.411 5007 70.7602
148.528 4816 69.3974
148.645 5041 71
148.762 4927 70.1926
148.88 4903 70.0214
148.997 4800 69.282
149.114 5061 71.1407
149.231 5102 71.4283
149.349 5135 71.6589
149.466 5171 71.9097
149.583 5174 71.9305
149.701 5170 71.9027
149.818 5251 72.4638
149.935 5293 72.753
150.053 5283 72.6842
150.17 5235 72.3533
150.287 5197 72.0902
150.405 5060 71.1337
150.522 5026 70.8943
150.64 4640 68.1175
150.757 4574 67.6314
150.875 4593 67.7717
150.992 4478 66.9179
151.11 4455 66.7458
151.227 4622 67.9853
151.344 4835 69.5342
151.462 4816 69.3974
151.579 4896 69.9714
151.697 4808 69.3397
151.814 4943 70.3065
151.932 4984 70.5975
152.049 4908 70.0571
152.167 5002 70.7248
152.284 5015 70.8167
152.402 5032 70.9366
152.519 5036 70.9648
152.636 5052 71.0774
152.754 5210 72.1803
152.871 5188 72.0278
152.989 5226 72.2911
153.106 5370 73.2803
153.223 5399 73.4779
153.341 5124 71.5821
153.458 5309 72.8629
153.575 5202 72.1249
153.693 5187 72.0208
153.81 5235 72.3533
153.927 5268 72.581
154.044 4928 70.1997
154.162 4901 70.0071
154.279 4692 68.4982
154.396 4804 69.3109
154.513 4706 68.6003
154.63 4679 68.4032
154.747 4799 69.2748
154.864 4847 69.6204
154.981 4988 70.6258
155.098 5070 71.2039
155.215 5195 72.0763
155.332 5167 71.8818
155.449 5210 72.1803
155.566 5158 71.8192
155.683 5116 71.5262
155.8 5362 73.2257
155.917 5280 72.6636
156.033 5409 73.5459
156.15 0 1
156.267 0 1
156.383 0 1
156.5 0 1
156.617 0 1
156.733 0 1
156.85 0 1
156.966 0 1
157.082 0 1
157.199 0 1
157.315 0 1
157.431 0 1
157.547 0 1
157.664 0 1
157.78 0 1
157.896 0 1
158.012 0 1
158.128 0 1
158.244 0 1
158.359 0 1
158.475 0 1
158.591 0 1
158.706 0 1
