
6.15755 0 1
6.2731 0 1
6.3887 0 1
6.50437 0 1
6.62009 0 1
6.73587 0 1
6.8517 0 1
6.96759 0 1
7.08353 0 1
7.19952 0 1
7.31557 0 1
7.43166 0 1
7.54781 0 1
7.664 0 1
7.78024 0 1
7.89653 0 1
8.01286 0 1
8.12924 0 1
8.24567 0 1
8.36213 0 1
8.47864 0 1
8.59519 0 1
8.71178 0 1
8.82841 0 1
8.94508 0 1
9.06179 0 1
9.17853 0 1
9.29531 0 1
9.41212 0 1
9.52897 0 1
9.64584 0 1
9.76276 0 1
9.8797 0 1
9.99667 0 1
10.1137 0 1
10.2307 0 1
10.3478 0 1
10.4648 0 1
10.5819 0 1
10.6991 0 1
10.8162 0 1
10.9334 0 1
11.0506 0 1
11.1678 0 1
11.285 0 1
11.4023 0 1
11.5196 0 1
11.6369 0 1
11.7542 0 1
11.8715 0 1
11.9888 0 1
12.1062 0 1
12.2235 0 1
12.3409 0 1
12.4582 0 1
12.5756 0 1
12.693 0 1
12.8104 0 1
12.9278 0 1
13.0452 0 1
13.1626 0 1
13.28 0 1
13.3974 0 1
13.5149 0 1
13.6323 0 1
13.7497 0 1
13.8671 0 1
13.9845 0 1
14.1019 0 1
14.2193 0 1
14.3367 0 1
14.4541 0 1
14.5714 0 1
14.6888 0 1
14.8062 0 1
14.9235 0 1
15.0408 0 0
15.1581 0 0
15.2755 0 0
15.3927 0 0
15.51 0 0
15.6273 0 0
15.7445 0 0
15.8617 0 0
15.9789 0 0
16.0961 0 0
16.2132 0 0
16.3304 0 0
16.4475 0 0
16.5646 0 0
16.6816 0 0
16.7986 0 0
16.9156 0 0
17.0326 0 0
17.1496 0 0
17.2665 0 0
17.3833 0 0
17.5002 0 0
17.617 0 0
17.7338 0 0
17.8505 0 0
17.9672 0 0
18.0839 0 0
18.2005 0 0
18.3171 0 0
18.4337 0 0
18.5502 0 0
18.6666 0 0
18.7831 0 0
18.8994 0 0
19.0158 0 0
19.1321 0 0
19.2483 0 0
19.3645 0 0
19.4806 0 0
19.5967 0 0
19.7128 0 0
19.8288 0 0
19.9447 0 0
20.0606 0 1
20.1764 0 1
20.2922 0 1
20.4079 0 1
20.5236 0 1
20.6392 0 1
20.7548 0 1
20.8702 0 1
23.3078 0 1
23.4233 0 1
23.539 0 1
23.6547 0 1
23.7704 0 1
23.8862 0 1
24.0021 0 1
24.118 0 1
24.234 0 1
24.35 0 1
24.4661 1483 38.5097
24.5822 1438 37.921
24.6984 1428 37.7889
24.8146 1425 37.7492
24.9309 1365 36.9459
25.0472 1416 37.6298
25.1636 1444 38
25.28 1444 38
25.3965 1519 38.9744
25.513 1549 39.3573
25.6296 1589 39.8623
25.7462 1665 40.8044
25.8628 1696 41.1825
25.9795 1651 40.6325
26.0962 1609 40.1123
26.213 1683 41.0244
26.3298 1576 39.6989
26.4466 1632 40.398
26.5635 1483 38.5097
26.6804 1401 37.4299
26.7973 1383 37.1887
26.9143 1567 39.5854
27.0313 1491 38.6135
27.1483 1499 38.7169
27.2653 1598 39.975
27.3824 1684 41.0366
27.4996 1675 40.9268
27.6167 1510 38.8587
27.7339 1593 39.9124
27.8511 1523 39.0256
27.9683 1523 39.0256
28.0855 1476 38.4187
28.2028 1503 38.7685
28.3201 1397 37.3765
28.4374 1356 36.8239
28.5547 1297 36.0139
28.6721 1279 35.7631
28.7894 1407 37.51
28.9068 1421 37.6962
29.0242 1468 38.3145
29.1416 1488 38.5746
29.259 1537 39.2046
29.3764 1550 39.37
29.4939 1468 38.3145
29.6113 1593 39.9124
29.7288 1542 39.2683
29.8463 1521 39
29.9638 1480 38.4708
30.0812 1390 37.2827
30.1987 1409 37.5366
30.3162 1379 37.1349
30.4337 1385 37.2156
30.5512 1467 38.3014
30.6687 1539 39.2301
30.7862 1499 38.7169
30.9037 1495 38.6652
31.0212 1584 39.7995
31.1387 1617 40.2119
31.2562 1559 39.4842
31.3737 1450 38.0789
31.4912 1509 38.8458
31.6087 1536 39.1918
31.7262 1452 38.1051
31.8436 1301 36.0694
31.9611 1382 37.1753
32.0785 1327 36.428
32.1959 1267 35.5949
32.3134 1351 36.756
32.4308 1367 36.973
32.5482 1476 38.4187
32.6655 1510 38.8587
32.7829 1580 39.7492
32.9002 1565 39.5601
33.0176 1562 39.5221
33.1349 1639 40.4846
33.2522 1501 38.7427
33.3694 1608 40.0999
33.4867 1556 39.4462
33.6039 1534 39.1663
33.7211 1489 38.5876
33.8383 1392 37.3095
33.9554 1399 37.4032
34.0725 1418 37.6563
34.1896 1424 37.7359
34.3067 1478 38.4448
34.4237 1515 38.923
34.5407 1518 38.9615
34.6577 1609 40.1123
34.7746 1627 40.3361
34.8915 1511 38.8716
35.0084 1471 38.3536
35.1252 1475 38.4057
35.242 1454 38.1314
35.3587 1481 38.4838
35.4755 1482 38.4968
35.5921 1413 37.5899
35.7088 1347 36.7015
35.8254 1310 36.1939
35.9419 1337 36.565
36.0584 1276 35.7211
36.1749 1429 37.8021
36.2913 1548 39.3446
36.4077 1528 39.0896
36.524 1541 39.2556
36.6403 1549 39.3573
36.7565 1592 39.8999
36.8727 1615 40.1871
36.9889 1512 38.8844
37.1049 1529 39.1024
37.221 0 1
37.3369 0 1
37.4529 0 1
37.5687 0 1
37.6845 0 1
37.8003 0 1
37.916 0 1
38.0316 0 1
38.1472 0 1
40.5851 0 1
40.7008 0 1
40.8164 0 1
40.9322 0 1
41.048 0 1
41.1639 0 1
41.2798 0 1
41.3958 0 1
41.5118 0 1
41.6279 0 1
41.744 1317 36.2905
41.8602 1337 36.565
41.9765 1350 36.7423
42.0928 1296 36
42.2091 1322 36.3593
42.3255 1298 36.0278
42.4419 1238 35.1852
42.5584 1222 34.9571
42.675 1147 33.8674
42.7915 1199 34.6266
42.9081 1213 34.8281
43.0248 1204 34.6987
43.1415 1257 35.4542
43.2582 1326 36.4143
43.375 1347 36.7015
43.4918 1365 36.9459
43.6087 1352 36.7696
43.7256 1319 36.318
43.8425 1319 36.318
43.9595 1275 35.7071
44.0765 1224 34.9857
44.1935 1208 34.7563
44.3106 1151 33.9264
44.4277 1035 32.1714
44.5448 1042 32.28
44.6619 940 30.6594
44.7791 928 30.4631
44.8963 1001 31.6386
45.0136 1073 32.7567
45.1308 1110 33.3167
45.2481 1103 33.2114
45.3654 1203 34.6843
45.4827 1171 34.2199
45.6001 1191 34.5109
45.7174 1093 33.0606
45.8348 1121 33.4813
45.9522 1064 32.619
46.0697 975 31.225
46.1871 1045 32.3265
46.3046 979 31.289
46.422 972 31.1769
46.5395 997 31.5753
46.657 1055 32.4808
46.7745 1049 32.3883
46.892 1055 32.4808
47.0096 1045 32.3265
47.1271 1040 32.249
47.2446 1057 32.5115
47.3622 1045 32.3265
47.4797 1009 31.7648
47.5973 988 31.4325
47.7149 965 31.0644
47.8324 919 30.315
47.95 857 29.2746
48.0675 813 28.5132
48.1851 780 27.9285
48.3027 773 27.8029
48.4202 818 28.6007
48.5378 806 28.3901
48.6554 872 29.5296
48.7729 920 30.3315
48.8904 925 30.4138
49.008 933 30.545
49.1255 982 31.3369
49.243 935 30.5778
49.3605 944 30.7246
49.478 872 29.5296
49.5955 897 29.95
49.713 877 29.6142
49.8304 840 28.9828
49.9479 880 29.6648
50.0653 1002 31.6544
50.1827 1018 31.9061
50.3001 949 30.8058
50.4175 1076 32.8024
50.5348 1156 34
50.6521 1140 33.7639
50.7694 1169 34.1906
50.8867 1152 33.9411
51.004 1197 34.5977
51.1212 1188 34.4674
51.2384 1172 34.2345
51.3556 1192 34.5254
51.4727 1111 33.3317
51.5899 1022 31.9687
51.707 1037 32.2025
51.824 1048 32.3728
51.9411 1160 34.0588
52.0581 1279 35.7631
52.175 1328 36.4417
52.2919 1354 36.7967
52.4088 1379 37.1349
52.5257 1342 36.6333
52.6425 1418 37.6563
52.7593 1463 38.2492
52.876 1449 38.0657
52.9927 1396 37.3631
53.1094 1466 38.2884
53.226 1376 37.0945
53.3426 1330 36.4692
53.4591 1306 36.1386
53.5756 1371 37.027
53.692 1493 38.6394
53.8084 1480 38.4708
53.9248 1545 39.3065
54.0411 1576 39.6989
54.1573 1646 40.5709
54.2735 0 1
54.3896 0 1
54.5057 0 1
54.6217 0 1
54.7377 0 1
54.8537 0 1
54.9695 0 1
55.0853 0 1
55.2011 0 1
55.3168 0 1
55.4324 0 1
57.824 0 1
57.9396 0 1
58.0553 0 1
58.1711 0 1
58.2869 0 1
58.4028 0 1
58.5187 0 1
58.6347 0 1
58.7508 0 1
58.8669 0 1
58.983 1855 43.0697
59.0992 1986 44.5646
59.2155 2019 44.9333
59.3318 2038 45.1442
59.4482 1897 43.5546
59.5646 2039 45.1553
59.681 2067 45.4643
59.7975 1952 44.1814
59.9141 1986 44.5646
60.0306 1789 42.2966
60.1473 1763 41.9881
60.2639 1620 40.2492
60.3807 1525 39.0512
60.4974 1520 38.9872
60.6142 1644 40.5463
60.731 1635 40.4351
60.8479 1807 42.5088
60.9648 1836 42.8486
61.0818 1940 44.0454
61.1987 1911 43.715
61.3158 1933 43.9659
61.4328 1947 44.1248
61.5499 1906 43.6578
61.667 1857 43.0929
61.7841 1795 42.3674
61.9013 1710 41.3521
62.0185 1738 41.6893
62.1357 1749 41.821
62.253 1836 42.8486
62.3702 1888 43.4511
62.4875 1903 43.6234
62.6049 1931 43.9431
62.7222 2039 45.1553
62.8396 1969 44.3734
62.9569 2050 45.2769
63.0743 2043 45.1996
63.1918 1975 44.441
63.3092 1908 43.6807
63.4267 1829 42.7668
63.5441 1784 42.2374
63.6616 1615 40.1871
63.7791 1551 39.3827
63.8966 1490 38.6005
64.0142 1515 38.923
64.1317 1517 38.9487
64.2492 1691 41.1218
64.3668 1749 41.821
64.4843 1794 42.3556
64.6019 1871 43.2551
64.7195 1885 43.4166
64.837 1930 43.9318
64.9546 1952 44.1814
65.0722 1904 43.6348
65.1898 1788 42.2847
65.3074 1833 42.8135
65.4249 1708 41.328
65.5425 1669 40.8534
65.6601 1660 40.7431
65.7777 1771 42.0833
65.8952 1836 42.8486
66.0128 1913 43.7379
66.1304 1978 44.4747
66.2479 1997 44.6878
66.3655 2091 45.7275
66.483 2048 45.2548
66.6005 2069 45.4863
66.718 2058 45.3652
66.8355 2002 44.7437
66.953 2082 45.6289
67.0705 1921 43.8292
67.1879 1798 42.4028
67.3054 1739 41.7013
67.4228 1532 39.1408
67.5402 1510 38.8587
67.6576 1560 39.4968
67.7749 1513 38.8973
67.8923 1785 42.2493
68.0096 1862 43.1509
68.1269 1997 44.6878
68.2442 2098 45.8039
68.3614 2038 45.1442
68.4787 2047 45.2438
68.5958 2121 46.0543
68.713 2071 45.5082
68.8302 2116 46
68.9473 2020 44.9444
69.0643 1899 43.5775
69.1814 1897 43.5546
69.2984 1811 42.5558
69.4154 2017 44.911
69.5323 2059 45.3762
69.6492 2154 46.4112
69.7661 2219 47.1063
69.8829 2298 47.9375
69.9997 2354 48.518
70.1165 2343 48.4045
70.2332 2395 48.9387
70.3499 2310 48.0625
70.4665 2448 49.4773
70.5831 2332 48.2908
70.6996 2204 46.9468
70.8161 2066 45.4533
70.9326 1941 44.0568
71.049 1757 41.9166
71.1653 1560 39.4968
71.2817 1479 38.4578
71.3979 1695 41.1704
71.5141 1753 41.8688
71.6303 1789 42.2966
71.7464 1856 43.0813
71.8624 0 1
71.9784 0 1
72.0944 0 1
72.2102 0 1
72.3261 0 1
72.4418 0 1
72.5575 0 1
72.6732 0 1
75.1054 0 1
75.2209 0 1
75.3365 0 1
75.4521 0 1
75.5678 0 1
75.6835 0 1
75.7993 0 1
75.9151 0 1
76.031 0 1
76.147 2094 45.7602
76.263 2197 46.8722
76.3791 2090 45.7165
76.4952 1826 42.7317
76.6113 1813 42.5793
76.7276 1877 43.3244
76.8438 2105 45.8803
76.9601 2232 47.244
77.0765 2519 50.1896
77.1929 2689 51.8556
77.3093 2716 52.1153
77.4258 2626 51.2445
77.5423 2675 51.7204
77.6589 2716 52.1153
77.7755 2704 52
77.8921 2561 50.6063
78.0088 2417 49.163
78.1256 2357 48.5489
78.2423 2433 49.3254
78.3591 2280 47.7493
78.4759 2508 50.0799
78.5928 2578 50.774
78.7097 2623 51.2152
78.8266 2759 52.5262
78.9436 2767 52.6023
79.0606 2854 53.4228
79.1776 2855 53.4322
79.2946 2769 52.6213
79.4117 2795 52.8678
79.5288 2802 52.9339
79.6459 2868 53.5537
79.7631 2778 52.7067
79.8802 2598 50.9706
79.9974 2357 48.5489
80.1147 2093 45.7493
80.2319 1959 44.2606
80.3491 2010 44.833
80.4664 2167 46.551
80.5837 2422 49.2138
80.701 2647 51.449
80.8183 2837 53.2635
80.9357 2896 53.8145
81.053 2928 54.111
81.1704 2895 53.8052
81.2877 2986 54.6443
81.4051 2926 54.0925
81.5225 2959 54.3967
81.6399 2727 52.2207
81.7573 2722 52.1728
81.8747 2533 50.3289
81.9922 2399 48.9796
82.1096 2616 51.1468
82.227 2648 51.4587
82.3444 2783 52.7541
82.4619 2905 53.8981
82.5793 2951 54.3231
82.6967 3065 55.3624
82.8142 3031 55.0545
82.9316 2975 54.5436
83.049 3001 54.7814
83.1664 2935 54.1756
83.2838 2847 53.3573
83.4012 2809 53
83.5186 2707 52.0288
83.636 2530 50.2991
83.7534 2182 46.7119
83.8708 2028 45.0333
83.9881 1926 43.8862
84.1055 2260 47.5395
84.2228 2398 48.9694
84.3401 2707 52.0288
84.4575 2967 54.4702
84.5747 3157 56.1872
84.692 3100 55.6776
84.8093 3237 56.8946
84.9265 3210 56.6569
85.0437 3143 56.0625
85.1609 3032 55.0636
85.2781 2957 54.3783
85.3952 2966 54.461
85.5123 2880 53.6656
85.6294 2870 53.5724
85.7465 2921 54.0463
85.8636 3076 55.4617
85.9806 3369 58.0431
86.0976 3354 57.9137
86.2145 3468 58.8897
86.3315 3514 59.279
86.4484 3798 61.6279
86.5652 3792 61.5792
86.682 3799 61.636
86.7988 3738 61.1392
86.9156 3694 60.7783
87.0323 3511 59.2537
87.149 3273 57.2101
87.2657 3167 56.2761
87.3823 2796 52.8772
87.4988 2596 50.951
87.6154 2881 53.6749
87.7318 3155 56.1694
87.8483 3486 59.0424
87.9647 3789 61.5549
88.081 3965 62.9682
88.1973 4180 64.6529
88.3136 4256 65.238
88.4298 4241 65.123
88.546 4220 64.9615
88.6621 4183 64.6761
88.7781 4078 63.8592
88.8942 0 1
89.0101 0 1
89.126 0 1
89.2419 0 1
89.3577 0 1
89.4734 0 1
89.5891 0 1
89.7047 0 1
89.8203 0 1
89.9358 0 1
92.3269 0 1
92.4424 0 1
92.558 0 1
92.6736 0 1
92.7893 0 1
92.905 0 1
93.0208 0 1
93.1366 0 1
93.2525 0 1
93.3685 0 1
93.4845 0 1
93.6005 4598 67.8086
93.7167 4668 68.3228
93.8328 4695 68.5201
93.949 4820 69.4262
94.0653 4748 68.9057
94.1816 4726 68.7459
94.2979 4469 66.8506
94.4143 4416 66.453
94.5307 4377 66.1589
94.6472 4355 65.9924
94.7637 4251 65.1997
94.8803 4480 66.9328
94.9969 4473 66.8805
95.1135 4825 69.4622
95.2302 4947 70.3349
95.3469 4895 69.9643
95.4637 5055 71.0985
95.5805 5116 71.5262
95.6973 5222 72.2634
95.8142 5143 71.7147
95.9311 5089 71.3372
96.048 4999 70.7036
96.1649 4811 69.3614
96.2819 4773 69.0869
96.3989 4449 66.7008
96.516 4078 63.8592
96.633 3649 60.407
96.7501 3742 61.1719
96.8673 3901 62.458
96.9844 4221 64.9692
97.1016 4826 69.4694
97.2188 5141 71.7008
97.336 5375 73.3144
97.4532 5510 74.2294
97.5704 5629 75.0267
97.6877 5547 74.4782
97.805 5450 73.8241
97.9223 5278 72.6498
98.0396 5188 72.0278
98.1569 5031 70.9295
98.2743 4795 69.2459
98.3916 4737 68.8259
98.509 4933 70.2353
98.6264 5111 71.4913
98.7438 5223 72.2703
98.8612 5379 73.3417
98.9786 5679 75.3591
99.096 5768 75.9474
99.2134 5783 76.046
99.3308 5848 76.4722
99.4482 5837 76.4003
99.5656 5950 77.1362
99.6831 5635 75.0666
99.8005 5594 74.793
99.9179 5317 72.9178
100.035 4963 70.4486
100.153 4662 68.2788
100.27 4205 64.846
100.388 4274 65.3758
100.505 4688 68.469
100.622 5288 72.7186
100.74 5680 75.3658
100.857 5904 76.8375
100.975 6060 77.846
101.092 6102 78.1153
101.209 6227 78.9113
101.327 6148 78.4092
101.444 6116 78.2049
101.561 5918 76.9285
101.679 5773 75.9803
101.796 5608 74.8866
101.913 5500 74.162
102.03 5497 74.1418
102.148 5490 74.0945
102.265 6159 78.4793
102.382 5648 75.1532
102.499 6192 78.6893
102.616 6386 79.9125
102.733 6516 80.7217
102.851 6516 80.7217
102.968 6648 81.5353
103.085 6593 81.1973
103.202 6492 80.5729
103.319 6204 78.7655
103.436 5927 76.987
103.552 5627 75.0133
103.669 5160 71.8331
103.786 4761 69
103.903 4781 69.1448
104.02 5146 71.7356
104.137 5825 76.3217
104.253 6625 81.3941
104.37 6544 80.895
104.487 6769 82.2739
104.603 6971 83.4925
104.72 6919 83.1805
104.836 7047 83.9464
104.953 6816 82.5591
105.069 6670 81.6701
105.186 6720 81.9756
105.302 6214 78.8289
105.418 6194 78.702
105.535 6233 78.9494
105.651 6280 79.2465
105.767 6523 80.7651
105.883 6846 82.7406
105.999 6943 83.3247
106.115 0 1
106.231 0 1
106.347 0 1
106.463 0 1
106.579 0 1
106.694 0 1
106.81 0 1
106.926 0 1
107.041 0 1
107.157 0 1
109.576 0 1
109.692 0 1
109.807 0 1
109.923 0 1
110.039 0 1
110.155 0 1
110.27 0 1
110.386 0 1
110.502 0 1
110.618 5569 74.6257
110.735 5961 77.2075
110.851 6184 78.6384
110.967 6244 79.019
111.083 6298 79.3599
111.199 6602 81.2527
111.316 6635 81.4555
111.432 6698 81.8413
111.549 6517 80.7279
111.665 6389 79.9312
111.782 6158 78.4729
111.898 5888 76.7333
112.015 5535 74.3976
112.132 4986 70.6116
112.248 4523 67.2533
112.365 4404 66.3626
112.482 4680 68.4105
112.599 5207 72.1595
112.716 5779 76.0197
112.832 5984 77.3563
112.949 6119 78.224
113.066 5981 77.3369
113.183 6053 77.801
113.3 5993 77.4145
113.417 5771 75.9671
113.534 5759 75.8881
113.652 5555 74.5319
113.769 5264 72.5534
113.886 5172 71.9166
114.003 5072 71.218
114.12 5027 70.9013
114.238 5171 71.9097
114.355 5237 72.3671
114.472 5260 72.5259
114.589 5511 74.2361
114.707 5210 72.1803
114.824 5403 73.5051
114.942 5590 74.7663
115.059 5524 74.3236
115.176 5531 74.3707
115.294 5551 74.505
115.411 5191 72.0486
115.529 5040 70.993
115.646 4762 69.0072
115.764 4281 65.4294
115.881 3912 62.546
115.999 4078 63.8592
116.116 4383 66.2042
116.234 4883 69.8785
116.351 5134 71.6519
116.469 5445 73.7902
116.586 5551 74.505
116.704 5528 74.3505
116.821 5469 73.9527
116.939 5601 74.8398
117.056 5281 72.6705
117.174 5262 72.5396
117.291 5251 72.4638
117.409 5014 70.8096
117.526 4825 69.4622
117.644 4890 69.9285
117.761 4993 70.6612
117.879 5063 71.1548
117.996 5019 70.8449
118.114 5187 72.0208
118.231 5405 73.5187
118.349 5300 72.8011
118.466 5378 73.3348
118.584 5394 73.4439
118.701 5386 73.3894
118.819 5291 72.7393
118.936 5209 72.1734
119.053 5114 71.5122
119.171 4980 70.5691
119.288 4464 66.8132
119.405 4185 64.6916
119.523 3852 62.0645
119.64 4066 63.7652
119.757 4232 65.0538
119.875 4481 66.9403
119.992 4932 70.2282
120.109 5109 71.4773
120.226 5247 72.4362
120.343 5182 71.9861
120.46 5163 71.854
120.578 5132 71.638
120.695 5124 71.5821
120.812 5048 71.0493
120.929 5007 70.7602
121.046 4769 69.0579
121.163 4742 68.8622
121.279 4575 67.6387
121.396 4657 68.2422
121.513 4579 67.6683
121.63 4841 69.5773
121.747 4724 68.7314
121.863 4936 70.2567
121.98 4989 70.6329
122.097 5021 70.859
122.213 5158 71.8192
122.33 5066 71.1758
122.446 5064 71.1618
122.563 5045 71.0282
122.679 4837 69.5485
122.795 4647 68.1689
122.912 4524 67.2607
123.028 4261 65.2763
123.144 4089 63.9453
123.26 3711 60.918
123.377 0 1
123.493 0 1
123.609 0 1
123.725 0 1
123.84 0 1
123.956 0 1
124.072 0 1
124.188 0 1
124.303 0 1
124.419 0 1
126.852 0 1
126.968 0 1
127.083 0 1
127.199 0 1
127.315 0 1
127.431 0 1
127.547 0 1
127.663 0 1
127.779 0 1
127.895 0 1
128.011 0 1
128.127 0 1
128.243 0 1
128.359 4240 65.1153
128.476 3997 63.2218
128.592 3831 61.8951
128.708 4319 65.7191
128.825 4839 69.5629
128.941 5086 71.3162
129.058 5169 71.8958
129.174 5407 73.5323
129.291 5358 73.1984
129.408 5317 72.9178
129.524 5301 72.808
129.641 5389 73.4098
129.758 5156 71.8053
129.875 5147 71.7426
129.992 5082 71.2881
130.108 4723 68.7241
130.225 4944 70.3136
130.342 4900 70
130.459 4892 69.9428
130.576 5011 70.7884
130.693 5048 71.0493
130.81 5165 71.8679
130.928 5115 71.5192
131.045 4979 70.562
131.162 5143 71.7147
131.279 5103 71.4353
131.396 5187 72.0208
131.513 4965 70.4628
131.631 4882 69.8713
131.748 4730 68.775
131.865 4221 64.9692
131.983 3827 61.8628
132.1 3738 61.1392
132.217 3898 62.434
132.335 4325 65.7647
132.452 4747 68.8985
132.57 4909 70.0643
132.687 4807 69.3325
132.804 5258 72.5121
132.922 5059 71.1266
133.039 4897 69.9786
133.157 4937 70.2638
133.274 4919 70.1356
133.392 4913 70.0928
133.509 4708 68.6149
133.627 4698 68.542
133.744 4632 68.0588
133.862 4448 66.6933
133.979 4526 67.2756
134.097 4602 67.838
134.214 4758 68.9783
134.332 4599 67.8159
134.449 4859 69.7065
134.567 4695 68.5201
134.684 4971 70.5053
134.802 4780 69.1375
134.919 4870 69.7854
135.037 4827 69.4766
135.154 4751 68.9275
135.272 4556 67.4981
135.389 4343 65.9014
135.507 3973 63.0317
135.624 3625 60.208
135.742 3639 60.3241
135.859 3995 63.206
135.977 4405 66.3702
136.094 4651 68.1982
136.211 4828 69.4838
136.329 4764 69.0217
136.446 4751 68.9275
136.564 4788 69.1954
136.681 4959 70.4202
136.798 4851 69.6491
136.915 4796 69.2532
137.033 4699 68.5493
137.15 4585 67.7126
137.267 4549 67.4463
137.384 4370 66.106
137.502 4484 66.9627
137.619 4401 66.34
137.736 4474 66.888
137.853 4533 67.3276
137.97 4576 67.6461
138.087 4660 68.2642
138.204 4462 66.7982
138.321 4666 68.3081
138.438 4774 69.0941
138.555 4739 68.8404
138.672 4687 68.4617
138.788 4512 67.1714
138.905 4531 67.3127
139.022 4275 65.3835
139.139 4052 63.6553
139.255 3665 60.5392
139.372 3610 60.0833
139.488 3787 61.5386
139.605 4128 64.2495
139.721 4423 66.5056
139.838 4739 68.8404
139.954 4814 69.383
140.071 4636 68.0882
140.187 4759 68.9855
140.303 4614 67.9264
140.419 4708 68.6149
140.535 4588 67.7348
140.652 4420 66.4831
140.768 0 1
140.884 0 1
141 0 1
141.115 0 1
141.231 0 1
141.347 0 1
141.463 0 1
141.578 0 1
141.694 0 1
144.104 0 1
144.219 0 1
144.335 0 1
144.45 0 1
144.566 0 1
144.682 0 1
144.798 0 1
144.914 0 1
145.03 0 1
145.146 3995 63.206
145.262 3936 62.7375
145.378 3984 63.1189
145.494 4022 63.4192
145.61 3946 62.8172
145.726 3796 61.6117
145.842 3712 60.9262
145.959 3666 60.5475
146.075 3644 60.3656
146.192 3679 60.6548
146.308 3698 60.8112
146.425 3630 60.2495
146.541 3710 60.9098
146.658 3799 61.636
146.774 3687 60.7207
146.891 3681 60.6712
147.008 3860 62.1289
147.125 3754 61.2699
147.241 3811 61.7333
147.358 3871 62.2174
147.475 3658 60.4814
147.592 3413 58.4209
147.709 3226 56.7979
147.826 2933 54.1572
147.943 2911 53.9537
148.06 2940 54.2218
148.177 3163 56.2406
148.294 3458 58.8048
148.411 3749 61.2291
148.528 3776 61.4492
148.645 3734 61.1065
148.762 3702 60.8441
148.88 3635 60.291
148.997 3576 59.7997
149.114 3776 61.4492
149.231 3596 59.9667
149.349 3516 59.2959
149.466 3373 58.0775
149.583 3332 57.7235
149.701 3388 58.2065
149.818 3337 57.7668
149.935 3405 58.3524
150.053 3344 57.8273
150.17 3358 57.9483
150.287 3418 58.4637
150.405 3422 58.4979
150.522 3537 59.4727
150.64 3455 58.7792
150.757 3522 59.3464
150.875 3433 58.5918
150.992 3466 58.8727
151.11 3346 57.8446
151.227 3379 58.1292
151.344 2984 54.626
151.462 2828 53.1789
151.579 2767 52.6023
151.697 2968 54.4794
151.814 3110 55.7674
151.932 3334 57.7408
152.049 3571 59.7578
152.167 3502 59.1777
152.284 3702 60.8441
152.402 3662 60.5145
152.519 3615 60.1249
152.636 3610 60.0833
152.754 3565 59.7076
152.871 3420 58.4808
152.989 3395 58.2666
153.106 3414 58.4294
153.223 3338 57.7754
153.341 3340 57.7927
153.458 3198 56.5509
153.575 3304 57.4804
153.693 3251 57.0175
153.81 3307 57.5065
153.927 3368 58.0345
154.044 3358 57.9483
154.162 3485 59.0339
154.279 3428 58.5491
154.396 3537 59.4727
154.513 3622 60.1831
154.63 3523 59.3549
154.747 3383 58.1636
154.864 3295 57.4021
154.981 3126 55.9106
155.098 3048 55.2087
155.215 3002 54.7905
155.332 3096 55.6417
155.449 3248 56.9912
155.566 3403 58.3352
155.683 3516 59.2959
155.8 3606 60.05
155.917 3544 59.5315
156.033 3622 60.1831
156.15 0 1
156.267 0 1
156.383 0 1
156.5 0 1
156.617 0 1
156.733 0 1
156.85 0 1
156.966 0 1
157.082 0 1
157.199 0 1
157.315 0 1
157.431 0 1
157.547 0 1
157.664 0 1
157.78 0 1
157.896 0 1
158.012 0 1
158.128 0 1
158.244 0 1
158.359 0 1
158.475 0 1
158.591 0 1
158.706 0 1
