
6.15755 0 1
6.2731 0 1
6.3887 0 1
6.50437 0 1
6.62009 0 1
6.73587 0 1
6.8517 0 1
6.96759 0 1
7.08353 0 1
7.19952 0 1
7.31557 0 1
7.43166 0 1
7.54781 0 1
7.664 0 1
7.78024 0 1
7.89653 0 1
8.01286 0 1
8.12924 0 1
8.24567 0 1
8.36213 0 1
8.47864 0 1
8.59519 0 1
8.71178 0 1
8.82841 0 1
8.94508 0 1
9.06179 0 1
9.17853 0 1
9.29531 0 1
9.41212 0 1
9.52897 0 1
9.64584 0 1
9.76276 0 1
9.8797 0 1
9.99667 0 1
10.1137 0 1
10.2307 0 1
10.3478 0 1
10.4648 0 1
10.5819 0 1
10.6991 0 1
10.8162 0 1
10.9334 0 1
11.0506 0 1
11.1678 0 1
11.285 0 1
11.4023 0 1
11.5196 0 1
11.6369 0 1
11.7542 0 1
11.8715 0 1
11.9888 0 1
12.1062 0 1
12.2235 0 1
12.3409 0 1
12.4582 0 1
12.5756 0 1
12.693 0 1
12.8104 0 1
12.9278 0 1
13.0452 0 1
13.1626 0 1
13.28 0 1
13.3974 0 1
13.5149 0 1
13.6323 0 1
13.7497 0 1
13.8671 0 1
13.9845 0 1
14.1019 0 1
14.2193 0 1
14.3367 0 1
14.4541 0 1
14.5714 0 1
14.6888 0 1
14.8062 0 1
14.9235 0 1
15.0408 1632 40.398
15.1581 1635 40.4351
15.2755 1767 42.0357
15.3927 1806 42.4971
15.51 1743 41.7493
15.6273 1670 40.8656
15.7445 1778 42.1663
15.8617 1665 40.8044
15.9789 1695 41.1704
16.0961 1666 40.8167
16.2132 1601 40.0125
16.3304 1601 40.0125
16.4475 1590 39.8748
16.5646 1476 38.4187
16.6816 1502 38.7556
16.7986 1504 38.7814
16.9156 1450 38.0789
17.0326 1400 37.4166
17.1496 1417 37.6431
17.2665 1345 36.6742
17.3833 1380 37.1484
17.5002 1393 37.3229
17.617 1413 37.5899
17.7338 1377 37.108
17.8505 1406 37.4967
17.9672 1463 38.2492
18.0839 1476 38.4187
18.2005 1653 40.6571
18.3171 1573 39.6611
18.4337 1593 39.9124
18.5502 1661 40.7554
18.6666 1626 40.3237
18.7831 1654 40.6694
18.8994 1646 40.5709
19.0158 1629 40.3609
19.1321 1534 39.1663
19.2483 1462 38.2361
19.3645 1428 37.7889
19.4806 1400 37.4166
19.5967 1215 34.8569
19.7128 1170 34.2053
19.8288 1070 32.7109
19.9447 965 31.0644
20.0606 0 1
20.1764 0 1
20.2922 0 1
20.4079 0 1
20.5236 0 1
20.6392 0 1
20.7548 0 1
20.8702 0 1
23.3078 0 1
23.4233 0 1
23.539 0 1
23.6547 0 1
23.7704 0 1
23.8862 0 1
24.0021 0 1
24.118 0 1
24.234 0 1
24.35 0 1
24.4661 686 26.1916
24.5822 794 28.178
24.6984 894 29.8998
24.8146 1018 31.9061
24.9309 1179 34.3366
25.0472 1261 35.5106
25.1636 1272 35.6651
25.28 1458 38.1838
25.3965 1528 39.0896
25.513 1521 39
25.6296 1616 40.1995
25.7462 1655 40.6817
25.8628 1683 41.0244
25.9795 1631 40.3856
26.0962 1643 40.5339
26.213 1631 40.3856
26.3298 1662 40.7676
26.4466 1607 40.0874
26.5635 1574 39.6737
26.6804 1766 42.0238
26.7973 1703 41.2674
26.9143 1627 40.3361
27.0313 1583 39.7869
27.1483 1692 41.1339
27.2653 1754 41.8808
27.3824 1768 42.0476
27.4996 1750 41.833
27.6167 1726 41.5452
27.7339 1659 40.7308
27.8511 1619 40.2368
27.9683 1641 40.5093
28.0855 1578 39.724
28.2028 1663 40.7799
28.3201 1580 39.7492
28.4374 1630 40.3733
28.5547 1637 40.4599
28.6721 1616 40.1995
28.7894 1671 40.8779
28.9068 1611 40.1373
29.0242 1615 40.1871
29.1416 1595 39.9375
29.259 1612 40.1497
29.3764 1623 40.2865
29.4939 1556 39.4462
29.6113 1506 38.8072
29.7288 1609 40.1123
29.8463 1523 39.0256
29.9638 1591 39.8873
30.0812 1587 39.8372
30.1987 1654 40.6694
30.3162 1632 40.398
30.4337 1606 40.0749
30.5512 1683 41.0244
30.6687 1668 40.8412
30.7862 1643 40.5339
30.9037 1681 41
31.0212 1769 42.0595
31.1387 1745 41.7732
31.2562 1761 41.9643
31.3737 1844 42.9418
31.4912 1699 41.2189
31.6087 1604 40.05
31.7262 1671 40.8779
31.8436 1705 41.2916
31.9611 1630 40.3733
32.0785 1660 40.7431
32.1959 1658 40.7185
32.3134 1695 41.1704
32.4308 1688 41.0853
32.5482 1575 39.6863
32.6655 1619 40.2368
32.7829 1672 40.8901
32.9002 1640 40.4969
33.0176 1576 39.6989
33.1349 1566 39.5727
33.2522 1634 40.4228
33.3694 1679 40.9756
33.4867 1634 40.4228
33.6039 1667 40.8289
33.7211 1614 40.1746
33.8383 1698 41.2068
33.9554 1673 40.9023
34.0725 1632 40.398
34.1896 1697 41.1947
34.3067 1681 41
34.4237 1733 41.6293
34.5407 1736 41.6653
34.6577 1784 42.2374
34.7746 1789 42.2966
34.8915 1773 42.107
35.0084 1768 42.0476
35.1252 1760 41.9524
35.242 1832 42.8019
35.3587 1654 40.6694
35.4755 1730 41.5933
35.5921 1653 40.6571
35.7088 1660 40.7431
35.8254 1741 41.7253
35.9419 1658 40.7185
36.0584 1606 40.0749
36.1749 1672 40.8901
36.2913 1602 40.025
36.4077 1593 39.9124
36.524 1472 38.3667
36.6403 1390 37.2827
36.7565 1269 35.623
36.8727 1186 34.4384
36.9889 1130 33.6155
37.1049 994 31.5278
37.221 0 1
37.3369 0 1
37.4529 0 1
37.5687 0 1
37.6845 0 1
37.8003 0 1
37.916 0 1
38.0316 0 1
38.1472 0 1
40.5851 0 1
40.7008 0 1
40.8164 0 1
40.9322 0 1
41.048 0 1
41.1639 0 1
41.2798 0 1
41.3958 0 1
41.5118 0 1
41.6279 0 1
41.744 927 30.4467
41.8602 1041 32.2645
41.9765 1227 35.0286
42.0928 1337 36.565
42.2091 1394 37.3363
42.3255 1453 38.1182
42.4419 1560 39.4968
42.5584 1592 39.8999
42.675 1627 40.3361
42.7915 1689 41.0974
42.9081 1627 40.3361
43.0248 1630 40.3733
43.1415 1704 41.2795
43.2582 1871 43.2551
43.375 1892 43.4971
43.4918 1966 44.3396
43.6087 2159 46.465
43.7256 2077 45.5741
43.8425 2163 46.5081
43.9595 2109 45.9239
44.0765 2229 47.2123
44.1935 2191 46.8081
44.3106 2183 46.7226
44.4277 2276 47.7074
44.5448 2281 47.7598
44.6619 2276 47.7074
44.7791 2366 48.6415
44.8963 2348 48.4562
45.0136 2478 49.7795
45.1308 2367 48.6518
45.2481 2431 49.3052
45.3654 2448 49.4773
45.4827 2501 50.01
45.6001 2388 48.8672
45.7174 2524 50.2394
45.8348 2485 49.8498
45.9522 2427 49.2646
46.0697 2493 49.93
46.1871 2462 49.6185
46.3046 2338 48.3529
46.422 2331 48.2804
46.5395 2252 47.4552
46.657 2272 47.6655
46.7745 2321 48.1768
46.892 2449 49.4874
47.0096 2526 50.2593
47.1271 2569 50.6853
47.2446 2605 51.0392
47.3622 2559 50.5866
47.4797 2493 49.93
47.5973 2475 49.7494
47.7149 2504 50.04
47.8324 2394 48.9285
47.95 2293 47.8853
48.0675 2283 47.7807
48.1851 2325 48.2183
48.3027 2286 47.8121
48.4202 2249 47.4236
48.5378 2213 47.0425
48.6554 2210 47.0106
48.7729 2114 45.9783
48.8904 2120 46.0435
49.008 2066 45.4533
49.1255 2038 45.1442
49.243 2027 45.0222
49.3605 1915 43.7607
49.478 1967 44.3509
49.5955 1955 44.2154
49.713 1940 44.0454
49.8304 1760 41.9524
49.9479 1824 42.7083
50.0653 1799 42.4146
50.1827 1927 43.8976
50.3001 1942 44.0681
50.4175 2032 45.0777
50.5348 1967 44.3509
50.6521 2037 45.1331
50.7694 2111 45.9456
50.8867 2183 46.7226
51.004 2113 45.9674
51.1212 2182 46.7119
51.2384 2046 45.2327
51.3556 2020 44.9444
51.4727 1971 44.3959
51.5899 1943 44.0795
51.707 1990 44.6094
51.824 1919 43.8064
51.9411 1870 43.2435
52.0581 1911 43.715
52.175 1843 42.9302
52.2919 1782 42.2137
52.4088 1846 42.9651
52.5257 1858 43.1045
52.6425 1847 42.9767
52.7593 1853 43.0465
52.876 1804 42.4735
52.9927 1808 42.5206
53.1094 1731 41.6053
53.226 1641 40.5093
53.3426 1581 39.7618
53.4591 1537 39.2046
53.5756 1591 39.8873
53.692 1467 38.3014
53.8084 1484 38.5227
53.9248 1302 36.0832
54.0411 1301 36.0694
54.1573 1176 34.2929
54.2735 0 1
54.3896 0 1
54.5057 0 1
54.6217 0 1
54.7377 0 1
54.8537 0 1
54.9695 0 1
55.0853 0 1
55.2011 0 1
55.3168 0 1
55.4324 0 1
57.824 0 1
57.9396 0 1
58.0553 0 1
58.1711 0 1
58.2869 0 1
58.4028 0 1
58.5187 0 1
58.6347 0 1
58.7508 0 1
58.8669 0 1
58.983 1459 38.1969
59.0992 1805 42.4853
59.2155 2018 44.9222
59.3318 2222 47.1381
59.4482 2407 49.0612
59.5646 2616 51.1468
59.681 2558 50.5767
59.7975 2686 51.8266
59.9141 2639 51.3712
60.0306 2731 52.259
60.1473 2618 51.1664
60.2639 2557 50.5668
60.3807 2610 51.0882
60.4974 2621 51.1957
60.6142 2523 50.2295
60.731 2548 50.4777
60.8479 2485 49.8498
60.9648 2450 49.4975
61.0818 2567 50.6656
61.1987 2592 50.9117
61.3158 2541 50.4083
61.4328 2522 50.2195
61.5499 2452 49.5177
61.667 2540 50.3984
61.7841 2324 48.2079
61.9013 2436 49.3559
62.0185 2473 49.7293
62.1357 2414 49.1325
62.253 2524 50.2394
62.3702 2569 50.6853
62.4875 2727 52.2207
62.6049 2844 53.3292
62.7222 2909 53.9351
62.8396 3109 55.7584
62.9569 3126 55.9106
63.0743 3057 55.2901
63.1918 3142 56.0535
63.3092 3031 55.0545
63.4267 2938 54.2033
63.5441 2953 54.3415
63.6616 2818 53.0848
63.7791 2833 53.2259
63.8966 2732 52.2685
64.0142 2854 53.4228
64.1317 2769 52.6213
64.2492 2661 51.5849
64.3668 2593 50.9215
64.4843 2565 50.6458
64.6019 2632 51.303
64.7195 2580 50.7937
64.837 2631 51.2933
64.9546 2640 51.3809
65.0722 2615 51.1371
65.1898 2575 50.7445
65.3074 2478 49.7795
65.4249 2532 50.319
65.5425 2432 49.3153
65.6601 2535 50.3488
65.7777 2587 50.8626
65.8952 2615 51.1371
66.0128 2782 52.7447
66.1304 2786 52.7826
66.2479 2929 54.1202
66.3655 2992 54.6992
66.483 3211 56.6657
66.6005 3240 56.921
66.718 3189 56.4712
66.8355 3111 55.7763
66.953 3071 55.4166
67.0705 3141 56.0446
67.1879 2911 53.9537
67.3054 2834 53.2353
67.4228 2852 53.4041
67.5402 2744 52.3832
67.6576 2729 52.2398
67.7749 2670 51.672
67.8923 2673 51.7011
68.0096 2578 50.774
68.1269 2637 51.3517
68.2442 2576 50.7543
68.3614 2648 51.4587
68.4787 2655 51.5267
68.5958 2807 52.9811
68.713 2710 52.0577
68.8302 2562 50.6162
68.9473 2554 50.5371
69.0643 2464 49.6387
69.1814 2429 49.2849
69.2984 2353 48.5077
69.4154 2456 49.558
69.5323 2535 50.3488
69.6492 2677 51.7397
69.7661 2743 52.3737
69.8829 2844 53.3292
69.9997 2880 53.6656
70.1165 2866 53.535
70.2332 2752 52.4595
70.3499 2651 51.4879
70.4665 2506 50.06
70.5831 2378 48.7647
70.6996 2167 46.551
70.8161 1897 43.5546
70.9326 1759 41.9404
71.049 1578 39.724
71.1653 1496 38.6782
71.2817 1420 37.6829
71.3979 1315 36.2629
71.5141 1282 35.805
71.6303 1194 34.5543
71.7464 1056 32.4962
71.8624 0 1
71.9784 0 1
72.0944 0 1
72.2102 0 1
72.3261 0 1
72.4418 0 1
72.5575 0 1
72.6732 0 1
75.1054 0 1
75.2209 0 1
75.3365 0 1
75.4521 0 1
75.5678 0 1
75.6835 0 1
75.7993 0 1
75.9151 0 1
76.031 0 1
76.147 2167 46.551
76.263 2291 47.8644
76.3791 2393 48.9183
76.4952 2412 49.1121
76.6113 2398 48.9694
76.7276 2341 48.3839
76.8438 2420 49.1935
76.9601 2437 49.366
77.0765 2399 48.9796
77.1929 2481 49.8096
77.3093 2624 51.225
77.4258 2636 51.342
77.5423 2732 52.2685
77.6589 2720 52.1536
77.7755 2696 51.923
77.8921 2570 50.6952
78.0088 2549 50.4876
78.1256 2410 49.0918
78.2423 2397 48.9592
78.3591 2297 47.927
78.4759 2416 49.1528
78.5928 2680 51.7687
78.7097 2804 52.9528
78.8266 2889 53.7494
78.9436 3015 54.909
79.0606 3094 55.6237
79.1776 3155 56.1694
79.2946 3273 57.2101
79.4117 3329 57.6975
79.5288 3237 56.8946
79.6459 3325 57.6628
79.7631 3156 56.1783
79.8802 3033 55.0727
79.9974 2981 54.5985
80.1147 2844 53.3292
80.2319 2967 54.4702
80.3491 2878 53.647
80.4664 2864 53.5164
80.5837 2900 53.8516
80.701 2916 54
80.8183 2834 53.2353
80.9357 2895 53.8052
81.053 3084 55.5338
81.1704 3073 55.4346
81.2877 3073 55.4346
81.4051 2985 54.6352
81.5225 3024 54.9909
81.6399 2978 54.5711
81.7573 2734 52.2877
81.8747 2714 52.0961
81.9922 2512 50.1199
82.1096 2701 51.9711
82.227 2907 53.9166
82.3444 3058 55.2992
82.4619 3191 56.4889
82.5793 3355 57.9224
82.6967 3500 59.1608
82.8142 3553 59.607
82.9316 3457 58.7963
83.049 3605 60.0417
83.1664 3749 61.2291
83.2838 3576 59.7997
83.4012 3385 58.1808
83.5186 3309 57.5239
83.636 3161 56.2228
83.7534 3178 56.3738
83.8708 3103 55.7046
83.9881 3284 57.3062
84.1055 3158 56.1961
84.2228 3296 57.4108
84.3401 3220 56.745
84.4575 3258 57.0789
84.5747 3302 57.463
84.692 3280 57.2713
84.8093 3602 60.0167
84.9265 3387 58.1979
85.0437 3326 57.6715
85.1609 3259 57.0877
85.2781 3022 54.9727
85.3952 2849 53.376
85.5123 2807 52.9811
85.6294 2835 53.2447
85.7465 2961 54.4151
85.8636 3303 57.4717
85.9806 3399 58.3009
86.0976 3536 59.4643
86.2145 3617 60.1415
86.3315 3735 61.1146
86.4484 3755 61.2781
86.5652 3948 62.8331
86.682 3741 61.1637
86.7988 3800 61.6441
86.9156 3674 60.6135
87.0323 3642 60.349
87.149 3499 59.1523
87.2657 3504 59.1946
87.3823 3362 57.9828
87.4988 3271 57.1927
87.6154 3038 55.1181
87.7318 2942 54.2402
87.8483 2908 53.9259
87.9647 2640 51.3809
88.081 2615 51.1371
88.1973 2337 48.3425
88.3136 2343 48.4045
88.4298 2138 46.2385
88.546 1883 43.3935
88.6621 1716 41.4246
88.7781 1557 39.4588
88.8942 0 1
89.0101 0 1
89.126 0 1
89.2419 0 1
89.3577 0 1
89.4734 0 1
89.5891 0 1
89.7047 0 1
89.8203 0 1
89.9358 0 1
92.3269 0 1
92.4424 0 1
92.558 0 1
92.6736 0 1
92.7893 0 1
92.905 0 1
93.0208 0 1
93.1366 0 1
93.2525 0 1
93.3685 0 1
93.4845 0 1
93.6005 3000 54.7723
93.7167 3303 57.4717
93.8328 3713 60.9344
93.949 3915 62.57
94.0653 3976 63.0555
94.1816 3917 62.5859
94.2979 3777 61.4573
94.4143 3878 62.2736
94.5307 3606 60.05
94.6472 3330 57.7062
94.7637 3377 58.112
94.8803 3433 58.5918
94.9969 3656 60.4649
95.1135 3794 61.5955
95.2302 4183 64.6761
95.3469 4427 66.5357
95.4637 4534 67.335
95.5805 4584 67.7052
95.6973 4626 68.0147
95.8142 4700 68.5565
95.9311 4711 68.6367
96.048 4461 66.7907
96.1649 4664 68.2935
96.2819 4418 66.468
96.3989 4321 65.7343
96.516 4288 65.4828
96.633 4314 65.681
96.7501 4263 65.2917
96.8673 4244 65.146
96.9844 4138 64.3273
97.1016 4214 64.9153
97.2188 4309 65.643
97.336 4319 65.7191
97.4532 4477 66.9104
97.5704 4466 66.8281
97.6877 4447 66.6858
97.805 4432 66.5733
97.9223 4452 66.7233
98.0396 4130 64.2651
98.1569 3921 62.6179
98.2743 3570 59.7495
98.3916 3456 58.7878
98.509 3639 60.3241
98.6264 3907 62.506
98.7438 3984 63.1189
98.8612 4369 66.0984
98.9786 4649 68.1836
99.096 4835 69.5342
99.2134 4757 68.971
99.3308 4993 70.6612
99.4482 5041 71
99.5656 5096 71.3863
99.6831 5056 71.1056
99.8005 4956 70.3989
99.9179 4870 69.7854
100.035 4785 69.1737
100.153 4611 67.9043
100.27 4585 67.7126
100.388 4515 67.1937
100.505 4547 67.4314
100.622 4388 66.242
100.74 4529 67.2978
100.857 4562 67.5426
100.975 4511 67.164
101.092 4697 68.5347
101.209 4766 69.0362
101.327 4736 68.8186
101.444 4840 69.5701
101.561 4531 67.3127
101.679 4268 65.3299
101.796 3906 62.498
101.913 3849 62.0403
102.03 3757 61.2944
102.148 3992 63.1823
102.265 4161 64.5058
102.382 4644 68.1469
102.499 4854 69.6707
102.616 5086 71.3162
102.733 5057 71.1126
102.851 5276 72.6361
102.968 5164 71.861
103.085 5227 72.298
103.202 5233 72.3395
103.319 5141 71.7008
103.436 5024 70.8802
103.552 4812 69.3686
103.669 4829 69.491
103.786 4679 68.4032
103.903 4681 68.4178
104.02 4471 66.8655
104.137 4554 67.4833
104.253 4432 66.5733
104.37 4672 68.352
104.487 4570 67.6018
104.603 4622 67.9853
104.72 4541 67.3869
104.836 4595 67.7864
104.953 4012 63.3404
105.069 3922 62.6259
105.186 3403 58.3352
105.302 3101 55.6866
105.418 2875 53.619
105.535 2603 51.0196
105.651 2357 48.5489
105.767 2290 47.8539
105.883 2336 48.3322
105.999 2223 47.1487
106.115 0 1
106.231 0 1
106.347 0 1
106.463 0 1
106.579 0 1
106.694 0 1
106.81 0 1
106.926 0 1
107.041 0 1
107.157 0 1
109.576 0 1
109.692 0 1
109.807 0 1
109.923 0 1
110.039 0 1
110.155 0 1
110.27 0 1
110.386 0 1
110.502 0 1
110.618 2111 45.9456
110.735 2573 50.7247
110.851 2989 54.6717
110.967 3421 58.4893
111.083 3964 62.9603
111.199 4058 63.7024
111.316 4287 65.4752
111.432 4307 65.6277
111.549 4381 66.1891
111.665 4438 66.6183
111.782 4449 66.7008
111.898 4478 66.9179
112.015 4244 65.146
112.132 4185 64.6916
112.248 3996 63.2139
112.365 4129 64.2573
112.482 4022 63.4192
112.599 4207 64.8614
112.716 3988 63.1506
112.832 3992 63.1823
112.949 3913 62.554
113.066 3950 62.849
113.183 4126 64.2339
113.3 4132 64.2806
113.417 4160 64.4981
113.534 4050 63.6396
113.652 4078 63.8592
113.769 3777 61.4573
113.886 3617 60.1415
114.003 3200 56.5685
114.12 3216 56.7098
114.238 3310 57.5326
114.355 3616 60.1332
114.472 3680 60.663
114.589 4317 65.7039
114.707 4412 66.4229
114.824 4442 66.6483
114.942 4568 67.587
115.059 4516 67.2012
115.176 4381 66.1891
115.294 4402 66.3476
115.411 4486 66.9776
115.529 4440 66.6333
115.646 4287 65.4752
115.764 4240 65.1153
115.881 4142 64.3584
115.999 4078 63.8592
116.116 3913 62.554
116.234 3872 62.2254
116.351 3906 62.498
116.469 3767 61.3759
116.586 3799 61.636
116.704 3979 63.0793
116.821 3862 62.145
116.939 4143 64.3661
117.056 4074 63.8279
117.174 3965 62.9682
117.291 3740 61.1555
117.409 3598 59.9833
117.526 3403 58.3352
117.644 3435 58.6089
117.761 3321 57.6281
117.879 3470 58.9067
117.996 3621 60.1747
118.114 3886 62.3378
118.231 4207 64.8614
118.349 4317 65.7039
118.466 4383 66.2042
118.584 4460 66.7832
118.701 4402 66.3476
118.819 4238 65.0999
118.936 4299 65.5668
119.053 4120 64.1872
119.171 4057 63.6946
119.288 4048 63.6239
119.405 4028 63.4665
119.523 3892 62.3859
119.64 3713 60.9344
119.757 3783 61.5061
119.875 3715 60.9508
119.992 3633 60.2744
120.109 3715 60.9508
120.226 3623 60.1914
120.343 3792 61.5792
120.46 3804 61.6766
120.578 3721 61
120.695 3720 60.9918
120.812 3680 60.663
120.929 3562 59.6825
121.046 3410 58.3952
121.163 3104 55.7136
121.279 2908 53.9259
121.396 2771 52.6403
121.513 2764 52.5738
121.63 2857 53.4509
121.747 2924 54.074
121.863 3066 55.3715
121.98 3175 56.3471
122.097 3178 56.3738
122.213 3018 54.9363
122.33 2928 54.111
122.446 2842 53.3104
122.563 2555 50.547
122.679 2509 50.0899
122.795 2278 47.7284
122.912 2106 45.8912
123.028 1976 44.4522
123.144 1891 43.4856
123.26 1731 41.6053
123.377 0 1
123.493 0 1
123.609 0 1
123.725 0 1
123.84 0 1
123.956 0 1
124.072 0 1
124.188 0 1
124.303 0 1
124.419 0 1
126.852 0 1
126.968 0 1
127.083 0 1
127.199 0 1
127.315 0 1
127.431 0 1
127.547 0 1
127.663 0 1
127.779 0 1
127.895 0 1
128.011 0 1
128.127 0 1
128.243 0 1
128.359 3854 62.0806
128.476 3888 62.3538
128.592 3853 62.0725
128.708 3847 62.0242
128.825 3822 61.8223
128.941 3749 61.2291
129.058 3783 61.5061
129.174 3856 62.0967
129.291 3694 60.7783
129.408 3763 61.3433
129.524 3701 60.8358
129.641 3855 62.0886
129.758 3822 61.8223
129.875 3739 61.1474
129.992 3639 60.3241
130.108 3456 58.7878
130.225 3329 57.6975
130.342 3279 57.2626
130.459 3080 55.4977
130.576 3101 55.6866
130.693 3205 56.6127
130.81 3468 58.8897
130.928 3748 61.2209
131.045 3918 62.5939
131.162 4002 63.2614
131.279 3956 62.8967
131.396 4024 63.435
131.513 3944 62.8013
131.631 3823 61.8304
131.748 3773 61.4248
131.865 3868 62.1932
131.983 3795 61.6036
132.1 3800 61.6441
132.217 3755 61.2781
132.335 3613 60.1082
132.452 3570 59.7495
132.57 3545 59.5399
132.687 3636 60.2993
132.804 3544 59.5315
132.922 3500 59.1608
133.039 3546 59.5483
133.157 3735 61.1146
133.274 3692 60.7618
133.392 3623 60.1914
133.509 3556 59.6322
133.627 3443 58.6771
133.744 3527 59.3886
133.862 3298 57.4282
133.979 3149 56.116
134.097 3059 55.3082
134.214 3097 55.6507
134.332 3372 58.0689
134.449 3582 59.8498
134.567 3730 61.0737
134.684 3987 63.1427
134.802 4123 64.2106
134.919 4042 63.5767
135.037 3900 62.45
135.154 3952 62.8649
135.272 3959 62.9206
135.389 3989 63.1585
135.507 4080 63.8749
135.624 4075 63.8357
135.742 3960 62.9285
135.859 3991 63.1744
135.977 3899 62.442
136.094 3942 62.7853
136.211 3801 61.6523
136.329 3910 62.53
136.446 3898 62.434
136.564 3905 62.49
136.681 3895 62.4099
136.798 4046 63.6082
136.915 3904 62.482
137.033 3857 62.1048
137.15 3772 61.4166
137.267 3813 61.7495
137.384 3646 60.3821
137.502 3365 58.0086
137.619 3211 56.6657
137.736 3186 56.4447
137.853 3054 55.263
137.97 3331 57.7148
138.087 3572 59.7662
138.204 3844 62
138.321 3986 63.1348
138.438 3962 62.9444
138.555 4023 63.4271
138.672 3977 63.0635
138.788 3840 61.9677
138.905 3545 59.5399
139.022 3517 59.3043
139.139 3308 57.5152
139.255 3308 57.5152
139.372 3081 55.5068
139.488 2834 53.2353
139.605 2689 51.8556
139.721 2483 49.8297
139.838 2342 48.3942
139.954 2276 47.7074
140.071 2127 46.1194
140.187 2056 45.3431
140.303 1938 44.0227
140.419 1868 43.2204
140.535 1734 41.6413
140.652 1667 40.8289
140.768 0 1
140.884 0 1
141 0 1
141.115 0 1
141.231 0 1
141.347 0 1
141.463 0 1
141.578 0 1
141.694 0 1
144.104 0 1
144.219 0 1
144.335 0 1
144.45 0 1
144.566 0 1
144.682 0 1
144.798 0 1
144.914 0 1
145.03 0 1
145.146 2820 53.1037
145.262 2853 53.4135
145.378 2982 54.6077
145.494 3040 55.1362
145.61 2938 54.2033
145.726 2980 54.5894
145.842 2991 54.69
145.959 2870 53.5724
146.075 2850 53.3854
146.192 2877 53.6377
146.308 2702 51.9808
146.425 2684 51.8073
146.541 2472 49.7192
146.658 2555 50.547
146.774 2616 51.1468
146.891 2678 51.7494
147.008 2995 54.7266
147.125 2987 54.6535
147.241 3080 55.4977
147.358 3097 55.6507
147.475 3134 55.9821
147.592 3145 56.0803
147.709 3078 55.4797
147.826 3051 55.2359
147.943 2986 54.6443
148.06 3106 55.7315
148.177 3057 55.2901
148.294 3022 54.9727
148.411 3074 55.4437
148.528 3113 55.7943
148.645 3051 55.2359
148.762 3030 55.0454
148.88 3015 54.909
148.997 3119 55.848
149.114 2864 53.5164
149.231 2929 54.1202
149.349 2918 54.0185
149.466 2932 54.1479
149.583 2965 54.4518
149.701 2956 54.3691
149.818 2870 53.5724
149.935 2853 53.4135
150.053 2651 51.4879
150.17 2753 52.469
150.287 2520 50.1996
150.405 2602 51.0098
150.522 2680 51.7687
150.64 2912 53.963
150.757 3089 55.5788
150.875 3140 56.0357
150.992 3089 55.5788
151.11 3103 55.7046
151.227 3062 55.3353
151.344 3081 55.5068
151.462 3091 55.5968
151.579 3098 55.6597
151.697 3151 56.1338
151.814 3181 56.4004
151.932 3036 55.0999
152.049 3120 55.857
152.167 3270 57.1839
152.284 3016 54.9181
152.402 2992 54.6992
152.519 2951 54.3231
152.636 2946 54.2771
152.754 2939 54.2125
152.871 2875 53.619
152.989 2850 53.3854
153.106 2954 54.3507
153.223 2950 54.3139
153.341 2829 53.1883
153.458 2781 52.7352
153.575 2744 52.3832
153.693 2619 51.1762
153.81 2519 50.1896
153.927 2543 50.4282
154.044 2577 50.7642
154.162 2698 51.9423
154.279 2829 53.1883
154.396 2846 53.3479
154.513 2954 54.3507
154.63 3008 54.8452
154.747 3007 54.8361
154.864 2964 54.4426
154.981 2950 54.3139
155.098 2966 54.461
155.215 2955 54.3599
155.332 2979 54.5802
155.449 2855 53.4322
155.566 2873 53.6004
155.683 2819 53.0943
155.8 2754 52.4786
155.917 2709 52.0481
156.033 2516 50.1597
156.15 0 1
156.267 0 1
156.383 0 1
156.5 0 1
156.617 0 1
156.733 0 1
156.85 0 1
156.966 0 1
157.082 0 1
157.199 0 1
157.315 0 1
157.431 0 1
157.547 0 1
157.664 0 1
157.78 0 1
157.896 0 1
158.012 0 1
158.128 0 1
158.244 0 1
158.359 0 1
158.475 0 1
158.591 0 1
158.706 0 1
