
6.15755 0 1
6.2731 0 1
6.3887 0 1
6.50437 0 1
6.62009 0 1
6.73587 0 1
6.8517 0 1
6.96759 0 1
7.08353 0 1
7.19952 0 1
7.31557 0 1
7.43166 0 1
7.54781 0 1
7.664 0 1
7.78024 0 1
7.89653 0 1
8.01286 0 1
8.12924 0 1
8.24567 0 1
8.36213 0 1
8.47864 0 1
8.59519 0 1
8.71178 0 1
8.82841 0 1
8.94508 0 1
9.06179 0 1
9.17853 0 1
9.29531 0 1
9.41212 0 1
9.52897 0 1
9.64584 0 1
9.76276 0 1
9.8797 0 1
9.99667 0 1
10.1137 0 1
10.2307 0 1
10.3478 0 1
10.4648 0 1
10.5819 0 1
10.6991 0 1
10.8162 0 1
10.9334 0 1
11.0506 0 1
11.1678 0 1
11.285 0 1
11.4023 0 1
11.5196 0 1
11.6369 0 1
11.7542 0 1
11.8715 0 1
11.9888 0 1
12.1062 0 1
12.2235 0 1
12.3409 0 1
12.4582 0 1
12.5756 0 1
12.693 0 1
12.8104 0 1
12.9278 0 1
13.0452 0 1
13.1626 0 1
13.28 0 1
13.3974 0 1
13.5149 0 1
13.6323 0 1
13.7497 0 1
13.8671 0 1
13.9845 0 1
14.1019 0 1
14.2193 0 1
14.3367 0 1
14.4541 0 1
14.5714 0 1
14.6888 0 1
14.8062 0 1
14.9235 0 1
15.0408 335 18.303
15.1581 359 18.9473
15.2755 364 19.0788
15.3927 383 19.5704
15.51 341 18.4662
15.6273 350 18.7083
15.7445 372 19.2873
15.8617 328 18.1108
15.9789 337 18.3576
16.0961 333 18.2483
16.2132 336 18.3303
16.3304 322 17.9444
16.4475 327 18.0831
16.5646 374 19.3391
16.6816 381 19.5192
16.7986 383 19.5704
16.9156 408 20.199
17.0326 370 19.2354
17.1496 359 18.9473
17.2665 428 20.6882
17.3833 419 20.4695
17.5002 399 19.975
17.617 361 19
17.7338 339 18.412
17.8505 345 18.5742
17.9672 302 17.3781
18.0839 363 19.0526
18.2005 366 19.1311
18.3171 349 18.6815
18.4337 390 19.7484
18.5502 386 19.6469
18.6666 379 19.4679
18.7831 359 18.9473
18.8994 410 20.2485
19.0158 317 17.8045
19.1321 355 18.8414
19.2483 355 18.8414
19.3645 300 17.3205
19.4806 302 17.3781
19.5967 252 15.8745
19.7128 278 16.6733
19.8288 237 15.3948
19.9447 199 14.1067
20.0606 0 1
20.1764 0 1
20.2922 0 1
20.4079 0 1
20.5236 0 1
20.6392 0 1
20.7548 0 1
20.8702 0 1
23.3078 0 1
23.4233 0 1
23.539 0 1
23.6547 0 1
23.7704 0 1
23.8862 0 1
24.0021 0 1
24.118 0 1
24.234 0 1
24.35 0 1
24.4661 136 11.6619
24.5822 164 12.8062
24.6984 181 13.4536
24.8146 204 14.2829
24.9309 214 14.6287
25.0472 238 15.4272
25.1636 242 15.5563
25.28 309 17.5784
25.3965 267 16.3401
25.513 339 18.412
25.6296 311 17.6352
25.7462 328 18.1108
25.8628 368 19.1833
25.9795 330 18.1659
26.0962 385 19.6214
26.213 311 17.6352
26.3298 296 17.2047
26.4466 320 17.8885
26.5635 282 16.7929
26.6804 298 17.2627
26.7973 305 17.4642
26.9143 301 17.3494
27.0313 335 18.303
27.1483 325 18.0278
27.2653 343 18.5203
27.3824 339 18.412
27.4996 334 18.2757
27.6167 356 18.868
27.7339 327 18.0831
27.8511 316 17.7764
27.9683 338 18.3848
28.0855 313 17.6918
28.2028 280 16.7332
28.3201 304 17.4356
28.4374 263 16.2173
28.5547 274 16.5529
28.6721 301 17.3494
28.7894 274 16.5529
28.9068 270 16.4317
29.0242 298 17.2627
29.1416 338 18.3848
29.259 350 18.7083
29.3764 291 17.0587
29.4939 345 18.5742
29.6113 328 18.1108
29.7288 315 17.7482
29.8463 289 17
29.9638 298 17.2627
30.0812 280 16.7332
30.1987 279 16.7033
30.3162 294 17.1464
30.4337 292 17.088
30.5512 343 18.5203
30.6687 320 17.8885
30.7862 315 17.7482
30.9037 303 17.4069
31.0212 330 18.1659
31.1387 333 18.2483
31.2562 296 17.2047
31.3737 326 18.0555
31.4912 316 17.7764
31.6087 277 16.6433
31.7262 285 16.8819
31.8436 280 16.7332
31.9611 236 15.3623
32.0785 253 15.906
32.1959 276 16.6132
32.3134 285 16.8819
32.4308 275 16.5831
32.5482 342 18.4932
32.6655 327 18.0831
32.7829 312 17.6635
32.9002 276 16.6132
33.0176 326 18.0555
33.1349 331 18.1934
33.2522 332 18.2209
33.3694 319 17.8606
33.4867 277 16.6433
33.6039 272 16.4924
33.7211 266 16.3095
33.8383 244 15.6205
33.9554 284 16.8523
34.0725 272 16.4924
34.1896 293 17.1172
34.3067 309 17.5784
34.4237 289 17
34.5407 272 16.4924
34.6577 293 17.1172
34.7746 298 17.2627
34.8915 304 17.4356
35.0084 269 16.4012
35.1252 264 16.2481
35.242 273 16.5227
35.3587 261 16.1555
35.4755 244 15.6205
35.5921 250 15.8114
35.7088 236 15.3623
35.8254 218 14.7648
35.9419 231 15.1987
36.0584 251 15.843
36.1749 237 15.3948
36.2913 265 16.2788
36.4077 270 16.4317
36.524 258 16.0624
36.6403 267 16.3401
36.7565 279 16.7033
36.8727 249 15.7797
36.9889 215 14.6629
37.1049 200 14.1421
37.221 0 1
37.3369 0 1
37.4529 0 1
37.5687 0 1
37.6845 0 1
37.8003 0 1
37.916 0 1
38.0316 0 1
38.1472 0 1
40.5851 0 1
40.7008 0 1
40.8164 0 1
40.9322 0 1
41.048 0 1
41.1639 0 1
41.2798 0 1
41.3958 0 1
41.5118 0 1
41.6279 0 1
41.744 142 11.9164
41.8602 168 12.9615
41.9765 160 12.6491
42.0928 147 12.1244
42.2091 183 13.5277
42.3255 177 13.3041
42.4419 174 13.1909
42.5584 169 13
42.675 197 14.0357
42.7915 191 13.8203
42.9081 221 14.8661
43.0248 234 15.2971
43.1415 214 14.6287
43.2582 226 15.0333
43.375 246 15.6844
43.4918 242 15.5563
43.6087 229 15.1327
43.7256 259 16.0935
43.8425 274 16.5529
43.9595 238 15.4272
44.0765 239 15.4596
44.1935 219 14.7986
44.3106 218 14.7648
44.4277 229 15.1327
44.5448 221 14.8661
44.6619 199 14.1067
44.7791 212 14.5602
44.8963 213 14.5945
45.0136 234 15.2971
45.1308 240 15.4919
45.2481 231 15.1987
45.3654 273 16.5227
45.4827 244 15.6205
45.6001 264 16.2481
45.7174 275 16.5831
45.8348 251 15.843
45.9522 237 15.3948
46.0697 209 14.4568
46.1871 240 15.4919
46.3046 211 14.5258
46.422 225 15
46.5395 246 15.6844
46.657 234 15.2971
46.7745 246 15.6844
46.892 241 15.5242
47.0096 267 16.3401
47.1271 268 16.3707
47.2446 260 16.1245
47.3622 303 17.4069
47.4797 241 15.5242
47.5973 239 15.4596
47.7149 240 15.4919
47.8324 239 15.4596
47.95 251 15.843
48.0675 230 15.1658
48.1851 192 13.8564
48.3027 233 15.2643
48.4202 216 14.6969
48.5378 219 14.7986
48.6554 258 16.0624
48.7729 248 15.748
48.8904 276 16.6132
49.008 251 15.843
49.1255 258 16.0624
49.243 240 15.4919
49.3605 272 16.4924
49.478 226 15.0333
49.5955 201 14.1774
49.713 181 13.4536
49.8304 216 14.6969
49.9479 216 14.6969
50.0653 217 14.7309
50.1827 229 15.1327
50.3001 247 15.7162
50.4175 245 15.6525
50.5348 288 16.9706
50.6521 237 15.3948
50.7694 249 15.7797
50.8867 247 15.7162
51.004 257 16.0312
51.1212 260 16.1245
51.2384 229 15.1327
51.3556 236 15.3623
51.4727 225 15
51.5899 225 15
51.707 199 14.1067
51.824 221 14.8661
51.9411 231 15.1987
52.0581 211 14.5258
52.175 241 15.5242
52.2919 290 17.0294
52.4088 256 16
52.5257 234 15.2971
52.6425 248 15.748
52.7593 265 16.2788
52.876 269 16.4012
52.9927 253 15.906
53.1094 210 14.4914
53.226 228 15.0997
53.3426 229 15.1327
53.4591 199 14.1067
53.5756 200 14.1421
53.692 253 15.906
53.8084 198 14.0712
53.9248 213 14.5945
54.0411 212 14.5602
54.1573 176 13.2665
54.2735 0 1
54.3896 0 1
54.5057 0 1
54.6217 0 1
54.7377 0 1
54.8537 0 1
54.9695 0 1
55.0853 0 1
55.2011 0 1
55.3168 0 1
55.4324 0 1
57.824 0 1
57.9396 0 1
58.0553 0 1
58.1711 0 1
58.2869 0 1
58.4028 0 1
58.5187 0 1
58.6347 0 1
58.7508 0 1
58.8669 0 1
58.983 163 12.7671
59.0992 240 15.4919
59.2155 250 15.8114
59.3318 239 15.4596
59.4482 287 16.9411
59.5646 268 16.3707
59.681 282 16.7929
59.7975 304 17.4356
59.9141 322 17.9444
60.0306 307 17.5214
60.1473 308 17.5499
60.2639 279 16.7033
60.3807 272 16.4924
60.4974 277 16.6433
60.6142 288 16.9706
60.731 296 17.2047
60.8479 325 18.0278
60.9648 348 18.6548
61.0818 323 17.9722
61.1987 318 17.8326
61.3158 331 18.1934
61.4328 371 19.2614
61.5499 312 17.6635
61.667 276 16.6132
61.7841 262 16.1864
61.9013 277 16.6433
62.0185 268 16.3707
62.1357 283 16.8226
62.253 282 16.7929
62.3702 302 17.3781
62.4875 299 17.2916
62.6049 328 18.1108
62.7222 353 18.7883
62.8396 344 18.5472
62.9569 348 18.6548
63.0743 352 18.7617
63.1918 346 18.6011
63.3092 375 19.3649
63.4267 313 17.6918
63.5441 321 17.9165
63.6616 326 18.0555
63.7791 309 17.5784
63.8966 278 16.6733
64.0142 273 16.5227
64.1317 272 16.4924
64.2492 290 17.0294
64.3668 321 17.9165
64.4843 326 18.0555
64.6019 313 17.6918
64.7195 376 19.3907
64.837 377 19.4165
64.9546 350 18.7083
65.0722 328 18.1108
65.1898 328 18.1108
65.3074 280 16.7332
65.4249 293 17.1172
65.5425 280 16.7332
65.6601 255 15.9687
65.7777 267 16.3401
65.8952 302 17.3781
66.0128 313 17.6918
66.1304 324 18
66.2479 339 18.412
66.3655 352 18.7617
66.483 353 18.7883
66.6005 347 18.6279
66.718 350 18.7083
66.8355 311 17.6352
66.953 323 17.9722
67.0705 366 19.1311
67.1879 341 18.4662
67.3054 320 17.8885
67.4228 323 17.9722
67.5402 291 17.0587
67.6576 246 15.6844
67.7749 281 16.7631
67.8923 294 17.1464
68.0096 315 17.7482
68.1269 339 18.412
68.2442 370 19.2354
68.3614 343 18.5203
68.4787 318 17.8326
68.5958 368 19.1833
68.713 351 18.735
68.8302 327 18.0831
68.9473 286 16.9115
69.0643 294 17.1464
69.1814 314 17.72
69.2984 292 17.088
69.4154 295 17.1756
69.5323 321 17.9165
69.6492 330 18.1659
69.7661 326 18.0555
69.8829 393 19.8242
69.9997 320 17.8885
70.1165 332 18.2209
70.2332 339 18.412
70.3499 319 17.8606
70.4665 302 17.3781
70.5831 300 17.3205
70.6996 292 17.088
70.8161 256 16
70.9326 256 16
71.049 212 14.5602
71.1653 229 15.1327
71.2817 133 11.5326
71.3979 147 12.1244
71.5141 107 10.3441
71.6303 118 10.8628
71.7464 123 11.0905
71.8624 0 1
71.9784 0 1
72.0944 0 1
72.2102 0 1
72.3261 0 1
72.4418 0 1
72.5575 0 1
72.6732 0 1
75.1054 0 1
75.2209 0 1
75.3365 0 1
75.4521 0 1
75.5678 0 1
75.6835 0 1
75.7993 0 1
75.9151 0 1
76.031 0 1
76.147 270 16.4317
76.263 288 16.9706
76.3791 306 17.4929
76.4952 340 18.4391
76.6113 372 19.2873
76.7276 359 18.9473
76.8438 402 20.0499
76.9601 512 22.6274
77.0765 628 25.0599
77.1929 602 24.5357
77.3093 819 28.6182
77.4258 755 27.4773
77.5423 796 28.2135
77.6589 855 29.2404
77.7755 887 29.7825
77.8921 850 29.1548
78.0088 809 28.4429
78.1256 726 26.9444
78.2423 722 26.8701
78.3591 698 26.4197
78.4759 757 27.5136
78.5928 870 29.4958
78.7097 938 30.6268
78.8266 895 29.9166
78.9436 906 30.0998
79.0606 868 29.4618
79.1776 833 28.8617
79.2946 941 30.6757
79.4117 1073 32.7567
79.5288 957 30.9354
79.6459 1001 31.6386
79.7631 986 31.4006
79.8802 945 30.7409
79.9974 830 28.8097
80.1147 821 28.6531
80.2319 749 27.3679
80.3491 703 26.5141
80.4664 691 26.2869
80.5837 698 26.4197
80.701 579 24.0624
80.8183 547 23.388
80.9357 590 24.2899
81.053 581 24.1039
81.1704 533 23.0868
81.2877 501 22.383
81.4051 505 22.4722
81.5225 494 22.2261
81.6399 406 20.1494
81.7573 368 19.1833
81.8747 308 17.5499
81.9922 285 16.8819
82.1096 287 16.9411
82.227 306 17.4929
82.3444 359 18.9473
82.4619 330 18.1659
82.5793 391 19.7737
82.6967 325 18.0278
82.8142 360 18.9737
82.9316 370 19.2354
83.049 376 19.3907
83.1664 372 19.2873
83.2838 383 19.5704
83.4012 333 18.2483
83.5186 334 18.2757
83.636 331 18.1934
83.7534 310 17.6068
83.8708 281 16.7631
83.9881 273 16.5227
84.1055 260 16.1245
84.2228 278 16.6733
84.3401 298 17.2627
84.4575 307 17.5214
84.5747 322 17.9444
84.692 343 18.5203
84.8093 370 19.2354
84.9265 372 19.2873
85.0437 350 18.7083
85.1609 333 18.2483
85.2781 303 17.4069
85.3952 275 16.5831
85.5123 254 15.9374
85.6294 269 16.4012
85.7465 280 16.7332
85.8636 292 17.088
85.9806 314 17.72
86.0976 307 17.5214
86.2145 369 19.2094
86.3315 380 19.4936
86.4484 355 18.8414
86.5652 400 20
86.682 404 20.0998
86.7988 358 18.9209
86.9156 322 17.9444
87.0323 350 18.7083
87.149 327 18.0831
87.2657 308 17.5499
87.3823 300 17.3205
87.4988 265 16.2788
87.6154 235 15.3297
87.7318 220 14.8324
87.8483 222 14.8997
87.9647 209 14.4568
88.081 265 16.2788
88.1973 283 16.8226
88.3136 258 16.0624
88.4298 227 15.0665
88.546 232 15.2315
88.6621 219 14.7986
88.7781 170 13.0384
88.8942 0 1
89.0101 0 1
89.126 0 1
89.2419 0 1
89.3577 0 1
89.4734 0 1
89.5891 0 1
89.7047 0 1
89.8203 0 1
89.9358 0 1
92.3269 0 1
92.4424 0 1
92.558 0 1
92.6736 0 1
92.7893 0 1
92.905 0 1
93.0208 0 1
93.1366 0 1
93.2525 0 1
93.3685 0 1
93.4845 0 1
93.6005 452 21.2603
93.7167 467 21.6102
93.8328 492 22.1811
93.949 471 21.7025
94.0653 525 22.9129
94.1816 556 23.5797
94.2979 600 24.4949
94.4143 651 25.5147
94.5307 630 25.0998
94.6472 543 23.3024
94.7637 533 23.0868
94.8803 458 21.4009
94.9969 513 22.6495
95.1135 587 24.2281
95.2302 642 25.3377
95.3469 660 25.6905
95.4637 679 26.0576
95.5805 638 25.2587
95.6973 599 24.4745
95.8142 592 24.3311
95.9311 553 23.516
96.048 548 23.4094
96.1649 493 22.2036
96.2819 477 21.8403
96.3989 437 20.9045
96.516 428 20.6882
96.633 390 19.7484
96.7501 337 18.3576
96.8673 306 17.4929
96.9844 302 17.3781
97.1016 287 16.9411
97.2188 323 17.9722
97.336 353 18.7883
97.4532 384 19.5959
97.5704 358 18.9209
97.6877 385 19.6214
97.805 406 20.1494
97.9223 375 19.3649
98.0396 326 18.0555
98.1569 313 17.6918
98.2743 311 17.6352
98.3916 287 16.9411
98.509 296 17.2047
98.6264 307 17.5214
98.7438 298 17.2627
98.8612 350 18.7083
98.9786 386 19.6469
99.096 366 19.1311
99.2134 344 18.5472
99.3308 374 19.3391
99.4482 356 18.868
99.5656 374 19.3391
99.6831 404 20.0998
99.8005 413 20.3224
99.9179 359 18.9473
100.035 355 18.8414
100.153 319 17.8606
100.27 343 18.5203
100.388 310 17.6068
100.505 292 17.088
100.622 331 18.1934
100.74 309 17.5784
100.857 332 18.2209
100.975 327 18.0831
101.092 359 18.9473
101.209 356 18.868
101.327 375 19.3649
101.444 343 18.5203
101.561 359 18.9473
101.679 307 17.5214
101.796 292 17.088
101.913 246 15.6844
102.03 256 16
102.148 263 16.2173
102.265 323 17.9722
102.382 358 18.9209
102.499 375 19.3649
102.616 356 18.868
102.733 388 19.6977
102.851 354 18.8149
102.968 361 19
103.085 396 19.8997
103.202 379 19.4679
103.319 346 18.6011
103.436 348 18.6548
103.552 361 19
103.669 309 17.5784
103.786 350 18.7083
103.903 281 16.7631
104.02 278 16.6733
104.137 265 16.2788
104.253 285 16.8819
104.37 339 18.412
104.487 337 18.3576
104.603 379 19.4679
104.72 347 18.6279
104.836 344 18.5472
104.953 329 18.1384
105.069 304 17.4356
105.186 237 15.3948
105.302 244 15.6205
105.418 206 14.3527
105.535 223 14.9332
105.651 217 14.7309
105.767 235 15.3297
105.883 251 15.843
105.999 210 14.4914
106.115 0 1
106.231 0 1
106.347 0 1
106.463 0 1
106.579 0 1
106.694 0 1
106.81 0 1
106.926 0 1
107.041 0 1
107.157 0 1
109.576 0 1
109.692 0 1
109.807 0 1
109.923 0 1
110.039 0 1
110.155 0 1
110.27 0 1
110.386 0 1
110.502 0 1
110.618 94 9.69536
110.735 148 12.1655
110.851 162 12.7279
110.967 224 14.9666
111.083 261 16.1555
111.199 215 14.6629
111.316 275 16.5831
111.432 302 17.3781
111.549 304 17.4356
111.665 296 17.2047
111.782 290 17.0294
111.898 315 17.7482
112.015 290 17.0294
112.132 281 16.7631
112.248 256 16
112.365 268 16.3707
112.482 237 15.3948
112.599 225 15
112.716 230 15.1658
112.832 249 15.7797
112.949 257 16.0312
113.066 286 16.9115
113.183 309 17.5784
113.3 303 17.4069
113.417 298 17.2627
113.534 282 16.7929
113.652 311 17.6352
113.769 249 15.7797
113.886 261 16.1555
114.003 235 15.3297
114.12 218 14.7648
114.238 240 15.4919
114.355 258 16.0624
114.472 249 15.7797
114.589 296 17.2047
114.707 301 17.3494
114.824 306 17.4929
114.942 336 18.3303
115.059 330 18.1659
115.176 286 16.9115
115.294 301 17.3494
115.411 267 16.3401
115.529 326 18.0555
115.646 302 17.3781
115.764 258 16.0624
115.881 277 16.6433
115.999 261 16.1555
116.116 219 14.7986
116.234 244 15.6205
116.351 238 15.4272
116.469 284 16.8523
116.586 290 17.0294
116.704 300 17.3205
116.821 280 16.7332
116.939 276 16.6132
117.056 301 17.3494
117.174 274 16.5529
117.291 282 16.7929
117.409 261 16.1555
117.526 261 16.1555
117.644 206 14.3527
117.761 216 14.6969
117.879 254 15.9374
117.996 257 16.0312
118.114 287 16.9411
118.231 311 17.6352
118.349 313 17.6918
118.466 326 18.0555
118.584 327 18.0831
118.701 306 17.4929
118.819 332 18.2209
118.936 294 17.1464
119.053 311 17.6352
119.171 276 16.6132
119.288 283 16.8226
119.405 273 16.5227
119.523 254 15.9374
119.64 244 15.6205
119.757 240 15.4919
119.875 227 15.0665
119.992 256 16
120.109 233 15.2643
120.226 277 16.6433
120.343 290 17.0294
120.46 270 16.4317
120.578 255 15.9687
120.695 312 17.6635
120.812 282 16.7929
120.929 245 15.6525
121.046 232 15.2315
121.163 207 14.3875
121.279 219 14.7986
121.396 197 14.0357
121.513 244 15.6205
121.63 208 14.4222
121.747 214 14.6287
121.863 262 16.1864
121.98 248 15.748
122.097 251 15.843
122.213 225 15
122.33 218 14.7648
122.446 203 14.2478
122.563 173 13.1529
122.679 211 14.5258
122.795 195 13.9642
122.912 179 13.3791
123.028 137 11.7047
123.144 132 11.4891
123.26 108 10.3923
123.377 0 1
123.493 0 1
123.609 0 1
123.725 0 1
123.84 0 1
123.956 0 1
124.072 0 1
124.188 0 1
124.303 0 1
124.419 0 1
126.852 0 1
126.968 0 1
127.083 0 1
127.199 0 1
127.315 0 1
127.431 0 1
127.547 0 1
127.663 0 1
127.779 0 1
127.895 0 1
128.011 0 1
128.127 0 1
128.243 0 1
128.359 260 16.1245
128.476 258 16.0624
128.592 253 15.906
128.708 259 16.0935
128.825 231 15.1987
128.941 227 15.0665
129.058 267 16.3401
129.174 232 15.2315
129.291 261 16.1555
129.408 262 16.1864
129.524 331 18.1934
129.641 294 17.1464
129.758 292 17.088
129.875 289 17
129.992 307 17.5214
130.108 244 15.6205
130.225 254 15.9374
130.342 247 15.7162
130.459 235 15.3297
130.576 236 15.3623
130.693 251 15.843
130.81 248 15.748
130.928 281 16.7631
131.045 282 16.7929
131.162 271 16.4621
131.279 285 16.8819
131.396 321 17.9165
131.513 293 17.1172
131.631 323 17.9722
131.748 284 16.8523
131.865 269 16.4012
131.983 255 15.9687
132.1 264 16.2481
132.217 279 16.7033
132.335 237 15.3948
132.452 271 16.4621
132.57 228 15.0997
132.687 207 14.3875
132.804 252 15.8745
132.922 303 17.4069
133.039 293 17.1172
133.157 300 17.3205
133.274 285 16.8819
133.392 288 16.9706
133.509 275 16.5831
133.627 274 16.5529
133.744 246 15.6844
133.862 281 16.7631
133.979 242 15.5563
134.097 243 15.5885
134.214 278 16.6733
134.332 277 16.6433
134.449 261 16.1555
134.567 287 16.9411
134.684 288 16.9706
134.802 327 18.0831
134.919 323 17.9722
135.037 291 17.0587
135.154 273 16.5227
135.272 278 16.6733
135.389 306 17.4929
135.507 262 16.1864
135.624 248 15.748
135.742 247 15.7162
135.859 235 15.3297
135.977 271 16.4621
136.094 267 16.3401
136.211 250 15.8114
136.329 276 16.6132
136.446 299 17.2916
136.564 272 16.4924
136.681 279 16.7033
136.798 282 16.7929
136.915 287 16.9411
137.033 299 17.2916
137.15 286 16.9115
137.267 262 16.1864
137.384 268 16.3707
137.502 213 14.5945
137.619 221 14.8661
137.736 233 15.2643
137.853 247 15.7162
137.97 277 16.6433
138.087 257 16.0312
138.204 266 16.3095
138.321 274 16.5529
138.438 285 16.8819
138.555 253 15.906
138.672 293 17.1172
138.788 249 15.7797
138.905 258 16.0624
139.022 234 15.2971
139.139 237 15.3948
139.255 207 14.3875
139.372 218 14.7648
139.488 156 12.49
139.605 171 13.0767
139.721 164 12.8062
139.838 164 12.8062
139.954 160 12.6491
140.071 168 12.9615
140.187 143 11.9583
140.303 138 11.7473
140.419 136 11.6619
140.535 138 11.7473
140.652 127 11.2694
140.768 0 1
140.884 0 1
141 0 1
141.115 0 1
141.231 0 1
141.347 0 1
141.463 0 1
141.578 0 1
141.694 0 1
144.104 0 1
144.219 0 1
144.335 0 1
144.45 0 1
144.566 0 1
144.682 0 1
144.798 0 1
144.914 0 1
145.03 0 1
145.146 184 13.5647
145.262 204 14.2829
145.378 188 13.7113
145.494 211 14.5258
145.61 230 15.1658
145.726 234 15.2971
145.842 223 14.9332
145.959 211 14.5258
146.075 204 14.2829
146.192 180 13.4164
146.308 192 13.8564
146.425 182 13.4907
146.541 181 13.4536
146.658 199 14.1067
146.774 236 15.3623
146.891 194 13.9284
147.008 201 14.1774
147.125 207 14.3875
147.241 210 14.4914
147.358 205 14.3178
147.475 206 14.3527
147.592 222 14.8997
147.709 215 14.6629
147.826 186 13.6382
147.943 190 13.784
148.06 166 12.8841
148.177 197 14.0357
148.294 185 13.6015
148.411 184 13.5647
148.528 188 13.7113
148.645 208 14.4222
148.762 196 14
148.88 187 13.6748
148.997 198 14.0712
149.114 214 14.6287
149.231 205 14.3178
149.349 238 15.4272
149.466 219 14.7986
149.583 211 14.5258
149.701 205 14.3178
149.818 178 13.3417
149.935 189 13.7477
150.053 173 13.1529
150.17 179 13.3791
150.287 221 14.8661
150.405 184 13.5647
150.522 209 14.4568
150.64 226 15.0333
150.757 201 14.1774
150.875 240 15.4919
150.992 219 14.7986
151.11 207 14.3875
151.227 213 14.5945
151.344 219 14.7986
151.462 201 14.1774
151.579 187 13.6748
151.697 172 13.1149
151.814 183 13.5277
151.932 175 13.2288
152.049 184 13.5647
152.167 192 13.8564
152.284 208 14.4222
152.402 206 14.3527
152.519 213 14.5945
152.636 193 13.8924
152.754 192 13.8564
152.871 202 14.2127
152.989 211 14.5258
153.106 232 15.2315
153.223 197 14.0357
153.341 205 14.3178
153.458 183 13.5277
153.575 178 13.3417
153.693 159 12.6095
153.81 175 13.2288
153.927 226 15.0333
154.044 195 13.9642
154.162 184 13.5647
154.279 211 14.5258
154.396 193 13.8924
154.513 195 13.9642
154.63 206 14.3527
154.747 224 14.9666
154.864 217 14.7309
154.981 218 14.7648
155.098 191 13.8203
155.215 210 14.4914
155.332 186 13.6382
155.449 202 14.2127
155.566 208 14.4222
155.683 175 13.2288
155.8 162 12.7279
155.917 184 13.5647
156.033 174 13.1909
156.15 0 1
156.267 0 1
156.383 0 1
156.5 0 1
156.617 0 1
156.733 0 1
156.85 0 1
156.966 0 1
157.082 0 1
157.199 0 1
157.315 0 1
157.431 0 1
157.547 0 1
157.664 0 1
157.78 0 1
157.896 0 1
158.012 0 1
158.128 0 1
158.244 0 1
158.359 0 1
158.475 0 1
158.591 0 1
158.706 0 1
