
6.15755 0 1
6.2731 0 1
6.3887 0 1
6.50437 0 1
6.62009 0 1
6.73587 0 1
6.8517 0 1
6.96759 0 1
7.08353 0 1
7.19952 0 1
7.31557 0 1
7.43166 0 1
7.54781 0 1
7.664 0 1
7.78024 0 1
7.89653 0 1
8.01286 0 1
8.12924 0 1
8.24567 0 1
8.36213 0 1
8.47864 0 1
8.59519 0 1
8.71178 0 1
8.82841 0 1
8.94508 0 1
9.06179 0 1
9.17853 0 1
9.29531 0 1
9.41212 0 1
9.52897 0 1
9.64584 0 1
9.76276 0 1
9.8797 0 1
9.99667 0 1
10.1137 0 1
10.2307 0 1
10.3478 0 1
10.4648 0 1
10.5819 0 1
10.6991 0 1
10.8162 0 1
10.9334 0 1
11.0506 0 1
11.1678 0 1
11.285 0 1
11.4023 0 1
11.5196 0 1
11.6369 0 1
11.7542 0 1
11.8715 0 1
11.9888 0 1
12.1062 0 1
12.2235 0 1
12.3409 0 1
12.4582 0 1
12.5756 0 1
12.693 0 1
12.8104 0 1
12.9278 0 1
13.0452 0 1
13.1626 0 1
13.28 0 1
13.3974 0 1
13.5149 0 1
13.6323 0 1
13.7497 0 1
13.8671 0 1
13.9845 0 1
14.1019 0 1
14.2193 0 1
14.3367 0 1
14.4541 0 1
14.5714 0 1
14.6888 0 1
14.8062 0 1
14.9235 0 1
15.0408 3460 58.8218
15.1581 3628 60.2329
15.2755 3659 60.4897
15.3927 3714 60.9426
15.51 3746 61.2046
15.6273 3825 61.8466
15.7445 3732 61.0901
15.8617 3801 61.6523
15.9789 3862 62.145
16.0961 3762 61.3351
16.2132 3889 62.3618
16.3304 3858 62.1128
16.4475 3955 62.8888
16.5646 3847 62.0242
16.6816 3796 61.6117
16.7986 3966 62.9762
16.9156 4013 63.3482
17.0326 4033 63.5059
17.1496 3996 63.2139
17.2665 4171 64.5833
17.3833 4062 63.7338
17.5002 4069 63.7887
17.617 4147 64.3972
17.7338 4064 63.7495
17.8505 3968 62.9921
17.9672 3705 60.8687
18.0839 3447 58.7112
18.2005 3532 59.4306
18.3171 3540 59.4979
18.4337 3909 62.522
18.5502 4229 65.0308
18.6666 4481 66.9403
18.7831 4474 66.888
18.8994 4650 68.1909
19.0158 4625 68.0074
19.1321 4549 67.4463
19.2483 4441 66.6408
19.3645 4567 67.5796
19.4806 4525 67.2681
19.5967 4511 67.164
19.7128 4638 68.1029
19.8288 4409 66.4003
19.9447 3991 63.1744
20.0606 0 1
20.1764 0 1
20.2922 0 1
20.4079 0 1
20.5236 0 1
20.6392 0 1
20.7548 0 1
20.8702 0 1
23.3078 0 1
23.4233 0 1
23.539 0 1
23.6547 0 1
23.7704 0 1
23.8862 0 1
24.0021 0 1
24.118 0 1
24.234 0 1
24.35 0 1
24.4661 4938 70.2709
24.5822 4930 70.214
24.6984 4939 70.278
24.8146 5006 70.7531
24.9309 4963 70.4486
25.0472 4980 70.5691
25.1636 4758 68.9783
25.28 4738 68.8331
25.3965 4786 69.1809
25.513 4850 69.6419
25.6296 4988 70.6258
25.7462 5126 71.5961
25.8628 5181 71.9792
25.9795 5213 72.2011
26.0962 5161 71.8401
26.213 5359 73.2052
26.3298 5214 72.208
26.4466 5371 73.2871
26.5635 5168 71.8888
26.6804 4976 70.5408
26.7973 4838 69.5557
26.9143 4511 67.164
27.0313 4316 65.6963
27.1483 4394 66.2873
27.2653 4628 68.0294
27.3824 4847 69.6204
27.4996 5046 71.0352
27.6167 5076 71.2461
27.7339 5112 71.4983
27.8511 5110 71.4843
27.9683 4963 70.4486
28.0855 5242 72.4017
28.2028 5138 71.6798
28.3201 5093 71.3653
28.4374 4998 70.6965
28.5547 4953 70.3776
28.6721 4792 69.2243
28.7894 4871 69.7925
28.9068 4879 69.8498
29.0242 4825 69.4622
29.1416 4936 70.2567
29.259 5105 71.4493
29.3764 5250 72.4569
29.4939 5306 72.8423
29.6113 5251 72.4638
29.7288 5345 73.1095
29.8463 5296 72.7736
29.9638 5094 71.3723
30.0812 5136 71.6659
30.1987 5059 71.1266
30.3162 4771 69.0724
30.4337 4570 67.6018
30.5512 4348 65.9394
30.6687 4402 66.3476
30.7862 4359 66.0227
30.9037 4715 68.6659
31.0212 4836 69.5414
31.1387 4961 70.4344
31.2562 5027 70.9013
31.3737 5070 71.2039
31.4912 5204 72.1388
31.6087 5105 71.4493
31.7262 5156 71.8053
31.8436 5304 72.8286
31.9611 4979 70.562
32.0785 4906 70.0428
32.1959 4904 70.0286
32.3134 4750 68.9202
32.4308 4885 69.8928
32.5482 4954 70.3847
32.6655 4907 70.05
32.7829 5056 71.1056
32.9002 5288 72.7186
33.0176 5160 71.8331
33.1349 5265 72.5603
33.2522 5337 73.0548
33.3694 5192 72.0555
33.4867 5275 72.6292
33.6039 5205 72.1457
33.7211 5133 71.645
33.8383 4869 69.7782
33.9554 4768 69.0507
34.0725 4567 67.5796
34.1896 4511 67.164
34.3067 4257 65.2457
34.4237 4343 65.9014
34.5407 4490 67.0075
34.6577 4631 68.0515
34.7746 4877 69.8355
34.8915 4782 69.152
35.0084 4841 69.5773
35.1252 4963 70.4486
35.242 5091 71.3512
35.3587 5111 71.4913
35.4755 4995 70.6753
35.5921 5043 71.0141
35.7088 5167 71.8818
35.8254 4784 69.1665
35.9419 4776 69.1086
36.0584 4807 69.3325
36.1749 4880 69.857
36.2913 4909 70.0643
36.4077 4871 69.7925
36.524 4909 70.0643
36.6403 5067 71.1829
36.7565 5066 71.1758
36.8727 5130 71.624
36.9889 5023 70.8731
37.1049 4863 69.7352
37.221 0 1
37.3369 0 1
37.4529 0 1
37.5687 0 1
37.6845 0 1
37.8003 0 1
37.916 0 1
38.0316 0 1
38.1472 0 1
40.5851 0 1
40.7008 0 1
40.8164 0 1
40.9322 0 1
41.048 0 1
41.1639 0 1
41.2798 0 1
41.3958 0 1
41.5118 0 1
41.6279 0 1
41.744 3982 63.1031
41.8602 4164 64.5291
41.9765 4089 63.9453
42.0928 4263 65.2917
42.2091 4352 65.9697
42.3255 4247 65.169
42.4419 4397 66.3099
42.5584 4314 65.681
42.675 4212 64.8999
42.7915 4268 65.3299
42.9081 3983 63.111
43.0248 3806 61.6928
43.1415 3818 61.79
43.2582 3769 61.3922
43.375 3763 61.3433
43.4918 3869 62.2013
43.6087 4039 63.5531
43.7256 3894 62.4019
43.8425 3756 61.2862
43.9595 3681 60.6712
44.0765 4005 63.2851
44.1935 3877 62.2656
44.3106 3793 61.5873
44.4277 3836 61.9355
44.5448 3699 60.8194
44.6619 3494 59.1101
44.7791 3465 58.8643
44.8963 3415 58.438
45.0136 3355 57.9224
45.1308 3450 58.7367
45.2481 3414 58.4294
45.3654 3516 59.2959
45.4827 3479 58.983
45.6001 3408 58.3781
45.7174 3464 58.8558
45.8348 3459 58.8133
45.9522 3481 59
46.0697 3311 57.5413
46.1871 3281 57.28
46.3046 3181 56.4004
46.422 3202 56.5862
46.5395 3002 54.7905
46.657 2991 54.69
46.7745 2978 54.5711
46.892 2890 53.7587
47.0096 3035 55.0908
47.1271 3012 54.8817
47.2446 3022 54.9727
47.3622 3006 54.827
47.4797 2841 53.301
47.5973 2822 53.1225
47.7149 2911 53.9537
47.8324 2951 54.3231
47.95 2913 53.9722
48.0675 2652 51.4976
48.1851 2745 52.3927
48.3027 2699 51.9519
48.4202 2719 52.144
48.5378 2606 51.049
48.6554 2732 52.2685
48.7729 2854 53.4228
48.8904 2913 53.9722
49.008 2852 53.4041
49.1255 2896 53.8145
49.243 2899 53.8424
49.3605 2936 54.1849
49.478 2845 53.3385
49.5955 2936 54.1849
49.713 2962 54.4243
49.8304 2859 53.4696
49.9479 2804 52.9528
50.0653 2757 52.5071
50.1827 2687 51.8363
50.3001 2646 51.4393
50.4175 2716 52.1153
50.5348 2704 52
50.6521 2908 53.9259
50.7694 2883 53.6936
50.8867 2990 54.6809
51.004 2924 54.074
51.1212 2981 54.5985
51.2384 3258 57.0789
51.3556 3292 57.376
51.4727 3335 57.7495
51.5899 3339 57.7841
51.707 3306 57.4978
51.824 3255 57.0526
51.9411 3348 57.8619
52.0581 3460 58.8218
52.175 3588 59.8999
52.2919 3689 60.7371
52.4088 3843 61.9919
52.5257 3844 62
52.6425 3852 62.0645
52.7593 4044 63.5925
52.876 3989 63.1585
52.9927 4020 63.4035
53.1094 4097 64.0078
53.226 4089 63.9453
53.3426 4075 63.8357
53.4591 4059 63.7103
53.5756 3979 63.0793
53.692 3985 63.1269
53.8084 3790 61.563
53.9248 3815 61.7657
54.0411 3762 61.3351
54.1573 3827 61.8628
54.2735 0 1
54.3896 0 1
54.5057 0 1
54.6217 0 1
54.7377 0 1
54.8537 0 1
54.9695 0 1
55.0853 0 1
55.2011 0 1
55.3168 0 1
55.4324 0 1
57.824 0 1
57.9396 0 1
58.0553 0 1
58.1711 0 1
58.2869 0 1
58.4028 0 1
58.5187 0 1
58.6347 0 1
58.7508 0 1
58.8669 0 1
58.983 4544 67.4092
59.0992 4515 67.1937
59.2155 4496 67.0522
59.3318 4599 67.8159
59.4482 4577 67.6535
59.5646 4624 68
59.681 4573 67.624
59.7975 4450 66.7083
59.9141 4547 67.4314
60.0306 4588 67.7348
60.1473 4694 68.5128
60.2639 4532 67.3201
60.3807 4461 66.7907
60.4974 4414 66.4379
60.6142 4496 67.0522
60.731 4542 67.3944
60.8479 4622 67.9853
60.9648 4633 68.0661
61.0818 4822 69.4406
61.1987 4685 68.4471
61.3158 4665 68.3008
61.4328 4798 69.2676
61.5499 4768 69.0507
61.667 4507 67.1342
61.7841 4552 67.4685
61.9013 4628 68.0294
62.0185 4477 66.9104
62.1357 4549 67.4463
62.253 4414 66.4379
62.3702 4426 66.5282
62.4875 4329 65.7951
62.6049 4243 65.1383
62.7222 4343 65.9014
62.8396 4388 66.242
62.9569 4317 65.7039
63.0743 4120 64.1872
63.1918 4122 64.2028
63.3092 4020 63.4035
63.4267 4106 64.0781
63.5441 4201 64.8151
63.6616 4077 63.8514
63.7791 4142 64.3584
63.8966 4042 63.5767
64.0142 4100 64.0312
64.1317 4118 64.1716
64.2492 4301 65.582
64.3668 4154 64.4515
64.4843 4340 65.8787
64.6019 4293 65.521
64.7195 4283 65.4446
64.837 4364 66.0606
64.9546 4302 65.5896
65.0722 4375 66.1438
65.1898 4309 65.643
65.3074 4209 64.8768
65.4249 4171 64.5833
65.5425 4268 65.3299
65.6601 4138 64.3273
65.7777 4124 64.2184
65.8952 4136 64.3117
66.0128 4047 63.616
66.1304 3906 62.498
66.2479 4007 63.3009
66.3655 4063 63.7417
66.483 4075 63.8357
66.6005 4105 64.0703
66.718 3905 62.49
66.8355 3947 62.8252
66.953 3800 61.6441
67.0705 3850 62.0484
67.1879 3909 62.522
67.3054 3892 62.3859
67.4228 3850 62.0484
67.5402 3911 62.538
67.6576 3890 62.3699
67.7749 3912 62.546
67.8923 4110 64.1093
68.0096 4180 64.6529
68.1269 4182 64.6684
68.2442 4301 65.582
68.3614 4295 65.5362
68.4787 4432 66.5733
68.5958 4340 65.8787
68.713 4349 65.9469
68.8302 4148 64.405
68.9473 4369 66.0984
69.0643 4316 65.6963
69.1814 4391 66.2646
69.2984 4363 66.053
69.4154 4247 65.169
69.5323 4383 66.2042
69.6492 4396 66.3023
69.7661 4242 65.1306
69.8829 4437 66.6108
69.9997 4433 66.5808
70.1165 4440 66.6333
70.2332 4279 65.4141
70.3499 4220 64.9615
70.4665 4168 64.56
70.5831 3926 62.6578
70.6996 3868 62.1932
70.8161 3849 62.0403
70.9326 3807 61.7009
71.049 3910 62.53
71.1653 3916 62.578
71.2817 4126 64.2339
71.3979 3942 62.7853
71.5141 4004 63.2772
71.6303 3951 62.857
71.7464 3739 61.1474
71.8624 0 1
71.9784 0 1
72.0944 0 1
72.2102 0 1
72.3261 0 1
72.4418 0 1
72.5575 0 1
72.6732 0 1
75.1054 0 1
75.2209 0 1
75.3365 0 1
75.4521 0 1
75.5678 0 1
75.6835 0 1
75.7993 0 1
75.9151 0 1
76.031 0 1
76.147 3306 57.4978
76.263 3710 60.9098
76.3791 3688 60.7289
76.4952 3745 61.1964
76.6113 3984 63.1189
76.7276 4012 63.3404
76.8438 3946 62.8172
76.9601 4172 64.591
77.0765 4359 66.0227
77.1929 4325 65.7647
77.3093 4385 66.2193
77.4258 4473 66.8805
77.5423 4370 66.106
77.6589 4354 65.9848
77.7755 4430 66.5582
77.8921 4206 64.8537
78.0088 4205 64.846
78.1256 4227 65.0154
78.2423 4162 64.5136
78.3591 4205 64.846
78.4759 4242 65.1306
78.5928 4280 65.4217
78.7097 4295 65.5362
78.8266 4191 64.7379
78.9436 4503 67.1044
79.0606 4207 64.8614
79.1776 4216 64.9307
79.2946 4261 65.2763
79.4117 4169 64.5678
79.5288 3842 61.9839
79.6459 3664 60.531
79.7631 3576 59.7997
79.8802 3576 59.7997
79.9974 3659 60.4897
80.1147 3770 61.4003
80.2319 3591 59.925
80.3491 3760 61.3188
80.4664 4081 63.8827
80.5837 4110 64.1093
80.701 4155 64.4593
80.8183 4130 64.2651
80.9357 4111 64.1171
81.053 4134 64.2962
81.1704 4129 64.2573
81.2877 4031 63.4902
81.4051 4079 63.867
81.5225 3940 62.7694
81.6399 4058 63.7024
81.7573 4034 63.5138
81.8747 3941 62.7774
81.9922 3808 61.709
82.1096 4053 63.6632
82.227 4016 63.3719
82.3444 4009 63.3167
82.4619 4051 63.6475
82.5793 3988 63.1506
82.6967 3937 62.7455
82.8142 3913 62.554
82.9316 3928 62.6738
83.049 3697 60.803
83.1664 3357 57.9396
83.2838 3253 57.0351
83.4012 3105 55.7225
83.5186 2943 54.2494
83.636 2959 54.3967
83.7534 3180 56.3915
83.8708 3323 57.6455
83.9881 3529 59.4054
84.1055 3664 60.531
84.2228 3712 60.9262
84.3401 3787 61.5386
84.4575 3763 61.3433
84.5747 3873 62.2334
84.692 3938 62.7535
84.8093 3854 62.0806
84.9265 3780 61.4817
85.0437 3800 61.6441
85.1609 3702 60.8441
85.2781 3623 60.1914
85.3952 3729 61.0655
85.5123 3819 61.7981
85.6294 3945 62.8092
85.7465 4032 63.498
85.8636 4031 63.4902
85.9806 4092 63.9687
86.0976 4153 64.4438
86.2145 4051 63.6475
86.3315 4233 65.0615
86.4484 3874 62.2415
86.5652 4113 64.1327
86.682 4138 64.3273
86.7988 3789 61.5549
86.9156 3577 59.808
87.0323 3330 57.7062
87.149 3378 58.1206
87.2657 3479 58.983
87.3823 3568 59.7327
87.4988 3722 61.0082
87.6154 4009 63.3167
87.7318 4247 65.169
87.8483 4216 64.9307
87.9647 4286 65.4675
88.081 4327 65.7799
88.1973 4376 66.1513
88.3136 4456 66.7533
88.4298 4351 65.9621
88.546 4313 65.6734
88.6621 4220 64.9615
88.7781 4162 64.5136
88.8942 0 1
89.0101 0 1
89.126 0 1
89.2419 0 1
89.3577 0 1
89.4734 0 1
89.5891 0 1
89.7047 0 1
89.8203 0 1
89.9358 0 1
92.3269 0 1
92.4424 0 1
92.558 0 1
92.6736 0 1
92.7893 0 1
92.905 0 1
93.0208 0 1
93.1366 0 1
93.2525 0 1
93.3685 0 1
93.4845 0 1
93.6005 4260 65.2687
93.7167 4401 66.34
93.8328 4344 65.909
93.949 4299 65.5668
94.0653 4260 65.2687
94.1816 4269 65.3376
94.2979 4115 64.1483
94.4143 4137 64.3195
94.5307 4190 64.7302
94.6472 4247 65.169
94.7637 4346 65.9242
94.8803 4430 66.5582
94.9969 4539 67.3721
95.1135 4344 65.909
95.2302 4524 67.2607
95.3469 4483 66.9552
95.4637 4529 67.2978
95.5805 4407 66.3852
95.6973 4415 66.4455
95.8142 4370 66.106
95.9311 4088 63.9375
96.048 3792 61.5792
96.1649 3467 58.8812
96.2819 3293 57.3847
96.3989 3311 57.5413
96.516 3409 58.3866
96.633 3499 59.1523
96.7501 3973 63.0317
96.8673 4206 64.8537
96.9844 4347 65.9318
97.1016 4428 66.5432
97.2188 4571 67.6092
97.336 4390 66.2571
97.4532 4639 68.1102
97.5704 4517 67.2086
97.6877 4410 66.4078
97.805 4471 66.8655
97.9223 4262 65.284
98.0396 4235 65.0769
98.1569 4533 67.3276
98.2743 4354 65.9848
98.3916 4455 66.7458
98.509 4519 67.2235
98.6264 4555 67.4907
98.7438 4680 68.4105
98.8612 4578 67.6609
98.9786 4583 67.6979
99.096 4553 67.4759
99.2134 4564 67.5574
99.3308 4641 68.1249
99.4482 4567 67.5796
99.5656 4474 66.888
99.6831 4007 63.3009
99.8005 3757 61.2944
99.9179 3390 58.2237
100.035 3410 58.3952
100.153 3572 59.7662
100.27 3973 63.0317
100.388 4266 65.3146
100.505 4421 66.4906
100.622 4490 67.0075
100.74 4604 67.8528
100.857 4636 68.0882
100.975 4555 67.4907
101.092 4613 67.9191
101.209 4552 67.4685
101.327 4392 66.2722
101.444 4385 66.2193
101.561 4479 66.9253
101.679 4527 67.283
101.796 4454 66.7383
101.913 4532 67.3201
102.03 4641 68.1249
102.148 4685 68.4471
102.265 4603 67.8454
102.382 4885 69.8928
102.499 4720 68.7023
102.616 4769 69.0579
102.733 4861 69.7209
102.851 4942 70.2994
102.968 4841 69.5773
103.085 4716 68.6731
103.202 4425 66.5207
103.319 3908 62.514
103.436 3507 59.2199
103.552 3392 58.2409
103.669 3573 59.7746
103.786 4021 63.4114
103.903 4496 67.0522
104.02 4628 68.0294
104.137 4864 69.7424
104.253 4781 69.1448
104.37 4886 69.8999
104.487 4905 70.0357
104.603 4885 69.8928
104.72 4780 69.1375
104.836 4676 68.3813
104.953 4511 67.164
105.069 4717 68.6804
105.186 4745 68.884
105.302 4818 69.4118
105.418 4870 69.7854
105.535 5039 70.9859
105.651 5051 71.0704
105.767 4981 70.5762
105.883 5130 71.624
105.999 5251 72.4638
106.115 0 1
106.231 0 1
106.347 0 1
106.463 0 1
106.579 0 1
106.694 0 1
106.81 0 1
106.926 0 1
107.041 0 1
107.157 0 1
109.576 0 1
109.692 0 1
109.807 0 1
109.923 0 1
110.039 0 1
110.155 0 1
110.27 0 1
110.386 0 1
110.502 0 1
110.618 4643 68.1396
110.735 4735 68.8113
110.851 4924 70.1712
110.967 4916 70.1142
111.083 4971 70.5053
111.199 4937 70.2638
111.316 4863 69.7352
111.432 4823 69.4478
111.549 4880 69.857
111.665 4828 69.4838
111.782 4414 66.4379
111.898 3898 62.434
112.015 3208 56.6392
112.132 2898 53.8331
112.248 3160 56.2139
112.365 3727 61.0492
112.482 4031 63.4902
112.599 4582 67.6905
112.716 4661 68.2715
112.832 4655 68.2276
112.949 4709 68.6222
113.066 4514 67.1863
113.183 4563 67.55
113.3 4451 66.7158
113.417 4471 66.8655
113.534 4471 66.8655
113.652 4286 65.4675
113.769 4690 68.4836
113.886 4377 66.1589
114.003 4460 66.7832
114.12 4615 67.9338
114.238 4542 67.3944
114.355 4638 68.1029
114.472 4603 67.8454
114.589 4824 69.455
114.707 4656 68.2349
114.824 4613 67.9191
114.942 4698 68.542
115.059 4676 68.3813
115.176 4524 67.2607
115.294 4332 65.8179
115.411 4123 64.2106
115.529 3535 59.4559
115.646 2918 54.0185
115.764 2862 53.4977
115.881 3215 56.701
115.999 3710 60.9098
116.116 4205 64.846
116.234 4316 65.6963
116.351 4266 65.3146
116.469 4316 65.6963
116.586 4408 66.3928
116.704 4312 65.6658
116.821 4291 65.5057
116.939 4209 64.8768
117.056 4080 63.8749
117.174 4219 64.9538
117.291 4111 64.1171
117.409 4161 64.5058
117.526 4196 64.7765
117.644 4294 65.5286
117.761 4277 65.3988
117.879 4341 65.8863
117.996 4358 66.0151
118.114 4330 65.8027
118.231 4285 65.4599
118.349 4384 66.2118
118.466 4396 66.3023
118.584 4455 66.7458
118.701 4246 65.1613
118.819 4227 65.0154
118.936 4028 63.4665
119.053 3734 61.1065
119.171 3254 57.0438
119.288 2548 50.4777
119.405 2484 49.8397
119.523 2962 54.4243
119.64 3508 59.2284
119.757 3793 61.5873
119.875 4116 64.1561
119.992 4076 63.8436
120.109 4124 64.2184
120.226 4108 64.0937
120.343 3991 63.1744
120.46 3894 62.4019
120.578 3992 63.1823
120.695 3745 61.1964
120.812 3903 62.474
120.929 3869 62.2013
121.046 3814 61.7576
121.163 3978 63.0714
121.279 3916 62.578
121.396 4021 63.4114
121.513 4152 64.436
121.63 4122 64.2028
121.747 4107 64.0859
121.863 4171 64.5833
121.98 4192 64.7457
122.097 4143 64.3661
122.213 4123 64.2106
122.33 4085 63.914
122.446 4081 63.8827
122.563 3968 62.9921
122.679 3861 62.1369
122.795 3452 58.7537
122.912 2950 54.3139
123.028 2433 49.3254
123.144 2336 48.3322
123.26 2665 51.6236
123.377 0 1
123.493 0 1
123.609 0 1
123.725 0 1
123.84 0 1
123.956 0 1
124.072 0 1
124.188 0 1
124.303 0 1
124.419 0 1
126.852 0 1
126.968 0 1
127.083 0 1
127.199 0 1
127.315 0 1
127.431 0 1
127.547 0 1
127.663 0 1
127.779 0 1
127.895 0 1
128.011 0 1
128.127 0 1
128.243 0 1
128.359 2346 48.4355
128.476 2609 51.0784
128.592 3195 56.5243
128.708 3879 62.2816
128.825 4215 64.923
128.941 4249 65.1844
129.058 4109 64.1015
129.174 4140 64.3428
129.291 4080 63.8749
129.408 3971 63.0159
129.524 3890 62.3699
129.641 3939 62.7615
129.758 3849 62.0403
129.875 3912 62.546
129.992 3895 62.4099
130.108 3922 62.6259
130.225 3960 62.9285
130.342 4099 64.0234
130.459 3993 63.1902
130.576 4102 64.0469
130.693 4049 63.6318
130.81 4089 63.9453
130.928 4011 63.3325
131.045 4171 64.5833
131.162 4088 63.9375
131.279 4050 63.6396
131.396 4012 63.3404
131.513 3829 61.8789
131.631 3588 59.8999
131.748 2958 54.3875
131.865 2300 47.9583
131.983 2249 47.4236
132.1 2803 52.9434
132.217 3474 58.9406
132.335 3895 62.4099
132.452 3844 62
132.57 3777 61.4573
132.687 3779 61.4736
132.804 3783 61.5061
132.922 3711 60.918
133.039 3592 59.9333
133.157 3795 61.6036
133.274 3614 60.1166
133.392 3724 61.0246
133.509 3636 60.2993
133.627 3672 60.597
133.744 3834 61.9193
133.862 3674 60.6135
133.979 3782 61.498
134.097 3847 62.0242
134.214 3729 61.0655
134.332 3662 60.5145
134.449 3760 61.3188
134.567 3778 61.4654
134.684 3744 61.1882
134.802 3722 61.0082
134.919 3858 62.1128
135.037 3809 61.7171
135.154 3533 59.439
135.272 3240 56.921
135.389 2433 49.3254
135.507 2017 44.911
135.624 2285 47.8017
135.742 2932 54.1479
135.859 3346 57.8446
135.977 3684 60.696
136.094 3745 61.1964
136.211 3727 61.0492
136.329 3531 59.4222
136.446 3598 59.9833
136.564 3534 59.4475
136.681 3460 58.8218
136.798 3524 59.3633
136.915 3373 58.0775
137.033 3466 58.8727
137.15 3430 58.5662
137.267 3416 58.4466
137.384 3408 58.3781
137.502 3549 59.5735
137.619 3412 58.4123
137.736 3547 59.5567
137.853 3502 59.1777
137.97 3548 59.5651
138.087 3487 59.0508
138.204 3730 61.0737
138.321 3732 61.0901
138.438 3702 60.8441
138.555 3601 60.0083
138.672 3561 59.6741
138.788 3379 58.1292
138.905 3167 56.2761
139.022 2486 49.8598
139.139 1971 44.3959
139.255 2169 46.5725
139.372 2763 52.5642
139.488 3393 58.2495
139.605 3589 59.9083
139.721 3626 60.2163
139.838 3659 60.4897
139.954 3619 60.1581
140.071 3547 59.5567
140.187 3451 58.7452
140.303 3399 58.3009
140.419 3423 58.5064
140.535 3434 58.6003
140.652 3338 57.7754
140.768 0 1
140.884 0 1
141 0 1
141.115 0 1
141.231 0 1
141.347 0 1
141.463 0 1
141.578 0 1
141.694 0 1
144.104 0 1
144.219 0 1
144.335 0 1
144.45 0 1
144.566 0 1
144.682 0 1
144.798 0 1
144.914 0 1
145.03 0 1
145.146 2365 48.6313
145.262 2461 49.6085
145.378 2555 50.547
145.494 2557 50.5668
145.61 2421 49.2037
145.726 2479 49.7896
145.842 2551 50.5074
145.959 2401 49
146.075 2413 49.1223
146.192 2514 50.1398
146.308 2616 51.1468
146.425 2493 49.93
146.541 2614 51.1273
146.658 2519 50.1896
146.774 2597 50.9608
146.891 2600 50.9902
147.008 2678 51.7494
147.125 2630 51.2835
147.241 2656 51.5364
147.358 2629 51.2738
147.475 2588 50.8724
147.592 2653 51.5073
147.709 2581 50.8035
147.826 2326 48.2286
147.943 1752 41.8569
148.06 1433 37.855
148.177 1444 38
148.294 1848 42.9884
148.411 2395 48.9387
148.528 2656 51.5364
148.645 2455 49.548
148.762 2640 51.3809
148.88 2559 50.5866
148.997 2501 50.01
149.114 2611 51.0979
149.231 2556 50.5569
149.349 2523 50.2295
149.466 2417 49.163
149.583 2484 49.8397
149.701 2410 49.0918
149.818 2493 49.93
149.935 2363 48.6107
150.053 2390 48.8876
150.17 2514 50.1398
150.287 2503 50.03
150.405 2646 51.4393
150.522 2626 51.2445
150.64 2647 51.449
150.757 2658 51.5558
150.875 2721 52.1632
150.992 2675 51.7204
151.11 2717 52.1249
151.227 2682 51.788
151.344 2674 51.7107
151.462 2504 50.04
151.579 2272 47.6655
151.697 1781 42.2019
151.814 1411 37.5633
151.932 1625 40.3113
152.049 2126 46.1086
152.167 2616 51.1468
152.284 2686 51.8266
152.402 2801 52.9245
152.519 2770 52.6308
152.636 2775 52.6783
152.754 2688 51.8459
152.871 2641 51.3907
152.989 2633 51.3128
153.106 2693 51.8941
153.223 2611 51.0979
153.341 2667 51.643
153.458 2520 50.1996
153.575 2661 51.5849
153.693 2733 52.2781
153.81 2811 53.0189
153.927 2808 52.9906
154.044 2779 52.7162
154.162 2977 54.5619
154.279 2960 54.4059
154.396 3026 55.0091
154.513 3062 55.3353
154.63 3097 55.6507
154.747 3061 55.3263
154.864 3160 56.2139
154.981 3092 55.6058
155.098 2900 53.8516
155.215 2484 49.8397
155.332 2029 45.0444
155.449 2053 45.31
155.566 2628 51.264
155.683 2982 54.6077
155.8 3227 56.8067
155.917 3178 56.3738
156.033 3237 56.8946
156.15 0 1
156.267 0 1
156.383 0 1
156.5 0 1
156.617 0 1
156.733 0 1
156.85 0 1
156.966 0 1
157.082 0 1
157.199 0 1
157.315 0 1
157.431 0 1
157.547 0 1
157.664 0 1
157.78 0 1
157.896 0 1
158.012 0 1
158.128 0 1
158.244 0 1
158.359 0 1
158.475 0 1
158.591 0 1
158.706 0 1
