
6.15755 0 1
6.2731 0 1
6.3887 0 1
6.50437 0 1
6.62009 0 1
6.73587 0 1
6.8517 0 1
6.96759 0 1
7.08353 0 1
7.19952 0 1
7.31557 0 1
7.43166 0 1
7.54781 0 1
7.664 0 1
7.78024 0 1
7.89653 0 1
8.01286 0 1
8.12924 0 1
8.24567 0 1
8.36213 0 1
8.47864 0 1
8.59519 0 1
8.71178 0 1
8.82841 0 1
8.94508 0 1
9.06179 0 1
9.17853 0 1
9.29531 0 1
9.41212 0 1
9.52897 0 1
9.64584 0 1
9.76276 0 1
9.8797 0 1
9.99667 0 1
10.1137 0 1
10.2307 0 1
10.3478 0 1
10.4648 0 1
10.5819 0 1
10.6991 0 1
10.8162 0 1
10.9334 0 1
11.0506 0 1
11.1678 0 1
11.285 0 1
11.4023 0 1
11.5196 0 1
11.6369 0 1
11.7542 0 1
11.8715 0 1
11.9888 0 1
12.1062 0 1
12.2235 0 1
12.3409 0 1
12.4582 0 1
12.5756 0 1
12.693 0 1
12.8104 0 1
12.9278 0 1
13.0452 0 1
13.1626 0 1
13.28 0 1
13.3974 0 1
13.5149 0 1
13.6323 0 1
13.7497 0 1
13.8671 0 1
13.9845 0 1
14.1019 0 1
14.2193 0 1
14.3367 0 1
14.4541 0 1
14.5714 0 1
14.6888 0 1
14.8062 0 1
14.9235 0 1
15.0408 0 0
15.1581 0 0
15.2755 0 0
15.3927 0 0
15.51 0 0
15.6273 0 0
15.7445 0 0
15.8617 0 0
15.9789 0 0
16.0961 0 0
16.2132 0 0
16.3304 0 0
16.4475 0 0
16.5646 0 0
16.6816 0 0
16.7986 0 0
16.9156 0 0
17.0326 0 0
17.1496 0 0
17.2665 0 0
17.3833 0 0
17.5002 0 0
17.617 0 0
17.7338 0 0
17.8505 0 0
17.9672 0 0
18.0839 0 0
18.2005 0 0
18.3171 0 0
18.4337 0 0
18.5502 0 0
18.6666 0 0
18.7831 0 0
18.8994 0 0
19.0158 0 0
19.1321 0 0
19.2483 0 0
19.3645 0 0
19.4806 0 0
19.5967 0 0
19.7128 0 0
19.8288 0 0
19.9447 0 0
20.0606 0 1
20.1764 0 1
20.2922 0 1
20.4079 0 1
20.5236 0 1
20.6392 0 1
20.7548 0 1
20.8702 0 1
23.3078 0 1
23.4233 0 1
23.539 0 1
23.6547 0 1
23.7704 0 1
23.8862 0 1
24.0021 0 1
24.118 0 1
24.234 0 1
24.35 0 1
24.4661 1246 35.2987
24.5822 1298 36.0278
24.6984 1249 35.3412
24.8146 1320 36.3318
24.9309 1308 36.1663
25.0472 1200 34.641
25.1636 1172 34.2345
25.28 1273 35.6791
25.3965 1225 35
25.513 1201 34.6554
25.6296 1266 35.5809
25.7462 1312 36.2215
25.8628 1345 36.6742
25.9795 1323 36.3731
26.0962 1268 35.609
26.213 1341 36.6197
26.3298 1306 36.1386
26.4466 1268 35.609
26.5635 1221 34.9428
26.6804 1192 34.5254
26.7973 1165 34.1321
26.9143 1244 35.2704
27.0313 1314 36.2491
27.1483 1315 36.2629
27.2653 1373 37.054
27.3824 1369 37
27.4996 1421 37.6962
27.6167 1357 36.8375
27.7339 1304 36.1109
27.8511 1311 36.2077
27.9683 1297 36.0139
28.0855 1269 35.623
28.2028 1244 35.2704
28.3201 1155 33.9853
28.4374 1163 34.1028
28.5547 1161 34.0735
28.6721 1060 32.5576
28.7894 1205 34.7131
28.9068 1095 33.0908
29.0242 1214 34.8425
29.1416 1145 33.8378
29.259 1220 34.9285
29.3764 1164 34.1174
29.4939 1155 33.9853
29.6113 1160 34.0588
29.7288 1188 34.4674
29.8463 1207 34.7419
29.9638 1167 34.1614
30.0812 1135 33.6898
30.1987 1137 33.7194
30.3162 1079 32.8481
30.4337 1154 33.9706
30.5512 1195 34.5688
30.6687 1233 35.1141
30.7862 1261 35.5106
30.9037 1284 35.8329
31.0212 1285 35.8469
31.1387 1252 35.3836
31.2562 1214 34.8425
31.3737 1277 35.7351
31.4912 1202 34.6699
31.6087 1289 35.9026
31.7262 1258 35.4683
31.8436 1167 34.1614
31.9611 1169 34.1906
32.0785 1089 33
32.1959 1116 33.4066
32.3134 1143 33.8083
32.4308 1116 33.4066
32.5482 1139 33.7491
32.6655 1073 32.7567
32.7829 1092 33.0454
32.9002 1101 33.1813
33.0176 1123 33.5112
33.1349 1143 33.8083
33.2522 1157 34.0147
33.3694 1126 33.5559
33.4867 1187 34.4529
33.6039 1207 34.7419
33.7211 1106 33.2566
33.8383 1122 33.4963
33.9554 1114 33.3766
34.0725 1097 33.121
34.1896 1163 34.1028
34.3067 1089 33
34.4237 1240 35.2136
34.5407 1297 36.0139
34.6577 1259 35.4824
34.7746 1213 34.8281
34.8915 1197 34.5977
35.0084 1295 35.9861
35.1252 1282 35.805
35.242 1114 33.3766
35.3587 1254 35.4119
35.4755 1195 34.5688
35.5921 1174 34.2637
35.7088 1056 32.4962
35.8254 1052 32.4345
35.9419 1019 31.9218
36.0584 1019 31.9218
36.1749 1010 31.7805
36.2913 1055 32.4808
36.4077 1027 32.0468
36.524 1052 32.4345
36.6403 1066 32.6497
36.7565 1094 33.0757
36.8727 1169 34.1906
36.9889 1149 33.8969
37.1049 1090 33.0151
37.221 0 1
37.3369 0 1
37.4529 0 1
37.5687 0 1
37.6845 0 1
37.8003 0 1
37.916 0 1
38.0316 0 1
38.1472 0 1
40.5851 0 1
40.7008 0 1
40.8164 0 1
40.9322 0 1
41.048 0 1
41.1639 0 1
41.2798 0 1
41.3958 0 1
41.5118 0 1
41.6279 0 1
41.744 761 27.5862
41.8602 796 28.2135
41.9765 844 29.0517
42.0928 866 29.4279
42.2091 881 29.6816
42.3255 873 29.5466
42.4419 840 28.9828
42.5584 887 29.7825
42.675 815 28.5482
42.7915 807 28.4077
42.9081 808 28.4253
43.0248 846 29.0861
43.1415 883 29.7153
43.2582 908 30.133
43.375 913 30.2159
43.4918 909 30.1496
43.6087 929 30.4795
43.7256 931 30.5123
43.8425 861 29.3428
43.9595 798 28.2489
44.0765 848 29.1204
44.1935 826 28.7402
44.3106 746 27.313
44.4277 758 27.5318
44.5448 730 27.0185
44.6619 641 25.318
44.7791 648 25.4558
44.8963 615 24.7992
45.0136 672 25.923
45.1308 626 25.02
45.2481 621 24.9199
45.3654 596 24.4131
45.4827 608 24.6577
45.6001 700 26.4575
45.7174 634 25.1794
45.8348 680 26.0768
45.9522 637 25.2389
46.0697 627 25.04
46.1871 626 25.02
46.3046 558 23.622
46.422 593 24.3516
46.5395 637 25.2389
46.657 645 25.3969
46.7745 679 26.0576
46.892 626 25.02
47.0096 659 25.671
47.1271 630 25.0998
47.2446 684 26.1534
47.3622 645 25.3969
47.4797 589 24.2693
47.5973 605 24.5967
47.7149 567 23.8118
47.8324 584 24.1661
47.95 524 22.891
48.0675 471 21.7025
48.1851 460 21.4476
48.3027 467 21.6102
48.4202 431 20.7605
48.5378 432 20.7846
48.6554 435 20.8567
48.7729 430 20.7364
48.8904 435 20.8567
49.008 476 21.8174
49.1255 458 21.4009
49.243 544 23.3238
49.3605 503 22.4277
49.478 452 21.2603
49.5955 422 20.5426
49.713 436 20.8806
49.8304 465 21.5639
49.9479 468 21.6333
50.0653 521 22.8254
50.1827 513 22.6495
50.3001 571 23.8956
50.4175 542 23.2809
50.5348 644 25.3772
50.6521 591 24.3105
50.7694 606 24.6171
50.8867 607 24.6374
51.004 697 26.4008
51.1212 581 24.1039
51.2384 687 26.2107
51.3556 647 25.4362
51.4727 641 25.318
51.5899 592 24.3311
51.707 596 24.4131
51.824 580 24.0832
51.9411 581 24.1039
52.0581 606 24.6171
52.175 644 25.3772
52.2919 581 24.1039
52.4088 639 25.2784
52.5257 693 26.3249
52.6425 695 26.3629
52.7593 748 27.3496
52.876 780 27.9285
52.9927 837 28.931
53.1094 764 27.6405
53.226 766 27.6767
53.3426 754 27.4591
53.4591 779 27.9106
53.5756 829 28.7924
53.692 905 30.0832
53.8084 909 30.1496
53.9248 981 31.3209
54.0411 1031 32.1092
54.1573 974 31.209
54.2735 0 1
54.3896 0 1
54.5057 0 1
54.6217 0 1
54.7377 0 1
54.8537 0 1
54.9695 0 1
55.0853 0 1
55.2011 0 1
55.3168 0 1
55.4324 0 1
57.824 0 1
57.9396 0 1
58.0553 0 1
58.1711 0 1
58.2869 0 1
58.4028 0 1
58.5187 0 1
58.6347 0 1
58.7508 0 1
58.8669 0 1
58.983 1045 32.3265
59.0992 1110 33.3167
59.2155 1156 34
59.3318 1132 33.6452
59.4482 1188 34.4674
59.5646 1162 34.0881
59.681 1177 34.3074
59.7975 1121 33.4813
59.9141 1193 34.5398
60.0306 1049 32.3883
60.1473 1004 31.686
60.2639 997 31.5753
60.3807 872 29.5296
60.4974 847 29.1033
60.6142 814 28.5307
60.731 767 27.6948
60.8479 793 28.1603
60.9648 816 28.5657
61.0818 872 29.5296
61.1987 900 30
61.3158 897 29.95
61.4328 900 30
61.5499 903 30.05
61.667 927 30.4467
61.7841 906 30.0998
61.9013 852 29.189
62.0185 912 30.1993
62.1357 945 30.7409
62.253 923 30.3809
62.3702 1003 31.6702
62.4875 1111 33.3317
62.6049 996 31.5595
62.7222 1085 32.9393
62.8396 1087 32.9697
62.9569 1133 33.6601
63.0743 1124 33.5261
63.1918 1089 33
63.3092 1117 33.4215
63.4267 1093 33.0606
63.5441 977 31.257
63.6616 974 31.209
63.7791 885 29.7489
63.8966 896 29.9333
64.0142 795 28.1957
64.1317 711 26.6646
64.2492 774 27.8209
64.3668 804 28.3549
64.4843 866 29.4279
64.6019 963 31.0322
64.7195 929 30.4795
64.837 970 31.1448
64.9546 971 31.1609
65.0722 888 29.7993
65.1898 996 31.5595
65.3074 1042 32.28
65.4249 923 30.3809
65.5425 928 30.4631
65.6601 893 29.8831
65.7777 968 31.1127
65.8952 1021 31.9531
66.0128 1051 32.4191
66.1304 1082 32.8938
66.2479 1091 33.0303
66.3655 1175 34.2783
66.483 1183 34.3948
66.6005 1116 33.4066
66.718 1206 34.7275
66.8355 1118 33.4365
66.953 1076 32.8024
67.0705 1070 32.7109
67.1879 969 31.1288
67.3054 940 30.6594
67.4228 885 29.7489
67.5402 808 28.4253
67.6576 801 28.3019
67.7749 756 27.4955
67.8923 732 27.0555
68.0096 765 27.6586
68.1269 869 29.4788
68.2442 925 30.4138
68.3614 948 30.7896
68.4787 950 30.8221
68.5958 1006 31.7175
68.713 936 30.5941
68.8302 942 30.692
68.9473 862 29.3598
69.0643 931 30.5123
69.1814 926 30.4302
69.2984 854 29.2233
69.4154 965 31.0644
69.5323 928 30.4631
69.6492 1066 32.6497
69.7661 1050 32.4037
69.8829 1148 33.8821
69.9997 1174 34.2637
70.1165 1192 34.5254
70.2332 1127 33.5708
70.3499 1112 33.3467
70.4665 1116 33.4066
70.5831 1100 33.1662
70.6996 1053 32.45
70.8161 935 30.5778
70.9326 842 29.0172
71.049 805 28.3725
71.1653 744 27.2764
71.2817 659 25.671
71.3979 690 26.2679
71.5141 675 25.9808
71.6303 695 26.3629
71.7464 672 25.923
71.8624 0 1
71.9784 0 1
72.0944 0 1
72.2102 0 1
72.3261 0 1
72.4418 0 1
72.5575 0 1
72.6732 0 1
75.1054 0 1
75.2209 0 1
75.3365 0 1
75.4521 0 1
75.5678 0 1
75.6835 0 1
75.7993 0 1
75.9151 0 1
76.031 0 1
76.147 853 29.2062
76.263 877 29.6142
76.3791 855 29.2404
76.4952 771 27.7669
76.6113 748 27.3496
76.7276 647 25.4362
76.8438 747 27.3313
76.9601 765 27.6586
77.0765 792 28.1425
77.1929 830 28.8097
77.3093 936 30.5941
77.4258 1021 31.9531
77.5423 984 31.3688
77.6589 1012 31.8119
77.7755 977 31.257
77.8921 937 30.6105
78.0088 946 30.7571
78.1256 896 29.9333
78.2423 892 29.8664
78.3591 851 29.1719
78.4759 907 30.1164
78.5928 960 30.9839
78.7097 1001 31.6386
78.8266 1007 31.7333
78.9436 1106 33.2566
79.0606 1011 31.7962
79.1776 1040 32.249
79.2946 1067 32.665
79.4117 1089 33
79.5288 1073 32.7567
79.6459 1073 32.7567
79.7631 957 30.9354
79.8802 878 29.6311
79.9974 783 27.9821
80.1147 752 27.4226
80.2319 641 25.318
80.3491 642 25.3377
80.4664 620 24.8998
80.5837 665 25.7876
80.701 678 26.0384
80.8183 692 26.3059
80.9357 743 27.258
81.053 805 28.3725
81.1704 834 28.8791
81.2877 792 28.1425
81.4051 831 28.8271
81.5225 834 28.8791
81.6399 745 27.2947
81.7573 693 26.3249
81.8747 737 27.1477
81.9922 787 28.0535
82.1096 797 28.2312
82.227 843 29.0345
82.3444 876 29.5973
82.4619 877 29.6142
82.5793 925 30.4138
82.6967 890 29.8329
82.8142 940 30.6594
82.9316 935 30.5778
83.049 873 29.5466
83.1664 897 29.95
83.2838 905 30.0832
83.4012 775 27.8388
83.5186 717 26.7769
83.636 651 25.5147
83.7534 569 23.8537
83.8708 554 23.5372
83.9881 538 23.1948
84.1055 548 23.4094
84.2228 569 23.8537
84.3401 579 24.0624
84.4575 620 24.8998
84.5747 756 27.4955
84.692 801 28.3019
84.8093 793 28.1603
84.9265 749 27.3679
85.0437 763 27.6225
85.1609 722 26.8701
85.2781 702 26.4953
85.3952 675 25.9808
85.5123 700 26.4575
85.6294 695 26.3629
85.7465 742 27.2397
85.8636 879 29.6479
85.9806 893 29.8831
86.0976 925 30.4138
86.2145 970 31.1448
86.3315 988 31.4325
86.4484 929 30.4795
86.5652 960 30.9839
86.682 1064 32.619
86.7988 1035 32.1714
86.9156 906 30.0998
87.0323 837 28.931
87.149 828 28.775
87.2657 735 27.1109
87.3823 702 26.4953
87.4988 630 25.0998
87.6154 604 24.5764
87.7318 660 25.6905
87.8483 742 27.2397
87.9647 858 29.2916
88.081 850 29.1548
88.1973 896 29.9333
88.3136 1007 31.7333
88.4298 990 31.4643
88.546 892 29.8664
88.6621 915 30.249
88.7781 840 28.9828
88.8942 0 1
89.0101 0 1
89.126 0 1
89.2419 0 1
89.3577 0 1
89.4734 0 1
89.5891 0 1
89.7047 0 1
89.8203 0 1
89.9358 0 1
92.3269 0 1
92.4424 0 1
92.558 0 1
92.6736 0 1
92.7893 0 1
92.905 0 1
93.0208 0 1
93.1366 0 1
93.2525 0 1
93.3685 0 1
93.4845 0 1
93.6005 871 29.5127
93.7167 931 30.5123
93.8328 970 31.1448
93.949 917 30.282
94.0653 870 29.4958
94.1816 896 29.9333
94.2979 855 29.2404
94.4143 836 28.9137
94.5307 875 29.5804
94.6472 884 29.7321
94.7637 902 30.0333
94.8803 954 30.8869
94.9969 1025 32.0156
95.1135 1101 33.1813
95.2302 1033 32.1403
95.3469 1110 33.3167
95.4637 1131 33.6303
95.5805 1149 33.8969
95.6973 1206 34.7275
95.8142 1188 34.4674
95.9311 1091 33.0303
96.048 1052 32.4345
96.1649 990 31.4643
96.2819 893 29.8831
96.3989 867 29.4449
96.516 768 27.7128
96.633 657 25.632
96.7501 672 25.923
96.8673 661 25.7099
96.9844 713 26.7021
97.1016 760 27.5681
97.2188 864 29.3939
97.336 970 31.1448
97.4532 972 31.1769
97.5704 985 31.3847
97.6877 903 30.05
97.805 941 30.6757
97.9223 889 29.8161
98.0396 812 28.4956
98.1569 870 29.4958
98.2743 927 30.4467
98.3916 913 30.2159
98.509 917 30.282
98.6264 985 31.3847
98.7438 1030 32.0936
98.8612 1087 32.9697
98.9786 1146 33.8526
99.096 1180 34.3511
99.2134 1147 33.8674
99.3308 1142 33.7935
99.4482 1160 34.0588
99.5656 1083 32.909
99.6831 1078 32.8329
99.8005 971 31.1609
99.9179 901 30.0167
100.035 876 29.5973
100.153 758 27.5318
100.27 757 27.5136
100.388 738 27.1662
100.505 788 28.0713
100.622 847 29.1033
100.74 877 29.6142
100.857 894 29.8998
100.975 979 31.289
101.092 1008 31.749
101.209 943 30.7083
101.327 905 30.0832
101.444 943 30.7083
101.561 905 30.0832
101.679 916 30.2655
101.796 895 29.9166
101.913 962 31.0161
102.03 973 31.1929
102.148 1154 33.9706
102.265 1130 33.6155
102.382 1173 34.2491
102.499 1212 34.8138
102.616 1230 35.0714
102.733 1223 34.9714
102.851 1213 34.8281
102.968 1270 35.6371
103.085 1175 34.2783
103.202 1146 33.8526
103.319 1108 33.2866
103.436 1080 32.8634
103.552 934 30.5614
103.669 842 29.0172
103.786 762 27.6043
103.903 806 28.3901
104.02 833 28.8617
104.137 906 30.0998
104.253 962 31.0161
104.37 993 31.5119
104.487 1071 32.7261
104.603 982 31.3369
104.72 1066 32.6497
104.836 1034 32.1559
104.953 1015 31.8591
105.069 943 30.7083
105.186 1022 31.9687
105.302 1033 32.1403
105.418 1048 32.3728
105.535 1093 33.0606
105.651 1162 34.0881
105.767 1262 35.5246
105.883 1274 35.6931
105.999 1379 37.1349
106.115 0 1
106.231 0 1
106.347 0 1
106.463 0 1
106.579 0 1
106.694 0 1
106.81 0 1
106.926 0 1
107.041 0 1
107.157 0 1
109.576 0 1
109.692 0 1
109.807 0 1
109.923 0 1
110.039 0 1
110.155 0 1
110.27 0 1
110.386 0 1
110.502 0 1
110.618 1046 32.3419
110.735 1170 34.2053
110.851 1193 34.5398
110.967 1185 34.4238
111.083 1188 34.4674
111.199 1285 35.8469
111.316 1317 36.2905
111.432 1234 35.1283
111.549 1313 36.2353
111.665 1233 35.1141
111.782 1099 33.1512
111.898 1072 32.7414
112.015 1004 31.686
112.132 915 30.249
112.248 839 28.9655
112.365 797 28.2312
112.482 768 27.7128
112.599 840 28.9828
112.716 897 29.95
112.832 937 30.6105
112.949 977 31.257
113.066 963 31.0322
113.183 1010 31.7805
113.3 955 30.9031
113.417 947 30.7734
113.534 898 29.9666
113.652 938 30.6268
113.769 940 30.6594
113.886 914 30.2324
114.003 1009 31.7648
114.12 1026 32.0312
114.238 1145 33.8378
114.355 1168 34.176
114.472 1206 34.7275
114.589 1228 35.0428
114.707 1252 35.3836
114.824 1242 35.242
114.942 1254 35.4119
115.059 1212 34.8138
115.176 1220 34.9285
115.294 1198 34.6121
115.411 1128 33.5857
115.529 1149 33.8969
115.646 1054 32.4654
115.764 913 30.2159
115.881 794 28.178
115.999 828 28.775
116.116 853 29.2062
116.234 906 30.0998
116.351 975 31.225
116.469 976 31.241
116.586 994 31.5278
116.704 1013 31.8277
116.821 1035 32.1714
116.939 995 31.5436
117.056 1014 31.8434
117.174 972 31.1769
117.291 1043 32.2955
117.409 1050 32.4037
117.526 1106 33.2566
117.644 1174 34.2637
117.761 1207 34.7419
117.879 1251 35.3695
117.996 1333 36.5103
118.114 1271 35.6511
118.231 1278 35.7491
118.349 1304 36.1109
118.466 1292 35.9444
118.584 1337 36.565
118.701 1314 36.2491
118.819 1325 36.4005
118.936 1297 36.0139
119.053 1165 34.1321
119.171 1135 33.6898
119.288 1053 32.45
119.405 957 30.9354
119.523 899 29.9833
119.64 920 30.3315
119.757 851 29.1719
119.875 947 30.7734
119.992 938 30.6268
120.109 1036 32.187
120.226 997 31.5753
120.343 975 31.225
120.46 978 31.273
120.578 953 30.8707
120.695 958 30.9516
120.812 970 31.1448
120.929 1017 31.8904
121.046 1097 33.121
121.163 1082 32.8938
121.279 1117 33.4215
121.396 1191 34.5109
121.513 1231 35.0856
121.63 1209 34.7707
121.747 1235 35.1426
121.863 1298 36.0278
121.98 1278 35.7491
122.097 1370 37.0135
122.213 1306 36.1386
122.33 1337 36.565
122.446 1265 35.5668
122.563 1265 35.5668
122.679 1195 34.5688
122.795 1166 34.1467
122.912 1130 33.6155
123.028 1045 32.3265
123.144 917 30.282
123.26 913 30.2159
123.377 0 1
123.493 0 1
123.609 0 1
123.725 0 1
123.84 0 1
123.956 0 1
124.072 0 1
124.188 0 1
124.303 0 1
124.419 0 1
126.852 0 1
126.968 0 1
127.083 0 1
127.199 0 1
127.315 0 1
127.431 0 1
127.547 0 1
127.663 0 1
127.779 0 1
127.895 0 1
128.011 0 1
128.127 0 1
128.243 0 1
128.359 1114 33.3766
128.476 1028 32.0624
128.592 1008 31.749
128.708 1038 32.218
128.825 998 31.5911
128.941 1079 32.8481
129.058 1087 32.9697
129.174 1120 33.4664
129.291 1130 33.6155
129.408 1084 32.9242
129.524 989 31.4484
129.641 1078 32.8329
129.758 1081 32.8786
129.875 1146 33.8526
129.992 1101 33.1813
130.108 1124 33.5261
130.225 1249 35.3412
130.342 1274 35.6931
130.459 1285 35.8469
130.576 1252 35.3836
130.693 1345 36.6742
130.81 1287 35.8748
130.928 1315 36.2629
131.045 1360 36.8782
131.162 1279 35.7631
131.279 1336 36.5513
131.396 1308 36.1663
131.513 1246 35.2987
131.631 1221 34.9428
131.748 1187 34.4529
131.865 1061 32.573
131.983 1061 32.573
132.1 992 31.496
132.217 1038 32.218
132.335 1067 32.665
132.452 1050 32.4037
132.57 1116 33.4066
132.687 1088 32.9848
132.804 1116 33.4066
132.922 1085 32.9393
133.039 1028 32.0624
133.157 1058 32.5269
133.274 1085 32.9393
133.392 1101 33.1813
133.509 1103 33.2114
133.627 1168 34.176
133.744 1223 34.9714
133.862 1200 34.641
133.979 1242 35.242
134.097 1261 35.5106
134.214 1240 35.2136
134.332 1268 35.609
134.449 1321 36.3456
134.567 1281 35.7911
134.684 1202 34.6699
134.802 1331 36.4829
134.919 1282 35.805
135.037 1242 35.242
135.154 1243 35.2562
135.272 1235 35.1426
135.389 1108 33.2866
135.507 1072 32.7414
135.624 1014 31.8434
135.742 1011 31.7962
135.859 1065 32.6343
135.977 1094 33.0757
136.094 1168 34.176
136.211 1170 34.2053
136.329 1168 34.176
136.446 1106 33.2566
136.564 1046 32.3419
136.681 1045 32.3265
136.798 1133 33.6601
136.915 1141 33.7787
137.033 1091 33.0303
137.15 1130 33.6155
137.267 1149 33.8969
137.384 1216 34.8712
137.502 1213 34.8281
137.619 1239 35.1994
137.736 1244 35.2704
137.853 1232 35.0999
137.97 1252 35.3836
138.087 1215 34.8569
138.204 1255 35.426
138.321 1310 36.1939
138.438 1336 36.5513
138.555 1233 35.1141
138.672 1267 35.5949
138.788 1308 36.1663
138.905 1192 34.5254
139.022 1216 34.8712
139.139 1060 32.5576
139.255 1047 32.3574
139.372 1018 31.9061
139.488 1098 33.1361
139.605 1148 33.8821
139.721 1240 35.2136
139.838 1150 33.9116
139.954 1134 33.6749
140.071 1093 33.0606
140.187 1120 33.4664
140.303 1053 32.45
140.419 1045 32.3265
140.535 1081 32.8786
140.652 1083 32.909
140.768 0 1
140.884 0 1
141 0 1
141.115 0 1
141.231 0 1
141.347 0 1
141.463 0 1
141.578 0 1
141.694 0 1
144.104 0 1
144.219 0 1
144.335 0 1
144.45 0 1
144.566 0 1
144.682 0 1
144.798 0 1
144.914 0 1
145.03 0 1
145.146 740 27.2029
145.262 878 29.6311
145.378 838 28.9482
145.494 798 28.2489
145.61 840 28.9828
145.726 873 29.5466
145.842 832 28.8444
145.959 875 29.5804
146.075 887 29.7825
146.192 877 29.6142
146.308 888 29.7993
146.425 923 30.3809
146.541 952 30.8545
146.658 938 30.6268
146.774 959 30.9677
146.891 930 30.4959
147.008 980 31.305
147.125 973 31.1929
147.241 992 31.496
147.358 976 31.241
147.475 1051 32.4191
147.592 960 30.9839
147.709 942 30.692
147.826 949 30.8058
147.943 923 30.3809
148.06 913 30.2159
148.177 793 28.1603
148.294 797 28.2312
148.411 825 28.7228
148.528 878 29.6311
148.645 884 29.7321
148.762 867 29.4449
148.88 887 29.7825
148.997 867 29.4449
149.114 922 30.3645
149.231 885 29.7489
149.349 872 29.5296
149.466 896 29.9333
149.583 890 29.8329
149.701 909 30.1496
149.818 897 29.95
149.935 895 29.9166
150.053 919 30.315
150.17 956 30.9192
150.287 962 31.0161
150.405 940 30.6594
150.522 995 31.5436
150.64 1025 32.0156
150.757 923 30.3809
150.875 994 31.5278
150.992 1083 32.909
151.11 1037 32.2025
151.227 964 31.0483
151.344 1015 31.8591
151.462 944 30.7246
151.579 972 31.1769
151.697 922 30.3645
151.814 912 30.1993
151.932 839 28.9655
152.049 870 29.4958
152.167 853 29.2062
152.284 937 30.6105
152.402 958 30.9516
152.519 961 31
152.636 967 31.0966
152.754 970 31.1448
152.871 936 30.5941
152.989 961 31
153.106 911 30.1828
153.223 907 30.1164
153.341 1004 31.686
153.458 954 30.8869
153.575 1000 31.6228
153.693 991 31.4802
153.81 1002 31.6544
153.927 993 31.5119
154.044 1081 32.8786
154.162 1072 32.7414
154.279 1065 32.6343
154.396 1055 32.4808
154.513 1108 33.2866
154.63 1095 33.0908
154.747 1205 34.7131
154.864 1100 33.1662
154.981 1213 34.8281
155.098 1128 33.5857
155.215 1113 33.3617
155.332 1054 32.4654
155.449 1006 31.7175
155.566 973 31.1929
155.683 1110 33.3167
155.8 1064 32.619
155.917 1096 33.1059
156.033 1080 32.8634
156.15 0 1
156.267 0 1
156.383 0 1
156.5 0 1
156.617 0 1
156.733 0 1
156.85 0 1
156.966 0 1
157.082 0 1
157.199 0 1
157.315 0 1
157.431 0 1
157.547 0 1
157.664 0 1
157.78 0 1
157.896 0 1
158.012 0 1
158.128 0 1
158.244 0 1
158.359 0 1
158.475 0 1
158.591 0 1
158.706 0 1
