
6.15755 0 1
6.2731 0 1
6.3887 0 1
6.50437 0 1
6.62009 0 1
6.73587 0 1
6.8517 0 1
6.96759 0 1
7.08353 0 1
7.19952 0 1
7.31557 0 1
7.43166 0 1
7.54781 0 1
7.664 0 1
7.78024 0 1
7.89653 0 1
8.01286 0 1
8.12924 0 1
8.24567 0 1
8.36213 0 1
8.47864 0 1
8.59519 0 1
8.71178 0 1
8.82841 0 1
8.94508 0 1
9.06179 0 1
9.17853 0 1
9.29531 0 1
9.41212 0 1
9.52897 0 1
9.64584 0 1
9.76276 0 1
9.8797 0 1
9.99667 0 1
10.1137 0 1
10.2307 0 1
10.3478 0 1
10.4648 0 1
10.5819 0 1
10.6991 0 1
10.8162 0 1
10.9334 0 1
11.0506 0 1
11.1678 0 1
11.285 0 1
11.4023 0 1
11.5196 0 1
11.6369 0 1
11.7542 0 1
11.8715 0 1
11.9888 0 1
12.1062 0 1
12.2235 0 1
12.3409 0 1
12.4582 0 1
12.5756 0 1
12.693 0 1
12.8104 0 1
12.9278 0 1
13.0452 0 1
13.1626 0 1
13.28 0 1
13.3974 0 1
13.5149 0 1
13.6323 0 1
13.7497 0 1
13.8671 0 1
13.9845 0 1
14.1019 0 1
14.2193 0 1
14.3367 0 1
14.4541 0 1
14.5714 0 1
14.6888 0 1
14.8062 0 1
14.9235 0 1
15.0408 5043 71.0141
15.1581 5158 71.8192
15.2755 5276 72.6361
15.3927 5338 73.0616
15.51 5310 72.8697
15.6273 5283 72.6842
15.7445 5202 72.1249
15.8617 5063 71.1548
15.9789 5013 70.8025
16.0961 4883 69.8785
16.2132 4814 69.383
16.3304 4994 70.6682
16.4475 4928 70.1997
16.5646 4896 69.9714
16.6816 5034 70.9507
16.7986 4890 69.9285
16.9156 5019 70.8449
17.0326 5028 70.9084
17.1496 5023 70.8731
17.2665 5150 71.7635
17.3833 5108 71.4703
17.5002 5262 72.5396
17.617 5314 72.8972
17.7338 5348 73.13
17.8505 5712 75.5778
17.9672 5774 75.9868
18.0839 5955 77.1686
18.2005 6231 78.9367
18.3171 6425 80.1561
18.4337 6568 81.0432
18.5502 6594 81.2034
18.6666 6534 80.8332
18.7831 6483 80.5171
18.8994 6162 78.4984
19.0158 5973 77.2852
19.1321 5714 75.591
19.2483 5788 76.0789
19.3645 5434 73.7157
19.4806 5310 72.8697
19.5967 5313 72.8903
19.7128 5136 71.6659
19.8288 4952 70.3704
19.9447 4474 66.888
20.0606 0 1
20.1764 0 1
20.2922 0 1
20.4079 0 1
20.5236 0 1
20.6392 0 1
20.7548 0 1
20.8702 0 1
23.3078 0 1
23.4233 0 1
23.539 0 1
23.6547 0 1
23.7704 0 1
23.8862 0 1
24.0021 0 1
24.118 0 1
24.234 0 1
24.35 0 1
24.4661 5162 71.8471
24.5822 5299 72.7942
24.6984 5284 72.6911
24.8146 5121 71.5612
24.9309 5178 71.9583
25.0472 5137 71.6729
25.1636 5019 70.8449
25.28 4999 70.7036
25.3965 5176 71.9444
25.513 5290 72.7324
25.6296 5467 73.9392
25.7462 5495 74.1283
25.8628 5776 76
25.9795 5723 75.6505
26.0962 5685 75.3989
26.213 5725 75.6637
26.3298 5692 75.4453
26.4466 5921 76.948
26.5635 5961 77.2075
26.6804 6201 78.7464
26.7973 6115 78.1985
26.9143 6166 78.5239
27.0313 6169 78.543
27.1483 6244 79.019
27.2653 6178 78.6003
27.3824 6001 77.4661
27.4996 5933 77.026
27.6167 5631 75.04
27.7339 5559 74.5587
27.8511 5397 73.4643
27.9683 5213 72.2011
28.0855 5026 70.8943
28.2028 5066 71.1758
28.3201 4963 70.4486
28.4374 4887 69.9071
28.5547 4975 70.5337
28.6721 5006 70.7531
28.7894 5070 71.2039
28.9068 4858 69.6994
29.0242 4939 70.278
29.1416 5010 70.7814
29.259 5151 71.7705
29.3764 5093 71.3653
29.4939 5275 72.6292
29.6113 5141 71.7008
29.7288 5280 72.6636
29.8463 5331 73.0137
29.9638 5619 74.96
30.0812 5676 75.3392
30.1987 5677 75.3459
30.3162 5775 75.9934
30.4337 5905 76.844
30.5512 5887 76.7268
30.6687 5686 75.4056
30.7862 5881 76.6877
30.9037 5579 74.6927
31.0212 5522 74.3102
31.1387 5291 72.7393
31.2562 5214 72.208
31.3737 5151 71.7705
31.4912 4798 69.2676
31.6087 4845 69.606
31.7262 4696 68.5274
31.8436 4738 68.8331
31.9611 4731 68.7823
32.0785 4878 69.8427
32.1959 4837 69.5485
32.3134 4862 69.728
32.4308 4945 70.3207
32.5482 5034 70.9507
32.6655 4871 69.7925
32.7829 4904 70.0286
32.9002 4904 70.0286
33.0176 4876 69.8284
33.1349 5062 71.1477
33.2522 5005 70.746
33.3694 5065 71.1688
33.4867 5098 71.4003
33.6039 5406 73.5255
33.7211 5505 74.1957
33.8383 5625 75
33.9554 5600 74.8331
34.0725 5555 74.5319
34.1896 5409 73.5459
34.3067 5477 74.0068
34.4237 5472 73.973
34.5407 5334 73.0342
34.6577 5204 72.1388
34.7746 5018 70.8378
34.8915 4840 69.5701
35.0084 4765 69.029
35.1252 4551 67.4611
35.242 4463 66.8057
35.3587 4405 66.3702
35.4755 4726 68.7459
35.5921 4691 68.4909
35.7088 4644 68.1469
35.8254 4773 69.0869
35.9419 4975 70.5337
36.0584 4825 69.4622
36.1749 4854 69.6707
36.2913 4782 69.152
36.4077 4934 70.2424
36.524 4631 68.0515
36.6403 4636 68.0882
36.7565 4631 68.0515
36.8727 4713 68.6513
36.9889 4784 69.1665
37.1049 4649 68.1836
37.221 0 1
37.3369 0 1
37.4529 0 1
37.5687 0 1
37.6845 0 1
37.8003 0 1
37.916 0 1
38.0316 0 1
38.1472 0 1
40.5851 0 1
40.7008 0 1
40.8164 0 1
40.9322 0 1
41.048 0 1
41.1639 0 1
41.2798 0 1
41.3958 0 1
41.5118 0 1
41.6279 0 1
41.744 3678 60.6465
41.8602 3786 61.5305
41.9765 3894 62.4019
42.0928 3977 63.0635
42.2091 4107 64.0859
42.3255 4063 63.7417
42.4419 4058 63.7024
42.5584 4237 65.0922
42.675 4285 65.4599
42.7915 4337 65.8559
42.9081 4405 66.3702
43.0248 4387 66.2344
43.1415 4438 66.6183
43.2582 4469 66.8506
43.375 4398 66.3174
43.4918 4558 67.513
43.6087 4433 66.5808
43.7256 4443 66.6558
43.8425 4252 65.2074
43.9595 4282 65.437
44.0765 4206 64.8537
44.1935 4172 64.591
44.3106 4231 65.0461
44.4277 4140 64.3428
44.5448 4094 63.9844
44.6619 3973 63.0317
44.7791 3903 62.474
44.8963 3967 62.9841
45.0136 3782 61.498
45.1308 3748 61.2209
45.2481 3735 61.1146
45.3654 3582 59.8498
45.4827 3500 59.1608
45.6001 3580 59.8331
45.7174 3481 59
45.8348 3444 58.6856
45.9522 3328 57.6888
46.0697 3248 56.9912
46.1871 3385 58.1808
46.3046 3315 57.576
46.422 3289 57.3498
46.5395 3253 57.0351
46.657 3107 55.7405
46.7745 3254 57.0438
46.892 3213 56.6833
47.0096 3141 56.0446
47.1271 3038 55.1181
47.2446 2973 54.5252
47.3622 3031 55.0545
47.4797 2955 54.3599
47.5973 2965 54.4518
47.7149 2827 53.1695
47.8324 2919 54.0278
47.95 2876 53.6284
48.0675 2815 53.0566
48.1851 2748 52.4214
48.3027 2672 51.6914
48.4202 2543 50.4282
48.5378 2471 49.7092
48.6554 2470 49.6991
48.7729 2383 48.816
48.8904 2504 50.04
49.008 2474 49.7393
49.1255 2383 48.816
49.243 2442 49.4166
49.3605 2417 49.163
49.478 2467 49.6689
49.5955 2438 49.3761
49.713 2535 50.3488
49.8304 2505 50.05
49.9479 2507 50.07
50.0653 2593 50.9215
50.1827 2650 51.4782
50.3001 2730 52.2494
50.4175 2696 51.923
50.5348 2758 52.5167
50.6521 2912 53.963
50.7694 2889 53.7494
50.8867 3020 54.9545
51.004 3025 55
51.1212 3054 55.263
51.2384 3176 56.356
51.3556 3377 58.112
51.4727 3383 58.1636
51.5899 3344 57.8273
51.707 3319 57.6108
51.824 3334 57.7408
51.9411 3309 57.5239
52.0581 3359 57.9569
52.175 3282 57.2887
52.2919 3256 57.0614
52.4088 3174 56.3383
52.5257 3206 56.6216
52.6425 3265 57.1402
52.7593 3203 56.5951
52.876 3161 56.2228
52.9927 3161 56.2228
53.1094 3308 57.5152
53.226 3396 58.2752
53.3426 3556 59.6322
53.4591 3600 60
53.5756 3689 60.7371
53.692 3723 61.0164
53.8084 3819 61.7981
53.9248 3831 61.8951
54.0411 4042 63.5767
54.1573 4065 63.7574
54.2735 0 1
54.3896 0 1
54.5057 0 1
54.6217 0 1
54.7377 0 1
54.8537 0 1
54.9695 0 1
55.0853 0 1
55.2011 0 1
55.3168 0 1
55.4324 0 1
57.824 0 1
57.9396 0 1
58.0553 0 1
58.1711 0 1
58.2869 0 1
58.4028 0 1
58.5187 0 1
58.6347 0 1
58.7508 0 1
58.8669 0 1
58.983 4213 64.9076
59.0992 4688 68.469
59.2155 4766 69.0362
59.3318 4714 68.6586
59.4482 4911 70.0785
59.5646 5086 71.3162
59.681 5276 72.6361
59.7975 5253 72.4776
59.9141 5319 72.9315
60.0306 5415 73.5867
60.1473 5135 71.6589
60.2639 4993 70.6612
60.3807 4836 69.5414
60.4974 4635 68.0808
60.6142 4560 67.5278
60.731 4338 65.8635
60.8479 4090 63.9531
60.9648 3985 63.1269
61.0818 3716 60.959
61.1987 3861 62.1369
61.3158 3797 61.6198
61.4328 4005 63.2851
61.5499 4067 63.773
61.667 4197 64.7843
61.7841 4180 64.6529
61.9013 4128 64.2495
62.0185 4206 64.8537
62.1357 4224 64.9923
62.253 4216 64.9307
62.3702 4350 65.9545
62.4875 4299 65.5668
62.6049 4405 66.3702
62.7222 4396 66.3023
62.8396 4543 67.4018
62.9569 4866 69.7567
63.0743 4966 70.4699
63.1918 5028 70.9084
63.3092 5041 71
63.4267 5071 71.211
63.5441 5035 70.9577
63.6616 4962 70.4415
63.7791 4837 69.5485
63.8966 4633 68.0661
64.0142 4304 65.6049
64.1317 4132 64.2806
64.2492 3863 62.153
64.3668 3662 60.5145
64.4843 3549 59.5735
64.6019 3480 58.9915
64.7195 3530 59.4138
64.837 3550 59.5819
64.9546 3702 60.8441
65.0722 3822 61.8223
65.1898 3713 60.9344
65.3074 3885 62.3298
65.4249 3799 61.636
65.5425 3925 62.6498
65.6601 3946 62.8172
65.7777 4072 63.8122
65.8952 3846 62.0161
66.0128 4163 64.5213
66.1304 4164 64.5291
66.2479 4228 65.0231
66.3655 4397 66.3099
66.483 4638 68.1029
66.6005 4883 69.8785
66.718 4872 69.7997
66.8355 5009 70.7743
66.953 4813 69.3758
67.0705 4872 69.7997
67.1879 4832 69.5126
67.3054 4636 68.0882
67.4228 4532 67.3201
67.5402 4016 63.3719
67.6576 3718 60.9754
67.7749 3530 59.4138
67.8923 3517 59.3043
68.0096 3442 58.6686
68.1269 3384 58.1722
68.2442 3450 58.7367
68.3614 3325 57.6628
68.4787 3561 59.6741
68.5958 3643 60.3573
68.713 3816 61.7738
68.8302 3992 63.1823
68.9473 3886 62.3378
69.0643 3937 62.7455
69.1814 4022 63.4192
69.2984 4081 63.8827
69.4154 4190 64.7302
69.5323 4296 65.5439
69.6492 4210 64.8845
69.7661 4435 66.5958
69.8829 4679 68.4032
69.9997 4890 69.9285
70.1165 4992 70.6541
70.2332 5171 71.9097
70.3499 5257 72.5052
70.4665 5340 73.0753
70.5831 5043 71.0141
70.6996 5252 72.4707
70.8161 5062 71.1477
70.9326 4799 69.2748
71.049 4405 66.3702
71.1653 4010 63.3246
71.2817 3792 61.5792
71.3979 3565 59.7076
71.5141 3505 59.203
71.6303 3312 57.55
71.7464 3280 57.2713
71.8624 0 1
71.9784 0 1
72.0944 0 1
72.2102 0 1
72.3261 0 1
72.4418 0 1
72.5575 0 1
72.6732 0 1
75.1054 0 1
75.2209 0 1
75.3365 0 1
75.4521 0 1
75.5678 0 1
75.6835 0 1
75.7993 0 1
75.9151 0 1
76.031 0 1
76.147 4357 66.0076
76.263 4457 66.7608
76.3791 4179 64.6452
76.4952 3953 62.8729
76.6113 3731 61.0819
76.7276 3600 60
76.8438 3690 60.7454
76.9601 3679 60.6548
77.0765 3557 59.6406
77.1929 3682 60.6795
77.3093 3575 59.7913
77.4258 3755 61.2781
77.5423 3886 62.3378
77.6589 4058 63.7024
77.7755 4061 63.726
77.8921 4000 63.2456
78.0088 3913 62.554
78.1256 4013 63.3482
78.2423 4160 64.4981
78.3591 4178 64.6375
78.4759 4189 64.7225
78.5928 4411 66.4154
78.7097 4572 67.6166
78.8266 4638 68.1029
78.9436 4951 70.3633
79.0606 4980 70.5691
79.1776 4942 70.2994
79.2946 4930 70.214
79.4117 5213 72.2011
79.5288 5311 72.8766
79.6459 5107 71.4633
79.7631 4733 68.7968
79.8802 4553 67.4759
79.9974 4202 64.8228
80.1147 3989 63.1585
80.2319 3837 61.9435
80.3491 3799 61.636
80.4664 3858 62.1128
80.5837 3633 60.2744
80.701 3647 60.3904
80.8183 3558 59.649
80.9357 3633 60.2744
81.053 3625 60.208
81.1704 3938 62.7535
81.2877 4084 63.9062
81.4051 3982 63.1031
81.5225 3792 61.5792
81.6399 3846 62.0161
81.7573 4063 63.7417
81.8747 4094 63.9844
81.9922 4122 64.2028
82.1096 4297 65.5515
82.227 4463 66.8057
82.3444 4705 68.593
82.4619 4838 69.5557
82.5793 5101 71.4213
82.6967 4744 68.8767
82.8142 5125 71.5891
82.9316 5143 71.7147
83.049 5256 72.4983
83.1664 5217 72.2288
83.2838 4974 70.5266
83.4012 4659 68.2569
83.5186 4390 66.2571
83.636 4120 64.1872
83.7534 4031 63.4902
83.8708 3890 62.3699
83.9881 3746 61.2046
84.1055 3828 61.8708
84.2228 3854 62.0806
84.3401 3767 61.3759
84.4575 3845 62.0081
84.5747 3792 61.5792
84.692 3962 62.9444
84.8093 4116 64.1561
84.9265 4172 64.591
85.0437 4216 64.9307
85.1609 4079 63.867
85.2781 4041 63.5689
85.3952 4255 65.2304
85.5123 4170 64.5755
85.6294 4469 66.8506
85.7465 4657 68.2422
85.8636 4957 70.406
85.9806 5144 71.7217
86.0976 5067 71.1829
86.2145 5316 72.9109
86.3315 5377 73.328
86.4484 5538 74.4177
86.5652 5549 74.4916
86.682 5708 75.5513
86.7988 5544 74.458
86.9156 5354 73.171
87.0323 5014 70.8096
87.149 4673 68.3593
87.2657 4405 66.3702
87.3823 4428 66.5432
87.4988 4201 64.8151
87.6154 4198 64.792
87.7318 4042 63.5767
87.8483 4188 64.7148
87.9647 4056 63.6867
88.081 4109 64.1015
88.1973 4358 66.0151
88.3136 4306 65.6201
88.4298 4501 67.0895
88.546 4391 66.2646
88.6621 4228 65.0231
88.7781 4221 64.9692
88.8942 0 1
89.0101 0 1
89.126 0 1
89.2419 0 1
89.3577 0 1
89.4734 0 1
89.5891 0 1
89.7047 0 1
89.8203 0 1
89.9358 0 1
92.3269 0 1
92.4424 0 1
92.558 0 1
92.6736 0 1
92.7893 0 1
92.905 0 1
93.0208 0 1
93.1366 0 1
93.2525 0 1
93.3685 0 1
93.4845 0 1
93.6005 3999 63.2376
93.7167 4112 64.1249
93.8328 4086 63.9218
93.949 4001 63.2535
94.0653 4020 63.4035
94.1816 4103 64.0547
94.2979 4238 65.0999
94.4143 4328 65.7875
94.5307 4478 66.9179
94.6472 4751 68.9275
94.7637 4934 70.2424
94.8803 5056 71.1056
94.9969 5203 72.1318
95.1135 5211 72.1873
95.2302 5266 72.5672
95.3469 5363 73.2325
95.4637 5337 73.0548
95.5805 5493 74.1148
95.6973 5330 73.0068
95.8142 5316 72.9109
95.9311 4936 70.2567
96.048 4724 68.7314
96.1649 4535 67.3424
96.2819 4417 66.4605
96.3989 4297 65.5515
96.516 4145 64.3817
96.633 4095 63.9922
96.7501 4072 63.8122
96.8673 3967 62.9841
96.9844 3973 63.0317
97.1016 4063 63.7417
97.2188 3981 63.0952
97.336 4104 64.0625
97.4532 4185 64.6916
97.5704 4038 63.5453
97.6877 3963 62.9524
97.805 4088 63.9375
97.9223 3969 63
98.0396 3996 63.2139
98.1569 4307 65.6277
98.2743 4273 65.3682
98.3916 4480 66.9328
98.509 4665 68.3008
98.6264 4930 70.214
98.7438 5011 70.7884
98.8612 4999 70.7036
98.9786 5034 70.9507
99.096 4969 70.4911
99.2134 5210 72.1803
99.3308 5161 71.8401
99.4482 5239 72.3809
99.5656 4861 69.7209
99.6831 4663 68.2862
99.8005 4466 66.8281
99.9179 4225 65
100.035 4072 63.8122
100.153 4010 63.3246
100.27 3930 62.6897
100.388 3870 62.2093
100.505 3876 62.2575
100.622 3748 61.2209
100.74 3807 61.7009
100.857 3786 61.5305
100.975 3925 62.6498
101.092 3820 61.8061
101.209 3723 61.0164
101.327 3850 62.0484
101.444 3876 62.2575
101.561 3910 62.53
101.679 4207 64.8614
101.796 4233 65.0615
101.913 4312 65.6658
102.03 4724 68.7314
102.148 4881 69.8642
102.265 4803 69.3037
102.382 5676 75.3392
102.499 5212 72.1942
102.616 5201 72.118
102.733 5460 73.8918
102.851 5387 73.3962
102.968 5428 73.675
103.085 5301 72.808
103.202 5155 71.7983
103.319 4889 69.9214
103.436 4506 67.1267
103.552 4468 66.8431
103.669 4405 66.3702
103.786 4218 64.9461
103.903 4174 64.6065
104.02 4114 64.1405
104.137 4241 65.123
104.253 4178 64.6375
104.37 4196 64.7765
104.487 4309 65.643
104.603 4300 65.5744
104.72 4078 63.8592
104.836 4061 63.726
104.953 4188 64.7148
105.069 4270 65.3452
105.186 4447 66.6858
105.302 4650 68.1909
105.418 4923 70.1641
105.535 5241 72.3948
105.651 5497 74.1418
105.767 5384 73.3757
105.883 5262 72.5396
105.999 5360 73.212
106.115 0 1
106.231 0 1
106.347 0 1
106.463 0 1
106.579 0 1
106.694 0 1
106.81 0 1
106.926 0 1
107.041 0 1
107.157 0 1
109.576 0 1
109.692 0 1
109.807 0 1
109.923 0 1
110.039 0 1
110.155 0 1
110.27 0 1
110.386 0 1
110.502 0 1
110.618 4389 66.2495
110.735 4778 69.1231
110.851 4699 68.5493
110.967 4380 66.1816
111.083 4556 67.4981
111.199 4645 68.1542
111.316 4876 69.8284
111.432 4909 70.0643
111.549 4965 70.4628
111.665 4804 69.3109
111.782 4741 68.8549
111.898 4350 65.9545
112.015 4084 63.9062
112.132 4062 63.7338
112.248 4043 63.5846
112.365 3681 60.6712
112.482 3726 61.041
112.599 3508 59.2284
112.716 3444 58.6856
112.832 3355 57.9224
112.949 3299 57.4369
113.066 3273 57.2101
113.183 3220 56.745
113.3 3197 56.542
113.417 3125 55.9017
113.534 3304 57.4804
113.652 3433 58.5918
113.769 3495 59.1185
113.886 3660 60.4979
114.003 3831 61.8951
114.12 3868 62.1932
114.238 3902 62.466
114.355 3943 62.7933
114.472 3744 61.1882
114.589 3555 59.6238
114.707 3655 60.4566
114.824 3837 61.9435
114.942 3981 63.0952
115.059 3974 63.0397
115.176 3702 60.8441
115.294 3692 60.7618
115.411 3472 58.9237
115.529 3384 58.1722
115.646 3325 57.6628
115.764 3057 55.2901
115.881 3000 54.7723
115.999 3071 55.4166
116.116 2821 53.1131
116.234 2714 52.0961
116.351 2651 51.4879
116.469 2621 51.1957
116.586 2586 50.8527
116.704 2585 50.8429
116.821 2424 49.2341
116.939 2589 50.8822
117.056 2570 50.6952
117.174 2657 51.5461
117.291 2776 52.6878
117.409 2792 52.8394
117.526 2920 54.037
117.644 3015 54.909
117.761 3082 55.5158
117.879 3217 56.7186
117.996 3146 56.0892
118.114 2992 54.6992
118.231 2906 53.9073
118.349 3068 55.3895
118.466 3289 57.3498
118.584 3384 58.1722
118.701 3364 58
118.819 3370 58.0517
118.936 3259 57.0877
119.053 3307 57.5065
119.171 3095 55.6327
119.288 3169 56.2939
119.405 3046 55.1906
119.523 3060 55.3173
119.64 2879 53.6563
119.757 2855 53.4322
119.875 2822 53.1225
119.992 2737 52.3163
120.109 2607 51.0588
120.226 2667 51.643
120.343 2734 52.2877
120.46 2678 51.7494
120.578 2703 51.9904
120.695 2796 52.8772
120.812 3044 55.1725
120.929 3014 54.8999
121.046 3123 55.8838
121.163 3188 56.4624
121.279 3405 58.3524
121.396 3348 57.8619
121.513 3438 58.6345
121.63 3408 58.3781
121.747 3235 56.8771
121.863 2965 54.4518
121.98 3146 56.0892
122.097 3587 59.8916
122.213 3679 60.6548
122.33 3913 62.554
122.446 3778 61.4654
122.563 3880 62.2896
122.679 3826 61.8547
122.795 3756 61.2862
122.912 3670 60.5805
123.028 3594 59.95
123.144 3584 59.8665
123.26 3660 60.4979
123.377 0 1
123.493 0 1
123.609 0 1
123.725 0 1
123.84 0 1
123.956 0 1
124.072 0 1
124.188 0 1
124.303 0 1
124.419 0 1
126.852 0 1
126.968 0 1
127.083 0 1
127.199 0 1
127.315 0 1
127.431 0 1
127.547 0 1
127.663 0 1
127.779 0 1
127.895 0 1
128.011 0 1
128.127 0 1
128.243 0 1
128.359 4393 66.2797
128.476 4219 64.9538
128.592 4103 64.0547
128.708 3927 62.6658
128.825 4034 63.5138
128.941 3856 62.0967
129.058 3622 60.1831
129.174 3786 61.5305
129.291 3547 59.5567
129.408 3546 59.5483
129.524 3576 59.7997
129.641 3600 60
129.758 3621 60.1747
129.875 3601 60.0083
129.992 3681 60.6712
130.108 3829 61.8789
130.225 3665 60.5392
130.342 3863 62.153
130.459 3972 63.0238
130.576 3723 61.0164
130.693 3186 56.4447
130.81 2780 52.7257
130.928 2950 54.3139
131.045 3478 58.9746
131.162 3649 60.407
131.279 3852 62.0645
131.396 3828 61.8708
131.513 3711 60.918
131.631 3747 61.2127
131.748 3832 61.9032
131.865 3738 61.1392
131.983 3680 60.663
132.1 3697 60.803
132.217 3480 58.9915
132.335 3489 59.0678
132.452 3442 58.6686
132.57 3283 57.2975
132.687 3215 56.701
132.804 3365 58.0086
132.922 3135 55.9911
133.039 3122 55.8749
133.157 3186 56.4447
133.274 3120 55.857
133.392 3202 56.5862
133.509 3103 55.7046
133.627 3112 55.7853
133.744 3174 56.3383
133.862 3176 56.356
133.979 3176 56.356
134.097 3057 55.2901
134.214 2698 51.9423
134.332 2194 46.8402
134.449 2191 46.8081
134.567 2669 51.6624
134.684 2974 54.5344
134.802 3100 55.6776
134.919 3051 55.2359
135.037 2964 54.4426
135.154 2952 54.3323
135.272 3050 55.2268
135.389 3043 55.1634
135.507 2944 54.2586
135.624 3010 54.8635
135.742 2849 53.376
135.859 2712 52.0769
135.977 2736 52.3068
136.094 2580 50.7937
136.211 2656 51.5364
136.329 2519 50.1896
136.446 2703 51.9904
136.564 2493 49.93
136.681 2634 51.3225
136.798 2464 49.6387
136.915 2448 49.4773
137.033 2427 49.2646
137.15 2467 49.6689
137.267 2501 50.01
137.384 2414 49.1325
137.502 2540 50.3984
137.619 2532 50.319
137.736 2332 48.2908
137.853 1981 44.5084
137.97 1814 42.5911
138.087 2043 45.1996
138.204 2373 48.7134
138.321 2612 51.1077
138.438 2533 50.3289
138.555 2634 51.3225
138.672 2647 51.449
138.788 2683 51.7977
138.905 2681 51.7784
139.022 2682 51.788
139.139 2765 52.5833
139.255 2845 53.3385
139.372 2742 52.3641
139.488 2746 52.4023
139.605 2890 53.7587
139.721 2853 53.4135
139.838 2801 52.9245
139.954 2833 53.2259
140.071 2749 52.4309
140.187 2807 52.9811
140.303 2723 52.1824
140.419 2689 51.8556
140.535 2664 51.614
140.652 2701 51.9711
140.768 0 1
140.884 0 1
141 0 1
141.115 0 1
141.231 0 1
141.347 0 1
141.463 0 1
141.578 0 1
141.694 0 1
144.104 0 1
144.219 0 1
144.335 0 1
144.45 0 1
144.566 0 1
144.682 0 1
144.798 0 1
144.914 0 1
145.03 0 1
145.146 2210 47.0106
145.262 2294 47.8957
145.378 2235 47.2758
145.494 2170 46.5833
145.61 2166 46.5403
145.726 2068 45.4753
145.842 2058 45.3652
145.959 2078 45.5851
146.075 2112 45.9565
146.192 2122 46.0652
146.308 2039 45.1553
146.425 1908 43.6807
146.541 1879 43.3474
146.658 1705 41.2916
146.774 1747 41.7971
146.891 1925 43.8748
147.008 1921 43.8292
147.125 1942 44.0681
147.241 1938 44.0227
147.358 1863 43.1625
147.475 1870 43.2435
147.592 1844 42.9418
147.709 1850 43.0116
147.826 1844 42.9418
147.943 1720 41.4729
148.06 1721 41.4849
148.177 1680 40.9878
148.294 1657 40.7063
148.411 1646 40.5709
148.528 1842 42.9185
148.645 1665 40.8044
148.762 1637 40.4599
148.88 1571 39.6358
148.997 1597 39.9625
149.114 1482 38.4968
149.231 1494 38.6523
149.349 1590 39.8748
149.466 1494 38.6523
149.583 1492 38.6264
149.701 1497 38.6911
149.818 1516 38.9358
149.935 1557 39.4588
150.053 1465 38.2753
150.17 1514 38.9102
150.287 1463 38.2492
150.405 1568 39.598
150.522 1545 39.3065
150.64 1629 40.3609
150.757 1578 39.724
150.875 1595 39.9375
150.992 1605 40.0625
151.11 1642 40.5216
151.227 1599 39.9875
151.344 1577 39.7115
151.462 1569 39.6106
151.579 1565 39.5601
151.697 1619 40.2368
151.814 1616 40.1995
151.932 1619 40.2368
152.049 1607 40.0874
152.167 1684 41.0366
152.284 1692 41.1339
152.402 1510 38.8587
152.519 1567 39.5854
152.636 1525 39.0512
152.754 1617 40.2119
152.871 1622 40.2741
152.989 1602 40.025
153.106 1644 40.5463
153.223 1587 39.8372
153.341 1613 40.1622
153.458 1552 39.3954
153.575 1563 39.5348
153.693 1615 40.1871
153.81 1718 41.4488
153.927 1718 41.4488
154.044 1824 42.7083
154.162 1925 43.8748
154.279 1908 43.6807
154.396 1919 43.8064
154.513 2107 45.9021
154.63 2055 45.3321
154.747 2063 45.4203
154.864 2207 46.9787
154.981 2207 46.9787
155.098 2209 47
155.215 2095 45.7712
155.332 2089 45.7056
155.449 2149 46.3573
155.566 2084 45.6508
155.683 1999 44.7102
155.8 1835 42.8369
155.917 1951 44.1701
156.033 1857 43.0929
156.15 0 1
156.267 0 1
156.383 0 1
156.5 0 1
156.617 0 1
156.733 0 1
156.85 0 1
156.966 0 1
157.082 0 1
157.199 0 1
157.315 0 1
157.431 0 1
157.547 0 1
157.664 0 1
157.78 0 1
157.896 0 1
158.012 0 1
158.128 0 1
158.244 0 1
158.359 0 1
158.475 0 1
158.591 0 1
158.706 0 1
