
6.15755 0 1
6.2731 0 1
6.3887 0 1
6.50437 0 1
6.62009 0 1
6.73587 0 1
6.8517 0 1
6.96759 0 1
7.08353 0 1
7.19952 0 1
7.31557 0 1
7.43166 0 1
7.54781 0 1
7.664 0 1
7.78024 0 1
7.89653 0 1
8.01286 0 1
8.12924 0 1
8.24567 0 1
8.36213 0 1
8.47864 0 1
8.59519 0 1
8.71178 0 1
8.82841 0 1
8.94508 0 1
9.06179 0 1
9.17853 0 1
9.29531 0 1
9.41212 0 1
9.52897 0 1
9.64584 0 1
9.76276 0 1
9.8797 0 1
9.99667 0 1
10.1137 0 1
10.2307 0 1
10.3478 0 1
10.4648 0 1
10.5819 0 1
10.6991 0 1
10.8162 0 1
10.9334 0 1
11.0506 0 1
11.1678 0 1
11.285 0 1
11.4023 0 1
11.5196 0 1
11.6369 0 1
11.7542 0 1
11.8715 0 1
11.9888 0 1
12.1062 0 1
12.2235 0 1
12.3409 0 1
12.4582 0 1
12.5756 0 1
12.693 0 1
12.8104 0 1
12.9278 0 1
13.0452 0 1
13.1626 0 1
13.28 0 1
13.3974 0 1
13.5149 0 1
13.6323 0 1
13.7497 0 1
13.8671 0 1
13.9845 0 1
14.1019 0 1
14.2193 0 1
14.3367 0 1
14.4541 0 1
14.5714 0 1
14.6888 0 1
14.8062 0 1
14.9235 0 1
15.0408 0 0
15.1581 0 0
15.2755 0 0
15.3927 0 0
15.51 0 0
15.6273 0 0
15.7445 0 0
15.8617 0 0
15.9789 0 0
16.0961 0 0
16.2132 0 0
16.3304 0 0
16.4475 0 0
16.5646 0 0
16.6816 0 0
16.7986 0 0
16.9156 0 0
17.0326 0 0
17.1496 0 0
17.2665 0 0
17.3833 0 0
17.5002 0 0
17.617 0 0
17.7338 0 0
17.8505 0 0
17.9672 0 0
18.0839 0 0
18.2005 0 0
18.3171 0 0
18.4337 0 0
18.5502 0 0
18.6666 0 0
18.7831 0 0
18.8994 0 0
19.0158 0 0
19.1321 0 0
19.2483 0 0
19.3645 0 0
19.4806 0 0
19.5967 0 0
19.7128 0 0
19.8288 0 0
19.9447 0 0
20.0606 0 1
20.1764 0 1
20.2922 0 1
20.4079 0 1
20.5236 0 1
20.6392 0 1
20.7548 0 1
20.8702 0 1
23.3078 0 1
23.4233 0 1
23.539 0 1
23.6547 0 1
23.7704 0 1
23.8862 0 1
24.0021 0 1
24.118 0 1
24.234 0 1
24.35 0 1
24.4661 11932 109.234
24.5822 11747 108.384
24.6984 11917 109.165
24.8146 11490 107.191
24.9309 11495 107.215
25.0472 11141 105.551
25.1636 11271 106.165
25.28 11433 106.925
25.3965 11439 106.953
25.513 11608 107.74
25.6296 11874 108.968
25.7462 12182 110.372
25.8628 12261 110.729
25.9795 12441 111.539
26.0962 12264 110.743
26.213 12320 110.995
26.3298 12214 110.517
26.4466 11648 107.926
26.5635 11689 108.116
26.6804 11616 107.778
26.7973 11647 107.921
26.9143 11947 109.302
27.0313 12210 110.499
27.1483 12421 111.45
27.2653 12771 113.009
27.3824 12903 113.591
27.4996 12754 112.934
27.6167 12794 113.111
27.7339 12385 111.288
27.8511 12262 110.734
27.9683 12441 111.539
28.0855 12052 109.782
28.2028 11957 109.348
28.3201 11222 105.934
28.4374 11082 105.271
28.5547 10941 104.599
28.6721 10678 103.334
28.7894 10634 103.121
28.9068 10650 103.199
29.0242 10496 102.45
29.1416 10749 103.677
29.259 10872 104.269
29.3764 11006 104.909
29.4939 11104 105.376
29.6113 11012 104.938
29.7288 11182 105.745
29.8463 11226 105.953
29.9638 10886 104.336
30.0812 10674 103.315
30.1987 10785 103.851
30.3162 10867 104.245
30.4337 11081 105.266
30.5512 11611 107.754
30.6687 11794 108.6
30.7862 12117 110.077
30.9037 12296 110.887
31.0212 12444 111.553
31.1387 12229 110.585
31.2562 12109 110.041
31.3737 12289 110.856
31.4912 11901 109.092
31.6087 11839 108.807
31.7262 11562 107.527
31.8436 11235 105.995
31.9611 11081 105.266
32.0785 10887 104.341
32.1959 10350 101.735
32.3134 10418 102.069
32.4308 10506 102.499
32.5482 10241 101.198
32.6655 10669 103.291
32.7829 10518 102.557
32.9002 10784 103.846
33.0176 10592 102.917
33.1349 10822 104.029
33.2522 10940 104.594
33.3694 11050 105.119
33.4867 10984 104.805
33.6039 10774 103.798
33.7211 10826 104.048
33.8383 10732 103.595
33.9554 10887 104.341
34.0725 11204 105.849
34.1896 11501 107.243
34.3067 11854 108.876
34.4237 12078 109.9
34.5407 12292 110.869
34.6577 12503 111.817
34.7746 12317 110.982
34.8915 12362 111.185
35.0084 11959 109.357
35.1252 12170 110.318
35.242 11878 108.986
35.3587 11839 108.807
35.4755 11822 108.729
35.5921 11193 105.797
35.7088 11199 105.825
35.8254 10496 102.45
35.9419 10295 101.464
36.0584 10488 102.411
36.1749 10001 100.005
36.2913 10131 100.653
36.4077 10218 101.084
36.524 10272 101.351
36.6403 10486 102.401
36.7565 10556 102.742
36.8727 10898 104.393
36.9889 10675 103.32
37.1049 10582 102.869
37.221 0 1
37.3369 0 1
37.4529 0 1
37.5687 0 1
37.6845 0 1
37.8003 0 1
37.916 0 1
38.0316 0 1
38.1472 0 1
40.5851 0 1
40.7008 0 1
40.8164 0 1
40.9322 0 1
41.048 0 1
41.1639 0 1
41.2798 0 1
41.3958 0 1
41.5118 0 1
41.6279 0 1
41.744 8685 93.1933
41.8602 9193 95.8801
41.9765 9330 96.5919
42.0928 9445 97.1854
42.2091 9641 98.1886
42.3255 9729 98.6357
42.4419 9190 95.8645
42.5584 9087 95.3258
42.675 9097 95.3782
42.7915 9556 97.7548
42.9081 9932 99.6594
43.0248 10290 101.44
43.1415 10461 102.279
43.2582 10803 103.937
43.375 10919 104.494
43.4918 10870 104.259
43.6087 10877 104.293
43.7256 10853 104.178
43.8425 10702 103.45
43.9595 10467 102.308
44.0765 10323 101.602
44.1935 10086 100.429
44.3106 9989 99.945
44.4277 9434 97.1288
44.5448 8963 94.6731
44.6619 8311 91.1647
44.7791 8310 91.1592
44.8963 8277 90.978
45.0136 8038 89.6549
45.1308 8146 90.2552
45.2481 8334 91.2907
45.3654 8097 89.9833
45.4827 8378 91.5314
45.6001 8161 90.3383
45.7174 8496 92.1737
45.8348 8297 91.0879
45.9522 8225 90.6918
46.0697 8035 89.6382
46.1871 7901 88.8876
46.3046 7929 89.0449
46.422 8204 90.5759
46.5395 8659 93.0537
46.657 8963 94.6731
46.7745 8968 94.6995
46.892 9085 95.3153
47.0096 9113 95.462
47.1271 9078 95.2785
47.2446 9110 95.4463
47.3622 9018 94.9632
47.4797 8754 93.5628
47.5973 8680 93.1665
47.7149 8416 91.7388
47.8324 8103 90.0167
47.95 7824 88.4534
48.0675 7485 86.5159
48.1851 6978 83.5344
48.3027 6662 81.6211
48.4202 6645 81.5169
48.5378 6674 81.6946
48.6554 6513 80.7032
48.7729 6746 82.134
48.8904 6868 82.8734
49.008 7052 83.9762
49.1255 7179 84.729
49.243 7282 85.3346
49.3605 7271 85.2702
49.478 7208 84.8999
49.5955 7162 84.6286
49.713 7078 84.1309
49.8304 7415 86.1104
49.9479 7615 87.264
50.0653 8188 90.4876
50.1827 8731 93.4398
50.3001 9114 95.4673
50.4175 9481 97.3704
50.5348 9488 97.4064
50.6521 9962 99.8098
50.7694 10122 100.608
50.8867 10248 101.232
51.004 10529 102.611
51.1212 10516 102.548
51.2384 10374 101.853
51.3556 10543 102.679
51.4727 10061 100.305
51.5899 9695 98.4632
51.707 9048 95.121
51.824 9068 95.226
51.9411 9131 95.5563
52.0581 8916 94.4246
52.175 9281 96.3379
52.2919 9397 96.9381
52.4088 9436 97.1391
52.5257 9631 98.1377
52.6425 9580 97.8775
52.7593 10042 100.21
52.876 10324 101.607
52.9927 10320 101.587
53.1094 10234 101.163
53.226 10156 100.777
53.3426 10335 101.661
53.4591 10401 101.985
53.5756 11154 105.612
53.692 11972 109.417
53.8084 12548 112.018
53.9248 12734 112.845
54.0411 13082 114.377
54.1573 13418 115.836
54.2735 0 1
54.3896 0 1
54.5057 0 1
54.6217 0 1
54.7377 0 1
54.8537 0 1
54.9695 0 1
55.0853 0 1
55.2011 0 1
55.3168 0 1
55.4324 0 1
57.824 0 1
57.9396 0 1
58.0553 0 1
58.1711 0 1
58.2869 0 1
58.4028 0 1
58.5187 0 1
58.6347 0 1
58.7508 0 1
58.8669 0 1
58.983 14619 120.909
59.0992 15417 124.165
59.2155 15676 125.204
59.3318 15979 126.408
59.4482 16087 126.835
59.5646 16401 128.066
59.681 16123 126.976
59.7975 16063 126.74
59.9141 15617 124.968
60.0306 14827 121.766
60.1473 14049 118.528
60.2639 13124 114.56
60.3807 12443 111.548
60.4974 12061 109.823
60.6142 11471 107.103
60.731 11382 106.686
60.8479 11610 107.75
60.9648 11926 109.206
61.0818 12142 110.191
61.1987 12307 110.937
61.3158 12507 111.835
61.4328 12292 110.869
61.5499 12391 111.315
61.667 12004 109.563
61.7841 11655 107.958
61.9013 11890 109.041
62.0185 12386 111.292
62.1357 12650 112.472
62.253 13434 115.905
62.3702 14086 118.684
62.4875 14372 119.883
62.6049 14869 121.939
62.7222 15452 124.306
62.8396 15585 124.84
62.9569 15458 124.33
63.0743 15593 124.872
63.1918 15553 124.712
63.3092 15308 123.726
63.4267 14826 121.762
63.5441 13955 118.131
63.6616 13277 115.226
63.7791 12217 110.531
63.8966 11555 107.494
64.0142 10833 104.082
64.1317 10740 103.634
64.2492 10625 103.078
64.3668 10651 103.204
64.4843 10996 104.862
64.6019 11063 105.181
64.7195 11524 107.35
64.837 11647 107.921
64.9546 11693 108.134
65.0722 11569 107.559
65.1898 11414 106.836
65.3074 11456 107.033
65.4249 10866 104.24
65.5425 11136 105.527
65.6601 11453 107.019
65.7777 12224 110.562
65.8952 13092 114.42
66.0128 13430 115.888
66.1304 14100 118.743
66.2479 14552 120.632
66.3655 14947 122.258
66.483 15044 122.654
66.6005 14887 122.012
66.718 15185 123.227
66.8355 14946 122.254
66.953 14559 120.661
67.0705 14040 118.491
67.1879 13330 115.456
67.3054 12458 111.615
67.4228 11326 106.424
67.5402 10567 102.796
67.6576 10397 101.966
67.7749 10165 100.822
67.8923 10356 101.764
68.0096 10615 103.029
68.1269 10823 104.034
68.2442 11437 106.944
68.3614 11608 107.74
68.4787 11869 108.945
68.5958 12005 109.567
68.713 12040 109.727
68.8302 11842 108.821
68.9473 11445 106.981
69.0643 11242 106.028
69.1814 11146 105.575
69.2984 11854 108.876
69.4154 12701 112.699
69.5323 13478 116.095
69.6492 14159 118.992
69.7661 14916 122.131
69.8829 15319 123.77
69.9997 15980 126.412
70.1165 15991 126.456
70.2332 16626 128.942
70.3499 16387 128.012
70.4665 16222 127.366
70.5831 15619 124.976
70.6996 14818 121.729
70.8161 14196 119.147
70.9326 13370 115.629
71.049 12471 111.674
71.1653 11656 107.963
71.2817 10885 104.331
71.3979 10814 103.99
71.5141 10661 103.252
71.6303 10683 103.359
71.7464 10468 102.313
71.8624 0 1
71.9784 0 1
72.0944 0 1
72.2102 0 1
72.3261 0 1
72.4418 0 1
72.5575 0 1
72.6732 0 1
75.1054 0 1
75.2209 0 1
75.3365 0 1
75.4521 0 1
75.5678 0 1
75.6835 0 1
75.7993 0 1
75.9151 0 1
76.031 0 1
76.147 14025 118.427
76.263 13833 117.614
76.3791 13239 115.061
76.4952 12240 110.635
76.6113 11692 108.13
76.7276 11599 107.699
76.8438 11508 107.275
76.9601 11725 108.282
77.0765 12284 110.833
77.1929 12811 113.186
77.3093 13173 114.774
77.4258 13549 116.4
77.5423 13743 117.231
77.6589 13647 116.82
77.7755 13247 115.096
77.8921 12636 112.41
78.0088 12376 111.247
78.1256 12114 110.064
78.2423 12258 110.716
78.3591 12478 111.705
78.4759 13476 116.086
78.5928 14683 121.173
78.7097 15295 123.673
78.8266 16865 129.865
78.9436 15787 125.646
79.0606 16659 129.07
79.1776 16989 130.342
79.2946 16833 129.742
79.4117 16637 128.984
79.5288 16686 129.174
79.6459 16260 127.515
79.7631 15418 124.169
79.8802 14509 120.453
79.9974 13235 115.043
80.1147 11913 109.147
80.2319 11053 105.133
80.3491 10605 102.981
80.4664 10627 103.087
80.5837 10776 103.808
80.701 11427 106.897
80.8183 11630 107.842
80.9357 11853 108.871
81.053 12141 110.186
81.1704 12398 111.346
81.2877 12093 109.968
81.4051 11961 109.366
81.5225 11580 107.61
81.6399 10861 104.216
81.7573 10855 104.187
81.8747 10670 103.296
81.9922 11102 105.366
82.1096 12320 110.995
82.227 12988 113.965
82.3444 13531 116.323
82.4619 14276 119.482
82.5793 14365 119.854
82.6967 15492 124.467
82.8142 15081 122.805
82.9316 15092 122.85
83.049 14880 121.984
83.1664 14375 119.896
83.2838 14009 118.36
83.4012 13376 115.655
83.5186 12385 111.288
83.636 11525 107.355
83.7534 10569 102.806
83.8708 9976 99.8799
83.9881 9534 97.6422
84.1055 9598 97.9694
84.2228 9843 99.2119
84.3401 10320 101.587
84.4575 10826 104.048
84.5747 11270 106.16
84.692 11891 109.046
84.8093 11932 109.234
84.9265 11615 107.773
85.0437 11173 105.702
85.1609 10548 102.703
85.2781 10119 100.593
85.3952 10049 100.245
85.5123 10500 102.47
85.6294 11065 105.19
85.7465 12224 110.562
85.8636 12908 113.613
85.9806 14147 118.941
86.0976 14581 120.752
86.2145 15381 124.02
86.3315 15256 123.515
86.4484 16204 127.295
86.5652 16024 126.586
86.682 16129 127
86.7988 15537 124.648
86.9156 14968 122.344
87.0323 13950 118.11
87.149 13405 115.78
87.2657 12527 111.924
87.3823 11469 107.093
87.4988 10977 104.771
87.6154 10935 104.571
87.7318 11252 106.075
87.8483 11651 107.94
87.9647 12526 111.92
88.081 13005 114.039
88.1973 13622 116.713
88.3136 13807 117.503
88.4298 13547 116.392
88.546 12976 113.912
88.6621 12084 109.927
88.7781 11243 106.033
88.8942 0 1
89.0101 0 1
89.126 0 1
89.2419 0 1
89.3577 0 1
89.4734 0 1
89.5891 0 1
89.7047 0 1
89.8203 0 1
89.9358 0 1
92.3269 0 1
92.4424 0 1
92.558 0 1
92.6736 0 1
92.7893 0 1
92.905 0 1
93.0208 0 1
93.1366 0 1
93.2525 0 1
93.3685 0 1
93.4845 0 1
93.6005 18524 136.103
93.7167 19668 140.243
93.8328 20559 143.384
93.949 21282 145.884
94.0653 21361 146.154
94.1816 20959 144.772
94.2979 20642 143.673
94.4143 20857 144.42
94.5307 21808 147.675
94.6472 22531 150.103
94.7637 24451 156.368
94.8803 27134 164.724
94.9969 28994 170.276
95.1135 31100 176.352
95.2302 32678 180.771
95.3469 34065 184.567
95.4637 35231 187.699
95.5805 36054 189.879
95.6973 37363 193.295
95.8142 37734 194.252
95.9311 38118 195.238
96.048 37400 193.391
96.1649 36823 191.893
96.2819 35531 188.497
96.3989 34159 184.822
96.516 32694 180.815
96.633 30609 174.954
96.7501 29764 172.522
96.8673 30468 174.551
96.9844 31772 178.247
97.1016 34322 185.262
97.2188 36467 190.963
97.336 38257 195.594
97.4532 38811 197.005
97.5704 38201 195.451
97.6877 37598 193.902
97.805 35161 187.513
97.9223 33223 182.272
98.0396 30990 176.04
98.1569 30389 174.324
98.2743 29794 172.609
98.3916 31000 176.068
98.509 33849 183.981
98.6264 35557 188.566
98.7438 37548 193.773
98.8612 38999 197.482
98.9786 40165 200.412
99.096 40901 202.24
99.2134 41437 203.561
99.3308 41691 204.184
99.4482 41736 204.294
99.5656 41120 202.781
99.6831 40432 201.077
99.8005 39183 197.947
99.9179 37447 193.512
100.035 35977 189.676
100.153 32892 181.362
100.27 30917 175.832
100.388 30655 175.086
100.505 31858 178.488
100.622 33819 183.899
100.74 36343 190.638
100.857 37246 192.992
100.975 37524 193.711
101.092 37150 192.743
101.209 36912 192.125
101.327 35836 189.304
101.444 33218 182.258
101.561 30557 174.806
101.679 29041 170.414
101.796 28401 168.526
101.913 28452 168.677
102.03 29746 172.47
102.148 32228 179.522
102.265 34840 186.655
102.382 32758 180.992
102.499 34489 185.712
102.616 34555 185.89
102.733 34807 186.566
102.851 34152 184.803
102.968 33512 183.063
103.085 32308 179.744
103.202 30542 174.763
103.319 29421 171.526
103.436 27109 164.648
103.552 24879 157.731
103.669 22343 149.476
103.786 20171 142.025
103.903 19510 139.678
104.02 19306 138.946
104.137 19644 140.157
104.253 20388 142.787
104.37 19537 139.775
104.487 19764 140.584
104.603 19067 138.083
104.72 18460 135.868
104.836 17171 131.038
104.953 15732 125.427
105.069 14974 122.368
105.186 14629 120.95
105.302 14404 120.017
105.418 15066 122.744
105.535 16259 127.511
105.651 17352 131.727
105.767 18196 134.893
105.883 18695 136.73
105.999 19004 137.855
106.115 0 1
106.231 0 1
106.347 0 1
106.463 0 1
106.579 0 1
106.694 0 1
106.81 0 1
106.926 0 1
107.041 0 1
107.157 0 1
109.576 0 1
109.692 0 1
109.807 0 1
109.923 0 1
110.039 0 1
110.155 0 1
110.27 0 1
110.386 0 1
110.502 0 1
110.618 14505 120.437
110.735 15907 126.123
110.851 17173 131.046
110.967 17889 133.75
111.083 18227 135.007
111.199 18472 135.912
111.316 18485 135.96
111.432 18538 136.154
111.549 18388 135.602
111.665 17890 133.754
111.782 17285 131.472
111.898 16479 128.371
112.015 15440 124.258
112.132 14507 120.445
112.248 13324 115.43
112.365 12964 113.86
112.482 12897 113.565
112.599 12808 113.172
112.716 13218 114.97
112.832 13514 116.25
112.949 13762 117.312
113.066 13496 116.172
113.183 13533 116.331
113.3 13163 114.73
113.417 12523 111.906
113.534 12223 110.558
113.652 12240 110.635
113.769 12240 110.635
113.886 12330 111.041
114.003 13357 115.572
114.12 14426 120.108
114.238 15620 124.98
114.355 16346 127.851
114.472 17023 130.472
114.589 17157 130.985
114.707 17542 132.446
114.824 17877 133.705
114.942 18156 134.744
115.059 17850 133.604
115.176 17855 133.623
115.294 17102 130.775
115.411 16568 128.717
115.529 15723 125.391
115.646 14791 121.618
115.764 14199 119.16
115.881 13279 115.235
115.999 13095 114.433
116.116 13352 115.551
116.234 13847 117.673
116.351 13851 117.69
116.469 14178 119.071
116.586 13969 118.191
116.704 13959 118.148
116.821 13775 117.367
116.939 13544 116.379
117.056 13083 114.381
117.174 12964 113.86
117.291 13140 114.63
117.409 13238 115.057
117.526 13800 117.473
117.644 14915 122.127
117.761 16238 127.428
117.879 17117 130.832
117.996 17589 132.624
118.114 18488 135.971
118.231 19050 138.022
118.349 18698 136.741
118.466 19131 138.315
118.584 18722 136.828
118.701 19041 137.989
118.819 18652 136.572
118.936 18054 134.365
119.053 17611 132.706
119.171 16837 129.757
119.288 16083 126.819
119.405 14981 122.397
119.523 14288 119.532
119.64 14112 118.794
119.757 14407 120.029
119.875 14296 119.566
119.992 14152 118.962
120.109 14305 119.604
120.226 14406 120.025
120.343 14288 119.532
120.46 14097 118.731
120.578 13884 117.83
120.695 13455 115.996
120.812 13369 115.624
120.929 13496 116.172
121.046 13751 117.265
121.163 14255 119.394
121.279 15061 122.723
121.396 15591 124.864
121.513 16538 128.6
121.63 17644 132.831
121.747 18190 134.87
121.863 18803 137.124
121.98 18766 136.989
122.097 18888 137.434
122.213 18907 137.503
122.33 18634 136.506
122.446 18752 136.938
122.563 18357 135.488
122.679 17749 133.225
122.795 17468 132.167
122.912 16964 130.246
123.028 16054 126.704
123.144 15110 122.923
123.26 14447 120.196
123.377 0 1
123.493 0 1
123.609 0 1
123.725 0 1
123.84 0 1
123.956 0 1
124.072 0 1
124.188 0 1
124.303 0 1
124.419 0 1
126.852 0 1
126.968 0 1
127.083 0 1
127.199 0 1
127.315 0 1
127.431 0 1
127.547 0 1
127.663 0 1
127.779 0 1
127.895 0 1
128.011 0 1
128.127 0 1
128.243 0 1
128.359 17531 132.405
128.476 16568 128.717
128.592 16032 126.618
128.708 16263 127.526
128.825 16360 127.906
128.941 16818 129.684
129.058 16625 128.938
129.174 16287 127.621
129.291 16156 127.106
129.408 16024 126.586
129.524 15456 124.322
129.641 15354 123.911
129.758 15139 123.041
129.875 15156 123.11
129.992 15366 123.96
130.108 15962 126.341
130.225 16266 127.538
130.342 17456 132.121
130.459 17404 131.924
130.576 19050 138.022
130.693 18921 137.554
130.81 19345 139.086
130.928 19348 139.097
131.045 19378 139.205
131.162 19608 140.029
131.279 19515 139.696
131.396 19368 139.169
131.513 19123 138.286
131.631 18387 135.599
131.748 18008 134.194
131.865 17234 131.278
131.983 16266 127.538
132.1 15945 126.274
132.217 15664 125.156
132.335 15971 126.376
132.452 16160 127.122
132.57 16210 127.318
132.687 15847 125.885
132.804 16191 127.244
132.922 15547 124.688
133.039 15512 124.547
133.157 15033 122.609
133.274 14929 122.184
133.392 15280 123.612
133.509 14926 122.172
133.627 15243 123.463
133.744 16050 126.689
133.862 16901 130.004
133.979 17536 132.424
134.097 18269 135.163
134.214 18866 137.354
134.332 18764 136.982
134.449 18986 137.79
134.567 19206 138.586
134.684 19181 138.495
134.802 19419 139.352
134.919 19470 139.535
135.037 19335 139.05
135.154 19045 138.004
135.272 18572 136.279
135.389 18009 134.198
135.507 17172 131.042
135.624 16393 128.035
135.742 16157 127.11
135.859 16110 126.925
135.977 16707 129.256
136.094 16895 129.981
136.211 16446 128.242
136.329 16752 129.43
136.446 16351 127.871
136.564 16320 127.75
136.681 16135 127.024
136.798 15712 125.348
136.915 15765 125.559
137.033 15798 125.69
137.15 15977 126.4
137.267 15750 125.499
137.384 16419 128.137
137.502 17104 130.782
137.619 17750 133.229
137.736 18532 136.132
137.853 18452 135.838
137.97 18560 136.235
138.087 19708 140.385
138.204 19402 139.291
138.321 19625 140.089
138.438 19952 141.252
138.555 20179 142.053
138.672 19771 140.609
138.788 19371 139.18
138.905 18748 136.923
139.022 18359 135.495
139.139 17717 133.105
139.255 17207 131.175
139.372 16885 129.942
139.488 16942 130.161
139.605 17231 131.267
139.721 17304 131.545
139.838 17192 131.118
139.954 16989 130.342
140.071 16450 128.258
140.187 16411 128.105
140.303 16183 127.212
140.419 15864 125.952
140.535 15669 125.176
140.652 15141 123.049
140.768 0 1
140.884 0 1
141 0 1
141.115 0 1
141.231 0 1
141.347 0 1
141.463 0 1
141.578 0 1
141.694 0 1
144.104 0 1
144.219 0 1
144.335 0 1
144.45 0 1
144.566 0 1
144.682 0 1
144.798 0 1
144.914 0 1
145.03 0 1
145.146 15822 125.786
145.262 15840 125.857
145.378 15615 124.96
145.494 15246 123.475
145.61 15074 122.776
145.726 15367 123.964
145.842 15456 124.322
145.959 15660 125.14
146.075 16010 126.531
146.192 16637 128.984
146.308 16868 129.877
146.425 17482 132.22
146.541 17797 133.405
146.658 17911 133.832
146.774 18085 134.48
146.891 18367 135.525
147.008 18599 136.378
147.125 18385 135.591
147.241 18731 136.861
147.358 18476 135.926
147.475 18081 134.466
147.592 17735 133.173
147.709 16940 130.154
147.826 16130 127.004
147.943 16376 127.969
148.06 16195 127.26
148.177 16397 128.051
148.294 16298 127.664
148.411 16574 128.74
148.528 16608 128.872
148.645 16212 127.326
148.762 16193 127.252
148.88 16093 126.858
148.997 15340 123.855
149.114 16042 126.657
149.231 15409 124.133
149.349 15423 124.189
149.466 15384 124.032
149.583 15452 124.306
149.701 15892 126.063
149.818 16375 127.965
149.935 16963 130.242
150.053 17216 131.21
150.17 17601 132.669
150.287 18056 134.373
150.405 18274 135.181
150.522 18705 136.766
150.64 19245 138.726
150.757 18983 137.779
150.875 19063 138.069
150.992 18875 137.386
151.11 18449 135.827
151.227 18440 135.794
151.344 17788 133.372
151.462 17302 131.537
151.579 17155 130.977
151.697 17343 131.693
151.814 17533 132.412
151.932 17725 133.135
152.049 17740 133.192
152.167 17817 133.48
152.284 17339 131.678
152.402 17582 132.597
152.519 17228 131.255
152.636 17305 131.548
152.754 16716 129.29
152.871 16913 130.05
152.989 16401 128.066
153.106 16906 130.023
153.223 16578 128.756
153.341 17079 130.687
153.458 17827 133.518
153.575 18138 134.677
153.693 18740 136.894
153.81 19054 138.036
153.927 19308 138.953
154.044 19910 141.103
154.162 20127 141.87
154.279 20409 142.86
154.396 20885 144.516
154.513 20920 144.637
154.63 20611 143.565
154.747 20248 142.295
154.864 19946 141.23
154.981 19367 139.165
155.098 19085 138.148
155.215 18430 135.757
155.332 18543 136.173
155.449 18925 137.568
155.566 19200 138.564
155.683 18852 137.303
155.8 18697 136.737
155.917 18588 136.338
156.033 18300 135.277
156.15 0 1
156.267 0 1
156.383 0 1
156.5 0 1
156.617 0 1
156.733 0 1
156.85 0 1
156.966 0 1
157.082 0 1
157.199 0 1
157.315 0 1
157.431 0 1
157.547 0 1
157.664 0 1
157.78 0 1
157.896 0 1
158.012 0 1
158.128 0 1
158.244 0 1
158.359 0 1
158.475 0 1
158.591 0 1
158.706 0 1
