
6.15755 0 1
6.2731 0 1
6.3887 0 1
6.50437 0 1
6.62009 0 1
6.73587 0 1
6.8517 0 1
6.96759 0 1
7.08353 0 1
7.19952 0 1
7.31557 0 1
7.43166 0 1
7.54781 0 1
7.664 0 1
7.78024 0 1
7.89653 0 1
8.01286 0 1
8.12924 0 1
8.24567 0 1
8.36213 0 1
8.47864 0 1
8.59519 0 1
8.71178 0 1
8.82841 0 1
8.94508 0 1
9.06179 0 1
9.17853 0 1
9.29531 0 1
9.41212 0 1
9.52897 0 1
9.64584 0 1
9.76276 0 1
9.8797 0 1
9.99667 0 1
10.1137 0 1
10.2307 0 1
10.3478 0 1
10.4648 0 1
10.5819 0 1
10.6991 0 1
10.8162 0 1
10.9334 0 1
11.0506 0 1
11.1678 0 1
11.285 0 1
11.4023 0 1
11.5196 0 1
11.6369 0 1
11.7542 0 1
11.8715 0 1
11.9888 0 1
12.1062 0 1
12.2235 0 1
12.3409 0 1
12.4582 0 1
12.5756 0 1
12.693 0 1
12.8104 0 1
12.9278 0 1
13.0452 0 1
13.1626 0 1
13.28 0 1
13.3974 0 1
13.5149 0 1
13.6323 0 1
13.7497 0 1
13.8671 0 1
13.9845 0 1
14.1019 0 1
14.2193 0 1
14.3367 0 1
14.4541 0 1
14.5714 0 1
14.6888 0 1
14.8062 0 1
14.9235 0 1
15.0408 0 0
15.1581 0 0
15.2755 0 0
15.3927 0 0
15.51 0 0
15.6273 0 0
15.7445 0 0
15.8617 0 0
15.9789 0 0
16.0961 0 0
16.2132 0 0
16.3304 0 0
16.4475 0 0
16.5646 0 0
16.6816 0 0
16.7986 0 0
16.9156 0 0
17.0326 0 0
17.1496 0 0
17.2665 0 0
17.3833 0 0
17.5002 0 0
17.617 0 0
17.7338 0 0
17.8505 0 0
17.9672 0 0
18.0839 0 0
18.2005 0 0
18.3171 0 0
18.4337 0 0
18.5502 0 0
18.6666 0 0
18.7831 0 0
18.8994 0 0
19.0158 0 0
19.1321 0 0
19.2483 0 0
19.3645 0 0
19.4806 0 0
19.5967 0 0
19.7128 0 0
19.8288 0 0
19.9447 0 0
20.0606 0 1
20.1764 0 1
20.2922 0 1
20.4079 0 1
20.5236 0 1
20.6392 0 1
20.7548 0 1
20.8702 0 1
23.3078 0 1
23.4233 0 1
23.539 0 1
23.6547 0 1
23.7704 0 1
23.8862 0 1
24.0021 0 1
24.118 0 1
24.234 0 1
24.35 0 1
24.4661 1352 36.7696
24.5822 1439 37.9342
24.6984 1540 39.2428
24.8146 1717 41.4367
24.9309 1956 44.2267
25.0472 2359 48.5695
25.1636 2465 49.6488
25.28 2597 50.9608
25.3965 2697 51.9326
25.513 2728 52.2303
25.6296 2757 52.5071
25.7462 2708 52.0384
25.8628 2667 51.643
25.9795 2715 52.1057
26.0962 2730 52.2494
26.213 2725 52.2015
26.3298 2937 54.1941
26.4466 2847 53.3573
26.5635 2857 53.4509
26.6804 2763 52.5642
26.7973 2722 52.1728
26.9143 2612 51.1077
27.0313 2653 51.5073
27.1483 2606 51.049
27.2653 2605 51.0392
27.3824 2499 49.99
27.4996 2383 48.816
27.6167 2252 47.4552
27.7339 2212 47.0319
27.8511 2391 48.8979
27.9683 2541 50.4083
28.0855 2443 49.4267
28.2028 2544 50.4381
28.3201 2599 50.9804
28.4374 2599 50.9804
28.5547 2580 50.7937
28.6721 2576 50.7543
28.7894 2586 50.8527
28.9068 2676 51.7301
29.0242 2652 51.4976
29.1416 2610 51.0882
29.259 2763 52.5642
29.3764 2661 51.5849
29.4939 2587 50.8626
29.6113 2355 48.5283
29.7288 2460 49.5984
29.8463 2453 49.5278
29.9638 2409 49.0816
30.0812 2458 49.5782
30.1987 2428 49.2747
30.3162 2424 49.2341
30.4337 2572 50.7149
30.5512 2576 50.7543
30.6687 2502 50.02
30.7862 2568 50.6754
30.9037 2450 49.4975
31.0212 2259 47.5289
31.1387 2349 48.4665
31.2562 2457 49.5681
31.3737 2497 49.97
31.4912 2667 51.643
31.6087 2569 50.6853
31.7262 2686 51.8266
31.8436 2583 50.8232
31.9611 2558 50.5767
32.0785 2454 49.5379
32.1959 2522 50.2195
32.3134 2538 50.3786
32.4308 2398 48.9694
32.5482 2520 50.1996
32.6655 2472 49.7192
32.7829 2383 48.816
32.9002 2239 47.3181
33.0176 2204 46.9468
33.1349 2177 46.6583
33.2522 2138 46.2385
33.3694 2177 46.6583
33.4867 2207 46.9787
33.6039 2171 46.594
33.7211 2233 47.2546
33.8383 2347 48.4458
33.9554 2428 49.2747
34.0725 2331 48.2804
34.1896 2434 49.3356
34.3067 2457 49.5681
34.4237 2445 49.4469
34.5407 2439 49.3862
34.6577 2357 48.5489
34.7746 2349 48.4665
34.8915 2301 47.9687
35.0084 2339 48.3632
35.1252 2414 49.1325
35.242 2560 50.5964
35.3587 2607 51.0588
35.4755 2461 49.6085
35.5921 2478 49.7795
35.7088 2384 48.8262
35.8254 2316 48.1248
35.9419 2203 46.9361
36.0584 2212 47.0319
36.1749 2221 47.1275
36.2913 2152 46.3897
36.4077 2091 45.7275
36.524 1947 44.1248
36.6403 1706 41.3038
36.7565 1564 39.5474
36.8727 1488 38.5746
36.9889 1456 38.1576
37.1049 1397 37.3765
37.221 0 1
37.3369 0 1
37.4529 0 1
37.5687 0 1
37.6845 0 1
37.8003 0 1
37.916 0 1
38.0316 0 1
38.1472 0 1
40.5851 0 1
40.7008 0 1
40.8164 0 1
40.9322 0 1
41.048 0 1
41.1639 0 1
41.2798 0 1
41.3958 0 1
41.5118 0 1
41.6279 0 1
41.744 1860 43.1277
41.8602 2492 49.9199
41.9765 2970 54.4977
42.0928 3091 55.5968
42.2091 3186 56.4447
42.3255 3184 56.4269
42.4419 3123 55.8838
42.5584 3270 57.1839
42.675 3362 57.9828
42.7915 3430 58.5662
42.9081 3449 58.7282
43.0248 3468 58.8897
43.1415 3536 59.4643
43.2582 3551 59.5903
43.375 3148 56.107
43.4918 3070 55.4076
43.6087 3158 56.1961
43.7256 3161 56.2228
43.8425 3371 58.0603
43.9595 3382 58.155
44.0765 3427 58.5406
44.1935 3322 57.6368
44.3106 3308 57.5152
44.4277 3203 56.5951
44.5448 3115 55.8122
44.6619 3015 54.909
44.7791 2867 53.5444
44.8963 2768 52.6118
45.0136 2531 50.309
45.1308 2508 50.0799
45.2481 2385 48.8365
45.3654 2370 48.6826
45.4827 2271 47.655
45.6001 2148 46.3465
45.7174 2210 47.0106
45.8348 2184 46.7333
45.9522 2039 45.1553
46.0697 2115 45.9891
46.1871 2065 45.4423
46.3046 2156 46.4327
46.422 2095 45.7712
46.5395 2269 47.634
46.657 2313 48.0937
46.7745 2204 46.9468
46.892 1995 44.6654
47.0096 1947 44.1248
47.1271 2012 44.8553
47.2446 2039 45.1553
47.3622 2094 45.7602
47.4797 2133 46.1844
47.5973 2089 45.7056
47.7149 2083 45.6399
47.8324 2151 46.3789
47.95 2106 45.8912
48.0675 2025 45
48.1851 2114 45.9783
48.3027 1965 44.3283
48.4202 2021 44.9555
48.5378 1925 43.8748
48.6554 1854 43.0581
48.7729 1917 43.7836
48.8904 1863 43.1625
49.008 1754 41.8808
49.1255 1825 42.72
49.243 1790 42.3084
49.3605 1882 43.382
49.478 1897 43.5546
49.5955 1903 43.6234
49.713 1949 44.1475
49.8304 2110 45.9347
49.9479 2062 45.4093
50.0653 2185 46.744
50.1827 1944 44.0908
50.3001 1885 43.4166
50.4175 1707 41.3159
50.5348 1629 40.3609
50.6521 1651 40.6325
50.7694 1834 42.8252
50.8867 2090 45.7165
51.004 2083 45.6399
51.1212 2137 46.2277
51.2384 2063 45.4203
51.3556 2037 45.1331
51.4727 2094 45.7602
51.5899 2136 46.2169
51.707 2082 45.6289
51.824 2110 45.9347
51.9411 2072 45.5192
52.0581 1969 44.3734
52.175 1982 44.5197
52.2919 1875 43.3013
52.4088 1975 44.441
52.5257 1843 42.9302
52.6425 1809 42.5323
52.7593 1920 43.8178
52.876 1799 42.4146
52.9927 1875 43.3013
53.1094 1885 43.4166
53.226 1903 43.6234
53.3426 1804 42.4735
53.4591 1864 43.1741
53.5756 1658 40.7185
53.692 1464 38.2623
53.8084 1292 35.9444
53.9248 1180 34.3511
54.0411 1045 32.3265
54.1573 1003 31.6702
54.2735 0 1
54.3896 0 1
54.5057 0 1
54.6217 0 1
54.7377 0 1
54.8537 0 1
54.9695 0 1
55.0853 0 1
55.2011 0 1
55.3168 0 1
55.4324 0 1
57.824 0 1
57.9396 0 1
58.0553 0 1
58.1711 0 1
58.2869 0 1
58.4028 0 1
58.5187 0 1
58.6347 0 1
58.7508 0 1
58.8669 0 1
58.983 1643 40.5339
59.0992 1647 40.5832
59.2155 1749 41.821
59.3318 1900 43.589
59.4482 2069 45.4863
59.5646 2195 46.8508
59.681 2379 48.775
59.7975 2470 49.6991
59.9141 2443 49.4267
60.0306 2409 49.0816
60.1473 2397 48.9592
60.2639 2420 49.1935
60.3807 2293 47.8853
60.4974 2446 49.4571
60.6142 2460 49.5984
60.731 2424 49.2341
60.8479 2511 50.1099
60.9648 2499 49.99
61.0818 2458 49.5782
61.1987 2462 49.6185
61.3158 2271 47.655
61.4328 2265 47.592
61.5499 2292 47.8748
61.667 2265 47.592
61.7841 2334 48.3115
61.9013 2247 47.4025
62.0185 2396 48.949
62.1357 2430 49.295
62.253 2397 48.9592
62.3702 2376 48.7442
62.4875 2241 47.3392
62.6049 2147 46.3357
62.7222 2191 46.8081
62.8396 2215 47.0638
62.9569 2430 49.295
63.0743 2425 49.2443
63.1918 2554 50.5371
63.3092 2571 50.705
63.4267 2659 51.5655
63.5441 2588 50.8724
63.6616 2485 49.8498
63.7791 2487 49.8698
63.8966 2424 49.2341
64.0142 2431 49.3052
64.1317 2531 50.309
64.2492 2424 49.2341
64.3668 2493 49.93
64.4843 2416 49.1528
64.6019 2399 48.9796
64.7195 2365 48.6313
64.837 2372 48.7032
64.9546 2379 48.775
65.0722 2224 47.1593
65.1898 2304 48
65.3074 2359 48.5695
65.4249 2373 48.7134
65.5425 2383 48.816
65.6601 2376 48.7442
65.7777 2391 48.8979
65.8952 2357 48.5489
66.0128 2294 47.8957
66.1304 1917 43.7836
66.2479 1879 43.3474
66.3655 2017 44.911
66.483 2334 48.3115
66.6005 2382 48.8057
66.718 2418 49.1732
66.8355 2393 48.9183
66.953 2510 50.0999
67.0705 2580 50.7937
67.1879 2561 50.6063
67.3054 2413 49.1223
67.4228 2445 49.4469
67.5402 2439 49.3862
67.6576 2346 48.4355
67.7749 2404 49.0306
67.8923 2456 49.558
68.0096 2399 48.9796
68.1269 2317 48.1352
68.2442 2410 49.0918
68.3614 2322 48.1871
68.4787 2363 48.6107
68.5958 2268 47.6235
68.713 2279 47.7389
68.8302 2263 47.571
68.9473 2179 46.6798
69.0643 2254 47.4763
69.1814 2245 47.3814
69.2984 2310 48.0625
69.4154 2335 48.3218
69.5323 2304 48
69.6492 2163 46.5081
69.7661 1873 43.2782
69.8829 1772 42.0951
69.9997 1894 43.5201
70.1165 1991 44.6206
70.2332 2029 45.0444
70.3499 1888 43.4511
70.4665 1749 41.821
70.5831 1623 40.2865
70.6996 1574 39.6737
70.8161 1509 38.8458
70.9326 1538 39.2173
71.049 1459 38.1969
71.1653 1301 36.0694
71.2817 1271 35.6511
71.3979 1250 35.3553
71.5141 1169 34.1906
71.6303 1174 34.2637
71.7464 1098 33.1361
71.8624 0 1
71.9784 0 1
72.0944 0 1
72.2102 0 1
72.3261 0 1
72.4418 0 1
72.5575 0 1
72.6732 0 1
75.1054 0 1
75.2209 0 1
75.3365 0 1
75.4521 0 1
75.5678 0 1
75.6835 0 1
75.7993 0 1
75.9151 0 1
76.031 0 1
76.147 1890 43.4741
76.263 2097 45.793
76.3791 2179 46.6798
76.4952 2188 46.7761
76.6113 2162 46.4973
76.7276 2188 46.7761
76.8438 2212 47.0319
76.9601 2187 46.7654
77.0765 2205 46.9574
77.1929 2227 47.1911
77.3093 2227 47.1911
77.4258 2246 47.392
77.5423 2180 46.6905
77.6589 2192 46.8188
77.7755 2144 46.3033
77.8921 2118 46.0217
78.0088 2153 46.4004
78.1256 2178 46.669
78.2423 2282 47.7703
78.3591 2300 47.9583
78.4759 2182 46.7119
78.5928 2201 46.9148
78.7097 2020 44.9444
78.8266 1732 41.6173
78.9436 1512 38.8844
79.0606 1575 39.6863
79.1776 1820 42.6615
79.2946 2104 45.8694
79.4117 2294 47.8957
79.5288 2301 47.9687
79.6459 2266 47.6025
79.7631 2346 48.4355
79.8802 2211 47.0213
79.9974 2327 48.239
80.1147 2279 47.7389
80.2319 2347 48.4458
80.3491 2311 48.0729
80.4664 2356 48.5386
80.5837 2351 48.4871
80.701 2415 49.1426
80.8183 2341 48.3839
80.9357 2511 50.1099
81.053 2347 48.4458
81.1704 2375 48.734
81.2877 2363 48.6107
81.4051 2285 47.8017
81.5225 2281 47.7598
81.6399 2196 46.8615
81.7573 2562 50.6162
81.8747 2390 48.8876
81.9922 2612 51.1077
82.1096 2586 50.8527
82.227 2695 51.9134
82.3444 2519 50.1896
82.4619 2277 47.7179
82.5793 2134 46.1952
82.6967 2203 46.9361
82.8142 2636 51.342
82.9316 3207 56.6304
83.049 3457 58.7963
83.1664 3554 59.6154
83.2838 3775 61.441
83.4012 3830 61.887
83.5186 3895 62.4099
83.636 4045 63.6003
83.7534 4099 64.0234
83.8708 4332 65.8179
83.9881 4161 64.5058
84.1055 4376 66.1513
84.2228 4204 64.8383
84.3401 4422 66.4981
84.4575 4245 65.1537
84.5747 4387 66.2344
84.692 4299 65.5668
84.8093 4247 65.169
84.9265 4154 64.4515
85.0437 4153 64.4438
85.1609 4073 63.8201
85.2781 4118 64.1716
85.3952 4102 64.0469
85.5123 4134 64.2962
85.6294 4189 64.7225
85.7465 4031 63.4902
85.8636 3798 61.6279
85.9806 3235 56.8771
86.0976 2709 52.0481
86.2145 2690 51.8652
86.3315 3033 55.0727
86.4484 3941 62.7774
86.5652 4058 63.7024
86.682 4115 64.1483
86.7988 4070 63.7966
86.9156 4029 63.4744
87.0323 4013 63.3482
87.149 4041 63.5689
87.2657 4092 63.9687
87.3823 4073 63.8201
87.4988 3918 62.5939
87.6154 3490 59.0762
87.7318 3335 57.7495
87.8483 2983 54.6168
87.9647 2992 54.6992
88.081 2950 54.3139
88.1973 2894 53.7959
88.3136 2694 51.9038
88.4298 2644 51.4198
88.546 2451 49.5076
88.6621 2406 49.051
88.7781 2310 48.0625
88.8942 0 1
89.0101 0 1
89.126 0 1
89.2419 0 1
89.3577 0 1
89.4734 0 1
89.5891 0 1
89.7047 0 1
89.8203 0 1
89.9358 0 1
92.3269 0 1
92.4424 0 1
92.558 0 1
92.6736 0 1
92.7893 0 1
92.905 0 1
93.0208 0 1
93.1366 0 1
93.2525 0 1
93.3685 0 1
93.4845 0 1
93.6005 4327 65.7799
93.7167 4360 66.0303
93.8328 4441 66.6408
93.949 4206 64.8537
94.0653 4254 65.2227
94.1816 4197 64.7843
94.2979 4245 65.1537
94.4143 4331 65.8103
94.5307 4317 65.7039
94.6472 4180 64.6529
94.7637 4062 63.7338
94.8803 3811 61.7333
94.9969 3259 57.0877
95.1135 2918 54.0185
95.2302 3142 56.0535
95.3469 3610 60.0833
95.4637 4076 63.8436
95.5805 4411 66.4154
95.6973 4404 66.3626
95.8142 4352 65.9697
95.9311 4431 66.5658
96.048 4495 67.0448
96.1649 4410 66.4078
96.2819 4494 67.0373
96.3989 4368 66.0908
96.516 4494 67.0373
96.633 4513 67.1789
96.7501 4531 67.3127
96.8673 4562 67.5426
96.9844 4502 67.0969
97.1016 4595 67.7864
97.2188 4531 67.3127
97.336 4626 68.0147
97.4532 4441 66.6408
97.5704 4344 65.909
97.6877 4298 65.5591
97.805 4331 65.8103
97.9223 4376 66.1513
98.0396 4437 66.6108
98.1569 4488 66.9925
98.2743 4275 65.3835
98.3916 3905 62.49
98.509 3341 57.8014
98.6264 3046 55.1906
98.7438 3073 55.4346
98.8612 3649 60.407
98.9786 3977 63.0635
99.096 3978 63.0714
99.2134 4076 63.8436
99.3308 3966 62.9762
99.4482 3865 62.1691
99.5656 3873 62.2334
99.6831 3681 60.6712
99.8005 3606 60.05
99.9179 3559 59.6574
100.035 3407 58.3695
100.153 3435 58.6089
100.27 3311 57.5413
100.388 3387 58.1979
100.505 3283 57.2975
100.622 3202 56.5862
100.74 3133 55.9732
100.857 3043 55.1634
100.975 3014 54.8999
101.092 2983 54.6168
101.209 2923 54.0648
101.327 2935 54.1756
101.444 3007 54.8361
101.561 2926 54.0925
101.679 2898 53.8331
101.796 2913 53.9722
101.913 2886 53.7215
102.03 2653 51.5073
102.148 2358 48.5592
102.265 2090 45.7165
102.382 2481 49.8096
102.499 2574 50.7346
102.616 2731 52.259
102.733 2804 52.9528
102.851 2806 52.9717
102.968 2852 53.4041
103.085 2728 52.2303
103.202 2798 52.8961
103.319 2758 52.5167
103.436 2827 53.1695
103.552 2716 52.1153
103.669 2730 52.2494
103.786 2743 52.3737
103.903 2691 51.8748
104.02 2775 52.6783
104.137 2848 53.3667
104.253 2872 53.591
104.37 2840 53.2917
104.487 2760 52.5357
104.603 2682 51.788
104.72 2557 50.5668
104.836 2411 49.1019
104.953 2145 46.3141
105.069 1889 43.4626
105.186 1752 41.8569
105.302 1583 39.7869
105.418 1518 38.9615
105.535 1376 37.0945
105.651 1198 34.6121
105.767 991 31.4802
105.883 908 30.133
105.999 844 29.0517
106.115 0 1
106.231 0 1
106.347 0 1
106.463 0 1
106.579 0 1
106.694 0 1
106.81 0 1
106.926 0 1
107.041 0 1
107.157 0 1
109.576 0 1
109.692 0 1
109.807 0 1
109.923 0 1
110.039 0 1
110.155 0 1
110.27 0 1
110.386 0 1
110.502 0 1
110.618 2629 51.2738
110.735 2837 53.2635
110.851 2730 52.2494
110.967 2514 50.1398
111.083 2367 48.6518
111.199 2561 50.6063
111.316 2797 52.8867
111.432 2966 54.461
111.549 3038 55.1181
111.665 2929 54.1202
111.782 2987 54.6535
111.898 2975 54.5436
112.015 2911 53.9537
112.132 3021 54.9636
112.248 3088 55.5698
112.365 3085 55.5428
112.482 2961 54.4151
112.599 3076 55.4617
112.716 3185 56.4358
112.832 3229 56.8243
112.949 3199 56.5597
113.066 3385 58.1808
113.183 3280 57.2713
113.3 3359 57.9569
113.417 3247 56.9825
113.534 3456 58.7878
113.652 3337 57.7668
113.769 3416 58.4466
113.886 3409 58.3866
114.003 3310 57.5326
114.12 3417 58.4551
114.238 3233 56.8595
114.355 3121 55.8659
114.472 2677 51.7397
114.589 2612 51.1077
114.707 2633 51.3128
114.824 2823 53.1319
114.942 3044 55.1725
115.059 3126 55.9106
115.176 3132 55.9643
115.294 3222 56.7627
115.411 3108 55.7494
115.529 3062 55.3353
115.646 3084 55.5338
115.764 2973 54.5252
115.881 3103 55.7046
115.999 3011 54.8726
116.116 3129 55.9375
116.234 3169 56.2939
116.351 3264 57.1314
116.469 3358 57.9483
116.586 3361 57.9741
116.704 3510 59.2453
116.821 3449 58.7282
116.939 3449 58.7282
117.056 3275 57.2276
117.174 3496 59.127
117.291 3250 57.0088
117.409 3299 57.4369
117.526 3420 58.4808
117.644 3336 57.7581
117.761 3209 56.648
117.879 3170 56.3028
117.996 2900 53.8516
118.114 2574 50.7346
118.231 2568 50.6754
118.349 2765 52.5833
118.466 2921 54.0463
118.584 3112 55.7853
118.701 3218 56.7274
118.819 3032 55.0636
118.936 3065 55.3624
119.053 3021 54.9636
119.171 3093 55.6147
119.288 2983 54.6168
119.405 2954 54.3507
119.523 3067 55.3805
119.64 2888 53.7401
119.757 2932 54.1479
119.875 2888 53.7401
119.992 3084 55.5338
120.109 3083 55.5248
120.226 3095 55.6327
120.343 3271 57.1927
120.46 3192 56.4978
120.578 3163 56.2406
120.695 3102 55.6956
120.812 3157 56.1872
120.929 3161 56.2228
121.046 3082 55.5158
121.163 3089 55.5788
121.279 3004 54.8088
121.396 3047 55.1996
121.513 2930 54.1295
121.63 2736 52.3068
121.747 2443 49.4267
121.863 2215 47.0638
121.98 2126 46.1086
122.097 2113 45.9674
122.213 2153 46.4004
122.33 2194 46.8402
122.446 2209 47
122.563 2025 45
122.679 2075 45.5522
122.795 1980 44.4972
122.912 1881 43.3705
123.028 1806 42.4971
123.144 1809 42.5323
123.26 1817 42.6263
123.377 0 1
123.493 0 1
123.609 0 1
123.725 0 1
123.84 0 1
123.956 0 1
124.072 0 1
124.188 0 1
124.303 0 1
124.419 0 1
126.852 0 1
126.968 0 1
127.083 0 1
127.199 0 1
127.315 0 1
127.431 0 1
127.547 0 1
127.663 0 1
127.779 0 1
127.895 0 1
128.011 0 1
128.127 0 1
128.243 0 1
128.359 3501 59.1692
128.476 3385 58.1808
128.592 3513 59.2706
128.708 3544 59.5315
128.825 3538 59.4811
128.941 3599 59.9917
129.058 3659 60.4897
129.174 3766 61.3677
129.291 3832 61.9032
129.408 3896 62.4179
129.524 4013 63.3482
129.641 4133 64.2884
129.758 4201 64.8151
129.875 4221 64.9692
129.992 4363 66.053
130.108 4302 65.5896
130.225 4168 64.56
130.342 4331 65.8103
130.459 4154 64.4515
130.576 4101 64.0391
130.693 3911 62.538
130.81 3664 60.531
130.928 3784 61.5142
131.045 3906 62.498
131.162 3861 62.1369
131.279 4047 63.616
131.396 4029 63.4744
131.513 4151 64.4283
131.631 4075 63.8357
131.748 4155 64.4593
131.865 3994 63.1981
131.983 3943 62.7933
132.1 4090 63.9531
132.217 3929 62.6817
132.335 3920 62.6099
132.452 3875 62.2495
132.57 3960 62.9285
132.687 3772 61.4166
132.804 4178 64.6375
132.922 4122 64.2028
133.039 4093 63.9766
133.157 4193 64.7534
133.274 4288 65.4828
133.392 4136 64.3117
133.509 4399 66.325
133.627 4452 66.7233
133.744 4438 66.6183
133.862 4545 67.4166
133.979 4513 67.1789
134.097 4287 65.4752
134.214 4316 65.6963
134.332 4002 63.2614
134.449 4062 63.7338
134.567 4182 64.6684
134.684 4248 65.1767
134.802 4403 66.3551
134.919 4458 66.7683
135.037 4420 66.4831
135.154 4392 66.2722
135.272 4357 66.0076
135.389 4348 65.9394
135.507 4339 65.8711
135.624 4220 64.9615
135.742 4157 64.4748
135.859 4148 64.405
135.977 4183 64.6761
136.094 3962 62.9444
136.211 4022 63.4192
136.329 4102 64.0469
136.446 4189 64.7225
136.564 4118 64.1716
136.681 4138 64.3273
136.798 4284 65.4523
136.915 4273 65.3682
137.033 4275 65.3835
137.15 4234 65.0692
137.267 4360 66.0303
137.384 4287 65.4752
137.502 4428 66.5432
137.619 4364 66.0606
137.736 4203 64.8305
137.853 3924 62.6418
137.97 4060 63.7181
138.087 3807 61.7009
138.204 4013 63.3482
138.321 3875 62.2495
138.438 4145 64.3817
138.555 4270 65.3452
138.672 4165 64.5368
138.788 4014 63.3561
138.905 4050 63.6396
139.022 4015 63.364
139.139 3774 61.4329
139.255 3605 60.0417
139.372 3311 57.5413
139.488 3287 57.3324
139.605 3276 57.2364
139.721 3093 55.6147
139.838 3125 55.9017
139.954 2947 54.2863
140.071 2932 54.1479
140.187 2951 54.3231
140.303 2862 53.4977
140.419 2916 54
140.535 2942 54.2402
140.652 2989 54.6717
140.768 0 1
140.884 0 1
141 0 1
141.115 0 1
141.231 0 1
141.347 0 1
141.463 0 1
141.578 0 1
141.694 0 1
144.104 0 1
144.219 0 1
144.335 0 1
144.45 0 1
144.566 0 1
144.682 0 1
144.798 0 1
144.914 0 1
145.03 0 1
145.146 8521 92.3093
145.262 8791 93.7603
145.378 8736 93.4666
145.494 8756 93.5735
145.61 8889 94.2815
145.726 9079 95.2838
145.842 8887 94.2709
145.959 8960 94.6573
146.075 9090 95.3415
146.192 8980 94.7629
146.308 8867 94.1647
146.425 8770 93.6483
146.541 8142 90.233
146.658 6976 83.5225
146.774 6102 78.1153
146.891 5700 75.4983
147.008 6484 80.5233
147.125 7746 88.0114
147.241 8323 91.2305
147.358 8747 93.5254
147.475 9040 95.0789
147.592 8774 93.6696
147.709 8844 94.0425
147.826 8692 93.2309
147.943 8727 93.4184
148.06 9084 95.31
148.177 8758 93.5842
148.294 8801 93.8136
148.411 8869 94.1754
148.528 9127 95.5353
148.645 8873 94.1966
148.762 8957 94.6414
148.88 8989 94.8103
148.997 8810 93.8616
149.114 9233 96.0885
149.231 9127 95.5353
149.349 9082 95.2995
149.466 9039 95.0737
149.583 9217 96.0052
149.701 9111 95.4516
149.818 9096 95.373
149.935 9057 95.1683
150.053 9153 95.6713
150.17 8638 92.9408
150.287 7784 88.227
150.405 6779 82.3347
150.522 6069 77.9038
150.64 6505 80.6536
150.757 7421 86.1452
150.875 8322 91.225
150.992 8764 93.6162
151.11 8606 92.7685
151.227 8716 93.3595
151.344 8650 93.0054
151.462 8655 93.0323
151.579 8850 94.0744
151.697 8748 93.5307
151.814 8676 93.145
151.932 8831 93.9734
152.049 8870 94.1807
152.167 8914 94.414
152.284 8922 94.4563
152.402 8966 94.689
152.519 8917 94.4299
152.636 9087 95.3258
152.754 9111 95.4516
152.871 8990 94.8156
152.989 9346 96.6747
153.106 9279 96.3276
153.223 9231 96.0781
153.341 9304 96.4572
153.458 9318 96.5298
153.575 9428 97.0979
153.693 9231 96.0781
153.81 8826 93.9468
153.927 7948 89.1516
154.044 6894 83.0301
154.162 6406 80.0375
154.279 6954 83.3906
154.396 7963 89.2356
154.513 8775 93.675
154.63 9109 95.4411
154.747 9388 96.8917
154.864 9104 95.4149
154.981 9005 94.8947
155.098 9154 95.6765
155.215 8702 93.2845
155.332 8569 92.5689
155.449 8410 91.7061
155.566 8141 90.2275
155.683 8212 90.6201
155.8 8023 89.5712
155.917 7892 88.8369
156.033 7636 87.3842
156.15 0 1
156.267 0 1
156.383 0 1
156.5 0 1
156.617 0 1
156.733 0 1
156.85 0 1
156.966 0 1
157.082 0 1
157.199 0 1
157.315 0 1
157.431 0 1
157.547 0 1
157.664 0 1
157.78 0 1
157.896 0 1
158.012 0 1
158.128 0 1
158.244 0 1
158.359 0 1
158.475 0 1
158.591 0 1
158.706 0 1
