
6.15755 0 1
6.2731 0 1
6.3887 0 1
6.50437 0 1
6.62009 0 1
6.73587 0 1
6.8517 0 1
6.96759 0 1
7.08353 0 1
7.19952 0 1
7.31557 0 1
7.43166 0 1
7.54781 0 1
7.664 0 1
7.78024 0 1
7.89653 0 1
8.01286 0 1
8.12924 0 1
8.24567 0 1
8.36213 0 1
8.47864 0 1
8.59519 0 1
8.71178 0 1
8.82841 0 1
8.94508 0 1
9.06179 0 1
9.17853 0 1
9.29531 0 1
9.41212 0 1
9.52897 0 1
9.64584 0 1
9.76276 0 1
9.8797 0 1
9.99667 0 1
10.1137 0 1
10.2307 0 1
10.3478 0 1
10.4648 0 1
10.5819 0 1
10.6991 0 1
10.8162 0 1
10.9334 0 1
11.0506 0 1
11.1678 0 1
11.285 0 1
11.4023 0 1
11.5196 0 1
11.6369 0 1
11.7542 0 1
11.8715 0 1
11.9888 0 1
12.1062 0 1
12.2235 0 1
12.3409 0 1
12.4582 0 1
12.5756 0 1
12.693 0 1
12.8104 0 1
12.9278 0 1
13.0452 0 1
13.1626 0 1
13.28 0 1
13.3974 0 1
13.5149 0 1
13.6323 0 1
13.7497 0 1
13.8671 0 1
13.9845 0 1
14.1019 0 1
14.2193 0 1
14.3367 0 1
14.4541 0 1
14.5714 0 1
14.6888 0 1
14.8062 0 1
14.9235 0 1
15.0408 1375 37.081
15.1581 1486 38.5487
15.2755 1513 38.8973
15.3927 1547 39.3319
15.51 1513 38.8973
15.6273 1552 39.3954
15.7445 1520 38.9872
15.8617 1395 37.3497
15.9789 1345 36.6742
16.0961 1363 36.9188
16.2132 1280 35.7771
16.3304 1362 36.9053
16.4475 1278 35.7491
16.5646 1309 36.1801
16.6816 1222 34.9571
16.7986 1141 33.7787
16.9156 1165 34.1321
17.0326 1069 32.6956
17.1496 1124 33.5261
17.2665 1104 33.2265
17.3833 1094 33.0757
17.5002 1126 33.5559
17.617 1178 34.322
17.7338 1110 33.3167
17.8505 1169 34.1906
17.9672 1163 34.1028
18.0839 1228 35.0428
18.2005 1305 36.1248
18.3171 1323 36.3731
18.4337 1332 36.4966
18.5502 1334 36.524
18.6666 1324 36.3868
18.7831 1343 36.647
18.8994 1322 36.3593
19.0158 1303 36.0971
19.1321 1287 35.8748
19.2483 1251 35.3695
19.3645 1124 33.5261
19.4806 1085 32.9393
19.5967 994 31.5278
19.7128 962 31.0161
19.8288 898 29.9666
19.9447 822 28.6705
20.0606 0 1
20.1764 0 1
20.2922 0 1
20.4079 0 1
20.5236 0 1
20.6392 0 1
20.7548 0 1
20.8702 0 1
23.3078 0 1
23.4233 0 1
23.539 0 1
23.6547 0 1
23.7704 0 1
23.8862 0 1
24.0021 0 1
24.118 0 1
24.234 0 1
24.35 0 1
24.4661 613 24.7588
24.5822 730 27.0185
24.6984 708 26.6083
24.8146 871 29.5127
24.9309 929 30.4795
25.0472 1048 32.3728
25.1636 1014 31.8434
25.28 1149 33.8969
25.3965 1174 34.2637
25.513 1271 35.6511
25.6296 1249 35.3412
25.7462 1268 35.609
25.8628 1307 36.1525
25.9795 1280 35.7771
26.0962 1323 36.3731
26.213 1260 35.4965
26.3298 1344 36.6606
26.4466 1321 36.3456
26.5635 1283 35.819
26.6804 1303 36.0971
26.7973 1335 36.5377
26.9143 1339 36.5923
27.0313 1389 37.2693
27.1483 1319 36.318
27.2653 1447 38.0395
27.3824 1426 37.7624
27.4996 1393 37.3229
27.6167 1477 38.4318
27.7339 1432 37.8418
27.8511 1408 37.5233
27.9683 1336 36.5513
28.0855 1277 35.7351
28.2028 1274 35.6931
28.3201 1327 36.428
28.4374 1264 35.5528
28.5547 1341 36.6197
28.6721 1333 36.5103
28.7894 1434 37.8682
28.9068 1273 35.6791
29.0242 1438 37.921
29.1416 1239 35.1994
29.259 1234 35.1283
29.3764 1248 35.327
29.4939 1297 36.0139
29.6113 1284 35.8329
29.7288 1284 35.8329
29.8463 1280 35.7771
29.9638 1293 35.9583
30.0812 1310 36.1939
30.1987 1306 36.1386
30.3162 1339 36.5923
30.4337 1333 36.5103
30.5512 1286 35.8608
30.6687 1387 37.2424
30.7862 1459 38.1969
30.9037 1399 37.4032
31.0212 1424 37.7359
31.1387 1449 38.0657
31.2562 1410 37.55
31.3737 1414 37.6032
31.4912 1459 38.1969
31.6087 1399 37.4032
31.7262 1338 36.5787
31.8436 1279 35.7631
31.9611 1288 35.8887
32.0785 1280 35.7771
32.1959 1343 36.647
32.3134 1385 37.2156
32.4308 1310 36.1939
32.5482 1335 36.5377
32.6655 1376 37.0945
32.7829 1211 34.7994
32.9002 1275 35.7071
33.0176 1338 36.5787
33.1349 1266 35.5809
33.2522 1310 36.1939
33.3694 1252 35.3836
33.4867 1308 36.1663
33.6039 1287 35.8748
33.7211 1329 36.4555
33.8383 1289 35.9026
33.9554 1327 36.428
34.0725 1369 37
34.1896 1447 38.0395
34.3067 1395 37.3497
34.4237 1403 37.4566
34.5407 1391 37.2961
34.6577 1545 39.3065
34.7746 1453 38.1182
34.8915 1451 38.092
35.0084 1434 37.8682
35.1252 1387 37.2424
35.242 1424 37.7359
35.3587 1338 36.5787
35.4755 1269 35.623
35.5921 1231 35.0856
35.7088 1370 37.0135
35.8254 1297 36.0139
35.9419 1376 37.0945
36.0584 1358 36.8511
36.1749 1335 36.5377
36.2913 1184 34.4093
36.4077 1220 34.9285
36.524 1110 33.3167
36.6403 984 31.3688
36.7565 977 31.257
36.8727 913 30.2159
36.9889 813 28.5132
37.1049 806 28.3901
37.221 0 1
37.3369 0 1
37.4529 0 1
37.5687 0 1
37.6845 0 1
37.8003 0 1
37.916 0 1
38.0316 0 1
38.1472 0 1
40.5851 0 1
40.7008 0 1
40.8164 0 1
40.9322 0 1
41.048 0 1
41.1639 0 1
41.2798 0 1
41.3958 0 1
41.5118 0 1
41.6279 0 1
41.744 778 27.8927
41.8602 887 29.7825
41.9765 912 30.1993
42.0928 964 31.0483
42.2091 1011 31.7962
42.3255 1059 32.5423
42.4419 1071 32.7261
42.5584 1095 33.0908
42.675 1092 33.0454
42.7915 1124 33.5261
42.9081 1185 34.4238
43.0248 1179 34.3366
43.1415 1254 35.4119
43.2582 1286 35.8608
43.375 1344 36.6606
43.4918 1443 37.9868
43.6087 1423 37.7227
43.7256 1415 37.6165
43.8425 1438 37.921
43.9595 1435 37.8814
44.0765 1436 37.8946
44.1935 1444 38
44.3106 1401 37.4299
44.4277 1376 37.0945
44.5448 1425 37.7492
44.6619 1502 38.7556
44.7791 1510 38.8587
44.8963 1515 38.923
45.0136 1532 39.1408
45.1308 1659 40.7308
45.2481 1584 39.7995
45.3654 1656 40.694
45.4827 1623 40.2865
45.6001 1723 41.509
45.7174 1633 40.4104
45.8348 1684 41.0366
45.9522 1569 39.6106
46.0697 1559 39.4842
46.1871 1601 40.0125
46.3046 1655 40.6817
46.422 1707 41.3159
46.5395 1722 41.497
46.657 1982 44.5197
46.7745 1959 44.2606
46.892 2081 45.618
47.0096 2281 47.7598
47.1271 2344 48.4149
47.2446 2342 48.3942
47.3622 2400 48.9898
47.4797 2370 48.6826
47.5973 2453 49.5278
47.7149 2402 49.0102
47.8324 2319 48.156
47.95 2277 47.7179
48.0675 2328 48.2494
48.1851 2340 48.3735
48.3027 2470 49.6991
48.4202 2321 48.1768
48.5378 2248 47.4131
48.6554 2171 46.594
48.7729 2181 46.7012
48.8904 2153 46.4004
49.008 2088 45.6946
49.1255 2091 45.7275
49.243 1989 44.5982
49.3605 1832 42.8019
49.478 1686 41.0609
49.5955 1613 40.1622
49.713 1523 39.0256
49.8304 1479 38.4578
49.9479 1593 39.9124
50.0653 1690 41.1096
50.1827 1689 41.0974
50.3001 1758 41.9285
50.4175 1796 42.3792
50.5348 1787 42.2729
50.6521 1779 42.1782
50.7694 1876 43.3128
50.8867 1771 42.0833
51.004 1752 41.8569
51.1212 1790 42.3084
51.2384 1655 40.6817
51.3556 1735 41.6533
51.4727 1573 39.6611
51.5899 1613 40.1622
51.707 1541 39.2556
51.824 1517 38.9487
51.9411 1634 40.4228
52.0581 1523 39.0256
52.175 1455 38.1445
52.2919 1438 37.921
52.4088 1425 37.7492
52.5257 1434 37.8682
52.6425 1385 37.2156
52.7593 1305 36.1248
52.876 1265 35.5668
52.9927 1263 35.5387
53.1094 1252 35.3836
53.226 1165 34.1321
53.3426 1164 34.1174
53.4591 1106 33.2566
53.5756 1191 34.5109
53.692 1151 33.9264
53.8084 1098 33.1361
53.9248 1088 32.9848
54.0411 1035 32.1714
54.1573 957 30.9354
54.2735 0 1
54.3896 0 1
54.5057 0 1
54.6217 0 1
54.7377 0 1
54.8537 0 1
54.9695 0 1
55.0853 0 1
55.2011 0 1
55.3168 0 1
55.4324 0 1
57.824 0 1
57.9396 0 1
58.0553 0 1
58.1711 0 1
58.2869 0 1
58.4028 0 1
58.5187 0 1
58.6347 0 1
58.7508 0 1
58.8669 0 1
58.983 1257 35.4542
59.0992 1412 37.5766
59.2155 1607 40.0874
59.3318 1749 41.821
59.4482 1884 43.4051
59.5646 1983 44.5309
59.681 1947 44.1248
59.7975 2030 45.0555
59.9141 2059 45.3762
60.0306 1992 44.6318
60.1473 2039 45.1553
60.2639 2019 44.9333
60.3807 1992 44.6318
60.4974 1994 44.6542
60.6142 1983 44.5309
60.731 1957 44.238
60.8479 1811 42.5558
60.9648 1893 43.5086
61.0818 1886 43.4281
61.1987 1930 43.9318
61.3158 1878 43.3359
61.4328 1741 41.7253
61.5499 1775 42.1307
61.667 1745 41.7732
61.7841 1621 40.2616
61.9013 1661 40.7554
62.0185 1790 42.3084
62.1357 1818 42.638
62.253 2000 44.7214
62.3702 1982 44.5197
62.4875 2012 44.8553
62.6049 2146 46.3249
62.7222 2231 47.2335
62.8396 2257 47.5079
62.9569 2404 49.0306
63.0743 2452 49.5177
63.1918 2449 49.4874
63.3092 2377 48.7545
63.4267 2256 47.4974
63.5441 2258 47.5184
63.6616 2154 46.4112
63.7791 2130 46.1519
63.8966 2140 46.2601
64.0142 2139 46.2493
64.1317 2119 46.0326
64.2492 2062 45.4093
64.3668 1976 44.4522
64.4843 1896 43.5431
64.6019 1821 42.6732
64.7195 1956 44.2267
64.837 1957 44.238
64.9546 1924 43.8634
65.0722 1864 43.1741
65.1898 1775 42.1307
65.3074 1766 42.0238
65.4249 1720 41.4729
65.5425 1812 42.5676
65.6601 1807 42.5088
65.7777 1900 43.589
65.8952 1962 44.2945
66.0128 2044 45.2106
66.1304 2160 46.4758
66.2479 2272 47.6655
66.3655 2284 47.7912
66.483 2426 49.2544
66.6005 2517 50.1697
66.718 2464 49.6387
66.8355 2471 49.7092
66.953 2414 49.1325
67.0705 2316 48.1248
67.1879 2233 47.2546
67.3054 2194 46.8402
67.4228 2017 44.911
67.5402 2114 45.9783
67.6576 2070 45.4973
67.7749 1969 44.3734
67.8923 1959 44.2606
68.0096 1925 43.8748
68.1269 2008 44.8107
68.2442 2015 44.8888
68.3614 1957 44.238
68.4787 2009 44.8219
68.5958 1897 43.5546
68.713 1871 43.2551
68.8302 1820 42.6615
68.9473 1771 42.0833
69.0643 1701 41.2432
69.1814 1677 40.9512
69.2984 1750 41.833
69.4154 1820 42.6615
69.5323 1809 42.5323
69.6492 1959 44.2606
69.7661 2089 45.7056
69.8829 2066 45.4533
69.9997 2153 46.4004
70.1165 2171 46.594
70.2332 2081 45.618
70.3499 2054 45.3211
70.4665 1932 43.9545
70.5831 1899 43.5775
70.6996 1596 39.95
70.8161 1527 39.0768
70.9326 1401 37.4299
71.049 1244 35.2704
71.1653 1193 34.5398
71.2817 1165 34.1321
71.3979 1092 33.0454
71.5141 1031 32.1092
71.6303 956 30.9192
71.7464 859 29.3087
71.8624 0 1
71.9784 0 1
72.0944 0 1
72.2102 0 1
72.3261 0 1
72.4418 0 1
72.5575 0 1
72.6732 0 1
75.1054 0 1
75.2209 0 1
75.3365 0 1
75.4521 0 1
75.5678 0 1
75.6835 0 1
75.7993 0 1
75.9151 0 1
76.031 0 1
76.147 1760 41.9524
76.263 1720 41.4729
76.3791 1733 41.6293
76.4952 1709 41.3401
76.6113 1721 41.4849
76.7276 1863 43.1625
76.8438 1842 42.9185
76.9601 1782 42.2137
77.0765 1852 43.0349
77.1929 1842 42.9185
77.3093 1997 44.6878
77.4258 1952 44.1814
77.5423 2041 45.1774
77.6589 2009 44.8219
77.7755 1892 43.4971
77.8921 1711 41.3642
78.0088 1720 41.4729
78.1256 1669 40.8534
78.2423 1639 40.4846
78.3591 1740 41.7133
78.4759 1828 42.7551
78.5928 1965 44.3283
78.7097 2098 45.8039
78.8266 2219 47.1063
78.9436 2431 49.3052
79.0606 2448 49.4773
79.1776 2574 50.7346
79.2946 2556 50.5569
79.4117 2673 51.7011
79.5288 2627 51.2543
79.6459 2585 50.8429
79.7631 2487 49.8698
79.8802 2331 48.2804
79.9974 2217 47.085
80.1147 2188 46.7761
80.2319 2200 46.9042
80.3491 2134 46.1952
80.4664 2135 46.2061
80.5837 2315 48.1144
80.701 2190 46.7974
80.8183 2116 46
80.9357 2144 46.3033
81.053 2179 46.6798
81.1704 2311 48.0729
81.2877 2187 46.7654
81.4051 2199 46.8935
81.5225 2058 45.3652
81.6399 1963 44.3058
81.7573 1857 43.0929
81.8747 1825 42.72
81.9922 1860 43.1277
82.1096 1964 44.317
82.227 2139 46.2493
82.3444 2286 47.8121
82.4619 2528 50.2792
82.5793 2711 52.0673
82.6967 2802 52.9339
82.8142 2763 52.5642
82.9316 2788 52.8015
83.049 2991 54.69
83.1664 2853 53.4135
83.2838 2847 53.3573
83.4012 2635 51.3323
83.5186 2432 49.3153
83.636 2431 49.3052
83.7534 2359 48.5695
83.8708 2428 49.2747
83.9881 2415 49.1426
84.1055 2321 48.1768
84.2228 2392 48.9081
84.3401 2372 48.7032
84.4575 2436 49.3559
84.5747 2577 50.7642
84.692 2596 50.951
84.8093 2627 51.2543
84.9265 2495 49.95
85.0437 2330 48.2701
85.1609 2244 47.3709
85.2781 2094 45.7602
85.3952 2038 45.1442
85.5123 1961 44.2832
85.6294 2069 45.4863
85.7465 2248 47.4131
85.8636 2414 49.1325
85.9806 2614 51.1273
86.0976 2805 52.9623
86.2145 2874 53.6097
86.3315 3030 55.0454
86.4484 2990 54.6809
86.5652 3034 55.0818
86.682 2965 54.4518
86.7988 2939 54.2125
86.9156 2881 53.6749
87.0323 2798 52.8961
87.149 2647 51.449
87.2657 2536 50.3587
87.3823 2500 50
87.4988 2410 49.0918
87.6154 2283 47.7807
87.7318 2144 46.3033
87.8483 2086 45.6727
87.9647 2040 45.1664
88.081 1812 42.5676
88.1973 1791 42.3202
88.3136 1763 41.9881
88.4298 1607 40.0874
88.546 1416 37.6298
88.6621 1263 35.5387
88.7781 1049 32.3883
88.8942 0 1
89.0101 0 1
89.126 0 1
89.2419 0 1
89.3577 0 1
89.4734 0 1
89.5891 0 1
89.7047 0 1
89.8203 0 1
89.9358 0 1
92.3269 0 1
92.4424 0 1
92.558 0 1
92.6736 0 1
92.7893 0 1
92.905 0 1
93.0208 0 1
93.1366 0 1
93.2525 0 1
93.3685 0 1
93.4845 0 1
93.6005 2215 47.0638
93.7167 2581 50.8035
93.8328 2753 52.469
93.949 2875 53.619
94.0653 2822 53.1225
94.1816 2732 52.2685
94.2979 2739 52.3355
94.4143 2547 50.4678
94.5307 2374 48.7237
94.6472 2410 49.0918
94.7637 2251 47.4447
94.8803 2409 49.0816
94.9969 2524 50.2394
95.1135 2841 53.301
95.2302 2977 54.5619
95.3469 3181 56.4004
95.4637 3466 58.8727
95.5805 3548 59.5651
95.6973 3516 59.2959
95.8142 3514 59.279
95.9311 3455 58.7792
96.048 3467 58.8812
96.1649 3440 58.6515
96.2819 3244 56.9561
96.3989 3006 54.827
96.516 3167 56.2761
96.633 3062 55.3353
96.7501 3045 55.1815
96.8673 3060 55.3173
96.9844 3092 55.6058
97.1016 3018 54.9363
97.2188 3161 56.2228
97.336 3117 55.8301
97.4532 3269 57.1752
97.5704 3316 57.5847
97.6877 3282 57.2887
97.805 3258 57.0789
97.9223 3003 54.7996
98.0396 2861 53.4883
98.1569 2725 52.2015
98.2743 2601 51
98.3916 2420 49.1935
98.509 2491 49.9099
98.6264 2698 51.9423
98.7438 2861 53.4883
98.8612 3251 57.0175
98.9786 3307 57.5065
99.096 3702 60.8441
99.2134 3674 60.6135
99.3308 3811 61.7333
99.4482 3838 61.9516
99.5656 3723 61.0164
99.6831 3712 60.9262
99.8005 3711 60.918
99.9179 3578 59.8164
100.035 3480 58.9915
100.153 3495 59.1185
100.27 3305 57.4891
100.388 3304 57.4804
100.505 3333 57.7321
100.622 3323 57.6455
100.74 3283 57.2975
100.857 3227 56.8067
100.975 3290 57.3585
101.092 3308 57.5152
101.209 3564 59.6992
101.327 3359 57.9569
101.444 3400 58.3095
101.561 3246 56.9737
101.679 3042 55.1543
101.796 2716 52.1153
101.913 2607 51.0588
102.03 2524 50.2394
102.148 2767 52.6023
102.265 2956 54.3691
102.382 3372 58.0689
102.499 3552 59.5987
102.616 3879 62.2816
102.733 3874 62.2415
102.851 4040 63.561
102.968 3939 62.7615
103.085 4025 63.4429
103.202 4097 64.0078
103.319 3951 62.857
103.436 3756 61.2862
103.552 3781 61.4898
103.669 3632 60.2661
103.786 3575 59.7913
103.903 3624 60.1997
104.02 3509 59.2368
104.137 3467 58.8812
104.253 3420 58.4808
104.37 3536 59.4643
104.487 3496 59.127
104.603 3511 59.2537
104.72 3530 59.4138
104.836 3288 57.3411
104.953 3033 55.0727
105.069 2831 53.2071
105.186 2597 50.9608
105.302 2107 45.9021
105.418 2009 44.8219
105.535 1784 42.2374
105.651 1774 42.1189
105.767 1692 41.1339
105.883 1698 41.2068
105.999 1740 41.7133
106.115 0 1
106.231 0 1
106.347 0 1
106.463 0 1
106.579 0 1
106.694 0 1
106.81 0 1
106.926 0 1
107.041 0 1
107.157 0 1
109.576 0 1
109.692 0 1
109.807 0 1
109.923 0 1
110.039 0 1
110.155 0 1
110.27 0 1
110.386 0 1
110.502 0 1
110.618 1355 36.8103
110.735 1706 41.3038
110.851 2165 46.5296
110.967 2445 49.4469
111.083 2813 53.0377
111.199 3013 54.8908
111.316 3139 56.0268
111.432 3358 57.9483
111.549 3293 57.3847
111.665 3300 57.4456
111.782 3300 57.4456
111.898 3224 56.7803
112.015 3070 55.4076
112.132 3127 55.9196
112.248 3129 55.9375
112.365 3010 54.8635
112.482 2855 53.4322
112.599 2916 54
112.716 2863 53.507
112.832 2773 52.6593
112.949 2741 52.3546
113.066 2795 52.8678
113.183 2850 53.3854
113.3 2920 54.037
113.417 2888 53.7401
113.534 2977 54.5619
113.652 2858 53.4603
113.769 2647 51.449
113.886 2414 49.1325
114.003 2248 47.4131
114.12 2161 46.4866
114.238 2212 47.0319
114.355 2367 48.6518
114.472 2600 50.9902
114.589 2910 53.9444
114.707 3089 55.5788
114.824 3205 56.6127
114.942 3158 56.1961
115.059 3358 57.9483
115.176 3241 56.9298
115.294 3213 56.6833
115.411 3082 55.5158
115.529 3101 55.6866
115.646 2999 54.7631
115.764 2953 54.3415
115.881 2746 52.4023
115.999 2718 52.1344
116.116 2681 51.7784
116.234 2701 51.9711
116.351 2634 51.3225
116.469 2502 50.02
116.586 2569 50.6853
116.704 2612 51.1077
116.821 2632 51.303
116.939 2714 52.0961
117.056 2769 52.6213
117.174 2782 52.7447
117.291 2767 52.6023
117.409 2492 49.9199
117.526 2374 48.7237
117.644 2183 46.7226
117.761 2209 47
117.879 2230 47.2229
117.996 2557 50.5668
118.114 2716 52.1153
118.231 2954 54.3507
118.349 3123 55.8838
118.466 3143 56.0625
118.584 3215 56.701
118.701 3143 56.0625
118.819 3093 55.6147
118.936 3170 56.3028
119.053 3033 55.0727
119.171 3180 56.3915
119.288 3012 54.8817
119.405 2783 52.7541
119.523 2767 52.6023
119.64 2716 52.1153
119.757 2566 50.6557
119.875 2560 50.5964
119.992 2526 50.2593
120.109 2518 50.1797
120.226 2570 50.6952
120.343 2549 50.4876
120.46 2645 51.4296
120.578 2596 50.951
120.695 2657 51.5461
120.812 2657 51.5461
120.929 2496 49.96
121.046 2476 49.7594
121.163 2333 48.3011
121.279 2236 47.2864
121.396 2015 44.8888
121.513 1925 43.8748
121.63 1860 43.1277
121.747 2054 45.3211
121.863 2184 46.7333
121.98 2305 48.0104
122.097 2328 48.2494
122.213 2275 47.697
122.33 2237 47.2969
122.446 2109 45.9239
122.563 2046 45.2327
122.679 1913 43.7379
122.795 1751 41.845
122.912 1645 40.5586
123.028 1583 39.7869
123.144 1447 38.0395
123.26 1395 37.3497
123.377 0 1
123.493 0 1
123.609 0 1
123.725 0 1
123.84 0 1
123.956 0 1
124.072 0 1
124.188 0 1
124.303 0 1
124.419 0 1
126.852 0 1
126.968 0 1
127.083 0 1
127.199 0 1
127.315 0 1
127.431 0 1
127.547 0 1
127.663 0 1
127.779 0 1
127.895 0 1
128.011 0 1
128.127 0 1
128.243 0 1
128.359 2921 54.0463
128.476 2919 54.0278
128.592 2913 53.9722
128.708 2847 53.3573
128.825 2748 52.4214
128.941 2782 52.7447
129.058 2697 51.9326
129.174 2649 51.4684
129.291 2709 52.0481
129.408 2672 51.6914
129.524 2694 51.9038
129.641 2830 53.1977
129.758 2803 52.9434
129.875 2803 52.9434
129.992 2815 53.0566
130.108 2832 53.2165
130.225 2717 52.1249
130.342 2491 49.9099
130.459 2306 48.0208
130.576 2267 47.613
130.693 2260 47.5395
130.81 2367 48.6518
130.928 2607 51.0588
131.045 2639 51.3712
131.162 2854 53.4228
131.279 2938 54.2033
131.396 2943 54.2494
131.513 2943 54.2494
131.631 3028 55.0273
131.748 2934 54.1664
131.865 2874 53.6097
131.983 2886 53.7215
132.1 2833 53.2259
132.217 2829 53.1883
132.335 2632 51.303
132.452 2710 52.0577
132.57 2498 49.98
132.687 2734 52.2877
132.804 2507 50.07
132.922 2628 51.264
133.039 2676 51.7301
133.157 2604 51.0294
133.274 2722 52.1728
133.392 2655 51.5267
133.509 2750 52.4404
133.627 2508 50.0799
133.744 2572 50.7149
133.862 2485 49.8498
133.979 2376 48.7442
134.097 2227 47.1911
134.214 2210 47.0106
134.332 2138 46.2385
134.449 2382 48.8057
134.567 2515 50.1498
134.684 2760 52.5357
134.802 2717 52.1249
134.919 2792 52.8394
135.037 2783 52.7541
135.154 2753 52.469
135.272 2743 52.3737
135.389 2791 52.8299
135.507 2715 52.1057
135.624 2798 52.8961
135.742 2745 52.3927
135.859 2631 51.2933
135.977 2540 50.3984
136.094 2537 50.3686
136.211 2571 50.705
136.329 2512 50.1199
136.446 2567 50.6656
136.564 2512 50.1199
136.681 2605 51.0392
136.798 2525 50.2494
136.915 2655 51.5267
137.033 2559 50.5866
137.15 2621 51.1957
137.267 2595 50.9411
137.384 2555 50.547
137.502 2501 50.01
137.619 2355 48.5283
137.736 2188 46.7761
137.853 2006 44.7884
137.97 2138 46.2385
138.087 2209 47
138.204 2507 50.07
138.321 2489 49.8899
138.438 2598 50.9706
138.555 2597 50.9608
138.672 2636 51.342
138.788 2539 50.3885
138.905 2621 51.1957
139.022 2483 49.8297
139.139 2372 48.7032
139.255 2151 46.3789
139.372 2016 44.8999
139.488 1911 43.715
139.605 1780 42.19
139.721 1635 40.4351
139.838 1614 40.1746
139.954 1669 40.8534
140.071 1491 38.6135
140.187 1445 38.0132
140.303 1408 37.5233
140.419 1282 35.805
140.535 1249 35.3412
140.652 1174 34.2637
140.768 0 1
140.884 0 1
141 0 1
141.115 0 1
141.231 0 1
141.347 0 1
141.463 0 1
141.578 0 1
141.694 0 1
144.104 0 1
144.219 0 1
144.335 0 1
144.45 0 1
144.566 0 1
144.682 0 1
144.798 0 1
144.914 0 1
145.03 0 1
145.146 1964 44.317
145.262 2081 45.618
145.378 2008 44.8107
145.494 1969 44.3734
145.61 1963 44.3058
145.726 2002 44.7437
145.842 1950 44.1588
145.959 2116 46
146.075 2104 45.8694
146.192 2082 45.6289
146.308 2088 45.6946
146.425 1966 44.3396
146.541 1844 42.9418
146.658 1819 42.6497
146.774 1696 41.1825
146.891 1849 43
147.008 1988 44.587
147.125 1991 44.6206
147.241 2100 45.8258
147.358 2175 46.6369
147.475 2201 46.9148
147.592 2221 47.1275
147.709 2271 47.655
147.826 2160 46.4758
147.943 2107 45.9021
148.06 2111 45.9456
148.177 2094 45.7602
148.294 2128 46.1303
148.411 2121 46.0543
148.528 2156 46.4327
148.645 2050 45.2769
148.762 2095 45.7712
148.88 2049 45.2659
148.997 2016 44.8999
149.114 1975 44.441
149.231 2027 45.0222
149.349 2055 45.3321
149.466 1971 44.3959
149.583 2097 45.793
149.701 2020 44.9444
149.818 1984 44.5421
149.935 1959 44.2606
150.053 2060 45.3872
150.17 1928 43.909
150.287 1764 42
150.405 1720 41.4729
150.522 1735 41.6533
150.64 1915 43.7607
150.757 1907 43.6692
150.875 1971 44.3959
150.992 2071 45.5082
151.11 2162 46.4973
151.227 2164 46.5188
151.344 2135 46.2061
151.462 2134 46.1952
151.579 2131 46.1628
151.697 2120 46.0435
151.814 2123 46.076
151.932 2113 45.9674
152.049 2017 44.911
152.167 2080 45.607
152.284 2093 45.7493
152.402 1975 44.441
152.519 1984 44.5421
152.636 1870 43.2435
152.754 1846 42.9651
152.871 1877 43.3244
152.989 1952 44.1814
153.106 1952 44.1814
153.223 1938 44.0227
153.341 2059 45.3762
153.458 1900 43.589
153.575 1906 43.6578
153.693 1931 43.9431
153.81 1850 43.0116
153.927 1779 42.1782
154.044 1778 42.1663
154.162 1741 41.7253
154.279 1915 43.7607
154.396 2055 45.3321
154.513 2050 45.2769
154.63 2012 44.8553
154.747 2077 45.5741
154.864 1975 44.441
154.981 2067 45.4643
155.098 2013 44.8665
155.215 1946 44.1135
155.332 2036 45.1221
155.449 2056 45.3431
155.566 1954 44.2041
155.683 1932 43.9545
155.8 1838 42.8719
155.917 1790 42.3084
156.033 1717 41.4367
156.15 0 1
156.267 0 1
156.383 0 1
156.5 0 1
156.617 0 1
156.733 0 1
156.85 0 1
156.966 0 1
157.082 0 1
157.199 0 1
157.315 0 1
157.431 0 1
157.547 0 1
157.664 0 1
157.78 0 1
157.896 0 1
158.012 0 1
158.128 0 1
158.244 0 1
158.359 0 1
158.475 0 1
158.591 0 1
158.706 0 1
