
6.15755 0 1
6.2731 0 1
6.3887 0 1
6.50437 0 1
6.62009 0 1
6.73587 0 1
6.8517 0 1
6.96759 0 1
7.08353 0 1
7.19952 0 1
7.31557 0 1
7.43166 0 1
7.54781 0 1
7.664 0 1
7.78024 0 1
7.89653 0 1
8.01286 0 1
8.12924 0 1
8.24567 0 1
8.36213 0 1
8.47864 0 1
8.59519 0 1
8.71178 0 1
8.82841 0 1
8.94508 0 1
9.06179 0 1
9.17853 0 1
9.29531 0 1
9.41212 0 1
9.52897 0 1
9.64584 0 1
9.76276 0 1
9.8797 0 1
9.99667 0 1
10.1137 0 1
10.2307 0 1
10.3478 0 1
10.4648 0 1
10.5819 0 1
10.6991 0 1
10.8162 0 1
10.9334 0 1
11.0506 0 1
11.1678 0 1
11.285 0 1
11.4023 0 1
11.5196 0 1
11.6369 0 1
11.7542 0 1
11.8715 0 1
11.9888 0 1
12.1062 0 1
12.2235 0 1
12.3409 0 1
12.4582 0 1
12.5756 0 1
12.693 0 1
12.8104 0 1
12.9278 0 1
13.0452 0 1
13.1626 0 1
13.28 0 1
13.3974 0 1
13.5149 0 1
13.6323 0 1
13.7497 0 1
13.8671 0 1
13.9845 0 1
14.1019 0 1
14.2193 0 1
14.3367 0 1
14.4541 0 1
14.5714 0 1
14.6888 0 1
14.8062 0 1
14.9235 0 1
15.0408 0 0
15.1581 0 0
15.2755 0 0
15.3927 0 0
15.51 0 0
15.6273 0 0
15.7445 0 0
15.8617 0 0
15.9789 0 0
16.0961 0 0
16.2132 0 0
16.3304 0 0
16.4475 0 0
16.5646 0 0
16.6816 0 0
16.7986 0 0
16.9156 0 0
17.0326 0 0
17.1496 0 0
17.2665 0 0
17.3833 0 0
17.5002 0 0
17.617 0 0
17.7338 0 0
17.8505 0 0
17.9672 0 0
18.0839 0 0
18.2005 0 0
18.3171 0 0
18.4337 0 0
18.5502 0 0
18.6666 0 0
18.7831 0 0
18.8994 0 0
19.0158 0 0
19.1321 0 0
19.2483 0 0
19.3645 0 0
19.4806 0 0
19.5967 0 0
19.7128 0 0
19.8288 0 0
19.9447 0 0
20.0606 0 1
20.1764 0 1
20.2922 0 1
20.4079 0 1
20.5236 0 1
20.6392 0 1
20.7548 0 1
20.8702 0 1
23.3078 0 1
23.4233 0 1
23.539 0 1
23.6547 0 1
23.7704 0 1
23.8862 0 1
24.0021 0 1
24.118 0 1
24.234 0 1
24.35 0 1
24.4661 1186 34.4384
24.5822 1328 36.4417
24.6984 1412 37.5766
24.8146 1582 39.7744
24.9309 1884 43.4051
25.0472 2169 46.5725
25.1636 2325 48.2183
25.28 2441 49.4065
25.3965 2534 50.3389
25.513 2515 50.1498
25.6296 2458 49.5782
25.7462 2503 50.03
25.8628 2534 50.3389
25.9795 2548 50.4777
26.0962 2501 50.01
26.213 2644 51.4198
26.3298 2608 51.0686
26.4466 2544 50.4381
26.5635 2526 50.2593
26.6804 2608 51.0686
26.7973 2484 49.8397
26.9143 2442 49.4166
27.0313 2414 49.1325
27.1483 2440 49.3964
27.2653 2332 48.2908
27.3824 2268 47.6235
27.4996 2142 46.2817
27.6167 2103 45.8585
27.7339 2138 46.2385
27.8511 2187 46.7654
27.9683 2333 48.3011
28.0855 2352 48.4974
28.2028 2380 48.7852
28.3201 2310 48.0625
28.4374 2416 49.1528
28.5547 2327 48.239
28.6721 2424 49.2341
28.7894 2445 49.4469
28.9068 2345 48.4252
29.0242 2273 47.676
29.1416 2405 49.0408
29.259 2403 49.0204
29.3764 2392 48.9081
29.4939 2369 48.6724
29.6113 2334 48.3115
29.7288 2302 47.9792
29.8463 2272 47.6655
29.9638 2202 46.9255
30.0812 2264 47.5815
30.1987 2286 47.8121
30.3162 2266 47.6025
30.4337 2262 47.5605
30.5512 2335 48.3218
30.6687 2394 48.9285
30.7862 2328 48.2494
30.9037 2257 47.5079
31.0212 2173 46.6154
31.1387 2120 46.0435
31.2562 2117 46.0109
31.3737 2250 47.4342
31.4912 2384 48.8262
31.6087 2423 49.224
31.7262 2381 48.7955
31.8436 2466 49.6588
31.9611 2323 48.1975
32.0785 2357 48.5489
32.1959 2316 48.1248
32.3134 2274 47.6865
32.4308 2291 47.8644
32.5482 2183 46.7226
32.6655 2206 46.9681
32.7829 2114 45.9783
32.9002 2106 45.8912
33.0176 2047 45.2438
33.1349 1971 44.3959
33.2522 2025 45
33.3694 1934 43.9773
33.4867 2113 45.9674
33.6039 1981 44.5084
33.7211 2166 46.5403
33.8383 2056 45.3431
33.9554 2164 46.5188
34.0725 2221 47.1275
34.1896 2347 48.4458
34.3067 2247 47.4025
34.4237 2213 47.0425
34.5407 2199 46.8935
34.6577 2070 45.4973
34.7746 2076 45.5631
34.8915 2033 45.0888
35.0084 2220 47.1169
35.1252 2366 48.6415
35.242 2338 48.3529
35.3587 2268 47.6235
35.4755 2185 46.744
35.5921 2186 46.7547
35.7088 2180 46.6905
35.8254 2107 45.9021
35.9419 1953 44.1928
36.0584 2005 44.7772
36.1749 1893 43.5086
36.2913 1862 43.1509
36.4077 1794 42.3556
36.524 1685 41.0488
36.6403 1476 38.4187
36.7565 1346 36.6879
36.8727 1256 35.4401
36.9889 1163 34.1028
37.1049 1132 33.6452
37.221 0 1
37.3369 0 1
37.4529 0 1
37.5687 0 1
37.6845 0 1
37.8003 0 1
37.916 0 1
38.0316 0 1
38.1472 0 1
40.5851 0 1
40.7008 0 1
40.8164 0 1
40.9322 0 1
41.048 0 1
41.1639 0 1
41.2798 0 1
41.3958 0 1
41.5118 0 1
41.6279 0 1
41.744 906 30.0998
41.8602 1169 34.1906
41.9765 1328 36.4417
42.0928 1481 38.4838
42.2091 1424 37.7359
42.3255 1537 39.2046
42.4419 1524 39.0384
42.5584 1605 40.0625
42.675 1735 41.6533
42.7915 1689 41.0974
42.9081 1837 42.8602
43.0248 1945 44.1022
43.1415 1913 43.7379
43.2582 1901 43.6005
43.375 1828 42.7551
43.4918 1815 42.6028
43.6087 1818 42.638
43.7256 1789 42.2966
43.8425 1935 43.9886
43.9595 1844 42.9418
44.0765 1884 43.4051
44.1935 1850 43.0116
44.3106 1899 43.5775
44.4277 1825 42.72
44.5448 1825 42.72
44.6619 1751 41.845
44.7791 1718 41.4488
44.8963 1675 40.9268
45.0136 1579 39.7366
45.1308 1625 40.3113
45.2481 1555 39.4335
45.3654 1602 40.025
45.4827 1512 38.8844
45.6001 1517 38.9487
45.7174 1564 39.5474
45.8348 1611 40.1373
45.9522 1597 39.9625
46.0697 1682 41.0122
46.1871 1772 42.0951
46.3046 1808 42.5206
46.422 1846 42.9651
46.5395 1871 43.2551
46.657 1926 43.8862
46.7745 1744 41.7612
46.892 1818 42.638
47.0096 1666 40.8167
47.1271 1731 41.6053
47.2446 1899 43.5775
47.3622 1861 43.1393
47.4797 1851 43.0232
47.5973 1798 42.4028
47.7149 1807 42.5088
47.8324 1823 42.6966
47.95 1877 43.3244
48.0675 1729 41.5812
48.1851 1718 41.4488
48.3027 1693 41.1461
48.4202 1719 41.4608
48.5378 1642 40.5216
48.6554 1607 40.0874
48.7729 1616 40.1995
48.8904 1553 39.4081
49.008 1539 39.2301
49.1255 1617 40.2119
49.243 1491 38.6135
49.3605 1543 39.281
49.478 1573 39.6611
49.5955 1613 40.1622
49.713 1684 41.0366
49.8304 1765 42.0119
49.9479 1692 41.1339
50.0653 1732 41.6173
50.1827 1721 41.4849
50.3001 1749 41.821
50.4175 1479 38.4578
50.5348 1445 38.0132
50.6521 1467 38.3014
50.7694 1571 39.6358
50.8867 1774 42.1189
51.004 1792 42.332
51.1212 1763 41.9881
51.2384 1766 42.0238
51.3556 1719 41.4608
51.4727 1795 42.3674
51.5899 1801 42.4382
51.707 1680 40.9878
51.824 1678 40.9634
51.9411 1652 40.6448
52.0581 1707 41.3159
52.175 1670 40.8656
52.2919 1681 41
52.4088 1559 39.4842
52.5257 1618 40.2244
52.6425 1498 38.704
52.7593 1502 38.7556
52.876 1539 39.2301
52.9927 1542 39.2683
53.1094 1405 37.4833
53.226 1499 38.7169
53.3426 1609 40.1123
53.4591 1570 39.6232
53.5756 1406 37.4967
53.692 1133 33.6601
53.8084 1122 33.4963
53.9248 1070 32.7109
54.0411 1014 31.8434
54.1573 899 29.9833
54.2735 0 1
54.3896 0 1
54.5057 0 1
54.6217 0 1
54.7377 0 1
54.8537 0 1
54.9695 0 1
55.0853 0 1
55.2011 0 1
55.3168 0 1
55.4324 0 1
57.824 0 1
57.9396 0 1
58.0553 0 1
58.1711 0 1
58.2869 0 1
58.4028 0 1
58.5187 0 1
58.6347 0 1
58.7508 0 1
58.8669 0 1
58.983 1316 36.2767
59.0992 1343 36.647
59.2155 1413 37.5899
59.3318 1420 37.6829
59.4482 1582 39.7744
59.5646 1772 42.0951
59.681 1808 42.5206
59.7975 1927 43.8976
59.9141 1824 42.7083
60.0306 1910 43.7035
60.1473 1911 43.715
60.2639 1957 44.238
60.3807 1881 43.3705
60.4974 1888 43.4511
60.6142 1836 42.8486
60.731 1964 44.317
60.8479 1918 43.795
60.9648 1992 44.6318
61.0818 1866 43.1972
61.1987 1967 44.3509
61.3158 1825 42.72
61.4328 1873 43.2782
61.5499 1822 42.6849
61.667 1830 42.7785
61.7841 1781 42.2019
61.9013 1796 42.3792
62.0185 1827 42.7434
62.1357 1890 43.4741
62.253 1891 43.4856
62.3702 1910 43.7035
62.4875 1793 42.3438
62.6049 1777 42.1545
62.7222 1672 40.8901
62.8396 1814 42.5911
62.9569 1925 43.8748
63.0743 1963 44.3058
63.1918 1934 43.9773
63.3092 1990 44.6094
63.4267 2008 44.8107
63.5441 1986 44.5646
63.6616 1997 44.6878
63.7791 1942 44.0681
63.8966 1844 42.9418
64.0142 1922 43.8406
64.1317 1998 44.699
64.2492 1935 43.9886
64.3668 1920 43.8178
64.4843 1873 43.2782
64.6019 1808 42.5206
64.7195 1831 42.7902
64.837 1849 43
64.9546 1777 42.1545
65.0722 1762 41.9762
65.1898 1737 41.6773
65.3074 1777 42.1545
65.4249 1737 41.6773
65.5425 1812 42.5676
65.6601 1864 43.1741
65.7777 1824 42.7083
65.8952 1844 42.9418
66.0128 1842 42.9185
66.1304 1745 41.7732
66.2479 1593 39.9124
66.3655 1558 39.4715
66.483 1700 41.2311
66.6005 1837 42.8602
66.718 1930 43.9318
66.8355 1931 43.9431
66.953 1927 43.8976
67.0705 1942 44.0681
67.1879 1916 43.7721
67.3054 1935 43.9886
67.4228 1877 43.3244
67.5402 1764 42
67.6576 1854 43.0581
67.7749 1850 43.0116
67.8923 1837 42.8602
68.0096 1805 42.4853
68.1269 1889 43.4626
68.2442 1768 42.0476
68.3614 1807 42.5088
68.4787 1808 42.5206
68.5958 1778 42.1663
68.713 1633 40.4104
68.8302 1713 41.3884
68.9473 1694 41.1582
69.0643 1662 40.7676
69.1814 1686 41.0609
69.2984 1735 41.6533
69.4154 1781 42.2019
69.5323 1701 41.2432
69.6492 1650 40.6202
69.7661 1619 40.2368
69.8829 1444 38
69.9997 1441 37.9605
70.1165 1602 40.025
70.2332 1610 40.1248
70.3499 1537 39.2046
70.4665 1429 37.8021
70.5831 1323 36.3731
70.6996 1261 35.5106
70.8161 1240 35.2136
70.9326 1211 34.7994
71.049 1070 32.7109
71.1653 1063 32.6037
71.2817 1056 32.4962
71.3979 1012 31.8119
71.5141 975 31.225
71.6303 938 30.6268
71.7464 900 30
71.8624 0 1
71.9784 0 1
72.0944 0 1
72.2102 0 1
72.3261 0 1
72.4418 0 1
72.5575 0 1
72.6732 0 1
75.1054 0 1
75.2209 0 1
75.3365 0 1
75.4521 0 1
75.5678 0 1
75.6835 0 1
75.7993 0 1
75.9151 0 1
76.031 0 1
76.147 1414 37.6032
76.263 1513 38.8973
76.3791 1594 39.9249
76.4952 1508 38.833
76.6113 1654 40.6694
76.7276 1655 40.6817
76.8438 1664 40.7922
76.9601 1675 40.9268
77.0765 1688 41.0853
77.1929 1764 42
77.3093 1742 41.7373
77.4258 1686 41.0609
77.5423 1686 41.0609
77.6589 1650 40.6202
77.7755 1633 40.4104
77.8921 1649 40.6079
78.0088 1726 41.5452
78.1256 1601 40.0125
78.2423 1662 40.7676
78.3591 1735 41.6533
78.4759 1708 41.328
78.5928 1762 41.9762
78.7097 1605 40.0625
78.8266 1484 38.5227
78.9436 1350 36.7423
79.0606 1231 35.0856
79.1776 1386 37.229
79.2946 1618 40.2244
79.4117 1746 41.7852
79.5288 1715 41.4126
79.6459 1782 42.2137
79.7631 1865 43.1856
79.8802 1793 42.3438
79.9974 1778 42.1663
80.1147 1721 41.4849
80.2319 1810 42.5441
80.3491 1819 42.6497
80.4664 1856 43.0813
80.5837 1800 42.4264
80.701 1856 43.0813
80.8183 1898 43.566
80.9357 1906 43.6578
81.053 1927 43.8976
81.1704 1813 42.5793
81.2877 1801 42.4382
81.4051 1766 42.0238
81.5225 1725 41.5331
81.6399 1689 41.0974
81.7573 1740 41.7133
81.8747 1753 41.8688
81.9922 1800 42.4264
82.1096 1857 43.0929
82.227 1862 43.1509
82.3444 1866 43.1972
82.4619 1624 40.2989
82.5793 1404 37.47
82.6967 1333 36.5103
82.8142 1511 38.8716
82.9316 1761 41.9643
83.049 1787 42.2729
83.1664 1770 42.0714
83.2838 1835 42.8369
83.4012 1855 43.0697
83.5186 1825 42.72
83.636 1841 42.9069
83.7534 1866 43.1972
83.8708 1892 43.4971
83.9881 1900 43.589
84.1055 1874 43.2897
84.2228 1981 44.5084
84.3401 1888 43.4511
84.4575 1904 43.6348
84.5747 1933 43.9659
84.692 1958 44.2493
84.8093 2018 44.9222
84.9265 1794 42.3556
85.0437 1828 42.7551
85.1609 1770 42.0714
85.2781 1850 43.0116
85.3952 1896 43.5431
85.5123 1878 43.3359
85.6294 1827 42.7434
85.7465 1857 43.0929
85.8636 1800 42.4264
85.9806 1674 40.9145
86.0976 1449 38.0657
86.2145 1396 37.3631
86.3315 1428 37.7889
86.4484 1685 41.0488
86.5652 1891 43.4856
86.682 1866 43.1972
86.7988 1813 42.5793
86.9156 1906 43.6578
87.0323 1872 43.2666
87.149 1844 42.9418
87.2657 1838 42.8719
87.3823 1865 43.1856
87.4988 1793 42.3438
87.6154 1713 41.3884
87.7318 1554 39.4208
87.8483 1527 39.0768
87.9647 1440 37.9473
88.081 1452 38.1051
88.1973 1461 38.223
88.3136 1444 38
88.4298 1292 35.9444
88.546 1184 34.4093
88.6621 1218 34.8999
88.7781 1161 34.0735
88.8942 0 1
89.0101 0 1
89.126 0 1
89.2419 0 1
89.3577 0 1
89.4734 0 1
89.5891 0 1
89.7047 0 1
89.8203 0 1
89.9358 0 1
92.3269 0 1
92.4424 0 1
92.558 0 1
92.6736 0 1
92.7893 0 1
92.905 0 1
93.0208 0 1
93.1366 0 1
93.2525 0 1
93.3685 0 1
93.4845 0 1
93.6005 2101 45.8367
93.7167 2054 45.3211
93.8328 2253 47.4658
93.949 2088 45.6946
94.0653 2122 46.0652
94.1816 2091 45.7275
94.2979 2078 45.5851
94.4143 2138 46.2385
94.5307 2156 46.4327
94.6472 2182 46.7119
94.7637 2092 45.7384
94.8803 1956 44.2267
94.9969 1900 43.589
95.1135 1720 41.4729
95.2302 1800 42.4264
95.3469 1897 43.5546
95.4637 2057 45.3542
95.5805 2301 47.9687
95.6973 2282 47.7703
95.8142 2181 46.7012
95.9311 2283 47.7807
96.048 2275 47.697
96.1649 2259 47.5289
96.2819 2272 47.6655
96.3989 2323 48.1975
96.516 2149 46.3573
96.633 2317 48.1352
96.7501 2304 48
96.8673 2296 47.9166
96.9844 2389 48.8774
97.1016 2342 48.3942
97.2188 2455 49.548
97.336 2412 49.1121
97.4532 2272 47.6655
97.5704 2296 47.9166
97.6877 2274 47.6865
97.805 2235 47.2758
97.9223 2355 48.5283
98.0396 2372 48.7032
98.1569 2462 49.6185
98.2743 2203 46.9361
98.3916 2230 47.2229
98.509 2149 46.3573
98.6264 1957 44.238
98.7438 1926 43.8862
98.8612 2039 45.1553
98.9786 2187 46.7654
99.096 2265 47.592
99.2134 2331 48.2804
99.3308 2308 48.0416
99.4482 2242 47.3498
99.5656 2361 48.5901
99.6831 2202 46.9255
99.8005 2303 47.9896
99.9179 2253 47.4658
100.035 2347 48.4458
100.153 2253 47.4658
100.27 2389 48.8774
100.388 2435 49.3457
100.505 2445 49.4469
100.622 2491 49.9099
100.74 2417 49.163
100.857 2458 49.5782
100.975 2402 49.0102
101.092 2455 49.548
101.209 2457 49.5681
101.327 2392 48.9081
101.444 2470 49.6991
101.561 2412 49.1121
101.679 2376 48.7442
101.796 2328 48.2494
101.913 2361 48.5901
102.03 2288 47.833
102.148 2085 45.6618
102.265 1874 43.2897
102.382 1942 44.0681
102.499 2051 45.288
102.616 2197 46.8722
102.733 2253 47.4658
102.851 2345 48.4252
102.968 2226 47.1805
103.085 2227 47.1911
103.202 2240 47.3286
103.319 2261 47.55
103.436 2177 46.6583
103.552 2254 47.4763
103.669 2128 46.1303
103.786 2074 45.5412
103.903 2156 46.4327
104.02 2266 47.6025
104.137 2290 47.8539
104.253 2280 47.7493
104.37 2217 47.085
104.487 2116 46
104.603 2221 47.1275
104.72 2052 45.299
104.836 1973 44.4185
104.953 1815 42.6028
105.069 1562 39.5221
105.186 1466 38.2884
105.302 1391 37.2961
105.418 1259 35.4824
105.535 1208 34.7563
105.651 1076 32.8024
105.767 932 30.5287
105.883 772 27.7849
105.999 679 26.0576
106.115 0 1
106.231 0 1
106.347 0 1
106.463 0 1
106.579 0 1
106.694 0 1
106.81 0 1
106.926 0 1
107.041 0 1
107.157 0 1
109.576 0 1
109.692 0 1
109.807 0 1
109.923 0 1
110.039 0 1
110.155 0 1
110.27 0 1
110.386 0 1
110.502 0 1
110.618 2191 46.8081
110.735 2414 49.1325
110.851 2353 48.5077
110.967 2157 46.4435
111.083 2045 45.2217
111.199 2064 45.4313
111.316 2216 47.0744
111.432 2373 48.7134
111.549 2436 49.3559
111.665 2598 50.9706
111.782 2390 48.8876
111.898 2443 49.4267
112.015 2515 50.1498
112.132 2515 50.1498
112.248 2426 49.2544
112.365 2547 50.4678
112.482 2327 48.239
112.599 2603 51.0196
112.716 2568 50.6754
112.832 2533 50.3289
112.949 2785 52.7731
113.066 2772 52.6498
113.183 2856 53.4416
113.3 2703 51.9904
113.417 2783 52.7541
113.534 2697 51.9326
113.652 2739 52.3355
113.769 2657 51.5461
113.886 2756 52.4976
114.003 2599 50.9804
114.12 2719 52.144
114.238 2608 51.0686
114.355 2578 50.774
114.472 2345 48.4252
114.589 2258 47.5184
114.707 2178 46.669
114.824 2332 48.2908
114.942 2490 49.8999
115.059 2589 50.8822
115.176 2648 51.4587
115.294 2608 51.0686
115.411 2551 50.5074
115.529 2573 50.7247
115.646 2515 50.1498
115.764 2448 49.4773
115.881 2534 50.3389
115.999 2438 49.3761
116.116 2484 49.8397
116.234 2654 51.517
116.351 2617 51.1566
116.469 2786 52.7826
116.586 2887 53.7308
116.704 2862 53.4977
116.821 2939 54.2125
116.939 2762 52.5547
117.056 2934 54.1664
117.174 2877 53.6377
117.291 2876 53.6284
117.409 2768 52.6118
117.526 2784 52.7636
117.644 2688 51.8459
117.761 2741 52.3546
117.879 2661 51.5849
117.996 2528 50.2792
118.114 2393 48.9183
118.231 2259 47.5289
118.349 2289 47.8435
118.466 2418 49.1732
118.584 2527 50.2693
118.701 2530 50.2991
118.819 2608 51.0686
118.936 2523 50.2295
119.053 2473 49.7293
119.171 2410 49.0918
119.288 2463 49.6286
119.405 2324 48.2079
119.523 2361 48.5901
119.64 2495 49.95
119.757 2415 49.1426
119.875 2399 48.9796
119.992 2546 50.4579
120.109 2623 51.2152
120.226 2705 52.0096
120.343 2686 51.8266
120.46 2743 52.3737
120.578 2596 50.951
120.695 2547 50.4678
120.812 2604 51.0294
120.929 2529 50.2892
121.046 2535 50.3488
121.163 2455 49.548
121.279 2535 50.3488
121.396 2566 50.6557
121.513 2422 49.2138
121.63 2314 48.1041
121.747 2151 46.3789
121.863 1990 44.6094
121.98 1902 43.6119
122.097 1800 42.4264
122.213 1810 42.5441
122.33 1861 43.1393
122.446 1767 42.0357
122.563 1776 42.1426
122.679 1681 41
122.795 1612 40.1497
122.912 1615 40.1871
123.028 1589 39.8623
123.144 1481 38.4838
123.26 1558 39.4715
123.377 0 1
123.493 0 1
123.609 0 1
123.725 0 1
123.84 0 1
123.956 0 1
124.072 0 1
124.188 0 1
124.303 0 1
124.419 0 1
126.852 0 1
126.968 0 1
127.083 0 1
127.199 0 1
127.315 0 1
127.431 0 1
127.547 0 1
127.663 0 1
127.779 0 1
127.895 0 1
128.011 0 1
128.127 0 1
128.243 0 1
128.359 2903 53.8795
128.476 2825 53.1507
128.592 3013 54.8908
128.708 2952 54.3323
128.825 2930 54.1295
128.941 3107 55.7405
129.058 2949 54.3047
129.174 3114 55.8032
129.291 3157 56.1872
129.408 3247 56.9825
129.524 3400 58.3095
129.641 3381 58.1464
129.758 3354 57.9137
129.875 3553 59.607
129.992 3669 60.5723
130.108 3556 59.6322
130.225 3629 60.2412
130.342 3628 60.2329
130.459 3592 59.9333
130.576 3419 58.4722
130.693 3413 58.4209
130.81 3375 58.0948
130.928 3247 56.9825
131.045 3258 57.0789
131.162 3281 57.28
131.279 3506 59.2115
131.396 3452 58.7537
131.513 3446 58.7026
131.631 3379 58.1292
131.748 3492 59.0931
131.865 3441 58.66
131.983 3350 57.8792
132.1 3330 57.7062
132.217 3305 57.4891
132.335 3365 58.0086
132.452 3299 57.4369
132.57 3320 57.6194
132.687 3195 56.5243
132.804 3523 59.3549
132.922 3409 58.3866
133.039 3415 58.438
133.157 3426 58.532
133.274 3582 59.8498
133.392 3522 59.3464
133.509 3559 59.6574
133.627 3783 61.5061
133.744 3661 60.5062
133.862 3892 62.3859
133.979 3919 62.6019
134.097 3833 61.9112
134.214 3752 61.2536
134.332 3653 60.4401
134.449 3546 59.5483
134.567 3583 59.8582
134.684 3576 59.7997
134.802 3794 61.5955
134.919 3789 61.5549
135.037 3712 60.9262
135.154 3868 62.1932
135.272 3715 60.9508
135.389 3679 60.6548
135.507 3651 60.4235
135.624 3555 59.6238
135.742 3520 59.3296
135.859 3499 59.1523
135.977 3451 58.7452
136.094 3444 58.6856
136.211 3307 57.5065
136.329 3473 58.9322
136.446 3538 59.4811
136.564 3549 59.5735
136.681 3477 58.9661
136.798 3556 59.6322
136.915 3616 60.1332
137.033 3577 59.808
137.15 3632 60.2661
137.267 3643 60.3573
137.384 3648 60.3987
137.502 3761 61.327
137.619 3601 60.0083
137.736 3609 60.075
137.853 3483 59.0169
137.97 3563 59.6909
138.087 3273 57.2101
138.204 3330 57.7062
138.321 3526 59.3801
138.438 3574 59.7829
138.555 3593 59.9416
138.672 3568 59.7327
138.788 3477 58.9661
138.905 3489 59.0678
139.022 3388 58.2065
139.139 3233 56.8595
139.255 3149 56.116
139.372 2966 54.461
139.488 2868 53.5537
139.605 2676 51.7301
139.721 2649 51.4684
139.838 2585 50.8429
139.954 2563 50.6261
140.071 2410 49.0918
140.187 2488 49.8799
140.303 2402 49.0102
140.419 2522 50.2195
140.535 2342 48.3942
140.652 2552 50.5173
140.768 0 1
140.884 0 1
141 0 1
141.115 0 1
141.231 0 1
141.347 0 1
141.463 0 1
141.578 0 1
141.694 0 1
144.104 0 1
144.219 0 1
144.335 0 1
144.45 0 1
144.566 0 1
144.682 0 1
144.798 0 1
144.914 0 1
145.03 0 1
145.146 3375 58.0948
145.262 3566 59.716
145.378 3466 58.8727
145.494 3620 60.1664
145.61 3622 60.1831
145.726 3699 60.8194
145.842 3641 60.3407
145.959 3763 61.3433
146.075 3756 61.2862
146.192 3730 61.0737
146.308 3664 60.531
146.425 3617 60.1415
146.541 3587 59.8916
146.658 3332 57.7235
146.774 3134 55.9821
146.891 3043 55.1634
147.008 3190 56.4801
147.125 3308 57.5152
147.241 3340 57.7927
147.358 3419 58.4722
147.475 3513 59.2706
147.592 3492 59.0931
147.709 3581 59.8415
147.826 3578 59.8164
147.943 3548 59.5651
148.06 3511 59.2537
148.177 3645 60.3738
148.294 3572 59.7662
148.411 3742 61.1719
148.528 3653 60.4401
148.645 3584 59.8665
148.762 3652 60.4318
148.88 3693 60.7701
148.997 3633 60.2744
149.114 4037 63.5374
149.231 3710 60.9098
149.349 3916 62.578
149.466 3775 61.441
149.583 3822 61.8223
149.701 3800 61.6441
149.818 3853 62.0725
149.935 3769 61.3922
150.053 3759 61.3107
150.17 3704 60.8605
150.287 3492 59.0931
150.405 3277 57.2451
150.522 3134 55.9821
150.64 3068 55.3895
150.757 3013 54.8908
150.875 3059 55.3082
150.992 3138 56.0179
151.11 3004 54.8088
151.227 2916 54
151.344 2905 53.8981
151.462 2792 52.8394
151.579 2907 53.9166
151.697 2850 53.3854
151.814 3007 54.8361
151.932 2864 53.5164
152.049 2927 54.1018
152.167 2965 54.4518
152.284 3079 55.4887
152.402 2998 54.754
152.519 3000 54.7723
152.636 3208 56.6392
152.754 3143 56.0625
152.871 3220 56.745
152.989 3315 57.576
153.106 3275 57.2276
153.223 3291 57.3672
153.341 3330 57.7062
153.458 3368 58.0345
153.575 3405 58.3524
153.693 3360 57.9655
153.81 3510 59.2453
153.927 3439 58.643
154.044 3209 56.648
154.162 3192 56.4978
154.279 3051 55.2359
154.396 3237 56.8946
154.513 3313 57.5587
154.63 3331 57.7148
154.747 3468 58.8897
154.864 3322 57.6368
154.981 3359 57.9569
155.098 3138 56.0179
155.215 3011 54.8726
155.332 2812 53.0283
155.449 2784 52.7636
155.566 2678 51.7494
155.683 2455 49.548
155.8 2293 47.8853
155.917 2238 47.3075
156.033 2204 46.9468
156.15 0 1
156.267 0 1
156.383 0 1
156.5 0 1
156.617 0 1
156.733 0 1
156.85 0 1
156.966 0 1
157.082 0 1
157.199 0 1
157.315 0 1
157.431 0 1
157.547 0 1
157.664 0 1
157.78 0 1
157.896 0 1
158.012 0 1
158.128 0 1
158.244 0 1
158.359 0 1
158.475 0 1
158.591 0 1
158.706 0 1
