
6.15755 0 1
6.2731 0 1
6.3887 0 1
6.50437 0 1
6.62009 0 1
6.73587 0 1
6.8517 0 1
6.96759 0 1
7.08353 0 1
7.19952 0 1
7.31557 0 1
7.43166 0 1
7.54781 0 1
7.664 0 1
7.78024 0 1
7.89653 0 1
8.01286 0 1
8.12924 0 1
8.24567 0 1
8.36213 0 1
8.47864 0 1
8.59519 0 1
8.71178 0 1
8.82841 0 1
8.94508 0 1
9.06179 0 1
9.17853 0 1
9.29531 0 1
9.41212 0 1
9.52897 0 1
9.64584 0 1
9.76276 0 1
9.8797 0 1
9.99667 0 1
10.1137 0 1
10.2307 0 1
10.3478 0 1
10.4648 0 1
10.5819 0 1
10.6991 0 1
10.8162 0 1
10.9334 0 1
11.0506 0 1
11.1678 0 1
11.285 0 1
11.4023 0 1
11.5196 0 1
11.6369 0 1
11.7542 0 1
11.8715 0 1
11.9888 0 1
12.1062 0 1
12.2235 0 1
12.3409 0 1
12.4582 0 1
12.5756 0 1
12.693 0 1
12.8104 0 1
12.9278 0 1
13.0452 0 1
13.1626 0 1
13.28 0 1
13.3974 0 1
13.5149 0 1
13.6323 0 1
13.7497 0 1
13.8671 0 1
13.9845 0 1
14.1019 0 1
14.2193 0 1
14.3367 0 1
14.4541 0 1
14.5714 0 1
14.6888 0 1
14.8062 0 1
14.9235 0 1
15.0408 0 0
15.1581 0 0
15.2755 0 0
15.3927 0 0
15.51 0 0
15.6273 0 0
15.7445 0 0
15.8617 0 0
15.9789 0 0
16.0961 0 0
16.2132 0 0
16.3304 0 0
16.4475 0 0
16.5646 0 0
16.6816 0 0
16.7986 0 0
16.9156 0 0
17.0326 0 0
17.1496 0 0
17.2665 0 0
17.3833 0 0
17.5002 0 0
17.617 0 0
17.7338 0 0
17.8505 0 0
17.9672 0 0
18.0839 0 0
18.2005 0 0
18.3171 0 0
18.4337 0 0
18.5502 0 0
18.6666 0 0
18.7831 0 0
18.8994 0 0
19.0158 0 0
19.1321 0 0
19.2483 0 0
19.3645 0 0
19.4806 0 0
19.5967 0 0
19.7128 0 0
19.8288 0 0
19.9447 0 0
20.0606 0 1
20.1764 0 1
20.2922 0 1
20.4079 0 1
20.5236 0 1
20.6392 0 1
20.7548 0 1
20.8702 0 1
23.3078 0 1
23.4233 0 1
23.539 0 1
23.6547 0 1
23.7704 0 1
23.8862 0 1
24.0021 0 1
24.118 0 1
24.234 0 1
24.35 0 1
24.4661 17372 131.803
24.5822 17489 132.246
24.6984 17194 131.126
24.8146 16662 129.081
24.9309 16227 127.385
25.0472 16123 126.976
25.1636 16505 128.472
25.28 16961 130.234
25.3965 17688 132.996
25.513 18458 135.86
25.6296 19298 138.917
25.7462 19675 140.268
25.8628 19928 141.167
25.9795 19845 140.872
26.0962 19594 139.979
26.213 19857 140.915
26.3298 19382 139.219
26.4466 19245 138.726
26.5635 18840 137.259
26.6804 18163 134.77
26.7973 17529 132.397
26.9143 17593 132.639
27.0313 17880 133.716
27.1483 18270 135.167
27.2653 18994 137.819
27.3824 19058 138.051
27.4996 19296 138.91
27.6167 19323 139.007
27.7339 18981 137.772
27.8511 18558 136.228
27.9683 17930 133.903
28.0855 17483 132.223
28.2028 16905 130.019
28.3201 16173 127.173
28.4374 15793 125.67
28.5547 15347 123.883
28.6721 15808 125.73
28.7894 16220 127.358
28.9068 16866 129.869
29.0242 17332 131.651
29.1416 18057 134.376
29.259 18594 136.36
29.3764 19008 137.87
29.4939 18934 137.601
29.6113 19066 138.08
29.7288 18866 137.354
29.8463 18788 137.069
29.9638 18681 136.678
30.0812 18285 135.222
30.1987 17628 132.77
30.3162 17293 131.503
30.4337 17140 130.92
30.5512 17515 132.344
30.6687 17934 133.918
30.7862 18698 136.741
30.9037 18875 137.386
31.0212 19084 138.145
31.1387 19347 139.093
31.2562 18847 137.284
31.3737 18836 137.244
31.4912 18231 135.022
31.6087 17822 133.499
31.7262 16869 129.881
31.8436 16488 128.406
31.9611 15943 126.266
32.0785 15184 123.223
32.1959 15896 126.079
32.3134 15792 125.666
32.4308 16797 129.603
32.5482 17847 133.593
32.6655 18357 135.488
32.7829 18835 137.241
32.9002 19146 138.369
33.0176 19112 138.246
33.1349 19173 138.467
33.2522 18953 137.67
33.3694 19236 138.694
33.4867 19105 138.221
33.6039 19273 138.827
33.7211 18596 136.367
33.8383 17929 133.899
33.9554 17672 132.936
34.0725 17363 131.769
34.1896 17883 133.727
34.3067 18292 135.248
34.4237 18836 137.244
34.5407 18946 137.644
34.6577 19281 138.856
34.7746 19168 138.449
34.8915 19074 138.109
35.0084 18980 137.768
35.1252 18409 135.68
35.242 17994 134.142
35.3587 17298 131.522
35.4755 16441 128.222
35.5921 16189 127.236
35.7088 15423 124.189
35.8254 15324 123.79
35.9419 15373 123.988
36.0584 15795 125.678
36.1749 16651 129.039
36.2913 17317 131.594
36.4077 18249 135.089
36.524 18513 136.062
36.6403 18847 137.284
36.7565 19041 137.989
36.8727 19037 137.975
36.9889 19373 139.187
37.1049 18752 136.938
37.221 0 1
37.3369 0 1
37.4529 0 1
37.5687 0 1
37.6845 0 1
37.8003 0 1
37.916 0 1
38.0316 0 1
38.1472 0 1
40.5851 0 1
40.7008 0 1
40.8164 0 1
40.9322 0 1
41.048 0 1
41.1639 0 1
41.2798 0 1
41.3958 0 1
41.5118 0 1
41.6279 0 1
41.744 16164 127.138
41.8602 16711 129.271
41.9765 16807 129.642
42.0928 16865 129.865
42.2091 16984 130.323
42.3255 17019 130.457
42.4419 16576 128.748
42.5584 16389 128.02
42.675 15653 125.112
42.7915 15354 123.911
42.9081 15620 124.98
43.0248 16316 127.734
43.1415 16683 129.163
43.2582 16748 129.414
43.375 16809 129.65
43.4918 16876 129.908
43.6087 17023 130.472
43.7256 16834 129.746
43.8425 16439 128.215
43.9595 15951 126.297
44.0765 15401 124.101
44.1935 14744 121.425
44.3106 14047 118.52
44.4277 12966 113.868
44.5448 12221 110.549
44.6619 12044 109.745
44.7791 12273 110.784
44.8963 12717 112.77
45.0136 13282 115.248
45.1308 14105 118.764
45.2481 14557 120.652
45.3654 14960 122.311
45.4827 14752 121.458
45.6001 14749 121.445
45.7174 14847 121.848
45.8348 14689 121.198
45.9522 14390 119.958
46.0697 13998 118.313
46.1871 12971 113.89
46.3046 12296 110.887
46.422 12385 111.288
46.5395 12885 113.512
46.657 13297 115.313
46.7745 13150 114.673
46.892 13118 114.534
47.0096 13402 115.767
47.1271 13214 114.952
47.2446 13134 114.604
47.3622 13083 114.381
47.4797 12648 112.463
47.5973 12274 110.788
47.7149 11893 109.055
47.8324 11110 105.404
47.95 10457 102.259
48.0675 9946 99.7296
48.1851 9196 95.8958
48.3027 9448 97.2008
48.4202 9591 97.9337
48.5378 10369 101.828
48.6554 10943 104.609
48.7729 11607 107.736
48.8904 11872 108.959
49.008 12108 110.036
49.1255 12150 110.227
49.243 12270 110.77
49.3605 12391 111.315
49.478 12304 110.923
49.5955 11776 108.517
49.713 11251 106.071
49.8304 11297 106.287
49.9479 11436 106.939
50.0653 12025 109.659
50.1827 13048 114.228
50.3001 13364 115.603
50.4175 13652 116.842
50.5348 13839 117.639
50.6521 14363 119.846
50.7694 14651 121.041
50.8867 14900 122.066
51.004 15009 122.511
51.1212 15087 122.829
51.2384 14911 122.111
51.3556 14173 119.05
51.4727 13605 116.64
51.5899 12873 113.459
51.707 12365 111.198
51.824 12737 112.858
51.9411 13510 116.233
52.0581 14898 122.057
52.175 16188 127.232
52.2919 17293 131.503
52.4088 17721 133.12
52.5257 17987 134.116
52.6425 18098 134.529
52.7593 18215 134.963
52.876 18231 135.022
52.9927 18860 137.332
53.1094 18317 135.34
53.226 17935 133.922
53.3426 17487 132.238
53.4591 17790 133.379
53.5756 18052 134.358
53.692 18725 136.839
53.8084 19357 139.129
53.9248 19304 138.939
54.0411 19634 140.121
54.1573 20097 141.764
54.2735 0 1
54.3896 0 1
54.5057 0 1
54.6217 0 1
54.7377 0 1
54.8537 0 1
54.9695 0 1
55.0853 0 1
55.2011 0 1
55.3168 0 1
55.4324 0 1
57.824 0 1
57.9396 0 1
58.0553 0 1
58.1711 0 1
58.2869 0 1
58.4028 0 1
58.5187 0 1
58.6347 0 1
58.7508 0 1
58.8669 0 1
58.983 25015 158.161
59.0992 25593 159.978
59.2155 25689 160.278
59.3318 25650 160.156
59.4482 26111 161.589
59.5646 25933 161.037
59.681 26092 161.53
59.7975 25294 159.041
59.9141 24489 156.49
60.0306 23179 152.247
60.1473 21738 147.438
60.2639 20199 142.123
60.3807 18986 137.79
60.4974 18997 137.83
60.6142 20092 141.746
60.731 21439 146.421
60.8479 23385 152.922
60.9648 24268 155.782
61.0818 25502 159.693
61.1987 25799 160.621
61.3158 25866 160.829
61.4328 25675 160.234
61.5499 25539 159.809
61.667 25339 159.182
61.7841 24734 157.27
61.9013 24350 156.045
62.0185 24137 155.361
62.1357 24289 155.849
62.253 25296 159.047
62.3702 25881 160.876
62.4875 26199 161.861
62.6049 26249 162.015
62.7222 27013 164.356
62.8396 26742 163.53
62.9569 26831 163.802
63.0743 26441 162.607
63.1918 26333 162.274
63.3092 25644 160.137
63.4267 24739 157.286
63.5441 23526 153.382
63.6616 22104 148.674
63.7791 19881 141
63.8966 19019 137.909
64.0142 18752 136.938
64.1317 20038 141.556
64.2492 21657 147.163
64.3668 23685 153.899
64.4843 24980 158.051
64.6019 26128 161.642
64.7195 26349 162.324
64.837 26836 163.817
64.9546 27000 164.317
65.0722 26692 163.377
65.1898 26542 162.917
65.3074 26527 162.871
65.4249 25176 158.669
65.5425 25105 158.446
65.6601 24660 157.035
65.7777 25380 159.311
65.8952 26560 162.972
66.0128 27362 165.415
66.1304 27680 166.373
66.2479 28069 167.538
66.3655 28391 168.496
66.483 28114 167.672
66.6005 28325 168.3
66.718 28319 168.283
66.8355 27517 165.882
66.953 27186 164.882
67.0705 26264 162.062
67.1879 24827 157.566
67.3054 22878 151.255
67.4228 20416 142.885
67.5402 18894 137.455
67.6576 19332 139.04
67.7749 20471 143.077
67.8923 23216 152.368
68.0096 25662 160.194
68.1269 27729 166.52
68.2442 28607 169.136
68.3614 29089 170.555
68.4787 29329 171.257
68.5958 30068 173.401
68.713 29885 172.873
68.8302 29995 173.191
68.9473 29539 171.869
69.0643 28734 169.511
69.1814 28318 168.28
69.2984 28489 168.787
69.4154 28893 169.979
69.5323 30265 173.968
69.6492 31301 176.921
69.7661 32197 179.435
69.8829 32034 178.98
69.9997 32805 181.122
70.1165 32717 180.878
70.2332 32912 181.417
70.3499 32659 180.718
70.4665 32317 179.769
70.5831 31508 177.505
70.6996 30585 174.886
70.8161 29368 171.371
70.9326 27051 164.472
71.049 24508 156.55
71.1653 21351 146.12
71.2817 20052 141.605
71.3979 20787 144.177
71.5141 22619 150.396
71.6303 24974 158.032
71.7464 25014 158.158
71.8624 0 1
71.9784 0 1
72.0944 0 1
72.2102 0 1
72.3261 0 1
72.4418 0 1
72.5575 0 1
72.6732 0 1
75.1054 0 1
75.2209 0 1
75.3365 0 1
75.4521 0 1
75.5678 0 1
75.6835 0 1
75.7993 0 1
75.9151 0 1
76.031 0 1
76.147 28902 170.006
76.263 29701 172.34
76.3791 27704 166.445
76.4952 24506 156.544
76.6113 22796 150.983
76.7276 24067 155.135
76.8438 26352 162.333
76.9601 30151 173.64
77.0765 33953 184.263
77.1929 36326 190.594
77.3093 37830 194.499
77.4258 37935 194.769
77.5423 37861 194.579
77.6589 37946 194.797
77.7755 37777 194.363
77.8921 37977 194.877
78.0088 36920 192.146
78.1256 36033 189.824
78.2423 35596 188.669
78.3591 35709 188.968
78.4759 36366 190.699
78.5928 37585 193.869
78.7097 38702 196.728
78.8266 41341 203.325
78.9436 38311 195.732
79.0606 39991 199.977
79.1776 40030 200.075
79.2946 40443 201.104
79.4117 40126 200.315
79.5288 39631 199.075
79.6459 38521 196.268
79.7631 37466 193.561
79.8802 35535 188.507
79.9974 32846 181.235
80.1147 28470 168.731
80.2319 25572 159.912
80.3491 25700 160.312
80.4664 28800 169.706
80.5837 33228 182.285
80.701 37239 192.974
80.8183 39385 198.457
80.9357 40475 201.184
81.053 41787 204.419
81.1704 41257 203.118
81.2877 41632 204.039
81.4051 41580 203.912
81.5225 41643 204.066
81.6399 40225 200.562
81.7573 40184 200.459
81.8747 38328 195.775
81.9922 38236 195.54
82.1096 39029 197.558
82.227 39882 199.705
82.3444 41217 203.02
82.4619 42295 205.657
82.5793 41694 204.191
82.6967 43891 209.502
82.8142 42560 206.301
82.9316 42694 206.625
83.049 42456 206.049
83.1664 41308 203.244
83.2838 40679 201.69
83.4012 38991 197.461
83.5186 37262 193.034
83.636 34472 185.666
83.7534 29890 172.887
83.8708 26004 161.258
83.9881 25925 161.012
84.1055 28618 169.169
84.2228 32515 180.319
84.3401 37981 194.887
84.4575 41855 204.585
84.5747 43576 208.749
84.692 44183 210.198
84.8093 44625 211.246
84.9265 44719 211.469
85.0437 45338 212.927
85.1609 45171 212.535
85.2781 44179 210.188
85.3952 43483 208.526
85.5123 42475 206.095
85.6294 42647 206.512
85.7465 44074 209.938
85.8636 45258 212.739
85.9806 47237 217.341
86.0976 48261 219.684
86.2145 48876 221.079
86.3315 48119 219.36
86.4484 51823 227.647
86.5652 50873 225.55
86.682 50838 225.473
86.7988 50188 224.027
86.9156 49212 221.838
87.0323 47227 217.318
87.149 44930 211.967
87.2657 40536 201.336
87.3823 34896 186.805
87.4988 32605 180.569
87.6154 34744 186.397
87.7318 39906 199.765
87.8483 46389 215.381
87.9647 51846 227.697
88.081 53983 232.342
88.1973 55445 235.468
88.3136 56076 236.804
88.4298 55551 235.693
88.546 55822 236.267
88.6621 55472 235.525
88.7781 54412 233.264
88.8942 0 1
89.0101 0 1
89.126 0 1
89.2419 0 1
89.3577 0 1
89.4734 0 1
89.5891 0 1
89.7047 0 1
89.8203 0 1
89.9358 0 1
92.3269 0 1
92.4424 0 1
92.558 0 1
92.6736 0 1
92.7893 0 1
92.905 0 1
93.0208 0 1
93.1366 0 1
93.2525 0 1
93.3685 0 1
93.4845 0 1
93.6005 58975 242.848
93.7167 59892 244.728
93.8328 59936 244.818
93.949 60172 245.3
94.0653 60464 245.894
94.1816 60037 245.024
94.2979 59626 244.184
94.4143 58699 242.279
94.5307 58374 241.607
94.6472 57253 239.276
94.7637 56219 237.105
94.8803 57907 240.639
94.9969 58801 242.489
95.1135 60938 246.856
95.2302 61488 247.968
95.3469 62977 250.952
95.4637 63002 251.002
95.5805 64239 253.454
95.6973 64822 254.602
95.8142 65214 255.37
95.9311 63642 252.274
96.048 62490 249.98
96.1649 60181 245.318
96.2819 57280 239.332
96.3989 52071 228.191
96.516 46317 215.214
96.633 41112 202.761
96.7501 40028 200.07
96.8673 44098 209.995
96.9844 50737 225.249
97.1016 57731 240.273
97.2188 63145 251.287
97.336 66924 258.697
97.4532 67565 259.933
97.5704 67962 260.695
97.6877 68381 261.498
97.805 67905 260.586
97.9223 67209 259.247
98.0396 66659 258.184
98.1569 65689 256.299
98.2743 64512 253.992
98.3916 63789 252.565
98.509 63961 252.905
98.6264 63845 252.676
98.7438 65386 255.707
98.8612 67626 260.05
98.9786 69184 263.029
99.096 69992 264.56
99.2134 70865 266.205
99.3308 70868 266.21
99.4482 70928 266.323
99.5656 70575 265.66
99.6831 69099 262.867
99.8005 66431 257.742
99.9179 62783 250.565
100.035 57426 239.637
100.153 49885 223.35
100.27 45219 212.648
100.388 47155 217.152
100.505 53892 232.147
100.622 62703 250.406
100.74 69312 263.272
100.857 72187 268.676
100.975 73974 271.982
101.092 74410 272.782
101.209 73948 271.934
101.327 73599 271.291
101.444 73975 271.983
101.561 72986 270.159
101.679 72926 270.048
101.796 71994 268.317
101.913 70864 266.203
102.03 69235 263.125
102.148 69043 262.76
102.265 74459 272.872
102.382 69136 262.937
102.499 74949 273.768
102.616 76482 276.554
102.733 77202 277.852
102.851 78055 279.383
102.968 78137 279.53
103.085 77356 278.129
103.202 76486 276.561
103.319 73913 271.869
103.436 69811 264.218
103.552 63377 251.748
103.669 55179 234.902
103.786 49586 222.679
103.903 51360 226.627
104.02 59112 243.13
104.137 68247 261.241
104.253 77207 277.861
104.37 77784 278.898
104.487 81940 286.252
104.603 81650 285.745
104.72 81302 285.135
104.836 82198 286.702
104.953 81397 285.302
105.069 81553 285.575
105.186 80409 283.565
105.302 78601 280.359
105.418 77043 277.566
105.535 76417 276.436
105.651 76362 276.337
105.767 78205 279.652
105.883 79930 282.719
105.999 82071 286.48
106.115 0 1
106.231 0 1
106.347 0 1
106.463 0 1
106.579 0 1
106.694 0 1
106.81 0 1
106.926 0 1
107.041 0 1
107.157 0 1
109.576 0 1
109.692 0 1
109.807 0 1
109.923 0 1
110.039 0 1
110.155 0 1
110.27 0 1
110.386 0 1
110.502 0 1
110.618 70705 265.904
110.735 73252 270.651
110.851 74383 272.732
110.967 76156 275.964
111.083 77750 278.837
111.199 78310 279.839
111.316 78510 280.196
111.432 78916 280.92
111.549 78154 279.56
111.665 76573 276.718
111.782 73722 271.518
111.898 68604 261.924
112.015 63346 251.686
112.132 55109 234.753
112.248 48179 219.497
112.365 48119 219.36
112.482 53431 231.151
112.599 59873 244.69
112.716 67593 259.987
112.832 72122 268.555
112.949 72672 269.577
113.066 72897 269.994
113.183 72391 269.056
113.3 72069 268.457
113.417 71530 267.451
113.534 70651 265.803
113.652 69866 264.322
113.769 68991 262.661
113.886 67253 259.332
114.003 65795 256.505
114.12 64446 253.862
114.238 63663 252.315
114.355 63474 251.94
114.472 64063 253.107
114.589 65762 256.441
114.707 66846 258.546
114.824 67489 259.786
114.942 68048 260.86
115.059 68931 262.547
115.176 68616 261.947
115.294 66914 258.677
115.411 63997 252.976
115.529 58867 242.625
115.646 53748 231.836
115.764 47057 216.926
115.881 43486 208.533
115.999 46017 214.516
116.116 52160 228.386
116.234 59840 244.622
116.351 64247 253.47
116.469 66162 257.22
116.586 67242 259.311
116.704 68224 261.197
116.821 67368 259.553
116.939 68428 261.587
117.056 66990 258.824
117.174 66548 257.969
117.291 66591 258.052
117.409 66464 257.806
117.526 64819 254.596
117.644 64177 253.332
117.761 63072 251.141
117.879 63301 251.597
117.996 62400 249.8
118.114 63692 252.373
118.231 66293 257.474
118.349 65720 256.359
118.466 66756 258.372
118.584 67749 260.286
118.701 67876 260.53
118.819 66667 258.2
118.936 64764 254.488
119.053 62478 249.956
119.171 58011 240.855
119.288 51704 227.385
119.405 45819 214.054
119.523 41791 204.428
119.64 45146 212.476
119.757 50030 223.674
119.875 57304 239.383
119.992 62099 249.197
120.109 63951 252.885
120.226 65242 255.425
120.343 65198 255.339
120.46 65346 255.629
120.578 64967 254.886
120.695 64704 254.37
120.812 64598 254.161
120.929 64153 253.284
121.046 63729 252.446
121.163 62878 250.755
121.279 62072 249.143
121.396 60888 246.755
121.513 60097 245.147
121.63 60465 245.896
121.747 59285 243.485
121.863 61007 246.996
121.98 62194 249.387
122.097 63040 251.078
122.213 63357 251.708
122.33 63907 252.798
122.446 63160 251.317
122.563 62680 250.36
122.679 60691 246.355
122.795 58412 241.686
122.912 54341 233.112
123.028 48874 221.075
123.144 43025 207.425
123.26 39711 199.276
123.377 0 1
123.493 0 1
123.609 0 1
123.725 0 1
123.84 0 1
123.956 0 1
124.072 0 1
124.188 0 1
124.303 0 1
124.419 0 1
126.852 0 1
126.968 0 1
127.083 0 1
127.199 0 1
127.315 0 1
127.431 0 1
127.547 0 1
127.663 0 1
127.779 0 1
127.895 0 1
128.011 0 1
128.127 0 1
128.243 0 1
128.359 47922 218.911
128.476 43732 209.122
128.592 45498 213.303
128.708 52248 228.578
128.825 58642 242.161
128.941 64830 254.617
129.058 66822 258.5
129.174 68158 261.071
129.291 67749 260.286
129.408 67623 260.044
129.524 67687 260.167
129.641 67292 259.407
129.758 66994 258.832
129.875 66456 257.791
129.992 66355 257.595
130.108 65274 255.488
130.225 64014 253.01
130.342 64039 253.059
130.459 61564 248.121
130.576 63719 252.426
130.693 62242 249.483
130.81 62931 250.861
130.928 64398 253.768
131.045 64983 254.918
131.162 65981 256.868
131.279 65488 255.906
131.396 64455 253.88
131.513 63750 252.488
131.631 61151 247.287
131.748 57771 240.356
131.865 50518 224.762
131.983 44460 210.855
132.1 44331 210.549
132.217 48390 219.977
132.335 54941 234.395
132.452 60266 245.491
132.57 63714 252.416
132.687 61685 248.365
132.804 66525 257.924
132.922 64101 253.182
133.039 63864 252.713
133.157 63483 251.958
133.274 63379 251.752
133.392 63780 252.547
133.509 62246 249.491
133.627 62072 249.143
133.744 61028 247.038
133.862 60559 246.087
133.979 60123 245.2
134.097 59615 244.162
134.214 60466 245.898
134.332 58842 242.574
134.449 60045 245.041
134.567 60745 246.465
134.684 61850 248.697
134.802 62127 249.253
134.919 61362 247.714
135.037 61272 247.532
135.154 58970 242.837
135.272 57063 238.879
135.389 51821 227.642
135.507 45680 213.729
135.624 42320 205.718
135.742 43649 208.923
135.859 48825 220.964
135.977 54658 233.791
136.094 59343 243.604
136.211 60470 245.906
136.329 61910 248.817
136.446 61979 248.956
136.564 61844 248.685
136.681 62651 250.302
136.798 61148 247.281
136.915 61076 247.136
137.033 60964 246.909
137.15 59418 243.758
137.267 59063 243.029
137.384 58688 242.256
137.502 57982 240.795
137.619 57871 240.564
137.736 57609 240.019
137.853 56070 236.791
137.97 55226 235.002
138.087 58295 241.444
138.204 58494 241.855
138.321 58789 242.464
138.438 59674 244.283
138.555 59043 242.988
138.672 58492 241.851
138.788 57383 239.547
138.905 55125 234.787
139.022 51450 226.826
139.139 46598 215.866
139.255 42861 207.029
139.372 43104 207.615
139.488 47412 217.743
139.605 52732 229.634
139.721 56838 238.407
139.838 59224 243.36
139.954 59650 244.233
140.071 59012 242.924
140.187 59340 243.598
140.303 59234 243.38
140.419 59147 243.202
140.535 58607 242.089
140.652 57314 239.403
140.768 0 1
140.884 0 1
141 0 1
141.115 0 1
141.231 0 1
141.347 0 1
141.463 0 1
141.578 0 1
141.694 0 1
144.104 0 1
144.219 0 1
144.335 0 1
144.45 0 1
144.566 0 1
144.682 0 1
144.798 0 1
144.914 0 1
145.03 0 1
145.146 50026 223.665
145.262 50619 224.987
145.378 50539 224.809
145.494 50061 223.743
145.61 49202 221.815
145.726 49080 221.54
145.842 48411 220.025
145.959 47497 217.938
146.075 47483 217.906
146.192 47442 217.812
146.308 47472 217.881
146.425 47609 218.195
146.541 46939 216.654
146.658 46581 215.826
146.774 46519 215.683
146.891 46455 215.534
147.008 46912 216.592
147.125 47059 216.931
147.241 47150 217.141
147.358 46197 214.935
147.475 44464 210.865
147.592 41795 204.438
147.709 38524 196.275
147.826 34952 186.955
147.943 34619 186.062
148.06 36506 191.065
148.177 41192 202.958
148.294 44354 210.604
148.411 46162 214.853
148.528 46651 215.988
148.645 46305 215.186
148.762 46161 214.851
148.88 45976 214.42
148.997 44662 211.334
149.114 46975 216.737
149.231 44893 211.88
149.349 44270 210.404
149.466 43111 207.632
149.583 42644 206.504
149.701 42555 206.289
149.818 42922 207.176
149.935 43159 207.747
150.053 43361 208.233
150.17 43137 207.694
150.287 42882 207.08
150.405 42579 206.347
150.522 42827 206.947
150.64 43017 207.405
150.757 43258 207.986
150.875 43273 208.022
150.992 43157 207.743
151.11 40460 201.147
151.227 39443 198.603
151.344 36170 190.184
151.462 33202 182.214
151.579 32771 181.028
151.697 35352 188.021
151.814 39481 198.698
151.932 42236 205.514
152.049 44385 210.677
152.167 44348 210.59
152.284 45025 212.191
152.402 44648 211.301
152.519 44498 210.945
152.636 44599 211.185
152.754 44067 209.921
152.871 43850 209.404
152.989 42276 205.611
153.106 42194 205.412
153.223 42290 205.645
153.341 41594 203.946
153.458 42128 205.251
153.575 42482 206.112
153.693 42912 207.152
153.81 42925 207.183
153.927 43010 207.389
154.044 43017 207.405
154.162 42987 207.333
154.279 43856 209.418
154.396 44163 210.15
154.513 44369 210.64
154.63 43808 209.304
154.747 42691 206.618
154.864 41490 203.691
154.981 39272 198.172
155.098 36583 191.267
155.215 35163 187.518
155.332 37619 193.956
155.449 41250 203.101
155.566 43459 208.468
155.683 44618 211.23
155.8 45189 212.577
155.917 45170 212.532
156.033 45233 212.681
156.15 0 1
156.267 0 1
156.383 0 1
156.5 0 1
156.617 0 1
156.733 0 1
156.85 0 1
156.966 0 1
157.082 0 1
157.199 0 1
157.315 0 1
157.431 0 1
157.547 0 1
157.664 0 1
157.78 0 1
157.896 0 1
158.012 0 1
158.128 0 1
158.244 0 1
158.359 0 1
158.475 0 1
158.591 0 1
158.706 0 1
