
6.15755 0 1
6.2731 0 1
6.3887 0 1
6.50437 0 1
6.62009 0 1
6.73587 0 1
6.8517 0 1
6.96759 0 1
7.08353 0 1
7.19952 0 1
7.31557 0 1
7.43166 0 1
7.54781 0 1
7.664 0 1
7.78024 0 1
7.89653 0 1
8.01286 0 1
8.12924 0 1
8.24567 0 1
8.36213 0 1
8.47864 0 1
8.59519 0 1
8.71178 0 1
8.82841 0 1
8.94508 0 1
9.06179 0 1
9.17853 0 1
9.29531 0 1
9.41212 0 1
9.52897 0 1
9.64584 0 1
9.76276 0 1
9.8797 0 1
9.99667 0 1
10.1137 0 1
10.2307 0 1
10.3478 0 1
10.4648 0 1
10.5819 0 1
10.6991 0 1
10.8162 0 1
10.9334 0 1
11.0506 0 1
11.1678 0 1
11.285 0 1
11.4023 0 1
11.5196 0 1
11.6369 0 1
11.7542 0 1
11.8715 0 1
11.9888 0 1
12.1062 0 1
12.2235 0 1
12.3409 0 1
12.4582 0 1
12.5756 0 1
12.693 0 1
12.8104 0 1
12.9278 0 1
13.0452 0 1
13.1626 0 1
13.28 0 1
13.3974 0 1
13.5149 0 1
13.6323 0 1
13.7497 0 1
13.8671 0 1
13.9845 0 1
14.1019 0 1
14.2193 0 1
14.3367 0 1
14.4541 0 1
14.5714 0 1
14.6888 0 1
14.8062 0 1
14.9235 0 1
15.0408 5322 72.952
15.1581 5674 75.326
15.2755 5962 77.214
15.3927 5888 76.7333
15.51 5678 75.3525
15.6273 5649 75.1598
15.7445 5678 75.3525
15.8617 5612 74.9133
15.9789 5638 75.0866
16.0961 5830 76.3544
16.2132 5685 75.3989
16.3304 5731 75.7034
16.4475 5662 75.2463
16.5646 5815 76.2561
16.6816 5953 77.1557
16.7986 6059 77.8396
16.9156 6049 77.7753
17.0326 6138 78.3454
17.1496 6124 78.256
17.2665 6180 78.613
17.3833 6129 78.2879
17.5002 6123 78.2496
17.617 6330 79.5613
17.7338 6274 79.2086
17.8505 6080 77.9744
17.9672 6148 78.4092
18.0839 6170 78.5493
18.2005 6184 78.6384
18.3171 6214 78.8289
18.4337 6311 79.4418
18.5502 6271 79.1896
18.6666 6689 81.7863
18.7831 6660 81.6088
18.8994 6499 80.6164
19.0158 6295 79.341
19.1321 6291 79.3158
19.2483 5930 77.0065
19.3645 5849 76.4788
19.4806 5635 75.0666
19.5967 5574 74.6592
19.7128 5267 72.5741
19.8288 4763 69.0145
19.9447 4108 64.0937
20.0606 0 1
20.1764 0 1
20.2922 0 1
20.4079 0 1
20.5236 0 1
20.6392 0 1
20.7548 0 1
20.8702 0 1
23.3078 0 1
23.4233 0 1
23.539 0 1
23.6547 0 1
23.7704 0 1
23.8862 0 1
24.0021 0 1
24.118 0 1
24.234 0 1
24.35 0 1
24.4661 3086 55.5518
24.5822 3591 59.925
24.6984 4039 63.5531
24.8146 4470 66.8581
24.9309 4899 69.9929
25.0472 5230 72.3187
25.1636 5532 74.3774
25.28 5820 76.2889
25.3965 5989 77.3886
25.513 6338 79.6116
25.6296 6521 80.7527
25.7462 6528 80.796
25.8628 6918 83.1745
25.9795 6923 83.2046
26.0962 6945 83.3367
26.213 7081 84.1487
26.3298 7169 84.6699
26.4466 6895 83.0361
26.5635 7028 83.8332
26.6804 6862 82.8372
26.7973 7183 84.7526
26.9143 7056 84
27.0313 7032 83.857
27.1483 7399 86.0174
27.2653 7629 87.3441
27.3824 7663 87.5386
27.4996 7409 86.0755
27.6167 7449 86.3076
27.7339 7190 84.7939
27.8511 7027 83.8272
27.9683 7124 84.4038
28.0855 7102 84.2734
28.2028 7101 84.2674
28.3201 7083 84.1606
28.4374 7044 83.9285
28.5547 7054 83.9881
28.6721 6801 82.4682
28.7894 6453 80.3306
28.9068 6286 79.2843
29.0242 6607 81.2835
29.1416 6559 80.9877
29.259 6617 81.3449
29.3764 6698 81.8413
29.4939 6922 83.1986
29.6113 6883 82.9638
29.7288 6975 83.5165
29.8463 7052 83.9762
29.9638 7128 84.4275
30.0812 7043 83.9226
30.1987 7012 83.7377
30.3162 6996 83.6421
30.4337 7234 85.0529
30.5512 7154 84.5813
30.6687 7371 85.8545
30.7862 7413 86.0988
30.9037 7600 87.178
31.0212 7716 87.8408
31.1387 7535 86.8044
31.2562 7414 86.1046
31.3737 7218 84.9588
31.4912 7214 84.9353
31.6087 7166 84.6522
31.7262 7227 85.0118
31.8436 7158 84.605
31.9611 7213 84.9294
32.0785 7027 83.8272
32.1959 6637 81.4678
32.3134 6601 81.2465
32.4308 6421 80.1311
32.5482 6470 80.4363
32.6655 6509 80.6784
32.7829 6486 80.5357
32.9002 6691 81.7985
33.0176 6765 82.2496
33.1349 6999 83.66
33.2522 6941 83.3127
33.3694 6844 82.7285
33.4867 6960 83.4266
33.6039 7204 84.8764
33.7211 7050 83.9643
33.8383 7145 84.5281
33.9554 6922 83.1986
34.0725 7114 84.3445
34.1896 7084 84.1665
34.3067 7208 84.8999
34.4237 7400 86.0233
34.5407 7708 87.7952
34.6577 7673 87.5957
34.7746 7673 87.5957
34.8915 7438 86.2438
35.0084 7454 86.3366
35.1252 7219 84.9647
35.242 7225 85
35.3587 7180 84.7349
35.4755 7337 85.6563
35.5921 7284 85.3464
35.7088 7140 84.4985
35.8254 6916 83.1625
35.9419 6709 81.9085
36.0584 6122 78.2432
36.1749 5858 76.5376
36.2913 5578 74.686
36.4077 5559 74.5587
36.524 5641 75.1066
36.6403 5403 73.5051
36.7565 5252 72.4707
36.8727 5213 72.2011
36.9889 5179 71.9653
37.1049 4813 69.3758
37.221 0 1
37.3369 0 1
37.4529 0 1
37.5687 0 1
37.6845 0 1
37.8003 0 1
37.916 0 1
38.0316 0 1
38.1472 0 1
40.5851 0 1
40.7008 0 1
40.8164 0 1
40.9322 0 1
41.048 0 1
41.1639 0 1
41.2798 0 1
41.3958 0 1
41.5118 0 1
41.6279 0 1
41.744 2991 54.69
41.8602 3479 58.983
41.9765 3977 63.0635
42.0928 4270 65.3452
42.2091 4875 69.8212
42.3255 5069 71.1969
42.4419 5545 74.4648
42.5584 5782 76.0395
42.675 6042 77.7303
42.7915 6154 78.4474
42.9081 5997 77.4403
43.0248 6601 81.2465
43.1415 6608 81.2896
43.2582 7020 83.7854
43.375 7343 85.6913
43.4918 7368 85.8371
43.6087 7415 86.1104
43.7256 7353 85.7496
43.8425 7312 85.5102
43.9595 7155 84.5872
44.0765 6892 83.0181
44.1935 7103 84.2793
44.3106 7131 84.4452
44.4277 7175 84.7054
44.5448 6943 83.3247
44.6619 6833 82.662
44.7791 6488 80.5481
44.8963 6038 77.7046
45.0136 5864 76.5768
45.1308 5581 74.7061
45.2481 5724 75.6571
45.3654 5612 74.9133
45.4827 5798 76.1446
45.6001 6118 78.2176
45.7174 6423 80.1436
45.8348 6646 81.523
45.9522 6747 82.1401
46.0697 7140 84.4985
46.1871 7007 83.7078
46.3046 7024 83.8093
46.422 7230 85.0294
46.5395 7139 84.4926
46.657 7358 85.7788
46.7745 7684 87.6584
46.892 7851 88.6059
47.0096 7789 88.2553
47.1271 7935 89.0786
47.2446 7836 88.5212
47.3622 7917 88.9775
47.4797 7837 88.5268
47.5973 7622 87.3041
47.7149 7491 86.5506
47.8324 7546 86.8677
47.95 7796 88.295
48.0675 7542 86.8447
48.1851 7390 85.9651
48.3027 6907 83.1084
48.4202 6585 81.148
48.5378 6015 77.5564
48.6554 5739 75.7562
48.7729 5626 75.0067
48.8904 5683 75.3857
49.008 5865 76.5833
49.1255 6081 77.9808
49.243 6714 81.939
49.3605 7139 84.4926
49.478 7131 84.4452
49.5955 7556 86.9253
49.713 7360 85.7904
49.8304 7605 87.2067
49.9479 7378 85.8953
50.0653 7425 86.1684
50.1827 7541 86.8389
50.3001 7937 89.0898
50.4175 7882 88.7806
50.5348 8050 89.7218
50.6521 8139 90.2164
50.7694 8290 91.0494
50.8867 8073 89.8499
51.004 7966 89.2525
51.1212 7995 89.4148
51.2384 7867 88.6961
51.3556 7923 89.0112
51.4727 7850 88.6002
51.5899 7955 89.1908
51.707 7571 87.0115
51.824 7319 85.5512
51.9411 6683 81.7496
52.0581 6055 77.8139
52.175 5859 76.5441
52.2919 5869 76.6094
52.4088 5806 76.1971
52.5257 5850 76.4853
52.6425 6249 79.0506
52.7593 6630 81.4248
52.876 6908 83.1144
52.9927 6963 83.4446
53.1094 7158 84.605
53.226 7254 85.1704
53.3426 7177 84.7172
53.4591 6850 82.7647
53.5756 6470 80.4363
53.692 6397 79.9812
53.8084 6112 78.1793
53.9248 5912 76.8895
54.0411 5825 76.3217
54.1573 5520 74.2967
54.2735 0 1
54.3896 0 1
54.5057 0 1
54.6217 0 1
54.7377 0 1
54.8537 0 1
54.9695 0 1
55.0853 0 1
55.2011 0 1
55.3168 0 1
55.4324 0 1
57.824 0 1
57.9396 0 1
58.0553 0 1
58.1711 0 1
58.2869 0 1
58.4028 0 1
58.5187 0 1
58.6347 0 1
58.7508 0 1
58.8669 0 1
58.983 6329 79.555
59.0992 7238 85.0764
59.2155 7865 88.6848
59.3318 8392 91.6079
59.4482 8835 93.9947
59.5646 9149 95.6504
59.681 9208 95.9583
59.7975 9633 98.1478
59.9141 9710 98.5393
60.0306 9931 99.6544
60.1473 10149 100.742
60.2639 10242 101.203
60.3807 9742 98.7016
60.4974 9716 98.5698
60.6142 9128 95.5406
60.731 8114 90.0777
60.8479 7521 86.7237
60.9648 7174 84.6995
61.0818 7085 84.1724
61.1987 7200 84.8528
61.3158 7611 87.241
61.4328 8350 91.3783
61.5499 9199 95.9114
61.667 10000 100
61.7841 10696 103.421
61.9013 10738 103.624
62.0185 10869 104.254
62.1357 10738 103.624
62.253 10857 104.197
62.3702 10840 104.115
62.4875 10828 104.058
62.6049 11254 106.085
62.7222 11626 107.824
62.8396 11830 108.766
62.9569 11535 107.401
63.0743 11588 107.648
63.1918 11637 107.875
63.3092 11250 106.066
63.4267 11261 106.118
63.5441 11369 106.626
63.6616 11124 105.47
63.7791 11443 106.972
63.8966 10994 104.852
64.0142 10286 101.42
64.1317 9521 97.5756
64.2492 8567 92.5581
64.3668 7777 88.1873
64.4843 7118 84.3682
64.6019 7031 83.8511
64.7195 7031 83.8511
64.837 7483 86.5043
64.9546 8274 90.9615
65.0722 9257 96.2133
65.1898 10171 100.851
65.3074 10688 103.383
65.4249 11069 105.209
65.5425 11325 106.419
65.6601 11312 106.358
65.7777 11145 105.57
65.8952 11250 106.066
66.0128 11393 106.738
66.1304 11532 107.387
66.2479 11871 108.954
66.3655 12109 110.041
66.483 12271 110.775
66.6005 11926 109.206
66.718 12293 110.874
66.8355 12114 110.064
66.953 11980 109.453
67.0705 11744 108.37
67.1879 11788 108.573
67.3054 11641 107.893
67.4228 11545 107.448
67.5402 11307 106.334
67.6576 10645 103.175
67.7749 9835 99.1716
67.8923 8660 93.0591
68.0096 7474 86.4523
68.1269 7045 83.9345
68.2442 6864 82.8493
68.3614 7015 83.7556
68.4787 7368 85.8371
68.5958 8404 91.6733
68.713 9300 96.4365
68.8302 10465 102.299
68.9473 11115 105.428
69.0643 11600 107.703
69.1814 11955 109.339
69.2984 11947 109.302
69.4154 11279 106.203
69.5323 11016 104.957
69.6492 10951 104.647
69.7661 10900 104.403
69.8829 11149 105.589
69.9997 11114 105.423
70.1165 11117 105.437
70.2332 11147 105.579
70.3499 10625 103.078
70.4665 10135 100.673
70.5831 9756 98.7725
70.6996 9330 96.5919
70.8161 9016 94.9526
70.9326 8326 91.2469
71.049 8109 90.05
71.1653 7748 88.0227
71.2817 6916 83.1625
71.3979 6175 78.5812
71.5141 5290 72.7324
71.6303 4186 64.6993
71.7464 2867 53.5444
71.8624 0 1
71.9784 0 1
72.0944 0 1
72.2102 0 1
72.3261 0 1
72.4418 0 1
72.5575 0 1
72.6732 0 1
75.1054 0 1
75.2209 0 1
75.3365 0 1
75.4521 0 1
75.5678 0 1
75.6835 0 1
75.7993 0 1
75.9151 0 1
76.031 0 1
76.147 8533 92.3742
76.263 9218 96.0104
76.3791 9453 97.2265
76.4952 9270 96.2808
76.6113 8970 94.7101
76.7276 8493 92.1575
76.8438 7767 88.1306
76.9601 7053 83.9821
77.0765 6531 80.8146
77.1929 6333 79.5801
77.3093 6352 79.6994
77.4258 6644 81.5107
77.5423 7386 85.9418
77.6589 8985 94.7892
77.7755 10367 101.818
77.8921 11443 106.972
78.0088 12020 109.636
78.1256 12542 111.991
78.2423 12710 112.739
78.3591 12317 110.982
78.4759 12262 110.734
78.5928 11978 109.444
78.7097 12167 110.304
78.8266 12090 109.955
78.9436 13176 114.787
79.0606 13001 114.022
79.1776 13020 114.105
79.2946 13226 115.004
79.4117 13332 115.464
79.5288 13308 115.36
79.6459 13117 114.529
79.7631 12949 113.794
79.8802 12774 113.022
79.9974 13244 115.083
80.1147 13128 114.577
80.2319 12761 112.965
80.3491 11714 108.231
80.4664 10674 103.315
80.5837 9541 97.678
80.701 8088 89.9333
80.8183 7093 84.22
80.9357 7106 84.2971
81.053 7209 84.9058
81.1704 7787 88.244
81.2877 8945 94.578
81.4051 11033 105.038
81.5225 12622 112.348
81.6399 13517 116.263
81.7573 14287 119.528
81.8747 14246 119.357
81.9922 14257 119.403
82.1096 14087 118.689
82.227 14141 118.916
82.3444 13636 116.773
82.4619 14354 119.808
82.5793 14618 120.905
82.6967 14866 121.926
82.8142 14974 122.368
82.9316 15197 123.276
83.049 15027 122.585
83.1664 15037 122.625
83.2838 14994 122.45
83.4012 14950 122.27
83.5186 14557 120.652
83.636 14569 120.702
83.7534 14519 120.495
83.8708 13895 117.877
83.9881 12734 112.845
84.1055 11564 107.536
84.2228 10629 103.097
84.3401 9201 95.9218
84.4575 7908 88.9269
84.5747 7680 87.6356
84.692 7570 87.0057
84.8093 8479 92.0815
84.9265 10097 100.484
85.0437 12124 110.109
85.1609 13798 117.465
85.2781 15243 123.463
85.3952 16062 126.736
85.5123 16323 127.761
85.6294 15956 126.317
85.7465 15730 125.419
85.8636 15442 124.266
85.9806 15186 123.231
86.0976 15761 125.543
86.2145 16125 126.984
86.3315 16853 129.819
86.4484 16390 128.023
86.5652 16759 129.457
86.682 16449 128.254
86.7988 15955 126.313
86.9156 15416 124.161
87.0323 15065 122.74
87.149 14451 120.212
87.2657 14365 119.854
87.3823 14274 119.474
87.4988 13600 116.619
87.6154 12335 111.063
87.7318 10772 103.788
87.8483 9373 96.8143
87.9647 7550 86.8907
88.081 6465 80.4052
88.1973 5998 77.4468
88.3136 5797 76.138
88.4298 6360 79.7496
88.546 7451 86.3192
88.6621 8408 91.6951
88.7781 9413 97.0206
88.8942 0 1
89.0101 0 1
89.126 0 1
89.2419 0 1
89.3577 0 1
89.4734 0 1
89.5891 0 1
89.7047 0 1
89.8203 0 1
89.9358 0 1
92.3269 0 1
92.4424 0 1
92.558 0 1
92.6736 0 1
92.7893 0 1
92.905 0 1
93.0208 0 1
93.1366 0 1
93.2525 0 1
93.3685 0 1
93.4845 0 1
93.6005 7002 83.678
93.7167 7496 86.5794
93.8328 8770 93.6483
93.949 10540 102.665
94.0653 12733 112.841
94.1816 14682 121.169
94.2979 15964 126.349
94.4143 17259 131.374
94.5307 17982 134.097
94.6472 18508 136.044
94.7637 18499 136.011
94.8803 18501 136.018
94.9969 18263 135.141
95.1135 18343 135.436
95.2302 18951 137.663
95.3469 19115 138.257
95.4637 19472 139.542
95.5805 19484 139.585
95.6973 19536 139.771
95.8142 19221 138.64
95.9311 19047 138.011
96.048 18825 137.204
96.1649 18828 137.215
96.2819 18324 135.366
96.3989 18455 135.849
96.516 17670 132.929
96.633 16762 129.468
96.7501 15131 123.008
96.8673 13671 116.923
96.9844 12033 109.695
97.1016 10809 103.966
97.2188 9781 98.8989
97.336 9549 97.719
97.4532 10010 100.05
97.5704 11547 107.457
97.6877 13488 116.138
97.805 15751 125.503
97.9223 17163 131.008
98.0396 18876 137.39
98.1569 19799 140.709
98.2743 20016 141.478
98.3916 19791 140.68
98.509 19691 140.325
98.6264 19009 137.873
98.7438 19248 138.737
98.8612 19641 140.146
98.9786 20026 141.513
99.096 20562 143.395
99.2134 20465 143.056
99.3308 20741 144.017
99.4482 20578 143.45
99.5656 20615 143.579
99.6831 20090 141.739
99.8005 19841 140.858
99.9179 19662 140.221
100.035 19572 139.9
100.153 18901 137.481
100.27 17456 132.121
100.388 15602 124.908
100.505 13817 117.546
100.622 12259 110.72
100.74 10920 104.499
100.857 10221 101.099
100.975 10378 101.872
101.092 11314 106.367
101.209 13189 114.843
101.327 15360 123.935
101.444 17701 133.045
101.561 19513 139.689
101.679 20453 143.014
101.796 20448 142.997
101.913 20503 143.189
102.03 20340 142.618
102.148 19862 140.933
102.265 20199 142.123
102.382 19884 141.011
102.499 20152 141.958
102.616 20862 144.437
102.733 20820 144.291
102.851 20754 144.062
102.968 21081 145.193
103.085 21026 145.003
103.202 20617 143.586
103.319 20268 142.366
103.436 19968 141.308
103.552 19891 141.035
103.669 19506 139.664
103.786 18554 136.213
103.903 16992 130.353
104.02 15207 123.317
104.137 13415 115.823
104.253 11979 109.449
104.37 10798 103.913
104.487 10525 102.591
104.603 10940 104.594
104.72 11608 107.74
104.836 13053 114.25
104.953 14439 120.162
105.069 15223 123.382
105.186 16128 126.996
105.302 16190 127.24
105.418 15803 125.71
105.535 15381 124.02
105.651 14238 119.323
105.767 13172 114.769
105.883 12090 109.955
105.999 11003 104.895
106.115 0 1
106.231 0 1
106.347 0 1
106.463 0 1
106.579 0 1
106.694 0 1
106.81 0 1
106.926 0 1
107.041 0 1
107.157 0 1
109.576 0 1
109.692 0 1
109.807 0 1
109.923 0 1
110.039 0 1
110.155 0 1
110.27 0 1
110.386 0 1
110.502 0 1
110.618 11909 109.128
110.735 12826 113.252
110.851 13345 115.521
110.967 14067 118.604
111.083 15102 122.89
111.199 16170 127.161
111.316 17279 131.45
111.432 17842 133.574
111.549 18450 135.831
111.665 18543 136.173
111.782 18450 135.831
111.898 18752 136.938
112.015 18373 135.547
112.132 18106 134.559
112.248 18032 134.283
112.365 18443 135.805
112.482 17674 132.944
112.599 15718 125.371
112.716 13893 117.869
112.832 12232 110.598
112.949 10988 104.824
113.066 9731 98.6458
113.183 9801 99
113.3 9875 99.373
113.417 10648 103.189
113.534 12683 112.619
113.652 15345 123.875
113.769 16807 129.642
113.886 17849 133.6
114.003 18761 136.971
114.12 18644 136.543
114.238 18424 135.735
114.355 17485 132.231
114.472 17344 131.697
114.589 17520 132.363
114.707 17980 134.09
114.824 18411 135.687
114.942 18531 136.129
115.059 18602 136.389
115.176 18870 137.368
115.294 18516 136.074
115.411 17999 134.16
115.529 17689 133
115.646 17410 131.947
115.764 17262 131.385
115.881 17153 130.969
115.999 16842 129.777
116.116 16252 127.483
116.234 14593 120.801
116.351 12792 113.102
116.469 11590 107.657
116.586 10255 101.267
116.704 9760 98.7927
116.821 9745 98.7168
116.939 9716 98.5698
117.056 10980 104.785
117.174 12987 113.961
117.291 14721 121.33
117.409 15899 126.091
117.526 16917 130.065
117.644 17360 131.757
117.761 17234 131.278
117.879 17109 130.801
117.996 16319 127.746
118.114 16320 127.75
118.231 16426 128.164
118.349 17188 131.103
118.466 17049 130.572
118.584 17303 131.541
118.701 17243 131.313
118.819 17005 130.403
118.936 16866 129.869
119.053 16550 128.647
119.171 15994 126.467
119.288 16082 126.815
119.405 15505 124.519
119.523 15732 125.427
119.64 15322 123.782
119.757 14953 122.282
119.875 13953 118.123
119.992 12235 110.612
120.109 11068 105.205
120.226 10268 101.331
120.343 9433 97.1236
120.46 9137 95.5877
120.578 9282 96.3431
120.695 9758 98.7826
120.812 11000 104.881
120.929 12413 111.414
121.046 13431 115.892
121.163 13842 117.652
121.279 14288 119.532
121.396 14179 119.076
121.513 13840 117.644
121.63 13487 116.134
121.747 12777 113.035
121.863 12782 113.058
121.98 12848 113.349
122.097 13038 114.184
122.213 12606 112.276
122.33 12566 112.098
122.446 12125 110.114
122.563 11546 107.452
122.679 10881 104.312
122.795 10512 102.528
122.912 9785 98.9192
123.028 8894 94.308
123.144 8312 91.1702
123.26 7909 88.9326
123.377 0 1
123.493 0 1
123.609 0 1
123.725 0 1
123.84 0 1
123.956 0 1
124.072 0 1
124.188 0 1
124.303 0 1
124.419 0 1
126.852 0 1
126.968 0 1
127.083 0 1
127.199 0 1
127.315 0 1
127.431 0 1
127.547 0 1
127.663 0 1
127.779 0 1
127.895 0 1
128.011 0 1
128.127 0 1
128.243 0 1
128.359 14833 121.791
128.476 15200 123.288
128.592 15618 124.972
128.708 15652 125.108
128.825 15692 125.268
128.941 15081 122.805
129.058 13875 117.792
129.174 12647 112.459
129.291 12028 109.672
129.408 11414 106.836
129.524 10903 104.417
129.641 10998 104.871
129.758 10885 104.331
129.875 12186 110.39
129.992 13521 116.28
130.108 14537 120.569
130.225 15593 124.872
130.342 16346 127.851
130.459 15956 126.317
130.576 16663 129.085
130.693 15983 126.424
130.81 15892 126.063
130.928 16073 126.779
131.045 16898 129.992
131.162 16902 130.008
131.279 17261 131.381
131.396 17441 132.064
131.513 17173 131.046
131.631 16814 129.669
131.748 16442 128.226
131.865 16249 127.472
131.983 16180 127.201
132.1 15949 126.289
132.217 16034 126.625
132.335 15961 126.337
132.452 15619 124.976
132.57 14664 121.095
132.687 13505 116.211
132.804 13024 114.123
132.922 12113 110.059
133.039 11558 107.508
133.157 11298 106.292
133.274 11332 106.452
133.392 11574 107.583
133.509 12632 112.392
133.627 13793 117.444
133.744 14499 120.412
133.862 15459 124.334
133.979 15989 126.448
134.097 15769 125.575
134.214 15717 125.367
134.332 15307 123.721
134.449 15760 125.539
134.567 16251 127.479
134.684 16045 126.669
134.802 16541 128.612
134.919 16666 129.097
135.037 16506 128.476
135.154 16542 128.616
135.272 16126 126.988
135.389 16113 126.937
135.507 15630 125.02
135.624 15698 125.292
135.742 15465 124.358
135.859 15443 124.27
135.977 15564 124.756
136.094 14967 122.34
136.211 14311 119.629
136.329 13640 116.79
136.446 12704 112.712
136.564 12083 109.923
136.681 11895 109.064
136.798 11540 107.424
136.915 11414 106.836
137.033 11636 107.87
137.15 12605 112.272
137.267 13138 114.621
137.384 14002 118.33
137.502 14592 120.797
137.619 15019 122.552
137.736 15177 123.195
137.853 14421 120.087
137.97 14622 120.921
138.087 14635 120.975
138.204 15221 123.373
138.321 15175 123.187
138.438 15275 123.592
138.555 15210 123.329
138.672 14617 120.901
138.788 14400 120
138.905 13768 117.337
139.022 13364 115.603
139.139 12581 112.165
139.255 12057 109.804
139.372 11791 108.586
139.488 11159 105.636
139.605 10863 104.226
139.721 10312 101.548
139.838 9441 97.1648
139.954 8598 92.7254
140.071 7685 87.6641
140.187 7049 83.9583
140.303 6376 79.8499
140.419 5869 76.6094
140.535 5345 73.1095
140.652 5007 70.7602
140.768 0 1
140.884 0 1
141 0 1
141.115 0 1
141.231 0 1
141.347 0 1
141.463 0 1
141.578 0 1
141.694 0 1
144.104 0 1
144.219 0 1
144.335 0 1
144.45 0 1
144.566 0 1
144.682 0 1
144.798 0 1
144.914 0 1
145.03 0 1
145.146 9185 95.8384
145.262 9370 96.7988
145.378 9440 97.1597
145.494 9299 96.4313
145.61 9233 96.0885
145.726 8917 94.4299
145.842 9042 95.0894
145.959 9420 97.0567
146.075 9615 98.0561
146.192 10062 100.31
146.308 10394 101.951
146.425 10654 103.218
146.541 10782 103.836
146.658 10535 102.64
146.774 10462 102.284
146.891 10600 102.956
147.008 10965 104.714
147.125 10956 104.671
147.241 11483 107.159
147.358 11459 107.047
147.475 11417 106.85
147.592 11364 106.602
147.709 11272 106.17
147.826 10902 104.413
147.943 10963 104.704
148.06 10800 103.923
148.177 10837 104.101
148.294 10778 103.817
148.411 10951 104.647
148.528 10790 103.875
148.645 10862 104.221
148.762 10604 102.976
148.88 10229 101.139
148.997 10392 101.941
149.114 9904 99.5188
149.231 9734 98.661
149.349 9662 98.2955
149.466 9157 95.6922
149.583 9263 96.2445
149.701 9150 95.6556
149.818 9622 98.0918
149.935 9942 99.7096
150.053 10060 100.3
150.17 10326 101.617
150.287 10333 101.651
150.405 10176 100.876
150.522 10234 101.163
150.64 10252 101.252
150.757 10836 104.096
150.875 10885 104.331
150.992 10950 104.642
151.11 11178 105.726
151.227 11019 104.971
151.344 10869 104.254
151.462 10848 104.154
151.579 10421 102.083
151.697 10441 102.181
151.814 10253 101.257
151.932 10432 102.137
152.049 10501 102.474
152.167 10308 101.528
152.284 10391 101.936
152.402 10194 100.965
152.519 10110 100.548
152.636 9850 99.2472
152.754 9637 98.1682
152.871 9447 97.1957
152.989 9179 95.8071
153.106 9122 95.5092
153.223 9000 94.8683
153.341 9296 96.4158
153.458 9177 95.7967
153.575 9226 96.0521
153.693 9454 97.2317
153.81 9640 98.1835
153.927 9724 98.6103
154.044 9322 96.5505
154.162 9427 97.0927
154.279 9860 99.2975
154.396 9918 99.5892
154.513 10116 100.578
154.63 10210 101.045
154.747 10309 101.533
154.864 10081 100.404
154.981 9977 99.8849
155.098 9730 98.6408
155.215 9699 98.4835
155.332 9657 98.27
155.449 9468 97.3036
155.566 9183 95.828
155.683 9332 96.6023
155.8 9154 95.6765
155.917 8939 94.5463
156.033 8697 93.2577
156.15 0 1
156.267 0 1
156.383 0 1
156.5 0 1
156.617 0 1
156.733 0 1
156.85 0 1
156.966 0 1
157.082 0 1
157.199 0 1
157.315 0 1
157.431 0 1
157.547 0 1
157.664 0 1
157.78 0 1
157.896 0 1
158.012 0 1
158.128 0 1
158.244 0 1
158.359 0 1
158.475 0 1
158.591 0 1
158.706 0 1
