
6.15755 0 1
6.2731 0 1
6.3887 0 1
6.50437 0 1
6.62009 0 1
6.73587 0 1
6.8517 0 1
6.96759 0 1
7.08353 0 1
7.19952 0 1
7.31557 0 1
7.43166 0 1
7.54781 0 1
7.664 0 1
7.78024 0 1
7.89653 0 1
8.01286 0 1
8.12924 0 1
8.24567 0 1
8.36213 0 1
8.47864 0 1
8.59519 0 1
8.71178 0 1
8.82841 0 1
8.94508 0 1
9.06179 0 1
9.17853 0 1
9.29531 0 1
9.41212 0 1
9.52897 0 1
9.64584 0 1
9.76276 0 1
9.8797 0 1
9.99667 0 1
10.1137 0 1
10.2307 0 1
10.3478 0 1
10.4648 0 1
10.5819 0 1
10.6991 0 1
10.8162 0 1
10.9334 0 1
11.0506 0 1
11.1678 0 1
11.285 0 1
11.4023 0 1
11.5196 0 1
11.6369 0 1
11.7542 0 1
11.8715 0 1
11.9888 0 1
12.1062 0 1
12.2235 0 1
12.3409 0 1
12.4582 0 1
12.5756 0 1
12.693 0 1
12.8104 0 1
12.9278 0 1
13.0452 0 1
13.1626 0 1
13.28 0 1
13.3974 0 1
13.5149 0 1
13.6323 0 1
13.7497 0 1
13.8671 0 1
13.9845 0 1
14.1019 0 1
14.2193 0 1
14.3367 0 1
14.4541 0 1
14.5714 0 1
14.6888 0 1
14.8062 0 1
14.9235 0 1
15.0408 8093 89.9611
15.1581 8568 92.5635
15.2755 8847 94.0585
15.3927 9084 95.31
15.51 8933 94.5145
15.6273 8812 93.8723
15.7445 8616 92.8224
15.8617 8557 92.5041
15.9789 8600 92.7362
16.0961 8280 90.9945
16.2132 7987 89.37
16.3304 8039 89.6605
16.4475 7894 88.8482
16.5646 7646 87.4414
16.6816 7769 88.1419
16.7986 7454 86.3366
16.9156 7403 86.0407
17.0326 7241 85.0941
17.1496 7031 83.8511
17.2665 6885 82.9759
17.3833 6935 83.2766
17.5002 6905 83.0963
17.617 6975 83.5165
17.7338 7141 84.5044
17.8505 7418 86.1278
17.9672 7547 86.8735
18.0839 7720 87.8635
18.2005 7809 88.3685
18.3171 7916 88.9719
18.4337 8068 89.822
18.5502 8405 91.6788
18.6666 8288 91.0385
18.7831 8306 91.1373
18.8994 8280 90.9945
19.0158 8096 89.9778
19.1321 7813 88.3912
19.2483 7352 85.7438
19.3645 7064 84.0476
19.4806 6917 83.1685
19.5967 6521 80.7527
19.7128 5877 76.6616
19.8288 5645 75.1332
19.9447 4937 70.2638
20.0606 0 1
20.1764 0 1
20.2922 0 1
20.4079 0 1
20.5236 0 1
20.6392 0 1
20.7548 0 1
20.8702 0 1
23.3078 0 1
23.4233 0 1
23.539 0 1
23.6547 0 1
23.7704 0 1
23.8862 0 1
24.0021 0 1
24.118 0 1
24.234 0 1
24.35 0 1
24.4661 3594 59.95
24.5822 3950 62.849
24.6984 4440 66.6333
24.8146 5059 71.1266
24.9309 5556 74.5386
25.0472 6306 79.4103
25.1636 6696 81.8291
25.28 7146 84.534
25.3965 7506 86.6372
25.513 7899 88.8763
25.6296 8111 90.0611
25.7462 8163 90.3493
25.8628 8315 91.1866
25.9795 8231 90.7249
26.0962 8218 90.6532
26.213 8278 90.9835
26.3298 8244 90.7965
26.4466 8105 90.0278
26.5635 8327 91.2524
26.6804 8292 91.0604
26.7973 8496 92.1737
26.9143 8394 91.6188
27.0313 8390 91.5969
27.1483 8409 91.7006
27.2653 8430 91.815
27.3824 8864 94.1488
27.4996 8866 94.1594
27.6167 8588 92.6715
27.7339 8631 92.9032
27.8511 8421 91.766
27.9683 8350 91.3783
28.0855 8281 91
28.2028 8231 90.7249
28.3201 8238 90.7634
28.4374 8131 90.1721
28.5547 8205 90.5815
28.6721 8506 92.228
28.7894 8276 90.9725
28.9068 8196 90.5318
29.0242 8335 91.2962
29.1416 8301 91.1098
29.259 8200 90.5539
29.3764 8089 89.9389
29.4939 7906 88.9157
29.6113 7870 88.713
29.7288 8028 89.5991
29.8463 8091 89.95
29.9638 8184 90.4655
30.0812 8333 91.2853
30.1987 8418 91.7497
30.3162 8420 91.7606
30.4337 8260 90.8845
30.5512 8408 91.6951
30.6687 8337 91.3072
30.7862 8697 93.2577
30.9037 8808 93.8509
31.0212 8849 94.0691
31.1387 9084 95.31
31.2562 8788 93.7443
31.3737 8641 92.957
31.4912 8649 93
31.6087 8457 91.9619
31.7262 8350 91.3783
31.8436 8320 91.214
31.9611 8687 93.2041
32.0785 8608 92.7793
32.1959 8482 92.0978
32.3134 8519 92.2984
32.4308 8579 92.6229
32.5482 8541 92.4175
32.6655 8450 91.9239
32.7829 8306 91.1373
32.9002 8258 90.8735
33.0176 8101 90.0056
33.1349 8112 90.0666
33.2522 8101 90.0056
33.3694 8084 89.9111
33.4867 8338 91.3126
33.6039 8328 91.2579
33.7211 8503 92.2117
33.8383 8630 92.8978
33.9554 8689 93.2148
34.0725 8560 92.5203
34.1896 8502 92.2063
34.3067 8544 92.4338
34.4237 8677 93.1504
34.5407 8769 93.6429
34.6577 9209 95.9635
34.7746 9196 95.8958
34.8915 9069 95.2313
35.0084 8808 93.8509
35.1252 8770 93.6483
35.242 8759 93.5895
35.3587 8701 93.2792
35.4755 8593 92.6984
35.5921 8713 93.3435
35.7088 8557 92.5041
35.8254 8491 92.1466
35.9419 8471 92.038
36.0584 8515 92.2768
36.1749 8585 92.6553
36.2913 8087 89.9277
36.4077 7801 88.3233
36.524 7565 86.977
36.6403 6913 83.1445
36.7565 6442 80.2621
36.8727 5956 77.1751
36.9889 5434 73.7157
37.1049 5150 71.7635
37.221 0 1
37.3369 0 1
37.4529 0 1
37.5687 0 1
37.6845 0 1
37.8003 0 1
37.916 0 1
38.0316 0 1
38.1472 0 1
40.5851 0 1
40.7008 0 1
40.8164 0 1
40.9322 0 1
41.048 0 1
41.1639 0 1
41.2798 0 1
41.3958 0 1
41.5118 0 1
41.6279 0 1
41.744 4481 66.9403
41.8602 5152 71.7774
41.9765 6280 79.2465
42.0928 6800 82.4621
42.2091 7385 85.936
42.3255 8022 89.5656
42.4419 8283 91.011
42.5584 8683 93.1826
42.675 9243 96.1405
42.7915 9170 95.7601
42.9081 9119 95.4935
43.0248 9030 95.0263
43.1415 9579 97.8724
43.2582 10183 100.911
43.375 10650 103.199
43.4918 11162 105.65
43.6087 11484 107.163
43.7256 11553 107.485
43.8425 11799 108.623
43.9595 11702 108.176
44.0765 11999 109.54
44.1935 12225 110.567
44.3106 12448 111.571
44.4277 12561 112.076
44.5448 12464 111.642
44.6619 12410 111.4
44.7791 12618 112.33
44.8963 12768 112.996
45.0136 12578 112.152
45.1308 12495 111.781
45.2481 12519 111.888
45.3654 12437 111.521
45.4827 12064 109.836
45.6001 12289 110.856
45.7174 11961 109.366
45.8348 11687 108.106
45.9522 11406 106.799
46.0697 11309 106.344
46.1871 11221 105.929
46.3046 10809 103.966
46.422 10225 101.119
46.5395 9934 99.6695
46.657 10157 100.782
46.7745 10550 102.713
46.892 10674 103.315
47.0096 11226 105.953
47.1271 11183 105.75
47.2446 11286 106.236
47.3622 11062 105.176
47.4797 10816 104
47.5973 10569 102.806
47.7149 10513 102.533
47.8324 10170 100.846
47.95 9969 99.8449
48.0675 9867 99.3328
48.1851 9737 98.6762
48.3027 9467 97.2985
48.4202 9652 98.2446
48.5378 9444 97.1802
48.6554 9177 95.7967
48.7729 9116 95.4777
48.8904 9327 96.5764
49.008 9146 95.6347
49.1255 9012 94.9316
49.243 8977 94.747
49.3605 8964 94.6784
49.478 8869 94.1754
49.5955 8752 93.5521
49.713 8653 93.0215
49.8304 8658 93.0484
49.9479 8523 92.3201
50.0653 8566 92.5527
50.1827 8922 94.4563
50.3001 9343 96.6592
50.4175 9595 97.9541
50.5348 9826 99.1262
50.6521 10098 100.489
50.7694 10424 102.098
50.8867 10277 101.376
51.004 10320 101.587
51.1212 10332 101.646
51.2384 10355 101.76
51.3556 10280 101.39
51.4727 10111 100.553
51.5899 10127 100.633
51.707 9854 99.2673
51.824 9968 99.8399
51.9411 9712 98.5495
52.0581 9692 98.448
52.175 9510 97.5192
52.2919 9429 97.103
52.4088 9442 97.17
52.5257 9214 95.9896
52.6425 9185 95.8384
52.7593 9089 95.3362
52.876 8944 94.5727
52.9927 8895 94.3133
53.1094 8998 94.8578
53.226 8801 93.8136
53.3426 8454 91.9456
53.4591 8049 89.7162
53.5756 7728 87.909
53.692 7558 86.9368
53.8084 7347 85.7146
53.9248 6836 82.6801
54.0411 6397 79.9812
54.1573 5935 77.039
54.2735 0 1
54.3896 0 1
54.5057 0 1
54.6217 0 1
54.7377 0 1
54.8537 0 1
54.9695 0 1
55.0853 0 1
55.2011 0 1
55.3168 0 1
55.4324 0 1
57.824 0 1
57.9396 0 1
58.0553 0 1
58.1711 0 1
58.2869 0 1
58.4028 0 1
58.5187 0 1
58.6347 0 1
58.7508 0 1
58.8669 0 1
58.983 7947 89.1459
59.0992 9058 95.1735
59.2155 10280 101.39
59.3318 11028 105.014
59.4482 11872 108.959
59.5646 12821 113.23
59.681 13254 115.126
59.7975 13491 116.151
59.9141 13473 116.073
60.0306 13529 116.314
60.1473 13230 115.022
60.2639 13441 115.935
60.3807 13398 115.75
60.4974 13201 114.896
60.6142 13238 115.057
60.731 13159 114.713
60.8479 12861 113.406
60.9648 12761 112.965
61.0818 12857 113.389
61.1987 12862 113.411
61.3158 13001 114.022
61.4328 12862 113.411
61.5499 12790 113.093
61.667 13071 114.328
61.7841 12875 113.468
61.9013 12710 112.739
62.0185 12470 111.669
62.1357 12580 112.161
62.253 12832 113.278
62.3702 13274 115.213
62.4875 13700 117.047
62.6049 14096 118.727
62.7222 14725 121.347
62.8396 15145 123.065
62.9569 15709 125.336
63.0743 15521 124.583
63.1918 15735 125.439
63.3092 15592 124.868
63.4267 15163 123.138
63.5441 14702 121.252
63.6616 14436 120.15
63.7791 14252 119.382
63.8966 14018 118.398
64.0142 14175 119.059
64.1317 13711 117.094
64.2492 13648 116.825
64.3668 13292 115.291
64.4843 13159 114.713
64.6019 12839 113.309
64.7195 13035 114.171
64.837 13195 114.869
64.9546 13306 115.352
65.0722 13213 114.948
65.1898 13209 114.93
65.3074 13066 114.307
65.4249 12916 113.649
65.5425 12878 113.481
65.6601 12516 111.875
65.7777 12907 113.609
65.8952 12993 113.987
66.0128 13777 117.375
66.1304 14254 119.39
66.2479 14708 121.277
66.3655 15053 122.691
66.483 15856 125.921
66.6005 16069 126.764
66.718 16323 127.761
66.8355 16088 126.838
66.953 15966 126.357
67.0705 15601 124.904
67.1879 15094 122.858
67.3054 14612 120.88
67.4228 14235 119.311
67.5402 14108 118.777
67.6576 13670 116.919
67.7749 13974 118.212
67.8923 13424 115.862
68.0096 13425 115.866
68.1269 13400 115.758
68.2442 13311 115.373
68.3614 13698 117.038
68.4787 13504 116.207
68.5958 13442 115.94
68.713 13536 116.344
68.8302 13589 116.572
68.9473 13251 115.113
69.0643 12644 112.446
69.1814 12422 111.454
69.2984 12153 110.241
69.4154 12310 110.95
69.5323 12688 112.641
69.6492 13068 114.315
69.7661 14029 118.444
69.8829 14257 119.403
69.9997 14336 119.733
70.1165 14209 119.202
70.2332 14018 118.398
70.3499 13647 116.82
70.4665 12736 112.854
70.5831 11961 109.366
70.6996 10607 102.99
70.8161 9934 99.6695
70.9326 8984 94.784
71.049 8153 90.294
71.1653 7758 88.0795
71.2817 7198 84.841
71.3979 6692 81.8046
71.5141 6408 80.05
71.6303 5920 76.9415
71.7464 5216 72.2219
71.8624 0 1
71.9784 0 1
72.0944 0 1
72.2102 0 1
72.3261 0 1
72.4418 0 1
72.5575 0 1
72.6732 0 1
75.1054 0 1
75.2209 0 1
75.3365 0 1
75.4521 0 1
75.5678 0 1
75.6835 0 1
75.7993 0 1
75.9151 0 1
76.031 0 1
76.147 11137 105.532
76.263 11768 108.48
76.3791 12017 109.622
76.4952 12241 110.639
76.6113 12419 111.441
76.7276 12282 110.824
76.8438 12522 111.902
76.9601 12684 112.623
77.0765 12508 111.839
77.1929 12834 113.287
77.3093 13424 115.862
77.4258 13501 116.194
77.5423 13509 116.228
77.6589 13516 116.258
77.7755 13610 116.662
77.8921 13466 116.043
78.0088 12622 112.348
78.1256 12207 110.485
78.2423 12051 109.777
78.3591 12087 109.941
78.4759 12196 110.436
78.5928 13366 115.611
78.7097 14236 119.315
78.8266 14775 121.552
78.9436 15266 123.556
79.0606 15500 124.499
79.1776 15813 125.75
79.2946 16704 129.244
79.4117 16921 130.081
79.5288 16705 129.248
79.6459 16752 129.43
79.7631 16443 128.23
79.8802 15566 124.764
79.9974 14649 121.033
80.1147 14758 121.483
80.2319 14626 120.938
80.3491 14632 120.963
80.4664 14646 121.021
80.5837 14645 121.017
80.701 14619 120.909
80.8183 14518 120.491
80.9357 14546 120.607
81.053 15032 122.605
81.1704 15508 124.531
81.2877 15452 124.306
81.4051 15113 122.935
81.5225 14950 122.27
81.6399 14923 122.16
81.7573 13820 117.558
81.8747 13330 115.456
81.9922 13086 114.394
82.1096 13491 116.151
82.227 14474 120.308
82.3444 15742 125.467
82.4619 16638 128.988
82.5793 17057 130.602
82.6967 17220 131.225
82.8142 17916 133.851
82.9316 18275 135.185
83.049 18488 135.971
83.1664 18662 136.609
83.2838 18186 134.855
83.4012 17688 132.996
83.5186 17073 130.664
83.636 16332 127.797
83.7534 16333 127.801
83.8708 15793 125.67
83.9881 16349 127.863
84.1055 16407 128.09
84.2228 16313 127.722
84.3401 15986 126.436
84.4575 16322 127.758
84.5747 17107 130.794
84.692 17308 131.56
84.8093 17556 132.499
84.9265 17120 130.843
85.0437 17082 130.698
85.1609 16448 128.25
85.2781 15731 125.423
85.3952 14933 122.201
85.5123 14448 120.2
85.6294 14037 118.478
85.7465 15038 122.63
85.8636 16270 127.554
85.9806 17196 131.134
86.0976 17968 134.045
86.2145 18570 136.272
86.3315 18768 136.996
86.4484 19435 139.409
86.5652 19618 140.064
86.682 19767 140.595
86.7988 19441 139.431
86.9156 19326 139.018
87.0323 18489 135.974
87.149 18083 134.473
87.2657 17595 132.646
87.3823 17067 130.641
87.4988 16327 127.777
87.6154 15767 125.567
87.7318 14968 122.344
87.8483 14195 119.143
87.9647 13545 116.383
88.081 12731 112.832
88.1973 11991 109.503
88.3136 11411 106.822
88.4298 10638 103.141
88.546 9685 98.4124
88.6621 8980 94.7629
88.7781 7971 89.2805
88.8942 0 1
89.0101 0 1
89.126 0 1
89.2419 0 1
89.3577 0 1
89.4734 0 1
89.5891 0 1
89.7047 0 1
89.8203 0 1
89.9358 0 1
92.3269 0 1
92.4424 0 1
92.558 0 1
92.6736 0 1
92.7893 0 1
92.905 0 1
93.0208 0 1
93.1366 0 1
93.2525 0 1
93.3685 0 1
93.4845 0 1
93.6005 15481 124.423
93.7167 17402 131.917
93.8328 18829 137.219
93.949 19684 140.3
94.0653 19837 140.844
94.1816 20053 141.609
94.2979 19963 141.29
94.4143 19345 139.086
94.5307 18298 135.27
94.6472 17366 131.78
94.7637 17201 131.153
94.8803 17547 132.465
94.9969 18721 136.825
95.1135 19903 141.078
95.2302 20442 142.976
95.3469 21953 148.165
95.4637 22457 149.857
95.5805 22957 151.516
95.6973 23676 153.87
95.8142 23856 154.454
95.9311 23855 154.451
96.048 23707 153.971
96.1649 23612 153.662
96.2819 22693 150.642
96.3989 22057 148.516
96.516 21974 148.236
96.633 21407 146.311
96.7501 21347 146.106
96.8673 21646 147.126
96.9844 21510 146.663
97.1016 21886 147.939
97.2188 21714 147.357
97.336 22066 148.546
97.4532 22450 149.833
97.5704 23239 152.443
97.6877 23367 152.863
97.805 23207 152.338
97.9223 22461 149.87
98.0396 21595 146.952
98.1569 20225 142.215
98.2743 19356 139.126
98.3916 18399 135.643
98.509 18579 136.305
98.6264 19755 140.552
98.7438 20948 144.734
98.8612 22071 148.563
98.9786 23264 152.525
99.096 24288 155.846
99.2134 24394 156.186
99.3308 24995 158.098
99.4482 25711 160.346
99.5656 25946 161.078
99.6831 25773 160.54
99.8005 25244 158.884
99.9179 24535 156.637
100.035 23890 154.564
100.153 23376 152.892
100.27 23102 151.993
100.388 23142 152.125
100.505 22790 150.964
100.622 22784 150.944
100.74 22709 150.695
100.857 22805 151.013
100.975 23058 151.849
101.092 23555 153.476
101.209 24276 155.808
101.327 24670 157.067
101.444 23876 154.519
101.561 23136 152.105
101.679 21874 147.899
101.796 20278 142.401
101.913 19429 139.388
102.03 19457 139.488
102.148 20006 141.443
102.265 21092 145.231
102.382 22900 151.327
102.499 24016 154.971
102.616 24987 158.073
102.733 25567 159.897
102.851 26190 161.833
102.968 26525 162.865
103.085 26482 162.733
103.202 26655 163.264
103.319 26217 161.917
103.436 25325 159.138
103.552 24896 157.785
103.669 23992 154.894
103.786 23627 153.711
103.903 23117 152.043
104.02 23170 152.217
104.137 23013 151.7
104.253 22996 151.644
104.37 23253 152.489
104.487 23161 152.187
104.603 23131 152.089
104.72 23187 152.273
104.836 22385 149.616
104.953 21096 145.245
105.069 19193 138.539
105.186 17347 131.708
105.302 15774 125.595
105.418 14398 119.992
105.535 12912 113.631
105.651 11835 108.789
105.767 11609 107.745
105.883 11141 105.551
105.999 11094 105.328
106.115 0 1
106.231 0 1
106.347 0 1
106.463 0 1
106.579 0 1
106.694 0 1
106.81 0 1
106.926 0 1
107.041 0 1
107.157 0 1
109.576 0 1
109.692 0 1
109.807 0 1
109.923 0 1
110.039 0 1
110.155 0 1
110.27 0 1
110.386 0 1
110.502 0 1
110.618 10605 102.981
110.735 12972 113.895
110.851 15179 123.203
110.967 17208 131.179
111.083 19707 140.382
111.199 20929 144.669
111.316 22205 149.013
111.432 22349 149.496
111.549 22660 150.532
111.665 22915 151.377
111.782 23243 152.457
111.898 22881 151.265
112.015 22835 151.113
112.132 22317 149.389
112.248 22149 148.825
112.365 21520 146.697
112.482 21150 145.43
112.599 21587 146.925
112.716 20956 144.762
112.832 20821 144.295
112.949 20741 144.017
113.066 20813 144.267
113.183 21286 145.897
113.3 21992 148.297
113.417 21951 148.159
113.534 21429 146.386
113.652 20870 144.465
113.769 19995 141.404
113.886 18939 137.619
114.003 17841 133.57
114.12 17367 131.784
114.238 17807 133.443
114.355 18686 136.697
114.472 19365 139.158
114.589 22406 149.686
114.707 22883 151.271
114.824 23364 152.853
114.942 23347 152.797
115.059 23638 153.747
115.176 23808 154.298
115.294 23437 153.091
115.411 23305 152.66
115.529 23083 151.931
115.646 22183 148.94
115.764 21667 147.197
115.881 21441 146.427
115.999 20936 144.693
116.116 20699 143.871
116.234 20662 143.743
116.351 20411 142.867
116.469 20256 142.324
116.586 19887 141.021
116.704 20179 142.053
116.821 20909 144.599
116.939 21345 146.099
117.056 20733 143.99
117.174 20496 143.164
117.291 19734 140.478
117.409 18682 136.682
117.526 17847 133.593
117.644 16979 130.303
117.761 16703 129.24
117.879 17504 132.303
117.996 18324 135.366
118.114 20139 141.912
118.231 21639 147.102
118.349 21908 148.014
118.466 22256 149.184
118.584 22125 148.745
118.701 22358 149.526
118.819 22168 148.889
118.936 21831 147.753
119.053 21716 147.363
119.171 21374 146.198
119.288 20885 144.516
119.405 20286 142.429
119.523 19431 139.395
119.64 19484 139.585
119.757 18882 137.412
119.875 18650 136.565
119.992 18421 135.724
120.109 18378 135.565
120.226 18244 135.07
120.343 18892 137.448
120.46 19000 137.84
120.578 19179 138.488
120.695 18926 137.572
120.812 18631 136.495
120.929 18000 134.164
121.046 17094 130.744
121.163 16011 126.535
121.279 15279 123.608
121.396 14429 120.121
121.513 14330 119.708
121.63 14608 120.864
121.747 15175 123.187
121.863 15697 125.288
121.98 16314 127.726
122.097 15863 125.948
122.213 15326 123.798
122.33 14427 120.112
122.446 13941 118.072
122.563 12886 113.517
122.679 12163 110.286
122.795 11596 107.685
122.912 10828 104.058
123.028 9900 99.4987
123.144 9237 96.1093
123.26 8460 91.9783
123.377 0 1
123.493 0 1
123.609 0 1
123.725 0 1
123.84 0 1
123.956 0 1
124.072 0 1
124.188 0 1
124.303 0 1
124.419 0 1
126.852 0 1
126.968 0 1
127.083 0 1
127.199 0 1
127.315 0 1
127.431 0 1
127.547 0 1
127.663 0 1
127.779 0 1
127.895 0 1
128.011 0 1
128.127 0 1
128.243 0 1
128.359 19255 138.762
128.476 19368 139.169
128.592 19691 140.325
128.708 18921 137.554
128.825 18868 137.361
128.941 18512 136.059
129.058 18378 135.565
129.174 18333 135.399
129.291 18385 135.591
129.408 18943 137.634
129.524 18897 137.466
129.641 19116 138.261
129.758 18789 137.073
129.875 18649 136.561
129.992 18332 135.396
130.108 17927 133.892
130.225 16846 129.792
130.342 16204 127.295
130.459 15635 125.04
130.576 15638 125.052
130.693 16385 128.004
130.81 17271 131.419
130.928 18579 136.305
131.045 19538 139.778
131.162 19655 140.196
131.279 19780 140.641
131.396 20172 142.028
131.513 20260 142.338
131.631 19885 141.014
131.748 19738 140.492
131.865 19436 139.413
131.983 19427 139.381
132.1 19125 138.293
132.217 19200 138.564
132.335 18581 136.312
132.452 18493 135.989
132.57 18343 135.436
132.687 18791 137.08
132.804 18368 135.529
132.922 18277 135.192
133.039 18402 135.654
133.157 18662 136.609
133.274 18681 136.678
133.392 18799 137.109
133.509 18494 135.993
133.627 18392 135.617
133.744 18027 134.265
133.862 17046 130.56
133.979 16484 128.39
134.097 16082 126.815
134.214 16594 128.818
134.332 17214 131.202
134.449 18685 136.693
134.567 19851 140.894
134.684 20669 143.767
134.802 20970 144.81
134.919 21257 145.798
135.037 21071 145.159
135.154 21084 145.203
135.272 20719 143.941
135.389 20966 144.796
135.507 21202 145.609
135.624 21207 145.626
135.742 20835 144.343
135.859 20951 144.745
135.977 20839 144.357
136.094 20650 143.701
136.211 20644 143.68
136.329 20632 143.638
136.446 20732 143.986
136.564 20483 143.119
136.681 20867 144.454
136.798 20387 142.783
136.915 20610 143.562
137.033 20737 144.003
137.15 20295 142.461
137.267 20232 142.239
137.384 19267 138.806
137.502 18152 134.729
137.619 17346 131.704
137.736 17289 131.488
137.853 16692 129.198
137.97 18082 134.469
138.087 18865 137.35
138.204 20216 142.183
138.321 20907 144.593
138.438 20771 144.121
138.555 21101 145.262
138.672 20652 143.708
138.788 19872 140.968
138.905 19209 138.597
139.022 18751 136.934
139.139 17788 133.372
139.255 17004 130.399
139.372 16427 128.168
139.488 15527 124.607
139.605 14202 119.172
139.721 13230 115.022
139.838 12666 112.543
139.954 12084 109.927
140.071 11656 107.963
140.187 11036 105.052
140.303 10087 100.434
140.419 9683 98.4022
140.535 9287 96.3691
140.652 8917 94.4299
140.768 0 1
140.884 0 1
141 0 1
141.115 0 1
141.231 0 1
141.347 0 1
141.463 0 1
141.578 0 1
141.694 0 1
144.104 0 1
144.219 0 1
144.335 0 1
144.45 0 1
144.566 0 1
144.682 0 1
144.798 0 1
144.914 0 1
145.03 0 1
145.146 15060 122.719
145.262 15404 124.113
145.378 15371 123.98
145.494 15474 124.395
145.61 15695 125.28
145.726 15814 125.754
145.842 15732 125.427
145.959 15610 124.94
146.075 15707 125.328
146.192 15311 123.738
146.308 14732 121.375
146.425 13964 118.169
146.541 13551 116.409
146.658 13489 116.142
146.774 13713 117.103
146.891 14548 120.615
147.008 15289 123.649
147.125 15961 126.337
147.241 16390 128.023
147.358 16363 127.918
147.475 16482 128.382
147.592 16294 127.648
147.709 15885 126.036
147.826 16299 127.668
147.943 15971 126.376
148.06 16098 126.878
148.177 16067 126.756
148.294 16139 127.039
148.411 16355 127.887
148.528 16256 127.499
148.645 16020 126.57
148.762 15935 126.234
148.88 16114 126.941
148.997 15995 126.471
149.114 15334 123.831
149.231 15469 124.374
149.349 15787 125.646
149.466 15406 124.121
149.583 15727 125.407
149.701 15185 123.227
149.818 15179 123.203
149.935 15093 122.854
150.053 14470 120.291
150.17 14192 119.13
150.287 13729 117.171
150.405 13578 116.525
150.522 13948 118.102
150.64 14854 121.877
150.757 15470 124.378
150.875 16129 127
150.992 16248 127.468
151.11 16232 127.405
151.227 15972 126.38
151.344 15660 125.14
151.462 15744 125.475
151.579 16136 127.028
151.697 16322 127.758
151.814 16299 127.668
151.932 16378 127.977
152.049 16034 126.625
152.167 15794 125.674
152.284 15926 126.198
152.402 15515 124.559
152.519 15289 123.649
152.636 15335 123.835
152.754 15264 123.548
152.871 15138 123.037
152.989 15100 122.882
153.106 15217 123.357
153.223 15459 124.334
153.341 14923 122.16
153.458 14643 121.008
153.575 14457 120.237
153.693 13820 117.558
153.81 13300 115.326
153.927 13137 114.617
154.044 13495 116.168
154.162 14334 119.725
154.279 14714 121.301
154.396 15257 123.519
154.513 15678 125.212
154.63 15948 126.285
154.747 15699 125.296
154.864 15727 125.407
154.981 15243 123.463
155.098 15245 123.471
155.215 15371 123.98
155.332 15096 122.866
155.449 15365 123.956
155.566 15054 122.695
155.683 14615 120.893
155.8 14356 119.817
155.917 14153 118.966
156.033 13403 115.771
156.15 0 1
156.267 0 1
156.383 0 1
156.5 0 1
156.617 0 1
156.733 0 1
156.85 0 1
156.966 0 1
157.082 0 1
157.199 0 1
157.315 0 1
157.431 0 1
157.547 0 1
157.664 0 1
157.78 0 1
157.896 0 1
158.012 0 1
158.128 0 1
158.244 0 1
158.359 0 1
158.475 0 1
158.591 0 1
158.706 0 1
