
6.15755 0 1
6.2731 0 1
6.3887 0 1
6.50437 0 1
6.62009 0 1
6.73587 0 1
6.8517 0 1
6.96759 0 1
7.08353 0 1
7.19952 0 1
7.31557 0 1
7.43166 0 1
7.54781 0 1
7.664 0 1
7.78024 0 1
7.89653 0 1
8.01286 0 1
8.12924 0 1
8.24567 0 1
8.36213 0 1
8.47864 0 1
8.59519 0 1
8.71178 0 1
8.82841 0 1
8.94508 0 1
9.06179 0 1
9.17853 0 1
9.29531 0 1
9.41212 0 1
9.52897 0 1
9.64584 0 1
9.76276 0 1
9.8797 0 1
9.99667 0 1
10.1137 0 1
10.2307 0 1
10.3478 0 1
10.4648 0 1
10.5819 0 1
10.6991 0 1
10.8162 0 1
10.9334 0 1
11.0506 0 1
11.1678 0 1
11.285 0 1
11.4023 0 1
11.5196 0 1
11.6369 0 1
11.7542 0 1
11.8715 0 1
11.9888 0 1
12.1062 0 1
12.2235 0 1
12.3409 0 1
12.4582 0 1
12.5756 0 1
12.693 0 1
12.8104 0 1
12.9278 0 1
13.0452 0 1
13.1626 0 1
13.28 0 1
13.3974 0 1
13.5149 0 1
13.6323 0 1
13.7497 0 1
13.8671 0 1
13.9845 0 1
14.1019 0 1
14.2193 0 1
14.3367 0 1
14.4541 0 1
14.5714 0 1
14.6888 0 1
14.8062 0 1
14.9235 0 1
15.0408 7949 89.1572
15.1581 8472 92.0435
15.2755 8853 94.0904
15.3927 8971 94.7154
15.51 8959 94.652
15.6273 8971 94.7154
15.7445 8718 93.3702
15.8617 8556 92.4986
15.9789 8498 92.1846
16.0961 8283 91.011
16.2132 8152 90.2884
16.3304 8199 90.5483
16.4475 7817 88.4138
16.5646 7877 88.7525
16.6816 7512 86.6718
16.7986 7540 86.8332
16.9156 7258 85.1939
17.0326 7181 84.7408
17.1496 7025 83.8153
17.2665 7047 83.9464
17.3833 6821 82.5893
17.5002 6900 83.0662
17.617 7050 83.9643
17.7338 7225 85
17.8505 7397 86.0058
17.9672 7554 86.9138
18.0839 7638 87.3957
18.2005 7854 88.6228
18.3171 7854 88.6228
18.4337 8020 89.5545
18.5502 8226 90.6973
18.6666 8234 90.7414
18.7831 8467 92.0163
18.8994 8339 91.3181
19.0158 8074 89.8554
19.1321 7791 88.2666
19.2483 7451 86.3192
19.3645 7121 84.386
19.4806 6654 81.5721
19.5967 6476 80.4736
19.7128 6012 77.5371
19.8288 5677 75.3459
19.9447 4994 70.6682
20.0606 0 1
20.1764 0 1
20.2922 0 1
20.4079 0 1
20.5236 0 1
20.6392 0 1
20.7548 0 1
20.8702 0 1
23.3078 0 1
23.4233 0 1
23.539 0 1
23.6547 0 1
23.7704 0 1
23.8862 0 1
24.0021 0 1
24.118 0 1
24.234 0 1
24.35 0 1
24.4661 3681 60.6712
24.5822 3866 62.1772
24.6984 4403 66.3551
24.8146 5073 71.225
24.9309 5658 75.2197
25.0472 6203 78.7591
25.1636 6742 82.1097
25.28 7247 85.1293
25.3965 7666 87.5557
25.513 7877 88.7525
25.6296 8025 89.5824
25.7462 8155 90.305
25.8628 8347 91.3619
25.9795 8526 92.3363
26.0962 8335 91.2962
26.213 8321 91.2195
26.3298 8294 91.0714
26.4466 8295 91.0769
26.5635 8441 91.8749
26.6804 8381 91.5478
26.7973 8612 92.8009
26.9143 8404 91.6733
27.0313 8442 91.8804
27.1483 8430 91.815
27.2653 8723 93.397
27.3824 8754 93.5628
27.4996 8854 94.0957
27.6167 8752 93.5521
27.7339 8613 92.8062
27.8511 8550 92.4662
27.9683 8218 90.6532
28.0855 8058 89.7664
28.2028 8343 91.34
28.3201 8091 89.95
28.4374 8310 91.1592
28.5547 8382 91.5533
28.6721 8248 90.8185
28.7894 8390 91.5969
28.9068 8380 91.5423
29.0242 8328 91.2579
29.1416 8228 90.7083
29.259 8365 91.4604
29.3764 8199 90.5483
29.4939 7885 88.7975
29.6113 7917 88.9775
29.7288 7939 89.1011
29.8463 8108 90.0444
29.9638 8249 90.824
30.0812 8220 90.6642
30.1987 8491 92.1466
30.3162 8389 91.5915
30.4337 8452 91.9348
30.5512 8305 91.1318
30.6687 8568 92.5635
30.7862 8614 92.8116
30.9037 8908 94.3822
31.0212 9125 95.5249
31.1387 9028 95.0158
31.2562 8921 94.451
31.3737 8833 93.984
31.4912 8614 92.8116
31.6087 8548 92.4554
31.7262 8607 92.7739
31.8436 8506 92.228
31.9611 8423 91.7769
32.0785 8404 91.6733
32.1959 8619 92.8386
32.3134 8997 94.8525
32.4308 8565 92.5473
32.5482 8555 92.4932
32.6655 8443 91.8858
32.7829 8443 91.8858
32.9002 8387 91.5806
33.0176 8275 90.967
33.1349 8318 91.2031
33.2522 8284 91.0165
33.3694 8431 91.8205
33.4867 8198 90.5428
33.6039 8457 91.9619
33.7211 8458 91.9674
33.8383 8575 92.6013
33.9554 8664 93.0806
34.0725 8543 92.4284
34.1896 8511 92.2551
34.3067 8571 92.5797
34.4237 8840 94.0213
34.5407 8929 94.4934
34.6577 9083 95.3048
34.7746 9178 95.8019
34.8915 9148 95.6452
35.0084 8852 94.0851
35.1252 8883 94.2497
35.242 8699 93.2684
35.3587 8592 92.693
35.4755 8653 93.0215
35.5921 8506 92.228
35.7088 8667 93.0967
35.8254 8647 92.9892
35.9419 8598 92.7254
36.0584 8595 92.7092
36.1749 8605 92.7631
36.2913 8180 90.4434
36.4077 7988 89.3756
36.524 7581 87.0689
36.6403 7060 84.0238
36.7565 6616 81.3388
36.8727 5934 77.0325
36.9889 5611 74.9066
37.1049 5227 72.298
37.221 0 1
37.3369 0 1
37.4529 0 1
37.5687 0 1
37.6845 0 1
37.8003 0 1
37.916 0 1
38.0316 0 1
38.1472 0 1
40.5851 0 1
40.7008 0 1
40.8164 0 1
40.9322 0 1
41.048 0 1
41.1639 0 1
41.2798 0 1
41.3958 0 1
41.5118 0 1
41.6279 0 1
41.744 4691 68.4909
41.8602 5454 73.8512
41.9765 6180 78.613
42.0928 6927 83.2286
42.2091 7637 87.3899
42.3255 8054 89.7441
42.4419 8506 92.228
42.5584 9014 94.9421
42.675 9252 96.1873
42.7915 9378 96.8401
42.9081 9221 96.026
43.0248 9323 96.5557
43.1415 9471 97.3191
43.2582 10268 101.331
43.375 10830 104.067
43.4918 11184 105.754
43.6087 11791 108.586
43.7256 11506 107.266
43.8425 11764 108.462
43.9595 12086 109.936
44.0765 12087 109.941
44.1935 12065 109.841
44.3106 12503 111.817
44.4277 12277 110.802
44.5448 12679 112.601
44.6619 12523 111.906
44.7791 12489 111.754
44.8963 12615 112.317
45.0136 12785 113.071
45.1308 12801 113.142
45.2481 12747 112.903
45.3654 12620 112.339
45.4827 12403 111.369
45.6001 12059 109.813
45.7174 11961 109.366
45.8348 11943 109.284
45.9522 11715 108.236
46.0697 11779 108.531
46.1871 11377 106.663
46.3046 10983 104.8
46.422 10518 102.557
46.5395 10198 100.985
46.657 10379 101.877
46.7745 10524 102.587
46.892 10993 104.848
47.0096 11186 105.764
47.1271 11419 106.86
47.2446 11264 106.132
47.3622 10965 104.714
47.4797 10818 104.01
47.5973 10615 103.029
47.7149 10459 102.269
47.8324 10083 100.414
47.95 10131 100.653
48.0675 10156 100.777
48.1851 9834 99.1665
48.3027 9625 98.1071
48.4202 9783 98.909
48.5378 9547 97.7088
48.6554 9338 96.6333
48.7729 9206 95.9479
48.8904 9486 97.3961
49.008 9230 96.0729
49.1255 8998 94.8578
49.243 9083 95.3048
49.3605 8869 94.1754
49.478 8934 94.5198
49.5955 9096 95.373
49.713 8858 94.1169
49.8304 8849 94.0691
49.9479 8513 92.2659
50.0653 8774 93.6696
50.1827 9047 95.1157
50.3001 9283 96.3483
50.4175 9611 98.0357
50.5348 10044 100.22
50.6521 10204 101.015
50.7694 10391 101.936
50.8867 10353 101.75
51.004 10493 102.435
51.1212 10426 102.108
51.2384 10382 101.892
51.3556 10267 101.326
51.4727 10117 100.583
51.5899 10282 101.4
51.707 10140 100.698
51.824 10035 100.175
51.9411 9779 98.8888
52.0581 9620 98.0816
52.175 9755 98.7674
52.2919 9349 96.6902
52.4088 9268 96.2705
52.5257 9529 97.6166
52.6425 9292 96.395
52.7593 9086 95.3205
52.876 8908 94.3822
52.9927 8867 94.1647
53.1094 8893 94.3027
53.226 8760 93.5949
53.3426 8544 92.4338
53.4591 7999 89.4371
53.5756 7817 88.4138
53.692 7557 86.931
53.8084 7161 84.6227
53.9248 6779 82.3347
54.0411 6584 81.1419
54.1573 5921 76.948
54.2735 0 1
54.3896 0 1
54.5057 0 1
54.6217 0 1
54.7377 0 1
54.8537 0 1
54.9695 0 1
55.0853 0 1
55.2011 0 1
55.3168 0 1
55.4324 0 1
57.824 0 1
57.9396 0 1
58.0553 0 1
58.1711 0 1
58.2869 0 1
58.4028 0 1
58.5187 0 1
58.6347 0 1
58.7508 0 1
58.8669 0 1
58.983 8101 90.0056
59.0992 9209 95.9635
59.2155 10168 100.837
59.3318 11049 105.114
59.4482 12091 109.959
59.5646 12476 111.696
59.681 13203 114.904
59.7975 13477 116.09
59.9141 13608 116.653
60.0306 13629 116.743
60.1473 13166 114.743
60.2639 13446 115.957
60.3807 13192 114.856
60.4974 13301 115.33
60.6142 13448 115.966
60.731 13028 114.14
60.8479 13105 114.477
60.9648 12928 113.701
61.0818 12892 113.543
61.1987 12895 113.556
61.3158 12903 113.591
61.4328 13007 114.048
61.5499 12824 113.243
61.667 12853 113.371
61.7841 12755 112.938
61.9013 12639 112.423
62.0185 12495 111.781
62.1357 12525 111.915
62.253 12714 112.756
62.3702 13239 115.061
62.4875 13706 117.073
62.6049 14258 119.407
62.7222 14747 121.437
62.8396 15229 123.406
62.9569 15740 125.459
63.0743 15781 125.622
63.1918 15811 125.742
63.3092 15908 126.127
63.4267 15515 124.559
63.5441 15103 122.894
63.6616 14522 120.507
63.7791 14427 120.112
63.8966 14047 118.52
64.0142 13957 118.14
64.1317 13828 117.593
64.2492 13514 116.25
64.3668 13263 115.165
64.4843 13102 114.464
64.6019 12949 113.794
64.7195 13024 114.123
64.837 13245 115.087
64.9546 13154 114.691
65.0722 13231 115.026
65.1898 13134 114.604
65.3074 13187 114.835
65.4249 13061 114.285
65.5425 12863 113.415
65.6601 12628 112.374
65.7777 12783 113.062
65.8952 13168 114.752
66.0128 13640 116.79
66.1304 14350 119.791
66.2479 15007 122.503
66.3655 15732 125.427
66.483 16123 126.976
66.6005 16068 126.76
66.718 16520 128.53
66.8355 15976 126.396
66.953 16021 126.574
67.0705 15704 125.316
67.1879 14964 122.327
67.3054 14652 121.045
67.4228 14482 120.341
67.5402 14185 119.101
67.6576 13922 117.992
67.7749 13627 116.735
67.8923 13814 117.533
68.0096 13380 115.672
68.1269 13502 116.198
68.2442 13440 115.931
68.3614 13692 117.013
68.4787 13795 117.452
68.5958 13415 115.823
68.713 13783 117.401
68.8302 13484 116.121
68.9473 13401 115.763
69.0643 12897 113.565
69.1814 12576 112.143
69.2984 12139 110.177
69.4154 12387 111.297
69.5323 12745 112.894
69.6492 13567 116.477
69.7661 13846 117.669
69.8829 14338 119.741
69.9997 14165 119.017
70.1165 14235 119.311
70.2332 14446 120.192
70.3499 13454 115.991
70.4665 12713 112.752
70.5831 11952 109.325
70.6996 10977 104.771
70.8161 9802 99.0051
70.9326 9001 94.8736
71.049 8220 90.6642
71.1653 7732 87.9318
71.2817 7302 85.4517
71.3979 6898 83.0542
71.5141 6244 79.019
71.6303 5982 77.3434
71.7464 5255 72.4914
71.8624 0 1
71.9784 0 1
72.0944 0 1
72.2102 0 1
72.3261 0 1
72.4418 0 1
72.5575 0 1
72.6732 0 1
75.1054 0 1
75.2209 0 1
75.3365 0 1
75.4521 0 1
75.5678 0 1
75.6835 0 1
75.7993 0 1
75.9151 0 1
76.031 0 1
76.147 10968 104.728
76.263 11979 109.449
76.3791 12163 110.286
76.4952 12123 110.104
76.6113 12298 110.896
76.7276 12155 110.25
76.8438 12586 112.187
76.9601 12740 112.872
77.0765 12507 111.835
77.1929 12587 112.192
77.3093 13260 115.152
77.4258 13692 117.013
77.5423 13572 116.499
77.6589 13654 116.85
77.7755 13633 116.76
77.8921 13523 116.288
78.0088 12873 113.459
78.1256 12511 111.853
78.2423 12000 109.545
78.3591 11992 109.508
78.4759 12586 112.187
78.5928 13535 116.34
78.7097 14114 118.802
78.8266 14974 122.368
78.9436 15623 124.992
79.0606 15587 124.848
79.1776 16099 126.882
79.2946 16537 128.596
79.4117 16987 130.334
79.5288 17072 130.66
79.6459 16782 129.545
79.7631 16304 127.687
79.8802 15647 125.088
79.9974 15056 122.703
80.1147 14790 121.614
80.2319 14797 121.643
80.3491 14814 121.713
80.4664 14690 121.202
80.5837 14863 121.914
80.701 14608 120.864
80.8183 14461 120.254
80.9357 14952 122.278
81.053 15286 123.637
81.1704 15661 125.144
81.2877 15419 124.173
81.4051 15325 123.794
81.5225 15084 122.817
81.6399 15224 123.386
81.7573 13836 117.627
81.8747 13533 116.331
81.9922 13096 114.438
82.1096 13629 116.743
82.227 14642 121.004
82.3444 15684 125.236
82.4619 16570 128.725
82.5793 17264 131.393
82.6967 17357 131.746
82.8142 17804 133.432
82.9316 18398 135.639
83.049 18540 136.162
83.1664 18566 136.257
83.2838 18383 135.584
83.4012 17859 133.638
83.5186 16650 129.035
83.636 16634 128.973
83.7534 16247 127.464
83.8708 16253 127.487
83.9881 16237 127.424
84.1055 16114 126.941
84.2228 16357 127.894
84.3401 16367 127.934
84.4575 16518 128.522
84.5747 17019 130.457
84.692 17244 131.316
84.8093 17834 133.544
84.9265 17112 130.813
85.0437 17092 130.736
85.1609 16504 128.468
85.2781 15501 124.503
85.3952 14756 121.474
85.5123 14421 120.087
85.6294 14339 119.746
85.7465 15350 123.895
85.8636 16466 128.32
85.9806 17399 131.905
86.0976 18266 135.152
86.2145 18649 136.561
86.3315 18307 135.303
86.4484 19482 139.578
86.5652 19656 140.2
86.682 19641 140.146
86.7988 19666 140.236
86.9156 19282 138.86
87.0323 18928 137.579
87.149 18011 134.205
87.2657 17530 132.401
87.3823 17114 130.82
87.4988 16176 127.185
87.6154 15593 124.872
87.7318 14988 122.425
87.8483 14289 119.537
87.9647 13598 116.61
88.081 12689 112.645
88.1973 11977 109.439
88.3136 11552 107.48
88.4298 10675 103.32
88.546 9606 98.0102
88.6621 8696 93.2523
88.7781 7982 89.342
88.8942 0 1
89.0101 0 1
89.126 0 1
89.2419 0 1
89.3577 0 1
89.4734 0 1
89.5891 0 1
89.7047 0 1
89.8203 0 1
89.9358 0 1
92.3269 0 1
92.4424 0 1
92.558 0 1
92.6736 0 1
92.7893 0 1
92.905 0 1
93.0208 0 1
93.1366 0 1
93.2525 0 1
93.3685 0 1
93.4845 0 1
93.6005 15406 124.121
93.7167 17256 131.362
93.8328 18744 136.909
93.949 19722 140.435
94.0653 20213 142.172
94.1816 20557 143.377
94.2979 19838 140.847
94.4143 19044 138
94.5307 18165 134.778
94.6472 17455 132.117
94.7637 17361 131.761
94.8803 17477 132.201
94.9969 18626 136.477
95.1135 19925 141.156
95.2302 20730 143.979
95.3469 22094 148.641
95.4637 22863 151.205
95.5805 22780 150.93
95.6973 23642 153.76
95.8142 23915 154.645
95.9311 23499 153.294
96.048 23403 152.98
96.1649 23398 152.964
96.2819 22854 151.175
96.3989 22407 149.69
96.516 21759 147.509
96.633 21541 146.769
96.7501 21593 146.946
96.8673 21473 146.537
96.9844 21689 147.272
97.1016 21675 147.224
97.2188 21818 147.709
97.336 21802 147.655
97.4532 22282 149.272
97.5704 22863 151.205
97.6877 23248 152.473
97.805 22924 151.407
97.9223 22487 149.957
98.0396 21432 146.397
98.1569 20262 142.345
98.2743 19085 138.148
98.3916 18544 136.176
98.509 18265 135.148
98.6264 19320 138.996
98.7438 20733 143.99
98.8612 22025 148.408
98.9786 23563 153.502
99.096 24098 155.235
99.2134 24681 157.102
99.3308 25178 158.676
99.4482 26086 161.512
99.5656 25840 160.748
99.6831 25374 159.292
99.8005 25792 160.599
99.9179 24645 156.987
100.035 24066 155.132
100.153 23346 152.794
100.27 23283 152.588
100.388 23183 152.26
100.505 22822 151.07
100.622 22830 151.096
100.74 22717 150.722
100.857 22850 151.162
100.975 23257 152.502
101.092 23611 153.659
101.209 24124 155.319
101.327 24192 155.538
101.444 23865 154.483
101.561 23044 151.803
101.679 21906 148.007
101.796 20302 142.485
101.913 19453 139.474
102.03 19114 138.253
102.148 20077 141.693
102.265 21200 145.602
102.382 23004 151.671
102.499 24120 155.306
102.616 25032 158.215
102.733 25331 159.157
102.851 25976 161.171
102.968 26611 163.129
103.085 26265 162.065
103.202 26262 162.056
103.319 25751 160.471
103.436 25145 158.572
103.552 24455 156.381
103.669 24035 155.032
103.786 23842 154.409
103.903 23603 153.633
104.02 22997 151.648
104.137 22857 151.185
104.253 22292 149.305
104.37 23112 152.026
104.487 23128 152.079
104.603 23369 152.869
104.72 23481 153.235
104.836 22577 150.256
104.953 21346 146.103
105.069 19131 138.315
105.186 17303 131.541
105.302 15573 124.792
105.418 14188 119.113
105.535 12732 112.836
105.651 12019 109.631
105.767 11416 106.846
105.883 11373 106.644
105.999 11034 105.043
106.115 0 1
106.231 0 1
106.347 0 1
106.463 0 1
106.579 0 1
106.694 0 1
106.81 0 1
106.926 0 1
107.041 0 1
107.157 0 1
109.576 0 1
109.692 0 1
109.807 0 1
109.923 0 1
110.039 0 1
110.155 0 1
110.27 0 1
110.386 0 1
110.502 0 1
110.618 10735 103.61
110.735 12963 113.855
110.851 15276 123.596
110.967 17599 132.661
111.083 19828 140.812
111.199 21202 145.609
111.316 22208 149.023
111.432 22779 150.927
111.549 23054 151.835
111.665 23152 152.158
111.782 23062 151.862
111.898 22978 151.585
112.015 22837 151.119
112.132 22077 148.583
112.248 21948 148.149
112.365 21426 146.376
112.482 21119 145.324
112.599 21412 146.328
112.716 20821 144.295
112.832 20918 144.631
112.949 20606 143.548
113.066 20977 144.834
113.183 21338 146.075
113.3 21778 147.574
113.417 21534 146.745
113.534 21281 145.88
113.652 20786 144.174
113.769 19900 141.067
113.886 18734 136.872
114.003 17495 132.269
114.12 17259 131.374
114.238 17580 132.59
114.355 18548 136.191
114.472 19164 138.434
114.589 22588 150.293
114.707 22949 151.489
114.824 23158 152.178
114.942 23582 153.564
115.059 23728 154.039
115.176 23973 154.832
115.294 23362 152.846
115.411 23494 153.278
115.529 23202 152.322
115.646 22335 149.449
115.764 21785 147.597
115.881 21287 145.901
115.999 20690 143.84
116.116 20404 142.843
116.234 20316 142.534
116.351 20354 142.667
116.469 19814 140.762
116.586 19751 140.538
116.704 20588 143.485
116.821 20789 144.184
116.939 21206 145.623
117.056 21123 145.338
117.174 20653 143.712
117.291 19833 140.83
117.409 18824 137.201
117.526 17649 132.85
117.644 16996 130.369
117.761 16900 130
117.879 17448 132.091
117.996 18573 136.283
118.114 19888 141.025
118.231 21615 147.02
118.349 21956 148.176
118.466 22426 149.753
118.584 22587 150.29
118.701 22522 150.073
118.819 22053 148.503
118.936 21975 148.24
119.053 21738 147.438
119.171 21320 146.014
119.288 20877 144.489
119.405 19975 141.333
119.523 19683 140.296
119.64 19542 139.793
119.757 19220 138.636
119.875 18957 137.684
119.992 18477 135.93
120.109 18351 135.466
120.226 18363 135.51
120.343 18616 136.44
120.46 19143 138.358
120.578 19239 138.705
120.695 19285 138.87
120.812 18558 136.228
120.929 18060 134.387
121.046 17272 131.423
121.163 16050 126.689
121.279 14972 122.36
121.396 14538 120.574
121.513 14228 119.281
121.63 14921 122.152
121.747 15440 124.258
121.863 15575 124.8
121.98 16045 126.669
122.097 15851 125.901
122.213 15338 123.847
122.33 14963 122.323
122.446 13691 117.009
122.563 13184 114.822
122.679 11934 109.243
122.795 11635 107.866
122.912 10746 103.663
123.028 10100 100.499
123.144 9061 95.1893
123.26 8721 93.3863
123.377 0 1
123.493 0 1
123.609 0 1
123.725 0 1
123.84 0 1
123.956 0 1
124.072 0 1
124.188 0 1
124.303 0 1
124.419 0 1
126.852 0 1
126.968 0 1
127.083 0 1
127.199 0 1
127.315 0 1
127.431 0 1
127.547 0 1
127.663 0 1
127.779 0 1
127.895 0 1
128.011 0 1
128.127 0 1
128.243 0 1
128.359 19519 139.71
128.476 19543 139.796
128.592 19473 139.546
128.708 18923 137.561
128.825 18501 136.018
128.941 18303 135.289
129.058 18315 135.333
129.174 18669 136.635
129.291 18339 135.422
129.408 18655 136.583
129.524 18789 137.073
129.641 19241 138.712
129.758 19061 138.062
129.875 18641 136.532
129.992 18243 135.067
130.108 17679 132.962
130.225 16994 130.361
130.342 16229 127.393
130.459 15516 124.563
130.576 15792 125.666
130.693 16542 128.616
130.81 17394 131.886
130.928 18502 136.022
131.045 19195 138.546
131.162 19820 140.784
131.279 20088 141.732
131.396 20094 141.753
131.513 20114 141.824
131.631 19685 140.303
131.748 19899 141.064
131.865 19611 140.039
131.983 19619 140.068
132.1 19492 139.614
132.217 18778 137.033
132.335 18675 136.657
132.452 18394 135.624
132.57 18349 135.458
132.687 18809 137.146
132.804 18341 135.429
132.922 18457 135.857
133.039 18841 137.263
133.157 18717 136.81
133.274 19052 138.029
133.392 18767 136.993
133.509 18954 137.674
133.627 18529 136.121
133.744 17990 134.127
133.862 17171 131.038
133.979 16420 128.141
134.097 16184 127.216
134.214 16586 128.787
134.332 17461 132.14
134.449 18774 137.018
134.567 20449 143
134.684 21062 145.128
134.802 21189 145.564
134.919 21171 145.503
135.037 21613 147.014
135.154 21033 145.028
135.272 21342 146.089
135.389 21426 146.376
135.507 21525 146.714
135.624 21457 146.482
135.742 21417 146.345
135.859 21294 145.925
135.977 20725 143.962
136.094 20861 144.433
136.211 21010 144.948
136.329 20916 144.624
136.446 21078 145.183
136.564 20672 143.778
136.681 21105 145.276
136.798 20762 144.09
136.915 20729 143.976
137.033 20684 143.819
137.15 20649 143.698
137.267 20367 142.713
137.384 19296 138.91
137.502 18551 136.202
137.619 17525 132.382
137.736 17411 131.951
137.853 16683 129.163
137.97 18265 135.148
138.087 19392 139.255
138.204 20271 142.376
138.321 20772 144.125
138.438 20965 144.793
138.555 21115 145.31
138.672 20854 144.409
138.788 20078 141.697
138.905 19735 140.481
139.022 18592 136.352
139.139 18121 134.614
139.255 17272 131.423
139.372 16441 128.222
139.488 15409 124.133
139.605 14468 120.283
139.721 13552 116.413
139.838 12732 112.836
139.954 12136 110.164
140.071 11611 107.754
140.187 10967 104.723
140.303 10281 101.395
140.419 9926 99.6293
140.535 9332 96.6023
140.652 8873 94.1966
140.768 0 1
140.884 0 1
141 0 1
141.115 0 1
141.231 0 1
141.347 0 1
141.463 0 1
141.578 0 1
141.694 0 1
144.104 0 1
144.219 0 1
144.335 0 1
144.45 0 1
144.566 0 1
144.682 0 1
144.798 0 1
144.914 0 1
145.03 0 1
145.146 15086 122.825
145.262 15566 124.764
145.378 15642 125.068
145.494 15749 125.495
145.61 15817 125.766
145.726 15958 126.325
145.842 15807 125.726
145.959 15865 125.956
146.075 15600 124.9
146.192 15437 124.246
146.308 14785 121.594
146.425 14329 119.704
146.541 13549 116.4
146.658 13508 116.224
146.774 13798 117.465
146.891 14510 120.457
147.008 15676 125.204
147.125 16055 126.708
147.241 16546 128.631
147.358 16631 128.961
147.475 16544 128.623
147.592 16585 128.783
147.709 16229 127.393
147.826 16237 127.424
147.943 16271 127.558
148.06 16446 128.242
148.177 16273 127.566
148.294 16296 127.656
148.411 16250 127.475
148.528 16404 128.078
148.645 16248 127.468
148.762 16142 127.051
148.88 16158 127.114
148.997 16044 126.665
149.114 15390 124.056
149.231 15763 125.551
149.349 15928 126.206
149.466 15659 125.136
149.583 15739 125.455
149.701 15623 124.992
149.818 15378 124.008
149.935 15234 123.426
150.053 14668 121.112
150.17 13985 118.258
150.287 13694 117.021
150.405 13987 118.267
150.522 14330 119.708
150.64 15172 123.175
150.757 15627 125.008
150.875 15970 126.372
150.992 16366 127.93
151.11 16406 128.086
151.227 15895 126.075
151.344 16041 126.653
151.462 16009 126.527
151.579 16252 127.483
151.697 16370 127.945
151.814 16254 127.491
151.932 16325 127.769
152.049 16175 127.181
152.167 16079 126.803
152.284 15966 126.357
152.402 15837 125.845
152.519 15513 124.551
152.636 15242 123.458
152.754 15258 123.523
152.871 15274 123.588
152.989 15286 123.637
153.106 15461 124.342
153.223 15188 123.24
153.341 15003 122.487
153.458 14950 122.27
153.575 14648 121.029
153.693 14105 118.764
153.81 13320 115.412
153.927 13414 115.819
154.044 13460 116.017
154.162 14282 119.507
154.279 14933 122.201
154.396 15731 125.423
154.513 15919 126.171
154.63 16158 127.114
154.747 15753 125.511
154.864 15671 125.184
154.981 15394 124.073
155.098 15407 124.125
155.215 15599 124.896
155.332 15288 123.645
155.449 15381 124.02
155.566 15323 123.786
155.683 14951 122.274
155.8 14575 120.727
155.917 14249 119.369
156.033 13675 116.94
156.15 0 1
156.267 0 1
156.383 0 1
156.5 0 1
156.617 0 1
156.733 0 1
156.85 0 1
156.966 0 1
157.082 0 1
157.199 0 1
157.315 0 1
157.431 0 1
157.547 0 1
157.664 0 1
157.78 0 1
157.896 0 1
158.012 0 1
158.128 0 1
158.244 0 1
158.359 0 1
158.475 0 1
158.591 0 1
158.706 0 1
