
6.15755 0 1
6.2731 0 1
6.3887 0 1
6.50437 0 1
6.62009 0 1
6.73587 0 1
6.8517 0 1
6.96759 0 1
7.08353 0 1
7.19952 0 1
7.31557 0 1
7.43166 0 1
7.54781 0 1
7.664 0 1
7.78024 0 1
7.89653 0 1
8.01286 0 1
8.12924 0 1
8.24567 0 1
8.36213 0 1
8.47864 0 1
8.59519 0 1
8.71178 0 1
8.82841 0 1
8.94508 0 1
9.06179 0 1
9.17853 0 1
9.29531 0 1
9.41212 0 1
9.52897 0 1
9.64584 0 1
9.76276 0 1
9.8797 0 1
9.99667 0 1
10.1137 0 1
10.2307 0 1
10.3478 0 1
10.4648 0 1
10.5819 0 1
10.6991 0 1
10.8162 0 1
10.9334 0 1
11.0506 0 1
11.1678 0 1
11.285 0 1
11.4023 0 1
11.5196 0 1
11.6369 0 1
11.7542 0 1
11.8715 0 1
11.9888 0 1
12.1062 0 1
12.2235 0 1
12.3409 0 1
12.4582 0 1
12.5756 0 1
12.693 0 1
12.8104 0 1
12.9278 0 1
13.0452 0 1
13.1626 0 1
13.28 0 1
13.3974 0 1
13.5149 0 1
13.6323 0 1
13.7497 0 1
13.8671 0 1
13.9845 0 1
14.1019 0 1
14.2193 0 1
14.3367 0 1
14.4541 0 1
14.5714 0 1
14.6888 0 1
14.8062 0 1
14.9235 0 1
15.0408 0 0
15.1581 0 0
15.2755 0 0
15.3927 0 0
15.51 0 0
15.6273 0 0
15.7445 0 0
15.8617 0 0
15.9789 0 0
16.0961 0 0
16.2132 0 0
16.3304 0 0
16.4475 0 0
16.5646 0 0
16.6816 0 0
16.7986 0 0
16.9156 0 0
17.0326 0 0
17.1496 0 0
17.2665 0 0
17.3833 0 0
17.5002 0 0
17.617 0 0
17.7338 0 0
17.8505 0 0
17.9672 0 0
18.0839 0 0
18.2005 0 0
18.3171 0 0
18.4337 0 0
18.5502 0 0
18.6666 0 0
18.7831 0 0
18.8994 0 0
19.0158 0 0
19.1321 0 0
19.2483 0 0
19.3645 0 0
19.4806 0 0
19.5967 0 0
19.7128 0 0
19.8288 0 0
19.9447 0 0
20.0606 0 1
20.1764 0 1
20.2922 0 1
20.4079 0 1
20.5236 0 1
20.6392 0 1
20.7548 0 1
20.8702 0 1
23.3078 0 1
23.4233 0 1
23.539 0 1
23.6547 0 1
23.7704 0 1
23.8862 0 1
24.0021 0 1
24.118 0 1
24.234 0 1
24.35 0 1
24.4661 1377 37.108
24.5822 1407 37.51
24.6984 1427 37.7757
24.8146 1375 37.081
24.9309 1316 36.2767
25.0472 1315 36.2629
25.1636 1285 35.8469
25.28 1435 37.8814
25.3965 1437 37.9078
25.513 1461 38.223
25.6296 1550 39.37
25.7462 1537 39.2046
25.8628 1608 40.0999
25.9795 1597 39.9625
26.0962 1576 39.6989
26.213 1546 39.3192
26.3298 1630 40.3733
26.4466 1581 39.7618
26.5635 1504 38.7814
26.6804 1521 39
26.7973 1506 38.8072
26.9143 1481 38.4838
27.0313 1467 38.3014
27.1483 1542 39.2683
27.2653 1500 38.7298
27.3824 1550 39.37
27.4996 1566 39.5727
27.6167 1620 40.2492
27.7339 1530 39.1152
27.8511 1505 38.7943
27.9683 1464 38.2623
28.0855 1452 38.1051
28.2028 1464 38.2623
28.3201 1320 36.3318
28.4374 1320 36.3318
28.5547 1265 35.5668
28.6721 1291 35.9305
28.7894 1315 36.2629
28.9068 1392 37.3095
29.0242 1506 38.8072
29.1416 1501 38.7427
29.259 1539 39.2301
29.3764 1478 38.4448
29.4939 1573 39.6611
29.6113 1629 40.3609
29.7288 1546 39.3192
29.8463 1605 40.0625
29.9638 1592 39.8999
30.0812 1489 38.5876
30.1987 1485 38.5357
30.3162 1406 37.4967
30.4337 1397 37.3765
30.5512 1484 38.5227
30.6687 1582 39.7744
30.7862 1489 38.5876
30.9037 1538 39.2173
31.0212 1555 39.4335
31.1387 1552 39.3954
31.2562 1532 39.1408
31.3737 1524 39.0384
31.4912 1550 39.37
31.6087 1401 37.4299
31.7262 1397 37.3765
31.8436 1402 37.4433
31.9611 1374 37.0675
32.0785 1341 36.6197
32.1959 1354 36.7967
32.3134 1397 37.3765
32.4308 1360 36.8782
32.5482 1418 37.6563
32.6655 1517 38.9487
32.7829 1604 40.05
32.9002 1595 39.9375
33.0176 1493 38.6394
33.1349 1573 39.6611
33.2522 1582 39.7744
33.3694 1647 40.5832
33.4867 1573 39.6611
33.6039 1585 39.8121
33.7211 1609 40.1123
33.8383 1530 39.1152
33.9554 1511 38.8716
34.0725 1457 38.1707
34.1896 1480 38.4708
34.3067 1544 39.2938
34.4237 1562 39.5221
34.5407 1561 39.5095
34.6577 1560 39.4968
34.7746 1608 40.0999
34.8915 1620 40.2492
35.0084 1583 39.7869
35.1252 1564 39.5474
35.242 1435 37.8814
35.3587 1448 38.0526
35.4755 1378 37.1214
35.5921 1369 37
35.7088 1347 36.7015
35.8254 1272 35.6651
35.9419 1273 35.6791
36.0584 1277 35.7351
36.1749 1310 36.1939
36.2913 1395 37.3497
36.4077 1536 39.1918
36.524 1505 38.7943
36.6403 1555 39.4335
36.7565 1596 39.95
36.8727 1602 40.025
36.9889 1604 40.05
37.1049 1567 39.5854
37.221 0 1
37.3369 0 1
37.4529 0 1
37.5687 0 1
37.6845 0 1
37.8003 0 1
37.916 0 1
38.0316 0 1
38.1472 0 1
40.5851 0 1
40.7008 0 1
40.8164 0 1
40.9322 0 1
41.048 0 1
41.1639 0 1
41.2798 0 1
41.3958 0 1
41.5118 0 1
41.6279 0 1
41.744 1362 36.9053
41.8602 1395 37.3497
41.9765 1380 37.1484
42.0928 1439 37.9342
42.2091 1403 37.4566
42.3255 1467 38.3014
42.4419 1409 37.5366
42.5584 1349 36.7287
42.675 1388 37.2559
42.7915 1315 36.2629
42.9081 1351 36.756
43.0248 1357 36.8375
43.1415 1406 37.4967
43.2582 1479 38.4578
43.375 1424 37.7359
43.4918 1420 37.6829
43.6087 1471 38.3536
43.7256 1352 36.7696
43.8425 1419 37.6696
43.9595 1363 36.9188
44.0765 1282 35.805
44.1935 1332 36.4966
44.3106 1249 35.3412
44.4277 1098 33.1361
44.5448 1015 31.8591
44.6619 975 31.225
44.7791 1015 31.8591
44.8963 1022 31.9687
45.0136 1176 34.2929
45.1308 1192 34.5254
45.2481 1257 35.4542
45.3654 1269 35.623
45.4827 1243 35.2562
45.6001 1217 34.8855
45.7174 1211 34.7994
45.8348 1190 34.4964
45.9522 1239 35.1994
46.0697 1170 34.2053
46.1871 1116 33.4066
46.3046 1085 32.9393
46.422 1063 32.6037
46.5395 1087 32.9697
46.657 1154 33.9706
46.7745 1097 33.121
46.892 1130 33.6155
47.0096 1153 33.9559
47.1271 1184 34.4093
47.2446 1128 33.5857
47.3622 1090 33.0151
47.4797 1054 32.4654
47.5973 1064 32.619
47.7149 976 31.241
47.8324 986 31.4006
47.95 892 29.8664
48.0675 866 29.4279
48.1851 807 28.4077
48.3027 790 28.1069
48.4202 796 28.2135
48.5378 888 29.7993
48.6554 932 30.5287
48.7729 958 30.9516
48.8904 1004 31.686
49.008 1040 32.249
49.1255 1098 33.1361
49.243 1039 32.2335
49.3605 999 31.607
49.478 1018 31.9061
49.5955 1000 31.6228
49.713 948 30.7896
49.8304 929 30.4795
49.9479 1020 31.9374
50.0653 985 31.3847
50.1827 1163 34.1028
50.3001 1214 34.8425
50.4175 1124 33.5261
50.5348 1179 34.3366
50.6521 1289 35.9026
50.7694 1275 35.7071
50.8867 1293 35.9583
51.004 1289 35.9026
51.1212 1237 35.171
51.2384 1305 36.1248
51.3556 1239 35.1994
51.4727 1198 34.6121
51.5899 1055 32.4808
51.707 1093 33.0606
51.824 1059 32.5423
51.9411 1166 34.1467
52.0581 1267 35.5949
52.175 1330 36.4692
52.2919 1395 37.3497
52.4088 1487 38.5616
52.5257 1490 38.6005
52.6425 1594 39.9249
52.7593 1516 38.9358
52.876 1544 39.2938
52.9927 1545 39.3065
53.1094 1484 38.5227
53.226 1510 38.8587
53.3426 1525 39.0512
53.4591 1514 38.9102
53.5756 1548 39.3446
53.692 1635 40.4351
53.8084 1624 40.2989
53.9248 1688 41.0853
54.0411 1664 40.7922
54.1573 1726 41.5452
54.2735 0 1
54.3896 0 1
54.5057 0 1
54.6217 0 1
54.7377 0 1
54.8537 0 1
54.9695 0 1
55.0853 0 1
55.2011 0 1
55.3168 0 1
55.4324 0 1
57.824 0 1
57.9396 0 1
58.0553 0 1
58.1711 0 1
58.2869 0 1
58.4028 0 1
58.5187 0 1
58.6347 0 1
58.7508 0 1
58.8669 0 1
58.983 2099 45.8148
59.0992 2126 46.1086
59.2155 2159 46.465
59.3318 2180 46.6905
59.4482 2157 46.4435
59.5646 2165 46.5296
59.681 2156 46.4327
59.7975 2104 45.8694
59.9141 2003 44.7549
60.0306 1899 43.5775
60.1473 1785 42.2493
60.2639 1641 40.5093
60.3807 1600 40
60.4974 1609 40.1123
60.6142 1589 39.8623
60.731 1804 42.4735
60.8479 1907 43.6692
60.9648 2002 44.7437
61.0818 2013 44.8665
61.1987 2105 45.8803
61.3158 2050 45.2769
61.4328 2126 46.1086
61.5499 2029 45.0444
61.667 2010 44.833
61.7841 2038 45.1442
61.9013 2040 45.1664
62.0185 1920 43.8178
62.1357 2032 45.0777
62.253 2095 45.7712
62.3702 2122 46.0652
62.4875 2205 46.9574
62.6049 2080 45.607
62.7222 2175 46.6369
62.8396 2213 47.0425
62.9569 2294 47.8957
63.0743 2158 46.4543
63.1918 2144 46.3033
63.3092 2152 46.3897
63.4267 2049 45.2659
63.5441 1976 44.4522
63.6616 1838 42.8719
63.7791 1667 40.8289
63.8966 1555 39.4335
64.0142 1619 40.2368
64.1317 1643 40.5339
64.2492 1774 42.1189
64.3668 1881 43.3705
64.4843 1999 44.7102
64.6019 2135 46.2061
64.7195 2107 45.9021
64.837 2128 46.1303
64.9546 2250 47.4342
65.0722 2191 46.8081
65.1898 2141 46.2709
65.3074 2071 45.5082
65.4249 2008 44.8107
65.5425 1982 44.5197
65.6601 2051 45.288
65.7777 2053 45.31
65.8952 2084 45.6508
66.0128 2171 46.594
66.1304 2270 47.6445
66.2479 2184 46.7333
66.3655 2359 48.5695
66.483 2328 48.2494
66.6005 2314 48.1041
66.718 2163 46.5081
66.8355 2171 46.594
66.953 2217 47.085
67.0705 2080 45.607
67.1879 1987 44.5758
67.3054 1838 42.8719
67.4228 1695 41.1704
67.5402 1557 39.4588
67.6576 1568 39.598
67.7749 1629 40.3609
67.8923 1822 42.6849
68.0096 1982 44.5197
68.1269 2123 46.076
68.2442 2341 48.3839
68.3614 2314 48.1041
68.4787 2423 49.224
68.5958 2364 48.621
68.713 2319 48.156
68.8302 2363 48.6107
68.9473 2309 48.0521
69.0643 2414 49.1325
69.1814 2174 46.6262
69.2984 2264 47.5815
69.4154 2378 48.7647
69.5323 2457 49.5681
69.6492 2508 50.0799
69.7661 2535 50.3488
69.8829 2587 50.8626
69.9997 2605 51.0392
70.1165 2532 50.319
70.2332 2568 50.6754
70.3499 2587 50.8626
70.4665 2634 51.3225
70.5831 2526 50.2593
70.6996 2396 48.949
70.8161 2290 47.8539
70.9326 2189 46.7868
71.049 1958 44.2493
71.1653 1723 41.509
71.2817 1608 40.0999
71.3979 1661 40.7554
71.5141 1747 41.7971
71.6303 1926 43.8862
71.7464 1915 43.7607
71.8624 0 1
71.9784 0 1
72.0944 0 1
72.2102 0 1
72.3261 0 1
72.4418 0 1
72.5575 0 1
72.6732 0 1
75.1054 0 1
75.2209 0 1
75.3365 0 1
75.4521 0 1
75.5678 0 1
75.6835 0 1
75.7993 0 1
75.9151 0 1
76.031 0 1
76.147 2182 46.7119
76.263 2261 47.55
76.3791 2209 47
76.4952 1796 42.3792
76.6113 1861 43.1393
76.7276 1876 43.3128
76.8438 2060 45.3872
76.9601 2314 48.1041
77.0765 2537 50.3686
77.1929 2800 52.915
77.3093 2885 53.7122
77.4258 2985 54.6352
77.5423 2847 53.3573
77.6589 2900 53.8516
77.7755 2962 54.4243
77.8921 2989 54.6717
78.0088 2811 53.0189
78.1256 2774 52.6688
78.2423 2689 51.8556
78.3591 2719 52.144
78.4759 2858 53.4603
78.5928 2924 54.074
78.7097 2892 53.7773
78.8266 3171 56.3116
78.9436 2985 54.6352
79.0606 3097 55.6507
79.1776 3047 55.1996
79.2946 3126 55.9106
79.4117 3038 55.1181
79.5288 3090 55.5878
79.6459 3012 54.8817
79.7631 2949 54.3047
79.8802 2759 52.5262
79.9974 2535 50.3488
80.1147 2250 47.4342
80.2319 1978 44.4747
80.3491 1925 43.8748
80.4664 2205 46.9574
80.5837 2576 50.7543
80.701 2737 52.3163
80.8183 3049 55.2178
80.9357 3140 56.0357
81.053 3160 56.2139
81.1704 3199 56.5597
81.2877 3152 56.1427
81.4051 3161 56.2228
81.5225 3156 56.1783
81.6399 3164 56.2494
81.7573 3055 55.2721
81.8747 3010 54.8635
81.9922 2920 54.037
82.1096 3000 54.7723
82.227 2997 54.7449
82.3444 3126 55.9106
82.4619 3150 56.1249
82.5793 3201 56.5774
82.6967 3336 57.7581
82.8142 3246 56.9737
82.9316 3230 56.8331
83.049 3254 57.0438
83.1664 3227 56.8067
83.2838 3055 55.2721
83.4012 3009 54.8544
83.5186 2824 53.1413
83.636 2629 51.2738
83.7534 2291 47.8644
83.8708 1970 44.3847
83.9881 1974 44.4297
84.1055 2052 45.299
84.2228 2388 48.8672
84.3401 2918 54.0185
84.4575 3113 55.7943
84.5747 3328 57.6888
84.692 3332 57.7235
84.8093 3323 57.6455
84.9265 3353 57.9051
85.0437 3346 57.8446
85.1609 3283 57.2975
85.2781 3306 57.4978
85.3952 3234 56.8683
85.5123 3135 55.9911
85.6294 3224 56.7803
85.7465 3359 57.9569
85.8636 3435 58.6089
85.9806 3619 60.1581
86.0976 3693 60.7701
86.2145 3827 61.8628
86.3315 3639 60.3241
86.4484 3887 62.3458
86.5652 3723 61.0164
86.682 3773 61.4248
86.7988 3688 60.7289
86.9156 3714 60.9426
87.0323 3486 59.0424
87.149 3537 59.4727
87.2657 3141 56.0446
87.3823 2626 51.2445
87.4988 2364 48.621
87.6154 2712 52.0769
87.7318 2935 54.1756
87.8483 3346 57.8446
87.9647 3838 61.9516
88.081 3818 61.79
88.1973 4184 64.6838
88.3136 4124 64.2184
88.4298 4157 64.4748
88.546 4093 63.9766
88.6621 4141 64.3506
88.7781 4013 63.3482
88.8942 0 1
89.0101 0 1
89.126 0 1
89.2419 0 1
89.3577 0 1
89.4734 0 1
89.5891 0 1
89.7047 0 1
89.8203 0 1
89.9358 0 1
92.3269 0 1
92.4424 0 1
92.558 0 1
92.6736 0 1
92.7893 0 1
92.905 0 1
93.0208 0 1
93.1366 0 1
93.2525 0 1
93.3685 0 1
93.4845 0 1
93.6005 4335 65.8407
93.7167 4345 65.9166
93.8328 4399 66.325
93.949 4403 66.3551
94.0653 4447 66.6858
94.1816 4209 64.8768
94.2979 4344 65.909
94.4143 4253 65.215
94.5307 4303 65.5973
94.6472 4171 64.5833
94.7637 4166 64.5446
94.8803 4285 65.4599
94.9969 4372 66.1211
95.1135 4358 66.0151
95.2302 4529 67.2978
95.3469 4549 67.4463
95.4637 4598 67.8086
95.5805 4643 68.1396
95.6973 4941 70.2922
95.8142 4685 68.4471
95.9311 4698 68.542
96.048 4509 67.1491
96.1649 4326 65.7723
96.2819 4107 64.0859
96.3989 3856 62.0967
96.516 3373 58.0775
96.633 3050 55.2268
96.7501 2860 53.479
96.8673 3180 56.3915
96.9844 3696 60.7947
97.1016 4161 64.5058
97.2188 4584 67.7052
97.336 4968 70.484
97.4532 4979 70.562
97.5704 4864 69.7424
97.6877 4918 70.1285
97.805 4852 69.6563
97.9223 4920 70.1427
98.0396 4826 69.4694
98.1569 4821 69.4334
98.2743 4741 68.8549
98.3916 4622 67.9853
98.509 4548 67.4389
98.6264 4627 68.0221
98.7438 4793 69.2315
98.8612 5068 71.1899
98.9786 4908 70.0571
99.096 5095 71.3793
99.2134 5064 71.1618
99.3308 5129 71.617
99.4482 5017 70.8308
99.5656 5107 71.4633
99.6831 5003 70.7319
99.8005 4775 69.1014
99.9179 4493 67.0298
100.035 4231 65.0461
100.153 3757 61.2944
100.27 3317 57.5934
100.388 3342 57.81
100.505 4017 63.3798
100.622 4487 66.9851
100.74 5059 71.1266
100.857 5168 71.8888
100.975 5273 72.6154
101.092 5386 73.3894
101.209 5327 72.9863
101.327 5334 73.0342
101.444 5289 72.7255
101.561 5358 73.1984
101.679 5202 72.1249
101.796 5307 72.8492
101.913 5025 70.8872
102.03 4991 70.647
102.148 4962 70.4415
102.265 5478 74.0135
102.382 5071 71.211
102.499 5369 73.2735
102.616 5565 74.5989
102.733 5693 75.452
102.851 5661 75.2396
102.968 5794 76.1183
103.085 5593 74.7864
103.202 5534 74.3909
103.319 5369 73.2735
103.436 5046 71.0352
103.552 4710 68.6294
103.669 3935 62.7296
103.786 3592 59.9333
103.903 3730 61.0737
104.02 4164 64.5291
104.137 4902 70.0143
104.253 5521 74.3034
104.37 5490 74.0945
104.487 5691 75.4387
104.603 5722 75.6439
104.72 5811 76.2299
104.836 5955 77.1686
104.953 5908 76.8635
105.069 5877 76.6616
105.186 5715 75.5976
105.302 5694 75.4586
105.418 5523 74.3169
105.535 5433 73.7089
105.651 5456 73.8647
105.767 5747 75.809
105.883 5814 76.2496
105.999 5837 76.4003
106.115 0 1
106.231 0 1
106.347 0 1
106.463 0 1
106.579 0 1
106.694 0 1
106.81 0 1
106.926 0 1
107.041 0 1
107.157 0 1
109.576 0 1
109.692 0 1
109.807 0 1
109.923 0 1
110.039 0 1
110.155 0 1
110.27 0 1
110.386 0 1
110.502 0 1
110.618 5034 70.9507
110.735 5194 72.0694
110.851 5491 74.1013
110.967 5493 74.1148
111.083 5523 74.3169
111.199 5599 74.8265
111.316 5819 76.2824
111.432 5620 74.9667
111.549 5686 75.4056
111.665 5382 73.3621
111.782 5220 72.2496
111.898 4987 70.6187
112.015 4489 67
112.132 3920 62.6099
112.248 3419 58.4722
112.365 3491 59.0847
112.482 3728 61.0574
112.599 4204 64.8383
112.716 4726 68.7459
112.832 5192 72.0555
112.949 5311 72.8766
113.066 5319 72.9315
113.183 5129 71.617
113.3 5151 71.7705
113.417 5117 71.5332
113.534 5005 70.746
113.652 5018 70.8378
113.769 4937 70.2638
113.886 4757 68.971
114.003 4927 70.1926
114.12 4568 67.587
114.238 4552 67.4685
114.355 4648 68.1762
114.472 4738 68.8331
114.589 4866 69.7567
114.707 4883 69.8785
114.824 4772 69.0797
114.942 4983 70.5904
115.059 4995 70.6753
115.176 4804 69.3109
115.294 4810 69.3542
115.411 4644 68.1469
115.529 4278 65.4064
115.646 3874 62.2415
115.764 3465 58.8643
115.881 3102 55.6956
115.999 3286 57.3236
116.116 3772 61.4166
116.234 4132 64.2806
116.351 4619 67.9632
116.469 4782 69.152
116.586 4787 69.1881
116.704 4938 70.2709
116.821 4787 69.1881
116.939 4905 70.0357
117.056 4723 68.7241
117.174 4806 69.3253
117.291 4751 68.9275
117.409 4695 68.5201
117.526 4656 68.2349
117.644 4597 67.8012
117.761 4597 67.8012
117.879 4561 67.5352
117.996 4499 67.0746
118.114 4673 68.3593
118.231 4875 69.8212
118.349 4837 69.5485
118.466 5044 71.0211
118.584 4968 70.484
118.701 4889 69.9214
118.819 4828 69.4838
118.936 4799 69.2748
119.053 4501 67.0895
119.171 4093 63.9766
119.288 3713 60.9344
119.405 3333 57.7321
119.523 3084 55.5338
119.64 3264 57.1314
119.757 3620 60.1664
119.875 4115 64.1483
119.992 4334 65.8331
120.109 4500 67.082
120.226 4718 68.6877
120.343 4596 67.7938
120.46 4566 67.5722
120.578 4726 68.7459
120.695 4478 66.9179
120.812 4552 67.4685
120.929 4597 67.8012
121.046 4559 67.5204
121.163 4575 67.6387
121.279 4539 67.3721
121.396 4465 66.8207
121.513 4327 65.7799
121.63 4357 66.0076
121.747 4420 66.4831
121.863 4375 66.1438
121.98 4583 67.6979
122.097 4546 67.424
122.213 4620 67.9706
122.33 4717 68.6804
122.446 4554 67.4833
122.563 4581 67.6831
122.679 4479 66.9253
122.795 4292 65.5134
122.912 4082 63.8905
123.028 3531 59.4222
123.144 3148 56.107
123.26 2984 54.626
123.377 0 1
123.493 0 1
123.609 0 1
123.725 0 1
123.84 0 1
123.956 0 1
124.072 0 1
124.188 0 1
124.303 0 1
124.419 0 1
126.852 0 1
126.968 0 1
127.083 0 1
127.199 0 1
127.315 0 1
127.431 0 1
127.547 0 1
127.663 0 1
127.779 0 1
127.895 0 1
128.011 0 1
128.127 0 1
128.243 0 1
128.359 3402 58.3267
128.476 3222 56.7627
128.592 3304 57.4804
128.708 3863 62.153
128.825 4316 65.6963
128.941 4566 67.5722
129.058 4899 69.9929
129.174 4920 70.1427
129.291 4911 70.0785
129.408 4842 69.5845
129.524 4900 70
129.641 4879 69.8498
129.758 4933 70.2353
129.875 4706 68.6003
129.992 4763 69.0145
130.108 4797 69.2604
130.225 4720 68.7023
130.342 4633 68.0661
130.459 4485 66.9701
130.576 4601 67.8307
130.693 4546 67.424
130.81 4718 68.6877
130.928 4717 68.6804
131.045 4798 69.2676
131.162 4759 68.9855
131.279 4767 69.0435
131.396 4830 69.4982
131.513 4563 67.55
131.631 4413 66.4304
131.748 4305 65.6125
131.865 3716 60.959
131.983 3309 57.5239
132.1 3291 57.3672
132.217 3610 60.0833
132.335 3973 63.0317
132.452 4349 65.9469
132.57 4738 68.8331
132.687 4489 67
132.804 4928 70.1997
132.922 4710 68.6294
133.039 4617 67.9485
133.157 4633 68.0661
133.274 4817 69.4046
133.392 4587 67.7274
133.509 4568 67.587
133.627 4529 67.2978
133.744 4558 67.513
133.862 4554 67.4833
133.979 4473 66.8805
134.097 4389 66.2495
134.214 4467 66.8356
134.332 4311 65.6582
134.449 4365 66.0681
134.567 4630 68.0441
134.684 4597 67.8012
134.802 4729 68.7677
134.919 4630 68.0441
135.037 4644 68.1469
135.154 4375 66.1438
135.272 4104 64.0625
135.389 3800 61.6441
135.507 3517 59.3043
135.624 3063 55.3444
135.742 3211 56.6657
135.859 3518 59.3127
135.977 4043 63.5846
136.094 4469 66.8506
136.211 4464 66.8132
136.329 4636 68.0882
136.446 4564 67.5574
136.564 4522 67.2458
136.681 4649 68.1836
136.798 4473 66.8805
136.915 4465 66.8207
137.033 4410 66.4078
137.15 4396 66.3023
137.267 4363 66.053
137.384 4405 66.3702
137.502 4248 65.1767
137.619 4337 65.8559
137.736 4366 66.0757
137.853 4196 64.7765
137.97 4218 64.9461
138.087 4309 65.643
138.204 4320 65.7267
138.321 4418 66.468
138.438 4413 66.4304
138.555 4328 65.7875
138.672 4381 66.1891
138.788 4214 64.9153
138.905 4062 63.7338
139.022 3894 62.4019
139.139 3576 59.7997
139.255 3249 57
139.372 3155 56.1694
139.488 3483 59.0169
139.605 3952 62.8649
139.721 4277 65.3988
139.838 4359 66.0227
139.954 4424 66.5132
140.071 4325 65.7647
140.187 4360 66.0303
140.303 4305 65.6125
140.419 4461 66.7907
140.535 4239 65.1076
140.652 4108 64.0937
140.768 0 1
140.884 0 1
141 0 1
141.115 0 1
141.231 0 1
141.347 0 1
141.463 0 1
141.578 0 1
141.694 0 1
144.104 0 1
144.219 0 1
144.335 0 1
144.45 0 1
144.566 0 1
144.682 0 1
144.798 0 1
144.914 0 1
145.03 0 1
145.146 3711 60.918
145.262 3717 60.9672
145.378 3833 61.9112
145.494 3681 60.6712
145.61 3788 61.5467
145.726 3570 59.7495
145.842 3629 60.2412
145.959 3647 60.3904
146.075 3630 60.2495
146.192 3524 59.3633
146.308 3577 59.808
146.425 3607 60.0583
146.541 3604 60.0333
146.658 3587 59.8916
146.774 3565 59.7076
146.891 3571 59.7578
147.008 3690 60.7454
147.125 3595 59.9583
147.241 3438 58.6345
147.358 3403 58.3352
147.475 3315 57.576
147.592 3338 57.7754
147.709 3091 55.5968
147.826 2644 51.4198
147.943 2636 51.342
148.06 2792 52.8394
148.177 3090 55.5878
148.294 3391 58.2323
148.411 3558 59.649
148.528 3387 58.1979
148.645 3529 59.4054
148.762 3576 59.7997
148.88 3395 58.2666
148.997 3327 57.6802
149.114 3606 60.05
149.231 3441 58.66
149.349 3433 58.5918
149.466 3292 57.376
149.583 3327 57.6802
149.701 3147 56.0981
149.818 3267 57.1577
149.935 3293 57.3847
150.053 3223 56.7715
150.17 3323 57.6455
150.287 3313 57.5587
150.405 3249 57
150.522 3284 57.3062
150.64 3352 57.8965
150.757 3270 57.1839
150.875 3433 58.5918
150.992 3342 57.81
151.11 3112 55.7853
151.227 3100 55.6776
151.344 2780 52.7257
151.462 2632 51.303
151.579 2586 50.8527
151.697 2688 51.8459
151.814 2991 54.69
151.932 3146 56.0892
152.049 3326 57.6715
152.167 3428 58.5491
152.284 3487 59.0508
152.402 3498 59.1439
152.519 3417 58.4551
152.636 3368 58.0345
152.754 3434 58.6003
152.871 3349 57.8705
152.989 3236 56.8859
153.106 3218 56.7274
153.223 3258 57.0789
153.341 3200 56.5685
153.458 3232 56.8507
153.575 3289 57.3498
153.693 3326 57.6715
153.81 3292 57.376
153.927 3273 57.2101
154.044 3326 57.6715
154.162 3355 57.9224
154.279 3428 58.5491
154.396 3335 57.7495
154.513 3477 58.9661
154.63 3312 57.55
154.747 3351 57.8878
154.864 3131 55.9553
154.981 3063 55.3444
155.098 2807 52.9811
155.215 2833 53.2259
155.332 2891 53.768
155.449 3090 55.5878
155.566 3257 57.0701
155.683 3421 58.4893
155.8 3569 59.7411
155.917 3596 59.9667
156.033 3532 59.4306
156.15 0 1
156.267 0 1
156.383 0 1
156.5 0 1
156.617 0 1
156.733 0 1
156.85 0 1
156.966 0 1
157.082 0 1
157.199 0 1
157.315 0 1
157.431 0 1
157.547 0 1
157.664 0 1
157.78 0 1
157.896 0 1
158.012 0 1
158.128 0 1
158.244 0 1
158.359 0 1
158.475 0 1
158.591 0 1
158.706 0 1
