
6.15755 0 1
6.2731 0 1
6.3887 0 1
6.50437 0 1
6.62009 0 1
6.73587 0 1
6.8517 0 1
6.96759 0 1
7.08353 0 1
7.19952 0 1
7.31557 0 1
7.43166 0 1
7.54781 0 1
7.664 0 1
7.78024 0 1
7.89653 0 1
8.01286 0 1
8.12924 0 1
8.24567 0 1
8.36213 0 1
8.47864 0 1
8.59519 0 1
8.71178 0 1
8.82841 0 1
8.94508 0 1
9.06179 0 1
9.17853 0 1
9.29531 0 1
9.41212 0 1
9.52897 0 1
9.64584 0 1
9.76276 0 1
9.8797 0 1
9.99667 0 1
10.1137 0 1
10.2307 0 1
10.3478 0 1
10.4648 0 1
10.5819 0 1
10.6991 0 1
10.8162 0 1
10.9334 0 1
11.0506 0 1
11.1678 0 1
11.285 0 1
11.4023 0 1
11.5196 0 1
11.6369 0 1
11.7542 0 1
11.8715 0 1
11.9888 0 1
12.1062 0 1
12.2235 0 1
12.3409 0 1
12.4582 0 1
12.5756 0 1
12.693 0 1
12.8104 0 1
12.9278 0 1
13.0452 0 1
13.1626 0 1
13.28 0 1
13.3974 0 1
13.5149 0 1
13.6323 0 1
13.7497 0 1
13.8671 0 1
13.9845 0 1
14.1019 0 1
14.2193 0 1
14.3367 0 1
14.4541 0 1
14.5714 0 1
14.6888 0 1
14.8062 0 1
14.9235 0 1
15.0408 1286 35.8608
15.1581 1352 36.7696
15.2755 1469 38.3275
15.3927 1547 39.3319
15.51 1494 38.6523
15.6273 1499 38.7169
15.7445 1529 39.1024
15.8617 1442 37.9737
15.9789 1463 38.2492
16.0961 1504 38.7814
16.2132 1444 38
16.3304 1485 38.5357
16.4475 1479 38.4578
16.5646 1541 39.2556
16.6816 1626 40.3237
16.7986 1772 42.0951
16.9156 1713 41.3884
17.0326 1708 41.328
17.1496 1778 42.1663
17.2665 1785 42.2493
17.3833 1739 41.7013
17.5002 1713 41.3884
17.617 1655 40.6817
17.7338 1563 39.5348
17.8505 1501 38.7427
17.9672 1593 39.9124
18.0839 1558 39.4715
18.2005 1542 39.2683
18.3171 1593 39.9124
18.4337 1640 40.4969
18.5502 1696 41.1825
18.6666 1658 40.7185
18.7831 1706 41.3038
18.8994 1685 41.0488
19.0158 1642 40.5216
19.1321 1682 41.0122
19.2483 1599 39.9875
19.3645 1492 38.6264
19.4806 1364 36.9324
19.5967 1317 36.2905
19.7128 1307 36.1525
19.8288 1104 33.2265
19.9447 1113 33.3617
20.0606 0 1
20.1764 0 1
20.2922 0 1
20.4079 0 1
20.5236 0 1
20.6392 0 1
20.7548 0 1
20.8702 0 1
23.3078 0 1
23.4233 0 1
23.539 0 1
23.6547 0 1
23.7704 0 1
23.8862 0 1
24.0021 0 1
24.118 0 1
24.234 0 1
24.35 0 1
24.4661 714 26.7208
24.5822 885 29.7489
24.6984 949 30.8058
24.8146 1131 33.6303
24.9309 1105 33.2415
25.0472 1281 35.7911
25.1636 1377 37.108
25.28 1544 39.2938
25.3965 1633 40.4104
25.513 1687 41.0731
25.6296 1781 42.2019
25.7462 1879 43.3474
25.8628 1843 42.9302
25.9795 1783 42.2256
26.0962 1863 43.1625
26.213 1744 41.7612
26.3298 1673 40.9023
26.4466 1620 40.2492
26.5635 1606 40.0749
26.6804 1623 40.2865
26.7973 1670 40.8656
26.9143 1640 40.4969
27.0313 1695 41.1704
27.1483 1755 41.8927
27.2653 1727 41.5572
27.3824 1704 41.2795
27.4996 1774 42.1189
27.6167 1776 42.1426
27.7339 1714 41.4005
27.8511 1690 41.1096
27.9683 1617 40.2119
28.0855 1637 40.4599
28.2028 1488 38.5746
28.3201 1490 38.6005
28.4374 1460 38.2099
28.5547 1506 38.8072
28.6721 1614 40.1746
28.7894 1652 40.6448
28.9068 1623 40.2865
29.0242 1710 41.3521
29.1416 1778 42.1663
29.259 1852 43.0349
29.3764 1878 43.3359
29.4939 1857 43.0929
29.6113 1747 41.7971
29.7288 1758 41.9285
29.8463 1560 39.4968
29.9638 1547 39.3319
30.0812 1537 39.2046
30.1987 1545 39.3065
30.3162 1633 40.4104
30.4337 1574 39.6737
30.5512 1652 40.6448
30.6687 1628 40.3485
30.7862 1668 40.8412
30.9037 1668 40.8412
31.0212 1747 41.7971
31.1387 1700 41.2311
31.2562 1708 41.328
31.3737 1660 40.7431
31.4912 1626 40.3237
31.6087 1549 39.3573
31.7262 1543 39.281
31.8436 1506 38.8072
31.9611 1439 37.9342
32.0785 1492 38.6264
32.1959 1543 39.281
32.3134 1525 39.0512
32.4308 1657 40.7063
32.5482 1594 39.9249
32.6655 1704 41.2795
32.7829 1793 42.3438
32.9002 1796 42.3792
33.0176 1794 42.3556
33.1349 1717 41.4367
33.2522 1701 41.2432
33.3694 1616 40.1995
33.4867 1468 38.3145
33.6039 1440 37.9473
33.7211 1395 37.3497
33.8383 1427 37.7757
33.9554 1460 38.2099
34.0725 1517 38.9487
34.1896 1516 38.9358
34.3067 1615 40.1871
34.4237 1581 39.7618
34.5407 1669 40.8534
34.6577 1541 39.2556
34.7746 1575 39.6863
34.8915 1556 39.4462
35.0084 1523 39.0256
35.1252 1514 38.9102
35.242 1528 39.0896
35.3587 1479 38.4578
35.4755 1456 38.1576
35.5921 1371 37.027
35.7088 1402 37.4433
35.8254 1374 37.0675
35.9419 1471 38.3536
36.0584 1479 38.4578
36.1749 1496 38.6782
36.2913 1603 40.0375
36.4077 1544 39.2938
36.524 1494 38.6523
36.6403 1527 39.0768
36.7565 1374 37.0675
36.8727 1280 35.7771
36.9889 1260 35.4965
37.1049 1112 33.3467
37.221 0 1
37.3369 0 1
37.4529 0 1
37.5687 0 1
37.6845 0 1
37.8003 0 1
37.916 0 1
38.0316 0 1
38.1472 0 1
40.5851 0 1
40.7008 0 1
40.8164 0 1
40.9322 0 1
41.048 0 1
41.1639 0 1
41.2798 0 1
41.3958 0 1
41.5118 0 1
41.6279 0 1
41.744 774 27.8209
41.8602 909 30.1496
41.9765 971 31.1609
42.0928 934 30.5614
42.2091 989 31.4484
42.3255 973 31.1929
42.4419 992 31.496
42.5584 959 30.9677
42.675 1019 31.9218
42.7915 1162 34.0881
42.9081 1211 34.7994
43.0248 1213 34.8281
43.1415 1314 36.2491
43.2582 1332 36.4966
43.375 1337 36.565
43.4918 1336 36.5513
43.6087 1339 36.5923
43.7256 1292 35.9444
43.8425 1318 36.3043
43.9595 1165 34.1321
44.0765 1271 35.6511
44.1935 1228 35.0428
44.3106 1213 34.8281
44.4277 1130 33.6155
44.5448 1094 33.0757
44.6619 1195 34.5688
44.7791 1233 35.1141
44.8963 1213 34.8281
45.0136 1370 37.0135
45.1308 1366 36.9594
45.2481 1423 37.7227
45.3654 1362 36.9053
45.4827 1435 37.8814
45.6001 1492 38.6264
45.7174 1323 36.3731
45.8348 1296 36
45.9522 1191 34.5109
46.0697 1101 33.1813
46.1871 1101 33.1813
46.3046 1177 34.3074
46.422 1206 34.7275
46.5395 1261 35.5106
46.657 1250 35.3553
46.7745 1434 37.8682
46.892 1392 37.3095
47.0096 1344 36.6606
47.1271 1400 37.4166
47.2446 1402 37.4433
47.3622 1306 36.1386
47.4797 1384 37.2022
47.5973 1360 36.8782
47.7149 1288 35.8887
47.8324 1304 36.1109
47.95 1253 35.3977
48.0675 1133 33.6601
48.1851 1107 33.2716
48.3027 1212 34.8138
48.4202 1284 35.8329
48.5378 1283 35.819
48.6554 1341 36.6197
48.7729 1458 38.1838
48.8904 1397 37.3765
49.008 1456 38.1576
49.1255 1356 36.8239
49.243 1345 36.6742
49.3605 1228 35.0428
49.478 1118 33.4365
49.5955 1099 33.1512
49.713 1070 32.7109
49.8304 1110 33.3167
49.9479 1134 33.6749
50.0653 1260 35.4965
50.1827 1263 35.5387
50.3001 1334 36.524
50.4175 1386 37.229
50.5348 1401 37.4299
50.6521 1328 36.4417
50.7694 1427 37.7757
50.8867 1422 37.7094
51.004 1392 37.3095
51.1212 1369 37
51.2384 1340 36.606
51.3556 1277 35.7351
51.4727 1269 35.623
51.5899 1253 35.3977
51.707 1256 35.4401
51.824 1378 37.1214
51.9411 1433 37.855
52.0581 1588 39.8497
52.175 1636 40.4475
52.2919 1637 40.4599
52.4088 1710 41.3521
52.5257 1800 42.4264
52.6425 1805 42.4853
52.7593 1780 42.19
52.876 1713 41.3884
52.9927 1631 40.3856
53.1094 1623 40.2865
53.226 1525 39.0512
53.3426 1434 37.8682
53.4591 1370 37.0135
53.5756 1433 37.855
53.692 1473 38.3797
53.8084 1386 37.229
53.9248 1434 37.8682
54.0411 1364 36.9324
54.1573 1317 36.2905
54.2735 0 1
54.3896 0 1
54.5057 0 1
54.6217 0 1
54.7377 0 1
54.8537 0 1
54.9695 0 1
55.0853 0 1
55.2011 0 1
55.3168 0 1
55.4324 0 1
57.824 0 1
57.9396 0 1
58.0553 0 1
58.1711 0 1
58.2869 0 1
58.4028 0 1
58.5187 0 1
58.6347 0 1
58.7508 0 1
58.8669 0 1
58.983 1059 32.5423
59.0992 1191 34.5109
59.2155 1304 36.1109
59.3318 1443 37.9868
59.4482 1552 39.3954
59.5646 1514 38.9102
59.681 1581 39.7618
59.7975 1606 40.0749
59.9141 1587 39.8372
60.0306 1585 39.8121
60.1473 1551 39.3827
60.2639 1445 38.0132
60.3807 1445 38.0132
60.4974 1487 38.5616
60.6142 1536 39.1918
60.731 1664 40.7922
60.8479 1667 40.8289
60.9648 1732 41.6173
61.0818 1788 42.2847
61.1987 1644 40.5463
61.3158 1726 41.5452
61.4328 1716 41.4246
61.5499 1649 40.6079
61.667 1487 38.5616
61.7841 1366 36.9594
61.9013 1383 37.1887
62.0185 1345 36.6742
62.1357 1397 37.3765
62.253 1513 38.8973
62.3702 1525 39.0512
62.4875 1595 39.9375
62.6049 1650 40.6202
62.7222 1747 41.7971
62.8396 1701 41.2432
62.9569 1665 40.8044
63.0743 1639 40.4846
63.1918 1672 40.8901
63.3092 1685 41.0488
63.4267 1629 40.3609
63.5441 1544 39.2938
63.6616 1562 39.5221
63.7791 1459 38.1969
63.8966 1395 37.3497
64.0142 1403 37.4566
64.1317 1573 39.6611
64.2492 1542 39.2683
64.3668 1698 41.2068
64.4843 1775 42.1307
64.6019 1712 41.3763
64.7195 1666 40.8167
64.837 1753 41.8688
64.9546 1717 41.4367
65.0722 1613 40.1622
65.1898 1532 39.1408
65.3074 1338 36.5787
65.4249 1328 36.4417
65.5425 1247 35.3129
65.6601 1257 35.4542
65.7777 1387 37.2424
65.8952 1381 37.1618
66.0128 1484 38.5227
66.1304 1581 39.7618
66.2479 1606 40.0749
66.3655 1657 40.7063
66.483 1686 41.0609
66.6005 1700 41.2311
66.718 1643 40.5339
66.8355 1719 41.4608
66.953 1532 39.1408
67.0705 1562 39.5221
67.1879 1495 38.6652
67.3054 1473 38.3797
67.4228 1353 36.7831
67.5402 1299 36.0416
67.6576 1367 36.973
67.7749 1401 37.4299
67.8923 1493 38.6394
68.0096 1547 39.3319
68.1269 1577 39.7115
68.2442 1669 40.8534
68.3614 1671 40.8779
68.4787 1590 39.8748
68.5958 1589 39.8623
68.713 1485 38.5357
68.8302 1429 37.8021
68.9473 1386 37.229
69.0643 1230 35.0714
69.1814 1144 33.8231
69.2984 1139 33.7491
69.4154 1325 36.4005
69.5323 1430 37.8153
69.6492 1528 39.0896
69.7661 1493 38.6394
69.8829 1513 38.8973
69.9997 1574 39.6737
70.1165 1480 38.4708
70.2332 1435 37.8814
70.3499 1404 37.47
70.4665 1351 36.756
70.5831 1263 35.5387
70.6996 1187 34.4529
70.8161 1120 33.4664
70.9326 1048 32.3728
71.049 942 30.692
71.1653 745 27.2947
71.2817 681 26.096
71.3979 658 25.6515
71.5141 642 25.3377
71.6303 614 24.779
71.7464 523 22.8692
71.8624 0 1
71.9784 0 1
72.0944 0 1
72.2102 0 1
72.3261 0 1
72.4418 0 1
72.5575 0 1
72.6732 0 1
75.1054 0 1
75.2209 0 1
75.3365 0 1
75.4521 0 1
75.5678 0 1
75.6835 0 1
75.7993 0 1
75.9151 0 1
76.031 0 1
76.147 932 30.5287
76.263 996 31.5595
76.3791 1073 32.7567
76.4952 1091 33.0303
76.6113 1117 33.4215
76.7276 1114 33.3766
76.8438 1251 35.3695
76.9601 1317 36.2905
77.0765 1377 37.108
77.1929 1373 37.054
77.3093 1404 37.47
77.4258 1439 37.9342
77.5423 1403 37.4566
77.6589 1390 37.2827
77.7755 1277 35.7351
77.8921 1143 33.8083
78.0088 1064 32.619
78.1256 997 31.5753
78.2423 1003 31.6702
78.3591 1070 32.7109
78.4759 1118 33.4365
78.5928 1232 35.0999
78.7097 1272 35.6651
78.8266 1315 36.2629
78.9436 1427 37.7757
79.0606 1359 36.8646
79.1776 1361 36.8917
79.2946 1416 37.6298
79.4117 1408 37.5233
79.5288 1480 38.4708
79.6459 1387 37.2424
79.7631 1347 36.7015
79.8802 1320 36.3318
79.9974 1195 34.5688
80.1147 1133 33.6601
80.2319 1152 33.9411
80.3491 1220 34.9285
80.4664 1212 34.8138
80.5837 1291 35.9305
80.701 1392 37.3095
80.8183 1410 37.55
80.9357 1494 38.6523
81.053 1471 38.3536
81.1704 1508 38.833
81.2877 1467 38.3014
81.4051 1432 37.8418
81.5225 1299 36.0416
81.6399 1131 33.6303
81.7573 1102 33.1964
81.8747 1060 32.5576
81.9922 1053 32.45
82.1096 1208 34.7563
82.227 1238 35.1852
82.3444 1244 35.2704
82.4619 1352 36.7696
82.5793 1453 38.1182
82.6967 1395 37.3497
82.8142 1431 37.8286
82.9316 1563 39.5348
83.049 1438 37.921
83.1664 1552 39.3954
83.2838 1449 38.0657
83.4012 1421 37.6962
83.5186 1271 35.6511
83.636 1304 36.1109
83.7534 1266 35.5809
83.8708 1120 33.4664
83.9881 1138 33.7343
84.1055 1268 35.609
84.2228 1272 35.6651
84.3401 1369 37
84.4575 1453 38.1182
84.5747 1497 38.6911
84.692 1495 38.6652
84.8093 1485 38.5357
84.9265 1419 37.6696
85.0437 1323 36.3731
85.1609 1257 35.4542
85.2781 1196 34.5832
85.3952 1117 33.4215
85.5123 1046 32.3419
85.6294 1090 33.0151
85.7465 1222 34.9571
85.8636 1227 35.0286
85.9806 1382 37.1753
86.0976 1433 37.855
86.2145 1434 37.8682
86.3315 1411 37.5633
86.4484 1506 38.8072
86.5652 1488 38.5746
86.682 1518 38.9615
86.7988 1482 38.4968
86.9156 1482 38.4968
87.0323 1427 37.7757
87.149 1425 37.7492
87.2657 1357 36.8375
87.3823 1181 34.3657
87.4988 1061 32.573
87.6154 1076 32.8024
87.7318 1058 32.5269
87.8483 1072 32.7414
87.9647 1163 34.1028
88.081 1180 34.3511
88.1973 1208 34.7563
88.3136 1032 32.1248
88.4298 1065 32.6343
88.546 981 31.3209
88.6621 829 28.7924
88.7781 639 25.2784
88.8942 0 1
89.0101 0 1
89.126 0 1
89.2419 0 1
89.3577 0 1
89.4734 0 1
89.5891 0 1
89.7047 0 1
89.8203 0 1
89.9358 0 1
92.3269 0 1
92.4424 0 1
92.558 0 1
92.6736 0 1
92.7893 0 1
92.905 0 1
93.0208 0 1
93.1366 0 1
93.2525 0 1
93.3685 0 1
93.4845 0 1
93.6005 1183 34.3948
93.7167 1239 35.1994
93.8328 1329 36.4555
93.949 1351 36.756
94.0653 1280 35.7771
94.1816 1288 35.8887
94.2979 1230 35.0714
94.4143 1127 33.5708
94.5307 1080 32.8634
94.6472 1097 33.121
94.7637 1090 33.0151
94.8803 1184 34.4093
94.9969 1316 36.2767
95.1135 1342 36.6333
95.2302 1412 37.5766
95.3469 1434 37.8682
95.4637 1397 37.3765
95.5805 1532 39.1408
95.6973 1546 39.3192
95.8142 1510 38.8587
95.9311 1469 38.3275
96.048 1474 38.3927
96.1649 1443 37.9868
96.2819 1424 37.7359
96.3989 1370 37.0135
96.516 1296 36
96.633 1242 35.242
96.7501 1244 35.2704
96.8673 1254 35.4119
96.9844 1295 35.9861
97.1016 1411 37.5633
97.2188 1458 38.1838
97.336 1528 39.0896
97.4532 1533 39.1535
97.5704 1562 39.5221
97.6877 1599 39.9875
97.805 1470 38.3406
97.9223 1377 37.108
98.0396 1233 35.1141
98.1569 1171 34.2199
98.2743 1089 33
98.3916 1079 32.8481
98.509 1242 35.242
98.6264 1274 35.6931
98.7438 1397 37.3765
98.8612 1447 38.0395
98.9786 1485 38.5357
99.096 1527 39.0768
99.2134 1572 39.6485
99.3308 1578 39.724
99.4482 1638 40.4722
99.5656 1560 39.4968
99.6831 1610 40.1248
99.8005 1576 39.6989
99.9179 1538 39.2173
100.035 1549 39.3573
100.153 1332 36.4966
100.27 1317 36.2905
100.388 1348 36.7151
100.505 1406 37.4967
100.622 1476 38.4187
100.74 1542 39.2683
100.857 1643 40.5339
100.975 1640 40.4969
101.092 1579 39.7366
101.209 1716 41.4246
101.327 1661 40.7554
101.444 1581 39.7618
101.561 1343 36.647
101.679 1309 36.1801
101.796 1228 35.0428
101.913 1177 34.3074
102.03 1168 34.176
102.148 1325 36.4005
102.265 1443 37.9868
102.382 1575 39.6863
102.499 1580 39.7492
102.616 1608 40.0999
102.733 1643 40.5339
102.851 1600 40
102.968 1637 40.4599
103.085 1742 41.7373
103.202 1679 40.9756
103.319 1663 40.7799
103.436 1574 39.6737
103.552 1554 39.4208
103.669 1460 38.2099
103.786 1380 37.1484
103.903 1414 37.6032
104.02 1450 38.0789
104.137 1512 38.8844
104.253 1566 39.5727
104.37 1731 41.6053
104.487 1687 41.0731
104.603 1709 41.3401
104.72 1704 41.2795
104.836 1578 39.724
104.953 1519 38.9744
105.069 1352 36.7696
105.186 1219 34.9142
105.302 1074 32.7719
105.418 1094 33.0757
105.535 1033 32.1403
105.651 1035 32.1714
105.767 1016 31.8748
105.883 1083 32.909
105.999 1019 31.9218
106.115 0 1
106.231 0 1
106.347 0 1
106.463 0 1
106.579 0 1
106.694 0 1
106.81 0 1
106.926 0 1
107.041 0 1
107.157 0 1
109.576 0 1
109.692 0 1
109.807 0 1
109.923 0 1
110.039 0 1
110.155 0 1
110.27 0 1
110.386 0 1
110.502 0 1
110.618 748 27.3496
110.735 892 29.8664
110.851 1099 33.1512
110.967 1203 34.6843
111.083 1232 35.0999
111.199 1440 37.9473
111.316 1453 38.1182
111.432 1489 38.5876
111.549 1539 39.2301
111.665 1530 39.1152
111.782 1544 39.2938
111.898 1554 39.4208
112.015 1477 38.4318
112.132 1404 37.47
112.248 1371 37.027
112.365 1279 35.7631
112.482 1272 35.6651
112.599 1417 37.6431
112.716 1435 37.8814
112.832 1577 39.7115
112.949 1547 39.3319
113.066 1646 40.5709
113.183 1619 40.2368
113.3 1637 40.4599
113.417 1587 39.8372
113.534 1449 38.0657
113.652 1284 35.8329
113.769 1256 35.4401
113.886 1154 33.9706
114.003 1168 34.176
114.12 1165 34.1321
114.238 1302 36.0832
114.355 1434 37.8682
114.472 1444 38
114.589 1603 40.0375
114.707 1517 38.9487
114.824 1538 39.2173
114.942 1596 39.95
115.059 1577 39.7115
115.176 1629 40.3609
115.294 1567 39.5854
115.411 1530 39.1152
115.529 1604 40.05
115.646 1472 38.3667
115.764 1389 37.2693
115.881 1345 36.6742
115.999 1333 36.5103
116.116 1386 37.229
116.234 1430 37.8153
116.351 1470 38.3406
116.469 1561 39.5095
116.586 1657 40.7063
116.704 1581 39.7618
116.821 1646 40.5709
116.939 1696 41.1825
117.056 1606 40.0749
117.174 1435 37.8814
117.291 1307 36.1525
117.409 1143 33.8083
117.526 1157 34.0147
117.644 1173 34.2491
117.761 1183 34.3948
117.879 1316 36.2767
117.996 1382 37.1753
118.114 1438 37.921
118.231 1540 39.2428
118.349 1503 38.7685
118.466 1491 38.6135
118.584 1556 39.4462
118.701 1576 39.6989
118.819 1552 39.3954
118.936 1470 38.3406
119.053 1464 38.2623
119.171 1377 37.108
119.288 1347 36.7015
119.405 1376 37.0945
119.523 1273 35.6791
119.64 1266 35.5809
119.757 1297 36.0139
119.875 1350 36.7423
119.992 1445 38.0132
120.109 1445 38.0132
120.226 1466 38.2884
120.343 1474 38.3927
120.46 1499 38.7169
120.578 1538 39.2173
120.695 1414 37.6032
120.812 1392 37.3095
120.929 1195 34.5688
121.046 1161 34.0735
121.163 1043 32.2955
121.279 1032 32.1248
121.396 1025 32.0156
121.513 1080 32.8634
121.63 1140 33.7639
121.747 1158 34.0294
121.863 1238 35.1852
121.98 1155 33.9853
122.097 1193 34.5398
122.213 1173 34.2491
122.33 1099 33.1512
122.446 1156 34
122.563 1018 31.9061
122.679 935 30.5778
122.795 904 30.0666
122.912 857 29.2746
123.028 770 27.7489
123.144 699 26.4386
123.26 634 25.1794
123.377 0 1
123.493 0 1
123.609 0 1
123.725 0 1
123.84 0 1
123.956 0 1
124.072 0 1
124.188 0 1
124.303 0 1
124.419 0 1
126.852 0 1
126.968 0 1
127.083 0 1
127.199 0 1
127.315 0 1
127.431 0 1
127.547 0 1
127.663 0 1
127.779 0 1
127.895 0 1
128.011 0 1
128.127 0 1
128.243 0 1
128.359 1371 37.027
128.476 1407 37.51
128.592 1430 37.8153
128.708 1365 36.9459
128.825 1395 37.3497
128.941 1490 38.6005
129.058 1490 38.6005
129.174 1645 40.5586
129.291 1632 40.398
129.408 1665 40.8044
129.524 1606 40.0749
129.641 1613 40.1622
129.758 1564 39.5474
129.875 1438 37.921
129.992 1319 36.318
130.108 1191 34.5109
130.225 1218 34.8999
130.342 1181 34.3657
130.459 1254 35.4119
130.576 1378 37.1214
130.693 1468 38.3145
130.81 1489 38.5876
130.928 1544 39.2938
131.045 1528 39.0896
131.162 1466 38.2884
131.279 1611 40.1373
131.396 1602 40.025
131.513 1638 40.4722
131.631 1575 39.6863
131.748 1546 39.3192
131.865 1486 38.5487
131.983 1459 38.1969
132.1 1361 36.8917
132.217 1400 37.4166
132.335 1454 38.1314
132.452 1500 38.7298
132.57 1523 39.0256
132.687 1657 40.7063
132.804 1641 40.5093
132.922 1654 40.6694
133.039 1645 40.5586
133.157 1747 41.7971
133.274 1672 40.8901
133.392 1485 38.5357
133.509 1423 37.7227
133.627 1363 36.9188
133.744 1237 35.171
133.862 1222 34.9571
133.979 1271 35.6511
134.097 1390 37.2827
134.214 1450 38.0789
134.332 1464 38.2623
134.449 1550 39.37
134.567 1559 39.4842
134.684 1627 40.3361
134.802 1661 40.7554
134.919 1611 40.1373
135.037 1562 39.5221
135.154 1615 40.1871
135.272 1577 39.7115
135.389 1585 39.8121
135.507 1613 40.1622
135.624 1496 38.6782
135.742 1462 38.2361
135.859 1412 37.5766
135.977 1528 39.0896
136.094 1488 38.5746
136.211 1594 39.9249
136.329 1630 40.3733
136.446 1685 41.0488
136.564 1686 41.0609
136.681 1715 41.4126
136.798 1662 40.7676
136.915 1619 40.2368
137.033 1572 39.6485
137.15 1470 38.3406
137.267 1373 37.054
137.384 1324 36.3868
137.502 1148 33.8821
137.619 1220 34.9285
137.736 1372 37.0405
137.853 1404 37.47
137.97 1503 38.7685
138.087 1496 38.6782
138.204 1543 39.281
138.321 1553 39.4081
138.438 1578 39.724
138.555 1702 41.2553
138.672 1669 40.8534
138.788 1571 39.6358
138.905 1411 37.5633
139.022 1368 36.9865
139.139 1343 36.647
139.255 1296 36
139.372 1238 35.1852
139.488 1187 34.4529
139.605 1114 33.3766
139.721 1079 32.8481
139.838 1143 33.8083
139.954 1031 32.1092
140.071 1055 32.4808
140.187 935 30.5778
140.303 858 29.2916
140.419 899 29.9833
140.535 807 28.4077
140.652 734 27.0924
140.768 0 1
140.884 0 1
141 0 1
141.115 0 1
141.231 0 1
141.347 0 1
141.463 0 1
141.578 0 1
141.694 0 1
144.104 0 1
144.219 0 1
144.335 0 1
144.45 0 1
144.566 0 1
144.682 0 1
144.798 0 1
144.914 0 1
145.03 0 1
145.146 1198 34.6121
145.262 1232 35.0999
145.378 1301 36.0694
145.494 1372 37.0405
145.61 1238 35.1852
145.726 1261 35.5106
145.842 1238 35.1852
145.959 1172 34.2345
146.075 1079 32.8481
146.192 960 30.9839
146.308 999 31.607
146.425 1032 32.1248
146.541 1084 32.9242
146.658 1113 33.3617
146.774 1102 33.1964
146.891 1209 34.7707
147.008 1229 35.0571
147.125 1210 34.7851
147.241 1279 35.7631
147.358 1242 35.242
147.475 1194 34.5543
147.592 1239 35.1994
147.709 1199 34.6266
147.826 1245 35.2846
147.943 1161 34.0735
148.06 1180 34.3511
148.177 1085 32.9393
148.294 1121 33.4813
148.411 1177 34.3074
148.528 1169 34.1906
148.645 1226 35.0143
148.762 1197 34.5977
148.88 1278 35.7491
148.997 1249 35.3412
149.114 1267 35.5949
149.231 1276 35.7211
149.349 1382 37.1753
149.466 1248 35.327
149.583 1158 34.0294
149.701 1050 32.4037
149.818 1021 31.9531
149.935 1010 31.7805
150.053 1007 31.7333
150.17 1021 31.9531
150.287 1043 32.2955
150.405 1111 33.3317
150.522 1126 33.5559
150.64 1180 34.3511
150.757 1192 34.5254
150.875 1172 34.2345
150.992 1250 35.3553
151.11 1299 36.0416
151.227 1211 34.7994
151.344 1157 34.0147
151.462 1150 33.9116
151.579 1157 34.0147
151.697 1070 32.7109
151.814 1159 34.0441
151.932 1047 32.3574
152.049 1076 32.8024
152.167 1105 33.2415
152.284 1119 33.4515
152.402 1158 34.0294
152.519 1252 35.3836
152.636 1228 35.0428
152.754 1217 34.8855
152.871 1230 35.0714
152.989 1205 34.7131
153.106 1106 33.2566
153.223 1121 33.4813
153.341 1079 32.8481
153.458 992 31.496
153.575 947 30.7734
153.693 963 31.0322
153.81 934 30.5614
153.927 1058 32.5269
154.044 1048 32.3728
154.162 1092 33.0454
154.279 1051 32.4191
154.396 1072 32.7414
154.513 1106 33.2566
154.63 1094 33.0757
154.747 1129 33.6006
154.864 1093 33.0606
154.981 1104 33.2265
155.098 1051 32.4191
155.215 1024 32
155.332 1013 31.8277
155.449 1028 32.0624
155.566 994 31.5278
155.683 1076 32.8024
155.8 1092 33.0454
155.917 1064 32.619
156.033 1047 32.3574
156.15 0 1
156.267 0 1
156.383 0 1
156.5 0 1
156.617 0 1
156.733 0 1
156.85 0 1
156.966 0 1
157.082 0 1
157.199 0 1
157.315 0 1
157.431 0 1
157.547 0 1
157.664 0 1
157.78 0 1
157.896 0 1
158.012 0 1
158.128 0 1
158.244 0 1
158.359 0 1
158.475 0 1
158.591 0 1
158.706 0 1
