
6.15755 0 1
6.2731 0 1
6.3887 0 1
6.50437 0 1
6.62009 0 1
6.73587 0 1
6.8517 0 1
6.96759 0 1
7.08353 0 1
7.19952 0 1
7.31557 0 1
7.43166 0 1
7.54781 0 1
7.664 0 1
7.78024 0 1
7.89653 0 1
8.01286 0 1
8.12924 0 1
8.24567 0 1
8.36213 0 1
8.47864 0 1
8.59519 0 1
8.71178 0 1
8.82841 0 1
8.94508 0 1
9.06179 0 1
9.17853 0 1
9.29531 0 1
9.41212 0 1
9.52897 0 1
9.64584 0 1
9.76276 0 1
9.8797 0 1
9.99667 0 1
10.1137 0 1
10.2307 0 1
10.3478 0 1
10.4648 0 1
10.5819 0 1
10.6991 0 1
10.8162 0 1
10.9334 0 1
11.0506 0 1
11.1678 0 1
11.285 0 1
11.4023 0 1
11.5196 0 1
11.6369 0 1
11.7542 0 1
11.8715 0 1
11.9888 0 1
12.1062 0 1
12.2235 0 1
12.3409 0 1
12.4582 0 1
12.5756 0 1
12.693 0 1
12.8104 0 1
12.9278 0 1
13.0452 0 1
13.1626 0 1
13.28 0 1
13.3974 0 1
13.5149 0 1
13.6323 0 1
13.7497 0 1
13.8671 0 1
13.9845 0 1
14.1019 0 1
14.2193 0 1
14.3367 0 1
14.4541 0 1
14.5714 0 1
14.6888 0 1
14.8062 0 1
14.9235 0 1
15.0408 797 28.2312
15.1581 871 29.5127
15.2755 893 29.8831
15.3927 866 29.4279
15.51 899 29.9833
15.6273 848 29.1204
15.7445 843 29.0345
15.8617 821 28.6531
15.9789 868 29.4618
16.0961 899 29.9833
16.2132 791 28.1247
16.3304 872 29.5296
16.4475 861 29.3428
16.5646 927 30.4467
16.6816 933 30.545
16.7986 936 30.5941
16.9156 992 31.496
17.0326 1010 31.7805
17.1496 991 31.4802
17.2665 968 31.1127
17.3833 1028 32.0624
17.5002 954 30.8869
17.617 997 31.5753
17.7338 872 29.5296
17.8505 900 30
17.9672 867 29.4449
18.0839 792 28.1425
18.2005 872 29.5296
18.3171 911 30.1828
18.4337 931 30.5123
18.5502 962 31.0161
18.6666 975 31.225
18.7831 1020 31.9374
18.8994 1001 31.6386
19.0158 967 31.0966
19.1321 926 30.4302
19.2483 898 29.9666
19.3645 833 28.8617
19.4806 791 28.1247
19.5967 699 26.4386
19.7128 684 26.1534
19.8288 623 24.96
19.9447 606 24.6171
20.0606 0 1
20.1764 0 1
20.2922 0 1
20.4079 0 1
20.5236 0 1
20.6392 0 1
20.7548 0 1
20.8702 0 1
23.3078 0 1
23.4233 0 1
23.539 0 1
23.6547 0 1
23.7704 0 1
23.8862 0 1
24.0021 0 1
24.118 0 1
24.234 0 1
24.35 0 1
24.4661 338 18.3848
24.5822 450 21.2132
24.6984 521 22.8254
24.8146 567 23.8118
24.9309 583 24.1454
25.0472 684 26.1534
25.1636 643 25.3574
25.28 808 28.4253
25.3965 823 28.688
25.513 861 29.3428
25.6296 964 31.0483
25.7462 949 30.8058
25.8628 1043 32.2955
25.9795 987 31.4166
26.0962 1042 32.28
26.213 1027 32.0468
26.3298 1010 31.7805
26.4466 867 29.4449
26.5635 874 29.5635
26.6804 852 29.189
26.7973 880 29.6648
26.9143 889 29.8161
27.0313 917 30.282
27.1483 888 29.7993
27.2653 929 30.4795
27.3824 919 30.315
27.4996 995 31.5436
27.6167 959 30.9677
27.7339 997 31.5753
27.8511 922 30.3645
27.9683 871 29.5127
28.0855 905 30.0832
28.2028 830 28.8097
28.3201 832 28.8444
28.4374 809 28.4429
28.5547 792 28.1425
28.6721 808 28.4253
28.7894 893 29.8831
28.9068 898 29.9666
29.0242 925 30.4138
29.1416 1023 31.9844
29.259 956 30.9192
29.3764 988 31.4325
29.4939 954 30.8869
29.6113 999 31.607
29.7288 910 30.1662
29.8463 870 29.4958
29.9638 853 29.2062
30.0812 839 28.9655
30.1987 864 29.3939
30.3162 861 29.3428
30.4337 835 28.8964
30.5512 882 29.6985
30.6687 889 29.8161
30.7862 897 29.95
30.9037 981 31.3209
31.0212 918 30.2985
31.1387 936 30.5941
31.2562 930 30.4959
31.3737 899 29.9833
31.4912 928 30.4631
31.6087 839 28.9655
31.7262 845 29.0689
31.8436 763 27.6225
31.9611 781 27.9464
32.0785 804 28.3549
32.1959 745 27.2947
32.3134 815 28.5482
32.4308 907 30.1164
32.5482 889 29.8161
32.6655 885 29.7489
32.7829 942 30.692
32.9002 986 31.4006
33.0176 989 31.4484
33.1349 982 31.3369
33.2522 956 30.9192
33.3694 908 30.133
33.4867 786 28.0357
33.6039 760 27.5681
33.7211 750 27.3861
33.8383 823 28.688
33.9554 802 28.3196
34.0725 850 29.1548
34.1896 875 29.5804
34.3067 858 29.2916
34.4237 910 30.1662
34.5407 896 29.9333
34.6577 825 28.7228
34.7746 942 30.692
34.8915 858 29.2916
35.0084 832 28.8444
35.1252 870 29.4958
35.242 844 29.0517
35.3587 776 27.8568
35.4755 802 28.3196
35.5921 755 27.4773
35.7088 770 27.7489
35.8254 748 27.3496
35.9419 806 28.3901
36.0584 776 27.8568
36.1749 849 29.1376
36.2913 778 27.8927
36.4077 823 28.688
36.524 783 27.9821
36.6403 768 27.7128
36.7565 783 27.9821
36.8727 786 28.0357
36.9889 697 26.4008
37.1049 610 24.6982
37.221 0 1
37.3369 0 1
37.4529 0 1
37.5687 0 1
37.6845 0 1
37.8003 0 1
37.916 0 1
38.0316 0 1
38.1472 0 1
40.5851 0 1
40.7008 0 1
40.8164 0 1
40.9322 0 1
41.048 0 1
41.1639 0 1
41.2798 0 1
41.3958 0 1
41.5118 0 1
41.6279 0 1
41.744 415 20.3715
41.8602 448 21.166
41.9765 502 22.4054
42.0928 525 22.9129
42.2091 532 23.0651
42.3255 480 21.9089
42.4419 565 23.7697
42.5584 501 22.383
42.675 554 23.5372
42.7915 572 23.9165
42.9081 678 26.0384
43.0248 703 26.5141
43.1415 687 26.2107
43.2582 741 27.2213
43.375 751 27.4044
43.4918 728 26.9815
43.6087 765 27.6586
43.7256 778 27.8927
43.8425 679 26.0576
43.9595 752 27.4226
44.0765 648 25.4558
44.1935 653 25.5539
44.3106 653 25.5539
44.4277 617 24.8395
44.5448 553 23.516
44.6619 584 24.1661
44.7791 657 25.632
44.8963 647 25.4362
45.0136 687 26.2107
45.1308 746 27.313
45.2481 759 27.55
45.3654 772 27.7849
45.4827 715 26.7395
45.6001 789 28.0891
45.7174 814 28.5307
45.8348 665 25.7876
45.9522 637 25.2389
46.0697 624 24.98
46.1871 602 24.5357
46.3046 605 24.5967
46.422 682 26.1151
46.5395 702 26.4953
46.657 712 26.6833
46.7745 717 26.7769
46.892 742 27.2397
47.0096 764 27.6405
47.1271 718 26.7955
47.2446 757 27.5136
47.3622 756 27.4955
47.4797 718 26.7955
47.5973 701 26.4764
47.7149 693 26.3249
47.8324 706 26.5707
47.95 635 25.1992
48.0675 606 24.6171
48.1851 641 25.318
48.3027 644 25.3772
48.4202 639 25.2784
48.5378 763 27.6225
48.6554 716 26.7582
48.7729 799 28.2666
48.8904 773 27.8029
49.008 766 27.6767
49.1255 755 27.4773
49.243 716 26.7582
49.3605 661 25.7099
49.478 642 25.3377
49.5955 616 24.8193
49.713 598 24.454
49.8304 617 24.8395
49.9479 596 24.4131
50.0653 644 25.3772
50.1827 707 26.5895
50.3001 734 27.0924
50.4175 729 27
50.5348 753 27.4408
50.6521 701 26.4764
50.7694 738 27.1662
50.8867 718 26.7955
51.004 743 27.258
51.1212 670 25.8844
51.2384 684 26.1534
51.3556 680 26.0768
51.4727 650 25.4951
51.5899 583 24.1454
51.707 566 23.7908
51.824 618 24.8596
51.9411 654 25.5734
52.0581 706 26.5707
52.175 703 26.5141
52.2919 778 27.8927
52.4088 787 28.0535
52.5257 741 27.2213
52.6425 775 27.8388
52.7593 770 27.7489
52.876 701 26.4764
52.9927 695 26.3629
53.1094 639 25.2784
53.226 588 24.2487
53.3426 595 24.3926
53.4591 612 24.7386
53.5756 558 23.622
53.692 630 25.0998
53.8084 614 24.779
53.9248 583 24.1454
54.0411 537 23.1733
54.1573 531 23.0434
54.2735 0 1
54.3896 0 1
54.5057 0 1
54.6217 0 1
54.7377 0 1
54.8537 0 1
54.9695 0 1
55.0853 0 1
55.2011 0 1
55.3168 0 1
55.4324 0 1
57.824 0 1
57.9396 0 1
58.0553 0 1
58.1711 0 1
58.2869 0 1
58.4028 0 1
58.5187 0 1
58.6347 0 1
58.7508 0 1
58.8669 0 1
58.983 521 22.8254
59.0992 575 23.9792
59.2155 655 25.593
59.3318 680 26.0768
59.4482 717 26.7769
59.5646 774 27.8209
59.681 811 28.4781
59.7975 840 28.9828
59.9141 890 29.8329
60.0306 814 28.5307
60.1473 786 28.0357
60.2639 831 28.8271
60.3807 758 27.5318
60.4974 807 28.4077
60.6142 796 28.2135
60.731 868 29.4618
60.8479 950 30.8221
60.9648 957 30.9354
61.0818 966 31.0805
61.1987 910 30.1662
61.3158 926 30.4302
61.4328 952 30.8545
61.5499 833 28.8617
61.667 808 28.4253
61.7841 769 27.7308
61.9013 737 27.1477
62.0185 758 27.5318
62.1357 784 28
62.253 793 28.1603
62.3702 889 29.8161
62.4875 902 30.0333
62.6049 957 30.9354
62.7222 960 30.9839
62.8396 1024 32
62.9569 910 30.1662
63.0743 959 30.9677
63.1918 955 30.9031
63.3092 924 30.3974
63.4267 946 30.7571
63.5441 849 29.1376
63.6616 856 29.2575
63.7791 788 28.0713
63.8966 729 27
64.0142 706 26.5707
64.1317 737 27.1477
64.2492 842 29.0172
64.3668 910 30.1662
64.4843 919 30.315
64.6019 995 31.5436
64.7195 924 30.3974
64.837 977 31.257
64.9546 898 29.9666
65.0722 907 30.1164
65.1898 844 29.0517
65.3074 725 26.9258
65.4249 780 27.9285
65.5425 750 27.3861
65.6601 735 27.1109
65.7777 785 28.0179
65.8952 882 29.6985
66.0128 869 29.4788
66.1304 901 30.0167
66.2479 941 30.6757
66.3655 966 31.0805
66.483 1005 31.7017
66.6005 940 30.6594
66.718 933 30.545
66.8355 971 31.1609
66.953 922 30.3645
67.0705 937 30.6105
67.1879 952 30.8545
67.3054 922 30.3645
67.4228 825 28.7228
67.5402 700 26.4575
67.6576 710 26.6458
67.7749 802 28.3196
67.8923 890 29.8329
68.0096 923 30.3809
68.1269 970 31.1448
68.2442 940 30.6594
68.3614 978 31.273
68.4787 1024 32
68.5958 1032 32.1248
68.713 959 30.9677
68.8302 909 30.1496
68.9473 825 28.7228
69.0643 846 29.0861
69.1814 860 29.3258
69.2984 864 29.3939
69.4154 892 29.8664
69.5323 926 30.4302
69.6492 988 31.4325
69.7661 1038 32.218
69.8829 1120 33.4664
69.9997 1050 32.4037
70.1165 1040 32.249
70.2332 1022 31.9687
70.3499 1039 32.2335
70.4665 993 31.5119
70.5831 950 30.8221
70.6996 869 29.4788
70.8161 823 28.688
70.9326 771 27.7669
71.049 667 25.8263
71.1653 546 23.3666
71.2817 490 22.1359
71.3979 409 20.2237
71.5141 451 21.2368
71.6303 417 20.4206
71.7464 345 18.5742
71.8624 0 1
71.9784 0 1
72.0944 0 1
72.2102 0 1
72.3261 0 1
72.4418 0 1
72.5575 0 1
72.6732 0 1
75.1054 0 1
75.2209 0 1
75.3365 0 1
75.4521 0 1
75.5678 0 1
75.6835 0 1
75.7993 0 1
75.9151 0 1
76.031 0 1
76.147 639 25.2784
76.263 712 26.6833
76.3791 687 26.2107
76.4952 703 26.5141
76.6113 635 25.1992
76.7276 697 26.4008
76.8438 789 28.0891
76.9601 874 29.5635
77.0765 835 28.8964
77.1929 871 29.5127
77.3093 936 30.5941
77.4258 894 29.8998
77.5423 843 29.0345
77.6589 829 28.7924
77.7755 828 28.775
77.8921 722 26.8701
78.0088 635 25.1992
78.1256 613 24.7588
78.2423 630 25.0998
78.3591 621 24.9199
78.4759 738 27.1662
78.5928 775 27.8388
78.7097 767 27.6948
78.8266 773 27.8029
78.9436 877 29.6142
79.0606 849 29.1376
79.1776 827 28.7576
79.2946 865 29.4109
79.4117 892 29.8664
79.5288 852 29.189
79.6459 797 28.2312
79.7631 758 27.5318
79.8802 793 28.1603
79.9974 778 27.8927
80.1147 691 26.2869
80.2319 673 25.9422
80.3491 675 25.9808
80.4664 651 25.5147
80.5837 699 26.4386
80.701 780 27.9285
80.8183 841 29
80.9357 812 28.4956
81.053 877 29.6142
81.1704 893 29.8831
81.2877 824 28.7054
81.4051 765 27.6586
81.5225 783 27.9821
81.6399 705 26.5518
81.7573 615 24.7992
81.8747 620 24.8998
81.9922 642 25.3377
82.1096 673 25.9422
82.227 704 26.533
82.3444 804 28.3549
82.4619 812 28.4956
82.5793 865 29.4109
82.6967 901 30.0167
82.8142 865 29.4109
82.9316 888 29.7993
83.049 888 29.7993
83.1664 847 29.1033
83.2838 835 28.8964
83.4012 817 28.5832
83.5186 809 28.4429
83.636 801 28.3019
83.7534 734 27.0924
83.8708 648 25.4558
83.9881 685 26.1725
84.1055 628 25.0599
84.2228 706 26.5707
84.3401 813 28.5132
84.4575 854 29.2233
84.5747 926 30.4302
84.692 883 29.7153
84.8093 897 29.95
84.9265 883 29.7153
85.0437 843 29.0345
85.1609 793 28.1603
85.2781 718 26.7955
85.3952 583 24.1454
85.5123 628 25.0599
85.6294 649 25.4755
85.7465 723 26.8887
85.8636 802 28.3196
85.9806 833 28.8617
86.0976 846 29.0861
86.2145 887 29.7825
86.3315 896 29.9333
86.4484 889 29.8161
86.5652 915 30.249
86.682 925 30.4138
86.7988 900 30
86.9156 867 29.4449
87.0323 874 29.5635
87.149 836 28.9137
87.2657 800 28.2843
87.3823 685 26.1725
87.4988 577 24.0208
87.6154 574 23.9583
87.7318 580 24.0832
87.8483 601 24.5153
87.9647 632 25.1396
88.081 689 26.2488
88.1973 702 26.4953
88.3136 678 26.0384
88.4298 623 24.96
88.546 577 24.0208
88.6621 510 22.5832
88.7781 395 19.8746
88.8942 0 1
89.0101 0 1
89.126 0 1
89.2419 0 1
89.3577 0 1
89.4734 0 1
89.5891 0 1
89.7047 0 1
89.8203 0 1
89.9358 0 1
92.3269 0 1
92.4424 0 1
92.558 0 1
92.6736 0 1
92.7893 0 1
92.905 0 1
93.0208 0 1
93.1366 0 1
93.2525 0 1
93.3685 0 1
93.4845 0 1
93.6005 615 24.7992
93.7167 632 25.1396
93.8328 674 25.9615
93.949 683 26.1343
94.0653 749 27.3679
94.1816 737 27.1477
94.2979 666 25.807
94.4143 697 26.4008
94.5307 702 26.4953
94.6472 590 24.2899
94.7637 625 25
94.8803 716 26.7582
94.9969 738 27.1662
95.1135 754 27.4591
95.2302 853 29.2062
95.3469 781 27.9464
95.4637 885 29.7489
95.5805 915 30.249
95.6973 837 28.931
95.8142 880 29.6648
95.9311 884 29.7321
96.048 857 29.2746
96.1649 856 29.2575
96.2819 841 29
96.3989 750 27.3861
96.516 751 27.4044
96.633 638 25.2587
96.7501 724 26.9072
96.8673 634 25.1794
96.9844 714 26.7208
97.1016 742 27.2397
97.2188 801 28.3019
97.336 825 28.7228
97.4532 888 29.7993
97.5704 862 29.3598
97.6877 893 29.8831
97.805 895 29.9166
97.9223 803 28.3373
98.0396 712 26.6833
98.1569 663 25.7488
98.2743 648 25.4558
98.3916 648 25.4558
98.509 684 26.1534
98.6264 731 27.037
98.7438 735 27.1109
98.8612 832 28.8444
98.9786 819 28.6182
99.096 950 30.8221
99.2134 877 29.6142
99.3308 958 30.9516
99.4482 943 30.7083
99.5656 966 31.0805
99.6831 871 29.5127
99.8005 864 29.3939
99.9179 861 29.3428
100.035 861 29.3428
100.153 830 28.8097
100.27 721 26.8514
100.388 704 26.533
100.505 733 27.074
100.622 783 27.9821
100.74 843 29.0345
100.857 896 29.9333
100.975 941 30.6757
101.092 903 30.05
101.209 895 29.9166
101.327 916 30.2655
101.444 905 30.0832
101.561 811 28.4781
101.679 741 27.2213
101.796 723 26.8887
101.913 671 25.9037
102.03 666 25.807
102.148 735 27.1109
102.265 830 28.8097
102.382 886 29.7658
102.499 863 29.3769
102.616 969 31.1288
102.733 959 30.9677
102.851 965 31.0644
102.968 969 31.1288
103.085 928 30.4631
103.202 899 29.9833
103.319 950 30.8221
103.436 918 30.2985
103.552 872 29.5296
103.669 814 28.5307
103.786 768 27.7128
103.903 738 27.1662
104.02 775 27.8388
104.137 769 27.7308
104.253 880 29.6648
104.37 962 31.0161
104.487 969 31.1288
104.603 1019 31.9218
104.72 983 31.3528
104.836 985 31.3847
104.953 825 28.7228
105.069 764 27.6405
105.186 707 26.5895
105.302 678 26.0384
105.418 607 24.6374
105.535 627 25.04
105.651 630 25.0998
105.767 662 25.7294
105.883 609 24.6779
105.999 640 25.2982
106.115 0 1
106.231 0 1
106.347 0 1
106.463 0 1
106.579 0 1
106.694 0 1
106.81 0 1
106.926 0 1
107.041 0 1
107.157 0 1
109.576 0 1
109.692 0 1
109.807 0 1
109.923 0 1
110.039 0 1
110.155 0 1
110.27 0 1
110.386 0 1
110.502 0 1
110.618 348 18.6548
110.735 533 23.0868
110.851 576 24
110.967 701 26.4764
111.083 695 26.3629
111.199 808 28.4253
111.316 829 28.7924
111.432 820 28.6356
111.549 898 29.9666
111.665 893 29.8831
111.782 925 30.4138
111.898 886 29.7658
112.015 821 28.6531
112.132 753 27.4408
112.248 738 27.1662
112.365 745 27.2947
112.482 687 26.2107
112.599 796 28.2135
112.716 748 27.3496
112.832 829 28.7924
112.949 840 28.9828
113.066 863 29.3769
113.183 880 29.6648
113.3 870 29.4958
113.417 853 29.2062
113.534 760 27.5681
113.652 786 28.0357
113.769 677 26.0192
113.886 639 25.2784
114.003 663 25.7488
114.12 664 25.7682
114.238 782 27.9643
114.355 798 28.2489
114.472 775 27.8388
114.589 905 30.0832
114.707 824 28.7054
114.824 891 29.8496
114.942 909 30.1496
115.059 927 30.4467
115.176 900 30
115.294 885 29.7489
115.411 882 29.6985
115.529 840 28.9828
115.646 802 28.3196
115.764 763 27.6225
115.881 721 26.8514
115.999 692 26.3059
116.116 762 27.6043
116.234 775 27.8388
116.351 817 28.5832
116.469 827 28.7576
116.586 865 29.4109
116.704 868 29.4618
116.821 901 30.0167
116.939 814 28.5307
117.056 860 29.3258
117.174 781 27.9464
117.291 732 27.0555
117.409 657 25.632
117.526 673 25.9422
117.644 629 25.0799
117.761 700 26.4575
117.879 700 26.4575
117.996 746 27.313
118.114 817 28.5832
118.231 855 29.2404
118.349 930 30.4959
118.466 917 30.282
118.584 860 29.3258
118.701 881 29.6816
118.819 856 29.2575
118.936 828 28.775
119.053 865 29.4109
119.171 818 28.6007
119.288 790 28.1069
119.405 756 27.4955
119.523 652 25.5343
119.64 701 26.4764
119.757 684 26.1534
119.875 729 27
119.992 791 28.1247
120.109 810 28.4605
120.226 804 28.3549
120.343 867 29.4449
120.46 854 29.2233
120.578 811 28.4781
120.695 803 28.3373
120.812 748 27.3496
120.929 763 27.6225
121.046 656 25.6125
121.163 681 26.096
121.279 603 24.5561
121.396 605 24.5967
121.513 684 26.1534
121.63 678 26.0384
121.747 714 26.7208
121.863 702 26.4953
121.98 676 26
122.097 743 27.258
122.213 648 25.4558
122.33 687 26.2107
122.446 675 25.9808
122.563 648 25.4558
122.679 652 25.5343
122.795 566 23.7908
122.912 529 23
123.028 415 20.3715
123.144 389 19.7231
123.26 325 18.0278
123.377 0 1
123.493 0 1
123.609 0 1
123.725 0 1
123.84 0 1
123.956 0 1
124.072 0 1
124.188 0 1
124.303 0 1
124.419 0 1
126.852 0 1
126.968 0 1
127.083 0 1
127.199 0 1
127.315 0 1
127.431 0 1
127.547 0 1
127.663 0 1
127.779 0 1
127.895 0 1
128.011 0 1
128.127 0 1
128.243 0 1
128.359 891 29.8496
128.476 905 30.0832
128.592 869 29.4788
128.708 866 29.4279
128.825 864 29.3939
128.941 891 29.8496
129.058 975 31.225
129.174 1008 31.749
129.291 1105 33.2415
129.408 1052 32.4345
129.524 1086 32.9545
129.641 1028 32.0624
129.758 1037 32.2025
129.875 983 31.3528
129.992 923 30.3809
130.108 883 29.7153
130.225 804 28.3549
130.342 830 28.8097
130.459 838 28.9482
130.576 981 31.3209
130.693 940 30.6594
130.81 1025 32.0156
130.928 991 31.4802
131.045 998 31.5911
131.162 1052 32.4345
131.279 1046 32.3419
131.396 1040 32.249
131.513 1085 32.9393
131.631 1075 32.7872
131.748 1094 33.0757
131.865 965 31.0644
131.983 975 31.225
132.1 921 30.348
132.217 895 29.9166
132.335 843 29.0345
132.452 924 30.3974
132.57 965 31.0644
132.687 1028 32.0624
132.804 1024 32
132.922 1092 33.0454
133.039 1018 31.9061
133.157 1083 32.909
133.274 1118 33.4365
133.392 966 31.0805
133.509 962 31.0161
133.627 882 29.6985
133.744 837 28.931
133.862 802 28.3196
133.979 841 29
134.097 907 30.1164
134.214 899 29.9833
134.332 997 31.5753
134.449 969 31.1288
134.567 1020 31.9374
134.684 1027 32.0468
134.802 1085 32.9393
134.919 1043 32.2955
135.037 1103 33.2114
135.154 1057 32.5115
135.272 1003 31.6702
135.389 1001 31.6386
135.507 929 30.4795
135.624 900 30
135.742 878 29.6311
135.859 845 29.0689
135.977 905 30.0832
136.094 957 30.9354
136.211 1045 32.3265
136.329 1005 31.7017
136.446 1041 32.2645
136.564 1005 31.7017
136.681 1020 31.9374
136.798 1073 32.7567
136.915 1069 32.6956
137.033 959 30.9677
137.15 977 31.257
137.267 901 30.0167
137.384 869 29.4788
137.502 762 27.6043
137.619 824 28.7054
137.736 858 29.2916
137.853 855 29.2404
137.97 945 30.7409
138.087 956 30.9192
138.204 961 31
138.321 914 30.2324
138.438 1009 31.7648
138.555 1032 32.1248
138.672 1005 31.7017
138.788 937 30.6105
138.905 854 29.2233
139.022 873 29.5466
139.139 831 28.8271
139.255 697 26.4008
139.372 696 26.3818
139.488 619 24.8797
139.605 599 24.4745
139.721 619 24.8797
139.838 635 25.1992
139.954 662 25.7294
140.071 636 25.219
140.187 595 24.3926
140.303 539 23.2164
140.419 527 22.9565
140.535 448 21.166
140.652 401 20.025
140.768 0 1
140.884 0 1
141 0 1
141.115 0 1
141.231 0 1
141.347 0 1
141.463 0 1
141.578 0 1
141.694 0 1
144.104 0 1
144.219 0 1
144.335 0 1
144.45 0 1
144.566 0 1
144.682 0 1
144.798 0 1
144.914 0 1
145.03 0 1
145.146 601 24.5153
145.262 659 25.671
145.378 711 26.6646
145.494 726 26.9444
145.61 706 26.5707
145.726 698 26.4197
145.842 644 25.3772
145.959 602 24.5357
146.075 610 24.6982
146.192 547 23.388
146.308 546 23.3666
146.425 574 23.9583
146.541 665 25.7876
146.658 562 23.7065
146.774 687 26.2107
146.891 642 25.3377
147.008 693 26.3249
147.125 668 25.8457
147.241 686 26.1916
147.358 700 26.4575
147.475 717 26.7769
147.592 692 26.3059
147.709 706 26.5707
147.826 650 25.4951
147.943 647 25.4362
148.06 634 25.1794
148.177 566 23.7908
148.294 542 23.2809
148.411 611 24.7184
148.528 667 25.8263
148.645 650 25.4951
148.762 679 26.0576
148.88 774 27.8209
148.997 758 27.5318
149.114 715 26.7395
149.231 715 26.7395
149.349 692 26.3059
149.466 636 25.219
149.583 638 25.2587
149.701 616 24.8193
149.818 523 22.8692
149.935 499 22.3383
150.053 547 23.388
150.17 528 22.9783
150.287 636 25.219
150.405 609 24.6779
150.522 605 24.5967
150.64 656 25.6125
150.757 660 25.6905
150.875 660 25.6905
150.992 668 25.8457
151.11 636 25.219
151.227 700 26.4575
151.344 651 25.5147
151.462 669 25.865
151.579 690 26.2679
151.697 619 24.8797
151.814 539 23.2164
151.932 594 24.3721
152.049 578 24.0416
152.167 584 24.1661
152.284 648 25.4558
152.402 664 25.7682
152.519 650 25.4951
152.636 648 25.4558
152.754 649 25.4755
152.871 672 25.923
152.989 653 25.5539
153.106 619 24.8797
153.223 578 24.0416
153.341 550 23.4521
153.458 552 23.4947
153.575 504 22.4499
153.693 540 23.2379
153.81 543 23.3024
153.927 562 23.7065
154.044 608 24.6577
154.162 584 24.1661
154.279 623 24.96
154.396 640 25.2982
154.513 613 24.7588
154.63 651 25.5147
154.747 641 25.318
154.864 587 24.2281
154.981 623 24.96
155.098 564 23.7487
155.215 565 23.7697
155.332 550 23.4521
155.449 579 24.0624
155.566 559 23.6432
155.683 527 22.9565
155.8 552 23.4947
155.917 560 23.6643
156.033 588 24.2487
156.15 0 1
156.267 0 1
156.383 0 1
156.5 0 1
156.617 0 1
156.733 0 1
156.85 0 1
156.966 0 1
157.082 0 1
157.199 0 1
157.315 0 1
157.431 0 1
157.547 0 1
157.664 0 1
157.78 0 1
157.896 0 1
158.012 0 1
158.128 0 1
158.244 0 1
158.359 0 1
158.475 0 1
158.591 0 1
158.706 0 1
