
6.15755 0 1
6.2731 0 1
6.3887 0 1
6.50437 0 1
6.62009 0 1
6.73587 0 1
6.8517 0 1
6.96759 0 1
7.08353 0 1
7.19952 0 1
7.31557 0 1
7.43166 0 1
7.54781 0 1
7.664 0 1
7.78024 0 1
7.89653 0 1
8.01286 0 1
8.12924 0 1
8.24567 0 1
8.36213 0 1
8.47864 0 1
8.59519 0 1
8.71178 0 1
8.82841 0 1
8.94508 0 1
9.06179 0 1
9.17853 0 1
9.29531 0 1
9.41212 0 1
9.52897 0 1
9.64584 0 1
9.76276 0 1
9.8797 0 1
9.99667 0 1
10.1137 0 1
10.2307 0 1
10.3478 0 1
10.4648 0 1
10.5819 0 1
10.6991 0 1
10.8162 0 1
10.9334 0 1
11.0506 0 1
11.1678 0 1
11.285 0 1
11.4023 0 1
11.5196 0 1
11.6369 0 1
11.7542 0 1
11.8715 0 1
11.9888 0 1
12.1062 0 1
12.2235 0 1
12.3409 0 1
12.4582 0 1
12.5756 0 1
12.693 0 1
12.8104 0 1
12.9278 0 1
13.0452 0 1
13.1626 0 1
13.28 0 1
13.3974 0 1
13.5149 0 1
13.6323 0 1
13.7497 0 1
13.8671 0 1
13.9845 0 1
14.1019 0 1
14.2193 0 1
14.3367 0 1
14.4541 0 1
14.5714 0 1
14.6888 0 1
14.8062 0 1
14.9235 0 1
15.0408 0 0
15.1581 0 0
15.2755 0 0
15.3927 0 0
15.51 0 0
15.6273 0 0
15.7445 0 0
15.8617 0 0
15.9789 0 0
16.0961 0 0
16.2132 0 0
16.3304 0 0
16.4475 0 0
16.5646 0 0
16.6816 0 0
16.7986 0 0
16.9156 0 0
17.0326 0 0
17.1496 0 0
17.2665 0 0
17.3833 0 0
17.5002 0 0
17.617 0 0
17.7338 0 0
17.8505 0 0
17.9672 0 0
18.0839 0 0
18.2005 0 0
18.3171 0 0
18.4337 0 0
18.5502 0 0
18.6666 0 0
18.7831 0 0
18.8994 0 0
19.0158 0 0
19.1321 0 0
19.2483 0 0
19.3645 0 0
19.4806 0 0
19.5967 0 0
19.7128 0 0
19.8288 0 0
19.9447 0 0
20.0606 0 1
20.1764 0 1
20.2922 0 1
20.4079 0 1
20.5236 0 1
20.6392 0 1
20.7548 0 1
20.8702 0 1
23.3078 0 1
23.4233 0 1
23.539 0 1
23.6547 0 1
23.7704 0 1
23.8862 0 1
24.0021 0 1
24.118 0 1
24.234 0 1
24.35 0 1
24.4661 35281 187.832
24.5822 35161 187.513
24.6984 34503 185.75
24.8146 34690 186.253
24.9309 34401 185.475
25.0472 34340 185.311
25.1636 34265 185.108
25.28 34950 186.949
25.3965 35786 189.172
25.513 37385 193.352
25.6296 39371 198.421
25.7462 40106 200.265
25.8628 41231 203.054
25.9795 42399 205.91
26.0962 42751 206.763
26.213 42979 207.314
26.3298 42379 205.862
26.4466 42589 206.371
26.5635 42395 205.9
26.6804 41026 202.549
26.7973 39248 198.111
26.9143 39199 197.987
27.0313 39676 199.188
27.1483 41140 202.83
27.2653 41582 203.917
27.3824 41943 204.8
27.4996 41931 204.771
27.6167 41385 203.433
27.7339 40641 201.596
27.8511 39748 199.369
27.9683 38518 196.26
28.0855 37438 193.489
28.2028 35848 189.336
28.3201 35784 189.167
28.4374 34140 184.77
28.5547 33728 183.652
28.6721 33656 183.456
28.7894 33818 183.897
28.9068 34766 186.456
29.0242 35711 188.974
29.1416 37050 192.484
29.259 38290 195.678
29.3764 39260 198.141
29.4939 40481 201.199
29.6113 41368 203.391
29.7288 41661 204.11
29.8463 42202 205.431
29.9638 41653 204.091
30.0812 41528 203.784
30.1987 40370 200.923
30.3162 37923 194.738
30.4337 37242 192.982
30.5512 38083 195.149
30.6687 40198 200.494
30.7862 40975 202.423
30.9037 41817 204.492
31.0212 41440 203.568
31.1387 41343 203.33
31.2562 41264 203.135
31.3737 40305 200.761
31.4912 38884 197.19
31.6087 38079 195.138
31.7262 37073 192.544
31.8436 35968 189.652
31.9611 34897 186.807
32.0785 34147 184.789
32.1959 33725 183.644
32.3134 33512 183.063
32.4308 34352 185.343
32.5482 35346 188.005
32.6655 36631 191.392
32.7829 37466 193.561
32.9002 39047 197.603
33.0176 39908 199.77
33.1349 40942 202.341
33.2522 40831 202.067
33.3694 41554 203.848
33.4867 41842 204.553
33.6039 41344 203.332
33.7211 41557 203.855
33.8383 39770 199.424
33.9554 38037 195.031
34.0725 36137 190.097
34.1896 36412 190.819
34.3067 38622 196.525
34.4237 40473 201.179
34.5407 40762 201.896
34.6577 41363 203.379
34.7746 41167 202.897
34.8915 40653 201.626
35.0084 39964 199.91
35.1252 39415 198.532
35.242 38307 195.722
35.3587 37339 193.233
35.4755 36110 190.026
35.5921 35311 187.912
35.7088 34552 185.882
35.8254 33599 183.3
35.9419 32866 181.29
36.0584 32615 180.596
36.1749 33117 181.981
36.2913 34337 185.302
36.4077 35661 188.841
36.524 36802 191.838
36.6403 38553 196.349
36.7565 39646 199.113
36.8727 40704 201.752
36.9889 41501 203.718
37.1049 41151 202.857
37.221 0 1
37.3369 0 1
37.4529 0 1
37.5687 0 1
37.6845 0 1
37.8003 0 1
37.916 0 1
38.0316 0 1
38.1472 0 1
40.5851 0 1
40.7008 0 1
40.8164 0 1
40.9322 0 1
41.048 0 1
41.1639 0 1
41.2798 0 1
41.3958 0 1
41.5118 0 1
41.6279 0 1
41.744 31500 177.482
41.8602 33618 183.352
41.9765 35071 187.273
42.0928 35913 189.507
42.2091 36807 191.852
42.3255 36794 191.818
42.4419 36940 192.198
42.5584 35640 188.786
42.675 33776 183.782
42.7915 31598 177.758
42.9081 30474 174.568
43.0248 31727 178.121
43.1415 33267 182.392
43.2582 34351 185.34
43.375 34656 186.161
43.4918 34906 186.831
43.6087 34079 184.605
43.7256 33763 183.747
43.8425 33078 181.874
43.9595 32529 180.358
44.0765 31254 176.788
44.1935 29699 172.334
44.3106 28554 168.979
44.4277 27609 166.16
44.5448 26127 161.638
44.6619 25011 158.149
44.7791 24175 155.483
44.8963 23916 154.648
45.0136 24341 156.016
45.1308 24971 158.022
45.2481 25360 159.248
45.3654 26403 162.49
45.4827 27532 165.928
45.6001 27345 165.363
45.7174 27344 165.36
45.8348 27524 165.904
45.9522 27312 165.263
46.0697 26970 164.225
46.1871 25556 159.862
46.3046 23610 153.655
46.422 22057 148.516
46.5395 21609 147
46.657 22853 151.172
46.7745 24193 155.541
46.892 24688 157.124
47.0096 24864 157.683
47.1271 24913 157.839
47.2446 24227 155.65
47.3622 24008 154.945
47.4797 23256 152.499
47.5973 22415 149.716
47.7149 21757 147.503
47.8324 21017 144.972
47.95 19859 140.922
48.0675 19920 141.138
48.1851 18504 136.029
48.3027 17739 133.188
48.4202 17468 132.167
48.5378 17638 132.808
48.6554 18100 134.536
48.7729 18739 136.89
48.8904 19677 140.275
49.008 20287 142.432
49.1255 21354 146.13
49.243 21375 146.202
49.3605 21651 147.143
49.478 21520 146.697
49.5955 21236 145.726
49.713 20195 142.109
49.8304 18925 137.568
49.9479 17980 134.09
50.0653 18131 134.651
50.1827 19814 140.762
50.3001 21703 147.319
50.4175 23262 152.519
50.5348 24155 155.419
50.6521 24542 156.659
50.7694 25153 158.597
50.8867 25158 158.613
51.004 25855 160.795
51.1212 25962 161.127
51.2384 26125 161.632
51.3556 25996 161.233
51.4727 25589 159.966
51.5899 25073 158.345
51.707 24473 156.438
51.824 23812 154.311
51.9411 23753 154.12
52.0581 24800 157.48
52.175 26697 163.392
52.2919 27897 167.024
52.4088 30111 173.525
52.5257 31582 177.713
52.6425 32903 181.392
52.7593 33680 183.521
52.876 33882 184.071
52.9927 34432 185.559
53.1094 34845 186.668
53.226 34596 186
53.3426 32587 180.519
53.4591 30406 174.373
53.5756 28964 170.188
53.692 29537 171.863
53.8084 32075 179.095
53.9248 34772 186.473
54.0411 36314 190.562
54.1573 37697 194.157
54.2735 0 1
54.3896 0 1
54.5057 0 1
54.6217 0 1
54.7377 0 1
54.8537 0 1
54.9695 0 1
55.0853 0 1
55.2011 0 1
55.3168 0 1
55.4324 0 1
57.824 0 1
57.9396 0 1
58.0553 0 1
58.1711 0 1
58.2869 0 1
58.4028 0 1
58.5187 0 1
58.6347 0 1
58.7508 0 1
58.8669 0 1
58.983 36724 191.635
59.0992 40315 200.786
59.2155 42105 205.195
59.3318 44048 209.876
59.4482 44501 210.953
59.5646 44805 211.672
59.681 44248 210.352
59.7975 43406 208.341
59.9141 42345 205.779
60.0306 40755 201.879
60.1473 39217 198.033
60.2639 37146 192.733
60.3807 35093 187.331
60.4974 33629 183.382
60.6142 33038 181.764
60.731 33197 182.2
60.8479 33957 184.274
60.9648 35198 187.611
61.0818 37386 193.355
61.1987 38981 197.436
61.3158 40674 201.678
61.4328 40636 201.584
61.5499 40748 201.861
61.667 40514 201.281
61.7841 39570 198.922
61.9013 37033 192.44
62.0185 35047 187.208
62.1357 33193 182.189
62.253 33438 182.861
62.3702 35208 187.638
62.4875 37265 193.041
62.6049 38602 196.474
62.7222 40085 200.212
62.8396 40441 201.099
62.9569 40931 202.314
63.0743 41109 202.754
63.1918 40314 200.783
63.3092 39817 199.542
63.4267 39249 198.114
63.5441 37499 193.647
63.6616 35698 188.939
63.7791 34035 184.486
63.8966 32177 179.379
64.0142 30399 174.353
64.1317 29493 171.735
64.2492 29822 172.69
64.3668 30651 175.074
64.4843 32257 179.602
64.6019 34103 184.67
64.7195 35949 189.602
64.837 37285 193.093
64.9546 37139 192.715
65.0722 37320 193.184
65.1898 37430 193.468
65.3074 37110 192.64
65.4249 34616 186.054
65.5425 32420 180.056
65.6601 30595 174.914
65.7777 29985 173.162
65.8952 30889 175.753
66.0128 32999 181.656
66.1304 35083 187.305
66.2479 36581 191.262
66.3655 37730 194.242
66.483 38652 196.601
66.6005 38713 196.756
66.718 38493 196.196
66.8355 38844 197.089
66.953 37812 194.453
67.0705 36885 192.055
67.1879 35825 189.275
67.3054 34340 185.311
67.4228 32709 180.856
67.5402 30592 174.906
67.6576 28629 169.201
67.7749 28257 168.098
67.8923 28389 168.49
68.0096 29483 171.706
68.1269 31393 177.181
68.2442 33767 183.758
68.3614 36098 189.995
68.4787 37427 193.461
68.5958 37221 192.927
68.713 38083 195.149
68.8302 38214 195.484
68.9473 37940 194.782
69.0643 36077 189.939
69.1814 33681 183.524
69.2984 31108 176.375
69.4154 30727 175.291
69.5323 32168 179.354
69.6492 34644 186.129
69.7661 36922 192.151
69.8829 39170 197.914
69.9997 40538 201.341
70.1165 41100 202.731
70.2332 41413 203.502
70.3499 41554 203.848
70.4665 41449 203.59
70.5831 41052 202.613
70.6996 39892 199.73
70.8161 39079 197.684
70.9326 37361 193.29
71.049 35691 188.921
71.1653 33510 183.057
71.2817 30585 174.886
71.3979 28480 168.76
71.5141 27783 166.682
71.6303 28151 167.783
71.7464 27125 164.697
71.8624 0 1
71.9784 0 1
72.0944 0 1
72.2102 0 1
72.3261 0 1
72.4418 0 1
72.5575 0 1
72.6732 0 1
75.1054 0 1
75.2209 0 1
75.3365 0 1
75.4521 0 1
75.5678 0 1
75.6835 0 1
75.7993 0 1
75.9151 0 1
76.031 0 1
76.147 35310 187.91
76.263 37100 192.614
76.3791 36319 190.575
76.4952 34853 186.69
76.6113 32238 179.549
76.7276 29655 172.206
76.8438 29715 172.38
76.9601 30694 175.197
77.0765 32155 179.318
77.1929 34413 185.507
77.3093 37728 194.237
77.4258 39327 198.31
77.5423 40406 201.012
77.6589 40598 201.489
77.7755 40455 201.134
77.8921 40050 200.125
78.0088 37856 194.566
78.1256 35045 187.203
78.2423 32760 180.997
78.3591 30410 174.385
78.4759 29938 173.026
78.5928 31657 177.924
78.7097 34064 184.564
78.8266 36172 190.189
78.9436 38547 196.334
79.0606 39511 198.774
79.1776 40453 201.129
79.2946 40805 202.002
79.4117 40872 202.168
79.5288 40665 201.656
79.6459 40352 200.878
79.7631 38725 196.787
79.8802 37548 193.773
79.9974 35995 189.723
80.1147 33954 184.266
80.2319 31552 177.629
80.3491 28998 170.288
80.4664 27951 167.186
80.5837 28477 168.751
80.701 29852 172.777
80.8183 32511 180.308
80.9357 35177 187.555
81.053 36491 191.026
81.1704 37084 192.572
81.2877 37322 193.189
81.4051 37097 192.606
81.5225 37012 192.385
81.6399 34967 186.995
81.7573 33603 183.311
81.8747 29864 172.812
81.9922 28227 168.009
82.1096 27378 165.463
82.227 28739 169.526
82.3444 30758 175.38
82.4619 33244 182.329
82.5793 34840 186.655
82.6967 34703 186.287
82.8142 36101 190.003
82.9316 36585 191.272
83.049 36713 191.606
83.1664 36038 189.837
83.2838 36117 190.045
83.4012 34537 185.841
83.5186 33428 182.833
83.636 32535 180.375
83.7534 30436 174.459
83.8708 28632 169.21
83.9881 25724 160.387
84.1055 25329 159.151
84.2228 25861 160.814
84.3401 26804 163.719
84.4575 29008 170.317
84.5747 31791 178.3
84.692 33788 183.815
84.8093 34690 186.253
84.9265 34750 186.414
85.0437 34742 186.392
85.1609 34128 184.738
85.2781 32237 179.547
85.3952 29955 173.075
85.5123 27665 166.328
85.6294 26787 163.667
85.7465 27598 166.126
85.8636 30381 174.301
85.9806 32282 179.672
86.0976 34699 186.277
86.2145 36345 190.644
86.3315 37751 194.296
86.4484 39445 198.608
86.5652 39814 199.534
86.682 40038 200.095
86.7988 39738 199.344
86.9156 39351 198.371
87.0323 38567 196.385
87.149 37818 194.469
87.2657 36553 191.188
87.3823 34507 185.761
87.4988 32081 179.112
87.6154 30307 174.089
87.7318 30839 175.61
87.8483 32156 179.321
87.9647 34243 185.049
88.081 37873 194.61
88.1973 39885 199.712
88.3136 41039 202.581
88.4298 40920 202.287
88.546 41067 202.65
88.6621 40690 201.718
88.7781 38910 197.256
88.8942 0 1
89.0101 0 1
89.126 0 1
89.2419 0 1
89.3577 0 1
89.4734 0 1
89.5891 0 1
89.7047 0 1
89.8203 0 1
89.9358 0 1
92.3269 0 1
92.4424 0 1
92.558 0 1
92.6736 0 1
92.7893 0 1
92.905 0 1
93.0208 0 1
93.1366 0 1
93.2525 0 1
93.3685 0 1
93.4845 0 1
93.6005 37940 194.782
93.7167 39467 198.663
93.8328 39072 197.666
93.949 39511 198.774
94.0653 39389 198.467
94.1816 38677 196.665
94.2979 36637 191.408
94.4143 34926 186.885
94.5307 32982 181.609
94.6472 32232 179.533
94.7637 31880 178.55
94.8803 33236 182.307
94.9969 35143 187.465
95.1135 37124 192.676
95.2302 38735 196.812
95.3469 39647 199.116
95.4637 40884 202.198
95.5805 41210 203.002
95.6973 42417 205.954
95.8142 42779 206.831
95.9311 42267 205.589
96.048 42023 204.995
96.1649 40977 202.428
96.2819 40060 200.15
96.3989 38666 196.637
96.516 36836 191.927
96.633 34363 185.373
96.7501 32295 179.708
96.8673 32364 179.9
96.9844 32904 181.395
97.1016 34445 185.594
97.2188 37113 192.647
97.336 39547 198.864
97.4532 40275 200.686
97.5704 40478 201.191
97.6877 40170 200.425
97.805 39435 198.582
97.9223 37733 194.25
98.0396 35404 188.16
98.1569 33451 182.896
98.2743 31863 178.502
98.3916 31576 177.696
98.509 32866 181.29
98.6264 34272 185.127
98.7438 36420 190.84
98.8612 38241 195.553
98.9786 39731 199.326
99.096 41126 202.795
99.2134 42064 205.095
99.3308 43159 207.747
99.4482 42776 206.824
99.5656 42662 206.548
99.6831 41950 204.817
99.8005 41353 203.354
99.9179 40089 200.222
100.035 39035 197.573
100.153 36797 191.825
100.27 34393 185.453
100.388 33384 182.713
100.505 34073 184.589
100.622 35533 188.502
100.74 37662 194.067
100.857 39901 199.752
100.975 41081 202.684
101.092 41207 202.995
101.209 41584 203.922
101.327 40629 201.566
101.444 40002 200.005
101.561 38006 194.951
101.679 35669 188.862
101.796 34077 184.6
101.913 32427 180.075
102.03 33529 183.109
102.148 35345 188.003
102.265 39906 199.765
102.382 37198 192.868
102.499 40786 201.955
102.616 42277 205.614
102.733 43316 208.125
102.851 44424 210.77
102.968 44760 211.566
103.085 44661 211.331
103.202 44032 209.838
103.319 43358 208.226
103.436 42639 206.492
103.552 41287 203.192
103.669 39502 198.751
103.786 36856 191.979
103.903 35103 187.358
104.02 35883 189.428
104.137 37725 194.229
104.253 41230 203.052
104.37 41264 203.135
104.487 43590 208.782
104.603 43855 209.416
104.72 44059 209.902
104.836 43717 209.086
104.953 42322 205.723
105.069 40346 200.863
105.186 38194 195.433
105.302 36423 190.848
105.418 35859 189.365
105.535 36710 191.599
105.651 39088 197.707
105.767 40990 202.46
105.883 43192 207.827
105.999 44718 211.466
106.115 0 1
106.231 0 1
106.347 0 1
106.463 0 1
106.579 0 1
106.694 0 1
106.81 0 1
106.926 0 1
107.041 0 1
107.157 0 1
109.576 0 1
109.692 0 1
109.807 0 1
109.923 0 1
110.039 0 1
110.155 0 1
110.27 0 1
110.386 0 1
110.502 0 1
110.618 36041 189.845
110.735 38958 197.378
110.851 40489 201.219
110.967 42359 205.813
111.083 43446 208.437
111.199 44554 211.078
111.316 45640 213.635
111.432 46755 216.229
111.549 46591 215.849
111.665 45570 213.471
111.782 44773 211.596
111.898 44352 210.599
112.015 43607 208.823
112.132 41880 204.646
112.248 39041 197.588
112.365 37702 194.17
112.482 37489 193.621
112.599 37830 194.499
112.716 40173 200.432
112.832 41943 204.8
112.949 43089 207.579
113.066 43247 207.959
113.183 43731 209.12
113.3 43205 207.858
113.417 42395 205.9
113.534 40853 202.121
113.652 38241 195.553
113.769 37227 192.943
113.886 36055 189.882
114.003 34768 186.462
114.12 36504 191.06
114.238 38414 195.995
114.355 40243 200.607
114.472 43335 208.171
114.589 40344 200.858
114.707 43350 208.207
114.824 44696 211.414
114.942 45344 212.941
115.059 45577 213.488
115.176 45463 213.221
115.294 45277 212.784
115.411 44481 210.905
115.529 43441 208.425
115.646 42550 206.277
115.764 40504 201.256
115.881 38403 195.967
115.999 38022 194.992
116.116 38638 196.566
116.234 40525 201.308
116.351 42414 205.947
116.469 43335 208.171
116.586 43931 209.597
116.704 43809 209.306
116.821 43605 208.818
116.939 43454 208.456
117.056 41751 204.331
117.174 40141 200.352
117.291 39069 197.659
117.409 37511 193.678
117.526 36688 191.541
117.644 36808 191.854
117.761 38002 194.941
117.879 39769 199.422
117.996 40475 201.184
118.114 41647 204.076
118.231 43242 207.947
118.349 43297 208.079
118.466 44594 211.173
118.584 44849 211.776
118.701 45202 212.608
118.819 44505 210.962
118.936 43938 209.614
119.053 42963 207.275
119.171 42345 205.779
119.288 40992 202.465
119.405 39356 198.383
119.523 37724 194.227
119.64 37372 193.318
119.757 38517 196.257
119.875 40101 200.252
119.992 41283 203.182
120.109 42008 204.959
120.226 42268 205.592
120.343 42316 205.709
120.46 42233 205.507
120.578 42217 205.468
120.695 40749 201.864
120.812 39768 199.419
120.929 38701 196.726
121.046 37387 193.357
121.163 36490 191.024
121.279 36038 189.837
121.396 37165 192.782
121.513 38275 195.64
121.63 38991 197.461
121.747 40832 202.069
121.863 41396 203.46
121.98 42196 205.417
122.097 43101 207.608
122.213 43439 208.42
122.33 44010 209.786
122.446 43451 208.449
122.563 42860 207.027
122.679 42026 205.002
122.795 41156 202.869
122.912 41331 203.3
123.028 39081 197.689
123.144 38094 195.177
123.26 37038 192.453
123.377 0 1
123.493 0 1
123.609 0 1
123.725 0 1
123.84 0 1
123.956 0 1
124.072 0 1
124.188 0 1
124.303 0 1
124.419 0 1
126.852 0 1
126.968 0 1
127.083 0 1
127.199 0 1
127.315 0 1
127.431 0 1
127.547 0 1
127.663 0 1
127.779 0 1
127.895 0 1
128.011 0 1
128.127 0 1
128.243 0 1
128.359 42517 206.197
128.476 41705 204.218
128.592 42285 205.633
128.708 43449 208.444
128.825 44851 211.781
128.941 46070 214.639
129.058 46695 216.09
129.174 46665 216.021
129.291 46787 216.303
129.408 46617 215.91
129.524 45463 213.221
129.641 44279 210.426
129.758 42982 207.321
129.875 41803 204.458
129.992 40643 201.601
130.108 39885 199.712
130.225 40072 200.18
130.342 41012 202.514
130.459 41439 203.566
130.576 43631 208.88
130.693 43929 209.592
130.81 44436 210.798
130.928 44587 211.156
131.045 45973 214.413
131.162 47033 216.871
131.279 46684 216.065
131.396 47503 217.952
131.513 46381 215.362
131.631 45306 212.852
131.748 44928 211.962
131.865 43988 209.733
131.983 43015 207.401
132.1 43254 207.976
132.217 44339 210.568
132.335 45580 213.495
132.452 46184 214.905
132.57 47306 217.499
132.687 45476 213.251
132.804 48142 219.413
132.922 46801 216.335
133.039 45794 213.995
133.157 44611 211.213
133.274 43544 208.672
133.392 42329 205.74
133.509 41302 203.229
133.627 40721 201.794
133.744 40540 201.345
133.862 41113 202.763
133.979 42172 205.358
134.097 42799 206.879
134.214 43710 209.069
134.332 43922 209.576
134.449 45088 212.339
134.567 44936 211.981
134.684 46576 215.815
134.802 47123 217.078
134.919 47298 217.481
135.037 46716 216.139
135.154 45555 213.436
135.272 44833 211.738
135.389 44298 210.471
135.507 43520 208.614
135.624 43555 208.698
135.742 44907 211.913
135.859 45974 214.415
135.977 46534 215.717
136.094 46616 215.907
136.211 46581 215.826
136.329 46533 215.715
136.446 46683 216.062
136.564 46443 215.506
136.681 45467 213.23
136.798 44246 210.347
136.915 43123 207.661
137.033 42072 205.115
137.15 41209 203
137.267 41042 202.588
137.384 40559 201.393
137.502 40627 201.561
137.619 41474 203.652
137.736 42422 205.966
137.853 42017 204.98
137.97 43906 209.538
138.087 43139 207.699
138.204 45182 212.561
138.321 46186 214.909
138.438 46841 216.428
138.555 47776 218.577
138.672 46603 215.877
138.788 46007 214.492
138.905 45735 213.857
139.022 44374 210.651
139.139 44391 210.692
139.255 44785 211.625
139.372 45769 213.937
139.488 46441 215.502
139.605 47873 218.799
139.721 48191 219.524
139.838 48047 219.196
139.954 47909 218.881
140.071 47705 218.415
140.187 47603 218.181
140.303 46230 215.012
140.419 45006 212.146
140.535 43961 209.669
140.652 42186 205.392
140.768 0 1
140.884 0 1
141 0 1
141.115 0 1
141.231 0 1
141.347 0 1
141.463 0 1
141.578 0 1
141.694 0 1
144.104 0 1
144.219 0 1
144.335 0 1
144.45 0 1
144.566 0 1
144.682 0 1
144.798 0 1
144.914 0 1
145.03 0 1
145.146 42663 206.55
145.262 42104 205.193
145.378 41256 203.116
145.494 40773 201.923
145.61 39617 199.04
145.726 39566 198.912
145.842 38323 195.763
145.959 38314 195.74
146.075 38501 196.217
146.192 38865 197.142
146.308 39718 199.294
146.425 39543 198.854
146.541 40436 201.087
146.658 41219 203.025
146.774 41692 204.186
146.891 42138 205.275
147.008 42503 206.163
147.125 44023 209.817
147.241 43125 207.666
147.358 42851 207.005
147.475 41678 204.152
147.592 40923 202.294
147.709 40286 200.714
147.826 40571 201.422
147.943 42158 205.324
148.06 42712 206.669
148.177 44081 209.955
148.294 43932 209.6
148.411 44147 210.112
148.528 43939 209.616
148.645 43669 208.971
148.762 43537 208.655
148.88 42892 207.104
148.997 40786 201.955
149.114 41666 204.123
149.231 40688 201.713
149.349 40370 200.923
149.466 38169 195.369
149.583 38693 196.705
149.701 38521 196.268
149.818 39030 197.56
149.935 39266 198.157
150.053 39655 199.136
150.17 40097 200.242
150.287 40645 201.606
150.405 40962 202.391
150.522 41667 204.125
150.64 42256 205.563
150.757 42760 206.785
150.875 43097 207.598
150.992 42235 205.512
151.11 41456 203.607
151.227 40604 201.504
151.344 40243 200.607
151.462 40191 200.477
151.579 42392 205.893
151.697 43293 208.07
151.814 43986 209.728
151.932 44053 209.888
152.049 44592 211.168
152.167 44179 210.188
152.284 44691 211.402
152.402 43576 208.749
152.519 43287 208.055
152.636 42277 205.614
152.754 41538 203.809
152.871 40721 201.794
152.989 40289 200.721
153.106 39364 198.404
153.223 39579 198.945
153.341 39520 198.796
153.458 39593 198.98
153.575 40108 200.27
153.693 40142 200.355
153.81 41035 202.571
153.927 41561 203.865
154.044 42175 205.366
154.162 42573 206.332
154.279 43889 209.497
154.396 44031 209.836
154.513 45110 212.391
154.63 44531 211.024
154.747 43742 209.146
154.864 42624 206.456
154.981 42229 205.497
155.098 42621 206.449
155.215 43925 209.583
155.332 45097 212.361
155.449 45560 213.448
155.566 45225 212.662
155.683 45784 213.972
155.8 45519 213.352
155.917 44917 211.936
156.033 44775 211.601
156.15 0 1
156.267 0 1
156.383 0 1
156.5 0 1
156.617 0 1
156.733 0 1
156.85 0 1
156.966 0 1
157.082 0 1
157.199 0 1
157.315 0 1
157.431 0 1
157.547 0 1
157.664 0 1
157.78 0 1
157.896 0 1
158.012 0 1
158.128 0 1
158.244 0 1
158.359 0 1
158.475 0 1
158.591 0 1
158.706 0 1
