
6.15755 0 1
6.2731 0 1
6.3887 0 1
6.50437 0 1
6.62009 0 1
6.73587 0 1
6.8517 0 1
6.96759 0 1
7.08353 0 1
7.19952 0 1
7.31557 0 1
7.43166 0 1
7.54781 0 1
7.664 0 1
7.78024 0 1
7.89653 0 1
8.01286 0 1
8.12924 0 1
8.24567 0 1
8.36213 0 1
8.47864 0 1
8.59519 0 1
8.71178 0 1
8.82841 0 1
8.94508 0 1
9.06179 0 1
9.17853 0 1
9.29531 0 1
9.41212 0 1
9.52897 0 1
9.64584 0 1
9.76276 0 1
9.8797 0 1
9.99667 0 1
10.1137 0 1
10.2307 0 1
10.3478 0 1
10.4648 0 1
10.5819 0 1
10.6991 0 1
10.8162 0 1
10.9334 0 1
11.0506 0 1
11.1678 0 1
11.285 0 1
11.4023 0 1
11.5196 0 1
11.6369 0 1
11.7542 0 1
11.8715 0 1
11.9888 0 1
12.1062 0 1
12.2235 0 1
12.3409 0 1
12.4582 0 1
12.5756 0 1
12.693 0 1
12.8104 0 1
12.9278 0 1
13.0452 0 1
13.1626 0 1
13.28 0 1
13.3974 0 1
13.5149 0 1
13.6323 0 1
13.7497 0 1
13.8671 0 1
13.9845 0 1
14.1019 0 1
14.2193 0 1
14.3367 0 1
14.4541 0 1
14.5714 0 1
14.6888 0 1
14.8062 0 1
14.9235 0 1
15.0408 438 20.9284
15.1581 474 21.7715
15.2755 522 22.8473
15.3927 560 23.6643
15.51 558 23.622
15.6273 527 22.9565
15.7445 519 22.7816
15.8617 550 23.4521
15.9789 510 22.5832
16.0961 544 23.3238
16.2132 494 22.2261
16.3304 492 22.1811
16.4475 531 23.0434
16.5646 503 22.4277
16.6816 585 24.1868
16.7986 594 24.3721
16.9156 585 24.1868
17.0326 613 24.7588
17.1496 604 24.5764
17.2665 585 24.1868
17.3833 574 23.9583
17.5002 577 24.0208
17.617 530 23.0217
17.7338 503 22.4277
17.8505 442 21.0238
17.9672 477 21.8403
18.0839 557 23.6008
18.2005 551 23.4734
18.3171 519 22.7816
18.4337 565 23.7697
18.5502 553 23.516
18.6666 548 23.4094
18.7831 559 23.6432
18.8994 545 23.3452
19.0158 555 23.5584
19.1321 546 23.3666
19.2483 520 22.8035
19.3645 485 22.0227
19.4806 474 21.7715
19.5967 390 19.7484
19.7128 405 20.1246
19.8288 348 18.6548
19.9447 329 18.1384
20.0606 0 1
20.1764 0 1
20.2922 0 1
20.4079 0 1
20.5236 0 1
20.6392 0 1
20.7548 0 1
20.8702 0 1
23.3078 0 1
23.4233 0 1
23.539 0 1
23.6547 0 1
23.7704 0 1
23.8862 0 1
24.0021 0 1
24.118 0 1
24.234 0 1
24.35 0 1
24.4661 203 14.2478
24.5822 253 15.906
24.6984 274 16.5529
24.8146 310 17.6068
24.9309 311 17.6352
25.0472 337 18.3576
25.1636 361 19
25.28 437 20.9045
25.3965 448 21.166
25.513 453 21.2838
25.6296 495 22.2486
25.7462 531 23.0434
25.8628 548 23.4094
25.9795 521 22.8254
26.0962 484 22
26.213 531 23.0434
26.3298 487 22.0681
26.4466 444 21.0713
26.5635 440 20.9762
26.6804 450 21.2132
26.7973 429 20.7123
26.9143 474 21.7715
27.0313 477 21.8403
27.1483 487 22.0681
27.2653 466 21.587
27.3824 510 22.5832
27.4996 492 22.1811
27.6167 516 22.7156
27.7339 480 21.9089
27.8511 465 21.5639
27.9683 475 21.7945
28.0855 443 21.0476
28.2028 440 20.9762
28.3201 450 21.2132
28.4374 374 19.3391
28.5547 418 20.445
28.6721 417 20.4206
28.7894 442 21.0238
28.9068 441 21
29.0242 460 21.4476
29.1416 485 22.0227
29.259 488 22.0907
29.3764 517 22.7376
29.4939 473 21.7486
29.6113 402 20.0499
29.7288 462 21.4942
29.8463 463 21.5174
29.9638 412 20.2978
30.0812 426 20.6398
30.1987 408 20.199
30.3162 426 20.6398
30.4337 428 20.6882
30.5512 435 20.8567
30.6687 466 21.587
30.7862 473 21.7486
30.9037 454 21.3073
31.0212 470 21.6795
31.1387 468 21.6333
31.2562 460 21.4476
31.3737 473 21.7486
31.4912 426 20.6398
31.6087 437 20.9045
31.7262 378 19.4422
31.8436 401 20.025
31.9611 387 19.6723
32.0785 328 18.1108
32.1959 399 19.975
32.3134 369 19.2094
32.4308 387 19.6723
32.5482 414 20.347
32.6655 450 21.2132
32.7829 465 21.5639
32.9002 481 21.9317
33.0176 471 21.7025
33.1349 461 21.4709
33.2522 481 21.9317
33.3694 413 20.3224
33.4867 416 20.3961
33.6039 371 19.2614
33.7211 403 20.0749
33.8383 413 20.3224
33.9554 380 19.4936
34.0725 421 20.5183
34.1896 407 20.1742
34.3067 426 20.6398
34.4237 452 21.2603
34.5407 463 21.5174
34.6577 422 20.5426
34.7746 424 20.5913
34.8915 474 21.7715
35.0084 458 21.4009
35.1252 419 20.4695
35.242 397 19.9249
35.3587 432 20.7846
35.4755 368 19.1833
35.5921 391 19.7737
35.7088 343 18.5203
35.8254 328 18.1108
35.9419 360 18.9737
36.0584 390 19.7484
36.1749 384 19.5959
36.2913 382 19.5448
36.4077 417 20.4206
36.524 392 19.799
36.6403 377 19.4165
36.7565 376 19.3907
36.8727 363 19.0526
36.9889 315 17.7482
37.1049 329 18.1384
37.221 0 1
37.3369 0 1
37.4529 0 1
37.5687 0 1
37.6845 0 1
37.8003 0 1
37.916 0 1
38.0316 0 1
38.1472 0 1
40.5851 0 1
40.7008 0 1
40.8164 0 1
40.9322 0 1
41.048 0 1
41.1639 0 1
41.2798 0 1
41.3958 0 1
41.5118 0 1
41.6279 0 1
41.744 209 14.4568
41.8602 242 15.5563
41.9765 237 15.3948
42.0928 271 16.4621
42.2091 254 15.9374
42.3255 238 15.4272
42.4419 251 15.843
42.5584 231 15.1987
42.675 258 16.0624
42.7915 307 17.5214
42.9081 324 18
43.0248 380 19.4936
43.1415 369 19.2094
43.2582 354 18.8149
43.375 394 19.8494
43.4918 363 19.0526
43.6087 392 19.799
43.7256 368 19.1833
43.8425 356 18.868
43.9595 353 18.7883
44.0765 347 18.6279
44.1935 323 17.9722
44.3106 353 18.7883
44.4277 292 17.088
44.5448 322 17.9444
44.6619 278 16.6733
44.7791 332 18.2209
44.8963 333 18.2483
45.0136 355 18.8414
45.1308 362 19.0263
45.2481 395 19.8746
45.3654 396 19.8997
45.4827 382 19.5448
45.6001 362 19.0263
45.7174 366 19.1311
45.8348 367 19.1572
45.9522 315 17.7482
46.0697 364 19.0788
46.1871 334 18.2757
46.3046 307 17.5214
46.422 304 17.4356
46.5395 320 17.8885
46.657 351 18.735
46.7745 356 18.868
46.892 382 19.5448
47.0096 365 19.105
47.1271 397 19.9249
47.2446 370 19.2354
47.3622 361 19
47.4797 383 19.5704
47.5973 352 18.7617
47.7149 352 18.7617
47.8324 370 19.2354
47.95 345 18.5742
48.0675 284 16.8523
48.1851 304 17.4356
48.3027 281 16.7631
48.4202 311 17.6352
48.5378 351 18.735
48.6554 356 18.868
48.7729 368 19.1833
48.8904 377 19.4165
49.008 372 19.2873
49.1255 363 19.0526
49.243 371 19.2614
49.3605 386 19.6469
49.478 306 17.4929
49.5955 281 16.7631
49.713 258 16.0624
49.8304 294 17.1464
49.9479 338 18.3848
50.0653 354 18.8149
50.1827 344 18.5472
50.3001 363 19.0526
50.4175 365 19.105
50.5348 373 19.3132
50.6521 423 20.567
50.7694 403 20.0749
50.8867 351 18.735
51.004 382 19.5448
51.1212 385 19.6214
51.2384 342 18.4932
51.3556 339 18.412
51.4727 334 18.2757
51.5899 297 17.2337
51.707 297 17.2337
51.824 299 17.2916
51.9411 303 17.4069
52.0581 355 18.8414
52.175 372 19.2873
52.2919 396 19.8997
52.4088 387 19.6723
52.5257 370 19.2354
52.6425 404 20.0998
52.7593 418 20.445
52.876 373 19.3132
52.9927 333 18.2483
53.1094 341 18.4662
53.226 318 17.8326
53.3426 297 17.2337
53.4591 281 16.7631
53.5756 319 17.8606
53.692 307 17.5214
53.8084 298 17.2627
53.9248 316 17.7764
54.0411 304 17.4356
54.1573 288 16.9706
54.2735 0 1
54.3896 0 1
54.5057 0 1
54.6217 0 1
54.7377 0 1
54.8537 0 1
54.9695 0 1
55.0853 0 1
55.2011 0 1
55.3168 0 1
55.4324 0 1
57.824 0 1
57.9396 0 1
58.0553 0 1
58.1711 0 1
58.2869 0 1
58.4028 0 1
58.5187 0 1
58.6347 0 1
58.7508 0 1
58.8669 0 1
58.983 264 16.2481
59.0992 282 16.7929
59.2155 328 18.1108
59.3318 331 18.1934
59.4482 380 19.4936
59.5646 424 20.5913
59.681 409 20.2237
59.7975 442 21.0238
59.9141 446 21.1187
60.0306 454 21.3073
60.1473 437 20.9045
60.2639 449 21.1896
60.3807 413 20.3224
60.4974 408 20.199
60.6142 386 19.6469
60.731 413 20.3224
60.8479 418 20.445
60.9648 454 21.3073
61.0818 454 21.3073
61.1987 463 21.5174
61.3158 473 21.7486
61.4328 478 21.8632
61.5499 429 20.7123
61.667 427 20.664
61.7841 408 20.199
61.9013 436 20.8806
62.0185 385 19.6214
62.1357 425 20.6155
62.253 454 21.3073
62.3702 479 21.8861
62.4875 505 22.4722
62.6049 497 22.2935
62.7222 499 22.3383
62.8396 487 22.0681
62.9569 497 22.2935
63.0743 508 22.5389
63.1918 539 23.2164
63.3092 483 21.9773
63.4267 512 22.6274
63.5441 458 21.4009
63.6616 444 21.0713
63.7791 489 22.1133
63.8966 399 19.975
64.0142 419 20.4695
64.1317 385 19.6214
64.2492 401 20.025
64.3668 422 20.5426
64.4843 476 21.8174
64.6019 489 22.1133
64.7195 479 21.8861
64.837 497 22.2935
64.9546 502 22.4054
65.0722 532 23.0651
65.1898 535 23.1301
65.3074 442 21.0238
65.4249 389 19.7231
65.5425 413 20.3224
65.6601 381 19.5192
65.7777 447 21.1424
65.8952 461 21.4709
66.0128 486 22.0454
66.1304 507 22.5167
66.2479 499 22.3383
66.3655 491 22.1585
66.483 499 22.3383
66.6005 491 22.1585
66.718 495 22.2486
66.8355 525 22.9129
66.953 521 22.8254
67.0705 508 22.5389
67.1879 486 22.0454
67.3054 473 21.7486
67.4228 423 20.567
67.5402 425 20.6155
67.6576 418 20.445
67.7749 435 20.8567
67.8923 392 19.799
68.0096 420 20.4939
68.1269 485 22.0227
68.2442 460 21.4476
68.3614 455 21.3307
68.4787 493 22.2036
68.5958 549 23.4307
68.713 524 22.891
68.8302 511 22.6053
68.9473 474 21.7715
69.0643 419 20.4695
69.1814 412 20.2978
69.2984 390 19.7484
69.4154 394 19.8494
69.5323 451 21.2368
69.6492 486 22.0454
69.7661 509 22.561
69.8829 491 22.1585
69.9997 500 22.3607
70.1165 509 22.561
70.2332 475 21.7945
70.3499 477 21.8403
70.4665 455 21.3307
70.5831 400 20
70.6996 417 20.4206
70.8161 387 19.6723
70.9326 374 19.3391
71.049 336 18.3303
71.1653 300 17.3205
71.2817 235 15.3297
71.3979 179 13.3791
71.5141 159 12.6095
71.6303 168 12.9615
71.7464 175 13.2288
71.8624 0 1
71.9784 0 1
72.0944 0 1
72.2102 0 1
72.3261 0 1
72.4418 0 1
72.5575 0 1
72.6732 0 1
75.1054 0 1
75.2209 0 1
75.3365 0 1
75.4521 0 1
75.5678 0 1
75.6835 0 1
75.7993 0 1
75.9151 0 1
76.031 0 1
76.147 356 18.868
76.263 383 19.5704
76.3791 380 19.4936
76.4952 436 20.8806
76.6113 368 19.1833
76.7276 454 21.3073
76.8438 446 21.1187
76.9601 472 21.7256
77.0765 543 23.3024
77.1929 615 24.7992
77.3093 668 25.8457
77.4258 733 27.074
77.5423 736 27.1293
77.6589 904 30.0666
77.7755 849 29.1376
77.8921 887 29.7825
78.0088 825 28.7228
78.1256 858 29.2916
78.2423 816 28.5657
78.3591 824 28.7054
78.4759 853 29.2062
78.5928 987 31.4166
78.7097 1107 33.2716
78.8266 1095 33.0908
78.9436 1218 34.8999
79.0606 1123 33.5112
79.1776 1125 33.541
79.2946 1264 35.5528
79.4117 1344 36.6606
79.5288 1376 37.0945
79.6459 1348 36.7151
79.7631 1411 37.5633
79.8802 1360 36.8782
79.9974 1349 36.7287
80.1147 1346 36.6879
80.2319 1332 36.4966
80.3491 1255 35.426
80.4664 1216 34.8712
80.5837 1291 35.9305
80.701 1347 36.7015
80.8183 1380 37.1484
80.9357 1391 37.2961
81.053 1389 37.2693
81.1704 1402 37.4433
81.2877 1452 38.1051
81.4051 1339 36.5923
81.5225 1343 36.647
81.6399 1279 35.7631
81.7573 1216 34.8712
81.8747 1119 33.4515
81.9922 1082 32.8938
82.1096 977 31.257
82.227 1031 32.1092
82.3444 1019 31.9218
82.4619 1010 31.7805
82.5793 952 30.8545
82.6967 801 28.3019
82.8142 773 27.8029
82.9316 722 26.8701
83.049 741 27.2213
83.1664 764 27.6405
83.2838 646 25.4165
83.4012 672 25.923
83.5186 659 25.671
83.636 616 24.8193
83.7534 526 22.9347
83.8708 475 21.7945
83.9881 426 20.6398
84.1055 425 20.6155
84.2228 431 20.7605
84.3401 456 21.3542
84.4575 484 22
84.5747 513 22.6495
84.692 518 22.7596
84.8093 526 22.9347
84.9265 566 23.7908
85.0437 535 23.1301
85.1609 511 22.6053
85.2781 445 21.095
85.3952 392 19.799
85.5123 418 20.445
85.6294 414 20.347
85.7465 402 20.0499
85.8636 428 20.6882
85.9806 496 22.2711
86.0976 508 22.5389
86.2145 484 22
86.3315 491 22.1585
86.4484 540 23.2379
86.5652 545 23.3452
86.682 511 22.6053
86.7988 560 23.6643
86.9156 497 22.2935
87.0323 558 23.622
87.149 527 22.9565
87.2657 480 21.9089
87.3823 453 21.2838
87.4988 380 19.4936
87.6154 344 18.5472
87.7318 306 17.4929
87.8483 352 18.7617
87.9647 351 18.735
88.081 379 19.4679
88.1973 385 19.6214
88.3136 357 18.8944
88.4298 404 20.0998
88.546 326 18.0555
88.6621 328 18.1108
88.7781 255 15.9687
88.8942 0 1
89.0101 0 1
89.126 0 1
89.2419 0 1
89.3577 0 1
89.4734 0 1
89.5891 0 1
89.7047 0 1
89.8203 0 1
89.9358 0 1
92.3269 0 1
92.4424 0 1
92.558 0 1
92.6736 0 1
92.7893 0 1
92.905 0 1
93.0208 0 1
93.1366 0 1
93.2525 0 1
93.3685 0 1
93.4845 0 1
93.6005 518 22.7596
93.7167 553 23.516
93.8328 595 24.3926
93.949 609 24.6779
94.0653 656 25.6125
94.1816 690 26.2679
94.2979 764 27.6405
94.4143 818 28.6007
94.5307 713 26.7021
94.6472 657 25.632
94.7637 676 26
94.8803 643 25.3574
94.9969 699 26.4386
95.1135 830 28.8097
95.2302 961 31
95.3469 875 29.5804
95.4637 981 31.3209
95.5805 996 31.5595
95.6973 939 30.6431
95.8142 995 31.5436
95.9311 1030 32.0936
96.048 1026 32.0312
96.1649 1110 33.3167
96.2819 1056 32.4962
96.3989 987 31.4166
96.516 826 28.7402
96.633 681 26.096
96.7501 646 25.4165
96.8673 603 24.5561
96.9844 758 27.5318
97.1016 885 29.7489
97.2188 883 29.7153
97.336 924 30.3974
97.4532 966 31.0805
97.5704 1022 31.9687
97.6877 995 31.5436
97.805 961 31
97.9223 936 30.5941
98.0396 866 29.4279
98.1569 855 29.2404
98.2743 757 27.5136
98.3916 681 26.096
98.509 632 25.1396
98.6264 614 24.779
98.7438 600 24.4949
98.8612 635 25.1992
98.9786 718 26.7955
99.096 695 26.3629
99.2134 675 25.9808
99.3308 680 26.0768
99.4482 640 25.2982
99.5656 657 25.632
99.6831 645 25.3969
99.8005 606 24.6171
99.9179 611 24.7184
100.035 609 24.6779
100.153 524 22.891
100.27 508 22.5389
100.388 483 21.9773
100.505 457 21.3776
100.622 474 21.7715
100.74 490 22.1359
100.857 487 22.0681
100.975 502 22.4054
101.092 524 22.891
101.209 561 23.6854
101.327 563 23.7276
101.444 531 23.0434
101.561 537 23.1733
101.679 501 22.383
101.796 453 21.2838
101.913 462 21.4942
102.03 412 20.2978
102.148 416 20.3961
102.265 464 21.5407
102.382 496 22.2711
102.499 564 23.7487
102.616 513 22.6495
102.733 544 23.3238
102.851 575 23.9792
102.968 562 23.7065
103.085 570 23.8747
103.202 576 24
103.319 499 22.3383
103.436 572 23.9165
103.552 524 22.891
103.669 492 22.1811
103.786 503 22.4277
103.903 436 20.8806
104.02 419 20.4695
104.137 412 20.2978
104.253 421 20.5183
104.37 503 22.4277
104.487 536 23.1517
104.603 543 23.3024
104.72 548 23.4094
104.836 559 23.6432
104.953 482 21.9545
105.069 492 22.1811
105.186 454 21.3073
105.302 362 19.0263
105.418 365 19.105
105.535 383 19.5704
105.651 346 18.6011
105.767 367 19.1572
105.883 333 18.2483
105.999 331 18.1934
106.115 0 1
106.231 0 1
106.347 0 1
106.463 0 1
106.579 0 1
106.694 0 1
106.81 0 1
106.926 0 1
107.041 0 1
107.157 0 1
109.576 0 1
109.692 0 1
109.807 0 1
109.923 0 1
110.039 0 1
110.155 0 1
110.27 0 1
110.386 0 1
110.502 0 1
110.618 160 12.6491
110.735 218 14.7648
110.851 254 15.9374
110.967 346 18.6011
111.083 363 19.0526
111.199 382 19.5448
111.316 448 21.166
111.432 416 20.3961
111.549 458 21.4009
111.665 439 20.9523
111.782 463 21.5174
111.898 459 21.4243
112.015 414 20.347
112.132 433 20.8087
112.248 446 21.1187
112.365 358 18.9209
112.482 368 19.1833
112.599 352 18.7617
112.716 345 18.5742
112.832 370 19.2354
112.949 406 20.1494
113.066 413 20.3224
113.183 451 21.2368
113.3 437 20.9045
113.417 418 20.445
113.534 431 20.7605
113.652 444 21.0713
113.769 372 19.2873
113.886 349 18.6815
114.003 328 18.1108
114.12 367 19.1572
114.238 367 19.1572
114.355 417 20.4206
114.472 403 20.0749
114.589 430 20.7364
114.707 421 20.5183
114.824 460 21.4476
114.942 477 21.8403
115.059 444 21.0713
115.176 456 21.3542
115.294 477 21.8403
115.411 476 21.8174
115.529 461 21.4709
115.646 405 20.1246
115.764 419 20.4695
115.881 390 19.7484
115.999 334 18.2757
116.116 357 18.8944
116.234 338 18.3848
116.351 335 18.303
116.469 385 19.6214
116.586 405 20.1246
116.704 410 20.2485
116.821 419 20.4695
116.939 432 20.7846
117.056 433 20.8087
117.174 437 20.9045
117.291 434 20.8327
117.409 371 19.2614
117.526 316 17.7764
117.644 333 18.2483
117.761 313 17.6918
117.879 380 19.4936
117.996 404 20.0998
118.114 370 19.2354
118.231 427 20.664
118.349 394 19.8494
118.466 418 20.445
118.584 437 20.9045
118.701 444 21.0713
118.819 415 20.3715
118.936 397 19.9249
119.053 462 21.4942
119.171 415 20.3715
119.288 398 19.9499
119.405 389 19.7231
119.523 351 18.735
119.64 306 17.4929
119.757 318 17.8326
119.875 318 17.8326
119.992 361 19
120.109 373 19.3132
120.226 328 18.1108
120.343 420 20.4939
120.46 436 20.8806
120.578 414 20.347
120.695 396 19.8997
120.812 368 19.1833
120.929 396 19.8997
121.046 363 19.0526
121.163 362 19.0263
121.279 295 17.1756
121.396 300 17.3205
121.513 339 18.412
121.63 346 18.6011
121.747 347 18.6279
121.863 370 19.2354
121.98 372 19.2873
122.097 354 18.8149
122.213 363 19.0526
122.33 338 18.3848
122.446 326 18.0555
122.563 296 17.2047
122.679 293 17.1172
122.795 286 16.9115
122.912 254 15.9374
123.028 203 14.2478
123.144 196 14
123.26 158 12.5698
123.377 0 1
123.493 0 1
123.609 0 1
123.725 0 1
123.84 0 1
123.956 0 1
124.072 0 1
124.188 0 1
124.303 0 1
124.419 0 1
126.852 0 1
126.968 0 1
127.083 0 1
127.199 0 1
127.315 0 1
127.431 0 1
127.547 0 1
127.663 0 1
127.779 0 1
127.895 0 1
128.011 0 1
128.127 0 1
128.243 0 1
128.359 381 19.5192
128.476 398 19.9499
128.592 395 19.8746
128.708 376 19.3907
128.825 341 18.4662
128.941 336 18.3303
129.058 361 19
129.174 365 19.105
129.291 389 19.7231
129.408 451 21.2368
129.524 438 20.9284
129.641 446 21.1187
129.758 450 21.2132
129.875 450 21.2132
129.992 397 19.9249
130.108 410 20.2485
130.225 351 18.735
130.342 340 18.4391
130.459 338 18.3848
130.576 370 19.2354
130.693 377 19.4165
130.81 387 19.6723
130.928 433 20.8087
131.045 398 19.9499
131.162 475 21.7945
131.279 434 20.8327
131.396 390 19.7484
131.513 431 20.7605
131.631 446 21.1187
131.748 462 21.4942
131.865 394 19.8494
131.983 391 19.7737
132.1 416 20.3961
132.217 349 18.6815
132.335 360 18.9737
132.452 365 19.105
132.57 370 19.2354
132.687 383 19.5704
132.804 390 19.7484
132.922 380 19.4936
133.039 411 20.2731
133.157 438 20.9284
133.274 394 19.8494
133.392 451 21.2368
133.509 412 20.2978
133.627 395 19.8746
133.744 396 19.8997
133.862 341 18.4662
133.979 331 18.1934
134.097 354 18.8149
134.214 388 19.6977
134.332 417 20.4206
134.449 392 19.799
134.567 407 20.1742
134.684 403 20.0749
134.802 406 20.1494
134.919 415 20.3715
135.037 392 19.799
135.154 389 19.7231
135.272 383 19.5704
135.389 379 19.4679
135.507 389 19.7231
135.624 409 20.2237
135.742 390 19.7484
135.859 352 18.7617
135.977 365 19.105
136.094 331 18.1934
136.211 361 19
136.329 408 20.199
136.446 427 20.664
136.564 448 21.166
136.681 452 21.2603
136.798 439 20.9523
136.915 419 20.4695
137.033 376 19.3907
137.15 367 19.1572
137.267 357 18.8944
137.384 347 18.6279
137.502 356 18.868
137.619 328 18.1108
137.736 336 18.3303
137.853 351 18.735
137.97 384 19.5959
138.087 388 19.6977
138.204 402 20.0499
138.321 449 21.1896
138.438 407 20.1742
138.555 384 19.5959
138.672 415 20.3715
138.788 370 19.2354
138.905 351 18.735
139.022 364 19.0788
139.139 333 18.2483
139.255 327 18.0831
139.372 306 17.4929
139.488 276 16.6132
139.605 225 15
139.721 243 15.5885
139.838 221 14.8661
139.954 266 16.3095
140.071 273 16.5227
140.187 254 15.9374
140.303 195 13.9642
140.419 223 14.9332
140.535 200 14.1421
140.652 205 14.3178
140.768 0 1
140.884 0 1
141 0 1
141.115 0 1
141.231 0 1
141.347 0 1
141.463 0 1
141.578 0 1
141.694 0 1
144.104 0 1
144.219 0 1
144.335 0 1
144.45 0 1
144.566 0 1
144.682 0 1
144.798 0 1
144.914 0 1
145.03 0 1
145.146 264 16.2481
145.262 278 16.6733
145.378 283 16.8226
145.494 303 17.4069
145.61 318 17.8326
145.726 327 18.0831
145.842 322 17.9444
145.959 279 16.7033
146.075 280 16.7332
146.192 271 16.4621
146.308 272 16.4924
146.425 274 16.5529
146.541 274 16.5529
146.658 273 16.5227
146.774 281 16.7631
146.891 274 16.5529
147.008 289 17
147.125 277 16.6433
147.241 334 18.2757
147.358 329 18.1384
147.475 296 17.2047
147.592 342 18.4932
147.709 285 16.8819
147.826 316 17.7764
147.943 311 17.6352
148.06 300 17.3205
148.177 278 16.6733
148.294 256 16
148.411 274 16.5529
148.528 249 15.7797
148.645 260 16.1245
148.762 291 17.0587
148.88 291 17.0587
148.997 309 17.5784
149.114 289 17
149.231 332 18.2209
149.349 319 17.8606
149.466 313 17.6918
149.583 298 17.2627
149.701 293 17.1172
149.818 291 17.0587
149.935 282 16.7929
150.053 217 14.7309
150.17 277 16.6433
150.287 250 15.8114
150.405 265 16.2788
150.522 320 17.8885
150.64 312 17.6635
150.757 293 17.1172
150.875 333 18.2483
150.992 312 17.6635
151.11 324 18
151.227 300 17.3205
151.344 307 17.5214
151.462 290 17.0294
151.579 287 16.9411
151.697 255 15.9687
151.814 270 16.4317
151.932 273 16.5227
152.049 269 16.4012
152.167 286 16.9115
152.284 276 16.6132
152.402 290 17.0294
152.519 293 17.1172
152.636 318 17.8326
152.754 299 17.2916
152.871 322 17.9444
152.989 321 17.9165
153.106 310 17.6068
153.223 298 17.2627
153.341 289 17
153.458 267 16.3401
153.575 274 16.5529
153.693 231 15.1987
153.81 319 17.8606
153.927 291 17.0587
154.044 291 17.0587
154.162 291 17.0587
154.279 286 16.9115
154.396 284 16.8523
154.513 273 16.5227
154.63 265 16.2788
154.747 307 17.5214
154.864 318 17.8326
154.981 289 17
155.098 296 17.2047
155.215 271 16.4621
155.332 281 16.7631
155.449 285 16.8819
155.566 234 15.2971
155.683 229 15.1327
155.8 245 15.6525
155.917 254 15.9374
156.033 258 16.0624
156.15 0 1
156.267 0 1
156.383 0 1
156.5 0 1
156.617 0 1
156.733 0 1
156.85 0 1
156.966 0 1
157.082 0 1
157.199 0 1
157.315 0 1
157.431 0 1
157.547 0 1
157.664 0 1
157.78 0 1
157.896 0 1
158.012 0 1
158.128 0 1
158.244 0 1
158.359 0 1
158.475 0 1
158.591 0 1
158.706 0 1
