
6.15755 0 1
6.2731 0 1
6.3887 0 1
6.50437 0 1
6.62009 0 1
6.73587 0 1
6.8517 0 1
6.96759 0 1
7.08353 0 1
7.19952 0 1
7.31557 0 1
7.43166 0 1
7.54781 0 1
7.664 0 1
7.78024 0 1
7.89653 0 1
8.01286 0 1
8.12924 0 1
8.24567 0 1
8.36213 0 1
8.47864 0 1
8.59519 0 1
8.71178 0 1
8.82841 0 1
8.94508 0 1
9.06179 0 1
9.17853 0 1
9.29531 0 1
9.41212 0 1
9.52897 0 1
9.64584 0 1
9.76276 0 1
9.8797 0 1
9.99667 0 1
10.1137 0 1
10.2307 0 1
10.3478 0 1
10.4648 0 1
10.5819 0 1
10.6991 0 1
10.8162 0 1
10.9334 0 1
11.0506 0 1
11.1678 0 1
11.285 0 1
11.4023 0 1
11.5196 0 1
11.6369 0 1
11.7542 0 1
11.8715 0 1
11.9888 0 1
12.1062 0 1
12.2235 0 1
12.3409 0 1
12.4582 0 1
12.5756 0 1
12.693 0 1
12.8104 0 1
12.9278 0 1
13.0452 0 1
13.1626 0 1
13.28 0 1
13.3974 0 1
13.5149 0 1
13.6323 0 1
13.7497 0 1
13.8671 0 1
13.9845 0 1
14.1019 0 1
14.2193 0 1
14.3367 0 1
14.4541 0 1
14.5714 0 1
14.6888 0 1
14.8062 0 1
14.9235 0 1
15.0408 0 0
15.1581 0 0
15.2755 0 0
15.3927 0 0
15.51 0 0
15.6273 0 0
15.7445 0 0
15.8617 0 0
15.9789 0 0
16.0961 0 0
16.2132 0 0
16.3304 0 0
16.4475 0 0
16.5646 0 0
16.6816 0 0
16.7986 0 0
16.9156 0 0
17.0326 0 0
17.1496 0 0
17.2665 0 0
17.3833 0 0
17.5002 0 0
17.617 0 0
17.7338 0 0
17.8505 0 0
17.9672 0 0
18.0839 0 0
18.2005 0 0
18.3171 0 0
18.4337 0 0
18.5502 0 0
18.6666 0 0
18.7831 0 0
18.8994 0 0
19.0158 0 0
19.1321 0 0
19.2483 0 0
19.3645 0 0
19.4806 0 0
19.5967 0 0
19.7128 0 0
19.8288 0 0
19.9447 0 0
20.0606 0 1
20.1764 0 1
20.2922 0 1
20.4079 0 1
20.5236 0 1
20.6392 0 1
20.7548 0 1
20.8702 0 1
23.3078 0 1
23.4233 0 1
23.539 0 1
23.6547 0 1
23.7704 0 1
23.8862 0 1
24.0021 0 1
24.118 0 1
24.234 0 1
24.35 0 1
24.4661 1935 43.9886
24.5822 1987 44.5758
24.6984 1867 43.2088
24.8146 1764 42
24.9309 1799 42.4146
25.0472 1643 40.5339
25.1636 1682 41.0122
25.28 1831 42.7902
25.3965 1910 43.7035
25.513 2021 44.9555
25.6296 2067 45.4643
25.7462 2385 48.8365
25.8628 2406 49.051
25.9795 2423 49.224
26.0962 2410 49.0918
26.213 2428 49.2747
26.3298 2382 48.8057
26.4466 2384 48.8262
26.5635 2416 49.1528
26.6804 2414 49.1325
26.7973 2354 48.518
26.9143 2238 47.3075
27.0313 2300 47.9583
27.1483 2315 48.1144
27.2653 2288 47.833
27.3824 2367 48.6518
27.4996 2357 48.5489
27.6167 2189 46.7868
27.7339 2166 46.5403
27.8511 2079 45.5961
27.9683 2076 45.5631
28.0855 2057 45.3542
28.2028 1947 44.1248
28.3201 1810 42.5441
28.4374 1697 41.1947
28.5547 1575 39.6863
28.6721 1477 38.4318
28.7894 1631 40.3856
28.9068 1718 41.4488
29.0242 1791 42.3202
29.1416 1950 44.1588
29.259 2142 46.2817
29.3764 2195 46.8508
29.4939 2237 47.2969
29.6113 2307 48.0312
29.7288 2180 46.6905
29.8463 2251 47.4447
29.9638 2323 48.1975
30.0812 2297 47.927
30.1987 2300 47.9583
30.3162 2275 47.697
30.4337 2313 48.0937
30.5512 2239 47.3181
30.6687 2225 47.1699
30.7862 2272 47.6655
30.9037 2255 47.4868
31.0212 2301 47.9687
31.1387 2207 46.9787
31.2562 2122 46.0652
31.3737 2165 46.5296
31.4912 2068 45.4753
31.6087 2011 44.8442
31.7262 1887 43.4396
31.8436 1820 42.6615
31.9611 1682 41.0122
32.0785 1495 38.6652
32.1959 1375 37.081
32.3134 1541 39.2556
32.4308 1581 39.7618
32.5482 1876 43.3128
32.6655 1930 43.9318
32.7829 2059 45.3762
32.9002 2220 47.1169
33.0176 2203 46.9361
33.1349 2134 46.1952
33.2522 2293 47.8853
33.3694 2243 47.3603
33.4867 2153 46.4004
33.6039 2212 47.0319
33.7211 2134 46.1952
33.8383 2312 48.0833
33.9554 2176 46.6476
34.0725 2207 46.9787
34.1896 2160 46.4758
34.3067 2172 46.6047
34.4237 2184 46.7333
34.5407 2190 46.7974
34.6577 2221 47.1275
34.7746 2160 46.4758
34.8915 1996 44.6766
35.0084 1977 44.4635
35.1252 1964 44.317
35.242 1825 42.72
35.3587 1842 42.9185
35.4755 1761 41.9643
35.5921 1591 39.8873
35.7088 1555 39.4335
35.8254 1341 36.6197
35.9419 1317 36.2905
36.0584 1427 37.7757
36.1749 1494 38.6523
36.2913 1619 40.2368
36.4077 1773 42.107
36.524 1982 44.5197
36.6403 2049 45.2659
36.7565 2107 45.9021
36.8727 2119 46.0326
36.9889 2073 45.5302
37.1049 2073 45.5302
37.221 0 1
37.3369 0 1
37.4529 0 1
37.5687 0 1
37.6845 0 1
37.8003 0 1
37.916 0 1
38.0316 0 1
38.1472 0 1
40.5851 0 1
40.7008 0 1
40.8164 0 1
40.9322 0 1
41.048 0 1
41.1639 0 1
41.2798 0 1
41.3958 0 1
41.5118 0 1
41.6279 0 1
41.744 1527 39.0768
41.8602 1670 40.8656
41.9765 1747 41.7971
42.0928 1775 42.1307
42.2091 1773 42.107
42.3255 1725 41.5331
42.4419 1709 41.3401
42.5584 1695 41.1704
42.675 1625 40.3113
42.7915 1681 41
42.9081 1706 41.3038
43.0248 1636 40.4475
43.1415 1645 40.5586
43.2582 1672 40.8901
43.375 1605 40.0625
43.4918 1546 39.3192
43.6087 1578 39.724
43.7256 1498 38.704
43.8425 1375 37.081
43.9595 1429 37.8021
44.0765 1334 36.524
44.1935 1278 35.7491
44.3106 1123 33.5112
44.4277 1090 33.0151
44.5448 968 31.1127
44.6619 798 28.2489
44.7791 833 28.8617
44.8963 864 29.3939
45.0136 904 30.0666
45.1308 1029 32.078
45.2481 1112 33.3467
45.3654 1191 34.5109
45.4827 1236 35.1568
45.6001 1181 34.3657
45.7174 1176 34.2929
45.8348 1195 34.5688
45.9522 1210 34.7851
46.0697 1130 33.6155
46.1871 1162 34.0881
46.3046 1099 33.1512
46.422 1103 33.2114
46.5395 1177 34.3074
46.657 1070 32.7109
46.7745 1017 31.8904
46.892 1032 32.1248
47.0096 1024 32
47.1271 1017 31.8904
47.2446 1023 31.9844
47.3622 1018 31.9061
47.4797 972 31.1769
47.5973 905 30.0832
47.7149 874 29.5635
47.8324 784 28
47.95 745 27.2947
48.0675 754 27.4591
48.1851 639 25.2784
48.3027 575 23.9792
48.4202 595 24.3926
48.5378 646 25.4165
48.6554 655 25.593
48.7729 772 27.7849
48.8904 795 28.1957
49.008 853 29.2062
49.1255 877 29.6142
49.243 910 30.1662
49.3605 843 29.0345
49.478 867 29.4449
49.5955 888 29.7993
49.713 824 28.7054
49.8304 884 29.7321
49.9479 924 30.3974
50.0653 909 30.1496
50.1827 923 30.3809
50.3001 937 30.6105
50.4175 1032 32.1248
50.5348 1020 31.9374
50.6521 992 31.496
50.7694 1046 32.3419
50.8867 1079 32.8481
51.004 1039 32.2335
51.1212 1025 32.0156
51.2384 926 30.4302
51.3556 953 30.8707
51.4727 913 30.2159
51.5899 853 29.2062
51.707 754 27.4591
51.824 700 26.4575
51.9411 805 28.3725
52.0581 890 29.8329
52.175 1055 32.4808
52.2919 1242 35.242
52.4088 1346 36.6879
52.5257 1359 36.8646
52.6425 1383 37.1887
52.7593 1498 38.704
52.876 1544 39.2938
52.9927 1521 39
53.1094 1608 40.0999
53.226 1556 39.4462
53.3426 1527 39.0768
53.4591 1641 40.5093
53.5756 1626 40.3237
53.692 1659 40.7308
53.8084 1631 40.3856
53.9248 1638 40.4722
54.0411 1661 40.7554
54.1573 1741 41.7253
54.2735 0 1
54.3896 0 1
54.5057 0 1
54.6217 0 1
54.7377 0 1
54.8537 0 1
54.9695 0 1
55.0853 0 1
55.2011 0 1
55.3168 0 1
55.4324 0 1
57.824 0 1
57.9396 0 1
58.0553 0 1
58.1711 0 1
58.2869 0 1
58.4028 0 1
58.5187 0 1
58.6347 0 1
58.7508 0 1
58.8669 0 1
58.983 1867 43.2088
59.0992 2083 45.6399
59.2155 1959 44.2606
59.3318 1989 44.5982
59.4482 2134 46.1952
59.5646 2036 45.1221
59.681 1977 44.4635
59.7975 2018 44.9222
59.9141 1816 42.6146
60.0306 1645 40.5586
60.1473 1564 39.5474
60.2639 1367 36.973
60.3807 1234 35.1283
60.4974 1129 33.6006
60.6142 1073 32.7567
60.731 1328 36.4417
60.8479 1408 37.5233
60.9648 1592 39.8999
61.0818 1695 41.1704
61.1987 1756 41.9047
61.3158 1810 42.5441
61.4328 1787 42.2729
61.5499 1738 41.6893
61.667 1835 42.8369
61.7841 1786 42.2611
61.9013 1815 42.6028
62.0185 1814 42.5911
62.1357 1784 42.2374
62.253 1768 42.0476
62.3702 1787 42.2729
62.4875 1763 41.9881
62.6049 1878 43.3359
62.7222 1834 42.8252
62.8396 1820 42.6615
62.9569 1864 43.1741
63.0743 1820 42.6615
63.1918 1704 41.2795
63.3092 1683 41.0244
63.4267 1611 40.1373
63.5441 1452 38.1051
63.6616 1360 36.8782
63.7791 1210 34.7851
63.8966 1016 31.8748
64.0142 919 30.315
64.1317 998 31.5911
64.2492 1153 33.9559
64.3668 1185 34.4238
64.4843 1325 36.4005
64.6019 1558 39.4715
64.7195 1525 39.0512
64.837 1685 41.0488
64.9546 1698 41.2068
65.0722 1694 41.1582
65.1898 1587 39.8372
65.3074 1593 39.9124
65.4249 1637 40.4599
65.5425 1540 39.2428
65.6601 1499 38.7169
65.7777 1536 39.1918
65.8952 1615 40.1871
66.0128 1638 40.4722
66.1304 1651 40.6325
66.2479 1654 40.6694
66.3655 1675 40.9268
66.483 1662 40.7676
66.6005 1738 41.6893
66.718 1632 40.398
66.8355 1677 40.9512
66.953 1551 39.3827
67.0705 1532 39.1408
67.1879 1423 37.7227
67.3054 1298 36.0278
67.4228 1086 32.9545
67.5402 862 29.3598
67.6576 783 27.9821
67.7749 876 29.5973
67.8923 986 31.4006
68.0096 1188 34.4674
68.1269 1335 36.5377
68.2442 1515 38.923
68.3614 1622 40.2741
68.4787 1536 39.1918
68.5958 1547 39.3319
68.713 1734 41.6413
68.8302 1661 40.7554
68.9473 1648 40.5956
69.0643 1720 41.4729
69.1814 1663 40.7799
69.2984 1714 41.4005
69.4154 1713 41.3884
69.5323 1812 42.5676
69.6492 1734 41.6413
69.7661 1709 41.3401
69.8829 1809 42.5323
69.9997 1772 42.0951
70.1165 1819 42.6497
70.2332 1970 44.3847
70.3499 1893 43.5086
70.4665 1761 41.9643
70.5831 1849 43
70.6996 1739 41.7013
70.8161 1532 39.1408
70.9326 1516 38.9358
71.049 1394 37.3363
71.1653 1088 32.9848
71.2817 921 30.348
71.3979 794 28.178
71.5141 872 29.5296
71.6303 950 30.8221
71.7464 1068 32.6803
71.8624 0 1
71.9784 0 1
72.0944 0 1
72.2102 0 1
72.3261 0 1
72.4418 0 1
72.5575 0 1
72.6732 0 1
75.1054 0 1
75.2209 0 1
75.3365 0 1
75.4521 0 1
75.5678 0 1
75.6835 0 1
75.7993 0 1
75.9151 0 1
76.031 0 1
76.147 1428 37.7889
76.263 1544 39.2938
76.3791 1482 38.4968
76.4952 1170 34.2053
76.6113 924 30.3974
76.7276 839 28.9655
76.8438 934 30.5614
76.9601 1063 32.6037
77.0765 1300 36.0555
77.1929 1565 39.5601
77.3093 1657 40.7063
77.4258 1801 42.4382
77.5423 1739 41.7013
77.6589 1787 42.2729
77.7755 1752 41.8569
77.8921 1760 41.9524
78.0088 1725 41.5331
78.1256 1794 42.3556
78.2423 1803 42.4617
78.3591 1752 41.8569
78.4759 1672 40.8901
78.5928 1795 42.3674
78.7097 1772 42.0951
78.8266 1736 41.6653
78.9436 1868 43.2204
79.0606 1802 42.45
79.1776 1774 42.1189
79.2946 1791 42.3202
79.4117 1814 42.5911
79.5288 1788 42.2847
79.6459 1745 41.7732
79.7631 1639 40.4846
79.8802 1584 39.7995
79.9974 1362 36.9053
80.1147 1228 35.0428
80.2319 914 30.2324
80.3491 730 27.0185
80.4664 807 28.4077
80.5837 915 30.249
80.701 1130 33.6155
80.8183 1356 36.8239
80.9357 1506 38.8072
81.053 1605 40.0625
81.1704 1459 38.1969
81.2877 1606 40.0749
81.4051 1537 39.2046
81.5225 1496 38.6782
81.6399 1483 38.5097
81.7573 1634 40.4228
81.8747 1458 38.1838
81.9922 1524 39.0384
82.1096 1560 39.4968
82.227 1518 38.9615
82.3444 1494 38.6523
82.4619 1566 39.5727
82.5793 1610 40.1248
82.6967 1479 38.4578
82.8142 1557 39.4588
82.9316 1514 38.9102
83.049 1548 39.3446
83.1664 1504 38.7814
83.2838 1482 38.4968
83.4012 1336 36.5513
83.5186 1279 35.7631
83.636 1223 34.9714
83.7534 1031 32.1092
83.8708 791 28.1247
83.9881 595 24.3926
84.1055 619 24.8797
84.2228 722 26.8701
84.3401 920 30.3315
84.4575 1162 34.0881
84.5747 1366 36.9594
84.692 1440 37.9473
84.8093 1371 37.027
84.9265 1396 37.3631
85.0437 1386 37.229
85.1609 1351 36.756
85.2781 1505 38.7943
85.3952 1462 38.2361
85.5123 1535 39.1791
85.6294 1448 38.0526
85.7465 1492 38.6264
85.8636 1472 38.3667
85.9806 1581 39.7618
86.0976 1569 39.6106
86.2145 1585 39.8121
86.3315 1631 40.3856
86.4484 1586 39.8246
86.5652 1688 41.0853
86.682 1698 41.2068
86.7988 1733 41.6293
86.9156 1658 40.7185
87.0323 1537 39.2046
87.149 1566 39.5727
87.2657 1373 37.054
87.3823 1144 33.8231
87.4988 933 30.545
87.6154 807 28.4077
87.7318 870 29.4958
87.8483 1079 32.8481
87.9647 1364 36.9324
88.081 1574 39.6737
88.1973 1659 40.7308
88.3136 1707 41.3159
88.4298 1751 41.845
88.546 1785 42.2493
88.6621 1760 41.9524
88.7781 1741 41.7253
88.8942 0 1
89.0101 0 1
89.126 0 1
89.2419 0 1
89.3577 0 1
89.4734 0 1
89.5891 0 1
89.7047 0 1
89.8203 0 1
89.9358 0 1
92.3269 0 1
92.4424 0 1
92.558 0 1
92.6736 0 1
92.7893 0 1
92.905 0 1
93.0208 0 1
93.1366 0 1
93.2525 0 1
93.3685 0 1
93.4845 0 1
93.6005 1703 41.2674
93.7167 1702 41.2553
93.8328 1791 42.3202
93.949 1785 42.2493
94.0653 1725 41.5331
94.1816 1743 41.7493
94.2979 1792 42.332
94.4143 1739 41.7013
94.5307 1658 40.7185
94.6472 1725 41.5331
94.7637 1837 42.8602
94.8803 1848 42.9884
94.9969 1778 42.1663
95.1135 1826 42.7317
95.2302 1824 42.7083
95.3469 1836 42.8486
95.4637 1896 43.5431
95.5805 1823 42.6966
95.6973 1902 43.6119
95.8142 1870 43.2435
95.9311 1888 43.4511
96.048 1835 42.8369
96.1649 1721 41.4849
96.2819 1710 41.3521
96.3989 1593 39.9124
96.516 1439 37.9342
96.633 1159 34.0441
96.7501 944 30.7246
96.8673 865 29.4109
96.9844 909 30.1496
97.1016 1104 33.2265
97.2188 1329 36.4555
97.336 1592 39.8999
97.4532 1622 40.2741
97.5704 1688 41.0853
97.6877 1761 41.9643
97.805 1715 41.4126
97.9223 1726 41.5452
98.0396 1746 41.7852
98.1569 1671 40.8779
98.2743 1694 41.1582
98.3916 1708 41.328
98.509 1770 42.0714
98.6264 1652 40.6448
98.7438 1732 41.6173
98.8612 1715 41.4126
98.9786 1731 41.6053
99.096 1752 41.8569
99.2134 1746 41.7852
99.3308 1809 42.5323
99.4482 1744 41.7612
99.5656 1792 42.332
99.6831 1705 41.2916
99.8005 1656 40.694
99.9179 1680 40.9878
100.035 1519 38.9744
100.153 1378 37.1214
100.27 1163 34.1028
100.388 931 30.5123
100.505 947 30.7734
100.622 1114 33.3766
100.74 1405 37.4833
100.857 1604 40.05
100.975 1696 41.1825
101.092 1754 41.8808
101.209 1717 41.4367
101.327 1742 41.7373
101.444 1695 41.1704
101.561 1702 41.2553
101.679 1736 41.6653
101.796 1708 41.328
101.913 1691 41.1218
102.03 1767 42.0357
102.148 1753 41.8688
102.265 1687 41.0731
102.382 1830 42.7785
102.499 1841 42.9069
102.616 1891 43.4856
102.733 1881 43.3705
102.851 1810 42.5441
102.968 2009 44.8219
103.085 1873 43.2782
103.202 1905 43.6463
103.319 1789 42.2966
103.436 1748 41.8091
103.552 1583 39.7869
103.669 1490 38.6005
103.786 1253 35.3977
103.903 1103 33.2114
104.02 1050 32.4037
104.137 1204 34.6987
104.253 1507 38.8201
104.37 1782 42.2137
104.487 1884 43.4051
104.603 1930 43.9318
104.72 1882 43.382
104.836 1899 43.5775
104.953 1917 43.7836
105.069 1958 44.2493
105.186 1859 43.1161
105.302 1907 43.6692
105.418 1944 44.0908
105.535 1983 44.5309
105.651 2040 45.1664
105.767 1906 43.6578
105.883 2173 46.6154
105.999 2095 45.7712
106.115 0 1
106.231 0 1
106.347 0 1
106.463 0 1
106.579 0 1
106.694 0 1
106.81 0 1
106.926 0 1
107.041 0 1
107.157 0 1
109.576 0 1
109.692 0 1
109.807 0 1
109.923 0 1
110.039 0 1
110.155 0 1
110.27 0 1
110.386 0 1
110.502 0 1
110.618 1923 43.852
110.735 1955 44.2154
110.851 2096 45.7821
110.967 1986 44.5646
111.083 1996 44.6766
111.199 2075 45.5522
111.316 2040 45.1664
111.432 2144 46.3033
111.549 2029 45.0444
111.665 2023 44.9778
111.782 2025 45
111.898 1914 43.7493
112.015 1811 42.5558
112.132 1751 41.845
112.248 1538 39.2173
112.365 1304 36.1109
112.482 1173 34.2491
112.599 1183 34.3948
112.716 1229 35.0571
112.832 1464 38.2623
112.949 1794 42.3556
113.066 1946 44.1135
113.183 1859 43.1161
113.3 1929 43.9204
113.417 1910 43.7035
113.534 1840 42.8952
113.652 1907 43.6692
113.769 1896 43.5431
113.886 1910 43.7035
114.003 1908 43.6807
114.12 1880 43.359
114.238 1869 43.2319
114.355 2006 44.7884
114.472 2037 45.1331
114.589 2109 45.9239
114.707 2028 45.0333
114.824 2050 45.2769
114.942 2165 46.5296
115.059 2188 46.7761
115.176 2226 47.1805
115.294 2136 46.2169
115.411 2075 45.5522
115.529 2007 44.7996
115.646 1854 43.0581
115.764 1851 43.0232
115.881 1549 39.3573
115.999 1354 36.7967
116.116 1285 35.8469
116.234 1386 37.229
116.351 1647 40.5832
116.469 1988 44.587
116.586 2078 45.5851
116.704 2138 46.2385
116.821 2037 45.1331
116.939 2207 46.9787
117.056 2151 46.3789
117.174 2153 46.4004
117.291 2151 46.3789
117.409 2188 46.7761
117.526 2166 46.5403
117.644 2194 46.8402
117.761 2258 47.5184
117.879 2278 47.7284
117.996 2175 46.6369
118.114 2266 47.6025
118.231 2256 47.4974
118.349 2234 47.2652
118.466 2259 47.5289
118.584 2296 47.9166
118.701 2278 47.7284
118.819 2279 47.7389
118.936 2304 48
119.053 2223 47.1487
119.171 2148 46.3465
119.288 2039 45.1553
119.405 1782 42.2137
119.523 1588 39.8497
119.64 1456 38.1576
119.757 1492 38.6264
119.875 1491 38.6135
119.992 1725 41.5331
120.109 1963 44.3058
120.226 2098 45.8039
120.343 2104 45.8694
120.46 2160 46.4758
120.578 2132 46.1736
120.695 2074 45.5412
120.812 2080 45.607
120.929 2067 45.4643
121.046 2158 46.4543
121.163 2230 47.2229
121.279 2138 46.2385
121.396 2200 46.9042
121.513 2147 46.3357
121.63 2188 46.7761
121.747 2216 47.0744
121.863 2181 46.7012
121.98 2303 47.9896
122.097 2216 47.0744
122.213 2236 47.2864
122.33 2281 47.7598
122.446 2285 47.8017
122.563 2206 46.9681
122.679 2117 46.0109
122.795 2105 45.8803
122.912 2031 45.0666
123.028 1960 44.2719
123.144 1864 43.1741
123.26 1584 39.7995
123.377 0 1
123.493 0 1
123.609 0 1
123.725 0 1
123.84 0 1
123.956 0 1
124.072 0 1
124.188 0 1
124.303 0 1
124.419 0 1
126.852 0 1
126.968 0 1
127.083 0 1
127.199 0 1
127.315 0 1
127.431 0 1
127.547 0 1
127.663 0 1
127.779 0 1
127.895 0 1
128.011 0 1
128.127 0 1
128.243 0 1
128.359 2060 45.3872
128.476 1859 43.1161
128.592 1621 40.2616
128.708 1696 41.1825
128.825 1734 41.6413
128.941 1873 43.2782
129.058 2088 45.6946
129.174 2316 48.1248
129.291 2321 48.1768
129.408 2400 48.9898
129.524 2290 47.8539
129.641 2391 48.8979
129.758 2416 49.1528
129.875 2284 47.7912
129.992 2384 48.8262
130.108 2410 49.0918
130.225 2249 47.4236
130.342 2257 47.5079
130.459 2298 47.9375
130.576 2345 48.4252
130.693 2272 47.6655
130.81 2297 47.927
130.928 2373 48.7134
131.045 2420 49.1935
131.162 2529 50.2892
131.279 2487 49.8698
131.396 2485 49.8498
131.513 2486 49.8598
131.631 2310 48.0625
131.748 2231 47.2335
131.865 2146 46.3249
131.983 1952 44.1814
132.1 1741 41.7253
132.217 1734 41.6413
132.335 1746 41.7852
132.452 1877 43.3244
132.57 2195 46.8508
132.687 2278 47.7284
132.804 2400 48.9898
132.922 2345 48.4252
133.039 2408 49.0714
133.157 2385 48.8365
133.274 2394 48.9285
133.392 2308 48.0416
133.509 2332 48.2908
133.627 2305 48.0104
133.744 2312 48.0833
133.862 2235 47.2758
133.979 2138 46.2385
134.097 2270 47.6445
134.214 2308 48.0416
134.332 2316 48.1248
134.449 2294 47.8957
134.567 2239 47.3181
134.684 2425 49.2443
134.802 2361 48.5901
134.919 2384 48.8262
135.037 2328 48.2494
135.154 2211 47.0213
135.272 2138 46.2385
135.389 2011 44.8442
135.507 2056 45.3431
135.624 1788 42.2847
135.742 1668 40.8412
135.859 1661 40.7554
135.977 1772 42.0951
136.094 2050 45.2769
136.211 2237 47.2969
136.329 2318 48.1456
136.446 2461 49.6085
136.564 2303 47.9896
136.681 2381 48.7955
136.798 2405 49.0408
136.915 2337 48.3425
137.033 2327 48.239
137.15 2277 47.7179
137.267 2295 47.9062
137.384 2223 47.1487
137.502 2198 46.8828
137.619 2161 46.4866
137.736 2235 47.2758
137.853 2209 47
137.97 2329 48.2597
138.087 2233 47.2546
138.204 2227 47.1911
138.321 2365 48.6313
138.438 2251 47.4447
138.555 2485 49.8498
138.672 2262 47.5605
138.788 2204 46.9468
138.905 2056 45.3431
139.022 2158 46.4543
139.139 1997 44.6878
139.255 1897 43.5546
139.372 1722 41.497
139.488 1760 41.9524
139.605 1893 43.5086
139.721 2053 45.31
139.838 2275 47.697
139.954 2373 48.7134
140.071 2267 47.613
140.187 2261 47.55
140.303 2345 48.4252
140.419 2387 48.8569
140.535 2211 47.0213
140.652 2254 47.4763
140.768 0 1
140.884 0 1
141 0 1
141.115 0 1
141.231 0 1
141.347 0 1
141.463 0 1
141.578 0 1
141.694 0 1
144.104 0 1
144.219 0 1
144.335 0 1
144.45 0 1
144.566 0 1
144.682 0 1
144.798 0 1
144.914 0 1
145.03 0 1
145.146 1681 41
145.262 1815 42.6028
145.378 1868 43.2204
145.494 1836 42.8486
145.61 1801 42.4382
145.726 1869 43.2319
145.842 1821 42.6732
145.959 1726 41.5452
146.075 1816 42.6146
146.192 1712 41.3763
146.308 1700 41.2311
146.425 1801 42.4382
146.541 1763 41.9881
146.658 1835 42.8369
146.774 1905 43.6463
146.891 1875 43.3013
147.008 1875 43.3013
147.125 1966 44.3396
147.241 1997 44.6878
147.358 1962 44.2945
147.475 2003 44.7549
147.592 1959 44.2606
147.709 1864 43.1741
147.826 1924 43.8634
147.943 1769 42.0595
148.06 1711 41.3642
148.177 1588 39.8497
148.294 1530 39.1152
148.411 1676 40.939
148.528 1799 42.4146
148.645 1880 43.359
148.762 2039 45.1553
148.88 2068 45.4753
148.997 2015 44.8888
149.114 2108 45.913
149.231 2086 45.6727
149.349 1960 44.2719
149.466 2024 44.9889
149.583 1973 44.4185
149.701 1933 43.9659
149.818 1907 43.6692
149.935 1867 43.2088
150.053 1816 42.6146
150.17 1836 42.8486
150.287 1843 42.9302
150.405 1872 43.2666
150.522 1922 43.8406
150.64 1986 44.5646
150.757 2024 44.9889
150.875 1947 44.1248
150.992 2068 45.4753
151.11 2078 45.5851
151.227 2085 45.6618
151.344 2025 45
151.462 1956 44.2267
151.579 1883 43.3935
151.697 1843 42.9302
151.814 1724 41.5211
151.932 1667 40.8289
152.049 1655 40.6817
152.167 1906 43.6578
152.284 1965 44.3283
152.402 1971 44.3959
152.519 2005 44.7772
152.636 2064 45.4313
152.754 2038 45.1442
152.871 2133 46.1844
152.989 2191 46.8081
153.106 2075 45.5522
153.223 1927 43.8976
153.341 1979 44.486
153.458 1952 44.1814
153.575 1844 42.9418
153.693 1862 43.1509
153.81 1996 44.6766
153.927 1979 44.486
154.044 2039 45.1553
154.162 2010 44.833
154.279 2039 45.1553
154.396 2068 45.4753
154.513 2114 45.9783
154.63 2251 47.4447
154.747 2150 46.3681
154.864 2186 46.7547
154.981 2111 45.9456
155.098 2123 46.076
155.215 1997 44.6878
155.332 1983 44.5309
155.449 1907 43.6692
155.566 1875 43.3013
155.683 2072 45.5192
155.8 2065 45.4423
155.917 2135 46.2061
156.033 2179 46.6798
156.15 0 1
156.267 0 1
156.383 0 1
156.5 0 1
156.617 0 1
156.733 0 1
156.85 0 1
156.966 0 1
157.082 0 1
157.199 0 1
157.315 0 1
157.431 0 1
157.547 0 1
157.664 0 1
157.78 0 1
157.896 0 1
158.012 0 1
158.128 0 1
158.244 0 1
158.359 0 1
158.475 0 1
158.591 0 1
158.706 0 1
