
6.15755 0 1
6.2731 0 1
6.3887 0 1
6.50437 0 1
6.62009 0 1
6.73587 0 1
6.8517 0 1
6.96759 0 1
7.08353 0 1
7.19952 0 1
7.31557 0 1
7.43166 0 1
7.54781 0 1
7.664 0 1
7.78024 0 1
7.89653 0 1
8.01286 0 1
8.12924 0 1
8.24567 0 1
8.36213 0 1
8.47864 0 1
8.59519 0 1
8.71178 0 1
8.82841 0 1
8.94508 0 1
9.06179 0 1
9.17853 0 1
9.29531 0 1
9.41212 0 1
9.52897 0 1
9.64584 0 1
9.76276 0 1
9.8797 0 1
9.99667 0 1
10.1137 0 1
10.2307 0 1
10.3478 0 1
10.4648 0 1
10.5819 0 1
10.6991 0 1
10.8162 0 1
10.9334 0 1
11.0506 0 1
11.1678 0 1
11.285 0 1
11.4023 0 1
11.5196 0 1
11.6369 0 1
11.7542 0 1
11.8715 0 1
11.9888 0 1
12.1062 0 1
12.2235 0 1
12.3409 0 1
12.4582 0 1
12.5756 0 1
12.693 0 1
12.8104 0 1
12.9278 0 1
13.0452 0 1
13.1626 0 1
13.28 0 1
13.3974 0 1
13.5149 0 1
13.6323 0 1
13.7497 0 1
13.8671 0 1
13.9845 0 1
14.1019 0 1
14.2193 0 1
14.3367 0 1
14.4541 0 1
14.5714 0 1
14.6888 0 1
14.8062 0 1
14.9235 0 1
15.0408 7965 89.2468
15.1581 8482 92.0978
15.2755 9064 95.205
15.3927 8997 94.8525
15.51 8772 93.659
15.6273 8938 94.541
15.7445 8601 92.7416
15.8617 8551 92.4716
15.9789 8528 92.3472
16.0961 8578 92.6175
16.2132 8165 90.3604
16.3304 8005 89.4707
16.4475 7909 88.9326
16.5646 7694 87.7154
16.6816 7561 86.954
16.7986 7448 86.3018
16.9156 7312 85.5102
17.0326 7342 85.6855
17.1496 6927 83.2286
17.2665 7146 84.534
17.3833 7022 83.7974
17.5002 6891 83.012
17.617 6853 82.7828
17.7338 7285 85.3522
17.8505 7470 86.4292
17.9672 7669 87.5728
18.0839 7705 87.7781
18.2005 7925 89.0225
18.3171 7770 88.1476
18.4337 8032 89.6214
18.5502 8008 89.4874
18.6666 8260 90.8845
18.7831 8462 91.9891
18.8994 8390 91.5969
19.0158 7960 89.2188
19.1321 7891 88.8313
19.2483 7305 85.4693
19.3645 7098 84.2496
19.4806 6718 81.9634
19.5967 6422 80.1374
19.7128 5995 77.4274
19.8288 5650 75.1665
19.9447 4984 70.5975
20.0606 0 1
20.1764 0 1
20.2922 0 1
20.4079 0 1
20.5236 0 1
20.6392 0 1
20.7548 0 1
20.8702 0 1
23.3078 0 1
23.4233 0 1
23.539 0 1
23.6547 0 1
23.7704 0 1
23.8862 0 1
24.0021 0 1
24.118 0 1
24.234 0 1
24.35 0 1
24.4661 3617 60.1415
24.5822 3997 63.2218
24.6984 4442 66.6483
24.8146 4926 70.1855
24.9309 5785 76.0592
25.0472 6315 79.467
25.1636 6699 81.8474
25.28 7255 85.1763
25.3965 7629 87.3441
25.513 7864 88.6792
25.6296 8054 89.7441
25.7462 8189 90.4931
25.8628 8410 91.7061
25.9795 8328 91.2579
26.0962 8210 90.6091
26.213 8212 90.6201
26.3298 8325 91.2414
26.4466 8215 90.6366
26.5635 8196 90.5318
26.6804 8272 90.9505
26.7973 8622 92.8547
26.9143 8506 92.228
27.0313 8330 91.2688
27.1483 8376 91.5205
27.2653 8672 93.1236
27.3824 8657 93.043
27.4996 8753 93.5575
27.6167 8675 93.1397
27.7339 8572 92.5851
27.8511 8380 91.5423
27.9683 8357 91.4166
28.0855 8164 90.3549
28.2028 8162 90.3438
28.3201 8068 89.822
28.4374 8235 90.7469
28.5547 8310 91.1592
28.6721 8387 91.5806
28.7894 8416 91.7388
28.9068 8441 91.8749
29.0242 8393 91.6133
29.1416 8320 91.214
29.259 8391 91.6024
29.3764 8168 90.377
29.4939 7977 89.3141
29.6113 7981 89.3364
29.7288 7999 89.4371
29.8463 8131 90.1721
29.9638 8287 91.033
30.0812 8259 90.879
30.1987 8488 92.1303
30.3162 8256 90.8625
30.4337 8600 92.7362
30.5512 8393 91.6133
30.6687 8442 91.8804
30.7862 8555 92.4932
30.9037 8812 93.8723
31.0212 8894 94.308
31.1387 9189 95.8593
31.2562 9114 95.4673
31.3737 8780 93.7017
31.4912 8580 92.6283
31.6087 8723 93.397
31.7262 8613 92.8062
31.8436 8527 92.3418
31.9611 8558 92.5095
32.0785 8519 92.2984
32.1959 8405 91.6788
32.3134 8326 91.2469
32.4308 8534 92.3797
32.5482 8515 92.2768
32.6655 8616 92.8224
32.7829 8434 91.8368
32.9002 8316 91.1921
33.0176 8093 89.9611
33.1349 8321 91.2195
33.2522 8078 89.8777
33.3694 8216 90.6422
33.4867 8317 91.1976
33.6039 8413 91.7224
33.7211 8516 92.2822
33.8383 8600 92.7362
33.9554 8491 92.1466
34.0725 8682 93.1773
34.1896 8464 92
34.3067 8538 92.4013
34.4237 8883 94.2497
34.5407 8841 94.0266
34.6577 9065 95.2103
34.7746 9265 96.2549
34.8915 9224 96.0417
35.0084 9089 95.3362
35.1252 8812 93.8723
35.242 8803 93.8243
35.3587 8718 93.3702
35.4755 8580 92.6283
35.5921 8654 93.0269
35.7088 8482 92.0978
35.8254 8389 91.5915
35.9419 8527 92.3418
36.0584 8590 92.6823
36.1749 8559 92.5149
36.2913 8314 91.1811
36.4077 7844 88.5664
36.524 7465 86.4002
36.6403 7045 83.9345
36.7565 6409 80.0562
36.8727 5891 76.7529
36.9889 5416 73.5935
37.1049 5020 70.852
37.221 0 1
37.3369 0 1
37.4529 0 1
37.5687 0 1
37.6845 0 1
37.8003 0 1
37.916 0 1
38.0316 0 1
38.1472 0 1
40.5851 0 1
40.7008 0 1
40.8164 0 1
40.9322 0 1
41.048 0 1
41.1639 0 1
41.2798 0 1
41.3958 0 1
41.5118 0 1
41.6279 0 1
41.744 4606 67.8675
41.8602 5400 73.4847
41.9765 6250 79.0569
42.0928 6901 83.0723
42.2091 7500 86.6025
42.3255 8081 89.8944
42.4419 8453 91.9402
42.5584 8723 93.397
42.675 9178 95.8019
42.7915 9244 96.1457
42.9081 9184 95.8332
43.0248 9137 95.5877
43.1415 9541 97.678
43.2582 10049 100.245
43.375 10636 103.131
43.4918 10983 104.8
43.6087 11589 107.652
43.7256 11511 107.289
43.8425 11579 107.606
43.9595 11933 109.238
44.0765 11994 109.517
44.1935 12333 111.054
44.3106 12166 110.3
44.4277 12370 111.221
44.5448 12325 111.018
44.6619 12540 111.982
44.7791 12533 111.951
44.8963 12660 112.517
45.0136 12719 112.779
45.1308 12627 112.37
45.2481 12691 112.654
45.3654 12382 111.274
45.4827 12325 111.018
45.6001 12037 109.713
45.7174 11870 108.95
45.8348 12054 109.791
45.9522 11730 108.305
46.0697 11489 107.187
46.1871 11342 106.499
46.3046 10836 104.096
46.422 10277 101.376
46.5395 10192 100.955
46.657 10350 101.735
46.7745 10609 103
46.892 10875 104.283
47.0096 11217 105.91
47.1271 11107 105.39
47.2446 11514 107.303
47.3622 10879 104.302
47.4797 10619 103.049
47.5973 10613 103.019
47.7149 10442 102.186
47.8324 10258 101.282
47.95 10183 100.911
48.0675 10056 100.28
48.1851 9863 99.3126
48.3027 9596 97.9592
48.4202 9610 98.0306
48.5378 9343 96.6592
48.6554 9529 97.6166
48.7729 9239 96.1197
48.8904 9120 95.4987
49.008 9222 96.0312
49.1255 9107 95.4306
49.243 9100 95.3939
49.3605 9175 95.7862
49.478 9051 95.1367
49.5955 8894 94.308
49.713 8660 93.0591
49.8304 8605 92.7631
49.9479 8543 92.4284
50.0653 8722 93.3916
50.1827 8897 94.3239
50.3001 9330 96.5919
50.4175 9483 97.3807
50.5348 9869 99.3428
50.6521 10221 101.099
50.7694 10299 101.484
50.8867 10258 101.282
51.004 10277 101.376
51.1212 10568 102.801
51.2384 10134 100.668
51.3556 10468 102.313
51.4727 10163 100.812
51.5899 10029 100.145
51.707 10071 100.354
51.824 9780 98.8939
51.9411 9721 98.5951
52.0581 9665 98.3107
52.175 9620 98.0816
52.2919 9333 96.6075
52.4088 9341 96.6488
52.5257 9332 96.6023
52.6425 8995 94.842
52.7593 8944 94.5727
52.876 8866 94.1594
52.9927 8886 94.2656
53.1094 8907 94.3769
53.226 8652 93.0161
53.3426 8458 91.9674
53.4591 8217 90.6477
53.5756 7696 87.7268
53.692 7436 86.2322
53.8084 7278 85.3112
53.9248 6998 83.654
54.0411 6392 79.95
54.1573 6016 77.5629
54.2735 0 1
54.3896 0 1
54.5057 0 1
54.6217 0 1
54.7377 0 1
54.8537 0 1
54.9695 0 1
55.0853 0 1
55.2011 0 1
55.3168 0 1
55.4324 0 1
57.824 0 1
57.9396 0 1
58.0553 0 1
58.1711 0 1
58.2869 0 1
58.4028 0 1
58.5187 0 1
58.6347 0 1
58.7508 0 1
58.8669 0 1
58.983 7941 89.1123
59.0992 9306 96.4676
59.2155 10176 100.876
59.3318 10926 104.528
59.4482 11969 109.403
59.5646 12859 113.398
59.681 13226 115.004
59.7975 13724 117.149
59.9141 13543 116.374
60.0306 13755 117.282
60.1473 13430 115.888
60.2639 13256 115.135
60.3807 13194 114.865
60.4974 13383 115.685
60.6142 13362 115.594
60.731 13073 114.337
60.8479 12940 113.754
60.9648 12703 112.708
61.0818 12845 113.336
61.1987 13021 114.11
61.3158 13067 114.311
61.4328 12756 112.942
61.5499 12879 113.486
61.667 12726 112.81
61.7841 12689 112.645
61.9013 12892 113.543
62.0185 12602 112.259
62.1357 12730 112.827
62.253 12763 112.973
62.3702 13464 116.034
62.4875 13677 116.949
62.6049 14348 119.783
62.7222 14634 120.971
62.8396 15240 123.45
62.9569 15513 124.551
63.0743 15621 124.984
63.1918 15861 125.94
63.3092 15581 124.824
63.4267 15342 123.863
63.5441 14800 121.655
63.6616 14636 120.979
63.7791 14140 118.912
63.8966 14216 119.231
64.0142 14181 119.084
64.1317 13826 117.584
64.2492 13707 117.077
64.3668 13240 115.065
64.4843 13114 114.516
64.6019 12876 113.472
64.7195 13263 115.165
64.837 13305 115.347
64.9546 13033 114.162
65.0722 13143 114.643
65.1898 13074 114.342
65.3074 12921 113.671
65.4249 12883 113.503
65.5425 12837 113.3
65.6601 12683 112.619
65.7777 12757 112.947
65.8952 13454 115.991
66.0128 13806 117.499
66.1304 14476 120.316
66.2479 15046 122.662
66.3655 15566 124.764
66.483 16023 126.582
66.6005 16371 127.949
66.718 16098 126.878
66.8355 16017 126.558
66.953 15809 125.734
67.0705 15670 125.18
67.1879 15149 123.081
67.3054 14756 121.474
67.4228 14533 120.553
67.5402 14220 119.248
67.6576 14120 118.828
67.7749 13665 116.897
67.8923 13631 116.752
68.0096 13384 115.689
68.1269 13300 115.326
68.2442 13768 117.337
68.3614 13617 116.692
68.4787 13485 116.125
68.5958 13496 116.172
68.713 13577 116.52
68.8302 13308 115.36
68.9473 13269 115.191
69.0643 12993 113.987
69.1814 12590 112.205
69.2984 12266 110.752
69.4154 12132 110.145
69.5323 12727 112.814
69.6492 13465 116.039
69.7661 13714 117.107
69.8829 14345 119.771
69.9997 14583 120.76
70.1165 14419 120.079
70.2332 14159 118.992
70.3499 13300 115.326
70.4665 12804 113.155
70.5831 12071 109.868
70.6996 10853 104.178
70.8161 9833 99.1615
70.9326 8927 94.4828
71.049 8287 91.033
71.1653 7673 87.5957
71.2817 7171 84.6818
71.3979 6812 82.5348
71.5141 6475 80.4674
71.6303 5927 76.987
71.7464 5277 72.643
71.8624 0 1
71.9784 0 1
72.0944 0 1
72.2102 0 1
72.3261 0 1
72.4418 0 1
72.5575 0 1
72.6732 0 1
75.1054 0 1
75.2209 0 1
75.3365 0 1
75.4521 0 1
75.5678 0 1
75.6835 0 1
75.7993 0 1
75.9151 0 1
76.031 0 1
76.147 11135 105.523
76.263 11763 108.457
76.3791 11877 108.982
76.4952 12156 110.254
76.6113 12146 110.209
76.7276 12346 111.113
76.8438 12567 112.103
76.9601 12749 112.911
77.0765 12355 111.153
77.1929 12797 113.124
77.3093 13196 114.874
77.4258 13445 115.953
77.5423 13478 116.095
77.6589 13743 117.231
77.7755 13729 117.171
77.8921 13442 115.94
78.0088 12905 113.6
78.1256 12421 111.45
78.2423 12119 110.086
78.3591 12048 109.763
78.4759 12576 112.143
78.5928 13624 116.722
78.7097 14474 120.308
78.8266 15063 122.731
78.9436 15449 124.294
79.0606 15761 125.543
79.1776 16343 127.84
79.2946 16740 129.383
79.4117 17254 131.354
79.5288 16950 130.192
79.6459 16949 130.188
79.7631 16382 127.992
79.8802 15731 125.423
79.9974 14649 121.033
80.1147 14638 120.988
80.2319 14546 120.607
80.3491 14695 121.223
80.4664 14647 121.025
80.5837 14724 121.342
80.701 14711 121.289
80.8183 14481 120.337
80.9357 14750 121.45
81.053 15386 124.04
81.1704 15394 124.073
81.2877 15548 124.692
81.4051 15400 124.097
81.5225 15125 122.984
81.6399 14880 121.984
81.7573 13886 117.839
81.8747 13660 116.876
81.9922 13102 114.464
82.1096 13505 116.211
82.227 14640 120.996
82.3444 15648 125.092
82.4619 16737 129.372
82.5793 17005 130.403
82.6967 17150 130.958
82.8142 17815 133.473
82.9316 18278 135.196
83.049 18763 136.978
83.1664 18624 136.47
83.2838 18479 135.937
83.4012 17736 133.177
83.5186 16919 130.073
83.636 16553 128.658
83.7534 16212 127.326
83.8708 16388 128.016
83.9881 16329 127.785
84.1055 16445 128.238
84.2228 16531 128.573
84.3401 16554 128.662
84.4575 16403 128.074
84.5747 16920 130.077
84.692 17233 131.275
84.8093 17438 132.053
84.9265 17070 130.652
85.0437 17064 130.629
85.1609 16669 129.108
85.2781 15494 124.475
85.3952 14929 122.184
85.5123 14341 119.754
85.6294 14140 118.912
85.7465 15114 122.939
85.8636 16379 127.98
85.9806 17292 131.499
86.0976 18270 135.167
86.2145 18665 136.62
86.3315 18701 136.752
86.4484 19440 139.427
86.5652 19623 140.082
86.682 19368 139.169
86.7988 19442 139.435
86.9156 19260 138.78
87.0323 18608 136.411
87.149 18166 134.781
87.2657 17605 132.684
87.3823 17133 130.893
87.4988 16244 127.452
87.6154 15821 125.782
87.7318 15025 122.577
87.8483 14485 120.354
87.9647 13297 115.313
88.081 12674 112.579
88.1973 12113 110.059
88.3136 11276 106.189
88.4298 10765 103.755
88.546 9538 97.6627
88.6621 8870 94.1807
88.7781 8064 89.7998
88.8942 0 1
89.0101 0 1
89.126 0 1
89.2419 0 1
89.3577 0 1
89.4734 0 1
89.5891 0 1
89.7047 0 1
89.8203 0 1
89.9358 0 1
92.3269 0 1
92.4424 0 1
92.558 0 1
92.6736 0 1
92.7893 0 1
92.905 0 1
93.0208 0 1
93.1366 0 1
93.2525 0 1
93.3685 0 1
93.4845 0 1
93.6005 15758 125.531
93.7167 17298 131.522
93.8328 18475 135.923
93.949 19748 140.528
94.0653 20298 142.471
94.1816 20379 142.755
94.2979 20016 141.478
94.4143 19230 138.672
94.5307 18315 135.333
94.6472 17780 133.342
94.7637 17523 132.374
94.8803 17546 132.461
94.9969 18727 136.847
95.1135 19862 140.933
95.2302 20971 144.814
95.3469 21996 148.31
95.4637 22875 151.245
95.5805 22897 151.318
95.6973 23434 153.082
95.8142 23485 153.248
95.9311 23581 153.561
96.048 23715 153.997
96.1649 23222 152.388
96.2819 22966 151.545
96.3989 22319 149.395
96.516 22107 148.684
96.633 21553 146.809
96.7501 21661 147.177
96.8673 21615 147.02
96.9844 21754 147.492
97.1016 21181 145.537
97.2188 21700 147.309
97.336 22017 148.381
97.4532 22675 150.582
97.5704 22821 151.066
97.6877 23148 152.145
97.805 23061 151.858
97.9223 22373 149.576
98.0396 21728 147.404
98.1569 20218 142.19
98.2743 18790 137.077
98.3916 18446 135.816
98.509 18392 135.617
98.6264 19838 140.847
98.7438 20756 144.069
98.8612 22063 148.536
98.9786 23611 153.659
99.096 23997 154.91
99.2134 24605 156.86
99.3308 25402 159.38
99.4482 25935 161.043
99.5656 26124 161.629
99.6831 25718 160.368
99.8005 25640 160.125
99.9179 25019 158.174
100.035 24030 155.016
100.153 23622 153.695
100.27 23385 152.922
100.388 23188 152.276
100.505 23155 152.168
100.622 22966 151.545
100.74 22836 151.116
100.857 22830 151.096
100.975 23168 152.21
101.092 23678 153.877
101.209 24463 156.407
101.327 24196 155.551
101.444 24027 155.006
101.561 23296 152.63
101.679 21957 148.179
101.796 20481 143.112
101.913 19305 138.942
102.03 19096 138.188
102.148 20141 141.919
102.265 21009 144.945
102.382 23242 152.453
102.499 24238 155.686
102.616 24835 157.591
102.733 25386 159.33
102.851 26177 161.793
102.968 26633 163.196
103.085 26472 162.702
103.202 26567 162.994
103.319 25981 161.186
103.436 25318 159.116
103.552 24596 156.831
103.669 24091 155.213
103.786 23653 153.795
103.903 23559 153.489
104.02 23604 153.636
104.137 22936 151.446
104.253 22438 149.793
104.37 23203 152.325
104.487 23173 152.227
104.603 23169 152.214
104.72 23149 152.148
104.836 22375 149.583
104.953 21098 145.252
105.069 18902 137.485
105.186 17406 131.932
105.302 15657 125.128
105.418 14119 118.823
105.535 12574 112.134
105.651 12119 110.086
105.767 11533 107.392
105.883 11263 106.127
105.999 11114 105.423
106.115 0 1
106.231 0 1
106.347 0 1
106.463 0 1
106.579 0 1
106.694 0 1
106.81 0 1
106.926 0 1
107.041 0 1
107.157 0 1
109.576 0 1
109.692 0 1
109.807 0 1
109.923 0 1
110.039 0 1
110.155 0 1
110.27 0 1
110.386 0 1
110.502 0 1
110.618 10764 103.75
110.735 12911 113.627
110.851 15310 123.734
110.967 17428 132.015
111.083 19707 140.382
111.199 21299 145.942
111.316 22039 148.455
111.432 22941 151.463
111.549 23151 152.155
111.665 23352 152.814
111.782 22967 151.549
111.898 22718 150.725
112.015 22692 150.639
112.132 22467 149.89
112.248 21897 147.976
112.365 21258 145.801
112.482 20942 144.714
112.599 21644 147.119
112.716 21046 145.072
112.832 21112 145.3
112.949 20802 144.229
113.066 21195 145.585
113.183 21495 146.612
113.3 21872 147.892
113.417 22200 148.997
113.534 21365 146.168
113.652 20873 144.475
113.769 20019 141.489
113.886 18729 136.854
114.003 17680 132.966
114.12 17569 132.548
114.238 17416 131.97
114.355 18832 137.23
114.472 18925 137.568
114.589 22574 150.246
114.707 22722 150.738
114.824 23500 153.297
114.942 23312 152.683
115.059 23979 154.852
115.176 23803 154.282
115.294 23577 153.548
115.411 23338 152.768
115.529 22912 151.367
115.646 22242 149.138
115.764 21699 147.306
115.881 21401 146.291
115.999 20916 144.624
116.116 20500 143.178
116.234 20323 142.559
116.351 20512 143.22
116.469 19877 140.986
116.586 20042 141.57
116.704 20373 142.734
116.821 20786 144.174
116.939 21301 145.949
117.056 20949 144.738
117.174 20544 143.332
117.291 19878 140.989
117.409 18973 137.743
117.526 17844 133.581
117.644 16990 130.346
117.761 16681 129.155
117.879 17378 131.826
117.996 18440 135.794
118.114 19909 141.099
118.231 21787 147.604
118.349 21966 148.209
118.466 22288 149.292
118.584 22304 149.345
118.701 22684 150.612
118.819 22163 148.872
118.936 22003 148.334
119.053 21705 147.326
119.171 21427 146.38
119.288 20752 144.056
119.405 20316 142.534
119.523 19502 139.65
119.64 19607 140.025
119.757 19259 138.777
119.875 18780 137.04
119.992 18601 136.385
120.109 18499 136.011
120.226 18484 135.956
120.343 18683 136.686
120.46 18801 137.117
120.578 19481 139.574
120.695 18889 137.437
120.812 18854 137.31
120.929 17934 133.918
121.046 17424 132
121.163 16181 127.205
121.279 15317 123.762
121.396 14319 119.662
121.513 14518 120.491
121.63 14535 120.561
121.747 15230 123.41
121.863 15567 124.768
121.98 16304 127.687
122.097 15840 125.857
122.213 15400 124.097
122.33 14771 121.536
122.446 13826 117.584
122.563 12835 113.292
122.679 12150 110.227
122.795 11446 106.986
122.912 10688 103.383
123.028 9987 99.935
123.144 9442 97.17
123.26 8697 93.2577
123.377 0 1
123.493 0 1
123.609 0 1
123.725 0 1
123.84 0 1
123.956 0 1
124.072 0 1
124.188 0 1
124.303 0 1
124.419 0 1
126.852 0 1
126.968 0 1
127.083 0 1
127.199 0 1
127.315 0 1
127.431 0 1
127.547 0 1
127.663 0 1
127.779 0 1
127.895 0 1
128.011 0 1
128.127 0 1
128.243 0 1
128.359 19330 139.032
128.476 19654 140.193
128.592 19284 138.867
128.708 18850 137.295
128.825 18817 137.175
128.941 18677 136.664
129.058 18389 135.606
129.174 18138 134.677
129.291 18597 136.371
129.408 18507 136.04
129.524 18984 137.782
129.641 19196 138.55
129.758 19198 138.557
129.875 18566 136.257
129.992 18563 136.246
130.108 17837 133.555
130.225 17125 130.863
130.342 16496 128.437
130.459 15471 124.382
130.576 15741 125.463
130.693 16219 127.354
130.81 17467 132.163
130.928 18786 137.062
131.045 19624 140.086
131.162 19665 140.232
131.279 20455 143.021
131.396 20302 142.485
131.513 20309 142.51
131.631 19970 141.315
131.748 19631 140.111
131.865 19996 141.407
131.983 19414 139.334
132.1 19199 138.56
132.217 19134 138.326
132.335 18579 136.305
132.452 18479 135.937
132.57 18431 135.761
132.687 18579 136.305
132.804 18359 135.495
132.922 18637 136.517
133.039 18552 136.206
133.157 18853 137.306
133.274 19020 137.913
133.392 18725 136.839
133.509 18800 137.113
133.627 18479 135.937
133.744 17957 134.004
133.862 17082 130.698
133.979 16104 126.902
134.097 16356 127.891
134.214 16796 129.599
134.332 17382 131.841
134.449 18892 137.448
134.567 19935 141.191
134.684 20732 143.986
134.802 21354 146.13
134.919 21444 146.438
135.037 21445 146.441
135.154 21203 145.612
135.272 21022 144.99
135.389 21336 146.068
135.507 21666 147.194
135.624 21519 146.694
135.742 21284 145.89
135.859 20988 144.872
135.977 21031 145.021
136.094 21135 145.379
136.211 20864 144.444
136.329 20784 144.167
136.446 20736 144
136.564 20697 143.865
136.681 20965 144.793
136.798 20650 143.701
136.915 21133 145.372
137.033 20549 143.349
137.15 20890 144.534
137.267 19961 141.283
137.384 19370 139.176
137.502 18436 135.779
137.619 17322 131.613
137.736 17116 130.828
137.853 16782 129.545
137.97 17944 133.955
138.087 18911 137.517
138.204 20379 142.755
138.321 20636 143.652
138.438 20878 144.492
138.555 21110 145.293
138.672 20630 143.631
138.788 20117 141.834
138.905 19380 139.212
139.022 18877 137.394
139.139 17815 133.473
139.255 17276 131.438
139.372 16430 128.18
139.488 15631 125.024
139.605 14425 120.104
139.721 13310 115.369
139.838 12676 112.588
139.954 12147 110.213
140.071 11396 106.752
140.187 10836 104.096
140.303 10461 102.279
140.419 9844 99.2169
140.535 9191 95.8697
140.652 8922 94.4563
140.768 0 1
140.884 0 1
141 0 1
141.115 0 1
141.231 0 1
141.347 0 1
141.463 0 1
141.578 0 1
141.694 0 1
144.104 0 1
144.219 0 1
144.335 0 1
144.45 0 1
144.566 0 1
144.682 0 1
144.798 0 1
144.914 0 1
145.03 0 1
145.146 15133 123.016
145.262 15345 123.875
145.378 15584 124.836
145.494 15637 125.048
145.61 15952 126.301
145.726 15946 126.277
145.842 15782 125.626
145.959 15936 126.238
146.075 15734 125.435
146.192 15483 124.431
146.308 14832 121.787
146.425 14266 119.44
146.541 13722 117.141
146.658 13826 117.584
146.774 13724 117.149
146.891 14633 120.967
147.008 15579 124.816
147.125 16104 126.902
147.241 16376 127.969
147.358 16527 128.557
147.475 16363 127.918
147.592 16251 127.479
147.709 16186 127.224
147.826 16396 128.047
147.943 16386 128.008
148.06 16293 127.644
148.177 16310 127.711
148.294 16548 128.639
148.411 16397 128.051
148.528 16223 127.37
148.645 16278 127.585
148.762 16067 126.756
148.88 16028 126.602
148.997 16201 127.283
149.114 15456 124.322
149.231 15755 125.519
149.349 16062 126.736
149.466 15964 126.349
149.583 15878 126.008
149.701 15524 124.595
149.818 15270 123.572
149.935 15110 122.923
150.053 14636 120.979
150.17 14005 118.343
150.287 13775 117.367
150.405 13879 117.809
150.522 14342 119.758
150.64 14909 122.102
150.757 15827 125.805
150.875 16470 128.335
150.992 16204 127.295
151.11 16528 128.561
151.227 16222 127.366
151.344 16118 126.957
151.462 15978 126.404
151.579 16290 127.632
151.697 16206 127.303
151.814 16224 127.373
151.932 16276 127.577
152.049 15963 126.345
152.167 15856 125.921
152.284 15531 124.623
152.402 15640 125.06
152.519 15557 124.728
152.636 15312 123.742
152.754 15204 123.305
152.871 15112 122.931
152.989 15184 123.223
153.106 15041 122.642
153.223 15063 122.731
153.341 14936 122.213
153.458 14560 120.665
153.575 14416 120.067
153.693 13779 117.384
153.81 13671 116.923
153.927 13386 115.698
154.044 13465 116.039
154.162 14273 119.47
154.279 14775 121.552
154.396 15242 123.458
154.513 15555 124.72
154.63 15718 125.371
154.747 15844 125.873
154.864 15351 123.899
154.981 15454 124.314
155.098 15429 124.214
155.215 15330 123.814
155.332 15193 123.26
155.449 15387 124.044
155.566 15011 122.519
155.683 14778 121.565
155.8 14389 119.954
155.917 14108 118.777
156.033 13562 116.456
156.15 0 1
156.267 0 1
156.383 0 1
156.5 0 1
156.617 0 1
156.733 0 1
156.85 0 1
156.966 0 1
157.082 0 1
157.199 0 1
157.315 0 1
157.431 0 1
157.547 0 1
157.664 0 1
157.78 0 1
157.896 0 1
158.012 0 1
158.128 0 1
158.244 0 1
158.359 0 1
158.475 0 1
158.591 0 1
158.706 0 1
