
6.15755 0 1
6.2731 0 1
6.3887 0 1
6.50437 0 1
6.62009 0 1
6.73587 0 1
6.8517 0 1
6.96759 0 1
7.08353 0 1
7.19952 0 1
7.31557 0 1
7.43166 0 1
7.54781 0 1
7.664 0 1
7.78024 0 1
7.89653 0 1
8.01286 0 1
8.12924 0 1
8.24567 0 1
8.36213 0 1
8.47864 0 1
8.59519 0 1
8.71178 0 1
8.82841 0 1
8.94508 0 1
9.06179 0 1
9.17853 0 1
9.29531 0 1
9.41212 0 1
9.52897 0 1
9.64584 0 1
9.76276 0 1
9.8797 0 1
9.99667 0 1
10.1137 0 1
10.2307 0 1
10.3478 0 1
10.4648 0 1
10.5819 0 1
10.6991 0 1
10.8162 0 1
10.9334 0 1
11.0506 0 1
11.1678 0 1
11.285 0 1
11.4023 0 1
11.5196 0 1
11.6369 0 1
11.7542 0 1
11.8715 0 1
11.9888 0 1
12.1062 0 1
12.2235 0 1
12.3409 0 1
12.4582 0 1
12.5756 0 1
12.693 0 1
12.8104 0 1
12.9278 0 1
13.0452 0 1
13.1626 0 1
13.28 0 1
13.3974 0 1
13.5149 0 1
13.6323 0 1
13.7497 0 1
13.8671 0 1
13.9845 0 1
14.1019 0 1
14.2193 0 1
14.3367 0 1
14.4541 0 1
14.5714 0 1
14.6888 0 1
14.8062 0 1
14.9235 0 1
15.0408 936 30.5941
15.1581 1037 32.2025
15.2755 1036 32.187
15.3927 1003 31.6702
15.51 973 31.1929
15.6273 948 30.7896
15.7445 960 30.9839
15.8617 944 30.7246
15.9789 1080 32.8634
16.0961 1028 32.0624
16.2132 1101 33.1813
16.3304 1152 33.9411
16.4475 1132 33.6452
16.5646 1143 33.8083
16.6816 1187 34.4529
16.7986 1197 34.5977
16.9156 1103 33.2114
17.0326 1170 34.2053
17.1496 1137 33.7194
17.2665 1123 33.5112
17.3833 1188 34.4674
17.5002 1208 34.7563
17.617 1168 34.176
17.7338 1136 33.7046
17.8505 1263 35.5387
17.9672 1159 34.0441
18.0839 1200 34.641
18.2005 1294 35.9722
18.3171 1272 35.6651
18.4337 1335 36.5377
18.5502 1337 36.565
18.6666 1428 37.7889
18.7831 1405 37.4833
18.8994 1308 36.1663
19.0158 1363 36.9188
19.1321 1296 36
19.2483 1223 34.9714
19.3645 1213 34.8281
19.4806 1229 35.0571
19.5967 1253 35.3977
19.7128 1319 36.318
19.8288 1314 36.2491
19.9447 1235 35.1426
20.0606 0 1
20.1764 0 1
20.2922 0 1
20.4079 0 1
20.5236 0 1
20.6392 0 1
20.7548 0 1
20.8702 0 1
23.3078 0 1
23.4233 0 1
23.539 0 1
23.6547 0 1
23.7704 0 1
23.8862 0 1
24.0021 0 1
24.118 0 1
24.234 0 1
24.35 0 1
24.4661 1189 34.4819
24.5822 1268 35.609
24.6984 1239 35.1994
24.8146 1279 35.7631
24.9309 1400 37.4166
25.0472 1473 38.3797
25.1636 1465 38.2753
25.28 1434 37.8682
25.3965 1487 38.5616
25.513 1393 37.3229
25.6296 1314 36.2491
25.7462 1413 37.5899
25.8628 1386 37.229
25.9795 1373 37.054
26.0962 1442 37.9737
26.213 1444 38
26.3298 1433 37.855
26.4466 1498 38.704
26.5635 1409 37.5366
26.6804 1539 39.2301
26.7973 1558 39.4715
26.9143 1621 40.2616
27.0313 1514 38.9102
27.1483 1578 39.724
27.2653 1646 40.5709
27.3824 1636 40.4475
27.4996 1590 39.8748
27.6167 1631 40.3856
27.7339 1503 38.7685
27.8511 1462 38.2361
27.9683 1431 37.8286
28.0855 1434 37.8682
28.2028 1342 36.6333
28.3201 1356 36.8239
28.4374 1365 36.9459
28.5547 1441 37.9605
28.6721 1471 38.3536
28.7894 1493 38.6394
28.9068 1556 39.4462
29.0242 1555 39.4335
29.1416 1449 38.0657
29.259 1377 37.108
29.3764 1406 37.4967
29.4939 1246 35.2987
29.6113 1337 36.565
29.7288 1377 37.108
29.8463 1367 36.973
29.9638 1464 38.2623
30.0812 1491 38.6135
30.1987 1518 38.9615
30.3162 1495 38.6652
30.4337 1573 39.6611
30.5512 1627 40.3361
30.6687 1656 40.694
30.7862 1683 41.0244
30.9037 1613 40.1622
31.0212 1621 40.2616
31.1387 1617 40.2119
31.2562 1594 39.9249
31.3737 1539 39.2301
31.4912 1465 38.2753
31.6087 1473 38.3797
31.7262 1458 38.1838
31.8436 1501 38.7427
31.9611 1541 39.2556
32.0785 1509 38.8458
32.1959 1532 39.1408
32.3134 1577 39.7115
32.4308 1604 40.05
32.5482 1574 39.6737
32.6655 1506 38.8072
32.7829 1510 38.8587
32.9002 1446 38.0263
33.0176 1408 37.5233
33.1349 1393 37.3229
33.2522 1474 38.3927
33.3694 1438 37.921
33.4867 1520 38.9872
33.6039 1565 39.5601
33.7211 1561 39.5095
33.8383 1564 39.5474
33.9554 1601 40.0125
34.0725 1562 39.5221
34.1896 1639 40.4846
34.3067 1664 40.7922
34.4237 1667 40.8289
34.5407 1759 41.9404
34.6577 1772 42.0951
34.7746 1710 41.3521
34.8915 1618 40.2244
35.0084 1577 39.7115
35.1252 1584 39.7995
35.242 1502 38.7556
35.3587 1510 38.8587
35.4755 1456 38.1576
35.5921 1513 38.8973
35.7088 1451 38.092
35.8254 1546 39.3192
35.9419 1651 40.6325
36.0584 1602 40.025
36.1749 1699 41.2189
36.2913 1599 39.9875
36.4077 1593 39.9124
36.524 1470 38.3406
36.6403 1501 38.7427
36.7565 1478 38.4448
36.8727 1436 37.8946
36.9889 1408 37.5233
37.1049 1439 37.9342
37.221 0 1
37.3369 0 1
37.4529 0 1
37.5687 0 1
37.6845 0 1
37.8003 0 1
37.916 0 1
38.0316 0 1
38.1472 0 1
40.5851 0 1
40.7008 0 1
40.8164 0 1
40.9322 0 1
41.048 0 1
41.1639 0 1
41.2798 0 1
41.3958 0 1
41.5118 0 1
41.6279 0 1
41.744 1234 35.1283
41.8602 1223 34.9714
41.9765 1269 35.623
42.0928 1249 35.3412
42.2091 1238 35.1852
42.3255 1302 36.0832
42.4419 1358 36.8511
42.5584 1318 36.3043
42.675 1420 37.6829
42.7915 1451 38.092
42.9081 1578 39.724
43.0248 1541 39.2556
43.1415 1637 40.4599
43.2582 1555 39.4335
43.375 1495 38.6652
43.4918 1546 39.3192
43.6087 1498 38.704
43.7256 1541 39.2556
43.8425 1478 38.4448
43.9595 1439 37.9342
44.0765 1415 37.6165
44.1935 1313 36.2353
44.3106 1290 35.9166
44.4277 1315 36.2629
44.5448 1313 36.2353
44.6619 1314 36.2491
44.7791 1387 37.2424
44.8963 1374 37.0675
45.0136 1332 36.4966
45.1308 1246 35.2987
45.2481 1156 34
45.3654 1161 34.0735
45.4827 1138 33.7343
45.6001 1039 32.2335
45.7174 1083 32.909
45.8348 1066 32.6497
45.9522 1128 33.5857
46.0697 1186 34.4384
46.1871 1227 35.0286
46.3046 1246 35.2987
46.422 1259 35.4824
46.5395 1261 35.5106
46.657 1252 35.3836
46.7745 1338 36.5787
46.892 1340 36.606
47.0096 1371 37.027
47.1271 1322 36.3593
47.2446 1278 35.7491
47.3622 1309 36.1801
47.4797 1225 35
47.5973 1194 34.5543
47.7149 1188 34.4674
47.8324 1125 33.541
47.95 1103 33.2114
48.0675 1066 32.6497
48.1851 1136 33.7046
48.3027 1166 34.1467
48.4202 1123 33.5112
48.5378 1138 33.7343
48.6554 1008 31.749
48.7729 957 30.9354
48.8904 953 30.8707
49.008 951 30.8383
49.1255 868 29.4618
49.243 909 30.1496
49.3605 950 30.8221
49.478 970 31.1448
49.5955 1048 32.3728
49.713 1037 32.2025
49.8304 1072 32.7414
49.9479 1133 33.6601
50.0653 1155 33.9853
50.1827 1213 34.8281
50.3001 1233 35.1141
50.4175 1264 35.5528
50.5348 1286 35.8608
50.6521 1303 36.0971
50.7694 1262 35.5246
50.8867 1279 35.7631
51.004 1200 34.641
51.1212 1318 36.3043
51.2384 1240 35.2136
51.3556 1259 35.4824
51.4727 1229 35.0571
51.5899 1303 36.0971
51.707 1315 36.2629
51.824 1351 36.756
51.9411 1412 37.5766
52.0581 1433 37.855
52.175 1356 36.8239
52.2919 1330 36.4692
52.4088 1228 35.0428
52.5257 1272 35.6651
52.6425 1213 34.8281
52.7593 1252 35.3836
52.876 1314 36.2491
52.9927 1360 36.8782
53.1094 1413 37.5899
53.226 1550 39.37
53.3426 1651 40.6325
53.4591 1672 40.8901
53.5756 1772 42.0951
53.692 1777 42.1545
53.8084 1791 42.3202
53.9248 1878 43.3359
54.0411 1871 43.2551
54.1573 1996 44.6766
54.2735 0 1
54.3896 0 1
54.5057 0 1
54.6217 0 1
54.7377 0 1
54.8537 0 1
54.9695 0 1
55.0853 0 1
55.2011 0 1
55.3168 0 1
55.4324 0 1
57.824 0 1
57.9396 0 1
58.0553 0 1
58.1711 0 1
58.2869 0 1
58.4028 0 1
58.5187 0 1
58.6347 0 1
58.7508 0 1
58.8669 0 1
58.983 2182 46.7119
59.0992 2310 48.0625
59.2155 2238 47.3075
59.3318 2366 48.6415
59.4482 2214 47.0532
59.5646 2245 47.3814
59.681 2201 46.9148
59.7975 2263 47.571
59.9141 2177 46.6583
60.0306 2128 46.1303
60.1473 2085 45.6618
60.2639 2123 46.076
60.3807 2170 46.5833
60.4974 2203 46.9361
60.6142 2106 45.8912
60.731 2076 45.5631
60.8479 2017 44.911
60.9648 1891 43.4856
61.0818 1771 42.0833
61.1987 1661 40.7554
61.3158 1579 39.7366
61.4328 1642 40.5216
61.5499 1697 41.1947
61.667 1780 42.19
61.7841 1865 43.1856
61.9013 1972 44.4072
62.0185 2099 45.8148
62.1357 2130 46.1519
62.253 2184 46.7333
62.3702 2224 47.1593
62.4875 2195 46.8508
62.6049 2303 47.9896
62.7222 2157 46.4435
62.8396 2233 47.2546
62.9569 2210 47.0106
63.0743 2202 46.9255
63.1918 2202 46.9255
63.3092 2136 46.2169
63.4267 2053 45.31
63.5441 2087 45.6837
63.6616 1992 44.6318
63.7791 1975 44.441
63.8966 2061 45.3982
64.0142 2056 45.3431
64.1317 2062 45.4093
64.2492 1996 44.6766
64.3668 1856 43.0813
64.4843 1759 41.9404
64.6019 1651 40.6325
64.7195 1663 40.7799
64.837 1610 40.1248
64.9546 1496 38.6782
65.0722 1576 39.6989
65.1898 1697 41.1947
65.3074 1817 42.6263
65.4249 1849 43
65.5425 1917 43.7836
65.6601 2069 45.4863
65.7777 2080 45.607
65.8952 2171 46.594
66.0128 2218 47.0956
66.1304 2218 47.0956
66.2479 2265 47.592
66.3655 2336 48.3322
66.483 2314 48.1041
66.6005 2240 47.3286
66.718 2155 46.422
66.8355 2203 46.9361
66.953 2124 46.0869
67.0705 2090 45.7165
67.1879 2154 46.4112
67.3054 2095 45.7712
67.4228 2123 46.076
67.5402 2114 45.9783
67.6576 2036 45.1221
67.7749 2165 46.5296
67.8923 2144 46.3033
68.0096 1969 44.3734
68.1269 1890 43.4741
68.2442 1779 42.1782
68.3614 1740 41.7133
68.4787 1659 40.7308
68.5958 1662 40.7676
68.713 1694 41.1582
68.8302 1908 43.6807
68.9473 1963 44.3058
69.0643 2116 46
69.1814 2197 46.8722
69.2984 2371 48.6929
69.4154 2542 50.4183
69.5323 2467 49.6689
69.6492 2599 50.9804
69.7661 2665 51.6236
69.8829 2607 51.0588
69.9997 2654 51.517
70.1165 2727 52.2207
70.2332 2572 50.7149
70.3499 2621 51.1957
70.4665 2539 50.3885
70.5831 2556 50.5569
70.6996 2506 50.06
70.8161 2553 50.5272
70.9326 2564 50.636
71.049 2491 49.9099
71.1653 2518 50.1797
71.2817 2568 50.6754
71.3979 2441 49.4065
71.5141 2576 50.7543
71.6303 2235 47.2758
71.7464 1950 44.1588
71.8624 0 1
71.9784 0 1
72.0944 0 1
72.2102 0 1
72.3261 0 1
72.4418 0 1
72.5575 0 1
72.6732 0 1
75.1054 0 1
75.2209 0 1
75.3365 0 1
75.4521 0 1
75.5678 0 1
75.6835 0 1
75.7993 0 1
75.9151 0 1
76.031 0 1
76.147 2475 49.7494
76.263 2637 51.3517
76.3791 2723 52.1824
76.4952 2957 54.3783
76.6113 2931 54.1387
76.7276 3040 55.1362
76.8438 2824 53.1413
76.9601 2756 52.4976
77.0765 2480 49.7996
77.1929 2259 47.5289
77.3093 2092 45.7384
77.4258 1994 44.6542
77.5423 1951 44.1701
77.6589 1965 44.3283
77.7755 2199 46.8935
77.8921 2359 48.5695
78.0088 2619 51.1762
78.1256 2829 53.1883
78.2423 3125 55.9017
78.3591 3057 55.2901
78.4759 3137 56.0089
78.5928 3305 57.4891
78.7097 3258 57.0789
78.8266 3165 56.2583
78.9436 3361 57.9741
79.0606 3205 56.6127
79.1776 3122 55.8749
79.2946 3207 56.6304
79.4117 3191 56.4889
79.5288 3198 56.5509
79.6459 3051 55.2359
79.7631 3030 55.0454
79.8802 2845 53.3385
79.9974 3006 54.827
80.1147 2958 54.3875
80.2319 3092 55.6058
80.3491 3133 55.9732
80.4664 2999 54.7631
80.5837 2952 54.3323
80.701 2661 51.5849
80.8183 2442 49.4166
80.9357 2142 46.2817
81.053 2000 44.7214
81.1704 1932 43.9545
81.2877 2025 45
81.4051 2116 46
81.5225 2243 47.3603
81.6399 2564 50.636
81.7573 2780 52.7257
81.8747 2883 53.6936
81.9922 3160 56.2139
82.1096 3144 56.0714
82.227 3183 56.4181
82.3444 3057 55.2901
82.4619 3116 55.8211
82.5793 3363 57.9914
82.6967 3162 56.2317
82.8142 3114 55.8032
82.9316 3071 55.4166
83.049 3051 55.2359
83.1664 3027 55.0182
83.2838 2960 54.4059
83.4012 2853 53.4135
83.5186 2828 53.1789
83.636 2772 52.6498
83.7534 2834 53.2353
83.8708 2929 54.1202
83.9881 2998 54.754
84.1055 2927 54.1018
84.2228 2749 52.4309
84.3401 2672 51.6914
84.4575 2352 48.4974
84.5747 2084 45.6508
84.692 1955 44.2154
84.8093 1986 44.5646
84.9265 1893 43.5086
85.0437 1999 44.7102
85.1609 2291 47.8644
85.2781 2615 51.1371
85.3952 2739 52.3355
85.5123 2937 54.1941
85.6294 3190 56.4801
85.7465 3416 58.4466
85.8636 3476 58.9576
85.9806 3482 59.0085
86.0976 3472 58.9237
86.2145 3529 59.4054
86.3315 3756 61.2862
86.4484 3478 58.9746
86.5652 3668 60.564
86.682 3656 60.4649
86.7988 3689 60.7371
86.9156 3604 60.0333
87.0323 3619 60.1581
87.149 3577 59.808
87.2657 3623 60.1914
87.3823 3771 61.4085
87.4988 3817 61.7819
87.6154 3841 61.9758
87.7318 3808 61.709
87.8483 3530 59.4138
87.9647 3350 57.8792
88.081 3081 55.5068
88.1973 2883 53.6936
88.3136 2568 50.6754
88.4298 2464 49.6387
88.546 2537 50.3686
88.6621 2722 52.1728
88.7781 3218 56.7274
88.8942 0 1
89.0101 0 1
89.126 0 1
89.2419 0 1
89.3577 0 1
89.4734 0 1
89.5891 0 1
89.7047 0 1
89.8203 0 1
89.9358 0 1
92.3269 0 1
92.4424 0 1
92.558 0 1
92.6736 0 1
92.7893 0 1
92.905 0 1
93.0208 0 1
93.1366 0 1
93.2525 0 1
93.3685 0 1
93.4845 0 1
93.6005 2837 53.2635
93.7167 2809 53
93.8328 2841 53.301
93.949 3055 55.2721
94.0653 3130 55.9464
94.1816 3419 58.4722
94.2979 3817 61.7819
94.4143 4118 64.1716
94.5307 4252 65.2074
94.6472 4538 67.3647
94.7637 4614 67.9264
94.8803 4791 69.217
94.9969 4657 68.2422
95.1135 4815 69.3902
95.2302 4736 68.8186
95.3469 4813 69.3758
95.4637 4727 68.7532
95.5805 4761 69
95.6973 4793 69.2315
95.8142 4678 68.3959
95.9311 4684 68.4398
96.048 4730 68.775
96.1649 4750 68.9202
96.2819 4443 66.6558
96.3989 4662 68.2788
96.516 4663 68.2862
96.633 4606 67.8675
96.7501 4727 68.7532
96.8673 4537 67.3573
96.9844 4218 64.9461
97.1016 3849 62.0403
97.2188 3535 59.4559
97.336 3319 57.6108
97.4532 3046 55.1906
97.5704 2963 54.4334
97.6877 3088 55.5698
97.805 3223 56.7715
97.9223 3573 59.7746
98.0396 4016 63.3719
98.1569 4228 65.0231
98.2743 4432 66.5733
98.3916 4711 68.6367
98.509 4924 70.1712
98.6264 4990 70.6399
98.7438 4948 70.342
98.8612 4955 70.3918
98.9786 4938 70.2709
99.096 4919 70.1356
99.2134 4894 69.9571
99.3308 4928 70.1997
99.4482 4827 69.4766
99.5656 4873 69.8069
99.6831 4884 69.8856
99.8005 4799 69.2748
99.9179 4714 68.6586
100.035 4765 69.029
100.153 4770 69.0652
100.27 4991 70.647
100.388 5031 70.9295
100.505 4691 68.4909
100.622 4390 66.2571
100.74 4126 64.2339
100.857 3528 59.397
100.975 3390 58.2237
101.092 3081 55.5068
101.209 3119 55.848
101.327 3260 57.0964
101.444 3571 59.7578
101.561 3831 61.8951
101.679 4219 64.9538
101.796 4594 67.7791
101.913 4828 69.4838
102.03 5026 70.8943
102.148 5018 70.8378
102.265 4946 70.3278
102.382 5242 72.4017
102.499 5126 71.5961
102.616 5244 72.4155
102.733 5109 71.4773
102.851 5218 72.2357
102.968 5135 71.6589
103.085 5083 71.2952
103.202 5106 71.4563
103.319 5076 71.2461
103.436 4958 70.4131
103.552 4956 70.3989
103.669 4970 70.4982
103.786 5175 71.9375
103.903 5018 70.8378
104.02 4996 70.6824
104.137 4632 68.0588
104.253 4454 66.7383
104.37 3937 62.7455
104.487 3641 60.3407
104.603 3440 58.6515
104.72 3299 57.4369
104.836 3395 58.2666
104.953 3654 60.4483
105.069 4129 64.2573
105.186 4547 67.4314
105.302 4979 70.562
105.418 4884 69.8856
105.535 5240 72.3878
105.651 5263 72.5465
105.767 5548 74.4849
105.883 5572 74.6458
105.999 5532 74.3774
106.115 0 1
106.231 0 1
106.347 0 1
106.463 0 1
106.579 0 1
106.694 0 1
106.81 0 1
106.926 0 1
107.041 0 1
107.157 0 1
109.576 0 1
109.692 0 1
109.807 0 1
109.923 0 1
110.039 0 1
110.155 0 1
110.27 0 1
110.386 0 1
110.502 0 1
110.618 4943 70.3065
110.735 4987 70.6187
110.851 5183 71.9931
110.967 5051 71.0704
111.083 5185 72.0069
111.199 5074 71.232
111.316 4855 69.6778
111.432 5200 72.111
111.549 5050 71.0634
111.665 5046 71.0352
111.782 4790 69.2098
111.898 4746 68.8912
112.015 4867 69.7639
112.132 4884 69.8856
112.248 4913 70.0928
112.365 4913 70.0928
112.482 4488 66.9925
112.599 4512 67.1714
112.716 4068 63.7809
112.832 3913 62.554
112.949 3571 59.7578
113.066 3395 58.2666
113.183 3241 56.9298
113.3 3244 56.9561
113.417 3340 57.7927
113.534 3624 60.1997
113.652 3932 62.7057
113.769 4240 65.1153
113.886 4558 67.513
114.003 4696 68.5274
114.12 4667 68.3154
114.238 4797 69.2604
114.355 4768 69.0507
114.472 4772 69.0797
114.589 4724 68.7314
114.707 4607 67.8749
114.824 4569 67.5944
114.942 4655 68.2276
115.059 4753 68.942
115.176 4821 69.4334
115.294 4696 68.5274
115.411 4680 68.4105
115.529 4496 67.0522
115.646 4582 67.6905
115.764 4678 68.3959
115.881 4578 67.6609
115.999 4667 68.3154
116.116 4354 65.9848
116.234 4171 64.5833
116.351 4011 63.3325
116.469 3739 61.1474
116.586 3418 58.4637
116.704 3267 57.1577
116.821 3170 56.3028
116.939 3293 57.3847
117.056 3314 57.5674
117.174 3624 60.1997
117.291 3904 62.482
117.409 3975 63.0476
117.526 4284 65.4523
117.644 4566 67.5722
117.761 4594 67.7791
117.879 4626 68.0147
117.996 4585 67.7126
118.114 4682 68.4251
118.231 4654 68.2202
118.349 4519 67.2235
118.466 4511 67.164
118.584 4616 67.9412
118.701 4589 67.7422
118.819 4461 66.7907
118.936 4538 67.3647
119.053 4376 66.1513
119.171 4311 65.6582
119.288 4359 66.0227
119.405 4429 66.5507
119.523 4483 66.9552
119.64 4508 67.1416
119.757 4342 65.8939
119.875 4130 64.2651
119.992 3971 63.0159
120.109 3704 60.8605
120.226 3378 58.1206
120.343 3227 56.8067
120.46 3060 55.3173
120.578 3150 56.1249
120.695 3265 57.1402
120.812 3340 57.7927
120.929 3539 59.4895
121.046 3703 60.8523
121.163 4126 64.2339
121.279 4179 64.6452
121.396 4407 66.3852
121.513 4512 67.1714
121.63 4542 67.3944
121.747 4469 66.8506
121.863 4399 66.325
121.98 4439 66.6258
122.097 4357 66.0076
122.213 4366 66.0757
122.33 4285 65.4599
122.446 4244 65.146
122.563 4372 66.1211
122.679 4242 65.1306
122.795 4207 64.8614
122.912 4071 63.8044
123.028 4237 65.0922
123.144 4236 65.0846
123.26 4200 64.8074
123.377 0 1
123.493 0 1
123.609 0 1
123.725 0 1
123.84 0 1
123.956 0 1
124.072 0 1
124.188 0 1
124.303 0 1
124.419 0 1
126.852 0 1
126.968 0 1
127.083 0 1
127.199 0 1
127.315 0 1
127.431 0 1
127.547 0 1
127.663 0 1
127.779 0 1
127.895 0 1
128.011 0 1
128.127 0 1
128.243 0 1
128.359 4420 66.4831
128.476 4373 66.1287
128.592 4549 67.4463
128.708 4340 65.8787
128.825 4034 63.5138
128.941 4009 63.3167
129.058 3714 60.9426
129.174 3515 59.2874
129.291 3497 59.1354
129.408 3430 58.5662
129.524 3327 57.6802
129.641 3490 59.0762
129.758 3679 60.6548
129.875 3958 62.9126
129.992 4235 65.0769
130.108 4256 65.238
130.225 4354 65.9848
130.342 4429 66.5507
130.459 4302 65.5896
130.576 4641 68.1249
130.693 4342 65.8939
130.81 4289 65.4905
130.928 4276 65.3911
131.045 4291 65.5057
131.162 4445 66.6708
131.279 4478 66.9179
131.396 4341 65.8863
131.513 4410 66.4078
131.631 4402 66.3476
131.748 4419 66.4756
131.865 4500 67.082
131.983 4443 66.6558
132.1 4403 66.3551
132.217 4306 65.6201
132.335 4172 64.591
132.452 3938 62.7535
132.57 3803 61.6685
132.687 3571 59.7578
132.804 3512 59.2621
132.922 3443 58.6771
133.039 3272 57.2014
133.157 3375 58.0948
133.274 3611 60.0916
133.392 3744 61.1882
133.509 3904 62.482
133.627 4123 64.2106
133.744 4197 64.7843
133.862 4277 65.3988
133.979 4253 65.215
134.097 4274 65.3758
134.214 4132 64.2806
134.332 4296 65.5439
134.449 4053 63.6632
134.567 4118 64.1716
134.684 4162 64.5136
134.802 4317 65.7039
134.919 4155 64.4593
135.037 4239 65.1076
135.154 4222 64.9769
135.272 4298 65.5591
135.389 4272 65.3605
135.507 4195 64.7688
135.624 4284 65.4523
135.742 4195 64.7688
135.859 4120 64.1872
135.977 3905 62.49
136.094 3862 62.145
136.211 3700 60.8276
136.329 3522 59.3464
136.446 3376 58.1034
136.564 3402 58.3267
136.681 3396 58.2752
136.798 3498 59.1439
136.915 3479 58.983
137.033 3477 58.9661
137.15 3793 61.5873
137.267 3874 62.2415
137.384 3877 62.2656
137.502 4010 63.3246
137.619 4023 63.4271
137.736 4080 63.8749
137.853 4098 64.0156
137.97 3959 62.9206
138.087 3816 61.7738
138.204 3838 61.9516
138.321 4007 63.3009
138.438 4035 63.5216
138.555 4231 65.0461
138.672 4045 63.6003
138.788 3978 63.0714
138.905 4019 63.3956
139.022 4120 64.1872
139.139 4027 63.4586
139.255 4134 64.2962
139.372 4191 64.7379
139.488 3965 62.9682
139.605 4042 63.5767
139.721 3795 61.6036
139.838 3668 60.564
139.954 3448 58.7197
140.071 3347 57.8533
140.187 3428 58.5491
140.303 3225 56.7891
140.419 3194 56.5155
140.535 3305 57.4891
140.652 3371 58.0603
140.768 0 1
140.884 0 1
141 0 1
141.115 0 1
141.231 0 1
141.347 0 1
141.463 0 1
141.578 0 1
141.694 0 1
144.104 0 1
144.219 0 1
144.335 0 1
144.45 0 1
144.566 0 1
144.682 0 1
144.798 0 1
144.914 0 1
145.03 0 1
145.146 2271 47.655
145.262 2568 50.6754
145.378 2605 51.0392
145.494 2658 51.5558
145.61 2669 51.6624
145.726 2818 53.0848
145.842 2865 53.5257
145.959 2905 53.8981
146.075 2974 54.5344
146.192 2995 54.7266
146.308 2992 54.6992
146.425 2955 54.3599
146.541 3046 55.1906
146.658 2954 54.3507
146.774 2862 53.4977
146.891 2983 54.6168
147.008 2965 54.4518
147.125 2877 53.6377
147.241 3119 55.848
147.358 3101 55.6866
147.475 3177 56.3649
147.592 3163 56.2406
147.709 3150 56.1249
147.826 3198 56.5509
147.943 3182 56.4092
148.06 3148 56.107
148.177 3171 56.3116
148.294 3035 55.0908
148.411 3017 54.9272
148.528 3001 54.7814
148.645 2874 53.6097
148.762 2834 53.2353
148.88 2744 52.3832
148.997 2695 51.9134
149.114 2588 50.8724
149.231 2718 52.1344
149.349 2669 51.6624
149.466 2991 54.69
149.583 2887 53.7308
149.701 3100 55.6776
149.818 3058 55.2992
149.935 2990 54.6809
150.053 3086 55.5518
150.17 3059 55.3082
150.287 3040 55.1362
150.405 2966 54.461
150.522 3026 55.0091
150.64 2942 54.2402
150.757 2920 54.037
150.875 3035 55.0908
150.992 3125 55.9017
151.11 3225 56.7891
151.227 3141 56.0446
151.344 3119 55.848
151.462 3201 56.5774
151.579 3319 57.6108
151.697 3186 56.4447
151.814 3193 56.5066
151.932 3190 56.4801
152.049 3133 55.9732
152.167 3077 55.4707
152.284 3024 54.9909
152.402 2960 54.4059
152.519 2749 52.4309
152.636 2866 53.535
152.754 2776 52.6878
152.871 2802 52.9339
152.989 2794 52.8583
153.106 2899 53.8424
153.223 2888 53.7401
153.341 2965 54.4518
153.458 3106 55.7315
153.575 3085 55.5428
153.693 3176 56.356
153.81 3136 56
153.927 3054 55.263
154.044 3062 55.3353
154.162 3055 55.2721
154.279 3017 54.9272
154.396 2997 54.7449
154.513 3171 56.3116
154.63 3256 57.0614
154.747 3233 56.8595
154.864 3181 56.4004
154.981 3382 58.155
155.098 3247 56.9825
155.215 3240 56.921
155.332 3430 58.5662
155.449 3234 56.8683
155.566 3283 57.2975
155.683 3262 57.1139
155.8 3166 56.2672
155.917 3069 55.3986
156.033 3030 55.0454
156.15 0 1
156.267 0 1
156.383 0 1
156.5 0 1
156.617 0 1
156.733 0 1
156.85 0 1
156.966 0 1
157.082 0 1
157.199 0 1
157.315 0 1
157.431 0 1
157.547 0 1
157.664 0 1
157.78 0 1
157.896 0 1
158.012 0 1
158.128 0 1
158.244 0 1
158.359 0 1
158.475 0 1
158.591 0 1
158.706 0 1
