
6.15755 0 1
6.2731 0 1
6.3887 0 1
6.50437 0 1
6.62009 0 1
6.73587 0 1
6.8517 0 1
6.96759 0 1
7.08353 0 1
7.19952 0 1
7.31557 0 1
7.43166 0 1
7.54781 0 1
7.664 0 1
7.78024 0 1
7.89653 0 1
8.01286 0 1
8.12924 0 1
8.24567 0 1
8.36213 0 1
8.47864 0 1
8.59519 0 1
8.71178 0 1
8.82841 0 1
8.94508 0 1
9.06179 0 1
9.17853 0 1
9.29531 0 1
9.41212 0 1
9.52897 0 1
9.64584 0 1
9.76276 0 1
9.8797 0 1
9.99667 0 1
10.1137 0 1
10.2307 0 1
10.3478 0 1
10.4648 0 1
10.5819 0 1
10.6991 0 1
10.8162 0 1
10.9334 0 1
11.0506 0 1
11.1678 0 1
11.285 0 1
11.4023 0 1
11.5196 0 1
11.6369 0 1
11.7542 0 1
11.8715 0 1
11.9888 0 1
12.1062 0 1
12.2235 0 1
12.3409 0 1
12.4582 0 1
12.5756 0 1
12.693 0 1
12.8104 0 1
12.9278 0 1
13.0452 0 1
13.1626 0 1
13.28 0 1
13.3974 0 1
13.5149 0 1
13.6323 0 1
13.7497 0 1
13.8671 0 1
13.9845 0 1
14.1019 0 1
14.2193 0 1
14.3367 0 1
14.4541 0 1
14.5714 0 1
14.6888 0 1
14.8062 0 1
14.9235 0 1
15.0408 0 0
15.1581 0 0
15.2755 0 0
15.3927 0 0
15.51 0 0
15.6273 0 0
15.7445 0 0
15.8617 0 0
15.9789 0 0
16.0961 0 0
16.2132 0 0
16.3304 0 0
16.4475 0 0
16.5646 0 0
16.6816 0 0
16.7986 0 0
16.9156 0 0
17.0326 0 0
17.1496 0 0
17.2665 0 0
17.3833 0 0
17.5002 0 0
17.617 0 0
17.7338 0 0
17.8505 0 0
17.9672 0 0
18.0839 0 0
18.2005 0 0
18.3171 0 0
18.4337 0 0
18.5502 0 0
18.6666 0 0
18.7831 0 0
18.8994 0 0
19.0158 0 0
19.1321 0 0
19.2483 0 0
19.3645 0 0
19.4806 0 0
19.5967 0 0
19.7128 0 0
19.8288 0 0
19.9447 0 0
20.0606 0 1
20.1764 0 1
20.2922 0 1
20.4079 0 1
20.5236 0 1
20.6392 0 1
20.7548 0 1
20.8702 0 1
23.3078 0 1
23.4233 0 1
23.539 0 1
23.6547 0 1
23.7704 0 1
23.8862 0 1
24.0021 0 1
24.118 0 1
24.234 0 1
24.35 0 1
24.4661 1191 34.5109
24.5822 1239 35.1994
24.6984 1239 35.1994
24.8146 1141 33.7787
24.9309 1183 34.3948
25.0472 1142 33.7935
25.1636 1211 34.7994
25.28 1185 34.4238
25.3965 1212 34.8138
25.513 1277 35.7351
25.6296 1288 35.8887
25.7462 1338 36.5787
25.8628 1409 37.5366
25.9795 1402 37.4433
26.0962 1426 37.7624
26.213 1398 37.3898
26.3298 1366 36.9594
26.4466 1403 37.4566
26.5635 1325 36.4005
26.6804 1295 35.9861
26.7973 1257 35.4542
26.9143 1211 34.7994
27.0313 1304 36.1109
27.1483 1347 36.7015
27.2653 1347 36.7015
27.3824 1352 36.7696
27.4996 1351 36.756
27.6167 1338 36.5787
27.7339 1306 36.1386
27.8511 1324 36.3868
27.9683 1210 34.7851
28.0855 1248 35.327
28.2028 1239 35.1994
28.3201 1178 34.322
28.4374 1072 32.7414
28.5547 1126 33.5559
28.6721 1076 32.8024
28.7894 1120 33.4664
28.9068 1193 34.5398
29.0242 1259 35.4824
29.1416 1281 35.7911
29.259 1323 36.3731
29.3764 1374 37.0675
29.4939 1316 36.2767
29.6113 1386 37.229
29.7288 1358 36.8511
29.8463 1353 36.7831
29.9638 1279 35.7631
30.0812 1284 35.8329
30.1987 1329 36.4555
30.3162 1197 34.5977
30.4337 1281 35.7911
30.5512 1240 35.2136
30.6687 1304 36.1109
30.7862 1386 37.229
30.9037 1280 35.7771
31.0212 1371 37.027
31.1387 1353 36.7831
31.2562 1323 36.3731
31.3737 1308 36.1663
31.4912 1271 35.6511
31.6087 1281 35.7911
31.7262 1198 34.6121
31.8436 1229 35.0571
31.9611 1090 33.0151
32.0785 1208 34.7563
32.1959 1143 33.8083
32.3134 1118 33.4365
32.4308 1198 34.6121
32.5482 1243 35.2562
32.6655 1298 36.0278
32.7829 1339 36.5923
32.9002 1308 36.1663
33.0176 1313 36.2353
33.1349 1335 36.5377
33.2522 1328 36.4417
33.3694 1308 36.1663
33.4867 1347 36.7015
33.6039 1346 36.6879
33.7211 1391 37.2961
33.8383 1253 35.3977
33.9554 1252 35.3836
34.0725 1232 35.0999
34.1896 1333 36.5103
34.3067 1343 36.647
34.4237 1362 36.9053
34.5407 1331 36.4829
34.6577 1362 36.9053
34.7746 1315 36.2629
34.8915 1456 38.1576
35.0084 1302 36.0832
35.1252 1278 35.7491
35.242 1215 34.8569
35.3587 1264 35.5528
35.4755 1191 34.5109
35.5921 1140 33.7639
35.7088 1040 32.249
35.8254 1034 32.1559
35.9419 1105 33.2415
36.0584 1136 33.7046
36.1749 1140 33.7639
36.2913 1249 35.3412
36.4077 1307 36.1525
36.524 1310 36.1939
36.6403 1354 36.7967
36.7565 1367 36.973
36.8727 1312 36.2215
36.9889 1389 37.2693
37.1049 1355 36.8103
37.221 0 1
37.3369 0 1
37.4529 0 1
37.5687 0 1
37.6845 0 1
37.8003 0 1
37.916 0 1
38.0316 0 1
38.1472 0 1
40.5851 0 1
40.7008 0 1
40.8164 0 1
40.9322 0 1
41.048 0 1
41.1639 0 1
41.2798 0 1
41.3958 0 1
41.5118 0 1
41.6279 0 1
41.744 1192 34.5254
41.8602 1214 34.8425
41.9765 1212 34.8138
42.0928 1211 34.7994
42.2091 1199 34.6266
42.3255 1155 33.9853
42.4419 1172 34.2345
42.5584 1113 33.3617
42.675 1109 33.3017
42.7915 1079 32.8481
42.9081 1138 33.7343
43.0248 1217 34.8855
43.1415 1151 33.9264
43.2582 1185 34.4238
43.375 1174 34.2637
43.4918 1207 34.7419
43.6087 1196 34.5832
43.7256 1181 34.3657
43.8425 1140 33.7639
43.9595 1155 33.9853
44.0765 1125 33.541
44.1935 1096 33.1059
44.3106 977 31.257
44.4277 936 30.5941
44.5448 885 29.7489
44.6619 870 29.4958
44.7791 822 28.6705
44.8963 903 30.05
45.0136 931 30.5123
45.1308 980 31.305
45.2481 979 31.289
45.3654 1085 32.9393
45.4827 1071 32.7261
45.6001 990 31.4643
45.7174 1087 32.9697
45.8348 1009 31.7648
45.9522 1034 32.1559
46.0697 988 31.4325
46.1871 869 29.4788
46.3046 903 30.05
46.422 874 29.5635
46.5395 931 30.5123
46.657 893 29.8831
46.7745 966 31.0805
46.892 962 31.0161
47.0096 983 31.3528
47.1271 986 31.4006
47.2446 999 31.607
47.3622 931 30.5123
47.4797 928 30.4631
47.5973 875 29.5804
47.7149 845 29.0689
47.8324 845 29.0689
47.95 721 26.8514
48.0675 743 27.258
48.1851 645 25.3969
48.3027 648 25.4558
48.4202 651 25.5147
48.5378 752 27.4226
48.6554 801 28.3019
48.7729 860 29.3258
48.8904 926 30.4302
49.008 914 30.2324
49.1255 912 30.1993
49.243 878 29.6311
49.3605 868 29.4618
49.478 936 30.5941
49.5955 886 29.7658
49.713 817 28.5832
49.8304 823 28.688
49.9479 819 28.6182
50.0653 861 29.3428
50.1827 945 30.7409
50.3001 958 30.9516
50.4175 1003 31.6702
50.5348 1007 31.7333
50.6521 1106 33.2566
50.7694 1056 32.4962
50.8867 1071 32.7261
51.004 1138 33.7343
51.1212 1063 32.6037
51.2384 1097 33.121
51.3556 1025 32.0156
51.4727 994 31.5278
51.5899 996 31.5595
51.707 909 30.1496
51.824 918 30.2985
51.9411 943 30.7083
52.0581 1063 32.6037
52.175 1132 33.6452
52.2919 1299 36.0416
52.4088 1238 35.1852
52.5257 1307 36.1525
52.6425 1306 36.1386
52.7593 1269 35.623
52.876 1326 36.4143
52.9927 1315 36.2629
53.1094 1329 36.4555
53.226 1269 35.623
53.3426 1178 34.322
53.4591 1232 35.0999
53.5756 1249 35.3412
53.692 1329 36.4555
53.8084 1429 37.8021
53.9248 1363 36.9188
54.0411 1414 37.6032
54.1573 1402 37.4433
54.2735 0 1
54.3896 0 1
54.5057 0 1
54.6217 0 1
54.7377 0 1
54.8537 0 1
54.9695 0 1
55.0853 0 1
55.2011 0 1
55.3168 0 1
55.4324 0 1
57.824 0 1
57.9396 0 1
58.0553 0 1
58.1711 0 1
58.2869 0 1
58.4028 0 1
58.5187 0 1
58.6347 0 1
58.7508 0 1
58.8669 0 1
58.983 1733 41.6293
59.0992 1802 42.45
59.2155 1861 43.1393
59.3318 1813 42.5793
59.4482 1873 43.2782
59.5646 1862 43.1509
59.681 1939 44.0341
59.7975 1748 41.8091
59.9141 1685 41.0488
60.0306 1586 39.8246
60.1473 1531 39.128
60.2639 1420 37.6829
60.3807 1347 36.7015
60.4974 1417 37.6431
60.6142 1372 37.0405
60.731 1487 38.5616
60.8479 1617 40.2119
60.9648 1706 41.3038
61.0818 1753 41.8688
61.1987 1755 41.8927
61.3158 1757 41.9166
61.4328 1830 42.7785
61.5499 1801 42.4382
61.667 1840 42.8952
61.7841 1767 42.0357
61.9013 1666 40.8167
62.0185 1744 41.7612
62.1357 1663 40.7799
62.253 1822 42.6849
62.3702 1763 41.9881
62.4875 1874 43.2897
62.6049 1862 43.1509
62.7222 1937 44.0114
62.8396 1931 43.9431
62.9569 1865 43.1856
63.0743 1867 43.2088
63.1918 1925 43.8748
63.3092 1824 42.7083
63.4267 1748 41.8091
63.5441 1673 40.9023
63.6616 1559 39.4842
63.7791 1326 36.4143
63.8966 1329 36.4555
64.0142 1356 36.8239
64.1317 1413 37.5899
64.2492 1525 39.0512
64.3668 1598 39.975
64.4843 1804 42.4735
64.6019 1834 42.8252
64.7195 1805 42.4853
64.837 1943 44.0795
64.9546 1871 43.2551
65.0722 1853 43.0465
65.1898 1829 42.7668
65.3074 1799 42.4146
65.4249 1730 41.5933
65.5425 1762 41.9762
65.6601 1735 41.6533
65.7777 1747 41.7971
65.8952 1914 43.7493
66.0128 1911 43.715
66.1304 1884 43.4051
66.2479 1894 43.5201
66.3655 1947 44.1248
66.483 1991 44.6206
66.6005 1980 44.4972
66.718 1969 44.3734
66.8355 1994 44.6542
66.953 1874 43.2897
67.0705 1791 42.3202
67.1879 1764 42
67.3054 1621 40.2616
67.4228 1384 37.2022
67.5402 1380 37.1484
67.6576 1350 36.7423
67.7749 1441 37.9605
67.8923 1668 40.8412
68.0096 1741 41.7253
68.1269 1899 43.5775
68.2442 1952 44.1814
68.3614 1988 44.587
68.4787 2037 45.1331
68.5958 2068 45.4753
68.713 2146 46.3249
68.8302 2129 46.1411
68.9473 2017 44.911
69.0643 1960 44.2719
69.1814 2012 44.8553
69.2984 2037 45.1331
69.4154 1953 44.1928
69.5323 2139 46.2493
69.6492 2147 46.3357
69.7661 2209 47
69.8829 2184 46.7333
69.9997 2269 47.634
70.1165 2271 47.655
70.2332 2269 47.634
70.3499 2204 46.9468
70.4665 2233 47.2546
70.5831 2186 46.7547
70.6996 2068 45.4753
70.8161 1987 44.5758
70.9326 1860 43.1277
71.049 1704 41.2795
71.1653 1504 38.7814
71.2817 1382 37.1753
71.3979 1489 38.5876
71.5141 1551 39.3827
71.6303 1666 40.8167
71.7464 1736 41.6653
71.8624 0 1
71.9784 0 1
72.0944 0 1
72.2102 0 1
72.3261 0 1
72.4418 0 1
72.5575 0 1
72.6732 0 1
75.1054 0 1
75.2209 0 1
75.3365 0 1
75.4521 0 1
75.5678 0 1
75.6835 0 1
75.7993 0 1
75.9151 0 1
76.031 0 1
76.147 1936 44
76.263 1999 44.7102
76.3791 1932 43.9545
76.4952 1684 41.0366
76.6113 1542 39.2683
76.7276 1675 40.9268
76.8438 1762 41.9762
76.9601 2085 45.6618
77.0765 2414 49.1325
77.1929 2417 49.163
77.3093 2524 50.2394
77.4258 2520 50.1996
77.5423 2583 50.8232
77.6589 2570 50.6952
77.7755 2618 51.1664
77.8921 2568 50.6754
78.0088 2594 50.9313
78.1256 2479 49.7896
78.2423 2433 49.3254
78.3591 2569 50.6853
78.4759 2606 51.049
78.5928 2709 52.0481
78.7097 2642 51.4004
78.8266 2775 52.6783
78.9436 2642 51.4004
79.0606 2801 52.9245
79.1776 2732 52.2685
79.2946 2806 52.9717
79.4117 2699 51.9519
79.5288 2783 52.7541
79.6459 2670 51.672
79.7631 2603 51.0196
79.8802 2483 49.8297
79.9974 2211 47.0213
80.1147 1993 44.643
80.2319 1864 43.1741
80.3491 1779 42.1782
80.4664 1937 44.0114
80.5837 2235 47.2758
80.701 2500 50
80.8183 2775 52.6783
80.9357 2726 52.2111
81.053 2830 53.1977
81.1704 2931 54.1387
81.2877 2919 54.0278
81.4051 2870 53.5724
81.5225 2894 53.7959
81.6399 2675 51.7204
81.7573 2702 51.9808
81.8747 2646 51.4393
81.9922 2587 50.8626
82.1096 2624 51.225
82.227 2701 51.9711
82.3444 2712 52.0769
82.4619 2961 54.4151
82.5793 2840 53.2917
82.6967 2989 54.6717
82.8142 2862 53.4977
82.9316 2927 54.1018
83.049 2855 53.4322
83.1664 2782 52.7447
83.2838 2829 53.1883
83.4012 2611 51.0979
83.5186 2487 49.8698
83.636 2336 48.3322
83.7534 2117 46.0109
83.8708 1803 42.4617
83.9881 1807 42.5088
84.1055 1937 44.0114
84.2228 2203 46.9361
84.3401 2516 50.1597
84.4575 2790 52.8205
84.5747 2991 54.69
84.692 3108 55.7494
84.8093 3045 55.1815
84.9265 3041 55.1453
85.0437 3040 55.1362
85.1609 3096 55.6417
85.2781 3024 54.9909
85.3952 2952 54.3323
85.5123 2893 53.7866
85.6294 3023 54.9818
85.7465 2993 54.7083
85.8636 2957 54.3783
85.9806 3034 55.0818
86.0976 3287 57.3324
86.2145 3338 57.7754
86.3315 3267 57.1577
86.4484 3566 59.716
86.5652 3575 59.7913
86.682 3417 58.4551
86.7988 3382 58.155
86.9156 3374 58.0861
87.0323 3120 55.857
87.149 3065 55.3624
87.2657 2723 52.1824
87.3823 2432 49.3153
87.4988 2311 48.0729
87.6154 2445 49.4469
87.7318 2790 52.8205
87.8483 3072 55.4256
87.9647 3460 58.8218
88.081 3612 60.0999
88.1973 3794 61.5955
88.3136 3770 61.4003
88.4298 3766 61.3677
88.546 3781 61.4898
88.6621 3860 62.1289
88.7781 3821 61.8142
88.8942 0 1
89.0101 0 1
89.126 0 1
89.2419 0 1
89.3577 0 1
89.4734 0 1
89.5891 0 1
89.7047 0 1
89.8203 0 1
89.9358 0 1
92.3269 0 1
92.4424 0 1
92.558 0 1
92.6736 0 1
92.7893 0 1
92.905 0 1
93.0208 0 1
93.1366 0 1
93.2525 0 1
93.3685 0 1
93.4845 0 1
93.6005 4040 63.561
93.7167 4148 64.405
93.8328 4027 63.4586
93.949 3972 63.0238
94.0653 4024 63.435
94.1816 4072 63.8122
94.2979 4066 63.7652
94.4143 4030 63.4823
94.5307 3883 62.3137
94.6472 3920 62.6099
94.7637 3837 61.9435
94.8803 3939 62.7615
94.9969 3988 63.1506
95.1135 4083 63.8984
95.2302 4104 64.0625
95.3469 4171 64.5833
95.4637 4217 64.9384
95.5805 4352 65.9697
95.6973 4390 66.2571
95.8142 4449 66.7008
95.9311 4308 65.6354
96.048 4131 64.2729
96.1649 4118 64.1716
96.2819 3762 61.3351
96.3989 3484 59.0254
96.516 3158 56.1961
96.633 2826 53.1601
96.7501 2629 51.2738
96.8673 3020 54.9545
96.9844 3427 58.5406
97.1016 3980 63.0872
97.2188 4297 65.5515
97.336 4480 66.9328
97.4532 4564 67.5574
97.5704 4549 67.4463
97.6877 4675 68.374
97.805 4687 68.4617
97.9223 4559 67.5204
98.0396 4495 67.0448
98.1569 4485 66.9701
98.2743 4384 66.2118
98.3916 4230 65.0385
98.509 4341 65.8863
98.6264 4392 66.2722
98.7438 4472 66.873
98.8612 4482 66.9477
98.9786 4717 68.6804
99.096 4638 68.1029
99.2134 4708 68.6149
99.3308 4674 68.3667
99.4482 4808 69.3397
99.5656 4788 69.1954
99.6831 4697 68.5347
99.8005 4538 67.3647
99.9179 4148 64.405
100.035 3895 62.4099
100.153 3395 58.2666
100.27 3014 54.8999
100.388 3169 56.2939
100.505 3523 59.3549
100.622 4200 64.8074
100.74 4472 66.873
100.857 4889 69.9214
100.975 4904 70.0286
101.092 4914 70.0999
101.209 4951 70.3633
101.327 4950 70.3562
101.444 4920 70.1427
101.561 4924 70.1712
101.679 4856 69.685
101.796 4749 68.913
101.913 4646 68.1616
102.03 4529 67.2978
102.148 4567 67.5796
102.265 5109 71.4773
102.382 4600 67.8233
102.499 4987 70.6187
102.616 5125 71.5891
102.733 5027 70.9013
102.851 5397 73.4643
102.968 5248 72.4431
103.085 5234 72.3464
103.202 5074 71.232
103.319 4971 70.5053
103.436 4703 68.5784
103.552 4288 65.4828
103.669 3794 61.5955
103.786 3400 58.3095
103.903 3410 58.3952
104.02 3924 62.6418
104.137 4489 67
104.253 5199 72.1041
104.37 5293 72.753
104.487 5465 73.9256
104.603 5336 73.0479
104.72 5429 73.6817
104.836 5402 73.4983
104.953 5447 73.8038
105.069 5365 73.2462
105.186 5305 72.8354
105.302 5294 72.7599
105.418 5181 71.9792
105.535 5025 70.8872
105.651 5098 71.4003
105.767 5130 71.624
105.883 5371 73.2871
105.999 5609 74.8933
106.115 0 1
106.231 0 1
106.347 0 1
106.463 0 1
106.579 0 1
106.694 0 1
106.81 0 1
106.926 0 1
107.041 0 1
107.157 0 1
109.576 0 1
109.692 0 1
109.807 0 1
109.923 0 1
110.039 0 1
110.155 0 1
110.27 0 1
110.386 0 1
110.502 0 1
110.618 4730 68.775
110.735 4802 69.2965
110.851 4978 70.5549
110.967 5066 71.1758
111.083 5083 71.2952
111.199 5222 72.2634
111.316 5403 73.5051
111.432 5362 73.2257
111.549 5243 72.4086
111.665 5139 71.6868
111.782 4998 70.6965
111.898 4557 67.5056
112.015 4304 65.6049
112.132 3557 59.6406
112.248 3145 56.0803
112.365 3323 57.6455
112.482 3479 58.983
112.599 3946 62.8172
112.716 4480 66.9328
112.832 4817 69.4046
112.949 4832 69.5126
113.066 4880 69.857
113.183 4888 69.9142
113.3 4619 67.9632
113.417 4738 68.8331
113.534 4762 69.0072
113.652 4652 68.2056
113.769 4738 68.8331
113.886 4477 66.9104
114.003 4318 65.7115
114.12 4369 66.0984
114.238 4294 65.5286
114.355 4187 64.707
114.472 4339 65.8711
114.589 4405 66.3702
114.707 4553 67.4759
114.824 4591 67.7569
114.942 4627 68.0221
115.059 4462 66.7982
115.176 4610 67.897
115.294 4361 66.0379
115.411 4239 65.1076
115.529 4041 63.5689
115.646 3537 59.4727
115.764 3094 55.6237
115.881 2877 53.6377
115.999 3034 55.0818
116.116 3488 59.0593
116.234 3867 62.1852
116.351 4389 66.2495
116.469 4488 66.9925
116.586 4511 67.164
116.704 4465 66.8207
116.821 4489 67
116.939 4583 67.6979
117.056 4454 66.7383
117.174 4375 66.1438
117.291 4332 65.8179
117.409 4471 66.8655
117.526 4401 66.34
117.644 4300 65.5744
117.761 4318 65.7115
117.879 4292 65.5134
117.996 4299 65.5668
118.114 4246 65.1613
118.231 4375 66.1438
118.349 4458 66.7683
118.466 4555 67.4907
118.584 4565 67.5648
118.701 4599 67.8159
118.819 4483 66.9552
118.936 4330 65.8027
119.053 4171 64.5833
119.171 3946 62.8172
119.288 3605 60.0417
119.405 3103 55.7046
119.523 2890 53.7587
119.64 2890 53.7587
119.757 3257 57.0701
119.875 3811 61.7333
119.992 4152 64.436
120.109 4302 65.5896
120.226 4371 66.1135
120.343 4276 65.3911
120.46 4343 65.9014
120.578 4380 66.1816
120.695 4359 66.0227
120.812 4322 65.7419
120.929 4328 65.7875
121.046 4318 65.7115
121.163 4177 64.6297
121.279 4118 64.1716
121.396 4123 64.2106
121.513 3942 62.7853
121.63 4123 64.2106
121.747 3917 62.5859
121.863 4089 63.9453
121.98 4311 65.6582
122.097 4336 65.8483
122.213 4342 65.8939
122.33 4255 65.2304
122.446 4274 65.3758
122.563 4185 64.6916
122.679 4050 63.6396
122.795 3968 62.9921
122.912 3769 61.3922
123.028 3310 57.5326
123.144 2925 54.0833
123.26 2701 51.9711
123.377 0 1
123.493 0 1
123.609 0 1
123.725 0 1
123.84 0 1
123.956 0 1
124.072 0 1
124.188 0 1
124.303 0 1
124.419 0 1
126.852 0 1
126.968 0 1
127.083 0 1
127.199 0 1
127.315 0 1
127.431 0 1
127.547 0 1
127.663 0 1
127.779 0 1
127.895 0 1
128.011 0 1
128.127 0 1
128.243 0 1
128.359 3192 56.4978
128.476 2916 54
128.592 3053 55.254
128.708 3444 58.6856
128.825 3991 63.1744
128.941 4228 65.0231
129.058 4503 67.1044
129.174 4476 66.9029
129.291 4578 67.6609
129.408 4500 67.082
129.524 4557 67.5056
129.641 4485 66.9701
129.758 4385 66.2193
129.875 4447 66.6858
129.992 4435 66.5958
130.108 4283 65.4446
130.225 4355 65.9924
130.342 4344 65.909
130.459 4230 65.0385
130.576 4333 65.8255
130.693 4190 64.7302
130.81 4224 64.9923
130.928 4289 65.4905
131.045 4371 66.1135
131.162 4446 66.6783
131.279 4372 66.1211
131.396 4493 67.0298
131.513 4269 65.3376
131.631 4136 64.3117
131.748 3892 62.3859
131.865 3268 57.1664
131.983 3015 54.909
132.1 3036 55.0999
132.217 3237 56.8946
132.335 3681 60.6712
132.452 3988 63.1506
132.57 4249 65.1844
132.687 4315 65.6887
132.804 4388 66.242
132.922 4423 66.5056
133.039 4244 65.146
133.157 4289 65.4905
133.274 4267 65.3223
133.392 4187 64.707
133.509 4096 64
133.627 4175 64.6142
133.744 4150 64.4205
133.862 4119 64.1794
133.979 4085 63.914
134.097 4093 63.9766
134.214 4150 64.4205
134.332 3889 62.3618
134.449 4139 64.3351
134.567 4115 64.1483
134.684 4150 64.4205
134.802 4148 64.405
134.919 4211 64.8922
135.037 4162 64.5136
135.154 3996 63.2139
135.272 3897 62.426
135.389 3399 58.3009
135.507 3118 55.8391
135.624 2951 54.3231
135.742 2879 53.6563
135.859 3270 57.1839
135.977 3803 61.6685
136.094 4115 64.1483
136.211 4291 65.5057
136.329 4178 64.6375
136.446 4163 64.5213
136.564 4217 64.9384
136.681 4213 64.9076
136.798 4019 63.3956
136.915 4165 64.5368
137.033 4146 64.3894
137.15 4041 63.5689
137.267 4117 64.1639
137.384 3991 63.1744
137.502 3964 62.9603
137.619 3896 62.4179
137.736 3937 62.7455
137.853 3780 61.4817
137.97 3776 61.4492
138.087 3927 62.6658
138.204 3904 62.482
138.321 3978 63.0714
138.438 4120 64.1872
138.555 4101 64.0391
138.672 4047 63.616
138.788 3887 62.3458
138.905 3744 61.1882
139.022 3399 58.3009
139.139 3166 56.2672
139.255 2891 53.768
139.372 2985 54.6352
139.488 3186 56.4447
139.605 3558 59.649
139.721 3900 62.45
139.838 3975 63.0476
139.954 3935 62.7296
140.071 3960 62.9285
140.187 4122 64.2028
140.303 4021 63.4114
140.419 3953 62.8729
140.535 3928 62.6738
140.652 3863 62.153
140.768 0 1
140.884 0 1
141 0 1
141.115 0 1
141.231 0 1
141.347 0 1
141.463 0 1
141.578 0 1
141.694 0 1
144.104 0 1
144.219 0 1
144.335 0 1
144.45 0 1
144.566 0 1
144.682 0 1
144.798 0 1
144.914 0 1
145.03 0 1
145.146 3484 59.0254
145.262 3400 58.3095
145.378 3353 57.9051
145.494 3416 58.4466
145.61 3396 58.2752
145.726 3362 57.9828
145.842 3281 57.28
145.959 3234 56.8683
146.075 3190 56.4801
146.192 3102 55.6956
146.308 3226 56.7979
146.425 3177 56.3649
146.541 3274 57.2189
146.658 3154 56.1605
146.774 3246 56.9737
146.891 3151 56.1338
147.008 3270 57.1839
147.125 3234 56.8683
147.241 3139 56.0268
147.358 3037 55.109
147.475 3005 54.8179
147.592 2905 53.8981
147.709 2666 51.6333
147.826 2446 49.4571
147.943 2356 48.5386
148.06 2424 49.2341
148.177 2691 51.8748
148.294 3018 54.9363
148.411 3139 56.0268
148.528 3144 56.0714
148.645 3123 55.8838
148.762 3211 56.6657
148.88 3069 55.3986
148.997 3025 55
149.114 3091 55.5968
149.231 3025 55
149.349 2967 54.4702
149.466 2922 54.0555
149.583 2933 54.1572
149.701 2978 54.5711
149.818 2894 53.7959
149.935 3011 54.8726
150.053 2957 54.3783
150.17 2897 53.8238
150.287 2997 54.7449
150.405 2914 53.9815
150.522 2889 53.7494
150.64 2912 53.963
150.757 2898 53.8331
150.875 2859 53.4696
150.992 2950 54.3139
151.11 2734 52.2877
151.227 2617 51.1566
151.344 2568 50.6754
151.462 2198 46.8828
151.579 2264 47.5815
151.697 2454 49.5379
151.814 2730 52.2494
151.932 2874 53.6097
152.049 3006 54.827
152.167 2925 54.0833
152.284 3122 55.8749
152.402 3062 55.3353
152.519 2994 54.7175
152.636 3019 54.9454
152.754 3035 55.0908
152.871 2964 54.4426
152.989 2905 53.8981
153.106 2921 54.0463
153.223 2855 53.4322
153.341 2931 54.1387
153.458 2902 53.8702
153.575 2884 53.7029
153.693 2898 53.8331
153.81 2933 54.1572
153.927 2979 54.5802
154.044 2944 54.2586
154.162 2993 54.7083
154.279 3008 54.8452
154.396 2987 54.6535
154.513 3090 55.5878
154.63 3020 54.9545
154.747 2929 54.1202
154.864 2914 53.9815
154.981 2732 52.2685
155.098 2507 50.07
155.215 2428 49.2747
155.332 2596 50.951
155.449 2743 52.3737
155.566 3032 55.0636
155.683 3078 55.4797
155.8 3080 55.4977
155.917 3121 55.8659
156.033 3226 56.7979
156.15 0 1
156.267 0 1
156.383 0 1
156.5 0 1
156.617 0 1
156.733 0 1
156.85 0 1
156.966 0 1
157.082 0 1
157.199 0 1
157.315 0 1
157.431 0 1
157.547 0 1
157.664 0 1
157.78 0 1
157.896 0 1
158.012 0 1
158.128 0 1
158.244 0 1
158.359 0 1
158.475 0 1
158.591 0 1
158.706 0 1
