
6.15755 0 1
6.2731 0 1
6.3887 0 1
6.50437 0 1
6.62009 0 1
6.73587 0 1
6.8517 0 1
6.96759 0 1
7.08353 0 1
7.19952 0 1
7.31557 0 1
7.43166 0 1
7.54781 0 1
7.664 0 1
7.78024 0 1
7.89653 0 1
8.01286 0 1
8.12924 0 1
8.24567 0 1
8.36213 0 1
8.47864 0 1
8.59519 0 1
8.71178 0 1
8.82841 0 1
8.94508 0 1
9.06179 0 1
9.17853 0 1
9.29531 0 1
9.41212 0 1
9.52897 0 1
9.64584 0 1
9.76276 0 1
9.8797 0 1
9.99667 0 1
10.1137 0 1
10.2307 0 1
10.3478 0 1
10.4648 0 1
10.5819 0 1
10.6991 0 1
10.8162 0 1
10.9334 0 1
11.0506 0 1
11.1678 0 1
11.285 0 1
11.4023 0 1
11.5196 0 1
11.6369 0 1
11.7542 0 1
11.8715 0 1
11.9888 0 1
12.1062 0 1
12.2235 0 1
12.3409 0 1
12.4582 0 1
12.5756 0 1
12.693 0 1
12.8104 0 1
12.9278 0 1
13.0452 0 1
13.1626 0 1
13.28 0 1
13.3974 0 1
13.5149 0 1
13.6323 0 1
13.7497 0 1
13.8671 0 1
13.9845 0 1
14.1019 0 1
14.2193 0 1
14.3367 0 1
14.4541 0 1
14.5714 0 1
14.6888 0 1
14.8062 0 1
14.9235 0 1
15.0408 0 0
15.1581 0 0
15.2755 0 0
15.3927 0 0
15.51 0 0
15.6273 0 0
15.7445 0 0
15.8617 0 0
15.9789 0 0
16.0961 0 0
16.2132 0 0
16.3304 0 0
16.4475 0 0
16.5646 0 0
16.6816 0 0
16.7986 0 0
16.9156 0 0
17.0326 0 0
17.1496 0 0
17.2665 0 0
17.3833 0 0
17.5002 0 0
17.617 0 0
17.7338 0 0
17.8505 0 0
17.9672 0 0
18.0839 0 0
18.2005 0 0
18.3171 0 0
18.4337 0 0
18.5502 0 0
18.6666 0 0
18.7831 0 0
18.8994 0 0
19.0158 0 0
19.1321 0 0
19.2483 0 0
19.3645 0 0
19.4806 0 0
19.5967 0 0
19.7128 0 0
19.8288 0 0
19.9447 0 0
20.0606 0 1
20.1764 0 1
20.2922 0 1
20.4079 0 1
20.5236 0 1
20.6392 0 1
20.7548 0 1
20.8702 0 1
23.3078 0 1
23.4233 0 1
23.539 0 1
23.6547 0 1
23.7704 0 1
23.8862 0 1
24.0021 0 1
24.118 0 1
24.234 0 1
24.35 0 1
24.4661 1131 33.6303
24.5822 1144 33.8231
24.6984 1270 35.6371
24.8146 1317 36.2905
24.9309 1432 37.8418
25.0472 1651 40.6325
25.1636 1755 41.8927
25.28 1964 44.317
25.3965 2247 47.4025
25.513 2245 47.3814
25.6296 2433 49.3254
25.7462 2536 50.3587
25.8628 2716 52.1153
25.9795 2692 51.8845
26.0962 2794 52.8583
26.213 2731 52.259
26.3298 2644 51.4198
26.4466 2657 51.5461
26.5635 2644 51.4198
26.6804 2649 51.4684
26.7973 2531 50.309
26.9143 2638 51.3615
27.0313 2642 51.4004
27.1483 2567 50.6656
27.2653 2670 51.672
27.3824 2594 50.9313
27.4996 2669 51.6624
27.6167 2616 51.1468
27.7339 2586 50.8527
27.8511 2535 50.3488
27.9683 2427 49.2646
28.0855 2273 47.676
28.2028 2182 46.7119
28.3201 1949 44.1475
28.4374 1875 43.3013
28.5547 2043 45.1996
28.6721 2150 46.3681
28.7894 2248 47.4131
28.9068 2494 49.94
29.0242 2464 49.6387
29.1416 2469 49.689
29.259 2369 48.6724
29.3764 2433 49.3254
29.4939 2418 49.1732
29.6113 2334 48.3115
29.7288 2465 49.6488
29.8463 2379 48.775
29.9638 2483 49.8297
30.0812 2493 49.93
30.1987 2480 49.7996
30.3162 2442 49.4166
30.4337 2470 49.6991
30.5512 2538 50.3786
30.6687 2514 50.1398
30.7862 2604 51.0294
30.9037 2509 50.0899
31.0212 2591 50.9019
31.1387 2533 50.3289
31.2562 2427 49.2646
31.3737 2402 49.0102
31.4912 2310 48.0625
31.6087 2253 47.4658
31.7262 2121 46.0543
31.8436 1897 43.5546
31.9611 1845 42.9535
32.0785 1946 44.1135
32.1959 2083 45.6399
32.3134 2164 46.5188
32.4308 2334 48.3115
32.5482 2331 48.2804
32.6655 2277 47.7179
32.7829 2219 47.1063
32.9002 2252 47.4552
33.0176 2326 48.2286
33.1349 2322 48.1871
33.2522 2357 48.5489
33.3694 2299 47.9479
33.4867 2344 48.4149
33.6039 2352 48.4974
33.7211 2399 48.9796
33.8383 2428 49.2747
33.9554 2392 48.9081
34.0725 2364 48.621
34.1896 2424 49.2341
34.3067 2501 50.01
34.4237 2392 48.9081
34.5407 2442 49.4166
34.6577 2487 49.8698
34.7746 2441 49.4065
34.8915 2438 49.3761
35.0084 2317 48.1352
35.1252 2322 48.1871
35.242 2230 47.2229
35.3587 2138 46.2385
35.4755 1938 44.0227
35.5921 1739 41.7013
35.7088 1745 41.7732
35.8254 1803 42.4617
35.9419 1925 43.8748
36.0584 2067 45.4643
36.1749 2094 45.7602
36.2913 2081 45.618
36.4077 1985 44.5533
36.524 2035 45.111
36.6403 1926 43.8862
36.7565 1882 43.382
36.8727 1866 43.1972
36.9889 1835 42.8369
37.1049 1710 41.3521
37.221 0 1
37.3369 0 1
37.4529 0 1
37.5687 0 1
37.6845 0 1
37.8003 0 1
37.916 0 1
38.0316 0 1
38.1472 0 1
40.5851 0 1
40.7008 0 1
40.8164 0 1
40.9322 0 1
41.048 0 1
41.1639 0 1
41.2798 0 1
41.3958 0 1
41.5118 0 1
41.6279 0 1
41.744 1082 32.8938
41.8602 1174 34.2637
41.9765 1213 34.8281
42.0928 1274 35.6931
42.2091 1413 37.5899
42.3255 1497 38.6911
42.4419 1492 38.6264
42.5584 1642 40.5216
42.675 1728 41.5692
42.7915 1792 42.332
42.9081 1907 43.6692
43.0248 2000 44.7214
43.1415 1960 44.2719
43.2582 1986 44.5646
43.375 2144 46.3033
43.4918 2079 45.5961
43.6087 2039 45.1553
43.7256 2036 45.1221
43.8425 2042 45.1885
43.9595 2091 45.7275
44.0765 2043 45.1996
44.1935 1966 44.3396
44.3106 1776 42.1426
44.4277 1643 40.5339
44.5448 1704 41.2795
44.6619 1760 41.9524
44.7791 1873 43.2782
44.8963 1934 43.9773
45.0136 1951 44.1701
45.1308 1954 44.2041
45.2481 1913 43.7379
45.3654 1915 43.7607
45.4827 1964 44.317
45.6001 1825 42.72
45.7174 1864 43.1741
45.8348 1917 43.7836
45.9522 1863 43.1625
46.0697 1927 43.8976
46.1871 1973 44.4185
46.3046 1962 44.2945
46.422 1984 44.5421
46.5395 2150 46.3681
46.657 2143 46.2925
46.7745 2241 47.3392
46.892 2233 47.2546
47.0096 2270 47.6445
47.1271 2256 47.4974
47.2446 2198 46.8828
47.3622 2175 46.6369
47.4797 2173 46.6154
47.5973 2164 46.5188
47.7149 2142 46.2817
47.8324 1977 44.4635
47.95 1896 43.5431
48.0675 1729 41.5812
48.1851 1800 42.4264
48.3027 1882 43.382
48.4202 1924 43.8634
48.5378 2012 44.8553
48.6554 2021 44.9555
48.7729 1936 44
48.8904 1947 44.1248
49.008 1928 43.909
49.1255 1885 43.4166
49.243 1859 43.1161
49.3605 1806 42.4971
49.478 1926 43.8862
49.5955 1846 42.9651
49.713 1805 42.4853
49.8304 1959 44.2606
49.9479 2025 45
50.0653 2083 45.6399
50.1827 2074 45.5412
50.3001 2341 48.3839
50.4175 2275 47.697
50.5348 2203 46.9361
50.6521 2243 47.3603
50.7694 2289 47.8435
50.8867 2199 46.8935
51.004 2299 47.9479
51.1212 2241 47.3392
51.2384 2222 47.1381
51.3556 2114 45.9783
51.4727 1909 43.6921
51.5899 1809 42.5323
51.707 1770 42.0714
51.824 1923 43.852
51.9411 1879 43.3474
52.0581 1898 43.566
52.175 1939 44.0341
52.2919 1937 44.0114
52.4088 1889 43.4626
52.5257 1801 42.4382
52.6425 1768 42.0476
52.7593 1755 41.8927
52.876 1664 40.7922
52.9927 1767 42.0357
53.1094 1631 40.3856
53.226 1685 41.0488
53.3426 1701 41.2432
53.4591 1733 41.6293
53.5756 1820 42.6615
53.692 1817 42.6263
53.8084 1856 43.0813
53.9248 1806 42.4971
54.0411 1790 42.3084
54.1573 1614 40.1746
54.2735 0 1
54.3896 0 1
54.5057 0 1
54.6217 0 1
54.7377 0 1
54.8537 0 1
54.9695 0 1
55.0853 0 1
55.2011 0 1
55.3168 0 1
55.4324 0 1
57.824 0 1
57.9396 0 1
58.0553 0 1
58.1711 0 1
58.2869 0 1
58.4028 0 1
58.5187 0 1
58.6347 0 1
58.7508 0 1
58.8669 0 1
58.983 1322 36.3593
59.0992 1510 38.8587
59.2155 1681 41
59.3318 1886 43.4281
59.4482 2028 45.0333
59.5646 2167 46.551
59.681 2216 47.0744
59.7975 2361 48.5901
59.9141 2267 47.613
60.0306 2307 48.0312
60.1473 2165 46.5296
60.2639 2036 45.1221
60.3807 2089 45.7056
60.4974 2098 45.8039
60.6142 2087 45.6837
60.731 2189 46.7868
60.8479 2201 46.9148
60.9648 2183 46.7226
61.0818 2235 47.2758
61.1987 2316 48.1248
61.3158 2229 47.2123
61.4328 2069 45.4863
61.5499 2075 45.5522
61.667 2072 45.5192
61.7841 2076 45.5631
61.9013 2105 45.8803
62.0185 2195 46.8508
62.1357 2207 46.9787
62.253 2283 47.7807
62.3702 2457 49.5681
62.4875 2624 51.225
62.6049 2732 52.2685
62.7222 2829 53.1883
62.8396 2888 53.7401
62.9569 2932 54.1479
63.0743 2976 54.5527
63.1918 2924 54.074
63.3092 2967 54.4702
63.4267 2819 53.0943
63.5441 2613 51.1175
63.6616 2528 50.2792
63.7791 2476 49.7594
63.8966 2275 47.697
64.0142 2156 46.4327
64.1317 2254 47.4763
64.2492 2180 46.6905
64.3668 2184 46.7333
64.4843 2184 46.7333
64.6019 2192 46.8188
64.7195 2193 46.8295
64.837 2049 45.2659
64.9546 2078 45.5851
65.0722 2118 46.0217
65.1898 1995 44.6654
65.3074 2066 45.4533
65.4249 2059 45.3762
65.5425 2052 45.299
65.6601 2121 46.0543
65.7777 2192 46.8188
65.8952 2321 48.1768
66.0128 2488 49.8799
66.1304 2646 51.4393
66.2479 2743 52.3737
66.3655 2945 54.2679
66.483 2954 54.3507
66.6005 3013 54.8908
66.718 2985 54.6352
66.8355 2863 53.507
66.953 2859 53.4696
67.0705 2798 52.8961
67.1879 2593 50.9215
67.3054 2452 49.5177
67.4228 2195 46.8508
67.5402 2175 46.6369
67.6576 1997 44.6878
67.7749 1950 44.1588
67.8923 1906 43.6578
68.0096 1973 44.4185
68.1269 2128 46.1303
68.2442 2111 45.9456
68.3614 2084 45.6508
68.4787 2072 45.5192
68.5958 1959 44.2606
68.713 1962 44.2945
68.8302 1971 44.3959
68.9473 1926 43.8862
69.0643 1893 43.5086
69.1814 1819 42.6497
69.2984 1924 43.8634
69.4154 1926 43.8862
69.5323 2034 45.0999
69.6492 2140 46.2601
69.7661 2313 48.0937
69.8829 2432 49.3153
69.9997 2590 50.892
70.1165 2382 48.8057
70.2332 2432 49.3153
70.3499 2460 49.5984
70.4665 2349 48.4665
70.5831 2243 47.3603
70.6996 2154 46.4112
70.8161 1962 44.2945
70.9326 1916 43.7721
71.049 1564 39.5474
71.1653 1483 38.5097
71.2817 1293 35.9583
71.3979 1212 34.8138
71.5141 1131 33.6303
71.6303 1097 33.121
71.7464 973 31.1929
71.8624 0 1
71.9784 0 1
72.0944 0 1
72.2102 0 1
72.3261 0 1
72.4418 0 1
72.5575 0 1
72.6732 0 1
75.1054 0 1
75.2209 0 1
75.3365 0 1
75.4521 0 1
75.5678 0 1
75.6835 0 1
75.7993 0 1
75.9151 0 1
76.031 0 1
76.147 1389 37.2693
76.263 1484 38.5227
76.3791 1430 37.8153
76.4952 1373 37.054
76.6113 1327 36.428
76.7276 1334 36.524
76.8438 1411 37.5633
76.9601 1428 37.7889
77.0765 1526 39.064
77.1929 1651 40.6325
77.3093 1775 42.1307
77.4258 1831 42.7902
77.5423 1830 42.7785
77.6589 1840 42.8952
77.7755 1734 41.6413
77.8921 1688 41.0853
78.0088 1663 40.7799
78.1256 1697 41.1947
78.2423 1771 42.0833
78.3591 1791 42.3202
78.4759 1907 43.6692
78.5928 1979 44.486
78.7097 2097 45.793
78.8266 2429 49.2849
78.9436 2477 49.7695
79.0606 2479 49.7896
79.1776 2584 50.8331
79.2946 2533 50.3289
79.4117 2556 50.5569
79.5288 2611 51.0979
79.6459 2527 50.2693
79.7631 2379 48.775
79.8802 2190 46.7974
79.9974 2125 46.0977
80.1147 1839 42.8836
80.2319 1746 41.7852
80.3491 1629 40.3609
80.4664 1733 41.6293
80.5837 1661 40.7554
80.701 1748 41.8091
80.8183 1847 42.9767
80.9357 1890 43.4741
81.053 2050 45.2769
81.1704 1977 44.4635
81.2877 1803 42.4617
81.4051 1834 42.8252
81.5225 1716 41.4246
81.6399 1794 42.3556
81.7573 1723 41.509
81.8747 1761 41.9643
81.9922 1653 40.6571
82.1096 1850 43.0116
82.227 1953 44.1928
82.3444 2174 46.6262
82.4619 2454 49.5379
82.5793 2516 50.1597
82.6967 2646 51.4393
82.8142 2636 51.342
82.9316 2731 52.259
83.049 2648 51.4587
83.1664 2656 51.5364
83.2838 2460 49.5984
83.4012 2383 48.816
83.5186 2210 47.0106
83.636 2095 45.7712
83.7534 1957 44.238
83.8708 1814 42.5911
83.9881 1763 41.9881
84.1055 1694 41.1582
84.2228 1715 41.4126
84.3401 1717 41.4367
84.4575 1836 42.8486
84.5747 1966 44.3396
84.692 2111 45.9456
84.8093 2050 45.2769
84.9265 2035 45.111
85.0437 1911 43.715
85.1609 1830 42.7785
85.2781 1770 42.0714
85.3952 1755 41.8927
85.5123 1712 41.3763
85.6294 1773 42.107
85.7465 1895 43.5316
85.8636 2016 44.8999
85.9806 2174 46.6262
86.0976 2398 48.9694
86.2145 2484 49.8397
86.3315 2522 50.2195
86.4484 2597 50.9608
86.5652 2558 50.5767
86.682 2492 49.9199
86.7988 2536 50.3587
86.9156 2428 49.2747
87.0323 2161 46.4866
87.149 2218 47.0956
87.2657 2054 45.3211
87.3823 1919 43.8064
87.4988 1874 43.2897
87.6154 1692 41.1339
87.7318 1623 40.2865
87.8483 1530 39.1152
87.9647 1600 40
88.081 1539 39.2301
88.1973 1731 41.6053
88.3136 1658 40.7185
88.4298 1451 38.092
88.546 1269 35.623
88.6621 1067 32.665
88.7781 986 31.4006
88.8942 0 1
89.0101 0 1
89.126 0 1
89.2419 0 1
89.3577 0 1
89.4734 0 1
89.5891 0 1
89.7047 0 1
89.8203 0 1
89.9358 0 1
92.3269 0 1
92.4424 0 1
92.558 0 1
92.6736 0 1
92.7893 0 1
92.905 0 1
93.0208 0 1
93.1366 0 1
93.2525 0 1
93.3685 0 1
93.4845 0 1
93.6005 1169 34.1906
93.7167 1452 38.1051
93.8328 1693 41.1461
93.949 1813 42.5793
94.0653 1800 42.4264
94.1816 1832 42.8019
94.2979 1850 43.0116
94.4143 1860 43.1277
94.5307 1858 43.1045
94.6472 1882 43.382
94.7637 1824 42.7083
94.8803 1843 42.9302
94.9969 2064 45.4313
95.1135 2294 47.8957
95.2302 2365 48.6313
95.3469 2667 51.643
95.4637 2731 52.259
95.5805 2804 52.9528
95.6973 2867 53.5444
95.8142 2865 53.5257
95.9311 2845 53.3385
96.048 2737 52.3163
96.1649 2624 51.225
96.2819 2382 48.8057
96.3989 2275 47.697
96.516 2135 46.2061
96.633 1977 44.4635
96.7501 1896 43.5431
96.8673 1846 42.9651
96.9844 1728 41.5692
97.1016 1743 41.7493
97.2188 1668 40.8412
97.336 1871 43.2551
97.4532 2146 46.3249
97.5704 2156 46.4327
97.6877 2244 47.3709
97.805 2126 46.1086
97.9223 1970 44.3847
98.0396 1947 44.1248
98.1569 1897 43.5546
98.2743 1756 41.9047
98.3916 1771 42.0833
98.509 1736 41.6653
98.6264 2026 45.0111
98.7438 2125 46.0977
98.8612 2362 48.6004
98.9786 2460 49.5984
99.096 2637 51.3517
99.2134 2724 52.192
99.3308 2748 52.4214
99.4482 2939 54.2125
99.5656 2991 54.69
99.6831 2840 53.2917
99.8005 2660 51.5752
99.9179 2498 49.98
100.035 2484 49.8397
100.153 2156 46.4327
100.27 2081 45.618
100.388 1914 43.7493
100.505 1841 42.9069
100.622 1768 42.0476
100.74 1749 41.821
100.857 1810 42.5441
100.975 2037 45.1331
101.092 2288 47.833
101.209 2252 47.4552
101.327 2245 47.3814
101.444 2032 45.0777
101.561 2055 45.3321
101.679 1865 43.1856
101.796 1900 43.589
101.913 1885 43.4166
102.03 1987 44.5758
102.148 2030 45.0555
102.265 2238 47.3075
102.382 2613 51.1175
102.499 2774 52.6688
102.616 2935 54.1756
102.733 2887 53.7308
102.851 3139 56.0268
102.968 2891 53.768
103.085 3053 55.254
103.202 3144 56.0714
103.319 3055 55.2721
103.436 2825 53.1507
103.552 2565 50.6458
103.669 2441 49.4065
103.786 2344 48.4149
103.903 2016 44.8999
104.02 1942 44.0681
104.137 1928 43.909
104.253 1991 44.6206
104.37 1942 44.0681
104.487 2052 45.299
104.603 2167 46.551
104.72 2031 45.0666
104.836 2022 44.9667
104.953 1795 42.3674
105.069 1705 41.2916
105.186 1572 39.6485
105.302 1546 39.3192
105.418 1457 38.1707
105.535 1441 37.9605
105.651 1409 37.5366
105.767 1472 38.3667
105.883 1521 39
105.999 1654 40.6694
106.115 0 1
106.231 0 1
106.347 0 1
106.463 0 1
106.579 0 1
106.694 0 1
106.81 0 1
106.926 0 1
107.041 0 1
107.157 0 1
109.576 0 1
109.692 0 1
109.807 0 1
109.923 0 1
110.039 0 1
110.155 0 1
110.27 0 1
110.386 0 1
110.502 0 1
110.618 1175 34.2783
110.735 1304 36.1109
110.851 1541 39.2556
110.967 1791 42.3202
111.083 1896 43.5431
111.199 2088 45.6946
111.316 2052 45.299
111.432 2234 47.2652
111.549 2377 48.7545
111.665 2468 49.679
111.782 2470 49.6991
111.898 2447 49.4672
112.015 2257 47.5079
112.132 2148 46.3465
112.248 2032 45.0777
112.365 1925 43.8748
112.482 1871 43.2551
112.599 1740 41.7133
112.716 1695 41.1704
112.832 1742 41.7373
112.949 1725 41.5331
113.066 1787 42.2729
113.183 1920 43.8178
113.3 2012 44.8553
113.417 1958 44.2493
113.534 1990 44.6094
113.652 1886 43.4281
113.769 1896 43.5431
113.886 1793 42.3438
114.003 1805 42.4853
114.12 1768 42.0476
114.238 1911 43.715
114.355 2166 46.5403
114.472 2520 50.1996
114.589 2459 49.5883
114.707 2770 52.6308
114.824 2861 53.4883
114.942 2960 54.4059
115.059 2950 54.3139
115.176 2919 54.0278
115.294 2960 54.4059
115.411 2808 52.9906
115.529 2706 52.0192
115.646 2440 49.3964
115.764 2256 47.4974
115.881 2093 45.7493
115.999 2021 44.9555
116.116 1955 44.2154
116.234 1854 43.0581
116.351 1824 42.7083
116.469 1861 43.1393
116.586 1778 42.1663
116.704 1841 42.9069
116.821 2072 45.5192
116.939 2051 45.288
117.056 2077 45.5741
117.174 2046 45.2327
117.291 2151 46.3789
117.409 2056 45.3431
117.526 1925 43.8748
117.644 2004 44.7661
117.761 2103 45.8585
117.879 2270 47.6445
117.996 2480 49.7996
118.114 2740 52.345
118.231 2745 52.3927
118.349 3008 54.8452
118.466 3042 55.1543
118.584 2892 53.7773
118.701 3034 55.0818
118.819 2971 54.5069
118.936 2855 53.4322
119.053 2840 53.2917
119.171 2737 52.3163
119.288 2509 50.0899
119.405 2301 47.9687
119.523 2209 47
119.64 2021 44.9555
119.757 1910 43.7035
119.875 1818 42.638
119.992 1836 42.8486
120.109 1750 41.833
120.226 1702 41.2553
120.343 1794 42.3556
120.46 1936 44
120.578 1948 44.1362
120.695 1880 43.359
120.812 1922 43.8406
120.929 1977 44.4635
121.046 1877 43.3244
121.163 1844 42.9418
121.279 1818 42.638
121.396 1896 43.5431
121.513 1891 43.4856
121.63 2053 45.31
121.747 2171 46.594
121.863 2113 45.9674
121.98 2354 48.518
122.097 2316 48.1248
122.213 2311 48.0729
122.33 2309 48.0521
122.446 2209 47
122.563 2169 46.5725
122.679 1918 43.795
122.795 1879 43.3474
122.912 1732 41.6173
123.028 1509 38.8458
123.144 1362 36.9053
123.26 1285 35.8469
123.377 0 1
123.493 0 1
123.609 0 1
123.725 0 1
123.84 0 1
123.956 0 1
124.072 0 1
124.188 0 1
124.303 0 1
124.419 0 1
126.852 0 1
126.968 0 1
127.083 0 1
127.199 0 1
127.315 0 1
127.431 0 1
127.547 0 1
127.663 0 1
127.779 0 1
127.895 0 1
128.011 0 1
128.127 0 1
128.243 0 1
128.359 2349 48.4665
128.476 2232 47.244
128.592 2232 47.244
128.708 2152 46.3897
128.825 2116 46
128.941 2042 45.1885
129.058 1975 44.441
129.174 2013 44.8665
129.291 1975 44.441
129.408 2030 45.0555
129.524 2188 46.7761
129.641 2214 47.0532
129.758 2205 46.9574
129.875 2257 47.5079
129.992 2236 47.2864
130.108 2307 48.0312
130.225 2268 47.6235
130.342 2159 46.465
130.459 2271 47.655
130.576 2221 47.1275
130.693 2555 50.547
130.81 2568 50.6754
130.928 2655 51.5267
131.045 2681 51.7784
131.162 2648 51.4587
131.279 2695 51.9134
131.396 2791 52.8299
131.513 2641 51.3907
131.631 2621 51.1957
131.748 2563 50.6261
131.865 2487 49.8698
131.983 2394 48.9285
132.1 2320 48.1664
132.217 2290 47.8539
132.335 2136 46.2169
132.452 2083 45.6399
132.57 2048 45.2548
132.687 1994 44.6542
132.804 1911 43.715
132.922 1989 44.5982
133.039 2083 45.6399
133.157 2119 46.0326
133.274 2181 46.7012
133.392 2172 46.6047
133.509 2255 47.4868
133.627 2294 47.8957
133.744 2211 47.0213
133.862 2169 46.5725
133.979 2251 47.4447
134.097 2170 46.5833
134.214 2331 48.2804
134.332 2399 48.9796
134.449 2603 51.0196
134.567 2577 50.7642
134.684 2450 49.4975
134.802 2574 50.7346
134.919 2511 50.1099
135.037 2653 51.5073
135.154 2504 50.04
135.272 2551 50.5074
135.389 2526 50.2593
135.507 2427 49.2646
135.624 2434 49.3356
135.742 2330 48.2701
135.859 2263 47.571
135.977 2169 46.5725
136.094 2175 46.6369
136.211 2045 45.2217
136.329 2054 45.3211
136.446 2116 46
136.564 2059 45.3762
136.681 2104 45.8694
136.798 2263 47.571
136.915 2264 47.5815
137.033 2276 47.7074
137.15 2287 47.8226
137.267 2265 47.592
137.384 2294 47.8957
137.502 2205 46.9574
137.619 2244 47.3709
137.736 2158 46.4543
137.853 2260 47.5395
137.97 2338 48.3529
138.087 2443 49.4267
138.204 2390 48.8876
138.321 2417 49.163
138.438 2327 48.239
138.555 2464 49.6387
138.672 2384 48.8262
138.788 2409 49.0816
138.905 2257 47.5079
139.022 2198 46.8828
139.139 2045 45.2217
139.255 2015 44.8888
139.372 1924 43.8634
139.488 1834 42.8252
139.605 1671 40.8779
139.721 1579 39.7366
139.838 1485 38.5357
139.954 1339 36.5923
140.071 1315 36.2629
140.187 1233 35.1141
140.303 1225 35
140.419 1172 34.2345
140.535 1085 32.9393
140.652 1104 33.2265
140.768 0 1
140.884 0 1
141 0 1
141.115 0 1
141.231 0 1
141.347 0 1
141.463 0 1
141.578 0 1
141.694 0 1
144.104 0 1
144.219 0 1
144.335 0 1
144.45 0 1
144.566 0 1
144.682 0 1
144.798 0 1
144.914 0 1
145.03 0 1
145.146 1513 38.8973
145.262 1530 39.1152
145.378 1644 40.5463
145.494 1632 40.398
145.61 1799 42.4146
145.726 1733 41.6293
145.842 1908 43.6807
145.959 1939 44.0341
146.075 1857 43.0929
146.192 1827 42.7434
146.308 1826 42.7317
146.425 1740 41.7133
146.541 1697 41.1947
146.658 1889 43.4626
146.774 2015 44.8888
146.891 2007 44.7996
147.008 1865 43.1856
147.125 2009 44.8219
147.241 2052 45.299
147.358 2082 45.6289
147.475 2019 44.9333
147.592 2100 45.8258
147.709 2048 45.2548
147.826 2121 46.0543
147.943 2017 44.911
148.06 2016 44.8999
148.177 2018 44.9222
148.294 1928 43.909
148.411 1833 42.8135
148.528 1847 42.9767
148.645 1776 42.1426
148.762 1852 43.0349
148.88 1723 41.509
148.997 1850 43.0116
149.114 1808 42.5206
149.231 1818 42.638
149.349 1987 44.5758
149.466 1912 43.7264
149.583 1779 42.1782
149.701 1886 43.4281
149.818 1839 42.8836
149.935 1790 42.3084
150.053 1779 42.1782
150.17 1771 42.0833
150.287 1809 42.5323
150.405 1915 43.7607
150.522 1934 43.9773
150.64 1983 44.5309
150.757 2031 45.0666
150.875 2023 44.9778
150.992 2134 46.1952
151.11 2122 46.0652
151.227 2161 46.4866
151.344 2116 46
151.462 2150 46.3681
151.579 2038 45.1442
151.697 2129 46.1411
151.814 2033 45.0888
151.932 1935 43.9886
152.049 1960 44.2719
152.167 1996 44.6766
152.284 1923 43.852
152.402 1903 43.6234
152.519 1876 43.3128
152.636 1862 43.1509
152.754 1858 43.1045
152.871 1919 43.8064
152.989 1936 44
153.106 1995 44.6654
153.223 2027 45.0222
153.341 1994 44.6542
153.458 1997 44.6878
153.575 1875 43.3013
153.693 1917 43.7836
153.81 1891 43.4856
153.927 2052 45.299
154.044 2129 46.1411
154.162 2221 47.1275
154.279 2333 48.3011
154.396 2455 49.548
154.513 2397 48.9592
154.63 2335 48.3218
154.747 2416 49.1528
154.864 2390 48.8876
154.981 2291 47.8644
155.098 2307 48.0312
155.215 2366 48.6415
155.332 2212 47.0319
155.449 2125 46.0977
155.566 2119 46.0326
155.683 2020 44.9444
155.8 1946 44.1135
155.917 1876 43.3128
156.033 1753 41.8688
156.15 0 1
156.267 0 1
156.383 0 1
156.5 0 1
156.617 0 1
156.733 0 1
156.85 0 1
156.966 0 1
157.082 0 1
157.199 0 1
157.315 0 1
157.431 0 1
157.547 0 1
157.664 0 1
157.78 0 1
157.896 0 1
158.012 0 1
158.128 0 1
158.244 0 1
158.359 0 1
158.475 0 1
158.591 0 1
158.706 0 1
