
6.15755 0 1
6.2731 0 1
6.3887 0 1
6.50437 0 1
6.62009 0 1
6.73587 0 1
6.8517 0 1
6.96759 0 1
7.08353 0 1
7.19952 0 1
7.31557 0 1
7.43166 0 1
7.54781 0 1
7.664 0 1
7.78024 0 1
7.89653 0 1
8.01286 0 1
8.12924 0 1
8.24567 0 1
8.36213 0 1
8.47864 0 1
8.59519 0 1
8.71178 0 1
8.82841 0 1
8.94508 0 1
9.06179 0 1
9.17853 0 1
9.29531 0 1
9.41212 0 1
9.52897 0 1
9.64584 0 1
9.76276 0 1
9.8797 0 1
9.99667 0 1
10.1137 0 1
10.2307 0 1
10.3478 0 1
10.4648 0 1
10.5819 0 1
10.6991 0 1
10.8162 0 1
10.9334 0 1
11.0506 0 1
11.1678 0 1
11.285 0 1
11.4023 0 1
11.5196 0 1
11.6369 0 1
11.7542 0 1
11.8715 0 1
11.9888 0 1
12.1062 0 1
12.2235 0 1
12.3409 0 1
12.4582 0 1
12.5756 0 1
12.693 0 1
12.8104 0 1
12.9278 0 1
13.0452 0 1
13.1626 0 1
13.28 0 1
13.3974 0 1
13.5149 0 1
13.6323 0 1
13.7497 0 1
13.8671 0 1
13.9845 0 1
14.1019 0 1
14.2193 0 1
14.3367 0 1
14.4541 0 1
14.5714 0 1
14.6888 0 1
14.8062 0 1
14.9235 0 1
15.0408 0 0
15.1581 0 0
15.2755 0 0
15.3927 0 0
15.51 0 0
15.6273 0 0
15.7445 0 0
15.8617 0 0
15.9789 0 0
16.0961 0 0
16.2132 0 0
16.3304 0 0
16.4475 0 0
16.5646 0 0
16.6816 0 0
16.7986 0 0
16.9156 0 0
17.0326 0 0
17.1496 0 0
17.2665 0 0
17.3833 0 0
17.5002 0 0
17.617 0 0
17.7338 0 0
17.8505 0 0
17.9672 0 0
18.0839 0 0
18.2005 0 0
18.3171 0 0
18.4337 0 0
18.5502 0 0
18.6666 0 0
18.7831 0 0
18.8994 0 0
19.0158 0 0
19.1321 0 0
19.2483 0 0
19.3645 0 0
19.4806 0 0
19.5967 0 0
19.7128 0 0
19.8288 0 0
19.9447 0 0
20.0606 0 1
20.1764 0 1
20.2922 0 1
20.4079 0 1
20.5236 0 1
20.6392 0 1
20.7548 0 1
20.8702 0 1
23.3078 0 1
23.4233 0 1
23.539 0 1
23.6547 0 1
23.7704 0 1
23.8862 0 1
24.0021 0 1
24.118 0 1
24.234 0 1
24.35 0 1
24.4661 3075 55.4527
24.5822 2823 53.1319
24.6984 2902 53.8702
24.8146 2851 53.3948
24.9309 2801 52.9245
25.0472 2739 52.3355
25.1636 2757 52.5071
25.28 2879 53.6563
25.3965 2946 54.2771
25.513 3072 55.4256
25.6296 3118 55.8391
25.7462 3228 56.8155
25.8628 3338 57.7754
25.9795 3161 56.2228
26.0962 3193 56.5066
26.213 3269 57.1752
26.3298 3002 54.7905
26.4466 2929 54.1202
26.5635 2922 54.0555
26.6804 2927 54.1018
26.7973 3029 55.0364
26.9143 2976 54.5527
27.0313 3232 56.8507
27.1483 3181 56.4004
27.2653 3242 56.9386
27.3824 3302 57.463
27.4996 3135 55.9911
27.6167 3301 57.4543
27.7339 3386 58.1893
27.8511 3014 54.8999
27.9683 3150 56.1249
28.0855 3061 55.3263
28.2028 3033 55.0727
28.3201 2908 53.9259
28.4374 2808 52.9906
28.5547 2647 51.449
28.6721 2695 51.9134
28.7894 2752 52.4595
28.9068 2736 52.3068
29.0242 2936 54.1849
29.1416 2923 54.0648
29.259 2973 54.5252
29.3764 3012 54.8817
29.4939 2972 54.5161
29.6113 2989 54.6717
29.7288 3007 54.8361
29.8463 2806 52.9717
29.9638 2754 52.4786
30.0812 2764 52.5738
30.1987 2782 52.7447
30.3162 2748 52.4214
30.4337 2921 54.0463
30.5512 2947 54.2863
30.6687 3037 55.109
30.7862 3110 55.7674
30.9037 3137 56.0089
31.0212 3168 56.285
31.1387 3289 57.3498
31.2562 3141 56.0446
31.3737 3088 55.5698
31.4912 3044 55.1725
31.6087 3049 55.2178
31.7262 2991 54.69
31.8436 2881 53.6749
31.9611 2789 52.811
32.0785 2723 52.1824
32.1959 2741 52.3546
32.3134 2860 53.479
32.4308 2845 53.3385
32.5482 2906 53.9073
32.6655 2961 54.4151
32.7829 2994 54.7175
32.9002 2917 54.0093
33.0176 2901 53.8609
33.1349 3090 55.5878
33.2522 2980 54.5894
33.3694 3041 55.1453
33.4867 2855 53.4322
33.6039 2886 53.7215
33.7211 2794 52.8583
33.8383 2804 52.9528
33.9554 2846 53.3479
34.0725 3027 55.0182
34.1896 2996 54.7357
34.3067 3183 56.4181
34.4237 3193 56.5066
34.5407 3226 56.7979
34.6577 3292 57.376
34.7746 3305 57.4891
34.8915 3256 57.0614
35.0084 3247 56.9825
35.1252 3157 56.1872
35.242 3153 56.1516
35.3587 3134 55.9821
35.4755 3056 55.2811
35.5921 2930 54.1295
35.7088 2762 52.5547
35.8254 2683 51.7977
35.9419 2717 52.1249
36.0584 2689 51.8556
36.1749 2858 53.4603
36.2913 2910 53.9444
36.4077 2939 54.2125
36.524 2916 54
36.6403 2955 54.3599
36.7565 3003 54.7996
36.8727 2959 54.3967
36.9889 2845 53.3385
37.1049 2794 52.8583
37.221 0 1
37.3369 0 1
37.4529 0 1
37.5687 0 1
37.6845 0 1
37.8003 0 1
37.916 0 1
38.0316 0 1
38.1472 0 1
40.5851 0 1
40.7008 0 1
40.8164 0 1
40.9322 0 1
41.048 0 1
41.1639 0 1
41.2798 0 1
41.3958 0 1
41.5118 0 1
41.6279 0 1
41.744 2394 48.9285
41.8602 2559 50.5866
41.9765 2611 51.0979
42.0928 2521 50.2096
42.2091 2443 49.4267
42.3255 2502 50.02
42.4419 2397 48.9592
42.5584 2411 49.1019
42.675 2398 48.9694
42.7915 2549 50.4876
42.9081 2573 50.7247
43.0248 2681 51.7784
43.1415 2712 52.0769
43.2582 2864 53.5164
43.375 2776 52.6878
43.4918 2895 53.8052
43.6087 2761 52.5452
43.7256 2748 52.4214
43.8425 2853 53.4135
43.9595 2671 51.6817
44.0765 2615 51.1371
44.1935 2533 50.3289
44.3106 2584 50.8331
44.4277 2352 48.4974
44.5448 2252 47.4552
44.6619 2211 47.0213
44.7791 2209 47
44.8963 2228 47.2017
45.0136 2316 48.1248
45.1308 2226 47.1805
45.2481 2305 48.0104
45.3654 2269 47.634
45.4827 2259 47.5289
45.6001 2320 48.1664
45.7174 2306 48.0208
45.8348 2244 47.3709
45.9522 2051 45.288
46.0697 1962 44.2945
46.1871 2038 45.1442
46.3046 2080 45.607
46.422 2106 45.8912
46.5395 2279 47.7389
46.657 2290 47.8539
46.7745 2331 48.2804
46.892 2313 48.0937
47.0096 2432 49.3153
47.1271 2399 48.9796
47.2446 2301 47.9687
47.3622 2307 48.0312
47.4797 2318 48.1456
47.5973 2252 47.4552
47.7149 2079 45.5961
47.8324 2027 45.0222
47.95 2010 44.833
48.0675 1818 42.638
48.1851 1786 42.2611
48.3027 1701 41.2432
48.4202 1710 41.3521
48.5378 1818 42.638
48.6554 1883 43.3935
48.7729 1861 43.1393
48.8904 1907 43.6692
49.008 1887 43.4396
49.1255 1944 44.0908
49.243 1933 43.9659
49.3605 1906 43.6578
49.478 1783 42.2256
49.5955 1826 42.7317
49.713 1795 42.3674
49.8304 1922 43.8406
49.9479 2083 45.6399
50.0653 2152 46.3897
50.1827 2269 47.634
50.3001 2423 49.224
50.4175 2449 49.4874
50.5348 2563 50.6261
50.6521 2561 50.6063
50.7694 2629 51.2738
50.8867 2675 51.7204
51.004 2709 52.0481
51.1212 2754 52.4786
51.2384 2668 51.6527
51.3556 2678 51.7494
51.4727 2533 50.3289
51.5899 2463 49.6286
51.707 2357 48.5489
51.824 2448 49.4773
51.9411 2361 48.5901
52.0581 2440 49.3964
52.175 2562 50.6162
52.2919 2513 50.1298
52.4088 2586 50.8527
52.5257 2767 52.6023
52.6425 2761 52.5452
52.7593 2784 52.7636
52.876 2736 52.3068
52.9927 2753 52.469
53.1094 2556 50.5569
53.226 2657 51.5461
53.3426 2667 51.643
53.4591 2804 52.9528
53.5756 2997 54.7449
53.692 3152 56.1427
53.8084 3239 56.9122
53.9248 3321 57.6281
54.0411 3401 58.3181
54.1573 3423 58.5064
54.2735 0 1
54.3896 0 1
54.5057 0 1
54.6217 0 1
54.7377 0 1
54.8537 0 1
54.9695 0 1
55.0853 0 1
55.2011 0 1
55.3168 0 1
55.4324 0 1
57.824 0 1
57.9396 0 1
58.0553 0 1
58.1711 0 1
58.2869 0 1
58.4028 0 1
58.5187 0 1
58.6347 0 1
58.7508 0 1
58.8669 0 1
58.983 4113 64.1327
59.0992 4216 64.9307
59.2155 4288 65.4828
59.3318 4308 65.6354
59.4482 4372 66.1211
59.5646 4369 66.0984
59.681 4306 65.6201
59.7975 4101 64.0391
59.9141 4032 63.498
60.0306 3839 61.9597
60.1473 3662 60.5145
60.2639 3449 58.7282
60.3807 3296 57.4108
60.4974 3346 57.8446
60.6142 3402 58.3267
60.731 3364 58
60.8479 3480 58.9915
60.9648 3413 58.4209
61.0818 3486 59.0424
61.1987 3557 59.6406
61.3158 3506 59.2115
61.4328 3429 58.5577
61.5499 3253 57.0351
61.667 3099 55.6687
61.7841 3197 56.542
61.9013 3181 56.4004
62.0185 3139 56.0268
62.1357 3481 59
62.253 3656 60.4649
62.3702 3761 61.327
62.4875 3925 62.6498
62.6049 3919 62.6019
62.7222 4060 63.7181
62.8396 3939 62.7615
62.9569 3992 63.1823
63.0743 3958 62.9126
63.1918 4066 63.7652
63.3092 3976 63.0555
63.4267 3732 61.0901
63.5441 3533 59.439
63.6616 3337 57.7668
63.7791 3107 55.7405
63.8966 2975 54.5436
64.0142 2902 53.8702
64.1317 2940 54.2218
64.2492 3078 55.4797
64.3668 3034 55.0818
64.4843 3179 56.3826
64.6019 3205 56.6127
64.7195 3247 56.9825
64.837 3261 57.1052
64.9546 3276 57.2364
65.0722 3010 54.8635
65.1898 2984 54.626
65.3074 2939 54.2125
65.4249 3012 54.8817
65.5425 2957 54.3783
65.6601 3125 55.9017
65.7777 3373 58.0775
65.8952 3594 59.95
66.0128 3654 60.4483
66.1304 3740 61.1555
66.2479 3779 61.4736
66.3655 3993 63.1902
66.483 3903 62.474
66.6005 3949 62.8411
66.718 3895 62.4099
66.8355 3909 62.522
66.953 3862 62.145
67.0705 3704 60.8605
67.1879 3495 59.1185
67.3054 3373 58.0775
67.4228 3085 55.5428
67.5402 2923 54.0648
67.6576 2850 53.3854
67.7749 2928 54.111
67.8923 3196 56.5332
68.0096 3156 56.1783
68.1269 3286 57.3236
68.2442 3441 58.66
68.3614 3425 58.5235
68.4787 3459 58.8133
68.5958 3450 58.7367
68.713 3240 56.921
68.8302 3170 56.3028
68.9473 3011 54.8726
69.0643 3070 55.4076
69.1814 2996 54.7357
69.2984 3359 57.9569
69.4154 3582 59.8498
69.5323 3695 60.7865
69.6492 3849 62.0403
69.7661 4102 64.0469
69.8829 4001 63.2535
69.9997 4109 64.1015
70.1165 4274 65.3758
70.2332 4192 64.7457
70.3499 4286 65.4675
70.4665 4046 63.6082
70.5831 4211 64.8922
70.6996 3879 62.2816
70.8161 3667 60.5558
70.9326 3472 58.9237
71.049 3230 56.8331
71.1653 3033 55.0727
71.2817 3033 55.0727
71.3979 2908 53.9259
71.5141 3013 54.8908
71.6303 3035 55.0908
71.7464 2970 54.4977
71.8624 0 1
71.9784 0 1
72.0944 0 1
72.2102 0 1
72.3261 0 1
72.4418 0 1
72.5575 0 1
72.6732 0 1
75.1054 0 1
75.2209 0 1
75.3365 0 1
75.4521 0 1
75.5678 0 1
75.6835 0 1
75.7993 0 1
75.9151 0 1
76.031 0 1
76.147 3440 58.6515
76.263 3593 59.9416
76.3791 3301 57.4543
76.4952 3165 56.2583
76.6113 3138 56.0179
76.7276 3088 55.5698
76.8438 3146 56.0892
76.9601 3384 58.1722
77.0765 3506 59.2115
77.1929 3590 59.9166
77.3093 3676 60.63
77.4258 3592 59.9333
77.5423 3700 60.8276
77.6589 3565 59.7076
77.7755 3420 58.4808
77.8921 3203 56.5951
78.0088 3182 56.4092
78.1256 3063 55.3444
78.2423 3105 55.7225
78.3591 3412 58.4123
78.4759 3614 60.1166
78.5928 3902 62.466
78.7097 4003 63.2693
78.8266 4306 65.6201
78.9436 4002 63.2614
79.0606 4381 66.1891
79.1776 4225 65
79.2946 4334 65.8331
79.4117 4317 65.7039
79.5288 4292 65.5134
79.6459 4065 63.7574
79.7631 4023 63.4271
79.8802 3618 60.1498
79.9974 3414 58.4294
80.1147 3097 55.6507
80.2319 2865 53.5257
80.3491 3006 54.827
80.4664 3016 54.9181
80.5837 3113 55.7943
80.701 3303 57.4717
80.8183 3343 57.8187
80.9357 3310 57.5326
81.053 3441 58.66
81.1704 3414 58.4294
81.2877 3432 58.5833
81.4051 3315 57.576
81.5225 3129 55.9375
81.6399 2911 53.9537
81.7573 2863 53.507
81.8747 2868 53.5537
81.9922 3096 55.6417
82.1096 3265 57.1402
82.227 3283 57.2975
82.3444 3620 60.1664
82.4619 3670 60.5805
82.5793 3638 60.3158
82.6967 4054 63.671
82.8142 3876 62.2575
82.9316 3839 61.9597
83.049 3894 62.4019
83.1664 3675 60.6218
83.2838 3715 60.9508
83.4012 3349 57.8705
83.5186 3165 56.2583
83.636 2973 54.5252
83.7534 2904 53.8888
83.8708 2638 51.3615
83.9881 2545 50.448
84.1055 2704 52
84.2228 2723 52.1824
84.3401 2976 54.5527
84.4575 3146 56.0892
84.5747 3219 56.7362
84.692 3267 57.1577
84.8093 3349 57.8705
84.9265 3152 56.1427
85.0437 2992 54.6992
85.1609 2780 52.7257
85.2781 2702 51.9808
85.3952 2682 51.788
85.5123 2830 53.1977
85.6294 2951 54.3231
85.7465 3203 56.5951
85.8636 3642 60.349
85.9806 3557 59.6406
86.0976 3767 61.3759
86.2145 3908 62.514
86.3315 4018 63.3877
86.4484 4155 64.4593
86.5652 4095 63.9922
86.682 4116 64.1561
86.7988 4023 63.4271
86.9156 3807 61.7009
87.0323 3766 61.3677
87.149 3539 59.4895
87.2657 3290 57.3585
87.3823 3094 55.6237
87.4988 3072 55.4256
87.6154 2924 54.074
87.7318 3235 56.8771
87.8483 3471 58.9152
87.9647 3523 59.3549
88.081 3621 60.1747
88.1973 3731 61.0819
88.3136 3856 62.0967
88.4298 3879 62.2816
88.546 3506 59.2115
88.6621 3209 56.648
88.7781 3069 55.3986
88.8942 0 1
89.0101 0 1
89.126 0 1
89.2419 0 1
89.3577 0 1
89.4734 0 1
89.5891 0 1
89.7047 0 1
89.8203 0 1
89.9358 0 1
92.3269 0 1
92.4424 0 1
92.558 0 1
92.6736 0 1
92.7893 0 1
92.905 0 1
93.0208 0 1
93.1366 0 1
93.2525 0 1
93.3685 0 1
93.4845 0 1
93.6005 3544 59.5315
93.7167 3460 58.8218
93.8328 3668 60.564
93.949 3511 59.2537
94.0653 3406 58.3609
94.1816 3284 57.3062
94.2979 3012 54.8817
94.4143 3135 55.9911
94.5307 3120 55.857
94.6472 3103 55.7046
94.7637 3395 58.2666
94.8803 3727 61.0492
94.9969 3946 62.8172
95.1135 3973 63.0317
95.2302 4014 63.3561
95.3469 4254 65.2227
95.4637 4254 65.2227
95.5805 4261 65.2763
95.6973 4434 66.5883
95.8142 4323 65.7495
95.9311 4351 65.9621
96.048 4203 64.8305
96.1649 4012 63.3404
96.2819 3835 61.9274
96.3989 3624 60.1997
96.516 3343 57.8187
96.633 3241 56.9298
96.7501 3132 55.9643
96.8673 3121 55.8659
96.9844 3298 57.4282
97.1016 3418 58.4637
97.2188 3633 60.2744
97.336 3753 61.2617
97.4532 3812 61.7414
97.5704 3769 61.3922
97.6877 3718 60.9754
97.805 3511 59.2537
97.9223 3271 57.1927
98.0396 3025 55
98.1569 3116 55.8211
98.2743 3125 55.9017
98.3916 3400 58.3095
98.509 3636 60.2993
98.6264 3729 61.0655
98.7438 4077 63.8514
98.8612 4203 64.8305
98.9786 4304 65.6049
99.096 4511 67.164
99.2134 4554 67.4833
99.3308 4438 66.6183
99.4482 4513 67.1789
99.5656 4434 66.5883
99.6831 4230 65.0385
99.8005 4056 63.6867
99.9179 3952 62.8649
100.035 3638 60.3158
100.153 3334 57.7408
100.27 3221 56.7539
100.388 3199 56.5597
100.505 3331 57.7148
100.622 3656 60.4649
100.74 3716 60.959
100.857 3851 62.0564
100.975 3884 62.3217
101.092 3934 62.7216
101.209 3914 62.562
101.327 3835 61.9274
101.444 3531 59.4222
101.561 3333 57.7321
101.679 3265 57.1402
101.796 3284 57.3062
101.913 3361 57.9741
102.03 3656 60.4649
102.148 4045 63.6003
102.265 4418 66.468
102.382 4241 65.123
102.499 4522 67.2458
102.616 4717 68.6804
102.733 4710 68.6294
102.851 4859 69.7065
102.968 4829 69.491
103.085 4583 67.6979
103.202 4538 67.3647
103.319 4440 66.6333
103.436 4142 64.3584
103.552 3994 63.1981
103.669 3760 61.3188
103.786 3491 59.0847
103.903 3572 59.7662
104.02 3507 59.2199
104.137 3827 61.8628
104.253 3992 63.1823
104.37 4082 63.8905
104.487 4223 64.9846
104.603 4254 65.2227
104.72 4193 64.7534
104.836 4066 63.7652
104.953 3673 60.6053
105.069 3610 60.0833
105.186 3618 60.1498
105.302 3614 60.1166
105.418 3792 61.5792
105.535 4072 63.8122
105.651 4379 66.174
105.767 4570 67.6018
105.883 4740 68.8477
105.999 4908 70.0571
106.115 0 1
106.231 0 1
106.347 0 1
106.463 0 1
106.579 0 1
106.694 0 1
106.81 0 1
106.926 0 1
107.041 0 1
107.157 0 1
109.576 0 1
109.692 0 1
109.807 0 1
109.923 0 1
110.039 0 1
110.155 0 1
110.27 0 1
110.386 0 1
110.502 0 1
110.618 4060 63.7181
110.735 4188 64.7148
110.851 4432 66.5733
110.967 4642 68.1322
111.083 4722 68.7168
111.199 4768 69.0507
111.316 4791 69.217
111.432 4881 69.8642
111.549 4694 68.5128
111.665 4598 67.8086
111.782 4454 66.7383
111.898 4272 65.3605
112.015 4054 63.671
112.132 3773 61.4248
112.248 3548 59.5651
112.365 3371 58.0603
112.482 3494 59.1101
112.599 3544 59.5315
112.716 3769 61.3922
112.832 3836 61.9355
112.949 3887 62.3458
113.066 3826 61.8547
113.183 3781 61.4898
113.3 3844 62
113.417 3555 59.6238
113.534 3350 57.8792
113.652 3327 57.6802
113.769 3227 56.8067
113.886 3155 56.1694
114.003 3388 58.2065
114.12 3734 61.1065
114.238 3943 62.7933
114.355 4192 64.7457
114.472 4236 65.0846
114.589 4440 66.6333
114.707 4475 66.8954
114.824 4597 67.8012
114.942 4492 67.0224
115.059 4542 67.3944
115.176 4613 67.9191
115.294 4357 66.0076
115.411 4187 64.707
115.529 4103 64.0547
115.646 3934 62.7216
115.764 3725 61.0328
115.881 3578 59.8164
115.999 3490 59.0762
116.116 3584 59.8665
116.234 3665 60.5392
116.351 3773 61.4248
116.469 3850 62.0484
116.586 3818 61.79
116.704 3923 62.6339
116.821 3814 61.7576
116.939 3730 61.0737
117.056 3561 59.6741
117.174 3494 59.1101
117.291 3575 59.7913
117.409 3458 58.8048
117.526 3547 59.5567
117.644 3803 61.6685
117.761 4087 63.9296
117.879 4361 66.0379
117.996 4561 67.5352
118.114 4544 67.4092
118.231 4787 69.1881
118.349 4584 67.7052
118.466 4696 68.5274
118.584 4733 68.7968
118.701 4829 69.491
118.819 4695 68.5201
118.936 4588 67.7348
119.053 4475 66.8954
119.171 4255 65.2304
119.288 4136 64.3117
119.405 3962 62.9444
119.523 3760 61.3188
119.64 3648 60.3987
119.757 3741 61.1637
119.875 3752 61.2536
119.992 3842 61.9839
120.109 3918 62.5939
120.226 3799 61.636
120.343 4027 63.4586
120.46 3914 62.562
120.578 3841 61.9758
120.695 3721 61
120.812 3611 60.0916
120.929 3567 59.7244
121.046 3429 58.5577
121.163 3503 59.1861
121.279 3751 61.2454
121.396 4040 63.561
121.513 4321 65.7343
121.63 4267 65.3223
121.747 4484 66.9627
121.863 4595 67.7864
121.98 4560 67.5278
122.097 4744 68.8767
122.213 4724 68.7314
122.33 4771 69.0724
122.446 4639 68.1102
122.563 4568 67.587
122.679 4544 67.4092
122.795 4327 65.7799
122.912 4380 66.1816
123.028 4047 63.616
123.144 3866 62.1772
123.26 3606 60.05
123.377 0 1
123.493 0 1
123.609 0 1
123.725 0 1
123.84 0 1
123.956 0 1
124.072 0 1
124.188 0 1
124.303 0 1
124.419 0 1
126.852 0 1
126.968 0 1
127.083 0 1
127.199 0 1
127.315 0 1
127.431 0 1
127.547 0 1
127.663 0 1
127.779 0 1
127.895 0 1
128.011 0 1
128.127 0 1
128.243 0 1
128.359 4406 66.3777
128.476 4287 65.4752
128.592 4271 65.3529
128.708 4187 64.707
128.825 4409 66.4003
128.941 4471 66.8655
129.058 4444 66.6633
129.174 4399 66.325
129.291 4374 66.1362
129.408 4419 66.4756
129.524 4414 66.4379
129.641 4118 64.1716
129.758 4219 64.9538
129.875 3999 63.2376
129.992 4008 63.3088
130.108 4001 63.2535
130.225 4198 64.792
130.342 4484 66.9627
130.459 4583 67.6979
130.576 4933 70.2353
130.693 4903 70.0214
130.81 5020 70.852
130.928 5193 72.0625
131.045 5095 71.3793
131.162 5215 72.215
131.279 5189 72.0347
131.396 5161 71.8401
131.513 5099 71.4073
131.631 4980 70.5691
131.748 4819 69.419
131.865 4746 68.8912
131.983 4433 66.5808
132.1 4376 66.1513
132.217 4307 65.6277
132.335 4346 65.9242
132.452 4685 68.4471
132.57 4734 68.8041
132.687 4554 67.4833
132.804 4727 68.7532
132.922 4725 68.7386
133.039 4700 68.5565
133.157 4550 67.4537
133.274 4412 66.4229
133.392 4066 63.7652
133.509 4215 64.923
133.627 4174 64.6065
133.744 4242 65.1306
133.862 4457 66.7608
133.979 4775 69.1014
134.097 4980 70.5691
134.214 5235 72.3533
134.332 5178 71.9583
134.449 5080 71.2741
134.567 5193 72.0625
134.684 5432 73.7021
134.802 5256 72.4983
134.919 5507 74.2092
135.037 5270 72.5948
135.154 5228 72.3049
135.272 5096 71.3863
135.389 4925 70.1783
135.507 4924 70.1712
135.624 4760 68.9928
135.742 4551 67.4611
135.859 4554 67.4833
135.977 4628 68.0294
136.094 4772 69.0797
136.211 4718 68.6877
136.329 4772 69.0797
136.446 4884 69.8856
136.564 4779 69.1303
136.681 4985 70.6045
136.798 4614 67.9264
136.915 4586 67.72
137.033 4468 66.8431
137.15 4415 66.4455
137.267 4286 65.4675
137.384 4502 67.0969
137.502 4534 67.335
137.619 4723 68.7241
137.736 4940 70.2851
137.853 5064 71.1618
137.97 5036 70.9648
138.087 5446 73.797
138.204 5422 73.6342
138.321 5505 74.1957
138.438 5526 74.3371
138.555 5489 74.0878
138.672 5416 73.5935
138.788 5516 74.2698
138.905 5244 72.4155
139.022 5183 71.9931
139.139 5009 70.7743
139.255 4822 69.4406
139.372 4713 68.6513
139.488 4675 68.374
139.605 4824 69.455
139.721 4900 70
139.838 4890 69.9285
139.954 5015 70.8167
140.071 4763 69.0145
140.187 4901 70.0071
140.303 4602 67.838
140.419 4616 67.9412
140.535 4689 68.4763
140.652 4346 65.9242
140.768 0 1
140.884 0 1
141 0 1
141.115 0 1
141.231 0 1
141.347 0 1
141.463 0 1
141.578 0 1
141.694 0 1
144.104 0 1
144.219 0 1
144.335 0 1
144.45 0 1
144.566 0 1
144.682 0 1
144.798 0 1
144.914 0 1
145.03 0 1
145.146 9443 97.1751
145.262 9721 98.5951
145.378 9872 99.3579
145.494 9624 98.102
145.61 9598 97.9694
145.726 9462 97.2728
145.842 9423 97.0721
145.959 9431 97.1133
146.075 9632 98.1428
146.192 10192 100.955
146.308 10584 102.879
146.425 11222 105.934
146.541 11517 107.317
146.658 11893 109.055
146.774 12132 110.145
146.891 12322 111.005
147.008 12505 111.826
147.125 12745 112.894
147.241 12770 113.004
147.358 12527 111.924
147.475 12424 111.463
147.592 11961 109.366
147.709 11832 108.775
147.826 11404 106.79
147.943 10945 104.618
148.06 10885 104.331
148.177 11360 106.583
148.294 11657 107.968
148.411 12038 109.718
148.528 12389 111.306
148.645 12163 110.286
148.762 12170 110.318
148.88 11898 109.078
148.997 11493 107.205
149.114 11876 108.977
149.231 11102 105.366
149.349 10723 103.552
149.466 10402 101.99
149.583 9766 98.8231
149.701 9929 99.6444
149.818 10372 101.843
149.935 10807 103.957
150.053 11136 105.527
150.17 11338 106.48
150.287 11623 107.81
150.405 11716 108.24
150.522 11988 109.49
150.64 12141 110.186
150.757 12233 110.603
150.875 12097 109.986
150.992 11965 109.385
151.11 11585 107.634
151.227 11451 107.009
151.344 11112 105.413
151.462 10845 104.139
151.579 10606 102.985
151.697 10713 103.504
151.814 10960 104.69
151.932 11592 107.666
152.049 11868 108.94
152.167 12072 109.873
152.284 11985 109.476
152.402 12008 109.581
152.519 11825 108.743
152.636 11758 108.434
152.754 11195 105.806
152.871 10744 103.653
152.989 10554 102.733
153.106 10357 101.769
153.223 9913 99.564
153.341 10047 100.235
153.458 10222 101.104
153.575 10696 103.421
153.693 11128 105.489
153.81 11340 106.489
153.927 11334 106.461
154.044 11736 108.333
154.162 12003 109.558
154.279 12014 109.608
154.396 12411 111.405
154.513 12297 110.892
154.63 12513 111.862
154.747 11961 109.366
154.864 11869 108.945
154.981 11552 107.48
155.098 11248 106.057
155.215 10804 103.942
155.332 10807 103.957
155.449 11193 105.797
155.566 11521 107.336
155.683 12025 109.659
155.8 12014 109.608
155.917 12029 109.677
156.033 12046 109.754
156.15 0 1
156.267 0 1
156.383 0 1
156.5 0 1
156.617 0 1
156.733 0 1
156.85 0 1
156.966 0 1
157.082 0 1
157.199 0 1
157.315 0 1
157.431 0 1
157.547 0 1
157.664 0 1
157.78 0 1
157.896 0 1
158.012 0 1
158.128 0 1
158.244 0 1
158.359 0 1
158.475 0 1
158.591 0 1
158.706 0 1
