
6.15755 0 1
6.2731 0 1
6.3887 0 1
6.50437 0 1
6.62009 0 1
6.73587 0 1
6.8517 0 1
6.96759 0 1
7.08353 0 1
7.19952 0 1
7.31557 0 1
7.43166 0 1
7.54781 0 1
7.664 0 1
7.78024 0 1
7.89653 0 1
8.01286 0 1
8.12924 0 1
8.24567 0 1
8.36213 0 1
8.47864 0 1
8.59519 0 1
8.71178 0 1
8.82841 0 1
8.94508 0 1
9.06179 0 1
9.17853 0 1
9.29531 0 1
9.41212 0 1
9.52897 0 1
9.64584 0 1
9.76276 0 1
9.8797 0 1
9.99667 0 1
10.1137 0 1
10.2307 0 1
10.3478 0 1
10.4648 0 1
10.5819 0 1
10.6991 0 1
10.8162 0 1
10.9334 0 1
11.0506 0 1
11.1678 0 1
11.285 0 1
11.4023 0 1
11.5196 0 1
11.6369 0 1
11.7542 0 1
11.8715 0 1
11.9888 0 1
12.1062 0 1
12.2235 0 1
12.3409 0 1
12.4582 0 1
12.5756 0 1
12.693 0 1
12.8104 0 1
12.9278 0 1
13.0452 0 1
13.1626 0 1
13.28 0 1
13.3974 0 1
13.5149 0 1
13.6323 0 1
13.7497 0 1
13.8671 0 1
13.9845 0 1
14.1019 0 1
14.2193 0 1
14.3367 0 1
14.4541 0 1
14.5714 0 1
14.6888 0 1
14.8062 0 1
14.9235 0 1
15.0408 2239 47.3181
15.1581 2351 48.4871
15.2755 2335 48.3218
15.3927 2414 49.1325
15.51 2280 47.7493
15.6273 2349 48.4665
15.7445 2387 48.8569
15.8617 2325 48.2183
15.9789 2353 48.5077
16.0961 2301 47.9687
16.2132 2348 48.4562
16.3304 2322 48.1871
16.4475 2348 48.4562
16.5646 2343 48.4045
16.6816 2410 49.0918
16.7986 2505 50.05
16.9156 2523 50.2295
17.0326 2469 49.689
17.1496 2387 48.8569
17.2665 2518 50.1797
17.3833 2503 50.03
17.5002 2553 50.5272
17.617 2595 50.9411
17.7338 2589 50.8822
17.8505 2565 50.6458
17.9672 2493 49.93
18.0839 2427 49.2646
18.2005 2475 49.7494
18.3171 2514 50.1398
18.4337 2600 50.9902
18.5502 2638 51.3615
18.6666 2725 52.2015
18.7831 2689 51.8556
18.8994 2697 51.9326
19.0158 2584 50.8331
19.1321 2438 49.3761
19.2483 2382 48.8057
19.3645 2321 48.1768
19.4806 2248 47.4131
19.5967 2192 46.8188
19.7128 2142 46.2817
19.8288 1935 43.9886
19.9447 1691 41.1218
20.0606 0 1
20.1764 0 1
20.2922 0 1
20.4079 0 1
20.5236 0 1
20.6392 0 1
20.7548 0 1
20.8702 0 1
23.3078 0 1
23.4233 0 1
23.539 0 1
23.6547 0 1
23.7704 0 1
23.8862 0 1
24.0021 0 1
24.118 0 1
24.234 0 1
24.35 0 1
24.4661 1230 35.0714
24.5822 1482 38.4968
24.6984 1647 40.5832
24.8146 1810 42.5441
24.9309 2019 44.9333
25.0472 2109 45.9239
25.1636 2297 47.927
25.28 2362 48.6004
25.3965 2409 49.0816
25.513 2508 50.0799
25.6296 2647 51.449
25.7462 2681 51.7784
25.8628 2634 51.3225
25.9795 2667 51.643
26.0962 2906 53.9073
26.213 2911 53.9537
26.3298 2906 53.9073
26.4466 2897 53.8238
26.5635 2754 52.4786
26.6804 2841 53.301
26.7973 2743 52.3737
26.9143 2942 54.2402
27.0313 2839 53.2823
27.1483 2997 54.7449
27.2653 3042 55.1543
27.3824 3047 55.1996
27.4996 3093 55.6147
27.6167 2986 54.6443
27.7339 2997 54.7449
27.8511 2890 53.7587
27.9683 2864 53.5164
28.0855 2969 54.4885
28.2028 2866 53.535
28.3201 2905 53.8981
28.4374 3062 55.3353
28.5547 2739 52.3355
28.6721 2710 52.0577
28.7894 2641 51.3907
28.9068 2613 51.1175
29.0242 2661 51.5849
29.1416 2593 50.9215
29.259 2666 51.6333
29.3764 2724 52.192
29.4939 2836 53.2541
29.6113 2767 52.6023
29.7288 2782 52.7447
29.8463 2806 52.9717
29.9638 2832 53.2165
30.0812 2855 53.4322
30.1987 2875 53.619
30.3162 2948 54.2955
30.4337 2850 53.3854
30.5512 2970 54.4977
30.6687 2868 53.5537
30.7862 2965 54.4518
30.9037 3055 55.2721
31.0212 3094 55.6237
31.1387 3025 55
31.2562 2971 54.5069
31.3737 2999 54.7631
31.4912 2880 53.6656
31.6087 3069 55.3986
31.7262 3024 54.9909
31.8436 2945 54.2679
31.9611 2977 54.5619
32.0785 2848 53.3667
32.1959 2796 52.8772
32.3134 2653 51.5073
32.4308 2673 51.7011
32.5482 2647 51.449
32.6655 2675 51.7204
32.7829 2651 51.4879
32.9002 2606 51.049
33.0176 2752 52.4595
33.1349 2905 53.8981
33.2522 2940 54.2218
33.3694 2763 52.5642
33.4867 2937 54.1941
33.6039 2945 54.2679
33.7211 2899 53.8424
33.8383 2906 53.9073
33.9554 2876 53.6284
34.0725 2982 54.6077
34.1896 3020 54.9545
34.3067 3142 56.0535
34.4237 3021 54.9636
34.5407 3174 56.3383
34.6577 3164 56.2494
34.7746 3013 54.8908
34.8915 2901 53.8609
35.0084 2994 54.7175
35.1252 2984 54.626
35.242 2935 54.1756
35.3587 3045 55.1815
35.4755 3065 55.3624
35.5921 3083 55.5248
35.7088 2990 54.6809
35.8254 2868 53.5537
35.9419 2722 52.1728
36.0584 2683 51.7977
36.1749 2444 49.4368
36.2913 2363 48.6107
36.4077 2302 47.9792
36.524 2267 47.613
36.6403 2087 45.6837
36.7565 2212 47.0319
36.8727 2087 45.6837
36.9889 2174 46.6262
37.1049 2011 44.8442
37.221 0 1
37.3369 0 1
37.4529 0 1
37.5687 0 1
37.6845 0 1
37.8003 0 1
37.916 0 1
38.0316 0 1
38.1472 0 1
40.5851 0 1
40.7008 0 1
40.8164 0 1
40.9322 0 1
41.048 0 1
41.1639 0 1
41.2798 0 1
41.3958 0 1
41.5118 0 1
41.6279 0 1
41.744 1322 36.3593
41.8602 1444 38
41.9765 1652 40.6448
42.0928 1768 42.0476
42.2091 1979 44.486
42.3255 2142 46.2817
42.4419 2223 47.1487
42.5584 2390 48.8876
42.675 2449 49.4874
42.7915 2488 49.8799
42.9081 2655 51.5267
43.0248 2703 51.9904
43.1415 2790 52.8205
43.2582 2960 54.4059
43.375 2945 54.2679
43.4918 3076 55.4617
43.6087 3048 55.2087
43.7256 3097 55.6507
43.8425 2994 54.7175
43.9595 3018 54.9363
44.0765 2962 54.4243
44.1935 2913 53.9722
44.3106 3097 55.6507
44.4277 2958 54.3875
44.5448 2974 54.5344
44.6619 2860 53.479
44.7791 2643 51.4101
44.8963 2592 50.9117
45.0136 2458 49.5782
45.1308 2375 48.734
45.2481 2410 49.0918
45.3654 2390 48.8876
45.4827 2363 48.6107
45.6001 2415 49.1426
45.7174 2694 51.9038
45.8348 2801 52.9245
45.9522 2839 53.2823
46.0697 2946 54.2771
46.1871 2862 53.4977
46.3046 3035 55.0908
46.422 3036 55.0999
46.5395 3032 55.0636
46.657 3092 55.6058
46.7745 3185 56.4358
46.892 3233 56.8595
47.0096 3368 58.0345
47.1271 3278 57.2538
47.2446 3171 56.3116
47.3622 3234 56.8683
47.4797 3324 57.6541
47.5973 3242 56.9386
47.7149 3154 56.1605
47.8324 3174 56.3383
47.95 3165 56.2583
48.0675 3148 56.107
48.1851 3178 56.3738
48.3027 2982 54.6077
48.4202 2705 52.0096
48.5378 2509 50.0899
48.6554 2462 49.6185
48.7729 2393 48.9183
48.8904 2312 48.0833
49.008 2433 49.3254
49.1255 2567 50.6656
49.243 2789 52.811
49.3605 2932 54.1479
49.478 3027 55.0182
49.5955 3120 55.857
49.713 3138 56.0179
49.8304 3109 55.7584
49.9479 3202 56.5862
50.0653 3035 55.0908
50.1827 3249 57
50.3001 3284 57.3062
50.4175 3381 58.1464
50.5348 3358 57.9483
50.6521 3517 59.3043
50.7694 3510 59.2453
50.8867 3499 59.1523
51.004 3499 59.1523
51.1212 3403 58.3352
51.2384 3282 57.2887
51.3556 3382 58.155
51.4727 3427 58.5406
51.5899 3251 57.0175
51.707 3305 57.4891
51.824 3045 55.1815
51.9411 2791 52.8299
52.0581 2554 50.5371
52.175 2460 49.5984
52.2919 2444 49.4368
52.4088 2474 49.7393
52.5257 2568 50.6754
52.6425 2576 50.7543
52.7593 2713 52.0865
52.876 2867 53.5444
52.9927 2994 54.7175
53.1094 2955 54.3599
53.226 3121 55.8659
53.3426 3020 54.9545
53.4591 2978 54.5711
53.5756 2819 53.0943
53.692 2710 52.0577
53.8084 2633 51.3128
53.9248 2586 50.8527
54.0411 2450 49.4975
54.1573 2303 47.9896
54.2735 0 1
54.3896 0 1
54.5057 0 1
54.6217 0 1
54.7377 0 1
54.8537 0 1
54.9695 0 1
55.0853 0 1
55.2011 0 1
55.3168 0 1
55.4324 0 1
57.824 0 1
57.9396 0 1
58.0553 0 1
58.1711 0 1
58.2869 0 1
58.4028 0 1
58.5187 0 1
58.6347 0 1
58.7508 0 1
58.8669 0 1
58.983 2680 51.7687
59.0992 3039 55.1271
59.2155 3398 58.2924
59.3318 3529 59.4054
59.4482 3866 62.1772
59.5646 3949 62.8411
59.681 3977 63.0635
59.7975 4169 64.5678
59.9141 4172 64.591
60.0306 4253 65.215
60.1473 4337 65.8559
60.2639 4442 66.6483
60.3807 4395 66.2948
60.4974 4206 64.8537
60.6142 3944 62.8013
60.731 3597 59.975
60.8479 3229 56.8243
60.9648 3058 55.2992
61.0818 2932 54.1479
61.1987 2949 54.3047
61.3158 3254 57.0438
61.4328 3546 59.5483
61.5499 3916 62.578
61.667 4338 65.8635
61.7841 4510 67.1565
61.9013 4659 68.2569
62.0185 4667 68.3154
62.1357 4746 68.8912
62.253 4662 68.2788
62.3702 4605 67.8602
62.4875 4758 68.9783
62.6049 4964 70.4557
62.7222 4910 70.0714
62.8396 5103 71.4353
62.9569 5086 71.3162
63.0743 4928 70.1997
63.1918 5012 70.7955
63.3092 4984 70.5975
63.4267 4791 69.217
63.5441 4927 70.1926
63.6616 4725 68.7386
63.7791 4957 70.406
63.8966 4678 68.3959
64.0142 4459 66.7757
64.1317 4063 63.7417
64.2492 3817 61.7819
64.3668 3357 57.9396
64.4843 3085 55.5428
64.6019 2885 53.7122
64.7195 3068 55.3895
64.837 3131 55.9553
64.9546 3405 58.3524
65.0722 4037 63.5374
65.1898 4196 64.7765
65.3074 4589 67.7422
65.4249 4833 69.5198
65.5425 4906 70.0428
65.6601 5084 71.3022
65.7777 4833 69.5198
65.8952 4839 69.5629
66.0128 4976 70.5408
66.1304 5013 70.8025
66.2479 5011 70.7884
66.3655 5164 71.861
66.483 5245 72.4224
66.6005 5275 72.6292
66.718 5242 72.4017
66.8355 5399 73.4779
66.953 5104 71.4423
67.0705 5160 71.8331
67.1879 4992 70.6541
67.3054 5060 71.1337
67.4228 5200 72.111
67.5402 4852 69.6563
67.6576 4719 68.695
67.7749 4185 64.6916
67.8923 3788 61.5467
68.0096 3384 58.1722
68.1269 3093 55.6147
68.2442 2858 53.4603
68.3614 2981 54.5985
68.4787 3079 55.4887
68.5958 3523 59.3549
68.713 3996 63.2139
68.8302 4481 66.9403
68.9473 4997 70.6895
69.0643 5117 71.5332
69.1814 5224 72.2772
69.2984 5298 72.7874
69.4154 5040 70.993
69.5323 4933 70.2353
69.6492 4746 68.8912
69.7661 4840 69.5701
69.8829 4907 70.05
69.9997 4838 69.5557
70.1165 4916 70.1142
70.2332 4836 69.5414
70.3499 4665 68.3008
70.4665 4485 66.9701
70.5831 4325 65.7647
70.6996 4074 63.8279
70.8161 4008 63.3088
70.9326 3709 60.9016
71.049 3705 60.8687
71.1653 3324 57.6541
71.2817 3197 56.542
71.3979 2742 52.3641
71.5141 2346 48.4355
71.6303 1846 42.9651
71.7464 1365 36.9459
71.8624 0 1
71.9784 0 1
72.0944 0 1
72.2102 0 1
72.3261 0 1
72.4418 0 1
72.5575 0 1
72.6732 0 1
75.1054 0 1
75.2209 0 1
75.3365 0 1
75.4521 0 1
75.5678 0 1
75.6835 0 1
75.7993 0 1
75.9151 0 1
76.031 0 1
76.147 3766 61.3677
76.263 4120 64.1872
76.3791 4190 64.7302
76.4952 4109 64.1015
76.6113 3933 62.7136
76.7276 3827 61.8628
76.8438 3520 59.3296
76.9601 3123 55.8838
77.0765 2906 53.9073
77.1929 2802 52.9339
77.3093 2716 52.1153
77.4258 2803 52.9434
77.5423 3265 57.1402
77.6589 3738 61.1392
77.7755 4564 67.5574
77.8921 5160 71.8331
78.0088 5373 73.3008
78.1256 5553 74.5185
78.2423 5647 75.1465
78.3591 5568 74.619
78.4759 5451 73.8309
78.5928 5347 73.1232
78.7097 5550 74.4983
78.8266 5501 74.1687
78.9436 5982 77.3434
79.0606 5759 75.8881
79.1776 5805 76.1906
79.2946 6245 79.0253
79.4117 5990 77.3951
79.5288 5980 77.3305
79.6459 5936 77.0454
79.7631 5879 76.6746
79.8802 5826 76.3282
79.9974 5988 77.3822
80.1147 5914 76.9025
80.2319 5727 75.6769
80.3491 5350 73.1437
80.4664 4992 70.6541
80.5837 4113 64.1327
80.701 3589 59.9083
80.8183 3177 56.3649
80.9357 3191 56.4889
81.053 3152 56.1427
81.1704 3399 58.3009
81.2877 3923 62.6339
81.4051 4795 69.2459
81.5225 5608 74.8866
81.6399 6167 78.5302
81.7573 6563 81.0123
81.8747 6480 80.4984
81.9922 6705 81.8841
82.1096 6369 79.806
82.227 6327 79.5424
82.3444 6285 79.278
82.4619 6451 80.3181
82.5793 6595 81.2096
82.6967 6570 81.0555
82.8142 6763 82.2375
82.9316 6793 82.4197
83.049 6836 82.6801
83.1664 6814 82.547
83.2838 6849 82.7587
83.4012 7007 83.7078
83.5186 6777 82.3225
83.636 6786 82.3772
83.7534 6483 80.5171
83.8708 6452 80.3243
83.9881 5846 76.4591
84.1055 5312 72.8835
84.2228 4701 68.5638
84.3401 3955 62.8888
84.4575 3618 60.1498
84.5747 3310 57.5326
84.692 3341 57.8014
84.8093 3773 61.4248
84.9265 4482 66.9477
85.0437 5396 73.4575
85.1609 6143 78.3773
85.2781 6915 83.1565
85.3952 7210 84.9117
85.5123 7352 85.7438
85.6294 7302 85.4517
85.7465 7265 85.235
85.8636 7074 84.1071
85.9806 6955 83.3966
86.0976 7243 85.1058
86.2145 7435 86.2264
86.3315 7759 88.0852
86.4484 7500 86.6025
86.5652 7547 86.8735
86.682 7371 85.8545
86.7988 7382 85.9186
86.9156 7051 83.9702
87.0323 6742 82.1097
87.149 6836 82.6801
87.2657 6722 81.9878
87.3823 6576 81.0925
87.4988 6200 78.7401
87.6154 5716 75.6042
87.7318 4911 70.0785
87.8483 4243 65.1383
87.9647 3458 58.8048
88.081 2988 54.6626
88.1973 2769 52.6213
88.3136 2707 52.0288
88.4298 2916 54
88.546 3381 58.1464
88.6621 3964 62.9603
88.7781 4294 65.5286
88.8942 0 1
89.0101 0 1
89.126 0 1
89.2419 0 1
89.3577 0 1
89.4734 0 1
89.5891 0 1
89.7047 0 1
89.8203 0 1
89.9358 0 1
92.3269 0 1
92.4424 0 1
92.558 0 1
92.6736 0 1
92.7893 0 1
92.905 0 1
93.0208 0 1
93.1366 0 1
93.2525 0 1
93.3685 0 1
93.4845 0 1
93.6005 3208 56.6392
93.7167 3436 58.6174
93.8328 3907 62.506
93.949 4783 69.1592
94.0653 5730 75.6968
94.1816 6574 81.0802
94.2979 7556 86.9253
94.4143 7810 88.3742
94.5307 8401 91.657
94.6472 8604 92.7577
94.7637 8653 93.0215
94.8803 8391 91.6024
94.9969 8616 92.8224
95.1135 8543 92.4284
95.2302 8754 93.5628
95.3469 8959 94.652
95.4637 9189 95.8593
95.5805 9139 95.5981
95.6973 8978 94.7523
95.8142 8892 94.2974
95.9311 8998 94.8578
96.048 8977 94.747
96.1649 8690 93.2202
96.2819 8596 92.7146
96.3989 8558 92.5095
96.516 8265 90.912
96.633 7774 88.1703
96.7501 6964 83.4506
96.8673 6288 79.2969
96.9844 5552 74.5117
97.1016 4897 69.9786
97.2188 4390 66.2571
97.336 4286 65.4675
97.4532 4487 66.9851
97.5704 5072 71.218
97.6877 6059 77.8396
97.805 7123 84.3979
97.9223 8099 89.9944
98.0396 8770 93.6483
98.1569 9174 95.781
98.2743 9274 96.3016
98.3916 9325 96.566
98.509 8928 94.4881
98.6264 8746 93.5201
98.7438 9017 94.9579
98.8612 9113 95.462
98.9786 9241 96.1301
99.096 9421 97.0618
99.2134 9535 97.6473
99.3308 9645 98.209
99.4482 9493 97.432
99.5656 9514 97.5397
99.6831 9433 97.1236
99.8005 9267 96.2653
99.9179 9165 95.734
100.035 8856 94.1063
100.153 9086 95.3205
100.27 8184 90.4655
100.388 7208 84.8999
100.505 6426 80.1623
100.622 5554 74.5252
100.74 4985 70.6045
100.857 4623 67.9926
100.975 4727 68.7532
101.092 5066 71.1758
101.209 5782 76.0395
101.327 7234 85.0529
101.444 8107 90.0389
101.561 8921 94.451
101.679 9408 96.9948
101.796 9604 98
101.913 9643 98.1988
102.03 9295 96.4106
102.148 9147 95.6399
102.265 9467 97.2985
102.382 9200 95.9166
102.499 9470 97.3139
102.616 9624 98.102
102.733 9702 98.4987
102.851 9761 98.7978
102.968 9861 99.3026
103.085 9712 98.5495
103.202 9606 98.0102
103.319 9371 96.8039
103.436 9281 96.3379
103.552 9115 95.4725
103.669 9089 95.3362
103.786 8753 93.5575
103.903 8050 89.7218
104.02 6924 83.2106
104.137 6289 79.3032
104.253 5602 74.8465
104.37 4867 69.7639
104.487 4895 69.9643
104.603 4929 70.2068
104.72 5228 72.3049
104.836 6027 77.6338
104.953 6728 82.0244
105.069 7223 84.9882
105.186 7602 87.1894
105.302 7546 86.8677
105.418 7443 86.2728
105.535 7028 83.8332
105.651 6686 81.768
105.767 6071 77.9166
105.883 5854 76.5114
105.999 5286 72.7049
106.115 0 1
106.231 0 1
106.347 0 1
106.463 0 1
106.579 0 1
106.694 0 1
106.81 0 1
106.926 0 1
107.041 0 1
107.157 0 1
109.576 0 1
109.692 0 1
109.807 0 1
109.923 0 1
110.039 0 1
110.155 0 1
110.27 0 1
110.386 0 1
110.502 0 1
110.618 5647 75.1465
110.735 5985 77.3628
110.851 6251 79.0633
110.967 6476 80.4736
111.083 7138 84.4867
111.199 7487 86.5275
111.316 7945 89.1347
111.432 8350 91.3783
111.549 8445 91.8967
111.665 8662 93.0699
111.782 8450 91.9239
111.898 8626 92.8763
112.015 8322 91.225
112.132 8365 91.4604
112.248 8478 92.0761
112.365 8373 91.5041
112.482 8085 89.9166
112.599 7299 85.4342
112.716 6486 80.5357
112.832 5540 74.4312
112.949 5010 70.7814
113.066 4589 67.7422
113.183 4645 68.1542
113.3 4552 67.4685
113.417 4914 70.0999
113.534 5943 77.0909
113.652 6906 83.1023
113.769 7879 88.7637
113.886 8137 90.2053
114.003 8465 92.0054
114.12 8700 93.2738
114.238 8438 91.8586
114.355 8242 90.7855
114.472 8196 90.5318
114.589 8088 89.9333
114.707 8241 90.78
114.824 8386 91.5751
114.942 8574 92.5959
115.059 8579 92.6229
115.176 8590 92.6823
115.294 8383 91.5587
115.411 8248 90.8185
115.529 8109 90.05
115.646 7934 89.073
115.764 7778 88.193
115.881 8019 89.5489
115.999 7813 88.3912
116.116 7343 85.6913
116.234 6569 81.0494
116.351 5581 74.7061
116.469 5136 71.6659
116.586 4527 67.283
116.704 4381 66.1891
116.821 4538 67.3647
116.939 4504 67.1118
117.056 5071 71.211
117.174 5883 76.7007
117.291 6796 82.4379
117.409 7351 85.738
117.526 7637 87.3899
117.644 7825 88.459
117.761 7754 88.0568
117.879 7727 87.9034
117.996 7393 85.9826
118.114 7284 85.3464
118.231 7629 87.3441
118.349 7739 87.9716
118.466 7856 88.6341
118.584 7640 87.4071
118.701 7861 88.6623
118.819 7789 88.2553
118.936 7442 86.267
119.053 7556 86.9253
119.171 7422 86.151
119.288 7038 83.8928
119.405 7105 84.2912
119.523 7174 84.6995
119.64 7016 83.7616
119.757 6865 82.8553
119.875 6291 79.3158
119.992 5577 74.6793
120.109 4919 70.1356
120.226 4595 67.7864
120.343 4284 65.4523
120.46 4185 64.6916
120.578 4252 65.2074
120.695 4399 66.325
120.812 4901 70.0071
120.929 5613 74.92
121.046 6021 77.5951
121.163 6357 79.7308
121.279 6335 79.5927
121.396 6397 79.9812
121.513 6312 79.4481
121.63 6066 77.8845
121.747 5904 76.8375
121.863 5832 76.3675
121.98 5948 77.1233
122.097 5954 77.1622
122.213 5638 75.0866
122.33 5637 75.08
122.446 5514 74.2563
122.563 5161 71.8401
122.679 5040 70.993
122.795 4600 67.8233
122.912 4343 65.9014
123.028 4125 64.2262
123.144 3810 61.7252
123.26 3652 60.4318
123.377 0 1
123.493 0 1
123.609 0 1
123.725 0 1
123.84 0 1
123.956 0 1
124.072 0 1
124.188 0 1
124.303 0 1
124.419 0 1
126.852 0 1
126.968 0 1
127.083 0 1
127.199 0 1
127.315 0 1
127.431 0 1
127.547 0 1
127.663 0 1
127.779 0 1
127.895 0 1
128.011 0 1
128.127 0 1
128.243 0 1
128.359 6602 81.2527
128.476 6782 82.3529
128.592 6939 83.3007
128.708 6955 83.3966
128.825 6937 83.2887
128.941 6689 81.7863
129.058 6189 78.6702
129.174 5773 75.9803
129.291 5269 72.5879
129.408 5108 71.4703
129.524 4937 70.2638
129.641 4781 69.1448
129.758 4950 70.3562
129.875 5411 73.5595
129.992 5980 77.3305
130.108 6422 80.1374
130.225 6933 83.2646
130.342 7104 84.2852
130.459 7324 85.5804
130.576 7416 86.1162
130.693 7137 84.4808
130.81 7095 84.2318
130.928 7254 85.1704
131.045 7340 85.6738
131.162 7390 85.9651
131.279 7636 87.3842
131.396 7708 87.7952
131.513 7743 87.9943
131.631 7532 86.7871
131.748 7320 85.557
131.865 7385 85.936
131.983 7118 84.3682
132.1 7103 84.2793
132.217 7068 84.0714
132.335 7066 84.0595
132.452 7121 84.386
132.57 6622 81.3757
132.687 5940 77.0714
132.804 5695 75.4652
132.922 5298 72.7874
133.039 5226 72.2911
133.157 5084 71.3022
133.274 4913 70.0928
133.392 5064 71.1618
133.509 5669 75.2928
133.627 6101 78.1089
133.744 6399 79.9937
133.862 6841 82.7103
133.979 7017 83.7675
134.097 6970 83.4865
134.214 6898 83.0542
134.332 6860 82.8251
134.449 7024 83.8093
134.567 7149 84.5518
134.684 7170 84.6759
134.802 7442 86.267
134.919 7384 85.9302
135.037 7344 85.6971
135.154 7213 84.9294
135.272 7168 84.664
135.389 7039 83.8987
135.507 7011 83.7317
135.624 6867 82.8674
135.742 6787 82.3833
135.859 6916 83.1625
135.977 6857 82.807
136.094 6693 81.8108
136.211 6158 78.4729
136.329 5901 76.818
136.446 5529 74.3572
136.564 5285 72.698
136.681 5204 72.1388
136.798 5108 71.4703
136.915 5077 71.2531
137.033 5036 70.9648
137.15 5513 74.2496
137.267 5793 76.1118
137.384 6198 78.7274
137.502 6486 80.5357
137.619 6603 81.2588
137.736 6683 81.7496
137.853 6394 79.9625
137.97 6571 81.0617
138.087 6403 80.0187
138.204 6733 82.0549
138.321 6817 82.5651
138.438 6724 82
138.555 6585 81.148
138.672 6477 80.4798
138.788 6380 79.8749
138.905 6141 78.3645
139.022 5775 75.9934
139.139 5584 74.7262
139.255 5228 72.3049
139.372 5219 72.2426
139.488 5032 70.9366
139.605 4836 69.5414
139.721 4546 67.424
139.838 4205 64.846
139.954 4009 63.3167
140.071 3486 59.0424
140.187 3103 55.7046
140.303 2735 52.2972
140.419 2546 50.4579
140.535 2337 48.3425
140.652 2257 47.5079
140.768 0 1
140.884 0 1
141 0 1
141.115 0 1
141.231 0 1
141.347 0 1
141.463 0 1
141.578 0 1
141.694 0 1
144.104 0 1
144.219 0 1
144.335 0 1
144.45 0 1
144.566 0 1
144.682 0 1
144.798 0 1
144.914 0 1
145.03 0 1
145.146 4092 63.9687
145.262 4135 64.304
145.378 4097 64.0078
145.494 4057 63.6946
145.61 4060 63.7181
145.726 3903 62.474
145.842 3879 62.2816
145.959 4038 63.5453
146.075 4095 63.9922
146.192 4483 66.9552
146.308 4652 68.2056
146.425 4427 66.5357
146.541 4527 67.283
146.658 4552 67.4685
146.774 4551 67.4611
146.891 4696 68.5274
147.008 4770 69.0652
147.125 4886 69.8999
147.241 4985 70.6045
147.358 4988 70.6258
147.475 4948 70.342
147.592 4962 70.4415
147.709 4939 70.278
147.826 4813 69.3758
147.943 4735 68.8113
148.06 4808 69.3397
148.177 4681 68.4178
148.294 4775 69.1014
148.411 4719 68.695
148.528 4750 68.9202
148.645 4753 68.942
148.762 4752 68.9348
148.88 4523 67.2533
148.997 4551 67.4611
149.114 4158 64.4826
149.231 4309 65.643
149.349 4169 64.5678
149.466 3948 62.8331
149.583 4026 63.4508
149.701 4074 63.8279
149.818 4063 63.7417
149.935 4266 65.3146
150.053 4516 67.2012
150.17 4592 67.7643
150.287 4562 67.5426
150.405 4462 66.7982
150.522 4406 66.3777
150.64 4509 67.1491
150.757 4634 68.0735
150.875 4697 68.5347
150.992 4657 68.2422
151.11 4846 69.6132
151.227 4902 70.0143
151.344 4756 68.9638
151.462 4664 68.2935
151.579 4394 66.2873
151.697 4436 66.6033
151.814 4596 67.7938
151.932 4500 67.082
152.049 4548 67.4389
152.167 4574 67.6314
152.284 4431 66.5658
152.402 4440 66.6333
152.519 4252 65.2074
152.636 4243 65.1383
152.754 4085 63.914
152.871 4038 63.5453
152.989 4072 63.8122
153.106 3986 63.1348
153.223 3801 61.6523
153.341 3882 62.3057
153.458 3975 63.0476
153.575 4185 64.6916
153.693 4180 64.6529
153.81 4120 64.1872
153.927 4059 63.7103
154.044 4141 64.3506
154.162 4127 64.2417
154.279 4184 64.6838
154.396 4191 64.7379
154.513 4438 66.6183
154.63 4484 66.9627
154.747 4306 65.6201
154.864 4468 66.8431
154.981 4278 65.4064
155.098 4287 65.4752
155.215 4166 64.5446
155.332 4072 63.8122
155.449 4098 64.0156
155.566 3967 62.9841
155.683 4133 64.2884
155.8 4012 63.3404
155.917 3933 62.7136
156.033 3781 61.4898
156.15 0 1
156.267 0 1
156.383 0 1
156.5 0 1
156.617 0 1
156.733 0 1
156.85 0 1
156.966 0 1
157.082 0 1
157.199 0 1
157.315 0 1
157.431 0 1
157.547 0 1
157.664 0 1
157.78 0 1
157.896 0 1
158.012 0 1
158.128 0 1
158.244 0 1
158.359 0 1
158.475 0 1
158.591 0 1
158.706 0 1
