
6.15755 0 1
6.2731 0 1
6.3887 0 1
6.50437 0 1
6.62009 0 1
6.73587 0 1
6.8517 0 1
6.96759 0 1
7.08353 0 1
7.19952 0 1
7.31557 0 1
7.43166 0 1
7.54781 0 1
7.664 0 1
7.78024 0 1
7.89653 0 1
8.01286 0 1
8.12924 0 1
8.24567 0 1
8.36213 0 1
8.47864 0 1
8.59519 0 1
8.71178 0 1
8.82841 0 1
8.94508 0 1
9.06179 0 1
9.17853 0 1
9.29531 0 1
9.41212 0 1
9.52897 0 1
9.64584 0 1
9.76276 0 1
9.8797 0 1
9.99667 0 1
10.1137 0 1
10.2307 0 1
10.3478 0 1
10.4648 0 1
10.5819 0 1
10.6991 0 1
10.8162 0 1
10.9334 0 1
11.0506 0 1
11.1678 0 1
11.285 0 1
11.4023 0 1
11.5196 0 1
11.6369 0 1
11.7542 0 1
11.8715 0 1
11.9888 0 1
12.1062 0 1
12.2235 0 1
12.3409 0 1
12.4582 0 1
12.5756 0 1
12.693 0 1
12.8104 0 1
12.9278 0 1
13.0452 0 1
13.1626 0 1
13.28 0 1
13.3974 0 1
13.5149 0 1
13.6323 0 1
13.7497 0 1
13.8671 0 1
13.9845 0 1
14.1019 0 1
14.2193 0 1
14.3367 0 1
14.4541 0 1
14.5714 0 1
14.6888 0 1
14.8062 0 1
14.9235 0 1
15.0408 868 29.4618
15.1581 951 30.8383
15.2755 932 30.5287
15.3927 903 30.05
15.51 900 30
15.6273 883 29.7153
15.7445 827 28.7576
15.8617 774 27.8209
15.9789 790 28.1069
16.0961 894 29.8998
16.2132 835 28.8964
16.3304 768 27.7128
16.4475 744 27.2764
16.5646 765 27.6586
16.6816 766 27.6767
16.7986 772 27.7849
16.9156 745 27.2947
17.0326 700 26.4575
17.1496 694 26.3439
17.2665 778 27.8927
17.3833 803 28.3373
17.5002 758 27.5318
17.617 726 26.9444
17.7338 714 26.7208
17.8505 785 28.0179
17.9672 766 27.6767
18.0839 726 26.9444
18.2005 682 26.1151
18.3171 780 27.9285
18.4337 766 27.6767
18.5502 798 28.2489
18.6666 804 28.3549
18.7831 804 28.3549
18.8994 822 28.6705
19.0158 713 26.7021
19.1321 695 26.3629
19.2483 632 25.1396
19.3645 612 24.7386
19.4806 656 25.6125
19.5967 649 25.4755
19.7128 614 24.779
19.8288 708 26.6083
19.9447 591 24.3105
20.0606 0 1
20.1764 0 1
20.2922 0 1
20.4079 0 1
20.5236 0 1
20.6392 0 1
20.7548 0 1
20.8702 0 1
23.3078 0 1
23.4233 0 1
23.539 0 1
23.6547 0 1
23.7704 0 1
23.8862 0 1
24.0021 0 1
24.118 0 1
24.234 0 1
24.35 0 1
24.4661 1023 31.9844
24.5822 1285 35.8469
24.6984 1418 37.6563
24.8146 1598 39.975
24.9309 1597 39.9625
25.0472 1651 40.6325
25.1636 1868 43.2204
25.28 2004 44.7661
25.3965 2323 48.1975
25.513 2458 49.5782
25.6296 2486 49.8598
25.7462 2512 50.1199
25.8628 2411 49.1019
25.9795 2437 49.366
26.0962 2377 48.7545
26.213 2169 46.5725
26.3298 1922 43.8406
26.4466 1656 40.694
26.5635 1478 38.4448
26.6804 1376 37.0945
26.7973 1246 35.2987
26.9143 1179 34.3366
27.0313 1077 32.8177
27.1483 1064 32.619
27.2653 1016 31.8748
27.3824 1024 32
27.4996 1111 33.3317
27.6167 1002 31.6544
27.7339 963 31.0322
27.8511 943 30.7083
27.9683 987 31.4166
28.0855 1012 31.8119
28.2028 899 29.9833
28.3201 981 31.3209
28.4374 1020 31.9374
28.5547 1042 32.28
28.6721 1010 31.7805
28.7894 959 30.9677
28.9068 895 29.9166
29.0242 920 30.3315
29.1416 777 27.8747
29.259 779 27.9106
29.3764 742 27.2397
29.4939 740 27.2029
29.6113 740 27.2029
29.7288 747 27.3313
29.8463 742 27.2397
29.9638 690 26.2679
30.0812 655 25.593
30.1987 627 25.04
30.3162 660 25.6905
30.4337 674 25.9615
30.5512 676 26
30.6687 700 26.4575
30.7862 676 26
30.9037 734 27.0924
31.0212 705 26.5518
31.1387 755 27.4773
31.2562 807 28.4077
31.3737 717 26.7769
31.4912 686 26.1916
31.6087 696 26.3818
31.7262 732 27.0555
31.8436 774 27.8209
31.9611 696 26.3818
32.0785 707 26.5895
32.1959 713 26.7021
32.3134 724 26.9072
32.4308 716 26.7582
32.5482 728 26.9815
32.6655 712 26.6833
32.7829 661 25.7099
32.9002 713 26.7021
33.0176 626 25.02
33.1349 667 25.8263
33.2522 632 25.1396
33.3694 659 25.671
33.4867 602 24.5357
33.6039 619 24.8797
33.7211 620 24.8998
33.8383 620 24.8998
33.9554 640 25.2982
34.0725 643 25.3574
34.1896 633 25.1595
34.3067 650 25.4951
34.4237 662 25.7294
34.5407 671 25.9037
34.6577 660 25.6905
34.7746 638 25.2587
34.8915 727 26.9629
35.0084 671 25.9037
35.1252 588 24.2487
35.242 613 24.7588
35.3587 588 24.2487
35.4755 643 25.3574
35.5921 682 26.1151
35.7088 665 25.7876
35.8254 678 26.0384
35.9419 665 25.7876
36.0584 687 26.2107
36.1749 627 25.04
36.2913 595 24.3926
36.4077 574 23.9583
36.524 575 23.9792
36.6403 532 23.0651
36.7565 523 22.8692
36.8727 456 21.3542
36.9889 443 21.0476
37.1049 378 19.4422
37.221 0 1
37.3369 0 1
37.4529 0 1
37.5687 0 1
37.6845 0 1
37.8003 0 1
37.916 0 1
38.0316 0 1
38.1472 0 1
40.5851 0 1
40.7008 0 1
40.8164 0 1
40.9322 0 1
41.048 0 1
41.1639 0 1
41.2798 0 1
41.3958 0 1
41.5118 0 1
41.6279 0 1
41.744 260 16.1245
41.8602 308 17.5499
41.9765 367 19.1572
42.0928 427 20.664
42.2091 432 20.7846
42.3255 447 21.1424
42.4419 474 21.7715
42.5584 469 21.6564
42.675 478 21.8632
42.7915 476 21.8174
42.9081 487 22.0681
43.0248 445 21.095
43.1415 428 20.6882
43.2582 479 21.8861
43.375 465 21.5639
43.4918 481 21.9317
43.6087 506 22.4944
43.7256 476 21.8174
43.8425 466 21.587
43.9595 425 20.6155
44.0765 429 20.7123
44.1935 419 20.4695
44.3106 475 21.7945
44.4277 482 21.9545
44.5448 508 22.5389
44.6619 495 22.2486
44.7791 491 22.1585
44.8963 497 22.2935
45.0136 476 21.8174
45.1308 541 23.2594
45.2481 501 22.383
45.3654 520 22.8035
45.4827 475 21.7945
45.6001 501 22.383
45.7174 506 22.4944
45.8348 497 22.2935
45.9522 480 21.9089
46.0697 532 23.0651
46.1871 481 21.9317
46.3046 472 21.7256
46.422 435 20.8567
46.5395 422 20.5426
46.657 427 20.664
46.7745 434 20.8327
46.892 452 21.2603
47.0096 457 21.3776
47.1271 475 21.7945
47.2446 469 21.6564
47.3622 483 21.9773
47.4797 504 22.4499
47.5973 485 22.0227
47.7149 437 20.9045
47.8324 449 21.1896
47.95 463 21.5174
48.0675 445 21.095
48.1851 489 22.1133
48.3027 490 22.1359
48.4202 473 21.7486
48.5378 504 22.4499
48.6554 490 22.1359
48.7729 496 22.2711
48.8904 481 21.9317
49.008 484 22
49.1255 504 22.4499
49.243 500 22.3607
49.3605 471 21.7025
49.478 467 21.6102
49.5955 489 22.1133
49.713 451 21.2368
49.8304 416 20.3961
49.9479 392 19.799
50.0653 413 20.3224
50.1827 375 19.3649
50.3001 353 18.7883
50.4175 443 21.0476
50.5348 421 20.5183
50.6521 462 21.4942
50.7694 477 21.8403
50.8867 458 21.4009
51.004 450 21.2132
51.1212 452 21.2603
51.2384 433 20.8087
51.3556 423 20.567
51.4727 464 21.5407
51.5899 456 21.3542
51.707 497 22.2935
51.824 477 21.8403
51.9411 474 21.7715
52.0581 505 22.4722
52.175 429 20.7123
52.2919 465 21.5639
52.4088 484 22
52.5257 485 22.0227
52.6425 517 22.7376
52.7593 480 21.9089
52.876 483 21.9773
52.9927 459 21.4243
53.1094 502 22.4054
53.226 441 21
53.3426 402 20.0499
53.4591 403 20.0749
53.5756 370 19.2354
53.692 364 19.0788
53.8084 374 19.3391
53.9248 376 19.3907
54.0411 336 18.3303
54.1573 366 19.1311
54.2735 0 1
54.3896 0 1
54.5057 0 1
54.6217 0 1
54.7377 0 1
54.8537 0 1
54.9695 0 1
55.0853 0 1
55.2011 0 1
55.3168 0 1
55.4324 0 1
57.824 0 1
57.9396 0 1
58.0553 0 1
58.1711 0 1
58.2869 0 1
58.4028 0 1
58.5187 0 1
58.6347 0 1
58.7508 0 1
58.8669 0 1
58.983 431 20.7605
59.0992 614 24.779
59.2155 839 28.9655
59.3318 1005 31.7017
59.4482 1108 33.2866
59.5646 1213 34.8281
59.681 1260 35.4965
59.7975 1319 36.318
59.9141 1300 36.0555
60.0306 1406 37.4967
60.1473 1333 36.5103
60.2639 1409 37.5366
60.3807 1395 37.3497
60.4974 1394 37.3363
60.6142 1507 38.8201
60.731 1405 37.4833
60.8479 1380 37.1484
60.9648 1383 37.1887
61.0818 1373 37.054
61.1987 1434 37.8682
61.3158 1363 36.9188
61.4328 1335 36.5377
61.5499 1364 36.9324
61.667 1216 34.8712
61.7841 1237 35.171
61.9013 1163 34.1028
62.0185 1054 32.4654
62.1357 943 30.7083
62.253 895 29.9166
62.3702 851 29.1719
62.4875 904 30.0666
62.6049 877 29.6142
62.7222 787 28.0535
62.8396 884 29.7321
62.9569 849 29.1376
63.0743 799 28.2666
63.1918 836 28.9137
63.3092 706 26.5707
63.4267 672 25.923
63.5441 673 25.9422
63.6616 688 26.2298
63.7791 637 25.2389
63.8966 596 24.4131
64.0142 578 24.0416
64.1317 593 24.3516
64.2492 581 24.1039
64.3668 556 23.5797
64.4843 559 23.6432
64.6019 534 23.1084
64.7195 562 23.7065
64.837 587 24.2281
64.9546 530 23.0217
65.0722 552 23.4947
65.1898 583 24.1454
65.3074 522 22.8473
65.4249 507 22.5167
65.5425 489 22.1133
65.6601 494 22.2261
65.7777 507 22.5167
65.8952 458 21.4009
66.0128 483 21.9773
66.1304 554 23.5372
66.2479 549 23.4307
66.3655 557 23.6008
66.483 518 22.7596
66.6005 560 23.6643
66.718 583 24.1454
66.8355 617 24.8395
66.953 548 23.4094
67.0705 568 23.8328
67.1879 558 23.622
67.3054 491 22.1585
67.4228 545 23.3452
67.5402 520 22.8035
67.6576 573 23.9374
67.7749 550 23.4521
67.8923 539 23.2164
68.0096 571 23.8956
68.1269 604 24.5764
68.2442 525 22.9129
68.3614 556 23.5797
68.4787 623 24.96
68.5958 569 23.8537
68.713 581 24.1039
68.8302 619 24.8797
68.9473 614 24.779
69.0643 573 23.9374
69.1814 545 23.3452
69.2984 552 23.4947
69.4154 561 23.6854
69.5323 515 22.6936
69.6492 545 23.3452
69.7661 536 23.1517
69.8829 598 24.454
69.9997 579 24.0624
70.1165 533 23.0868
70.2332 525 22.9129
70.3499 490 22.1359
70.4665 506 22.4944
70.5831 470 21.6795
70.6996 425 20.6155
70.8161 368 19.1833
70.9326 376 19.3907
71.049 337 18.3576
71.1653 327 18.0831
71.2817 312 17.6635
71.3979 292 17.088
71.5141 259 16.0935
71.6303 261 16.1555
71.7464 211 14.5258
71.8624 0 1
71.9784 0 1
72.0944 0 1
72.2102 0 1
72.3261 0 1
72.4418 0 1
72.5575 0 1
72.6732 0 1
75.1054 0 1
75.2209 0 1
75.3365 0 1
75.4521 0 1
75.5678 0 1
75.6835 0 1
75.7993 0 1
75.9151 0 1
76.031 0 1
76.147 366 19.1311
76.263 380 19.4936
76.3791 408 20.199
76.4952 402 20.0499
76.6113 469 21.6564
76.7276 458 21.4009
76.8438 501 22.383
76.9601 483 21.9773
77.0765 510 22.5832
77.1929 492 22.1811
77.3093 448 21.166
77.4258 466 21.587
77.5423 456 21.3542
77.6589 502 22.4054
77.7755 469 21.6564
77.8921 467 21.6102
78.0088 450 21.2132
78.1256 435 20.8567
78.2423 406 20.1494
78.3591 414 20.347
78.4759 433 20.8087
78.5928 418 20.445
78.7097 467 21.6102
78.8266 400 20
78.9436 484 22
79.0606 422 20.5426
79.1776 418 20.445
79.2946 491 22.1585
79.4117 504 22.4499
79.5288 482 21.9545
79.6459 503 22.4277
79.7631 493 22.2036
79.8802 479 21.8861
79.9974 474 21.7715
80.1147 458 21.4009
80.2319 516 22.7156
80.3491 452 21.2603
80.4664 500 22.3607
80.5837 452 21.2603
80.701 466 21.587
80.8183 494 22.2261
80.9357 462 21.4942
81.053 499 22.3383
81.1704 488 22.0907
81.2877 460 21.4476
81.4051 456 21.3542
81.5225 443 21.0476
81.6399 492 22.1811
81.7573 477 21.8403
81.8747 446 21.1187
81.9922 446 21.1187
82.1096 433 20.8087
82.227 457 21.3776
82.3444 428 20.6882
82.4619 427 20.664
82.5793 441 21
82.6967 479 21.8861
82.8142 465 21.5639
82.9316 524 22.891
83.049 492 22.1811
83.1664 515 22.6936
83.2838 535 23.1301
83.4012 533 23.0868
83.5186 475 21.7945
83.636 488 22.0907
83.7534 446 21.1187
83.8708 500 22.3607
83.9881 492 22.1811
84.1055 522 22.8473
84.2228 473 21.7486
84.3401 498 22.3159
84.4575 494 22.2261
84.5747 455 21.3307
84.692 505 22.4722
84.8093 448 21.166
84.9265 468 21.6333
85.0437 500 22.3607
85.1609 474 21.7715
85.2781 446 21.1187
85.3952 439 20.9523
85.5123 422 20.5426
85.6294 443 21.0476
85.7465 497 22.2935
85.8636 497 22.2935
85.9806 425 20.6155
86.0976 468 21.6333
86.2145 426 20.6398
86.3315 486 22.0454
86.4484 491 22.1585
86.5652 482 21.9545
86.682 508 22.5389
86.7988 516 22.7156
86.9156 498 22.3159
87.0323 456 21.3542
87.149 444 21.0713
87.2657 494 22.2261
87.3823 431 20.7605
87.4988 453 21.2838
87.6154 458 21.4009
87.7318 456 21.3542
87.8483 444 21.0713
87.9647 422 20.5426
88.081 371 19.2614
88.1973 353 18.7883
88.3136 322 17.9444
88.4298 280 16.7332
88.546 307 17.5214
88.6621 248 15.748
88.7781 226 15.0333
88.8942 0 1
89.0101 0 1
89.126 0 1
89.2419 0 1
89.3577 0 1
89.4734 0 1
89.5891 0 1
89.7047 0 1
89.8203 0 1
89.9358 0 1
92.3269 0 1
92.4424 0 1
92.558 0 1
92.6736 0 1
92.7893 0 1
92.905 0 1
93.0208 0 1
93.1366 0 1
93.2525 0 1
93.3685 0 1
93.4845 0 1
93.6005 412 20.2978
93.7167 408 20.199
93.8328 443 21.0476
93.949 432 20.7846
94.0653 423 20.567
94.1816 429 20.7123
94.2979 422 20.5426
94.4143 441 21
94.5307 442 21.0238
94.6472 460 21.4476
94.7637 457 21.3776
94.8803 520 22.8035
94.9969 458 21.4009
95.1135 445 21.095
95.2302 444 21.0713
95.3469 474 21.7715
95.4637 530 23.0217
95.5805 456 21.3542
95.6973 479 21.8861
95.8142 490 22.1359
95.9311 536 23.1517
96.048 525 22.9129
96.1649 467 21.6102
96.2819 456 21.3542
96.3989 463 21.5174
96.516 475 21.7945
96.633 460 21.4476
96.7501 495 22.2486
96.8673 530 23.0217
96.9844 468 21.6333
97.1016 534 23.1084
97.2188 465 21.5639
97.336 469 21.6564
97.4532 451 21.2368
97.5704 526 22.9347
97.6877 469 21.6564
97.805 430 20.7364
97.9223 487 22.0681
98.0396 438 20.9284
98.1569 479 21.8861
98.2743 463 21.5174
98.3916 520 22.8035
98.509 495 22.2486
98.6264 536 23.1517
98.7438 476 21.8174
98.8612 471 21.7025
98.9786 517 22.7376
99.096 544 23.3238
99.2134 529 23
99.3308 502 22.4054
99.4482 510 22.5832
99.5656 561 23.6854
99.6831 531 23.0434
99.8005 486 22.0454
99.9179 504 22.4499
100.035 506 22.4944
100.153 520 22.8035
100.27 543 23.3024
100.388 508 22.5389
100.505 546 23.3666
100.622 503 22.4277
100.74 504 22.4499
100.857 500 22.3607
100.975 514 22.6716
101.092 475 21.7945
101.209 490 22.1359
101.327 496 22.2711
101.444 424 20.5913
101.561 470 21.6795
101.679 508 22.5389
101.796 566 23.7908
101.913 557 23.6008
102.03 546 23.3666
102.148 495 22.2486
102.265 546 23.3666
102.382 493 22.2036
102.499 525 22.9129
102.616 523 22.8692
102.733 539 23.2164
102.851 579 24.0624
102.968 514 22.6716
103.085 564 23.7487
103.202 544 23.3238
103.319 530 23.0217
103.436 555 23.5584
103.552 504 22.4499
103.669 514 22.6716
103.786 539 23.2164
103.903 543 23.3024
104.02 545 23.3452
104.137 538 23.1948
104.253 559 23.6432
104.37 511 22.6053
104.487 476 21.8174
104.603 496 22.2711
104.72 479 21.8861
104.836 470 21.6795
104.953 488 22.0907
105.069 405 20.1246
105.186 457 21.3776
105.302 413 20.3224
105.418 398 19.9499
105.535 406 20.1494
105.651 356 18.868
105.767 344 18.5472
105.883 313 17.6918
105.999 269 16.4012
106.115 0 1
106.231 0 1
106.347 0 1
106.463 0 1
106.579 0 1
106.694 0 1
106.81 0 1
106.926 0 1
107.041 0 1
107.157 0 1
109.576 0 1
109.692 0 1
109.807 0 1
109.923 0 1
110.039 0 1
110.155 0 1
110.27 0 1
110.386 0 1
110.502 0 1
110.618 303 17.4069
110.735 368 19.1833
110.851 427 20.664
110.967 392 19.799
111.083 417 20.4206
111.199 446 21.1187
111.316 447 21.1424
111.432 467 21.6102
111.549 475 21.7945
111.665 498 22.3159
111.782 494 22.2261
111.898 508 22.5389
112.015 476 21.8174
112.132 497 22.2935
112.248 449 21.1896
112.365 485 22.0227
112.482 472 21.7256
112.599 499 22.3383
112.716 544 23.3238
112.832 501 22.383
112.949 491 22.1585
113.066 453 21.2838
113.183 426 20.6398
113.3 407 20.1742
113.417 468 21.6333
113.534 429 20.7123
113.652 409 20.2237
113.769 437 20.9045
113.886 384 19.5959
114.003 402 20.0499
114.12 480 21.9089
114.238 459 21.4243
114.355 423 20.567
114.472 425 20.6155
114.589 423 20.567
114.707 439 20.9523
114.824 448 21.166
114.942 494 22.2261
115.059 468 21.6333
115.176 437 20.9045
115.294 467 21.6102
115.411 435 20.8567
115.529 436 20.8806
115.646 430 20.7364
115.764 450 21.2132
115.881 430 20.7364
115.999 465 21.5639
116.116 466 21.587
116.234 445 21.095
116.351 424 20.5913
116.469 400 20
116.586 417 20.4206
116.704 407 20.1742
116.821 419 20.4695
116.939 381 19.5192
117.056 385 19.6214
117.174 378 19.4422
117.291 350 18.7083
117.409 353 18.7883
117.526 355 18.8414
117.644 390 19.7484
117.761 410 20.2485
117.879 426 20.6398
117.996 435 20.8567
118.114 423 20.567
118.231 379 19.4679
118.349 391 19.7737
118.466 386 19.6469
118.584 454 21.3073
118.701 429 20.7123
118.819 428 20.6882
118.936 378 19.4422
119.053 382 19.5448
119.171 434 20.8327
119.288 403 20.0749
119.405 425 20.6155
119.523 438 20.9284
119.64 412 20.2978
119.757 423 20.567
119.875 418 20.445
119.992 418 20.445
120.109 420 20.4939
120.226 387 19.6723
120.343 383 19.5704
120.46 378 19.4422
120.578 358 18.9209
120.695 367 19.1572
120.812 362 19.0263
120.929 341 18.4662
121.046 363 19.0526
121.163 342 18.4932
121.279 323 17.9722
121.396 382 19.5448
121.513 379 19.4679
121.63 374 19.3391
121.747 348 18.6548
121.863 367 19.1572
121.98 344 18.5472
122.097 312 17.6635
122.213 336 18.3303
122.33 331 18.1934
122.446 319 17.8606
122.563 279 16.7033
122.679 267 16.3401
122.795 265 16.2788
122.912 233 15.2643
123.028 222 14.8997
123.144 250 15.8114
123.26 201 14.1774
123.377 0 1
123.493 0 1
123.609 0 1
123.725 0 1
123.84 0 1
123.956 0 1
124.072 0 1
124.188 0 1
124.303 0 1
124.419 0 1
126.852 0 1
126.968 0 1
127.083 0 1
127.199 0 1
127.315 0 1
127.431 0 1
127.547 0 1
127.663 0 1
127.779 0 1
127.895 0 1
128.011 0 1
128.127 0 1
128.243 0 1
128.359 423 20.567
128.476 496 22.2711
128.592 451 21.2368
128.708 440 20.9762
128.825 489 22.1133
128.941 467 21.6102
129.058 486 22.0454
129.174 441 21
129.291 475 21.7945
129.408 462 21.4942
129.524 424 20.5913
129.641 465 21.5639
129.758 461 21.4709
129.875 390 19.7484
129.992 366 19.1311
130.108 407 20.1742
130.225 411 20.2731
130.342 450 21.2132
130.459 453 21.2838
130.576 500 22.3607
130.693 499 22.3383
130.81 501 22.383
130.928 521 22.8254
131.045 530 23.0217
131.162 532 23.0651
131.279 600 24.4949
131.396 570 23.8747
131.513 579 24.0624
131.631 599 24.4745
131.748 568 23.8328
131.865 628 25.0599
131.983 694 26.3439
132.1 669 25.865
132.217 679 26.0576
132.335 719 26.8142
132.452 791 28.1247
132.57 801 28.3019
132.687 787 28.0535
132.804 810 28.4605
132.922 788 28.0713
133.039 811 28.4781
133.157 903 30.05
133.274 928 30.4631
133.392 938 30.6268
133.509 856 29.2575
133.627 863 29.3769
133.744 1011 31.7962
133.862 898 29.9666
133.979 1003 31.6702
134.097 1041 32.2645
134.214 1051 32.4191
134.332 1039 32.2335
134.449 1137 33.7194
134.567 1076 32.8024
134.684 1049 32.3883
134.802 1082 32.8938
134.919 1082 32.8938
135.037 1119 33.4515
135.154 1079 32.8481
135.272 1097 33.121
135.389 1109 33.3017
135.507 1219 34.9142
135.624 1281 35.7911
135.742 1298 36.0278
135.859 1283 35.819
135.977 1281 35.7911
136.094 1289 35.9026
136.211 1233 35.1141
136.329 1292 35.9444
136.446 1260 35.4965
136.564 1271 35.6511
136.681 1277 35.7351
136.798 1337 36.565
136.915 1252 35.3836
137.033 1266 35.5809
137.15 1209 34.7707
137.267 1202 34.6699
137.384 1205 34.7131
137.502 1272 35.6651
137.619 1184 34.4093
137.736 1234 35.1283
137.853 1234 35.1283
137.97 1278 35.7491
138.087 1264 35.5528
138.204 1253 35.3977
138.321 1192 34.5254
138.438 1206 34.7275
138.555 1210 34.7851
138.672 1273 35.6791
138.788 1242 35.242
138.905 1261 35.5106
139.022 1224 34.9857
139.139 1256 35.4401
139.255 1250 35.3553
139.372 1208 34.7563
139.488 1189 34.4819
139.605 1004 31.686
139.721 965 31.0644
139.838 940 30.6594
139.954 890 29.8329
140.071 842 29.0172
140.187 784 28
140.303 769 27.7308
140.419 748 27.3496
140.535 705 26.5518
140.652 736 27.1293
140.768 0 1
140.884 0 1
141 0 1
141.115 0 1
141.231 0 1
141.347 0 1
141.463 0 1
141.578 0 1
141.694 0 1
144.104 0 1
144.219 0 1
144.335 0 1
144.45 0 1
144.566 0 1
144.682 0 1
144.798 0 1
144.914 0 1
145.03 0 1
145.146 1029 32.078
145.262 1102 33.1964
145.378 1099 33.1512
145.494 1064 32.619
145.61 1110 33.3167
145.726 1110 33.3167
145.842 1053 32.45
145.959 1050 32.4037
146.075 1065 32.6343
146.192 1057 32.5115
146.308 1078 32.8329
146.425 1108 33.2866
146.541 1090 33.0151
146.658 1091 33.0303
146.774 1146 33.8526
146.891 1145 33.8378
147.008 1154 33.9706
147.125 1104 33.2265
147.241 1148 33.8821
147.358 1091 33.0303
147.475 1072 32.7414
147.592 1046 32.3419
147.709 1027 32.0468
147.826 1070 32.7109
147.943 1058 32.5269
148.06 995 31.5436
148.177 1097 33.121
148.294 1094 33.0757
148.411 1112 33.3467
148.528 1020 31.9374
148.645 1086 32.9545
148.762 1046 32.3419
148.88 1091 33.0303
148.997 1063 32.6037
149.114 1003 31.6702
149.231 951 30.8383
149.349 1111 33.3317
149.466 1004 31.686
149.583 1044 32.311
149.701 1011 31.7962
149.818 972 31.1769
149.935 939 30.6431
150.053 1014 31.8434
150.17 987 31.4166
150.287 969 31.1288
150.405 1020 31.9374
150.522 1035 32.1714
150.64 1068 32.6803
150.757 946 30.7571
150.875 989 31.4484
150.992 1030 32.0936
151.11 951 30.8383
151.227 909 30.1496
151.344 890 29.8329
151.462 872 29.5296
151.579 950 30.8221
151.697 973 31.1929
151.814 1026 32.0312
151.932 972 31.1769
152.049 1016 31.8748
152.167 1033 32.1403
152.284 975 31.225
152.402 994 31.5278
152.519 1023 31.9844
152.636 1000 31.6228
152.754 1059 32.5423
152.871 1034 32.1559
152.989 1021 31.9531
153.106 1027 32.0468
153.223 1053 32.45
153.341 969 31.1288
153.458 947 30.7734
153.575 884 29.7321
153.693 926 30.4302
153.81 927 30.4467
153.927 967 31.0966
154.044 942 30.692
154.162 924 30.3974
154.279 905 30.0832
154.396 913 30.2159
154.513 920 30.3315
154.63 900 30
154.747 869 29.4788
154.864 844 29.0517
154.981 820 28.6356
155.098 840 28.9828
155.215 828 28.775
155.332 819 28.6182
155.449 934 30.5614
155.566 870 29.4958
155.683 875 29.5804
155.8 842 29.0172
155.917 892 29.8664
156.033 881 29.6816
156.15 0 1
156.267 0 1
156.383 0 1
156.5 0 1
156.617 0 1
156.733 0 1
156.85 0 1
156.966 0 1
157.082 0 1
157.199 0 1
157.315 0 1
157.431 0 1
157.547 0 1
157.664 0 1
157.78 0 1
157.896 0 1
158.012 0 1
158.128 0 1
158.244 0 1
158.359 0 1
158.475 0 1
158.591 0 1
158.706 0 1
