
6.15755 0 1
6.2731 0 1
6.3887 0 1
6.50437 0 1
6.62009 0 1
6.73587 0 1
6.8517 0 1
6.96759 0 1
7.08353 0 1
7.19952 0 1
7.31557 0 1
7.43166 0 1
7.54781 0 1
7.664 0 1
7.78024 0 1
7.89653 0 1
8.01286 0 1
8.12924 0 1
8.24567 0 1
8.36213 0 1
8.47864 0 1
8.59519 0 1
8.71178 0 1
8.82841 0 1
8.94508 0 1
9.06179 0 1
9.17853 0 1
9.29531 0 1
9.41212 0 1
9.52897 0 1
9.64584 0 1
9.76276 0 1
9.8797 0 1
9.99667 0 1
10.1137 0 1
10.2307 0 1
10.3478 0 1
10.4648 0 1
10.5819 0 1
10.6991 0 1
10.8162 0 1
10.9334 0 1
11.0506 0 1
11.1678 0 1
11.285 0 1
11.4023 0 1
11.5196 0 1
11.6369 0 1
11.7542 0 1
11.8715 0 1
11.9888 0 1
12.1062 0 1
12.2235 0 1
12.3409 0 1
12.4582 0 1
12.5756 0 1
12.693 0 1
12.8104 0 1
12.9278 0 1
13.0452 0 1
13.1626 0 1
13.28 0 1
13.3974 0 1
13.5149 0 1
13.6323 0 1
13.7497 0 1
13.8671 0 1
13.9845 0 1
14.1019 0 1
14.2193 0 1
14.3367 0 1
14.4541 0 1
14.5714 0 1
14.6888 0 1
14.8062 0 1
14.9235 0 1
15.0408 2126 46.1086
15.1581 2204 46.9468
15.2755 2339 48.3632
15.3927 2374 48.7237
15.51 2413 49.1223
15.6273 2362 48.6004
15.7445 2389 48.8774
15.8617 2253 47.4658
15.9789 2228 47.2017
16.0961 2108 45.913
16.2132 2066 45.4533
16.3304 2072 45.5192
16.4475 2127 46.1194
16.5646 2043 45.1996
16.6816 2135 46.2061
16.7986 2141 46.2709
16.9156 2142 46.2817
17.0326 2067 45.4643
17.1496 1997 44.6878
17.2665 2008 44.8107
17.3833 2056 45.3431
17.5002 2055 45.3321
17.617 1957 44.238
17.7338 2122 46.0652
17.8505 2120 46.0435
17.9672 2031 45.0666
18.0839 2124 46.0869
18.2005 2202 46.9255
18.3171 2210 47.0106
18.4337 2224 47.1593
18.5502 2348 48.4562
18.6666 2301 47.9687
18.7831 2351 48.4871
18.8994 2329 48.2597
19.0158 2147 46.3357
19.1321 2057 45.3542
19.2483 1951 44.1701
19.3645 1796 42.3792
19.4806 1723 41.509
19.5967 1557 39.4588
19.7128 1372 37.0405
19.8288 1296 36
19.9447 1187 34.4529
20.0606 0 1
20.1764 0 1
20.2922 0 1
20.4079 0 1
20.5236 0 1
20.6392 0 1
20.7548 0 1
20.8702 0 1
23.3078 0 1
23.4233 0 1
23.539 0 1
23.6547 0 1
23.7704 0 1
23.8862 0 1
24.0021 0 1
24.118 0 1
24.234 0 1
24.35 0 1
24.4661 957 30.9354
24.5822 1025 32.0156
24.6984 1088 32.9848
24.8146 1173 34.2491
24.9309 1278 35.7491
25.0472 1401 37.4299
25.1636 1536 39.1918
25.28 1606 40.0749
25.3965 1772 42.0951
25.513 1837 42.8602
25.6296 2049 45.2659
25.7462 2147 46.3357
25.8628 2244 47.3709
25.9795 2290 47.8539
26.0962 2240 47.3286
26.213 2303 47.9896
26.3298 2273 47.676
26.4466 2178 46.669
26.5635 2106 45.8912
26.6804 2041 45.1774
26.7973 2125 46.0977
26.9143 2254 47.4763
27.0313 2176 46.6476
27.1483 2154 46.4112
27.2653 2249 47.4236
27.3824 2219 47.1063
27.4996 2236 47.2864
27.6167 2135 46.2061
27.7339 2157 46.4435
27.8511 2035 45.111
27.9683 2038 45.1442
28.0855 1931 43.9431
28.2028 1834 42.8252
28.3201 1886 43.4281
28.4374 1661 40.7554
28.5547 1658 40.7185
28.6721 1726 41.5452
28.7894 1801 42.4382
28.9068 1919 43.8064
29.0242 1999 44.7102
29.1416 2016 44.8999
29.259 2014 44.8776
29.3764 2125 46.0977
29.4939 2048 45.2548
29.6113 2014 44.8776
29.7288 2027 45.0222
29.8463 2035 45.111
29.9638 2051 45.288
30.0812 1979 44.486
30.1987 1974 44.4297
30.3162 2036 45.1221
30.4337 2012 44.8553
30.5512 2122 46.0652
30.6687 2089 45.7056
30.7862 2201 46.9148
30.9037 2151 46.3789
31.0212 2103 45.8585
31.1387 2048 45.2548
31.2562 2073 45.5302
31.3737 2014 44.8776
31.4912 1994 44.6542
31.6087 1971 44.3959
31.7262 1878 43.3359
31.8436 1672 40.8901
31.9611 1643 40.5339
32.0785 1671 40.8779
32.1959 1740 41.7133
32.3134 1778 42.1663
32.4308 1861 43.1393
32.5482 1938 44.0227
32.6655 2023 44.9778
32.7829 1987 44.5758
32.9002 2013 44.8665
33.0176 1978 44.4747
33.1349 2029 45.0444
33.2522 2019 44.9333
33.3694 2050 45.2769
33.4867 2030 45.0555
33.6039 1998 44.699
33.7211 1955 44.2154
33.8383 1955 44.2154
33.9554 1953 44.1928
34.0725 2093 45.7493
34.1896 2168 46.5618
34.3067 2087 45.6837
34.4237 2063 45.4203
34.5407 2210 47.0106
34.6577 2221 47.1275
34.7746 2102 45.8476
34.8915 2065 45.4423
35.0084 1996 44.6766
35.1252 2024 44.9889
35.242 1952 44.1814
35.3587 1890 43.4741
35.4755 1833 42.8135
35.5921 1699 41.2189
35.7088 1572 39.6485
35.8254 1599 39.9875
35.9419 1626 40.3237
36.0584 1733 41.6293
36.1749 1835 42.8369
36.2913 1761 41.9643
36.4077 1771 42.0833
36.524 1720 41.4729
36.6403 1819 42.6497
36.7565 1798 42.4028
36.8727 1686 41.0609
36.9889 1649 40.6079
37.1049 1492 38.6264
37.221 0 1
37.3369 0 1
37.4529 0 1
37.5687 0 1
37.6845 0 1
37.8003 0 1
37.916 0 1
38.0316 0 1
38.1472 0 1
40.5851 0 1
40.7008 0 1
40.8164 0 1
40.9322 0 1
41.048 0 1
41.1639 0 1
41.2798 0 1
41.3958 0 1
41.5118 0 1
41.6279 0 1
41.744 954 30.8869
41.8602 1019 31.9218
41.9765 1160 34.0588
42.0928 1173 34.2491
42.2091 1268 35.609
42.3255 1268 35.609
42.4419 1404 37.47
42.5584 1424 37.7359
42.675 1508 38.833
42.7915 1617 40.2119
42.9081 1830 42.7785
43.0248 1811 42.5558
43.1415 1819 42.6497
43.2582 1837 42.8602
43.375 1894 43.5201
43.4918 1987 44.5758
43.6087 1953 44.1928
43.7256 1900 43.589
43.8425 1901 43.6005
43.9595 1828 42.7551
44.0765 1930 43.9318
44.1935 1776 42.1426
44.3106 1700 41.2311
44.4277 1599 39.9875
44.5448 1471 38.3536
44.6619 1509 38.8458
44.7791 1537 39.2046
44.8963 1650 40.6202
45.0136 1734 41.6413
45.1308 1821 42.6732
45.2481 1896 43.5431
45.3654 1860 43.1277
45.4827 1800 42.4264
45.6001 1914 43.7493
45.7174 1914 43.7493
45.8348 1933 43.9659
45.9522 1931 43.9431
46.0697 1853 43.0465
46.1871 1862 43.1509
46.3046 1858 43.1045
46.422 1943 44.0795
46.5395 1991 44.6206
46.657 2037 45.1331
46.7745 2110 45.9347
46.892 2169 46.5725
47.0096 2220 47.1169
47.1271 2133 46.1844
47.2446 2121 46.0543
47.3622 2142 46.2817
47.4797 2144 46.3033
47.5973 2094 45.7602
47.7149 1926 43.8862
47.8324 1932 43.9545
47.95 1741 41.7253
48.0675 1616 40.1995
48.1851 1592 39.8999
48.3027 1680 40.9878
48.4202 1816 42.6146
48.5378 2013 44.8665
48.6554 2013 44.8665
48.7729 2005 44.7772
48.8904 2138 46.2385
49.008 2058 45.3652
49.1255 2046 45.2327
49.243 2067 45.4643
49.3605 2007 44.7996
49.478 1987 44.5758
49.5955 2019 44.9333
49.713 2046 45.2327
49.8304 2076 45.5631
49.9479 2178 46.669
50.0653 2180 46.6905
50.1827 2321 48.1768
50.3001 2279 47.7389
50.4175 2466 49.6588
50.5348 2359 48.5695
50.6521 2371 48.6929
50.7694 2474 49.7393
50.8867 2432 49.3153
51.004 2319 48.156
51.1212 2327 48.239
51.2384 2169 46.5725
51.3556 2116 46
51.4727 1954 44.2041
51.5899 1812 42.5676
51.707 1876 43.3128
51.824 1942 44.0681
51.9411 2088 45.6946
52.0581 2183 46.7226
52.175 2237 47.2969
52.2919 2304 48
52.4088 2363 48.6107
52.5257 2265 47.592
52.6425 2267 47.613
52.7593 2267 47.613
52.876 2240 47.3286
52.9927 2303 47.9896
53.1094 2345 48.4252
53.226 2278 47.7284
53.3426 2147 46.3357
53.4591 2217 47.085
53.5756 2264 47.5815
53.692 2359 48.5695
53.8084 2328 48.2494
53.9248 2226 47.1805
54.0411 2105 45.8803
54.1573 2012 44.8553
54.2735 0 1
54.3896 0 1
54.5057 0 1
54.6217 0 1
54.7377 0 1
54.8537 0 1
54.9695 0 1
55.0853 0 1
55.2011 0 1
55.3168 0 1
55.4324 0 1
57.824 0 1
57.9396 0 1
58.0553 0 1
58.1711 0 1
58.2869 0 1
58.4028 0 1
58.5187 0 1
58.6347 0 1
58.7508 0 1
58.8669 0 1
58.983 1724 41.5211
59.0992 2127 46.1194
59.2155 2369 48.6724
59.3318 2629 51.2738
59.4482 2817 53.0754
59.5646 2954 54.3507
59.681 3204 56.6039
59.7975 3282 57.2887
59.9141 3293 57.3847
60.0306 3249 57
60.1473 3094 55.6237
60.2639 2971 54.5069
60.3807 2856 53.4416
60.4974 2964 54.4426
60.6142 3155 56.1694
60.731 3396 58.2752
60.8479 3591 59.925
60.9648 3744 61.1882
61.0818 3813 61.7495
61.1987 3841 61.9758
61.3158 3938 62.7535
61.4328 3875 62.2495
61.5499 3947 62.8252
61.667 3811 61.7333
61.7841 3807 61.7009
61.9013 3715 60.9508
62.0185 3781 61.4898
62.1357 3797 61.6198
62.253 3864 62.1611
62.3702 4050 63.6396
62.4875 4183 64.6761
62.6049 4177 64.6297
62.7222 4359 66.0227
62.8396 4490 67.0075
62.9569 4503 67.1044
63.0743 4353 65.9773
63.1918 4251 65.1997
63.3092 4206 64.8537
63.4267 3954 62.8808
63.5441 3890 62.3699
63.6616 3646 60.3821
63.7791 3229 56.8243
63.8966 3088 55.5698
64.0142 3243 56.9473
64.1317 3337 57.7668
64.2492 3742 61.1719
64.3668 4014 63.3561
64.4843 4130 64.2651
64.6019 4135 64.304
64.7195 4115 64.1483
64.837 4206 64.8537
64.9546 4156 64.467
65.0722 4174 64.6065
65.1898 4118 64.1716
65.3074 4096 64
65.4249 4022 63.4192
65.5425 3938 62.7535
65.6601 4099 64.0234
65.7777 4132 64.2806
65.8952 4251 65.1997
66.0128 4388 66.242
66.1304 4436 66.6033
66.2479 4558 67.513
66.3655 4615 67.9338
66.483 4599 67.8159
66.6005 4673 68.3593
66.718 4455 66.7458
66.8355 4549 67.4463
66.953 4289 65.4905
67.0705 4090 63.9531
67.1879 3844 62
67.3054 3389 58.2151
67.4228 3168 56.285
67.5402 3114 55.8032
67.6576 3222 56.7627
67.7749 3480 58.9915
67.8923 3834 61.9193
68.0096 4007 63.3009
68.1269 4244 65.146
68.2442 4269 65.3376
68.3614 4284 65.4523
68.4787 4263 65.2917
68.5958 4251 65.1997
68.713 4302 65.5896
68.8302 4344 65.909
68.9473 4140 64.3428
69.0643 4212 64.8999
69.1814 4077 63.8514
69.2984 4075 63.8357
69.4154 4159 64.4903
69.5323 4168 64.56
69.6492 4266 65.3146
69.7661 4405 66.3702
69.8829 4357 66.0076
69.9997 4393 66.2797
70.1165 4203 64.8305
70.2332 4195 64.7688
70.3499 4109 64.1015
70.4665 4066 63.7652
70.5831 3849 62.0403
70.6996 3451 58.7452
70.8161 3130 55.9464
70.9326 2742 52.3641
71.049 2230 47.2229
71.1653 1861 43.1393
71.2817 1705 41.2916
71.3979 1526 39.064
71.5141 1638 40.4722
71.6303 1594 39.9249
71.7464 1411 37.5633
71.8624 0 1
71.9784 0 1
72.0944 0 1
72.2102 0 1
72.3261 0 1
72.4418 0 1
72.5575 0 1
72.6732 0 1
75.1054 0 1
75.2209 0 1
75.3365 0 1
75.4521 0 1
75.5678 0 1
75.6835 0 1
75.7993 0 1
75.9151 0 1
76.031 0 1
76.147 2175 46.6369
76.263 2229 47.2123
76.3791 2160 46.4758
76.4952 2171 46.594
76.6113 2399 48.9796
76.7276 2639 51.3712
76.8438 3073 55.4346
76.9601 3409 58.3866
77.0765 3564 59.6992
77.1929 3697 60.803
77.3093 3722 61.0082
77.4258 3869 62.2013
77.5423 3773 61.4248
77.6589 3782 61.498
77.7755 3850 62.0484
77.8921 3683 60.6877
78.0088 3722 61.0082
78.1256 3650 60.4152
78.2423 3620 60.1664
78.3591 3560 59.6657
78.4759 3655 60.4566
78.5928 3715 60.9508
78.7097 3843 61.9919
78.8266 3880 62.2896
78.9436 4005 63.2851
79.0606 4049 63.6318
79.1776 4240 65.1153
79.2946 4150 64.4205
79.4117 4169 64.5678
79.5288 4063 63.7417
79.6459 4123 64.2106
79.7631 3674 60.6135
79.8802 3381 58.1464
79.9974 2994 54.7175
80.1147 2712 52.0769
80.2319 2637 51.3517
80.3491 2996 54.7357
80.4664 3207 56.6304
80.5837 3563 59.6909
80.701 3719 60.9836
80.8183 3805 61.6847
80.9357 3858 62.1128
81.053 3918 62.5939
81.1704 3998 63.2297
81.2877 3884 62.3217
81.4051 3961 62.9365
81.5225 4037 63.5374
81.6399 3909 62.522
81.7573 3899 62.442
81.8747 3811 61.7333
81.9922 3645 60.3738
82.1096 3781 61.4898
82.227 3941 62.7774
82.3444 4009 63.3167
82.4619 4141 64.3506
82.5793 4179 64.6452
82.6967 4298 65.5591
82.8142 4360 66.0303
82.9316 4417 66.4605
83.049 4417 66.4605
83.1664 4310 65.6506
83.2838 4116 64.1561
83.4012 3828 61.8708
83.5186 3612 60.0999
83.636 3202 56.5862
83.7534 2738 52.3259
83.8708 2592 50.9117
83.9881 2953 54.3415
84.1055 3179 56.3826
84.2228 3626 60.2163
84.3401 3828 61.8708
84.4575 3991 63.1744
84.5747 4178 64.6375
84.692 4106 64.0781
84.8093 4232 65.0538
84.9265 4051 63.6475
85.0437 4115 64.1483
85.1609 3989 63.1585
85.2781 3906 62.498
85.3952 3878 62.2736
85.5123 3828 61.8708
85.6294 4072 63.8122
85.7465 3855 62.0886
85.8636 4011 63.3325
85.9806 4214 64.9153
86.0976 4263 65.2917
86.2145 4335 65.8407
86.3315 4539 67.3721
86.4484 4241 65.123
86.5652 4309 65.643
86.682 4330 65.8027
86.7988 4112 64.1249
86.9156 3955 62.8888
87.0323 3715 60.9508
87.149 3547 59.5567
87.2657 2982 54.6077
87.3823 2718 52.1344
87.4988 2796 52.8772
87.6154 2884 53.7029
87.7318 3278 57.2538
87.8483 3466 58.8727
87.9647 3565 59.7076
88.081 3537 59.4727
88.1973 3508 59.2284
88.3136 3331 57.7148
88.4298 3091 55.5968
88.546 2781 52.7352
88.6621 2279 47.7389
88.7781 2025 45
88.8942 0 1
89.0101 0 1
89.126 0 1
89.2419 0 1
89.3577 0 1
89.4734 0 1
89.5891 0 1
89.7047 0 1
89.8203 0 1
89.9358 0 1
92.3269 0 1
92.4424 0 1
92.558 0 1
92.6736 0 1
92.7893 0 1
92.905 0 1
93.0208 0 1
93.1366 0 1
93.2525 0 1
93.3685 0 1
93.4845 0 1
93.6005 2885 53.7122
93.7167 3186 56.4447
93.8328 3330 57.7062
93.949 3709 60.9016
94.0653 3789 61.5549
94.1816 4009 63.3167
94.2979 4056 63.6867
94.4143 4154 64.4515
94.5307 3989 63.1585
94.6472 4028 63.4665
94.7637 4148 64.405
94.8803 4131 64.2729
94.9969 4331 65.8103
95.1135 4224 64.9923
95.2302 4511 67.164
95.3469 4549 67.4463
95.4637 4667 68.3154
95.5805 4515 67.1937
95.6973 4752 68.9348
95.8142 4542 67.3944
95.9311 4266 65.3146
96.048 4248 65.1767
96.1649 3953 62.8729
96.2819 3532 59.4306
96.3989 3251 57.0175
96.516 3109 55.7584
96.633 3067 55.3805
96.7501 3474 58.9406
96.8673 3627 60.2246
96.9844 3973 63.0317
97.1016 4156 64.467
97.2188 4343 65.9014
97.336 4313 65.6734
97.4532 4422 66.4981
97.5704 4311 65.6582
97.6877 4203 64.8305
97.805 4120 64.1872
97.9223 4109 64.1015
98.0396 3961 62.9365
98.1569 3894 62.4019
98.2743 3994 63.1981
98.3916 4095 63.9922
98.509 4191 64.7379
98.6264 4288 65.4828
98.7438 4455 66.7458
98.8612 4488 66.9925
98.9786 4594 67.7791
99.096 4834 69.527
99.2134 4689 68.4763
99.3308 4563 67.55
99.4482 4690 68.4836
99.5656 4346 65.9242
99.6831 4198 64.792
99.8005 3956 62.8967
99.9179 3579 59.8247
100.035 3460 58.8218
100.153 3536 59.4643
100.27 3707 60.8851
100.388 3829 61.8789
100.505 4046 63.6082
100.622 4231 65.0461
100.74 4379 66.174
100.857 4439 66.6258
100.975 4377 66.1589
101.092 4326 65.7723
101.209 4421 66.4906
101.327 4337 65.8559
101.444 4239 65.1076
101.561 4088 63.9375
101.679 3996 63.2139
101.796 4131 64.2729
101.913 4178 64.6375
102.03 4216 64.9307
102.148 4380 66.1816
102.265 4569 67.5944
102.382 4593 67.7717
102.499 4792 69.2243
102.616 4897 69.9786
102.733 4825 69.4622
102.851 4816 69.3974
102.968 4746 68.8912
103.085 4591 67.7569
103.202 4301 65.582
103.319 4024 63.435
103.436 3715 60.9508
103.552 3553 59.607
103.669 3422 58.4979
103.786 3721 61
103.903 3805 61.6847
104.02 4055 63.6789
104.137 4261 65.2763
104.253 4402 66.3476
104.37 4309 65.643
104.487 4412 66.4229
104.603 4378 66.1665
104.72 4278 65.4064
104.836 4008 63.3088
104.953 3912 62.546
105.069 3748 61.2209
105.186 3620 60.1664
105.302 3501 59.1692
105.418 3536 59.4643
105.535 3395 58.2666
105.651 3278 57.2538
105.767 3074 55.4437
105.883 2906 53.9073
105.999 2537 50.3686
106.115 0 1
106.231 0 1
106.347 0 1
106.463 0 1
106.579 0 1
106.694 0 1
106.81 0 1
106.926 0 1
107.041 0 1
107.157 0 1
109.576 0 1
109.692 0 1
109.807 0 1
109.923 0 1
110.039 0 1
110.155 0 1
110.27 0 1
110.386 0 1
110.502 0 1
110.618 2024 44.9889
110.735 2468 49.679
110.851 2868 53.5537
110.967 3071 55.4166
111.083 3388 58.2065
111.199 3778 61.4654
111.316 4010 63.3246
111.432 3953 62.8729
111.549 4259 65.261
111.665 4152 64.436
111.782 4085 63.914
111.898 3902 62.466
112.015 3709 60.9016
112.132 3278 57.2538
112.248 3099 55.6687
112.365 3074 55.4437
112.482 3355 57.9224
112.599 3664 60.531
112.716 3826 61.8547
112.832 3971 63.0159
112.949 3948 62.8331
113.066 3952 62.8649
113.183 4004 63.2772
113.3 3925 62.6498
113.417 3826 61.8547
113.534 3870 62.2093
113.652 3619 60.1581
113.769 3609 60.075
113.886 3520 59.3296
114.003 3455 58.7792
114.12 3640 60.3324
114.238 3803 61.6685
114.355 3987 63.1427
114.472 3908 62.514
114.589 4109 64.1015
114.707 4389 66.2495
114.824 4175 64.6142
114.942 4179 64.6452
115.059 4273 65.3682
115.176 4133 64.2884
115.294 3887 62.3458
115.411 3892 62.3859
115.529 3691 60.7536
115.646 3479 58.983
115.764 3193 56.5066
115.881 3095 55.6327
115.999 3244 56.9561
116.116 3514 59.279
116.234 3733 61.0983
116.351 3798 61.6279
116.469 3725 61.0328
116.586 3850 62.0484
116.704 3859 62.1208
116.821 3802 61.6604
116.939 3758 61.3025
117.056 3679 60.6548
117.174 3509 59.2368
117.291 3509 59.2368
117.409 3393 58.2495
117.526 3444 58.6856
117.644 3522 59.3464
117.761 3720 60.9918
117.879 3896 62.4179
117.996 3761 61.327
118.114 4046 63.6082
118.231 3934 62.7216
118.349 3949 62.8411
118.466 4057 63.6946
118.584 4006 63.293
118.701 4031 63.4902
118.819 3982 63.1031
118.936 3741 61.1637
119.053 3579 59.8247
119.171 3415 58.438
119.288 3063 55.3444
119.405 2984 54.626
119.523 2990 54.6809
119.64 3222 56.7627
119.757 3388 58.2065
119.875 3498 59.1439
119.992 3524 59.3633
120.109 3544 59.5315
120.226 3583 59.8582
120.343 3593 59.9416
120.46 3524 59.3633
120.578 3487 59.0508
120.695 3358 57.9483
120.812 3367 58.0259
120.929 3159 56.205
121.046 3215 56.701
121.163 3120 55.857
121.279 3089 55.5788
121.396 3468 58.8897
121.513 3234 56.8683
121.63 3502 59.1777
121.747 3393 58.2495
121.863 3397 58.2838
121.98 3324 57.6541
122.097 3436 58.6174
122.213 3239 56.9122
122.33 3159 56.205
122.446 3040 55.1362
122.563 2938 54.2033
122.679 2531 50.309
122.795 2228 47.2017
122.912 1954 44.2041
123.028 1787 42.2729
123.144 1580 39.7492
123.26 1496 38.6782
123.377 0 1
123.493 0 1
123.609 0 1
123.725 0 1
123.84 0 1
123.956 0 1
124.072 0 1
124.188 0 1
124.303 0 1
124.419 0 1
126.852 0 1
126.968 0 1
127.083 0 1
127.199 0 1
127.315 0 1
127.431 0 1
127.547 0 1
127.663 0 1
127.779 0 1
127.895 0 1
128.011 0 1
128.127 0 1
128.243 0 1
128.359 3318 57.6021
128.476 3288 57.3411
128.592 3308 57.5152
128.708 3520 59.3296
128.825 3612 60.0999
128.941 3919 62.6019
129.058 4025 63.4429
129.174 3982 63.1031
129.291 3981 63.0952
129.408 3851 62.0564
129.524 4128 64.2495
129.641 3872 62.2254
129.758 3760 61.3188
129.875 3569 59.7411
129.992 3611 60.0916
130.108 3524 59.3633
130.225 3581 59.8415
130.342 3586 59.8832
130.459 3787 61.5386
130.576 4006 63.293
130.693 4006 63.293
130.81 4121 64.195
130.928 4114 64.1405
131.045 4225 65
131.162 4050 63.6396
131.279 4112 64.1249
131.396 4140 64.3428
131.513 4173 64.5988
131.631 4097 64.0078
131.748 3908 62.514
131.865 3818 61.79
131.983 3430 58.5662
132.1 3402 58.3267
132.217 3586 59.8832
132.335 3798 61.6279
132.452 3867 62.1852
132.57 4010 63.3246
132.687 3896 62.4179
132.804 4122 64.2028
132.922 3981 63.0952
133.039 3954 62.8808
133.157 3973 63.0317
133.274 3904 62.482
133.392 3659 60.4897
133.509 3539 59.4895
133.627 3448 58.7197
133.744 3542 59.5147
133.862 3712 60.9262
133.979 3890 62.3699
134.097 4016 63.3719
134.214 4143 64.3661
134.332 4044 63.5925
134.449 4095 63.9922
134.567 4142 64.3584
134.684 4300 65.5744
134.802 4100 64.0312
134.919 4222 64.9769
135.037 4146 64.3894
135.154 3990 63.1664
135.272 3922 62.6259
135.389 3700 60.8276
135.507 3585 59.8749
135.624 3542 59.5147
135.742 3434 58.6003
135.859 3656 60.4649
135.977 3793 61.5873
136.094 3959 62.9206
136.211 3887 62.3458
136.329 3874 62.2415
136.446 3937 62.7455
136.564 3968 62.9921
136.681 3989 63.1585
136.798 3844 62
136.915 3768 61.384
137.033 3620 60.1664
137.15 3537 59.4727
137.267 3492 59.0931
137.384 3494 59.1101
137.502 3501 59.1692
137.619 3772 61.4166
137.736 3867 62.1852
137.853 3771 61.4085
137.97 3944 62.8013
138.087 3925 62.6498
138.204 3966 62.9762
138.321 3945 62.8092
138.438 3866 62.1772
138.555 4064 63.7495
138.672 3851 62.0564
138.788 3696 60.7947
138.905 3512 59.2621
139.022 3289 57.3498
139.139 3053 55.254
139.255 3012 54.8817
139.372 2852 53.4041
139.488 2914 53.9815
139.605 2905 53.8981
139.721 2920 54.037
139.838 2709 52.0481
139.954 2495 49.95
140.071 2311 48.0729
140.187 2278 47.7284
140.303 2050 45.2769
140.419 1846 42.9651
140.535 1789 42.2966
140.652 1604 40.05
140.768 0 1
140.884 0 1
141 0 1
141.115 0 1
141.231 0 1
141.347 0 1
141.463 0 1
141.578 0 1
141.694 0 1
144.104 0 1
144.219 0 1
144.335 0 1
144.45 0 1
144.566 0 1
144.682 0 1
144.798 0 1
144.914 0 1
145.03 0 1
145.146 2810 53.0094
145.262 2909 53.9351
145.378 3052 55.2449
145.494 2997 54.7449
145.61 2964 54.4426
145.726 2910 53.9444
145.842 2674 51.7107
145.959 2633 51.3128
146.075 2712 52.0769
146.192 2754 52.4786
146.308 2778 52.7067
146.425 2880 53.6656
146.541 2934 54.1664
146.658 3005 54.8179
146.774 3017 54.9272
146.891 3028 55.0273
147.008 3042 55.1543
147.125 3039 55.1271
147.241 3060 55.3173
147.358 3156 56.1783
147.475 3077 55.4707
147.592 3039 55.1271
147.709 2928 54.111
147.826 2810 53.0094
147.943 2698 51.9423
148.06 2591 50.9019
148.177 2595 50.9411
148.294 2856 53.4416
148.411 2979 54.5802
148.528 2993 54.7083
148.645 2960 54.4059
148.762 3090 55.5878
148.88 2973 54.5252
148.997 2951 54.3231
149.114 2960 54.4059
149.231 3000 54.7723
149.349 3016 54.9181
149.466 2731 52.259
149.583 2741 52.3546
149.701 2639 51.3712
149.818 2616 51.1468
149.935 2647 51.449
150.053 2743 52.3737
150.17 2809 53
150.287 2887 53.7308
150.405 2896 53.8145
150.522 2966 54.461
150.64 2991 54.69
150.757 2905 53.8981
150.875 3036 55.0999
150.992 2990 54.6809
151.11 2989 54.6717
151.227 2891 53.768
151.344 2922 54.0555
151.462 2902 53.8702
151.579 2664 51.614
151.697 2646 51.4393
151.814 2690 51.8652
151.932 2776 52.6878
152.049 2777 52.6972
152.167 2843 53.3198
152.284 2935 54.1756
152.402 2876 53.6284
152.519 2837 53.2635
152.636 2890 53.7587
152.754 2927 54.1018
152.871 2712 52.0769
152.989 2697 51.9326
153.106 2538 50.3786
153.223 2539 50.3885
153.341 2503 50.03
153.458 2448 49.4773
153.575 2636 51.342
153.693 2612 51.1077
153.81 2782 52.7447
153.927 2678 51.7494
154.044 2720 52.1536
154.162 2759 52.5262
154.279 2794 52.8583
154.396 2867 53.5444
154.513 2905 53.8981
154.63 2924 54.074
154.747 2884 53.7029
154.864 2715 52.1057
154.981 2678 51.7494
155.098 2633 51.3128
155.215 2485 49.8498
155.332 2400 48.9898
155.449 2461 49.6085
155.566 2581 50.8035
155.683 2642 51.4004
155.8 2596 50.951
155.917 2470 49.6991
156.033 2581 50.8035
156.15 0 1
156.267 0 1
156.383 0 1
156.5 0 1
156.617 0 1
156.733 0 1
156.85 0 1
156.966 0 1
157.082 0 1
157.199 0 1
157.315 0 1
157.431 0 1
157.547 0 1
157.664 0 1
157.78 0 1
157.896 0 1
158.012 0 1
158.128 0 1
158.244 0 1
158.359 0 1
158.475 0 1
158.591 0 1
158.706 0 1
