
6.15755 0 1
6.2731 0 1
6.3887 0 1
6.50437 0 1
6.62009 0 1
6.73587 0 1
6.8517 0 1
6.96759 0 1
7.08353 0 1
7.19952 0 1
7.31557 0 1
7.43166 0 1
7.54781 0 1
7.664 0 1
7.78024 0 1
7.89653 0 1
8.01286 0 1
8.12924 0 1
8.24567 0 1
8.36213 0 1
8.47864 0 1
8.59519 0 1
8.71178 0 1
8.82841 0 1
8.94508 0 1
9.06179 0 1
9.17853 0 1
9.29531 0 1
9.41212 0 1
9.52897 0 1
9.64584 0 1
9.76276 0 1
9.8797 0 1
9.99667 0 1
10.1137 0 1
10.2307 0 1
10.3478 0 1
10.4648 0 1
10.5819 0 1
10.6991 0 1
10.8162 0 1
10.9334 0 1
11.0506 0 1
11.1678 0 1
11.285 0 1
11.4023 0 1
11.5196 0 1
11.6369 0 1
11.7542 0 1
11.8715 0 1
11.9888 0 1
12.1062 0 1
12.2235 0 1
12.3409 0 1
12.4582 0 1
12.5756 0 1
12.693 0 1
12.8104 0 1
12.9278 0 1
13.0452 0 1
13.1626 0 1
13.28 0 1
13.3974 0 1
13.5149 0 1
13.6323 0 1
13.7497 0 1
13.8671 0 1
13.9845 0 1
14.1019 0 1
14.2193 0 1
14.3367 0 1
14.4541 0 1
14.5714 0 1
14.6888 0 1
14.8062 0 1
14.9235 0 1
15.0408 898 29.9666
15.1581 1039 32.2335
15.2755 1028 32.0624
15.3927 1067 32.665
15.51 911 30.1828
15.6273 981 31.3209
15.7445 1008 31.749
15.8617 991 31.4802
15.9789 1008 31.749
16.0961 978 31.273
16.2132 989 31.4484
16.3304 909 30.1496
16.4475 929 30.4795
16.5646 918 30.2985
16.6816 941 30.6757
16.7986 931 30.5123
16.9156 893 29.8831
17.0326 948 30.7896
17.1496 930 30.4959
17.2665 889 29.8161
17.3833 928 30.4631
17.5002 942 30.692
17.617 923 30.3809
17.7338 948 30.7896
17.8505 950 30.8221
17.9672 962 31.0161
18.0839 935 30.5778
18.2005 942 30.692
18.3171 913 30.2159
18.4337 876 29.5973
18.5502 965 31.0644
18.6666 885 29.7489
18.7831 937 30.6105
18.8994 900 30
19.0158 832 28.8444
19.1321 810 28.4605
19.2483 840 28.9828
19.3645 799 28.2666
19.4806 819 28.6182
19.5967 683 26.1343
19.7128 694 26.3439
19.8288 623 24.96
19.9447 539 23.2164
20.0606 0 1
20.1764 0 1
20.2922 0 1
20.4079 0 1
20.5236 0 1
20.6392 0 1
20.7548 0 1
20.8702 0 1
23.3078 0 1
23.4233 0 1
23.539 0 1
23.6547 0 1
23.7704 0 1
23.8862 0 1
24.0021 0 1
24.118 0 1
24.234 0 1
24.35 0 1
24.4661 364 19.0788
24.5822 392 19.799
24.6984 488 22.0907
24.8146 533 23.0868
24.9309 613 24.7588
25.0472 706 26.5707
25.1636 752 27.4226
25.28 857 29.2746
25.3965 852 29.189
25.513 869 29.4788
25.6296 959 30.9677
25.7462 944 30.7246
25.8628 958 30.9516
25.9795 962 31.0161
26.0962 957 30.9354
26.213 915 30.249
26.3298 940 30.6594
26.4466 919 30.315
26.5635 935 30.5778
26.6804 878 29.6311
26.7973 819 28.6182
26.9143 822 28.6705
27.0313 738 27.1662
27.1483 653 25.5539
27.2653 764 27.6405
27.3824 841 29
27.4996 834 28.8791
27.6167 833 28.8617
27.7339 769 27.7308
27.8511 805 28.3725
27.9683 910 30.1662
28.0855 868 29.4618
28.2028 903 30.05
28.3201 859 29.3087
28.4374 869 29.4788
28.5547 873 29.5466
28.6721 823 28.688
28.7894 812 28.4956
28.9068 821 28.6531
29.0242 835 28.8964
29.1416 859 29.3087
29.259 829 28.7924
29.3764 816 28.5657
29.4939 777 27.8747
29.6113 847 29.1033
29.7288 822 28.6705
29.8463 824 28.7054
29.9638 842 29.0172
30.0812 843 29.0345
30.1987 811 28.4781
30.3162 858 29.2916
30.4337 738 27.1662
30.5512 754 27.4591
30.6687 727 26.9629
30.7862 813 28.5132
30.9037 838 28.9482
31.0212 860 29.3258
31.1387 860 29.3258
31.2562 849 29.1376
31.3737 886 29.7658
31.4912 840 28.9828
31.6087 897 29.95
31.7262 787 28.0535
31.8436 828 28.775
31.9611 821 28.6531
32.0785 764 27.6405
32.1959 734 27.0924
32.3134 711 26.6646
32.4308 746 27.313
32.5482 716 26.7582
32.6655 743 27.258
32.7829 743 27.258
32.9002 784 28
33.0176 758 27.5318
33.1349 686 26.1916
33.2522 722 26.8701
33.3694 782 27.9643
33.4867 791 28.1247
33.6039 738 27.1662
33.7211 744 27.2764
33.8383 753 27.4408
33.9554 714 26.7208
34.0725 746 27.313
34.1896 646 25.4165
34.3067 664 25.7682
34.4237 737 27.1477
34.5407 719 26.8142
34.6577 769 27.7308
34.7746 765 27.6586
34.8915 764 27.6405
35.0084 791 28.1247
35.1252 789 28.0891
35.242 762 27.6043
35.3587 788 28.0713
35.4755 794 28.178
35.5921 665 25.7876
35.7088 670 25.8844
35.8254 665 25.7876
35.9419 635 25.1992
36.0584 681 26.096
36.1749 630 25.0998
36.2913 724 26.9072
36.4077 694 26.3439
36.524 652 25.5343
36.6403 588 24.2487
36.7565 585 24.1868
36.8727 553 23.516
36.9889 542 23.2809
37.1049 471 21.7025
37.221 0 1
37.3369 0 1
37.4529 0 1
37.5687 0 1
37.6845 0 1
37.8003 0 1
37.916 0 1
38.0316 0 1
38.1472 0 1
40.5851 0 1
40.7008 0 1
40.8164 0 1
40.9322 0 1
41.048 0 1
41.1639 0 1
41.2798 0 1
41.3958 0 1
41.5118 0 1
41.6279 0 1
41.744 280 16.7332
41.8602 355 18.8414
41.9765 449 21.1896
42.0928 488 22.0907
42.2091 533 23.0868
42.3255 604 24.5764
42.4419 561 23.6854
42.5584 575 23.9792
42.675 655 25.593
42.7915 598 24.454
42.9081 576 24
43.0248 494 22.2261
43.1415 553 23.516
43.2582 603 24.5561
43.375 559 23.6432
43.4918 662 25.7294
43.6087 658 25.6515
43.7256 650 25.4951
43.8425 660 25.6905
43.9595 634 25.1794
44.0765 609 24.6779
44.1935 640 25.2982
44.3106 573 23.9374
44.4277 549 23.4307
44.5448 521 22.8254
44.6619 583 24.1454
44.7791 560 23.6643
44.8963 579 24.0624
45.0136 620 24.8998
45.1308 595 24.3926
45.2481 624 24.98
45.3654 622 24.9399
45.4827 641 25.318
45.6001 667 25.8263
45.7174 630 25.0998
45.8348 641 25.318
45.9522 665 25.7876
46.0697 636 25.219
46.1871 647 25.4362
46.3046 641 25.318
46.422 574 23.9583
46.5395 533 23.0868
46.657 562 23.7065
46.7745 533 23.0868
46.892 603 24.5561
47.0096 566 23.7908
47.1271 634 25.1794
47.2446 600 24.4949
47.3622 605 24.5967
47.4797 617 24.8395
47.5973 629 25.0799
47.7149 601 24.5153
47.8324 579 24.0624
47.95 562 23.7065
48.0675 561 23.6854
48.1851 536 23.1517
48.3027 547 23.388
48.4202 573 23.9374
48.5378 566 23.7908
48.6554 567 23.8118
48.7729 643 25.3574
48.8904 651 25.5147
49.008 624 24.98
49.1255 647 25.4362
49.243 627 25.04
49.3605 627 25.04
49.478 612 24.7386
49.5955 609 24.6779
49.713 598 24.454
49.8304 583 24.1454
49.9479 493 22.2036
50.0653 506 22.4944
50.1827 441 21
50.3001 477 21.8403
50.4175 519 22.7816
50.5348 616 24.8193
50.6521 598 24.454
50.7694 605 24.5967
50.8867 649 25.4755
51.004 659 25.671
51.1212 635 25.1992
51.2384 594 24.3721
51.3556 636 25.219
51.4727 605 24.5967
51.5899 519 22.7816
51.707 521 22.8254
51.824 575 23.9792
51.9411 667 25.8263
52.0581 691 26.2869
52.175 661 25.7099
52.2919 755 27.4773
52.4088 724 26.9072
52.5257 779 27.9106
52.6425 857 29.2746
52.7593 888 29.7993
52.876 929 30.4795
52.9927 1015 31.8591
53.1094 1050 32.4037
53.226 1048 32.3728
53.3426 971 31.1609
53.4591 994 31.5278
53.5756 947 30.7734
53.692 872 29.5296
53.8084 841 29
53.9248 828 28.775
54.0411 854 29.2233
54.1573 843 29.0345
54.2735 0 1
54.3896 0 1
54.5057 0 1
54.6217 0 1
54.7377 0 1
54.8537 0 1
54.9695 0 1
55.0853 0 1
55.2011 0 1
55.3168 0 1
55.4324 0 1
57.824 0 1
57.9396 0 1
58.0553 0 1
58.1711 0 1
58.2869 0 1
58.4028 0 1
58.5187 0 1
58.6347 0 1
58.7508 0 1
58.8669 0 1
58.983 736 27.1293
59.0992 930 30.4959
59.2155 1077 32.8177
59.3318 1128 33.5857
59.4482 1315 36.2629
59.5646 1326 36.4143
59.681 1407 37.51
59.7975 1563 39.5348
59.9141 1478 38.4448
60.0306 1457 38.1707
60.1473 1416 37.6298
60.2639 1306 36.1386
60.3807 1323 36.3731
60.4974 1407 37.51
60.6142 1415 37.6165
60.731 1361 36.8917
60.8479 1401 37.4299
60.9648 1402 37.4433
61.0818 1379 37.1349
61.1987 1339 36.5923
61.3158 1244 35.2704
61.4328 1336 36.5513
61.5499 1313 36.2353
61.667 1247 35.3129
61.7841 1228 35.0428
61.9013 1214 34.8425
62.0185 1097 33.121
62.1357 1029 32.078
62.253 977 31.257
62.3702 1019 31.9218
62.4875 1026 32.0312
62.6049 1038 32.218
62.7222 1063 32.6037
62.8396 1031 32.1092
62.9569 1086 32.9545
63.0743 1036 32.187
63.1918 1009 31.7648
63.3092 989 31.4484
63.4267 944 30.7246
63.5441 909 30.1496
63.6616 875 29.5804
63.7791 827 28.7576
63.8966 721 26.8514
64.0142 666 25.807
64.1317 713 26.7021
64.2492 632 25.1396
64.3668 723 26.8887
64.4843 720 26.8328
64.6019 705 26.5518
64.7195 705 26.5518
64.837 668 25.8457
64.9546 696 26.3818
65.0722 696 26.3818
65.1898 676 26
65.3074 726 26.9444
65.4249 668 25.8457
65.5425 653 25.5539
65.6601 595 24.3926
65.7777 633 25.1595
65.8952 555 23.5584
66.0128 581 24.1039
66.1304 627 25.04
66.2479 652 25.5343
66.3655 661 25.7099
66.483 682 26.1151
66.6005 670 25.8844
66.718 692 26.3059
66.8355 663 25.7488
66.953 696 26.3818
67.0705 650 25.4951
67.1879 603 24.5561
67.3054 629 25.0799
67.4228 628 25.0599
67.5402 616 24.8193
67.6576 629 25.0799
67.7749 653 25.5539
67.8923 665 25.7876
68.0096 634 25.1794
68.1269 639 25.2784
68.2442 660 25.6905
68.3614 625 25
68.4787 645 25.3969
68.5958 645 25.3969
68.713 667 25.8263
68.8302 660 25.6905
68.9473 645 25.3969
69.0643 656 25.6125
69.1814 610 24.6982
69.2984 581 24.1039
69.4154 555 23.5584
69.5323 588 24.2487
69.6492 550 23.4521
69.7661 536 23.1517
69.8829 640 25.2982
69.9997 634 25.1794
70.1165 656 25.6125
70.2332 635 25.1992
70.3499 594 24.3721
70.4665 648 25.4558
70.5831 545 23.3452
70.6996 490 22.1359
70.8161 471 21.7025
70.9326 423 20.567
71.049 361 19
71.1653 351 18.735
71.2817 363 19.0526
71.3979 356 18.868
71.5141 309 17.5784
71.6303 276 16.6132
71.7464 249 15.7797
71.8624 0 1
71.9784 0 1
72.0944 0 1
72.2102 0 1
72.3261 0 1
72.4418 0 1
72.5575 0 1
72.6732 0 1
75.1054 0 1
75.2209 0 1
75.3365 0 1
75.4521 0 1
75.5678 0 1
75.6835 0 1
75.7993 0 1
75.9151 0 1
76.031 0 1
76.147 392 19.799
76.263 371 19.2614
76.3791 472 21.7256
76.4952 457 21.3776
76.6113 431 20.7605
76.7276 547 23.388
76.8438 544 23.3238
76.9601 496 22.2711
77.0765 525 22.9129
77.1929 570 23.8747
77.3093 506 22.4944
77.4258 517 22.7376
77.5423 549 23.4307
77.6589 499 22.3383
77.7755 573 23.9374
77.8921 552 23.4947
78.0088 563 23.7276
78.1256 566 23.7908
78.2423 471 21.7025
78.3591 483 21.9773
78.4759 473 21.7486
78.5928 462 21.4942
78.7097 496 22.2711
78.8266 513 22.6495
78.9436 576 24
79.0606 544 23.3238
79.1776 533 23.0868
79.2946 499 22.3383
79.4117 551 23.4734
79.5288 475 21.7945
79.6459 522 22.8473
79.7631 567 23.8118
79.8802 493 22.2036
79.9974 502 22.4054
80.1147 537 23.1733
80.2319 492 22.1811
80.3491 569 23.8537
80.4664 584 24.1661
80.5837 550 23.4521
80.701 558 23.622
80.8183 516 22.7156
80.9357 529 23
81.053 570 23.8747
81.1704 548 23.4094
81.2877 543 23.3024
81.4051 582 24.1247
81.5225 594 24.3721
81.6399 571 23.8956
81.7573 577 24.0208
81.8747 532 23.0651
81.9922 553 23.516
82.1096 504 22.4499
82.227 504 22.4499
82.3444 495 22.2486
82.4619 549 23.4307
82.5793 526 22.9347
82.6967 561 23.6854
82.8142 569 23.8537
82.9316 558 23.622
83.049 528 22.9783
83.1664 563 23.7276
83.2838 545 23.3452
83.4012 556 23.5797
83.5186 545 23.3452
83.636 510 22.5832
83.7534 505 22.4722
83.8708 537 23.1733
83.9881 566 23.7908
84.1055 579 24.0624
84.2228 568 23.8328
84.3401 565 23.7697
84.4575 535 23.1301
84.5747 593 24.3516
84.692 531 23.0434
84.8093 532 23.0651
84.9265 549 23.4307
85.0437 602 24.5357
85.1609 610 24.6982
85.2781 595 24.3926
85.3952 526 22.9347
85.5123 559 23.6432
85.6294 506 22.4944
85.7465 539 23.2164
85.8636 527 22.9565
85.9806 517 22.7376
86.0976 526 22.9347
86.2145 568 23.8328
86.3315 598 24.454
86.4484 560 23.6643
86.5652 566 23.7908
86.682 572 23.9165
86.7988 581 24.1039
86.9156 523 22.8692
87.0323 566 23.7908
87.149 576 24
87.2657 542 23.2809
87.3823 515 22.6936
87.4988 501 22.383
87.6154 515 22.6936
87.7318 518 22.7596
87.8483 487 22.0681
87.9647 513 22.6495
88.081 401 20.025
88.1973 423 20.567
88.3136 385 19.6214
88.4298 350 18.7083
88.546 359 18.9473
88.6621 368 19.1833
88.7781 305 17.4642
88.8942 0 1
89.0101 0 1
89.126 0 1
89.2419 0 1
89.3577 0 1
89.4734 0 1
89.5891 0 1
89.7047 0 1
89.8203 0 1
89.9358 0 1
92.3269 0 1
92.4424 0 1
92.558 0 1
92.6736 0 1
92.7893 0 1
92.905 0 1
93.0208 0 1
93.1366 0 1
93.2525 0 1
93.3685 0 1
93.4845 0 1
93.6005 407 20.1742
93.7167 458 21.4009
93.8328 492 22.1811
93.949 568 23.8328
94.0653 563 23.7276
94.1816 574 23.9583
94.2979 577 24.0208
94.4143 543 23.3024
94.5307 544 23.3238
94.6472 566 23.7908
94.7637 531 23.0434
94.8803 543 23.3024
94.9969 524 22.891
95.1135 555 23.5584
95.2302 560 23.6643
95.3469 537 23.1733
95.4637 618 24.8596
95.5805 654 25.5734
95.6973 609 24.6779
95.8142 546 23.3666
95.9311 596 24.4131
96.048 508 22.5389
96.1649 556 23.5797
96.2819 559 23.6432
96.3989 598 24.454
96.516 613 24.7588
96.633 584 24.1661
96.7501 581 24.1039
96.8673 571 23.8956
96.9844 586 24.2074
97.1016 583 24.1454
97.2188 581 24.1039
97.336 511 22.6053
97.4532 548 23.4094
97.5704 570 23.8747
97.6877 605 24.5967
97.805 602 24.5357
97.9223 622 24.9399
98.0396 583 24.1454
98.1569 584 24.1661
98.2743 555 23.5584
98.3916 552 23.4947
98.509 570 23.8747
98.6264 554 23.5372
98.7438 534 23.1084
98.8612 558 23.622
98.9786 577 24.0208
99.096 598 24.454
99.2134 613 24.7588
99.3308 633 25.1595
99.4482 607 24.6374
99.5656 597 24.4336
99.6831 591 24.3105
99.8005 593 24.3516
99.9179 554 23.5372
100.035 579 24.0624
100.153 630 25.0998
100.27 602 24.5357
100.388 641 25.318
100.505 636 25.219
100.622 615 24.7992
100.74 560 23.6643
100.857 604 24.5764
100.975 600 24.4949
101.092 566 23.7908
101.209 634 25.1794
101.327 625 25
101.444 618 24.8596
101.561 618 24.8596
101.679 664 25.7682
101.796 634 25.1794
101.913 534 23.1084
102.03 578 24.0416
102.148 586 24.2074
102.265 612 24.7386
102.382 617 24.8395
102.499 634 25.1794
102.616 649 25.4755
102.733 668 25.8457
102.851 646 25.4165
102.968 629 25.0799
103.085 611 24.7184
103.202 595 24.3926
103.319 626 25.02
103.436 569 23.8537
103.552 642 25.3377
103.669 635 25.1992
103.786 655 25.593
103.903 699 26.4386
104.02 624 24.98
104.137 631 25.1197
104.253 643 25.3574
104.37 578 24.0416
104.487 651 25.5147
104.603 590 24.2899
104.72 620 24.8998
104.836 629 25.0799
104.953 616 24.8193
105.069 535 23.1301
105.186 562 23.7065
105.302 514 22.6716
105.418 497 22.2935
105.535 442 21.0238
105.651 392 19.799
105.767 362 19.0263
105.883 401 20.025
105.999 298 17.2627
106.115 0 1
106.231 0 1
106.347 0 1
106.463 0 1
106.579 0 1
106.694 0 1
106.81 0 1
106.926 0 1
107.041 0 1
107.157 0 1
109.576 0 1
109.692 0 1
109.807 0 1
109.923 0 1
110.039 0 1
110.155 0 1
110.27 0 1
110.386 0 1
110.502 0 1
110.618 307 17.5214
110.735 353 18.7883
110.851 391 19.7737
110.967 490 22.1359
111.083 493 22.2036
111.199 569 23.8537
111.316 566 23.7908
111.432 642 25.3377
111.549 613 24.7588
111.665 617 24.8395
111.782 602 24.5357
111.898 562 23.7065
112.015 548 23.4094
112.132 600 24.4949
112.248 641 25.318
112.365 634 25.1794
112.482 591 24.3105
112.599 611 24.7184
112.716 590 24.2899
112.832 585 24.1868
112.949 570 23.8747
113.066 596 24.4131
113.183 613 24.7588
113.3 594 24.3721
113.417 593 24.3516
113.534 565 23.7697
113.652 583 24.1454
113.769 586 24.2074
113.886 561 23.6854
114.003 541 23.2594
114.12 509 22.561
114.238 531 23.0434
114.355 513 22.6495
114.472 541 23.2594
114.589 559 23.6432
114.707 534 23.1084
114.824 552 23.4947
114.942 547 23.388
115.059 584 24.1661
115.176 569 23.8537
115.294 577 24.0208
115.411 548 23.4094
115.529 539 23.2164
115.646 514 22.6716
115.764 564 23.7487
115.881 570 23.8747
115.999 585 24.1868
116.116 577 24.0208
116.234 560 23.6643
116.351 547 23.388
116.469 550 23.4521
116.586 545 23.3452
116.704 550 23.4521
116.821 554 23.5372
116.939 578 24.0416
117.056 541 23.2594
117.174 557 23.6008
117.291 510 22.5832
117.409 554 23.5372
117.526 513 22.6495
117.644 520 22.8035
117.761 486 22.0454
117.879 529 23
117.996 501 22.383
118.114 510 22.5832
118.231 559 23.6432
118.349 510 22.5832
118.466 546 23.3666
118.584 574 23.9583
118.701 551 23.4734
118.819 547 23.388
118.936 529 23
119.053 506 22.4944
119.171 487 22.0681
119.288 517 22.7376
119.405 566 23.7908
119.523 522 22.8473
119.64 561 23.6854
119.757 571 23.8956
119.875 507 22.5167
119.992 556 23.5797
120.109 544 23.3238
120.226 489 22.1133
120.343 490 22.1359
120.46 510 22.5832
120.578 536 23.1517
120.695 497 22.2935
120.812 523 22.8692
120.929 537 23.1733
121.046 508 22.5389
121.163 463 21.5174
121.279 471 21.7025
121.396 428 20.6882
121.513 456 21.3542
121.63 447 21.1424
121.747 460 21.4476
121.863 456 21.3542
121.98 430 20.7364
122.097 429 20.7123
122.213 454 21.3073
122.33 432 20.7846
122.446 392 19.799
122.563 397 19.9249
122.679 320 17.8885
122.795 298 17.2627
122.912 298 17.2627
123.028 272 16.4924
123.144 325 18.0278
123.26 259 16.0935
123.377 0 1
123.493 0 1
123.609 0 1
123.725 0 1
123.84 0 1
123.956 0 1
124.072 0 1
124.188 0 1
124.303 0 1
124.419 0 1
126.852 0 1
126.968 0 1
127.083 0 1
127.199 0 1
127.315 0 1
127.431 0 1
127.547 0 1
127.663 0 1
127.779 0 1
127.895 0 1
128.011 0 1
128.127 0 1
128.243 0 1
128.359 541 23.2594
128.476 566 23.7908
128.592 625 25
128.708 568 23.8328
128.825 599 24.4745
128.941 606 24.6171
129.058 650 25.4951
129.174 602 24.5357
129.291 583 24.1454
129.408 664 25.7682
129.524 561 23.6854
129.641 600 24.4949
129.758 599 24.4745
129.875 607 24.6374
129.992 687 26.2107
130.108 701 26.4764
130.225 677 26.0192
130.342 654 25.5734
130.459 633 25.1595
130.576 653 25.5539
130.693 597 24.4336
130.81 616 24.8193
130.928 680 26.0768
131.045 669 25.865
131.162 729 27
131.279 760 27.5681
131.396 848 29.1204
131.513 811 28.4781
131.631 789 28.0891
131.748 740 27.2029
131.865 789 28.0891
131.983 834 28.8791
132.1 846 29.0861
132.217 918 30.2985
132.335 923 30.3809
132.452 1013 31.8277
132.57 962 31.0161
132.687 1030 32.0936
132.804 1056 32.4962
132.922 1036 32.187
133.039 1070 32.7109
133.157 1078 32.8329
133.274 1123 33.5112
133.392 1071 32.7261
133.509 1126 33.5559
133.627 1108 33.2866
133.744 1100 33.1662
133.862 1046 32.3419
133.979 1021 31.9531
134.097 1037 32.2025
134.214 1013 31.8277
134.332 1001 31.6386
134.449 1016 31.8748
134.567 974 31.209
134.684 1052 32.4345
134.802 1119 33.4515
134.919 1121 33.4813
135.037 1150 33.9116
135.154 1184 34.4093
135.272 1140 33.7639
135.389 1112 33.3467
135.507 1083 32.909
135.624 1156 34
135.742 1131 33.6303
135.859 1169 34.1906
135.977 1144 33.8231
136.094 1186 34.4384
136.211 1233 35.1141
136.329 1131 33.6303
136.446 1175 34.2783
136.564 1149 33.8969
136.681 1182 34.3802
136.798 1166 34.1467
136.915 1072 32.7414
137.033 1206 34.7275
137.15 1178 34.322
137.267 1073 32.7567
137.384 1085 32.9393
137.502 1093 33.0606
137.619 1060 32.5576
137.736 1018 31.9061
137.853 964 31.0483
137.97 1031 32.1092
138.087 1009 31.7648
138.204 1023 31.9844
138.321 1059 32.5423
138.438 1083 32.909
138.555 1100 33.1662
138.672 1159 34.0441
138.788 1194 34.5543
138.905 1103 33.2114
139.022 1102 33.1964
139.139 1078 32.8329
139.255 938 30.6268
139.372 956 30.9192
139.488 951 30.8383
139.605 871 29.5127
139.721 900 30
139.838 915 30.249
139.954 766 27.6767
140.071 741 27.2213
140.187 789 28.0891
140.303 704 26.533
140.419 628 25.0599
140.535 652 25.5343
140.652 630 25.0998
140.768 0 1
140.884 0 1
141 0 1
141.115 0 1
141.231 0 1
141.347 0 1
141.463 0 1
141.578 0 1
141.694 0 1
144.104 0 1
144.219 0 1
144.335 0 1
144.45 0 1
144.566 0 1
144.682 0 1
144.798 0 1
144.914 0 1
145.03 0 1
145.146 1657 40.7063
145.262 1999 44.7102
145.378 1944 44.0908
145.494 2023 44.9778
145.61 2048 45.2548
145.726 2193 46.8295
145.842 2176 46.6476
145.959 2310 48.0625
146.075 2343 48.4045
146.192 2420 49.1935
146.308 2467 49.6689
146.425 2508 50.0799
146.541 2626 51.2445
146.658 2513 50.1298
146.774 2303 47.9896
146.891 2100 45.8258
147.008 2280 47.7493
147.125 2623 51.2152
147.241 3092 55.6058
147.358 3298 57.4282
147.475 3429 58.5577
147.592 3548 59.5651
147.709 3543 59.5231
147.826 3495 59.1185
147.943 3585 59.8749
148.06 3523 59.3549
148.177 3573 59.7746
148.294 3553 59.607
148.411 3664 60.531
148.528 3553 59.607
148.645 3649 60.407
148.762 3687 60.7207
148.88 3738 61.1392
148.997 3726 61.041
149.114 3610 60.0833
149.231 3644 60.3656
149.349 3634 60.2827
149.466 3671 60.5888
149.583 3608 60.0666
149.701 3576 59.7997
149.818 3565 59.7076
149.935 3493 59.1016
150.053 3461 58.8303
150.17 3349 57.8705
150.287 3132 55.9643
150.405 2891 53.768
150.522 2613 51.1175
150.64 2385 48.8365
150.757 2744 52.3832
150.875 3274 57.2189
150.992 3661 60.5062
151.11 3690 60.7454
151.227 3698 60.8112
151.344 3760 61.3188
151.462 3777 61.4573
151.579 3797 61.6198
151.697 3957 62.9047
151.814 4096 64
151.932 4132 64.2806
152.049 4320 65.7267
152.167 4402 66.3476
152.284 4423 66.5056
152.402 4664 68.2935
152.519 4614 67.9264
152.636 4684 68.4398
152.754 4769 69.0579
152.871 4774 69.0941
152.989 4756 68.9638
153.106 4689 68.4763
153.223 4749 68.913
153.341 4706 68.6003
153.458 4622 67.9853
153.575 4622 67.9853
153.693 4552 67.4685
153.81 4362 66.0454
153.927 3851 62.0564
154.044 2746 52.4023
154.162 2478 49.7795
154.279 3171 56.3116
154.396 3764 61.3514
154.513 3950 62.849
154.63 3878 62.2736
154.747 3863 62.153
154.864 3739 61.1474
154.981 3669 60.5723
155.098 3372 58.0689
155.215 3389 58.2151
155.332 3241 56.9298
155.449 3079 55.4887
155.566 3031 55.0545
155.683 2889 53.7494
155.8 2817 53.0754
155.917 2714 52.0961
156.033 2607 51.0588
156.15 0 1
156.267 0 1
156.383 0 1
156.5 0 1
156.617 0 1
156.733 0 1
156.85 0 1
156.966 0 1
157.082 0 1
157.199 0 1
157.315 0 1
157.431 0 1
157.547 0 1
157.664 0 1
157.78 0 1
157.896 0 1
158.012 0 1
158.128 0 1
158.244 0 1
158.359 0 1
158.475 0 1
158.591 0 1
158.706 0 1
