
6.15755 0 1
6.2731 0 1
6.3887 0 1
6.50437 0 1
6.62009 0 1
6.73587 0 1
6.8517 0 1
6.96759 0 1
7.08353 0 1
7.19952 0 1
7.31557 0 1
7.43166 0 1
7.54781 0 1
7.664 0 1
7.78024 0 1
7.89653 0 1
8.01286 0 1
8.12924 0 1
8.24567 0 1
8.36213 0 1
8.47864 0 1
8.59519 0 1
8.71178 0 1
8.82841 0 1
8.94508 0 1
9.06179 0 1
9.17853 0 1
9.29531 0 1
9.41212 0 1
9.52897 0 1
9.64584 0 1
9.76276 0 1
9.8797 0 1
9.99667 0 1
10.1137 0 1
10.2307 0 1
10.3478 0 1
10.4648 0 1
10.5819 0 1
10.6991 0 1
10.8162 0 1
10.9334 0 1
11.0506 0 1
11.1678 0 1
11.285 0 1
11.4023 0 1
11.5196 0 1
11.6369 0 1
11.7542 0 1
11.8715 0 1
11.9888 0 1
12.1062 0 1
12.2235 0 1
12.3409 0 1
12.4582 0 1
12.5756 0 1
12.693 0 1
12.8104 0 1
12.9278 0 1
13.0452 0 1
13.1626 0 1
13.28 0 1
13.3974 0 1
13.5149 0 1
13.6323 0 1
13.7497 0 1
13.8671 0 1
13.9845 0 1
14.1019 0 1
14.2193 0 1
14.3367 0 1
14.4541 0 1
14.5714 0 1
14.6888 0 1
14.8062 0 1
14.9235 0 1
15.0408 1560 39.4968
15.1581 1709 41.3401
15.2755 1781 42.2019
15.3927 1835 42.8369
15.51 1760 41.9524
15.6273 1803 42.4617
15.7445 1852 43.0349
15.8617 1807 42.5088
15.9789 1792 42.332
16.0961 1781 42.2019
16.2132 1743 41.7493
16.3304 1857 43.0929
16.4475 1881 43.3705
16.5646 1953 44.1928
16.6816 2046 45.2327
16.7986 2129 46.1411
16.9156 2162 46.4973
17.0326 2056 45.3431
17.1496 2114 45.9783
17.2665 2156 46.4327
17.3833 2047 45.2438
17.5002 1958 44.2493
17.617 1931 43.9431
17.7338 1835 42.8369
17.8505 1880 43.359
17.9672 1835 42.8369
18.0839 1902 43.6119
18.2005 1844 42.9418
18.3171 1929 43.9204
18.4337 1951 44.1701
18.5502 1976 44.4522
18.6666 2025 45
18.7831 2008 44.8107
18.8994 2165 46.5296
19.0158 2047 45.2438
19.1321 1953 44.1928
19.2483 1883 43.3935
19.3645 1792 42.332
19.4806 1634 40.4228
19.5967 1586 39.8246
19.7128 1482 38.4968
19.8288 1380 37.1484
19.9447 1293 35.9583
20.0606 0 1
20.1764 0 1
20.2922 0 1
20.4079 0 1
20.5236 0 1
20.6392 0 1
20.7548 0 1
20.8702 0 1
23.3078 0 1
23.4233 0 1
23.539 0 1
23.6547 0 1
23.7704 0 1
23.8862 0 1
24.0021 0 1
24.118 0 1
24.234 0 1
24.35 0 1
24.4661 852 29.189
24.5822 1050 32.4037
24.6984 1125 33.541
24.8146 1203 34.6843
24.9309 1432 37.8418
25.0472 1541 39.2556
25.1636 1658 40.7185
25.28 1838 42.8719
25.3965 1907 43.6692
25.513 2025 45
25.6296 2206 46.9681
25.7462 2227 47.1911
25.8628 2113 45.9674
25.9795 2284 47.7912
26.0962 2307 48.0312
26.213 2210 47.0106
26.3298 2083 45.6399
26.4466 1904 43.6348
26.5635 1929 43.9204
26.6804 1985 44.5533
26.7973 1936 44
26.9143 2125 46.0977
27.0313 2054 45.3211
27.1483 2109 45.9239
27.2653 2128 46.1303
27.3824 2280 47.7493
27.4996 2166 46.5403
27.6167 2054 45.3211
27.7339 2072 45.5192
27.8511 2065 45.4423
27.9683 2059 45.3762
28.0855 1996 44.6766
28.2028 1869 43.2319
28.3201 1888 43.4511
28.4374 1850 43.0116
28.5547 1869 43.2319
28.6721 1915 43.7607
28.7894 1968 44.3621
28.9068 2049 45.2659
29.0242 2150 46.3681
29.1416 2203 46.9361
29.259 2210 47.0106
29.3764 2172 46.6047
29.4939 2186 46.7547
29.6113 2123 46.076
29.7288 2061 45.3982
29.8463 1975 44.441
29.9638 1777 42.1545
30.0812 1790 42.3084
30.1987 1872 43.2666
30.3162 1991 44.6206
30.4337 1949 44.1475
30.5512 1930 43.9318
30.6687 2045 45.2217
30.7862 2034 45.0999
30.9037 2093 45.7493
31.0212 2072 45.5192
31.1387 2089 45.7056
31.2562 2101 45.8367
31.3737 2103 45.8585
31.4912 1984 44.5421
31.6087 1898 43.566
31.7262 1893 43.5086
31.8436 1905 43.6463
31.9611 1803 42.4617
32.0785 1782 42.2137
32.1959 1785 42.2493
32.3134 1958 44.2493
32.4308 1912 43.7264
32.5482 2048 45.2548
32.6655 2078 45.5851
32.7829 2198 46.8828
32.9002 2116 46
33.0176 2116 46
33.1349 2048 45.2548
33.2522 2098 45.8039
33.3694 1969 44.3734
33.4867 1851 43.0232
33.6039 1742 41.7373
33.7211 1742 41.7373
33.8383 1727 41.5572
33.9554 1798 42.4028
34.0725 1912 43.7264
34.1896 1941 44.0568
34.3067 1986 44.5646
34.4237 1933 43.9659
34.5407 1945 44.1022
34.6577 2018 44.9222
34.7746 2029 45.0444
34.8915 1965 44.3283
35.0084 1962 44.2945
35.1252 1948 44.1362
35.242 1879 43.3474
35.3587 1776 42.1426
35.4755 1744 41.7612
35.5921 1749 41.821
35.7088 1697 41.1947
35.8254 1695 41.1704
35.9419 1789 42.2966
36.0584 1762 41.9762
36.1749 1881 43.3705
36.2913 1841 42.9069
36.4077 1780 42.19
36.524 1852 43.0349
36.6403 1802 42.45
36.7565 1700 41.2311
36.8727 1583 39.7869
36.9889 1538 39.2173
37.1049 1349 36.7287
37.221 0 1
37.3369 0 1
37.4529 0 1
37.5687 0 1
37.6845 0 1
37.8003 0 1
37.916 0 1
38.0316 0 1
38.1472 0 1
40.5851 0 1
40.7008 0 1
40.8164 0 1
40.9322 0 1
41.048 0 1
41.1639 0 1
41.2798 0 1
41.3958 0 1
41.5118 0 1
41.6279 0 1
41.744 988 31.4325
41.8602 1055 32.4808
41.9765 1214 34.8425
42.0928 1227 35.0286
42.2091 1209 34.7707
42.3255 1115 33.3916
42.4419 1189 34.4819
42.5584 1195 34.5688
42.675 1369 37
42.7915 1354 36.7967
42.9081 1532 39.1408
43.0248 1607 40.0874
43.1415 1638 40.4722
43.2582 1647 40.5832
43.375 1732 41.6173
43.4918 1651 40.6325
43.6087 1674 40.9145
43.7256 1657 40.7063
43.8425 1585 39.8121
43.9595 1586 39.8246
44.0765 1614 40.1746
44.1935 1522 39.0128
44.3106 1460 38.2099
44.4277 1368 36.9865
44.5448 1393 37.3229
44.6619 1418 37.6563
44.7791 1515 38.923
44.8963 1529 39.1024
45.0136 1667 40.8289
45.1308 1736 41.6653
45.2481 1744 41.7612
45.3654 1707 41.3159
45.4827 1671 40.8779
45.6001 1708 41.328
45.7174 1621 40.2616
45.8348 1577 39.7115
45.9522 1404 37.47
46.0697 1399 37.4032
46.1871 1343 36.647
46.3046 1443 37.9868
46.422 1499 38.7169
46.5395 1552 39.3954
46.657 1579 39.7366
46.7745 1629 40.3609
46.892 1705 41.2916
47.0096 1692 41.1339
47.1271 1686 41.0609
47.2446 1769 42.0595
47.3622 1709 41.3401
47.4797 1647 40.5832
47.5973 1600 40
47.7149 1591 39.8873
47.8324 1533 39.1535
47.95 1544 39.2938
48.0675 1496 38.6782
48.1851 1451 38.092
48.3027 1487 38.5616
48.4202 1543 39.281
48.5378 1681 41
48.6554 1744 41.7612
48.7729 1711 41.3642
48.8904 1771 42.0833
49.008 1817 42.6263
49.1255 1703 41.2674
49.243 1580 39.7492
49.3605 1549 39.3573
49.478 1446 38.0263
49.5955 1323 36.3731
49.713 1295 35.9861
49.8304 1376 37.0945
49.9479 1477 38.4318
50.0653 1560 39.4968
50.1827 1657 40.7063
50.3001 1692 41.1339
50.4175 1733 41.6293
50.5348 1703 41.2674
50.6521 1762 41.9762
50.7694 1785 42.2493
50.8867 1827 42.7434
51.004 1741 41.7253
51.1212 1772 42.0951
51.2384 1751 41.845
51.3556 1779 42.1782
51.4727 1625 40.3113
51.5899 1540 39.2428
51.707 1574 39.6737
51.824 1674 40.9145
51.9411 1763 41.9881
52.0581 1999 44.7102
52.175 2070 45.4973
52.2919 2050 45.2769
52.4088 2196 46.8615
52.5257 2196 46.8615
52.6425 2171 46.594
52.7593 2238 47.3075
52.876 2120 46.0435
52.9927 1982 44.5197
53.1094 1882 43.382
53.226 1786 42.2611
53.3426 1752 41.8569
53.4591 1735 41.6533
53.5756 1763 41.9881
53.692 1778 42.1663
53.8084 1786 42.2611
53.9248 1707 41.3159
54.0411 1604 40.05
54.1573 1507 38.8201
54.2735 0 1
54.3896 0 1
54.5057 0 1
54.6217 0 1
54.7377 0 1
54.8537 0 1
54.9695 0 1
55.0853 0 1
55.2011 0 1
55.3168 0 1
55.4324 0 1
57.824 0 1
57.9396 0 1
58.0553 0 1
58.1711 0 1
58.2869 0 1
58.4028 0 1
58.5187 0 1
58.6347 0 1
58.7508 0 1
58.8669 0 1
58.983 1346 36.6879
59.0992 1533 39.1535
59.2155 1641 40.5093
59.3318 1720 41.4729
59.4482 1751 41.845
59.5646 1974 44.4297
59.681 1963 44.3058
59.7975 2007 44.7996
59.9141 1999 44.7102
60.0306 1965 44.3283
60.1473 1929 43.9204
60.2639 1860 43.1277
60.3807 1847 42.9767
60.4974 1815 42.6028
60.6142 1910 43.7035
60.731 1995 44.6654
60.8479 2075 45.5522
60.9648 2193 46.8295
61.0818 2268 47.6235
61.1987 2150 46.3681
61.3158 2163 46.5081
61.4328 2021 44.9555
61.5499 1865 43.1856
61.667 1798 42.4028
61.7841 1692 41.1339
61.9013 1613 40.1622
62.0185 1670 40.8656
62.1357 1792 42.332
62.253 1806 42.4971
62.3702 1956 44.2267
62.4875 1929 43.9204
62.6049 2161 46.4866
62.7222 2108 45.913
62.8396 2097 45.793
62.9569 2053 45.31
63.0743 2100 45.8258
63.1918 2114 45.9783
63.3092 2074 45.5412
63.4267 2074 45.5412
63.5441 1882 43.382
63.6616 1855 43.0697
63.7791 1816 42.6146
63.8966 1664 40.7922
64.0142 1733 41.6293
64.1317 1786 42.2611
64.2492 2020 44.9444
64.3668 2036 45.1221
64.4843 2097 45.793
64.6019 2138 46.2385
64.7195 2090 45.7165
64.837 2164 46.5188
64.9546 2068 45.4753
65.0722 1878 43.3359
65.1898 1756 41.9047
65.3074 1677 40.9512
65.4249 1599 39.9875
65.5425 1539 39.2301
65.6601 1564 39.5474
65.7777 1757 41.9166
65.8952 1852 43.0349
66.0128 1898 43.566
66.1304 1962 44.2945
66.2479 2063 45.4203
66.3655 1980 44.4972
66.483 2068 45.4753
66.6005 2113 45.9674
66.718 2179 46.6798
66.8355 2088 45.6946
66.953 2046 45.2327
67.0705 1978 44.4747
67.1879 1993 44.643
67.3054 1825 42.72
67.4228 1750 41.833
67.5402 1653 40.6571
67.6576 1694 41.1582
67.7749 1693 41.1461
67.8923 1908 43.6807
68.0096 2027 45.0222
68.1269 1978 44.4747
68.2442 2012 44.8553
68.3614 1945 44.1022
68.4787 2009 44.8219
68.5958 1949 44.1475
68.713 1877 43.3244
68.8302 1810 42.5441
68.9473 1649 40.6079
69.0643 1503 38.7685
69.1814 1477 38.4318
69.2984 1565 39.5601
69.4154 1631 40.3856
69.5323 1758 41.9285
69.6492 1829 42.7668
69.7661 1844 42.9418
69.8829 1906 43.6578
69.9997 1927 43.8976
70.1165 1937 44.0114
70.2332 1744 41.7612
70.3499 1691 41.1218
70.4665 1658 40.7185
70.5831 1567 39.5854
70.6996 1502 38.7556
70.8161 1362 36.9053
70.9326 1240 35.2136
71.049 1097 33.121
71.1653 906 30.0998
71.2817 851 29.1719
71.3979 785 28.0179
71.5141 792 28.1425
71.6303 711 26.6646
71.7464 625 25
71.8624 0 1
71.9784 0 1
72.0944 0 1
72.2102 0 1
72.3261 0 1
72.4418 0 1
72.5575 0 1
72.6732 0 1
75.1054 0 1
75.2209 0 1
75.3365 0 1
75.4521 0 1
75.5678 0 1
75.6835 0 1
75.7993 0 1
75.9151 0 1
76.031 0 1
76.147 1202 34.6699
76.263 1257 35.4542
76.3791 1312 36.2215
76.4952 1248 35.327
76.6113 1336 36.5513
76.7276 1384 37.2022
76.8438 1546 39.3192
76.9601 1723 41.509
77.0765 1724 41.5211
77.1929 1733 41.6293
77.3093 1824 42.7083
77.4258 1747 41.7971
77.5423 1704 41.2795
77.6589 1729 41.5812
77.7755 1462 38.2361
77.8921 1397 37.3765
78.0088 1293 35.9583
78.1256 1292 35.9444
78.2423 1292 35.9444
78.3591 1326 36.4143
78.4759 1509 38.8458
78.5928 1541 39.2556
78.7097 1670 40.8656
78.8266 1679 40.9756
78.9436 1718 41.4488
79.0606 1788 42.2847
79.1776 1796 42.3792
79.2946 1747 41.7971
79.4117 1692 41.1339
79.5288 1776 42.1426
79.6459 1803 42.4617
79.7631 1780 42.19
79.8802 1658 40.7185
79.9974 1491 38.6135
80.1147 1444 38
80.2319 1417 37.6431
80.3491 1455 38.1445
80.4664 1556 39.4462
80.5837 1650 40.6202
80.701 1864 43.1741
80.8183 1815 42.6028
80.9357 1965 44.3283
81.053 1871 43.2551
81.1704 1890 43.4741
81.2877 1924 43.8634
81.4051 1755 41.8927
81.5225 1570 39.6232
81.6399 1460 38.2099
81.7573 1339 36.5923
81.8747 1352 36.7696
81.9922 1259 35.4824
82.1096 1475 38.4057
82.227 1467 38.3014
82.3444 1598 39.975
82.4619 1736 41.6653
82.5793 1803 42.4617
82.6967 1862 43.1509
82.8142 1857 43.0929
82.9316 1795 42.3674
83.049 1886 43.4281
83.1664 1821 42.6732
83.2838 1845 42.9535
83.4012 1824 42.7083
83.5186 1697 41.1947
83.636 1708 41.328
83.7534 1586 39.8246
83.8708 1479 38.4578
83.9881 1463 38.2492
84.1055 1572 39.6485
84.2228 1636 40.4475
84.3401 1811 42.5558
84.4575 1829 42.7668
84.5747 1981 44.5084
84.692 1946 44.1135
84.8093 1919 43.8064
84.9265 1835 42.8369
85.0437 1622 40.2741
85.1609 1553 39.4081
85.2781 1454 38.1314
85.3952 1288 35.8887
85.5123 1277 35.7351
85.6294 1372 37.0405
85.7465 1531 39.128
85.8636 1618 40.2244
85.9806 1669 40.8534
86.0976 1779 42.1782
86.2145 1773 42.107
86.3315 1791 42.3202
86.4484 1893 43.5086
86.5652 2016 44.8999
86.682 1965 44.3283
86.7988 1904 43.6348
86.9156 1807 42.5088
87.0323 1891 43.4856
87.149 1682 41.0122
87.2657 1595 39.9375
87.3823 1489 38.5876
87.4988 1358 36.8511
87.6154 1301 36.0694
87.7318 1342 36.6333
87.8483 1381 37.1618
87.9647 1462 38.2361
88.081 1430 37.8153
88.1973 1492 38.6264
88.3136 1318 36.3043
88.4298 1333 36.5103
88.546 1291 35.9305
88.6621 1091 33.0303
88.7781 834 28.8791
88.8942 0 1
89.0101 0 1
89.126 0 1
89.2419 0 1
89.3577 0 1
89.4734 0 1
89.5891 0 1
89.7047 0 1
89.8203 0 1
89.9358 0 1
92.3269 0 1
92.4424 0 1
92.558 0 1
92.6736 0 1
92.7893 0 1
92.905 0 1
93.0208 0 1
93.1366 0 1
93.2525 0 1
93.3685 0 1
93.4845 0 1
93.6005 1356 36.8239
93.7167 1495 38.6652
93.8328 1535 39.1791
93.949 1554 39.4208
94.0653 1685 41.0488
94.1816 1659 40.7308
94.2979 1510 38.8587
94.4143 1492 38.6264
94.5307 1361 36.8917
94.6472 1364 36.9324
94.7637 1454 38.1314
94.8803 1497 38.6911
94.9969 1686 41.0609
95.1135 1675 40.9268
95.2302 1771 42.0833
95.3469 1802 42.45
95.4637 1895 43.5316
95.5805 1975 44.441
95.6973 1914 43.7493
95.8142 1866 43.1972
95.9311 1889 43.4626
96.048 1869 43.2319
96.1649 1801 42.4382
96.2819 1859 43.1161
96.3989 1802 42.45
96.516 1751 41.845
96.633 1582 39.7744
96.7501 1528 39.0896
96.8673 1568 39.598
96.9844 1659 40.7308
97.1016 1721 41.4849
97.2188 1902 43.6119
97.336 1956 44.2267
97.4532 2016 44.8999
97.5704 1986 44.5646
97.6877 1947 44.1248
97.805 1863 43.1625
97.9223 1675 40.9268
98.0396 1554 39.4208
98.1569 1510 38.8587
98.2743 1363 36.9188
98.3916 1313 36.2353
98.509 1508 38.833
98.6264 1701 41.2432
98.7438 1788 42.2847
98.8612 1879 43.3474
98.9786 1875 43.3013
99.096 1950 44.1588
99.2134 2016 44.8999
99.3308 2080 45.607
99.4482 2010 44.833
99.5656 2035 45.111
99.6831 1942 44.0681
99.8005 2002 44.7437
99.9179 1990 44.6094
100.035 1904 43.6348
100.153 1825 42.72
100.27 1667 40.8289
100.388 1659 40.7308
100.505 1696 41.1825
100.622 1825 42.72
100.74 1943 44.0795
100.857 2088 45.6946
100.975 2060 45.3872
101.092 2074 45.5412
101.209 2099 45.8148
101.327 2075 45.5522
101.444 1925 43.8748
101.561 1710 41.3521
101.679 1663 40.7799
101.796 1522 39.0128
101.913 1442 37.9737
102.03 1476 38.4187
102.148 1707 41.3159
102.265 1835 42.8369
102.382 1927 43.8976
102.499 1947 44.1248
102.616 1999 44.7102
102.733 2168 46.5618
102.851 2190 46.7974
102.968 2130 46.1519
103.085 2126 46.1086
103.202 2190 46.7974
103.319 2049 45.2659
103.436 2006 44.7884
103.552 1965 44.3283
103.669 1882 43.382
103.786 1725 41.5331
103.903 1858 43.1045
104.02 1799 42.4146
104.137 1890 43.4741
104.253 2052 45.299
104.37 2223 47.1487
104.487 2121 46.0543
104.603 2134 46.1952
104.72 2167 46.551
104.836 2005 44.7772
104.953 1906 43.6578
105.069 1674 40.9145
105.186 1462 38.2361
105.302 1431 37.8286
105.418 1339 36.5923
105.535 1315 36.2629
105.651 1317 36.2905
105.767 1406 37.4967
105.883 1297 36.0139
105.999 1301 36.0694
106.115 0 1
106.231 0 1
106.347 0 1
106.463 0 1
106.579 0 1
106.694 0 1
106.81 0 1
106.926 0 1
107.041 0 1
107.157 0 1
109.576 0 1
109.692 0 1
109.807 0 1
109.923 0 1
110.039 0 1
110.155 0 1
110.27 0 1
110.386 0 1
110.502 0 1
110.618 942 30.692
110.735 1191 34.5109
110.851 1350 36.7423
110.967 1524 39.0384
111.083 1679 40.9756
111.199 1783 42.2256
111.316 1835 42.8369
111.432 1923 43.852
111.549 1929 43.9204
111.665 1907 43.6692
111.782 1936 44
111.898 2000 44.7214
112.015 1847 42.9767
112.132 1809 42.5323
112.248 1689 41.0974
112.365 1689 41.0974
112.482 1621 40.2616
112.599 1888 43.4511
112.716 1848 42.9884
112.832 2011 44.8442
112.949 2077 45.5741
113.066 2049 45.2659
113.183 2041 45.1774
113.3 2018 44.9222
113.417 2038 45.1442
113.534 1885 43.4166
113.652 1627 40.3361
113.769 1547 39.3319
113.886 1422 37.7094
114.003 1460 38.2099
114.12 1451 38.092
114.238 1706 41.3038
114.355 1847 42.9767
114.472 1797 42.391
114.589 1955 44.2154
114.707 1888 43.4511
114.824 1938 44.0227
114.942 2103 45.8585
115.059 2113 45.9674
115.176 2026 45.0111
115.294 1998 44.699
115.411 1962 44.2945
115.529 1947 44.1248
115.646 1934 43.9773
115.764 1820 42.6615
115.881 1722 41.497
115.999 1657 40.7063
116.116 1804 42.4735
116.234 1876 43.3128
116.351 1944 44.0908
116.469 2027 45.0222
116.586 2056 45.3431
116.704 2061 45.3982
116.821 1959 44.2606
116.939 2025 45
117.056 1938 44.0227
117.174 1878 43.3359
117.291 1612 40.1497
117.409 1472 38.3667
117.526 1448 38.0526
117.644 1461 38.223
117.761 1577 39.7115
117.879 1656 40.694
117.996 1843 42.9302
118.114 1907 43.6692
118.231 1866 43.1972
118.349 1952 44.1814
118.466 1970 44.3847
118.584 2007 44.7996
118.701 1933 43.9659
118.819 1949 44.1475
118.936 1871 43.2551
119.053 1928 43.909
119.171 1851 43.0232
119.288 1884 43.4051
119.405 1675 40.9268
119.523 1593 39.9124
119.64 1621 40.2616
119.757 1704 41.2795
119.875 1720 41.4729
119.992 1837 42.8602
120.109 1968 44.3621
120.226 1835 42.8369
120.343 1845 42.9535
120.46 1938 44.0227
120.578 1867 43.2088
120.695 1867 43.2088
120.812 1655 40.6817
120.929 1572 39.6485
121.046 1466 38.2884
121.163 1351 36.756
121.279 1316 36.2767
121.396 1280 35.7771
121.513 1386 37.229
121.63 1464 38.2623
121.747 1515 38.923
121.863 1453 38.1182
121.98 1493 38.6394
122.097 1489 38.5876
122.213 1472 38.3667
122.33 1382 37.1753
122.446 1361 36.8917
122.563 1327 36.428
122.679 1246 35.2987
122.795 1161 34.0735
122.912 1071 32.7261
123.028 904 30.0666
123.144 814 28.5307
123.26 756 27.4955
123.377 0 1
123.493 0 1
123.609 0 1
123.725 0 1
123.84 0 1
123.956 0 1
124.072 0 1
124.188 0 1
124.303 0 1
124.419 0 1
126.852 0 1
126.968 0 1
127.083 0 1
127.199 0 1
127.315 0 1
127.431 0 1
127.547 0 1
127.663 0 1
127.779 0 1
127.895 0 1
128.011 0 1
128.127 0 1
128.243 0 1
128.359 1757 41.9166
128.476 1796 42.3792
128.592 1708 41.328
128.708 1771 42.0833
128.825 1810 42.5441
128.941 1834 42.8252
129.058 1868 43.2204
129.174 2039 45.1553
129.291 2102 45.8476
129.408 2084 45.6508
129.524 2051 45.288
129.641 2024 44.9889
129.758 1994 44.6542
129.875 1854 43.0581
129.992 1708 41.328
130.108 1665 40.8044
130.225 1535 39.1791
130.342 1504 38.7814
130.459 1599 39.9875
130.576 1749 41.821
130.693 1861 43.1393
130.81 1928 43.909
130.928 1956 44.2267
131.045 1968 44.3621
131.162 1966 44.3396
131.279 2011 44.8442
131.396 2076 45.5631
131.513 2062 45.4093
131.631 2030 45.0555
131.748 2053 45.31
131.865 2043 45.1996
131.983 1927 43.8976
132.1 1808 42.5206
132.217 1769 42.0595
132.335 1830 42.7785
132.452 1933 43.9659
132.57 1978 44.4747
132.687 2032 45.0777
132.804 2025 45
132.922 2149 46.3573
133.039 2124 46.0869
133.157 2053 45.31
133.274 2017 44.911
133.392 1993 44.643
133.509 1763 41.9881
133.627 1601 40.0125
133.744 1551 39.3827
133.862 1493 38.6394
133.979 1613 40.1622
134.097 1711 41.3642
134.214 1841 42.9069
134.332 1890 43.4741
134.449 1852 43.0349
134.567 2040 45.1664
134.684 2073 45.5302
134.802 2021 44.9555
134.919 2092 45.7384
135.037 2015 44.8888
135.154 2009 44.8219
135.272 1983 44.5309
135.389 2044 45.2106
135.507 1969 44.3734
135.624 1843 42.9302
135.742 1846 42.9651
135.859 1809 42.5323
135.977 1887 43.4396
136.094 1963 44.3058
136.211 1993 44.643
136.329 2048 45.2548
136.446 2070 45.4973
136.564 2088 45.6946
136.681 2166 46.5403
136.798 2090 45.7165
136.915 2062 45.4093
137.033 1883 43.3935
137.15 1772 42.0951
137.267 1692 41.1339
137.384 1505 38.7943
137.502 1512 38.8844
137.619 1534 39.1663
137.736 1738 41.6893
137.853 1737 41.6773
137.97 1818 42.638
138.087 1849 43
138.204 2010 44.833
138.321 1956 44.2267
138.438 2050 45.2769
138.555 2020 44.9444
138.672 2112 45.9565
138.788 1900 43.589
138.905 1820 42.6615
139.022 1776 42.1426
139.139 1620 40.2492
139.255 1624 40.2989
139.372 1461 38.223
139.488 1307 36.1525
139.605 1355 36.8103
139.721 1357 36.8375
139.838 1325 36.4005
139.954 1285 35.8469
140.071 1252 35.3836
140.187 1178 34.322
140.303 1017 31.8904
140.419 1036 32.187
140.535 978 31.273
140.652 925 30.4138
140.768 0 1
140.884 0 1
141 0 1
141.115 0 1
141.231 0 1
141.347 0 1
141.463 0 1
141.578 0 1
141.694 0 1
144.104 0 1
144.219 0 1
144.335 0 1
144.45 0 1
144.566 0 1
144.682 0 1
144.798 0 1
144.914 0 1
145.03 0 1
145.146 1414 37.6032
145.262 1517 38.9487
145.378 1620 40.2492
145.494 1667 40.8289
145.61 1581 39.7618
145.726 1556 39.4462
145.842 1435 37.8814
145.959 1389 37.2693
146.075 1409 37.5366
146.192 1292 35.9444
146.308 1258 35.4683
146.425 1328 36.4417
146.541 1339 36.5923
146.658 1400 37.4166
146.774 1536 39.1918
146.891 1527 39.0768
147.008 1595 39.9375
147.125 1524 39.0384
147.241 1646 40.5709
147.358 1608 40.0999
147.475 1540 39.2428
147.592 1627 40.3361
147.709 1564 39.5474
147.826 1558 39.4715
147.943 1498 38.704
148.06 1444 38
148.177 1474 38.3927
148.294 1432 37.8418
148.411 1511 38.8716
148.528 1494 38.6523
148.645 1577 39.7115
148.762 1611 40.1373
148.88 1712 41.3763
148.997 1650 40.6202
149.114 1541 39.2556
149.231 1640 40.4969
149.349 1571 39.6358
149.466 1550 39.37
149.583 1443 37.9868
149.701 1379 37.1349
149.818 1305 36.1248
149.935 1267 35.5949
150.053 1295 35.9861
150.17 1385 37.2156
150.287 1379 37.1349
150.405 1456 38.1576
150.522 1470 38.3406
150.64 1515 38.923
150.757 1477 38.4318
150.875 1557 39.4588
150.992 1625 40.3113
151.11 1607 40.0874
151.227 1517 38.9487
151.344 1507 38.8201
151.462 1523 39.0256
151.579 1429 37.8021
151.697 1401 37.4299
151.814 1406 37.4967
151.932 1300 36.0555
152.049 1366 36.9594
152.167 1409 37.5366
152.284 1464 38.2623
152.402 1528 39.0896
152.519 1636 40.4475
152.636 1601 40.0125
152.754 1495 38.6652
152.871 1564 39.5474
152.989 1515 38.923
153.106 1422 37.7094
153.223 1345 36.6742
153.341 1245 35.2846
153.458 1287 35.8748
153.575 1227 35.0286
153.693 1280 35.7771
153.81 1303 36.0971
153.927 1348 36.7151
154.044 1400 37.4166
154.162 1471 38.3536
154.279 1420 37.6829
154.396 1377 37.108
154.513 1410 37.55
154.63 1474 38.3927
154.747 1451 38.092
154.864 1409 37.5366
154.981 1430 37.8153
155.098 1402 37.4433
155.215 1380 37.1484
155.332 1304 36.1109
155.449 1229 35.0571
155.566 1283 35.819
155.683 1294 35.9722
155.8 1325 36.4005
155.917 1288 35.8887
156.033 1291 35.9305
156.15 0 1
156.267 0 1
156.383 0 1
156.5 0 1
156.617 0 1
156.733 0 1
156.85 0 1
156.966 0 1
157.082 0 1
157.199 0 1
157.315 0 1
157.431 0 1
157.547 0 1
157.664 0 1
157.78 0 1
157.896 0 1
158.012 0 1
158.128 0 1
158.244 0 1
158.359 0 1
158.475 0 1
158.591 0 1
158.706 0 1
