
6.15755 0 1
6.2731 0 1
6.3887 0 1
6.50437 0 1
6.62009 0 1
6.73587 0 1
6.8517 0 1
6.96759 0 1
7.08353 0 1
7.19952 0 1
7.31557 0 1
7.43166 0 1
7.54781 0 1
7.664 0 1
7.78024 0 1
7.89653 0 1
8.01286 0 1
8.12924 0 1
8.24567 0 1
8.36213 0 1
8.47864 0 1
8.59519 0 1
8.71178 0 1
8.82841 0 1
8.94508 0 1
9.06179 0 1
9.17853 0 1
9.29531 0 1
9.41212 0 1
9.52897 0 1
9.64584 0 1
9.76276 0 1
9.8797 0 1
9.99667 0 1
10.1137 0 1
10.2307 0 1
10.3478 0 1
10.4648 0 1
10.5819 0 1
10.6991 0 1
10.8162 0 1
10.9334 0 1
11.0506 0 1
11.1678 0 1
11.285 0 1
11.4023 0 1
11.5196 0 1
11.6369 0 1
11.7542 0 1
11.8715 0 1
11.9888 0 1
12.1062 0 1
12.2235 0 1
12.3409 0 1
12.4582 0 1
12.5756 0 1
12.693 0 1
12.8104 0 1
12.9278 0 1
13.0452 0 1
13.1626 0 1
13.28 0 1
13.3974 0 1
13.5149 0 1
13.6323 0 1
13.7497 0 1
13.8671 0 1
13.9845 0 1
14.1019 0 1
14.2193 0 1
14.3367 0 1
14.4541 0 1
14.5714 0 1
14.6888 0 1
14.8062 0 1
14.9235 0 1
15.0408 1155 33.9853
15.1581 1203 34.6843
15.2755 1300 36.0555
15.3927 1282 35.805
15.51 1317 36.2905
15.6273 1321 36.3456
15.7445 1273 35.6791
15.8617 1288 35.8887
15.9789 1308 36.1663
16.0961 1249 35.3412
16.2132 1255 35.426
16.3304 1292 35.9444
16.4475 1296 36
16.5646 1378 37.1214
16.6816 1438 37.921
16.7986 1538 39.2173
16.9156 1604 40.05
17.0326 1550 39.37
17.1496 1585 39.8121
17.2665 1565 39.5601
17.3833 1516 38.9358
17.5002 1537 39.2046
17.617 1438 37.921
17.7338 1328 36.4417
17.8505 1368 36.9865
17.9672 1360 36.8782
18.0839 1342 36.6333
18.2005 1308 36.1663
18.3171 1398 37.3898
18.4337 1459 38.1969
18.5502 1478 38.4448
18.6666 1529 39.1024
18.7831 1507 38.8201
18.8994 1547 39.3319
19.0158 1454 38.1314
19.1321 1539 39.2301
19.2483 1396 37.3631
19.3645 1299 36.0416
19.4806 1312 36.2215
19.5967 1173 34.2491
19.7128 1039 32.2335
19.8288 952 30.8545
19.9447 940 30.6594
20.0606 0 1
20.1764 0 1
20.2922 0 1
20.4079 0 1
20.5236 0 1
20.6392 0 1
20.7548 0 1
20.8702 0 1
23.3078 0 1
23.4233 0 1
23.539 0 1
23.6547 0 1
23.7704 0 1
23.8862 0 1
24.0021 0 1
24.118 0 1
24.234 0 1
24.35 0 1
24.4661 565 23.7697
24.5822 754 27.4591
24.6984 855 29.2404
24.8146 912 30.1993
24.9309 972 31.1769
25.0472 1099 33.1512
25.1636 1193 34.5398
25.28 1293 35.9583
25.3965 1362 36.9053
25.513 1477 38.4318
25.6296 1540 39.2428
25.7462 1577 39.7115
25.8628 1624 40.2989
25.9795 1663 40.7799
26.0962 1680 40.9878
26.213 1641 40.5093
26.3298 1490 38.6005
26.4466 1421 37.6962
26.5635 1380 37.1484
26.6804 1391 37.2961
26.7973 1415 37.6165
26.9143 1414 37.6032
27.0313 1459 38.1969
27.1483 1558 39.4715
27.2653 1533 39.1535
27.3824 1546 39.3192
27.4996 1580 39.7492
27.6167 1609 40.1123
27.7339 1465 38.2753
27.8511 1479 38.4578
27.9683 1413 37.5899
28.0855 1422 37.7094
28.2028 1385 37.2156
28.3201 1388 37.2559
28.4374 1301 36.0694
28.5547 1294 35.9722
28.6721 1283 35.819
28.7894 1441 37.9605
28.9068 1470 38.3406
29.0242 1572 39.6485
29.1416 1581 39.7618
29.259 1570 39.6232
29.3764 1594 39.9249
29.4939 1489 38.5876
29.6113 1584 39.7995
29.7288 1429 37.8021
29.8463 1424 37.7359
29.9638 1316 36.2767
30.0812 1250 35.3553
30.1987 1357 36.8375
30.3162 1399 37.4032
30.4337 1375 37.081
30.5512 1509 38.8458
30.6687 1408 37.5233
30.7862 1500 38.7298
30.9037 1536 39.1918
31.0212 1477 38.4318
31.1387 1642 40.5216
31.2562 1543 39.281
31.3737 1465 38.2753
31.4912 1449 38.0657
31.6087 1379 37.1349
31.7262 1333 36.5103
31.8436 1251 35.3695
31.9611 1305 36.1248
32.0785 1225 35
32.1959 1261 35.5106
32.3134 1355 36.8103
32.4308 1486 38.5487
32.5482 1568 39.598
32.6655 1473 38.3797
32.7829 1543 39.281
32.9002 1542 39.2683
33.0176 1440 37.9473
33.1349 1481 38.4838
33.2522 1452 38.1051
33.3694 1388 37.2559
33.4867 1314 36.2491
33.6039 1378 37.1214
33.7211 1154 33.9706
33.8383 1177 34.3074
33.9554 1306 36.1386
34.0725 1306 36.1386
34.1896 1349 36.7287
34.3067 1388 37.2559
34.4237 1391 37.2961
34.5407 1355 36.8103
34.6577 1433 37.855
34.7746 1463 38.2492
34.8915 1381 37.1618
35.0084 1436 37.8946
35.1252 1339 36.5923
35.242 1309 36.1801
35.3587 1352 36.7696
35.4755 1278 35.7491
35.5921 1196 34.5832
35.7088 1167 34.1614
35.8254 1191 34.5109
35.9419 1240 35.2136
36.0584 1259 35.4824
36.1749 1281 35.7911
36.2913 1294 35.9722
36.4077 1326 36.4143
36.524 1313 36.2353
36.6403 1285 35.8469
36.7565 1205 34.7131
36.8727 1206 34.7275
36.9889 1063 32.6037
37.1049 971 31.1609
37.221 0 1
37.3369 0 1
37.4529 0 1
37.5687 0 1
37.6845 0 1
37.8003 0 1
37.916 0 1
38.0316 0 1
38.1472 0 1
40.5851 0 1
40.7008 0 1
40.8164 0 1
40.9322 0 1
41.048 0 1
41.1639 0 1
41.2798 0 1
41.3958 0 1
41.5118 0 1
41.6279 0 1
41.744 677 26.0192
41.8602 734 27.0924
41.9765 867 29.4449
42.0928 820 28.6356
42.2091 895 29.9166
42.3255 843 29.0345
42.4419 827 28.7576
42.5584 801 28.3019
42.675 922 30.3645
42.7915 989 31.4484
42.9081 1088 32.9848
43.0248 1087 32.9697
43.1415 1105 33.2415
43.2582 1258 35.4683
43.375 1221 34.9428
43.4918 1222 34.9571
43.6087 1169 34.1906
43.7256 1134 33.6749
43.8425 1150 33.9116
43.9595 1100 33.1662
44.0765 1091 33.0303
44.1935 1028 32.0624
44.3106 981 31.3209
44.4277 1032 32.1248
44.5448 949 30.8058
44.6619 941 30.6757
44.7791 988 31.4325
44.8963 1082 32.8938
45.0136 1163 34.1028
45.1308 1156 34
45.2481 1181 34.3657
45.3654 1164 34.1174
45.4827 1208 34.7563
45.6001 1265 35.5668
45.7174 1179 34.3366
45.8348 1067 32.665
45.9522 1093 33.0606
46.0697 957 30.9354
46.1871 958 30.9516
46.3046 937 30.6105
46.422 1031 32.1092
46.5395 1122 33.4963
46.657 1120 33.4664
46.7745 1221 34.9428
46.892 1213 34.8281
47.0096 1146 33.8526
47.1271 1271 35.6511
47.2446 1231 35.0856
47.3622 1251 35.3695
47.4797 1257 35.4542
47.5973 1141 33.7787
47.7149 1161 34.0735
47.8324 1029 32.078
47.95 1057 32.5115
48.0675 1063 32.6037
48.1851 931 30.5123
48.3027 1077 32.8177
48.4202 1091 33.0303
48.5378 1187 34.4529
48.6554 1214 34.8425
48.7729 1242 35.242
48.8904 1233 35.1141
49.008 1259 35.4824
49.1255 1185 34.4238
49.243 1183 34.3948
49.3605 1090 33.0151
49.478 948 30.7896
49.5955 967 31.0966
49.713 863 29.3769
49.8304 1025 32.0156
49.9479 1039 32.2335
50.0653 1058 32.5269
50.1827 1089 33
50.3001 1144 33.8231
50.4175 1207 34.7419
50.5348 1135 33.6898
50.6521 1222 34.9571
50.7694 1275 35.7071
50.8867 1271 35.6511
51.004 1235 35.1426
51.1212 1260 35.4965
51.2384 1167 34.1614
51.3556 1153 33.9559
51.4727 1163 34.1028
51.5899 1123 33.5112
51.707 1060 32.5576
51.824 1225 35
51.9411 1300 36.0555
52.0581 1371 37.027
52.175 1479 38.4578
52.2919 1562 39.5221
52.4088 1606 40.0749
52.5257 1641 40.5093
52.6425 1711 41.3642
52.7593 1718 41.4488
52.876 1670 40.8656
52.9927 1589 39.8623
53.1094 1555 39.4335
53.226 1407 37.51
53.3426 1394 37.3363
53.4591 1395 37.3497
53.5756 1435 37.8814
53.692 1471 38.3536
53.8084 1443 37.9868
53.9248 1428 37.7889
54.0411 1384 37.2022
54.1573 1311 36.2077
54.2735 0 1
54.3896 0 1
54.5057 0 1
54.6217 0 1
54.7377 0 1
54.8537 0 1
54.9695 0 1
55.0853 0 1
55.2011 0 1
55.3168 0 1
55.4324 0 1
57.824 0 1
57.9396 0 1
58.0553 0 1
58.1711 0 1
58.2869 0 1
58.4028 0 1
58.5187 0 1
58.6347 0 1
58.7508 0 1
58.8669 0 1
58.983 1002 31.6544
59.0992 1086 32.9545
59.2155 1132 33.6452
59.3318 1288 35.8887
59.4482 1307 36.1525
59.5646 1407 37.51
59.681 1441 37.9605
59.7975 1467 38.3014
59.9141 1462 38.2361
60.0306 1423 37.7227
60.1473 1349 36.7287
60.2639 1368 36.9865
60.3807 1306 36.1386
60.4974 1281 35.7911
60.6142 1301 36.0694
60.731 1362 36.9053
60.8479 1485 38.5357
60.9648 1591 39.8873
61.0818 1569 39.6106
61.1987 1644 40.5463
61.3158 1534 39.1663
61.4328 1464 38.2623
61.5499 1377 37.108
61.667 1311 36.2077
61.7841 1262 35.5246
61.9013 1196 34.5832
62.0185 1147 33.8674
62.1357 1171 34.2199
62.253 1352 36.7696
62.3702 1386 37.229
62.4875 1439 37.9342
62.6049 1473 38.3797
62.7222 1456 38.1576
62.8396 1517 38.9487
62.9569 1507 38.8201
63.0743 1451 38.092
63.1918 1457 38.1707
63.3092 1410 37.55
63.4267 1460 38.2099
63.5441 1404 37.47
63.6616 1384 37.2022
63.7791 1261 35.5106
63.8966 1193 34.5398
64.0142 1239 35.1994
64.1317 1240 35.2136
64.2492 1331 36.4829
64.3668 1404 37.47
64.4843 1442 37.9737
64.6019 1475 38.4057
64.7195 1515 38.923
64.837 1466 38.2884
64.9546 1472 38.3667
65.0722 1432 37.8418
65.1898 1348 36.7151
65.3074 1138 33.7343
65.4249 1176 34.2929
65.5425 1103 33.2114
65.6601 1099 33.1512
65.7777 1255 35.426
65.8952 1310 36.1939
66.0128 1296 36
66.1304 1401 37.4299
66.2479 1430 37.8153
66.3655 1394 37.3363
66.483 1491 38.6135
66.6005 1486 38.5487
66.718 1456 38.1576
66.8355 1503 38.7685
66.953 1406 37.4967
67.0705 1381 37.1618
67.1879 1331 36.4829
67.3054 1300 36.0555
67.4228 1220 34.9285
67.5402 1154 33.9706
67.6576 1131 33.6303
67.7749 1210 34.7851
67.8923 1239 35.1994
68.0096 1333 36.5103
68.1269 1345 36.6742
68.2442 1484 38.5227
68.3614 1506 38.8072
68.4787 1364 36.9324
68.5958 1415 37.6165
68.713 1418 37.6563
68.8302 1255 35.426
68.9473 1181 34.3657
69.0643 1113 33.3617
69.1814 1058 32.5269
69.2984 1119 33.4515
69.4154 1155 33.9853
69.5323 1235 35.1426
69.6492 1367 36.973
69.7661 1290 35.9166
69.8829 1373 37.054
69.9997 1374 37.0675
70.1165 1324 36.3868
70.2332 1253 35.3977
70.3499 1268 35.609
70.4665 1217 34.8855
70.5831 1164 34.1174
70.6996 1072 32.7414
70.8161 994 31.5278
70.9326 917 30.282
71.049 810 28.4605
71.1653 673 25.9422
71.2817 565 23.7697
71.3979 506 22.4944
71.5141 500 22.3607
71.6303 492 22.1811
71.7464 458 21.4009
71.8624 0 1
71.9784 0 1
72.0944 0 1
72.2102 0 1
72.3261 0 1
72.4418 0 1
72.5575 0 1
72.6732 0 1
75.1054 0 1
75.2209 0 1
75.3365 0 1
75.4521 0 1
75.5678 0 1
75.6835 0 1
75.7993 0 1
75.9151 0 1
76.031 0 1
76.147 870 29.4958
76.263 909 30.1496
76.3791 865 29.4109
76.4952 912 30.1993
76.6113 914 30.2324
76.7276 930 30.4959
76.8438 1075 32.7872
76.9601 1232 35.0999
77.0765 1200 34.641
77.1929 1267 35.5949
77.3093 1300 36.0555
77.4258 1252 35.3836
77.5423 1250 35.3553
77.6589 1163 34.1028
77.7755 1131 33.6303
77.8921 1035 32.1714
78.0088 976 31.241
78.1256 891 29.8496
78.2423 887 29.7825
78.3591 879 29.6479
78.4759 994 31.5278
78.5928 1090 33.0151
78.7097 1139 33.7491
78.8266 1234 35.1283
78.9436 1215 34.8569
79.0606 1217 34.8855
79.1776 1225 35
79.2946 1257 35.4542
79.4117 1281 35.7911
79.5288 1192 34.5254
79.6459 1231 35.0856
79.7631 1237 35.171
79.8802 1187 34.4529
79.9974 1114 33.3766
80.1147 1114 33.3766
80.2319 996 31.5595
80.3491 968 31.1127
80.4664 1123 33.5112
80.5837 1108 33.2866
80.701 1148 33.8821
80.8183 1280 35.7771
80.9357 1242 35.242
81.053 1233 35.1141
81.1704 1290 35.9166
81.2877 1332 36.4966
81.4051 1255 35.426
81.5225 1181 34.3657
81.6399 1099 33.1512
81.7573 985 31.3847
81.8747 949 30.8058
81.9922 868 29.4618
82.1096 1030 32.0936
82.227 1071 32.7261
82.3444 1215 34.8569
82.4619 1254 35.4119
82.5793 1237 35.171
82.6967 1258 35.4683
82.8142 1267 35.5949
82.9316 1317 36.2905
83.049 1328 36.4417
83.1664 1276 35.7211
83.2838 1226 35.0143
83.4012 1239 35.1994
83.5186 1246 35.2987
83.636 1143 33.8083
83.7534 1123 33.5112
83.8708 1042 32.28
83.9881 977 31.257
84.1055 1076 32.8024
84.2228 1095 33.0908
84.3401 1185 34.4238
84.4575 1251 35.3695
84.5747 1314 36.2491
84.692 1275 35.7071
84.8093 1337 36.565
84.9265 1376 37.0945
85.0437 1260 35.4965
85.1609 1182 34.3802
85.2781 1043 32.2955
85.3952 939 30.6431
85.5123 869 29.4788
85.6294 946 30.7571
85.7465 1094 33.0757
85.8636 1123 33.5112
85.9806 1250 35.3553
86.0976 1250 35.3553
86.2145 1235 35.1426
86.3315 1313 36.2353
86.4484 1354 36.7967
86.5652 1345 36.6742
86.682 1340 36.606
86.7988 1347 36.7015
86.9156 1313 36.2353
87.0323 1325 36.4005
87.149 1196 34.5832
87.2657 1144 33.8231
87.3823 1080 32.8634
87.4988 910 30.1662
87.6154 861 29.3428
87.7318 890 29.8329
87.8483 945 30.7409
87.9647 1015 31.8591
88.081 1027 32.0468
88.1973 974 31.209
88.3136 969 31.1288
88.4298 949 30.8058
88.546 873 29.5466
88.6621 812 28.4956
88.7781 563 23.7276
88.8942 0 1
89.0101 0 1
89.126 0 1
89.2419 0 1
89.3577 0 1
89.4734 0 1
89.5891 0 1
89.7047 0 1
89.8203 0 1
89.9358 0 1
92.3269 0 1
92.4424 0 1
92.558 0 1
92.6736 0 1
92.7893 0 1
92.905 0 1
93.0208 0 1
93.1366 0 1
93.2525 0 1
93.3685 0 1
93.4845 0 1
93.6005 1001 31.6386
93.7167 1061 32.573
93.8328 1149 33.8969
93.949 1128 33.5857
94.0653 1178 34.322
94.1816 1165 34.1321
94.2979 1153 33.9559
94.4143 1042 32.28
94.5307 995 31.5436
94.6472 961 31
94.7637 981 31.3209
94.8803 1059 32.5423
94.9969 1178 34.322
95.1135 1186 34.4384
95.2302 1255 35.426
95.3469 1294 35.9722
95.4637 1280 35.7771
95.5805 1366 36.9594
95.6973 1289 35.9026
95.8142 1403 37.4566
95.9311 1319 36.318
96.048 1269 35.623
96.1649 1308 36.1663
96.2819 1307 36.1525
96.3989 1256 35.4401
96.516 1190 34.4964
96.633 1142 33.7935
96.7501 1085 32.9393
96.8673 1051 32.4191
96.9844 1162 34.0881
97.1016 1191 34.5109
97.2188 1262 35.5246
97.336 1354 36.7967
97.4532 1275 35.7071
97.5704 1368 36.9865
97.6877 1333 36.5103
97.805 1359 36.8646
97.9223 1256 35.4401
98.0396 1218 34.8999
98.1569 1053 32.45
98.2743 981 31.3209
98.3916 946 30.7571
98.509 1018 31.9061
98.6264 1139 33.7491
98.7438 1209 34.7707
98.8612 1312 36.2215
98.9786 1315 36.2629
99.096 1350 36.7423
99.2134 1385 37.2156
99.3308 1420 37.6829
99.4482 1443 37.9868
99.5656 1421 37.6962
99.6831 1383 37.1887
99.8005 1349 36.7287
99.9179 1463 38.2492
100.035 1252 35.3836
100.153 1199 34.6266
100.27 1206 34.7275
100.388 1138 33.7343
100.505 1229 35.0571
100.622 1264 35.5528
100.74 1354 36.7967
100.857 1385 37.2156
100.975 1431 37.8286
101.092 1438 37.921
101.209 1517 38.9487
101.327 1466 38.2884
101.444 1413 37.5899
101.561 1263 35.5387
101.679 1234 35.1283
101.796 1071 32.7261
101.913 1042 32.28
102.03 1054 32.4654
102.148 1179 34.3366
102.265 1216 34.8712
102.382 1339 36.5923
102.499 1404 37.47
102.616 1434 37.8682
102.733 1499 38.7169
102.851 1519 38.9744
102.968 1531 39.128
103.085 1527 39.0768
103.202 1474 38.3927
103.319 1385 37.2156
103.436 1431 37.8286
103.552 1461 38.223
103.669 1296 36
103.786 1197 34.5977
103.903 1158 34.0294
104.02 1211 34.7994
104.137 1339 36.5923
104.253 1394 37.3363
104.37 1546 39.3192
104.487 1563 39.5348
104.603 1568 39.598
104.72 1549 39.3573
104.836 1519 38.9744
104.953 1402 37.4433
105.069 1228 35.0428
105.186 1083 32.909
105.302 1050 32.4037
105.418 998 31.5911
105.535 967 31.0966
105.651 953 30.8707
105.767 983 31.3528
105.883 976 31.241
105.999 916 30.2655
106.115 0 1
106.231 0 1
106.347 0 1
106.463 0 1
106.579 0 1
106.694 0 1
106.81 0 1
106.926 0 1
107.041 0 1
107.157 0 1
109.576 0 1
109.692 0 1
109.807 0 1
109.923 0 1
110.039 0 1
110.155 0 1
110.27 0 1
110.386 0 1
110.502 0 1
110.618 612 24.7386
110.735 795 28.1957
110.851 955 30.9031
110.967 1022 31.9687
111.083 1129 33.6006
111.199 1225 35
111.316 1274 35.6931
111.432 1366 36.9594
111.549 1362 36.9053
111.665 1420 37.6829
111.782 1416 37.6298
111.898 1390 37.2827
112.015 1413 37.5899
112.132 1321 36.3456
112.248 1198 34.6121
112.365 1165 34.1321
112.482 1140 33.7639
112.599 1297 36.0139
112.716 1290 35.9166
112.832 1369 37
112.949 1414 37.6032
113.066 1491 38.6135
113.183 1469 38.3275
113.3 1402 37.4433
113.417 1414 37.6032
113.534 1312 36.2215
113.652 1280 35.7771
113.769 1136 33.7046
113.886 1043 32.2955
114.003 997 31.5753
114.12 1108 33.2866
114.238 1175 34.2783
114.355 1287 35.8748
114.472 1237 35.171
114.589 1480 38.4708
114.707 1361 36.8917
114.824 1427 37.7757
114.942 1458 38.1838
115.059 1462 38.2361
115.176 1515 38.923
115.294 1486 38.5487
115.411 1505 38.7943
115.529 1351 36.756
115.646 1319 36.318
115.764 1257 35.4542
115.881 1180 34.3511
115.999 1219 34.9142
116.116 1221 34.9428
116.234 1265 35.5668
116.351 1337 36.565
116.469 1448 38.0526
116.586 1463 38.2492
116.704 1452 38.1051
116.821 1452 38.1051
116.939 1499 38.7169
117.056 1450 38.0789
117.174 1311 36.2077
117.291 1221 34.9428
117.409 1121 33.4813
117.526 1069 32.6956
117.644 1077 32.8177
117.761 1130 33.6155
117.879 1244 35.2704
117.996 1340 36.606
118.114 1286 35.8608
118.231 1391 37.2961
118.349 1356 36.8239
118.466 1403 37.4566
118.584 1439 37.9342
118.701 1444 38
118.819 1458 38.1838
118.936 1357 36.8375
119.053 1410 37.55
119.171 1337 36.565
119.288 1265 35.5668
119.405 1237 35.171
119.523 1129 33.6006
119.64 1158 34.0294
119.757 1206 34.7275
119.875 1196 34.5832
119.992 1254 35.4119
120.109 1312 36.2215
120.226 1358 36.8511
120.343 1361 36.8917
120.46 1330 36.4692
120.578 1301 36.0694
120.695 1335 36.5377
120.812 1330 36.4692
120.929 1265 35.5668
121.046 1111 33.3317
121.163 976 31.241
121.279 996 31.5595
121.396 960 30.9839
121.513 1020 31.9374
121.63 1108 33.2866
121.747 1130 33.6155
121.863 1131 33.6303
121.98 1074 32.7719
122.097 1090 33.0151
122.213 1057 32.5115
122.33 1106 33.2566
122.446 1028 32.0624
122.563 934 30.5614
122.679 886 29.7658
122.795 908 30.133
122.912 790 28.1069
123.028 695 26.3629
123.144 633 25.1595
123.26 558 23.622
123.377 0 1
123.493 0 1
123.609 0 1
123.725 0 1
123.84 0 1
123.956 0 1
124.072 0 1
124.188 0 1
124.303 0 1
124.419 0 1
126.852 0 1
126.968 0 1
127.083 0 1
127.199 0 1
127.315 0 1
127.431 0 1
127.547 0 1
127.663 0 1
127.779 0 1
127.895 0 1
128.011 0 1
128.127 0 1
128.243 0 1
128.359 1204 34.6987
128.476 1310 36.1939
128.592 1197 34.5977
128.708 1206 34.7275
128.825 1183 34.3948
128.941 1283 35.819
129.058 1340 36.606
129.174 1446 38.0263
129.291 1534 39.1663
129.408 1487 38.5616
129.524 1369 37
129.641 1441 37.9605
129.758 1438 37.921
129.875 1427 37.7757
129.992 1229 35.0571
130.108 1244 35.2704
130.225 1074 32.7719
130.342 1066 32.6497
130.459 1149 33.8969
130.576 1292 35.9444
130.693 1199 34.6266
130.81 1259 35.4824
130.928 1345 36.6742
131.045 1375 37.081
131.162 1346 36.6879
131.279 1417 37.6431
131.396 1456 38.1576
131.513 1500 38.7298
131.631 1417 37.6431
131.748 1322 36.3593
131.865 1371 37.027
131.983 1370 37.0135
132.1 1369 37
132.217 1282 35.805
132.335 1280 35.7771
132.452 1252 35.3836
132.57 1345 36.6742
132.687 1481 38.4838
132.804 1357 36.8375
132.922 1376 37.0945
133.039 1441 37.9605
133.157 1520 38.9872
133.274 1395 37.3497
133.392 1454 38.1314
133.509 1293 35.9583
133.627 1227 35.0286
133.744 1099 33.1512
133.862 1123 33.5112
133.979 1107 33.2716
134.097 1147 33.8674
134.214 1239 35.1994
134.332 1353 36.7831
134.449 1337 36.565
134.567 1331 36.4829
134.684 1389 37.2693
134.802 1393 37.3229
134.919 1458 38.1838
135.037 1434 37.8682
135.154 1462 38.2361
135.272 1381 37.1618
135.389 1327 36.428
135.507 1362 36.9053
135.624 1304 36.1109
135.742 1177 34.3074
135.859 1319 36.318
135.977 1260 35.4965
136.094 1338 36.5787
136.211 1371 37.027
136.329 1469 38.3275
136.446 1509 38.8458
136.564 1475 38.4057
136.681 1462 38.2361
136.798 1441 37.9605
136.915 1491 38.6135
137.033 1414 37.6032
137.15 1253 35.3977
137.267 1206 34.7275
137.384 1215 34.8569
137.502 1136 33.7046
137.619 1089 33
137.736 1216 34.8712
137.853 1187 34.4529
137.97 1371 37.027
138.087 1384 37.2022
138.204 1372 37.0405
138.321 1366 36.9594
138.438 1431 37.8286
138.555 1489 38.5876
138.672 1476 38.4187
138.788 1416 37.6298
138.905 1344 36.6606
139.022 1270 35.6371
139.139 1224 34.9857
139.255 1094 33.0757
139.372 1042 32.28
139.488 922 30.3645
139.605 945 30.7409
139.721 936 30.5941
139.838 986 31.4006
139.954 944 30.7246
140.071 1002 31.6544
140.187 884 29.7321
140.303 850 29.1548
140.419 796 28.2135
140.535 750 27.3861
140.652 672 25.923
140.768 0 1
140.884 0 1
141 0 1
141.115 0 1
141.231 0 1
141.347 0 1
141.463 0 1
141.578 0 1
141.694 0 1
144.104 0 1
144.219 0 1
144.335 0 1
144.45 0 1
144.566 0 1
144.682 0 1
144.798 0 1
144.914 0 1
145.03 0 1
145.146 1082 32.8938
145.262 1092 33.0454
145.378 1074 32.7719
145.494 1199 34.6266
145.61 1186 34.4384
145.726 1095 33.0908
145.842 1086 32.9545
145.959 1005 31.7017
146.075 989 31.4484
146.192 964 31.0483
146.308 867 29.4449
146.425 890 29.8329
146.541 909 30.1496
146.658 976 31.241
146.774 1071 32.7261
146.891 1071 32.7261
147.008 1134 33.6749
147.125 1063 32.6037
147.241 1108 33.2866
147.358 1152 33.9411
147.475 1131 33.6303
147.592 1078 32.8329
147.709 1043 32.2955
147.826 1061 32.573
147.943 1018 31.9061
148.06 953 30.8707
148.177 967 31.0966
148.294 937 30.6105
148.411 1023 31.9844
148.528 983 31.3528
148.645 1077 32.8177
148.762 1168 34.176
148.88 1151 33.9264
148.997 1169 34.1906
149.114 1122 33.4963
149.231 1207 34.7419
149.349 1102 33.1964
149.466 1107 33.2716
149.583 1002 31.6544
149.701 944 30.7246
149.818 927 30.4467
149.935 876 29.5973
150.053 870 29.4958
150.17 950 30.8221
150.287 931 30.5123
150.405 1053 32.45
150.522 1005 31.7017
150.64 1033 32.1403
150.757 1029 32.078
150.875 1132 33.6452
150.992 1129 33.6006
151.11 1126 33.5559
151.227 1106 33.2566
151.344 1057 32.5115
151.462 951 30.8383
151.579 1022 31.9687
151.697 1048 32.3728
151.814 989 31.4484
151.932 961 31
152.049 938 30.6268
152.167 951 30.8383
152.284 1005 31.7017
152.402 1016 31.8748
152.519 1060 32.5576
152.636 1086 32.9545
152.754 1059 32.5423
152.871 1083 32.909
152.989 1044 32.311
153.106 921 30.348
153.223 940 30.6594
153.341 912 30.1993
153.458 833 28.8617
153.575 896 29.9333
153.693 824 28.7054
153.81 853 29.2062
153.927 911 30.1828
154.044 944 30.7246
154.162 1005 31.7017
154.279 860 29.3258
154.396 1012 31.8119
154.513 1114 33.3766
154.63 995 31.5436
154.747 953 30.8707
154.864 944 30.7246
154.981 1056 32.4962
155.098 944 30.7246
155.215 903 30.05
155.332 851 29.1719
155.449 866 29.4279
155.566 847 29.1033
155.683 872 29.5296
155.8 848 29.1204
155.917 947 30.7734
156.033 941 30.6757
156.15 0 1
156.267 0 1
156.383 0 1
156.5 0 1
156.617 0 1
156.733 0 1
156.85 0 1
156.966 0 1
157.082 0 1
157.199 0 1
157.315 0 1
157.431 0 1
157.547 0 1
157.664 0 1
157.78 0 1
157.896 0 1
158.012 0 1
158.128 0 1
158.244 0 1
158.359 0 1
158.475 0 1
158.591 0 1
158.706 0 1
