
6.15755 0 1
6.2731 0 1
6.3887 0 1
6.50437 0 1
6.62009 0 1
6.73587 0 1
6.8517 0 1
6.96759 0 1
7.08353 0 1
7.19952 0 1
7.31557 0 1
7.43166 0 1
7.54781 0 1
7.664 0 1
7.78024 0 1
7.89653 0 1
8.01286 0 1
8.12924 0 1
8.24567 0 1
8.36213 0 1
8.47864 0 1
8.59519 0 1
8.71178 0 1
8.82841 0 1
8.94508 0 1
9.06179 0 1
9.17853 0 1
9.29531 0 1
9.41212 0 1
9.52897 0 1
9.64584 0 1
9.76276 0 1
9.8797 0 1
9.99667 0 1
10.1137 0 1
10.2307 0 1
10.3478 0 1
10.4648 0 1
10.5819 0 1
10.6991 0 1
10.8162 0 1
10.9334 0 1
11.0506 0 1
11.1678 0 1
11.285 0 1
11.4023 0 1
11.5196 0 1
11.6369 0 1
11.7542 0 1
11.8715 0 1
11.9888 0 1
12.1062 0 1
12.2235 0 1
12.3409 0 1
12.4582 0 1
12.5756 0 1
12.693 0 1
12.8104 0 1
12.9278 0 1
13.0452 0 1
13.1626 0 1
13.28 0 1
13.3974 0 1
13.5149 0 1
13.6323 0 1
13.7497 0 1
13.8671 0 1
13.9845 0 1
14.1019 0 1
14.2193 0 1
14.3367 0 1
14.4541 0 1
14.5714 0 1
14.6888 0 1
14.8062 0 1
14.9235 0 1
15.0408 0 0
15.1581 0 0
15.2755 0 0
15.3927 0 0
15.51 0 0
15.6273 0 0
15.7445 0 0
15.8617 0 0
15.9789 0 0
16.0961 0 0
16.2132 0 0
16.3304 0 0
16.4475 0 0
16.5646 0 0
16.6816 0 0
16.7986 0 0
16.9156 0 0
17.0326 0 0
17.1496 0 0
17.2665 0 0
17.3833 0 0
17.5002 0 0
17.617 0 0
17.7338 0 0
17.8505 0 0
17.9672 0 0
18.0839 0 0
18.2005 0 0
18.3171 0 0
18.4337 0 0
18.5502 0 0
18.6666 0 0
18.7831 0 0
18.8994 0 0
19.0158 0 0
19.1321 0 0
19.2483 0 0
19.3645 0 0
19.4806 0 0
19.5967 0 0
19.7128 0 0
19.8288 0 0
19.9447 0 0
20.0606 0 1
20.1764 0 1
20.2922 0 1
20.4079 0 1
20.5236 0 1
20.6392 0 1
20.7548 0 1
20.8702 0 1
23.3078 0 1
23.4233 0 1
23.539 0 1
23.6547 0 1
23.7704 0 1
23.8862 0 1
24.0021 0 1
24.118 0 1
24.234 0 1
24.35 0 1
24.4661 26542 162.917
24.5822 26194 161.846
24.6984 26179 161.799
24.8146 26240 161.988
24.9309 26262 162.056
25.0472 26168 161.765
25.1636 25796 160.611
25.28 25929 161.025
25.3965 26039 161.366
25.513 26342 162.302
25.6296 26938 164.128
25.7462 27285 165.182
25.8628 27294 165.209
25.9795 27144 164.754
26.0962 27586 166.09
26.213 27505 165.846
26.3298 26940 164.134
26.4466 26628 163.181
26.5635 25860 160.81
26.6804 24625 156.924
26.7973 24666 157.054
26.9143 25853 160.789
27.0313 26772 163.622
27.1483 28026 167.41
27.2653 28099 167.628
27.3824 28516 168.867
27.4996 28106 167.648
27.6167 28637 169.225
27.7339 28170 167.839
27.8511 27535 165.937
27.9683 27482 165.777
28.0855 27120 164.682
28.2028 26211 161.898
28.3201 25413 159.415
28.4374 25126 158.512
28.5547 24795 157.464
28.6721 24324 155.962
28.7894 24212 155.602
28.9068 24385 156.157
29.0242 24273 155.798
29.1416 24421 156.272
29.259 23979 154.852
29.3764 24280 155.82
29.4939 24930 157.892
29.6113 24573 156.758
29.7288 24771 157.388
29.8463 25100 158.43
29.9638 24182 155.506
30.0812 23608 153.649
30.1987 22886 151.281
30.3162 22734 150.778
30.4337 23936 154.713
30.5512 25659 160.184
30.6687 26053 161.409
30.7862 26650 163.248
30.9037 26474 162.708
31.0212 27119 164.678
31.1387 26937 164.125
31.2562 26619 163.153
31.3737 26746 163.542
31.4912 26123 161.626
31.6087 25654 160.169
31.7262 24956 157.975
31.8436 24624 156.92
31.9611 24545 156.668
32.0785 23813 154.315
32.1959 23314 152.689
32.3134 23304 152.656
32.4308 23457 153.157
32.5482 23218 152.375
32.6655 23464 153.18
32.7829 23408 152.997
32.9002 23619 153.685
33.0176 23263 152.522
33.1349 23445 153.118
33.2522 24124 155.319
33.3694 24107 155.264
33.4867 24655 157.019
33.6039 23923 154.671
33.7211 23206 152.335
33.8383 22421 149.736
33.9554 22742 150.805
34.0725 23442 153.108
34.1896 24441 156.336
34.3067 25766 160.518
34.4237 25903 160.944
34.5407 26072 161.468
34.6577 26655 163.264
34.7746 26575 163.018
34.8915 25923 161.006
35.0084 26221 161.929
35.1252 26381 162.422
35.242 25785 160.577
35.3587 25341 159.189
35.4755 24709 157.191
35.5921 24047 155.071
35.7088 23583 153.568
35.8254 22502 150.007
35.9419 21790 147.614
36.0584 21787 147.604
36.1749 21965 148.206
36.2913 21662 147.18
36.4077 21815 147.699
36.524 21992 148.297
36.6403 22002 148.331
36.7565 22796 150.983
36.8727 22954 151.506
36.9889 23402 152.977
37.1049 22924 151.407
37.221 0 1
37.3369 0 1
37.4529 0 1
37.5687 0 1
37.6845 0 1
37.8003 0 1
37.916 0 1
38.0316 0 1
38.1472 0 1
40.5851 0 1
40.7008 0 1
40.8164 0 1
40.9322 0 1
41.048 0 1
41.1639 0 1
41.2798 0 1
41.3958 0 1
41.5118 0 1
41.6279 0 1
41.744 16303 127.683
41.8602 17109 130.801
41.9765 17612 132.71
42.0928 18119 134.607
42.2091 18495 135.996
42.3255 18780 137.04
42.4419 18265 135.148
42.5584 17580 132.59
42.675 16899 129.996
42.7915 16743 129.395
42.9081 17378 131.826
43.0248 18238 135.048
43.1415 18711 136.788
43.2582 18866 137.354
43.375 18851 137.299
43.4918 18910 137.514
43.6087 18981 137.772
43.7256 18579 136.305
43.8425 18173 134.807
43.9595 17845 133.585
44.0765 17527 132.39
44.1935 17434 132.038
44.3106 16548 128.639
44.4277 15990 126.452
44.5448 14825 121.758
44.6619 14066 118.6
44.7791 13467 116.047
44.8963 13133 114.599
45.0136 12857 113.389
45.1308 12775 113.027
45.2481 12770 113.004
45.3654 12984 113.947
45.4827 13131 114.591
45.6001 13572 116.499
45.7174 13738 117.209
45.8348 13890 117.856
45.9522 13641 116.795
46.0697 12992 113.982
46.1871 12425 111.467
46.3046 12019 109.631
46.422 12491 111.763
46.5395 13268 115.187
46.657 13576 116.516
46.7745 13644 116.808
46.892 13682 116.97
47.0096 13470 116.06
47.1271 13746 117.243
47.2446 13657 116.863
47.3622 13423 115.858
47.4797 13061 114.285
47.5973 12515 111.87
47.7149 12527 111.924
47.8324 11942 109.279
47.95 11504 107.257
48.0675 10542 102.674
48.1851 9964 99.8198
48.3027 9369 96.7936
48.4202 9209 95.9635
48.5378 8966 94.689
48.6554 9140 95.6033
48.7729 9050 95.1315
48.8904 9368 96.7884
49.008 9839 99.1917
49.1255 9815 99.0707
49.243 10329 101.632
49.3605 10257 101.277
49.478 9765 98.818
49.5955 9194 95.8853
49.713 9434 97.1288
49.8304 9421 97.0618
49.9479 9885 99.4233
50.0653 10694 103.412
50.1827 11344 106.508
50.3001 11839 108.807
50.4175 12203 110.467
50.5348 12623 112.352
50.6521 12774 113.022
50.7694 13082 114.377
50.8867 12994 113.991
51.004 13288 115.274
51.1212 13523 116.288
51.2384 13817 117.546
51.3556 13895 117.877
51.4727 13523 116.288
51.5899 12944 113.772
51.707 12499 111.799
51.824 12247 110.666
51.9411 12434 111.508
52.0581 12489 111.754
52.175 12922 113.675
52.2919 13583 116.546
52.4088 13810 117.516
52.5257 14606 120.855
52.6425 15300 123.693
52.7593 15669 125.176
52.876 16651 129.039
52.9927 16753 129.433
53.1094 16383 127.996
53.226 16122 126.972
53.3426 16498 128.445
53.4591 16742 129.391
53.5756 17374 131.81
53.692 18645 136.547
53.8084 19450 139.463
53.9248 19790 140.677
54.0411 20828 144.319
54.1573 21207 145.626
54.2735 0 1
54.3896 0 1
54.5057 0 1
54.6217 0 1
54.7377 0 1
54.8537 0 1
54.9695 0 1
55.0853 0 1
55.2011 0 1
55.3168 0 1
55.4324 0 1
57.824 0 1
57.9396 0 1
58.0553 0 1
58.1711 0 1
58.2869 0 1
58.4028 0 1
58.5187 0 1
58.6347 0 1
58.7508 0 1
58.8669 0 1
58.983 22424 149.746
59.0992 23646 153.773
59.2155 24045 155.065
59.3318 24470 156.429
59.4482 24906 157.816
59.5646 24802 157.487
59.681 24739 157.286
59.7975 24013 154.961
59.9141 23277 152.568
60.0306 22224 149.077
60.1473 20832 144.333
60.2639 19570 139.893
60.3807 18080 134.462
60.4974 17263 131.389
60.6142 16753 129.433
60.731 16814 129.669
60.8479 17154 130.973
60.9648 17724 133.132
61.0818 18441 135.798
61.1987 19132 138.318
61.3158 19556 139.843
61.4328 19763 140.581
61.5499 19461 139.503
61.667 19090 138.167
61.7841 18618 136.448
61.9013 19096 138.188
62.0185 18882 137.412
62.1357 19702 140.364
62.253 20408 142.857
62.3702 20814 144.271
62.4875 21629 147.068
62.6049 22021 148.395
62.7222 22928 151.42
62.8396 23310 152.676
62.9569 23590 153.59
63.0743 23573 153.535
63.1918 23325 152.725
63.3092 22753 150.841
63.4267 22441 149.803
63.5441 20990 144.879
63.6616 20047 141.587
63.7791 18558 136.228
63.8966 17681 132.97
64.0142 16625 128.938
64.1317 16491 128.417
64.2492 16866 129.869
64.3668 17484 132.227
64.4843 17980 134.09
64.6019 18535 136.143
64.7195 20058 141.626
64.837 20236 142.253
64.9546 20474 143.087
65.0722 20648 143.694
65.1898 20095 141.757
65.3074 20113 141.82
65.4249 19244 138.723
65.5425 19261 138.784
65.6601 19691 140.325
65.7777 20202 142.134
65.8952 21176 145.52
66.0128 21880 147.919
66.1304 22606 150.353
66.2479 23421 153.039
66.3655 23921 154.664
66.483 24309 155.913
66.6005 24375 156.125
66.718 24015 154.968
66.8355 23876 154.519
66.953 23382 152.912
67.0705 22160 148.862
67.1879 20944 144.72
67.3054 19418 139.348
67.4228 18132 134.655
67.5402 16640 128.996
67.6576 15839 125.853
67.7749 15546 124.684
67.8923 16390 128.023
68.0096 16644 129.012
68.1269 17413 131.958
68.2442 18674 136.653
68.3614 19610 140.036
68.4787 20006 141.443
68.5958 20152 141.958
68.713 19741 140.503
68.8302 19794 140.691
68.9473 19045 138.004
69.0643 18844 137.273
69.1814 18433 135.768
69.2984 18739 136.89
69.4154 19921 141.142
69.5323 20642 143.673
69.6492 21318 146.007
69.7661 22451 149.837
69.8829 23295 152.627
69.9997 23723 154.023
70.1165 24139 155.367
70.2332 24290 155.852
70.3499 24131 155.342
70.4665 23932 154.7
70.5831 23138 152.112
70.6996 21360 146.151
70.8161 19795 140.695
70.9326 18453 135.842
71.049 17502 132.295
71.1653 15766 125.563
71.2817 14872 121.951
71.3979 14341 119.754
71.5141 14617 120.901
71.6303 14271 119.461
71.7464 14267 119.445
71.8624 0 1
71.9784 0 1
72.0944 0 1
72.2102 0 1
72.3261 0 1
72.4418 0 1
72.5575 0 1
72.6732 0 1
75.1054 0 1
75.2209 0 1
75.3365 0 1
75.4521 0 1
75.5678 0 1
75.6835 0 1
75.7993 0 1
75.9151 0 1
76.031 0 1
76.147 18770 137.004
76.263 19038 137.978
76.3791 18158 134.752
76.4952 16641 129
76.6113 15323 123.786
76.7276 15166 123.15
76.8438 15155 123.106
76.9601 16203 127.291
77.0765 17109 130.801
77.1929 18408 135.676
77.3093 20020 141.492
77.4258 20794 144.201
77.5423 20890 144.534
77.6589 20482 143.115
77.7755 20234 142.246
77.8921 19686 140.307
78.0088 19037 137.975
78.1256 18506 136.037
78.2423 18157 134.748
78.3591 18494 135.993
78.4759 19353 139.115
78.5928 20312 142.52
78.7097 21453 146.468
78.8266 21499 146.625
78.9436 23510 153.33
79.0606 23121 152.056
79.1776 23270 152.545
79.2946 23882 154.538
79.4117 23415 153.02
79.5288 22866 151.215
79.6459 22116 148.714
79.7631 20325 142.566
79.8802 18508 136.044
79.9974 16789 129.572
80.1147 15238 123.442
80.2319 14045 118.512
80.3491 13464 116.034
80.4664 13617 116.692
80.5837 13924 118
80.701 14962 122.319
80.8183 15747 125.487
80.9357 16679 129.147
81.053 17690 133.004
81.1704 17887 133.742
81.2877 17436 132.045
81.4051 17209 131.183
81.5225 16742 129.391
81.6399 16402 128.07
81.7573 15892 126.063
81.8747 15295 123.673
81.9922 15737 125.447
82.1096 16603 128.853
82.227 17507 132.314
82.3444 18331 135.392
82.4619 19078 138.123
82.5793 19556 139.843
82.6967 19322 139.004
82.8142 19531 139.753
82.9316 19602 140.007
83.049 19411 139.323
83.1664 18889 137.437
83.2838 17682 132.974
83.4012 16250 127.475
83.5186 14853 121.873
83.636 13674 116.936
83.7534 12471 111.674
83.8708 11584 107.629
83.9881 11039 105.067
84.1055 11430 106.911
84.2228 11897 109.073
84.3401 12640 112.428
84.4575 13813 117.529
84.5747 15397 124.085
84.692 16304 127.687
84.8093 16080 126.807
84.9265 16071 126.771
85.0437 15501 124.503
85.1609 15372 123.984
85.2781 14873 121.955
85.3952 14807 121.684
85.5123 14873 121.955
85.6294 15525 124.599
85.7465 16351 127.871
85.8636 17661 132.895
85.9806 18781 137.044
86.0976 19613 140.046
86.2145 20422 142.906
86.3315 21435 146.407
86.4484 20703 143.885
86.5652 21612 147.01
86.682 21440 146.424
86.7988 20754 144.062
86.9156 19328 139.025
87.0323 17995 134.145
87.149 16776 129.522
87.2657 15576 124.804
87.3823 14079 118.655
87.4988 13189 114.843
87.6154 13452 115.983
87.7318 13972 118.203
87.8483 15231 123.414
87.9647 16758 129.453
88.081 18389 135.606
88.1973 19819 140.78
88.3136 20438 142.962
88.4298 20250 142.302
88.546 19436 139.413
88.6621 19343 139.079
88.7781 18851 137.299
88.8942 0 1
89.0101 0 1
89.126 0 1
89.2419 0 1
89.3577 0 1
89.4734 0 1
89.5891 0 1
89.7047 0 1
89.8203 0 1
89.9358 0 1
92.3269 0 1
92.4424 0 1
92.558 0 1
92.6736 0 1
92.7893 0 1
92.905 0 1
93.0208 0 1
93.1366 0 1
93.2525 0 1
93.3685 0 1
93.4845 0 1
93.6005 18878 137.397
93.7167 19754 140.549
93.8328 19937 141.198
93.949 19836 140.84
94.0653 19112 138.246
94.1816 19022 137.92
94.2979 18685 136.693
94.4143 18354 135.477
94.5307 18277 135.192
94.6472 18566 136.257
94.7637 19263 138.791
94.8803 20485 143.126
94.9969 21439 146.421
95.1135 22610 150.366
95.2302 23371 152.876
95.3469 23676 153.87
95.4637 23930 154.693
95.5805 24234 155.673
95.6973 24282 155.827
95.8142 23934 154.706
95.9311 23055 151.839
96.048 21783 147.591
96.1649 20398 142.822
96.2819 19154 138.398
96.3989 17669 132.925
96.516 16386 128.008
96.633 14875 121.963
96.7501 14137 118.899
96.8673 14726 121.351
96.9844 15972 126.38
97.1016 17080 130.69
97.2188 18513 136.062
97.336 20137 141.905
97.4532 20372 142.731
97.5704 20407 142.853
97.6877 20035 141.545
97.805 19181 138.495
97.9223 18561 136.239
98.0396 18533 136.136
98.1569 18440 135.794
98.2743 18466 135.89
98.3916 18916 137.535
98.509 19772 140.613
98.6264 21138 145.389
98.7438 21963 148.199
98.8612 23127 152.076
98.9786 24023 154.994
99.096 24310 155.917
99.2134 24579 156.777
99.3308 24901 157.801
99.4482 24377 156.131
99.5656 23505 153.313
99.6831 22357 149.523
99.8005 20851 144.399
99.9179 19502 139.65
100.035 17953 133.989
100.153 16112 126.933
100.27 15011 122.519
100.388 15238 123.442
100.505 16112 126.933
100.622 17430 132.023
100.74 18513 136.062
100.857 19848 140.883
100.975 20555 143.37
101.092 20729 143.976
101.209 20393 142.804
101.327 19917 141.128
101.444 19589 139.961
101.561 19800 140.712
101.679 19265 138.798
101.796 19697 140.346
101.913 19730 140.464
102.03 20572 143.429
102.148 22299 149.328
102.265 23028 151.75
102.382 25176 158.669
102.499 25013 158.155
102.616 25541 159.816
102.733 25801 160.627
102.851 26137 161.669
102.968 26151 161.713
103.085 25166 158.638
103.202 23728 154.039
103.319 22589 150.296
103.436 21337 146.072
103.552 19695 140.339
103.669 17866 133.664
103.786 16451 128.261
103.903 16334 127.805
104.02 17575 132.571
104.137 18945 137.641
104.253 20465 143.056
104.37 21527 146.721
104.487 22342 149.472
104.603 22638 150.459
104.72 21997 148.314
104.836 21705 147.326
104.953 21474 146.54
105.069 20984 144.859
105.186 21444 146.438
105.302 21589 146.932
105.418 22320 149.399
105.535 23399 152.967
105.651 24930 157.892
105.767 26816 163.756
105.883 27892 167.009
105.999 28539 168.935
106.115 0 1
106.231 0 1
106.347 0 1
106.463 0 1
106.579 0 1
106.694 0 1
106.81 0 1
106.926 0 1
107.041 0 1
107.157 0 1
109.576 0 1
109.692 0 1
109.807 0 1
109.923 0 1
110.039 0 1
110.155 0 1
110.27 0 1
110.386 0 1
110.502 0 1
110.618 21945 148.138
110.735 23799 154.269
110.851 25215 158.792
110.967 26037 161.36
111.083 26202 161.87
111.199 26361 162.361
111.316 26977 164.247
111.432 26875 163.936
111.549 26545 162.926
111.665 25614 160.044
111.782 24154 155.416
111.898 23078 151.914
112.015 21608 146.997
112.132 19744 140.513
112.248 17766 133.289
112.365 16733 129.356
112.482 15968 126.365
112.599 17682 132.974
112.716 19059 138.054
112.832 19814 140.762
112.949 20322 142.555
113.066 20614 143.576
113.183 20403 142.839
113.3 20236 142.253
113.417 19548 139.814
113.534 19891 141.035
113.652 19980 141.351
113.769 20022 141.499
113.886 20566 143.409
114.003 20802 144.229
114.12 21876 147.905
114.238 23263 152.522
114.355 24538 156.646
114.472 24684 157.111
114.589 26140 161.679
114.707 26051 161.403
114.824 26091 161.527
114.942 26448 162.628
115.059 26301 162.176
115.176 25656 160.175
115.294 24589 156.809
115.411 23383 152.915
115.529 22570 150.233
115.646 21185 145.551
115.764 19367 139.165
115.881 17903 133.802
115.999 17425 132.004
116.116 18151 134.726
116.234 19487 139.596
116.351 20555 143.37
116.469 21445 146.441
116.586 21483 146.571
116.704 21499 146.625
116.821 21231 145.709
116.939 20924 144.651
117.056 21010 144.948
117.174 20841 144.364
117.291 21035 145.034
117.409 22157 148.852
117.526 22447 149.823
117.644 23601 153.626
117.761 24810 157.512
117.879 25917 160.988
117.996 26085 161.509
118.114 27033 164.417
118.231 27322 165.294
118.349 27971 167.245
118.466 27953 167.192
118.584 28128 167.714
118.701 27619 166.19
118.819 27052 164.475
118.936 25646 160.144
119.053 24545 156.668
119.171 23419 153.033
119.288 22248 149.158
119.405 20407 142.853
119.523 18852 137.303
119.64 18412 135.691
119.757 18980 137.768
119.875 20110 141.81
119.992 20616 143.583
120.109 21244 145.753
120.226 21335 146.065
120.343 21255 145.791
120.46 21269 145.839
120.578 20850 144.395
120.695 21037 145.041
120.812 21291 145.914
120.929 21785 147.597
121.046 22494 149.98
121.163 22953 151.502
121.279 23576 153.545
121.396 24736 157.277
121.513 25524 159.762
121.63 26889 163.979
121.747 26986 164.274
121.863 27332 165.324
121.98 27361 165.412
122.097 27793 166.712
122.213 27316 165.276
122.33 27173 164.842
122.446 26468 162.69
122.563 25425 159.452
122.679 25039 158.237
122.795 23734 154.058
122.912 23092 151.961
123.028 21676 147.228
123.144 19866 140.947
123.26 18486 135.963
123.377 0 1
123.493 0 1
123.609 0 1
123.725 0 1
123.84 0 1
123.956 0 1
124.072 0 1
124.188 0 1
124.303 0 1
124.419 0 1
126.852 0 1
126.968 0 1
127.083 0 1
127.199 0 1
127.315 0 1
127.431 0 1
127.547 0 1
127.663 0 1
127.779 0 1
127.895 0 1
128.011 0 1
128.127 0 1
128.243 0 1
128.359 22803 151.007
128.476 21347 146.106
128.592 20825 144.309
128.708 21093 145.234
128.825 22444 149.813
128.941 23671 153.854
129.058 23812 154.311
129.174 23505 153.313
129.291 23186 152.269
129.408 22505 150.017
129.524 22579 150.263
129.641 22804 151.01
129.758 23233 152.424
129.875 23455 153.15
129.992 23888 154.557
130.108 24608 156.869
130.225 25013 158.155
130.342 26451 162.638
130.459 26824 163.78
130.576 27832 166.829
130.693 27960 167.212
130.81 28138 167.744
130.928 28009 167.359
131.045 27675 166.358
131.162 27916 167.081
131.279 28215 167.973
131.396 27574 166.054
131.513 26704 163.414
131.631 25689 160.278
131.748 24812 157.518
131.865 23545 153.444
131.983 21693 147.285
132.1 20876 144.485
132.217 21129 145.358
132.335 22016 148.378
132.452 23034 151.77
132.57 23361 152.843
132.687 22664 150.546
132.804 23548 153.454
132.922 22876 151.248
133.039 22615 150.383
133.157 22908 151.354
133.274 22878 151.255
133.392 23079 151.918
133.509 23589 153.587
133.627 24277 155.811
133.744 25025 158.193
133.862 26029 161.335
133.979 26325 162.25
134.097 26675 163.325
134.214 26649 163.245
134.332 27281 165.17
134.449 27195 164.909
134.567 27281 165.17
134.684 27038 164.432
134.802 27451 165.683
134.919 27443 165.659
135.037 27066 164.517
135.154 26314 162.216
135.272 25511 159.722
135.389 23891 154.567
135.507 22492 149.973
135.624 20900 144.568
135.742 21466 146.513
135.859 21664 147.187
135.977 22825 151.079
136.094 23989 154.884
136.211 23904 154.609
136.329 23705 153.964
136.446 23356 152.827
136.564 23326 152.729
136.681 22795 150.98
136.798 23486 153.251
136.915 23206 152.335
137.033 23654 153.799
137.15 23841 154.405
137.267 24450 156.365
137.384 25010 158.146
137.502 25673 160.228
137.619 26228 161.951
137.736 26477 162.718
137.853 26127 161.638
137.97 26921 164.076
138.087 26278 162.105
138.204 26905 164.027
138.321 27068 164.524
138.438 27341 165.351
138.555 27594 166.114
138.672 27078 164.554
138.788 26127 161.638
138.905 25543 159.822
139.022 24253 155.734
139.139 22938 151.453
139.255 21880 147.919
139.372 21844 147.797
139.488 22153 148.839
139.605 23323 152.719
139.721 24085 155.193
139.838 24252 155.731
139.954 23906 154.616
140.071 23267 152.535
140.187 23498 153.291
140.303 22702 150.672
140.419 22921 151.397
140.535 22541 150.137
140.652 22472 149.907
140.768 0 1
140.884 0 1
141 0 1
141.115 0 1
141.231 0 1
141.347 0 1
141.463 0 1
141.578 0 1
141.694 0 1
144.104 0 1
144.219 0 1
144.335 0 1
144.45 0 1
144.566 0 1
144.682 0 1
144.798 0 1
144.914 0 1
145.03 0 1
145.146 16383 127.996
145.262 17801 133.42
145.378 17728 133.147
145.494 18215 134.963
145.61 17932 133.91
145.726 18121 134.614
145.842 18341 135.429
145.959 18673 136.649
146.075 18531 136.129
146.192 19022 137.92
146.308 19270 138.816
146.425 19914 141.117
146.541 20049 141.594
146.658 19939 141.206
146.774 20100 141.774
146.891 20235 142.25
147.008 20532 143.29
147.125 20467 143.063
147.241 20784 144.167
147.358 21035 145.034
147.475 21076 145.176
147.592 20838 144.354
147.709 20737 144.003
147.826 19945 141.227
147.943 18852 137.303
148.06 17957 134.004
148.177 17170 131.034
148.294 17232 131.271
148.411 17944 133.955
148.528 19129 138.308
148.645 19404 139.298
148.762 19530 139.75
148.88 19022 137.92
148.997 18728 136.85
149.114 19003 137.851
149.231 18935 137.605
149.349 18659 136.598
149.466 18983 137.779
149.583 19037 137.975
149.701 19083 138.141
149.818 19410 139.32
149.935 19399 139.28
150.053 19780 140.641
150.17 19953 141.255
150.287 20438 142.962
150.405 20715 143.927
150.522 20441 142.972
150.64 20740 144.014
150.757 20810 144.257
150.875 21092 145.231
150.992 21018 144.976
151.11 21850 147.817
151.227 21950 148.155
151.344 21254 145.788
151.462 20819 144.288
151.579 20857 144.42
151.697 19607 140.025
151.814 18051 134.354
151.932 17685 132.985
152.049 18259 135.126
152.167 19082 138.138
152.284 19836 140.84
152.402 20225 142.215
152.519 20276 142.394
152.636 20298 142.471
152.754 20027 141.517
152.871 19884 141.011
152.989 20101 141.778
153.106 19854 140.904
153.223 20045 141.58
153.341 20207 142.151
153.458 20332 142.59
153.575 20649 143.698
153.693 21185 145.551
153.81 21544 146.779
153.927 21740 147.445
154.044 21969 148.219
154.162 22320 149.399
154.279 22409 149.696
154.396 22953 151.502
154.513 23633 153.73
154.63 23960 154.79
154.747 24228 155.653
154.864 24149 155.399
154.981 24133 155.348
155.098 23786 154.227
155.215 23209 152.345
155.332 21788 147.608
155.449 20825 144.309
155.566 21135 145.379
155.683 22412 149.706
155.8 22815 151.046
155.917 23190 152.283
156.033 23044 151.803
156.15 0 1
156.267 0 1
156.383 0 1
156.5 0 1
156.617 0 1
156.733 0 1
156.85 0 1
156.966 0 1
157.082 0 1
157.199 0 1
157.315 0 1
157.431 0 1
157.547 0 1
157.664 0 1
157.78 0 1
157.896 0 1
158.012 0 1
158.128 0 1
158.244 0 1
158.359 0 1
158.475 0 1
158.591 0 1
158.706 0 1
