
6.15755 0 1
6.2731 0 1
6.3887 0 1
6.50437 0 1
6.62009 0 1
6.73587 0 1
6.8517 0 1
6.96759 0 1
7.08353 0 1
7.19952 0 1
7.31557 0 1
7.43166 0 1
7.54781 0 1
7.664 0 1
7.78024 0 1
7.89653 0 1
8.01286 0 1
8.12924 0 1
8.24567 0 1
8.36213 0 1
8.47864 0 1
8.59519 0 1
8.71178 0 1
8.82841 0 1
8.94508 0 1
9.06179 0 1
9.17853 0 1
9.29531 0 1
9.41212 0 1
9.52897 0 1
9.64584 0 1
9.76276 0 1
9.8797 0 1
9.99667 0 1
10.1137 0 1
10.2307 0 1
10.3478 0 1
10.4648 0 1
10.5819 0 1
10.6991 0 1
10.8162 0 1
10.9334 0 1
11.0506 0 1
11.1678 0 1
11.285 0 1
11.4023 0 1
11.5196 0 1
11.6369 0 1
11.7542 0 1
11.8715 0 1
11.9888 0 1
12.1062 0 1
12.2235 0 1
12.3409 0 1
12.4582 0 1
12.5756 0 1
12.693 0 1
12.8104 0 1
12.9278 0 1
13.0452 0 1
13.1626 0 1
13.28 0 1
13.3974 0 1
13.5149 0 1
13.6323 0 1
13.7497 0 1
13.8671 0 1
13.9845 0 1
14.1019 0 1
14.2193 0 1
14.3367 0 1
14.4541 0 1
14.5714 0 1
14.6888 0 1
14.8062 0 1
14.9235 0 1
15.0408 4268 65.3299
15.1581 4423 66.5056
15.2755 4442 66.6483
15.3927 4379 66.174
15.51 4257 65.2457
15.6273 3992 63.1823
15.7445 3844 62
15.8617 3863 62.153
15.9789 4041 63.5689
16.0961 3978 63.0714
16.2132 3896 62.4179
16.3304 3710 60.9098
16.4475 3912 62.546
16.5646 3533 59.439
16.6816 3625 60.208
16.7986 3538 59.4811
16.9156 3493 59.1016
17.0326 3579 59.8247
17.1496 3557 59.6406
17.2665 3654 60.4483
17.3833 3645 60.3738
17.5002 3600 60
17.617 3674 60.6135
17.7338 3824 61.8385
17.8505 3729 61.0655
17.9672 3796 61.6117
18.0839 3855 62.0886
18.2005 3802 61.6604
18.3171 3806 61.6928
18.4337 3731 61.0819
18.5502 3824 61.8385
18.6666 3839 61.9597
18.7831 3819 61.7981
18.8994 3865 62.1691
19.0158 3539 59.4895
19.1321 3473 58.9322
19.2483 3457 58.7963
19.3645 3514 59.279
19.4806 3751 61.2454
19.5967 3906 62.498
19.7128 4079 63.867
19.8288 4068 63.7809
19.9447 3898 62.434
20.0606 0 1
20.1764 0 1
20.2922 0 1
20.4079 0 1
20.5236 0 1
20.6392 0 1
20.7548 0 1
20.8702 0 1
23.3078 0 1
23.4233 0 1
23.539 0 1
23.6547 0 1
23.7704 0 1
23.8862 0 1
24.0021 0 1
24.118 0 1
24.234 0 1
24.35 0 1
24.4661 3859 62.1208
24.5822 4523 67.2533
24.6984 5119 71.5472
24.8146 5443 73.7767
24.9309 5914 76.9025
25.0472 6231 78.9367
25.1636 6953 83.3847
25.28 8044 89.6883
25.3965 8961 94.6626
25.513 8999 94.8631
25.6296 8309 91.1537
25.7462 7452 86.325
25.8628 6998 83.654
25.9795 6453 80.3306
26.0962 6149 78.4156
26.213 5800 76.1577
26.3298 5426 73.6614
26.4466 4930 70.214
26.5635 4690 68.4836
26.6804 4561 67.5352
26.7973 4643 68.1396
26.9143 4667 68.3154
27.0313 4889 69.9214
27.1483 5054 71.0915
27.2653 5166 71.8749
27.3824 4901 70.0071
27.4996 4659 68.2569
27.6167 4242 65.1306
27.7339 3887 62.3458
27.8511 3774 61.4329
27.9683 3529 59.4054
28.0855 3421 58.4893
28.2028 3457 58.7963
28.3201 3619 60.1581
28.4374 3755 61.2781
28.5547 3798 61.6279
28.6721 3840 61.9677
28.7894 3802 61.6604
28.9068 3610 60.0833
29.0242 3640 60.3324
29.1416 3578 59.8164
29.259 3427 58.5406
29.3764 3566 59.716
29.4939 3443 58.6771
29.6113 3315 57.576
29.7288 3261 57.1052
29.8463 3324 57.6541
29.9638 3275 57.2276
30.0812 3176 56.356
30.1987 3102 55.6956
30.3162 3163 56.2406
30.4337 3066 55.3715
30.5512 3213 56.6833
30.6687 3278 57.2538
30.7862 3213 56.6833
30.9037 3425 58.5235
31.0212 3577 59.808
31.1387 3554 59.6154
31.2562 3473 58.9322
31.3737 3451 58.7452
31.4912 3250 57.0088
31.6087 3176 56.356
31.7262 3356 57.931
31.8436 3377 58.112
31.9611 3640 60.3324
32.0785 3585 59.8749
32.1959 3520 59.3296
32.3134 3376 58.1034
32.4308 3363 57.9914
32.5482 3325 57.6628
32.6655 3222 56.7627
32.7829 3087 55.5608
32.9002 3057 55.2901
33.0176 3093 55.6147
33.1349 3055 55.2721
33.2522 3028 55.0273
33.3694 3102 55.6956
33.4867 3007 54.8361
33.6039 3011 54.8726
33.7211 3024 54.9909
33.8383 2939 54.2125
33.9554 2881 53.6749
34.0725 2900 53.8516
34.1896 3035 55.0908
34.3067 2972 54.5161
34.4237 3040 55.1362
34.5407 3133 55.9732
34.6577 3122 55.8749
34.7746 3263 57.1227
34.8915 3254 57.0438
35.0084 3226 56.7979
35.1252 2884 53.7029
35.242 2826 53.1601
35.3587 2796 52.8772
35.4755 2907 53.9166
35.5921 3020 54.9545
35.7088 3099 55.6687
35.8254 2988 54.6626
35.9419 3113 55.7943
36.0584 2937 54.1941
36.1749 2979 54.5802
36.2913 2887 53.7308
36.4077 2653 51.5073
36.524 2705 52.0096
36.6403 2511 50.1099
36.7565 2474 49.7393
36.8727 2251 47.4447
36.9889 2095 45.7712
37.1049 1953 44.1928
37.221 0 1
37.3369 0 1
37.4529 0 1
37.5687 0 1
37.6845 0 1
37.8003 0 1
37.916 0 1
38.0316 0 1
38.1472 0 1
40.5851 0 1
40.7008 0 1
40.8164 0 1
40.9322 0 1
41.048 0 1
41.1639 0 1
41.2798 0 1
41.3958 0 1
41.5118 0 1
41.6279 0 1
41.744 1339 36.5923
41.8602 1511 38.8716
41.9765 1816 42.6146
42.0928 2011 44.8442
42.2091 2057 45.3542
42.3255 2091 45.7275
42.4419 2166 46.5403
42.5584 2360 48.5798
42.675 2400 48.9898
42.7915 2250 47.4342
42.9081 2205 46.9574
43.0248 2102 45.8476
43.1415 2137 46.2277
43.2582 2171 46.594
43.375 2281 47.7598
43.4918 2299 47.9479
43.6087 2312 48.0833
43.7256 2281 47.7598
43.8425 2292 47.8748
43.9595 2176 46.6476
44.0765 2116 46
44.1935 2109 45.9239
44.3106 2123 46.076
44.4277 2182 46.7119
44.5448 2239 47.3181
44.6619 2242 47.3498
44.7791 2424 49.2341
44.8963 2361 48.5901
45.0136 2350 48.4768
45.1308 2318 48.1456
45.2481 2356 48.5386
45.3654 2454 49.5379
45.4827 2348 48.4562
45.6001 2408 49.0714
45.7174 2409 49.0816
45.8348 2397 48.9592
45.9522 2406 49.051
46.0697 2347 48.4458
46.1871 2189 46.7868
46.3046 2080 45.607
46.422 2142 46.2817
46.5395 2003 44.7549
46.657 2039 45.1553
46.7745 2089 45.7056
46.892 2235 47.2758
47.0096 2259 47.5289
47.1271 2264 47.5815
47.2446 2240 47.3286
47.3622 2243 47.3603
47.4797 2288 47.833
47.5973 2208 46.9894
47.7149 2105 45.8803
47.8324 2080 45.607
47.95 2093 45.7493
48.0675 2153 46.4004
48.1851 2273 47.676
48.3027 2288 47.833
48.4202 2351 48.4871
48.5378 2403 49.0204
48.6554 2354 48.518
48.7729 2299 47.9479
48.8904 2296 47.9166
49.008 2312 48.0833
49.1255 2240 47.3286
49.243 2389 48.8774
49.3605 2262 47.5605
49.478 2227 47.1911
49.5955 2144 46.3033
49.713 2050 45.2769
49.8304 1995 44.6654
49.9479 1896 43.5431
50.0653 1890 43.4741
50.1827 1861 43.1393
50.3001 1958 44.2493
50.4175 2020 44.9444
50.5348 2221 47.1275
50.6521 2187 46.7654
50.7694 2160 46.4758
50.8867 2232 47.244
51.004 2278 47.7284
51.1212 2028 45.0333
51.2384 1962 44.2945
51.3556 2043 45.1996
51.4727 2138 46.2385
51.5899 2218 47.0956
51.707 2239 47.3181
51.824 2309 48.0521
51.9411 2223 47.1487
52.0581 2220 47.1169
52.175 2327 48.239
52.2919 2196 46.8615
52.4088 2231 47.2335
52.5257 2272 47.6655
52.6425 2236 47.2864
52.7593 2257 47.5079
52.876 2288 47.833
52.9927 2296 47.9166
53.1094 2175 46.6369
53.226 2088 45.6946
53.3426 2045 45.2217
53.4591 1987 44.5758
53.5756 1905 43.6463
53.692 1808 42.5206
53.8084 1773 42.107
53.9248 1705 41.2916
54.0411 1671 40.8779
54.1573 1544 39.2938
54.2735 0 1
54.3896 0 1
54.5057 0 1
54.6217 0 1
54.7377 0 1
54.8537 0 1
54.9695 0 1
55.0853 0 1
55.2011 0 1
55.3168 0 1
55.4324 0 1
57.824 0 1
57.9396 0 1
58.0553 0 1
58.1711 0 1
58.2869 0 1
58.4028 0 1
58.5187 0 1
58.6347 0 1
58.7508 0 1
58.8669 0 1
58.983 2434 49.3356
59.0992 3257 57.0701
59.2155 4209 64.8768
59.3318 5137 71.6729
59.4482 5879 76.6746
59.5646 6405 80.0312
59.681 6819 82.5772
59.7975 7097 84.2437
59.9141 7232 85.0412
60.0306 7119 84.3742
60.1473 7254 85.1704
60.2639 7472 86.4407
60.3807 7729 87.9147
60.4974 7803 88.3346
60.6142 7730 87.9204
60.731 7661 87.5271
60.8479 7723 87.8806
60.9648 7546 86.8677
61.0818 7438 86.2438
61.1987 7356 85.7671
61.3158 7172 84.6877
61.4328 7148 84.5458
61.5499 6799 82.456
61.667 6742 82.1097
61.7841 6346 79.6618
61.9013 6146 78.3964
62.0185 5485 74.0608
62.1357 4969 70.4911
62.253 4542 67.3944
62.3702 4545 67.4166
62.4875 4800 69.282
62.6049 5246 72.4293
62.7222 5403 73.5051
62.8396 5437 73.736
62.9569 5049 71.0563
63.0743 4860 69.7137
63.1918 4469 66.8506
63.3092 4137 64.3195
63.4267 3808 61.709
63.5441 3601 60.0083
63.6616 3302 57.463
63.7791 3121 55.8659
63.8966 3106 55.7315
64.0142 3036 55.0999
64.1317 2982 54.6077
64.2492 2842 53.3104
64.3668 2876 53.6284
64.4843 2637 51.3517
64.6019 2694 51.9038
64.7195 2692 51.8845
64.837 2711 52.0673
64.9546 2661 51.5849
65.0722 2778 52.7067
65.1898 2548 50.4777
65.3074 2639 51.3712
65.4249 2547 50.4678
65.5425 2442 49.4166
65.6601 2369 48.6724
65.7777 2258 47.5184
65.8952 2302 47.9792
66.0128 2401 49
66.1304 2502 50.02
66.2479 2515 50.1498
66.3655 2558 50.5767
66.483 2671 51.6817
66.6005 2791 52.8299
66.718 2840 53.2917
66.8355 2768 52.6118
66.953 2770 52.6308
67.0705 2720 52.1536
67.1879 2757 52.5071
67.3054 2640 51.3809
67.4228 2793 52.8488
67.5402 2739 52.3355
67.6576 2801 52.9245
67.7749 2806 52.9717
67.8923 3005 54.8179
68.0096 3011 54.8726
68.1269 3096 55.6417
68.2442 3166 56.2672
68.3614 3217 56.7186
68.4787 3227 56.8067
68.5958 3080 55.4977
68.713 2989 54.6717
68.8302 2915 53.9907
68.9473 2826 53.1601
69.0643 2665 51.6236
69.1814 2583 50.8232
69.2984 2524 50.2394
69.4154 2429 49.2849
69.5323 2405 49.0408
69.6492 2433 49.3254
69.7661 2496 49.96
69.8829 2571 50.705
69.9997 2597 50.9608
70.1165 2535 50.3488
70.2332 2529 50.2892
70.3499 2609 51.0784
70.4665 2409 49.0816
70.5831 2238 47.3075
70.6996 1956 44.2267
70.8161 1794 42.3556
70.9326 1686 41.0609
71.049 1612 40.1497
71.1653 1431 37.8286
71.2817 1404 37.47
71.3979 1437 37.9078
71.5141 1332 36.4966
71.6303 1169 34.1906
71.7464 1050 32.4037
71.8624 0 1
71.9784 0 1
72.0944 0 1
72.2102 0 1
72.3261 0 1
72.4418 0 1
72.5575 0 1
72.6732 0 1
75.1054 0 1
75.2209 0 1
75.3365 0 1
75.4521 0 1
75.5678 0 1
75.6835 0 1
75.7993 0 1
75.9151 0 1
76.031 0 1
76.147 1734 41.6413
76.263 1872 43.2666
76.3791 2032 45.0777
76.4952 2051 45.288
76.6113 2119 46.0326
76.7276 2162 46.4973
76.8438 2249 47.4236
76.9601 2236 47.2864
77.0765 2200 46.9042
77.1929 2168 46.5618
77.3093 2241 47.3392
77.4258 2270 47.6445
77.5423 2255 47.4868
77.6589 2107 45.9021
77.7755 2232 47.244
77.8921 2228 47.2017
78.0088 2125 46.0977
78.1256 2061 45.3982
78.2423 2013 44.8665
78.3591 1999 44.7102
78.4759 1990 44.6094
78.5928 2041 45.1774
78.7097 2024 44.9889
78.8266 2123 46.076
78.9436 2112 45.9565
79.0606 2109 45.9239
79.1776 2190 46.7974
79.2946 2289 47.8435
79.4117 2280 47.7493
79.5288 2287 47.8226
79.6459 2309 48.0521
79.7631 2251 47.4447
79.8802 2234 47.2652
79.9974 2273 47.676
80.1147 2186 46.7547
80.2319 2252 47.4552
80.3491 2364 48.621
80.4664 2254 47.4763
80.5837 2340 48.3735
80.701 2288 47.833
80.8183 2230 47.2229
80.9357 2305 48.0104
81.053 2273 47.676
81.1704 2246 47.392
81.2877 2266 47.6025
81.4051 2208 46.9894
81.5225 2258 47.5184
81.6399 2219 47.1063
81.7573 2124 46.0869
81.8747 2112 45.9565
81.9922 2027 45.0222
82.1096 2122 46.0652
82.227 2103 45.8585
82.3444 2096 45.7821
82.4619 2114 45.9783
82.5793 2106 45.8912
82.6967 2141 46.2709
82.8142 2173 46.6154
82.9316 2260 47.5395
83.049 2418 49.1732
83.1664 2413 49.1223
83.2838 2369 48.6724
83.4012 2362 48.6004
83.5186 2361 48.5901
83.636 2241 47.3392
83.7534 2255 47.4868
83.8708 2337 48.3425
83.9881 2370 48.6826
84.1055 2364 48.621
84.2228 2351 48.4871
84.3401 2331 48.2804
84.4575 2304 48
84.5747 2247 47.4025
84.692 2353 48.5077
84.8093 2251 47.4447
84.9265 2210 47.0106
85.0437 2223 47.1487
85.1609 2197 46.8722
85.2781 2171 46.594
85.3952 2043 45.1996
85.5123 2078 45.5851
85.6294 2194 46.8402
85.7465 2244 47.3709
85.8636 2222 47.1381
85.9806 2108 45.913
86.0976 2131 46.1628
86.2145 2172 46.6047
86.3315 2228 47.2017
86.4484 2323 48.1975
86.5652 2357 48.5489
86.682 2433 49.3254
86.7988 2399 48.9796
86.9156 2348 48.4562
87.0323 2381 48.7955
87.149 2307 48.0312
87.2657 2268 47.6235
87.3823 2212 47.0319
87.4988 2224 47.1593
87.6154 2247 47.4025
87.7318 2078 45.5851
87.8483 1893 43.5086
87.9647 1915 43.7607
88.081 1709 41.3401
88.1973 1673 40.9023
88.3136 1526 39.064
88.4298 1376 37.0945
88.546 1325 36.4005
88.6621 1177 34.3074
88.7781 1133 33.6601
88.8942 0 1
89.0101 0 1
89.126 0 1
89.2419 0 1
89.3577 0 1
89.4734 0 1
89.5891 0 1
89.7047 0 1
89.8203 0 1
89.9358 0 1
92.3269 0 1
92.4424 0 1
92.558 0 1
92.6736 0 1
92.7893 0 1
92.905 0 1
93.0208 0 1
93.1366 0 1
93.2525 0 1
93.3685 0 1
93.4845 0 1
93.6005 1910 43.7035
93.7167 1964 44.317
93.8328 2045 45.2217
93.949 2086 45.6727
94.0653 2210 47.0106
94.1816 2131 46.1628
94.2979 2087 45.6837
94.4143 2107 45.9021
94.5307 2121 46.0543
94.6472 2221 47.1275
94.7637 2203 46.9361
94.8803 2232 47.244
94.9969 2258 47.5184
95.1135 2299 47.9479
95.2302 2167 46.551
95.3469 2117 46.0109
95.4637 2201 46.9148
95.5805 2366 48.6415
95.6973 2340 48.3735
95.8142 2325 48.2183
95.9311 2315 48.1144
96.048 2297 47.927
96.1649 2353 48.5077
96.2819 2311 48.0729
96.3989 2280 47.7493
96.516 2370 48.6826
96.633 2298 47.9375
96.7501 2333 48.3011
96.8673 2386 48.8467
96.9844 2343 48.4045
97.1016 2348 48.4562
97.2188 2278 47.7284
97.336 2194 46.8402
97.4532 2223 47.1487
97.5704 2227 47.1911
97.6877 2127 46.1194
97.805 2162 46.4973
97.9223 2189 46.7868
98.0396 2123 46.076
98.1569 2183 46.7226
98.2743 2238 47.3075
98.3916 2352 48.4974
98.509 2448 49.4773
98.6264 2260 47.5395
98.7438 2330 48.2701
98.8612 2227 47.1911
98.9786 2278 47.7284
99.096 2394 48.9285
99.2134 2518 50.1797
99.3308 2541 50.4083
99.4482 2545 50.448
99.5656 2609 51.0784
99.6831 2501 50.01
99.8005 2449 49.4874
99.9179 2368 48.6621
100.035 2472 49.7192
100.153 2418 49.1732
100.27 2467 49.6689
100.388 2593 50.9215
100.505 2423 49.224
100.622 2443 49.4267
100.74 2478 49.7795
100.857 2193 46.8295
100.975 2317 48.1352
101.092 2277 47.7179
101.209 2285 47.8017
101.327 2157 46.4435
101.444 2175 46.6369
101.561 2256 47.4974
101.679 2317 48.1352
101.796 2229 47.2123
101.913 2299 47.9479
102.03 2437 49.366
102.148 2551 50.5074
102.265 2394 48.9285
102.382 2392 48.9081
102.499 2402 49.0102
102.616 2433 49.3254
102.733 2501 50.01
102.851 2458 49.5782
102.968 2601 51
103.085 2581 50.8035
103.202 2561 50.6063
103.319 2472 49.7192
103.436 2567 50.6656
103.552 2489 49.8899
103.669 2598 50.9706
103.786 2583 50.8232
103.903 2633 51.3128
104.02 2549 50.4876
104.137 2661 51.5849
104.253 2575 50.7445
104.37 2469 49.689
104.487 2511 50.1099
104.603 2349 48.4665
104.72 2227 47.1911
104.836 2255 47.4868
104.953 2144 46.3033
105.069 2078 45.5851
105.186 2073 45.5302
105.302 2007 44.7996
105.418 1933 43.9659
105.535 1884 43.4051
105.651 1731 41.6053
105.767 1664 40.7922
105.883 1411 37.5633
105.999 1330 36.4692
106.115 0 1
106.231 0 1
106.347 0 1
106.463 0 1
106.579 0 1
106.694 0 1
106.81 0 1
106.926 0 1
107.041 0 1
107.157 0 1
109.576 0 1
109.692 0 1
109.807 0 1
109.923 0 1
110.039 0 1
110.155 0 1
110.27 0 1
110.386 0 1
110.502 0 1
110.618 1287 35.8748
110.735 1644 40.5463
110.851 1822 42.6849
110.967 1947 44.1248
111.083 1985 44.5533
111.199 2055 45.3321
111.316 2155 46.422
111.432 2295 47.9062
111.549 2444 49.4368
111.665 2314 48.1041
111.782 2323 48.1975
111.898 2309 48.0521
112.015 2290 47.8539
112.132 2293 47.8853
112.248 2296 47.9166
112.365 2424 49.2341
112.482 2365 48.6313
112.599 2475 49.7494
112.716 2377 48.7545
112.832 2210 47.0106
112.949 2242 47.3498
113.066 2246 47.392
113.183 2117 46.0109
113.3 2176 46.6476
113.417 2106 45.8912
113.534 1947 44.1248
113.652 1966 44.3396
113.769 1949 44.1475
113.886 1956 44.2267
114.003 2072 45.5192
114.12 2132 46.1736
114.238 2148 46.3465
114.355 2245 47.3814
114.472 2125 46.0977
114.589 2154 46.4112
114.707 2105 45.8803
114.824 2076 45.5631
114.942 2222 47.1381
115.059 2164 46.5188
115.176 2136 46.2169
115.294 2076 45.5631
115.411 2119 46.0326
115.529 2059 45.3762
115.646 2097 45.793
115.764 2129 46.1411
115.881 2106 45.8912
115.999 2122 46.0652
116.116 2163 46.5081
116.234 2092 45.7384
116.351 2002 44.7437
116.469 1995 44.6654
116.586 1907 43.6692
116.704 1902 43.6119
116.821 1925 43.8748
116.939 1885 43.4166
117.056 1766 42.0238
117.174 1795 42.3674
117.291 1698 41.2068
117.409 1654 40.6694
117.526 1824 42.7083
117.644 1780 42.19
117.761 2020 44.9444
117.879 2020 44.9444
117.996 1979 44.486
118.114 1908 43.6807
118.231 1955 44.2154
118.349 1965 44.3283
118.466 2064 45.4313
118.584 1996 44.6766
118.701 1897 43.5546
118.819 1950 44.1588
118.936 1961 44.2832
119.053 1821 42.6732
119.171 1898 43.566
119.288 2009 44.8219
119.405 2013 44.8665
119.523 1987 44.5758
119.64 1938 44.0227
119.757 1987 44.5758
119.875 1922 43.8406
119.992 1900 43.589
120.109 1899 43.5775
120.226 1859 43.1161
120.343 1781 42.2019
120.46 1878 43.3359
120.578 1725 41.5331
120.695 1678 40.9634
120.812 1731 41.6053
120.929 1660 40.7431
121.046 1564 39.5474
121.163 1645 40.5586
121.279 1635 40.4351
121.396 1767 42.0357
121.513 1754 41.8808
121.63 1765 42.0119
121.747 1749 41.821
121.863 1698 41.2068
121.98 1670 40.8656
122.097 1524 39.0384
122.213 1503 38.7685
122.33 1552 39.3954
122.446 1519 38.9744
122.563 1312 36.2215
122.679 1223 34.9714
122.795 1091 33.0303
122.912 1101 33.1813
123.028 1115 33.3916
123.144 1116 33.4066
123.26 1008 31.749
123.377 0 1
123.493 0 1
123.609 0 1
123.725 0 1
123.84 0 1
123.956 0 1
124.072 0 1
124.188 0 1
124.303 0 1
124.419 0 1
126.852 0 1
126.968 0 1
127.083 0 1
127.199 0 1
127.315 0 1
127.431 0 1
127.547 0 1
127.663 0 1
127.779 0 1
127.895 0 1
128.011 0 1
128.127 0 1
128.243 0 1
128.359 2012 44.8553
128.476 2071 45.5082
128.592 2171 46.594
128.708 2175 46.6369
128.825 2226 47.1805
128.941 2218 47.0956
129.058 2158 46.4543
129.174 2161 46.4866
129.291 2225 47.1699
129.408 2165 46.5296
129.524 2039 45.1553
129.641 2027 45.0222
129.758 1982 44.5197
129.875 2029 45.0444
129.992 1918 43.795
130.108 1881 43.3705
130.225 1923 43.852
130.342 1969 44.3734
130.459 2141 46.2709
130.576 2315 48.1144
130.693 2355 48.5283
130.81 2424 49.2341
130.928 2562 50.6162
131.045 2539 50.3885
131.162 2616 51.1468
131.279 2726 52.2111
131.396 2751 52.45
131.513 2758 52.5167
131.631 2720 52.1536
131.748 2720 52.1536
131.865 2898 53.8331
131.983 3024 54.9909
132.1 3159 56.205
132.217 3308 57.5152
132.335 3435 58.6089
132.452 3634 60.2827
132.57 3711 60.918
132.687 3926 62.6578
132.804 4198 64.792
132.922 4275 65.3835
133.039 4526 67.2756
133.157 4557 67.5056
133.274 4646 68.1616
133.392 4568 67.587
133.509 4667 68.3154
133.627 4716 68.6731
133.744 4816 69.3974
133.862 4854 69.6707
133.979 4976 70.5408
134.097 5237 72.3671
134.214 5587 74.7462
134.332 5573 74.6525
134.449 5529 74.3572
134.567 5402 73.4983
134.684 5404 73.5119
134.802 5222 72.2634
134.919 5301 72.808
135.037 5235 72.3533
135.154 5303 72.8217
135.272 5397 73.4643
135.389 5222 72.2634
135.507 5607 74.8799
135.624 5860 76.5506
135.742 6021 77.5951
135.859 6000 77.4597
135.977 5964 77.2269
136.094 6078 77.9615
136.211 6053 77.801
136.329 6058 77.8332
136.446 6082 77.9872
136.564 5933 77.026
136.681 6134 78.3199
136.798 6047 77.7625
136.915 6062 77.8588
137.033 5983 77.3499
137.15 5958 77.1881
137.267 5804 76.184
137.384 5814 76.2496
137.502 5705 75.5315
137.619 5711 75.5712
137.736 6056 77.8203
137.853 5799 76.1512
137.97 6131 78.3007
138.087 6142 78.3709
138.204 5980 77.3305
138.321 5687 75.4122
138.438 5869 76.6094
138.555 5629 75.0267
138.672 5728 75.6836
138.788 5696 75.4718
138.905 5488 74.081
139.022 5597 74.8131
139.139 5792 76.1052
139.255 5836 76.3937
139.372 5934 77.0325
139.488 5597 74.8131
139.605 5050 71.0634
139.721 4561 67.5352
139.838 4368 66.0908
139.954 4068 63.7809
140.071 3925 62.6498
140.187 3681 60.6712
140.303 3641 60.3407
140.419 3377 58.112
140.535 3247 56.9825
140.652 3082 55.5158
140.768 0 1
140.884 0 1
141 0 1
141.115 0 1
141.231 0 1
141.347 0 1
141.463 0 1
141.578 0 1
141.694 0 1
144.104 0 1
144.219 0 1
144.335 0 1
144.45 0 1
144.566 0 1
144.682 0 1
144.798 0 1
144.914 0 1
145.03 0 1
145.146 4393 66.2797
145.262 4773 69.0869
145.378 4773 69.0869
145.494 4989 70.6329
145.61 4986 70.6116
145.726 4942 70.2994
145.842 4923 70.1641
145.959 4845 69.606
146.075 4722 68.7168
146.192 4664 68.2935
146.308 4555 67.4907
146.425 4655 68.2276
146.541 4869 69.7782
146.658 4967 70.4769
146.774 5038 70.9789
146.891 4914 70.0999
147.008 4874 69.814
147.125 4638 68.1029
147.241 4708 68.6149
147.358 4768 69.0507
147.475 4641 68.1249
147.592 4548 67.4389
147.709 4618 67.9559
147.826 4495 67.0448
147.943 4570 67.6018
148.06 4729 68.7677
148.177 4718 68.6877
148.294 4761 69
148.411 4794 69.2387
148.528 4940 70.2851
148.645 4855 69.6778
148.762 4864 69.7424
148.88 4790 69.2098
148.997 4887 69.9071
149.114 4679 68.4032
149.231 4816 69.3974
149.349 4777 69.1158
149.466 4680 68.4105
149.583 4730 68.775
149.701 4746 68.8912
149.818 4522 67.2458
149.935 4545 67.4166
150.053 4437 66.6108
150.17 4598 67.8086
150.287 4546 67.424
150.405 4549 67.4463
150.522 4741 68.8549
150.64 4585 67.7126
150.757 4349 65.9469
150.875 4529 67.2978
150.992 4344 65.909
151.11 4529 67.2978
151.227 4278 65.4064
151.344 4213 64.9076
151.462 4168 64.56
151.579 4211 64.8922
151.697 4563 67.55
151.814 4603 67.8454
151.932 4628 68.0294
152.049 4726 68.7459
152.167 4738 68.8331
152.284 4619 67.9632
152.402 4667 68.3154
152.519 4713 68.6513
152.636 4639 68.1102
152.754 4827 69.4766
152.871 4669 68.3301
152.989 4559 67.5204
153.106 4691 68.4909
153.223 4456 66.7533
153.341 4352 65.9697
153.458 4368 66.0908
153.575 4223 64.9846
153.693 4242 65.1306
153.81 4153 64.4438
153.927 4282 65.437
154.044 4389 66.2495
154.162 4205 64.846
154.279 4120 64.1872
154.396 4018 63.3877
154.513 4199 64.7997
154.63 4169 64.5678
154.747 4140 64.3428
154.864 4107 64.0859
154.981 3886 62.3378
155.098 3801 61.6523
155.215 3849 62.0403
155.332 3969 63
155.449 4204 64.8383
155.566 4255 65.2304
155.683 4231 65.0461
155.8 4267 65.3223
155.917 4368 66.0908
156.033 4270 65.3452
156.15 0 1
156.267 0 1
156.383 0 1
156.5 0 1
156.617 0 1
156.733 0 1
156.85 0 1
156.966 0 1
157.082 0 1
157.199 0 1
157.315 0 1
157.431 0 1
157.547 0 1
157.664 0 1
157.78 0 1
157.896 0 1
158.012 0 1
158.128 0 1
158.244 0 1
158.359 0 1
158.475 0 1
158.591 0 1
158.706 0 1
