
6.15755 0 1
6.2731 0 1
6.3887 0 1
6.50437 0 1
6.62009 0 1
6.73587 0 1
6.8517 0 1
6.96759 0 1
7.08353 0 1
7.19952 0 1
7.31557 0 1
7.43166 0 1
7.54781 0 1
7.664 0 1
7.78024 0 1
7.89653 0 1
8.01286 0 1
8.12924 0 1
8.24567 0 1
8.36213 0 1
8.47864 0 1
8.59519 0 1
8.71178 0 1
8.82841 0 1
8.94508 0 1
9.06179 0 1
9.17853 0 1
9.29531 0 1
9.41212 0 1
9.52897 0 1
9.64584 0 1
9.76276 0 1
9.8797 0 1
9.99667 0 1
10.1137 0 1
10.2307 0 1
10.3478 0 1
10.4648 0 1
10.5819 0 1
10.6991 0 1
10.8162 0 1
10.9334 0 1
11.0506 0 1
11.1678 0 1
11.285 0 1
11.4023 0 1
11.5196 0 1
11.6369 0 1
11.7542 0 1
11.8715 0 1
11.9888 0 1
12.1062 0 1
12.2235 0 1
12.3409 0 1
12.4582 0 1
12.5756 0 1
12.693 0 1
12.8104 0 1
12.9278 0 1
13.0452 0 1
13.1626 0 1
13.28 0 1
13.3974 0 1
13.5149 0 1
13.6323 0 1
13.7497 0 1
13.8671 0 1
13.9845 0 1
14.1019 0 1
14.2193 0 1
14.3367 0 1
14.4541 0 1
14.5714 0 1
14.6888 0 1
14.8062 0 1
14.9235 0 1
15.0408 0 0
15.1581 0 0
15.2755 0 0
15.3927 0 0
15.51 0 0
15.6273 0 0
15.7445 0 0
15.8617 0 0
15.9789 0 0
16.0961 0 0
16.2132 0 0
16.3304 0 0
16.4475 0 0
16.5646 0 0
16.6816 0 0
16.7986 0 0
16.9156 0 0
17.0326 0 0
17.1496 0 0
17.2665 0 0
17.3833 0 0
17.5002 0 0
17.617 0 0
17.7338 0 0
17.8505 0 0
17.9672 0 0
18.0839 0 0
18.2005 0 0
18.3171 0 0
18.4337 0 0
18.5502 0 0
18.6666 0 0
18.7831 0 0
18.8994 0 0
19.0158 0 0
19.1321 0 0
19.2483 0 0
19.3645 0 0
19.4806 0 0
19.5967 0 0
19.7128 0 0
19.8288 0 0
19.9447 0 0
20.0606 0 1
20.1764 0 1
20.2922 0 1
20.4079 0 1
20.5236 0 1
20.6392 0 1
20.7548 0 1
20.8702 0 1
23.3078 0 1
23.4233 0 1
23.539 0 1
23.6547 0 1
23.7704 0 1
23.8862 0 1
24.0021 0 1
24.118 0 1
24.234 0 1
24.35 0 1
24.4661 25045 158.256
24.5822 25404 159.386
24.6984 25543 159.822
24.8146 25441 159.502
24.9309 25290 159.028
25.0472 25052 158.278
25.1636 25000 158.114
25.28 24757 157.344
25.3965 25485 159.64
25.513 25590 159.969
25.6296 25839 160.745
25.7462 26426 162.561
25.8628 26502 162.794
25.9795 26436 162.592
26.0962 26345 162.311
26.213 26614 163.138
26.3298 26025 161.323
26.4466 25622 160.069
26.5635 24802 157.487
26.6804 23850 154.434
26.7973 24137 155.361
26.9143 24821 157.547
27.0313 25781 160.565
27.1483 26607 163.117
27.2653 27318 165.282
27.3824 27869 166.94
27.4996 27349 165.375
27.6167 27273 165.145
27.7339 26942 164.14
27.8511 26701 163.404
27.9683 26351 162.33
28.0855 25678 160.244
28.2028 25417 159.427
28.3201 24551 156.688
28.4374 24220 155.628
28.5547 23694 153.929
28.6721 23497 153.287
28.7894 23459 153.163
28.9068 23269 152.542
29.0242 23376 152.892
29.1416 23023 151.733
29.259 23656 153.805
29.3764 23289 152.607
29.4939 23421 153.039
29.6113 23757 154.133
29.7288 23716 154
29.8463 23877 154.522
29.9638 23456 153.154
30.0812 22562 150.207
30.1987 21788 147.608
30.3162 22268 149.225
30.4337 23238 152.44
30.5512 24263 155.766
30.6687 24749 157.318
30.7862 25726 160.393
30.9037 25629 160.091
31.0212 26399 162.478
31.1387 25730 160.406
31.2562 25749 160.465
31.3737 25317 159.113
31.4912 25244 158.884
31.6087 24800 157.48
31.7262 24426 156.288
31.8436 24079 155.174
31.9611 23497 153.287
32.0785 22978 151.585
32.1959 22480 149.933
32.3134 22152 148.835
32.4308 22360 149.533
32.5482 22284 149.278
32.6655 22444 149.813
32.7829 22608 150.36
32.9002 22302 149.339
33.0176 22642 150.473
33.1349 22572 150.24
33.2522 23174 152.23
33.3694 23316 152.696
33.4867 23315 152.693
33.6039 23372 152.879
33.7211 22334 149.446
33.8383 21728 147.404
33.9554 21557 146.823
34.0725 22697 150.655
34.1896 23776 154.195
34.3067 24316 155.936
34.4237 25012 158.152
34.5407 24917 157.851
34.6577 25388 159.336
34.7746 25239 158.868
34.8915 25229 158.836
35.0084 25047 158.262
35.1252 24806 157.499
35.242 24262 155.763
35.3587 24412 156.243
35.4755 23628 153.714
35.5921 22767 150.887
35.7088 22456 149.853
35.8254 21520 146.697
35.9419 21003 144.924
36.0584 21091 145.227
36.1749 20973 144.821
36.2913 20785 144.17
36.4077 20902 144.575
36.524 21063 145.131
36.6403 21102 145.265
36.7565 21633 147.082
36.8727 21809 147.679
36.9889 22195 148.98
37.1049 22119 148.725
37.221 0 1
37.3369 0 1
37.4529 0 1
37.5687 0 1
37.6845 0 1
37.8003 0 1
37.916 0 1
38.0316 0 1
38.1472 0 1
40.5851 0 1
40.7008 0 1
40.8164 0 1
40.9322 0 1
41.048 0 1
41.1639 0 1
41.2798 0 1
41.3958 0 1
41.5118 0 1
41.6279 0 1
41.744 15606 124.924
41.8602 16381 127.988
41.9765 16811 129.657
42.0928 17319 131.602
42.2091 17704 133.056
42.3255 17983 134.101
42.4419 17599 132.661
42.5584 16593 128.814
42.675 15982 126.42
42.7915 16117 126.953
42.9081 16638 128.988
43.0248 17286 131.476
43.1415 18104 134.551
43.2582 17940 133.94
43.375 18190 134.87
43.4918 18165 134.778
43.6087 18055 134.369
43.7256 17637 132.804
43.8425 17210 131.187
43.9595 17163 131.008
44.0765 16677 129.139
44.1935 16750 129.422
44.3106 15804 125.714
44.4277 15084 122.817
44.5448 14108 118.777
44.6619 13282 115.248
44.7791 12818 113.217
44.8963 12473 111.683
45.0136 12333 111.054
45.1308 12231 110.594
45.2481 12111 110.05
45.3654 12331 111.045
45.4827 12476 111.696
45.6001 12992 113.982
45.7174 12900 113.578
45.8348 13279 115.235
45.9522 12936 113.737
46.0697 12225 110.567
46.1871 11887 109.028
46.3046 11438 106.949
46.422 11769 108.485
46.5395 12453 111.593
46.657 12810 113.181
46.7745 13126 114.569
46.892 12952 113.807
47.0096 13091 114.416
47.1271 13152 114.682
47.2446 12822 113.234
47.3622 12522 111.902
47.4797 12175 110.34
47.5973 11935 109.247
47.7149 11776 108.517
47.8324 11551 107.476
47.95 10676 103.325
48.0675 9923 99.6143
48.1851 9418 97.0464
48.3027 8858 94.1169
48.4202 8503 92.2117
48.5378 8643 92.9677
48.6554 8614 92.8116
48.7729 8712 93.3381
48.8904 8908 94.3822
49.008 9344 96.6644
49.1255 9588 97.9183
49.243 9796 98.9747
49.3605 9613 98.0459
49.478 9517 97.5551
49.5955 9126 95.5301
49.713 8940 94.5516
49.8304 8911 94.3981
49.9479 9577 97.8621
50.0653 10054 100.27
50.1827 10940 104.594
50.3001 11175 105.712
50.4175 11603 107.717
50.5348 11956 109.343
50.6521 12139 110.177
50.7694 12375 111.243
50.8867 12634 112.401
51.004 12535 111.96
51.1212 13008 114.053
51.2384 13376 115.655
51.3556 13294 115.3
51.4727 12972 113.895
51.5899 12321 111
51.707 11764 108.462
51.824 11563 107.531
51.9411 11842 108.821
52.0581 11841 108.816
52.175 12241 110.639
52.2919 12738 112.863
52.4088 13452 115.983
52.5257 14066 118.6
52.6425 14759 121.487
52.7593 15340 123.855
52.876 15614 124.956
52.9927 16048 126.681
53.1094 15651 125.104
53.226 15563 124.752
53.3426 15554 124.716
53.4591 15916 126.159
53.5756 16697 129.217
53.692 17633 132.789
53.8084 18586 136.33
53.9248 19176 138.477
54.0411 19743 140.51
54.1573 20046 141.584
54.2735 0 1
54.3896 0 1
54.5057 0 1
54.6217 0 1
54.7377 0 1
54.8537 0 1
54.9695 0 1
55.0853 0 1
55.2011 0 1
55.3168 0 1
55.4324 0 1
57.824 0 1
57.9396 0 1
58.0553 0 1
58.1711 0 1
58.2869 0 1
58.4028 0 1
58.5187 0 1
58.6347 0 1
58.7508 0 1
58.8669 0 1
58.983 21239 145.736
59.0992 22518 150.06
59.2155 23062 151.862
59.3318 23688 153.909
59.4482 23665 153.834
59.5646 23925 154.677
59.681 23543 153.437
59.7975 23485 153.248
59.9141 22316 149.385
60.0306 21118 145.32
60.1473 19967 141.305
60.2639 18601 136.385
60.3807 17491 132.254
60.4974 16775 129.518
60.6142 16216 127.342
60.731 16032 126.618
60.8479 16080 126.807
60.9648 16896 129.985
61.0818 17215 131.206
61.1987 18112 134.581
61.3158 18521 136.092
61.4328 18934 137.601
61.5499 18760 136.967
61.667 18224 134.996
61.7841 18235 135.037
61.9013 18043 134.324
62.0185 18184 134.848
62.1357 18513 136.062
62.253 19349 139.101
62.3702 19798 140.705
62.4875 20660 143.736
62.6049 21113 145.303
62.7222 21873 147.895
62.8396 21861 147.855
62.9569 22664 150.546
63.0743 22593 150.31
63.1918 22346 149.486
63.3092 21959 148.186
63.4267 21488 146.588
63.5441 20368 142.717
63.6616 19135 138.329
63.7791 17800 133.417
63.8966 16582 128.771
64.0142 15832 125.825
64.1317 15869 125.972
64.2492 15703 125.312
64.3668 16158 127.114
64.4843 16944 130.169
64.6019 17720 133.116
64.7195 18831 137.226
64.837 19538 139.778
64.9546 19589 139.961
65.0722 19513 139.689
65.1898 19034 137.964
65.3074 19159 138.416
65.4249 18491 135.982
65.5425 18159 134.755
65.6601 18876 137.39
65.7777 19480 139.571
65.8952 20522 143.255
66.0128 21012 144.955
66.1304 21931 148.091
66.2479 22511 150.037
66.3655 22529 150.097
66.483 23181 152.253
66.6005 23484 153.245
66.718 23154 152.164
66.8355 22946 151.479
66.953 22675 150.582
67.0705 21317 146.003
67.1879 20009 141.453
67.3054 18946 137.644
67.4228 17267 131.404
67.5402 16068 126.76
67.6576 15315 123.754
67.7749 15005 122.495
67.8923 15459 124.334
68.0096 15731 125.423
68.1269 16718 129.298
68.2442 17620 132.74
68.3614 18781 137.044
68.4787 18991 137.808
68.5958 19133 138.322
68.713 19207 138.589
68.8302 18864 137.346
68.9473 18156 134.744
69.0643 18050 134.35
69.1814 17793 133.39
69.2984 17962 134.022
69.4154 18863 137.343
69.5323 19468 139.528
69.6492 20568 143.415
69.7661 21524 146.711
69.8829 22184 148.943
69.9997 22688 150.625
70.1165 22930 151.427
70.2332 22977 151.582
70.3499 23072 151.895
70.4665 22867 151.218
70.5831 22079 148.59
70.6996 20646 143.687
70.8161 18963 137.706
70.9326 17883 133.727
71.049 16409 128.098
71.1653 15103 122.894
71.2817 14129 118.865
71.3979 13708 117.081
71.5141 13684 116.979
71.6303 13781 117.393
71.7464 13497 116.177
71.8624 0 1
71.9784 0 1
72.0944 0 1
72.2102 0 1
72.3261 0 1
72.4418 0 1
72.5575 0 1
72.6732 0 1
75.1054 0 1
75.2209 0 1
75.3365 0 1
75.4521 0 1
75.5678 0 1
75.6835 0 1
75.7993 0 1
75.9151 0 1
76.031 0 1
76.147 17715 133.098
76.263 18173 134.807
76.3791 17337 131.67
76.4952 15974 126.388
76.6113 14577 120.735
76.7276 14465 120.271
76.8438 14424 120.1
76.9601 14962 122.319
77.0765 15975 126.392
77.1929 17345 131.7
77.3093 18729 136.854
77.4258 19730 140.464
77.5423 20068 141.662
77.6589 19851 140.894
77.7755 19305 138.942
77.8921 18773 137.015
78.0088 18219 134.978
78.1256 17769 133.3
78.2423 17535 132.42
78.3591 17546 132.461
78.4759 18127 134.637
78.5928 19215 138.618
78.7097 20228 142.225
78.8266 20299 142.475
78.9436 22776 150.917
79.0606 22032 148.432
79.1776 22055 148.509
79.2946 22334 149.446
79.4117 21951 148.159
79.5288 21424 146.369
79.6459 21273 145.853
79.7631 19653 140.189
79.8802 17559 132.51
79.9974 15980 126.412
80.1147 14463 120.262
80.2319 13173 114.774
80.3491 12719 112.779
80.4664 12455 111.602
80.5837 13280 115.239
80.701 13985 118.258
80.8183 14691 121.206
80.9357 15779 125.614
81.053 16406 128.086
81.1704 16861 129.85
81.2877 16369 127.941
81.4051 16329 127.785
81.5225 15763 125.551
81.6399 15748 125.491
81.7573 15094 122.858
81.8747 14530 120.54
81.9922 14792 121.622
82.1096 15547 124.688
82.227 16507 128.48
82.3444 17269 131.412
82.4619 18042 134.321
82.5793 18466 135.89
82.6967 18065 134.406
82.8142 18452 135.838
82.9316 18588 136.338
83.049 18339 135.422
83.1664 17888 133.746
83.2838 16848 129.8
83.4012 15521 124.583
83.5186 14149 118.95
83.636 12956 113.824
83.7534 11686 108.102
83.8708 10593 102.922
83.9881 10389 101.926
84.1055 10694 103.412
84.2228 10839 104.111
84.3401 11952 109.325
84.4575 12961 113.846
84.5747 14612 120.88
84.692 15481 124.423
84.8093 15531 124.623
84.9265 15291 123.657
85.0437 14603 120.843
85.1609 14365 119.854
85.2781 14261 119.419
85.3952 13997 118.309
85.5123 14147 118.941
85.6294 14844 121.836
85.7465 15461 124.342
85.8636 16801 129.619
85.9806 17682 132.974
86.0976 18599 136.378
86.2145 19647 140.168
86.3315 20567 143.412
86.4484 19615 140.054
86.5652 20243 142.278
86.682 20583 143.468
86.7988 19789 140.673
86.9156 18601 136.385
87.0323 17209 131.183
87.149 15870 125.976
87.2657 14666 121.103
87.3823 13377 115.659
87.4988 12407 111.387
87.6154 12694 112.668
87.7318 13602 116.628
87.8483 14446 120.192
87.9647 15758 125.531
88.081 16915 130.058
88.1973 18727 136.847
88.3136 19440 139.427
88.4298 19211 138.604
88.546 18560 136.235
88.6621 18295 135.259
88.7781 17940 133.94
88.8942 0 1
89.0101 0 1
89.126 0 1
89.2419 0 1
89.3577 0 1
89.4734 0 1
89.5891 0 1
89.7047 0 1
89.8203 0 1
89.9358 0 1
92.3269 0 1
92.4424 0 1
92.558 0 1
92.6736 0 1
92.7893 0 1
92.905 0 1
93.0208 0 1
93.1366 0 1
93.2525 0 1
93.3685 0 1
93.4845 0 1
93.6005 17738 133.184
93.7167 18628 136.484
93.8328 18921 137.554
93.949 18831 137.226
94.0653 18281 135.207
94.1816 18043 134.324
94.2979 17701 133.045
94.4143 17749 133.225
94.5307 17503 132.299
94.6472 17942 133.948
94.7637 18337 135.414
94.8803 18982 137.775
94.9969 20312 142.52
95.1135 21449 146.455
95.2302 22205 149.013
95.3469 22571 150.236
95.4637 22641 150.469
95.5805 22905 151.344
95.6973 23124 152.066
95.8142 22442 149.807
95.9311 22057 148.516
96.048 20834 144.34
96.1649 19570 139.893
96.2819 17918 133.858
96.3989 16595 128.822
96.516 15256 123.515
96.633 13812 117.524
96.7501 13460 116.017
96.8673 13932 118.034
96.9844 14917 122.135
97.1016 15952 126.301
97.2188 17604 132.68
97.336 19078 138.123
97.4532 19487 139.596
97.5704 19280 138.852
97.6877 18868 137.361
97.805 18284 135.218
97.9223 17774 133.319
98.0396 17547 132.465
98.1569 17444 132.076
98.2743 17207 131.175
98.3916 17949 133.974
98.509 18841 137.263
98.6264 19789 140.673
98.7438 21077 145.179
98.8612 22261 149.201
98.9786 22773 150.907
99.096 23214 152.361
99.2134 23084 151.934
99.3308 23216 152.368
99.4482 22944 151.473
99.5656 21995 148.307
99.6831 21251 145.777
99.8005 19854 140.904
99.9179 18271 135.17
100.035 16867 129.873
100.153 15529 124.615
100.27 14072 118.625
100.388 14415 120.062
100.505 15382 124.024
100.622 16290 127.632
100.74 17765 133.285
100.857 18581 136.312
100.975 19654 140.193
101.092 19584 139.943
101.209 19182 138.499
101.327 18856 137.317
101.444 18709 136.781
101.561 18570 136.272
101.679 18449 135.827
101.796 18204 134.922
101.913 18720 136.821
102.03 19418 139.348
102.148 20745 144.031
102.265 21377 146.209
102.382 23766 154.162
102.499 24195 155.547
102.616 24620 156.908
102.733 24475 156.445
102.851 24997 158.104
102.968 24697 157.153
103.085 24085 155.193
103.202 22594 150.313
103.319 21283 145.887
103.436 20463 143.049
103.552 18772 137.011
103.669 16531 128.573
103.786 15437 124.246
103.903 15589 124.856
104.02 16424 128.156
104.137 18128 134.64
104.253 19360 139.14
104.37 20625 143.614
104.487 21268 145.836
104.603 21409 146.318
104.72 20808 144.25
104.836 20335 142.601
104.953 20401 142.832
105.069 20282 142.415
105.186 20198 142.12
105.302 20510 143.213
105.418 21024 144.997
105.535 22320 149.399
105.651 23921 154.664
105.767 25522 159.756
105.883 26600 163.095
105.999 27053 164.478
106.115 0 1
106.231 0 1
106.347 0 1
106.463 0 1
106.579 0 1
106.694 0 1
106.81 0 1
106.926 0 1
107.041 0 1
107.157 0 1
109.576 0 1
109.692 0 1
109.807 0 1
109.923 0 1
110.039 0 1
110.155 0 1
110.27 0 1
110.386 0 1
110.502 0 1
110.618 20911 144.606
110.735 22658 150.526
110.851 24450 156.365
110.967 25025 158.193
111.083 25468 159.587
111.199 25446 159.518
111.316 25882 160.879
111.432 25665 160.203
111.549 25051 158.275
111.665 24179 155.496
111.782 22905 151.344
111.898 21467 146.516
112.015 20367 142.713
112.132 18556 136.22
112.248 16663 129.085
112.365 15538 124.652
112.482 15337 123.843
112.599 16852 129.815
112.716 17566 132.537
112.832 18712 136.792
112.949 19380 139.212
113.066 19730 140.464
113.183 19208 138.593
113.3 18985 137.786
113.417 18641 136.532
113.534 18499 136.011
113.652 18681 136.678
113.769 19057 138.047
113.886 19414 139.334
114.003 19422 139.363
114.12 20537 143.307
114.238 22079 148.59
114.355 23013 151.7
114.472 23662 153.825
114.589 24607 156.866
114.707 24260 155.756
114.824 24606 156.863
114.942 24878 157.728
115.059 25124 158.506
115.176 24047 155.071
115.294 23360 152.84
115.411 21819 147.713
115.529 21254 145.788
115.646 20065 141.651
115.764 18061 134.391
115.881 16865 129.865
115.999 16478 128.367
116.116 16788 129.569
116.234 18178 134.826
116.351 19343 139.079
116.469 20169 142.018
116.586 20138 141.908
116.704 20450 143.003
116.821 19995 141.404
116.939 19929 141.17
117.056 19809 140.744
117.174 19768 140.599
117.291 20277 142.397
117.409 20854 144.409
117.526 21295 145.928
117.644 22409 149.696
117.761 23348 152.801
117.879 24634 156.952
117.996 24984 158.063
118.114 25775 160.546
118.231 26255 162.034
118.349 26223 161.935
118.466 26319 162.231
118.584 26864 163.902
118.701 26439 162.601
118.819 25493 159.665
118.936 24303 155.894
119.053 23451 153.137
119.171 22072 148.566
119.288 21168 145.492
119.405 19066 138.08
119.523 17899 133.787
119.64 17678 132.959
119.757 17619 132.737
119.875 19110 138.239
119.992 19839 140.851
120.109 20146 141.937
120.226 19986 141.372
120.343 20107 141.799
120.46 20003 141.432
120.578 19730 140.464
120.695 19686 140.307
120.812 20251 142.306
120.929 20602 143.534
121.046 21139 145.393
121.163 21580 146.901
121.279 22551 150.17
121.396 23368 152.866
121.513 24305 155.901
121.63 25445 159.515
121.747 25329 159.151
121.863 25972 161.158
121.98 26140 161.679
122.097 26448 162.628
122.213 26116 161.604
122.33 25841 160.751
122.446 25009 158.142
122.563 24009 154.948
122.679 23829 154.366
122.795 23025 151.74
122.912 21907 148.01
123.028 20631 143.635
123.144 18626 136.477
123.26 17581 132.593
123.377 0 1
123.493 0 1
123.609 0 1
123.725 0 1
123.84 0 1
123.956 0 1
124.072 0 1
124.188 0 1
124.303 0 1
124.419 0 1
126.852 0 1
126.968 0 1
127.083 0 1
127.199 0 1
127.315 0 1
127.431 0 1
127.547 0 1
127.663 0 1
127.779 0 1
127.895 0 1
128.011 0 1
128.127 0 1
128.243 0 1
128.359 21860 147.851
128.476 20378 142.752
128.592 19713 140.403
128.708 20023 141.503
128.825 21323 146.024
128.941 22033 148.435
129.058 22567 150.223
129.174 22498 149.993
129.291 22145 148.812
129.408 21440 146.424
129.524 21156 145.451
129.641 21336 146.068
129.758 21858 147.845
129.875 22429 149.763
129.992 22795 150.98
130.108 23492 153.271
130.225 24095 155.226
130.342 25450 159.531
130.459 25457 159.552
130.576 26619 163.153
130.693 26173 161.781
130.81 26187 161.824
130.928 26564 162.985
131.045 26544 162.923
131.162 26606 163.113
131.279 26696 163.389
131.396 25888 160.897
131.513 25563 159.884
131.631 24230 155.66
131.748 23369 152.869
131.865 22173 148.906
131.983 20431 142.937
132.1 19926 141.159
132.217 19693 140.332
132.335 20686 143.826
132.452 22165 148.879
132.57 21767 147.536
132.687 21670 147.207
132.804 22112 148.701
132.922 21523 146.707
133.039 21001 144.917
133.157 21356 146.137
133.274 21750 147.479
133.392 21864 147.865
133.509 22293 149.308
133.627 22628 150.426
133.744 23465 153.183
133.862 24191 155.535
133.979 24777 157.407
134.097 25241 158.874
134.214 25284 159.009
134.332 25693 160.29
134.449 25546 159.831
134.567 25662 160.194
134.684 26104 161.567
134.802 25978 161.177
134.919 26052 161.406
135.037 25519 159.747
135.154 24687 157.121
135.272 23929 154.69
135.389 22914 151.374
135.507 21286 145.897
135.624 19880 140.996
135.742 20152 141.958
135.859 20877 144.489
135.977 22074 148.573
136.094 22234 149.111
136.211 22548 150.16
136.329 22237 149.121
136.446 22117 148.718
136.564 21838 147.777
136.681 21659 147.17
136.798 22097 148.651
136.915 22005 148.341
137.033 22118 148.721
137.15 22854 151.175
137.267 23013 151.7
137.384 23809 154.302
137.502 24206 155.583
137.619 24847 157.629
137.736 24963 157.997
137.853 24790 157.448
137.97 24805 157.496
138.087 24715 157.21
138.204 25675 160.234
138.321 25559 159.872
138.438 25744 160.449
138.555 25989 161.211
138.672 25777 160.552
138.788 24931 157.896
138.905 24391 156.176
139.022 23108 152.013
139.139 21651 147.143
139.255 20456 143.024
139.372 20488 143.136
139.488 21215 145.654
139.605 22266 149.218
139.721 23262 152.519
139.838 23078 151.914
139.954 22673 150.576
140.071 21955 148.172
140.187 21887 147.943
140.303 21506 146.649
140.419 21632 147.078
140.535 21425 146.373
140.652 21243 145.75
140.768 0 1
140.884 0 1
141 0 1
141.115 0 1
141.231 0 1
141.347 0 1
141.463 0 1
141.578 0 1
141.694 0 1
144.104 0 1
144.219 0 1
144.335 0 1
144.45 0 1
144.566 0 1
144.682 0 1
144.798 0 1
144.914 0 1
145.03 0 1
145.146 15504 124.515
145.262 16648 129.027
145.378 17242 131.309
145.494 17174 131.05
145.61 17275 131.434
145.726 17385 131.852
145.842 17235 131.282
145.959 17315 131.586
146.075 17762 133.274
146.192 18413 135.695
146.308 18535 136.143
146.425 18751 136.934
146.541 19323 139.007
146.658 19319 138.993
146.774 19206 138.586
146.891 19452 139.47
147.008 19701 140.36
147.125 19360 139.14
147.241 20051 141.602
147.358 20152 141.958
147.475 20236 142.253
147.592 20133 141.891
147.709 19780 140.641
147.826 19389 139.244
147.943 18200 134.907
148.06 17537 132.427
148.177 16751 129.426
148.294 16519 128.526
148.411 17326 131.628
148.528 18315 135.333
148.645 18651 136.569
148.762 18891 137.445
148.88 18348 135.455
148.997 17782 133.349
149.114 18261 135.133
149.231 17954 133.993
149.349 17795 133.398
149.466 18577 136.297
149.583 18301 135.281
149.701 18181 134.837
149.818 18466 135.89
149.935 18218 134.974
150.053 18671 136.642
150.17 19503 139.653
150.287 19700 140.357
150.405 19891 141.035
150.522 19928 141.167
150.64 20192 142.099
150.757 20485 143.126
150.875 20430 142.934
150.992 20944 144.72
151.11 20985 144.862
151.227 20901 144.572
151.344 20941 144.71
151.462 19840 140.855
151.579 19983 141.361
151.697 18624 136.47
151.814 17667 132.917
151.932 17132 130.889
152.049 17665 132.91
152.167 18677 136.664
152.284 19299 138.921
152.402 19475 139.553
152.519 19602 140.007
152.636 19430 139.392
152.754 19281 138.856
152.871 19104 138.217
152.989 19245 138.726
153.106 19159 138.416
153.223 19128 138.304
153.341 19524 139.728
153.458 19687 140.31
153.575 19809 140.744
153.693 20034 141.542
153.81 20826 144.312
153.927 20990 144.879
154.044 21115 145.31
154.162 21563 146.843
154.279 22135 148.778
154.396 22183 148.94
154.513 22597 150.323
154.63 22983 151.601
154.747 23247 152.47
154.864 23494 153.278
154.981 23555 153.476
155.098 22941 151.463
155.215 22534 150.113
155.332 21113 145.303
155.449 20204 142.141
155.566 20442 142.976
155.683 21833 147.76
155.8 22377 149.589
155.917 22456 149.853
156.033 22038 148.452
156.15 0 1
156.267 0 1
156.383 0 1
156.5 0 1
156.617 0 1
156.733 0 1
156.85 0 1
156.966 0 1
157.082 0 1
157.199 0 1
157.315 0 1
157.431 0 1
157.547 0 1
157.664 0 1
157.78 0 1
157.896 0 1
158.012 0 1
158.128 0 1
158.244 0 1
158.359 0 1
158.475 0 1
158.591 0 1
158.706 0 1
