
6.15755 0 1
6.2731 0 1
6.3887 0 1
6.50437 0 1
6.62009 0 1
6.73587 0 1
6.8517 0 1
6.96759 0 1
7.08353 0 1
7.19952 0 1
7.31557 0 1
7.43166 0 1
7.54781 0 1
7.664 0 1
7.78024 0 1
7.89653 0 1
8.01286 0 1
8.12924 0 1
8.24567 0 1
8.36213 0 1
8.47864 0 1
8.59519 0 1
8.71178 0 1
8.82841 0 1
8.94508 0 1
9.06179 0 1
9.17853 0 1
9.29531 0 1
9.41212 0 1
9.52897 0 1
9.64584 0 1
9.76276 0 1
9.8797 0 1
9.99667 0 1
10.1137 0 1
10.2307 0 1
10.3478 0 1
10.4648 0 1
10.5819 0 1
10.6991 0 1
10.8162 0 1
10.9334 0 1
11.0506 0 1
11.1678 0 1
11.285 0 1
11.4023 0 1
11.5196 0 1
11.6369 0 1
11.7542 0 1
11.8715 0 1
11.9888 0 1
12.1062 0 1
12.2235 0 1
12.3409 0 1
12.4582 0 1
12.5756 0 1
12.693 0 1
12.8104 0 1
12.9278 0 1
13.0452 0 1
13.1626 0 1
13.28 0 1
13.3974 0 1
13.5149 0 1
13.6323 0 1
13.7497 0 1
13.8671 0 1
13.9845 0 1
14.1019 0 1
14.2193 0 1
14.3367 0 1
14.4541 0 1
14.5714 0 1
14.6888 0 1
14.8062 0 1
14.9235 0 1
15.0408 689 26.2488
15.1581 739 27.1846
15.2755 720 26.8328
15.3927 734 27.0924
15.51 712 26.6833
15.6273 691 26.2869
15.7445 687 26.2107
15.8617 703 26.5141
15.9789 685 26.1725
16.0961 708 26.6083
16.2132 755 27.4773
16.3304 801 28.3019
16.4475 767 27.6948
16.5646 868 29.4618
16.6816 759 27.55
16.7986 808 28.4253
16.9156 810 28.4605
17.0326 801 28.3019
17.1496 813 28.5132
17.2665 789 28.0891
17.3833 776 27.8568
17.5002 792 28.1425
17.617 838 28.9482
17.7338 816 28.5657
17.8505 828 28.775
17.9672 836 28.9137
18.0839 839 28.9655
18.2005 908 30.133
18.3171 923 30.3809
18.4337 918 30.2985
18.5502 932 30.5287
18.6666 924 30.3974
18.7831 883 29.7153
18.8994 929 30.4795
19.0158 955 30.9031
19.1321 900 30
19.2483 858 29.2916
19.3645 833 28.8617
19.4806 868 29.4618
19.5967 936 30.5941
19.7128 916 30.2655
19.8288 961 31
19.9447 818 28.6007
20.0606 0 1
20.1764 0 1
20.2922 0 1
20.4079 0 1
20.5236 0 1
20.6392 0 1
20.7548 0 1
20.8702 0 1
23.3078 0 1
23.4233 0 1
23.539 0 1
23.6547 0 1
23.7704 0 1
23.8862 0 1
24.0021 0 1
24.118 0 1
24.234 0 1
24.35 0 1
24.4661 892 29.8664
24.5822 886 29.7658
24.6984 903 30.05
24.8146 986 31.4006
24.9309 939 30.6431
25.0472 991 31.4802
25.1636 982 31.3369
25.28 1034 32.1559
25.3965 1027 32.0468
25.513 985 31.3847
25.6296 1033 32.1403
25.7462 988 31.4325
25.8628 983 31.3528
25.9795 993 31.5119
26.0962 930 30.4959
26.213 924 30.3974
26.3298 999 31.607
26.4466 1031 32.1092
26.5635 1047 32.3574
26.6804 1108 33.2866
26.7973 1112 33.3467
26.9143 1070 32.7109
27.0313 1110 33.3167
27.1483 1130 33.6155
27.2653 1162 34.0881
27.3824 1131 33.6303
27.4996 1134 33.6749
27.6167 1100 33.1662
27.7339 1045 32.3265
27.8511 1075 32.7872
27.9683 1014 31.8434
28.0855 1000 31.6228
28.2028 931 30.5123
28.3201 965 31.0644
28.4374 1057 32.5115
28.5547 1078 32.8329
28.6721 1081 32.8786
28.7894 1127 33.5708
28.9068 1058 32.5269
29.0242 980 31.305
29.1416 1041 32.2645
29.259 971 31.1609
29.3764 967 31.0966
29.4939 955 30.9031
29.6113 967 31.0966
29.7288 981 31.3209
29.8463 1082 32.8938
29.9638 1066 32.6497
30.0812 1013 31.8277
30.1987 1112 33.3467
30.3162 1132 33.6452
30.4337 1065 32.6343
30.5512 1133 33.6601
30.6687 1187 34.4529
30.7862 1137 33.7194
30.9037 1209 34.7707
31.0212 1221 34.9428
31.1387 1201 34.6554
31.2562 1142 33.7935
31.3737 1112 33.3467
31.4912 1031 32.1092
31.6087 1006 31.7175
31.7262 957 30.9354
31.8436 1019 31.9218
31.9611 1024 32
32.0785 1066 32.6497
32.1959 1110 33.3167
32.3134 1062 32.5883
32.4308 1102 33.1964
32.5482 1118 33.4365
32.6655 1085 32.9393
32.7829 1066 32.6497
32.9002 1010 31.7805
33.0176 958 30.9516
33.1349 1030 32.0936
33.2522 1024 32
33.3694 1058 32.5269
33.4867 1066 32.6497
33.6039 1105 33.2415
33.7211 1067 32.665
33.8383 1160 34.0588
33.9554 1180 34.3511
34.0725 1163 34.1028
34.1896 1071 32.7261
34.3067 1206 34.7275
34.4237 1239 35.1994
34.5407 1193 34.5398
34.6577 1175 34.2783
34.7746 1170 34.2053
34.8915 1188 34.4674
35.0084 1118 33.4365
35.1252 1137 33.7194
35.242 1152 33.9411
35.3587 1080 32.8634
35.4755 1077 32.8177
35.5921 1041 32.2645
35.7088 1039 32.2335
35.8254 1106 33.2566
35.9419 1114 33.3766
36.0584 1162 34.0881
36.1749 1134 33.6749
36.2913 1139 33.7491
36.4077 1130 33.6155
36.524 1061 32.573
36.6403 1046 32.3419
36.7565 989 31.4484
36.8727 1037 32.2025
36.9889 979 31.289
37.1049 1050 32.4037
37.221 0 1
37.3369 0 1
37.4529 0 1
37.5687 0 1
37.6845 0 1
37.8003 0 1
37.916 0 1
38.0316 0 1
38.1472 0 1
40.5851 0 1
40.7008 0 1
40.8164 0 1
40.9322 0 1
41.048 0 1
41.1639 0 1
41.2798 0 1
41.3958 0 1
41.5118 0 1
41.6279 0 1
41.744 830 28.8097
41.8602 897 29.95
41.9765 827 28.7576
42.0928 859 29.3087
42.2091 901 30.0167
42.3255 956 30.9192
42.4419 956 30.9192
42.5584 1050 32.4037
42.675 1039 32.2335
42.7915 1046 32.3419
42.9081 1043 32.2955
43.0248 1108 33.2866
43.1415 1127 33.5708
43.2582 1120 33.4664
43.375 1162 34.0881
43.4918 1139 33.7491
43.6087 1069 32.6956
43.7256 1065 32.6343
43.8425 993 31.5119
43.9595 966 31.0805
44.0765 1013 31.8277
44.1935 948 30.7896
44.3106 879 29.6479
44.4277 927 30.4467
44.5448 938 30.6268
44.6619 940 30.6594
44.7791 973 31.1929
44.8963 943 30.7083
45.0136 894 29.8998
45.1308 900 30
45.2481 900 30
45.3654 846 29.0861
45.4827 804 28.3549
45.6001 801 28.3019
45.7174 765 27.6586
45.8348 737 27.1477
45.9522 841 29
46.0697 845 29.0689
46.1871 826 28.7402
46.3046 867 29.4449
46.422 893 29.8831
46.5395 937 30.6105
46.657 923 30.3809
46.7745 1008 31.749
46.892 962 31.0161
47.0096 948 30.7896
47.1271 968 31.1127
47.2446 924 30.3974
47.3622 858 29.2916
47.4797 867 29.4449
47.5973 852 29.189
47.7149 816 28.5657
47.8324 793 28.1603
47.95 787 28.0535
48.0675 764 27.6405
48.1851 722 26.8701
48.3027 839 28.9655
48.4202 805 28.3725
48.5378 784 28
48.6554 788 28.0713
48.7729 753 27.4408
48.8904 668 25.8457
49.008 692 26.3059
49.1255 663 25.7488
49.243 659 25.671
49.3605 675 25.9808
49.478 703 26.5141
49.5955 714 26.7208
49.713 744 27.2764
49.8304 796 28.2135
49.9479 830 28.8097
50.0653 898 29.9666
50.1827 804 28.3549
50.3001 901 30.0167
50.4175 899 29.9833
50.5348 999 31.607
50.6521 974 31.209
50.7694 952 30.8545
50.8867 883 29.7153
51.004 883 29.7153
51.1212 874 29.5635
51.2384 900 30
51.3556 869 29.4788
51.4727 950 30.8221
51.5899 941 30.6757
51.707 968 31.1127
51.824 934 30.5614
51.9411 1073 32.7567
52.0581 1005 31.7017
52.175 970 31.1448
52.2919 1013 31.8277
52.4088 976 31.241
52.5257 853 29.2062
52.6425 826 28.7402
52.7593 888 29.7993
52.876 885 29.7489
52.9927 978 31.273
53.1094 1017 31.8904
53.226 1131 33.6303
53.3426 1206 34.7275
53.4591 1179 34.3366
53.5756 1296 36
53.692 1307 36.1525
53.8084 1362 36.9053
53.9248 1333 36.5103
54.0411 1365 36.9459
54.1573 1370 37.0135
54.2735 0 1
54.3896 0 1
54.5057 0 1
54.6217 0 1
54.7377 0 1
54.8537 0 1
54.9695 0 1
55.0853 0 1
55.2011 0 1
55.3168 0 1
55.4324 0 1
57.824 0 1
57.9396 0 1
58.0553 0 1
58.1711 0 1
58.2869 0 1
58.4028 0 1
58.5187 0 1
58.6347 0 1
58.7508 0 1
58.8669 0 1
58.983 1614 40.1746
59.0992 1659 40.7308
59.2155 1659 40.7308
59.3318 1577 39.7115
59.4482 1715 41.4126
59.5646 1664 40.7922
59.681 1577 39.7115
59.7975 1519 38.9744
59.9141 1477 38.4318
60.0306 1546 39.3192
60.1473 1533 39.1535
60.2639 1505 38.7943
60.3807 1464 38.2623
60.4974 1472 38.3667
60.6142 1534 39.1663
60.731 1445 38.0132
60.8479 1421 37.6962
60.9648 1333 36.5103
61.0818 1264 35.5528
61.1987 1236 35.1568
61.3158 1179 34.3366
61.4328 1182 34.3802
61.5499 1298 36.0278
61.667 1324 36.3868
61.7841 1378 37.1214
61.9013 1425 37.7492
62.0185 1465 38.2753
62.1357 1493 38.6394
62.253 1604 40.05
62.3702 1639 40.4846
62.4875 1596 39.95
62.6049 1631 40.3856
62.7222 1623 40.2865
62.8396 1574 39.6737
62.9569 1566 39.5727
63.0743 1552 39.3954
63.1918 1529 39.1024
63.3092 1500 38.7298
63.4267 1485 38.5357
63.5441 1430 37.8153
63.6616 1516 38.9358
63.7791 1479 38.4578
63.8966 1429 37.8021
64.0142 1508 38.833
64.1317 1515 38.923
64.2492 1428 37.7889
64.3668 1338 36.5787
64.4843 1306 36.1386
64.6019 1239 35.1994
64.7195 1153 33.9559
64.837 1110 33.3167
64.9546 1094 33.0757
65.0722 1196 34.5832
65.1898 1172 34.2345
65.3074 1272 35.6651
65.4249 1310 36.1939
65.5425 1453 38.1182
65.6601 1466 38.2884
65.7777 1542 39.2683
65.8952 1607 40.0874
66.0128 1594 39.9249
66.1304 1615 40.1871
66.2479 1691 41.1218
66.3655 1637 40.4599
66.483 1608 40.0999
66.6005 1626 40.3237
66.718 1624 40.2989
66.8355 1500 38.7298
66.953 1591 39.8873
67.0705 1505 38.7943
67.1879 1481 38.4838
67.3054 1525 39.0512
67.4228 1540 39.2428
67.5402 1522 39.0128
67.6576 1610 40.1248
67.7749 1526 39.064
67.8923 1562 39.5221
68.0096 1511 38.8716
68.1269 1409 37.5366
68.2442 1339 36.5923
68.3614 1270 35.6371
68.4787 1234 35.1283
68.5958 1143 33.8083
68.713 1328 36.4417
68.8302 1382 37.1753
68.9473 1339 36.5923
69.0643 1577 39.7115
69.1814 1652 40.6448
69.2984 1769 42.0595
69.4154 1869 43.2319
69.5323 1837 42.8602
69.6492 1934 43.9773
69.7661 1935 43.9886
69.8829 1965 44.3283
69.9997 1955 44.2154
70.1165 1953 44.1928
70.2332 2028 45.0333
70.3499 1999 44.7102
70.4665 1941 44.0568
70.5831 1915 43.7607
70.6996 1831 42.7902
70.8161 1783 42.2256
70.9326 1888 43.4511
71.049 1931 43.9431
71.1653 1968 44.3621
71.2817 1897 43.5546
71.3979 1910 43.7035
71.5141 1803 42.4617
71.6303 1682 41.0122
71.7464 1425 37.7492
71.8624 0 1
71.9784 0 1
72.0944 0 1
72.2102 0 1
72.3261 0 1
72.4418 0 1
72.5575 0 1
72.6732 0 1
75.1054 0 1
75.2209 0 1
75.3365 0 1
75.4521 0 1
75.5678 0 1
75.6835 0 1
75.7993 0 1
75.9151 0 1
76.031 0 1
76.147 1870 43.2435
76.263 2097 45.793
76.3791 2098 45.8039
76.4952 2136 46.2169
76.6113 2225 47.1699
76.7276 2208 46.9894
76.8438 2102 45.8476
76.9601 1976 44.4522
77.0765 1895 43.5316
77.1929 1709 41.3401
77.3093 1560 39.4968
77.4258 1471 38.3536
77.5423 1478 38.4448
77.6589 1463 38.2492
77.7755 1565 39.5601
77.8921 1788 42.2847
78.0088 2004 44.7661
78.1256 2120 46.0435
78.2423 2141 46.2709
78.3591 2363 48.6107
78.4759 2480 49.7996
78.5928 2376 48.7442
78.7097 2453 49.5278
78.8266 2370 48.6826
78.9436 2530 50.2991
79.0606 2458 49.5782
79.1776 2453 49.5278
79.2946 2321 48.1768
79.4117 2356 48.5386
79.5288 2291 47.8644
79.6459 2282 47.7703
79.7631 2252 47.4552
79.8802 2132 46.1736
79.9974 2201 46.9148
80.1147 2277 47.7179
80.2319 2340 48.3735
80.3491 2260 47.5395
80.4664 2303 47.9896
80.5837 2196 46.8615
80.701 2094 45.7602
80.8183 1840 42.8952
80.9357 1716 41.4246
81.053 1509 38.8458
81.1704 1506 38.8072
81.2877 1400 37.4166
81.4051 1556 39.4462
81.5225 1625 40.3113
81.6399 1806 42.4971
81.7573 2108 45.913
81.8747 2144 46.3033
81.9922 2314 48.1041
82.1096 2367 48.6518
82.227 2376 48.7442
82.3444 2448 49.4773
82.4619 2466 49.6588
82.5793 2445 49.4469
82.6967 2496 49.96
82.8142 2402 49.0102
82.9316 2377 48.7545
83.049 2282 47.7703
83.1664 2263 47.571
83.2838 2246 47.392
83.4012 2203 46.9361
83.5186 2132 46.1736
83.636 2096 45.7821
83.7534 2071 45.5082
83.8708 2210 47.0106
83.9881 2199 46.8935
84.1055 2252 47.4552
84.2228 2175 46.6369
84.3401 2018 44.9222
84.4575 1837 42.8602
84.5747 1662 40.7676
84.692 1546 39.3192
84.8093 1422 37.7094
84.9265 1469 38.3275
85.0437 1578 39.724
85.1609 1775 42.1307
85.2781 1965 44.3283
85.3952 2105 45.8803
85.5123 2229 47.2123
85.6294 2453 49.5278
85.7465 2543 50.4282
85.8636 2636 51.342
85.9806 2638 51.3615
86.0976 2684 51.8073
86.2145 2631 51.2933
86.3315 2804 52.9528
86.4484 2676 51.7301
86.5652 2766 52.5928
86.682 2884 53.7029
86.7988 2679 51.7591
86.9156 2888 53.7401
87.0323 2773 52.6593
87.149 2662 51.5946
87.2657 2719 52.144
87.3823 2744 52.3832
87.4988 2903 53.8795
87.6154 2991 54.69
87.7318 2864 53.5164
87.8483 2722 52.1728
87.9647 2461 49.6085
88.081 2391 48.8979
88.1973 2152 46.3897
88.3136 1988 44.587
88.4298 1971 44.3959
88.546 1991 44.6206
88.6621 2160 46.4758
88.7781 2393 48.9183
88.8942 0 1
89.0101 0 1
89.126 0 1
89.2419 0 1
89.3577 0 1
89.4734 0 1
89.5891 0 1
89.7047 0 1
89.8203 0 1
89.9358 0 1
92.3269 0 1
92.4424 0 1
92.558 0 1
92.6736 0 1
92.7893 0 1
92.905 0 1
93.0208 0 1
93.1366 0 1
93.2525 0 1
93.3685 0 1
93.4845 0 1
93.6005 2185 46.744
93.7167 2103 45.8585
93.8328 2162 46.4973
93.949 2190 46.7974
94.0653 2325 48.2183
94.1816 2582 50.8134
94.2979 2903 53.8795
94.4143 3020 54.9545
94.5307 3262 57.1139
94.6472 3424 58.515
94.7637 3504 59.1946
94.8803 3577 59.808
94.9969 3633 60.2744
95.1135 3620 60.1664
95.2302 3664 60.531
95.3469 3557 59.6406
95.4637 3651 60.4235
95.5805 3594 59.95
95.6973 3551 59.5903
95.8142 3682 60.6795
95.9311 3533 59.439
96.048 3552 59.5987
96.1649 3455 58.7792
96.2819 3479 58.983
96.3989 3532 59.4306
96.516 3425 58.5235
96.633 3500 59.1608
96.7501 3518 59.3127
96.8673 3473 58.9322
96.9844 3168 56.285
97.1016 2986 54.6443
97.2188 2644 51.4198
97.336 2549 50.4876
97.4532 2229 47.2123
97.5704 2292 47.8748
97.6877 2293 47.8853
97.805 2411 49.1019
97.9223 2624 51.225
98.0396 2900 53.8516
98.1569 3081 55.5068
98.2743 3319 57.6108
98.3916 3536 59.4643
98.509 3562 59.6825
98.6264 3687 60.7207
98.7438 3676 60.63
98.8612 3673 60.6053
98.9786 3649 60.407
99.096 3737 61.131
99.2134 3613 60.1082
99.3308 3716 60.959
99.4482 3799 61.636
99.5656 3805 61.6847
99.6831 3582 59.8498
99.8005 3607 60.0583
99.9179 3551 59.5903
100.035 3587 59.8916
100.153 3620 60.1664
100.27 3644 60.3656
100.388 3583 59.8582
100.505 3369 58.0431
100.622 3308 57.5152
100.74 3057 55.2901
100.857 2840 53.2917
100.975 2534 50.3389
101.092 2388 48.8672
101.209 2304 48
101.327 2375 48.734
101.444 2545 50.448
101.561 2768 52.6118
101.679 3187 56.4535
101.796 3435 58.6089
101.913 3579 59.8247
102.03 3696 60.7947
102.148 3812 61.7414
102.265 3678 60.6465
102.382 3914 62.562
102.499 3798 61.6279
102.616 3796 61.6117
102.733 3758 61.3025
102.851 3726 61.041
102.968 3810 61.7252
103.085 3877 62.2656
103.202 3794 61.5955
103.319 3758 61.3025
103.436 3607 60.0583
103.552 3656 60.4649
103.669 3618 60.1498
103.786 3789 61.5549
103.903 3925 62.6498
104.02 3789 61.5549
104.137 3539 59.4895
104.253 3234 56.8683
104.37 3050 55.2268
104.487 2785 52.7731
104.603 2533 50.3289
104.72 2524 50.2394
104.836 2430 49.295
104.953 2722 52.1728
105.069 3057 55.2901
105.186 3292 57.376
105.302 3547 59.5567
105.418 3857 62.1048
105.535 4029 63.4744
105.651 3953 62.8729
105.767 3995 63.206
105.883 4020 63.4035
105.999 4020 63.4035
106.115 0 1
106.231 0 1
106.347 0 1
106.463 0 1
106.579 0 1
106.694 0 1
106.81 0 1
106.926 0 1
107.041 0 1
107.157 0 1
109.576 0 1
109.692 0 1
109.807 0 1
109.923 0 1
110.039 0 1
110.155 0 1
110.27 0 1
110.386 0 1
110.502 0 1
110.618 3616 60.1332
110.735 3645 60.3738
110.851 3799 61.636
110.967 3811 61.7333
111.083 3743 61.1801
111.199 3733 61.0983
111.316 3791 61.5711
111.432 3750 61.2372
111.549 3717 60.9672
111.665 3694 60.7783
111.782 3531 59.4222
111.898 3417 58.4551
112.015 3495 59.1185
112.132 3666 60.5475
112.248 3591 59.925
112.365 3709 60.9016
112.482 3367 58.0259
112.599 3413 58.4209
112.716 3024 54.9909
112.832 2829 53.1883
112.949 2705 52.0096
113.066 2419 49.1833
113.183 2366 48.6415
113.3 2328 48.2494
113.417 2405 49.0408
113.534 2656 51.5364
113.652 2830 53.1977
113.769 3084 55.5338
113.886 3221 56.7539
114.003 3327 57.6802
114.12 3413 58.4209
114.238 3485 59.0339
114.355 3404 58.3438
114.472 3450 58.7367
114.589 3412 58.4123
114.707 3495 59.1185
114.824 3330 57.7062
114.942 3384 58.1722
115.059 3466 58.8727
115.176 3435 58.6089
115.294 3544 59.5315
115.411 3299 57.4369
115.529 3434 58.6003
115.646 3322 57.6368
115.764 3380 58.1378
115.881 3417 58.4551
115.999 3388 58.2065
116.116 3350 57.8792
116.234 3102 55.6956
116.351 2920 54.037
116.469 2663 51.6043
116.586 2517 50.1697
116.704 2386 48.8467
116.821 2218 47.0956
116.939 2359 48.5695
117.056 2406 49.051
117.174 2541 50.4083
117.291 2839 53.2823
117.409 3011 54.8726
117.526 3171 56.3116
117.644 3185 56.4358
117.761 3267 57.1577
117.879 3345 57.836
117.996 3312 57.55
118.114 3353 57.9051
118.231 3321 57.6281
118.349 3205 56.6127
118.466 3205 56.6127
118.584 3290 57.3585
118.701 3383 58.1636
118.819 3245 56.9649
118.936 3242 56.9386
119.053 3130 55.9464
119.171 3209 56.648
119.288 3253 57.0351
119.405 3307 57.5065
119.523 3204 56.6039
119.64 3222 56.7627
119.757 3119 55.848
119.875 3043 55.1634
119.992 2752 52.4595
120.109 2744 52.3832
120.226 2578 50.774
120.343 2338 48.3529
120.46 2371 48.6929
120.578 2236 47.2864
120.695 2319 48.156
120.812 2502 50.02
120.929 2614 51.1273
121.046 2680 51.7687
121.163 2930 54.1295
121.279 3124 55.8928
121.396 3189 56.4712
121.513 3156 56.1783
121.63 3297 57.4195
121.747 3233 56.8595
121.863 3239 56.9122
121.98 3224 56.7803
122.097 3130 55.9464
122.213 3131 55.9553
122.33 3072 55.4256
122.446 3210 56.6569
122.563 3107 55.7405
122.679 3179 56.3826
122.795 2979 54.5802
122.912 2991 54.69
123.028 3000 54.7723
123.144 3027 55.0182
123.26 2943 54.2494
123.377 0 1
123.493 0 1
123.609 0 1
123.725 0 1
123.84 0 1
123.956 0 1
124.072 0 1
124.188 0 1
124.303 0 1
124.419 0 1
126.852 0 1
126.968 0 1
127.083 0 1
127.199 0 1
127.315 0 1
127.431 0 1
127.547 0 1
127.663 0 1
127.779 0 1
127.895 0 1
128.011 0 1
128.127 0 1
128.243 0 1
128.359 3280 57.2713
128.476 3211 56.6657
128.592 3174 56.3383
128.708 3087 55.5608
128.825 3097 55.6507
128.941 2910 53.9444
129.058 2719 52.144
129.174 2576 50.7543
129.291 2398 48.9694
129.408 2558 50.5767
129.524 2492 49.9199
129.641 2607 51.0588
129.758 2684 51.8073
129.875 2795 52.8678
129.992 3005 54.8179
130.108 3006 54.827
130.225 3139 56.0268
130.342 3241 56.9298
130.459 3115 55.8122
130.576 3275 57.2276
130.693 3262 57.1139
130.81 3172 56.3205
130.928 3074 55.4437
131.045 3105 55.7225
131.162 3288 57.3411
131.279 3165 56.2583
131.396 3229 56.8243
131.513 3186 56.4447
131.631 3178 56.3738
131.748 3202 56.5862
131.865 3116 55.8211
131.983 3253 57.0351
132.1 3198 56.5509
132.217 3045 55.1815
132.335 2996 54.7357
132.452 2956 54.3691
132.57 2731 52.259
132.687 2599 50.9804
132.804 2482 49.8197
132.922 2406 49.051
133.039 2468 49.679
133.157 2451 49.5076
133.274 2526 50.2593
133.392 2638 51.3615
133.509 2892 53.7773
133.627 2871 53.5817
133.744 2868 53.5537
133.862 3030 55.0454
133.979 3103 55.7046
134.097 3109 55.7584
134.214 3028 55.0273
134.332 3127 55.9196
134.449 2906 53.9073
134.567 3021 54.9636
134.684 2955 54.3599
134.802 3052 55.2449
134.919 3165 56.2583
135.037 3086 55.5518
135.154 2968 54.4794
135.272 3020 54.9545
135.389 3203 56.5951
135.507 3104 55.7136
135.624 3141 56.0446
135.742 3013 54.8908
135.859 2998 54.754
135.977 2810 53.0094
136.094 2761 52.5452
136.211 2607 51.0588
136.329 2572 50.7149
136.446 2433 49.3254
136.564 2417 49.163
136.681 2446 49.4571
136.798 2438 49.3761
136.915 2591 50.9019
137.033 2623 51.2152
137.15 2757 52.5071
137.267 2733 52.2781
137.384 2835 53.2447
137.502 2888 53.7401
137.619 2882 53.6843
137.736 2953 54.3415
137.853 2850 53.3854
137.97 2886 53.7215
138.087 2674 51.7107
138.204 2908 53.9259
138.321 2947 54.2863
138.438 2958 54.3875
138.555 2958 54.3875
138.672 2945 54.2679
138.788 2897 53.8238
138.905 2818 53.0848
139.022 3040 55.1362
139.139 2965 54.4518
139.255 2989 54.6717
139.372 2863 53.507
139.488 2764 52.5738
139.605 2748 52.4214
139.721 2716 52.1153
139.838 2750 52.4404
139.954 2477 49.7695
140.071 2424 49.2341
140.187 2376 48.7442
140.303 2410 49.0918
140.419 2366 48.6415
140.535 2431 49.3052
140.652 2345 48.4252
140.768 0 1
140.884 0 1
141 0 1
141.115 0 1
141.231 0 1
141.347 0 1
141.463 0 1
141.578 0 1
141.694 0 1
144.104 0 1
144.219 0 1
144.335 0 1
144.45 0 1
144.566 0 1
144.682 0 1
144.798 0 1
144.914 0 1
145.03 0 1
145.146 1661 40.7554
145.262 1786 42.2611
145.378 1883 43.3935
145.494 1825 42.72
145.61 1932 43.9545
145.726 2049 45.2659
145.842 2093 45.7493
145.959 2156 46.4327
146.075 2149 46.3573
146.192 2162 46.4973
146.308 2254 47.4763
146.425 2210 47.0106
146.541 2190 46.7974
146.658 2135 46.2061
146.774 2119 46.0326
146.891 2026 45.0111
147.008 2117 46.0109
147.125 2154 46.4112
147.241 2260 47.5395
147.358 2289 47.8435
147.475 2240 47.3286
147.592 2175 46.6369
147.709 2260 47.5395
147.826 2264 47.5815
147.943 2231 47.2335
148.06 2301 47.9687
148.177 2202 46.9255
148.294 2273 47.676
148.411 2158 46.4543
148.528 2210 47.0106
148.645 2053 45.31
148.762 2057 45.3542
148.88 1913 43.7379
148.997 1895 43.5316
149.114 1923 43.852
149.231 1935 43.9886
149.349 1991 44.6206
149.466 2007 44.7996
149.583 2078 45.5851
149.701 2104 45.8694
149.818 2144 46.3033
149.935 2166 46.5403
150.053 2130 46.1519
150.17 2178 46.669
150.287 2171 46.594
150.405 2147 46.3357
150.522 2132 46.1736
150.64 2067 45.4643
150.757 2145 46.3141
150.875 2110 45.9347
150.992 2278 47.7284
151.11 2322 48.1871
151.227 2244 47.3709
151.344 2271 47.655
151.462 2250 47.4342
151.579 2329 48.2597
151.697 2259 47.5289
151.814 2316 48.1248
151.932 2279 47.7389
152.049 2261 47.55
152.167 2231 47.2335
152.284 2128 46.1303
152.402 2062 45.4093
152.519 2031 45.0666
152.636 2079 45.5961
152.754 1952 44.1814
152.871 1947 44.1248
152.989 2025 45
153.106 2054 45.3211
153.223 2063 45.4203
153.341 2107 45.9021
153.458 2246 47.392
153.575 2223 47.1487
153.693 2280 47.7493
153.81 2252 47.4552
153.927 2158 46.4543
154.044 2121 46.0543
154.162 2110 45.9347
154.279 2184 46.7333
154.396 2169 46.5725
154.513 2277 47.7179
154.63 2339 48.3632
154.747 2364 48.621
154.864 2325 48.2183
154.981 2379 48.775
155.098 2353 48.5077
155.215 2343 48.4045
155.332 2425 49.2443
155.449 2266 47.6025
155.566 2305 48.0104
155.683 2250 47.4342
155.8 2229 47.2123
155.917 2225 47.1699
156.033 2137 46.2277
156.15 0 1
156.267 0 1
156.383 0 1
156.5 0 1
156.617 0 1
156.733 0 1
156.85 0 1
156.966 0 1
157.082 0 1
157.199 0 1
157.315 0 1
157.431 0 1
157.547 0 1
157.664 0 1
157.78 0 1
157.896 0 1
158.012 0 1
158.128 0 1
158.244 0 1
158.359 0 1
158.475 0 1
158.591 0 1
158.706 0 1
