
6.15755 0 1
6.2731 0 1
6.3887 0 1
6.50437 0 1
6.62009 0 1
6.73587 0 1
6.8517 0 1
6.96759 0 1
7.08353 0 1
7.19952 0 1
7.31557 0 1
7.43166 0 1
7.54781 0 1
7.664 0 1
7.78024 0 1
7.89653 0 1
8.01286 0 1
8.12924 0 1
8.24567 0 1
8.36213 0 1
8.47864 0 1
8.59519 0 1
8.71178 0 1
8.82841 0 1
8.94508 0 1
9.06179 0 1
9.17853 0 1
9.29531 0 1
9.41212 0 1
9.52897 0 1
9.64584 0 1
9.76276 0 1
9.8797 0 1
9.99667 0 1
10.1137 0 1
10.2307 0 1
10.3478 0 1
10.4648 0 1
10.5819 0 1
10.6991 0 1
10.8162 0 1
10.9334 0 1
11.0506 0 1
11.1678 0 1
11.285 0 1
11.4023 0 1
11.5196 0 1
11.6369 0 1
11.7542 0 1
11.8715 0 1
11.9888 0 1
12.1062 0 1
12.2235 0 1
12.3409 0 1
12.4582 0 1
12.5756 0 1
12.693 0 1
12.8104 0 1
12.9278 0 1
13.0452 0 1
13.1626 0 1
13.28 0 1
13.3974 0 1
13.5149 0 1
13.6323 0 1
13.7497 0 1
13.8671 0 1
13.9845 0 1
14.1019 0 1
14.2193 0 1
14.3367 0 1
14.4541 0 1
14.5714 0 1
14.6888 0 1
14.8062 0 1
14.9235 0 1
15.0408 4347 65.9318
15.1581 4560 67.5278
15.2755 4591 67.7569
15.3927 4565 67.5648
15.51 4659 68.2569
15.6273 4391 66.2646
15.7445 4551 67.4611
15.8617 4397 66.3099
15.9789 4435 66.5958
16.0961 4561 67.5352
16.2132 4794 69.2387
16.3304 4774 69.0941
16.4475 4809 69.347
16.5646 4989 70.6329
16.6816 4991 70.647
16.7986 5031 70.9295
16.9156 5255 72.4914
17.0326 5218 72.2357
17.1496 5300 72.8011
17.2665 5193 72.0625
17.3833 5229 72.3118
17.5002 5350 73.1437
17.617 5238 72.374
17.7338 5403 73.5051
17.8505 5337 73.0548
17.9672 5245 72.4224
18.0839 5201 72.118
18.2005 5134 71.6519
18.3171 5285 72.698
18.4337 5625 75
18.5502 5467 73.9392
18.6666 5668 75.2861
18.7831 5906 76.8505
18.8994 5666 75.2728
19.0158 5633 75.0533
19.1321 5469 73.9527
19.2483 5264 72.5534
19.3645 5081 71.2811
19.4806 4977 70.5479
19.5967 4825 69.4622
19.7128 4622 67.9853
19.8288 4441 66.6408
19.9447 3945 62.8092
20.0606 0 1
20.1764 0 1
20.2922 0 1
20.4079 0 1
20.5236 0 1
20.6392 0 1
20.7548 0 1
20.8702 0 1
23.3078 0 1
23.4233 0 1
23.539 0 1
23.6547 0 1
23.7704 0 1
23.8862 0 1
24.0021 0 1
24.118 0 1
24.234 0 1
24.35 0 1
24.4661 3226 56.7979
24.5822 3713 60.9344
24.6984 4299 65.5668
24.8146 4822 69.4406
24.9309 5425 73.6546
25.0472 5787 76.0723
25.1636 6075 77.9423
25.28 6434 80.2122
25.3965 6848 82.7526
25.513 7143 84.5163
25.6296 7565 86.977
25.7462 7531 86.7813
25.8628 7495 86.5737
25.9795 7732 87.9318
26.0962 7807 88.3572
26.213 7622 87.3041
26.3298 7800 88.3176
26.4466 7697 87.7325
26.5635 7612 87.2468
26.6804 7614 87.2582
26.7973 7730 87.9204
26.9143 7904 88.9044
27.0313 8065 89.8053
27.1483 8373 91.5041
27.2653 8694 93.2416
27.3824 8587 92.6661
27.4996 8675 93.1397
27.6167 8591 92.6876
27.7339 8399 91.6461
27.8511 8117 90.0944
27.9683 8003 89.4595
28.0855 7975 89.3029
28.2028 8197 90.5373
28.3201 8150 90.2774
28.4374 8031 89.6158
28.5547 7926 89.0281
28.6721 7976 89.3085
28.7894 7749 88.0284
28.9068 7911 88.9438
29.0242 8020 89.5545
29.1416 8069 89.8276
29.259 8060 89.7775
29.3764 8073 89.8499
29.4939 8069 89.8276
29.6113 7991 89.3924
29.7288 7998 89.4315
29.8463 8107 90.0389
29.9638 8091 89.95
30.0812 8291 91.0549
30.1987 8312 91.1702
30.3162 8496 92.1737
30.4337 8519 92.2984
30.5512 8952 94.615
30.6687 9295 96.4106
30.7862 9280 96.3328
30.9037 9289 96.3795
31.0212 9325 96.566
31.1387 9451 97.2163
31.2562 9414 97.0258
31.3737 9112 95.4568
31.4912 9055 95.1578
31.6087 9111 95.4516
31.7262 9023 94.9895
31.8436 9051 95.1367
31.9611 8797 93.7923
32.0785 8820 93.9149
32.1959 8744 93.5094
32.3134 8916 94.4246
32.4308 8940 94.5516
32.5482 9006 94.8999
32.6655 9097 95.3782
32.7829 9109 95.4411
32.9002 9008 94.9105
33.0176 8983 94.7787
33.1349 9131 95.5563
33.2522 8927 94.4828
33.3694 9026 95.0053
33.4867 9297 96.421
33.6039 9556 97.7548
33.7211 9452 97.2214
33.8383 9389 96.8969
33.9554 9683 98.4022
34.0725 9715 98.5647
34.1896 10145 100.722
34.3067 10431 102.132
34.4237 10978 104.776
34.5407 11038 105.062
34.6577 11027 105.01
34.7746 10955 104.666
34.8915 10905 104.427
35.0084 10782 103.836
35.1252 10719 103.533
35.242 10727 103.571
35.3587 10821 104.024
35.4755 10881 104.312
35.5921 10664 103.267
35.7088 10331 101.642
35.8254 10100 100.499
35.9419 9840 99.1968
36.0584 9502 97.4782
36.1749 9423 97.0721
36.2913 9098 95.3834
36.4077 8849 94.0691
36.524 8745 93.5147
36.6403 8694 93.2416
36.7565 8625 92.8709
36.8727 8481 92.0923
36.9889 8263 90.901
37.1049 7819 88.4251
37.221 0 1
37.3369 0 1
37.4529 0 1
37.5687 0 1
37.6845 0 1
37.8003 0 1
37.916 0 1
38.0316 0 1
38.1472 0 1
40.5851 0 1
40.7008 0 1
40.8164 0 1
40.9322 0 1
41.048 0 1
41.1639 0 1
41.2798 0 1
41.3958 0 1
41.5118 0 1
41.6279 0 1
41.744 6414 80.0875
41.8602 7003 83.6839
41.9765 7725 87.892
42.0928 8564 92.5419
42.2091 9366 96.7781
42.3255 10349 101.73
42.4419 11388 106.715
42.5584 11746 108.379
42.675 12205 110.476
42.7915 12810 113.181
42.9081 13772 117.354
43.0248 14947 122.258
43.1415 15243 123.463
43.2582 15913 126.147
43.375 16639 128.992
43.4918 16808 129.646
43.6087 16797 129.603
43.7256 16900 130
43.8425 16556 128.67
43.9595 16289 127.628
44.0765 16428 128.172
44.1935 16851 129.811
44.3106 17094 130.744
44.4277 16839 129.765
44.5448 16474 128.351
44.6619 15980 126.412
44.7791 14862 121.91
44.8963 14300 119.583
45.0136 13933 118.038
45.1308 13773 117.358
45.2481 13639 116.786
45.3654 13843 117.656
45.4827 14024 118.423
45.6001 14625 120.934
45.7174 15536 124.643
45.8348 16591 128.806
45.9522 17571 132.556
46.0697 17665 132.91
46.1871 17632 132.786
46.3046 17529 132.397
46.422 18110 134.573
46.5395 18659 136.598
46.657 19383 139.223
46.7745 19762 140.577
46.892 20295 142.461
47.0096 20520 143.248
47.1271 20862 144.437
47.2446 20752 144.056
47.3622 20726 143.965
47.4797 19965 141.298
47.5973 20026 141.513
47.7149 19601 140.004
47.8324 20425 142.916
47.95 20154 141.965
48.0675 19344 139.083
48.1851 18317 135.34
48.3027 17268 131.408
48.4202 15806 125.722
48.5378 14847 121.848
48.6554 14232 119.298
48.7729 13610 116.662
48.8904 13921 117.987
49.008 14323 119.679
49.1255 15094 122.858
49.243 16229 127.393
49.3605 17415 131.966
49.478 18275 135.185
49.5955 18391 135.613
49.713 18369 135.532
49.8304 18555 136.217
49.9479 18501 136.018
50.0653 19013 137.888
50.1827 19492 139.614
50.3001 19730 140.464
50.4175 20233 142.243
50.5348 20380 142.759
50.6521 20318 142.541
50.7694 20147 141.94
50.8867 19867 140.95
51.004 19481 139.574
51.1212 19176 138.477
51.2384 19259 138.777
51.3556 19522 139.721
51.4727 19107 138.228
51.5899 18758 136.96
51.707 17760 133.267
51.824 16507 128.48
51.9411 15003 122.487
52.0581 13587 116.563
52.175 12716 112.765
52.2919 12639 112.423
52.4088 12429 111.485
52.5257 12584 112.178
52.6425 13146 114.656
52.7593 13842 117.652
52.876 14566 120.69
52.9927 15170 123.167
53.1094 15112 122.931
53.226 14713 121.297
53.3426 14311 119.629
53.4591 13700 117.047
53.5756 13251 115.113
53.692 13108 114.49
53.8084 12744 112.889
53.9248 12257 110.711
54.0411 11717 108.245
54.1573 10873 104.274
54.2735 0 1
54.3896 0 1
54.5057 0 1
54.6217 0 1
54.7377 0 1
54.8537 0 1
54.9695 0 1
55.0853 0 1
55.2011 0 1
55.3168 0 1
55.4324 0 1
57.824 0 1
57.9396 0 1
58.0553 0 1
58.1711 0 1
58.2869 0 1
58.4028 0 1
58.5187 0 1
58.6347 0 1
58.7508 0 1
58.8669 0 1
58.983 10202 101.005
59.0992 11628 107.833
59.2155 12388 111.301
59.3318 13368 115.62
59.4482 13684 116.979
59.5646 14275 119.478
59.681 14478 120.325
59.7975 14719 121.322
59.9141 15158 123.118
60.0306 15768 125.571
60.1473 15872 125.984
60.2639 15372 123.984
60.3807 14856 121.885
60.4974 13895 117.877
60.6142 12614 112.312
60.731 11339 106.485
60.8479 10245 101.218
60.9648 9210 95.9687
61.0818 9248 96.1665
61.1987 9635 98.158
61.3158 10653 103.213
61.4328 11761 108.448
61.5499 13039 114.188
61.667 14244 119.348
61.7841 14624 120.93
61.9013 14443 120.179
62.0185 14521 120.503
62.1357 14130 118.87
62.253 14466 120.275
62.3702 14758 121.483
62.4875 15105 122.902
62.6049 15005 122.495
62.7222 15207 123.317
62.8396 15223 123.382
62.9569 15157 123.114
63.0743 15008 122.507
63.1918 15002 122.483
63.3092 14466 120.275
63.4267 14488 120.366
63.5441 14758 121.483
63.6616 14509 120.453
63.7791 14081 118.663
63.8966 13236 115.048
64.0142 12310 110.95
64.1317 10838 104.106
64.2492 9355 96.7212
64.3668 8148 90.2663
64.4843 7853 88.6172
64.6019 7550 86.8907
64.7195 7712 87.818
64.837 8463 91.9946
64.9546 9641 98.1886
65.0722 11265 106.137
65.1898 12112 110.055
65.3074 12729 112.823
65.4249 12474 111.687
65.5425 12324 111.014
65.6601 12010 109.59
65.7777 12175 110.34
65.8952 12482 111.723
66.0128 12624 112.357
66.1304 13077 114.355
66.2479 12916 113.649
66.3655 12992 113.982
66.483 12988 113.965
66.6005 13074 114.342
66.718 12931 113.715
66.8355 12492 111.768
66.953 12388 111.301
67.0705 12445 111.557
67.1879 12740 112.872
67.3054 12411 111.405
67.4228 12014 109.608
67.5402 11146 105.575
67.6576 10333 101.651
67.7749 9366 96.7781
67.8923 7884 88.7919
68.0096 6883 82.9638
68.1269 6411 80.0687
68.2442 6205 78.7718
68.3614 6504 80.6474
68.4787 7351 85.738
68.5958 8594 92.7038
68.713 9886 99.4284
68.8302 10767 103.764
68.9473 11337 106.475
69.0643 11291 106.259
69.1814 11122 105.461
69.2984 10734 103.605
69.4154 10099 100.494
69.5323 9987 99.935
69.6492 10138 100.688
69.7661 10229 101.139
69.8829 10189 100.941
69.9997 10141 100.703
70.1165 9973 99.8649
70.2332 9636 98.1631
70.3499 9714 98.5596
70.4665 8676 93.145
70.5831 8357 91.4166
70.6996 8098 89.9889
70.8161 7990 89.3868
70.9326 7784 88.227
71.049 6970 83.4865
71.1653 6372 79.8248
71.2817 5811 76.2299
71.3979 4998 70.6965
71.5141 4290 65.4981
71.6303 3192 56.4978
71.7464 2208 46.9894
71.8624 0 1
71.9784 0 1
72.0944 0 1
72.2102 0 1
72.3261 0 1
72.4418 0 1
72.5575 0 1
72.6732 0 1
75.1054 0 1
75.2209 0 1
75.3365 0 1
75.4521 0 1
75.5678 0 1
75.6835 0 1
75.7993 0 1
75.9151 0 1
76.031 0 1
76.147 6749 82.1523
76.263 7408 86.0697
76.3791 7194 84.8175
76.4952 6844 82.7285
76.6113 6518 80.7341
76.7276 6134 78.3199
76.8438 5508 74.2159
76.9601 4993 70.6612
77.0765 4802 69.2965
77.1929 4460 66.7832
77.3093 4576 67.6461
77.4258 5215 72.215
77.5423 6284 79.2717
77.6589 7524 86.741
77.7755 8637 92.9355
77.8921 9180 95.8123
78.0088 9321 96.5453
78.1256 9044 95.0999
78.2423 8933 94.5145
78.3591 8651 93.0108
78.4759 8646 92.9839
78.5928 9020 94.9737
78.7097 9420 97.0567
78.8266 9246 96.1561
78.9436 9777 98.8787
79.0606 9733 98.656
79.1776 9450 97.2111
79.2946 9611 98.0357
79.4117 9471 97.3191
79.5288 9392 96.9123
79.6459 9444 97.1802
79.7631 9622 98.0918
79.8802 9656 98.2649
79.9974 9786 98.9242
80.1147 9244 96.1457
80.2319 8413 91.7224
80.3491 7598 87.1665
80.4664 6721 81.9817
80.5837 5742 75.776
80.701 4925 70.1783
80.8183 4665 68.3008
80.9357 4558 67.513
81.053 4831 69.5054
81.1704 5610 74.8999
81.2877 7004 83.6899
81.4051 8400 91.6515
81.5225 9470 97.3139
81.6399 9393 96.9175
81.7573 9228 96.0625
81.8747 8984 94.784
81.9922 8620 92.844
82.1096 8697 93.2577
82.227 9001 94.8736
82.3444 9180 95.8123
82.4619 9345 96.6695
82.5793 9483 97.3807
82.6967 9625 98.1071
82.8142 9741 98.6965
82.9316 9651 98.2395
83.049 9383 96.8659
83.1664 9435 97.1339
83.2838 9101 95.3992
83.4012 9358 96.7368
83.5186 9485 97.391
83.636 9431 97.1133
83.7534 8836 94
83.8708 8041 89.6716
83.9881 7494 86.5679
84.1055 7002 83.678
84.2228 6355 79.7183
84.3401 5304 72.8286
84.4575 4913 70.0928
84.5747 4888 69.9142
84.692 5319 72.9315
84.8093 6550 80.9321
84.9265 7994 89.4092
85.0437 8981 94.7681
85.1609 9884 99.4183
85.2781 10046 100.23
85.3952 9905 99.5239
85.5123 9605 98.0051
85.6294 9450 97.2111
85.7465 9917 99.5841
85.8636 10482 102.382
85.9806 10624 103.073
86.0976 10807 103.957
86.2145 10703 103.455
86.3315 11296 106.283
86.4484 10555 102.738
86.5652 10640 103.15
86.682 10453 102.24
86.7988 9947 99.7346
86.9156 9834 99.1665
87.0323 9861 99.3026
87.149 9610 98.0306
87.2657 9256 96.2081
87.3823 8676 93.145
87.4988 7825 88.459
87.6154 7316 85.5336
87.7318 6883 82.9638
87.8483 5784 76.0526
87.9647 4899 69.9929
88.081 4308 65.6354
88.1973 4260 65.2687
88.3136 4394 66.2873
88.4298 5250 72.4569
88.546 6186 78.6511
88.6621 7048 83.9524
88.7781 7471 86.4349
88.8942 0 1
89.0101 0 1
89.126 0 1
89.2419 0 1
89.3577 0 1
89.4734 0 1
89.5891 0 1
89.7047 0 1
89.8203 0 1
89.9358 0 1
92.3269 0 1
92.4424 0 1
92.558 0 1
92.6736 0 1
92.7893 0 1
92.905 0 1
93.0208 0 1
93.1366 0 1
93.2525 0 1
93.3685 0 1
93.4845 0 1
93.6005 6498 80.6102
93.7167 7338 85.6621
93.8328 8483 92.1032
93.949 10338 101.676
94.0653 11776 108.517
94.1816 13013 114.075
94.2979 13892 117.864
94.4143 14541 120.586
94.5307 15148 123.077
94.6472 15868 125.968
94.7637 16991 130.35
94.8803 17471 132.178
94.9969 18108 134.566
95.1135 17590 132.627
95.2302 18309 135.311
95.3469 18066 134.41
95.4637 18524 136.103
95.5805 17944 133.955
95.6973 17791 133.383
95.8142 17280 131.453
95.9311 16836 129.754
96.048 16590 128.802
96.1649 16528 128.561
96.2819 16099 126.882
96.3989 15504 124.515
96.516 14482 120.341
96.633 13422 115.853
96.7501 12508 111.839
96.8673 11725 108.282
96.9844 10695 103.417
97.1016 9989 99.945
97.2188 9734 98.661
97.336 9746 98.7218
97.4532 10628 103.092
97.5704 12380 111.265
97.6877 14281 119.503
97.805 16258 127.507
97.9223 18014 134.216
98.0396 19569 139.889
98.1569 20169 142.018
98.2743 20939 144.703
98.3916 21930 148.088
98.509 22901 151.331
98.6264 23342 152.781
98.7438 23604 153.636
98.8612 23409 153
98.9786 23193 152.292
99.096 23065 151.872
99.2134 22558 150.193
99.3308 21868 147.878
99.4482 21231 145.709
99.5656 20448 142.997
99.6831 19589 139.961
99.8005 19144 138.362
99.9179 18677 136.664
100.035 17685 132.985
100.153 16163 127.134
100.27 14940 122.229
100.388 13254 115.126
100.505 11562 107.527
100.622 10585 102.883
100.74 10037 100.185
100.857 9864 99.3177
100.975 10602 102.966
101.092 11998 109.535
101.209 14434 120.142
101.327 16725 129.325
101.444 18640 136.528
101.561 20280 142.408
101.679 20777 144.142
101.796 21286 145.897
101.913 21822 147.723
102.03 22674 150.579
102.148 23382 152.912
102.265 23159 152.181
102.382 22206 149.017
102.499 22275 149.248
102.616 21997 148.314
102.733 21855 147.834
102.851 20696 143.861
102.968 20528 143.276
103.085 19929 141.17
103.202 19141 138.351
103.319 18936 137.608
103.436 18790 137.077
103.552 18297 135.266
103.669 16926 130.1
103.786 15103 122.894
103.903 13874 117.788
104.02 12493 111.772
104.137 11141 105.551
104.253 9975 99.8749
104.37 9151 95.6609
104.487 9691 98.4429
104.603 10612 103.015
104.72 11728 108.296
104.836 13094 114.429
104.953 14007 118.351
105.069 14420 120.083
105.186 14260 119.415
105.302 13734 117.192
105.418 12786 113.075
105.535 11930 109.225
105.651 11179 105.731
105.767 10416 102.059
105.883 9807 99.0303
105.999 9187 95.8488
106.115 0 1
106.231 0 1
106.347 0 1
106.463 0 1
106.579 0 1
106.694 0 1
106.81 0 1
106.926 0 1
107.041 0 1
107.157 0 1
109.576 0 1
109.692 0 1
109.807 0 1
109.923 0 1
110.039 0 1
110.155 0 1
110.27 0 1
110.386 0 1
110.502 0 1
110.618 9394 96.9226
110.735 11029 105.019
110.851 12260 110.725
110.967 13325 115.434
111.083 14322 119.675
111.199 15170 123.167
111.316 15839 125.853
111.432 16115 126.945
111.549 16764 129.476
111.665 16803 129.626
111.782 16815 129.673
111.898 17024 130.476
112.015 17819 133.488
112.132 17708 133.071
112.248 17061 130.618
112.365 16076 126.791
112.482 13967 118.182
112.599 12371 111.225
112.716 10931 104.551
112.832 9465 97.2882
112.949 8889 94.2815
113.066 8947 94.5886
113.183 9438 97.1494
113.3 10715 103.513
113.417 12702 112.703
113.534 14681 121.165
113.652 16222 127.366
113.769 16943 130.165
113.886 16597 128.829
114.003 16195 127.26
114.12 15831 125.821
114.238 15935 126.234
114.355 16353 127.879
114.472 16981 130.311
114.589 16839 129.765
114.707 17287 131.48
114.824 17038 130.53
114.942 17412 131.955
115.059 17444 132.076
115.176 17324 131.621
115.294 16975 130.288
115.411 16696 129.213
115.529 17158 130.989
115.646 17108 130.798
115.764 16949 130.188
115.881 16114 126.941
115.999 14670 121.12
116.116 13037 114.18
116.234 11566 107.545
116.351 10375 101.858
116.469 9215 95.9948
116.586 9070 95.2365
116.704 9072 95.247
116.821 9524 97.591
116.939 11159 105.636
117.056 13138 114.621
117.174 14897 122.053
117.291 15711 125.344
117.409 15884 126.032
117.526 15455 124.318
117.644 15237 123.438
117.761 15026 122.581
117.879 15138 123.037
117.996 15480 124.419
118.114 15724 125.395
118.231 16056 126.712
118.349 16392 128.031
118.466 16446 128.242
118.584 16539 128.604
118.701 16295 127.652
118.819 16179 127.197
118.936 15692 125.268
119.053 15731 125.423
119.171 15806 125.722
119.288 15910 126.135
119.405 15517 124.567
119.523 14759 121.487
119.64 13638 116.782
119.757 12431 111.494
119.875 11111 105.409
119.992 9961 99.8048
120.109 9150 95.6556
120.226 8926 94.4775
120.343 8997 94.8525
120.46 9121 95.5039
120.578 9927 99.6343
120.695 11212 105.887
120.812 12446 111.562
120.929 13473 116.073
121.046 13481 116.108
121.163 13068 114.315
121.279 12754 112.934
121.396 12169 110.313
121.513 12247 110.666
121.63 12312 110.959
121.747 12180 110.363
121.863 12068 109.854
121.98 12139 110.177
122.097 12129 110.132
122.213 11997 109.531
122.33 11478 107.135
122.446 11153 105.608
122.563 10639 103.146
122.679 9882 99.4082
122.795 9581 97.8826
122.912 9091 95.3467
123.028 8742 93.4987
123.144 8087 89.9277
123.26 7045 83.9345
123.377 0 1
123.493 0 1
123.609 0 1
123.725 0 1
123.84 0 1
123.956 0 1
124.072 0 1
124.188 0 1
124.303 0 1
124.419 0 1
126.852 0 1
126.968 0 1
127.083 0 1
127.199 0 1
127.315 0 1
127.431 0 1
127.547 0 1
127.663 0 1
127.779 0 1
127.895 0 1
128.011 0 1
128.127 0 1
128.243 0 1
128.359 14399 119.996
128.476 14983 122.405
128.592 15032 122.605
128.708 14313 119.637
128.825 13541 116.366
128.941 12835 113.292
129.058 11696 108.148
129.174 11189 105.778
129.291 10922 104.508
129.408 10876 104.288
129.524 10997 104.867
129.641 11467 107.084
129.758 12366 111.203
129.875 13412 115.81
129.992 14091 118.706
130.108 14454 120.225
130.225 14547 120.611
130.342 14676 121.145
130.459 14305 119.604
130.576 15096 122.866
130.693 15227 123.398
130.81 15673 125.192
130.928 15860 125.936
131.045 16032 126.618
131.162 16086 126.831
131.279 16389 128.02
131.396 16332 127.797
131.513 16197 127.267
131.631 15978 126.404
131.748 16100 126.886
131.865 15741 125.463
131.983 15821 125.782
132.1 15422 124.185
132.217 14979 122.389
132.335 14287 119.528
132.452 13241 115.07
132.57 12723 112.796
132.687 11834 108.784
132.804 11571 107.569
132.922 11249 106.061
133.039 11183 105.75
133.157 11432 106.921
133.274 11829 108.761
133.392 12426 111.472
133.509 13386 115.698
133.627 13842 117.652
133.744 13971 118.199
133.862 14239 119.327
133.979 14236 119.315
134.097 14121 118.832
134.214 14668 121.112
134.332 15015 122.536
134.449 15396 124.081
134.567 15577 124.808
134.684 15640 125.06
134.802 15856 125.921
134.919 15934 126.23
135.037 15833 125.829
135.154 15494 124.475
135.272 15028 122.589
135.389 15232 123.418
135.507 15330 123.814
135.624 14985 122.413
135.742 14913 122.119
135.859 14478 120.325
135.977 13690 117.004
136.094 12773 113.018
136.211 12591 112.21
136.329 12017 109.622
136.446 11863 108.917
136.564 11705 108.19
136.681 11792 108.591
136.798 11479 107.14
136.915 11929 109.22
137.033 12221 110.549
137.15 12943 113.767
137.267 13368 115.62
137.384 13335 115.477
137.502 13248 115.1
137.619 13173 114.774
137.736 13644 116.808
137.853 13465 116.039
137.97 14350 119.791
138.087 14331 119.712
138.204 14513 120.47
138.321 14728 121.359
138.438 14609 120.868
138.555 14166 119.021
138.672 14081 118.663
138.788 13645 116.812
138.905 12680 112.606
139.022 12210 110.499
139.139 11887 109.028
139.255 11895 109.064
139.372 11154 105.612
139.488 10463 102.289
139.605 9900 99.4987
139.721 8843 94.0372
139.838 8171 90.3936
139.954 7587 87.1034
140.071 7033 83.863
140.187 6771 82.2861
140.303 6143 78.3773
140.419 5673 75.3193
140.535 5396 73.4575
140.652 4875 69.8212
140.768 0 1
140.884 0 1
141 0 1
141.115 0 1
141.231 0 1
141.347 0 1
141.463 0 1
141.578 0 1
141.694 0 1
144.104 0 1
144.219 0 1
144.335 0 1
144.45 0 1
144.566 0 1
144.682 0 1
144.798 0 1
144.914 0 1
145.03 0 1
145.146 9173 95.7758
145.262 9274 96.3016
145.378 9366 96.7781
145.494 9338 96.6333
145.61 9512 97.5295
145.726 9411 97.0103
145.842 9797 98.9798
145.959 9732 98.6509
146.075 9791 98.9495
146.192 9955 99.7747
146.308 9777 98.8787
146.425 9722 98.6002
146.541 9856 99.2774
146.658 10179 100.891
146.774 10567 102.796
146.891 10921 104.504
147.008 11508 107.275
147.125 11364 106.602
147.241 11533 107.392
147.358 11632 107.852
147.475 11490 107.191
147.592 11354 106.555
147.709 11067 105.2
147.826 11070 105.214
147.943 11038 105.062
148.06 10994 104.852
148.177 10894 104.374
148.294 10722 103.547
148.411 10667 103.281
148.528 10480 102.372
148.645 10526 102.596
148.762 10299 101.484
148.88 10475 102.347
148.997 10509 102.513
149.114 10126 100.628
149.231 10235 101.168
149.349 10205 101.02
149.466 9875 99.373
149.583 9741 98.6965
149.701 9820 99.0959
149.818 9863 99.3126
149.935 9833 99.1615
150.053 9782 98.904
150.17 9711 98.5444
150.287 9819 99.0909
150.405 10185 100.921
150.522 10573 102.825
150.64 11037 105.057
150.757 11123 105.466
150.875 11339 106.485
150.992 11558 107.508
151.11 11359 106.579
151.227 11410 106.818
151.344 11100 105.357
151.462 10930 104.547
151.579 10652 103.209
151.697 10580 102.859
151.814 10691 103.397
151.932 10688 103.383
152.049 10223 101.109
152.167 10566 102.791
152.284 10452 102.235
152.402 10447 102.211
152.519 10543 102.679
152.636 10543 102.679
152.754 10247 101.227
152.871 10200 100.995
152.989 9921 99.6042
153.106 9960 99.7998
153.223 9682 98.3972
153.341 9747 98.7269
153.458 9727 98.6256
153.575 9578 97.8673
153.693 9488 97.4064
153.81 9662 98.2955
153.927 9743 98.7066
154.044 10024 100.12
154.162 10385 101.907
154.279 10514 102.538
154.396 10656 103.228
154.513 10817 104.005
154.63 11018 104.967
154.747 10973 104.752
154.864 10695 103.417
154.981 10304 101.509
155.098 9896 99.4786
155.215 10081 100.404
155.332 10155 100.772
155.449 9893 99.4636
155.566 9846 99.227
155.683 9691 98.4429
155.8 9653 98.2497
155.917 9422 97.067
156.033 9352 96.7057
156.15 0 1
156.267 0 1
156.383 0 1
156.5 0 1
156.617 0 1
156.733 0 1
156.85 0 1
156.966 0 1
157.082 0 1
157.199 0 1
157.315 0 1
157.431 0 1
157.547 0 1
157.664 0 1
157.78 0 1
157.896 0 1
158.012 0 1
158.128 0 1
158.244 0 1
158.359 0 1
158.475 0 1
158.591 0 1
158.706 0 1
