
6.15755 0 1
6.2731 0 1
6.3887 0 1
6.50437 0 1
6.62009 0 1
6.73587 0 1
6.8517 0 1
6.96759 0 1
7.08353 0 1
7.19952 0 1
7.31557 0 1
7.43166 0 1
7.54781 0 1
7.664 0 1
7.78024 0 1
7.89653 0 1
8.01286 0 1
8.12924 0 1
8.24567 0 1
8.36213 0 1
8.47864 0 1
8.59519 0 1
8.71178 0 1
8.82841 0 1
8.94508 0 1
9.06179 0 1
9.17853 0 1
9.29531 0 1
9.41212 0 1
9.52897 0 1
9.64584 0 1
9.76276 0 1
9.8797 0 1
9.99667 0 1
10.1137 0 1
10.2307 0 1
10.3478 0 1
10.4648 0 1
10.5819 0 1
10.6991 0 1
10.8162 0 1
10.9334 0 1
11.0506 0 1
11.1678 0 1
11.285 0 1
11.4023 0 1
11.5196 0 1
11.6369 0 1
11.7542 0 1
11.8715 0 1
11.9888 0 1
12.1062 0 1
12.2235 0 1
12.3409 0 1
12.4582 0 1
12.5756 0 1
12.693 0 1
12.8104 0 1
12.9278 0 1
13.0452 0 1
13.1626 0 1
13.28 0 1
13.3974 0 1
13.5149 0 1
13.6323 0 1
13.7497 0 1
13.8671 0 1
13.9845 0 1
14.1019 0 1
14.2193 0 1
14.3367 0 1
14.4541 0 1
14.5714 0 1
14.6888 0 1
14.8062 0 1
14.9235 0 1
15.0408 4835 69.5342
15.1581 5149 71.7565
15.2755 5573 74.6525
15.3927 5557 74.5453
15.51 5673 75.3193
15.6273 5682 75.379
15.7445 5160 71.8331
15.8617 4807 69.3325
15.9789 4558 67.513
16.0961 4828 69.4838
16.2132 5330 73.0068
16.3304 6058 77.8332
16.4475 6828 82.6317
16.5646 7264 85.2291
16.6816 7627 87.3327
16.7986 7972 89.2861
16.9156 7989 89.3812
17.0326 7949 89.1572
17.1496 8077 89.8721
17.2665 7941 89.1123
17.3833 7920 88.9944
17.5002 7718 87.8521
17.617 7686 87.6698
17.7338 7648 87.4528
17.8505 7788 88.2496
17.9672 7785 88.2326
18.0839 8291 91.0549
18.2005 8026 89.5879
18.3171 8203 90.5704
18.4337 8309 91.1537
18.5502 8404 91.6733
18.6666 8599 92.7308
18.7831 8324 91.236
18.8994 8436 91.8477
19.0158 8037 89.6493
19.1321 7792 88.2723
19.2483 6932 83.2586
19.3645 6331 79.5676
19.4806 5693 75.452
19.5967 5247 72.4362
19.7128 5328 72.9932
19.8288 5803 76.1774
19.9447 5949 77.1298
20.0606 0 1
20.1764 0 1
20.2922 0 1
20.4079 0 1
20.5236 0 1
20.6392 0 1
20.7548 0 1
20.8702 0 1
23.3078 0 1
23.4233 0 1
23.539 0 1
23.6547 0 1
23.7704 0 1
23.8862 0 1
24.0021 0 1
24.118 0 1
24.234 0 1
24.35 0 1
24.4661 6962 83.4386
24.5822 6693 81.8108
24.6984 5943 77.0909
24.8146 5374 73.3076
24.9309 5319 72.9315
25.0472 5721 75.6373
25.1636 6615 81.3327
25.28 7467 86.4118
25.3965 8131 90.1721
25.513 8743 93.504
25.6296 9159 95.7027
25.7462 9060 95.184
25.8628 9214 95.9896
25.9795 9135 95.5772
26.0962 9374 96.8194
26.213 9365 96.7729
26.3298 9071 95.2418
26.4466 8935 94.5251
26.5635 8956 94.6361
26.6804 8945 94.578
26.7973 9085 95.3153
26.9143 9205 95.9427
27.0313 9222 96.0312
27.1483 9297 96.421
27.2653 9058 95.1735
27.3824 9278 96.3224
27.4996 9235 96.0989
27.6167 9252 96.1873
27.7339 9241 96.1301
27.8511 8693 93.2363
27.9683 8333 91.2853
28.0855 7565 86.977
28.2028 6804 82.4864
28.3201 5485 74.0608
28.4374 4834 69.527
28.5547 4965 70.4628
28.6721 5570 74.6324
28.7894 6432 80.1998
28.9068 7343 85.6913
29.0242 8226 90.6973
29.1416 8860 94.1276
29.259 9150 95.6556
29.3764 9092 95.352
29.4939 9080 95.289
29.6113 8963 94.6731
29.7288 8964 94.6784
29.8463 8803 93.8243
29.9638 8810 93.8616
30.0812 8636 92.9301
30.1987 8737 93.4719
30.3162 8924 94.4669
30.4337 8878 94.2231
30.5512 8953 94.6203
30.6687 8914 94.414
30.7862 8893 94.3027
30.9037 8933 94.5145
31.0212 9251 96.1821
31.1387 9068 95.226
31.2562 8992 94.8262
31.3737 8649 93
31.4912 8407 91.6897
31.6087 8026 89.5879
31.7262 6926 83.2226
31.8436 6005 77.4919
31.9611 5065 71.1688
32.0785 4819 69.419
32.1959 5252 72.4707
32.3134 6092 78.0513
32.4308 7081 84.1487
32.5482 7812 88.3855
32.6655 8584 92.6499
32.7829 8942 94.5621
32.9002 8785 93.7283
33.0176 8801 93.8136
33.1349 8735 93.4612
33.2522 8781 93.707
33.3694 8646 92.9839
33.4867 8564 92.5419
33.6039 8567 92.5581
33.7211 8471 92.038
33.8383 8453 91.9402
33.9554 8460 91.9783
34.0725 8689 93.2148
34.1896 8484 92.1086
34.3067 8445 91.8967
34.4237 8539 92.4067
34.5407 8700 93.2738
34.6577 8662 93.0699
34.7746 8718 93.3702
34.8915 8544 92.4338
35.0084 8610 92.7901
35.1252 8294 91.0714
35.242 7869 88.7074
35.3587 7527 86.7583
35.4755 6573 81.074
35.5921 5310 72.8697
35.7088 4552 67.4685
35.8254 4199 64.7997
35.9419 4680 68.4105
36.0584 5439 73.7496
36.1749 6551 80.9382
36.2913 7310 85.4985
36.4077 8053 89.7385
36.524 8295 91.0769
36.6403 8522 92.3147
36.7565 8454 91.9456
36.8727 8516 92.2822
36.9889 8328 91.2579
37.1049 8039 89.6605
37.221 0 1
37.3369 0 1
37.4529 0 1
37.5687 0 1
37.6845 0 1
37.8003 0 1
37.916 0 1
38.0316 0 1
38.1472 0 1
40.5851 0 1
40.7008 0 1
40.8164 0 1
40.9322 0 1
41.048 0 1
41.1639 0 1
41.2798 0 1
41.3958 0 1
41.5118 0 1
41.6279 0 1
41.744 6116 78.2049
41.8602 6539 80.8641
41.9765 6906 83.1023
42.0928 6985 83.5763
42.2091 6969 83.4805
42.3255 6982 83.5584
42.4419 6854 82.7889
42.5584 6712 81.9268
42.675 6815 82.553
42.7915 6604 81.265
42.9081 6687 81.7741
43.0248 6564 81.0185
43.1415 6586 81.1542
43.2582 6641 81.4923
43.375 6533 80.827
43.4918 6431 80.1935
43.6087 6372 79.8248
43.7256 6370 79.8123
43.8425 6279 79.2401
43.9595 6204 78.7655
44.0765 6048 77.7689
44.1935 5574 74.6592
44.3106 4947 70.3349
44.4277 3851 62.0564
44.5448 2969 54.4885
44.6619 2896 53.8145
44.7791 3201 56.5774
44.8963 3888 62.3538
45.0136 4819 69.419
45.1308 5302 72.8148
45.2481 5299 72.7942
45.3654 5388 73.403
45.4827 5290 72.7324
45.6001 5191 72.0486
45.7174 5009 70.7743
45.8348 4944 70.3136
45.9522 4780 69.1375
46.0697 4668 68.3228
46.1871 4564 67.5574
46.3046 4618 67.9559
46.422 4665 68.3008
46.5395 4488 66.9925
46.657 4484 66.9627
46.7745 4503 67.1044
46.892 4516 67.2012
47.0096 4459 66.7757
47.1271 4422 66.4981
47.2446 4411 66.4154
47.3622 4328 65.7875
47.4797 4352 65.9697
47.5973 4206 64.8537
47.7149 3954 62.8808
47.8324 3758 61.3025
47.95 3162 56.2317
48.0675 2435 49.3457
48.1851 1863 43.1625
48.3027 2144 46.3033
48.4202 2515 50.1498
48.5378 3052 55.2449
48.6554 3546 59.5483
48.7729 3847 62.0242
48.8904 3853 62.0725
49.008 3753 61.2617
49.1255 3769 61.3922
49.243 3888 62.3538
49.3605 3740 61.1555
49.478 3761 61.327
49.5955 3678 60.6465
49.713 3730 61.0737
49.8304 3662 60.5145
49.9479 3731 61.0819
50.0653 3836 61.9355
50.1827 3896 62.4179
50.3001 4044 63.5925
50.4175 4011 63.3325
50.5348 4293 65.521
50.6521 4357 66.0076
50.7694 4453 66.7308
50.8867 4523 67.2533
51.004 4657 68.2422
51.1212 4799 69.2748
51.2384 4589 67.7422
51.3556 4380 66.1816
51.4727 3711 60.918
51.5899 2771 52.6403
51.707 2401 49
51.824 2677 51.7397
51.9411 3558 59.649
52.0581 4630 68.0441
52.175 5207 72.1595
52.2919 5419 73.6139
52.4088 5611 74.9066
52.5257 5707 75.5447
52.6425 5782 76.0395
52.7593 5785 76.0592
52.876 5816 76.2627
52.9927 5832 76.3675
53.1094 5700 75.4983
53.226 5654 75.1931
53.3426 5883 76.7007
53.4591 5794 76.1183
53.5756 6063 77.8653
53.692 6109 78.1601
53.8084 6332 79.5739
53.9248 6327 79.5424
54.0411 6422 80.1374
54.1573 6429 80.181
54.2735 0 1
54.3896 0 1
54.5057 0 1
54.6217 0 1
54.7377 0 1
54.8537 0 1
54.9695 0 1
55.0853 0 1
55.2011 0 1
55.3168 0 1
55.4324 0 1
57.824 0 1
57.9396 0 1
58.0553 0 1
58.1711 0 1
58.2869 0 1
58.4028 0 1
58.5187 0 1
58.6347 0 1
58.7508 0 1
58.8669 0 1
58.983 6814 82.547
59.0992 7205 84.8823
59.2155 7320 85.557
59.3318 7564 86.9713
59.4482 7548 86.8792
59.5646 7362 85.8021
59.681 7283 85.3405
59.7975 7098 84.2496
59.9141 7024 83.8093
60.0306 6414 80.0875
60.1473 5628 75.02
60.2639 4420 66.4831
60.3807 3928 62.6738
60.4974 4081 63.8827
60.6142 4745 68.884
60.731 5408 73.5391
60.8479 6033 77.6724
60.9648 6537 80.8517
61.0818 6684 81.7557
61.1987 6679 81.7251
61.3158 6560 80.9938
61.4328 6577 81.0987
61.5499 6498 80.6102
61.667 6172 78.5621
61.7841 6224 78.8923
61.9013 6085 78.0064
62.0185 5803 76.1774
62.1357 6165 78.5175
62.253 6311 79.4418
62.3702 6204 78.7655
62.4875 6335 79.5927
62.6049 6356 79.7245
62.7222 6526 80.7837
62.8396 6473 80.455
62.9569 6541 80.8764
63.0743 6420 80.1249
63.1918 6500 80.6226
63.3092 6299 79.3662
63.4267 6243 79.0127
63.5441 5718 75.6175
63.6616 4837 69.5485
63.7791 3846 62.0161
63.8966 3326 57.6715
64.0142 3395 58.2666
64.1317 4169 64.5678
64.2492 4901 70.0071
64.3668 5501 74.1687
64.4843 5767 75.9408
64.6019 5966 77.2399
64.7195 5993 77.4145
64.837 5983 77.3499
64.9546 6160 78.4857
65.0722 5782 76.0395
65.1898 5587 74.7462
65.3074 5446 73.797
65.4249 5309 72.8629
65.5425 5307 72.8492
65.6601 5445 73.7902
65.7777 5549 74.4916
65.8952 5583 74.7195
66.0128 5762 75.9078
66.1304 5842 76.433
66.2479 5755 75.8617
66.3655 6025 77.6209
66.483 5943 77.0909
66.6005 6077 77.9551
66.718 6181 78.6193
66.8355 6062 77.8588
66.953 5868 76.6029
67.0705 5843 76.4395
67.1879 5190 72.0417
67.3054 4417 66.4605
67.4228 3624 60.1997
67.5402 3009 54.8544
67.6576 3203 56.5951
67.7749 3805 61.6847
67.8923 4734 68.8041
68.0096 5354 73.171
68.1269 5677 75.3459
68.2442 5814 76.2496
68.3614 5904 76.8375
68.4787 5885 76.7138
68.5958 5751 75.8353
68.713 5653 75.1864
68.8302 5584 74.7262
68.9473 5378 73.3348
69.0643 5297 72.7805
69.1814 5505 74.1957
69.2984 5591 74.773
69.4154 5693 75.452
69.5323 5777 76.0066
69.6492 5950 77.1362
69.7661 6071 77.9166
69.8829 6213 78.8226
69.9997 6447 80.2932
70.1165 6382 79.8874
70.2332 6528 80.796
70.3499 6559 80.9877
70.4665 6482 80.5109
70.5831 6463 80.3928
70.6996 6337 79.6053
70.8161 6129 78.2879
70.9326 5341 73.0821
71.049 4427 66.5357
71.1653 3468 58.8897
71.2817 3073 55.4346
71.3979 3296 57.4108
71.5141 4130 64.2651
71.6303 4801 69.2892
71.7464 5054 71.0915
71.8624 0 1
71.9784 0 1
72.0944 0 1
72.2102 0 1
72.3261 0 1
72.4418 0 1
72.5575 0 1
72.6732 0 1
75.1054 0 1
75.2209 0 1
75.3365 0 1
75.4521 0 1
75.5678 0 1
75.6835 0 1
75.7993 0 1
75.9151 0 1
76.031 0 1
76.147 5757 75.8749
76.263 5592 74.7797
76.3791 4343 65.9014
76.4952 3235 56.8771
76.6113 2936 54.1849
76.7276 3653 60.4401
76.8438 4821 69.4334
76.9601 5990 77.3951
77.0765 6159 78.4793
77.1929 6193 78.6956
77.3093 6321 79.5047
77.4258 6493 80.5792
77.5423 6266 79.1581
77.6589 6074 77.9359
77.7755 5827 76.3348
77.8921 5664 75.2596
78.0088 5544 74.458
78.1256 5464 73.9189
78.2423 5496 74.135
78.3591 5790 76.092
78.4759 6066 77.8845
78.5928 6102 78.1153
78.7097 6094 78.0641
78.8266 6052 77.7946
78.9436 6716 81.9512
79.0606 6590 81.1788
79.1776 6474 80.4612
79.2946 6548 80.9197
79.4117 6612 81.3142
79.5288 6603 81.2588
79.6459 6423 80.1436
79.7631 6188 78.6638
79.8802 5677 75.3459
79.9974 4603 67.8454
80.1147 3239 56.9122
80.2319 2925 54.0833
80.3491 3452 58.7537
80.4664 4553 67.4759
80.5837 5638 75.0866
80.701 6077 77.9551
80.8183 6019 77.5822
80.9357 6041 77.7239
81.053 6036 77.6917
81.1704 6064 77.8717
81.2877 5860 76.5506
81.4051 5651 75.1731
81.5225 5319 72.9315
81.6399 5260 72.5259
81.7573 5199 72.1041
81.8747 5096 71.3863
81.9922 5316 72.9109
82.1096 5674 75.326
82.227 5649 75.1598
82.3444 5724 75.6571
82.4619 5997 77.4403
82.5793 6065 77.8781
82.6967 5934 77.0325
82.8142 5900 76.8115
82.9316 6019 77.5822
83.049 5860 76.5506
83.1664 6040 77.7174
83.2838 5866 76.5898
83.4012 5612 74.9133
83.5186 5231 72.3257
83.636 4154 64.4515
83.7534 2893 53.7866
83.8708 2623 51.2152
83.9881 3037 55.109
84.1055 3979 63.0793
84.2228 4885 69.8928
84.3401 5488 74.081
84.4575 5651 75.1731
84.5747 5541 74.4379
84.692 5798 76.1446
84.8093 5703 75.5182
84.9265 5560 74.5654
85.0437 5099 71.4073
85.1609 5006 70.7531
85.2781 5084 71.3022
85.3952 5064 71.1618
85.5123 5239 72.3809
85.6294 5534 74.3909
85.7465 5862 76.5637
85.8636 5786 76.0658
85.9806 6228 78.9177
86.0976 6349 79.6806
86.2145 6349 79.6806
86.3315 6545 80.9012
86.4484 6365 79.781
86.5652 6736 82.0731
86.682 6916 83.1625
86.7988 6809 82.5167
86.9156 6637 81.4678
87.0323 6156 78.4602
87.149 5699 75.4917
87.2657 4446 66.6783
87.3823 3597 59.975
87.4988 3747 61.2127
87.6154 4820 69.4262
87.7318 5938 77.0584
87.8483 6664 81.6333
87.9647 6903 83.0843
88.081 6987 83.5883
88.1973 7112 84.3327
88.3136 7185 84.7644
88.4298 6949 83.3607
88.546 6697 81.8352
88.6621 6436 80.2247
88.7781 6299 79.3662
88.8942 0 1
89.0101 0 1
89.126 0 1
89.2419 0 1
89.3577 0 1
89.4734 0 1
89.5891 0 1
89.7047 0 1
89.8203 0 1
89.9358 0 1
92.3269 0 1
92.4424 0 1
92.558 0 1
92.6736 0 1
92.7893 0 1
92.905 0 1
93.0208 0 1
93.1366 0 1
93.2525 0 1
93.3685 0 1
93.4845 0 1
93.6005 7045 83.9345
93.7167 7056 84
93.8328 7261 85.2115
93.949 6891 83.012
94.0653 6804 82.4864
94.1816 6515 80.7155
94.2979 6490 80.5605
94.4143 6439 80.2434
94.5307 6526 80.7837
94.6472 6725 82.0061
94.7637 6847 82.7466
94.8803 7096 84.2378
94.9969 7308 85.4868
95.1135 7506 86.6372
95.2302 7529 86.7698
95.3469 7564 86.9713
95.4637 7803 88.3346
95.5805 7829 88.4816
95.6973 7826 88.4647
95.8142 7932 89.0618
95.9311 7797 88.3006
96.048 7430 86.1974
96.1649 6838 82.6922
96.2819 6106 78.1409
96.3989 4934 70.2424
96.516 4462 66.7982
96.633 4398 66.3174
96.7501 5117 71.5332
96.8673 6175 78.5812
96.9844 6921 83.1925
97.1016 7458 86.3597
97.2188 7511 86.666
97.336 7617 87.2754
97.4532 7625 87.3212
97.5704 7486 86.5217
97.6877 7029 83.8391
97.805 6814 82.547
97.9223 6623 81.3818
98.0396 6661 81.6149
98.1569 6601 81.2465
98.2743 6632 81.4371
98.3916 7149 84.5518
98.509 7241 85.0941
98.6264 7582 87.0747
98.7438 7688 87.6812
98.8612 7708 87.7952
98.9786 7931 89.0562
99.096 7981 89.3364
99.2134 7840 88.5438
99.3308 7886 88.8032
99.4482 7883 88.7863
99.5656 7705 87.7781
99.6831 7491 86.5506
99.8005 6969 83.4805
99.9179 6304 79.3977
100.035 5111 71.4913
100.153 5020 70.852
100.27 5497 74.1418
100.388 6397 79.9812
100.505 7590 87.1206
100.622 7710 87.8066
100.74 7881 88.775
100.857 7790 88.261
100.975 7851 88.6059
101.092 7593 87.1378
101.209 7499 86.5968
101.327 7233 85.047
101.444 7018 83.7735
101.561 6878 82.9337
101.679 6873 82.9036
101.796 6960 83.4266
101.913 7259 85.1998
102.03 7663 87.5386
102.148 7852 88.6115
102.265 7781 88.21
102.382 8378 91.5314
102.499 8085 89.9166
102.616 8421 91.766
102.733 8311 91.1647
102.851 8399 91.6461
102.968 8453 91.9402
103.085 8312 91.1702
103.202 8061 89.7831
103.319 7346 85.7088
103.436 6568 81.0432
103.552 5745 75.7958
103.669 5340 73.0753
103.786 6222 78.8797
103.903 6915 83.1565
104.02 7861 88.6623
104.137 8124 90.1332
104.253 8396 91.6297
104.37 8595 92.7092
104.487 8530 92.358
104.603 8358 91.4221
104.72 8110 90.0555
104.836 7882 88.7806
104.953 7589 87.1149
105.069 7551 86.8965
105.186 7526 86.7525
105.302 7897 88.8651
105.418 8104 90.0222
105.535 8452 91.9348
105.651 8606 92.7685
105.767 9143 95.619
105.883 9113 95.462
105.999 9220 96.0208
106.115 0 1
106.231 0 1
106.347 0 1
106.463 0 1
106.579 0 1
106.694 0 1
106.81 0 1
106.926 0 1
107.041 0 1
107.157 0 1
109.576 0 1
109.692 0 1
109.807 0 1
109.923 0 1
110.039 0 1
110.155 0 1
110.27 0 1
110.386 0 1
110.502 0 1
110.618 8321 91.2195
110.735 8625 92.8709
110.851 9084 95.31
110.967 9067 95.2208
111.083 8808 93.8509
111.199 9116 95.4777
111.316 9032 95.0368
111.432 9106 95.4254
111.549 8866 94.1594
111.665 8630 92.8978
111.782 8147 90.2607
111.898 7079 84.1368
112.015 6381 79.8812
112.132 5878 76.6681
112.248 6480 80.4984
112.365 7360 85.7904
112.482 7800 88.3176
112.599 8483 92.1032
112.716 8776 93.6803
112.832 8554 92.4878
112.949 8495 92.1683
113.066 8561 92.5257
113.183 8316 91.1921
113.3 8017 89.5377
113.417 7704 87.7724
113.534 7518 86.7064
113.652 7480 86.487
113.769 7570 87.0057
113.886 7604 87.2009
114.003 8098 89.9889
114.12 8388 91.586
114.238 8384 91.5642
114.355 8570 92.5743
114.472 8425 91.7878
114.589 8866 94.1594
114.707 8964 94.6784
114.824 8910 94.3928
114.942 8869 94.1754
115.059 8831 93.9734
115.176 8422 91.7715
115.294 8270 90.9395
115.411 7646 87.4414
115.529 6825 82.6136
115.646 6457 80.3555
115.764 6521 80.7527
115.881 7189 84.788
115.999 7948 89.1516
116.116 8522 92.3147
116.234 8386 91.5751
116.351 8716 93.3595
116.469 8758 93.5842
116.586 8530 92.358
116.704 8544 92.4338
116.821 8369 91.4822
116.939 7816 88.4081
117.056 7670 87.5785
117.174 7570 87.0057
117.291 7517 86.7006
117.409 7532 86.7871
117.526 8011 89.5042
117.644 8285 91.022
117.761 8402 91.6624
117.879 8744 93.5094
117.996 8594 92.7038
118.114 8731 93.4398
118.231 8827 93.9521
118.349 8551 92.4716
118.466 8816 93.8936
118.584 8900 94.3398
118.701 8698 93.2631
118.819 8551 92.4716
118.936 7921 89
119.053 7239 85.0823
119.171 6777 82.3225
119.288 6399 79.9937
119.405 6788 82.3893
119.523 7350 85.7321
119.64 7886 88.8032
119.757 8285 91.022
119.875 8486 92.1195
119.992 8451 91.9293
120.109 8486 92.1195
120.226 8447 91.9076
120.343 8226 90.6973
120.46 8069 89.8276
120.578 7850 88.6002
120.695 7537 86.8159
120.812 7413 86.0988
120.929 7517 86.7006
121.046 7377 85.8895
121.163 7429 86.1916
121.279 8007 89.4818
121.396 8127 90.1499
121.513 8276 90.9725
121.63 8512 92.2605
121.747 8761 93.6002
121.863 8725 93.4077
121.98 8889 94.2815
122.097 8757 93.5788
122.213 8667 93.0967
122.33 8440 91.8695
122.446 8462 91.9891
122.563 7941 89.1123
122.679 7511 86.666
122.795 6810 82.5227
122.912 6633 81.4432
123.028 6681 81.7374
123.144 6891 83.012
123.26 7166 84.6522
123.377 0 1
123.493 0 1
123.609 0 1
123.725 0 1
123.84 0 1
123.956 0 1
124.072 0 1
124.188 0 1
124.303 0 1
124.419 0 1
126.852 0 1
126.968 0 1
127.083 0 1
127.199 0 1
127.315 0 1
127.431 0 1
127.547 0 1
127.663 0 1
127.779 0 1
127.895 0 1
128.011 0 1
128.127 0 1
128.243 0 1
128.359 7826 88.4647
128.476 8227 90.7028
128.592 8651 93.0108
128.708 9047 95.1157
128.825 9257 96.2133
128.941 9267 96.2653
129.058 9124 95.5196
129.174 9244 96.1457
129.291 9101 95.3992
129.408 8945 94.578
129.524 8291 91.0549
129.641 8229 90.7138
129.758 8241 90.78
129.875 8003 89.4595
129.992 8244 90.7965
130.108 8332 91.2798
130.225 8736 93.4666
130.342 8983 94.7787
130.459 8925 94.4722
130.576 9523 97.5859
130.693 9139 95.5981
130.81 9410 97.0052
130.928 9162 95.7183
131.045 9023 94.9895
131.162 9117 95.483
131.279 9022 94.9842
131.396 8793 93.771
131.513 8356 91.4112
131.631 8100 90
131.748 7984 89.3532
131.865 8273 90.956
131.983 8756 93.5735
132.1 8797 93.7923
132.217 9241 96.1301
132.335 9287 96.3691
132.452 9305 96.4624
132.57 9311 96.4935
132.687 9073 95.2523
132.804 9460 97.2625
132.922 8966 94.689
133.039 8840 94.0213
133.157 8427 91.7987
133.274 8297 91.0879
133.392 8045 89.6939
133.509 8071 89.8387
133.627 8125 90.1388
133.744 8625 92.8709
133.862 8827 93.9521
133.979 8927 94.4828
134.097 9131 95.5563
134.214 8982 94.7734
134.332 9196 95.8958
134.449 9104 95.4149
134.567 9021 94.9789
134.684 8908 94.3822
134.802 8823 93.9308
134.919 8882 94.2444
135.037 8423 91.7769
135.154 8201 90.5594
135.272 8105 90.0278
135.389 8187 90.482
135.507 8514 92.2713
135.624 8880 94.2338
135.742 8875 94.2072
135.859 9058 95.1735
135.977 9110 95.4463
136.094 9244 96.1457
136.211 9145 95.6295
136.329 9141 95.6086
136.446 9084 95.31
136.564 8895 94.3133
136.681 8587 92.6661
136.798 8524 92.3255
136.915 8142 90.233
137.033 8011 89.5042
137.15 7801 88.3233
137.267 7897 88.8651
137.384 8578 92.6175
137.502 8619 92.8386
137.619 8936 94.5304
137.736 9035 95.0526
137.853 8947 94.5886
137.97 8924 94.4669
138.087 8804 93.8296
138.204 8637 92.9355
138.321 8652 93.0161
138.438 8714 93.3488
138.555 8667 93.0967
138.672 8762 93.6056
138.788 8405 91.6788
138.905 8189 90.4931
139.022 8349 91.3729
139.139 8601 92.7416
139.255 8930 94.4987
139.372 8901 94.3451
139.488 9324 96.5609
139.605 9219 96.0156
139.721 9272 96.2912
139.838 9240 96.1249
139.954 9260 96.2289
140.071 8933 94.5145
140.187 8874 94.2019
140.303 8797 93.7923
140.419 8578 92.6175
140.535 8434 91.8368
140.652 8095 89.9722
140.768 0 1
140.884 0 1
141 0 1
141.115 0 1
141.231 0 1
141.347 0 1
141.463 0 1
141.578 0 1
141.694 0 1
144.104 0 1
144.219 0 1
144.335 0 1
144.45 0 1
144.566 0 1
144.682 0 1
144.798 0 1
144.914 0 1
145.03 0 1
145.146 6255 79.0886
145.262 6916 83.1625
145.378 6790 82.4015
145.494 6609 81.2958
145.61 6562 81.0062
145.726 6335 79.5927
145.842 6265 79.1518
145.959 6301 79.3788
146.075 6329 79.555
146.192 6350 79.6869
146.308 6605 81.2712
146.425 6834 82.668
146.541 6969 83.4805
146.658 6672 81.6823
146.774 6809 82.5167
146.891 6659 81.6027
147.008 6581 81.1234
147.125 6456 80.3492
147.241 6761 82.2253
147.358 6761 82.2253
147.475 6777 82.3225
147.592 6870 82.8855
147.709 6920 83.1865
147.826 6844 82.7285
147.943 6930 83.2466
148.06 7228 85.0176
148.177 7166 84.6522
148.294 7114 84.3445
148.411 7166 84.6522
148.528 7493 86.5621
148.645 7298 85.4283
148.762 7322 85.5687
148.88 7378 85.8953
148.997 7294 85.4049
149.114 7236 85.0647
149.231 7120 84.3801
149.349 6978 83.5344
149.466 6822 82.5954
149.583 6805 82.4924
149.701 6639 81.4801
149.818 6567 81.037
149.935 6556 80.9691
150.053 6808 82.5106
150.17 6915 83.1565
150.287 7110 84.3208
150.405 7242 85.0999
150.522 7013 83.7437
150.64 6944 83.3307
150.757 6753 82.1766
150.875 6920 83.1865
150.992 6957 83.4086
151.11 7092 84.214
151.227 7314 85.5219
151.344 7382 85.9186
151.462 7264 85.2291
151.579 7474 86.4523
151.697 7496 86.5794
151.814 7594 87.1436
151.932 7619 87.2869
152.049 7649 87.4586
152.167 7728 87.909
152.284 7868 88.7017
152.402 7814 88.3968
152.519 7821 88.4364
152.636 7950 89.1628
152.754 7794 88.2836
152.871 7685 87.6641
152.989 7648 87.4528
153.106 7358 85.7788
153.223 7284 85.3464
153.341 7125 84.4097
153.458 7068 84.0714
153.575 7099 84.2556
153.693 7191 84.7998
153.81 7349 85.7263
153.927 7456 86.3481
154.044 7477 86.4696
154.162 7305 85.4693
154.279 7347 85.7146
154.396 7068 84.0714
154.513 7420 86.1394
154.63 7469 86.4234
154.747 8017 89.5377
154.864 8004 89.4651
154.981 8025 89.5824
155.098 8080 89.8888
155.215 8303 91.1208
155.332 8168 90.377
155.449 8178 90.4323
155.566 8255 90.857
155.683 8250 90.8295
155.8 8439 91.864
155.917 8376 91.5205
156.033 8475 92.0598
156.15 0 1
156.267 0 1
156.383 0 1
156.5 0 1
156.617 0 1
156.733 0 1
156.85 0 1
156.966 0 1
157.082 0 1
157.199 0 1
157.315 0 1
157.431 0 1
157.547 0 1
157.664 0 1
157.78 0 1
157.896 0 1
158.012 0 1
158.128 0 1
158.244 0 1
158.359 0 1
158.475 0 1
158.591 0 1
158.706 0 1
