
6.15755 0 1
6.2731 0 1
6.3887 0 1
6.50437 0 1
6.62009 0 1
6.73587 0 1
6.8517 0 1
6.96759 0 1
7.08353 0 1
7.19952 0 1
7.31557 0 1
7.43166 0 1
7.54781 0 1
7.664 0 1
7.78024 0 1
7.89653 0 1
8.01286 0 1
8.12924 0 1
8.24567 0 1
8.36213 0 1
8.47864 0 1
8.59519 0 1
8.71178 0 1
8.82841 0 1
8.94508 0 1
9.06179 0 1
9.17853 0 1
9.29531 0 1
9.41212 0 1
9.52897 0 1
9.64584 0 1
9.76276 0 1
9.8797 0 1
9.99667 0 1
10.1137 0 1
10.2307 0 1
10.3478 0 1
10.4648 0 1
10.5819 0 1
10.6991 0 1
10.8162 0 1
10.9334 0 1
11.0506 0 1
11.1678 0 1
11.285 0 1
11.4023 0 1
11.5196 0 1
11.6369 0 1
11.7542 0 1
11.8715 0 1
11.9888 0 1
12.1062 0 1
12.2235 0 1
12.3409 0 1
12.4582 0 1
12.5756 0 1
12.693 0 1
12.8104 0 1
12.9278 0 1
13.0452 0 1
13.1626 0 1
13.28 0 1
13.3974 0 1
13.5149 0 1
13.6323 0 1
13.7497 0 1
13.8671 0 1
13.9845 0 1
14.1019 0 1
14.2193 0 1
14.3367 0 1
14.4541 0 1
14.5714 0 1
14.6888 0 1
14.8062 0 1
14.9235 0 1
15.0408 1617 40.2119
15.1581 1718 41.4488
15.2755 1762 41.9762
15.3927 1863 43.1625
15.51 1778 42.1663
15.6273 1789 42.2966
15.7445 1807 42.5088
15.8617 1901 43.6005
15.9789 1817 42.6263
16.0961 1818 42.638
16.2132 1794 42.3556
16.3304 1845 42.9535
16.4475 1883 43.3935
16.5646 1973 44.4185
16.6816 2026 45.0111
16.7986 2132 46.1736
16.9156 2180 46.6905
17.0326 2130 46.1519
17.1496 2051 45.288
17.2665 2170 46.5833
17.3833 2091 45.7275
17.5002 1986 44.5646
17.617 2011 44.8442
17.7338 1990 44.6094
17.8505 1860 43.1277
17.9672 1744 41.7612
18.0839 1832 42.8019
18.2005 1987 44.5758
18.3171 2052 45.299
18.4337 1958 44.2493
18.5502 2055 45.3321
18.6666 1984 44.5421
18.7831 2104 45.8694
18.8994 2084 45.6508
19.0158 2033 45.0888
19.1321 1923 43.852
19.2483 1968 44.3621
19.3645 1769 42.0595
19.4806 1695 41.1704
19.5967 1618 40.2244
19.7128 1467 38.3014
19.8288 1342 36.6333
19.9447 1315 36.2629
20.0606 0 1
20.1764 0 1
20.2922 0 1
20.4079 0 1
20.5236 0 1
20.6392 0 1
20.7548 0 1
20.8702 0 1
23.3078 0 1
23.4233 0 1
23.539 0 1
23.6547 0 1
23.7704 0 1
23.8862 0 1
24.0021 0 1
24.118 0 1
24.234 0 1
24.35 0 1
24.4661 843 29.0345
24.5822 984 31.3688
24.6984 1215 34.8569
24.8146 1273 35.6791
24.9309 1345 36.6742
25.0472 1493 38.6394
25.1636 1601 40.0125
25.28 1890 43.4741
25.3965 1907 43.6692
25.513 2056 45.3431
25.6296 2114 45.9783
25.7462 2287 47.8226
25.8628 2222 47.1381
25.9795 2360 48.5798
26.0962 2299 47.9479
26.213 2172 46.6047
26.3298 2019 44.9333
26.4466 1938 44.0227
26.5635 1983 44.5309
26.6804 1930 43.9318
26.7973 2005 44.7772
26.9143 2028 45.0333
27.0313 2047 45.2438
27.1483 2123 46.076
27.2653 2079 45.5961
27.3824 2123 46.076
27.4996 2129 46.1411
27.6167 2155 46.422
27.7339 2043 45.1996
27.8511 2099 45.8148
27.9683 2063 45.4203
28.0855 1937 44.0114
28.2028 1864 43.1741
28.3201 1847 42.9767
28.4374 1774 42.1189
28.5547 1851 43.0232
28.6721 1864 43.1741
28.7894 1985 44.5533
28.9068 2052 45.299
29.0242 2168 46.5618
29.1416 2178 46.669
29.259 2225 47.1699
29.3764 2107 45.9021
29.4939 2222 47.1381
29.6113 2084 45.6508
29.7288 2135 46.2061
29.8463 1985 44.5533
29.9638 1969 44.3734
30.0812 1762 41.9762
30.1987 1871 43.2551
30.3162 1912 43.7264
30.4337 1809 42.5323
30.5512 1955 44.2154
30.6687 1995 44.6654
30.7862 2090 45.7165
30.9037 2162 46.4973
31.0212 2115 45.9891
31.1387 2087 45.6837
31.2562 2059 45.3762
31.3737 2035 45.111
31.4912 2011 44.8442
31.6087 1873 43.2782
31.7262 1915 43.7607
31.8436 1725 41.5331
31.9611 1743 41.7493
32.0785 1782 42.2137
32.1959 1821 42.6732
32.3134 1790 42.3084
32.4308 2018 44.9222
32.5482 2050 45.2769
32.6655 2141 46.2709
32.7829 2115 45.9891
32.9002 2096 45.7821
33.0176 2087 45.6837
33.1349 2066 45.4533
33.2522 2074 45.5412
33.3694 2048 45.2548
33.4867 1885 43.4166
33.6039 1820 42.6615
33.7211 1734 41.6413
33.8383 1800 42.4264
33.9554 1684 41.0366
34.0725 1834 42.8252
34.1896 1893 43.5086
34.3067 1908 43.6807
34.4237 1907 43.6692
34.5407 1920 43.8178
34.6577 1870 43.2435
34.7746 1986 44.5646
34.8915 2006 44.7884
35.0084 1916 43.7721
35.1252 1884 43.4051
35.242 1818 42.638
35.3587 1745 41.7732
35.4755 1703 41.2674
35.5921 1753 41.8688
35.7088 1599 39.9875
35.8254 1636 40.4475
35.9419 1729 41.5812
36.0584 1776 42.1426
36.1749 1833 42.8135
36.2913 1835 42.8369
36.4077 1889 43.4626
36.524 1835 42.8369
36.6403 1816 42.6146
36.7565 1639 40.4846
36.8727 1668 40.8412
36.9889 1563 39.5348
37.1049 1376 37.0945
37.221 0 1
37.3369 0 1
37.4529 0 1
37.5687 0 1
37.6845 0 1
37.8003 0 1
37.916 0 1
38.0316 0 1
38.1472 0 1
40.5851 0 1
40.7008 0 1
40.8164 0 1
40.9322 0 1
41.048 0 1
41.1639 0 1
41.2798 0 1
41.3958 0 1
41.5118 0 1
41.6279 0 1
41.744 1016 31.8748
41.8602 1048 32.3728
41.9765 1153 33.9559
42.0928 1195 34.5688
42.2091 1219 34.9142
42.3255 1165 34.1321
42.4419 1213 34.8281
42.5584 1231 35.0856
42.675 1281 35.7911
42.7915 1336 36.5513
42.9081 1531 39.128
43.0248 1536 39.1918
43.1415 1618 40.2244
43.2582 1532 39.1408
43.375 1661 40.7554
43.4918 1572 39.6485
43.6087 1606 40.0749
43.7256 1607 40.0874
43.8425 1581 39.7618
43.9595 1543 39.281
44.0765 1512 38.8844
44.1935 1536 39.1918
44.3106 1419 37.6696
44.4277 1362 36.9053
44.5448 1384 37.2022
44.6619 1372 37.0405
44.7791 1460 38.2099
44.8963 1469 38.3275
45.0136 1631 40.3856
45.1308 1675 40.9268
45.2481 1702 41.2553
45.3654 1682 41.0122
45.4827 1656 40.694
45.6001 1592 39.8999
45.7174 1626 40.3237
45.8348 1531 39.128
45.9522 1399 37.4032
46.0697 1349 36.7287
46.1871 1284 35.8329
46.3046 1370 37.0135
46.422 1481 38.4838
46.5395 1531 39.128
46.657 1608 40.0999
46.7745 1580 39.7492
46.892 1644 40.5463
47.0096 1635 40.4351
47.1271 1673 40.9023
47.2446 1685 41.0488
47.3622 1656 40.694
47.4797 1621 40.2616
47.5973 1567 39.5854
47.7149 1553 39.4081
47.8324 1537 39.2046
47.95 1404 37.47
48.0675 1375 37.081
48.1851 1305 36.1248
48.3027 1477 38.4318
48.4202 1497 38.6911
48.5378 1593 39.9124
48.6554 1630 40.3733
48.7729 1701 41.2432
48.8904 1703 41.2674
49.008 1680 40.9878
49.1255 1644 40.5463
49.243 1591 39.8873
49.3605 1471 38.3536
49.478 1437 37.9078
49.5955 1331 36.4829
49.713 1322 36.3593
49.8304 1324 36.3868
49.9479 1404 37.47
50.0653 1474 38.3927
50.1827 1528 39.0896
50.3001 1574 39.6737
50.4175 1618 40.2244
50.5348 1645 40.5586
50.6521 1649 40.6079
50.7694 1758 41.9285
50.8867 1650 40.6202
51.004 1661 40.7554
51.1212 1692 41.1339
51.2384 1643 40.5339
51.3556 1617 40.2119
51.4727 1540 39.2428
51.5899 1407 37.51
51.707 1491 38.6135
51.824 1560 39.4968
51.9411 1685 41.0488
52.0581 1847 42.9767
52.175 1975 44.441
52.2919 1886 43.4281
52.4088 2006 44.7884
52.5257 2072 45.5192
52.6425 2093 45.7493
52.7593 2052 45.299
52.876 2011 44.8442
52.9927 1972 44.4072
53.1094 1885 43.4166
53.226 1796 42.3792
53.3426 1708 41.328
53.4591 1680 40.9878
53.5756 1759 41.9404
53.692 1752 41.8569
53.8084 1687 41.0731
53.9248 1716 41.4246
54.0411 1711 41.3642
54.1573 1627 40.3361
54.2735 0 1
54.3896 0 1
54.5057 0 1
54.6217 0 1
54.7377 0 1
54.8537 0 1
54.9695 0 1
55.0853 0 1
55.2011 0 1
55.3168 0 1
55.4324 0 1
57.824 0 1
57.9396 0 1
58.0553 0 1
58.1711 0 1
58.2869 0 1
58.4028 0 1
58.5187 0 1
58.6347 0 1
58.7508 0 1
58.8669 0 1
58.983 1289 35.9026
59.0992 1542 39.2683
59.2155 1590 39.8748
59.3318 1721 41.4849
59.4482 1719 41.4608
59.5646 1913 43.7379
59.681 1976 44.4522
59.7975 2028 45.0333
59.9141 1970 44.3847
60.0306 1897 43.5546
60.1473 1917 43.7836
60.2639 1794 42.3556
60.3807 1749 41.821
60.4974 1805 42.4853
60.6142 1843 42.9302
60.731 2034 45.0999
60.8479 2092 45.7384
60.9648 2182 46.7119
61.0818 2082 45.6289
61.1987 2150 46.3681
61.3158 2086 45.6727
61.4328 2051 45.288
61.5499 1932 43.9545
61.667 1800 42.4264
61.7841 1707 41.3159
61.9013 1587 39.8372
62.0185 1584 39.7995
62.1357 1680 40.9878
62.253 1792 42.332
62.3702 1926 43.8862
62.4875 1906 43.6578
62.6049 1947 44.1248
62.7222 2089 45.7056
62.8396 2078 45.5851
62.9569 2059 45.3762
63.0743 2033 45.0888
63.1918 2053 45.31
63.3092 2039 45.1553
63.4267 1941 44.0568
63.5441 1935 43.9886
63.6616 1807 42.5088
63.7791 1600 40
63.8966 1665 40.8044
64.0142 1736 41.6653
64.1317 1767 42.0357
64.2492 1816 42.6146
64.3668 2022 44.9667
64.4843 2016 44.8999
64.6019 2080 45.607
64.7195 2008 44.8107
64.837 2083 45.6399
64.9546 2027 45.0222
65.0722 1962 44.2945
65.1898 1833 42.8135
65.3074 1685 41.0488
65.4249 1606 40.0749
65.5425 1511 38.8716
65.6601 1491 38.6135
65.7777 1605 40.0625
65.8952 1663 40.7799
66.0128 1867 43.2088
66.1304 1991 44.6206
66.2479 2042 45.1885
66.3655 1966 44.3396
66.483 2005 44.7772
66.6005 2021 44.9555
66.718 1985 44.5533
66.8355 1977 44.4635
66.953 1975 44.441
67.0705 1889 43.4626
67.1879 1905 43.6463
67.3054 1700 41.2311
67.4228 1667 40.8289
67.5402 1617 40.2119
67.6576 1571 39.6358
67.7749 1606 40.0749
67.8923 1705 41.2916
68.0096 1869 43.2319
68.1269 2004 44.7661
68.2442 1992 44.6318
68.3614 2017 44.911
68.4787 1978 44.4747
68.5958 1976 44.4522
68.713 1900 43.589
68.8302 1766 42.0238
68.9473 1708 41.328
69.0643 1578 39.724
69.1814 1417 37.6431
69.2984 1459 38.1969
69.4154 1515 38.923
69.5323 1674 40.9145
69.6492 1769 42.0595
69.7661 1783 42.2256
69.8829 1820 42.6615
69.9997 1799 42.4146
70.1165 1795 42.3674
70.2332 1780 42.19
70.3499 1740 41.7133
70.4665 1599 39.9875
70.5831 1497 38.6911
70.6996 1486 38.5487
70.8161 1438 37.921
70.9326 1336 36.5513
71.049 1120 33.4664
71.1653 924 30.3974
71.2817 793 28.1603
71.3979 721 26.8514
71.5141 763 27.6225
71.6303 751 27.4044
71.7464 699 26.4386
71.8624 0 1
71.9784 0 1
72.0944 0 1
72.2102 0 1
72.3261 0 1
72.4418 0 1
72.5575 0 1
72.6732 0 1
75.1054 0 1
75.2209 0 1
75.3365 0 1
75.4521 0 1
75.5678 0 1
75.6835 0 1
75.7993 0 1
75.9151 0 1
76.031 0 1
76.147 1195 34.5688
76.263 1226 35.0143
76.3791 1206 34.7275
76.4952 1309 36.1801
76.6113 1291 35.9305
76.7276 1321 36.3456
76.8438 1389 37.2693
76.9601 1497 38.6911
77.0765 1714 41.4005
77.1929 1738 41.6893
77.3093 1670 40.8656
77.4258 1705 41.2916
77.5423 1687 41.0731
77.6589 1608 40.0999
77.7755 1496 38.6782
77.8921 1369 37
78.0088 1303 36.0971
78.1256 1171 34.2199
78.2423 1190 34.4964
78.3591 1270 35.6371
78.4759 1344 36.6606
78.5928 1471 38.3536
78.7097 1546 39.3192
78.8266 1533 39.1535
78.9436 1712 41.3763
79.0606 1653 40.6571
79.1776 1652 40.6448
79.2946 1760 41.9524
79.4117 1670 40.8656
79.5288 1648 40.5956
79.6459 1681 41
79.7631 1559 39.4842
79.8802 1582 39.7744
79.9974 1592 39.8999
80.1147 1388 37.2559
80.2319 1357 36.8375
80.3491 1424 37.7359
80.4664 1454 38.1314
80.5837 1549 39.3573
80.701 1730 41.5933
80.8183 1796 42.3792
80.9357 1761 41.9643
81.053 1758 41.9285
81.1704 1749 41.821
81.2877 1678 40.9634
81.4051 1773 42.107
81.5225 1556 39.4462
81.6399 1366 36.9594
81.7573 1335 36.5377
81.8747 1242 35.242
81.9922 1198 34.6121
82.1096 1418 37.6563
82.227 1456 38.1576
82.3444 1600 40
82.4619 1634 40.4228
82.5793 1656 40.694
82.6967 1750 41.833
82.8142 1708 41.328
82.9316 1777 42.1545
83.049 1688 41.0853
83.1664 1702 41.2553
83.2838 1741 41.7253
83.4012 1766 42.0238
83.5186 1620 40.2492
83.636 1623 40.2865
83.7534 1522 39.0128
83.8708 1429 37.8021
83.9881 1394 37.3363
84.1055 1470 38.3406
84.2228 1496 38.6782
84.3401 1592 39.8999
84.4575 1641 40.5093
84.5747 1769 42.0595
84.692 1817 42.6263
84.8093 1728 41.5692
84.9265 1785 42.2493
85.0437 1734 41.6413
85.1609 1518 38.9615
85.2781 1432 37.8418
85.3952 1286 35.8608
85.5123 1174 34.2637
85.6294 1243 35.2562
85.7465 1419 37.6696
85.8636 1528 39.0896
85.9806 1580 39.7492
86.0976 1728 41.5692
86.2145 1728 41.5692
86.3315 1810 42.5441
86.4484 1772 42.0951
86.5652 1888 43.4511
86.682 1737 41.6773
86.7988 1767 42.0357
86.9156 1851 43.0232
87.0323 1685 41.0488
87.149 1697 41.1947
87.2657 1553 39.4081
87.3823 1374 37.0675
87.4988 1268 35.609
87.6154 1249 35.3412
87.7318 1207 34.7419
87.8483 1381 37.1618
87.9647 1387 37.2424
88.081 1454 38.1314
88.1973 1436 37.8946
88.3136 1332 36.4966
88.4298 1318 36.3043
88.546 1231 35.0856
88.6621 1036 32.187
88.7781 843 29.0345
88.8942 0 1
89.0101 0 1
89.126 0 1
89.2419 0 1
89.3577 0 1
89.4734 0 1
89.5891 0 1
89.7047 0 1
89.8203 0 1
89.9358 0 1
92.3269 0 1
92.4424 0 1
92.558 0 1
92.6736 0 1
92.7893 0 1
92.905 0 1
93.0208 0 1
93.1366 0 1
93.2525 0 1
93.3685 0 1
93.4845 0 1
93.6005 1397 37.3765
93.7167 1409 37.5366
93.8328 1538 39.2173
93.949 1559 39.4842
94.0653 1515 38.923
94.1816 1594 39.9249
94.2979 1496 38.6782
94.4143 1443 37.9868
94.5307 1356 36.8239
94.6472 1312 36.2215
94.7637 1305 36.1248
94.8803 1430 37.8153
94.9969 1490 38.6005
95.1135 1631 40.3856
95.2302 1713 41.3884
95.3469 1796 42.3792
95.4637 1783 42.2256
95.5805 1803 42.4617
95.6973 1843 42.9302
95.8142 1773 42.107
95.9311 1733 41.6293
96.048 1782 42.2137
96.1649 1776 42.1426
96.2819 1755 41.8927
96.3989 1670 40.8656
96.516 1598 39.975
96.633 1532 39.1408
96.7501 1456 38.1576
96.8673 1481 38.4838
96.9844 1575 39.6863
97.1016 1584 39.7995
97.2188 1674 40.9145
97.336 1852 43.0349
97.4532 1785 42.2493
97.5704 1869 43.2319
97.6877 1840 42.8952
97.805 1863 43.1625
97.9223 1618 40.2244
98.0396 1462 38.2361
98.1569 1355 36.8103
98.2743 1313 36.2353
98.3916 1237 35.171
98.509 1404 37.47
98.6264 1556 39.4462
98.7438 1640 40.4969
98.8612 1737 41.6773
98.9786 1789 42.2966
99.096 1826 42.7317
99.2134 1860 43.1277
99.3308 1941 44.0568
99.4482 1905 43.6463
99.5656 1882 43.382
99.6831 1886 43.4281
99.8005 1880 43.359
99.9179 1858 43.1045
100.035 1761 41.9643
100.153 1751 41.845
100.27 1560 39.4968
100.388 1525 39.0512
100.505 1721 41.4849
100.622 1706 41.3038
100.74 1816 42.6146
100.857 1975 44.441
100.975 1944 44.0908
101.092 1936 44
101.209 1898 43.566
101.327 2003 44.7549
101.444 1860 43.1277
101.561 1684 41.0366
101.679 1607 40.0874
101.796 1447 38.0395
101.913 1379 37.1349
102.03 1364 36.9324
102.148 1552 39.3954
102.265 1632 40.398
102.382 1772 42.0951
102.499 1824 42.7083
102.616 1915 43.7607
102.733 1970 44.3847
102.851 1979 44.486
102.968 1982 44.5197
103.085 1978 44.4747
103.202 1976 44.4522
103.319 1994 44.6542
103.436 1909 43.6921
103.552 1921 43.8292
103.669 1842 42.9185
103.786 1698 41.2068
103.903 1613 40.1622
104.02 1733 41.6293
104.137 1780 42.19
104.253 1904 43.6348
104.37 1991 44.6206
104.487 1967 44.3509
104.603 2021 44.9555
104.72 1994 44.6542
104.836 1922 43.8406
104.953 1886 43.4281
105.069 1625 40.3113
105.186 1459 38.1969
105.302 1337 36.565
105.418 1269 35.623
105.535 1252 35.3836
105.651 1349 36.7287
105.767 1337 36.565
105.883 1286 35.8608
105.999 1301 36.0694
106.115 0 1
106.231 0 1
106.347 0 1
106.463 0 1
106.579 0 1
106.694 0 1
106.81 0 1
106.926 0 1
107.041 0 1
107.157 0 1
109.576 0 1
109.692 0 1
109.807 0 1
109.923 0 1
110.039 0 1
110.155 0 1
110.27 0 1
110.386 0 1
110.502 0 1
110.618 851 29.1719
110.735 1106 33.2566
110.851 1252 35.3836
110.967 1420 37.6829
111.083 1469 38.3275
111.199 1667 40.8289
111.316 1770 42.0714
111.432 1797 42.391
111.549 1858 43.1045
111.665 1787 42.2729
111.782 1881 43.3705
111.898 1820 42.6615
112.015 1791 42.3202
112.132 1829 42.7668
112.248 1574 39.6737
112.365 1498 38.704
112.482 1478 38.4448
112.599 1674 40.9145
112.716 1693 41.1461
112.832 1897 43.5546
112.949 1904 43.6348
113.066 1919 43.8064
113.183 1941 44.0568
113.3 1923 43.852
113.417 1877 43.3244
113.534 1762 41.9762
113.652 1628 40.3485
113.769 1448 38.0526
113.886 1352 36.7696
114.003 1293 35.9583
114.12 1310 36.1939
114.238 1596 39.95
114.355 1670 40.8656
114.472 1617 40.2119
114.589 1927 43.8976
114.707 1834 42.8252
114.824 1889 43.4626
114.942 1959 44.2606
115.059 1860 43.1277
115.176 2013 44.8665
115.294 1918 43.795
115.411 1885 43.4166
115.529 1830 42.7785
115.646 1796 42.3792
115.764 1660 40.7431
115.881 1628 40.3485
115.999 1534 39.1663
116.116 1668 40.8412
116.234 1577 39.7115
116.351 1744 41.7612
116.469 1890 43.4741
116.586 1875 43.3013
116.704 1878 43.3359
116.821 1900 43.589
116.939 1894 43.5201
117.056 1769 42.0595
117.174 1810 42.5441
117.291 1527 39.0768
117.409 1487 38.5616
117.526 1382 37.1753
117.644 1310 36.1939
117.761 1426 37.7624
117.879 1590 39.8748
117.996 1691 41.1218
118.114 1760 41.9524
118.231 1741 41.7253
118.349 1697 41.1947
118.466 1877 43.3244
118.584 1826 42.7317
118.701 1942 44.0681
118.819 1788 42.2847
118.936 1816 42.6146
119.053 1769 42.0595
119.171 1670 40.8656
119.288 1637 40.4599
119.405 1681 41
119.523 1539 39.2301
119.64 1521 39
119.757 1517 38.9487
119.875 1563 39.5348
119.992 1637 40.4599
120.109 1774 42.1189
120.226 1851 43.0232
120.343 1749 41.821
120.46 1765 42.0119
120.578 1734 41.6413
120.695 1742 41.7373
120.812 1723 41.509
120.929 1538 39.2173
121.046 1390 37.2827
121.163 1273 35.6791
121.279 1251 35.3695
121.396 1241 35.2278
121.513 1315 36.2629
121.63 1462 38.2361
121.747 1378 37.1214
121.863 1436 37.8946
121.98 1451 38.092
122.097 1424 37.7359
122.213 1438 37.921
122.33 1433 37.855
122.446 1358 36.8511
122.563 1312 36.2215
122.679 1159 34.0441
122.795 1131 33.6303
122.912 1099 33.1512
123.028 880 29.6648
123.144 890 29.8329
123.26 747 27.3313
123.377 0 1
123.493 0 1
123.609 0 1
123.725 0 1
123.84 0 1
123.956 0 1
124.072 0 1
124.188 0 1
124.303 0 1
124.419 0 1
126.852 0 1
126.968 0 1
127.083 0 1
127.199 0 1
127.315 0 1
127.431 0 1
127.547 0 1
127.663 0 1
127.779 0 1
127.895 0 1
128.011 0 1
128.127 0 1
128.243 0 1
128.359 1734 41.6413
128.476 1684 41.0366
128.592 1694 41.1582
128.708 1687 41.0731
128.825 1710 41.3521
128.941 1822 42.6849
129.058 1793 42.3438
129.174 1843 42.9302
129.291 1942 44.0681
129.408 1934 43.9773
129.524 1892 43.4971
129.641 1888 43.4511
129.758 1964 44.317
129.875 1728 41.5692
129.992 1567 39.5854
130.108 1511 38.8716
130.225 1367 36.973
130.342 1411 37.5633
130.459 1526 39.064
130.576 1618 40.2244
130.693 1690 41.1096
130.81 1734 41.6413
130.928 1798 42.4028
131.045 1813 42.5793
131.162 1957 44.238
131.279 1913 43.7379
131.396 1875 43.3013
131.513 1889 43.4626
131.631 1857 43.0929
131.748 1827 42.7434
131.865 1705 41.2916
131.983 1780 42.19
132.1 1720 41.4729
132.217 1753 41.8688
132.335 1762 41.9762
132.452 1786 42.2611
132.57 1782 42.2137
132.687 1957 44.238
132.804 1896 43.5431
132.922 1931 43.9431
133.039 2034 45.0999
133.157 2054 45.3211
133.274 1938 44.0227
133.392 1888 43.4511
133.509 1800 42.4264
133.627 1629 40.3609
133.744 1526 39.064
133.862 1389 37.2693
133.979 1448 38.0526
134.097 1632 40.398
134.214 1666 40.8167
134.332 1722 41.497
134.449 1723 41.509
134.567 1853 43.0465
134.684 1952 44.1814
134.802 1891 43.4856
134.919 1984 44.5421
135.037 1993 44.643
135.154 1883 43.3935
135.272 1865 43.1856
135.389 1887 43.4396
135.507 1901 43.6005
135.624 1717 41.4367
135.742 1735 41.6533
135.859 1667 40.8289
135.977 1703 41.2674
136.094 1839 42.8836
136.211 1843 42.9302
136.329 1940 44.0454
136.446 1990 44.6094
136.564 1958 44.2493
136.681 1999 44.7102
136.798 2007 44.7996
136.915 1886 43.4281
137.033 1936 44
137.15 1846 42.9651
137.267 1649 40.6079
137.384 1523 39.0256
137.502 1454 38.1314
137.619 1435 37.8814
137.736 1619 40.2368
137.853 1634 40.4228
137.97 1771 42.0833
138.087 1763 41.9881
138.204 1787 42.2729
138.321 1899 43.5775
138.438 1922 43.8406
138.555 1949 44.1475
138.672 1863 43.1625
138.788 1835 42.8369
138.905 1805 42.4853
139.022 1682 41.0122
139.139 1611 40.1373
139.255 1465 38.2753
139.372 1461 38.223
139.488 1357 36.8375
139.605 1294 35.9722
139.721 1323 36.3731
139.838 1318 36.3043
139.954 1330 36.4692
140.071 1284 35.8329
140.187 1221 34.9428
140.303 1095 33.0908
140.419 1056 32.4962
140.535 1007 31.7333
140.652 883 29.7153
140.768 0 1
140.884 0 1
141 0 1
141.115 0 1
141.231 0 1
141.347 0 1
141.463 0 1
141.578 0 1
141.694 0 1
144.104 0 1
144.219 0 1
144.335 0 1
144.45 0 1
144.566 0 1
144.682 0 1
144.798 0 1
144.914 0 1
145.03 0 1
145.146 1361 36.8917
145.262 1501 38.7427
145.378 1503 38.7685
145.494 1564 39.5474
145.61 1581 39.7618
145.726 1513 38.8973
145.842 1402 37.4433
145.959 1358 36.8511
146.075 1256 35.4401
146.192 1218 34.8999
146.308 1154 33.9706
146.425 1180 34.3511
146.541 1283 35.819
146.658 1184 34.4093
146.774 1352 36.7696
146.891 1415 37.6165
147.008 1344 36.6606
147.125 1407 37.51
147.241 1413 37.5899
147.358 1432 37.8418
147.475 1556 39.4462
147.592 1475 38.4057
147.709 1447 38.0395
147.826 1339 36.5923
147.943 1343 36.647
148.06 1349 36.7287
148.177 1325 36.4005
148.294 1276 35.7211
148.411 1359 36.8646
148.528 1363 36.9188
148.645 1427 37.7757
148.762 1446 38.0263
148.88 1525 39.0512
148.997 1592 39.8999
149.114 1470 38.3406
149.231 1578 39.724
149.349 1488 38.5746
149.466 1426 37.7624
149.583 1375 37.081
149.701 1289 35.9026
149.818 1285 35.8469
149.935 1171 34.2199
150.053 1198 34.6121
150.17 1175 34.2783
150.287 1293 35.9583
150.405 1331 36.4829
150.522 1421 37.6962
150.64 1325 36.4005
150.757 1421 37.6962
150.875 1442 37.9737
150.992 1481 38.4838
151.11 1512 38.8844
151.227 1461 38.223
151.344 1371 37.027
151.462 1395 37.3497
151.579 1375 37.081
151.697 1345 36.6742
151.814 1384 37.2022
151.932 1322 36.3593
152.049 1298 36.0278
152.167 1321 36.3456
152.284 1289 35.9026
152.402 1456 38.1576
152.519 1446 38.0263
152.636 1507 38.8201
152.754 1499 38.7169
152.871 1489 38.5876
152.989 1378 37.1214
153.106 1383 37.1887
153.223 1280 35.7771
153.341 1220 34.9285
153.458 1180 34.3511
153.575 1127 33.5708
153.693 1192 34.5254
153.81 1158 34.0294
153.927 1161 34.0735
154.044 1296 36
154.162 1270 35.6371
154.279 1296 36
154.396 1363 36.9188
154.513 1351 36.756
154.63 1350 36.7423
154.747 1338 36.5787
154.864 1322 36.3593
154.981 1366 36.9594
155.098 1240 35.2136
155.215 1221 34.9428
155.332 1211 34.7994
155.449 1204 34.6987
155.566 1149 33.8969
155.683 1165 34.1321
155.8 1282 35.805
155.917 1235 35.1426
156.033 1257 35.4542
156.15 0 1
156.267 0 1
156.383 0 1
156.5 0 1
156.617 0 1
156.733 0 1
156.85 0 1
156.966 0 1
157.082 0 1
157.199 0 1
157.315 0 1
157.431 0 1
157.547 0 1
157.664 0 1
157.78 0 1
157.896 0 1
158.012 0 1
158.128 0 1
158.244 0 1
158.359 0 1
158.475 0 1
158.591 0 1
158.706 0 1
