
6.15755 0 1
6.2731 0 1
6.3887 0 1
6.50437 0 1
6.62009 0 1
6.73587 0 1
6.8517 0 1
6.96759 0 1
7.08353 0 1
7.19952 0 1
7.31557 0 1
7.43166 0 1
7.54781 0 1
7.664 0 1
7.78024 0 1
7.89653 0 1
8.01286 0 1
8.12924 0 1
8.24567 0 1
8.36213 0 1
8.47864 0 1
8.59519 0 1
8.71178 0 1
8.82841 0 1
8.94508 0 1
9.06179 0 1
9.17853 0 1
9.29531 0 1
9.41212 0 1
9.52897 0 1
9.64584 0 1
9.76276 0 1
9.8797 0 1
9.99667 0 1
10.1137 0 1
10.2307 0 1
10.3478 0 1
10.4648 0 1
10.5819 0 1
10.6991 0 1
10.8162 0 1
10.9334 0 1
11.0506 0 1
11.1678 0 1
11.285 0 1
11.4023 0 1
11.5196 0 1
11.6369 0 1
11.7542 0 1
11.8715 0 1
11.9888 0 1
12.1062 0 1
12.2235 0 1
12.3409 0 1
12.4582 0 1
12.5756 0 1
12.693 0 1
12.8104 0 1
12.9278 0 1
13.0452 0 1
13.1626 0 1
13.28 0 1
13.3974 0 1
13.5149 0 1
13.6323 0 1
13.7497 0 1
13.8671 0 1
13.9845 0 1
14.1019 0 1
14.2193 0 1
14.3367 0 1
14.4541 0 1
14.5714 0 1
14.6888 0 1
14.8062 0 1
14.9235 0 1
15.0408 922 30.3645
15.1581 974 31.209
15.2755 911 30.1828
15.3927 897 29.95
15.51 903 30.05
15.6273 792 28.1425
15.7445 789 28.0891
15.8617 848 29.1204
15.9789 899 29.9833
16.0961 845 29.0689
16.2132 797 28.2312
16.3304 858 29.2916
16.4475 760 27.5681
16.5646 781 27.9464
16.6816 804 28.3549
16.7986 741 27.2213
16.9156 782 27.9643
17.0326 751 27.4044
17.1496 734 27.0924
17.2665 730 27.0185
17.3833 741 27.2213
17.5002 730 27.0185
17.617 763 27.6225
17.7338 775 27.8388
17.8505 796 28.2135
17.9672 781 27.9464
18.0839 792 28.1425
18.2005 733 27.074
18.3171 779 27.9106
18.4337 827 28.7576
18.5502 821 28.6531
18.6666 807 28.4077
18.7831 840 28.9828
18.8994 818 28.6007
19.0158 696 26.3818
19.1321 684 26.1534
19.2483 634 25.1794
19.3645 659 25.671
19.4806 662 25.7294
19.5967 696 26.3818
19.7128 687 26.2107
19.8288 656 25.6125
19.9447 661 25.7099
20.0606 0 1
20.1764 0 1
20.2922 0 1
20.4079 0 1
20.5236 0 1
20.6392 0 1
20.7548 0 1
20.8702 0 1
23.3078 0 1
23.4233 0 1
23.539 0 1
23.6547 0 1
23.7704 0 1
23.8862 0 1
24.0021 0 1
24.118 0 1
24.234 0 1
24.35 0 1
24.4661 1063 32.6037
24.5822 1334 36.524
24.6984 1377 37.108
24.8146 1545 39.3065
24.9309 1645 40.5586
25.0472 1684 41.0366
25.1636 1751 41.845
25.28 2138 46.2385
25.3965 2342 48.3942
25.513 2461 49.6085
25.6296 2485 49.8498
25.7462 2478 49.7795
25.8628 2464 49.6387
25.9795 2406 49.051
26.0962 2307 48.0312
26.213 2240 47.3286
26.3298 2019 44.9333
26.4466 1703 41.2674
26.5635 1482 38.4968
26.6804 1382 37.1753
26.7973 1264 35.5528
26.9143 1184 34.4093
27.0313 1108 33.2866
27.1483 1067 32.665
27.2653 1047 32.3574
27.3824 1094 33.0757
27.4996 1090 33.0151
27.6167 1029 32.078
27.7339 984 31.3688
27.8511 1000 31.6228
27.9683 1024 32
28.0855 944 30.7246
28.2028 939 30.6431
28.3201 992 31.496
28.4374 1041 32.2645
28.5547 1035 32.1714
28.6721 1010 31.7805
28.7894 940 30.6594
28.9068 911 30.1828
29.0242 871 29.5127
29.1416 770 27.7489
29.259 792 28.1425
29.3764 737 27.1477
29.4939 766 27.6767
29.6113 742 27.2397
29.7288 758 27.5318
29.8463 692 26.3059
29.9638 726 26.9444
30.0812 672 25.923
30.1987 712 26.6833
30.3162 651 25.5147
30.4337 683 26.1343
30.5512 667 25.8263
30.6687 669 25.865
30.7862 710 26.6458
30.9037 737 27.1477
31.0212 788 28.0713
31.1387 826 28.7402
31.2562 717 26.7769
31.3737 811 28.4781
31.4912 744 27.2764
31.6087 667 25.8263
31.7262 726 26.9444
31.8436 765 27.6586
31.9611 763 27.6225
32.0785 757 27.5136
32.1959 801 28.3019
32.3134 742 27.2397
32.4308 692 26.3059
32.5482 704 26.533
32.6655 673 25.9422
32.7829 649 25.4755
32.9002 649 25.4755
33.0176 693 26.3249
33.1349 642 25.3377
33.2522 698 26.4197
33.3694 636 25.219
33.4867 655 25.593
33.6039 643 25.3574
33.7211 606 24.6171
33.8383 698 26.4197
33.9554 679 26.0576
34.0725 619 24.8797
34.1896 590 24.2899
34.3067 647 25.4362
34.4237 617 24.8395
34.5407 652 25.5343
34.6577 714 26.7208
34.7746 732 27.0555
34.8915 670 25.8844
35.0084 661 25.7099
35.1252 622 24.9399
35.242 602 24.5357
35.3587 641 25.318
35.4755 640 25.2982
35.5921 644 25.3772
35.7088 670 25.8844
35.8254 667 25.8263
35.9419 656 25.6125
36.0584 624 24.98
36.1749 654 25.5734
36.2913 645 25.3969
36.4077 625 25
36.524 582 24.1247
36.6403 529 23
36.7565 525 22.9129
36.8727 457 21.3776
36.9889 457 21.3776
37.1049 419 20.4695
37.221 0 1
37.3369 0 1
37.4529 0 1
37.5687 0 1
37.6845 0 1
37.8003 0 1
37.916 0 1
38.0316 0 1
38.1472 0 1
40.5851 0 1
40.7008 0 1
40.8164 0 1
40.9322 0 1
41.048 0 1
41.1639 0 1
41.2798 0 1
41.3958 0 1
41.5118 0 1
41.6279 0 1
41.744 249 15.7797
41.8602 330 18.1659
41.9765 374 19.3391
42.0928 420 20.4939
42.2091 415 20.3715
42.3255 437 20.9045
42.4419 463 21.5174
42.5584 482 21.9545
42.675 477 21.8403
42.7915 506 22.4944
42.9081 427 20.664
43.0248 441 21
43.1415 462 21.4942
43.2582 494 22.2261
43.375 494 22.2261
43.4918 471 21.7025
43.6087 474 21.7715
43.7256 495 22.2486
43.8425 507 22.5167
43.9595 472 21.7256
44.0765 428 20.6882
44.1935 435 20.8567
44.3106 438 20.9284
44.4277 489 22.1133
44.5448 511 22.6053
44.6619 434 20.8327
44.7791 485 22.0227
44.8963 507 22.5167
45.0136 498 22.3159
45.1308 512 22.6274
45.2481 550 23.4521
45.3654 490 22.1359
45.4827 518 22.7596
45.6001 493 22.2036
45.7174 451 21.2368
45.8348 507 22.5167
45.9522 529 23
46.0697 481 21.9317
46.1871 472 21.7256
46.3046 453 21.2838
46.422 425 20.6155
46.5395 444 21.0713
46.657 409 20.2237
46.7745 459 21.4243
46.892 475 21.7945
47.0096 482 21.9545
47.1271 515 22.6936
47.2446 517 22.7376
47.3622 514 22.6716
47.4797 478 21.8632
47.5973 470 21.6795
47.7149 426 20.6398
47.8324 438 20.9284
47.95 481 21.9317
48.0675 476 21.8174
48.1851 478 21.8632
48.3027 491 22.1585
48.4202 515 22.6936
48.5378 493 22.2036
48.6554 505 22.4722
48.7729 491 22.1585
48.8904 523 22.8692
49.008 506 22.4944
49.1255 537 23.1733
49.243 491 22.1585
49.3605 510 22.5832
49.478 492 22.1811
49.5955 513 22.6495
49.713 419 20.4695
49.8304 394 19.8494
49.9479 430 20.7364
50.0653 357 18.8944
50.1827 404 20.0998
50.3001 443 21.0476
50.4175 448 21.166
50.5348 436 20.8806
50.6521 443 21.0476
50.7694 509 22.561
50.8867 438 20.9284
51.004 452 21.2603
51.1212 452 21.2603
51.2384 423 20.567
51.3556 404 20.0998
51.4727 445 21.095
51.5899 457 21.3776
51.707 502 22.4054
51.824 511 22.6053
51.9411 492 22.1811
52.0581 481 21.9317
52.175 452 21.2603
52.2919 468 21.6333
52.4088 493 22.2036
52.5257 465 21.5639
52.6425 477 21.8403
52.7593 462 21.4942
52.876 526 22.9347
52.9927 491 22.1585
53.1094 468 21.6333
53.226 447 21.1424
53.3426 449 21.1896
53.4591 465 21.5639
53.5756 404 20.0998
53.692 370 19.2354
53.8084 363 19.0526
53.9248 358 18.9209
54.0411 361 19
54.1573 348 18.6548
54.2735 0 1
54.3896 0 1
54.5057 0 1
54.6217 0 1
54.7377 0 1
54.8537 0 1
54.9695 0 1
55.0853 0 1
55.2011 0 1
55.3168 0 1
55.4324 0 1
57.824 0 1
57.9396 0 1
58.0553 0 1
58.1711 0 1
58.2869 0 1
58.4028 0 1
58.5187 0 1
58.6347 0 1
58.7508 0 1
58.8669 0 1
58.983 508 22.5389
59.0992 614 24.779
59.2155 829 28.7924
59.3318 1018 31.9061
59.4482 1072 32.7414
59.5646 1281 35.7911
59.681 1347 36.7015
59.7975 1318 36.3043
59.9141 1328 36.4417
60.0306 1337 36.565
60.1473 1326 36.4143
60.2639 1460 38.2099
60.3807 1361 36.8917
60.4974 1418 37.6563
60.6142 1415 37.6165
60.731 1483 38.5097
60.8479 1462 38.2361
60.9648 1443 37.9868
61.0818 1419 37.6696
61.1987 1365 36.9459
61.3158 1371 37.027
61.4328 1364 36.9324
61.5499 1329 36.4555
61.667 1325 36.4005
61.7841 1303 36.0971
61.9013 1181 34.3657
62.0185 1075 32.7872
62.1357 998 31.5911
62.253 882 29.6985
62.3702 885 29.7489
62.4875 901 30.0167
62.6049 813 28.5132
62.7222 898 29.9666
62.8396 909 30.1496
62.9569 875 29.5804
63.0743 848 29.1204
63.1918 874 29.5635
63.3092 769 27.7308
63.4267 729 27
63.5441 746 27.313
63.6616 660 25.6905
63.7791 612 24.7386
63.8966 636 25.219
64.0142 642 25.3377
64.1317 581 24.1039
64.2492 611 24.7184
64.3668 580 24.0832
64.4843 565 23.7697
64.6019 582 24.1247
64.7195 556 23.5797
64.837 558 23.622
64.9546 575 23.9792
65.0722 564 23.7487
65.1898 552 23.4947
65.3074 573 23.9374
65.4249 573 23.9374
65.5425 516 22.7156
65.6601 504 22.4499
65.7777 485 22.0227
65.8952 519 22.7816
66.0128 524 22.891
66.1304 525 22.9129
66.2479 524 22.891
66.3655 569 23.8537
66.483 537 23.1733
66.6005 598 24.454
66.718 542 23.2809
66.8355 608 24.6577
66.953 588 24.2487
67.0705 566 23.7908
67.1879 557 23.6008
67.3054 538 23.1948
67.4228 529 23
67.5402 568 23.8328
67.6576 581 24.1039
67.7749 548 23.4094
67.8923 571 23.8956
68.0096 586 24.2074
68.1269 559 23.6432
68.2442 547 23.388
68.3614 590 24.2899
68.4787 590 24.2899
68.5958 524 22.891
68.713 606 24.6171
68.8302 607 24.6374
68.9473 636 25.219
69.0643 580 24.0832
69.1814 563 23.7276
69.2984 552 23.4947
69.4154 520 22.8035
69.5323 551 23.4734
69.6492 553 23.516
69.7661 537 23.1733
69.8829 519 22.7816
69.9997 540 23.2379
70.1165 585 24.1868
70.2332 578 24.0416
70.3499 526 22.9347
70.4665 437 20.9045
70.5831 479 21.8861
70.6996 415 20.3715
70.8161 411 20.2731
70.9326 357 18.8944
71.049 314 17.72
71.1653 327 18.0831
71.2817 301 17.3494
71.3979 275 16.5831
71.5141 287 16.9411
71.6303 245 15.6525
71.7464 192 13.8564
71.8624 0 1
71.9784 0 1
72.0944 0 1
72.2102 0 1
72.3261 0 1
72.4418 0 1
72.5575 0 1
72.6732 0 1
75.1054 0 1
75.2209 0 1
75.3365 0 1
75.4521 0 1
75.5678 0 1
75.6835 0 1
75.7993 0 1
75.9151 0 1
76.031 0 1
76.147 370 19.2354
76.263 443 21.0476
76.3791 431 20.7605
76.4952 424 20.5913
76.6113 511 22.6053
76.7276 476 21.8174
76.8438 485 22.0227
76.9601 465 21.5639
77.0765 480 21.9089
77.1929 471 21.7025
77.3093 461 21.4709
77.4258 445 21.095
77.5423 480 21.9089
77.6589 520 22.8035
77.7755 469 21.6564
77.8921 445 21.095
78.0088 434 20.8327
78.1256 465 21.5639
78.2423 443 21.0476
78.3591 423 20.567
78.4759 397 19.9249
78.5928 450 21.2132
78.7097 447 21.1424
78.8266 413 20.3224
78.9436 454 21.3073
79.0606 469 21.6564
79.1776 464 21.5407
79.2946 503 22.4277
79.4117 494 22.2261
79.5288 534 23.1084
79.6459 475 21.7945
79.7631 480 21.9089
79.8802 479 21.8861
79.9974 521 22.8254
80.1147 465 21.5639
80.2319 523 22.8692
80.3491 472 21.7256
80.4664 532 23.0651
80.5837 494 22.2261
80.701 505 22.4722
80.8183 476 21.8174
80.9357 505 22.4722
81.053 514 22.6716
81.1704 489 22.1133
81.2877 490 22.1359
81.4051 484 22
81.5225 482 21.9545
81.6399 463 21.5174
81.7573 448 21.166
81.8747 457 21.3776
81.9922 403 20.0749
82.1096 425 20.6155
82.227 427 20.664
82.3444 428 20.6882
82.4619 483 21.9773
82.5793 408 20.199
82.6967 442 21.0238
82.8142 506 22.4944
82.9316 484 22
83.049 512 22.6274
83.1664 522 22.8473
83.2838 526 22.9347
83.4012 519 22.7816
83.5186 506 22.4944
83.636 501 22.383
83.7534 440 20.9762
83.8708 483 21.9773
83.9881 488 22.0907
84.1055 513 22.6495
84.2228 530 23.0217
84.3401 524 22.891
84.4575 472 21.7256
84.5747 459 21.4243
84.692 507 22.5167
84.8093 493 22.2036
84.9265 443 21.0476
85.0437 467 21.6102
85.1609 480 21.9089
85.2781 495 22.2486
85.3952 499 22.3383
85.5123 437 20.9045
85.6294 419 20.4695
85.7465 472 21.7256
85.8636 472 21.7256
85.9806 441 21
86.0976 470 21.6795
86.2145 481 21.9317
86.3315 534 23.1084
86.4484 503 22.4277
86.5652 499 22.3383
86.682 509 22.561
86.7988 527 22.9565
86.9156 520 22.8035
87.0323 515 22.6936
87.149 459 21.4243
87.2657 482 21.9545
87.3823 461 21.4709
87.4988 471 21.7025
87.6154 471 21.7025
87.7318 423 20.567
87.8483 473 21.7486
87.9647 406 20.1494
88.081 378 19.4422
88.1973 366 19.1311
88.3136 327 18.0831
88.4298 297 17.2337
88.546 259 16.0935
88.6621 283 16.8226
88.7781 221 14.8661
88.8942 0 1
89.0101 0 1
89.126 0 1
89.2419 0 1
89.3577 0 1
89.4734 0 1
89.5891 0 1
89.7047 0 1
89.8203 0 1
89.9358 0 1
92.3269 0 1
92.4424 0 1
92.558 0 1
92.6736 0 1
92.7893 0 1
92.905 0 1
93.0208 0 1
93.1366 0 1
93.2525 0 1
93.3685 0 1
93.4845 0 1
93.6005 399 19.975
93.7167 394 19.8494
93.8328 446 21.1187
93.949 465 21.5639
94.0653 402 20.0499
94.1816 458 21.4009
94.2979 441 21
94.4143 476 21.8174
94.5307 477 21.8403
94.6472 477 21.8403
94.7637 485 22.0227
94.8803 476 21.8174
94.9969 466 21.587
95.1135 459 21.4243
95.2302 485 22.0227
95.3469 470 21.6795
95.4637 478 21.8632
95.5805 511 22.6053
95.6973 542 23.2809
95.8142 464 21.5407
95.9311 458 21.4009
96.048 474 21.7715
96.1649 518 22.7596
96.2819 481 21.9317
96.3989 490 22.1359
96.516 499 22.3383
96.633 516 22.7156
96.7501 493 22.2036
96.8673 494 22.2261
96.9844 491 22.1585
97.1016 479 21.8861
97.2188 474 21.7715
97.336 501 22.383
97.4532 480 21.9089
97.5704 468 21.6333
97.6877 469 21.6564
97.805 448 21.166
97.9223 428 20.6882
98.0396 476 21.8174
98.1569 460 21.4476
98.2743 488 22.0907
98.3916 500 22.3607
98.509 492 22.1811
98.6264 502 22.4054
98.7438 527 22.9565
98.8612 493 22.2036
98.9786 505 22.4722
99.096 517 22.7376
99.2134 489 22.1133
99.3308 532 23.0651
99.4482 525 22.9129
99.5656 560 23.6643
99.6831 526 22.9347
99.8005 561 23.6854
99.9179 537 23.1733
100.035 544 23.3238
100.153 560 23.6643
100.27 525 22.9129
100.388 479 21.8861
100.505 489 22.1133
100.622 498 22.3159
100.74 465 21.5639
100.857 510 22.5832
100.975 502 22.4054
101.092 464 21.5407
101.209 506 22.4944
101.327 492 22.1811
101.444 490 22.1359
101.561 501 22.383
101.679 513 22.6495
101.796 481 21.9317
101.913 542 23.2809
102.03 509 22.561
102.148 510 22.5832
102.265 495 22.2486
102.382 520 22.8035
102.499 501 22.383
102.616 550 23.4521
102.733 584 24.1661
102.851 532 23.0651
102.968 557 23.6008
103.085 573 23.9374
103.202 575 23.9792
103.319 546 23.3666
103.436 566 23.7908
103.552 549 23.4307
103.669 598 24.454
103.786 591 24.3105
103.903 553 23.516
104.02 558 23.622
104.137 552 23.4947
104.253 556 23.5797
104.37 517 22.7376
104.487 531 23.0434
104.603 503 22.4277
104.72 506 22.4944
104.836 487 22.0681
104.953 464 21.5407
105.069 492 22.1811
105.186 442 21.0238
105.302 406 20.1494
105.418 430 20.7364
105.535 382 19.5448
105.651 365 19.105
105.767 320 17.8885
105.883 301 17.3494
105.999 298 17.2627
106.115 0 1
106.231 0 1
106.347 0 1
106.463 0 1
106.579 0 1
106.694 0 1
106.81 0 1
106.926 0 1
107.041 0 1
107.157 0 1
109.576 0 1
109.692 0 1
109.807 0 1
109.923 0 1
110.039 0 1
110.155 0 1
110.27 0 1
110.386 0 1
110.502 0 1
110.618 305 17.4642
110.735 352 18.7617
110.851 406 20.1494
110.967 404 20.0998
111.083 421 20.5183
111.199 452 21.2603
111.316 474 21.7715
111.432 460 21.4476
111.549 547 23.388
111.665 515 22.6936
111.782 459 21.4243
111.898 496 22.2711
112.015 524 22.891
112.132 505 22.4722
112.248 485 22.0227
112.365 524 22.891
112.482 515 22.6936
112.599 500 22.3607
112.716 535 23.1301
112.832 537 23.1733
112.949 472 21.7256
113.066 456 21.3542
113.183 446 21.1187
113.3 465 21.5639
113.417 475 21.7945
113.534 415 20.3715
113.652 444 21.0713
113.769 427 20.664
113.886 410 20.2485
114.003 446 21.1187
114.12 462 21.4942
114.238 449 21.1896
114.355 482 21.9545
114.472 458 21.4009
114.589 419 20.4695
114.707 462 21.4942
114.824 423 20.567
114.942 470 21.6795
115.059 437 20.9045
115.176 469 21.6564
115.294 442 21.0238
115.411 419 20.4695
115.529 435 20.8567
115.646 426 20.6398
115.764 392 19.799
115.881 438 20.9284
115.999 422 20.5426
116.116 424 20.5913
116.234 417 20.4206
116.351 450 21.2132
116.469 412 20.2978
116.586 412 20.2978
116.704 410 20.2485
116.821 388 19.6977
116.939 389 19.7231
117.056 354 18.8149
117.174 397 19.9249
117.291 381 19.5192
117.409 355 18.8414
117.526 385 19.6214
117.644 427 20.664
117.761 433 20.8087
117.879 421 20.5183
117.996 407 20.1742
118.114 475 21.7945
118.231 395 19.8746
118.349 422 20.5426
118.466 417 20.4206
118.584 411 20.2731
118.701 398 19.9499
118.819 442 21.0238
118.936 352 18.7617
119.053 419 20.4695
119.171 386 19.6469
119.288 398 19.9499
119.405 448 21.166
119.523 417 20.4206
119.64 443 21.0476
119.757 429 20.7123
119.875 415 20.3715
119.992 385 19.6214
120.109 369 19.2094
120.226 426 20.6398
120.343 430 20.7364
120.46 371 19.2614
120.578 385 19.6214
120.695 360 18.9737
120.812 358 18.9209
120.929 369 19.2094
121.046 343 18.5203
121.163 357 18.8944
121.279 372 19.2873
121.396 348 18.6548
121.513 403 20.0749
121.63 384 19.5959
121.747 393 19.8242
121.863 370 19.2354
121.98 360 18.9737
122.097 349 18.6815
122.213 343 18.5203
122.33 333 18.2483
122.446 341 18.4662
122.563 302 17.3781
122.679 217 14.7309
122.795 240 15.4919
122.912 218 14.7648
123.028 230 15.1658
123.144 255 15.9687
123.26 231 15.1987
123.377 0 1
123.493 0 1
123.609 0 1
123.725 0 1
123.84 0 1
123.956 0 1
124.072 0 1
124.188 0 1
124.303 0 1
124.419 0 1
126.852 0 1
126.968 0 1
127.083 0 1
127.199 0 1
127.315 0 1
127.431 0 1
127.547 0 1
127.663 0 1
127.779 0 1
127.895 0 1
128.011 0 1
128.127 0 1
128.243 0 1
128.359 443 21.0476
128.476 477 21.8403
128.592 457 21.3776
128.708 475 21.7945
128.825 477 21.8403
128.941 457 21.3776
129.058 423 20.567
129.174 471 21.7025
129.291 505 22.4722
129.408 459 21.4243
129.524 448 21.166
129.641 444 21.0713
129.758 431 20.7605
129.875 419 20.4695
129.992 398 19.9499
130.108 444 21.0713
130.225 404 20.0998
130.342 421 20.5183
130.459 460 21.4476
130.576 471 21.7025
130.693 508 22.5389
130.81 544 23.3238
130.928 500 22.3607
131.045 495 22.2486
131.162 513 22.6495
131.279 604 24.5764
131.396 610 24.6982
131.513 597 24.4336
131.631 573 23.9374
131.748 610 24.6982
131.865 668 25.8457
131.983 663 25.7488
132.1 693 26.3249
132.217 722 26.8701
132.335 741 27.2213
132.452 708 26.6083
132.57 755 27.4773
132.687 797 28.2312
132.804 802 28.3196
132.922 811 28.4781
133.039 853 29.2062
133.157 944 30.7246
133.274 862 29.3598
133.392 902 30.0333
133.509 903 30.05
133.627 911 30.1828
133.744 906 30.0998
133.862 956 30.9192
133.979 983 31.3528
134.097 1053 32.45
134.214 1056 32.4962
134.332 1144 33.8231
134.449 1164 34.1174
134.567 1154 33.9706
134.684 1078 32.8329
134.802 1092 33.0454
134.919 1120 33.4664
135.037 1062 32.5883
135.154 1108 33.2866
135.272 1100 33.1662
135.389 1102 33.1964
135.507 1154 33.9706
135.624 1239 35.1994
135.742 1305 36.1248
135.859 1224 34.9857
135.977 1299 36.0416
136.094 1268 35.609
136.211 1290 35.9166
136.329 1231 35.0856
136.446 1275 35.7071
136.564 1213 34.8281
136.681 1258 35.4683
136.798 1205 34.7131
136.915 1283 35.819
137.033 1354 36.7967
137.15 1194 34.5543
137.267 1237 35.171
137.384 1205 34.7131
137.502 1208 34.7563
137.619 1222 34.9571
137.736 1225 35
137.853 1237 35.171
137.97 1308 36.1663
138.087 1277 35.7351
138.204 1169 34.1906
138.321 1206 34.7275
138.438 1228 35.0428
138.555 1242 35.242
138.672 1235 35.1426
138.788 1251 35.3695
138.905 1175 34.2783
139.022 1261 35.5106
139.139 1212 34.8138
139.255 1300 36.0555
139.372 1300 36.0555
139.488 1124 33.5261
139.605 1071 32.7261
139.721 985 31.3847
139.838 936 30.5941
139.954 893 29.8831
140.071 812 28.4956
140.187 829 28.7924
140.303 783 27.9821
140.419 762 27.6043
140.535 705 26.5518
140.652 679 26.0576
140.768 0 1
140.884 0 1
141 0 1
141.115 0 1
141.231 0 1
141.347 0 1
141.463 0 1
141.578 0 1
141.694 0 1
144.104 0 1
144.219 0 1
144.335 0 1
144.45 0 1
144.566 0 1
144.682 0 1
144.798 0 1
144.914 0 1
145.03 0 1
145.146 1015 31.8591
145.262 1086 32.9545
145.378 1053 32.45
145.494 1121 33.4813
145.61 1075 32.7872
145.726 1120 33.4664
145.842 1031 32.1092
145.959 1012 31.8119
146.075 1067 32.665
146.192 1082 32.8938
146.308 1068 32.6803
146.425 1072 32.7414
146.541 1108 33.2866
146.658 1179 34.3366
146.774 1182 34.3802
146.891 1173 34.2491
147.008 1189 34.4819
147.125 1090 33.0151
147.241 1184 34.4093
147.358 1133 33.6601
147.475 1088 32.9848
147.592 1092 33.0454
147.709 1029 32.078
147.826 1043 32.2955
147.943 1037 32.2025
148.06 1063 32.6037
148.177 1058 32.5269
148.294 1119 33.4515
148.411 1064 32.619
148.528 1118 33.4365
148.645 1053 32.45
148.762 1085 32.9393
148.88 1084 32.9242
148.997 1108 33.2866
149.114 1065 32.6343
149.231 1046 32.3419
149.349 1083 32.909
149.466 1087 32.9697
149.583 1017 31.8904
149.701 993 31.5119
149.818 996 31.5595
149.935 1023 31.9844
150.053 983 31.3528
150.17 1022 31.9687
150.287 1015 31.8591
150.405 1045 32.3265
150.522 997 31.5753
150.64 976 31.241
150.757 960 30.9839
150.875 968 31.1127
150.992 910 30.1662
151.11 951 30.8383
151.227 913 30.2159
151.344 846 29.0861
151.462 918 30.2985
151.579 926 30.4302
151.697 952 30.8545
151.814 1030 32.0936
151.932 994 31.5278
152.049 982 31.3369
152.167 995 31.5436
152.284 972 31.1769
152.402 987 31.4166
152.519 990 31.4643
152.636 992 31.496
152.754 1013 31.8277
152.871 1015 31.8591
152.989 999 31.607
153.106 1025 32.0156
153.223 1031 32.1092
153.341 912 30.1993
153.458 959 30.9677
153.575 905 30.0832
153.693 948 30.7896
153.81 920 30.3315
153.927 917 30.282
154.044 985 31.3847
154.162 923 30.3809
154.279 916 30.2655
154.396 842 29.0172
154.513 853 29.2062
154.63 894 29.8998
154.747 909 30.1496
154.864 887 29.7825
154.981 797 28.2312
155.098 822 28.6705
155.215 847 29.1033
155.332 934 30.5614
155.449 909 30.1496
155.566 984 31.3688
155.683 966 31.0805
155.8 916 30.2655
155.917 882 29.6985
156.033 843 29.0345
156.15 0 1
156.267 0 1
156.383 0 1
156.5 0 1
156.617 0 1
156.733 0 1
156.85 0 1
156.966 0 1
157.082 0 1
157.199 0 1
157.315 0 1
157.431 0 1
157.547 0 1
157.664 0 1
157.78 0 1
157.896 0 1
158.012 0 1
158.128 0 1
158.244 0 1
158.359 0 1
158.475 0 1
158.591 0 1
158.706 0 1
