
6.15755 0 1
6.2731 0 1
6.3887 0 1
6.50437 0 1
6.62009 0 1
6.73587 0 1
6.8517 0 1
6.96759 0 1
7.08353 0 1
7.19952 0 1
7.31557 0 1
7.43166 0 1
7.54781 0 1
7.664 0 1
7.78024 0 1
7.89653 0 1
8.01286 0 1
8.12924 0 1
8.24567 0 1
8.36213 0 1
8.47864 0 1
8.59519 0 1
8.71178 0 1
8.82841 0 1
8.94508 0 1
9.06179 0 1
9.17853 0 1
9.29531 0 1
9.41212 0 1
9.52897 0 1
9.64584 0 1
9.76276 0 1
9.8797 0 1
9.99667 0 1
10.1137 0 1
10.2307 0 1
10.3478 0 1
10.4648 0 1
10.5819 0 1
10.6991 0 1
10.8162 0 1
10.9334 0 1
11.0506 0 1
11.1678 0 1
11.285 0 1
11.4023 0 1
11.5196 0 1
11.6369 0 1
11.7542 0 1
11.8715 0 1
11.9888 0 1
12.1062 0 1
12.2235 0 1
12.3409 0 1
12.4582 0 1
12.5756 0 1
12.693 0 1
12.8104 0 1
12.9278 0 1
13.0452 0 1
13.1626 0 1
13.28 0 1
13.3974 0 1
13.5149 0 1
13.6323 0 1
13.7497 0 1
13.8671 0 1
13.9845 0 1
14.1019 0 1
14.2193 0 1
14.3367 0 1
14.4541 0 1
14.5714 0 1
14.6888 0 1
14.8062 0 1
14.9235 0 1
15.0408 690 26.2679
15.1581 722 26.8701
15.2755 741 27.2213
15.3927 751 27.4044
15.51 728 26.9815
15.6273 815 28.5482
15.7445 746 27.313
15.8617 775 27.8388
15.9789 722 26.8701
16.0961 761 27.5862
16.2132 779 27.9106
16.3304 768 27.7128
16.4475 789 28.0891
16.5646 815 28.5482
16.6816 809 28.4429
16.7986 793 28.1603
16.9156 850 29.1548
17.0326 919 30.315
17.1496 906 30.0998
17.2665 906 30.0998
17.3833 918 30.2985
17.5002 861 29.3428
17.617 791 28.1247
17.7338 786 28.0357
17.8505 762 27.6043
17.9672 736 27.1293
18.0839 779 27.9106
18.2005 780 27.9285
18.3171 781 27.9464
18.4337 815 28.5482
18.5502 778 27.8927
18.6666 870 29.4958
18.7831 879 29.6479
18.8994 886 29.7658
19.0158 820 28.6356
19.1321 890 29.8329
19.2483 735 27.1109
19.3645 713 26.7021
19.4806 707 26.5895
19.5967 608 24.6577
19.7128 545 23.3452
19.8288 536 23.1517
19.9447 508 22.5389
20.0606 0 1
20.1764 0 1
20.2922 0 1
20.4079 0 1
20.5236 0 1
20.6392 0 1
20.7548 0 1
20.8702 0 1
23.3078 0 1
23.4233 0 1
23.539 0 1
23.6547 0 1
23.7704 0 1
23.8862 0 1
24.0021 0 1
24.118 0 1
24.234 0 1
24.35 0 1
24.4661 328 18.1108
24.5822 432 20.7846
24.6984 423 20.567
24.8146 525 22.9129
24.9309 505 22.4722
25.0472 589 24.2693
25.1636 627 25.04
25.28 646 25.4165
25.3965 702 26.4953
25.513 781 27.9464
25.6296 827 28.7576
25.7462 867 29.4449
25.8628 884 29.7321
25.9795 876 29.5973
26.0962 960 30.9839
26.213 830 28.8097
26.3298 806 28.3901
26.4466 770 27.7489
26.5635 797 28.2312
26.6804 769 27.7308
26.7973 792 28.1425
26.9143 790 28.1069
27.0313 833 28.8617
27.1483 821 28.6531
27.2653 864 29.3939
27.3824 885 29.7489
27.4996 832 28.8444
27.6167 857 29.2746
27.7339 807 28.4077
27.8511 768 27.7128
27.9683 764 27.6405
28.0855 767 27.6948
28.2028 718 26.7955
28.3201 714 26.7208
28.4374 707 26.5895
28.5547 684 26.1534
28.6721 770 27.7489
28.7894 720 26.8328
28.9068 798 28.2489
29.0242 848 29.1204
29.1416 850 29.1548
29.259 886 29.7658
29.3764 849 29.1376
29.4939 831 28.8271
29.6113 849 29.1376
29.7288 846 29.0861
29.8463 769 27.7308
29.9638 708 26.6083
30.0812 732 27.0555
30.1987 727 26.9629
30.3162 706 26.5707
30.4337 772 27.7849
30.5512 857 29.2746
30.6687 719 26.8142
30.7862 777 27.8747
30.9037 789 28.0891
31.0212 782 27.9643
31.1387 815 28.5482
31.2562 849 29.1376
31.3737 730 27.0185
31.4912 767 27.6948
31.6087 747 27.3313
31.7262 755 27.4773
31.8436 743 27.258
31.9611 667 25.8263
32.0785 669 25.865
32.1959 689 26.2488
32.3134 693 26.3249
32.4308 780 27.9285
32.5482 835 28.8964
32.6655 796 28.2135
32.7829 816 28.5657
32.9002 783 27.9821
33.0176 769 27.7308
33.1349 813 28.5132
33.2522 818 28.6007
33.3694 818 28.6007
33.4867 727 26.9629
33.6039 711 26.6646
33.7211 653 25.5539
33.8383 653 25.5539
33.9554 685 26.1725
34.0725 670 25.8844
34.1896 773 27.8029
34.3067 754 27.4591
34.4237 728 26.9815
34.5407 743 27.258
34.6577 879 29.6479
34.7746 750 27.3861
34.8915 740 27.2029
35.0084 783 27.9821
35.1252 756 27.4955
35.242 718 26.7955
35.3587 701 26.4764
35.4755 674 25.9615
35.5921 709 26.6271
35.7088 578 24.0416
35.8254 628 25.0599
35.9419 692 26.3059
36.0584 655 25.593
36.1749 735 27.1109
36.2913 683 26.1343
36.4077 743 27.258
36.524 659 25.671
36.6403 665 25.7876
36.7565 695 26.3629
36.8727 673 25.9422
36.9889 612 24.7386
37.1049 536 23.1517
37.221 0 1
37.3369 0 1
37.4529 0 1
37.5687 0 1
37.6845 0 1
37.8003 0 1
37.916 0 1
38.0316 0 1
38.1472 0 1
40.5851 0 1
40.7008 0 1
40.8164 0 1
40.9322 0 1
41.048 0 1
41.1639 0 1
41.2798 0 1
41.3958 0 1
41.5118 0 1
41.6279 0 1
41.744 339 18.412
41.8602 451 21.2368
41.9765 482 21.9545
42.0928 487 22.0681
42.2091 461 21.4709
42.3255 450 21.2132
42.4419 441 21
42.5584 442 21.0238
42.675 463 21.5174
42.7915 499 22.3383
42.9081 544 23.3238
43.0248 573 23.9374
43.1415 590 24.2899
43.2582 654 25.5734
43.375 678 26.0384
43.4918 652 25.5343
43.6087 613 24.7588
43.7256 658 25.6515
43.8425 670 25.8844
43.9595 618 24.8596
44.0765 564 23.7487
44.1935 641 25.318
44.3106 538 23.1948
44.4277 507 22.5167
44.5448 508 22.5389
44.6619 506 22.4944
44.7791 551 23.4734
44.8963 584 24.1661
45.0136 586 24.2074
45.1308 668 25.8457
45.2481 678 26.0384
45.3654 668 25.8457
45.4827 623 24.96
45.6001 647 25.4362
45.7174 625 25
45.8348 607 24.6374
45.9522 600 24.4949
46.0697 557 23.6008
46.1871 549 23.4307
46.3046 512 22.6274
46.422 602 24.5357
46.5395 654 25.5734
46.657 644 25.3772
46.7745 616 24.8193
46.892 670 25.8844
47.0096 696 26.3818
47.1271 709 26.6271
47.2446 685 26.1725
47.3622 674 25.9615
47.4797 692 26.3059
47.5973 685 26.1725
47.7149 606 24.6171
47.8324 669 25.865
47.95 622 24.9399
48.0675 549 23.4307
48.1851 483 21.9773
48.3027 537 23.1733
48.4202 567 23.8118
48.5378 575 23.9792
48.6554 659 25.671
48.7729 650 25.4951
48.8904 685 26.1725
49.008 702 26.4953
49.1255 685 26.1725
49.243 624 24.98
49.3605 611 24.7184
49.478 578 24.0416
49.5955 516 22.7156
49.713 517 22.7376
49.8304 521 22.8254
49.9479 577 24.0208
50.0653 579 24.0624
50.1827 634 25.1794
50.3001 613 24.7588
50.4175 609 24.6779
50.5348 626 25.02
50.6521 607 24.6374
50.7694 640 25.2982
50.8867 678 26.0384
51.004 660 25.6905
51.1212 617 24.8395
51.2384 589 24.2693
51.3556 605 24.5967
51.4727 530 23.0217
51.5899 498 22.3159
51.707 496 22.2711
51.824 536 23.1517
51.9411 571 23.8956
52.0581 582 24.1247
52.175 613 24.7588
52.2919 687 26.2107
52.4088 709 26.6271
52.5257 649 25.4755
52.6425 638 25.2587
52.7593 651 25.5147
52.876 639 25.2784
52.9927 618 24.8596
53.1094 565 23.7697
53.226 520 22.8035
53.3426 513 22.6495
53.4591 491 22.1585
53.5756 505 22.4722
53.692 512 22.6274
53.8084 507 22.5167
53.9248 511 22.6053
54.0411 495 22.2486
54.1573 474 21.7715
54.2735 0 1
54.3896 0 1
54.5057 0 1
54.6217 0 1
54.7377 0 1
54.8537 0 1
54.9695 0 1
55.0853 0 1
55.2011 0 1
55.3168 0 1
55.4324 0 1
57.824 0 1
57.9396 0 1
58.0553 0 1
58.1711 0 1
58.2869 0 1
58.4028 0 1
58.5187 0 1
58.6347 0 1
58.7508 0 1
58.8669 0 1
58.983 435 20.8567
59.0992 555 23.5584
59.2155 628 25.0599
59.3318 677 26.0192
59.4482 705 26.5518
59.5646 700 26.4575
59.681 734 27.0924
59.7975 707 26.5895
59.9141 757 27.5136
60.0306 734 27.0924
60.1473 701 26.4764
60.2639 701 26.4764
60.3807 669 25.865
60.4974 650 25.4951
60.6142 668 25.8457
60.731 687 26.2107
60.8479 734 27.0924
60.9648 799 28.2666
61.0818 799 28.2666
61.1987 829 28.7924
61.3158 848 29.1204
61.4328 839 28.9655
61.5499 778 27.8927
61.667 716 26.7582
61.7841 670 25.8844
61.9013 644 25.3772
62.0185 651 25.5147
62.1357 676 26
62.253 735 27.1109
62.3702 760 27.5681
62.4875 763 27.6225
62.6049 858 29.2916
62.7222 802 28.3196
62.8396 823 28.688
62.9569 884 29.7321
63.0743 859 29.3087
63.1918 839 28.9655
63.3092 787 28.0535
63.4267 823 28.688
63.5441 745 27.2947
63.6616 771 27.7669
63.7791 697 26.4008
63.8966 652 25.5343
64.0142 657 25.632
64.1317 709 26.6271
64.2492 762 27.6043
64.3668 789 28.0891
64.4843 833 28.8617
64.6019 848 29.1204
64.7195 860 29.3258
64.837 835 28.8964
64.9546 755 27.4773
65.0722 851 29.1719
65.1898 753 27.4408
65.3074 744 27.2764
65.4249 617 24.8395
65.5425 672 25.923
65.6601 640 25.2982
65.7777 710 26.6458
65.8952 771 27.7669
66.0128 787 28.0535
66.1304 792 28.1425
66.2479 813 28.5132
66.3655 798 28.2489
66.483 872 29.5296
66.6005 818 28.6007
66.718 896 29.9333
66.8355 805 28.3725
66.953 866 29.4279
67.0705 785 28.0179
67.1879 781 27.9464
67.3054 759 27.55
67.4228 663 25.7488
67.5402 651 25.5147
67.6576 657 25.632
67.7749 708 26.6083
67.8923 724 26.9072
68.0096 827 28.7576
68.1269 861 29.3428
68.2442 834 28.8791
68.3614 917 30.282
68.4787 874 29.5635
68.5958 895 29.9166
68.713 824 28.7054
68.8302 793 28.1603
68.9473 740 27.2029
69.0643 690 26.2679
69.1814 632 25.1396
69.2984 695 26.3629
69.4154 769 27.7308
69.5323 791 28.1247
69.6492 921 30.348
69.7661 913 30.2159
69.8829 987 31.4166
69.9997 906 30.0998
70.1165 969 31.1288
70.2332 962 31.0161
70.3499 923 30.3809
70.4665 858 29.2916
70.5831 819 28.6182
70.6996 827 28.7576
70.8161 733 27.074
70.9326 673 25.9422
71.049 579 24.0624
71.1653 494 22.2261
71.2817 441 21
71.3979 418 20.445
71.5141 387 19.6723
71.6303 394 19.8494
71.7464 365 19.105
71.8624 0 1
71.9784 0 1
72.0944 0 1
72.2102 0 1
72.3261 0 1
72.4418 0 1
72.5575 0 1
72.6732 0 1
75.1054 0 1
75.2209 0 1
75.3365 0 1
75.4521 0 1
75.5678 0 1
75.6835 0 1
75.7993 0 1
75.9151 0 1
76.031 0 1
76.147 603 24.5561
76.263 607 24.6374
76.3791 639 25.2784
76.4952 587 24.2281
76.6113 595 24.3926
76.7276 606 24.6171
76.8438 657 25.632
76.9601 667 25.8263
77.0765 731 27.037
77.1929 770 27.7489
77.3093 820 28.6356
77.4258 813 28.5132
77.5423 771 27.7669
77.6589 802 28.3196
77.7755 737 27.1477
77.8921 626 25.02
78.0088 558 23.622
78.1256 541 23.2594
78.2423 498 22.3159
78.3591 563 23.7276
78.4759 593 24.3516
78.5928 656 25.6125
78.7097 677 26.0192
78.8266 731 27.037
78.9436 739 27.1846
79.0606 767 27.6948
79.1776 683 26.1343
79.2946 754 27.4591
79.4117 760 27.5681
79.5288 647 25.4362
79.6459 729 27
79.7631 633 25.1595
79.8802 677 26.0192
79.9974 663 25.7488
80.1147 582 24.1247
80.2319 551 23.4734
80.3491 536 23.1517
80.4664 577 24.0208
80.5837 671 25.9037
80.701 673 25.9422
80.8183 697 26.4008
80.9357 810 28.4605
81.053 674 25.9615
81.1704 759 27.55
81.2877 724 26.9072
81.4051 696 26.3818
81.5225 697 26.4008
81.6399 660 25.6905
81.7573 545 23.3452
81.8747 545 23.3452
81.9922 556 23.5797
82.1096 542 23.2809
82.227 662 25.7294
82.3444 678 26.0384
82.4619 704 26.533
82.5793 720 26.8328
82.6967 743 27.258
82.8142 769 27.7308
82.9316 774 27.8209
83.049 716 26.7582
83.1664 720 26.8328
83.2838 730 27.0185
83.4012 688 26.2298
83.5186 656 25.6125
83.636 636 25.219
83.7534 672 25.923
83.8708 568 23.8328
83.9881 556 23.5797
84.1055 555 23.5584
84.2228 630 25.0998
84.3401 680 26.0768
84.4575 707 26.5895
84.5747 745 27.2947
84.692 761 27.5862
84.8093 823 28.688
84.9265 767 27.6948
85.0437 702 26.4953
85.1609 658 25.6515
85.2781 590 24.2899
85.3952 560 23.6643
85.5123 565 23.7697
85.6294 564 23.7487
85.7465 607 24.6374
85.8636 693 26.3249
85.9806 695 26.3629
86.0976 780 27.9285
86.2145 764 27.6405
86.3315 785 28.0179
86.4484 801 28.3019
86.5652 794 28.178
86.682 761 27.5862
86.7988 769 27.7308
86.9156 777 27.8747
87.0323 771 27.7669
87.149 723 26.8887
87.2657 690 26.2679
87.3823 624 24.98
87.4988 535 23.1301
87.6154 530 23.0217
87.7318 529 23
87.8483 513 22.6495
87.9647 584 24.1661
88.081 627 25.04
88.1973 564 23.7487
88.3136 553 23.516
88.4298 562 23.7065
88.546 519 22.7816
88.6621 433 20.8087
88.7781 317 17.8045
88.8942 0 1
89.0101 0 1
89.126 0 1
89.2419 0 1
89.3577 0 1
89.4734 0 1
89.5891 0 1
89.7047 0 1
89.8203 0 1
89.9358 0 1
92.3269 0 1
92.4424 0 1
92.558 0 1
92.6736 0 1
92.7893 0 1
92.905 0 1
93.0208 0 1
93.1366 0 1
93.2525 0 1
93.3685 0 1
93.4845 0 1
93.6005 524 22.891
93.7167 516 22.7156
93.8328 609 24.6779
93.949 641 25.318
94.0653 654 25.5734
94.1816 656 25.6125
94.2979 621 24.9199
94.4143 577 24.0208
94.5307 576 24
94.6472 539 23.2164
94.7637 528 22.9783
94.8803 592 24.3311
94.9969 646 25.4165
95.1135 638 25.2587
95.2302 679 26.0576
95.3469 681 26.096
95.4637 726 26.9444
95.5805 725 26.9258
95.6973 711 26.6646
95.8142 707 26.5895
95.9311 681 26.096
96.048 737 27.1477
96.1649 742 27.2397
96.2819 736 27.1293
96.3989 697 26.4008
96.516 649 25.4755
96.633 598 24.454
96.7501 595 24.3926
96.8673 563 23.7276
96.9844 598 24.454
97.1016 597 24.4336
97.2188 682 26.1151
97.336 726 26.9444
97.4532 791 28.1247
97.5704 777 27.8747
97.6877 773 27.8029
97.805 769 27.7308
97.9223 684 26.1534
98.0396 651 25.5147
98.1569 612 24.7386
98.2743 551 23.4734
98.3916 576 24
98.509 578 24.0416
98.6264 634 25.1794
98.7438 690 26.2679
98.8612 761 27.5862
98.9786 728 26.9815
99.096 787 28.0535
99.2134 752 27.4226
99.3308 781 27.9464
99.4482 743 27.258
99.5656 837 28.931
99.6831 770 27.7489
99.8005 753 27.4408
99.9179 791 28.1247
100.035 704 26.533
100.153 701 26.4764
100.27 586 24.2074
100.388 619 24.8797
100.505 604 24.5764
100.622 696 26.3818
100.74 785 28.0179
100.857 758 27.5318
100.975 728 26.9815
101.092 788 28.0713
101.209 780 27.9285
101.327 775 27.8388
101.444 741 27.2213
101.561 713 26.7021
101.679 670 25.8844
101.796 579 24.0624
101.913 575 23.9792
102.03 634 25.1794
102.148 657 25.632
102.265 696 26.3818
102.382 801 28.3019
102.499 816 28.5657
102.616 802 28.3196
102.733 875 29.5804
102.851 820 28.6356
102.968 853 29.2062
103.085 835 28.8964
103.202 818 28.6007
103.319 775 27.8388
103.436 702 26.4953
103.552 725 26.9258
103.669 803 28.3373
103.786 653 25.5539
103.903 622 24.9399
104.02 598 24.454
104.137 661 25.7099
104.253 733 27.074
104.37 816 28.5657
104.487 867 29.4449
104.603 834 28.8791
104.72 893 29.8831
104.836 807 28.4077
104.953 756 27.4955
105.069 722 26.8701
105.186 556 23.5797
105.302 562 23.7065
105.418 568 23.8328
105.535 548 23.4094
105.651 595 24.3926
105.767 572 23.9165
105.883 558 23.622
105.999 472 21.7256
106.115 0 1
106.231 0 1
106.347 0 1
106.463 0 1
106.579 0 1
106.694 0 1
106.81 0 1
106.926 0 1
107.041 0 1
107.157 0 1
109.576 0 1
109.692 0 1
109.807 0 1
109.923 0 1
110.039 0 1
110.155 0 1
110.27 0 1
110.386 0 1
110.502 0 1
110.618 337 18.3576
110.735 419 20.4695
110.851 524 22.891
110.967 580 24.0832
111.083 648 25.4558
111.199 729 27
111.316 748 27.3496
111.432 680 26.0768
111.549 735 27.1109
111.665 776 27.8568
111.782 750 27.3861
111.898 726 26.9444
112.015 740 27.2029
112.132 703 26.5141
112.248 686 26.1916
112.365 579 24.0624
112.482 561 23.6854
112.599 606 24.6171
112.716 643 25.3574
112.832 674 25.9615
112.949 750 27.3861
113.066 708 26.6083
113.183 795 28.1957
113.3 734 27.0924
113.417 756 27.4955
113.534 733 27.074
113.652 697 26.4008
113.769 571 23.8956
113.886 559 23.6432
114.003 502 22.4054
114.12 543 23.3024
114.238 678 26.0384
114.355 669 25.865
114.472 692 26.3059
114.589 688 26.2298
114.707 719 26.8142
114.824 847 29.1033
114.942 815 28.5482
115.059 795 28.1957
115.176 764 27.6405
115.294 739 27.1846
115.411 765 27.6586
115.529 711 26.6646
115.646 659 25.671
115.764 701 26.4764
115.881 641 25.318
115.999 616 24.8193
116.116 639 25.2784
116.234 700 26.4575
116.351 664 25.7682
116.469 739 27.1846
116.586 754 27.4591
116.704 698 26.4197
116.821 721 26.8514
116.939 780 27.9285
117.056 740 27.2029
117.174 696 26.3818
117.291 649 25.4755
117.409 588 24.2487
117.526 571 23.8956
117.644 568 23.8328
117.761 614 24.779
117.879 635 25.1992
117.996 685 26.1725
118.114 725 26.9258
118.231 723 26.8887
118.349 755 27.4773
118.466 758 27.5318
118.584 772 27.7849
118.701 759 27.55
118.819 741 27.2213
118.936 725 26.9258
119.053 703 26.5141
119.171 706 26.5707
119.288 687 26.2107
119.405 633 25.1595
119.523 611 24.7184
119.64 583 24.1454
119.757 622 24.9399
119.875 618 24.8596
119.992 646 25.4165
120.109 734 27.0924
120.226 728 26.9815
120.343 729 27
120.46 723 26.8887
120.578 734 27.0924
120.695 694 26.3439
120.812 632 25.1396
120.929 619 24.8797
121.046 600 24.4949
121.163 497 22.2935
121.279 522 22.8473
121.396 589 24.2693
121.513 580 24.0832
121.63 629 25.0799
121.747 625 25
121.863 629 25.0799
121.98 641 25.318
122.097 632 25.1396
122.213 644 25.3772
122.33 616 24.8193
122.446 615 24.7992
122.563 602 24.5357
122.679 559 23.6432
122.795 505 22.4722
122.912 456 21.3542
123.028 413 20.3224
123.144 376 19.3907
123.26 297 17.2337
123.377 0 1
123.493 0 1
123.609 0 1
123.725 0 1
123.84 0 1
123.956 0 1
124.072 0 1
124.188 0 1
124.303 0 1
124.419 0 1
126.852 0 1
126.968 0 1
127.083 0 1
127.199 0 1
127.315 0 1
127.431 0 1
127.547 0 1
127.663 0 1
127.779 0 1
127.895 0 1
128.011 0 1
128.127 0 1
128.243 0 1
128.359 764 27.6405
128.476 799 28.2666
128.592 756 27.4955
128.708 747 27.3313
128.825 735 27.1109
128.941 764 27.6405
129.058 811 28.4781
129.174 937 30.6105
129.291 941 30.6757
129.408 953 30.8707
129.524 951 30.8383
129.641 901 30.0167
129.758 908 30.133
129.875 855 29.2404
129.992 861 29.3428
130.108 752 27.4226
130.225 705 26.5518
130.342 670 25.8844
130.459 726 26.9444
130.576 794 28.178
130.693 865 29.4109
130.81 848 29.1204
130.928 924 30.3974
131.045 978 31.273
131.162 945 30.7409
131.279 934 30.5614
131.396 901 30.0167
131.513 996 31.5595
131.631 862 29.3598
131.748 872 29.5296
131.865 914 30.2324
131.983 912 30.1993
132.1 795 28.1957
132.217 695 26.3629
132.335 769 27.7308
132.452 811 28.4781
132.57 878 29.6311
132.687 921 30.348
132.804 918 30.2985
132.922 979 31.289
133.039 911 30.1828
133.157 964 31.0483
133.274 926 30.4302
133.392 906 30.0998
133.509 871 29.5127
133.627 792 28.1425
133.744 711 26.6646
133.862 729 27
133.979 740 27.2029
134.097 762 27.6043
134.214 879 29.6479
134.332 869 29.4788
134.449 884 29.7321
134.567 929 30.4795
134.684 915 30.249
134.802 935 30.5778
134.919 868 29.4618
135.037 958 30.9516
135.154 889 29.8161
135.272 893 29.8831
135.389 874 29.5635
135.507 848 29.1204
135.624 845 29.0689
135.742 741 27.2213
135.859 734 27.0924
135.977 749 27.3679
136.094 858 29.2916
136.211 853 29.2062
136.329 877 29.6142
136.446 901 30.0167
136.564 943 30.7083
136.681 916 30.2655
136.798 894 29.8998
136.915 920 30.3315
137.033 888 29.7993
137.15 797 28.2312
137.267 818 28.6007
137.384 711 26.6646
137.502 658 25.6515
137.619 680 26.0768
137.736 764 27.6405
137.853 770 27.7489
137.97 791 28.1247
138.087 850 29.1548
138.204 848 29.1204
138.321 864 29.3939
138.438 855 29.2404
138.555 846 29.0861
138.672 809 28.4429
138.788 840 28.9828
138.905 780 27.9285
139.022 782 27.9643
139.139 643 25.3574
139.255 621 24.9199
139.372 569 23.8537
139.488 546 23.3666
139.605 476 21.8174
139.721 549 23.4307
139.838 562 23.7065
139.954 539 23.2164
140.071 541 23.2594
140.187 502 22.4054
140.303 438 20.9284
140.419 429 20.7123
140.535 415 20.3715
140.652 391 19.7737
140.768 0 1
140.884 0 1
141 0 1
141.115 0 1
141.231 0 1
141.347 0 1
141.463 0 1
141.578 0 1
141.694 0 1
144.104 0 1
144.219 0 1
144.335 0 1
144.45 0 1
144.566 0 1
144.682 0 1
144.798 0 1
144.914 0 1
145.03 0 1
145.146 501 22.383
145.262 613 24.7588
145.378 614 24.779
145.494 625 25
145.61 624 24.98
145.726 632 25.1396
145.842 623 24.96
145.959 525 22.9129
146.075 524 22.891
146.192 512 22.6274
146.308 464 21.5407
146.425 492 22.1811
146.541 543 23.3024
146.658 550 23.4521
146.774 565 23.7697
146.891 581 24.1039
147.008 568 23.8328
147.125 542 23.2809
147.241 584 24.1661
147.358 580 24.0832
147.475 628 25.0599
147.592 564 23.7487
147.709 568 23.8328
147.826 554 23.5372
147.943 532 23.0651
148.06 523 22.8692
148.177 501 22.383
148.294 508 22.5389
148.411 529 23
148.528 587 24.2281
148.645 538 23.1948
148.762 590 24.2899
148.88 555 23.5584
148.997 608 24.6577
149.114 611 24.7184
149.231 606 24.6171
149.349 600 24.4949
149.466 597 24.4336
149.583 560 23.6643
149.701 511 22.6053
149.818 520 22.8035
149.935 496 22.2711
150.053 489 22.1133
150.17 503 22.4277
150.287 485 22.0227
150.405 527 22.9565
150.522 515 22.6936
150.64 552 23.4947
150.757 563 23.7276
150.875 567 23.8118
150.992 557 23.6008
151.11 533 23.0868
151.227 589 24.2693
151.344 566 23.7908
151.462 549 23.4307
151.579 534 23.1084
151.697 507 22.5167
151.814 530 23.0217
151.932 490 22.1359
152.049 482 21.9545
152.167 520 22.8035
152.284 542 23.2809
152.402 564 23.7487
152.519 536 23.1517
152.636 558 23.622
152.754 532 23.0651
152.871 558 23.622
152.989 504 22.4499
153.106 523 22.8692
153.223 509 22.561
153.341 492 22.1811
153.458 452 21.2603
153.575 436 20.8806
153.693 420 20.4939
153.81 468 21.6333
153.927 474 21.7715
154.044 502 22.4054
154.162 544 23.3238
154.279 502 22.4054
154.396 497 22.2935
154.513 534 23.1084
154.63 527 22.9565
154.747 534 23.1084
154.864 564 23.7487
154.981 497 22.2935
155.098 495 22.2486
155.215 478 21.8632
155.332 456 21.3542
155.449 439 20.9523
155.566 462 21.4942
155.683 427 20.664
155.8 483 21.9773
155.917 456 21.3542
156.033 495 22.2486
156.15 0 1
156.267 0 1
156.383 0 1
156.5 0 1
156.617 0 1
156.733 0 1
156.85 0 1
156.966 0 1
157.082 0 1
157.199 0 1
157.315 0 1
157.431 0 1
157.547 0 1
157.664 0 1
157.78 0 1
157.896 0 1
158.012 0 1
158.128 0 1
158.244 0 1
158.359 0 1
158.475 0 1
158.591 0 1
158.706 0 1
