
6.15755 0 1
6.2731 0 1
6.3887 0 1
6.50437 0 1
6.62009 0 1
6.73587 0 1
6.8517 0 1
6.96759 0 1
7.08353 0 1
7.19952 0 1
7.31557 0 1
7.43166 0 1
7.54781 0 1
7.664 0 1
7.78024 0 1
7.89653 0 1
8.01286 0 1
8.12924 0 1
8.24567 0 1
8.36213 0 1
8.47864 0 1
8.59519 0 1
8.71178 0 1
8.82841 0 1
8.94508 0 1
9.06179 0 1
9.17853 0 1
9.29531 0 1
9.41212 0 1
9.52897 0 1
9.64584 0 1
9.76276 0 1
9.8797 0 1
9.99667 0 1
10.1137 0 1
10.2307 0 1
10.3478 0 1
10.4648 0 1
10.5819 0 1
10.6991 0 1
10.8162 0 1
10.9334 0 1
11.0506 0 1
11.1678 0 1
11.285 0 1
11.4023 0 1
11.5196 0 1
11.6369 0 1
11.7542 0 1
11.8715 0 1
11.9888 0 1
12.1062 0 1
12.2235 0 1
12.3409 0 1
12.4582 0 1
12.5756 0 1
12.693 0 1
12.8104 0 1
12.9278 0 1
13.0452 0 1
13.1626 0 1
13.28 0 1
13.3974 0 1
13.5149 0 1
13.6323 0 1
13.7497 0 1
13.8671 0 1
13.9845 0 1
14.1019 0 1
14.2193 0 1
14.3367 0 1
14.4541 0 1
14.5714 0 1
14.6888 0 1
14.8062 0 1
14.9235 0 1
15.0408 0 0
15.1581 0 0
15.2755 0 0
15.3927 0 0
15.51 0 0
15.6273 0 0
15.7445 0 0
15.8617 0 0
15.9789 0 0
16.0961 0 0
16.2132 0 0
16.3304 0 0
16.4475 0 0
16.5646 0 0
16.6816 0 0
16.7986 0 0
16.9156 0 0
17.0326 0 0
17.1496 0 0
17.2665 0 0
17.3833 0 0
17.5002 0 0
17.617 0 0
17.7338 0 0
17.8505 0 0
17.9672 0 0
18.0839 0 0
18.2005 0 0
18.3171 0 0
18.4337 0 0
18.5502 0 0
18.6666 0 0
18.7831 0 0
18.8994 0 0
19.0158 0 0
19.1321 0 0
19.2483 0 0
19.3645 0 0
19.4806 0 0
19.5967 0 0
19.7128 0 0
19.8288 0 0
19.9447 0 0
20.0606 0 1
20.1764 0 1
20.2922 0 1
20.4079 0 1
20.5236 0 1
20.6392 0 1
20.7548 0 1
20.8702 0 1
23.3078 0 1
23.4233 0 1
23.539 0 1
23.6547 0 1
23.7704 0 1
23.8862 0 1
24.0021 0 1
24.118 0 1
24.234 0 1
24.35 0 1
24.4661 1599 39.9875
24.5822 1636 40.4475
24.6984 1627 40.3361
24.8146 1672 40.8901
24.9309 1636 40.4475
25.0472 1593 39.9124
25.1636 1690 41.1096
25.28 1652 40.6448
25.3965 1682 41.0122
25.513 1657 40.7063
25.6296 1641 40.5093
25.7462 1701 41.2432
25.8628 1729 41.5812
25.9795 1771 42.0833
26.0962 1664 40.7922
26.213 1650 40.6202
26.3298 1659 40.7308
26.4466 1609 40.1123
26.5635 1489 38.5876
26.6804 1389 37.2693
26.7973 1276 35.7211
26.9143 1412 37.5766
27.0313 1422 37.7094
27.1483 1540 39.2428
27.2653 1678 40.9634
27.3824 1733 41.6293
27.4996 1636 40.4475
27.6167 1567 39.5854
27.7339 1635 40.4351
27.8511 1568 39.598
27.9683 1657 40.7063
28.0855 1595 39.9375
28.2028 1613 40.1622
28.3201 1541 39.2556
28.4374 1652 40.6448
28.5547 1592 39.8999
28.6721 1591 39.8873
28.7894 1675 40.9268
28.9068 1592 39.8999
29.0242 1550 39.37
29.1416 1665 40.8044
29.259 1553 39.4081
29.3764 1677 40.9512
29.4939 1596 39.95
29.6113 1649 40.6079
29.7288 1552 39.3954
29.8463 1605 40.0625
29.9638 1576 39.6989
30.0812 1484 38.5227
30.1987 1386 37.229
30.3162 1306 36.1386
30.4337 1289 35.9026
30.5512 1382 37.1753
30.6687 1424 37.7359
30.7862 1515 38.923
30.9037 1655 40.6817
31.0212 1661 40.7554
31.1387 1658 40.7185
31.2562 1605 40.0625
31.3737 1711 41.3642
31.4912 1569 39.6106
31.6087 1632 40.398
31.7262 1604 40.05
31.8436 1543 39.281
31.9611 1669 40.8534
32.0785 1599 39.9875
32.1959 1582 39.7744
32.3134 1615 40.1871
32.4308 1689 41.0974
32.5482 1601 40.0125
32.6655 1602 40.025
32.7829 1525 39.0512
32.9002 1675 40.9268
33.0176 1698 41.2068
33.1349 1635 40.4351
33.2522 1680 40.9878
33.3694 1604 40.05
33.4867 1636 40.4475
33.6039 1423 37.7227
33.7211 1440 37.9473
33.8383 1325 36.4005
33.9554 1311 36.2077
34.0725 1285 35.8469
34.1896 1407 37.51
34.3067 1481 38.4838
34.4237 1505 38.7943
34.5407 1652 40.6448
34.6577 1673 40.9023
34.7746 1675 40.9268
34.8915 1712 41.3763
35.0084 1581 39.7618
35.1252 1634 40.4228
35.242 1664 40.7922
35.3587 1622 40.2741
35.4755 1554 39.4208
35.5921 1627 40.3361
35.7088 1629 40.3609
35.8254 1723 41.509
35.9419 1637 40.4599
36.0584 1678 40.9634
36.1749 1629 40.3609
36.2913 1771 42.0833
36.4077 1648 40.5956
36.524 1624 40.2989
36.6403 1610 40.1248
36.7565 1715 41.4126
36.8727 1659 40.7308
36.9889 1685 41.0488
37.1049 1656 40.694
37.221 0 1
37.3369 0 1
37.4529 0 1
37.5687 0 1
37.6845 0 1
37.8003 0 1
37.916 0 1
38.0316 0 1
38.1472 0 1
40.5851 0 1
40.7008 0 1
40.8164 0 1
40.9322 0 1
41.048 0 1
41.1639 0 1
41.2798 0 1
41.3958 0 1
41.5118 0 1
41.6279 0 1
41.744 1348 36.7151
41.8602 1454 38.1314
41.9765 1466 38.2884
42.0928 1426 37.7624
42.2091 1453 38.1182
42.3255 1455 38.1445
42.4419 1301 36.0694
42.5584 1256 35.4401
42.675 1109 33.3017
42.7915 1074 32.7719
42.9081 1164 34.1174
43.0248 1215 34.8569
43.1415 1292 35.9444
43.2582 1403 37.4566
43.375 1430 37.8153
43.4918 1411 37.5633
43.6087 1434 37.8682
43.7256 1439 37.9342
43.8425 1379 37.1349
43.9595 1419 37.6696
44.0765 1310 36.1939
44.1935 1380 37.1484
44.3106 1334 36.524
44.4277 1299 36.0416
44.5448 1297 36.0139
44.6619 1244 35.2704
44.7791 1243 35.2562
44.8963 1248 35.327
45.0136 1319 36.318
45.1308 1280 35.7771
45.2481 1295 35.9861
45.3654 1274 35.6931
45.4827 1288 35.8887
45.6001 1206 34.7275
45.7174 1233 35.1141
45.8348 1317 36.2905
45.9522 1206 34.7275
46.0697 1184 34.4093
46.1871 1068 32.6803
46.3046 1008 31.749
46.422 917 30.282
46.5395 994 31.5278
46.657 1099 33.1512
46.7745 1150 33.9116
46.892 1168 34.176
47.0096 1237 35.171
47.1271 1279 35.7631
47.2446 1238 35.1852
47.3622 1177 34.3074
47.4797 1162 34.0881
47.5973 1187 34.4529
47.7149 1155 33.9853
47.8324 1077 32.8177
47.95 1052 32.4345
48.0675 1083 32.909
48.1851 1083 32.909
48.3027 1004 31.686
48.4202 1158 34.0294
48.5378 1125 33.541
48.6554 1123 33.5112
48.7729 1163 34.1028
48.8904 1178 34.322
49.008 1180 34.3511
49.1255 1160 34.0588
49.243 1178 34.322
49.3605 1202 34.6699
49.478 1133 33.6601
49.5955 1044 32.311
49.713 982 31.3369
49.8304 922 30.3645
49.9479 889 29.8161
50.0653 1009 31.7648
50.1827 1214 34.8425
50.3001 1212 34.8138
50.4175 1291 35.9305
50.5348 1386 37.229
50.6521 1465 38.2753
50.7694 1536 39.1918
50.8867 1487 38.5616
51.004 1539 39.2301
51.1212 1534 39.1663
51.2384 1503 38.7685
51.3556 1497 38.6911
51.4727 1528 39.0896
51.5899 1531 39.128
51.707 1643 40.5339
51.824 1616 40.1995
51.9411 1672 40.8901
52.0581 1684 41.0366
52.175 1762 41.9762
52.2919 1739 41.7013
52.4088 1845 42.9535
52.5257 1811 42.5558
52.6425 1882 43.382
52.7593 1869 43.2319
52.876 1838 42.8719
52.9927 1887 43.4396
53.1094 1886 43.4281
53.226 1766 42.0238
53.3426 1591 39.8873
53.4591 1447 38.0395
53.5756 1461 38.223
53.692 1647 40.5832
53.8084 1870 43.2435
53.9248 2034 45.0999
54.0411 2141 46.2709
54.1573 2129 46.1411
54.2735 0 1
54.3896 0 1
54.5057 0 1
54.6217 0 1
54.7377 0 1
54.8537 0 1
54.9695 0 1
55.0853 0 1
55.2011 0 1
55.3168 0 1
55.4324 0 1
57.824 0 1
57.9396 0 1
58.0553 0 1
58.1711 0 1
58.2869 0 1
58.4028 0 1
58.5187 0 1
58.6347 0 1
58.7508 0 1
58.8669 0 1
58.983 2721 52.1632
59.0992 2771 52.6403
59.2155 2904 53.8888
59.3318 2995 54.7266
59.4482 3084 55.5338
59.5646 3041 55.1453
59.681 3132 55.9643
59.7975 3019 54.9454
59.9141 3055 55.2721
60.0306 2878 53.647
60.1473 2811 53.0189
60.2639 2834 53.2353
60.3807 2874 53.6097
60.4974 2852 53.4041
60.6142 2955 54.3599
60.731 3073 55.4346
60.8479 3191 56.4889
60.9648 3192 56.4978
61.0818 3148 56.107
61.1987 3060 55.3173
61.3158 3068 55.3895
61.4328 3167 56.2761
61.5499 3067 55.3805
61.667 2949 54.3047
61.7841 2818 53.0848
61.9013 2568 50.6754
62.0185 2386 48.8467
62.1357 2470 49.6991
62.253 2634 51.3225
62.3702 2839 53.2823
62.4875 3047 55.1996
62.6049 3206 56.6216
62.7222 3394 58.258
62.8396 3388 58.2065
62.9569 3364 58
63.0743 3351 57.8878
63.1918 3414 58.4294
63.3092 3253 57.0351
63.4267 3218 56.7274
63.5441 3072 55.4256
63.6616 3093 55.6147
63.7791 3080 55.4977
63.8966 3098 55.6597
64.0142 3126 55.9106
64.1317 3187 56.4535
64.2492 3222 56.7627
64.3668 3332 57.7235
64.4843 3424 58.515
64.6019 3482 59.0085
64.7195 3557 59.6406
64.837 3501 59.1692
64.9546 3607 60.0583
65.0722 3423 58.5064
65.1898 3365 58.0086
65.3074 3247 56.9825
65.4249 2884 53.7029
65.5425 2700 51.9615
65.6601 2559 50.5866
65.7777 2694 51.9038
65.8952 3082 55.5158
66.0128 3232 56.8507
66.1304 3592 59.9333
66.2479 3537 59.4727
66.3655 3726 61.041
66.483 3787 61.5386
66.6005 3884 62.3217
66.718 3704 60.8605
66.8355 3738 61.1392
66.953 3731 61.0819
67.0705 3601 60.0083
67.1879 3550 59.5819
67.3054 3403 58.3352
67.4228 3378 58.1206
67.5402 3355 57.9224
67.6576 3499 59.1523
67.7749 3541 59.5063
67.8923 3745 61.1964
68.0096 3840 61.9677
68.1269 3973 63.0317
68.2442 4121 64.195
68.3614 4015 63.364
68.4787 4029 63.4744
68.5958 4078 63.8592
68.713 4064 63.7495
68.8302 4000 63.2456
68.9473 3836 61.9355
69.0643 3412 58.4123
69.1814 3195 56.5243
69.2984 3066 55.3715
69.4154 3013 54.8908
69.5323 3552 59.5987
69.6492 3938 62.7535
69.7661 4190 64.7302
69.8829 4370 66.106
69.9997 4481 66.9403
70.1165 4553 67.4759
70.2332 4466 66.8281
70.3499 4445 66.6708
70.4665 4339 65.8711
70.5831 4371 66.1135
70.6996 4326 65.7723
70.8161 4172 64.591
70.9326 4166 64.5446
71.049 3835 61.9274
71.1653 3781 61.4898
71.2817 3900 62.45
71.3979 3798 61.6279
71.5141 4038 63.5453
71.6303 3929 62.6817
71.7464 3832 61.9032
71.8624 0 1
71.9784 0 1
72.0944 0 1
72.2102 0 1
72.3261 0 1
72.4418 0 1
72.5575 0 1
72.6732 0 1
75.1054 0 1
75.2209 0 1
75.3365 0 1
75.4521 0 1
75.5678 0 1
75.6835 0 1
75.7993 0 1
75.9151 0 1
76.031 0 1
76.147 4074 63.8279
76.263 4155 64.4593
76.3791 4177 64.6297
76.4952 3982 63.1031
76.6113 4052 63.6553
76.7276 4043 63.5846
76.8438 4350 65.9545
76.9601 4568 67.587
77.0765 4674 68.3667
77.1929 4799 69.2748
77.3093 4966 70.4699
77.4258 4920 70.1427
77.5423 4974 70.5266
77.6589 4958 70.4131
77.7755 4710 68.6294
77.8921 4539 67.3721
78.0088 4135 64.304
78.1256 3787 61.5386
78.2423 3612 60.0999
78.3591 3393 58.2495
78.4759 3467 58.8812
78.5928 3942 62.7853
78.7097 4199 64.7997
78.8266 4744 68.8767
78.9436 4663 68.2862
79.0606 4860 69.7137
79.1776 4855 69.6778
79.2946 4923 70.1641
79.4117 4905 70.0357
79.5288 4706 68.6003
79.6459 4750 68.9202
79.7631 4596 67.7938
79.8802 4416 66.453
79.9974 4242 65.1306
80.1147 4057 63.6946
80.2319 3883 62.3137
80.3491 3929 62.6817
80.4664 4228 65.0231
80.5837 4330 65.8027
80.701 4637 68.0955
80.8183 4638 68.1029
80.9357 4837 69.5485
81.053 4790 69.2098
81.1704 4847 69.6204
81.2877 4676 68.3813
81.4051 4824 69.455
81.5225 4703 68.5784
81.6399 4223 64.9846
81.7573 3875 62.2495
81.8747 3613 60.1082
81.9922 3341 57.8014
82.1096 3494 59.1101
82.227 3698 60.8112
82.3444 4117 64.1639
82.4619 4333 65.8255
82.5793 4372 66.1211
82.6967 4721 68.7095
82.8142 4588 67.7348
82.9316 4696 68.5274
83.049 4500 67.082
83.1664 4470 66.8581
83.2838 4476 66.9029
83.4012 4280 65.4217
83.5186 4231 65.0461
83.636 4003 63.2693
83.7534 3680 60.663
83.8708 3632 60.2661
83.9881 3550 59.5819
84.1055 3810 61.7252
84.2228 4023 63.4271
84.3401 4290 65.4981
84.4575 4497 67.0597
84.5747 4570 67.6018
84.692 4610 67.897
84.8093 4508 67.1416
84.9265 4510 67.1565
85.0437 4495 67.0448
85.1609 4421 66.4906
85.2781 3915 62.57
85.3952 3740 61.1555
85.5123 3480 58.9915
85.6294 3411 58.4038
85.7465 3626 60.2163
85.8636 3898 62.434
85.9806 4151 64.4283
86.0976 4491 67.0149
86.2145 4645 68.1542
86.3315 4772 69.0797
86.4484 5076 71.2461
86.5652 5095 71.3793
86.682 4983 70.5904
86.7988 4970 70.4982
86.9156 4800 69.282
87.0323 4677 68.3886
87.149 4531 67.3127
87.2657 4430 66.5582
87.3823 4195 64.7688
87.4988 4089 63.9453
87.6154 4274 65.3758
87.7318 4568 67.587
87.8483 4861 69.7209
87.9647 4925 70.1783
88.081 5260 72.5259
88.1973 5289 72.7255
88.3136 5279 72.6567
88.4298 5324 72.9657
88.546 5225 72.2842
88.6621 5164 71.861
88.7781 4782 69.152
88.8942 0 1
89.0101 0 1
89.126 0 1
89.2419 0 1
89.3577 0 1
89.4734 0 1
89.5891 0 1
89.7047 0 1
89.8203 0 1
89.9358 0 1
92.3269 0 1
92.4424 0 1
92.558 0 1
92.6736 0 1
92.7893 0 1
92.905 0 1
93.0208 0 1
93.1366 0 1
93.2525 0 1
93.3685 0 1
93.4845 0 1
93.6005 5158 71.8192
93.7167 5226 72.2911
93.8328 5336 73.0479
93.949 5245 72.4224
94.0653 5238 72.374
94.1816 5065 71.1688
94.2979 4857 69.6922
94.4143 4573 67.624
94.5307 4116 64.1561
94.6472 4093 63.9766
94.7637 4186 64.6993
94.8803 4338 65.8635
94.9969 4577 67.6535
95.1135 4857 69.6922
95.2302 4869 69.7782
95.3469 5173 71.9236
95.4637 5277 72.643
95.5805 5424 73.6478
95.6973 5545 74.4648
95.8142 5412 73.5663
95.9311 5472 73.973
96.048 5475 73.9932
96.1649 5128 71.6101
96.2819 5193 72.0625
96.3989 4834 69.527
96.516 4553 67.4759
96.633 4266 65.3146
96.7501 4267 65.3223
96.8673 4450 66.7083
96.9844 4818 69.4118
97.1016 5118 71.5402
97.2188 5438 73.7428
97.336 5503 74.1822
97.4532 5657 75.213
97.5704 5624 74.9933
97.6877 5382 73.3621
97.805 5491 74.1013
97.9223 5316 72.9109
98.0396 4885 69.8928
98.1569 4724 68.7314
98.2743 4471 66.8655
98.3916 4277 65.3988
98.509 4430 66.5582
98.6264 4705 68.593
98.7438 4915 70.1071
98.8612 5186 72.0139
98.9786 5375 73.3144
99.096 5560 74.5654
99.2134 5878 76.6681
99.3308 5739 75.7562
99.4482 5651 75.1731
99.5656 5819 76.2824
99.6831 5512 74.2428
99.8005 5548 74.4849
99.9179 5290 72.7324
100.035 5136 71.6659
100.153 4658 68.2495
100.27 4480 66.9328
100.388 4726 68.7459
100.505 4853 69.6635
100.622 5313 72.8903
100.74 5701 75.505
100.857 5966 77.2399
100.975 5751 75.8353
101.092 5783 76.046
101.209 5789 76.0855
101.327 5858 76.5376
101.444 5862 76.5637
101.561 5614 74.9266
101.679 5157 71.8123
101.796 4895 69.9643
101.913 4617 67.9485
102.03 4599 67.8159
102.148 4813 69.3758
102.265 5347 73.1232
102.382 5131 71.631
102.499 5571 74.6391
102.616 5812 76.2365
102.733 5899 76.8049
102.851 6059 77.8396
102.968 6143 78.3773
103.085 6005 77.4919
103.202 5997 77.4403
103.319 5891 76.7529
103.436 5818 76.2758
103.552 5521 74.3034
103.669 5182 71.9861
103.786 4741 68.8549
103.903 4682 68.4251
104.02 5283 72.6842
104.137 5521 74.3034
104.253 6249 79.0506
104.37 6021 77.5951
104.487 6440 80.2496
104.603 6332 79.5739
104.72 6398 79.9875
104.836 6423 80.1436
104.953 6226 78.905
105.069 6114 78.1921
105.186 5629 75.0267
105.302 5161 71.8401
105.418 5044 71.0211
105.535 5051 71.0704
105.651 5395 73.4507
105.767 5686 75.4056
105.883 5802 76.1709
105.999 6134 78.3199
106.115 0 1
106.231 0 1
106.347 0 1
106.463 0 1
106.579 0 1
106.694 0 1
106.81 0 1
106.926 0 1
107.041 0 1
107.157 0 1
109.576 0 1
109.692 0 1
109.807 0 1
109.923 0 1
110.039 0 1
110.155 0 1
110.27 0 1
110.386 0 1
110.502 0 1
110.618 4893 69.95
110.735 5161 71.8401
110.851 5552 74.5117
110.967 5616 74.94
111.083 5826 76.3282
111.199 5940 77.0714
111.316 6058 77.8332
111.432 6116 78.2049
111.549 6064 77.8717
111.665 5981 77.3369
111.782 6025 77.6209
111.898 5696 75.4718
112.015 5336 73.0479
112.132 4914 70.0999
112.248 4500 67.082
112.365 4400 66.3325
112.482 4801 69.2892
112.599 4975 70.5337
112.716 5268 72.581
112.832 5823 76.3086
112.949 5702 75.5116
113.066 5630 75.0333
113.183 5668 75.2861
113.3 5565 74.5989
113.417 5502 74.1755
113.534 5511 74.2361
113.652 5262 72.5396
113.769 4837 69.5485
113.886 4636 68.0882
114.003 4297 65.5515
114.12 4464 66.8132
114.238 4694 68.5128
114.355 4946 70.3278
114.472 5006 70.7531
114.589 4990 70.6399
114.707 5183 71.9931
114.824 5164 71.861
114.942 5243 72.4086
115.059 5643 75.1199
115.176 5376 73.3212
115.294 5351 73.1505
115.411 5255 72.4914
115.529 4989 70.6329
115.646 4773 69.0869
115.764 4428 66.5432
115.881 4126 64.2339
115.999 4126 64.2339
116.116 4502 67.0969
116.234 4954 70.3847
116.351 5188 72.0278
116.469 5299 72.7942
116.586 5404 73.5119
116.704 5455 73.858
116.821 5622 74.98
116.939 5390 73.4166
117.056 5426 73.6614
117.174 5359 73.2052
117.291 5077 71.2531
117.409 4828 69.4838
117.526 4567 67.5796
117.644 4582 67.6905
117.761 4493 67.0298
117.879 4704 68.5857
117.996 4986 70.6116
118.114 5193 72.0625
118.231 5327 72.9863
118.349 5185 72.0069
118.466 5414 73.5799
118.584 5496 74.135
118.701 5534 74.3909
118.819 5616 74.94
118.936 5385 73.3826
119.053 5258 72.5121
119.171 5151 71.7705
119.288 4803 69.3037
119.405 4289 65.4905
119.523 4045 63.6003
119.64 4138 64.3273
119.757 4544 67.4092
119.875 5073 71.225
119.992 5143 71.7147
120.109 5466 73.9324
120.226 5588 74.7529
120.343 5401 73.4915
120.46 5384 73.3757
120.578 5313 72.8903
120.695 5419 73.6139
120.812 5222 72.2634
120.929 5161 71.8401
121.046 4977 70.5479
121.163 4777 69.1158
121.279 4596 67.7938
121.396 4570 67.6018
121.513 4620 67.9706
121.63 4921 70.1498
121.747 4852 69.6563
121.863 5120 71.5542
121.98 5079 71.2671
122.097 5046 71.0352
122.213 5262 72.5396
122.33 5277 72.643
122.446 5359 73.2052
122.563 5332 73.0205
122.679 5250 72.4569
122.795 5189 72.0347
122.912 4934 70.2424
123.028 4644 68.1469
123.144 4348 65.9394
123.26 4022 63.4192
123.377 0 1
123.493 0 1
123.609 0 1
123.725 0 1
123.84 0 1
123.956 0 1
124.072 0 1
124.188 0 1
124.303 0 1
124.419 0 1
126.852 0 1
126.968 0 1
127.083 0 1
127.199 0 1
127.315 0 1
127.431 0 1
127.547 0 1
127.663 0 1
127.779 0 1
127.895 0 1
128.011 0 1
128.127 0 1
128.243 0 1
128.359 4712 68.644
128.476 4404 66.3626
128.592 4449 66.7008
128.708 5037 70.9718
128.825 5527 74.3438
128.941 5801 76.1643
129.058 6035 77.6853
129.174 6010 77.5242
129.291 5959 77.1946
129.408 6058 77.8332
129.524 5973 77.2852
129.641 5887 76.7268
129.758 5833 76.3741
129.875 5701 75.505
129.992 5623 74.9867
130.108 5446 73.797
130.225 5167 71.8818
130.342 5144 71.7217
130.459 5073 71.225
130.576 5413 73.5731
130.693 5473 73.9797
130.81 5586 74.7395
130.928 5570 74.6324
131.045 5605 74.8665
131.162 5634 75.06
131.279 5770 75.9605
131.396 5833 76.3741
131.513 5804 76.184
131.631 5733 75.7166
131.748 5374 73.3076
131.865 4854 69.6707
131.983 4435 66.5958
132.1 4475 66.8954
132.217 4729 68.7677
132.335 5178 71.9583
132.452 5538 74.4177
132.57 5758 75.8815
132.687 5620 74.9667
132.804 5960 77.201
132.922 5691 75.4387
133.039 5740 75.7628
133.157 5707 75.5447
133.274 5597 74.8131
133.392 5690 75.4321
133.509 5480 74.027
133.627 5363 73.2325
133.744 5228 72.3049
133.862 4983 70.5904
133.979 5086 71.3162
134.097 4906 70.0428
134.214 5307 72.8492
134.332 5266 72.5672
134.449 5505 74.1957
134.567 5447 73.8038
134.684 5419 73.6139
134.802 5670 75.2994
134.919 5649 75.1598
135.037 5693 75.452
135.154 5597 74.8131
135.272 5460 73.8918
135.389 5025 70.8872
135.507 4500 67.082
135.624 4200 64.8074
135.742 4230 65.0385
135.859 4825 69.4622
135.977 5253 72.4776
136.094 5431 73.6953
136.211 5610 74.8999
136.329 5684 75.3923
136.446 5687 75.4122
136.564 5679 75.3591
136.681 5798 76.1446
136.798 5709 75.5579
136.915 5738 75.7496
137.033 5503 74.1822
137.15 5574 74.6592
137.267 5365 73.2462
137.384 5237 72.3671
137.502 5045 71.0282
137.619 4972 70.5124
137.736 5049 71.0563
137.853 5065 71.1688
137.97 5157 71.8123
138.087 5519 74.29
138.204 5436 73.7292
138.321 5422 73.6342
138.438 5419 73.6139
138.555 5588 74.7529
138.672 5568 74.619
138.788 5550 74.4983
138.905 5323 72.9589
139.022 5068 71.1899
139.139 4571 67.6092
139.255 4168 64.56
139.372 4336 65.8483
139.488 4583 67.6979
139.605 5108 71.4703
139.721 5398 73.4711
139.838 5605 74.8665
139.954 5613 74.92
140.071 5635 75.0666
140.187 5709 75.5579
140.303 5487 74.0743
140.419 5617 74.9466
140.535 5541 74.4379
140.652 5391 73.4234
140.768 0 1
140.884 0 1
141 0 1
141.115 0 1
141.231 0 1
141.347 0 1
141.463 0 1
141.578 0 1
141.694 0 1
144.104 0 1
144.219 0 1
144.335 0 1
144.45 0 1
144.566 0 1
144.682 0 1
144.798 0 1
144.914 0 1
145.03 0 1
145.146 4715 68.6659
145.262 4794 69.2387
145.378 4977 70.5479
145.494 4835 69.5342
145.61 4721 68.7095
145.726 4817 69.4046
145.842 4609 67.8896
145.959 4537 67.3573
146.075 4509 67.1491
146.192 4483 66.9552
146.308 4428 66.5432
146.425 4298 65.5591
146.541 4342 65.8939
146.658 4394 66.2873
146.774 4566 67.5722
146.891 4572 67.6166
147.008 4637 68.0955
147.125 4540 67.3795
147.241 4645 68.1542
147.358 4445 66.6708
147.475 4340 65.8787
147.592 4135 64.304
147.709 3776 61.4492
147.826 3597 59.975
147.943 3502 59.1777
148.06 3714 60.9426
148.177 3878 62.2736
148.294 4336 65.8483
148.411 4679 68.4032
148.528 4572 67.6166
148.645 4537 67.3573
148.762 4535 67.3424
148.88 4507 67.1342
148.997 4429 66.5507
149.114 4704 68.5857
149.231 4499 67.0746
149.349 4469 66.8506
149.466 4286 65.4675
149.583 4264 65.2993
149.701 4146 64.3894
149.818 4066 63.7652
149.935 4033 63.5059
150.053 4039 63.5531
150.17 4155 64.4593
150.287 4027 63.4586
150.405 4186 64.6993
150.522 4268 65.3299
150.64 4270 65.3452
150.757 4218 64.9461
150.875 4299 65.5668
150.992 4272 65.3605
151.11 3946 62.8172
151.227 3860 62.1289
151.344 3557 59.6406
151.462 3373 58.0775
151.579 3296 57.4108
151.697 3567 59.7244
151.814 3861 62.1369
151.932 4088 63.9375
152.049 4378 66.1665
152.167 4435 66.5958
152.284 4432 66.5733
152.402 4343 65.9014
152.519 4378 66.1665
152.636 4369 66.0984
152.754 4394 66.2873
152.871 4264 65.2993
152.989 4438 66.6183
153.106 4281 65.4294
153.223 4347 65.9318
153.341 4246 65.1613
153.458 4151 64.4283
153.575 4043 63.5846
153.693 3946 62.8172
153.81 3997 63.2218
153.927 4062 63.7338
154.044 4167 64.5523
154.162 4300 65.5744
154.279 4349 65.9469
154.396 4351 65.9621
154.513 4325 65.7647
154.63 4305 65.6125
154.747 4146 64.3894
154.864 4044 63.5925
154.981 3831 61.8951
155.098 3550 59.5819
155.215 3498 59.1439
155.332 3752 61.2536
155.449 3985 63.1269
155.566 4328 65.7875
155.683 4357 66.0076
155.8 4415 66.4455
155.917 4369 66.0984
156.033 4356 66
156.15 0 1
156.267 0 1
156.383 0 1
156.5 0 1
156.617 0 1
156.733 0 1
156.85 0 1
156.966 0 1
157.082 0 1
157.199 0 1
157.315 0 1
157.431 0 1
157.547 0 1
157.664 0 1
157.78 0 1
157.896 0 1
158.012 0 1
158.128 0 1
158.244 0 1
158.359 0 1
158.475 0 1
158.591 0 1
158.706 0 1
