
6.15755 0 1
6.2731 0 1
6.3887 0 1
6.50437 0 1
6.62009 0 1
6.73587 0 1
6.8517 0 1
6.96759 0 1
7.08353 0 1
7.19952 0 1
7.31557 0 1
7.43166 0 1
7.54781 0 1
7.664 0 1
7.78024 0 1
7.89653 0 1
8.01286 0 1
8.12924 0 1
8.24567 0 1
8.36213 0 1
8.47864 0 1
8.59519 0 1
8.71178 0 1
8.82841 0 1
8.94508 0 1
9.06179 0 1
9.17853 0 1
9.29531 0 1
9.41212 0 1
9.52897 0 1
9.64584 0 1
9.76276 0 1
9.8797 0 1
9.99667 0 1
10.1137 0 1
10.2307 0 1
10.3478 0 1
10.4648 0 1
10.5819 0 1
10.6991 0 1
10.8162 0 1
10.9334 0 1
11.0506 0 1
11.1678 0 1
11.285 0 1
11.4023 0 1
11.5196 0 1
11.6369 0 1
11.7542 0 1
11.8715 0 1
11.9888 0 1
12.1062 0 1
12.2235 0 1
12.3409 0 1
12.4582 0 1
12.5756 0 1
12.693 0 1
12.8104 0 1
12.9278 0 1
13.0452 0 1
13.1626 0 1
13.28 0 1
13.3974 0 1
13.5149 0 1
13.6323 0 1
13.7497 0 1
13.8671 0 1
13.9845 0 1
14.1019 0 1
14.2193 0 1
14.3367 0 1
14.4541 0 1
14.5714 0 1
14.6888 0 1
14.8062 0 1
14.9235 0 1
15.0408 8744 93.5094
15.1581 9057 95.1683
15.2755 9157 95.6922
15.3927 9218 96.0104
15.51 9285 96.3587
15.6273 9102 95.4044
15.7445 9243 96.1405
15.8617 8902 94.3504
15.9789 8862 94.1382
16.0961 8727 93.4184
16.2132 8570 92.5743
16.3304 8820 93.9149
16.4475 8884 94.255
16.5646 9245 96.1509
16.6816 9329 96.5867
16.7986 9352 96.7057
16.9156 9264 96.2497
17.0326 9160 95.7079
17.1496 9239 96.1197
17.2665 9180 95.8123
17.3833 9048 95.121
17.5002 8799 93.803
17.617 8747 93.5254
17.7338 8566 92.5527
17.8505 8838 94.0106
17.9672 9132 95.5615
18.0839 9334 96.6126
18.2005 9825 99.1211
18.3171 9907 99.5339
18.4337 9893 99.4636
18.5502 10317 101.573
18.6666 10404 102
18.7831 10418 102.069
18.8994 10226 101.124
19.0158 9936 99.6795
19.1321 9727 98.6256
19.2483 9358 96.7368
19.3645 9238 96.1145
19.4806 8877 94.2178
19.5967 8444 91.8912
19.7128 8167 90.3715
19.8288 8257 90.868
19.9447 7550 86.8907
20.0606 0 1
20.1764 0 1
20.2922 0 1
20.4079 0 1
20.5236 0 1
20.6392 0 1
20.7548 0 1
20.8702 0 1
23.3078 0 1
23.4233 0 1
23.539 0 1
23.6547 0 1
23.7704 0 1
23.8862 0 1
24.0021 0 1
24.118 0 1
24.234 0 1
24.35 0 1
24.4661 8715 93.3542
24.5822 8580 92.6283
24.6984 8399 91.6461
24.8146 8331 91.2743
24.9309 8447 91.9076
25.0472 8731 93.4398
25.1636 8869 94.1754
25.28 9238 96.1145
25.3965 9537 97.6576
25.513 9577 97.8621
25.6296 9756 98.7725
25.7462 9666 98.3158
25.8628 9938 99.6895
25.9795 9642 98.1937
26.0962 9456 97.242
26.213 8846 94.0532
26.3298 8906 94.3716
26.4466 8564 92.5419
26.5635 8551 92.4716
26.6804 8964 94.6784
26.7973 9153 95.6713
26.9143 9254 96.1977
27.0313 9457 97.2471
27.1483 9790 98.9444
27.2653 9912 99.559
27.3824 9882 99.4082
27.4996 9842 99.2069
27.6167 9620 98.0816
27.7339 9508 97.509
27.8511 9321 96.5453
27.9683 9226 96.0521
28.0855 8955 94.6309
28.2028 8622 92.8547
28.3201 8496 92.1737
28.4374 8223 90.6808
28.5547 8103 90.0167
28.6721 8469 92.0272
28.7894 8701 93.2792
28.9068 8904 94.361
29.0242 9108 95.4358
29.1416 9277 96.3172
29.259 9204 95.9375
29.3764 9381 96.8556
29.4939 8909 94.3875
29.6113 8824 93.9361
29.7288 8291 91.0549
29.8463 8322 91.225
29.9638 8101 90.0056
30.0812 8168 90.377
30.1987 8370 91.4877
30.3162 8657 93.043
30.4337 9067 95.2208
30.5512 9015 94.9474
30.6687 9128 95.5406
30.7862 9360 96.7471
30.9037 9280 96.3328
31.0212 9401 96.9588
31.1387 9428 97.0979
31.2562 9422 97.067
31.3737 9159 95.7027
31.4912 8994 94.8367
31.6087 8905 94.3663
31.7262 8522 92.3147
31.8436 8571 92.5797
31.9611 8114 90.0777
32.0785 8274 90.9615
32.1959 8105 90.0278
32.3134 8341 91.3291
32.4308 8581 92.6337
32.5482 8683 93.1826
32.6655 8826 93.9468
32.7829 9021 94.9789
32.9002 8699 93.2684
33.0176 8702 93.2845
33.1349 8800 93.8083
33.2522 8867 94.1647
33.3694 8404 91.6733
33.4867 8223 90.6808
33.6039 7920 88.9944
33.7211 7922 89.0056
33.8383 7985 89.3588
33.9554 8239 90.7689
34.0725 8491 92.1466
34.1896 8613 92.8062
34.3067 8957 94.6414
34.4237 8890 94.2868
34.5407 9137 95.5877
34.6577 9288 96.3743
34.7746 9056 95.163
34.8915 9052 95.142
35.0084 9063 95.1998
35.1252 8817 93.8989
35.242 8615 92.817
35.3587 8401 91.657
35.4755 8189 90.4931
35.5921 8005 89.4707
35.7088 7804 88.3403
35.8254 7478 86.4754
35.9419 7714 87.8294
36.0584 7936 89.0842
36.1749 8243 90.791
36.2913 8393 91.6133
36.4077 8488 92.1303
36.524 8489 92.1358
36.6403 8446 91.9021
36.7565 8536 92.3905
36.8727 8778 93.691
36.9889 8148 90.2663
37.1049 8133 90.1831
37.221 0 1
37.3369 0 1
37.4529 0 1
37.5687 0 1
37.6845 0 1
37.8003 0 1
37.916 0 1
38.0316 0 1
38.1472 0 1
40.5851 0 1
40.7008 0 1
40.8164 0 1
40.9322 0 1
41.048 0 1
41.1639 0 1
41.2798 0 1
41.3958 0 1
41.5118 0 1
41.6279 0 1
41.744 6760 82.2192
41.8602 7147 84.5399
41.9765 7356 85.7671
42.0928 7354 85.7555
42.2091 7113 84.3386
42.3255 7111 84.3267
42.4419 6841 82.7103
42.5584 6674 81.6946
42.675 6648 81.5353
42.7915 6570 81.0555
42.9081 6756 82.1949
43.0248 6793 82.4197
43.1415 7148 84.5458
43.2582 7197 84.8351
43.375 7230 85.0294
43.4918 7275 85.2936
43.6087 7323 85.5745
43.7256 7276 85.2995
43.8425 7175 84.7054
43.9595 7061 84.0298
44.0765 6827 82.6257
44.1935 6488 80.5481
44.3106 6429 80.181
44.4277 6334 79.5864
44.5448 5893 76.7659
44.6619 5712 75.5778
44.7791 5487 74.0743
44.8963 5514 74.2563
45.0136 5529 74.3572
45.1308 5728 75.6836
45.2481 5810 76.2234
45.3654 5810 76.2234
45.4827 5845 76.4526
45.6001 5987 77.3757
45.7174 5767 75.9408
45.8348 5803 76.1774
45.9522 5525 74.3303
46.0697 5240 72.3878
46.1871 5095 71.3793
46.3046 5086 71.3162
46.422 5082 71.2881
46.5395 5199 72.1041
46.657 5316 72.9109
46.7745 5472 73.973
46.892 5501 74.1687
47.0096 5474 73.9865
47.1271 5375 73.3144
47.2446 5415 73.5867
47.3622 5400 73.4847
47.4797 5497 74.1418
47.5973 5291 72.7393
47.7149 5269 72.5879
47.8324 5125 71.5891
47.95 4930 70.214
48.0675 4873 69.8069
48.1851 4618 67.9559
48.3027 4496 67.0522
48.4202 4405 66.3702
48.5378 4453 66.7308
48.6554 4702 68.5711
48.7729 4785 69.1737
48.8904 5033 70.9436
49.008 5041 71
49.1255 5118 71.5402
49.243 5127 71.6031
49.3605 4968 70.484
49.478 4911 70.0785
49.5955 4816 69.3974
49.713 4738 68.8331
49.8304 4564 67.5574
49.9479 4669 68.3301
50.0653 4895 69.9643
50.1827 5265 72.5603
50.3001 5289 72.7255
50.4175 5438 73.7428
50.5348 5659 75.2263
50.6521 5853 76.5049
50.7694 5925 76.974
50.8867 6048 77.7689
51.004 6138 78.3454
51.1212 6087 78.0192
51.2384 6207 78.7845
51.3556 6207 78.7845
51.4727 6275 79.2149
51.5899 6159 78.4793
51.707 5744 75.7892
51.824 5760 75.8947
51.9411 5962 77.214
52.0581 6131 78.3007
52.175 6481 80.5047
52.2919 6958 83.4146
52.4088 7030 83.8451
52.5257 7159 84.6109
52.6425 7360 85.7904
52.7593 7463 86.3887
52.876 7610 87.2353
52.9927 7485 86.5159
53.1094 7323 85.5745
53.226 7139 84.4926
53.3426 7029 83.8391
53.4591 6805 82.4924
53.5756 6859 82.8191
53.692 7434 86.2206
53.8084 7657 87.5043
53.9248 8035 89.6382
54.0411 8193 90.5152
54.1573 8234 90.7414
54.2735 0 1
54.3896 0 1
54.5057 0 1
54.6217 0 1
54.7377 0 1
54.8537 0 1
54.9695 0 1
55.0853 0 1
55.2011 0 1
55.3168 0 1
55.4324 0 1
57.824 0 1
57.9396 0 1
58.0553 0 1
58.1711 0 1
58.2869 0 1
58.4028 0 1
58.5187 0 1
58.6347 0 1
58.7508 0 1
58.8669 0 1
58.983 9026 95.0053
59.0992 9706 98.519
59.2155 10385 101.907
59.3318 10370 101.833
59.4482 10402 101.99
59.5646 10394 101.951
59.681 10639 103.146
59.7975 10645 103.175
59.9141 10488 102.411
60.0306 10362 101.794
60.1473 10208 101.035
60.2639 9923 99.6143
60.3807 9764 98.813
60.4974 9324 96.5609
60.6142 8954 94.6256
60.731 8826 93.9468
60.8479 9073 95.2523
60.9648 9173 95.7758
61.0818 9585 97.903
61.1987 9672 98.3463
61.3158 9908 99.5389
61.4328 9995 99.975
61.5499 10056 100.28
61.667 9672 98.3463
61.7841 9544 97.6934
61.9013 9316 96.5194
62.0185 8835 93.9947
62.1357 8520 92.3038
62.253 8653 93.0215
62.3702 8589 92.6769
62.4875 9057 95.1683
62.6049 9318 96.5298
62.7222 9535 97.6473
62.8396 9599 97.9745
62.9569 9642 98.1937
63.0743 9762 98.8028
63.1918 9732 98.6509
63.3092 9555 97.7497
63.4267 9727 98.6256
63.5441 9802 99.0051
63.6616 9479 97.3602
63.7791 9086 95.3205
63.8966 8871 94.186
64.0142 8307 91.1427
64.1317 8048 89.7106
64.2492 7969 89.2693
64.3668 8139 90.2164
64.4843 8233 90.7359
64.6019 8512 92.2605
64.7195 8707 93.3113
64.837 9134 95.572
64.9546 9367 96.7833
65.0722 9304 96.4572
65.1898 9127 95.5353
65.3074 9449 97.206
65.4249 8961 94.6626
65.5425 8693 93.2363
65.6601 8277 90.978
65.7777 7978 89.3197
65.8952 7923 89.0112
66.0128 8418 91.7497
66.1304 8580 92.6283
66.2479 9020 94.9737
66.3655 9180 95.8123
66.483 9235 96.0989
66.6005 9479 97.3602
66.718 9439 97.1545
66.8355 9434 97.1288
66.953 9469 97.3088
67.0705 9558 97.765
67.1879 9452 97.2214
67.3054 9486 97.3961
67.4228 9514 97.5397
67.5402 9042 95.0894
67.6576 8672 93.1236
67.7749 8324 91.236
67.8923 8254 90.8515
68.0096 8142 90.233
68.1269 8535 92.3851
68.2442 8827 93.9521
68.3614 9138 95.5929
68.4787 9284 96.3535
68.5958 9681 98.3921
68.713 9680 98.387
68.8302 10004 100.02
68.9473 9830 99.1464
69.0643 10006 100.03
69.1814 9386 96.8814
69.2984 8884 94.255
69.4154 8619 92.8386
69.5323 8462 91.9891
69.6492 8669 93.1075
69.7661 9170 95.7601
69.8829 9627 98.1173
69.9997 10056 100.28
70.1165 9899 99.4937
70.2332 10139 100.693
70.3499 10160 100.797
70.4665 10395 101.956
70.5831 10487 102.406
70.6996 10307 101.523
70.8161 10383 101.897
70.9326 10133 100.663
71.049 9988 99.94
71.1653 9869 99.3428
71.2817 9405 96.9794
71.3979 8889 94.2815
71.5141 8209 90.6035
71.6303 7920 88.9944
71.7464 7812 88.3855
71.8624 0 1
71.9784 0 1
72.0944 0 1
72.2102 0 1
72.3261 0 1
72.4418 0 1
72.5575 0 1
72.6732 0 1
75.1054 0 1
75.2209 0 1
75.3365 0 1
75.4521 0 1
75.5678 0 1
75.6835 0 1
75.7993 0 1
75.9151 0 1
76.031 0 1
76.147 9171 95.7653
76.263 10012 100.06
76.3791 10000 100
76.4952 9548 97.7139
76.6113 9168 95.7497
76.7276 8858 94.1169
76.8438 8586 92.6607
76.9601 8827 93.9521
77.0765 8850 94.0744
77.1929 9080 95.289
77.3093 9637 98.1682
77.4258 9917 99.5841
77.5423 10192 100.955
77.6589 10213 101.059
77.7755 10430 102.127
77.8921 10461 102.279
78.0088 9926 99.6293
78.1256 9563 97.7906
78.2423 8950 94.6044
78.3591 8589 92.6769
78.4759 8236 90.7524
78.5928 8478 92.0761
78.7097 9087 95.3258
78.8266 9199 95.9114
78.9436 9963 99.8148
79.0606 10116 100.578
79.1776 9803 99.0101
79.2946 10306 101.518
79.4117 10313 101.553
79.5288 10199 100.99
79.6459 10306 101.518
79.7631 10149 100.742
79.8802 10128 100.638
79.9974 10070 100.349
80.1147 10010 100.05
80.2319 9583 97.8928
80.3491 9040 95.0789
80.4664 8630 92.8978
80.5837 8453 91.9402
80.701 8739 93.4826
80.8183 9181 95.8175
80.9357 9360 96.7471
81.053 9743 98.7066
81.1704 10015 100.075
81.2877 10252 101.252
81.4051 10283 101.405
81.5225 10766 103.759
81.6399 10060 100.3
81.7573 10035 100.175
81.8747 9090 95.3415
81.9922 8572 92.5851
82.1096 8236 90.7524
82.227 8459 91.9728
82.3444 8916 94.4246
82.4619 9372 96.8091
82.5793 9789 98.9394
82.6967 9867 99.3328
82.8142 9912 99.559
82.9316 10322 101.597
83.049 10398 101.971
83.1664 10243 101.208
83.2838 10275 101.366
83.4012 10468 102.313
83.5186 10294 101.459
83.636 10157 100.782
83.7534 10207 101.03
83.8708 9622 98.0918
83.9881 9170 95.7601
84.1055 8686 93.1987
84.2228 8793 93.771
84.3401 9009 94.9158
84.4575 9264 96.2497
84.5747 9594 97.949
84.692 10289 101.435
84.8093 10229 101.139
84.9265 10899 104.398
85.0437 10859 104.207
85.1609 10778 103.817
85.2781 10447 102.211
85.3952 9897 99.4837
85.5123 9205 95.9427
85.6294 8805 93.835
85.7465 8571 92.5797
85.8636 8957 94.6414
85.9806 9528 97.6115
86.0976 9906 99.5289
86.2145 10468 102.313
86.3315 10517 102.552
86.4484 10809 103.966
86.5652 10872 104.269
86.682 11057 105.152
86.7988 11285 106.231
86.9156 11046 105.1
87.0323 11020 104.976
87.149 10970 104.738
87.2657 10996 104.862
87.3823 10744 103.653
87.4988 10394 101.951
87.6154 9677 98.3717
87.7318 9391 96.9072
87.8483 9364 96.7678
87.9647 9721 98.5951
88.081 9767 98.8281
88.1973 10291 101.445
88.3136 10562 102.772
88.4298 11053 105.133
88.546 11285 106.231
88.6621 11440 106.958
88.7781 11102 105.366
88.8942 0 1
89.0101 0 1
89.126 0 1
89.2419 0 1
89.3577 0 1
89.4734 0 1
89.5891 0 1
89.7047 0 1
89.8203 0 1
89.9358 0 1
92.3269 0 1
92.4424 0 1
92.558 0 1
92.6736 0 1
92.7893 0 1
92.905 0 1
93.0208 0 1
93.1366 0 1
93.2525 0 1
93.3685 0 1
93.4845 0 1
93.6005 10154 100.767
93.7167 10433 102.142
93.8328 10583 102.874
93.949 10540 102.665
94.0653 10614 103.024
94.1816 10361 101.789
94.2979 9690 98.4378
94.4143 9216 96
94.5307 8540 92.4121
94.6472 8569 92.5689
94.7637 8797 93.7923
94.8803 9065 95.2103
94.9969 9619 98.0765
95.1135 9756 98.7725
95.2302 10179 100.891
95.3469 10304 101.509
95.4637 10258 101.282
95.5805 10576 102.84
95.6973 10660 103.247
95.8142 10878 104.298
95.9311 10842 104.125
96.048 10817 104.005
96.1649 10954 104.661
96.2819 10602 102.966
96.3989 10173 100.861
96.516 9822 99.106
96.633 9640 98.1835
96.7501 8980 94.7629
96.8673 9021 94.9789
96.9844 9180 95.8123
97.1016 9350 96.6954
97.2188 9715 98.5647
97.336 10031 100.155
97.4532 10302 101.499
97.5704 10685 103.368
97.6877 10917 104.484
97.805 10562 102.772
97.9223 10286 101.42
98.0396 9602 97.9898
98.1569 9183 95.828
98.2743 8694 93.2416
98.3916 8641 92.957
98.509 8692 93.2309
98.6264 9169 95.7549
98.7438 9652 98.2446
98.8612 9927 99.6343
98.9786 10159 100.792
99.096 10328 101.627
99.2134 10385 101.907
99.3308 10320 101.587
99.4482 10505 102.494
99.5656 10395 101.956
99.6831 10156 100.777
99.8005 10141 100.703
99.9179 10045 100.225
100.035 9748 98.732
100.153 9403 96.9691
100.27 9126 95.5301
100.388 8840 94.0213
100.505 8773 93.6643
100.622 8951 94.6097
100.74 9287 96.3691
100.857 9618 98.0714
100.975 9994 99.97
101.092 10358 101.774
101.209 10611 103.01
101.327 10559 102.757
101.444 10771 103.783
101.561 10217 101.079
101.679 9709 98.5343
101.796 9181 95.8175
101.913 8659 93.0537
102.03 8519 92.2984
102.148 9006 94.8999
102.265 9139 95.5981
102.382 10741 103.639
102.499 10348 101.725
102.616 10707 103.475
102.733 10849 104.159
102.851 10837 104.101
102.968 11078 105.252
103.085 11107 105.39
103.202 10883 104.322
103.319 10774 103.798
103.436 10828 104.058
103.552 10708 103.479
103.669 10246 101.223
103.786 9875 99.373
103.903 9405 96.9794
104.02 9447 97.1957
104.137 9472 97.3242
104.253 9842 99.2069
104.37 10214 101.064
104.487 10728 103.576
104.603 10743 103.648
104.72 11206 105.858
104.836 11421 106.869
104.953 11467 107.084
105.069 10700 103.441
105.186 10100 100.499
105.302 9413 97.0206
105.418 9158 95.6974
105.535 9086 95.3205
105.651 9732 98.6509
105.767 10119 100.593
105.883 10595 102.932
105.999 10742 103.644
106.115 0 1
106.231 0 1
106.347 0 1
106.463 0 1
106.579 0 1
106.694 0 1
106.81 0 1
106.926 0 1
107.041 0 1
107.157 0 1
109.576 0 1
109.692 0 1
109.807 0 1
109.923 0 1
110.039 0 1
110.155 0 1
110.27 0 1
110.386 0 1
110.502 0 1
110.618 7956 89.1964
110.735 8689 93.2148
110.851 9245 96.1509
110.967 9499 97.4628
111.083 9667 98.3209
111.199 9801 99
111.316 10209 101.04
111.432 10090 100.449
111.549 10223 101.109
111.665 10034 100.17
111.782 9983 99.915
111.898 9868 99.3378
112.015 9540 97.6729
112.132 9499 97.4628
112.248 9200 95.9166
112.365 8586 92.6607
112.482 8428 91.8041
112.599 8158 90.3216
112.716 8234 90.7414
112.832 8589 92.6769
112.949 8743 93.504
113.066 8928 94.4881
113.183 9117 95.483
113.3 9287 96.3691
113.417 9324 96.5609
113.534 9237 96.1093
113.652 9097 95.3782
113.769 8517 92.2876
113.886 7802 88.3289
114.003 7445 86.2844
114.12 7322 85.5687
114.238 7658 87.51
114.355 8003 89.4595
114.472 8297 91.0879
114.589 8205 90.5815
114.707 8630 92.8978
114.824 8577 92.6121
114.942 8640 92.9516
115.059 8727 93.4184
115.176 8555 92.4932
115.294 8425 91.7878
115.411 8183 90.4599
115.529 7958 89.2076
115.646 7742 87.9886
115.764 7607 87.2181
115.881 7216 84.947
115.999 6953 83.3847
116.116 6718 81.9634
116.234 6556 80.9691
116.351 6715 81.9451
116.469 6902 83.0783
116.586 7144 84.5222
116.704 7333 85.6329
116.821 7492 86.5563
116.939 7646 87.4414
117.056 7741 87.983
117.174 7352 85.7438
117.291 7136 84.4748
117.409 6576 81.0925
117.526 6462 80.3866
117.644 6000 77.4597
117.761 6083 77.9936
117.879 6579 81.111
117.996 6661 81.6149
118.114 6971 83.4925
118.231 7415 86.1104
118.349 7163 84.6345
118.466 7240 85.0882
118.584 7453 86.3308
118.701 7501 86.6083
118.819 7530 86.7756
118.936 7368 85.8371
119.053 7257 85.188
119.171 7255 85.1763
119.288 7222 84.9824
119.405 7044 83.9285
119.523 6789 82.3954
119.64 6539 80.8641
119.757 6507 80.666
119.875 6555 80.963
119.992 6674 81.6946
120.109 7062 84.0357
120.226 7334 85.6388
120.343 7486 86.5217
120.46 7657 87.5043
120.578 8013 89.5154
120.695 7913 88.955
120.812 8136 90.1998
120.929 8005 89.4707
121.046 7406 86.0581
121.163 7162 84.6286
121.279 6806 82.4985
121.396 6795 82.4318
121.513 7257 85.188
121.63 7792 88.2723
121.747 8011 89.5042
121.863 8215 90.6366
121.98 8567 92.5581
122.097 8607 92.7739
122.213 8819 93.9095
122.33 8799 93.803
122.446 8530 92.358
122.563 8749 93.5361
122.679 8837 94.0053
122.795 8699 93.2684
122.912 8575 92.6013
123.028 8407 91.6897
123.144 8169 90.3825
123.26 7938 89.0955
123.377 0 1
123.493 0 1
123.609 0 1
123.725 0 1
123.84 0 1
123.956 0 1
124.072 0 1
124.188 0 1
124.303 0 1
124.419 0 1
126.852 0 1
126.968 0 1
127.083 0 1
127.199 0 1
127.315 0 1
127.431 0 1
127.547 0 1
127.663 0 1
127.779 0 1
127.895 0 1
128.011 0 1
128.127 0 1
128.243 0 1
128.359 9991 99.955
128.476 9727 98.6256
128.592 9449 97.206
128.708 9013 94.9368
128.825 9099 95.3887
128.941 8971 94.7154
129.058 9136 95.5824
129.174 9551 97.7292
129.291 9628 98.1224
129.408 9959 99.7948
129.524 10301 101.494
129.641 10345 101.71
129.758 10376 101.863
129.875 10220 101.094
129.992 9707 98.5241
130.108 9241 96.1301
130.225 8669 93.1075
130.342 8646 92.9839
130.459 8597 92.72
130.576 8770 93.6483
130.693 9035 95.0526
130.81 9653 98.2497
130.928 9638 98.1733
131.045 9871 99.3529
131.162 10099 100.494
131.279 10143 100.712
131.396 10039 100.195
131.513 10039 100.195
131.631 10005 100.025
131.748 9738 98.6813
131.865 9592 97.9388
131.983 9363 96.7626
132.1 9265 96.2549
132.217 8780 93.7017
132.335 8661 93.0645
132.452 8619 92.8386
132.57 8880 94.2338
132.687 8777 93.6856
132.804 9556 97.7548
132.922 9539 97.6678
133.039 9740 98.6914
133.157 9829 99.1413
133.274 9736 98.6712
133.392 9774 98.8635
133.509 9585 97.903
133.627 9033 95.0421
133.744 8629 92.8924
133.862 8054 89.7441
133.979 8041 89.6716
134.097 8358 91.4221
134.214 8803 93.8243
134.332 8798 93.7977
134.449 9051 95.1367
134.567 9024 94.9947
134.684 9262 96.2393
134.802 9274 96.3016
134.919 9193 95.8801
135.037 9456 97.242
135.154 8873 94.1966
135.272 8836 94
135.389 8573 92.5905
135.507 8263 90.901
135.624 8272 90.9505
135.742 7645 87.4357
135.859 7371 85.8545
135.977 7303 85.4576
136.094 7339 85.668
136.211 7525 86.7468
136.329 7574 87.0287
136.446 7906 88.9157
136.564 7972 89.2861
136.681 7945 89.1347
136.798 7889 88.82
136.915 7968 89.2637
137.033 7911 88.9438
137.15 7640 87.4071
137.267 7303 85.4576
137.384 6814 82.547
137.502 6860 82.8251
137.619 6575 81.0864
137.736 7000 83.666
137.853 7415 86.1104
137.97 7731 87.9261
138.087 8033 89.627
138.204 8303 91.1208
138.321 8441 91.8749
138.438 8644 92.9731
138.555 8718 93.3702
138.672 8631 92.9032
138.788 8573 92.5905
138.905 8661 93.0645
139.022 8525 92.3309
139.139 8530 92.358
139.255 8474 92.0543
139.372 8020 89.5545
139.488 7916 88.9719
139.605 8020 89.5545
139.721 8188 90.4876
139.838 8430 91.815
139.954 8858 94.1169
140.071 8903 94.3557
140.187 9429 97.103
140.303 9318 96.5298
140.419 9605 98.0051
140.535 9512 97.5295
140.652 9557 97.7599
140.768 0 1
140.884 0 1
141 0 1
141.115 0 1
141.231 0 1
141.347 0 1
141.463 0 1
141.578 0 1
141.694 0 1
144.104 0 1
144.219 0 1
144.335 0 1
144.45 0 1
144.566 0 1
144.682 0 1
144.798 0 1
144.914 0 1
145.03 0 1
145.146 14461 120.254
145.262 15711 125.344
145.378 16895 129.981
145.494 17437 132.049
145.61 18575 136.29
145.726 19029 137.946
145.842 19438 139.42
145.959 19355 139.122
146.075 19046 138.007
146.192 18573 136.283
146.308 18481 135.945
146.425 19054 138.036
146.541 20800 144.222
146.658 22165 148.879
146.774 23375 152.889
146.891 24535 156.637
147.008 25744 160.449
147.125 27109 164.648
147.241 27517 165.882
147.358 27582 166.078
147.475 27841 166.856
147.592 27239 165.042
147.709 27062 164.505
147.826 26921 164.076
147.943 26476 162.714
148.06 25511 159.722
148.177 25483 159.634
148.294 24616 156.895
148.411 24975 158.035
148.528 24992 158.089
148.645 25667 160.209
148.762 26570 163.003
148.88 26985 164.271
148.997 28402 168.529
149.114 25842 160.754
149.231 26924 164.085
149.349 26244 162
149.466 26368 162.382
149.583 24515 156.573
149.701 23273 152.555
149.818 22343 149.476
149.935 21578 146.895
150.053 21651 147.143
150.17 22722 150.738
150.287 23568 153.519
150.405 24307 155.907
150.522 24927 157.883
150.64 25486 159.643
150.757 25926 161.016
150.875 26398 162.475
150.992 26501 162.791
151.11 26731 163.496
151.227 26204 161.876
151.344 25650 160.156
151.462 25251 158.906
151.579 24828 157.569
151.697 24776 157.404
151.814 24086 155.197
151.932 23948 154.751
152.049 24552 156.691
152.167 25153 158.597
152.284 26029 161.335
152.402 27108 164.645
152.519 27855 166.898
152.636 28422 168.588
152.754 28579 169.053
152.871 28919 170.056
152.989 28514 168.861
153.106 27832 166.829
153.223 26172 161.778
153.341 25047 158.262
153.458 24281 155.824
153.575 23635 153.737
153.693 24495 156.509
153.81 25778 160.555
153.927 26899 164.009
154.044 27398 165.523
154.162 28553 168.976
154.279 29181 170.824
154.396 30228 173.862
154.513 31137 176.457
154.63 31113 176.389
154.747 31404 177.212
154.864 31301 176.921
154.981 30780 175.442
155.098 30582 174.877
155.215 30210 173.81
155.332 29809 172.653
155.449 29111 170.619
155.566 29369 171.374
155.683 30020 173.263
155.8 30791 175.474
155.917 31951 178.748
156.033 33153 182.08
156.15 0 1
156.267 0 1
156.383 0 1
156.5 0 1
156.617 0 1
156.733 0 1
156.85 0 1
156.966 0 1
157.082 0 1
157.199 0 1
157.315 0 1
157.431 0 1
157.547 0 1
157.664 0 1
157.78 0 1
157.896 0 1
158.012 0 1
158.128 0 1
158.244 0 1
158.359 0 1
158.475 0 1
158.591 0 1
158.706 0 1
