
6.15755 0 1
6.2731 0 1
6.3887 0 1
6.50437 0 1
6.62009 0 1
6.73587 0 1
6.8517 0 1
6.96759 0 1
7.08353 0 1
7.19952 0 1
7.31557 0 1
7.43166 0 1
7.54781 0 1
7.664 0 1
7.78024 0 1
7.89653 0 1
8.01286 0 1
8.12924 0 1
8.24567 0 1
8.36213 0 1
8.47864 0 1
8.59519 0 1
8.71178 0 1
8.82841 0 1
8.94508 0 1
9.06179 0 1
9.17853 0 1
9.29531 0 1
9.41212 0 1
9.52897 0 1
9.64584 0 1
9.76276 0 1
9.8797 0 1
9.99667 0 1
10.1137 0 1
10.2307 0 1
10.3478 0 1
10.4648 0 1
10.5819 0 1
10.6991 0 1
10.8162 0 1
10.9334 0 1
11.0506 0 1
11.1678 0 1
11.285 0 1
11.4023 0 1
11.5196 0 1
11.6369 0 1
11.7542 0 1
11.8715 0 1
11.9888 0 1
12.1062 0 1
12.2235 0 1
12.3409 0 1
12.4582 0 1
12.5756 0 1
12.693 0 1
12.8104 0 1
12.9278 0 1
13.0452 0 1
13.1626 0 1
13.28 0 1
13.3974 0 1
13.5149 0 1
13.6323 0 1
13.7497 0 1
13.8671 0 1
13.9845 0 1
14.1019 0 1
14.2193 0 1
14.3367 0 1
14.4541 0 1
14.5714 0 1
14.6888 0 1
14.8062 0 1
14.9235 0 1
15.0408 0 0
15.1581 0 0
15.2755 0 0
15.3927 0 0
15.51 0 0
15.6273 0 0
15.7445 0 0
15.8617 0 0
15.9789 0 0
16.0961 0 0
16.2132 0 0
16.3304 0 0
16.4475 0 0
16.5646 0 0
16.6816 0 0
16.7986 0 0
16.9156 0 0
17.0326 0 0
17.1496 0 0
17.2665 0 0
17.3833 0 0
17.5002 0 0
17.617 0 0
17.7338 0 0
17.8505 0 0
17.9672 0 0
18.0839 0 0
18.2005 0 0
18.3171 0 0
18.4337 0 0
18.5502 0 0
18.6666 0 0
18.7831 0 0
18.8994 0 0
19.0158 0 0
19.1321 0 0
19.2483 0 0
19.3645 0 0
19.4806 0 0
19.5967 0 0
19.7128 0 0
19.8288 0 0
19.9447 0 0
20.0606 0 1
20.1764 0 1
20.2922 0 1
20.4079 0 1
20.5236 0 1
20.6392 0 1
20.7548 0 1
20.8702 0 1
23.3078 0 1
23.4233 0 1
23.539 0 1
23.6547 0 1
23.7704 0 1
23.8862 0 1
24.0021 0 1
24.118 0 1
24.234 0 1
24.35 0 1
24.4661 412 20.2978
24.5822 467 21.6102
24.6984 462 21.4942
24.8146 445 21.095
24.9309 476 21.8174
25.0472 487 22.0681
25.1636 519 22.7816
25.28 515 22.6936
25.3965 516 22.7156
25.513 478 21.8632
25.6296 514 22.6716
25.7462 529 23
25.8628 514 22.6716
25.9795 550 23.4521
26.0962 569 23.8537
26.213 485 22.0227
26.3298 537 23.1733
26.4466 468 21.6333
26.5635 452 21.2603
26.6804 486 22.0454
26.7973 453 21.2838
26.9143 463 21.5174
27.0313 453 21.2838
27.1483 466 21.587
27.2653 466 21.587
27.3824 479 21.8861
27.4996 502 22.4054
27.6167 451 21.2368
27.7339 480 21.9089
27.8511 516 22.7156
27.9683 452 21.2603
28.0855 433 20.8087
28.2028 498 22.3159
28.3201 433 20.8087
28.4374 454 21.3073
28.5547 483 21.9773
28.6721 432 20.7846
28.7894 459 21.4243
28.9068 529 23
29.0242 519 22.7816
29.1416 526 22.9347
29.259 473 21.7486
29.3764 493 22.2036
29.4939 515 22.6936
29.6113 490 22.1359
29.7288 477 21.8403
29.8463 459 21.4243
29.9638 498 22.3159
30.0812 494 22.2261
30.1987 498 22.3159
30.3162 470 21.6795
30.4337 422 20.5426
30.5512 422 20.5426
30.6687 412 20.2978
30.7862 473 21.7486
30.9037 419 20.4695
31.0212 441 21
31.1387 446 21.1187
31.2562 411 20.2731
31.3737 432 20.7846
31.4912 454 21.3073
31.6087 429 20.7123
31.7262 455 21.3307
31.8436 435 20.8567
31.9611 442 21.0238
32.0785 472 21.7256
32.1959 500 22.3607
32.3134 492 22.1811
32.4308 468 21.6333
32.5482 508 22.5389
32.6655 489 22.1133
32.7829 502 22.4054
32.9002 483 21.9773
33.0176 462 21.4942
33.1349 487 22.0681
33.2522 507 22.5167
33.3694 451 21.2368
33.4867 465 21.5639
33.6039 464 21.5407
33.7211 458 21.4009
33.8383 444 21.0713
33.9554 425 20.6155
34.0725 453 21.2838
34.1896 427 20.664
34.3067 412 20.2978
34.4237 406 20.1494
34.5407 401 20.025
34.6577 387 19.6723
34.7746 421 20.5183
34.8915 431 20.7605
35.0084 418 20.445
35.1252 396 19.8997
35.242 416 20.3961
35.3587 414 20.347
35.4755 472 21.7256
35.5921 424 20.5913
35.7088 430 20.7364
35.8254 431 20.7605
35.9419 480 21.9089
36.0584 421 20.5183
36.1749 448 21.166
36.2913 433 20.8087
36.4077 485 22.0227
36.524 491 22.1585
36.6403 458 21.4009
36.7565 502 22.4054
36.8727 488 22.0907
36.9889 446 21.1187
37.1049 427 20.664
37.221 0 1
37.3369 0 1
37.4529 0 1
37.5687 0 1
37.6845 0 1
37.8003 0 1
37.916 0 1
38.0316 0 1
38.1472 0 1
40.5851 0 1
40.7008 0 1
40.8164 0 1
40.9322 0 1
41.048 0 1
41.1639 0 1
41.2798 0 1
41.3958 0 1
41.5118 0 1
41.6279 0 1
41.744 413 20.3224
41.8602 372 19.2873
41.9765 423 20.567
42.0928 386 19.6469
42.2091 404 20.0998
42.3255 365 19.105
42.4419 396 19.8997
42.5584 389 19.7231
42.675 397 19.9249
42.7915 413 20.3224
42.9081 378 19.4422
43.0248 362 19.0263
43.1415 347 18.6279
43.2582 350 18.7083
43.375 341 18.4662
43.4918 349 18.6815
43.6087 345 18.5742
43.7256 341 18.4662
43.8425 335 18.303
43.9595 357 18.8944
44.0765 370 19.2354
44.1935 368 19.1833
44.3106 341 18.4662
44.4277 336 18.3303
44.5448 363 19.0526
44.6619 358 18.9209
44.7791 350 18.7083
44.8963 339 18.412
45.0136 336 18.3303
45.1308 317 17.8045
45.2481 327 18.0831
45.3654 324 18
45.4827 335 18.303
45.6001 342 18.4932
45.7174 323 17.9722
45.8348 302 17.3781
45.9522 317 17.8045
46.0697 295 17.1756
46.1871 304 17.4356
46.3046 301 17.3494
46.422 326 18.0555
46.5395 299 17.2916
46.657 287 16.9411
46.7745 260 16.1245
46.892 259 16.0935
47.0096 261 16.1555
47.1271 282 16.7929
47.2446 262 16.1864
47.3622 236 15.3623
47.4797 280 16.7332
47.5973 238 15.4272
47.7149 229 15.1327
47.8324 271 16.4621
47.95 254 15.9374
48.0675 273 16.5227
48.1851 277 16.6433
48.3027 228 15.0997
48.4202 242 15.5563
48.5378 267 16.3401
48.6554 250 15.8114
48.7729 272 16.4924
48.8904 271 16.4621
49.008 249 15.7797
49.1255 259 16.0935
49.243 255 15.9687
49.3605 272 16.4924
49.478 278 16.6733
49.5955 306 17.4929
49.713 277 16.6433
49.8304 261 16.1555
49.9479 296 17.2047
50.0653 281 16.7631
50.1827 227 15.0665
50.3001 232 15.2315
50.4175 252 15.8745
50.5348 212 14.5602
50.6521 260 16.1245
50.7694 288 16.9706
50.8867 265 16.2788
51.004 305 17.4642
51.1212 330 18.1659
51.2384 261 16.1555
51.3556 306 17.4929
51.4727 315 17.7482
51.5899 322 17.9444
51.707 339 18.412
51.824 337 18.3576
51.9411 358 18.9209
52.0581 310 17.6068
52.175 393 19.8242
52.2919 336 18.3303
52.4088 378 19.4422
52.5257 363 19.0526
52.6425 362 19.0263
52.7593 374 19.3391
52.876 323 17.9722
52.9927 365 19.105
53.1094 375 19.3649
53.226 374 19.3391
53.3426 369 19.2094
53.4591 346 18.6011
53.5756 379 19.4679
53.692 364 19.0788
53.8084 358 18.9209
53.9248 307 17.5214
54.0411 348 18.6548
54.1573 318 17.8326
54.2735 0 1
54.3896 0 1
54.5057 0 1
54.6217 0 1
54.7377 0 1
54.8537 0 1
54.9695 0 1
55.0853 0 1
55.2011 0 1
55.3168 0 1
55.4324 0 1
57.824 0 1
57.9396 0 1
58.0553 0 1
58.1711 0 1
58.2869 0 1
58.4028 0 1
58.5187 0 1
58.6347 0 1
58.7508 0 1
58.8669 0 1
58.983 358 18.9209
59.0992 384 19.5959
59.2155 362 19.0263
59.3318 360 18.9737
59.4482 369 19.2094
59.5646 382 19.5448
59.681 400 20
59.7975 385 19.6214
59.9141 389 19.7231
60.0306 380 19.4936
60.1473 383 19.5704
60.2639 401 20.025
60.3807 397 19.9249
60.4974 412 20.2978
60.6142 399 19.975
60.731 391 19.7737
60.8479 353 18.7883
60.9648 407 20.1742
61.0818 381 19.5192
61.1987 370 19.2354
61.3158 380 19.4936
61.4328 346 18.6011
61.5499 368 19.1833
61.667 367 19.1572
61.7841 356 18.868
61.9013 343 18.5203
62.0185 338 18.3848
62.1357 369 19.2094
62.253 373 19.3132
62.3702 367 19.1572
62.4875 327 18.0831
62.6049 307 17.5214
62.7222 305 17.4642
62.8396 277 16.6433
62.9569 331 18.1934
63.0743 326 18.0555
63.1918 335 18.303
63.3092 313 17.6918
63.4267 321 17.9165
63.5441 330 18.1659
63.6616 337 18.3576
63.7791 366 19.1311
63.8966 319 17.8606
64.0142 357 18.8944
64.1317 350 18.7083
64.2492 337 18.3576
64.3668 323 17.9722
64.4843 333 18.2483
64.6019 352 18.7617
64.7195 336 18.3303
64.837 297 17.2337
64.9546 342 18.4932
65.0722 376 19.3907
65.1898 332 18.2209
65.3074 326 18.0555
65.4249 314 17.72
65.5425 336 18.3303
65.6601 324 18
65.7777 340 18.4391
65.8952 294 17.1464
66.0128 340 18.4391
66.1304 297 17.2337
66.2479 261 16.1555
66.3655 291 17.0587
66.483 268 16.3707
66.6005 290 17.0294
66.718 278 16.6733
66.8355 307 17.5214
66.953 304 17.4356
67.0705 312 17.6635
67.1879 285 16.8819
67.3054 308 17.5499
67.4228 293 17.1172
67.5402 290 17.0294
67.6576 307 17.5214
67.7749 284 16.8523
67.8923 314 17.72
68.0096 310 17.6068
68.1269 259 16.0935
68.2442 277 16.6433
68.3614 304 17.4356
68.4787 290 17.0294
68.5958 306 17.4929
68.713 303 17.4069
68.8302 275 16.5831
68.9473 320 17.8885
69.0643 296 17.2047
69.1814 258 16.0624
69.2984 303 17.4069
69.4154 294 17.1464
69.5323 279 16.7033
69.6492 267 16.3401
69.7661 275 16.5831
69.8829 290 17.0294
69.9997 240 15.4919
70.1165 241 15.5242
70.2332 265 16.2788
70.3499 246 15.6844
70.4665 267 16.3401
70.5831 261 16.1555
70.6996 245 15.6525
70.8161 245 15.6525
70.9326 308 17.5499
71.049 261 16.1555
71.1653 255 15.9687
71.2817 248 15.748
71.3979 264 16.2481
71.5141 218 14.7648
71.6303 238 15.4272
71.7464 215 14.6629
71.8624 0 1
71.9784 0 1
72.0944 0 1
72.2102 0 1
72.3261 0 1
72.4418 0 1
72.5575 0 1
72.6732 0 1
75.1054 0 1
75.2209 0 1
75.3365 0 1
75.4521 0 1
75.5678 0 1
75.6835 0 1
75.7993 0 1
75.9151 0 1
76.031 0 1
76.147 168 12.9615
76.263 221 14.8661
76.3791 203 14.2478
76.4952 225 15
76.6113 238 15.4272
76.7276 218 14.7648
76.8438 197 14.0357
76.9601 240 15.4919
77.0765 210 14.4914
77.1929 225 15
77.3093 209 14.4568
77.4258 203 14.2478
77.5423 154 12.4097
77.6589 185 13.6015
77.7755 199 14.1067
77.8921 169 13
78.0088 197 14.0357
78.1256 174 13.1909
78.2423 201 14.1774
78.3591 195 13.9642
78.4759 174 13.1909
78.5928 203 14.2478
78.7097 176 13.2665
78.8266 177 13.3041
78.9436 175 13.2288
79.0606 156 12.49
79.1776 115 10.7238
79.2946 129 11.3578
79.4117 143 11.9583
79.5288 150 12.2474
79.6459 144 12
79.7631 133 11.5326
79.8802 159 12.6095
79.9974 135 11.619
80.1147 152 12.3288
80.2319 123 11.0905
80.3491 142 11.9164
80.4664 144 12
80.5837 130 11.4018
80.701 118 10.8628
80.8183 139 11.7898
80.9357 129 11.3578
81.053 103 10.1489
81.1704 113 10.6301
81.2877 110 10.4881
81.4051 105 10.247
81.5225 97 9.84886
81.6399 86 9.27362
81.7573 106 10.2956
81.8747 96 9.79796
81.9922 95 9.74679
82.1096 101 10.0499
82.227 93 9.64365
82.3444 85 9.21954
82.4619 87 9.32738
82.5793 100 10
82.6967 90 9.48683
82.8142 67 8.18535
82.9316 39 6.245
83.049 83 9.11043
83.1664 74 8.60233
83.2838 60 7.74597
83.4012 58 7.61577
83.5186 62 7.87401
83.636 50 7.07107
83.7534 51 7.14143
83.8708 56 7.48331
83.9881 49 7
84.1055 43 6.55744
84.2228 46 6.78233
84.3401 46 6.78233
84.4575 47 6.85565
84.5747 47 6.85565
84.692 49 7
84.8093 42 6.48074
84.9265 44 6.63325
85.0437 46 6.78233
85.1609 34 5.83095
85.2781 30 5.47723
85.3952 33 5.74456
85.5123 40 6.32456
85.6294 35 5.91608
85.7465 44 6.63325
85.8636 49 7
85.9806 27 5.19615
86.0976 33 5.74456
86.2145 27 5.19615
86.3315 41 6.40312
86.4484 42 6.48074
86.5652 50 7.07107
86.682 52 7.2111
86.7988 46 6.78233
86.9156 34 5.83095
87.0323 42 6.48074
87.149 49 7
87.2657 55 7.4162
87.3823 59 7.68115
87.4988 62 7.87401
87.6154 54 7.34847
87.7318 62 7.87401
87.8483 77 8.77496
87.9647 71 8.42615
88.081 87 9.32738
88.1973 64 8
88.3136 62 7.87401
88.4298 87 9.32738
88.546 83 9.11043
88.6621 81 9
88.7781 114 10.6771
88.8942 0 1
89.0101 0 1
89.126 0 1
89.2419 0 1
89.3577 0 1
89.4734 0 1
89.5891 0 1
89.7047 0 1
89.8203 0 1
89.9358 0 1
92.3269 0 1
92.4424 0 1
92.558 0 1
92.6736 0 1
92.7893 0 1
92.905 0 1
93.0208 0 1
93.1366 0 1
93.2525 0 1
93.3685 0 1
93.4845 0 1
93.6005 139 11.7898
93.7167 158 12.5698
93.8328 155 12.4499
93.949 137 11.7047
94.0653 128 11.3137
94.1816 150 12.2474
94.2979 114 10.6771
94.4143 123 11.0905
94.5307 116 10.7703
94.6472 133 11.5326
94.7637 116 10.7703
94.8803 138 11.7473
94.9969 123 11.0905
95.1135 114 10.6771
95.2302 126 11.225
95.3469 98 9.89949
95.4637 91 9.53939
95.5805 62 7.87401
95.6973 105 10.247
95.8142 126 11.225
95.9311 146 12.083
96.048 141 11.8743
96.1649 132 11.4891
96.2819 140 11.8322
96.3989 116 10.7703
96.516 155 12.4499
96.633 130 11.4018
96.7501 145 12.0416
96.8673 131 11.4455
96.9844 160 12.6491
97.1016 171 13.0767
97.2188 149 12.2066
97.336 177 13.3041
97.4532 191 13.8203
97.5704 194 13.9284
97.6877 211 14.5258
97.805 221 14.8661
97.9223 175 13.2288
98.0396 194 13.9284
98.1569 200 14.1421
98.2743 175 13.2288
98.3916 186 13.6382
98.509 228 15.0997
98.6264 226 15.0333
98.7438 216 14.6969
98.8612 200 14.1421
98.9786 201 14.1774
99.096 141 11.8743
99.2134 139 11.7898
99.3308 223 14.9332
99.4482 226 15.0333
99.5656 260 16.1245
99.6831 237 15.3948
99.8005 267 16.3401
99.9179 263 16.2173
100.035 238 15.4272
100.153 267 16.3401
100.27 261 16.1555
100.388 274 16.5529
100.505 245 15.6525
100.622 267 16.3401
100.74 291 17.0587
100.857 264 16.2481
100.975 329 18.1384
101.092 321 17.9165
101.209 306 17.4929
101.327 297 17.2337
101.444 286 16.9115
101.561 293 17.1172
101.679 294 17.1464
101.796 279 16.7033
101.913 332 18.2209
102.03 283 16.8226
102.148 299 17.2916
102.265 306 17.4929
102.382 300 17.3205
102.499 286 16.9115
102.616 222 14.8997
102.733 220 14.8324
102.851 233 15.2643
102.968 287 16.9411
103.085 318 17.8326
103.202 319 17.8606
103.319 270 16.4317
103.436 296 17.2047
103.552 294 17.1464
103.669 323 17.9722
103.786 289 17
103.903 294 17.1464
104.02 315 17.7482
104.137 314 17.72
104.253 308 17.5499
104.37 326 18.0555
104.487 300 17.3205
104.603 341 18.4662
104.72 318 17.8326
104.836 324 18
104.953 328 18.1108
105.069 312 17.6635
105.186 296 17.2047
105.302 338 18.3848
105.418 301 17.3494
105.535 305 17.4642
105.651 313 17.6918
105.767 325 18.0278
105.883 267 16.3401
105.999 251 15.843
106.115 0 1
106.231 0 1
106.347 0 1
106.463 0 1
106.579 0 1
106.694 0 1
106.81 0 1
106.926 0 1
107.041 0 1
107.157 0 1
109.576 0 1
109.692 0 1
109.807 0 1
109.923 0 1
110.039 0 1
110.155 0 1
110.27 0 1
110.386 0 1
110.502 0 1
110.618 253 15.906
110.735 228 15.0997
110.851 250 15.8114
110.967 257 16.0312
111.083 221 14.8661
111.199 223 14.9332
111.316 205 14.3178
111.432 240 15.4919
111.549 238 15.4272
111.665 226 15.0333
111.782 222 14.8997
111.898 238 15.4272
112.015 245 15.6525
112.132 217 14.7309
112.248 213 14.5945
112.365 226 15.0333
112.482 225 15
112.599 205 14.3178
112.716 203 14.2478
112.832 203 14.2478
112.949 226 15.0333
113.066 213 14.5945
113.183 215 14.6629
113.3 193 13.8924
113.417 203 14.2478
113.534 196 14
113.652 189 13.7477
113.769 195 13.9642
113.886 176 13.2665
114.003 171 13.0767
114.12 200 14.1421
114.238 188 13.7113
114.355 190 13.784
114.472 162 12.7279
114.589 165 12.8452
114.707 180 13.4164
114.824 169 13
114.942 130 11.4018
115.059 165 12.8452
115.176 178 13.3417
115.294 184 13.5647
115.411 163 12.7671
115.529 193 13.8924
115.646 180 13.4164
115.764 170 13.0384
115.881 209 14.4568
115.999 182 13.4907
116.116 195 13.9642
116.234 150 12.2474
116.351 181 13.4536
116.469 175 13.2288
116.586 184 13.5647
116.704 190 13.784
116.821 183 13.5277
116.939 164 12.8062
117.056 176 13.2665
117.174 186 13.6382
117.291 158 12.5698
117.409 192 13.8564
117.526 208 14.4222
117.644 175 13.2288
117.761 176 13.2665
117.879 161 12.6886
117.996 147 12.1244
118.114 112 10.583
118.231 167 12.9228
118.349 183 13.5277
118.466 186 13.6382
118.584 175 13.2288
118.701 167 12.9228
118.819 166 12.8841
118.936 189 13.7477
119.053 174 13.1909
119.171 195 13.9642
119.288 178 13.3417
119.405 158 12.5698
119.523 168 12.9615
119.64 174 13.1909
119.757 200 14.1421
119.875 176 13.2665
119.992 186 13.6382
120.109 182 13.4907
120.226 176 13.2665
120.343 171 13.0767
120.46 183 13.5277
120.578 184 13.5647
120.695 186 13.6382
120.812 190 13.784
120.929 191 13.8203
121.046 195 13.9642
121.163 168 12.9615
121.279 194 13.9284
121.396 171 13.0767
121.513 169 13
121.63 158 12.5698
121.747 109 10.4403
121.863 146 12.083
121.98 166 12.8841
122.097 191 13.8203
122.213 165 12.8452
122.33 171 13.0767
122.446 202 14.2127
122.563 192 13.8564
122.679 191 13.8203
122.795 201 14.1774
122.912 205 14.3178
123.028 218 14.7648
123.144 229 15.1327
123.26 202 14.2127
123.377 0 1
123.493 0 1
123.609 0 1
123.725 0 1
123.84 0 1
123.956 0 1
124.072 0 1
124.188 0 1
124.303 0 1
124.419 0 1
126.852 0 1
126.968 0 1
127.083 0 1
127.199 0 1
127.315 0 1
127.431 0 1
127.547 0 1
127.663 0 1
127.779 0 1
127.895 0 1
128.011 0 1
128.127 0 1
128.243 0 1
128.359 249 15.7797
128.476 262 16.1864
128.592 254 15.9374
128.708 249 15.7797
128.825 278 16.6733
128.941 272 16.4924
129.058 268 16.3707
129.174 247 15.7162
129.291 246 15.6844
129.408 252 15.8745
129.524 281 16.7631
129.641 229 15.1327
129.758 247 15.7162
129.875 280 16.7332
129.992 260 16.1245
130.108 248 15.748
130.225 257 16.0312
130.342 242 15.5563
130.459 222 14.8997
130.576 212 14.5602
130.693 179 13.3791
130.81 181 13.4536
130.928 184 13.5647
131.045 222 14.8997
131.162 284 16.8523
131.279 258 16.0624
131.396 273 16.5227
131.513 276 16.6132
131.631 293 17.1172
131.748 325 18.0278
131.865 320 17.8885
131.983 292 17.088
132.1 273 16.5227
132.217 256 16
132.335 290 17.0294
132.452 299 17.2916
132.57 249 15.7797
132.687 277 16.6433
132.804 250 15.8114
132.922 285 16.8819
133.039 265 16.2788
133.157 295 17.1756
133.274 302 17.3781
133.392 274 16.5529
133.509 307 17.5214
133.627 262 16.1864
133.744 274 16.5529
133.862 237 15.3948
133.979 236 15.3623
134.097 247 15.7162
134.214 214 14.6287
134.332 190 13.784
134.449 211 14.5258
134.567 221 14.8661
134.684 255 15.9687
134.802 325 18.0278
134.919 311 17.6352
135.037 278 16.6733
135.154 295 17.1756
135.272 299 17.2916
135.389 307 17.5214
135.507 335 18.303
135.624 288 16.9706
135.742 305 17.4642
135.859 298 17.2627
135.977 298 17.2627
136.094 322 17.9444
136.211 307 17.5214
136.329 351 18.735
136.446 298 17.2627
136.564 334 18.2757
136.681 323 17.9722
136.798 304 17.4356
136.915 298 17.2627
137.033 332 18.2209
137.15 311 17.6352
137.267 311 17.6352
137.384 296 17.2047
137.502 308 17.5499
137.619 292 17.088
137.736 254 15.9374
137.853 238 15.4272
137.97 241 15.5242
138.087 257 16.0312
138.204 298 17.2627
138.321 272 16.4924
138.438 271 16.4621
138.555 319 17.8606
138.672 332 18.2209
138.788 332 18.2209
138.905 353 18.7883
139.022 309 17.5784
139.139 342 18.4932
139.255 332 18.2209
139.372 342 18.4932
139.488 352 18.7617
139.605 369 19.2094
139.721 338 18.3848
139.838 348 18.6548
139.954 359 18.9473
140.071 344 18.5472
140.187 330 18.1659
140.303 364 19.0788
140.419 346 18.6011
140.535 327 18.0831
140.652 330 18.1659
140.768 0 1
140.884 0 1
141 0 1
141.115 0 1
141.231 0 1
141.347 0 1
141.463 0 1
141.578 0 1
141.694 0 1
144.104 0 1
144.219 0 1
144.335 0 1
144.45 0 1
144.566 0 1
144.682 0 1
144.798 0 1
144.914 0 1
145.03 0 1
145.146 322 17.9444
145.262 332 18.2209
145.378 338 18.3848
145.494 330 18.1659
145.61 321 17.9165
145.726 359 18.9473
145.842 331 18.1934
145.959 310 17.6068
146.075 311 17.6352
146.192 304 17.4356
146.308 230 15.1658
146.425 259 16.0935
146.541 261 16.1555
146.658 268 16.3707
146.774 273 16.5227
146.891 254 15.9374
147.008 292 17.088
147.125 329 18.1384
147.241 334 18.2757
147.358 343 18.5203
147.475 348 18.6548
147.592 351 18.735
147.709 316 17.7764
147.826 325 18.0278
147.943 372 19.2873
148.06 290 17.0294
148.177 332 18.2209
148.294 328 18.1108
148.411 324 18
148.528 337 18.3576
148.645 324 18
148.762 304 17.4356
148.88 319 17.8606
148.997 286 16.9115
149.114 348 18.6548
149.231 323 17.9722
149.349 338 18.3848
149.466 319 17.8606
149.583 312 17.6635
149.701 279 16.7033
149.818 302 17.3781
149.935 254 15.9374
150.053 268 16.3707
150.17 237 15.3948
150.287 274 16.5529
150.405 282 16.7929
150.522 245 15.6525
150.64 305 17.4642
150.757 321 17.9165
150.875 303 17.4069
150.992 292 17.088
151.11 329 18.1384
151.227 328 18.1108
151.344 315 17.7482
151.462 330 18.1659
151.579 327 18.0831
151.697 341 18.4662
151.814 346 18.6011
151.932 326 18.0555
152.049 333 18.2483
152.167 338 18.3848
152.284 326 18.0555
152.402 319 17.8606
152.519 348 18.6548
152.636 348 18.6548
152.754 349 18.6815
152.871 329 18.1384
152.989 344 18.5472
153.106 338 18.3848
153.223 292 17.088
153.341 324 18
153.458 306 17.4929
153.575 294 17.1464
153.693 274 16.5529
153.81 303 17.4069
153.927 305 17.4642
154.044 302 17.3781
154.162 306 17.4929
154.279 298 17.2627
154.396 290 17.0294
154.513 324 18
154.63 361 19
154.747 343 18.5203
154.864 341 18.4662
154.981 357 18.8944
155.098 347 18.6279
155.215 354 18.8149
155.332 371 19.2614
155.449 333 18.2483
155.566 332 18.2209
155.683 373 19.3132
155.8 379 19.4679
155.917 344 18.5472
156.033 363 19.0526
156.15 0 1
156.267 0 1
156.383 0 1
156.5 0 1
156.617 0 1
156.733 0 1
156.85 0 1
156.966 0 1
157.082 0 1
157.199 0 1
157.315 0 1
157.431 0 1
157.547 0 1
157.664 0 1
157.78 0 1
157.896 0 1
158.012 0 1
158.128 0 1
158.244 0 1
158.359 0 1
158.475 0 1
158.591 0 1
158.706 0 1
