
6.15755 0 1
6.2731 0 1
6.3887 0 1
6.50437 0 1
6.62009 0 1
6.73587 0 1
6.8517 0 1
6.96759 0 1
7.08353 0 1
7.19952 0 1
7.31557 0 1
7.43166 0 1
7.54781 0 1
7.664 0 1
7.78024 0 1
7.89653 0 1
8.01286 0 1
8.12924 0 1
8.24567 0 1
8.36213 0 1
8.47864 0 1
8.59519 0 1
8.71178 0 1
8.82841 0 1
8.94508 0 1
9.06179 0 1
9.17853 0 1
9.29531 0 1
9.41212 0 1
9.52897 0 1
9.64584 0 1
9.76276 0 1
9.8797 0 1
9.99667 0 1
10.1137 0 1
10.2307 0 1
10.3478 0 1
10.4648 0 1
10.5819 0 1
10.6991 0 1
10.8162 0 1
10.9334 0 1
11.0506 0 1
11.1678 0 1
11.285 0 1
11.4023 0 1
11.5196 0 1
11.6369 0 1
11.7542 0 1
11.8715 0 1
11.9888 0 1
12.1062 0 1
12.2235 0 1
12.3409 0 1
12.4582 0 1
12.5756 0 1
12.693 0 1
12.8104 0 1
12.9278 0 1
13.0452 0 1
13.1626 0 1
13.28 0 1
13.3974 0 1
13.5149 0 1
13.6323 0 1
13.7497 0 1
13.8671 0 1
13.9845 0 1
14.1019 0 1
14.2193 0 1
14.3367 0 1
14.4541 0 1
14.5714 0 1
14.6888 0 1
14.8062 0 1
14.9235 0 1
15.0408 829 28.7924
15.1581 859 29.3087
15.2755 905 30.0832
15.3927 895 29.9166
15.51 808 28.4253
15.6273 835 28.8964
15.7445 848 29.1204
15.8617 892 29.8664
15.9789 866 29.4279
16.0961 805 28.3725
16.2132 814 28.5307
16.3304 730 27.0185
16.4475 806 28.3901
16.5646 809 28.4429
16.6816 792 28.1425
16.7986 781 27.9464
16.9156 728 26.9815
17.0326 803 28.3373
17.1496 809 28.4429
17.2665 809 28.4429
17.3833 803 28.3373
17.5002 790 28.1069
17.617 845 29.0689
17.7338 815 28.5482
17.8505 863 29.3769
17.9672 819 28.6182
18.0839 792 28.1425
18.2005 794 28.178
18.3171 726 26.9444
18.4337 727 26.9629
18.5502 720 26.8328
18.6666 809 28.4429
18.7831 779 27.9106
18.8994 809 28.4429
19.0158 728 26.9815
19.1321 684 26.1534
19.2483 722 26.8701
19.3645 694 26.3439
19.4806 690 26.2679
19.5967 652 25.5343
19.7128 613 24.7588
19.8288 520 22.8035
19.9447 469 21.6564
20.0606 0 1
20.1764 0 1
20.2922 0 1
20.4079 0 1
20.5236 0 1
20.6392 0 1
20.7548 0 1
20.8702 0 1
23.3078 0 1
23.4233 0 1
23.539 0 1
23.6547 0 1
23.7704 0 1
23.8862 0 1
24.0021 0 1
24.118 0 1
24.234 0 1
24.35 0 1
24.4661 300 17.3205
24.5822 372 19.2873
24.6984 401 20.025
24.8146 536 23.1517
24.9309 529 23
25.0472 602 24.5357
25.1636 661 25.7099
25.28 662 25.7294
25.3965 737 27.1477
25.513 762 27.6043
25.6296 840 28.9828
25.7462 822 28.6705
25.8628 820 28.6356
25.9795 802 28.3196
26.0962 848 29.1204
26.213 821 28.6531
26.3298 816 28.5657
26.4466 742 27.2397
26.5635 718 26.7955
26.6804 716 26.7582
26.7973 696 26.3818
26.9143 701 26.4764
27.0313 656 25.6125
27.1483 624 24.98
27.2653 694 26.3439
27.3824 766 27.6767
27.4996 773 27.8029
27.6167 690 26.2679
27.7339 739 27.1846
27.8511 731 27.037
27.9683 721 26.8514
28.0855 814 28.5307
28.2028 762 27.6043
28.3201 759 27.55
28.4374 714 26.7208
28.5547 688 26.2298
28.6721 701 26.4764
28.7894 681 26.096
28.9068 709 26.6271
29.0242 747 27.3313
29.1416 677 26.0192
29.259 716 26.7582
29.3764 719 26.8142
29.4939 683 26.1343
29.6113 685 26.1725
29.7288 771 27.7669
29.8463 720 26.8328
29.9638 668 25.8457
30.0812 671 25.9037
30.1987 660 25.6905
30.3162 636 25.219
30.4337 678 26.0384
30.5512 609 24.6779
30.6687 648 25.4558
30.7862 725 26.9258
30.9037 716 26.7582
31.0212 769 27.7308
31.1387 735 27.1109
31.2562 734 27.0924
31.3737 737 27.1477
31.4912 757 27.5136
31.6087 715 26.7395
31.7262 708 26.6083
31.8436 642 25.3377
31.9611 691 26.2869
32.0785 614 24.779
32.1959 611 24.7184
32.3134 672 25.923
32.4308 642 25.3377
32.5482 671 25.9037
32.6655 592 24.3311
32.7829 623 24.96
32.9002 643 25.3574
33.0176 615 24.7992
33.1349 652 25.5343
33.2522 602 24.5357
33.3694 636 25.219
33.4867 656 25.6125
33.6039 627 25.04
33.7211 641 25.318
33.8383 652 25.5343
33.9554 636 25.219
34.0725 624 24.98
34.1896 610 24.6982
34.3067 559 23.6432
34.4237 626 25.02
34.5407 650 25.4951
34.6577 652 25.5343
34.7746 695 26.3629
34.8915 642 25.3377
35.0084 674 25.9615
35.1252 697 26.4008
35.242 651 25.5147
35.3587 677 26.0192
35.4755 640 25.2982
35.5921 580 24.0832
35.7088 603 24.5561
35.8254 605 24.5967
35.9419 569 23.8537
36.0584 547 23.388
36.1749 650 25.4951
36.2913 563 23.7276
36.4077 542 23.2809
36.524 554 23.5372
36.6403 566 23.7908
36.7565 515 22.6936
36.8727 492 22.1811
36.9889 506 22.4944
37.1049 433 20.8087
37.221 0 1
37.3369 0 1
37.4529 0 1
37.5687 0 1
37.6845 0 1
37.8003 0 1
37.916 0 1
38.0316 0 1
38.1472 0 1
40.5851 0 1
40.7008 0 1
40.8164 0 1
40.9322 0 1
41.048 0 1
41.1639 0 1
41.2798 0 1
41.3958 0 1
41.5118 0 1
41.6279 0 1
41.744 247 15.7162
41.8602 293 17.1172
41.9765 364 19.0788
42.0928 455 21.3307
42.2091 458 21.4009
42.3255 530 23.0217
42.4419 535 23.1301
42.5584 516 22.7156
42.675 525 22.9129
42.7915 514 22.6716
42.9081 483 21.9773
43.0248 454 21.3073
43.1415 500 22.3607
43.2582 522 22.8473
43.375 522 22.8473
43.4918 508 22.5389
43.6087 566 23.7908
43.7256 543 23.3024
43.8425 517 22.7376
43.9595 537 23.1733
44.0765 567 23.8118
44.1935 541 23.2594
44.3106 563 23.7276
44.4277 487 22.0681
44.5448 471 21.7025
44.6619 490 22.1359
44.7791 458 21.4009
44.8963 509 22.561
45.0136 521 22.8254
45.1308 561 23.6854
45.2481 538 23.1948
45.3654 567 23.8118
45.4827 597 24.4336
45.6001 533 23.0868
45.7174 593 24.3516
45.8348 594 24.3721
45.9522 615 24.7992
46.0697 561 23.6854
46.1871 580 24.0832
46.3046 544 23.3238
46.422 465 21.5639
46.5395 449 21.1896
46.657 443 21.0476
46.7745 493 22.2036
46.892 476 21.8174
47.0096 495 22.2486
47.1271 514 22.6716
47.2446 543 23.3024
47.3622 531 23.0434
47.4797 558 23.622
47.5973 505 22.4722
47.7149 506 22.4944
47.8324 486 22.0454
47.95 519 22.7816
48.0675 454 21.3073
48.1851 442 21.0238
48.3027 479 21.8861
48.4202 520 22.8035
48.5378 493 22.2036
48.6554 565 23.7697
48.7729 522 22.8473
48.8904 517 22.7376
49.008 549 23.4307
49.1255 541 23.2594
49.243 610 24.6982
49.3605 564 23.7487
49.478 535 23.1301
49.5955 540 23.2379
49.713 532 23.0651
49.8304 495 22.2486
49.9479 466 21.587
50.0653 444 21.0713
50.1827 410 20.2485
50.3001 444 21.0713
50.4175 481 21.9317
50.5348 504 22.4499
50.6521 497 22.2935
50.7694 512 22.6274
50.8867 566 23.7908
51.004 530 23.0217
51.1212 525 22.9129
51.2384 496 22.2711
51.3556 533 23.0868
51.4727 513 22.6495
51.5899 498 22.3159
51.707 582 24.1247
51.824 510 22.5832
51.9411 639 25.2784
52.0581 624 24.98
52.175 695 26.3629
52.2919 715 26.7395
52.4088 735 27.1109
52.5257 723 26.8887
52.6425 842 29.0172
52.7593 807 28.4077
52.876 857 29.2746
52.9927 861 29.3428
53.1094 848 29.1204
53.226 732 27.0555
53.3426 753 27.4408
53.4591 658 25.6515
53.5756 702 26.4953
53.692 622 24.9399
53.8084 600 24.4949
53.9248 615 24.7992
54.0411 647 25.4362
54.1573 635 25.1992
54.2735 0 1
54.3896 0 1
54.5057 0 1
54.6217 0 1
54.7377 0 1
54.8537 0 1
54.9695 0 1
55.0853 0 1
55.2011 0 1
55.3168 0 1
55.4324 0 1
57.824 0 1
57.9396 0 1
58.0553 0 1
58.1711 0 1
58.2869 0 1
58.4028 0 1
58.5187 0 1
58.6347 0 1
58.7508 0 1
58.8669 0 1
58.983 621 24.9199
59.0992 716 26.7582
59.2155 865 29.4109
59.3318 1042 32.28
59.4482 1088 32.9848
59.5646 1135 33.6898
59.681 1226 35.0143
59.7975 1242 35.242
59.9141 1251 35.3695
60.0306 1195 34.5688
60.1473 1168 34.176
60.2639 1171 34.2199
60.3807 1136 33.7046
60.4974 1169 34.1906
60.6142 1104 33.2265
60.731 1204 34.6987
60.8479 1252 35.3836
60.9648 1194 34.5543
61.0818 1126 33.5559
61.1987 1158 34.0294
61.3158 1234 35.1283
61.4328 1135 33.6898
61.5499 1113 33.3617
61.667 1125 33.541
61.7841 1085 32.9393
61.9013 1119 33.4515
62.0185 1001 31.6386
62.1357 1045 32.3265
62.253 930 30.4959
62.3702 987 31.4166
62.4875 948 30.7896
62.6049 939 30.6431
62.7222 987 31.4166
62.8396 1000 31.6228
62.9569 873 29.5466
63.0743 973 31.1929
63.1918 947 30.7734
63.3092 847 29.1033
63.4267 879 29.6479
63.5441 774 27.8209
63.6616 713 26.7021
63.7791 636 25.219
63.8966 596 24.4131
64.0142 566 23.7908
64.1317 545 23.3452
64.2492 617 24.8395
64.3668 554 23.5372
64.4843 609 24.6779
64.6019 585 24.1868
64.7195 545 23.3452
64.837 575 23.9792
64.9546 570 23.8747
65.0722 604 24.5764
65.1898 568 23.8328
65.3074 593 24.3516
65.4249 587 24.2281
65.5425 575 23.9792
65.6601 543 23.3024
65.7777 506 22.4944
65.8952 498 22.3159
66.0128 492 22.1811
66.1304 515 22.6936
66.2479 521 22.8254
66.3655 539 23.2164
66.483 555 23.5584
66.6005 552 23.4947
66.718 587 24.2281
66.8355 570 23.8747
66.953 542 23.2809
67.0705 581 24.1039
67.1879 535 23.1301
67.3054 512 22.6274
67.4228 490 22.1359
67.5402 521 22.8254
67.6576 512 22.6274
67.7749 546 23.3666
67.8923 526 22.9347
68.0096 531 23.0434
68.1269 538 23.1948
68.2442 515 22.6936
68.3614 543 23.3024
68.4787 527 22.9565
68.5958 557 23.6008
68.713 601 24.5153
68.8302 553 23.516
68.9473 572 23.9165
69.0643 511 22.6053
69.1814 533 23.0868
69.2984 489 22.1133
69.4154 458 21.4009
69.5323 468 21.6333
69.6492 452 21.2603
69.7661 497 22.2935
69.8829 550 23.4521
69.9997 524 22.891
70.1165 496 22.2711
70.2332 513 22.6495
70.3499 489 22.1133
70.4665 478 21.8632
70.5831 451 21.2368
70.6996 424 20.5913
70.8161 404 20.0998
70.9326 355 18.8414
71.049 302 17.3781
71.1653 275 16.5831
71.2817 299 17.2916
71.3979 284 16.8523
71.5141 277 16.6433
71.6303 230 15.1658
71.7464 191 13.8203
71.8624 0 1
71.9784 0 1
72.0944 0 1
72.2102 0 1
72.3261 0 1
72.4418 0 1
72.5575 0 1
72.6732 0 1
75.1054 0 1
75.2209 0 1
75.3365 0 1
75.4521 0 1
75.5678 0 1
75.6835 0 1
75.7993 0 1
75.9151 0 1
76.031 0 1
76.147 307 17.5214
76.263 352 18.7617
76.3791 339 18.412
76.4952 386 19.6469
76.6113 397 19.9249
76.7276 399 19.975
76.8438 442 21.0238
76.9601 443 21.0476
77.0765 463 21.5174
77.1929 429 20.7123
77.3093 426 20.6398
77.4258 464 21.5407
77.5423 478 21.8632
77.6589 458 21.4009
77.7755 465 21.5639
77.8921 407 20.1742
78.0088 463 21.5174
78.1256 454 21.3073
78.2423 418 20.445
78.3591 428 20.6882
78.4759 360 18.9737
78.5928 361 19
78.7097 392 19.799
78.8266 446 21.1187
78.9436 450 21.2132
79.0606 463 21.5174
79.1776 483 21.9773
79.2946 445 21.095
79.4117 474 21.7715
79.5288 438 20.9284
79.6459 468 21.6333
79.7631 476 21.8174
79.8802 412 20.2978
79.9974 397 19.9249
80.1147 415 20.3715
80.2319 477 21.8403
80.3491 449 21.1896
80.4664 459 21.4243
80.5837 496 22.2711
80.701 470 21.6795
80.8183 491 22.1585
80.9357 461 21.4709
81.053 425 20.6155
81.1704 485 22.0227
81.2877 461 21.4709
81.4051 461 21.4709
81.5225 488 22.0907
81.6399 479 21.8861
81.7573 416 20.3961
81.8747 405 20.1246
81.9922 432 20.7846
82.1096 409 20.2237
82.227 388 19.6977
82.3444 406 20.1494
82.4619 384 19.5959
82.5793 463 21.5174
82.6967 456 21.3542
82.8142 460 21.4476
82.9316 452 21.2603
83.049 502 22.4054
83.1664 469 21.6564
83.2838 435 20.8567
83.4012 403 20.0749
83.5186 417 20.4206
83.636 405 20.1246
83.7534 383 19.5704
83.8708 459 21.4243
83.9881 430 20.7364
84.1055 448 21.166
84.2228 433 20.8087
84.3401 457 21.3776
84.4575 462 21.4942
84.5747 476 21.8174
84.692 520 22.8035
84.8093 496 22.2711
84.9265 464 21.5407
85.0437 475 21.7945
85.1609 487 22.0681
85.2781 422 20.5426
85.3952 445 21.095
85.5123 435 20.8567
85.6294 406 20.1494
85.7465 408 20.199
85.8636 447 21.1424
85.9806 429 20.7123
86.0976 475 21.7945
86.2145 467 21.6102
86.3315 493 22.2036
86.4484 489 22.1133
86.5652 491 22.1585
86.682 458 21.4009
86.7988 491 22.1585
86.9156 480 21.9089
87.0323 426 20.6398
87.149 448 21.166
87.2657 449 21.1896
87.3823 463 21.5174
87.4988 424 20.5913
87.6154 428 20.6882
87.7318 425 20.6155
87.8483 373 19.3132
87.9647 374 19.3391
88.081 387 19.6723
88.1973 334 18.2757
88.3136 296 17.2047
88.4298 299 17.2916
88.546 269 16.4012
88.6621 255 15.9687
88.7781 269 16.4012
88.8942 0 1
89.0101 0 1
89.126 0 1
89.2419 0 1
89.3577 0 1
89.4734 0 1
89.5891 0 1
89.7047 0 1
89.8203 0 1
89.9358 0 1
92.3269 0 1
92.4424 0 1
92.558 0 1
92.6736 0 1
92.7893 0 1
92.905 0 1
93.0208 0 1
93.1366 0 1
93.2525 0 1
93.3685 0 1
93.4845 0 1
93.6005 320 17.8885
93.7167 378 19.4422
93.8328 413 20.3224
93.949 430 20.7364
94.0653 476 21.8174
94.1816 469 21.6564
94.2979 459 21.4243
94.4143 451 21.2368
94.5307 458 21.4009
94.6472 426 20.6398
94.7637 450 21.2132
94.8803 463 21.5174
94.9969 428 20.6882
95.1135 436 20.8806
95.2302 504 22.4499
95.3469 471 21.7025
95.4637 507 22.5167
95.5805 449 21.1896
95.6973 493 22.2036
95.8142 486 22.0454
95.9311 508 22.5389
96.048 470 21.6795
96.1649 441 21
96.2819 407 20.1742
96.3989 474 21.7715
96.516 468 21.6333
96.633 485 22.0227
96.7501 455 21.3307
96.8673 481 21.9317
96.9844 487 22.0681
97.1016 471 21.7025
97.2188 503 22.4277
97.336 424 20.5913
97.4532 492 22.1811
97.5704 486 22.0454
97.6877 488 22.0907
97.805 477 21.8403
97.9223 511 22.6053
98.0396 493 22.2036
98.1569 469 21.6564
98.2743 468 21.6333
98.3916 460 21.4476
98.509 444 21.0713
98.6264 463 21.5174
98.7438 476 21.8174
98.8612 490 22.1359
98.9786 486 22.0454
99.096 528 22.9783
99.2134 526 22.9347
99.3308 507 22.5167
99.4482 519 22.7816
99.5656 500 22.3607
99.6831 539 23.2164
99.8005 508 22.5389
99.9179 491 22.1585
100.035 526 22.9347
100.153 498 22.3159
100.27 540 23.2379
100.388 527 22.9565
100.505 506 22.4944
100.622 508 22.5389
100.74 453 21.2838
100.857 500 22.3607
100.975 471 21.7025
101.092 542 23.2809
101.209 485 22.0227
101.327 527 22.9565
101.444 560 23.6643
101.561 517 22.7376
101.679 517 22.7376
101.796 481 21.9317
101.913 477 21.8403
102.03 488 22.0907
102.148 523 22.8692
102.265 525 22.9129
102.382 506 22.4944
102.499 574 23.9583
102.616 574 23.9583
102.733 556 23.5797
102.851 544 23.3238
102.968 567 23.8118
103.085 506 22.4944
103.202 508 22.5389
103.319 512 22.6274
103.436 474 21.7715
103.552 495 22.2486
103.669 508 22.5389
103.786 517 22.7376
103.903 499 22.3383
104.02 585 24.1868
104.137 538 23.1948
104.253 541 23.2594
104.37 522 22.8473
104.487 487 22.0681
104.603 511 22.6053
104.72 504 22.4499
104.836 496 22.2711
104.953 527 22.9565
105.069 496 22.2711
105.186 414 20.347
105.302 407 20.1742
105.418 445 21.095
105.535 371 19.2614
105.651 344 18.5472
105.767 344 18.5472
105.883 294 17.1464
105.999 274 16.5529
106.115 0 1
106.231 0 1
106.347 0 1
106.463 0 1
106.579 0 1
106.694 0 1
106.81 0 1
106.926 0 1
107.041 0 1
107.157 0 1
109.576 0 1
109.692 0 1
109.807 0 1
109.923 0 1
110.039 0 1
110.155 0 1
110.27 0 1
110.386 0 1
110.502 0 1
110.618 234 15.2971
110.735 277 16.6433
110.851 390 19.7484
110.967 380 19.4936
111.083 432 20.7846
111.199 480 21.9089
111.316 488 22.0907
111.432 476 21.8174
111.549 517 22.7376
111.665 514 22.6716
111.782 499 22.3383
111.898 445 21.095
112.015 408 20.199
112.132 505 22.4722
112.248 513 22.6495
112.365 530 23.0217
112.482 541 23.2594
112.599 484 22
112.716 488 22.0907
112.832 483 21.9773
112.949 461 21.4709
113.066 486 22.0454
113.183 461 21.4709
113.3 497 22.2935
113.417 540 23.2379
113.534 473 21.7486
113.652 514 22.6716
113.769 498 22.3159
113.886 472 21.7256
114.003 429 20.7123
114.12 450 21.2132
114.238 406 20.1494
114.355 430 20.7364
114.472 458 21.4009
114.589 464 21.5407
114.707 443 21.0476
114.824 442 21.0238
114.942 474 21.7715
115.059 479 21.8861
115.176 475 21.7945
115.294 445 21.095
115.411 479 21.8861
115.529 452 21.2603
115.646 468 21.6333
115.764 461 21.4709
115.881 464 21.5407
115.999 454 21.3073
116.116 494 22.2261
116.234 465 21.5639
116.351 481 21.9317
116.469 449 21.1896
116.586 466 21.587
116.704 432 20.7846
116.821 457 21.3776
116.939 418 20.445
117.056 474 21.7715
117.174 464 21.5407
117.291 475 21.7945
117.409 442 21.0238
117.526 426 20.6398
117.644 410 20.2485
117.761 440 20.9762
117.879 434 20.8327
117.996 413 20.3224
118.114 435 20.8567
118.231 443 21.0476
118.349 452 21.2603
118.466 490 22.1359
118.584 467 21.6102
118.701 474 21.7715
118.819 434 20.8327
118.936 456 21.3542
119.053 435 20.8567
119.171 421 20.5183
119.288 445 21.095
119.405 415 20.3715
119.523 466 21.587
119.64 441 21
119.757 470 21.6795
119.875 474 21.7715
119.992 466 21.587
120.109 434 20.8327
120.226 415 20.3715
120.343 416 20.3961
120.46 440 20.9762
120.578 451 21.2368
120.695 468 21.6333
120.812 442 21.0238
120.929 445 21.095
121.046 446 21.1187
121.163 412 20.2978
121.279 403 20.0749
121.396 365 19.105
121.513 413 20.3224
121.63 380 19.4936
121.747 397 19.9249
121.863 358 18.9209
121.98 363 19.0526
122.097 360 18.9737
122.213 349 18.6815
122.33 347 18.6279
122.446 369 19.2094
122.563 328 18.1108
122.679 298 17.2627
122.795 269 16.4012
122.912 258 16.0624
123.028 256 16
123.144 232 15.2315
123.26 222 14.8997
123.377 0 1
123.493 0 1
123.609 0 1
123.725 0 1
123.84 0 1
123.956 0 1
124.072 0 1
124.188 0 1
124.303 0 1
124.419 0 1
126.852 0 1
126.968 0 1
127.083 0 1
127.199 0 1
127.315 0 1
127.431 0 1
127.547 0 1
127.663 0 1
127.779 0 1
127.895 0 1
128.011 0 1
128.127 0 1
128.243 0 1
128.359 443 21.0476
128.476 513 22.6495
128.592 502 22.4054
128.708 499 22.3383
128.825 527 22.9565
128.941 529 23
129.058 501 22.383
129.174 527 22.9565
129.291 478 21.8632
129.408 520 22.8035
129.524 476 21.8174
129.641 538 23.1948
129.758 527 22.9565
129.875 532 23.0651
129.992 512 22.6274
130.108 516 22.7156
130.225 528 22.9783
130.342 516 22.7156
130.459 507 22.5167
130.576 532 23.0651
130.693 518 22.7596
130.81 570 23.8747
130.928 547 23.388
131.045 598 24.454
131.162 601 24.5153
131.279 634 25.1794
131.396 673 25.9422
131.513 674 25.9615
131.631 701 26.4764
131.748 662 25.7294
131.865 681 26.096
131.983 644 25.3772
132.1 718 26.7955
132.217 791 28.1247
132.335 790 28.1069
132.452 829 28.7924
132.57 892 29.8664
132.687 864 29.3939
132.804 895 29.9166
132.922 965 31.0644
133.039 964 31.0483
133.157 933 30.545
133.274 841 29
133.392 937 30.6105
133.509 928 30.4631
133.627 935 30.5778
133.744 925 30.4138
133.862 909 30.1496
133.979 904 30.0666
134.097 881 29.6816
134.214 853 29.2062
134.332 853 29.2062
134.449 823 28.688
134.567 899 29.9833
134.684 904 30.0666
134.802 942 30.692
134.919 1005 31.7017
135.037 928 30.4631
135.154 911 30.1828
135.272 921 30.348
135.389 941 30.6757
135.507 840 28.9828
135.624 899 29.9833
135.742 936 30.5941
135.859 968 31.1127
135.977 1035 32.1714
136.094 991 31.4802
136.211 954 30.8869
136.329 1019 31.9218
136.446 991 31.4802
136.564 945 30.7409
136.681 988 31.4325
136.798 967 31.0966
136.915 968 31.1127
137.033 972 31.1769
137.15 954 30.8869
137.267 939 30.6431
137.384 932 30.5287
137.502 949 30.8058
137.619 913 30.2159
137.736 873 29.5466
137.853 847 29.1033
137.97 813 28.5132
138.087 859 29.3087
138.204 885 29.7489
138.321 910 30.1662
138.438 923 30.3809
138.555 978 31.273
138.672 1022 31.9687
138.788 993 31.5119
138.905 969 31.1288
139.022 903 30.05
139.139 917 30.282
139.255 875 29.5804
139.372 761 27.5862
139.488 793 28.1603
139.605 748 27.3496
139.721 723 26.8887
139.838 682 26.1151
139.954 715 26.7395
140.071 623 24.96
140.187 606 24.6171
140.303 616 24.8193
140.419 565 23.7697
140.535 543 23.3024
140.652 538 23.1948
140.768 0 1
140.884 0 1
141 0 1
141.115 0 1
141.231 0 1
141.347 0 1
141.463 0 1
141.578 0 1
141.694 0 1
144.104 0 1
144.219 0 1
144.335 0 1
144.45 0 1
144.566 0 1
144.682 0 1
144.798 0 1
144.914 0 1
145.03 0 1
145.146 1466 38.2884
145.262 1594 39.9249
145.378 1647 40.5832
145.494 1746 41.7852
145.61 1767 42.0357
145.726 1928 43.909
145.842 1908 43.6807
145.959 2067 45.4643
146.075 2146 46.3249
146.192 2222 47.1381
146.308 2342 48.3942
146.425 2314 48.1041
146.541 2413 49.1223
146.658 2230 47.2229
146.774 2171 46.594
146.891 2001 44.7325
147.008 2011 44.8442
147.125 2427 49.2646
147.241 2747 52.4118
147.358 2977 54.5619
147.475 3084 55.5338
147.592 3209 56.648
147.709 3071 55.4166
147.826 3125 55.9017
147.943 3151 56.1338
148.06 2990 54.6809
148.177 3011 54.8726
148.294 3029 55.0364
148.411 3072 55.4256
148.528 3180 56.3915
148.645 3117 55.8301
148.762 3138 56.0179
148.88 3080 55.4977
148.997 3155 56.1694
149.114 3118 55.8391
149.231 3035 55.0908
149.349 3162 56.2317
149.466 3106 55.7315
149.583 3230 56.8331
149.701 3014 54.8999
149.818 3019 54.9454
149.935 3042 55.1543
150.053 3137 56.0089
150.17 3014 54.8999
150.287 2998 54.754
150.405 2700 51.9615
150.522 2312 48.0833
150.64 2290 47.8539
150.757 2628 51.264
150.875 3122 55.8749
150.992 3339 57.7841
151.11 3499 59.1523
151.227 3475 58.9491
151.344 3813 61.7495
151.462 3785 61.5224
151.579 3769 61.3922
151.697 3870 62.2093
151.814 3951 62.857
151.932 3955 62.8888
152.049 4048 63.6239
152.167 4099 64.0234
152.284 3945 62.8092
152.402 4105 64.0703
152.519 4114 64.1405
152.636 4231 65.0461
152.754 4148 64.405
152.871 4107 64.0859
152.989 4149 64.4127
153.106 4071 63.8044
153.223 4043 63.5846
153.341 4087 63.9296
153.458 4019 63.3956
153.575 3835 61.9274
153.693 3827 61.8628
153.81 3555 59.6238
153.927 3267 57.1577
154.044 2541 50.4083
154.162 2015 44.8888
154.279 2434 49.3356
154.396 2966 54.461
154.513 3070 55.4076
154.63 3061 55.3263
154.747 2873 53.6004
154.864 2785 52.7731
154.981 2660 51.5752
155.098 2532 50.319
155.215 2409 49.0816
155.332 2286 47.8121
155.449 2116 46
155.566 2153 46.4004
155.683 2082 45.6289
155.8 2089 45.7056
155.917 1973 44.4185
156.033 1860 43.1277
156.15 0 1
156.267 0 1
156.383 0 1
156.5 0 1
156.617 0 1
156.733 0 1
156.85 0 1
156.966 0 1
157.082 0 1
157.199 0 1
157.315 0 1
157.431 0 1
157.547 0 1
157.664 0 1
157.78 0 1
157.896 0 1
158.012 0 1
158.128 0 1
158.244 0 1
158.359 0 1
158.475 0 1
158.591 0 1
158.706 0 1
