
6.15755 0 1
6.2731 0 1
6.3887 0 1
6.50437 0 1
6.62009 0 1
6.73587 0 1
6.8517 0 1
6.96759 0 1
7.08353 0 1
7.19952 0 1
7.31557 0 1
7.43166 0 1
7.54781 0 1
7.664 0 1
7.78024 0 1
7.89653 0 1
8.01286 0 1
8.12924 0 1
8.24567 0 1
8.36213 0 1
8.47864 0 1
8.59519 0 1
8.71178 0 1
8.82841 0 1
8.94508 0 1
9.06179 0 1
9.17853 0 1
9.29531 0 1
9.41212 0 1
9.52897 0 1
9.64584 0 1
9.76276 0 1
9.8797 0 1
9.99667 0 1
10.1137 0 1
10.2307 0 1
10.3478 0 1
10.4648 0 1
10.5819 0 1
10.6991 0 1
10.8162 0 1
10.9334 0 1
11.0506 0 1
11.1678 0 1
11.285 0 1
11.4023 0 1
11.5196 0 1
11.6369 0 1
11.7542 0 1
11.8715 0 1
11.9888 0 1
12.1062 0 1
12.2235 0 1
12.3409 0 1
12.4582 0 1
12.5756 0 1
12.693 0 1
12.8104 0 1
12.9278 0 1
13.0452 0 1
13.1626 0 1
13.28 0 1
13.3974 0 1
13.5149 0 1
13.6323 0 1
13.7497 0 1
13.8671 0 1
13.9845 0 1
14.1019 0 1
14.2193 0 1
14.3367 0 1
14.4541 0 1
14.5714 0 1
14.6888 0 1
14.8062 0 1
14.9235 0 1
15.0408 8574 92.5959
15.1581 8895 94.3133
15.2755 9210 95.9687
15.3927 9411 97.0103
15.51 9122 95.5092
15.6273 9044 95.0999
15.7445 9415 97.0309
15.8617 8963 94.6731
15.9789 8973 94.7259
16.0961 8864 94.1488
16.2132 8810 93.8616
16.3304 8725 93.4077
16.4475 8824 93.9361
16.5646 9023 94.9895
16.6816 9324 96.5609
16.7986 9360 96.7471
16.9156 9339 96.6385
17.0326 9112 95.4568
17.1496 9182 95.8228
17.2665 9139 95.5981
17.3833 8839 94.016
17.5002 8787 93.739
17.617 8777 93.6856
17.7338 8657 93.043
17.8505 8819 93.9095
17.9672 9038 95.0684
18.0839 9499 97.4628
18.2005 9707 98.5241
18.3171 9898 99.4887
18.4337 10025 100.125
18.5502 10080 100.399
18.6666 10380 101.882
18.7831 10429 102.122
18.8994 10159 100.792
19.0158 10162 100.807
19.1321 9825 99.1211
19.2483 9397 96.9381
19.3645 9078 95.2785
19.4806 8728 93.4238
19.5967 8484 92.1086
19.7128 8248 90.8185
19.8288 8136 90.1998
19.9447 7615 87.264
20.0606 0 1
20.1764 0 1
20.2922 0 1
20.4079 0 1
20.5236 0 1
20.6392 0 1
20.7548 0 1
20.8702 0 1
23.3078 0 1
23.4233 0 1
23.539 0 1
23.6547 0 1
23.7704 0 1
23.8862 0 1
24.0021 0 1
24.118 0 1
24.234 0 1
24.35 0 1
24.4661 8555 92.4932
24.5822 8593 92.6984
24.6984 8412 91.717
24.8146 8240 90.7744
24.9309 8485 92.1141
25.0472 8559 92.5149
25.1636 8759 93.5895
25.28 9187 95.8488
25.3965 9192 95.8749
25.513 9543 97.6883
25.6296 9872 99.3579
25.7462 9737 98.6762
25.8628 9791 98.9495
25.9795 9798 98.9848
26.0962 9452 97.2214
26.213 9067 95.2208
26.3298 8966 94.689
26.4466 8689 93.2148
26.5635 8880 94.2338
26.6804 9032 95.0368
26.7973 9192 95.8749
26.9143 9296 96.4158
27.0313 9374 96.8194
27.1483 9728 98.6306
27.2653 9635 98.158
27.3824 10095 100.474
27.4996 9945 99.7246
27.6167 9642 98.1937
27.7339 9531 97.6268
27.8511 9251 96.1821
27.9683 9100 95.3939
28.0855 8858 94.1169
28.2028 8905 94.3663
28.3201 8391 91.6024
28.4374 8301 91.1098
28.5547 8200 90.5539
28.6721 8401 91.657
28.7894 8729 93.4291
28.9068 9041 95.0842
29.0242 9125 95.5249
29.1416 9239 96.1197
29.259 9095 95.3677
29.3764 9318 96.5298
29.4939 8843 94.0372
29.6113 8883 94.2497
29.7288 8508 92.2388
29.8463 8457 91.9619
29.9638 8136 90.1998
30.0812 8132 90.1776
30.1987 8371 91.4932
30.3162 8683 93.1826
30.4337 8681 93.1719
30.5512 9001 94.8736
30.6687 9147 95.6399
30.7862 9491 97.4218
30.9037 9408 96.9948
31.0212 9473 97.3293
31.1387 9565 97.8008
31.2562 9410 97.0052
31.3737 9282 96.3431
31.4912 9002 94.8789
31.6087 8737 93.4719
31.7262 8645 92.9785
31.8436 8520 92.3038
31.9611 8273 90.956
32.0785 8155 90.305
32.1959 8267 90.923
32.3134 8305 91.1318
32.4308 8510 92.2497
32.5482 8970 94.7101
32.6655 8905 94.3663
32.7829 8891 94.2921
32.9002 8858 94.1169
33.0176 8941 94.5569
33.1349 8824 93.9361
33.2522 8777 93.6856
33.3694 8275 90.967
33.4867 8321 91.2195
33.6039 8004 89.4651
33.7211 7899 88.8763
33.8383 7942 89.1179
33.9554 8267 90.923
34.0725 8374 91.5096
34.1896 8635 92.9247
34.3067 8816 93.8936
34.4237 8796 93.787
34.5407 9062 95.1945
34.6577 8946 94.5833
34.7746 9022 94.9842
34.8915 8999 94.8631
35.0084 9129 95.5458
35.1252 8783 93.7177
35.242 8680 93.1665
35.3587 8526 92.3363
35.4755 8242 90.7855
35.5921 8187 90.482
35.7088 7688 87.6812
35.8254 7603 87.1952
35.9419 7887 88.8088
36.0584 7952 89.174
36.1749 8166 90.3659
36.2913 8467 92.0163
36.4077 8345 91.351
36.524 8494 92.1629
36.6403 8521 92.3093
36.7565 8507 92.2334
36.8727 8385 91.5696
36.9889 8158 90.3216
37.1049 7931 89.0562
37.221 0 1
37.3369 0 1
37.4529 0 1
37.5687 0 1
37.6845 0 1
37.8003 0 1
37.916 0 1
38.0316 0 1
38.1472 0 1
40.5851 0 1
40.7008 0 1
40.8164 0 1
40.9322 0 1
41.048 0 1
41.1639 0 1
41.2798 0 1
41.3958 0 1
41.5118 0 1
41.6279 0 1
41.744 7030 83.8451
41.8602 7235 85.0588
41.9765 7219 84.9647
42.0928 7422 86.151
42.2091 7119 84.3742
42.3255 7127 84.4216
42.4419 6790 82.4015
42.5584 6672 81.6823
42.675 6304 79.3977
42.7915 6462 80.3866
42.9081 6765 82.2496
43.0248 6876 82.9216
43.1415 7078 84.1309
43.2582 7221 84.9765
43.375 7150 84.5577
43.4918 7303 85.4576
43.6087 7215 84.9412
43.7256 7005 83.6959
43.8425 7074 84.1071
43.9595 6935 83.2766
44.0765 6869 82.8794
44.1935 6734 82.061
44.3106 6554 80.9568
44.4277 6142 78.3709
44.5448 5815 76.2561
44.6619 5597 74.8131
44.7791 5589 74.7596
44.8963 5473 73.9797
45.0136 5462 73.9053
45.1308 5835 76.3872
45.2481 5932 77.0195
45.3654 5847 76.4657
45.4827 5711 75.5712
45.6001 5708 75.5513
45.7174 5960 77.201
45.8348 5741 75.7694
45.9522 5577 74.6793
46.0697 5349 73.1369
46.1871 5148 71.7496
46.3046 5001 70.7177
46.422 5055 71.0985
46.5395 5296 72.7736
46.657 5417 73.6003
46.7745 5452 73.8377
46.892 5494 74.1215
47.0096 5450 73.8241
47.1271 5563 74.5855
47.2446 5563 74.5855
47.3622 5496 74.135
47.4797 5520 74.2967
47.5973 5332 73.0205
47.7149 5186 72.0139
47.8324 5135 71.6589
47.95 4885 69.8928
48.0675 4781 69.1448
48.1851 4656 68.2349
48.3027 4518 67.2161
48.4202 4431 66.5658
48.5378 4509 67.1491
48.6554 4673 68.3593
48.7729 4782 69.152
48.8904 4886 69.8999
49.008 5039 70.9859
49.1255 5047 71.0422
49.243 5153 71.7844
49.3605 5159 71.8262
49.478 4885 69.8928
49.5955 4743 68.8694
49.713 4601 67.8307
49.8304 4618 67.9559
49.9479 4641 68.1249
50.0653 4864 69.7424
50.1827 5114 71.5122
50.3001 5427 73.6682
50.4175 5549 74.4916
50.5348 5571 74.6391
50.6521 5752 75.8419
50.7694 5843 76.4395
50.8867 5882 76.6942
51.004 6177 78.5939
51.1212 6134 78.3199
51.2384 5960 77.201
51.3556 6135 78.3262
51.4727 6156 78.4602
51.5899 6110 78.1665
51.707 5832 76.3675
51.824 5886 76.7203
51.9411 6014 77.55
52.0581 6063 77.8653
52.175 6415 80.0937
52.2919 6699 81.8474
52.4088 7081 84.1487
52.5257 7123 84.3979
52.6425 7278 85.3112
52.7593 7282 85.3346
52.876 7566 86.9828
52.9927 7550 86.8907
53.1094 7384 85.9302
53.226 7199 84.8469
53.3426 7027 83.8272
53.4591 6763 82.2375
53.5756 6834 82.668
53.692 7498 86.591
53.8084 7596 87.155
53.9248 7917 88.9775
54.0411 8134 90.1887
54.1573 8374 91.5096
54.2735 0 1
54.3896 0 1
54.5057 0 1
54.6217 0 1
54.7377 0 1
54.8537 0 1
54.9695 0 1
55.0853 0 1
55.2011 0 1
55.3168 0 1
55.4324 0 1
57.824 0 1
57.9396 0 1
58.0553 0 1
58.1711 0 1
58.2869 0 1
58.4028 0 1
58.5187 0 1
58.6347 0 1
58.7508 0 1
58.8669 0 1
58.983 9081 95.2943
59.0992 9976 99.8799
59.2155 10021 100.105
59.3318 10308 101.528
59.4482 10654 103.218
59.5646 10626 103.082
59.681 10619 103.049
59.7975 10662 103.257
59.9141 10440 102.176
60.0306 10303 101.504
60.1473 10094 100.469
60.2639 9984 99.92
60.3807 9671 98.3412
60.4974 9378 96.8401
60.6142 8823 93.9308
60.731 8661 93.0645
60.8479 8895 94.3133
60.9648 9273 96.2964
61.0818 9562 97.7855
61.1987 9784 98.9141
61.3158 9851 99.2522
61.4328 10043 100.215
61.5499 10081 100.404
61.667 9960 99.7998
61.7841 9627 98.1173
61.9013 9313 96.5039
62.0185 8858 94.1169
62.1357 8522 92.3147
62.253 8586 92.6607
62.3702 8810 93.8616
62.4875 9017 94.9579
62.6049 9327 96.5764
62.7222 9369 96.7936
62.8396 9879 99.3932
62.9569 9853 99.2623
63.0743 9770 98.8433
63.1918 9652 98.2446
63.3092 9664 98.3056
63.4267 9661 98.2904
63.5441 9456 97.242
63.6616 9342 96.654
63.7791 9058 95.1735
63.8966 8811 93.8669
64.0142 8280 90.9945
64.1317 7989 89.3812
64.2492 8030 89.6103
64.3668 7878 88.7581
64.4843 8248 90.8185
64.6019 8424 91.7824
64.7195 8747 93.5254
64.837 9073 95.2523
64.9546 9149 95.6504
65.0722 9236 96.1041
65.1898 9376 96.8297
65.3074 9452 97.2214
65.4249 9020 94.9737
65.5425 8474 92.0543
65.6601 8293 91.0659
65.7777 7822 88.4421
65.8952 8106 90.0333
66.0128 8460 91.9783
66.1304 8635 92.9247
66.2479 8993 94.8314
66.3655 8924 94.4669
66.483 9210 95.9687
66.6005 9369 96.7936
66.718 9539 97.6678
66.8355 9685 98.4124
66.953 9472 97.3242
67.0705 9544 97.6934
67.1879 9537 97.6576
67.3054 9265 96.2549
67.4228 9114 95.4673
67.5402 9022 94.9842
67.6576 8776 93.6803
67.7749 8195 90.5262
67.8923 8194 90.5207
68.0096 8269 90.934
68.1269 8507 92.2334
68.2442 8804 93.8296
68.3614 9129 95.5458
68.4787 9197 95.901
68.5958 9613 98.0459
68.713 9911 99.554
68.8302 10093 100.464
68.9473 10050 100.25
69.0643 9909 99.544
69.1814 9396 96.933
69.2984 8910 94.3928
69.4154 8537 92.3959
69.5323 8275 90.967
69.6492 8818 93.9042
69.7661 9420 97.0567
69.8829 9421 97.0618
69.9997 9581 97.8826
70.1165 9969 99.8449
70.2332 10265 101.316
70.3499 10302 101.499
70.4665 10245 101.218
70.5831 10278 101.38
70.6996 10219 101.089
70.8161 10223 101.109
70.9326 10179 100.891
71.049 10058 100.29
71.1653 9890 99.4485
71.2817 9629 98.1275
71.3979 8624 92.8655
71.5141 8241 90.78
71.6303 8036 89.6437
71.7464 7700 87.7496
71.8624 0 1
71.9784 0 1
72.0944 0 1
72.2102 0 1
72.3261 0 1
72.4418 0 1
72.5575 0 1
72.6732 0 1
75.1054 0 1
75.2209 0 1
75.3365 0 1
75.4521 0 1
75.5678 0 1
75.6835 0 1
75.7993 0 1
75.9151 0 1
76.031 0 1
76.147 9174 95.781
76.263 9908 99.5389
76.3791 9961 99.8048
76.4952 9660 98.2853
76.6113 9402 96.9639
76.7276 8820 93.9149
76.8438 8731 93.4398
76.9601 8633 92.9139
77.0765 8855 94.101
77.1929 9170 95.7601
77.3093 9531 97.6268
77.4258 9806 99.0252
77.5423 9945 99.7246
77.6589 10313 101.553
77.7755 10402 101.99
77.8921 10466 102.303
78.0088 10037 100.185
78.1256 9548 97.7139
78.2423 9056 95.163
78.3591 8485 92.1141
78.4759 8071 89.8387
78.5928 8394 91.6188
78.7097 9105 95.4201
78.8266 9241 96.1301
78.9436 9973 99.8649
79.0606 10031 100.155
79.1776 9972 99.8599
79.2946 10138 100.688
79.4117 10226 101.124
79.5288 10298 101.479
79.6459 10430 102.127
79.7631 10332 101.646
79.8802 9962 99.8098
79.9974 10232 101.153
80.1147 10080 100.399
80.2319 9376 96.8297
80.3491 9107 95.4306
80.4664 8719 93.3756
80.5837 8503 92.2117
80.701 8822 93.9255
80.8183 9136 95.5824
80.9357 9627 98.1173
81.053 9720 98.5901
81.1704 9896 99.4786
81.2877 10072 100.359
81.4051 10477 102.357
81.5225 10676 103.325
81.6399 10202 101.005
81.7573 9963 99.8148
81.8747 9147 95.6399
81.9922 8543 92.4284
82.1096 8141 90.2275
82.227 8317 91.1976
82.3444 8926 94.4775
82.4619 9555 97.7497
82.5793 9893 99.4636
82.6967 9958 99.7898
82.8142 10424 102.098
82.9316 10028 100.14
83.049 10455 102.25
83.1664 10526 102.596
83.2838 10410 102.029
83.4012 10301 101.494
83.5186 10349 101.73
83.636 10373 101.848
83.7534 10207 101.03
83.8708 9515 97.5449
83.9881 9114 95.4673
84.1055 8718 93.3702
84.2228 8905 94.3663
84.3401 8898 94.3292
84.4575 9024 94.9947
84.5747 9569 97.8213
84.692 10041 100.205
84.8093 10422 102.088
84.9265 10588 102.898
85.0437 10884 104.326
85.1609 10990 104.833
85.2781 10387 101.917
85.3952 9686 98.4175
85.5123 9269 96.2756
85.6294 8818 93.9042
85.7465 8445 91.8967
85.8636 8919 94.4405
85.9806 9747 98.7269
86.0976 10054 100.27
86.2145 10630 103.102
86.3315 10809 103.966
86.4484 10783 103.841
86.5652 10868 104.25
86.682 11107 105.39
86.7988 11123 105.466
86.9156 11020 104.976
87.0323 11033 105.038
87.149 11019 104.971
87.2657 11019 104.971
87.3823 10527 102.601
87.4988 10444 102.196
87.6154 9679 98.3819
87.7318 9518 97.5602
87.8483 9232 96.0833
87.9647 9437 97.1442
88.081 9992 99.96
88.1973 10379 101.877
88.3136 10719 103.533
88.4298 11132 105.508
88.546 11408 106.808
88.6621 11337 106.475
88.7781 11108 105.394
88.8942 0 1
89.0101 0 1
89.126 0 1
89.2419 0 1
89.3577 0 1
89.4734 0 1
89.5891 0 1
89.7047 0 1
89.8203 0 1
89.9358 0 1
92.3269 0 1
92.4424 0 1
92.558 0 1
92.6736 0 1
92.7893 0 1
92.905 0 1
93.0208 0 1
93.1366 0 1
93.2525 0 1
93.3685 0 1
93.4845 0 1
93.6005 10030 100.15
93.7167 10301 101.494
93.8328 10313 101.553
93.949 10653 103.213
94.0653 10462 102.284
94.1816 10409 102.025
94.2979 9704 98.5089
94.4143 9098 95.3834
94.5307 8739 93.4826
94.6472 8675 93.1397
94.7637 8801 93.8136
94.8803 9196 95.8958
94.9969 9484 97.3858
95.1135 9950 99.7497
95.2302 10389 101.926
95.3469 10273 101.356
95.4637 10643 103.165
95.5805 10551 102.718
95.6973 10832 104.077
95.8142 10844 104.135
95.9311 10778 103.817
96.048 10636 103.131
96.1649 10628 103.092
96.2819 10589 102.903
96.3989 10464 102.294
96.516 9840 99.1968
96.633 9592 97.9388
96.7501 8874 94.2019
96.8673 8817 93.8989
96.9844 9121 95.5039
97.1016 9255 96.2029
97.2188 9441 97.1648
97.336 9973 99.8649
97.4532 10381 101.887
97.5704 10421 102.083
97.6877 10581 102.864
97.805 10644 103.17
97.9223 10429 102.122
98.0396 9773 98.8585
98.1569 9245 96.1509
98.2743 8761 93.6002
98.3916 8450 91.9239
98.509 8663 93.0752
98.6264 9292 96.395
98.7438 9742 98.7016
98.8612 10058 100.29
98.9786 10053 100.265
99.096 10282 101.4
99.2134 10123 100.613
99.3308 10438 102.167
99.4482 10390 101.931
99.5656 10487 102.406
99.6831 10221 101.099
99.8005 10221 101.099
99.9179 10106 100.529
100.035 9932 99.6594
100.153 9320 96.5401
100.27 8996 94.8472
100.388 8899 94.3345
100.505 8676 93.145
100.622 9037 95.0631
100.74 9176 95.7914
100.857 9660 98.2853
100.975 9979 99.8949
101.092 10103 100.514
101.209 10575 102.835
101.327 10367 101.818
101.444 10270 101.341
101.561 10380 101.882
101.679 9728 98.6306
101.796 9164 95.7288
101.913 8499 92.19
102.03 8656 93.0376
102.148 9193 95.8801
102.265 8910 94.3928
102.382 10720 103.537
102.499 10390 101.931
102.616 10522 102.577
102.733 10893 104.37
102.851 10670 103.296
102.968 10985 104.809
103.085 11120 105.451
103.202 11017 104.962
103.319 10828 104.058
103.436 10847 104.149
103.552 10621 103.058
103.669 10275 101.366
103.786 10050 100.25
103.903 9489 97.4115
104.02 9459 97.2574
104.137 9498 97.4577
104.253 9893 99.4636
104.37 10345 101.71
104.487 10624 103.073
104.603 10877 104.293
104.72 11213 105.891
104.836 11161 105.646
104.953 10971 104.743
105.069 10839 104.111
105.186 10031 100.155
105.302 9530 97.6217
105.418 9076 95.268
105.535 9197 95.901
105.651 9589 97.9234
105.767 10213 101.059
105.883 10482 102.382
105.999 10691 103.397
106.115 0 1
106.231 0 1
106.347 0 1
106.463 0 1
106.579 0 1
106.694 0 1
106.81 0 1
106.926 0 1
107.041 0 1
107.157 0 1
109.576 0 1
109.692 0 1
109.807 0 1
109.923 0 1
110.039 0 1
110.155 0 1
110.27 0 1
110.386 0 1
110.502 0 1
110.618 8143 90.2386
110.735 8815 93.8882
110.851 9097 95.3782
110.967 9461 97.2677
111.083 9700 98.4886
111.199 9886 99.4284
111.316 9879 99.3932
111.432 10094 100.469
111.549 10316 101.568
111.665 9978 99.8899
111.782 9803 99.0101
111.898 9793 98.9596
112.015 9526 97.6012
112.132 9448 97.2008
112.248 9109 95.4411
112.365 8369 91.4822
112.482 8423 91.7769
112.599 8050 89.7218
112.716 8270 90.9395
112.832 8400 91.6515
112.949 8751 93.5468
113.066 9172 95.7706
113.183 8949 94.5992
113.3 9347 96.6799
113.417 9249 96.1717
113.534 9344 96.6644
113.652 9122 95.5092
113.769 8591 92.6876
113.886 7728 87.909
114.003 7364 85.8138
114.12 7471 86.4349
114.238 7513 86.6776
114.355 8034 89.6326
114.472 8383 91.5587
114.589 8222 90.6752
114.707 8402 91.6624
114.824 8784 93.723
114.942 8643 92.9677
115.059 8431 91.8205
115.176 8365 91.4604
115.294 8341 91.3291
115.411 8144 90.2441
115.529 7829 88.4816
115.646 7734 87.9432
115.764 7518 86.7064
115.881 7071 84.0892
115.999 6951 83.3727
116.116 6768 82.2679
116.234 6816 82.5591
116.351 6828 82.6317
116.469 7122 84.3919
116.586 7159 84.6109
116.704 7302 85.4517
116.821 7375 85.8778
116.939 7440 86.2554
117.056 7605 87.2067
117.174 7358 85.7788
117.291 7029 83.8391
117.409 6693 81.8108
117.526 6459 80.3679
117.644 6030 77.6531
117.761 6187 78.6575
117.879 6564 81.0185
117.996 6669 81.6639
118.114 6952 83.3787
118.231 7173 84.6936
118.349 7290 85.3815
118.466 7270 85.2643
118.584 7791 88.2666
118.701 7414 86.1046
118.819 7480 86.487
118.936 7424 86.1626
119.053 7357 85.773
119.171 7337 85.6563
119.288 7164 84.6404
119.405 7113 84.3386
119.523 6845 82.7345
119.64 6756 82.1949
119.757 6621 81.3695
119.875 6505 80.6536
119.992 6771 82.2861
120.109 7114 84.3445
120.226 7343 85.6913
120.343 7522 86.7295
120.46 7859 88.651
120.578 7856 88.6341
120.695 8016 89.5321
120.812 8154 90.2995
120.929 7951 89.1684
121.046 7576 87.0402
121.163 7079 84.1368
121.279 6960 83.4266
121.396 6940 83.3067
121.513 7226 85.0059
121.63 7654 87.4871
121.747 8017 89.5377
121.863 8275 90.967
121.98 8483 92.1032
122.097 8481 92.0923
122.213 8755 93.5682
122.33 8683 93.1826
122.446 8773 93.6643
122.563 8580 92.6283
122.679 8686 93.1987
122.795 8730 93.4345
122.912 8768 93.6376
123.028 8277 90.978
123.144 8296 91.0824
123.26 7964 89.2412
123.377 0 1
123.493 0 1
123.609 0 1
123.725 0 1
123.84 0 1
123.956 0 1
124.072 0 1
124.188 0 1
124.303 0 1
124.419 0 1
126.852 0 1
126.968 0 1
127.083 0 1
127.199 0 1
127.315 0 1
127.431 0 1
127.547 0 1
127.663 0 1
127.779 0 1
127.895 0 1
128.011 0 1
128.127 0 1
128.243 0 1
128.359 9940 99.6995
128.476 9848 99.2371
128.592 9325 96.566
128.708 9167 95.7445
128.825 9048 95.121
128.941 9125 95.5249
129.058 9309 96.4832
129.174 9412 97.0155
129.291 9589 97.9234
129.408 9984 99.92
129.524 10237 101.178
129.641 10082 100.409
129.758 10313 101.553
129.875 10159 100.792
129.992 9719 98.585
130.108 9232 96.0833
130.225 8932 94.5093
130.342 8381 91.5478
130.459 8630 92.8978
130.576 8743 93.504
130.693 9120 95.4987
130.81 9620 98.0816
130.928 9623 98.0969
131.045 9730 98.6408
131.162 10135 100.673
131.279 10199 100.99
131.396 10071 100.354
131.513 9976 99.8799
131.631 10004 100.02
131.748 9766 98.8231
131.865 9706 98.519
131.983 9497 97.4526
132.1 8973 94.7259
132.217 8841 94.0266
132.335 8484 92.1086
132.452 8574 92.5959
132.57 8665 93.086
132.687 8613 92.8062
132.804 9554 97.7446
132.922 9673 98.3514
133.039 9674 98.3565
133.157 9705 98.514
133.274 9758 98.7826
133.392 9964 99.8198
133.509 9336 96.623
133.627 9045 95.1052
133.744 8540 92.4121
133.862 8215 90.6366
133.979 8040 89.666
134.097 8154 90.2995
134.214 8779 93.6963
134.332 8885 94.2603
134.449 9180 95.8123
134.567 9046 95.1105
134.684 9333 96.6075
134.802 9314 96.5091
134.919 9278 96.3224
135.037 9400 96.9536
135.154 8957 94.6414
135.272 8854 94.0957
135.389 8754 93.5628
135.507 8360 91.433
135.624 8015 89.5265
135.742 7844 88.5664
135.859 7446 86.2902
135.977 7235 85.0588
136.094 7202 84.8646
136.211 7582 87.0747
136.329 7519 86.7122
136.446 7823 88.4477
136.564 7907 88.9213
136.681 7774 88.1703
136.798 8063 89.7942
136.915 8181 90.4489
137.033 7915 88.9663
137.15 7723 87.8806
137.267 7382 85.9186
137.384 6876 82.9216
137.502 6785 82.3711
137.619 6729 82.0305
137.736 7103 84.2793
137.853 7255 85.1763
137.97 7780 88.2043
138.087 7962 89.23
138.204 8224 90.6863
138.321 8255 90.857
138.438 8548 92.4554
138.555 8530 92.358
138.672 8778 93.691
138.788 8808 93.8509
138.905 8526 92.3363
139.022 8650 93.0054
139.139 8595 92.7092
139.255 8297 91.0879
139.372 8165 90.3604
139.488 8006 89.4763
139.605 8083 89.9055
139.721 8326 91.2469
139.838 8436 91.8477
139.954 8820 93.9149
140.071 9019 94.9684
140.187 9516 97.55
140.303 9282 96.3431
140.419 9369 96.7936
140.535 9663 98.3006
140.652 9466 97.2934
140.768 0 1
140.884 0 1
141 0 1
141.115 0 1
141.231 0 1
141.347 0 1
141.463 0 1
141.578 0 1
141.694 0 1
144.104 0 1
144.219 0 1
144.335 0 1
144.45 0 1
144.566 0 1
144.682 0 1
144.798 0 1
144.914 0 1
145.03 0 1
145.146 14680 121.161
145.262 15918 126.167
145.378 16655 129.054
145.494 17420 131.985
145.61 18403 135.658
145.726 19067 138.083
145.842 19277 138.842
145.959 18925 137.568
146.075 18807 137.139
146.192 18330 135.388
146.308 18488 135.971
146.425 19294 138.903
146.541 20665 143.753
146.658 22189 148.96
146.774 23809 154.302
146.891 24751 157.325
147.008 25712 160.35
147.125 26584 163.046
147.241 27127 164.703
147.358 27638 166.247
147.475 27831 166.826
147.592 27616 166.181
147.709 27255 165.091
147.826 26791 163.68
147.943 26551 162.945
148.06 25606 160.019
148.177 25089 158.395
148.294 24626 156.927
148.411 24741 157.293
148.528 24987 158.073
148.645 25783 160.571
148.762 26581 163.037
148.88 27087 164.581
148.997 28662 169.299
149.114 25973 161.161
149.231 27242 165.052
149.349 26795 163.692
149.466 26538 162.905
149.583 24587 156.802
149.701 23171 152.22
149.818 22293 149.308
149.935 21519 146.694
150.053 21745 147.462
150.17 22494 149.98
150.287 23350 152.807
150.405 24285 155.836
150.522 25037 158.231
150.64 25439 159.496
150.757 25948 161.084
150.875 26403 162.49
150.992 25984 161.196
151.11 26519 162.847
151.227 26069 161.459
151.344 25582 159.944
151.462 25201 158.748
151.579 24826 157.563
151.697 24730 157.258
151.814 24116 155.293
151.932 23885 154.548
152.049 24360 156.077
152.167 25213 158.786
152.284 26125 161.632
152.402 27139 164.739
152.519 27978 167.266
152.636 28345 168.36
152.754 28853 169.862
152.871 28813 169.744
152.989 28281 168.17
153.106 27596 166.12
153.223 26109 161.583
153.341 25011 158.149
153.458 24081 155.181
153.575 23276 152.565
153.693 24730 157.258
153.81 25763 160.509
153.927 26493 162.767
154.044 27818 166.787
154.162 28356 168.392
154.279 29086 170.546
154.396 30240 173.897
154.513 30705 175.228
154.63 31198 176.63
154.747 31153 176.502
154.864 31148 176.488
154.981 30672 175.134
155.098 30596 174.917
155.215 30448 174.494
155.332 29689 172.305
155.449 29071 170.502
155.566 29230 170.968
155.683 30022 173.269
155.8 30916 175.829
155.917 31952 178.751
156.033 32802 181.113
156.15 0 1
156.267 0 1
156.383 0 1
156.5 0 1
156.617 0 1
156.733 0 1
156.85 0 1
156.966 0 1
157.082 0 1
157.199 0 1
157.315 0 1
157.431 0 1
157.547 0 1
157.664 0 1
157.78 0 1
157.896 0 1
158.012 0 1
158.128 0 1
158.244 0 1
158.359 0 1
158.475 0 1
158.591 0 1
158.706 0 1
