
6.15755 0 1
6.2731 0 1
6.3887 0 1
6.50437 0 1
6.62009 0 1
6.73587 0 1
6.8517 0 1
6.96759 0 1
7.08353 0 1
7.19952 0 1
7.31557 0 1
7.43166 0 1
7.54781 0 1
7.664 0 1
7.78024 0 1
7.89653 0 1
8.01286 0 1
8.12924 0 1
8.24567 0 1
8.36213 0 1
8.47864 0 1
8.59519 0 1
8.71178 0 1
8.82841 0 1
8.94508 0 1
9.06179 0 1
9.17853 0 1
9.29531 0 1
9.41212 0 1
9.52897 0 1
9.64584 0 1
9.76276 0 1
9.8797 0 1
9.99667 0 1
10.1137 0 1
10.2307 0 1
10.3478 0 1
10.4648 0 1
10.5819 0 1
10.6991 0 1
10.8162 0 1
10.9334 0 1
11.0506 0 1
11.1678 0 1
11.285 0 1
11.4023 0 1
11.5196 0 1
11.6369 0 1
11.7542 0 1
11.8715 0 1
11.9888 0 1
12.1062 0 1
12.2235 0 1
12.3409 0 1
12.4582 0 1
12.5756 0 1
12.693 0 1
12.8104 0 1
12.9278 0 1
13.0452 0 1
13.1626 0 1
13.28 0 1
13.3974 0 1
13.5149 0 1
13.6323 0 1
13.7497 0 1
13.8671 0 1
13.9845 0 1
14.1019 0 1
14.2193 0 1
14.3367 0 1
14.4541 0 1
14.5714 0 1
14.6888 0 1
14.8062 0 1
14.9235 0 1
15.0408 3361 57.9741
15.1581 3454 58.7707
15.2755 3631 60.2578
15.3927 3710 60.9098
15.51 3676 60.63
15.6273 3560 59.6657
15.7445 3605 60.0417
15.8617 3630 60.2495
15.9789 3655 60.4566
16.0961 3799 61.636
16.2132 3659 60.4897
16.3304 3805 61.6847
16.4475 3795 61.6036
16.5646 3781 61.4898
16.6816 3881 62.2977
16.7986 3903 62.474
16.9156 3776 61.4492
17.0326 4005 63.2851
17.1496 4010 63.3246
17.2665 4025 63.4429
17.3833 3936 62.7375
17.5002 3998 63.2297
17.617 4051 63.6475
17.7338 3899 62.442
17.8505 3807 61.7009
17.9672 3547 59.5567
18.0839 3552 59.5987
18.2005 3328 57.6888
18.3171 3567 59.7244
18.4337 3783 61.5061
18.5502 4027 63.4586
18.6666 4262 65.284
18.7831 4289 65.4905
18.8994 4496 67.0522
19.0158 4406 66.3777
19.1321 4492 67.0224
19.2483 4395 66.2948
19.3645 4511 67.164
19.4806 4444 66.6633
19.5967 4489 67
19.7128 4354 65.9848
19.8288 4273 65.3682
19.9447 3811 61.7333
20.0606 0 1
20.1764 0 1
20.2922 0 1
20.4079 0 1
20.5236 0 1
20.6392 0 1
20.7548 0 1
20.8702 0 1
23.3078 0 1
23.4233 0 1
23.539 0 1
23.6547 0 1
23.7704 0 1
23.8862 0 1
24.0021 0 1
24.118 0 1
24.234 0 1
24.35 0 1
24.4661 4833 69.5198
24.5822 4884 69.8856
24.6984 4877 69.8355
24.8146 4817 69.4046
24.9309 4763 69.0145
25.0472 4796 69.2532
25.1636 4647 68.1689
25.28 4621 67.9779
25.3965 4705 68.593
25.513 4580 67.6757
25.6296 4881 69.8642
25.7462 4958 70.4131
25.8628 4980 70.5691
25.9795 5025 70.8872
26.0962 5128 71.6101
26.213 5202 72.1249
26.3298 5036 70.9648
26.4466 4940 70.2851
26.5635 4920 70.1427
26.6804 4867 69.7639
26.7973 4688 68.469
26.9143 4320 65.7267
27.0313 4134 64.2962
27.1483 4314 65.681
27.2653 4551 67.4611
27.3824 4774 69.0941
27.4996 4828 69.4838
27.6167 4928 70.1997
27.7339 4982 70.5833
27.8511 4965 70.4628
27.9683 4953 70.3776
28.0855 4936 70.2567
28.2028 5092 71.3583
28.3201 4823 69.4478
28.4374 4854 69.6707
28.5547 4927 70.1926
28.6721 4763 69.0145
28.7894 4706 68.6003
28.9068 4733 68.7968
29.0242 4876 69.8284
29.1416 4751 68.9275
29.259 4745 68.884
29.3764 5102 71.4283
29.4939 4963 70.4486
29.6113 5108 71.4703
29.7288 5241 72.3948
29.8463 5101 71.4213
29.9638 5148 71.7496
30.0812 5079 71.2671
30.1987 4815 69.3902
30.3162 4568 67.587
30.4337 4316 65.6963
30.5512 4297 65.5515
30.6687 4165 64.5368
30.7862 4508 67.1416
30.9037 4574 67.6314
31.0212 4701 68.5638
31.1387 4886 69.8999
31.2562 4949 70.3491
31.3737 4946 70.3278
31.4912 4886 69.8999
31.6087 4928 70.1997
31.7262 5016 70.8237
31.8436 5131 71.631
31.9611 4996 70.6824
32.0785 4831 69.5054
32.1959 4726 68.7459
32.3134 4662 68.2788
32.4308 4701 68.5638
32.5482 4635 68.0808
32.6655 4859 69.7065
32.7829 5067 71.1829
32.9002 4913 70.0928
33.0176 4998 70.6965
33.1349 5061 71.1407
33.2522 5031 70.9295
33.3694 5024 70.8802
33.4867 5215 72.215
33.6039 5045 71.0282
33.7211 5023 70.8731
33.8383 4892 69.9428
33.9554 4835 69.5342
34.0725 4468 66.8431
34.1896 4313 65.6734
34.3067 4259 65.261
34.4237 4299 65.5668
34.5407 4523 67.2533
34.6577 4591 67.7569
34.7746 4695 68.5201
34.8915 4742 68.8622
35.0084 4765 69.029
35.1252 4764 69.0217
35.242 4863 69.7352
35.3587 4989 70.6329
35.4755 4798 69.2676
35.5921 4855 69.6778
35.7088 4799 69.2748
35.8254 4579 67.6683
35.9419 4591 67.7569
36.0584 4610 67.897
36.1749 4563 67.55
36.2913 4587 67.7274
36.4077 4758 68.9783
36.524 4776 69.1086
36.6403 4861 69.7209
36.7565 4974 70.5266
36.8727 5035 70.9577
36.9889 4961 70.4344
37.1049 5003 70.7319
37.221 0 1
37.3369 0 1
37.4529 0 1
37.5687 0 1
37.6845 0 1
37.8003 0 1
37.916 0 1
38.0316 0 1
38.1472 0 1
40.5851 0 1
40.7008 0 1
40.8164 0 1
40.9322 0 1
41.048 0 1
41.1639 0 1
41.2798 0 1
41.3958 0 1
41.5118 0 1
41.6279 0 1
41.744 3968 62.9921
41.8602 3974 63.0397
41.9765 4248 65.1767
42.0928 4165 64.5368
42.2091 4267 65.3223
42.3255 4221 64.9692
42.4419 4309 65.643
42.5584 3990 63.1664
42.675 4073 63.8201
42.7915 4067 63.773
42.9081 3912 62.546
43.0248 3660 60.4979
43.1415 3610 60.0833
43.2582 3646 60.3821
43.375 3742 61.1719
43.4918 3863 62.153
43.6087 3742 61.1719
43.7256 3774 61.4329
43.8425 3660 60.4979
43.9595 3723 61.0164
44.0765 3608 60.0666
44.1935 3733 61.0983
44.3106 3803 61.6685
44.4277 3721 61
44.5448 3419 58.4722
44.6619 3327 57.6802
44.7791 3434 58.6003
44.8963 3402 58.3267
45.0136 3242 56.9386
45.1308 3396 58.2752
45.2481 3375 58.0948
45.3654 3501 59.1692
45.4827 3376 58.1034
45.6001 3401 58.3181
45.7174 3300 57.4456
45.8348 3399 58.3009
45.9522 3321 57.6281
46.0697 3184 56.4269
46.1871 3156 56.1783
46.3046 3131 55.9553
46.422 3026 55.0091
46.5395 2980 54.5894
46.657 2834 53.2353
46.7745 2840 53.2917
46.892 2820 53.1037
47.0096 2734 52.2877
47.1271 2889 53.7494
47.2446 2878 53.647
47.3622 2787 52.792
47.4797 2751 52.45
47.5973 2679 51.7591
47.7149 2846 53.3479
47.8324 2772 52.6498
47.95 2774 52.6688
48.0675 2594 50.9313
48.1851 2657 51.5461
48.3027 2539 50.3885
48.4202 2666 51.6333
48.5378 2674 51.7107
48.6554 2663 51.6043
48.7729 2787 52.792
48.8904 2785 52.7731
49.008 2723 52.1824
49.1255 2767 52.6023
49.243 2863 53.507
49.3605 2805 52.9623
49.478 2830 53.1977
49.5955 2708 52.0384
49.713 2922 54.0555
49.8304 2801 52.9245
49.9479 2796 52.8772
50.0653 2737 52.3163
50.1827 2594 50.9313
50.3001 2593 50.9215
50.4175 2560 50.5964
50.5348 2715 52.1057
50.6521 2706 52.0192
50.7694 2821 53.1131
50.8867 2779 52.7162
51.004 2867 53.5444
51.1212 2983 54.6168
51.2384 3105 55.7225
51.3556 3101 55.6866
51.4727 3140 56.0357
51.5899 3187 56.4535
51.707 3188 56.4624
51.824 3155 56.1694
51.9411 3353 57.9051
52.0581 3373 58.0775
52.175 3571 59.7578
52.2919 3664 60.531
52.4088 3863 62.153
52.5257 3781 61.4898
52.6425 3772 61.4166
52.7593 3920 62.6099
52.876 3824 61.8385
52.9927 3857 62.1048
53.1094 3818 61.79
53.226 4008 63.3088
53.3426 4031 63.4902
53.4591 3982 63.1031
53.5756 3811 61.7333
53.692 3781 61.4898
53.8084 3606 60.05
53.9248 3567 59.7244
54.0411 3715 60.9508
54.1573 3675 60.6218
54.2735 0 1
54.3896 0 1
54.5057 0 1
54.6217 0 1
54.7377 0 1
54.8537 0 1
54.9695 0 1
55.0853 0 1
55.2011 0 1
55.3168 0 1
55.4324 0 1
57.824 0 1
57.9396 0 1
58.0553 0 1
58.1711 0 1
58.2869 0 1
58.4028 0 1
58.5187 0 1
58.6347 0 1
58.7508 0 1
58.8669 0 1
58.983 4258 65.2534
59.0992 4435 66.5958
59.2155 4295 65.5362
59.3318 4424 66.5132
59.4482 4397 66.3099
59.5646 4396 66.3023
59.681 4356 66
59.7975 4411 66.4154
59.9141 4420 66.4831
60.0306 4538 67.3647
60.1473 4443 66.6558
60.2639 4438 66.6183
60.3807 4348 65.9394
60.4974 4230 65.0385
60.6142 4387 66.2344
60.731 4417 66.4605
60.8479 4497 67.0597
60.9648 4474 66.888
61.0818 4631 68.0515
61.1987 4643 68.1396
61.3158 4584 67.7052
61.4328 4471 66.8655
61.5499 4520 67.2309
61.667 4403 66.3551
61.7841 4432 66.5733
61.9013 4422 66.4981
62.0185 4430 66.5582
62.1357 4409 66.4003
62.253 4392 66.2722
62.3702 4286 65.4675
62.4875 4203 64.8305
62.6049 4304 65.6049
62.7222 4201 64.8151
62.8396 4218 64.9461
62.9569 4224 64.9923
63.0743 4077 63.8514
63.1918 3930 62.6897
63.3092 3866 62.1772
63.4267 3908 62.514
63.5441 4019 63.3956
63.6616 3968 62.9921
63.7791 4039 63.5531
63.8966 4054 63.671
64.0142 3966 62.9762
64.1317 4061 63.726
64.2492 4004 63.2772
64.3668 4100 64.0312
64.4843 4232 65.0538
64.6019 4206 64.8537
64.7195 4178 64.6375
64.837 4484 66.9627
64.9546 4107 64.0859
65.0722 4119 64.1794
65.1898 4164 64.5291
65.3074 4254 65.2227
65.4249 4082 63.8905
65.5425 4047 63.616
65.6601 4092 63.9687
65.7777 4195 64.7688
65.8952 3982 63.1031
66.0128 4027 63.4586
66.1304 3927 62.6658
66.2479 3946 62.8172
66.3655 4006 63.293
66.483 4008 63.3088
66.6005 3950 62.849
66.718 3776 61.4492
66.8355 3659 60.4897
66.953 3584 59.8665
67.0705 3690 60.7454
67.1879 3781 61.4898
67.3054 3786 61.5305
67.4228 3696 60.7947
67.5402 3775 61.441
67.6576 3866 62.1772
67.7749 3785 61.5224
67.8923 3928 62.6738
68.0096 4060 63.7181
68.1269 4121 64.195
68.2442 4054 63.671
68.3614 4095 63.9922
68.4787 4174 64.6065
68.5958 4098 64.0156
68.713 4321 65.7343
68.8302 4094 63.9844
68.9473 4325 65.7647
69.0643 4117 64.1639
69.1814 4175 64.6142
69.2984 4117 64.1639
69.4154 4153 64.4438
69.5323 4153 64.4438
69.6492 4240 65.1153
69.7661 4225 65
69.8829 4252 65.2074
69.9997 4438 66.6183
70.1165 4199 64.7997
70.2332 4100 64.0312
70.3499 4106 64.0781
70.4665 3973 63.0317
70.5831 3827 61.8628
70.6996 3734 61.1065
70.8161 3721 61
70.9326 3775 61.441
71.049 3948 62.8331
71.1653 3731 61.0819
71.2817 3918 62.5939
71.3979 3843 61.9919
71.5141 3879 62.2816
71.6303 3868 62.1932
71.7464 3611 60.0916
71.8624 0 1
71.9784 0 1
72.0944 0 1
72.2102 0 1
72.3261 0 1
72.4418 0 1
72.5575 0 1
72.6732 0 1
75.1054 0 1
75.2209 0 1
75.3365 0 1
75.4521 0 1
75.5678 0 1
75.6835 0 1
75.7993 0 1
75.9151 0 1
76.031 0 1
76.147 3298 57.4282
76.263 3389 58.2151
76.3791 3611 60.0916
76.4952 3657 60.4731
76.6113 3812 61.7414
76.7276 3881 62.2977
76.8438 4087 63.9296
76.9601 4146 64.3894
77.0765 4145 64.3817
77.1929 4196 64.7765
77.3093 4253 65.215
77.4258 4297 65.5515
77.5423 4239 65.1076
77.6589 4295 65.5362
77.7755 4192 64.7457
77.8921 4203 64.8305
78.0088 4193 64.7534
78.1256 4115 64.1483
78.2423 4140 64.3428
78.3591 4092 63.9687
78.4759 4083 63.8984
78.5928 4108 64.0937
78.7097 4225 65
78.8266 3872 62.2254
78.9436 4202 64.8228
79.0606 4082 63.8905
79.1776 4132 64.2806
79.2946 4036 63.5295
79.4117 3992 63.1823
79.5288 3633 60.2744
79.6459 3539 59.4895
79.7631 3401 58.3181
79.8802 3425 58.5235
79.9974 3442 58.6686
80.1147 3497 59.1354
80.2319 3660 60.4979
80.3491 3734 61.1065
80.4664 3853 62.0725
80.5837 3950 62.849
80.701 4010 63.3246
80.8183 4034 63.5138
80.9357 3931 62.6977
81.053 3894 62.4019
81.1704 4107 64.0859
81.2877 3901 62.458
81.4051 3877 62.2656
81.5225 3830 61.887
81.6399 3836 61.9355
81.7573 3938 62.7535
81.8747 3791 61.5711
81.9922 3739 61.1474
82.1096 3863 62.153
82.227 3911 62.538
82.3444 3710 60.9098
82.4619 3858 62.1128
82.5793 3878 62.2736
82.6967 3724 61.0246
82.8142 3804 61.6766
82.9316 3729 61.0655
83.049 3571 59.7578
83.1664 3410 58.3952
83.2838 3179 56.3826
83.4012 2932 54.1479
83.5186 2782 52.7447
83.636 2829 53.1883
83.7534 3009 54.8544
83.8708 3121 55.8659
83.9881 3231 56.8419
84.1055 3478 58.9746
84.2228 3506 59.2115
84.3401 3742 61.1719
84.4575 3703 60.8523
84.5747 3672 60.597
84.692 3880 62.2896
84.8093 3617 60.1415
84.9265 3723 61.0164
85.0437 3570 59.7495
85.1609 3684 60.696
85.2781 3692 60.7618
85.3952 3609 60.075
85.5123 3711 60.918
85.6294 3716 60.959
85.7465 3915 62.57
85.8636 3812 61.7414
85.9806 3934 62.7216
86.0976 3956 62.8967
86.2145 3800 61.6441
86.3315 4112 64.1249
86.4484 3793 61.5873
86.5652 3937 62.7455
86.682 3897 62.426
86.7988 3692 60.7618
86.9156 3438 58.6345
87.0323 3234 56.8683
87.149 3252 57.0263
87.2657 3357 57.9396
87.3823 3494 59.1101
87.4988 3648 60.3987
87.6154 4024 63.435
87.7318 4049 63.6318
87.8483 4035 63.5216
87.9647 4227 65.0154
88.081 4237 65.0922
88.1973 4265 65.307
88.3136 4159 64.4903
88.4298 4237 65.0922
88.546 4169 64.5678
88.6621 4115 64.1483
88.7781 4064 63.7495
88.8942 0 1
89.0101 0 1
89.126 0 1
89.2419 0 1
89.3577 0 1
89.4734 0 1
89.5891 0 1
89.7047 0 1
89.8203 0 1
89.9358 0 1
92.3269 0 1
92.4424 0 1
92.558 0 1
92.6736 0 1
92.7893 0 1
92.905 0 1
93.0208 0 1
93.1366 0 1
93.2525 0 1
93.3685 0 1
93.4845 0 1
93.6005 4230 65.0385
93.7167 4073 63.8201
93.8328 4246 65.1613
93.949 4124 64.2184
94.0653 3980 63.0872
94.1816 3972 63.0238
94.2979 4020 63.4035
94.4143 4083 63.8984
94.5307 4024 63.435
94.6472 4124 64.2184
94.7637 4139 64.3351
94.8803 4150 64.4205
94.9969 4232 65.0538
95.1135 4376 66.1513
95.2302 4283 65.4446
95.3469 4369 66.0984
95.4637 4271 65.3529
95.5805 4344 65.909
95.6973 4245 65.1537
95.8142 4221 64.9692
95.9311 4003 63.2693
96.048 3680 60.663
96.1649 3353 57.9051
96.2819 3239 56.9122
96.3989 3054 55.263
96.516 3227 56.8067
96.633 3628 60.2329
96.7501 3888 62.3538
96.8673 4167 64.5523
96.9844 4243 65.1383
97.1016 4303 65.5973
97.2188 4307 65.6277
97.336 4402 66.3476
97.4532 4501 67.0895
97.5704 4404 66.3626
97.6877 4337 65.8559
97.805 4319 65.7191
97.9223 4207 64.8614
98.0396 4340 65.8787
98.1569 4163 64.5213
98.2743 4231 65.0461
98.3916 4266 65.3146
98.509 4322 65.7419
98.6264 4536 67.3498
98.7438 4410 66.4078
98.8612 4415 66.4455
98.9786 4376 66.1513
99.096 4349 65.9469
99.2134 4382 66.1967
99.3308 4553 67.4759
99.4482 4322 65.7419
99.5656 4133 64.2884
99.6831 3912 62.546
99.8005 3532 59.4306
99.9179 3376 58.1034
100.035 3245 56.9649
100.153 3477 58.9661
100.27 3883 62.3137
100.388 4078 63.8592
100.505 4343 65.9014
100.622 4392 66.2722
100.74 4469 66.8506
100.857 4444 66.6633
100.975 4420 66.4831
101.092 4464 66.8132
101.209 4330 65.8027
101.327 4332 65.8179
101.444 4313 65.6734
101.561 4275 65.3835
101.679 4395 66.2948
101.796 4390 66.2571
101.913 4436 66.6033
102.03 4476 66.9029
102.148 4422 66.4981
102.265 4461 66.7907
102.382 4680 68.4105
102.499 4567 67.5796
102.616 4739 68.8404
102.733 4592 67.7643
102.851 4694 68.5128
102.968 4608 67.8823
103.085 4610 67.897
103.202 4201 64.8151
103.319 3714 60.9426
103.436 3375 58.0948
103.552 3256 57.0614
103.669 3340 57.7927
103.786 3942 62.7853
103.903 4300 65.5744
104.02 4531 67.3127
104.137 4573 67.624
104.253 4768 69.0507
104.37 4645 68.1542
104.487 4750 68.9202
104.603 4802 69.2965
104.72 4709 68.6222
104.836 4668 68.3228
104.953 4653 68.2129
105.069 4525 67.2681
105.186 4586 67.72
105.302 4718 68.6877
105.418 4693 68.5055
105.535 4893 69.95
105.651 4940 70.2851
105.767 4986 70.6116
105.883 4895 69.9643
105.999 4925 70.1783
106.115 0 1
106.231 0 1
106.347 0 1
106.463 0 1
106.579 0 1
106.694 0 1
106.81 0 1
106.926 0 1
107.041 0 1
107.157 0 1
109.576 0 1
109.692 0 1
109.807 0 1
109.923 0 1
110.039 0 1
110.155 0 1
110.27 0 1
110.386 0 1
110.502 0 1
110.618 4584 67.7052
110.735 4633 68.0661
110.851 4662 68.2788
110.967 4734 68.8041
111.083 4692 68.4982
111.199 4656 68.2349
111.316 4697 68.5347
111.432 4710 68.6294
111.549 4747 68.8985
111.665 4429 66.5507
111.782 4015 63.364
111.898 3708 60.8933
112.015 3177 56.3649
112.132 2912 53.963
112.248 3051 55.2359
112.365 3704 60.8605
112.482 4018 63.3877
112.599 4538 67.3647
112.716 4506 67.1267
112.832 4527 67.283
112.949 4496 67.0522
113.066 4382 66.1967
113.183 4319 65.7191
113.3 4267 65.3223
113.417 4241 65.123
113.534 4359 66.0227
113.652 4133 64.2884
113.769 4227 65.0154
113.886 4325 65.7647
114.003 4290 65.4981
114.12 4408 66.3928
114.238 4372 66.1211
114.355 4483 66.9552
114.472 4470 66.8581
114.589 4539 67.3721
114.707 4535 67.3424
114.824 4589 67.7422
114.942 4405 66.3702
115.059 4497 67.0597
115.176 4218 64.9461
115.294 4245 65.1537
115.411 3843 61.9919
115.529 3369 58.0431
115.646 2833 53.2259
115.764 2669 51.6624
115.881 3179 56.3826
115.999 3687 60.7207
116.116 4076 63.8436
116.234 4210 64.8845
116.351 4335 65.8407
116.469 4294 65.5286
116.586 4198 64.792
116.704 4212 64.8999
116.821 4240 65.1153
116.939 4124 64.2184
117.056 4018 63.3877
117.174 3886 62.3378
117.291 4055 63.6789
117.409 4033 63.5059
117.526 4057 63.6946
117.644 4121 64.195
117.761 4060 63.7181
117.879 4212 64.8999
117.996 4148 64.405
118.114 4217 64.9384
118.231 4203 64.8305
118.349 4389 66.2495
118.466 4282 65.437
118.584 4091 63.9609
118.701 4185 64.6916
118.819 4088 63.9375
118.936 3915 62.57
119.053 3498 59.1439
119.171 2925 54.0833
119.288 2426 49.2544
119.405 2481 49.8096
119.523 2938 54.2033
119.64 3302 57.463
119.757 3777 61.4573
119.875 3947 62.8252
119.992 3869 62.2013
120.109 3855 62.0886
120.226 3932 62.7057
120.343 3894 62.4019
120.46 3962 62.9444
120.578 3674 60.6135
120.695 3746 61.2046
120.812 3705 60.8687
120.929 3778 61.4654
121.046 3780 61.4817
121.163 3782 61.498
121.279 4002 63.2614
121.396 4048 63.6239
121.513 3876 62.2575
121.63 3978 63.0714
121.747 4023 63.4271
121.863 3933 62.7136
121.98 3825 61.8466
122.097 3953 62.8729
122.213 3876 62.2575
122.33 3904 62.482
122.446 3884 62.3217
122.563 3803 61.6685
122.679 3565 59.7076
122.795 3250 57.0088
122.912 2785 52.7731
123.028 2261 47.55
123.144 2193 46.8295
123.26 2562 50.6162
123.377 0 1
123.493 0 1
123.609 0 1
123.725 0 1
123.84 0 1
123.956 0 1
124.072 0 1
124.188 0 1
124.303 0 1
124.419 0 1
126.852 0 1
126.968 0 1
127.083 0 1
127.199 0 1
127.315 0 1
127.431 0 1
127.547 0 1
127.663 0 1
127.779 0 1
127.895 0 1
128.011 0 1
128.127 0 1
128.243 0 1
128.359 2200 46.9042
128.476 2530 50.2991
128.592 3098 55.6597
128.708 3676 60.63
128.825 3908 62.514
128.941 3895 62.4099
129.058 4015 63.364
129.174 4047 63.616
129.291 3897 62.426
129.408 3961 62.9365
129.524 3756 61.2862
129.641 3753 61.2617
129.758 3760 61.3188
129.875 3782 61.498
129.992 3757 61.2944
130.108 3759 61.3107
130.225 3773 61.4248
130.342 3789 61.5549
130.459 3833 61.9112
130.576 3861 62.1369
130.693 3887 62.3458
130.81 3776 61.4492
130.928 3732 61.0901
131.045 3913 62.554
131.162 3986 63.1348
131.279 3876 62.2575
131.396 3816 61.7738
131.513 3684 60.696
131.631 3373 58.0775
131.748 2777 52.6972
131.865 2136 46.2169
131.983 2175 46.6369
132.1 2682 51.788
132.217 3363 57.9914
132.335 3670 60.5805
132.452 3568 59.7327
132.57 3695 60.7865
132.687 3623 60.1914
132.804 3794 61.5955
132.922 3548 59.5651
133.039 3510 59.2453
133.157 3468 58.8897
133.274 3416 58.4466
133.392 3457 58.7963
133.509 3466 58.8727
133.627 3416 58.4466
133.744 3582 59.8498
133.862 3675 60.6218
133.979 3584 59.8665
134.097 3712 60.9262
134.214 3706 60.8769
134.332 3585 59.8749
134.449 3637 60.3075
134.567 3611 60.0916
134.684 3650 60.4152
134.802 3606 60.05
134.919 3599 59.9917
135.037 3520 59.3296
135.154 3333 57.7321
135.272 2967 54.4702
135.389 2184 46.7333
135.507 1872 43.2666
135.624 2187 46.7654
135.742 2814 53.0471
135.859 3307 57.5065
135.977 3385 58.1808
136.094 3373 58.0775
136.211 3470 58.9067
136.329 3433 58.5918
136.446 3415 58.438
136.564 3452 58.7537
136.681 3250 57.0088
136.798 3407 58.3695
136.915 3311 57.5413
137.033 3338 57.7754
137.15 3306 57.4978
137.267 3300 57.4456
137.384 3457 58.7963
137.502 3404 58.3438
137.619 3345 57.836
137.736 3376 58.1034
137.853 3359 57.9569
137.97 3397 58.2838
138.087 3274 57.2189
138.204 3405 58.3524
138.321 3457 58.7963
138.438 3430 58.5662
138.555 3639 60.3241
138.672 3396 58.2752
138.788 3253 57.0351
138.905 3009 54.8544
139.022 2191 46.8081
139.139 1986 44.5646
139.255 2067 45.4643
139.372 2609 51.0784
139.488 3094 55.6237
139.605 3485 59.0339
139.721 3464 58.8558
139.838 3442 58.6686
139.954 3398 58.2924
140.071 3311 57.5413
140.187 3384 58.1722
140.303 3301 57.4543
140.419 3261 57.1052
140.535 3214 56.6922
140.652 3107 55.7405
140.768 0 1
140.884 0 1
141 0 1
141.115 0 1
141.231 0 1
141.347 0 1
141.463 0 1
141.578 0 1
141.694 0 1
144.104 0 1
144.219 0 1
144.335 0 1
144.45 0 1
144.566 0 1
144.682 0 1
144.798 0 1
144.914 0 1
145.03 0 1
145.146 2271 47.655
145.262 2472 49.7192
145.378 2333 48.3011
145.494 2227 47.1911
145.61 2444 49.4368
145.726 2348 48.4562
145.842 2264 47.5815
145.959 2394 48.9285
146.075 2419 49.1833
146.192 2306 48.0208
146.308 2347 48.4458
146.425 2416 49.1528
146.541 2423 49.224
146.658 2506 50.06
146.774 2511 50.1099
146.891 2460 49.5984
147.008 2556 50.5569
147.125 2542 50.4183
147.241 2527 50.2693
147.358 2460 49.5984
147.475 2537 50.3686
147.592 2554 50.5371
147.709 2347 48.4458
147.826 2111 45.9456
147.943 1694 41.1582
148.06 1411 37.5633
148.177 1451 38.092
148.294 1925 43.8748
148.411 2351 48.4871
148.528 2482 49.8197
148.645 2358 48.5592
148.762 2514 50.1398
148.88 2461 49.6085
148.997 2423 49.224
149.114 2502 50.02
149.231 2313 48.0937
149.349 2290 47.8539
149.466 2309 48.0521
149.583 2385 48.8365
149.701 2390 48.8876
149.818 2257 47.5079
149.935 2407 49.0612
150.053 2315 48.1144
150.17 2391 48.8979
150.287 2382 48.8057
150.405 2406 49.051
150.522 2488 49.8799
150.64 2472 49.7192
150.757 2448 49.4773
150.875 2496 49.96
150.992 2543 50.4282
151.11 2620 51.1859
151.227 2554 50.5371
151.344 2441 49.4065
151.462 2383 48.816
151.579 2124 46.0869
151.697 1648 40.5956
151.814 1458 38.1838
151.932 1564 39.5474
152.049 2064 45.4313
152.167 2490 49.8999
152.284 2578 50.774
152.402 2647 51.449
152.519 2590 50.892
152.636 2680 51.7687
152.754 2494 49.94
152.871 2529 50.2892
152.989 2592 50.9117
153.106 2473 49.7293
153.223 2542 50.4183
153.341 2491 49.9099
153.458 2408 49.0714
153.575 2533 50.3289
153.693 2550 50.4975
153.81 2652 51.4976
153.927 2696 51.923
154.044 2729 52.2398
154.162 2818 53.0848
154.279 2780 52.7257
154.396 2885 53.7122
154.513 3012 54.8817
154.63 2974 54.5344
154.747 3016 54.9181
154.864 2875 53.619
154.981 2818 53.0848
155.098 2770 52.6308
155.215 2260 47.5395
155.332 1913 43.7379
155.449 2060 45.3872
155.566 2581 50.8035
155.683 2891 53.768
155.8 2954 54.3507
155.917 3000 54.7723
156.033 3060 55.3173
156.15 0 1
156.267 0 1
156.383 0 1
156.5 0 1
156.617 0 1
156.733 0 1
156.85 0 1
156.966 0 1
157.082 0 1
157.199 0 1
157.315 0 1
157.431 0 1
157.547 0 1
157.664 0 1
157.78 0 1
157.896 0 1
158.012 0 1
158.128 0 1
158.244 0 1
158.359 0 1
158.475 0 1
158.591 0 1
158.706 0 1
