
6.15755 0 1
6.2731 0 1
6.3887 0 1
6.50437 0 1
6.62009 0 1
6.73587 0 1
6.8517 0 1
6.96759 0 1
7.08353 0 1
7.19952 0 1
7.31557 0 1
7.43166 0 1
7.54781 0 1
7.664 0 1
7.78024 0 1
7.89653 0 1
8.01286 0 1
8.12924 0 1
8.24567 0 1
8.36213 0 1
8.47864 0 1
8.59519 0 1
8.71178 0 1
8.82841 0 1
8.94508 0 1
9.06179 0 1
9.17853 0 1
9.29531 0 1
9.41212 0 1
9.52897 0 1
9.64584 0 1
9.76276 0 1
9.8797 0 1
9.99667 0 1
10.1137 0 1
10.2307 0 1
10.3478 0 1
10.4648 0 1
10.5819 0 1
10.6991 0 1
10.8162 0 1
10.9334 0 1
11.0506 0 1
11.1678 0 1
11.285 0 1
11.4023 0 1
11.5196 0 1
11.6369 0 1
11.7542 0 1
11.8715 0 1
11.9888 0 1
12.1062 0 1
12.2235 0 1
12.3409 0 1
12.4582 0 1
12.5756 0 1
12.693 0 1
12.8104 0 1
12.9278 0 1
13.0452 0 1
13.1626 0 1
13.28 0 1
13.3974 0 1
13.5149 0 1
13.6323 0 1
13.7497 0 1
13.8671 0 1
13.9845 0 1
14.1019 0 1
14.2193 0 1
14.3367 0 1
14.4541 0 1
14.5714 0 1
14.6888 0 1
14.8062 0 1
14.9235 0 1
15.0408 647 25.4362
15.1581 633 25.1595
15.2755 653 25.5539
15.3927 707 26.5895
15.51 637 25.2389
15.6273 652 25.5343
15.7445 669 25.865
15.8617 695 26.3629
15.9789 645 25.3969
16.0961 672 25.923
16.2132 621 24.9199
16.3304 668 25.8457
16.4475 664 25.7682
16.5646 674 25.9615
16.6816 733 27.074
16.7986 752 27.4226
16.9156 761 27.5862
17.0326 751 27.4044
17.1496 714 26.7208
17.2665 726 26.9444
17.3833 721 26.8514
17.5002 703 26.5141
17.617 648 25.4558
17.7338 606 24.6171
17.8505 616 24.8193
17.9672 600 24.4949
18.0839 623 24.96
18.2005 696 26.3818
18.3171 701 26.4764
18.4337 693 26.3249
18.5502 686 26.1916
18.6666 711 26.6646
18.7831 750 27.3861
18.8994 709 26.6271
19.0158 686 26.1916
19.1321 683 26.1343
19.2483 613 24.7588
19.3645 612 24.7386
19.4806 559 23.6432
19.5967 523 22.8692
19.7128 452 21.2603
19.8288 428 20.6882
19.9447 415 20.3715
20.0606 0 1
20.1764 0 1
20.2922 0 1
20.4079 0 1
20.5236 0 1
20.6392 0 1
20.7548 0 1
20.8702 0 1
23.3078 0 1
23.4233 0 1
23.539 0 1
23.6547 0 1
23.7704 0 1
23.8862 0 1
24.0021 0 1
24.118 0 1
24.234 0 1
24.35 0 1
24.4661 259 16.0935
24.5822 307 17.5214
24.6984 334 18.2757
24.8146 376 19.3907
24.9309 385 19.6214
25.0472 457 21.3776
25.1636 509 22.561
25.28 525 22.9129
25.3965 546 23.3666
25.513 631 25.1197
25.6296 621 24.9199
25.7462 650 25.4951
25.8628 666 25.807
25.9795 685 26.1725
26.0962 703 26.5141
26.213 637 25.2389
26.3298 611 24.7184
26.4466 570 23.8747
26.5635 582 24.1247
26.6804 564 23.7487
26.7973 596 24.4131
26.9143 588 24.2487
27.0313 623 24.96
27.1483 595 24.3926
27.2653 639 25.2784
27.3824 670 25.8844
27.4996 670 25.8844
27.6167 616 24.8193
27.7339 616 24.8193
27.8511 618 24.8596
27.9683 600 24.4949
28.0855 551 23.4734
28.2028 548 23.4094
28.3201 534 23.1084
28.4374 475 21.7945
28.5547 515 22.6936
28.6721 498 22.3159
28.7894 530 23.0217
28.9068 562 23.7065
29.0242 608 24.6577
29.1416 672 25.923
29.259 648 25.4558
29.3764 595 24.3926
29.4939 623 24.96
29.6113 568 23.8328
29.7288 565 23.7697
29.8463 555 23.5584
29.9638 524 22.891
30.0812 516 22.7156
30.1987 525 22.9129
30.3162 551 23.4734
30.4337 550 23.4521
30.5512 519 22.7816
30.6687 570 23.8747
30.7862 536 23.1517
30.9037 592 24.3311
31.0212 601 24.5153
31.1387 536 23.1517
31.2562 587 24.2281
31.3737 531 23.0434
31.4912 560 23.6643
31.6087 531 23.0434
31.7262 544 23.3238
31.8436 510 22.5832
31.9611 527 22.9565
32.0785 442 21.0238
32.1959 490 22.1359
32.3134 554 23.5372
32.4308 519 22.7816
32.5482 584 24.1661
32.6655 541 23.2594
32.7829 561 23.6854
32.9002 649 25.4755
33.0176 607 24.6374
33.1349 642 25.3377
33.2522 622 24.9399
33.3694 593 24.3516
33.4867 529 23
33.6039 488 22.0907
33.7211 507 22.5167
33.8383 479 21.8861
33.9554 516 22.7156
34.0725 499 22.3383
34.1896 555 23.5584
34.3067 537 23.1733
34.4237 587 24.2281
34.5407 589 24.2693
34.6577 583 24.1454
34.7746 567 23.8118
34.8915 537 23.1733
35.0084 499 22.3383
35.1252 535 23.1301
35.242 507 22.5167
35.3587 472 21.7256
35.4755 481 21.9317
35.5921 472 21.7256
35.7088 471 21.7025
35.8254 455 21.3307
35.9419 460 21.4476
36.0584 468 21.6333
36.1749 479 21.8861
36.2913 477 21.8403
36.4077 478 21.8632
36.524 563 23.7276
36.6403 471 21.7025
36.7565 495 22.2486
36.8727 470 21.6795
36.9889 403 20.0749
37.1049 359 18.9473
37.221 0 1
37.3369 0 1
37.4529 0 1
37.5687 0 1
37.6845 0 1
37.8003 0 1
37.916 0 1
38.0316 0 1
38.1472 0 1
40.5851 0 1
40.7008 0 1
40.8164 0 1
40.9322 0 1
41.048 0 1
41.1639 0 1
41.2798 0 1
41.3958 0 1
41.5118 0 1
41.6279 0 1
41.744 235 15.3297
41.8602 310 17.6068
41.9765 295 17.1756
42.0928 362 19.0263
42.2091 344 18.5472
42.3255 309 17.5784
42.4419 330 18.1659
42.5584 381 19.5192
42.675 328 18.1108
42.7915 334 18.2757
42.9081 432 20.7846
43.0248 464 21.5407
43.1415 432 20.7846
43.2582 446 21.1187
43.375 502 22.4054
43.4918 485 22.0227
43.6087 455 21.3307
43.7256 455 21.3307
43.8425 503 22.4277
43.9595 462 21.4942
44.0765 459 21.4243
44.1935 439 20.9523
44.3106 431 20.7605
44.4277 414 20.347
44.5448 332 18.2209
44.6619 375 19.3649
44.7791 383 19.5704
44.8963 415 20.3715
45.0136 414 20.347
45.1308 453 21.2838
45.2481 490 22.1359
45.3654 463 21.5174
45.4827 463 21.5174
45.6001 491 22.1585
45.7174 457 21.3776
45.8348 454 21.3073
45.9522 429 20.7123
46.0697 369 19.2094
46.1871 374 19.3391
46.3046 360 18.9737
46.422 363 19.0526
46.5395 440 20.9762
46.657 445 21.095
46.7745 447 21.1424
46.892 483 21.9773
47.0096 451 21.2368
47.1271 472 21.7256
47.2446 481 21.9317
47.3622 477 21.8403
47.4797 466 21.587
47.5973 465 21.5639
47.7149 431 20.7605
47.8324 416 20.3961
47.95 407 20.1742
48.0675 401 20.025
48.1851 380 19.4936
48.3027 388 19.6977
48.4202 377 19.4165
48.5378 415 20.3715
48.6554 447 21.1424
48.7729 536 23.1517
48.8904 512 22.6274
49.008 460 21.4476
49.1255 438 20.9284
49.243 452 21.2603
49.3605 435 20.8567
49.478 410 20.2485
49.5955 398 19.9499
49.713 388 19.6977
49.8304 374 19.3391
49.9479 402 20.0499
50.0653 428 20.6882
50.1827 455 21.3307
50.3001 470 21.6795
50.4175 467 21.6102
50.5348 460 21.4476
50.6521 477 21.8403
50.7694 495 22.2486
50.8867 477 21.8403
51.004 483 21.9773
51.1212 474 21.7715
51.2384 448 21.166
51.3556 483 21.9773
51.4727 432 20.7846
51.5899 393 19.8242
51.707 400 20
51.824 375 19.3649
51.9411 390 19.7484
52.0581 439 20.9523
52.175 446 21.1187
52.2919 509 22.561
52.4088 486 22.0454
52.5257 470 21.6795
52.6425 522 22.8473
52.7593 505 22.4722
52.876 464 21.5407
52.9927 447 21.1424
53.1094 422 20.5426
53.226 402 20.0499
53.3426 382 19.5448
53.4591 411 20.2731
53.5756 395 19.8746
53.692 367 19.1572
53.8084 368 19.1833
53.9248 356 18.868
54.0411 391 19.7737
54.1573 329 18.1384
54.2735 0 1
54.3896 0 1
54.5057 0 1
54.6217 0 1
54.7377 0 1
54.8537 0 1
54.9695 0 1
55.0853 0 1
55.2011 0 1
55.3168 0 1
55.4324 0 1
57.824 0 1
57.9396 0 1
58.0553 0 1
58.1711 0 1
58.2869 0 1
58.4028 0 1
58.5187 0 1
58.6347 0 1
58.7508 0 1
58.8669 0 1
58.983 336 18.3303
59.0992 378 19.4422
59.2155 412 20.2978
59.3318 470 21.6795
59.4482 496 22.2711
59.5646 556 23.5797
59.681 573 23.9374
59.7975 556 23.5797
59.9141 575 23.9792
60.0306 553 23.516
60.1473 569 23.8537
60.2639 551 23.4734
60.3807 518 22.7596
60.4974 489 22.1133
60.6142 522 22.8473
60.731 521 22.8254
60.8479 552 23.4947
60.9648 601 24.5153
61.0818 668 25.8457
61.1987 640 25.2982
61.3158 610 24.6982
61.4328 617 24.8395
61.5499 573 23.9374
61.667 570 23.8747
61.7841 489 22.1133
61.9013 547 23.388
62.0185 509 22.561
62.1357 489 22.1133
62.253 576 24
62.3702 593 24.3516
62.4875 630 25.0998
62.6049 630 25.0998
62.7222 622 24.9399
62.8396 632 25.1396
62.9569 632 25.1396
63.0743 706 26.5707
63.1918 667 25.8263
63.3092 587 24.2281
63.4267 606 24.6171
63.5441 616 24.8193
63.6616 571 23.8956
63.7791 548 23.4094
63.8966 554 23.5372
64.0142 505 22.4722
64.1317 503 22.4277
64.2492 531 23.0434
64.3668 544 23.3238
64.4843 631 25.1197
64.6019 664 25.7682
64.7195 635 25.1992
64.837 658 25.6515
64.9546 652 25.5343
65.0722 572 23.9165
65.1898 612 24.7386
65.3074 560 23.6643
65.4249 509 22.561
65.5425 535 23.1301
65.6601 545 23.3452
65.7777 597 24.4336
65.8952 609 24.6779
66.0128 593 24.3516
66.1304 628 25.0599
66.2479 674 25.9615
66.3655 630 25.0998
66.483 650 25.4951
66.6005 643 25.3574
66.718 710 26.6458
66.8355 660 25.6905
66.953 657 25.632
67.0705 650 25.4951
67.1879 583 24.1454
67.3054 610 24.6982
67.4228 516 22.7156
67.5402 497 22.2935
67.6576 471 21.7025
67.7749 517 22.7376
67.8923 507 22.5167
68.0096 575 23.9792
68.1269 621 24.9199
68.2442 684 26.1534
68.3614 631 25.1197
68.4787 642 25.3377
68.5958 625 25
68.713 647 25.4362
68.8302 626 25.02
68.9473 562 23.7065
69.0643 543 23.3024
69.1814 516 22.7156
69.2984 522 22.8473
69.4154 542 23.2809
69.5323 600 24.4949
69.6492 645 25.3969
69.7661 646 25.4165
69.8829 627 25.04
69.9997 654 25.5734
70.1165 662 25.7294
70.2332 639 25.2784
70.3499 651 25.5147
70.4665 603 24.5561
70.5831 526 22.9347
70.6996 527 22.9565
70.8161 480 21.9089
70.9326 487 22.0681
71.049 436 20.8806
71.1653 346 18.6011
71.2817 309 17.5784
71.3979 244 15.6205
71.5141 247 15.7162
71.6303 221 14.8661
71.7464 212 14.5602
71.8624 0 1
71.9784 0 1
72.0944 0 1
72.2102 0 1
72.3261 0 1
72.4418 0 1
72.5575 0 1
72.6732 0 1
75.1054 0 1
75.2209 0 1
75.3365 0 1
75.4521 0 1
75.5678 0 1
75.6835 0 1
75.7993 0 1
75.9151 0 1
76.031 0 1
76.147 478 21.8632
76.263 500 22.3607
76.3791 592 24.3311
76.4952 607 24.6374
76.6113 619 24.8797
76.7276 705 26.5518
76.8438 695 26.3629
76.9601 810 28.4605
77.0765 915 30.249
77.1929 1006 31.7175
77.3093 1059 32.5423
77.4258 1110 33.3167
77.5423 1128 33.5857
77.6589 1213 34.8281
77.7755 1176 34.2929
77.8921 1128 33.5857
78.0088 1070 32.7109
78.1256 974 31.209
78.2423 948 30.7896
78.3591 876 29.5973
78.4759 962 31.0161
78.5928 1131 33.6303
78.7097 1178 34.322
78.8266 1254 35.4119
78.9436 1249 35.3412
79.0606 1165 34.1321
79.1776 1246 35.2987
79.2946 1335 36.5377
79.4117 1428 37.7889
79.5288 1384 37.2022
79.6459 1359 36.8646
79.7631 1303 36.0971
79.8802 1301 36.0694
79.9974 1309 36.1801
80.1147 1268 35.609
80.2319 1223 34.9714
80.3491 1207 34.7419
80.4664 1231 35.0856
80.5837 1280 35.7771
80.701 1263 35.5387
80.8183 1385 37.2156
80.9357 1346 36.6879
81.053 1427 37.7757
81.1704 1451 38.092
81.2877 1411 37.5633
81.4051 1427 37.7757
81.5225 1299 36.0416
81.6399 1234 35.1283
81.7573 1188 34.4674
81.8747 1109 33.3017
81.9922 1060 32.5576
82.1096 1076 32.8024
82.227 1128 33.5857
82.3444 1248 35.327
82.4619 1191 34.5109
82.5793 1105 33.2415
82.6967 1020 31.9374
82.8142 957 30.9354
82.9316 928 30.4631
83.049 983 31.3528
83.1664 917 30.282
83.2838 817 28.5832
83.4012 853 29.2062
83.5186 794 28.178
83.636 796 28.2135
83.7534 721 26.8514
83.8708 683 26.1343
83.9881 581 24.1039
84.1055 564 23.7487
84.2228 551 23.4734
84.3401 578 24.0416
84.4575 597 24.4336
84.5747 671 25.9037
84.692 585 24.1868
84.8093 679 26.0576
84.9265 686 26.1916
85.0437 670 25.8844
85.1609 618 24.8596
85.2781 558 23.622
85.3952 573 23.9374
85.5123 500 22.3607
85.6294 485 22.0227
85.7465 511 22.6053
85.8636 600 24.4949
85.9806 594 24.3721
86.0976 634 25.1794
86.2145 666 25.807
86.3315 660 25.6905
86.4484 698 26.4197
86.5652 680 26.0768
86.682 659 25.671
86.7988 643 25.3574
86.9156 668 25.8457
87.0323 632 25.1396
87.149 620 24.8998
87.2657 595 24.3926
87.3823 565 23.7697
87.4988 477 21.8403
87.6154 423 20.567
87.7318 410 20.2485
87.8483 451 21.2368
87.9647 419 20.4695
88.081 519 22.7816
88.1973 483 21.9773
88.3136 461 21.4709
88.4298 504 22.4499
88.546 447 21.1424
88.6621 439 20.9523
88.7781 347 18.6279
88.8942 0 1
89.0101 0 1
89.126 0 1
89.2419 0 1
89.3577 0 1
89.4734 0 1
89.5891 0 1
89.7047 0 1
89.8203 0 1
89.9358 0 1
92.3269 0 1
92.4424 0 1
92.558 0 1
92.6736 0 1
92.7893 0 1
92.905 0 1
93.0208 0 1
93.1366 0 1
93.2525 0 1
93.3685 0 1
93.4845 0 1
93.6005 630 25.0998
93.7167 698 26.4197
93.8328 743 27.258
93.949 786 28.0357
94.0653 820 28.6356
94.1816 840 28.9828
94.2979 878 29.6311
94.4143 924 30.3974
94.5307 795 28.1957
94.6472 749 27.3679
94.7637 758 27.5318
94.8803 777 27.8747
94.9969 808 28.4253
95.1135 963 31.0322
95.2302 1067 32.665
95.3469 1018 31.9061
95.4637 1156 34
95.5805 1155 33.9853
95.6973 1103 33.2114
95.8142 1177 34.3074
95.9311 1131 33.6303
96.048 1176 34.2929
96.1649 1122 33.4963
96.2819 1147 33.8674
96.3989 1072 32.7414
96.516 965 31.0644
96.633 797 28.2312
96.7501 696 26.3818
96.8673 712 26.6833
96.9844 821 28.6531
97.1016 957 30.9354
97.2188 1059 32.5423
97.336 1079 32.8481
97.4532 1113 33.3617
97.5704 1151 33.9264
97.6877 1124 33.5261
97.805 1140 33.7639
97.9223 1232 35.0999
98.0396 1176 34.2929
98.1569 1018 31.9061
98.2743 956 30.9192
98.3916 917 30.282
98.509 768 27.7128
98.6264 794 28.178
98.7438 824 28.7054
98.8612 808 28.4253
98.9786 867 29.4449
99.096 804 28.3549
99.2134 799 28.2666
99.3308 818 28.6007
99.4482 796 28.2135
99.5656 764 27.6405
99.6831 751 27.4044
99.8005 752 27.4226
99.9179 701 26.4764
100.035 662 25.7294
100.153 701 26.4764
100.27 594 24.3721
100.388 623 24.96
100.505 597 24.4336
100.622 563 23.7276
100.74 610 24.6982
100.857 561 23.6854
100.975 686 26.1916
101.092 710 26.6458
101.209 694 26.3439
101.327 666 25.807
101.444 682 26.1151
101.561 681 26.096
101.679 607 24.6374
101.796 538 23.1948
101.913 558 23.622
102.03 512 22.6274
102.148 527 22.9565
102.265 520 22.8035
102.382 639 25.2784
102.499 691 26.2869
102.616 631 25.1197
102.733 677 26.0192
102.851 711 26.6646
102.968 706 26.5707
103.085 665 25.7876
103.202 668 25.8457
103.319 669 25.865
103.436 641 25.318
103.552 614 24.779
103.669 624 24.98
103.786 579 24.0624
103.903 546 23.3666
104.02 520 22.8035
104.137 554 23.5372
104.253 542 23.2809
104.37 604 24.5764
104.487 562 23.7065
104.603 709 26.6271
104.72 656 25.6125
104.836 631 25.1197
104.953 579 24.0624
105.069 562 23.7065
105.186 542 23.2809
105.302 470 21.6795
105.418 451 21.2368
105.535 484 22
105.651 430 20.7364
105.767 442 21.0238
105.883 403 20.0749
105.999 412 20.2978
106.115 0 1
106.231 0 1
106.347 0 1
106.463 0 1
106.579 0 1
106.694 0 1
106.81 0 1
106.926 0 1
107.041 0 1
107.157 0 1
109.576 0 1
109.692 0 1
109.807 0 1
109.923 0 1
110.039 0 1
110.155 0 1
110.27 0 1
110.386 0 1
110.502 0 1
110.618 198 14.0712
110.735 244 15.6205
110.851 338 18.3848
110.967 355 18.8414
111.083 462 21.4942
111.199 486 22.0454
111.316 503 22.4277
111.432 513 22.6495
111.549 584 24.1661
111.665 582 24.1247
111.782 538 23.1948
111.898 612 24.7386
112.015 594 24.3721
112.132 548 23.4094
112.248 506 22.4944
112.365 486 22.0454
112.482 421 20.5183
112.599 477 21.8403
112.716 419 20.4695
112.832 440 20.9762
112.949 505 22.4722
113.066 506 22.4944
113.183 541 23.2594
113.3 528 22.9783
113.417 512 22.6274
113.534 558 23.622
113.652 498 22.3159
113.769 501 22.383
113.886 422 20.5426
114.003 445 21.095
114.12 417 20.4206
114.238 422 20.5426
114.355 472 21.7256
114.472 500 22.3607
114.589 532 23.0651
114.707 556 23.5797
114.824 592 24.3311
114.942 608 24.6577
115.059 585 24.1868
115.176 583 24.1454
115.294 563 23.7276
115.411 518 22.7596
115.529 515 22.6936
115.646 527 22.9565
115.764 493 22.2036
115.881 486 22.0454
115.999 445 21.095
116.116 419 20.4695
116.234 430 20.7364
116.351 445 21.095
116.469 461 21.4709
116.586 483 21.9773
116.704 515 22.6936
116.821 533 23.0868
116.939 579 24.0624
117.056 501 22.383
117.174 522 22.8473
117.291 452 21.2603
117.409 446 21.1187
117.526 428 20.6882
117.644 404 20.0998
117.761 405 20.1246
117.879 465 21.5639
117.996 487 22.0681
118.114 489 22.1133
118.231 530 23.0217
118.349 553 23.516
118.466 586 24.2074
118.584 554 23.5372
118.701 540 23.2379
118.819 504 22.4499
118.936 534 23.1084
119.053 506 22.4944
119.171 521 22.8254
119.288 531 23.0434
119.405 497 22.2935
119.523 440 20.9762
119.64 423 20.567
119.757 406 20.1494
119.875 432 20.7846
119.992 403 20.0749
120.109 456 21.3542
120.226 481 21.9317
120.343 480 21.9089
120.46 486 22.0454
120.578 513 22.6495
120.695 546 23.3666
120.812 491 22.1585
120.929 445 21.095
121.046 437 20.9045
121.163 434 20.8327
121.279 390 19.7484
121.396 374 19.3391
121.513 402 20.0499
121.63 439 20.9523
121.747 453 21.2838
121.863 433 20.8087
121.98 436 20.8806
122.097 399 19.975
122.213 425 20.6155
122.33 449 21.1896
122.446 438 20.9284
122.563 417 20.4206
122.679 375 19.3649
122.795 357 18.8944
122.912 313 17.6918
123.028 262 16.1864
123.144 232 15.2315
123.26 209 14.4568
123.377 0 1
123.493 0 1
123.609 0 1
123.725 0 1
123.84 0 1
123.956 0 1
124.072 0 1
124.188 0 1
124.303 0 1
124.419 0 1
126.852 0 1
126.968 0 1
127.083 0 1
127.199 0 1
127.315 0 1
127.431 0 1
127.547 0 1
127.663 0 1
127.779 0 1
127.895 0 1
128.011 0 1
128.127 0 1
128.243 0 1
128.359 472 21.7256
128.476 432 20.7846
128.592 480 21.9089
128.708 474 21.7715
128.825 436 20.8806
128.941 434 20.8327
129.058 463 21.5174
129.174 453 21.2838
129.291 490 22.1359
129.408 595 24.3926
129.524 533 23.0868
129.641 519 22.7816
129.758 550 23.4521
129.875 523 22.8692
129.992 494 22.2261
130.108 503 22.4277
130.225 475 21.7945
130.342 414 20.347
130.459 405 20.1246
130.576 480 21.9089
130.693 437 20.9045
130.81 486 22.0454
130.928 548 23.4094
131.045 556 23.5797
131.162 512 22.6274
131.279 547 23.388
131.396 552 23.4947
131.513 556 23.5797
131.631 538 23.1948
131.748 527 22.9565
131.865 487 22.0681
131.983 498 22.3159
132.1 485 22.0227
132.217 456 21.3542
132.335 450 21.2132
132.452 447 21.1424
132.57 434 20.8327
132.687 514 22.6716
132.804 501 22.383
132.922 490 22.1359
133.039 534 23.1084
133.157 525 22.9129
133.274 538 23.1948
133.392 531 23.0434
133.509 524 22.891
133.627 478 21.8632
133.744 445 21.095
133.862 478 21.8632
133.979 432 20.7846
134.097 459 21.4243
134.214 488 22.0907
134.332 513 22.6495
134.449 517 22.7376
134.567 531 23.0434
134.684 515 22.6936
134.802 531 23.0434
134.919 539 23.2164
135.037 547 23.388
135.154 525 22.9129
135.272 542 23.2809
135.389 502 22.4054
135.507 491 22.1585
135.624 466 21.587
135.742 442 21.0238
135.859 450 21.2132
135.977 426 20.6398
136.094 467 21.6102
136.211 468 21.6333
136.329 495 22.2486
136.446 478 21.8632
136.564 539 23.2164
136.681 529 23
136.798 534 23.1084
136.915 537 23.1733
137.033 535 23.1301
137.15 501 22.383
137.267 469 21.6564
137.384 465 21.5639
137.502 408 20.199
137.619 453 21.2838
137.736 437 20.9045
137.853 463 21.5174
137.97 489 22.1133
138.087 476 21.8174
138.204 512 22.6274
138.321 527 22.9565
138.438 561 23.6854
138.555 525 22.9129
138.672 525 22.9129
138.788 479 21.8861
138.905 496 22.2711
139.022 445 21.095
139.139 438 20.9284
139.255 401 20.025
139.372 355 18.8414
139.488 326 18.0555
139.605 332 18.2209
139.721 297 17.2337
139.838 315 17.7482
139.954 294 17.1464
140.071 297 17.2337
140.187 274 16.5529
140.303 278 16.6733
140.419 244 15.6205
140.535 199 14.1067
140.652 200 14.1421
140.768 0 1
140.884 0 1
141 0 1
141.115 0 1
141.231 0 1
141.347 0 1
141.463 0 1
141.578 0 1
141.694 0 1
144.104 0 1
144.219 0 1
144.335 0 1
144.45 0 1
144.566 0 1
144.682 0 1
144.798 0 1
144.914 0 1
145.03 0 1
145.146 280 16.7332
145.262 358 18.9209
145.378 371 19.2614
145.494 431 20.7605
145.61 395 19.8746
145.726 413 20.3224
145.842 414 20.347
145.959 397 19.9249
146.075 370 19.2354
146.192 347 18.6279
146.308 299 17.2916
146.425 353 18.7883
146.541 333 18.2483
146.658 342 18.4932
146.774 370 19.2354
146.891 372 19.2873
147.008 373 19.3132
147.125 363 19.0526
147.241 372 19.2873
147.358 405 20.1246
147.475 390 19.7484
147.592 396 19.8997
147.709 372 19.2873
147.826 351 18.735
147.943 348 18.6548
148.06 355 18.8414
148.177 316 17.7764
148.294 341 18.4662
148.411 359 18.9473
148.528 323 17.9722
148.645 369 19.2094
148.762 380 19.4936
148.88 372 19.2873
148.997 393 19.8242
149.114 408 20.199
149.231 409 20.2237
149.349 364 19.0788
149.466 384 19.5959
149.583 384 19.5959
149.701 352 18.7617
149.818 335 18.303
149.935 320 17.8885
150.053 300 17.3205
150.17 329 18.1384
150.287 350 18.7083
150.405 360 18.9737
150.522 376 19.3907
150.64 389 19.7231
150.757 365 19.105
150.875 398 19.9499
150.992 359 18.9473
151.11 410 20.2485
151.227 414 20.347
151.344 364 19.0788
151.462 370 19.2354
151.579 376 19.3907
151.697 363 19.0526
151.814 329 18.1384
151.932 358 18.9209
152.049 322 17.9444
152.167 333 18.2483
152.284 341 18.4662
152.402 359 18.9473
152.519 370 19.2354
152.636 374 19.3391
152.754 374 19.3391
152.871 399 19.975
152.989 365 19.105
153.106 388 19.6977
153.223 370 19.2354
153.341 301 17.3494
153.458 329 18.1384
153.575 338 18.3848
153.693 343 18.5203
153.81 309 17.5784
153.927 353 18.7883
154.044 368 19.1833
154.162 364 19.0788
154.279 368 19.1833
154.396 349 18.6815
154.513 411 20.2731
154.63 389 19.7231
154.747 364 19.0788
154.864 425 20.6155
154.981 349 18.6815
155.098 385 19.6214
155.215 346 18.6011
155.332 328 18.1108
155.449 314 17.72
155.566 313 17.6918
155.683 317 17.8045
155.8 309 17.5784
155.917 303 17.4069
156.033 275 16.5831
156.15 0 1
156.267 0 1
156.383 0 1
156.5 0 1
156.617 0 1
156.733 0 1
156.85 0 1
156.966 0 1
157.082 0 1
157.199 0 1
157.315 0 1
157.431 0 1
157.547 0 1
157.664 0 1
157.78 0 1
157.896 0 1
158.012 0 1
158.128 0 1
158.244 0 1
158.359 0 1
158.475 0 1
158.591 0 1
158.706 0 1
