
6.15755 0 1
6.2731 0 1
6.3887 0 1
6.50437 0 1
6.62009 0 1
6.73587 0 1
6.8517 0 1
6.96759 0 1
7.08353 0 1
7.19952 0 1
7.31557 0 1
7.43166 0 1
7.54781 0 1
7.664 0 1
7.78024 0 1
7.89653 0 1
8.01286 0 1
8.12924 0 1
8.24567 0 1
8.36213 0 1
8.47864 0 1
8.59519 0 1
8.71178 0 1
8.82841 0 1
8.94508 0 1
9.06179 0 1
9.17853 0 1
9.29531 0 1
9.41212 0 1
9.52897 0 1
9.64584 0 1
9.76276 0 1
9.8797 0 1
9.99667 0 1
10.1137 0 1
10.2307 0 1
10.3478 0 1
10.4648 0 1
10.5819 0 1
10.6991 0 1
10.8162 0 1
10.9334 0 1
11.0506 0 1
11.1678 0 1
11.285 0 1
11.4023 0 1
11.5196 0 1
11.6369 0 1
11.7542 0 1
11.8715 0 1
11.9888 0 1
12.1062 0 1
12.2235 0 1
12.3409 0 1
12.4582 0 1
12.5756 0 1
12.693 0 1
12.8104 0 1
12.9278 0 1
13.0452 0 1
13.1626 0 1
13.28 0 1
13.3974 0 1
13.5149 0 1
13.6323 0 1
13.7497 0 1
13.8671 0 1
13.9845 0 1
14.1019 0 1
14.2193 0 1
14.3367 0 1
14.4541 0 1
14.5714 0 1
14.6888 0 1
14.8062 0 1
14.9235 0 1
15.0408 0 0
15.1581 0 0
15.2755 0 0
15.3927 0 0
15.51 0 0
15.6273 0 0
15.7445 0 0
15.8617 0 0
15.9789 0 0
16.0961 0 0
16.2132 0 0
16.3304 0 0
16.4475 0 0
16.5646 0 0
16.6816 0 0
16.7986 0 0
16.9156 0 0
17.0326 0 0
17.1496 0 0
17.2665 0 0
17.3833 0 0
17.5002 0 0
17.617 0 0
17.7338 0 0
17.8505 0 0
17.9672 0 0
18.0839 0 0
18.2005 0 0
18.3171 0 0
18.4337 0 0
18.5502 0 0
18.6666 0 0
18.7831 0 0
18.8994 0 0
19.0158 0 0
19.1321 0 0
19.2483 0 0
19.3645 0 0
19.4806 0 0
19.5967 0 0
19.7128 0 0
19.8288 0 0
19.9447 0 0
20.0606 0 1
20.1764 0 1
20.2922 0 1
20.4079 0 1
20.5236 0 1
20.6392 0 1
20.7548 0 1
20.8702 0 1
23.3078 0 1
23.4233 0 1
23.539 0 1
23.6547 0 1
23.7704 0 1
23.8862 0 1
24.0021 0 1
24.118 0 1
24.234 0 1
24.35 0 1
24.4661 860 29.3258
24.5822 834 28.8791
24.6984 837 28.931
24.8146 843 29.0345
24.9309 874 29.5635
25.0472 901 30.0167
25.1636 909 30.1496
25.28 942 30.692
25.3965 958 30.9516
25.513 928 30.4631
25.6296 1019 31.9218
25.7462 921 30.348
25.8628 954 30.8869
25.9795 937 30.6105
26.0962 974 31.209
26.213 935 30.5778
26.3298 955 30.9031
26.4466 945 30.7409
26.5635 968 31.1127
26.6804 890 29.8329
26.7973 841 29
26.9143 827 28.7576
27.0313 805 28.3725
27.1483 807 28.4077
27.2653 864 29.3939
27.3824 817 28.5832
27.4996 861 29.3428
27.6167 881 29.6816
27.7339 803 28.3373
27.8511 809 28.4429
27.9683 746 27.313
28.0855 769 27.7308
28.2028 800 28.2843
28.3201 841 29
28.4374 823 28.688
28.5547 836 28.9137
28.6721 889 29.8161
28.7894 840 28.9828
28.9068 906 30.0998
29.0242 905 30.0832
29.1416 874 29.5635
29.259 884 29.7321
29.3764 870 29.4958
29.4939 872 29.5296
29.6113 818 28.6007
29.7288 881 29.6816
29.8463 893 29.8831
29.9638 850 29.1548
30.0812 857 29.2746
30.1987 822 28.6705
30.3162 860 29.3258
30.4337 827 28.7576
30.5512 735 27.1109
30.6687 708 26.6083
30.7862 772 27.7849
30.9037 771 27.7669
31.0212 804 28.3549
31.1387 790 28.1069
31.2562 771 27.7669
31.3737 815 28.5482
31.4912 739 27.1846
31.6087 752 27.4226
31.7262 761 27.5862
31.8436 720 26.8328
31.9611 791 28.1247
32.0785 791 28.1247
32.1959 827 28.7576
32.3134 816 28.5657
32.4308 901 30.0167
32.5482 907 30.1164
32.6655 881 29.6816
32.7829 878 29.6311
32.9002 859 29.3087
33.0176 864 29.3939
33.1349 840 28.9828
33.2522 897 29.95
33.3694 848 29.1204
33.4867 880 29.6648
33.6039 886 29.7658
33.7211 879 29.6479
33.8383 844 29.0517
33.9554 800 28.2843
34.0725 793 28.1603
34.1896 739 27.1846
34.3067 741 27.2213
34.4237 743 27.258
34.5407 704 26.533
34.6577 762 27.6043
34.7746 818 28.6007
34.8915 792 28.1425
35.0084 742 27.2397
35.1252 742 27.2397
35.242 740 27.2029
35.3587 747 27.3313
35.4755 765 27.6586
35.5921 742 27.2397
35.7088 837 28.931
35.8254 835 28.8964
35.9419 817 28.5832
36.0584 816 28.5657
36.1749 899 29.9833
36.2913 873 29.5466
36.4077 877 29.6142
36.524 809 28.4429
36.6403 887 29.7825
36.7565 792 28.1425
36.8727 848 29.1204
36.9889 794 28.178
37.1049 834 28.8791
37.221 0 1
37.3369 0 1
37.4529 0 1
37.5687 0 1
37.6845 0 1
37.8003 0 1
37.916 0 1
38.0316 0 1
38.1472 0 1
40.5851 0 1
40.7008 0 1
40.8164 0 1
40.9322 0 1
41.048 0 1
41.1639 0 1
41.2798 0 1
41.3958 0 1
41.5118 0 1
41.6279 0 1
41.744 685 26.1725
41.8602 734 27.0924
41.9765 738 27.1662
42.0928 671 25.9037
42.2091 707 26.5895
42.3255 686 26.1916
42.4419 697 26.4008
42.5584 714 26.7208
42.675 684 26.1534
42.7915 727 26.9629
42.9081 726 26.9444
43.0248 614 24.779
43.1415 621 24.9199
43.2582 601 24.5153
43.375 650 25.4951
43.4918 699 26.4386
43.6087 655 25.593
43.7256 641 25.318
43.8425 609 24.6779
43.9595 633 25.1595
44.0765 670 25.8844
44.1935 575 23.9792
44.3106 616 24.8193
44.4277 593 24.3516
44.5448 615 24.7992
44.6619 655 25.593
44.7791 597 24.4336
44.8963 642 25.3377
45.0136 639 25.2784
45.1308 619 24.8797
45.2481 630 25.0998
45.3654 614 24.779
45.4827 585 24.1868
45.6001 599 24.4745
45.7174 586 24.2074
45.8348 603 24.5561
45.9522 552 23.4947
46.0697 626 25.02
46.1871 536 23.1517
46.3046 571 23.8956
46.422 569 23.8537
46.5395 561 23.6854
46.657 495 22.2486
46.7745 469 21.6564
46.892 444 21.0713
47.0096 448 21.166
47.1271 483 21.9773
47.2446 472 21.7256
47.3622 406 20.1494
47.4797 432 20.7846
47.5973 427 20.664
47.7149 440 20.9762
47.8324 491 22.1585
47.95 443 21.0476
48.0675 491 22.1585
48.1851 487 22.0681
48.3027 474 21.7715
48.4202 503 22.4277
48.5378 455 21.3307
48.6554 485 22.0227
48.7729 443 21.0476
48.8904 433 20.8087
49.008 500 22.3607
49.1255 465 21.5639
49.243 448 21.166
49.3605 483 21.9773
49.478 471 21.7025
49.5955 480 21.9089
49.713 497 22.2935
49.8304 515 22.6936
49.9479 458 21.4009
50.0653 494 22.2261
50.1827 488 22.0907
50.3001 427 20.664
50.4175 436 20.8806
50.5348 450 21.2132
50.6521 454 21.3073
50.7694 500 22.3607
50.8867 528 22.9783
51.004 495 22.2486
51.1212 493 22.2036
51.2384 519 22.7816
51.3556 524 22.891
51.4727 546 23.3666
51.5899 600 24.4949
51.707 578 24.0416
51.824 585 24.1868
51.9411 640 25.2982
52.0581 672 25.923
52.175 588 24.2487
52.2919 581 24.1039
52.4088 613 24.7588
52.5257 616 24.8193
52.6425 629 25.0799
52.7593 621 24.9199
52.876 658 25.6515
52.9927 674 25.9615
53.1094 658 25.6515
53.226 618 24.8596
53.3426 696 26.3818
53.4591 626 25.02
53.5756 632 25.1396
53.692 632 25.1396
53.8084 597 24.4336
53.9248 565 23.7697
54.0411 502 22.4054
54.1573 538 23.1948
54.2735 0 1
54.3896 0 1
54.5057 0 1
54.6217 0 1
54.7377 0 1
54.8537 0 1
54.9695 0 1
55.0853 0 1
55.2011 0 1
55.3168 0 1
55.4324 0 1
57.824 0 1
57.9396 0 1
58.0553 0 1
58.1711 0 1
58.2869 0 1
58.4028 0 1
58.5187 0 1
58.6347 0 1
58.7508 0 1
58.8669 0 1
58.983 675 25.9808
59.0992 664 25.7682
59.2155 594 24.3721
59.3318 612 24.7386
59.4482 624 24.98
59.5646 617 24.8395
59.681 640 25.2982
59.7975 676 26
59.9141 684 26.1534
60.0306 710 26.6458
60.1473 711 26.6646
60.2639 697 26.4008
60.3807 688 26.2298
60.4974 682 26.1151
60.6142 678 26.0384
60.731 659 25.671
60.8479 618 24.8596
60.9648 637 25.2389
61.0818 665 25.7876
61.1987 679 26.0576
61.3158 633 25.1595
61.4328 644 25.3772
61.5499 660 25.6905
61.667 681 26.096
61.7841 650 25.4951
61.9013 705 26.5518
62.0185 619 24.8797
62.1357 643 25.3574
62.253 657 25.632
62.3702 639 25.2784
62.4875 616 24.8193
62.6049 552 23.4947
62.7222 555 23.5584
62.8396 550 23.4521
62.9569 566 23.7908
63.0743 571 23.8956
63.1918 577 24.0208
63.3092 564 23.7487
63.4267 599 24.4745
63.5441 610 24.6982
63.6616 630 25.0998
63.7791 612 24.7386
63.8966 623 24.96
64.0142 575 23.9792
64.1317 614 24.779
64.2492 564 23.7487
64.3668 559 23.6432
64.4843 606 24.6171
64.6019 571 23.8956
64.7195 573 23.9374
64.837 549 23.4307
64.9546 555 23.5584
65.0722 563 23.7276
65.1898 601 24.5153
65.3074 577 24.0208
65.4249 556 23.5797
65.5425 534 23.1084
65.6601 546 23.3666
65.7777 574 23.9583
65.8952 597 24.4336
66.0128 558 23.622
66.1304 561 23.6854
66.2479 485 22.0227
66.3655 490 22.1359
66.483 455 21.3307
66.6005 516 22.7156
66.718 506 22.4944
66.8355 506 22.4944
66.953 541 23.2594
67.0705 551 23.4734
67.1879 514 22.6716
67.3054 558 23.622
67.4228 578 24.0416
67.5402 517 22.7376
67.6576 549 23.4307
67.7749 533 23.0868
67.8923 533 23.0868
68.0096 517 22.7376
68.1269 531 23.0434
68.2442 517 22.7376
68.3614 508 22.5389
68.4787 523 22.8692
68.5958 511 22.6053
68.713 540 23.2379
68.8302 531 23.0434
68.9473 558 23.622
69.0643 496 22.2711
69.1814 524 22.891
69.2984 531 23.0434
69.4154 563 23.7276
69.5323 488 22.0907
69.6492 561 23.6854
69.7661 546 23.3666
69.8829 485 22.0227
69.9997 421 20.5183
70.1165 420 20.4939
70.2332 484 22
70.3499 427 20.664
70.4665 481 21.9317
70.5831 483 21.9773
70.6996 493 22.2036
70.8161 482 21.9545
70.9326 483 21.9773
71.049 494 22.2261
71.1653 502 22.4054
71.2817 454 21.3073
71.3979 474 21.7715
71.5141 422 20.5426
71.6303 470 21.6795
71.7464 400 20
71.8624 0 1
71.9784 0 1
72.0944 0 1
72.2102 0 1
72.3261 0 1
72.4418 0 1
72.5575 0 1
72.6732 0 1
75.1054 0 1
75.2209 0 1
75.3365 0 1
75.4521 0 1
75.5678 0 1
75.6835 0 1
75.7993 0 1
75.9151 0 1
76.031 0 1
76.147 360 18.9737
76.263 379 19.4679
76.3791 411 20.2731
76.4952 370 19.2354
76.6113 367 19.1572
76.7276 366 19.1311
76.8438 383 19.5704
76.9601 357 18.8944
77.0765 366 19.1311
77.1929 352 18.7617
77.3093 358 18.9209
77.4258 360 18.9737
77.5423 354 18.8149
77.6589 386 19.6469
77.7755 356 18.868
77.8921 313 17.6918
78.0088 342 18.4932
78.1256 347 18.6279
78.2423 345 18.5742
78.3591 318 17.8326
78.4759 352 18.7617
78.5928 320 17.8885
78.7097 307 17.5214
78.8266 325 18.0278
78.9436 278 16.6733
79.0606 243 15.5885
79.1776 207 14.3875
79.2946 202 14.2127
79.4117 259 16.0935
79.5288 281 16.7631
79.6459 258 16.0624
79.7631 287 16.9411
79.8802 267 16.3401
79.9974 248 15.748
80.1147 242 15.5563
80.2319 239 15.4596
80.3491 245 15.6525
80.4664 220 14.8324
80.5837 226 15.0333
80.701 232 15.2315
80.8183 201 14.1774
80.9357 214 14.6287
81.053 223 14.9332
81.1704 201 14.1774
81.2877 206 14.3527
81.4051 200 14.1421
81.5225 181 13.4536
81.6399 197 14.0357
81.7573 176 13.2665
81.8747 157 12.53
81.9922 135 11.619
82.1096 172 13.1149
82.227 155 12.4499
82.3444 151 12.2882
82.4619 136 11.6619
82.5793 160 12.6491
82.6967 141 11.8743
82.8142 137 11.7047
82.9316 99 9.94987
83.049 126 11.225
83.1664 113 10.6301
83.2838 116 10.7703
83.4012 115 10.7238
83.5186 117 10.8167
83.636 91 9.53939
83.7534 101 10.0499
83.8708 101 10.0499
83.9881 88 9.38083
84.1055 94 9.69536
84.2228 84 9.16515
84.3401 70 8.3666
84.4575 77 8.77496
84.5747 90 9.48683
84.692 73 8.544
84.8093 76 8.7178
84.9265 77 8.77496
85.0437 69 8.30662
85.1609 69 8.30662
85.2781 64 8
85.3952 79 8.88819
85.5123 79 8.88819
85.6294 70 8.3666
85.7465 75 8.66025
85.8636 76 8.7178
85.9806 66 8.12404
86.0976 50 7.07107
86.2145 50 7.07107
86.3315 51 7.14143
86.4484 81 9
86.5652 80 8.94427
86.682 89 9.43398
86.7988 85 9.21954
86.9156 95 9.74679
87.0323 106 10.2956
87.149 85 9.21954
87.2657 125 11.1803
87.3823 104 10.198
87.4988 98 9.89949
87.6154 112 10.583
87.7318 103 10.1489
87.8483 128 11.3137
87.9647 140 11.8322
88.081 134 11.5758
88.1973 142 11.9164
88.3136 159 12.6095
88.4298 148 12.1655
88.546 168 12.9615
88.6621 165 12.8452
88.7781 171 13.0767
88.8942 0 1
89.0101 0 1
89.126 0 1
89.2419 0 1
89.3577 0 1
89.4734 0 1
89.5891 0 1
89.7047 0 1
89.8203 0 1
89.9358 0 1
92.3269 0 1
92.4424 0 1
92.558 0 1
92.6736 0 1
92.7893 0 1
92.905 0 1
93.0208 0 1
93.1366 0 1
93.2525 0 1
93.3685 0 1
93.4845 0 1
93.6005 256 16
93.7167 270 16.4317
93.8328 249 15.7797
93.949 257 16.0312
94.0653 231 15.1987
94.1816 202 14.2127
94.2979 253 15.906
94.4143 229 15.1327
94.5307 228 15.0997
94.6472 205 14.3178
94.7637 199 14.1067
94.8803 209 14.4568
94.9969 191 13.8203
95.1135 195 13.9642
95.2302 202 14.2127
95.3469 202 14.2127
95.4637 150 12.2474
95.5805 149 12.2066
95.6973 199 14.1067
95.8142 247 15.7162
95.9311 234 15.2971
96.048 245 15.6525
96.1649 265 16.2788
96.2819 263 16.2173
96.3989 246 15.6844
96.516 249 15.7797
96.633 256 16
96.7501 257 16.0312
96.8673 293 17.1172
96.9844 305 17.4642
97.1016 303 17.4069
97.2188 307 17.5214
97.336 297 17.2337
97.4532 311 17.6352
97.5704 297 17.2337
97.6877 361 19
97.805 330 18.1659
97.9223 323 17.9722
98.0396 356 18.868
98.1569 336 18.3303
98.2743 367 19.1572
98.3916 374 19.3391
98.509 386 19.6469
98.6264 378 19.4422
98.7438 389 19.7231
98.8612 382 19.5448
98.9786 300 17.3205
99.096 279 16.7033
99.2134 271 16.4621
99.3308 335 18.303
99.4482 397 19.9249
99.5656 485 22.0227
99.6831 437 20.9045
99.8005 488 22.0907
99.9179 455 21.3307
100.035 435 20.8567
100.153 455 21.3307
100.27 479 21.8861
100.388 477 21.8403
100.505 461 21.4709
100.622 477 21.8403
100.74 506 22.4944
100.857 485 22.0227
100.975 534 23.1084
101.092 526 22.9347
101.209 505 22.4722
101.327 543 23.3024
101.444 527 22.9565
101.561 555 23.5584
101.679 554 23.5372
101.796 525 22.9129
101.913 548 23.4094
102.03 563 23.7276
102.148 548 23.4094
102.265 538 23.1948
102.382 505 22.4722
102.499 528 22.9783
102.616 416 20.3961
102.733 379 19.4679
102.851 455 21.3307
102.968 534 23.1084
103.085 524 22.891
103.202 526 22.9347
103.319 557 23.6008
103.436 540 23.2379
103.552 603 24.5561
103.669 565 23.7697
103.786 567 23.8118
103.903 530 23.0217
104.02 538 23.1948
104.137 558 23.622
104.253 548 23.4094
104.37 573 23.9374
104.487 583 24.1454
104.603 568 23.8328
104.72 590 24.2899
104.836 561 23.6854
104.953 567 23.8118
105.069 572 23.9165
105.186 613 24.7588
105.302 581 24.1039
105.418 620 24.8998
105.535 595 24.3926
105.651 571 23.8956
105.767 587 24.2281
105.883 544 23.3238
105.999 510 22.5832
106.115 0 1
106.231 0 1
106.347 0 1
106.463 0 1
106.579 0 1
106.694 0 1
106.81 0 1
106.926 0 1
107.041 0 1
107.157 0 1
109.576 0 1
109.692 0 1
109.807 0 1
109.923 0 1
110.039 0 1
110.155 0 1
110.27 0 1
110.386 0 1
110.502 0 1
110.618 461 21.4709
110.735 439 20.9523
110.851 442 21.0238
110.967 424 20.5913
111.083 414 20.347
111.199 378 19.4422
111.316 351 18.735
111.432 363 19.0526
111.549 413 20.3224
111.665 450 21.2132
111.782 458 21.4009
111.898 420 20.4939
112.015 434 20.8327
112.132 381 19.5192
112.248 407 20.1742
112.365 448 21.166
112.482 394 19.8494
112.599 366 19.1311
112.716 352 18.7617
112.832 400 20
112.949 346 18.6011
113.066 387 19.6723
113.183 370 19.2354
113.3 399 19.975
113.417 347 18.6279
113.534 328 18.1108
113.652 354 18.8149
113.769 366 19.1311
113.886 377 19.4165
114.003 338 18.3848
114.12 334 18.2757
114.238 314 17.72
114.355 330 18.1659
114.472 324 18
114.589 326 18.0555
114.707 294 17.1464
114.824 279 16.7033
114.942 283 16.8226
115.059 331 18.1934
115.176 332 18.2209
115.294 326 18.0555
115.411 363 19.0526
115.529 313 17.6918
115.646 318 17.8326
115.764 335 18.303
115.881 353 18.7883
115.999 310 17.6068
116.116 320 17.8885
116.234 286 16.9115
116.351 315 17.7482
116.469 306 17.4929
116.586 316 17.7764
116.704 313 17.6918
116.821 340 18.4391
116.939 354 18.8149
117.056 307 17.5214
117.174 306 17.4929
117.291 330 18.1659
117.409 324 18
117.526 335 18.303
117.644 317 17.8045
117.761 313 17.6918
117.879 294 17.1464
117.996 243 15.5885
118.114 236 15.3623
118.231 290 17.0294
118.349 310 17.6068
118.466 319 17.8606
118.584 309 17.5784
118.701 309 17.5784
118.819 307 17.5214
118.936 302 17.3781
119.053 323 17.9722
119.171 335 18.303
119.288 303 17.4069
119.405 320 17.8885
119.523 344 18.5472
119.64 316 17.7764
119.757 308 17.5499
119.875 304 17.4356
119.992 325 18.0278
120.109 333 18.2483
120.226 341 18.4662
120.343 299 17.2916
120.46 341 18.4662
120.578 333 18.2483
120.695 305 17.4642
120.812 357 18.8944
120.929 326 18.0555
121.046 324 18
121.163 366 19.1311
121.279 337 18.3576
121.396 339 18.412
121.513 316 17.7764
121.63 274 16.5529
121.747 239 15.4596
121.863 249 15.7797
121.98 271 16.4621
122.097 317 17.8045
122.213 342 18.4932
122.33 339 18.412
122.446 314 17.72
122.563 359 18.9473
122.679 348 18.6548
122.795 397 19.9249
122.912 368 19.1833
123.028 318 17.8326
123.144 339 18.412
123.26 355 18.8414
123.377 0 1
123.493 0 1
123.609 0 1
123.725 0 1
123.84 0 1
123.956 0 1
124.072 0 1
124.188 0 1
124.303 0 1
124.419 0 1
126.852 0 1
126.968 0 1
127.083 0 1
127.199 0 1
127.315 0 1
127.431 0 1
127.547 0 1
127.663 0 1
127.779 0 1
127.895 0 1
128.011 0 1
128.127 0 1
128.243 0 1
128.359 419 20.4695
128.476 457 21.3776
128.592 464 21.5407
128.708 476 21.8174
128.825 476 21.8174
128.941 506 22.4944
129.058 478 21.8632
129.174 451 21.2368
129.291 478 21.8632
129.408 470 21.6795
129.524 503 22.4277
129.641 477 21.8403
129.758 444 21.0713
129.875 512 22.6274
129.992 458 21.4009
130.108 456 21.3542
130.225 420 20.4939
130.342 411 20.2731
130.459 390 19.7484
130.576 403 20.0749
130.693 338 18.3848
130.81 309 17.5784
130.928 331 18.1934
131.045 397 19.9249
131.162 497 22.2935
131.279 484 22
131.396 514 22.6716
131.513 499 22.3383
131.631 489 22.1133
131.748 499 22.3383
131.865 488 22.0907
131.983 471 21.7025
132.1 504 22.4499
132.217 541 23.2594
132.335 524 22.891
132.452 480 21.9089
132.57 505 22.4722
132.687 481 21.9317
132.804 521 22.8254
132.922 513 22.6495
133.039 458 21.4009
133.157 521 22.8254
133.274 517 22.7376
133.392 535 23.1301
133.509 507 22.5167
133.627 499 22.3383
133.744 485 22.0227
133.862 463 21.5174
133.979 426 20.6398
134.097 438 20.9284
134.214 400 20
134.332 364 19.0788
134.449 366 19.1311
134.567 416 20.3961
134.684 489 22.1133
134.802 518 22.7596
134.919 517 22.7376
135.037 494 22.2261
135.154 533 23.0868
135.272 543 23.3024
135.389 534 23.1084
135.507 547 23.388
135.624 564 23.7487
135.742 534 23.1084
135.859 529 23
135.977 566 23.7908
136.094 535 23.1301
136.211 528 22.9783
136.329 572 23.9165
136.446 554 23.5372
136.564 567 23.8118
136.681 527 22.9565
136.798 537 23.1733
136.915 531 23.0434
137.033 560 23.6643
137.15 564 23.7487
137.267 516 22.7156
137.384 595 24.3926
137.502 510 22.5832
137.619 452 21.2603
137.736 463 21.5174
137.853 454 21.3073
137.97 435 20.8567
138.087 470 21.6795
138.204 443 21.0476
138.321 472 21.7256
138.438 510 22.5832
138.555 572 23.9165
138.672 567 23.8118
138.788 584 24.1661
138.905 622 24.9399
139.022 614 24.779
139.139 610 24.6982
139.255 635 25.1992
139.372 617 24.8395
139.488 614 24.779
139.605 637 25.2389
139.721 611 24.7184
139.838 619 24.8797
139.954 658 25.6515
140.071 591 24.3105
140.187 610 24.6982
140.303 601 24.5153
140.419 603 24.5561
140.535 617 24.8395
140.652 615 24.7992
140.768 0 1
140.884 0 1
141 0 1
141.115 0 1
141.231 0 1
141.347 0 1
141.463 0 1
141.578 0 1
141.694 0 1
144.104 0 1
144.219 0 1
144.335 0 1
144.45 0 1
144.566 0 1
144.682 0 1
144.798 0 1
144.914 0 1
145.03 0 1
145.146 617 24.8395
145.262 600 24.4949
145.378 588 24.2487
145.494 595 24.3926
145.61 564 23.7487
145.726 560 23.6643
145.842 573 23.9374
145.959 566 23.7908
146.075 513 22.6495
146.192 560 23.6643
146.308 487 22.0681
146.425 472 21.7256
146.541 464 21.5407
146.658 469 21.6564
146.774 467 21.6102
146.891 505 22.4722
147.008 515 22.6936
147.125 497 22.2935
147.241 564 23.7487
147.358 593 24.3516
147.475 613 24.7588
147.592 573 23.9374
147.709 594 24.3721
147.826 608 24.6577
147.943 552 23.4947
148.06 598 24.454
148.177 575 23.9792
148.294 607 24.6374
148.411 595 24.3926
148.528 550 23.4521
148.645 576 24
148.762 589 24.2693
148.88 561 23.6854
148.997 534 23.1084
149.114 572 23.9165
149.231 578 24.0416
149.349 521 22.8254
149.466 542 23.2809
149.583 549 23.4307
149.701 502 22.4054
149.818 499 22.3383
149.935 493 22.2036
150.053 489 22.1133
150.17 455 21.3307
150.287 456 21.3542
150.405 451 21.2368
150.522 501 22.383
150.64 495 22.2486
150.757 546 23.3666
150.875 562 23.7065
150.992 511 22.6053
151.11 583 24.1454
151.227 577 24.0208
151.344 647 25.4362
151.462 592 24.3311
151.579 595 24.3926
151.697 624 24.98
151.814 572 23.9165
151.932 588 24.2487
152.049 584 24.1661
152.167 608 24.6577
152.284 562 23.7065
152.402 587 24.2281
152.519 622 24.9399
152.636 589 24.2693
152.754 586 24.2074
152.871 576 24
152.989 594 24.3721
153.106 568 23.8328
153.223 566 23.7908
153.341 529 23
153.458 518 22.7596
153.575 533 23.0868
153.693 510 22.5832
153.81 535 23.1301
153.927 522 22.8473
154.044 513 22.6495
154.162 528 22.9783
154.279 571 23.8956
154.396 580 24.0832
154.513 587 24.2281
154.63 608 24.6577
154.747 592 24.3311
154.864 640 25.2982
154.981 619 24.8797
155.098 615 24.7992
155.215 670 25.8844
155.332 610 24.6982
155.449 635 25.1992
155.566 657 25.632
155.683 644 25.3772
155.8 605 24.5967
155.917 603 24.5561
156.033 651 25.5147
156.15 0 1
156.267 0 1
156.383 0 1
156.5 0 1
156.617 0 1
156.733 0 1
156.85 0 1
156.966 0 1
157.082 0 1
157.199 0 1
157.315 0 1
157.431 0 1
157.547 0 1
157.664 0 1
157.78 0 1
157.896 0 1
158.012 0 1
158.128 0 1
158.244 0 1
158.359 0 1
158.475 0 1
158.591 0 1
158.706 0 1
