
6.15755 0 1
6.2731 0 1
6.3887 0 1
6.50437 0 1
6.62009 0 1
6.73587 0 1
6.8517 0 1
6.96759 0 1
7.08353 0 1
7.19952 0 1
7.31557 0 1
7.43166 0 1
7.54781 0 1
7.664 0 1
7.78024 0 1
7.89653 0 1
8.01286 0 1
8.12924 0 1
8.24567 0 1
8.36213 0 1
8.47864 0 1
8.59519 0 1
8.71178 0 1
8.82841 0 1
8.94508 0 1
9.06179 0 1
9.17853 0 1
9.29531 0 1
9.41212 0 1
9.52897 0 1
9.64584 0 1
9.76276 0 1
9.8797 0 1
9.99667 0 1
10.1137 0 1
10.2307 0 1
10.3478 0 1
10.4648 0 1
10.5819 0 1
10.6991 0 1
10.8162 0 1
10.9334 0 1
11.0506 0 1
11.1678 0 1
11.285 0 1
11.4023 0 1
11.5196 0 1
11.6369 0 1
11.7542 0 1
11.8715 0 1
11.9888 0 1
12.1062 0 1
12.2235 0 1
12.3409 0 1
12.4582 0 1
12.5756 0 1
12.693 0 1
12.8104 0 1
12.9278 0 1
13.0452 0 1
13.1626 0 1
13.28 0 1
13.3974 0 1
13.5149 0 1
13.6323 0 1
13.7497 0 1
13.8671 0 1
13.9845 0 1
14.1019 0 1
14.2193 0 1
14.3367 0 1
14.4541 0 1
14.5714 0 1
14.6888 0 1
14.8062 0 1
14.9235 0 1
15.0408 0 0
15.1581 0 0
15.2755 0 0
15.3927 0 0
15.51 0 0
15.6273 0 0
15.7445 0 0
15.8617 0 0
15.9789 0 0
16.0961 0 0
16.2132 0 0
16.3304 0 0
16.4475 0 0
16.5646 0 0
16.6816 0 0
16.7986 0 0
16.9156 0 0
17.0326 0 0
17.1496 0 0
17.2665 0 0
17.3833 0 0
17.5002 0 0
17.617 0 0
17.7338 0 0
17.8505 0 0
17.9672 0 0
18.0839 0 0
18.2005 0 0
18.3171 0 0
18.4337 0 0
18.5502 0 0
18.6666 0 0
18.7831 0 0
18.8994 0 0
19.0158 0 0
19.1321 0 0
19.2483 0 0
19.3645 0 0
19.4806 0 0
19.5967 0 0
19.7128 0 0
19.8288 0 0
19.9447 0 0
20.0606 0 1
20.1764 0 1
20.2922 0 1
20.4079 0 1
20.5236 0 1
20.6392 0 1
20.7548 0 1
20.8702 0 1
23.3078 0 1
23.4233 0 1
23.539 0 1
23.6547 0 1
23.7704 0 1
23.8862 0 1
24.0021 0 1
24.118 0 1
24.234 0 1
24.35 0 1
24.4661 842 29.0172
24.5822 902 30.0333
24.6984 941 30.6757
24.8146 870 29.4958
24.9309 960 30.9839
25.0472 905 30.0832
25.1636 1004 31.686
25.28 982 31.3369
25.3965 954 30.8869
25.513 927 30.4467
25.6296 962 31.0161
25.7462 934 30.5614
25.8628 973 31.1929
25.9795 992 31.496
26.0962 963 31.0322
26.213 966 31.0805
26.3298 987 31.4166
26.4466 924 30.3974
26.5635 947 30.7734
26.6804 930 30.4959
26.7973 885 29.7489
26.9143 856 29.2575
27.0313 872 29.5296
27.1483 842 29.0172
27.2653 866 29.4279
27.3824 848 29.1204
27.4996 888 29.7993
27.6167 833 28.8617
27.7339 883 29.7153
27.8511 799 28.2666
27.9683 797 28.2312
28.0855 819 28.6182
28.2028 842 29.0172
28.3201 861 29.3428
28.4374 821 28.6531
28.5547 827 28.7576
28.6721 872 29.5296
28.7894 896 29.9333
28.9068 895 29.9166
29.0242 880 29.6648
29.1416 886 29.7658
29.259 937 30.6105
29.3764 949 30.8058
29.4939 929 30.4795
29.6113 873 29.5466
29.7288 872 29.5296
29.8463 851 29.1719
29.9638 867 29.4449
30.0812 929 30.4795
30.1987 925 30.4138
30.3162 783 27.9821
30.4337 759 27.55
30.5512 766 27.6767
30.6687 766 27.6767
30.7862 780 27.9285
30.9037 811 28.4781
31.0212 760 27.5681
31.1387 875 29.5804
31.2562 778 27.8927
31.3737 789 28.0891
31.4912 812 28.4956
31.6087 791 28.1247
31.7262 792 28.1425
31.8436 827 28.7576
31.9611 832 28.8444
32.0785 862 29.3598
32.1959 894 29.8998
32.3134 871 29.5127
32.4308 904 30.0666
32.5482 884 29.7321
32.6655 883 29.7153
32.7829 904 30.0666
32.9002 890 29.8329
33.0176 925 30.4138
33.1349 874 29.5635
33.2522 840 28.9828
33.3694 852 29.189
33.4867 872 29.5296
33.6039 877 29.6142
33.7211 838 28.9482
33.8383 877 29.6142
33.9554 807 28.4077
34.0725 768 27.7128
34.1896 779 27.9106
34.3067 714 26.7208
34.4237 711 26.6646
34.5407 788 28.0713
34.6577 765 27.6586
34.7746 780 27.9285
34.8915 818 28.6007
35.0084 694 26.3439
35.1252 770 27.7489
35.242 710 26.6458
35.3587 772 27.7849
35.4755 737 27.1477
35.5921 733 27.074
35.7088 819 28.6182
35.8254 827 28.7576
35.9419 890 29.8329
36.0584 836 28.9137
36.1749 856 29.2575
36.2913 824 28.7054
36.4077 879 29.6479
36.524 845 29.0689
36.6403 798 28.2489
36.7565 844 29.0517
36.8727 813 28.5132
36.9889 807 28.4077
37.1049 785 28.0179
37.221 0 1
37.3369 0 1
37.4529 0 1
37.5687 0 1
37.6845 0 1
37.8003 0 1
37.916 0 1
38.0316 0 1
38.1472 0 1
40.5851 0 1
40.7008 0 1
40.8164 0 1
40.9322 0 1
41.048 0 1
41.1639 0 1
41.2798 0 1
41.3958 0 1
41.5118 0 1
41.6279 0 1
41.744 713 26.7021
41.8602 696 26.3818
41.9765 662 25.7294
42.0928 738 27.1662
42.2091 721 26.8514
42.3255 713 26.7021
42.4419 693 26.3249
42.5584 685 26.1725
42.675 765 27.6586
42.7915 677 26.0192
42.9081 676 26
43.0248 634 25.1794
43.1415 608 24.6577
43.2582 633 25.1595
43.375 653 25.5539
43.4918 627 25.04
43.6087 644 25.3772
43.7256 636 25.219
43.8425 631 25.1197
43.9595 589 24.2693
44.0765 593 24.3516
44.1935 616 24.8193
44.3106 614 24.779
44.4277 618 24.8596
44.5448 673 25.9422
44.6619 615 24.7992
44.7791 652 25.5343
44.8963 624 24.98
45.0136 641 25.318
45.1308 630 25.0998
45.2481 596 24.4131
45.3654 600 24.4949
45.4827 658 25.6515
45.6001 564 23.7487
45.7174 580 24.0832
45.8348 581 24.1039
45.9522 623 24.96
46.0697 571 23.8956
46.1871 554 23.5372
46.3046 572 23.9165
46.422 563 23.7276
46.5395 548 23.4094
46.657 479 21.8861
46.7745 473 21.7486
46.892 473 21.7486
47.0096 436 20.8806
47.1271 470 21.6795
47.2446 455 21.3307
47.3622 481 21.9317
47.4797 480 21.9089
47.5973 451 21.2368
47.7149 435 20.8567
47.8324 453 21.2838
47.95 414 20.347
48.0675 501 22.383
48.1851 442 21.0238
48.3027 473 21.7486
48.4202 435 20.8567
48.5378 493 22.2036
48.6554 465 21.5639
48.7729 467 21.6102
48.8904 462 21.4942
49.008 473 21.7486
49.1255 473 21.7486
49.243 479 21.8861
49.3605 438 20.9284
49.478 480 21.9089
49.5955 500 22.3607
49.713 513 22.6495
49.8304 498 22.3159
49.9479 522 22.8473
50.0653 472 21.7256
50.1827 436 20.8806
50.3001 402 20.0499
50.4175 442 21.0238
50.5348 464 21.5407
50.6521 433 20.8087
50.7694 504 22.4499
50.8867 430 20.7364
51.004 533 23.0868
51.1212 491 22.1585
51.2384 531 23.0434
51.3556 527 22.9565
51.4727 546 23.3666
51.5899 549 23.4307
51.707 608 24.6577
51.824 575 23.9792
51.9411 624 24.98
52.0581 571 23.8956
52.175 592 24.3311
52.2919 621 24.9199
52.4088 625 25
52.5257 624 24.98
52.6425 586 24.2074
52.7593 608 24.6577
52.876 625 25
52.9927 666 25.807
53.1094 612 24.7386
53.226 644 25.3772
53.3426 653 25.5539
53.4591 648 25.4558
53.5756 643 25.3574
53.692 675 25.9808
53.8084 627 25.04
53.9248 549 23.4307
54.0411 522 22.8473
54.1573 565 23.7697
54.2735 0 1
54.3896 0 1
54.5057 0 1
54.6217 0 1
54.7377 0 1
54.8537 0 1
54.9695 0 1
55.0853 0 1
55.2011 0 1
55.3168 0 1
55.4324 0 1
57.824 0 1
57.9396 0 1
58.0553 0 1
58.1711 0 1
58.2869 0 1
58.4028 0 1
58.5187 0 1
58.6347 0 1
58.7508 0 1
58.8669 0 1
58.983 641 25.318
59.0992 694 26.3439
59.2155 655 25.593
59.3318 657 25.632
59.4482 651 25.5147
59.5646 686 26.1916
59.681 649 25.4755
59.7975 715 26.7395
59.9141 656 25.6125
60.0306 710 26.6458
60.1473 724 26.9072
60.2639 723 26.8887
60.3807 691 26.2869
60.4974 664 25.7682
60.6142 756 27.4955
60.731 648 25.4558
60.8479 693 26.3249
60.9648 680 26.0768
61.0818 663 25.7488
61.1987 685 26.1725
61.3158 663 25.7488
61.4328 696 26.3818
61.5499 630 25.0998
61.667 654 25.5734
61.7841 678 26.0384
61.9013 640 25.2982
62.0185 630 25.0998
62.1357 662 25.7294
62.253 650 25.4951
62.3702 619 24.8797
62.4875 638 25.2587
62.6049 569 23.8537
62.7222 559 23.6432
62.8396 516 22.7156
62.9569 595 24.3926
63.0743 555 23.5584
63.1918 556 23.5797
63.3092 536 23.1517
63.4267 599 24.4745
63.5441 601 24.5153
63.6616 617 24.8395
63.7791 606 24.6171
63.8966 579 24.0624
64.0142 611 24.7184
64.1317 647 25.4362
64.2492 570 23.8747
64.3668 539 23.2164
64.4843 556 23.5797
64.6019 585 24.1868
64.7195 612 24.7386
64.837 587 24.2281
64.9546 590 24.2899
65.0722 548 23.4094
65.1898 530 23.0217
65.3074 625 25
65.4249 551 23.4734
65.5425 574 23.9583
65.6601 575 23.9792
65.7777 574 23.9583
65.8952 585 24.1868
66.0128 519 22.7816
66.1304 507 22.5167
66.2479 496 22.2711
66.3655 464 21.5407
66.483 472 21.7256
66.6005 501 22.383
66.718 496 22.2711
66.8355 511 22.6053
66.953 504 22.4499
67.0705 536 23.1517
67.1879 530 23.0217
67.3054 542 23.2809
67.4228 534 23.1084
67.5402 551 23.4734
67.6576 532 23.0651
67.7749 524 22.891
67.8923 552 23.4947
68.0096 507 22.5167
68.1269 558 23.622
68.2442 530 23.0217
68.3614 516 22.7156
68.4787 510 22.5832
68.5958 563 23.7276
68.713 540 23.2379
68.8302 473 21.7486
68.9473 510 22.5832
69.0643 516 22.7156
69.1814 522 22.8473
69.2984 505 22.4722
69.4154 515 22.6936
69.5323 512 22.6274
69.6492 500 22.3607
69.7661 532 23.0651
69.8829 496 22.2711
69.9997 457 21.3776
70.1165 422 20.5426
70.2332 447 21.1424
70.3499 471 21.7025
70.4665 447 21.1424
70.5831 473 21.7486
70.6996 485 22.0227
70.8161 517 22.7376
70.9326 495 22.2486
71.049 487 22.0681
71.1653 480 21.9089
71.2817 463 21.5174
71.3979 480 21.9089
71.5141 438 20.9284
71.6303 434 20.8327
71.7464 383 19.5704
71.8624 0 1
71.9784 0 1
72.0944 0 1
72.2102 0 1
72.3261 0 1
72.4418 0 1
72.5575 0 1
72.6732 0 1
75.1054 0 1
75.2209 0 1
75.3365 0 1
75.4521 0 1
75.5678 0 1
75.6835 0 1
75.7993 0 1
75.9151 0 1
76.031 0 1
76.147 338 18.3848
76.263 386 19.6469
76.3791 382 19.5448
76.4952 374 19.3391
76.6113 375 19.3649
76.7276 369 19.2094
76.8438 339 18.412
76.9601 369 19.2094
77.0765 358 18.9209
77.1929 341 18.4662
77.3093 360 18.9737
77.4258 333 18.2483
77.5423 321 17.9165
77.6589 362 19.0263
77.7755 348 18.6548
77.8921 324 18
78.0088 318 17.8326
78.1256 294 17.1464
78.2423 324 18
78.3591 313 17.6918
78.4759 337 18.3576
78.5928 309 17.5784
78.7097 296 17.2047
78.8266 338 18.3848
78.9436 301 17.3494
79.0606 246 15.6844
79.1776 215 14.6629
79.2946 217 14.7309
79.4117 245 15.6525
79.5288 255 15.9687
79.6459 289 17
79.7631 269 16.4012
79.8802 287 16.9411
79.9974 248 15.748
80.1147 236 15.3623
80.2319 248 15.748
80.3491 240 15.4919
80.4664 205 14.3178
80.5837 220 14.8324
80.701 214 14.6287
80.8183 234 15.2971
80.9357 186 13.6382
81.053 195 13.9642
81.1704 211 14.5258
81.2877 176 13.2665
81.4051 196 14
81.5225 171 13.0767
81.6399 182 13.4907
81.7573 189 13.7477
81.8747 158 12.5698
81.9922 139 11.7898
82.1096 132 11.4891
82.227 148 12.1655
82.3444 166 12.8841
82.4619 147 12.1244
82.5793 136 11.6619
82.6967 137 11.7047
82.8142 126 11.225
82.9316 122 11.0454
83.049 116 10.7703
83.1664 109 10.4403
83.2838 120 10.9545
83.4012 109 10.4403
83.5186 100 10
83.636 89 9.43398
83.7534 84 9.16515
83.8708 82 9.05539
83.9881 78 8.83176
84.1055 75 8.66025
84.2228 81 9
84.3401 64 8
84.4575 67 8.18535
84.5747 65 8.06226
84.692 85 9.21954
84.8093 71 8.42615
84.9265 52 7.2111
85.0437 63 7.93725
85.1609 79 8.88819
85.2781 47 6.85565
85.3952 52 7.2111
85.5123 48 6.9282
85.6294 56 7.48331
85.7465 61 7.81025
85.8636 63 7.93725
85.9806 48 6.9282
86.0976 48 6.9282
86.2145 46 6.78233
86.3315 58 7.61577
86.4484 82 9.05539
86.5652 68 8.24621
86.682 78 8.83176
86.7988 60 7.74597
86.9156 84 9.16515
87.0323 97 9.84886
87.149 83 9.11043
87.2657 92 9.59166
87.3823 99 9.94987
87.4988 98 9.89949
87.6154 116 10.7703
87.7318 111 10.5357
87.8483 124 11.1355
87.9647 106 10.2956
88.081 127 11.2694
88.1973 136 11.6619
88.3136 140 11.8322
88.4298 173 13.1529
88.546 159 12.6095
88.6621 166 12.8841
88.7781 152 12.3288
88.8942 0 1
89.0101 0 1
89.126 0 1
89.2419 0 1
89.3577 0 1
89.4734 0 1
89.5891 0 1
89.7047 0 1
89.8203 0 1
89.9358 0 1
92.3269 0 1
92.4424 0 1
92.558 0 1
92.6736 0 1
92.7893 0 1
92.905 0 1
93.0208 0 1
93.1366 0 1
93.2525 0 1
93.3685 0 1
93.4845 0 1
93.6005 286 16.9115
93.7167 282 16.7929
93.8328 242 15.5563
93.949 258 16.0624
94.0653 237 15.3948
94.1816 225 15
94.2979 240 15.4919
94.4143 221 14.8661
94.5307 194 13.9284
94.6472 207 14.3875
94.7637 208 14.4222
94.8803 217 14.7309
94.9969 223 14.9332
95.1135 191 13.8203
95.2302 211 14.5258
95.3469 181 13.4536
95.4637 142 11.9164
95.5805 145 12.0416
95.6973 184 13.5647
95.8142 256 16
95.9311 224 14.9666
96.048 225 15
96.1649 241 15.5242
96.2819 223 14.9332
96.3989 251 15.843
96.516 279 16.7033
96.633 277 16.6433
96.7501 271 16.4621
96.8673 280 16.7332
96.9844 291 17.0587
97.1016 287 16.9411
97.2188 283 16.8226
97.336 324 18
97.4532 306 17.4929
97.5704 320 17.8885
97.6877 336 18.3303
97.805 354 18.8149
97.9223 334 18.2757
98.0396 370 19.2354
98.1569 354 18.8149
98.2743 376 19.3907
98.3916 392 19.799
98.509 359 18.9473
98.6264 391 19.7737
98.7438 390 19.7484
98.8612 334 18.2757
98.9786 348 18.6548
99.096 268 16.3707
99.2134 303 17.4069
99.3308 387 19.6723
99.4482 452 21.2603
99.5656 463 21.5174
99.6831 486 22.0454
99.8005 459 21.4243
99.9179 475 21.7945
100.035 455 21.3307
100.153 463 21.5174
100.27 493 22.2036
100.388 473 21.7486
100.505 503 22.4277
100.622 467 21.6102
100.74 546 23.3666
100.857 504 22.4499
100.975 504 22.4499
101.092 516 22.7156
101.209 536 23.1517
101.327 541 23.2594
101.444 544 23.3238
101.561 533 23.0868
101.679 522 22.8473
101.796 515 22.6936
101.913 517 22.7376
102.03 528 22.9783
102.148 538 23.1948
102.265 576 24
102.382 510 22.5832
102.499 506 22.4944
102.616 420 20.4939
102.733 340 18.4391
102.851 413 20.3224
102.968 548 23.4094
103.085 619 24.8797
103.202 572 23.9165
103.319 562 23.7065
103.436 565 23.7697
103.552 538 23.1948
103.669 530 23.0217
103.786 563 23.7276
103.903 579 24.0624
104.02 559 23.6432
104.137 582 24.1247
104.253 519 22.7816
104.37 590 24.2899
104.487 563 23.7276
104.603 586 24.2074
104.72 547 23.388
104.836 566 23.7908
104.953 566 23.7908
105.069 596 24.4131
105.186 600 24.4949
105.302 610 24.6982
105.418 595 24.3926
105.535 561 23.6854
105.651 578 24.0416
105.767 559 23.6432
105.883 577 24.0208
105.999 478 21.8632
106.115 0 1
106.231 0 1
106.347 0 1
106.463 0 1
106.579 0 1
106.694 0 1
106.81 0 1
106.926 0 1
107.041 0 1
107.157 0 1
109.576 0 1
109.692 0 1
109.807 0 1
109.923 0 1
110.039 0 1
110.155 0 1
110.27 0 1
110.386 0 1
110.502 0 1
110.618 460 21.4476
110.735 457 21.3776
110.851 415 20.3715
110.967 447 21.1424
111.083 367 19.1572
111.199 358 18.9209
111.316 346 18.6011
111.432 405 20.1246
111.549 414 20.347
111.665 430 20.7364
111.782 407 20.1742
111.898 413 20.3224
112.015 410 20.2485
112.132 409 20.2237
112.248 377 19.4165
112.365 378 19.4422
112.482 372 19.2873
112.599 387 19.6723
112.716 348 18.6548
112.832 415 20.3715
112.949 341 18.4662
113.066 372 19.2873
113.183 354 18.8149
113.3 360 18.9737
113.417 390 19.7484
113.534 356 18.868
113.652 316 17.7764
113.769 370 19.2354
113.886 293 17.1172
114.003 327 18.0831
114.12 330 18.1659
114.238 317 17.8045
114.355 340 18.4391
114.472 313 17.6918
114.589 316 17.7764
114.707 284 16.8523
114.824 276 16.6132
114.942 294 17.1464
115.059 273 16.5227
115.176 324 18
115.294 319 17.8606
115.411 292 17.088
115.529 346 18.6011
115.646 297 17.2337
115.764 323 17.9722
115.881 306 17.4929
115.999 320 17.8885
116.116 311 17.6352
116.234 288 16.9706
116.351 284 16.8523
116.469 308 17.5499
116.586 270 16.4317
116.704 294 17.1464
116.821 337 18.3576
116.939 319 17.8606
117.056 327 18.0831
117.174 304 17.4356
117.291 299 17.2916
117.409 293 17.1172
117.526 297 17.2337
117.644 304 17.4356
117.761 292 17.088
117.879 258 16.0624
117.996 258 16.0624
118.114 257 16.0312
118.231 253 15.906
118.349 323 17.9722
118.466 304 17.4356
118.584 309 17.5784
118.701 324 18
118.819 316 17.7764
118.936 291 17.0587
119.053 334 18.2757
119.171 339 18.412
119.288 316 17.7764
119.405 359 18.9473
119.523 335 18.303
119.64 323 17.9722
119.757 310 17.6068
119.875 326 18.0555
119.992 297 17.2337
120.109 347 18.6279
120.226 347 18.6279
120.343 317 17.8045
120.46 292 17.088
120.578 306 17.4929
120.695 342 18.4932
120.812 307 17.5214
120.929 328 18.1108
121.046 343 18.5203
121.163 302 17.3781
121.279 341 18.4662
121.396 326 18.0555
121.513 273 16.5227
121.63 262 16.1864
121.747 225 15
121.863 232 15.2315
121.98 261 16.1555
122.097 327 18.0831
122.213 308 17.5499
122.33 340 18.4391
122.446 337 18.3576
122.563 332 18.2209
122.679 359 18.9473
122.795 324 18
122.912 363 19.0526
123.028 362 19.0263
123.144 346 18.6011
123.26 354 18.8149
123.377 0 1
123.493 0 1
123.609 0 1
123.725 0 1
123.84 0 1
123.956 0 1
124.072 0 1
124.188 0 1
124.303 0 1
124.419 0 1
126.852 0 1
126.968 0 1
127.083 0 1
127.199 0 1
127.315 0 1
127.431 0 1
127.547 0 1
127.663 0 1
127.779 0 1
127.895 0 1
128.011 0 1
128.127 0 1
128.243 0 1
128.359 457 21.3776
128.476 487 22.0681
128.592 429 20.7123
128.708 493 22.2036
128.825 478 21.8632
128.941 482 21.9545
129.058 452 21.2603
129.174 479 21.8861
129.291 460 21.4476
129.408 478 21.8632
129.524 470 21.6795
129.641 462 21.4942
129.758 444 21.0713
129.875 486 22.0454
129.992 478 21.8632
130.108 455 21.3307
130.225 474 21.7715
130.342 425 20.6155
130.459 379 19.4679
130.576 347 18.6279
130.693 313 17.6918
130.81 300 17.3205
130.928 309 17.5784
131.045 387 19.6723
131.162 503 22.4277
131.279 477 21.8403
131.396 462 21.4942
131.513 482 21.9545
131.631 485 22.0227
131.748 487 22.0681
131.865 480 21.9089
131.983 467 21.6102
132.1 535 23.1301
132.217 474 21.7715
132.335 509 22.561
132.452 493 22.2036
132.57 490 22.1359
132.687 504 22.4499
132.804 521 22.8254
132.922 505 22.4722
133.039 457 21.3776
133.157 487 22.0681
133.274 459 21.4243
133.392 517 22.7376
133.509 478 21.8632
133.627 500 22.3607
133.744 497 22.2935
133.862 458 21.4009
133.979 446 21.1187
134.097 416 20.3961
134.214 364 19.0788
134.332 354 18.8149
134.449 354 18.8149
134.567 379 19.4679
134.684 445 21.095
134.802 498 22.3159
134.919 511 22.6053
135.037 534 23.1084
135.154 518 22.7596
135.272 553 23.516
135.389 511 22.6053
135.507 546 23.3666
135.624 511 22.6053
135.742 573 23.9374
135.859 566 23.7908
135.977 551 23.4734
136.094 553 23.516
136.211 552 23.4947
136.329 539 23.2164
136.446 540 23.2379
136.564 543 23.3024
136.681 578 24.0416
136.798 555 23.5584
136.915 580 24.0832
137.033 557 23.6008
137.15 537 23.1733
137.267 568 23.8328
137.384 516 22.7156
137.502 507 22.5167
137.619 465 21.5639
137.736 457 21.3776
137.853 443 21.0476
137.97 434 20.8327
138.087 467 21.6102
138.204 436 20.8806
138.321 428 20.6882
138.438 524 22.891
138.555 549 23.4307
138.672 604 24.5764
138.788 599 24.4745
138.905 602 24.5357
139.022 689 26.2488
139.139 571 23.8956
139.255 593 24.3516
139.372 607 24.6374
139.488 610 24.6982
139.605 624 24.98
139.721 608 24.6577
139.838 565 23.7697
139.954 600 24.4949
140.071 599 24.4745
140.187 611 24.7184
140.303 634 25.1794
140.419 576 24
140.535 655 25.593
140.652 563 23.7276
140.768 0 1
140.884 0 1
141 0 1
141.115 0 1
141.231 0 1
141.347 0 1
141.463 0 1
141.578 0 1
141.694 0 1
144.104 0 1
144.219 0 1
144.335 0 1
144.45 0 1
144.566 0 1
144.682 0 1
144.798 0 1
144.914 0 1
145.03 0 1
145.146 550 23.4521
145.262 596 24.4131
145.378 603 24.5561
145.494 589 24.2693
145.61 609 24.6779
145.726 563 23.7276
145.842 631 25.1197
145.959 523 22.8692
146.075 501 22.383
146.192 482 21.9545
146.308 481 21.9317
146.425 457 21.3776
146.541 459 21.4243
146.658 488 22.0907
146.774 489 22.1133
146.891 470 21.6795
147.008 533 23.0868
147.125 497 22.2935
147.241 560 23.6643
147.358 630 25.0998
147.475 583 24.1454
147.592 605 24.5967
147.709 536 23.1517
147.826 546 23.3666
147.943 552 23.4947
148.06 643 25.3574
148.177 572 23.9165
148.294 533 23.0868
148.411 626 25.02
148.528 583 24.1454
148.645 565 23.7697
148.762 585 24.1868
148.88 558 23.622
148.997 555 23.5584
149.114 577 24.0208
149.231 569 23.8537
149.349 530 23.0217
149.466 582 24.1247
149.583 512 22.6274
149.701 533 23.0868
149.818 476 21.8174
149.935 455 21.3307
150.053 469 21.6564
150.17 460 21.4476
150.287 531 23.0434
150.405 486 22.0454
150.522 525 22.9129
150.64 477 21.8403
150.757 536 23.1517
150.875 523 22.8692
150.992 575 23.9792
151.11 568 23.8328
151.227 585 24.1868
151.344 565 23.7697
151.462 593 24.3516
151.579 606 24.6171
151.697 590 24.2899
151.814 636 25.219
151.932 595 24.3926
152.049 607 24.6374
152.167 580 24.0832
152.284 582 24.1247
152.402 540 23.2379
152.519 581 24.1039
152.636 528 22.9783
152.754 576 24
152.871 544 23.3238
152.989 585 24.1868
153.106 565 23.7697
153.223 542 23.2809
153.341 484 22
153.458 495 22.2486
153.575 503 22.4277
153.693 464 21.5407
153.81 521 22.8254
153.927 481 21.9317
154.044 494 22.2261
154.162 546 23.3666
154.279 497 22.2935
154.396 553 23.516
154.513 563 23.7276
154.63 654 25.5734
154.747 602 24.5357
154.864 609 24.6779
154.981 570 23.8747
155.098 649 25.4755
155.215 573 23.9374
155.332 653 25.5539
155.449 637 25.2389
155.566 602 24.5357
155.683 686 26.1916
155.8 635 25.1992
155.917 647 25.4362
156.033 615 24.7992
156.15 0 1
156.267 0 1
156.383 0 1
156.5 0 1
156.617 0 1
156.733 0 1
156.85 0 1
156.966 0 1
157.082 0 1
157.199 0 1
157.315 0 1
157.431 0 1
157.547 0 1
157.664 0 1
157.78 0 1
157.896 0 1
158.012 0 1
158.128 0 1
158.244 0 1
158.359 0 1
158.475 0 1
158.591 0 1
158.706 0 1
