
6.15755 0 1
6.2731 0 1
6.3887 0 1
6.50437 0 1
6.62009 0 1
6.73587 0 1
6.8517 0 1
6.96759 0 1
7.08353 0 1
7.19952 0 1
7.31557 0 1
7.43166 0 1
7.54781 0 1
7.664 0 1
7.78024 0 1
7.89653 0 1
8.01286 0 1
8.12924 0 1
8.24567 0 1
8.36213 0 1
8.47864 0 1
8.59519 0 1
8.71178 0 1
8.82841 0 1
8.94508 0 1
9.06179 0 1
9.17853 0 1
9.29531 0 1
9.41212 0 1
9.52897 0 1
9.64584 0 1
9.76276 0 1
9.8797 0 1
9.99667 0 1
10.1137 0 1
10.2307 0 1
10.3478 0 1
10.4648 0 1
10.5819 0 1
10.6991 0 1
10.8162 0 1
10.9334 0 1
11.0506 0 1
11.1678 0 1
11.285 0 1
11.4023 0 1
11.5196 0 1
11.6369 0 1
11.7542 0 1
11.8715 0 1
11.9888 0 1
12.1062 0 1
12.2235 0 1
12.3409 0 1
12.4582 0 1
12.5756 0 1
12.693 0 1
12.8104 0 1
12.9278 0 1
13.0452 0 1
13.1626 0 1
13.28 0 1
13.3974 0 1
13.5149 0 1
13.6323 0 1
13.7497 0 1
13.8671 0 1
13.9845 0 1
14.1019 0 1
14.2193 0 1
14.3367 0 1
14.4541 0 1
14.5714 0 1
14.6888 0 1
14.8062 0 1
14.9235 0 1
15.0408 0 0
15.1581 0 0
15.2755 0 0
15.3927 0 0
15.51 0 0
15.6273 0 0
15.7445 0 0
15.8617 0 0
15.9789 0 0
16.0961 0 0
16.2132 0 0
16.3304 0 0
16.4475 0 0
16.5646 0 0
16.6816 0 0
16.7986 0 0
16.9156 0 0
17.0326 0 0
17.1496 0 0
17.2665 0 0
17.3833 0 0
17.5002 0 0
17.617 0 0
17.7338 0 0
17.8505 0 0
17.9672 0 0
18.0839 0 0
18.2005 0 0
18.3171 0 0
18.4337 0 0
18.5502 0 0
18.6666 0 0
18.7831 0 0
18.8994 0 0
19.0158 0 0
19.1321 0 0
19.2483 0 0
19.3645 0 0
19.4806 0 0
19.5967 0 0
19.7128 0 0
19.8288 0 0
19.9447 0 0
20.0606 0 1
20.1764 0 1
20.2922 0 1
20.4079 0 1
20.5236 0 1
20.6392 0 1
20.7548 0 1
20.8702 0 1
23.3078 0 1
23.4233 0 1
23.539 0 1
23.6547 0 1
23.7704 0 1
23.8862 0 1
24.0021 0 1
24.118 0 1
24.234 0 1
24.35 0 1
24.4661 1267 35.5949
24.5822 1418 37.6563
24.6984 1480 38.4708
24.8146 1574 39.6737
24.9309 1926 43.8862
25.0472 2117 46.0109
25.1636 2402 49.0102
25.28 2480 49.7996
25.3965 2460 49.5984
25.513 2546 50.4579
25.6296 2556 50.5569
25.7462 2580 50.7937
25.8628 2470 49.6991
25.9795 2640 51.3809
26.0962 2436 49.3559
26.213 2542 50.4183
26.3298 2608 51.0686
26.4466 2700 51.9615
26.5635 2619 51.1762
26.6804 2509 50.0899
26.7973 2579 50.7839
26.9143 2610 51.0882
27.0313 2518 50.1797
27.1483 2450 49.4975
27.2653 2368 48.6621
27.3824 2297 47.927
27.4996 2225 47.1699
27.6167 2131 46.1628
27.7339 2032 45.0777
27.8511 2282 47.7703
27.9683 2319 48.156
28.0855 2338 48.3529
28.2028 2403 49.0204
28.3201 2453 49.5278
28.4374 2441 49.4065
28.5547 2530 50.2991
28.6721 2385 48.8365
28.7894 2450 49.4975
28.9068 2410 49.0918
29.0242 2427 49.2646
29.1416 2525 50.2494
29.259 2418 49.1732
29.3764 2392 48.9081
29.4939 2472 49.7192
29.6113 2309 48.0521
29.7288 2282 47.7703
29.8463 2257 47.5079
29.9638 2247 47.4025
30.0812 2243 47.3603
30.1987 2269 47.634
30.3162 2347 48.4458
30.4337 2371 48.6929
30.5512 2339 48.3632
30.6687 2405 49.0408
30.7862 2431 49.3052
30.9037 2252 47.4552
31.0212 2246 47.392
31.1387 2105 45.8803
31.2562 2210 47.0106
31.3737 2374 48.7237
31.4912 2486 49.8598
31.6087 2408 49.0714
31.7262 2360 48.5798
31.8436 2478 49.7795
31.9611 2352 48.4974
32.0785 2370 48.6826
32.1959 2443 49.4267
32.3134 2334 48.3115
32.4308 2405 49.0408
32.5482 2178 46.669
32.6655 2256 47.4974
32.7829 2140 46.2601
32.9002 2124 46.0869
33.0176 2155 46.422
33.1349 2139 46.2493
33.2522 2123 46.076
33.3694 2131 46.1628
33.4867 2151 46.3789
33.6039 2101 45.8367
33.7211 2061 45.3982
33.8383 2166 46.5403
33.9554 2315 48.1144
34.0725 2274 47.6865
34.1896 2234 47.2652
34.3067 2314 48.1041
34.4237 2267 47.613
34.5407 2234 47.2652
34.6577 2159 46.465
34.7746 2086 45.6727
34.8915 2167 46.551
35.0084 2280 47.7493
35.1252 2412 49.1121
35.242 2438 49.3761
35.3587 2395 48.9387
35.4755 2346 48.4355
35.5921 2355 48.5283
35.7088 2266 47.6025
35.8254 2183 46.7226
35.9419 2170 46.5833
36.0584 2126 46.1086
36.1749 2038 45.1442
36.2913 1950 44.1588
36.4077 1917 43.7836
36.524 1839 42.8836
36.6403 1684 41.0366
36.7565 1466 38.2884
36.8727 1452 38.1051
36.9889 1426 37.7624
37.1049 1384 37.2022
37.221 0 1
37.3369 0 1
37.4529 0 1
37.5687 0 1
37.6845 0 1
37.8003 0 1
37.916 0 1
38.0316 0 1
38.1472 0 1
40.5851 0 1
40.7008 0 1
40.8164 0 1
40.9322 0 1
41.048 0 1
41.1639 0 1
41.2798 0 1
41.3958 0 1
41.5118 0 1
41.6279 0 1
41.744 1805 42.4853
41.8602 2390 48.8876
41.9765 2883 53.6936
42.0928 2984 54.626
42.2091 2963 54.4334
42.3255 3079 55.4887
42.4419 3186 56.4447
42.5584 3218 56.7274
42.675 3340 57.7927
42.7915 3427 58.5406
42.9081 3297 57.4195
43.0248 3373 58.0775
43.1415 3470 58.9067
43.2582 3218 56.7274
43.375 3035 55.0908
43.4918 3038 55.1181
43.6087 3082 55.5158
43.7256 3093 55.6147
43.8425 3069 55.3986
43.9595 3192 56.4978
44.0765 3159 56.205
44.1935 3034 55.0818
44.3106 2921 54.0463
44.4277 2926 54.0925
44.5448 2704 52
44.6619 2549 50.4876
44.7791 2414 49.1325
44.8963 2352 48.4974
45.0136 2164 46.5188
45.1308 2080 45.607
45.2481 2022 44.9667
45.3654 1911 43.715
45.4827 1920 43.8178
45.6001 1756 41.9047
45.7174 1824 42.7083
45.8348 1802 42.45
45.9522 1782 42.2137
46.0697 1872 43.2666
46.1871 1984 44.5421
46.3046 1977 44.4635
46.422 2011 44.8442
46.5395 1987 44.5758
46.657 2041 45.1774
46.7745 2064 45.4313
46.892 1838 42.8719
47.0096 1845 42.9535
47.1271 1854 43.0581
47.2446 1916 43.7721
47.3622 1931 43.9431
47.4797 1977 44.4635
47.5973 2061 45.3982
47.7149 2000 44.7214
47.8324 1946 44.1135
47.95 1947 44.1248
48.0675 1933 43.9659
48.1851 1970 44.3847
48.3027 1931 43.9431
48.4202 1868 43.2204
48.5378 1792 42.332
48.6554 1810 42.5441
48.7729 1700 41.2311
48.8904 1779 42.1782
49.008 1745 41.7732
49.1255 1799 42.4146
49.243 1711 41.3642
49.3605 1741 41.7253
49.478 1797 42.391
49.5955 1797 42.391
49.713 1875 43.3013
49.8304 1924 43.8634
49.9479 1872 43.2666
50.0653 1996 44.6766
50.1827 1901 43.6005
50.3001 1903 43.6234
50.4175 1620 40.2492
50.5348 1516 38.9358
50.6521 1676 40.939
50.7694 1829 42.7668
50.8867 1951 44.1701
51.004 1906 43.6578
51.1212 1959 44.2606
51.2384 2011 44.8442
51.3556 1993 44.643
51.4727 1989 44.5982
51.5899 1884 43.4051
51.707 2000 44.7214
51.824 2100 45.8258
51.9411 1824 42.7083
52.0581 1871 43.2551
52.175 1794 42.3556
52.2919 1784 42.2374
52.4088 1759 41.9404
52.5257 1772 42.0951
52.6425 1782 42.2137
52.7593 1757 41.9166
52.876 1727 41.5572
52.9927 1721 41.4849
53.1094 1744 41.7612
53.226 1821 42.6732
53.3426 1757 41.9166
53.4591 1702 41.2553
53.5756 1570 39.6232
53.692 1421 37.6962
53.8084 1270 35.6371
53.9248 1144 33.8231
54.0411 979 31.289
54.1573 956 30.9192
54.2735 0 1
54.3896 0 1
54.5057 0 1
54.6217 0 1
54.7377 0 1
54.8537 0 1
54.9695 0 1
55.0853 0 1
55.2011 0 1
55.3168 0 1
55.4324 0 1
57.824 0 1
57.9396 0 1
58.0553 0 1
58.1711 0 1
58.2869 0 1
58.4028 0 1
58.5187 0 1
58.6347 0 1
58.7508 0 1
58.8669 0 1
58.983 1529 39.1024
59.0992 1626 40.3237
59.2155 1640 40.4969
59.3318 1765 42.0119
59.4482 1907 43.6692
59.5646 2126 46.1086
59.681 2153 46.4004
59.7975 2187 46.7654
59.9141 2385 48.8365
60.0306 2255 47.4868
60.1473 2169 46.5725
60.2639 2235 47.2758
60.3807 2313 48.0937
60.4974 2233 47.2546
60.6142 2281 47.7598
60.731 2335 48.3218
60.8479 2353 48.5077
60.9648 2284 47.7912
61.0818 2308 48.0416
61.1987 2325 48.2183
61.3158 2255 47.4868
61.4328 2161 46.4866
61.5499 2159 46.465
61.667 2167 46.551
61.7841 2281 47.7598
61.9013 2305 48.0104
62.0185 2334 48.3115
62.1357 2294 47.8957
62.253 2290 47.8539
62.3702 2268 47.6235
62.4875 2152 46.3897
62.6049 2003 44.7549
62.7222 2011 44.8442
62.8396 2061 45.3982
62.9569 2272 47.6655
63.0743 2309 48.0521
63.1918 2467 49.6689
63.3092 2388 48.8672
63.4267 2431 49.3052
63.5441 2397 48.9592
63.6616 2356 48.5386
63.7791 2387 48.8569
63.8966 2401 49
64.0142 2387 48.8569
64.1317 2341 48.3839
64.2492 2367 48.6518
64.3668 2367 48.6518
64.4843 2273 47.676
64.6019 2250 47.4342
64.7195 2264 47.5815
64.837 2164 46.5188
64.9546 2133 46.1844
65.0722 2228 47.2017
65.1898 2160 46.4758
65.3074 2206 46.9681
65.4249 2169 46.5725
65.5425 2316 48.1248
65.6601 2181 46.7012
65.7777 2198 46.8828
65.8952 2167 46.551
66.0128 2057 45.3542
66.1304 1904 43.6348
66.2479 1765 42.0119
66.3655 1874 43.2897
66.483 2100 45.8258
66.6005 2212 47.0319
66.718 2233 47.2546
66.8355 2226 47.1805
66.953 2310 48.0625
67.0705 2310 48.0625
67.1879 2296 47.9166
67.3054 2318 48.1456
67.4228 2319 48.156
67.5402 2261 47.55
67.6576 2317 48.1352
67.7749 2222 47.1381
67.8923 2269 47.634
68.0096 2195 46.8508
68.1269 2240 47.3286
68.2442 2207 46.9787
68.3614 2223 47.1487
68.4787 2225 47.1699
68.5958 2118 46.0217
68.713 2116 46
68.8302 1991 44.6206
68.9473 2161 46.4866
69.0643 2075 45.5522
69.1814 2073 45.5302
69.2984 2171 46.594
69.4154 2152 46.3897
69.5323 2124 46.0869
69.6492 2041 45.1774
69.7661 1893 43.5086
69.8829 1618 40.2244
69.9997 1765 42.0119
70.1165 1877 43.3244
70.2332 1936 44
70.3499 1845 42.9535
70.4665 1685 41.0488
70.5831 1568 39.598
70.6996 1492 38.6264
70.8161 1482 38.4968
70.9326 1341 36.6197
71.049 1336 36.5513
71.1653 1294 35.9722
71.2817 1272 35.6651
71.3979 1143 33.8083
71.5141 1122 33.4963
71.6303 1064 32.619
71.7464 1011 31.7962
71.8624 0 1
71.9784 0 1
72.0944 0 1
72.2102 0 1
72.3261 0 1
72.4418 0 1
72.5575 0 1
72.6732 0 1
75.1054 0 1
75.2209 0 1
75.3365 0 1
75.4521 0 1
75.5678 0 1
75.6835 0 1
75.7993 0 1
75.9151 0 1
76.031 0 1
76.147 1807 42.5088
76.263 1957 44.238
76.3791 2030 45.0555
76.4952 2080 45.607
76.6113 1942 44.0681
76.7276 1968 44.3621
76.8438 2140 46.2601
76.9601 2084 45.6508
77.0765 2114 45.9783
77.1929 2132 46.1736
77.3093 2073 45.5302
77.4258 2054 45.3211
77.5423 2101 45.8367
77.6589 2002 44.7437
77.7755 1998 44.699
77.8921 1843 42.9302
78.0088 2074 45.5412
78.1256 2034 45.0999
78.2423 2166 46.5403
78.3591 2108 45.913
78.4759 2121 46.0543
78.5928 2012 44.8553
78.7097 1864 43.1741
78.8266 1603 40.0375
78.9436 1471 38.3536
79.0606 1549 39.3573
79.1776 1833 42.8135
79.2946 2027 45.0222
79.4117 2136 46.2169
79.5288 2188 46.7761
79.6459 2150 46.3681
79.7631 2156 46.4327
79.8802 2167 46.551
79.9974 2180 46.6905
80.1147 2157 46.4435
80.2319 2166 46.5403
80.3491 2227 47.1911
80.4664 2181 46.7012
80.5837 2177 46.6583
80.701 2388 48.8672
80.8183 2245 47.3814
80.9357 2252 47.4552
81.053 2267 47.613
81.1704 2283 47.7807
81.2877 2175 46.6369
81.4051 2178 46.669
81.5225 2196 46.8615
81.6399 2217 47.085
81.7573 2332 48.2908
81.8747 2298 47.9375
81.9922 2330 48.2701
82.1096 2526 50.2593
82.227 2518 50.1797
82.3444 2355 48.5283
82.4619 2246 47.392
82.5793 2014 44.8776
82.6967 2063 45.4203
82.8142 2657 51.5461
82.9316 3087 55.5608
83.049 3282 57.2887
83.1664 3473 58.9322
83.2838 3526 59.3801
83.4012 3743 61.1801
83.5186 3786 61.5305
83.636 3762 61.3351
83.7534 3940 62.7694
83.8708 3913 62.554
83.9881 4054 63.671
84.1055 4035 63.5216
84.2228 4144 64.3739
84.3401 4138 64.3273
84.4575 4218 64.9461
84.5747 4177 64.6297
84.692 4178 64.6375
84.8093 4234 65.0692
84.9265 4025 63.4429
85.0437 3920 62.6099
85.1609 4016 63.3719
85.2781 4091 63.9609
85.3952 4089 63.9453
85.5123 3921 62.6179
85.6294 4016 63.3719
85.7465 3936 62.7375
85.8636 3654 60.4483
85.9806 3012 54.8817
86.0976 2571 50.705
86.2145 2539 50.3885
86.3315 2915 53.9907
86.4484 3657 60.4731
86.5652 3806 61.6928
86.682 3896 62.4179
86.7988 4024 63.435
86.9156 3868 62.1932
87.0323 3908 62.514
87.149 3950 62.849
87.2657 3980 63.0872
87.3823 3881 62.2977
87.4988 3848 62.0322
87.6154 3552 59.5987
87.7318 3190 56.4801
87.8483 2944 54.2586
87.9647 2970 54.4977
88.081 2843 53.3198
88.1973 2813 53.0377
88.3136 2558 50.5767
88.4298 2492 49.9199
88.546 2340 48.3735
88.6621 2278 47.7284
88.7781 2181 46.7012
88.8942 0 1
89.0101 0 1
89.126 0 1
89.2419 0 1
89.3577 0 1
89.4734 0 1
89.5891 0 1
89.7047 0 1
89.8203 0 1
89.9358 0 1
92.3269 0 1
92.4424 0 1
92.558 0 1
92.6736 0 1
92.7893 0 1
92.905 0 1
93.0208 0 1
93.1366 0 1
93.2525 0 1
93.3685 0 1
93.4845 0 1
93.6005 4358 66.0151
93.7167 4131 64.2729
93.8328 4096 64
93.949 4101 64.0391
94.0653 4121 64.195
94.1816 4088 63.9375
94.2979 4072 63.8122
94.4143 4063 63.7417
94.5307 4210 64.8845
94.6472 4014 63.3561
94.7637 4131 64.2729
94.8803 3677 60.6383
94.9969 3193 56.5066
95.1135 2789 52.811
95.2302 2997 54.7449
95.3469 3446 58.7026
95.4637 3897 62.426
95.5805 4116 64.1561
95.6973 4270 65.3452
95.8142 4322 65.7419
95.9311 4273 65.3682
96.048 4163 64.5213
96.1649 4351 65.9621
96.2819 4259 65.261
96.3989 4216 64.9307
96.516 4297 65.5515
96.633 4288 65.4828
96.7501 4514 67.1863
96.8673 4427 66.5357
96.9844 4296 65.5439
97.1016 4438 66.6183
97.2188 4435 66.5958
97.336 4266 65.3146
97.4532 4220 64.9615
97.5704 3981 63.0952
97.6877 4111 64.1171
97.805 4100 64.0312
97.9223 3938 62.7535
98.0396 3854 62.0806
98.1569 3807 61.7009
98.2743 3644 60.3656
98.3916 3357 57.9396
98.509 2849 53.376
98.6264 2490 49.8999
98.7438 2512 50.1199
98.8612 2729 52.2398
98.9786 3021 54.9636
99.096 2991 54.69
99.2134 3017 54.9272
99.3308 2864 53.5164
99.4482 2820 53.1037
99.5656 2856 53.4416
99.6831 2721 52.1632
99.8005 2591 50.9019
99.9179 2694 51.9038
100.035 2632 51.303
100.153 2667 51.643
100.27 2714 52.0961
100.388 2929 54.1202
100.505 2941 54.231
100.622 2857 53.4509
100.74 2975 54.5436
100.857 2880 53.6656
100.975 2929 54.1202
101.092 2820 53.1037
101.209 2725 52.2015
101.327 2896 53.8145
101.444 2892 53.7773
101.561 2734 52.2877
101.679 2889 53.7494
101.796 2820 53.1037
101.913 2649 51.4684
102.03 2471 49.7092
102.148 2248 47.4131
102.265 2177 46.6583
102.382 2152 46.3897
102.499 2524 50.2394
102.616 2646 51.4393
102.733 2599 50.9804
102.851 2630 51.2835
102.968 2589 50.8822
103.085 2690 51.8652
103.202 2594 50.9313
103.319 2604 51.0294
103.436 2633 51.3128
103.552 2623 51.2152
103.669 2588 50.8724
103.786 2548 50.4777
103.903 2548 50.4777
104.02 2635 51.3323
104.137 2562 50.6162
104.253 2786 52.7826
104.37 2599 50.9804
104.487 2555 50.547
104.603 2515 50.1498
104.72 2422 49.2138
104.836 2300 47.9583
104.953 2047 45.2438
105.069 1807 42.5088
105.186 1646 40.5709
105.302 1520 38.9872
105.418 1442 37.9737
105.535 1288 35.8887
105.651 1144 33.8231
105.767 948 30.7896
105.883 803 28.3373
105.999 802 28.3196
106.115 0 1
106.231 0 1
106.347 0 1
106.463 0 1
106.579 0 1
106.694 0 1
106.81 0 1
106.926 0 1
107.041 0 1
107.157 0 1
109.576 0 1
109.692 0 1
109.807 0 1
109.923 0 1
110.039 0 1
110.155 0 1
110.27 0 1
110.386 0 1
110.502 0 1
110.618 2637 51.3517
110.735 2764 52.5738
110.851 2527 50.2693
110.967 2262 47.5605
111.083 2180 46.6905
111.199 2455 49.548
111.316 2623 51.2152
111.432 2764 52.5738
111.549 2821 53.1131
111.665 2791 52.8299
111.782 2968 54.4794
111.898 2844 53.3292
112.015 2839 53.2823
112.132 2883 53.6936
112.248 2922 54.0555
112.365 2760 52.5357
112.482 2804 52.9528
112.599 3018 54.9363
112.716 2912 53.963
112.832 3138 56.0179
112.949 3082 55.5158
113.066 3044 55.1725
113.183 3180 56.3915
113.3 3176 56.356
113.417 3096 55.6417
113.534 3094 55.6237
113.652 3084 55.5338
113.769 3013 54.8908
113.886 3151 56.1338
114.003 3130 55.9464
114.12 3232 56.8507
114.238 3055 55.2721
114.355 2800 52.915
114.472 2493 49.93
114.589 2453 49.5278
114.707 2487 49.8698
114.824 2770 52.6308
114.942 2921 54.0463
115.059 2887 53.7308
115.176 3012 54.8817
115.294 2906 53.9073
115.411 2841 53.301
115.529 2935 54.1756
115.646 2948 54.2955
115.764 2844 53.3292
115.881 2835 53.2447
115.999 2956 54.3691
116.116 2841 53.301
116.234 2940 54.2218
116.351 3003 54.7996
116.469 3078 55.4797
116.586 3142 56.0535
116.704 3201 56.5774
116.821 3242 56.9386
116.939 3210 56.6569
117.056 3143 56.0625
117.174 3250 57.0088
117.291 3146 56.0892
117.409 3137 56.0089
117.526 3177 56.3649
117.644 3128 55.9285
117.761 3039 55.1271
117.879 3073 55.4346
117.996 2764 52.5738
118.114 2558 50.5767
118.231 2368 48.6621
118.349 2649 51.4684
118.466 2734 52.2877
118.584 2977 54.5619
118.701 2911 53.9537
118.819 2991 54.69
118.936 2929 54.1202
119.053 2918 54.0185
119.171 2827 53.1695
119.288 2905 53.8981
119.405 2793 52.8488
119.523 2802 52.9339
119.64 2738 52.3259
119.757 2827 53.1695
119.875 2925 54.0833
119.992 2974 54.5344
120.109 2968 54.4794
120.226 3022 54.9727
120.343 3006 54.827
120.46 3011 54.8726
120.578 3033 55.0727
120.695 2882 53.6843
120.812 2962 54.4243
120.929 2915 53.9907
121.046 2831 53.2071
121.163 2942 54.2402
121.279 2891 53.768
121.396 2804 52.9528
121.513 2798 52.8961
121.63 2538 50.3786
121.747 2345 48.4252
121.863 2023 44.9778
121.98 1958 44.2493
122.097 1928 43.909
122.213 2006 44.7884
122.33 2087 45.6837
122.446 1984 44.5421
122.563 2024 44.9889
122.679 1881 43.3705
122.795 1847 42.9767
122.912 1744 41.7612
123.028 1733 41.6293
123.144 1757 41.9166
123.26 1717 41.4367
123.377 0 1
123.493 0 1
123.609 0 1
123.725 0 1
123.84 0 1
123.956 0 1
124.072 0 1
124.188 0 1
124.303 0 1
124.419 0 1
126.852 0 1
126.968 0 1
127.083 0 1
127.199 0 1
127.315 0 1
127.431 0 1
127.547 0 1
127.663 0 1
127.779 0 1
127.895 0 1
128.011 0 1
128.127 0 1
128.243 0 1
128.359 3309 57.5239
128.476 3244 56.9561
128.592 3267 57.1577
128.708 3259 57.0877
128.825 3316 57.5847
128.941 3292 57.376
129.058 3340 57.7927
129.174 3426 58.532
129.291 3477 58.9661
129.408 3651 60.4235
129.524 3808 61.709
129.641 3926 62.6578
129.758 3755 61.2781
129.875 3967 62.9841
129.992 3916 62.578
130.108 4032 63.498
130.225 3920 62.6099
130.342 4022 63.4192
130.459 3898 62.434
130.576 3861 62.1369
130.693 3508 59.2284
130.81 3400 58.3095
130.928 3494 59.1101
131.045 3497 59.1354
131.162 3737 61.131
131.279 3948 62.8331
131.396 3726 61.041
131.513 3748 61.2209
131.631 3739 61.1474
131.748 3794 61.5955
131.865 3622 60.1831
131.983 3762 61.3351
132.1 3762 61.3351
132.217 3740 61.1555
132.335 3665 60.5392
132.452 3727 61.0492
132.57 3637 60.3075
132.687 3505 59.203
132.804 3807 61.7009
132.922 3645 60.3738
133.039 3759 61.3107
133.157 3731 61.0819
133.274 3846 62.0161
133.392 4026 63.4508
133.509 4085 63.914
133.627 4061 63.726
133.744 4139 64.3351
133.862 4192 64.7457
133.979 4203 64.8305
134.097 4093 63.9766
134.214 3989 63.1585
134.332 3820 61.8061
134.449 3843 61.9919
134.567 3922 62.6259
134.684 4017 63.3798
134.802 4115 64.1483
134.919 4041 63.5689
135.037 4104 64.0625
135.154 4132 64.2806
135.272 4052 63.6553
135.389 4062 63.7338
135.507 4055 63.6789
135.624 3890 62.3699
135.742 3853 62.0725
135.859 3934 62.7216
135.977 3845 62.0081
136.094 3816 61.7738
136.211 3788 61.5467
136.329 3793 61.5873
136.446 3862 62.145
136.564 3972 63.0238
136.681 3833 61.9112
136.798 4083 63.8984
136.915 3924 62.6418
137.033 4104 64.0625
137.15 4067 63.773
137.267 4100 64.0312
137.384 4105 64.0703
137.502 4072 63.8122
137.619 4116 64.1561
137.736 3924 62.6418
137.853 3730 61.0737
137.97 3705 60.8687
138.087 3465 58.8643
138.204 3700 60.8276
138.321 3818 61.79
138.438 3812 61.7414
138.555 3939 62.7615
138.672 3925 62.6498
138.788 3831 61.8951
138.905 3723 61.0164
139.022 3708 60.8933
139.139 3521 59.338
139.255 3406 58.3609
139.372 3241 56.9298
139.488 3162 56.2317
139.605 3008 54.8452
139.721 2885 53.7122
139.838 2812 53.0283
139.954 2767 52.6023
140.071 2692 51.8845
140.187 2691 51.8748
140.303 2661 51.5849
140.419 2681 51.7784
140.535 2841 53.301
140.652 2849 53.376
140.768 0 1
140.884 0 1
141 0 1
141.115 0 1
141.231 0 1
141.347 0 1
141.463 0 1
141.578 0 1
141.694 0 1
144.104 0 1
144.219 0 1
144.335 0 1
144.45 0 1
144.566 0 1
144.682 0 1
144.798 0 1
144.914 0 1
145.03 0 1
145.146 8032 89.6214
145.262 8399 91.6461
145.378 8446 91.9021
145.494 8555 92.4932
145.61 8600 92.7362
145.726 8773 93.6643
145.842 8687 93.2041
145.959 8595 92.7092
146.075 8686 93.1987
146.192 8741 93.4933
146.308 8491 92.1466
146.425 8277 90.978
146.541 7681 87.6413
146.658 6564 81.0185
146.774 5717 75.6108
146.891 5504 74.1889
147.008 6249 79.0506
147.125 7458 86.3597
147.241 8066 89.8109
147.358 8364 91.4549
147.475 8335 91.2962
147.592 8464 92
147.709 8569 92.5689
147.826 8494 92.1629
147.943 8429 91.8096
148.06 8627 92.8816
148.177 8484 92.1086
148.294 8458 91.9674
148.411 8529 92.3526
148.528 8590 92.6823
148.645 8643 92.9677
148.762 8511 92.2551
148.88 8593 92.6984
148.997 8479 92.0815
149.114 9030 95.0263
149.231 8718 93.3702
149.349 8833 93.984
149.466 8766 93.6269
149.583 8897 94.3239
149.701 8560 92.5203
149.818 8976 94.7418
149.935 8822 93.9255
150.053 8771 93.6536
150.17 8357 91.4166
150.287 7589 87.1149
150.405 6345 79.6555
150.522 5718 75.6175
150.64 6369 79.806
150.757 7413 86.0988
150.875 8048 89.7106
150.992 8571 92.5797
151.11 8309 91.1537
151.227 8640 92.9516
151.344 8411 91.7115
151.462 8466 92.0109
151.579 8388 91.586
151.697 8593 92.6984
151.814 8619 92.8386
151.932 8642 92.9624
152.049 8597 92.72
152.167 8668 93.1021
152.284 8809 93.8563
152.402 8703 93.2899
152.519 8777 93.6856
152.636 8850 94.0744
152.754 8845 94.0479
152.871 9060 95.184
152.989 8840 94.0213
153.106 9027 95.0105
153.223 8977 94.747
153.341 9081 95.2943
153.458 9011 94.9263
153.575 8962 94.6678
153.693 9060 95.184
153.81 8610 92.7901
153.927 7630 87.3499
154.044 6570 81.0555
154.162 5999 77.4532
154.279 6581 81.1234
154.396 7785 88.2326
154.513 8516 92.2822
154.63 8918 94.4352
154.747 9010 94.921
154.864 8892 94.2974
154.981 8841 94.0266
155.098 8530 92.358
155.215 8534 92.3797
155.332 8370 91.4877
155.449 8288 91.0385
155.566 8027 89.5935
155.683 7786 88.2383
155.8 7661 87.5271
155.917 7557 86.931
156.033 7346 85.7088
156.15 0 1
156.267 0 1
156.383 0 1
156.5 0 1
156.617 0 1
156.733 0 1
156.85 0 1
156.966 0 1
157.082 0 1
157.199 0 1
157.315 0 1
157.431 0 1
157.547 0 1
157.664 0 1
157.78 0 1
157.896 0 1
158.012 0 1
158.128 0 1
158.244 0 1
158.359 0 1
158.475 0 1
158.591 0 1
158.706 0 1
