
6.15755 0 1
6.2731 0 1
6.3887 0 1
6.50437 0 1
6.62009 0 1
6.73587 0 1
6.8517 0 1
6.96759 0 1
7.08353 0 1
7.19952 0 1
7.31557 0 1
7.43166 0 1
7.54781 0 1
7.664 0 1
7.78024 0 1
7.89653 0 1
8.01286 0 1
8.12924 0 1
8.24567 0 1
8.36213 0 1
8.47864 0 1
8.59519 0 1
8.71178 0 1
8.82841 0 1
8.94508 0 1
9.06179 0 1
9.17853 0 1
9.29531 0 1
9.41212 0 1
9.52897 0 1
9.64584 0 1
9.76276 0 1
9.8797 0 1
9.99667 0 1
10.1137 0 1
10.2307 0 1
10.3478 0 1
10.4648 0 1
10.5819 0 1
10.6991 0 1
10.8162 0 1
10.9334 0 1
11.0506 0 1
11.1678 0 1
11.285 0 1
11.4023 0 1
11.5196 0 1
11.6369 0 1
11.7542 0 1
11.8715 0 1
11.9888 0 1
12.1062 0 1
12.2235 0 1
12.3409 0 1
12.4582 0 1
12.5756 0 1
12.693 0 1
12.8104 0 1
12.9278 0 1
13.0452 0 1
13.1626 0 1
13.28 0 1
13.3974 0 1
13.5149 0 1
13.6323 0 1
13.7497 0 1
13.8671 0 1
13.9845 0 1
14.1019 0 1
14.2193 0 1
14.3367 0 1
14.4541 0 1
14.5714 0 1
14.6888 0 1
14.8062 0 1
14.9235 0 1
15.0408 0 0
15.1581 0 0
15.2755 0 0
15.3927 0 0
15.51 0 0
15.6273 0 0
15.7445 0 0
15.8617 0 0
15.9789 0 0
16.0961 0 0
16.2132 0 0
16.3304 0 0
16.4475 0 0
16.5646 0 0
16.6816 0 0
16.7986 0 0
16.9156 0 0
17.0326 0 0
17.1496 0 0
17.2665 0 0
17.3833 0 0
17.5002 0 0
17.617 0 0
17.7338 0 0
17.8505 0 0
17.9672 0 0
18.0839 0 0
18.2005 0 0
18.3171 0 0
18.4337 0 0
18.5502 0 0
18.6666 0 0
18.7831 0 0
18.8994 0 0
19.0158 0 0
19.1321 0 0
19.2483 0 0
19.3645 0 0
19.4806 0 0
19.5967 0 0
19.7128 0 0
19.8288 0 0
19.9447 0 0
20.0606 0 1
20.1764 0 1
20.2922 0 1
20.4079 0 1
20.5236 0 1
20.6392 0 1
20.7548 0 1
20.8702 0 1
23.3078 0 1
23.4233 0 1
23.539 0 1
23.6547 0 1
23.7704 0 1
23.8862 0 1
24.0021 0 1
24.118 0 1
24.234 0 1
24.35 0 1
24.4661 3531 59.4222
24.5822 3615 60.1249
24.6984 3527 59.3886
24.8146 3638 60.3158
24.9309 3676 60.63
25.0472 3694 60.7783
25.1636 3713 60.9344
25.28 3836 61.9355
25.3965 3991 63.1744
25.513 3974 63.0397
25.6296 4145 64.3817
25.7462 4259 65.261
25.8628 4063 63.7417
25.9795 4172 64.591
26.0962 4064 63.7495
26.213 4015 63.364
26.3298 3985 63.1269
26.4466 4060 63.7181
26.5635 4072 63.8122
26.6804 4140 64.3428
26.7973 4157 64.4748
26.9143 3937 62.7455
27.0313 3822 61.8223
27.1483 3957 62.9047
27.2653 3826 61.8547
27.3824 4186 64.6993
27.4996 4045 63.6003
27.6167 3912 62.546
27.7339 3970 63.0079
27.8511 3885 62.3298
27.9683 3708 60.8933
28.0855 3688 60.7289
28.2028 3770 61.4003
28.3201 3593 59.9416
28.4374 3532 59.4306
28.5547 3584 59.8665
28.6721 3593 59.9416
28.7894 3611 60.0916
28.9068 3724 61.0246
29.0242 3573 59.7746
29.1416 3779 61.4736
29.259 3710 60.9098
29.3764 3740 61.1555
29.4939 3806 61.6928
29.6113 3896 62.4179
29.7288 3835 61.9274
29.8463 3889 62.3618
29.9638 4070 63.7966
30.0812 3977 63.0635
30.1987 4051 63.6475
30.3162 3976 63.0555
30.4337 3854 62.0806
30.5512 3924 62.6418
30.6687 3811 61.7333
30.7862 3813 61.7495
30.9037 3920 62.6099
31.0212 3975 63.0476
31.1387 3875 62.2495
31.2562 3823 61.8304
31.3737 3854 62.0806
31.4912 3722 61.0082
31.6087 3748 61.2209
31.7262 3688 60.7289
31.8436 3647 60.3904
31.9611 3583 59.8582
32.0785 3583 59.8582
32.1959 3582 59.8498
32.3134 3651 60.4235
32.4308 3680 60.663
32.5482 3581 59.8415
32.6655 3683 60.6877
32.7829 3679 60.6548
32.9002 3751 61.2454
33.0176 3676 60.63
33.1349 3809 61.7171
33.2522 3732 61.0901
33.3694 3866 62.1772
33.4867 3986 63.1348
33.6039 4032 63.498
33.7211 3989 63.1585
33.8383 4039 63.5531
33.9554 3945 62.8092
34.0725 3848 62.0322
34.1896 3729 61.0655
34.3067 3864 62.1611
34.4237 3704 60.8605
34.5407 3581 59.8415
34.6577 3764 61.3514
34.7746 3806 61.6928
34.8915 3805 61.6847
35.0084 3663 60.5227
35.1252 3639 60.3241
35.242 3645 60.3738
35.3587 3592 59.9333
35.4755 3543 59.5231
35.5921 3649 60.407
35.7088 3759 61.3107
35.8254 3600 60
35.9419 3689 60.7371
36.0584 3501 59.1692
36.1749 3641 60.3407
36.2913 3504 59.1946
36.4077 3641 60.3407
36.524 3677 60.6383
36.6403 3594 59.95
36.7565 3588 59.8999
36.8727 3650 60.4152
36.9889 3767 61.3759
37.1049 3739 61.1474
37.221 0 1
37.3369 0 1
37.4529 0 1
37.5687 0 1
37.6845 0 1
37.8003 0 1
37.916 0 1
38.0316 0 1
38.1472 0 1
40.5851 0 1
40.7008 0 1
40.8164 0 1
40.9322 0 1
41.048 0 1
41.1639 0 1
41.2798 0 1
41.3958 0 1
41.5118 0 1
41.6279 0 1
41.744 2828 53.1789
41.8602 2948 54.2955
41.9765 2993 54.7083
42.0928 3027 55.0182
42.2091 3192 56.4978
42.3255 3107 55.7405
42.4419 3107 55.7405
42.5584 3134 55.9821
42.675 3275 57.2276
42.7915 3146 56.0892
42.9081 3055 55.2721
43.0248 2982 54.6077
43.1415 3071 55.4166
43.2582 3046 55.1906
43.375 3079 55.4887
43.4918 3100 55.6776
43.6087 3046 55.1906
43.7256 2978 54.5711
43.8425 2895 53.8052
43.9595 2913 53.9722
44.0765 2882 53.6843
44.1935 2995 54.7266
44.3106 2864 53.5164
44.4277 2923 54.0648
44.5448 2989 54.6717
44.6619 2838 53.2729
44.7791 2785 52.7731
44.8963 2733 52.2781
45.0136 2533 50.3289
45.1308 2449 49.4874
45.2481 2476 49.7594
45.3654 2441 49.4065
45.4827 2364 48.621
45.6001 2466 49.6588
45.7174 2556 50.5569
45.8348 2539 50.3885
45.9522 2474 49.7393
46.0697 2479 49.7896
46.1871 2554 50.5371
46.3046 2529 50.2892
46.422 2469 49.689
46.5395 2476 49.7594
46.657 2423 49.224
46.7745 2307 48.0312
46.892 2381 48.7955
47.0096 2321 48.1768
47.1271 2433 49.3254
47.2446 2317 48.1352
47.3622 2357 48.5489
47.4797 2333 48.3011
47.5973 2250 47.4342
47.7149 2197 46.8722
47.8324 2291 47.8644
47.95 2196 46.8615
48.0675 2191 46.8081
48.1851 2071 45.5082
48.3027 2184 46.7333
48.4202 1976 44.4522
48.5378 1942 44.0681
48.6554 1913 43.7379
48.7729 1891 43.4856
48.8904 1970 44.3847
49.008 1921 43.8292
49.1255 1927 43.8976
49.243 1968 44.3621
49.3605 2041 45.1774
49.478 2016 44.8999
49.5955 2044 45.2106
49.713 2195 46.8508
49.8304 2092 45.7384
49.9479 2181 46.7012
50.0653 2123 46.076
50.1827 2090 45.7165
50.3001 2144 46.3033
50.4175 2138 46.2385
50.5348 2341 48.3839
50.6521 2338 48.3529
50.7694 2566 50.6557
50.8867 2552 50.5173
51.004 2532 50.319
51.1212 2805 52.9623
51.2384 2756 52.4976
51.3556 2828 53.1789
51.4727 2774 52.6688
51.5899 2809 53
51.707 2760 52.5357
51.824 2729 52.2398
51.9411 2751 52.45
52.0581 2749 52.4309
52.175 2803 52.9434
52.2919 2647 51.449
52.4088 2772 52.6498
52.5257 2738 52.3259
52.6425 2912 53.963
52.7593 2942 54.2402
52.876 3098 55.6597
52.9927 3108 55.7494
53.1094 3202 56.5862
53.226 3135 55.9911
53.3426 3378 58.1206
53.4591 3355 57.9224
53.5756 3471 58.9152
53.692 3456 58.7878
53.8084 3365 58.0086
53.9248 3518 59.3127
54.0411 3538 59.4811
54.1573 3664 60.531
54.2735 0 1
54.3896 0 1
54.5057 0 1
54.6217 0 1
54.7377 0 1
54.8537 0 1
54.9695 0 1
55.0853 0 1
55.2011 0 1
55.3168 0 1
55.4324 0 1
57.824 0 1
57.9396 0 1
58.0553 0 1
58.1711 0 1
58.2869 0 1
58.4028 0 1
58.5187 0 1
58.6347 0 1
58.7508 0 1
58.8669 0 1
58.983 4080 63.8749
59.0992 4140 64.3428
59.2155 4324 65.7571
59.3318 4508 67.1416
59.4482 4652 68.2056
59.5646 4642 68.1322
59.681 4662 68.2788
59.7975 4607 67.8749
59.9141 4600 67.8233
60.0306 4416 66.453
60.1473 4286 65.4675
60.2639 4313 65.6734
60.3807 4122 64.2028
60.4974 4118 64.1716
60.6142 3964 62.9603
60.731 3817 61.7819
60.8479 3692 60.7618
60.9648 3769 61.3922
61.0818 3855 62.0886
61.1987 3806 61.6928
61.3158 3732 61.0901
61.4328 3793 61.5873
61.5499 3813 61.7495
61.667 3795 61.6036
61.7841 3678 60.6465
61.9013 3863 62.153
62.0185 3859 62.1208
62.1357 3783 61.5061
62.253 3822 61.8223
62.3702 3679 60.6548
62.4875 3890 62.3699
62.6049 4049 63.6318
62.7222 4090 63.9531
62.8396 4341 65.8863
62.9569 4505 67.1193
63.0743 4402 66.3476
63.1918 4438 66.6183
63.3092 4445 66.6708
63.4267 4292 65.5134
63.5441 4241 65.123
63.6616 4115 64.1483
63.7791 3842 61.9839
63.8966 3894 62.4019
64.0142 3656 60.4649
64.1317 3504 59.1946
64.2492 3435 58.6089
64.3668 3482 59.0085
64.4843 3405 58.3524
64.6019 3425 58.5235
64.7195 3593 59.9416
64.837 3627 60.2246
64.9546 3691 60.7536
65.0722 3498 59.1439
65.1898 3520 59.3296
65.3074 3587 59.8916
65.4249 3557 59.6406
65.5425 3519 59.3212
65.6601 3537 59.4727
65.7777 3545 59.5399
65.8952 3453 58.7622
66.0128 3556 59.6322
66.1304 3612 60.0999
66.2479 3904 62.482
66.3655 4069 63.7887
66.483 4279 65.4141
66.6005 4274 65.3758
66.718 4288 65.4828
66.8355 4259 65.261
66.953 4262 65.284
67.0705 4005 63.2851
67.1879 3969 63
67.3054 3901 62.458
67.4228 3687 60.7207
67.5402 3575 59.7913
67.6576 3477 58.9661
67.7749 3423 58.5064
67.8923 3413 58.4209
68.0096 3433 58.5918
68.1269 3653 60.4401
68.2442 3705 60.8687
68.3614 3818 61.79
68.4787 3850 62.0484
68.5958 3820 61.8061
68.713 3740 61.1555
68.8302 3681 60.6712
68.9473 3787 61.5386
69.0643 3676 60.63
69.1814 3777 61.4573
69.2984 3733 61.0983
69.4154 3850 62.0484
69.5323 3659 60.4897
69.6492 3864 62.1611
69.7661 3993 63.1902
69.8829 4377 66.1589
69.9997 4501 67.0895
70.1165 4620 67.9706
70.2332 4815 69.3902
70.3499 4699 68.5493
70.4665 4759 68.9855
70.5831 4725 68.7386
70.6996 4367 66.0833
70.8161 4358 66.0151
70.9326 4166 64.5446
71.049 4016 63.3719
71.1653 3867 62.1852
71.2817 3730 61.0737
71.3979 3729 61.0655
71.5141 3710 60.9098
71.6303 3615 60.1249
71.7464 3336 57.7581
71.8624 0 1
71.9784 0 1
72.0944 0 1
72.2102 0 1
72.3261 0 1
72.4418 0 1
72.5575 0 1
72.6732 0 1
75.1054 0 1
75.2209 0 1
75.3365 0 1
75.4521 0 1
75.5678 0 1
75.6835 0 1
75.7993 0 1
75.9151 0 1
76.031 0 1
76.147 4408 66.3928
76.263 4459 66.7757
76.3791 4269 65.3376
76.4952 4150 64.4205
76.6113 4135 64.304
76.7276 4167 64.5523
76.8438 4205 64.846
76.9601 4194 64.7611
77.0765 4225 65
77.1929 4404 66.3626
77.3093 4768 69.0507
77.4258 4759 68.9855
77.5423 4812 69.3686
77.6589 4756 68.9638
77.7755 4602 67.838
77.8921 4568 67.587
78.0088 4513 67.1789
78.1256 4316 65.6963
78.2423 4222 64.9769
78.3591 4295 65.5362
78.4759 4298 65.5591
78.5928 4308 65.6354
78.7097 4165 64.5368
78.8266 4048 63.6239
78.9436 4203 64.8305
79.0606 4465 66.8207
79.1776 4795 69.2459
79.2946 4976 70.5408
79.4117 4980 70.5691
79.5288 5127 71.6031
79.6459 5073 71.225
79.7631 4846 69.6132
79.8802 4469 66.8506
79.9974 4494 67.0373
80.1147 4743 68.8694
80.2319 4885 69.8928
80.3491 5092 71.3583
80.4664 5055 71.0985
80.5837 5126 71.5961
80.701 5146 71.7356
80.8183 5448 73.8106
80.9357 5766 75.9342
81.053 5864 76.5768
81.1704 5846 76.4591
81.2877 5881 76.6877
81.4051 5666 75.2728
81.5225 5697 75.4785
81.6399 5566 74.6056
81.7573 5507 74.2092
81.8747 5222 72.2634
81.9922 4881 69.8642
82.1096 4890 69.9285
82.227 4954 70.3847
82.3444 4946 70.3278
82.4619 4853 69.6635
82.5793 4398 66.3174
82.6967 4489 67
82.8142 5296 72.7736
82.9316 5657 75.213
83.049 5619 74.96
83.1664 5436 73.7292
83.2838 5291 72.7393
83.4012 5147 71.7426
83.5186 4873 69.8069
83.636 4718 68.6877
83.7534 4666 68.3081
83.8708 4672 68.352
83.9881 4473 66.8805
84.1055 4453 66.7308
84.2228 4354 65.9848
84.3401 4385 66.2193
84.4575 4538 67.3647
84.5747 4699 68.5493
84.692 5021 70.859
84.8093 4844 69.5989
84.9265 4853 69.6635
85.0437 4843 69.5917
85.1609 4796 69.2532
85.2781 4680 68.4105
85.3952 4722 68.7168
85.5123 4465 66.8207
85.6294 4328 65.7875
85.7465 4296 65.5439
85.8636 4440 66.6333
85.9806 4488 66.9925
86.0976 4327 65.7799
86.2145 4074 63.8279
86.3315 4517 67.2086
86.4484 5165 71.8679
86.5652 5249 72.45
86.682 5349 73.1369
86.7988 4957 70.406
86.9156 4648 68.1762
87.0323 4222 64.9769
87.149 4009 63.3167
87.2657 3858 62.1128
87.3823 3672 60.597
87.4988 3477 58.9661
87.6154 3313 57.5587
87.7318 3187 56.4535
87.8483 3343 57.8187
87.9647 3235 56.8771
88.081 3546 59.5483
88.1973 3925 62.6498
88.3136 3992 63.1823
88.4298 3855 62.0886
88.546 3771 61.4085
88.6621 3732 61.0901
88.7781 3660 60.4979
88.8942 0 1
89.0101 0 1
89.126 0 1
89.2419 0 1
89.3577 0 1
89.4734 0 1
89.5891 0 1
89.7047 0 1
89.8203 0 1
89.9358 0 1
92.3269 0 1
92.4424 0 1
92.558 0 1
92.6736 0 1
92.7893 0 1
92.905 0 1
93.0208 0 1
93.1366 0 1
93.2525 0 1
93.3685 0 1
93.4845 0 1
93.6005 3332 57.7235
93.7167 3629 60.2412
93.8328 3650 60.4152
93.949 3476 58.9576
94.0653 3371 58.0603
94.1816 3361 57.9741
94.2979 3425 58.5235
94.4143 3392 58.2409
94.5307 3351 57.8878
94.6472 3477 58.9661
94.7637 3544 59.5315
94.8803 3497 59.1354
94.9969 3551 59.5903
95.1135 3465 58.8643
95.2302 3373 58.0775
95.3469 3028 55.0273
95.4637 3305 57.4891
95.5805 3798 61.6279
95.6973 3986 63.1348
95.8142 4004 63.2772
95.9311 3833 61.9112
96.048 3624 60.1997
96.1649 3343 57.8187
96.2819 3296 57.4108
96.3989 3093 55.6147
96.516 3027 55.0182
96.633 2901 53.8609
96.7501 2766 52.5928
96.8673 2751 52.45
96.9844 2755 52.4881
97.1016 2757 52.5071
97.2188 2832 53.2165
97.336 3052 55.2449
97.4532 3151 56.1338
97.5704 3107 55.7405
97.6877 2958 54.3875
97.805 2933 54.1572
97.9223 2676 51.7301
98.0396 2849 53.376
98.1569 2757 52.5071
98.2743 2752 52.4595
98.3916 2820 53.1037
98.509 2826 53.1601
98.6264 2810 53.0094
98.7438 2759 52.5262
98.8612 2671 51.6817
98.9786 2649 51.4684
99.096 2804 52.9528
99.2134 3040 55.1362
99.3308 3162 56.2317
99.4482 3016 54.9181
99.5656 2759 52.5262
99.6831 2561 50.6063
99.8005 2311 48.0729
99.9179 2063 45.4203
100.035 2031 45.0666
100.153 1776 42.1426
100.27 1829 42.7668
100.388 1556 39.4462
100.505 1613 40.1622
100.622 1672 40.8901
100.74 1694 41.1582
100.857 1856 43.0813
100.975 2018 44.9222
101.092 2131 46.1628
101.209 2184 46.7333
101.327 2141 46.2709
101.444 2128 46.1303
101.561 2112 45.9565
101.679 2258 47.5184
101.796 2318 48.1456
101.913 2377 48.7545
102.03 2477 49.7695
102.148 2617 51.1566
102.265 2907 53.9166
102.382 2521 50.2096
102.499 2599 50.9804
102.616 3025 55
102.733 3449 58.7282
102.851 3482 59.0085
102.968 3539 59.4895
103.085 3484 59.0254
103.202 3395 58.2666
103.319 3108 55.7494
103.436 2926 54.0925
103.552 2776 52.6878
103.669 2603 51.0196
103.786 2492 49.9199
103.903 2395 48.9387
104.02 2401 49
104.137 2455 49.548
104.253 2514 50.1398
104.37 2536 50.3587
104.487 3007 54.8361
104.603 2972 54.5161
104.72 2924 54.074
104.836 2926 54.0925
104.953 2916 54
105.069 2932 54.1479
105.186 3132 55.9643
105.302 3185 56.4358
105.418 3289 57.3498
105.535 3422 58.4979
105.651 3611 60.0916
105.767 3603 60.025
105.883 3456 58.7878
105.999 3508 59.2284
106.115 0 1
106.231 0 1
106.347 0 1
106.463 0 1
106.579 0 1
106.694 0 1
106.81 0 1
106.926 0 1
107.041 0 1
107.157 0 1
109.576 0 1
109.692 0 1
109.807 0 1
109.923 0 1
110.039 0 1
110.155 0 1
110.27 0 1
110.386 0 1
110.502 0 1
110.618 3458 58.8048
110.735 3548 59.5651
110.851 3556 59.6322
110.967 3230 56.8331
111.083 3158 56.1961
111.199 3620 60.1664
111.316 4098 64.0156
111.432 4094 63.9844
111.549 4204 64.8383
111.665 3942 62.7853
111.782 3713 60.9344
111.898 3601 60.0083
112.015 3288 57.3411
112.132 3114 55.8032
112.248 3058 55.2992
112.365 2907 53.9166
112.482 2749 52.4309
112.599 2580 50.7937
112.716 2574 50.7346
112.832 2607 51.0588
112.949 2615 51.1371
113.066 2706 52.0192
113.183 2546 50.4579
113.3 2515 50.1498
113.417 2499 49.99
113.534 2582 50.8134
113.652 2651 51.4879
113.769 2707 52.0288
113.886 2808 52.9906
114.003 2906 53.9073
114.12 2980 54.5894
114.238 3220 56.745
114.355 3443 58.6771
114.472 3369 58.0431
114.589 2867 53.5444
114.707 3056 55.2811
114.824 3248 56.9912
114.942 3532 59.4306
115.059 3548 59.5651
115.176 3616 60.1332
115.294 3306 57.4978
115.411 3110 55.7674
115.529 2872 53.591
115.646 2753 52.469
115.764 2792 52.8394
115.881 2605 51.0392
115.999 2508 50.0799
116.116 2413 49.1223
116.234 2273 47.676
116.351 2148 46.3465
116.469 2112 45.9565
116.586 2194 46.8402
116.704 2228 47.2017
116.821 2131 46.1628
116.939 2084 45.6508
117.056 2267 47.613
117.174 2317 48.1352
117.291 2489 49.8899
117.409 2483 49.8297
117.526 2720 52.1536
117.644 2800 52.915
117.761 2911 53.9537
117.879 3151 56.1338
117.996 3217 56.7186
118.114 3261 57.1052
118.231 3232 56.8507
118.349 3037 55.109
118.466 3252 57.0263
118.584 3321 57.6281
118.701 3351 57.8878
118.819 3302 57.463
118.936 3075 55.4527
119.053 2853 53.4135
119.171 2854 53.4228
119.288 2594 50.9313
119.405 2562 50.6162
119.523 2411 49.1019
119.64 2349 48.4665
119.757 2162 46.4973
119.875 2146 46.3249
119.992 1978 44.4747
120.109 1849 43
120.226 1831 42.7902
120.343 1734 41.6413
120.46 1843 42.9302
120.578 1890 43.4741
120.695 1951 44.1701
120.812 2111 45.9456
120.929 2204 46.9468
121.046 2453 49.5278
121.163 2495 49.95
121.279 2631 51.2933
121.396 2721 52.1632
121.513 2792 52.8394
121.63 2868 53.5537
121.747 2977 54.5619
121.863 3071 55.4166
121.98 3047 55.1996
122.097 3043 55.1634
122.213 3010 54.8635
122.33 3107 55.7405
122.446 3010 54.8635
122.563 3004 54.8088
122.679 2847 53.3573
122.795 2795 52.8678
122.912 2635 51.3323
123.028 2462 49.6185
123.144 2473 49.7293
123.26 2303 47.9896
123.377 0 1
123.493 0 1
123.609 0 1
123.725 0 1
123.84 0 1
123.956 0 1
124.072 0 1
124.188 0 1
124.303 0 1
124.419 0 1
126.852 0 1
126.968 0 1
127.083 0 1
127.199 0 1
127.315 0 1
127.431 0 1
127.547 0 1
127.663 0 1
127.779 0 1
127.895 0 1
128.011 0 1
128.127 0 1
128.243 0 1
128.359 2998 54.754
128.476 2971 54.5069
128.592 2834 53.2353
128.708 2696 51.923
128.825 2708 52.0384
128.941 2434 49.3356
129.058 2434 49.3356
129.174 2352 48.4974
129.291 2284 47.7912
129.408 2289 47.8435
129.524 2326 48.2286
129.641 2445 49.4469
129.758 2681 51.7784
129.875 2758 52.5167
129.992 2811 53.0189
130.108 3030 55.0454
130.225 2971 54.5069
130.342 2944 54.2586
130.459 2857 53.4509
130.576 2984 54.626
130.693 2994 54.7175
130.81 3254 57.0438
130.928 3390 58.2237
131.045 3415 58.438
131.162 3502 59.1777
131.279 3387 58.1979
131.396 3399 58.3009
131.513 3331 57.7148
131.631 3412 58.4123
131.748 3418 58.4637
131.865 3343 57.8187
131.983 3120 55.857
132.1 3173 56.3294
132.217 3091 55.5968
132.335 3067 55.3805
132.452 2892 53.7773
132.57 2801 52.9245
132.687 2590 50.892
132.804 2704 52
132.922 2657 51.5461
133.039 2702 51.9808
133.157 2727 52.2207
133.274 2770 52.6308
133.392 2958 54.3875
133.509 3074 55.4437
133.627 3082 55.5158
133.744 3081 55.5068
133.862 2978 54.5711
133.979 2938 54.2033
134.097 2849 53.376
134.214 2844 53.3292
134.332 3087 55.5608
134.449 3351 57.8878
134.567 3501 59.1692
134.684 3499 59.1523
134.802 3697 60.803
134.919 3598 59.9833
135.037 3781 61.4898
135.154 3669 60.5723
135.272 3818 61.79
135.389 3590 59.9166
135.507 3618 60.1498
135.624 3593 59.9416
135.742 3577 59.808
135.859 3613 60.1082
135.977 3538 59.4811
136.094 3397 58.2838
136.211 3440 58.6515
136.329 3405 58.3524
136.446 3364 58
136.564 3537 59.4727
136.681 3712 60.9262
136.798 3843 61.9919
136.915 3886 62.3378
137.033 4079 63.867
137.15 4037 63.5374
137.267 4257 65.2457
137.384 4265 65.307
137.502 4122 64.2028
137.619 4048 63.6239
137.736 4019 63.3956
137.853 4009 63.3167
137.97 4152 64.436
138.087 4105 64.0703
138.204 4685 68.4471
138.321 4685 68.4471
138.438 4858 69.6994
138.555 5229 72.3118
138.672 5121 71.5612
138.788 5288 72.7186
138.905 5224 72.2772
139.022 5286 72.7049
139.139 5131 71.631
139.255 5192 72.0555
139.372 5112 71.4983
139.488 5121 71.5612
139.605 4990 70.6399
139.721 4839 69.5629
139.838 4844 69.5989
139.954 4809 69.347
140.071 4644 68.1469
140.187 4844 69.5989
140.303 4729 68.7677
140.419 4749 68.913
140.535 4684 68.4398
140.652 4638 68.1029
140.768 0 1
140.884 0 1
141 0 1
141.115 0 1
141.231 0 1
141.347 0 1
141.463 0 1
141.578 0 1
141.694 0 1
144.104 0 1
144.219 0 1
144.335 0 1
144.45 0 1
144.566 0 1
144.682 0 1
144.798 0 1
144.914 0 1
145.03 0 1
145.146 4487 66.9851
145.262 4563 67.55
145.378 4673 68.3593
145.494 4592 67.7643
145.61 4543 67.4018
145.726 4556 67.4981
145.842 4334 65.8331
145.959 4618 67.9559
146.075 4375 66.1438
146.192 4356 66
146.308 4262 65.284
146.425 4338 65.8635
146.541 4426 66.5282
146.658 4396 66.3023
146.774 4616 67.9412
146.891 4444 66.6633
147.008 4611 67.9043
147.125 4832 69.5126
147.241 5035 70.9577
147.358 5051 71.0704
147.475 5068 71.1899
147.592 5189 72.0347
147.709 5134 71.6519
147.826 4929 70.2068
147.943 4971 70.5053
148.06 4857 69.6922
148.177 4724 68.7314
148.294 4654 68.2202
148.411 4560 67.5278
148.528 4602 67.838
148.645 4709 68.6222
148.762 4764 69.0217
148.88 4746 68.8912
148.997 4684 68.4398
149.114 4896 69.9714
149.231 4690 68.4836
149.349 4670 68.3374
149.466 4567 67.5796
149.583 4524 67.2607
149.701 4349 65.9469
149.818 4336 65.8483
149.935 4367 66.0833
150.053 4355 65.9924
150.17 4387 66.2344
150.287 4502 67.0969
150.405 4576 67.6461
150.522 4711 68.6367
150.64 4906 70.0428
150.757 4962 70.4415
150.875 4963 70.4486
150.992 5000 70.7107
151.11 4954 70.3847
151.227 5218 72.2357
151.344 5055 71.0985
151.462 4822 69.4406
151.579 5002 70.7248
151.697 4766 69.0362
151.814 4729 68.7677
151.932 4806 69.3253
152.049 4762 69.0072
152.167 4815 69.3902
152.284 4872 69.7997
152.402 4906 70.0428
152.519 4833 69.5198
152.636 4959 70.4202
152.754 4740 68.8477
152.871 4689 68.4763
152.989 4714 68.6586
153.106 4472 66.873
153.223 4421 66.4906
153.341 4442 66.6483
153.458 4490 67.0075
153.575 4619 67.9632
153.693 4446 66.6783
153.81 4773 69.0869
153.927 4811 69.3614
154.044 4860 69.7137
154.162 5031 70.9295
154.279 5265 72.5603
154.396 5334 73.0342
154.513 5531 74.3707
154.63 5469 73.9527
154.747 5437 73.736
154.864 5400 73.4847
154.981 5498 74.1485
155.098 5525 74.3303
155.215 5322 72.952
155.332 5121 71.5612
155.449 5170 71.9027
155.566 5112 71.4983
155.683 5240 72.3878
155.8 5106 71.4563
155.917 5151 71.7705
156.033 5149 71.7565
156.15 0 1
156.267 0 1
156.383 0 1
156.5 0 1
156.617 0 1
156.733 0 1
156.85 0 1
156.966 0 1
157.082 0 1
157.199 0 1
157.315 0 1
157.431 0 1
157.547 0 1
157.664 0 1
157.78 0 1
157.896 0 1
158.012 0 1
158.128 0 1
158.244 0 1
158.359 0 1
158.475 0 1
158.591 0 1
158.706 0 1
