
6.15755 0 1
6.2731 0 1
6.3887 0 1
6.50437 0 1
6.62009 0 1
6.73587 0 1
6.8517 0 1
6.96759 0 1
7.08353 0 1
7.19952 0 1
7.31557 0 1
7.43166 0 1
7.54781 0 1
7.664 0 1
7.78024 0 1
7.89653 0 1
8.01286 0 1
8.12924 0 1
8.24567 0 1
8.36213 0 1
8.47864 0 1
8.59519 0 1
8.71178 0 1
8.82841 0 1
8.94508 0 1
9.06179 0 1
9.17853 0 1
9.29531 0 1
9.41212 0 1
9.52897 0 1
9.64584 0 1
9.76276 0 1
9.8797 0 1
9.99667 0 1
10.1137 0 1
10.2307 0 1
10.3478 0 1
10.4648 0 1
10.5819 0 1
10.6991 0 1
10.8162 0 1
10.9334 0 1
11.0506 0 1
11.1678 0 1
11.285 0 1
11.4023 0 1
11.5196 0 1
11.6369 0 1
11.7542 0 1
11.8715 0 1
11.9888 0 1
12.1062 0 1
12.2235 0 1
12.3409 0 1
12.4582 0 1
12.5756 0 1
12.693 0 1
12.8104 0 1
12.9278 0 1
13.0452 0 1
13.1626 0 1
13.28 0 1
13.3974 0 1
13.5149 0 1
13.6323 0 1
13.7497 0 1
13.8671 0 1
13.9845 0 1
14.1019 0 1
14.2193 0 1
14.3367 0 1
14.4541 0 1
14.5714 0 1
14.6888 0 1
14.8062 0 1
14.9235 0 1
15.0408 0 0
15.1581 0 0
15.2755 0 0
15.3927 0 0
15.51 0 0
15.6273 0 0
15.7445 0 0
15.8617 0 0
15.9789 0 0
16.0961 0 0
16.2132 0 0
16.3304 0 0
16.4475 0 0
16.5646 0 0
16.6816 0 0
16.7986 0 0
16.9156 0 0
17.0326 0 0
17.1496 0 0
17.2665 0 0
17.3833 0 0
17.5002 0 0
17.617 0 0
17.7338 0 0
17.8505 0 0
17.9672 0 0
18.0839 0 0
18.2005 0 0
18.3171 0 0
18.4337 0 0
18.5502 0 0
18.6666 0 0
18.7831 0 0
18.8994 0 0
19.0158 0 0
19.1321 0 0
19.2483 0 0
19.3645 0 0
19.4806 0 0
19.5967 0 0
19.7128 0 0
19.8288 0 0
19.9447 0 0
20.0606 0 1
20.1764 0 1
20.2922 0 1
20.4079 0 1
20.5236 0 1
20.6392 0 1
20.7548 0 1
20.8702 0 1
23.3078 0 1
23.4233 0 1
23.539 0 1
23.6547 0 1
23.7704 0 1
23.8862 0 1
24.0021 0 1
24.118 0 1
24.234 0 1
24.35 0 1
24.4661 1130 33.6155
24.5822 1125 33.541
24.6984 1086 32.9545
24.8146 1122 33.4963
24.9309 1100 33.1662
25.0472 1082 32.8938
25.1636 980 31.305
25.28 1068 32.6803
25.3965 1037 32.2025
25.513 1061 32.573
25.6296 1124 33.5261
25.7462 1219 34.9142
25.8628 1219 34.9142
25.9795 1306 36.1386
26.0962 1268 35.609
26.213 1285 35.8469
26.3298 1286 35.8608
26.4466 1242 35.242
26.5635 1228 35.0428
26.6804 1123 33.5112
26.7973 1151 33.9264
26.9143 1156 34
27.0313 1248 35.327
27.1483 1247 35.3129
27.2653 1251 35.3695
27.3824 1247 35.3129
27.4996 1309 36.1801
27.6167 1281 35.7911
27.7339 1260 35.4965
27.8511 1280 35.7771
27.9683 1207 34.7419
28.0855 1181 34.3657
28.2028 1167 34.1614
28.3201 1095 33.0908
28.4374 1092 33.0454
28.5547 1014 31.8434
28.6721 1040 32.249
28.7894 1077 32.8177
28.9068 1049 32.3883
29.0242 1032 32.1248
29.1416 1066 32.6497
29.259 1083 32.909
29.3764 1139 33.7491
29.4939 1144 33.8231
29.6113 1158 34.0294
29.7288 1150 33.9116
29.8463 1188 34.4674
29.9638 1187 34.4529
30.0812 1146 33.8526
30.1987 1091 33.0303
30.3162 1033 32.1403
30.4337 1100 33.1662
30.5512 1155 33.9853
30.6687 1137 33.7194
30.7862 1220 34.9285
30.9037 1215 34.8569
31.0212 1255 35.426
31.1387 1203 34.6843
31.2562 1337 36.565
31.3737 1181 34.3657
31.4912 1202 34.6699
31.6087 1136 33.7046
31.7262 1132 33.6452
31.8436 1030 32.0936
31.9611 1039 32.2335
32.0785 1064 32.619
32.1959 1012 31.8119
32.3134 991 31.4802
32.4308 981 31.3209
32.5482 1003 31.6702
32.6655 1014 31.8434
32.7829 1082 32.8938
32.9002 1133 33.6601
33.0176 1131 33.6303
33.1349 1127 33.5708
33.2522 1120 33.4664
33.3694 1111 33.3317
33.4867 1147 33.8674
33.6039 1159 34.0441
33.7211 1142 33.7935
33.8383 1021 31.9531
33.9554 986 31.4006
34.0725 1024 32
34.1896 1161 34.0735
34.3067 1096 33.1059
34.4237 1164 34.1174
34.5407 1153 33.9559
34.6577 1150 33.9116
34.7746 1184 34.4093
34.8915 1196 34.5832
35.0084 1166 34.1467
35.1252 1184 34.4093
35.242 1149 33.8969
35.3587 1130 33.6155
35.4755 1082 32.8938
35.5921 1000 31.6228
35.7088 1057 32.5115
35.8254 942 30.692
35.9419 940 30.6594
36.0584 935 30.5778
36.1749 1026 32.0312
36.2913 975 31.225
36.4077 987 31.4166
36.524 1056 32.4962
36.6403 1072 32.7414
36.7565 1180 34.3511
36.8727 1127 33.5708
36.9889 1144 33.8231
37.1049 1146 33.8526
37.221 0 1
37.3369 0 1
37.4529 0 1
37.5687 0 1
37.6845 0 1
37.8003 0 1
37.916 0 1
38.0316 0 1
38.1472 0 1
40.5851 0 1
40.7008 0 1
40.8164 0 1
40.9322 0 1
41.048 0 1
41.1639 0 1
41.2798 0 1
41.3958 0 1
41.5118 0 1
41.6279 0 1
41.744 812 28.4956
41.8602 883 29.7153
41.9765 878 29.6311
42.0928 901 30.0167
42.2091 955 30.9031
42.3255 927 30.4467
42.4419 864 29.3939
42.5584 887 29.7825
42.675 741 27.2213
42.7915 768 27.7128
42.9081 811 28.4781
43.0248 855 29.2404
43.1415 918 30.2985
43.2582 908 30.133
43.375 954 30.8869
43.4918 899 29.9833
43.6087 960 30.9839
43.7256 939 30.6431
43.8425 860 29.3258
43.9595 943 30.7083
44.0765 896 29.9333
44.1935 826 28.7402
44.3106 843 29.0345
44.4277 754 27.4591
44.5448 756 27.4955
44.6619 672 25.923
44.7791 645 25.3969
44.8963 636 25.219
45.0136 659 25.671
45.1308 639 25.2784
45.2481 696 26.3818
45.3654 637 25.2389
45.4827 679 26.0576
45.6001 677 26.0192
45.7174 727 26.9629
45.8348 729 27
45.9522 697 26.4008
46.0697 622 24.9399
46.1871 643 25.3574
46.3046 572 23.9165
46.422 604 24.5764
46.5395 610 24.6982
46.657 643 25.3574
46.7745 643 25.3574
46.892 674 25.9615
47.0096 721 26.8514
47.1271 731 27.037
47.2446 647 25.4362
47.3622 720 26.8328
47.4797 652 25.5343
47.5973 664 25.7682
47.7149 664 25.7682
47.8324 603 24.5561
47.95 563 23.7276
48.0675 563 23.7276
48.1851 492 22.1811
48.3027 469 21.6564
48.4202 428 20.6882
48.5378 502 22.4054
48.6554 513 22.6495
48.7729 512 22.6274
48.8904 528 22.9783
49.008 542 23.2809
49.1255 559 23.6432
49.243 530 23.0217
49.3605 592 24.3311
49.478 532 23.0651
49.5955 508 22.5389
49.713 452 21.2603
49.8304 469 21.6564
49.9479 464 21.5407
50.0653 476 21.8174
50.1827 512 22.6274
50.3001 596 24.4131
50.4175 642 25.3377
50.5348 641 25.318
50.6521 691 26.2869
50.7694 709 26.6271
50.8867 672 25.923
51.004 676 26
51.1212 691 26.2869
51.2384 713 26.7021
51.3556 752 27.4226
51.4727 694 26.3439
51.5899 656 25.6125
51.707 608 24.6577
51.824 661 25.7099
51.9411 601 24.5153
52.0581 641 25.318
52.175 667 25.8263
52.2919 754 27.4591
52.4088 792 28.1425
52.5257 843 29.0345
52.6425 827 28.7576
52.7593 865 29.4109
52.876 886 29.7658
52.9927 856 29.2575
53.1094 879 29.6479
53.226 810 28.4605
53.3426 801 28.3019
53.4591 809 28.4429
53.5756 836 28.9137
53.692 912 30.1993
53.8084 873 29.5466
53.9248 1039 32.2335
54.0411 1054 32.4654
54.1573 1094 33.0757
54.2735 0 1
54.3896 0 1
54.5057 0 1
54.6217 0 1
54.7377 0 1
54.8537 0 1
54.9695 0 1
55.0853 0 1
55.2011 0 1
55.3168 0 1
55.4324 0 1
57.824 0 1
57.9396 0 1
58.0553 0 1
58.1711 0 1
58.2869 0 1
58.4028 0 1
58.5187 0 1
58.6347 0 1
58.7508 0 1
58.8669 0 1
58.983 1199 34.6266
59.0992 1181 34.3657
59.2155 1324 36.3868
59.3318 1311 36.2077
59.4482 1434 37.8682
59.5646 1364 36.9324
59.681 1340 36.606
59.7975 1368 36.9865
59.9141 1284 35.8329
60.0306 1215 34.8569
60.1473 1225 35
60.2639 1100 33.1662
60.3807 1004 31.686
60.4974 991 31.4802
60.6142 1037 32.2025
60.731 1027 32.0468
60.8479 1017 31.8904
60.9648 1063 32.6037
61.0818 1124 33.5261
61.1987 1130 33.6155
61.3158 1202 34.6699
61.4328 1218 34.8999
61.5499 1083 32.909
61.667 1111 33.3317
61.7841 974 31.209
61.9013 962 31.0161
62.0185 922 30.3645
62.1357 959 30.9677
62.253 941 30.6757
62.3702 1032 32.1248
62.4875 1170 34.2053
62.6049 1173 34.2491
62.7222 1241 35.2278
62.8396 1227 35.0286
62.9569 1272 35.6651
63.0743 1277 35.7351
63.1918 1191 34.5109
63.3092 1275 35.7071
63.4267 1238 35.1852
63.5441 1162 34.0881
63.6616 1050 32.4037
63.7791 953 30.8707
63.8966 878 29.6311
64.0142 882 29.6985
64.1317 908 30.133
64.2492 895 29.9166
64.3668 890 29.8329
64.4843 990 31.4643
64.6019 944 30.7246
64.7195 994 31.5278
64.837 1002 31.6544
64.9546 952 30.8545
65.0722 979 31.289
65.1898 846 29.0861
65.3074 842 29.0172
65.4249 794 28.178
65.5425 818 28.6007
65.6601 811 28.4781
65.7777 853 29.2062
65.8952 946 30.7571
66.0128 1003 31.6702
66.1304 1046 32.3419
66.2479 1075 32.7872
66.3655 1025 32.0156
66.483 1127 33.5708
66.6005 1028 32.0624
66.718 1016 31.8748
66.8355 1063 32.6037
66.953 1047 32.3574
67.0705 1036 32.187
67.1879 933 30.545
67.3054 940 30.6594
67.4228 830 28.8097
67.5402 798 28.2489
67.6576 801 28.3019
67.7749 795 28.1957
67.8923 809 28.4429
68.0096 795 28.1957
68.1269 863 29.3769
68.2442 943 30.7083
68.3614 930 30.4959
68.4787 1024 32
68.5958 951 30.8383
68.713 889 29.8161
68.8302 850 29.1548
68.9473 842 29.0172
69.0643 756 27.4955
69.1814 765 27.6586
69.2984 796 28.2135
69.4154 833 28.8617
69.5323 957 30.9354
69.6492 1037 32.2025
69.7661 1045 32.3265
69.8829 1077 32.8177
69.9997 1142 33.7935
70.1165 1139 33.7491
70.2332 1206 34.7275
70.3499 1214 34.8425
70.4665 1178 34.322
70.5831 1185 34.4238
70.6996 1076 32.8024
70.8161 1032 32.1248
70.9326 988 31.4325
71.049 992 31.496
71.1653 905 30.0832
71.2817 762 27.6043
71.3979 809 28.4429
71.5141 799 28.2666
71.6303 791 28.1247
71.7464 787 28.0535
71.8624 0 1
71.9784 0 1
72.0944 0 1
72.2102 0 1
72.3261 0 1
72.4418 0 1
72.5575 0 1
72.6732 0 1
75.1054 0 1
75.2209 0 1
75.3365 0 1
75.4521 0 1
75.5678 0 1
75.6835 0 1
75.7993 0 1
75.9151 0 1
76.031 0 1
76.147 963 31.0322
76.263 1039 32.2335
76.3791 950 30.8221
76.4952 918 30.2985
76.6113 805 28.3725
76.7276 847 29.1033
76.8438 834 28.8791
76.9601 929 30.4795
77.0765 947 30.7734
77.1929 1003 31.6702
77.3093 1034 32.1559
77.4258 1085 32.9393
77.5423 1004 31.686
77.6589 1026 32.0312
77.7755 909 30.1496
77.8921 923 30.3809
78.0088 821 28.6531
78.1256 752 27.4226
78.2423 750 27.3861
78.3591 799 28.2666
78.4759 923 30.3809
78.5928 949 30.8058
78.7097 1019 31.9218
78.8266 1023 31.9844
78.9436 1169 34.1906
79.0606 1128 33.5857
79.1776 1050 32.4037
79.2946 1126 33.5559
79.4117 1127 33.5708
79.5288 1081 32.8786
79.6459 1171 34.2199
79.7631 1031 32.1092
79.8802 1018 31.9061
79.9974 975 31.225
80.1147 928 30.4631
80.2319 815 28.5482
80.3491 785 28.0179
80.4664 819 28.6182
80.5837 766 27.6767
80.701 882 29.6985
80.8183 907 30.1164
80.9357 902 30.0333
81.053 976 31.241
81.1704 946 30.7571
81.2877 934 30.5614
81.4051 841 29
81.5225 787 28.0535
81.6399 758 27.5318
81.7573 720 26.8328
81.8747 695 26.3629
81.9922 733 27.074
82.1096 769 27.7308
82.227 913 30.2159
82.3444 860 29.3258
82.4619 970 31.1448
82.5793 1019 31.9218
82.6967 979 31.289
82.8142 1038 32.218
82.9316 979 31.289
83.049 953 30.8707
83.1664 976 31.241
83.2838 952 30.8545
83.4012 892 29.8664
83.5186 869 29.4788
83.636 817 28.5832
83.7534 792 28.1425
83.8708 672 25.923
83.9881 698 26.4197
84.1055 752 27.4226
84.2228 733 27.074
84.3401 774 27.8209
84.4575 793 28.1603
84.5747 898 29.9666
84.692 936 30.5941
84.8093 891 29.8496
84.9265 896 29.9333
85.0437 825 28.7228
85.1609 750 27.3861
85.2781 648 25.4558
85.3952 634 25.1794
85.5123 703 26.5141
85.6294 725 26.9258
85.7465 829 28.7924
85.8636 909 30.1496
85.9806 983 31.3528
86.0976 1038 32.218
86.2145 1071 32.7261
86.3315 1162 34.0881
86.4484 1102 33.1964
86.5652 1188 34.4674
86.682 1131 33.6303
86.7988 1094 33.0757
86.9156 1058 32.5269
87.0323 981 31.3209
87.149 1018 31.9061
87.2657 908 30.133
87.3823 878 29.6311
87.4988 847 29.1033
87.6154 855 29.2404
87.7318 887 29.7825
87.8483 951 30.8383
87.9647 1035 32.1714
88.081 1054 32.4654
88.1973 1116 33.4066
88.3136 1088 32.9848
88.4298 1127 33.5708
88.546 991 31.4802
88.6621 908 30.133
88.7781 830 28.8097
88.8942 0 1
89.0101 0 1
89.126 0 1
89.2419 0 1
89.3577 0 1
89.4734 0 1
89.5891 0 1
89.7047 0 1
89.8203 0 1
89.9358 0 1
92.3269 0 1
92.4424 0 1
92.558 0 1
92.6736 0 1
92.7893 0 1
92.905 0 1
93.0208 0 1
93.1366 0 1
93.2525 0 1
93.3685 0 1
93.4845 0 1
93.6005 1083 32.909
93.7167 1093 33.0606
93.8328 1093 33.0606
93.949 974 31.209
94.0653 942 30.692
94.1816 899 29.9833
94.2979 800 28.2843
94.4143 778 27.8927
94.5307 773 27.8029
94.6472 846 29.0861
94.7637 936 30.5941
94.8803 990 31.4643
94.9969 1063 32.6037
95.1135 1129 33.6006
95.2302 1227 35.0286
95.3469 1181 34.3657
95.4637 1278 35.7491
95.5805 1216 34.8712
95.6973 1266 35.5809
95.8142 1276 35.7211
95.9311 1243 35.2562
96.048 1159 34.0441
96.1649 1119 33.4515
96.2819 1058 32.5269
96.3989 1091 33.0303
96.516 1001 31.6386
96.633 952 30.8545
96.7501 955 30.9031
96.8673 923 30.3809
96.9844 965 31.0644
97.1016 1051 32.4191
97.2188 1102 33.1964
97.336 1179 34.3366
97.4532 1140 33.7639
97.5704 1151 33.9264
97.6877 997 31.5753
97.805 931 30.5123
97.9223 855 29.2404
98.0396 834 28.8791
98.1569 767 27.6948
98.2743 759 27.55
98.3916 882 29.6985
98.509 983 31.3528
98.6264 992 31.496
98.7438 1095 33.0908
98.8612 1162 34.0881
98.9786 1179 34.3366
99.096 1264 35.5528
99.2134 1233 35.1141
99.3308 1319 36.318
99.4482 1229 35.0571
99.5656 1236 35.1568
99.6831 1166 34.1467
99.8005 1110 33.3167
99.9179 1081 32.8786
100.035 1041 32.2645
100.153 964 31.0483
100.27 935 30.5778
100.388 965 31.0644
100.505 948 30.7896
100.622 1005 31.7017
100.74 1018 31.9061
100.857 1092 33.0454
100.975 1083 32.909
101.092 1153 33.9559
101.209 1053 32.45
101.327 961 31
101.444 894 29.8998
101.561 795 28.1957
101.679 775 27.8388
101.796 855 29.2404
101.913 817 28.5832
102.03 960 30.9839
102.148 1079 32.8481
102.265 1120 33.4664
102.382 1214 34.8425
102.499 1286 35.8608
102.616 1280 35.7771
102.733 1271 35.6511
102.851 1230 35.0714
102.968 1225 35
103.085 1213 34.8281
103.202 1216 34.8712
103.319 1140 33.7639
103.436 1150 33.9116
103.552 1141 33.7787
103.669 1044 32.311
103.786 1005 31.7017
103.903 987 31.4166
104.02 1030 32.0936
104.137 1177 34.3074
104.253 1123 33.5112
104.37 1192 34.5254
104.487 1156 34
104.603 1203 34.6843
104.72 1109 33.3017
104.836 1068 32.6803
104.953 916 30.2655
105.069 904 30.0666
105.186 894 29.8998
105.302 893 29.8831
105.418 943 30.7083
105.535 1119 33.4515
105.651 1203 34.6843
105.767 1265 35.5668
105.883 1411 37.5633
105.999 1413 37.5899
106.115 0 1
106.231 0 1
106.347 0 1
106.463 0 1
106.579 0 1
106.694 0 1
106.81 0 1
106.926 0 1
107.041 0 1
107.157 0 1
109.576 0 1
109.692 0 1
109.807 0 1
109.923 0 1
110.039 0 1
110.155 0 1
110.27 0 1
110.386 0 1
110.502 0 1
110.618 1033 32.1403
110.735 1220 34.9285
110.851 1279 35.7631
110.967 1314 36.2491
111.083 1375 37.081
111.199 1345 36.6742
111.316 1393 37.3229
111.432 1338 36.5787
111.549 1338 36.5787
111.665 1369 37
111.782 1259 35.4824
111.898 1160 34.0588
112.015 1228 35.0428
112.132 1178 34.322
112.248 1023 31.9844
112.365 1058 32.5269
112.482 1030 32.0936
112.599 1124 33.5261
112.716 1119 33.4515
112.832 1151 33.9264
112.949 1135 33.6898
113.066 1193 34.5398
113.183 1125 33.541
113.3 1050 32.4037
113.417 978 31.273
113.534 944 30.7246
113.652 897 29.95
113.769 877 29.6142
113.886 809 28.4429
114.003 938 30.6268
114.12 1123 33.5112
114.238 1118 33.4365
114.355 1242 35.242
114.472 1258 35.4683
114.589 1283 35.819
114.707 1359 36.8646
114.824 1311 36.2077
114.942 1327 36.428
115.059 1388 37.2559
115.176 1317 36.2905
115.294 1256 35.4401
115.411 1168 34.176
115.529 1223 34.9714
115.646 1162 34.0881
115.764 1108 33.2866
115.881 1123 33.5112
115.999 1064 32.619
116.116 1075 32.7872
116.234 1142 33.7935
116.351 1207 34.7419
116.469 1186 34.4384
116.586 1189 34.4819
116.704 1198 34.6121
116.821 1161 34.0735
116.939 1117 33.4215
117.056 1018 31.9061
117.174 935 30.5778
117.291 911 30.1828
117.409 937 30.6105
117.526 960 30.9839
117.644 1058 32.5269
117.761 1106 33.2566
117.879 1208 34.7563
117.996 1287 35.8748
118.114 1290 35.9166
118.231 1318 36.3043
118.349 1351 36.756
118.466 1367 36.973
118.584 1439 37.9342
118.701 1397 37.3765
118.819 1349 36.7287
118.936 1285 35.8469
119.053 1280 35.7771
119.171 1260 35.4965
119.288 1160 34.0588
119.405 1114 33.3766
119.523 1082 32.8938
119.64 1137 33.7194
119.757 1146 33.8526
119.875 1179 34.3366
119.992 1190 34.4964
120.109 1266 35.5809
120.226 1201 34.6554
120.343 1148 33.8821
120.46 1179 34.3366
120.578 1031 32.1092
120.695 1046 32.3419
120.812 957 30.9354
120.929 997 31.5753
121.046 901 30.0167
121.163 908 30.133
121.279 1031 32.1092
121.396 1126 33.5559
121.513 1234 35.1283
121.63 1237 35.171
121.747 1287 35.8748
121.863 1358 36.8511
121.98 1347 36.7015
122.097 1369 37
122.213 1321 36.3456
122.33 1329 36.4555
122.446 1293 35.9583
122.563 1316 36.2767
122.679 1266 35.5809
122.795 1225 35
122.912 1182 34.3802
123.028 1109 33.3017
123.144 1125 33.541
123.26 1096 33.1059
123.377 0 1
123.493 0 1
123.609 0 1
123.725 0 1
123.84 0 1
123.956 0 1
124.072 0 1
124.188 0 1
124.303 0 1
124.419 0 1
126.852 0 1
126.968 0 1
127.083 0 1
127.199 0 1
127.315 0 1
127.431 0 1
127.547 0 1
127.663 0 1
127.779 0 1
127.895 0 1
128.011 0 1
128.127 0 1
128.243 0 1
128.359 1216 34.8712
128.476 1182 34.3802
128.592 1203 34.6843
128.708 1238 35.1852
128.825 1273 35.6791
128.941 1311 36.2077
129.058 1260 35.4965
129.174 1214 34.8425
129.291 1256 35.4401
129.408 1238 35.1852
129.524 1174 34.2637
129.641 1109 33.3017
129.758 1021 31.9531
129.875 1060 32.5576
129.992 993 31.5119
130.108 1048 32.3728
130.225 1083 32.909
130.342 1221 34.9428
130.459 1199 34.6266
130.576 1363 36.9188
130.693 1444 38
130.81 1418 37.6563
130.928 1415 37.6165
131.045 1379 37.1349
131.162 1443 37.9868
131.279 1439 37.9342
131.396 1441 37.9605
131.513 1411 37.5633
131.631 1327 36.428
131.748 1304 36.1109
131.865 1216 34.8712
131.983 1342 36.6333
132.1 1264 35.5528
132.217 1363 36.9188
132.335 1300 36.0555
132.452 1335 36.5377
132.57 1366 36.9594
132.687 1353 36.7831
132.804 1357 36.8375
132.922 1285 35.8469
133.039 1323 36.3731
133.157 1159 34.0441
133.274 1172 34.2345
133.392 1054 32.4654
133.509 1092 33.0454
133.627 1036 32.187
133.744 1159 34.0441
133.862 1211 34.7994
133.979 1339 36.5923
134.097 1338 36.5787
134.214 1342 36.6333
134.332 1496 38.6782
134.449 1395 37.3497
134.567 1386 37.229
134.684 1498 38.704
134.802 1485 38.5357
134.919 1405 37.4833
135.037 1425 37.7492
135.154 1466 38.2884
135.272 1393 37.3229
135.389 1363 36.9188
135.507 1263 35.5387
135.624 1415 37.6165
135.742 1277 35.7351
135.859 1403 37.4566
135.977 1441 37.9605
136.094 1396 37.3631
136.211 1422 37.7094
136.329 1304 36.1109
136.446 1346 36.6879
136.564 1351 36.756
136.681 1212 34.8138
136.798 1205 34.7131
136.915 1209 34.7707
137.033 1061 32.573
137.15 1035 32.1714
137.267 1068 32.6803
137.384 1228 35.0428
137.502 1185 34.4238
137.619 1324 36.3868
137.736 1312 36.2215
137.853 1393 37.3229
137.97 1390 37.2827
138.087 1366 36.9594
138.204 1390 37.2827
138.321 1444 38
138.438 1423 37.7227
138.555 1480 38.4708
138.672 1448 38.0526
138.788 1382 37.1753
138.905 1433 37.855
139.022 1421 37.6962
139.139 1386 37.229
139.255 1343 36.647
139.372 1403 37.4566
139.488 1327 36.428
139.605 1315 36.2629
139.721 1408 37.5233
139.838 1341 36.6197
139.954 1343 36.647
140.071 1342 36.6333
140.187 1328 36.4417
140.303 1200 34.641
140.419 1193 34.5398
140.535 1137 33.7194
140.652 1013 31.8277
140.768 0 1
140.884 0 1
141 0 1
141.115 0 1
141.231 0 1
141.347 0 1
141.463 0 1
141.578 0 1
141.694 0 1
144.104 0 1
144.219 0 1
144.335 0 1
144.45 0 1
144.566 0 1
144.682 0 1
144.798 0 1
144.914 0 1
145.03 0 1
145.146 1022 31.9687
145.262 969 31.1288
145.378 984 31.3688
145.494 950 30.8221
145.61 971 31.1609
145.726 954 30.8869
145.842 884 29.7321
145.959 848 29.1204
146.075 842 29.0172
146.192 922 30.3645
146.308 895 29.9166
146.425 1017 31.8904
146.541 1097 33.121
146.658 1022 31.9687
146.774 1119 33.4515
146.891 1121 33.4813
147.008 1166 34.1467
147.125 1127 33.5708
147.241 1184 34.4093
147.358 1205 34.7131
147.475 1233 35.1141
147.592 1146 33.8526
147.709 1115 33.3916
147.826 1059 32.5423
147.943 1064 32.619
148.06 1055 32.4808
148.177 1106 33.2566
148.294 1080 32.8634
148.411 1098 33.1361
148.528 1163 34.1028
148.645 1076 32.8024
148.762 1118 33.4365
148.88 1097 33.121
148.997 1062 32.5883
149.114 1107 33.2716
149.231 1058 32.5269
149.349 950 30.8221
149.466 993 31.5119
149.583 940 30.6594
149.701 904 30.0666
149.818 943 30.7083
149.935 908 30.133
150.053 928 30.4631
150.17 1061 32.573
150.287 1079 32.8481
150.405 1083 32.909
150.522 1057 32.5115
150.64 1144 33.8231
150.757 1121 33.4813
150.875 1121 33.4813
150.992 1157 34.0147
151.11 1224 34.9857
151.227 1204 34.6987
151.344 1168 34.176
151.462 1173 34.2491
151.579 1118 33.4365
151.697 1091 33.0303
151.814 1119 33.4515
151.932 1120 33.4664
152.049 1126 33.5559
152.167 1119 33.4515
152.284 1061 32.573
152.402 1089 33
152.519 1174 34.2637
152.636 1171 34.2199
152.754 1060 32.5576
152.871 1092 33.0454
152.989 1017 31.8904
153.106 963 31.0322
153.223 990 31.4643
153.341 919 30.315
153.458 922 30.3645
153.575 896 29.9333
153.693 977 31.257
153.81 1000 31.6228
153.927 1006 31.7175
154.044 1100 33.1662
154.162 1168 34.176
154.279 1147 33.8674
154.396 1163 34.1028
154.513 1203 34.6843
154.63 1258 35.4683
154.747 1190 34.4964
154.864 1276 35.7211
154.981 1292 35.9444
155.098 1226 35.0143
155.215 1240 35.2136
155.332 1206 34.7275
155.449 1206 34.7275
155.566 1262 35.5246
155.683 1196 34.5832
155.8 1227 35.0286
155.917 1251 35.3695
156.033 1137 33.7194
156.15 0 1
156.267 0 1
156.383 0 1
156.5 0 1
156.617 0 1
156.733 0 1
156.85 0 1
156.966 0 1
157.082 0 1
157.199 0 1
157.315 0 1
157.431 0 1
157.547 0 1
157.664 0 1
157.78 0 1
157.896 0 1
158.012 0 1
158.128 0 1
158.244 0 1
158.359 0 1
158.475 0 1
158.591 0 1
158.706 0 1
