
6.15755 0 1
6.2731 0 1
6.3887 0 1
6.50437 0 1
6.62009 0 1
6.73587 0 1
6.8517 0 1
6.96759 0 1
7.08353 0 1
7.19952 0 1
7.31557 0 1
7.43166 0 1
7.54781 0 1
7.664 0 1
7.78024 0 1
7.89653 0 1
8.01286 0 1
8.12924 0 1
8.24567 0 1
8.36213 0 1
8.47864 0 1
8.59519 0 1
8.71178 0 1
8.82841 0 1
8.94508 0 1
9.06179 0 1
9.17853 0 1
9.29531 0 1
9.41212 0 1
9.52897 0 1
9.64584 0 1
9.76276 0 1
9.8797 0 1
9.99667 0 1
10.1137 0 1
10.2307 0 1
10.3478 0 1
10.4648 0 1
10.5819 0 1
10.6991 0 1
10.8162 0 1
10.9334 0 1
11.0506 0 1
11.1678 0 1
11.285 0 1
11.4023 0 1
11.5196 0 1
11.6369 0 1
11.7542 0 1
11.8715 0 1
11.9888 0 1
12.1062 0 1
12.2235 0 1
12.3409 0 1
12.4582 0 1
12.5756 0 1
12.693 0 1
12.8104 0 1
12.9278 0 1
13.0452 0 1
13.1626 0 1
13.28 0 1
13.3974 0 1
13.5149 0 1
13.6323 0 1
13.7497 0 1
13.8671 0 1
13.9845 0 1
14.1019 0 1
14.2193 0 1
14.3367 0 1
14.4541 0 1
14.5714 0 1
14.6888 0 1
14.8062 0 1
14.9235 0 1
15.0408 0 0
15.1581 0 0
15.2755 0 0
15.3927 0 0
15.51 0 0
15.6273 0 0
15.7445 0 0
15.8617 0 0
15.9789 0 0
16.0961 0 0
16.2132 0 0
16.3304 0 0
16.4475 0 0
16.5646 0 0
16.6816 0 0
16.7986 0 0
16.9156 0 0
17.0326 0 0
17.1496 0 0
17.2665 0 0
17.3833 0 0
17.5002 0 0
17.617 0 0
17.7338 0 0
17.8505 0 0
17.9672 0 0
18.0839 0 0
18.2005 0 0
18.3171 0 0
18.4337 0 0
18.5502 0 0
18.6666 0 0
18.7831 0 0
18.8994 0 0
19.0158 0 0
19.1321 0 0
19.2483 0 0
19.3645 0 0
19.4806 0 0
19.5967 0 0
19.7128 0 0
19.8288 0 0
19.9447 0 0
20.0606 0 1
20.1764 0 1
20.2922 0 1
20.4079 0 1
20.5236 0 1
20.6392 0 1
20.7548 0 1
20.8702 0 1
23.3078 0 1
23.4233 0 1
23.539 0 1
23.6547 0 1
23.7704 0 1
23.8862 0 1
24.0021 0 1
24.118 0 1
24.234 0 1
24.35 0 1
24.4661 1324 36.3868
24.5822 1437 37.9078
24.6984 1425 37.7492
24.8146 1411 37.5633
24.9309 1361 36.8917
25.0472 1377 37.108
25.1636 1402 37.4433
25.28 1384 37.2022
25.3965 1370 37.0135
25.513 1334 36.524
25.6296 1405 37.4833
25.7462 1545 39.3065
25.8628 1465 38.2753
25.9795 1420 37.6829
26.0962 1522 39.0128
26.213 1522 39.0128
26.3298 1465 38.2753
26.4466 1470 38.3406
26.5635 1373 37.054
26.6804 1336 36.5513
26.7973 1368 36.9865
26.9143 1387 37.2424
27.0313 1469 38.3275
27.1483 1453 38.1182
27.2653 1507 38.8201
27.3824 1506 38.8072
27.4996 1496 38.6782
27.6167 1567 39.5854
27.7339 1493 38.6394
27.8511 1459 38.1969
27.9683 1469 38.3275
28.0855 1378 37.1214
28.2028 1441 37.9605
28.3201 1296 36
28.4374 1296 36
28.5547 1358 36.8511
28.6721 1271 35.6511
28.7894 1256 35.4401
28.9068 1329 36.4555
29.0242 1316 36.2767
29.1416 1263 35.5387
29.259 1325 36.4005
29.3764 1378 37.1214
29.4939 1320 36.3318
29.6113 1283 35.819
29.7288 1327 36.428
29.8463 1393 37.3229
29.9638 1296 36
30.0812 1262 35.5246
30.1987 1215 34.8569
30.3162 1298 36.0278
30.4337 1359 36.8646
30.5512 1421 37.6962
30.6687 1395 37.3497
30.7862 1429 37.8021
30.9037 1453 38.1182
31.0212 1499 38.7169
31.1387 1429 37.8021
31.2562 1479 38.4578
31.3737 1439 37.9342
31.4912 1447 38.0395
31.6087 1429 37.8021
31.7262 1416 37.6298
31.8436 1350 36.7423
31.9611 1327 36.428
32.0785 1304 36.1109
32.1959 1274 35.6931
32.3134 1225 35
32.4308 1269 35.623
32.5482 1267 35.5949
32.6655 1242 35.242
32.7829 1280 35.7771
32.9002 1283 35.819
33.0176 1313 36.2353
33.1349 1289 35.9026
33.2522 1333 36.5103
33.3694 1390 37.2827
33.4867 1344 36.6606
33.6039 1336 36.5513
33.7211 1227 35.0286
33.8383 1235 35.1426
33.9554 1181 34.3657
34.0725 1229 35.0571
34.1896 1352 36.7696
34.3067 1351 36.756
34.4237 1429 37.8021
34.5407 1456 38.1576
34.6577 1435 37.8814
34.7746 1465 38.2753
34.8915 1421 37.6962
35.0084 1380 37.1484
35.1252 1355 36.8103
35.242 1419 37.6696
35.3587 1347 36.7015
35.4755 1289 35.9026
35.5921 1346 36.6879
35.7088 1319 36.318
35.8254 1226 35.0143
35.9419 1143 33.8083
36.0584 1233 35.1141
36.1749 1155 33.9853
36.2913 1160 34.0588
36.4077 1138 33.7343
36.524 1251 35.3695
36.6403 1273 35.6791
36.7565 1263 35.5387
36.8727 1263 35.5387
36.9889 1316 36.2767
37.1049 1255 35.426
37.221 0 1
37.3369 0 1
37.4529 0 1
37.5687 0 1
37.6845 0 1
37.8003 0 1
37.916 0 1
38.0316 0 1
38.1472 0 1
40.5851 0 1
40.7008 0 1
40.8164 0 1
40.9322 0 1
41.048 0 1
41.1639 0 1
41.2798 0 1
41.3958 0 1
41.5118 0 1
41.6279 0 1
41.744 906 30.0998
41.8602 985 31.3847
41.9765 976 31.241
42.0928 993 31.5119
42.2091 1049 32.3883
42.3255 1053 32.45
42.4419 1036 32.187
42.5584 936 30.5941
42.675 945 30.7409
42.7915 900 30
42.9081 961 31
43.0248 1002 31.6544
43.1415 1058 32.5269
43.2582 1072 32.7414
43.375 1071 32.7261
43.4918 1098 33.1361
43.6087 1023 31.9844
43.7256 1020 31.9374
43.8425 1038 32.218
43.9595 1037 32.2025
44.0765 1008 31.749
44.1935 985 31.3847
44.3106 912 30.1993
44.4277 873 29.5466
44.5448 846 29.0861
44.6619 771 27.7669
44.7791 729 27
44.8963 736 27.1293
45.0136 687 26.2107
45.1308 699 26.4386
45.2481 696 26.3818
45.3654 718 26.7955
45.4827 760 27.5681
45.6001 755 27.4773
45.7174 768 27.7128
45.8348 771 27.7669
45.9522 717 26.7769
46.0697 694 26.3439
46.1871 737 27.1477
46.3046 674 25.9615
46.422 703 26.5141
46.5395 711 26.6646
46.657 692 26.3059
46.7745 777 27.8747
46.892 764 27.6405
47.0096 823 28.688
47.1271 769 27.7308
47.2446 739 27.1846
47.3622 729 27
47.4797 729 27
47.5973 706 26.5707
47.7149 698 26.4197
47.8324 691 26.2869
47.95 633 25.1595
48.0675 599 24.4745
48.1851 511 22.6053
48.3027 549 23.4307
48.4202 536 23.1517
48.5378 519 22.7816
48.6554 561 23.6854
48.7729 528 22.9783
48.8904 515 22.6936
49.008 574 23.9583
49.1255 609 24.6779
49.243 603 24.5561
49.3605 572 23.9165
49.478 541 23.2594
49.5955 521 22.8254
49.713 541 23.2594
49.8304 544 23.3238
49.9479 575 23.9792
50.0653 630 25.0998
50.1827 659 25.671
50.3001 681 26.096
50.4175 650 25.4951
50.5348 699 26.4386
50.6521 748 27.3496
50.7694 732 27.0555
50.8867 750 27.3861
51.004 804 28.3549
51.1212 750 27.3861
51.2384 793 28.1603
51.3556 778 27.8927
51.4727 741 27.2213
51.5899 743 27.258
51.707 717 26.7769
51.824 672 25.923
51.9411 676 26
52.0581 733 27.074
52.175 724 26.9072
52.2919 732 27.0555
52.4088 788 28.0713
52.5257 847 29.1033
52.6425 893 29.8831
52.7593 897 29.95
52.876 889 29.8161
52.9927 934 30.5614
53.1094 960 30.9839
53.226 919 30.315
53.3426 986 31.4006
53.4591 928 30.4631
53.5756 991 31.4802
53.692 1104 33.2265
53.8084 1123 33.5112
53.9248 1093 33.0606
54.0411 1155 33.9853
54.1573 1203 34.6843
54.2735 0 1
54.3896 0 1
54.5057 0 1
54.6217 0 1
54.7377 0 1
54.8537 0 1
54.9695 0 1
55.0853 0 1
55.2011 0 1
55.3168 0 1
55.4324 0 1
57.824 0 1
57.9396 0 1
58.0553 0 1
58.1711 0 1
58.2869 0 1
58.4028 0 1
58.5187 0 1
58.6347 0 1
58.7508 0 1
58.8669 0 1
58.983 1320 36.3318
59.0992 1308 36.1663
59.2155 1375 37.081
59.3318 1379 37.1349
59.4482 1369 37
59.5646 1397 37.3765
59.681 1404 37.47
59.7975 1331 36.4829
59.9141 1297 36.0139
60.0306 1291 35.9305
60.1473 1139 33.7491
60.2639 1135 33.6898
60.3807 1022 31.9687
60.4974 962 31.0161
60.6142 948 30.7896
60.731 1034 32.1559
60.8479 950 30.8221
60.9648 981 31.3209
61.0818 1065 32.6343
61.1987 1127 33.5708
61.3158 1093 33.0606
61.4328 1138 33.7343
61.5499 1099 33.1512
61.667 1062 32.5883
61.7841 1057 32.5115
61.9013 1063 32.6037
62.0185 1144 33.8231
62.1357 1120 33.4664
62.253 1211 34.7994
62.3702 1206 34.7275
62.4875 1279 35.7631
62.6049 1267 35.5949
62.7222 1317 36.2905
62.8396 1354 36.7967
62.9569 1381 37.1618
63.0743 1377 37.108
63.1918 1307 36.1525
63.3092 1342 36.6333
63.4267 1336 36.5513
63.5441 1232 35.0999
63.6616 1088 32.9848
63.7791 1107 33.2716
63.8966 977 31.257
64.0142 944 30.7246
64.1317 970 31.1448
64.2492 962 31.0161
64.3668 1040 32.249
64.4843 1076 32.8024
64.6019 1045 32.3265
64.7195 1138 33.7343
64.837 1084 32.9242
64.9546 1246 35.2987
65.0722 1218 34.8999
65.1898 1162 34.0881
65.3074 1189 34.4819
65.4249 1070 32.7109
65.5425 1074 32.7719
65.6601 1081 32.8786
65.7777 1158 34.0294
65.8952 1172 34.2345
66.0128 1287 35.8748
66.1304 1246 35.2987
66.2479 1329 36.4555
66.3655 1319 36.318
66.483 1397 37.3765
66.6005 1359 36.8646
66.718 1331 36.4829
66.8355 1391 37.2961
66.953 1296 36
67.0705 1195 34.5688
67.1879 1148 33.8821
67.3054 1078 32.8329
67.4228 1033 32.1403
67.5402 881 29.6816
67.6576 878 29.6311
67.7749 909 30.1496
67.8923 900 30
68.0096 854 29.2233
68.1269 970 31.1448
68.2442 1007 31.7333
68.3614 1044 32.311
68.4787 1148 33.8821
68.5958 1064 32.619
68.713 1119 33.4515
68.8302 1077 32.8177
68.9473 1060 32.5576
69.0643 1067 32.665
69.1814 1089 33
69.2984 1063 32.6037
69.4154 1105 33.2415
69.5323 1192 34.5254
69.6492 1143 33.8083
69.7661 1216 34.8712
69.8829 1282 35.805
69.9997 1315 36.2629
70.1165 1394 37.3363
70.2332 1315 36.2629
70.3499 1291 35.9305
70.4665 1378 37.1214
70.5831 1265 35.5668
70.6996 1180 34.3511
70.8161 1137 33.7194
70.9326 1070 32.7109
71.049 997 31.5753
71.1653 923 30.3809
71.2817 826 28.7402
71.3979 868 29.4618
71.5141 834 28.8791
71.6303 803 28.3373
71.7464 880 29.6648
71.8624 0 1
71.9784 0 1
72.0944 0 1
72.2102 0 1
72.3261 0 1
72.4418 0 1
72.5575 0 1
72.6732 0 1
75.1054 0 1
75.2209 0 1
75.3365 0 1
75.4521 0 1
75.5678 0 1
75.6835 0 1
75.7993 0 1
75.9151 0 1
76.031 0 1
76.147 1023 31.9844
76.263 1047 32.3574
76.3791 1028 32.0624
76.4952 975 31.225
76.6113 929 30.4795
76.7276 828 28.775
76.8438 861 29.3428
76.9601 940 30.6594
77.0765 953 30.8707
77.1929 1069 32.6956
77.3093 1137 33.7194
77.4258 1179 34.3366
77.5423 1194 34.5543
77.6589 1150 33.9116
77.7755 1154 33.9706
77.8921 1141 33.7787
78.0088 995 31.5436
78.1256 1040 32.249
78.2423 1056 32.4962
78.3591 1090 33.0151
78.4759 1087 32.9697
78.5928 1150 33.9116
78.7097 1271 35.6511
78.8266 1245 35.2846
78.9436 1393 37.3229
79.0606 1289 35.9026
79.1776 1291 35.9305
79.2946 1345 36.6742
79.4117 1325 36.4005
79.5288 1319 36.318
79.6459 1280 35.7771
79.7631 1211 34.7994
79.8802 1011 31.7962
79.9974 1014 31.8434
80.1147 939 30.6431
80.2319 803 28.3373
80.3491 827 28.7576
80.4664 810 28.4605
80.5837 836 28.9137
80.701 880 29.6648
80.8183 888 29.7993
80.9357 976 31.241
81.053 1005 31.7017
81.1704 1062 32.5883
81.2877 1049 32.3883
81.4051 966 31.0805
81.5225 964 31.0483
81.6399 899 29.9833
81.7573 925 30.4138
81.8747 869 29.4788
81.9922 887 29.7825
82.1096 934 30.5614
82.227 1021 31.9531
82.3444 1048 32.3728
82.4619 1121 33.4813
82.5793 1107 33.2716
82.6967 1054 32.4654
82.8142 1118 33.4365
82.9316 1089 33
83.049 1112 33.3467
83.1664 1126 33.5559
83.2838 999 31.607
83.4012 921 30.348
83.5186 871 29.5127
83.636 798 28.2489
83.7534 712 26.6833
83.8708 618 24.8596
83.9881 702 26.4953
84.1055 693 26.3249
84.2228 671 25.9037
84.3401 712 26.6833
84.4575 879 29.6479
84.5747 890 29.8329
84.692 944 30.7246
84.8093 966 31.0805
84.9265 977 31.257
85.0437 913 30.2159
85.1609 926 30.4302
85.2781 884 29.7321
85.3952 844 29.0517
85.5123 881 29.6816
85.6294 863 29.3769
85.7465 916 30.2655
85.8636 1019 31.9218
85.9806 1042 32.28
86.0976 1148 33.8821
86.2145 1103 33.2114
86.3315 1266 35.5809
86.4484 1177 34.3074
86.5652 1246 35.2987
86.682 1194 34.5543
86.7988 1235 35.1426
86.9156 1116 33.4066
87.0323 1023 31.9844
87.149 992 31.496
87.2657 911 30.1828
87.3823 788 28.0713
87.4988 753 27.4408
87.6154 778 27.8927
87.7318 844 29.0517
87.8483 852 29.189
87.9647 980 31.305
88.081 1061 32.573
88.1973 1128 33.5857
88.3136 1174 34.2637
88.4298 1220 34.9285
88.546 1158 34.0294
88.6621 1071 32.7261
88.7781 1138 33.7343
88.8942 0 1
89.0101 0 1
89.126 0 1
89.2419 0 1
89.3577 0 1
89.4734 0 1
89.5891 0 1
89.7047 0 1
89.8203 0 1
89.9358 0 1
92.3269 0 1
92.4424 0 1
92.558 0 1
92.6736 0 1
92.7893 0 1
92.905 0 1
93.0208 0 1
93.1366 0 1
93.2525 0 1
93.3685 0 1
93.4845 0 1
93.6005 1071 32.7261
93.7167 1144 33.8231
93.8328 1148 33.8821
93.949 1093 33.0606
94.0653 1169 34.1906
94.1816 1046 32.3419
94.2979 1088 32.9848
94.4143 1069 32.6956
94.5307 1107 33.2716
94.6472 1041 32.2645
94.7637 1107 33.2716
94.8803 1191 34.5109
94.9969 1221 34.9428
95.1135 1312 36.2215
95.2302 1397 37.3765
95.3469 1344 36.6606
95.4637 1428 37.7889
95.5805 1428 37.7889
95.6973 1397 37.3765
95.8142 1375 37.081
95.9311 1329 36.4555
96.048 1248 35.327
96.1649 1181 34.3657
96.2819 1113 33.3617
96.3989 1121 33.4813
96.516 974 31.209
96.633 876 29.5973
96.7501 836 28.9137
96.8673 884 29.7321
96.9844 868 29.4618
97.1016 989 31.4484
97.2188 1129 33.6006
97.336 1186 34.4384
97.4532 1231 35.0856
97.5704 1219 34.9142
97.6877 1093 33.0606
97.805 1130 33.6155
97.9223 1057 32.5115
98.0396 1059 32.5423
98.1569 1112 33.3467
98.2743 1021 31.9531
98.3916 1054 32.4654
98.509 1186 34.4384
98.6264 1181 34.3657
98.7438 1287 35.8748
98.8612 1373 37.054
98.9786 1418 37.6563
99.096 1314 36.2491
99.2134 1423 37.7227
99.3308 1412 37.5766
99.4482 1426 37.7624
99.5656 1374 37.0675
99.6831 1273 35.6791
99.8005 1218 34.8999
99.9179 1218 34.8999
100.035 985 31.3847
100.153 991 31.4802
100.27 849 29.1376
100.388 905 30.0832
100.505 947 30.7734
100.622 961 31
100.74 1107 33.2716
100.857 1137 33.7194
100.975 1200 34.641
101.092 1247 35.3129
101.209 1106 33.2566
101.327 1161 34.0735
101.444 1193 34.5398
101.561 1041 32.2645
101.679 1085 32.9393
101.796 1080 32.8634
101.913 1148 33.8821
102.03 1158 34.0294
102.148 1225 35
102.265 1330 36.4692
102.382 1425 37.7492
102.499 1383 37.1887
102.616 1500 38.7298
102.733 1488 38.5746
102.851 1430 37.8153
102.968 1420 37.6829
103.085 1382 37.1753
103.202 1373 37.054
103.319 1318 36.3043
103.436 1306 36.1386
103.552 1156 34
103.669 1032 32.1248
103.786 937 30.6105
103.903 953 30.8707
104.02 1012 31.8119
104.137 1051 32.4191
104.253 1154 33.9706
104.37 1258 35.4683
104.487 1290 35.9166
104.603 1312 36.2215
104.72 1240 35.2136
104.836 1175 34.2783
104.953 1198 34.6121
105.069 1248 35.327
105.186 1165 34.1321
105.302 1247 35.3129
105.418 1292 35.9444
105.535 1278 35.7491
105.651 1337 36.565
105.767 1491 38.6135
105.883 1561 39.5095
105.999 1650 40.6202
106.115 0 1
106.231 0 1
106.347 0 1
106.463 0 1
106.579 0 1
106.694 0 1
106.81 0 1
106.926 0 1
107.041 0 1
107.157 0 1
109.576 0 1
109.692 0 1
109.807 0 1
109.923 0 1
110.039 0 1
110.155 0 1
110.27 0 1
110.386 0 1
110.502 0 1
110.618 1251 35.3695
110.735 1365 36.9459
110.851 1404 37.47
110.967 1581 39.7618
111.083 1567 39.5854
111.199 1537 39.2046
111.316 1546 39.3192
111.432 1583 39.7869
111.549 1520 38.9872
111.665 1468 38.3145
111.782 1362 36.9053
111.898 1321 36.3456
112.015 1295 35.9861
112.132 1102 33.1964
112.248 994 31.5278
112.365 933 30.545
112.482 926 30.4302
112.599 1035 32.1714
112.716 1072 32.7414
112.832 1152 33.9411
112.949 1229 35.0571
113.066 1194 34.5543
113.183 1194 34.5543
113.3 1140 33.7639
113.417 1171 34.2199
113.534 1124 33.5261
113.652 1158 34.0294
113.769 1067 32.665
113.886 1186 34.4384
114.003 1207 34.7419
114.12 1217 34.8855
114.238 1367 36.973
114.355 1372 37.0405
114.472 1370 37.0135
114.589 1448 38.0526
114.707 1530 39.1152
114.824 1500 38.7298
114.942 1483 38.5097
115.059 1496 38.6782
115.176 1456 38.1576
115.294 1487 38.5616
115.411 1371 37.027
115.529 1281 35.7911
115.646 1225 35
115.764 1082 32.8938
115.881 1004 31.686
115.999 1038 32.218
116.116 987 31.4166
116.234 1111 33.3317
116.351 1149 33.8969
116.469 1245 35.2846
116.586 1167 34.1614
116.704 1184 34.4093
116.821 1226 35.0143
116.939 1166 34.1467
117.056 1164 34.1174
117.174 1189 34.4819
117.291 1173 34.2491
117.409 1190 34.4964
117.526 1269 35.623
117.644 1287 35.8748
117.761 1397 37.3765
117.879 1495 38.6652
117.996 1524 39.0384
118.114 1506 38.8072
118.231 1586 39.8246
118.349 1465 38.2753
118.466 1576 39.6989
118.584 1574 39.6737
118.701 1468 38.3145
118.819 1489 38.5876
118.936 1441 37.9605
119.053 1369 37
119.171 1346 36.6879
119.288 1285 35.8469
119.405 1119 33.4515
119.523 1057 32.5115
119.64 1010 31.7805
119.757 1051 32.4191
119.875 1206 34.7275
119.992 1179 34.3366
120.109 1231 35.0856
120.226 1232 35.0999
120.343 1260 35.4965
120.46 1230 35.0714
120.578 1175 34.2783
120.695 1212 34.8138
120.812 1244 35.2704
120.929 1184 34.4093
121.046 1262 35.5246
121.163 1322 36.3593
121.279 1382 37.1753
121.396 1388 37.2559
121.513 1435 37.8814
121.63 1482 38.4968
121.747 1490 38.6005
121.863 1594 39.9249
121.98 1599 39.9875
122.097 1575 39.6863
122.213 1510 38.8587
122.33 1522 39.0128
122.446 1500 38.7298
122.563 1436 37.8946
122.679 1396 37.3631
122.795 1350 36.7423
122.912 1427 37.7757
123.028 1238 35.1852
123.144 1133 33.6601
123.26 1093 33.0606
123.377 0 1
123.493 0 1
123.609 0 1
123.725 0 1
123.84 0 1
123.956 0 1
124.072 0 1
124.188 0 1
124.303 0 1
124.419 0 1
126.852 0 1
126.968 0 1
127.083 0 1
127.199 0 1
127.315 0 1
127.431 0 1
127.547 0 1
127.663 0 1
127.779 0 1
127.895 0 1
128.011 0 1
128.127 0 1
128.243 0 1
128.359 1270 35.6371
128.476 1218 34.8999
128.592 1185 34.4238
128.708 1136 33.7046
128.825 1341 36.6197
128.941 1357 36.8375
129.058 1351 36.756
129.174 1349 36.7287
129.291 1342 36.6333
129.408 1318 36.3043
129.524 1257 35.4542
129.641 1300 36.0555
129.758 1358 36.8511
129.875 1367 36.973
129.992 1302 36.0832
130.108 1320 36.3318
130.225 1479 38.4578
130.342 1563 39.5348
130.459 1481 38.4838
130.576 1609 40.1123
130.693 1567 39.5854
130.81 1610 40.1248
130.928 1632 40.398
131.045 1524 39.0384
131.162 1666 40.8167
131.279 1615 40.1871
131.396 1615 40.1871
131.513 1534 39.1663
131.631 1531 39.128
131.748 1466 38.2884
131.865 1404 37.47
131.983 1264 35.5528
132.1 1145 33.8378
132.217 1158 34.0294
132.335 1345 36.6742
132.452 1375 37.081
132.57 1396 37.3631
132.687 1345 36.6742
132.804 1357 36.8375
132.922 1295 35.9861
133.039 1319 36.318
133.157 1357 36.8375
133.274 1300 36.0555
133.392 1351 36.756
133.509 1354 36.7967
133.627 1331 36.4829
133.744 1458 38.1838
133.862 1436 37.8946
133.979 1533 39.1535
134.097 1543 39.281
134.214 1513 38.8973
134.332 1601 40.0125
134.449 1670 40.8656
134.567 1652 40.6448
134.684 1539 39.2301
134.802 1660 40.7431
134.919 1578 39.724
135.037 1551 39.3827
135.154 1571 39.6358
135.272 1463 38.2492
135.389 1376 37.0945
135.507 1282 35.805
135.624 1250 35.3553
135.742 1311 36.2077
135.859 1244 35.2704
135.977 1349 36.7287
136.094 1426 37.7624
136.211 1444 38
136.329 1427 37.7757
136.446 1419 37.6696
136.564 1330 36.4692
136.681 1355 36.8103
136.798 1340 36.606
136.915 1328 36.4417
137.033 1304 36.1109
137.15 1405 37.4833
137.267 1444 38
137.384 1544 39.2938
137.502 1490 38.6005
137.619 1465 38.2753
137.736 1612 40.1497
137.853 1460 38.2099
137.97 1595 39.9375
138.087 1590 39.8748
138.204 1535 39.1791
138.321 1588 39.8497
138.438 1601 40.0125
138.555 1591 39.8873
138.672 1596 39.95
138.788 1517 38.9487
138.905 1450 38.0789
139.022 1461 38.223
139.139 1300 36.0555
139.255 1231 35.0856
139.372 1231 35.0856
139.488 1338 36.5787
139.605 1376 37.0945
139.721 1396 37.3631
139.838 1377 37.108
139.954 1434 37.8682
140.071 1374 37.0675
140.187 1367 36.973
140.303 1361 36.8917
140.419 1300 36.0555
140.535 1272 35.6651
140.652 1255 35.426
140.768 0 1
140.884 0 1
141 0 1
141.115 0 1
141.231 0 1
141.347 0 1
141.463 0 1
141.578 0 1
141.694 0 1
144.104 0 1
144.219 0 1
144.335 0 1
144.45 0 1
144.566 0 1
144.682 0 1
144.798 0 1
144.914 0 1
145.03 0 1
145.146 988 31.4325
145.262 1083 32.909
145.378 1038 32.218
145.494 1001 31.6386
145.61 1074 32.7719
145.726 1071 32.7261
145.842 1073 32.7567
145.959 1075 32.7872
146.075 1095 33.0908
146.192 1099 33.1512
146.308 1197 34.5977
146.425 1149 33.8969
146.541 1183 34.3948
146.658 1146 33.8526
146.774 1144 33.8231
146.891 1207 34.7419
147.008 1232 35.0999
147.125 1203 34.6843
147.241 1272 35.6651
147.358 1302 36.0832
147.475 1227 35.0286
147.592 1301 36.0694
147.709 1161 34.0735
147.826 1151 33.9264
147.943 1192 34.5254
148.06 1108 33.2866
148.177 1038 32.218
148.294 1068 32.6803
148.411 1071 32.7261
148.528 1192 34.5254
148.645 1188 34.4674
148.762 1182 34.3802
148.88 1111 33.3317
148.997 1138 33.7343
149.114 1162 34.0881
149.231 1118 33.4365
149.349 1154 33.9706
149.466 1201 34.6554
149.583 1134 33.6749
149.701 1140 33.7639
149.818 1132 33.6452
149.935 1194 34.5543
150.053 1138 33.7343
150.17 1189 34.4819
150.287 1212 34.8138
150.405 1263 35.5387
150.522 1274 35.6931
150.64 1245 35.2846
150.757 1228 35.0428
150.875 1311 36.2077
150.992 1361 36.8917
151.11 1299 36.0416
151.227 1264 35.5528
151.344 1200 34.641
151.462 1209 34.7707
151.579 1274 35.6931
151.697 1177 34.3074
151.814 1185 34.4238
151.932 1049 32.3883
152.049 1072 32.7414
152.167 1202 34.6699
152.284 1197 34.5977
152.402 1233 35.1141
152.519 1234 35.1283
152.636 1244 35.2704
152.754 1185 34.4238
152.871 1196 34.5832
152.989 1168 34.176
153.106 1200 34.641
153.223 1219 34.9142
153.341 1211 34.7994
153.458 1220 34.9285
153.575 1245 35.2846
153.693 1229 35.0571
153.81 1277 35.7351
153.927 1306 36.1386
154.044 1310 36.1939
154.162 1345 36.6742
154.279 1357 36.8375
154.396 1325 36.4005
154.513 1418 37.6563
154.63 1454 38.1314
154.747 1461 38.223
154.864 1474 38.3927
154.981 1383 37.1887
155.098 1433 37.855
155.215 1358 36.8511
155.332 1309 36.1801
155.449 1230 35.0714
155.566 1234 35.1283
155.683 1307 36.1525
155.8 1330 36.4692
155.917 1403 37.4566
156.033 1337 36.565
156.15 0 1
156.267 0 1
156.383 0 1
156.5 0 1
156.617 0 1
156.733 0 1
156.85 0 1
156.966 0 1
157.082 0 1
157.199 0 1
157.315 0 1
157.431 0 1
157.547 0 1
157.664 0 1
157.78 0 1
157.896 0 1
158.012 0 1
158.128 0 1
158.244 0 1
158.359 0 1
158.475 0 1
158.591 0 1
158.706 0 1
