
6.15755 0 1
6.2731 0 1
6.3887 0 1
6.50437 0 1
6.62009 0 1
6.73587 0 1
6.8517 0 1
6.96759 0 1
7.08353 0 1
7.19952 0 1
7.31557 0 1
7.43166 0 1
7.54781 0 1
7.664 0 1
7.78024 0 1
7.89653 0 1
8.01286 0 1
8.12924 0 1
8.24567 0 1
8.36213 0 1
8.47864 0 1
8.59519 0 1
8.71178 0 1
8.82841 0 1
8.94508 0 1
9.06179 0 1
9.17853 0 1
9.29531 0 1
9.41212 0 1
9.52897 0 1
9.64584 0 1
9.76276 0 1
9.8797 0 1
9.99667 0 1
10.1137 0 1
10.2307 0 1
10.3478 0 1
10.4648 0 1
10.5819 0 1
10.6991 0 1
10.8162 0 1
10.9334 0 1
11.0506 0 1
11.1678 0 1
11.285 0 1
11.4023 0 1
11.5196 0 1
11.6369 0 1
11.7542 0 1
11.8715 0 1
11.9888 0 1
12.1062 0 1
12.2235 0 1
12.3409 0 1
12.4582 0 1
12.5756 0 1
12.693 0 1
12.8104 0 1
12.9278 0 1
13.0452 0 1
13.1626 0 1
13.28 0 1
13.3974 0 1
13.5149 0 1
13.6323 0 1
13.7497 0 1
13.8671 0 1
13.9845 0 1
14.1019 0 1
14.2193 0 1
14.3367 0 1
14.4541 0 1
14.5714 0 1
14.6888 0 1
14.8062 0 1
14.9235 0 1
15.0408 0 0
15.1581 0 0
15.2755 0 0
15.3927 0 0
15.51 0 0
15.6273 0 0
15.7445 0 0
15.8617 0 0
15.9789 0 0
16.0961 0 0
16.2132 0 0
16.3304 0 0
16.4475 0 0
16.5646 0 0
16.6816 0 0
16.7986 0 0
16.9156 0 0
17.0326 0 0
17.1496 0 0
17.2665 0 0
17.3833 0 0
17.5002 0 0
17.617 0 0
17.7338 0 0
17.8505 0 0
17.9672 0 0
18.0839 0 0
18.2005 0 0
18.3171 0 0
18.4337 0 0
18.5502 0 0
18.6666 0 0
18.7831 0 0
18.8994 0 0
19.0158 0 0
19.1321 0 0
19.2483 0 0
19.3645 0 0
19.4806 0 0
19.5967 0 0
19.7128 0 0
19.8288 0 0
19.9447 0 0
20.0606 0 1
20.1764 0 1
20.2922 0 1
20.4079 0 1
20.5236 0 1
20.6392 0 1
20.7548 0 1
20.8702 0 1
23.3078 0 1
23.4233 0 1
23.539 0 1
23.6547 0 1
23.7704 0 1
23.8862 0 1
24.0021 0 1
24.118 0 1
24.234 0 1
24.35 0 1
24.4661 166 12.8841
24.5822 181 13.4536
24.6984 202 14.2127
24.8146 187 13.6748
24.9309 196 14
25.0472 184 13.5647
25.1636 193 13.8924
25.28 187 13.6748
25.3965 187 13.6748
25.513 181 13.4536
25.6296 191 13.8203
25.7462 212 14.5602
25.8628 202 14.2127
25.9795 198 14.0712
26.0962 187 13.6748
26.213 201 14.1774
26.3298 187 13.6748
26.4466 220 14.8324
26.5635 185 13.6015
26.6804 191 13.8203
26.7973 183 13.5277
26.9143 167 12.9228
27.0313 169 13
27.1483 163 12.7671
27.2653 187 13.6748
27.3824 182 13.4907
27.4996 180 13.4164
27.6167 164 12.8062
27.7339 164 12.8062
27.8511 168 12.9615
27.9683 147 12.1244
28.0855 170 13.0384
28.2028 173 13.1529
28.3201 190 13.784
28.4374 176 13.2665
28.5547 164 12.8062
28.6721 198 14.0712
28.7894 190 13.784
28.9068 189 13.7477
29.0242 195 13.9642
29.1416 190 13.784
29.259 176 13.2665
29.3764 185 13.6015
29.4939 189 13.7477
29.6113 175 13.2288
29.7288 212 14.5602
29.8463 183 13.5277
29.9638 171 13.0767
30.0812 180 13.4164
30.1987 180 13.4164
30.3162 174 13.1909
30.4337 190 13.784
30.5512 152 12.3288
30.6687 169 13
30.7862 156 12.49
30.9037 176 13.2665
31.0212 166 12.8841
31.1387 160 12.6491
31.2562 190 13.784
31.3737 169 13
31.4912 153 12.3693
31.6087 147 12.1244
31.7262 163 12.7671
31.8436 162 12.7279
31.9611 176 13.2665
32.0785 163 12.7671
32.1959 162 12.7279
32.3134 179 13.3791
32.4308 206 14.3527
32.5482 199 14.1067
32.6655 174 13.1909
32.7829 187 13.6748
32.9002 181 13.4536
33.0176 188 13.7113
33.1349 176 13.2665
33.2522 182 13.4907
33.3694 171 13.0767
33.4867 189 13.7477
33.6039 191 13.8203
33.7211 190 13.784
33.8383 156 12.49
33.9554 177 13.3041
34.0725 175 13.2288
34.1896 161 12.6886
34.3067 148 12.1655
34.4237 154 12.4097
34.5407 165 12.8452
34.6577 180 13.4164
34.7746 169 13
34.8915 143 11.9583
35.0084 169 13
35.1252 137 11.7047
35.242 152 12.3288
35.3587 161 12.6886
35.4755 159 12.6095
35.5921 182 13.4907
35.7088 171 13.0767
35.8254 172 13.1149
35.9419 197 14.0357
36.0584 169 13
36.1749 177 13.3041
36.2913 179 13.3791
36.4077 161 12.6886
36.524 177 13.3041
36.6403 176 13.2665
36.7565 152 12.3288
36.8727 162 12.7279
36.9889 177 13.3041
37.1049 174 13.1909
37.221 0 1
37.3369 0 1
37.4529 0 1
37.5687 0 1
37.6845 0 1
37.8003 0 1
37.916 0 1
38.0316 0 1
38.1472 0 1
40.5851 0 1
40.7008 0 1
40.8164 0 1
40.9322 0 1
41.048 0 1
41.1639 0 1
41.2798 0 1
41.3958 0 1
41.5118 0 1
41.6279 0 1
41.744 139 11.7898
41.8602 163 12.7671
41.9765 169 13
42.0928 151 12.2882
42.2091 127 11.2694
42.3255 158 12.5698
42.4419 166 12.8841
42.5584 161 12.6886
42.675 152 12.3288
42.7915 153 12.3693
42.9081 167 12.9228
43.0248 139 11.7898
43.1415 132 11.4891
43.2582 128 11.3137
43.375 117 10.8167
43.4918 128 11.3137
43.6087 123 11.0905
43.7256 140 11.8322
43.8425 140 11.8322
43.9595 115 10.7238
44.0765 119 10.9087
44.1935 122 11.0454
44.3106 141 11.8743
44.4277 143 11.9583
44.5448 122 11.0454
44.6619 129 11.3578
44.7791 138 11.7473
44.8963 106 10.2956
45.0136 166 12.8841
45.1308 110 10.4881
45.2481 126 11.225
45.3654 117 10.8167
45.4827 114 10.6771
45.6001 124 11.1355
45.7174 103 10.1489
45.8348 106 10.2956
45.9522 121 11
46.0697 118 10.8628
46.1871 100 10
46.3046 118 10.8628
46.422 122 11.0454
46.5395 117 10.8167
46.657 98 9.89949
46.7745 92 9.59166
46.892 95 9.74679
47.0096 109 10.4403
47.1271 105 10.247
47.2446 100 10
47.3622 118 10.8628
47.4797 89 9.43398
47.5973 100 10
47.7149 87 9.32738
47.8324 109 10.4403
47.95 86 9.27362
48.0675 93 9.64365
48.1851 96 9.79796
48.3027 90 9.48683
48.4202 98 9.89949
48.5378 91 9.53939
48.6554 90 9.48683
48.7729 111 10.5357
48.8904 111 10.5357
49.008 105 10.247
49.1255 112 10.583
49.243 79 8.88819
49.3605 100 10
49.478 99 9.94987
49.5955 113 10.6301
49.713 104 10.198
49.8304 112 10.583
49.9479 99 9.94987
50.0653 103 10.1489
50.1827 98 9.89949
50.3001 87 9.32738
50.4175 83 9.11043
50.5348 102 10.0995
50.6521 93 9.64365
50.7694 111 10.5357
50.8867 115 10.7238
51.004 95 9.74679
51.1212 109 10.4403
51.2384 118 10.8628
51.3556 119 10.9087
51.4727 117 10.8167
51.5899 117 10.8167
51.707 128 11.3137
51.824 112 10.583
51.9411 127 11.2694
52.0581 116 10.7703
52.175 128 11.3137
52.2919 137 11.7047
52.4088 117 10.8167
52.5257 117 10.8167
52.6425 111 10.5357
52.7593 136 11.6619
52.876 141 11.8743
52.9927 141 11.8743
53.1094 128 11.3137
53.226 133 11.5326
53.3426 123 11.0905
53.4591 139 11.7898
53.5756 140 11.8322
53.692 133 11.5326
53.8084 136 11.6619
53.9248 130 11.4018
54.0411 126 11.225
54.1573 119 10.9087
54.2735 0 1
54.3896 0 1
54.5057 0 1
54.6217 0 1
54.7377 0 1
54.8537 0 1
54.9695 0 1
55.0853 0 1
55.2011 0 1
55.3168 0 1
55.4324 0 1
57.824 0 1
57.9396 0 1
58.0553 0 1
58.1711 0 1
58.2869 0 1
58.4028 0 1
58.5187 0 1
58.6347 0 1
58.7508 0 1
58.8669 0 1
58.983 134 11.5758
59.0992 128 11.3137
59.2155 133 11.5326
59.3318 115 10.7238
59.4482 147 12.1244
59.5646 130 11.4018
59.681 124 11.1355
59.7975 149 12.2066
59.9141 138 11.7473
60.0306 136 11.6619
60.1473 152 12.3288
60.2639 158 12.5698
60.3807 135 11.619
60.4974 134 11.5758
60.6142 144 12
60.731 151 12.2882
60.8479 135 11.619
60.9648 152 12.3288
61.0818 141 11.8743
61.1987 165 12.8452
61.3158 127 11.2694
61.4328 123 11.0905
61.5499 120 10.9545
61.667 128 11.3137
61.7841 127 11.2694
61.9013 126 11.225
62.0185 137 11.7047
62.1357 117 10.8167
62.253 136 11.6619
62.3702 127 11.2694
62.4875 137 11.7047
62.6049 121 11
62.7222 116 10.7703
62.8396 114 10.6771
62.9569 121 11
63.0743 134 11.5758
63.1918 129 11.3578
63.3092 134 11.5758
63.4267 110 10.4881
63.5441 132 11.4891
63.6616 118 10.8628
63.7791 144 12
63.8966 131 11.4455
64.0142 129 11.3578
64.1317 134 11.5758
64.2492 129 11.3578
64.3668 116 10.7703
64.4843 128 11.3137
64.6019 115 10.7238
64.7195 107 10.3441
64.837 128 11.3137
64.9546 111 10.5357
65.0722 130 11.4018
65.1898 115 10.7238
65.3074 119 10.9087
65.4249 118 10.8628
65.5425 132 11.4891
65.6601 113 10.6301
65.7777 120 10.9545
65.8952 128 11.3137
66.0128 103 10.1489
66.1304 107 10.3441
66.2479 98 9.89949
66.3655 107 10.3441
66.483 104 10.198
66.6005 127 11.2694
66.718 84 9.16515
66.8355 116 10.7703
66.953 113 10.6301
67.0705 120 10.9545
67.1879 118 10.8628
67.3054 126 11.225
67.4228 116 10.7703
67.5402 99 9.94987
67.6576 105 10.247
67.7749 108 10.3923
67.8923 110 10.4881
68.0096 113 10.6301
68.1269 116 10.7703
68.2442 111 10.5357
68.3614 117 10.8167
68.4787 97 9.84886
68.5958 112 10.583
68.713 95 9.74679
68.8302 115 10.7238
68.9473 105 10.247
69.0643 100 10
69.1814 94 9.69536
69.2984 110 10.4881
69.4154 112 10.583
69.5323 105 10.247
69.6492 77 8.77496
69.7661 107 10.3441
69.8829 91 9.53939
69.9997 79 8.88819
70.1165 80 8.94427
70.2332 110 10.4881
70.3499 88 9.38083
70.4665 75 8.66025
70.5831 101 10.0499
70.6996 85 9.21954
70.8161 113 10.6301
70.9326 95 9.74679
71.049 112 10.583
71.1653 121 11
71.2817 103 10.1489
71.3979 81 9
71.5141 81 9
71.6303 92 9.59166
71.7464 79 8.88819
71.8624 0 1
71.9784 0 1
72.0944 0 1
72.2102 0 1
72.3261 0 1
72.4418 0 1
72.5575 0 1
72.6732 0 1
75.1054 0 1
75.2209 0 1
75.3365 0 1
75.4521 0 1
75.5678 0 1
75.6835 0 1
75.7993 0 1
75.9151 0 1
76.031 0 1
76.147 60 7.74597
76.263 75 8.66025
76.3791 76 8.7178
76.4952 74 8.60233
76.6113 78 8.83176
76.7276 76 8.7178
76.8438 100 10
76.9601 93 9.64365
77.0765 92 9.59166
77.1929 67 8.18535
77.3093 69 8.30662
77.4258 82 9.05539
77.5423 84 9.16515
77.6589 75 8.66025
77.7755 86 9.27362
77.8921 88 9.38083
78.0088 62 7.87401
78.1256 73 8.544
78.2423 61 7.81025
78.3591 54 7.34847
78.4759 57 7.54983
78.5928 75 8.66025
78.7097 64 8
78.8266 68 8.24621
78.9436 68 8.24621
79.0606 55 7.4162
79.1776 47 6.85565
79.2946 56 7.48331
79.4117 51 7.14143
79.5288 60 7.74597
79.6459 55 7.4162
79.7631 53 7.28011
79.8802 52 7.2111
79.9974 47 6.85565
80.1147 47 6.85565
80.2319 56 7.48331
80.3491 38 6.16441
80.4664 49 7
80.5837 34 5.83095
80.701 53 7.28011
80.8183 58 7.61577
80.9357 47 6.85565
81.053 41 6.40312
81.1704 51 7.14143
81.2877 49 7
81.4051 44 6.63325
81.5225 36 6
81.6399 30 5.47723
81.7573 41 6.40312
81.8747 39 6.245
81.9922 44 6.63325
82.1096 25 5
82.227 36 6
82.3444 31 5.56776
82.4619 29 5.38516
82.5793 26 5.09902
82.6967 22 4.69042
82.8142 24 4.89898
82.9316 18 4.24264
83.049 26 5.09902
83.1664 22 4.69042
83.2838 26 5.09902
83.4012 30 5.47723
83.5186 27 5.19615
83.636 20 4.47214
83.7534 27 5.19615
83.8708 19 4.3589
83.9881 15 3.87298
84.1055 15 3.87298
84.2228 22 4.69042
84.3401 13 3.60555
84.4575 17 4.12311
84.5747 19 4.3589
84.692 18 4.24264
84.8093 15 3.87298
84.9265 17 4.12311
85.0437 13 3.60555
85.1609 9 3
85.2781 17 4.12311
85.3952 16 4
85.5123 15 3.87298
85.6294 10 3.16228
85.7465 9 3
85.8636 17 4.12311
85.9806 16 4
86.0976 12 3.4641
86.2145 5 2.23607
86.3315 17 4.12311
86.4484 16 4
86.5652 18 4.24264
86.682 10 3.16228
86.7988 13 3.60555
86.9156 19 4.3589
87.0323 22 4.69042
87.149 18 4.24264
87.2657 20 4.47214
87.3823 20 4.47214
87.4988 15 3.87298
87.6154 18 4.24264
87.7318 15 3.87298
87.8483 26 5.09902
87.9647 22 4.69042
88.081 33 5.74456
88.1973 28 5.2915
88.3136 29 5.38516
88.4298 25 5
88.546 41 6.40312
88.6621 31 5.56776
88.7781 41 6.40312
88.8942 0 1
89.0101 0 1
89.126 0 1
89.2419 0 1
89.3577 0 1
89.4734 0 1
89.5891 0 1
89.7047 0 1
89.8203 0 1
89.9358 0 1
92.3269 0 1
92.4424 0 1
92.558 0 1
92.6736 0 1
92.7893 0 1
92.905 0 1
93.0208 0 1
93.1366 0 1
93.2525 0 1
93.3685 0 1
93.4845 0 1
93.6005 48 6.9282
93.7167 52 7.2111
93.8328 55 7.4162
93.949 48 6.9282
94.0653 51 7.14143
94.1816 56 7.48331
94.2979 43 6.55744
94.4143 58 7.61577
94.5307 56 7.48331
94.6472 58 7.61577
94.7637 43 6.55744
94.8803 36 6
94.9969 45 6.7082
95.1135 37 6.08276
95.2302 44 6.63325
95.3469 36 6
95.4637 28 5.2915
95.5805 32 5.65685
95.6973 45 6.7082
95.8142 53 7.28011
95.9311 44 6.63325
96.048 50 7.07107
96.1649 45 6.7082
96.2819 48 6.9282
96.3989 42 6.48074
96.516 55 7.4162
96.633 57 7.54983
96.7501 44 6.63325
96.8673 54 7.34847
96.9844 52 7.2111
97.1016 65 8.06226
97.2188 65 8.06226
97.336 67 8.18535
97.4532 65 8.06226
97.5704 67 8.18535
97.6877 58 7.61577
97.805 64 8
97.9223 72 8.48528
98.0396 78 8.83176
98.1569 69 8.30662
98.2743 73 8.544
98.3916 96 9.79796
98.509 76 8.7178
98.6264 74 8.60233
98.7438 83 9.11043
98.8612 70 8.3666
98.9786 74 8.60233
99.096 54 7.34847
99.2134 52 7.2111
99.3308 82 9.05539
99.4482 88 9.38083
99.5656 79 8.88819
99.6831 112 10.583
99.8005 107 10.3441
99.9179 88 9.38083
100.035 88 9.38083
100.153 100 10
100.27 76 8.7178
100.388 94 9.69536
100.505 102 10.0995
100.622 90 9.48683
100.74 103 10.1489
100.857 87 9.32738
100.975 120 10.9545
101.092 123 11.0905
101.209 89 9.43398
101.327 103 10.1489
101.444 104 10.198
101.561 108 10.3923
101.679 123 11.0905
101.796 114 10.6771
101.913 93 9.64365
102.03 112 10.583
102.148 100 10
102.265 146 12.083
102.382 124 11.1355
102.499 102 10.0995
102.616 93 9.64365
102.733 80 8.94427
102.851 90 9.48683
102.968 104 10.198
103.085 116 10.7703
103.202 124 11.1355
103.319 115 10.7238
103.436 115 10.7238
103.552 110 10.4881
103.669 105 10.247
103.786 113 10.6301
103.903 115 10.7238
104.02 126 11.225
104.137 114 10.6771
104.253 122 11.0454
104.37 113 10.6301
104.487 111 10.5357
104.603 117 10.8167
104.72 126 11.225
104.836 127 11.2694
104.953 99 9.94987
105.069 131 11.4455
105.186 110 10.4881
105.302 132 11.4891
105.418 128 11.3137
105.535 134 11.5758
105.651 118 10.8628
105.767 114 10.6771
105.883 109 10.4403
105.999 93 9.64365
106.115 0 1
106.231 0 1
106.347 0 1
106.463 0 1
106.579 0 1
106.694 0 1
106.81 0 1
106.926 0 1
107.041 0 1
107.157 0 1
109.576 0 1
109.692 0 1
109.807 0 1
109.923 0 1
110.039 0 1
110.155 0 1
110.27 0 1
110.386 0 1
110.502 0 1
110.618 101 10.0499
110.735 103 10.1489
110.851 90 9.48683
110.967 106 10.2956
111.083 77 8.77496
111.199 87 9.32738
111.316 67 8.18535
111.432 70 8.3666
111.549 90 9.48683
111.665 96 9.79796
111.782 97 9.84886
111.898 91 9.53939
112.015 75 8.66025
112.132 120 10.9545
112.248 86 9.27362
112.365 90 9.48683
112.482 68 8.24621
112.599 71 8.42615
112.716 81 9
112.832 93 9.64365
112.949 66 8.12404
113.066 88 9.38083
113.183 77 8.77496
113.3 74 8.60233
113.417 86 9.27362
113.534 56 7.48331
113.652 81 9
113.769 84 9.16515
113.886 75 8.66025
114.003 61 7.81025
114.12 76 8.7178
114.238 77 8.77496
114.355 60 7.74597
114.472 47 6.85565
114.589 59 7.68115
114.707 52 7.2111
114.824 72 8.48528
114.942 59 7.68115
115.059 61 7.81025
115.176 60 7.74597
115.294 71 8.42615
115.411 82 9.05539
115.529 64 8
115.646 62 7.87401
115.764 66 8.12404
115.881 67 8.18535
115.999 85 9.21954
116.116 74 8.60233
116.234 67 8.18535
116.351 77 8.77496
116.469 57 7.54983
116.586 79 8.88819
116.704 55 7.4162
116.821 59 7.68115
116.939 53 7.28011
117.056 63 7.93725
117.174 66 8.12404
117.291 72 8.48528
117.409 49 7
117.526 68 8.24621
117.644 76 8.7178
117.761 49 7
117.879 49 7
117.996 35 5.91608
118.114 54 7.34847
118.231 69 8.30662
118.349 54 7.34847
118.466 54 7.34847
118.584 60 7.74597
118.701 69 8.30662
118.819 67 8.18535
118.936 73 8.544
119.053 57 7.54983
119.171 65 8.06226
119.288 63 7.93725
119.405 66 8.12404
119.523 74 8.60233
119.64 56 7.48331
119.757 65 8.06226
119.875 80 8.94427
119.992 55 7.4162
120.109 77 8.77496
120.226 58 7.61577
120.343 67 8.18535
120.46 55 7.4162
120.578 66 8.12404
120.695 73 8.544
120.812 80 8.94427
120.929 90 9.48683
121.046 67 8.18535
121.163 75 8.66025
121.279 63 7.93725
121.396 68 8.24621
121.513 70 8.3666
121.63 56 7.48331
121.747 55 7.4162
121.863 56 7.48331
121.98 75 8.66025
122.097 58 7.61577
122.213 63 7.93725
122.33 64 8
122.446 66 8.12404
122.563 77 8.77496
122.679 64 8
122.795 54 7.34847
122.912 67 8.18535
123.028 75 8.66025
123.144 66 8.12404
123.26 73 8.544
123.377 0 1
123.493 0 1
123.609 0 1
123.725 0 1
123.84 0 1
123.956 0 1
124.072 0 1
124.188 0 1
124.303 0 1
124.419 0 1
126.852 0 1
126.968 0 1
127.083 0 1
127.199 0 1
127.315 0 1
127.431 0 1
127.547 0 1
127.663 0 1
127.779 0 1
127.895 0 1
128.011 0 1
128.127 0 1
128.243 0 1
128.359 89 9.43398
128.476 97 9.84886
128.592 102 10.0995
128.708 108 10.3923
128.825 84 9.16515
128.941 112 10.583
129.058 95 9.74679
129.174 92 9.59166
129.291 84 9.16515
129.408 92 9.59166
129.524 107 10.3441
129.641 98 9.89949
129.758 103 10.1489
129.875 83 9.11043
129.992 94 9.69536
130.108 92 9.59166
130.225 93 9.64365
130.342 115 10.7238
130.459 82 9.05539
130.576 75 8.66025
130.693 62 7.87401
130.81 70 8.3666
130.928 60 7.74597
131.045 75 8.66025
131.162 96 9.79796
131.279 73 8.544
131.396 106 10.2956
131.513 99 9.94987
131.631 91 9.53939
131.748 108 10.3923
131.865 107 10.3441
131.983 107 10.3441
132.1 92 9.59166
132.217 114 10.6771
132.335 91 9.53939
132.452 108 10.3923
132.57 115 10.7238
132.687 110 10.4881
132.804 115 10.7238
132.922 101 10.0499
133.039 92 9.59166
133.157 113 10.6301
133.274 85 9.21954
133.392 110 10.4881
133.509 121 11
133.627 120 10.9545
133.744 107 10.3441
133.862 108 10.3923
133.979 94 9.69536
134.097 72 8.48528
134.214 77 8.77496
134.332 86 9.27362
134.449 92 9.59166
134.567 77 8.77496
134.684 90 9.48683
134.802 126 11.225
134.919 98 9.89949
135.037 116 10.7703
135.154 101 10.0499
135.272 106 10.2956
135.389 107 10.3441
135.507 132 11.4891
135.624 99 9.94987
135.742 107 10.3441
135.859 113 10.6301
135.977 106 10.2956
136.094 112 10.583
136.211 119 10.9087
136.329 131 11.4455
136.446 123 11.0905
136.564 123 11.0905
136.681 118 10.8628
136.798 114 10.6771
136.915 117 10.8167
137.033 127 11.2694
137.15 138 11.7473
137.267 137 11.7047
137.384 114 10.6771
137.502 108 10.3923
137.619 82 9.05539
137.736 88 9.38083
137.853 91 9.53939
137.97 87 9.32738
138.087 94 9.69536
138.204 81 9
138.321 102 10.0995
138.438 111 10.5357
138.555 124 11.1355
138.672 126 11.225
138.788 118 10.8628
138.905 100 10
139.022 137 11.7047
139.139 125 11.1803
139.255 129 11.3578
139.372 127 11.2694
139.488 137 11.7047
139.605 124 11.1355
139.721 145 12.0416
139.838 111 10.5357
139.954 125 11.1803
140.071 129 11.3578
140.187 124 11.1355
140.303 128 11.3137
140.419 143 11.9583
140.535 123 11.0905
140.652 114 10.6771
140.768 0 1
140.884 0 1
141 0 1
141.115 0 1
141.231 0 1
141.347 0 1
141.463 0 1
141.578 0 1
141.694 0 1
144.104 0 1
144.219 0 1
144.335 0 1
144.45 0 1
144.566 0 1
144.682 0 1
144.798 0 1
144.914 0 1
145.03 0 1
145.146 135 11.619
145.262 133 11.5326
145.378 121 11
145.494 135 11.619
145.61 135 11.619
145.726 147 12.1244
145.842 114 10.6771
145.959 117 10.8167
146.075 108 10.3923
146.192 111 10.5357
146.308 104 10.198
146.425 109 10.4403
146.541 110 10.4881
146.658 100 10
146.774 98 9.89949
146.891 98 9.89949
147.008 97 9.84886
147.125 121 11
147.241 118 10.8628
147.358 125 11.1803
147.475 129 11.3578
147.592 149 12.2066
147.709 111 10.5357
147.826 131 11.4455
147.943 110 10.4881
148.06 135 11.619
148.177 109 10.4403
148.294 122 11.0454
148.411 128 11.3137
148.528 107 10.3441
148.645 127 11.2694
148.762 123 11.0905
148.88 124 11.1355
148.997 114 10.6771
149.114 135 11.619
149.231 111 10.5357
149.349 135 11.619
149.466 118 10.8628
149.583 100 10
149.701 102 10.0995
149.818 108 10.3923
149.935 108 10.3923
150.053 95 9.74679
150.17 97 9.84886
150.287 97 9.84886
150.405 106 10.2956
150.522 90 9.48683
150.64 108 10.3923
150.757 119 10.9087
150.875 105 10.247
150.992 125 11.1803
151.11 121 11
151.227 127 11.2694
151.344 132 11.4891
151.462 127 11.2694
151.579 121 11
151.697 128 11.3137
151.814 108 10.3923
151.932 123 11.0905
152.049 138 11.7473
152.167 125 11.1803
152.284 103 10.1489
152.402 130 11.4018
152.519 120 10.9545
152.636 142 11.9164
152.754 132 11.4891
152.871 111 10.5357
152.989 140 11.8322
153.106 107 10.3441
153.223 121 11
153.341 114 10.6771
153.458 100 10
153.575 117 10.8167
153.693 107 10.3441
153.81 100 10
153.927 82 9.05539
154.044 129 11.3578
154.162 118 10.8628
154.279 122 11.0454
154.396 121 11
154.513 138 11.7473
154.63 136 11.6619
154.747 140 11.8322
154.864 122 11.0454
154.981 113 10.6301
155.098 138 11.7473
155.215 115 10.7238
155.332 160 12.6491
155.449 144 12
155.566 123 11.0905
155.683 151 12.2882
155.8 128 11.3137
155.917 131 11.4455
156.033 149 12.2066
156.15 0 1
156.267 0 1
156.383 0 1
156.5 0 1
156.617 0 1
156.733 0 1
156.85 0 1
156.966 0 1
157.082 0 1
157.199 0 1
157.315 0 1
157.431 0 1
157.547 0 1
157.664 0 1
157.78 0 1
157.896 0 1
158.012 0 1
158.128 0 1
158.244 0 1
158.359 0 1
158.475 0 1
158.591 0 1
158.706 0 1
