
6.15755 0 1
6.2731 0 1
6.3887 0 1
6.50437 0 1
6.62009 0 1
6.73587 0 1
6.8517 0 1
6.96759 0 1
7.08353 0 1
7.19952 0 1
7.31557 0 1
7.43166 0 1
7.54781 0 1
7.664 0 1
7.78024 0 1
7.89653 0 1
8.01286 0 1
8.12924 0 1
8.24567 0 1
8.36213 0 1
8.47864 0 1
8.59519 0 1
8.71178 0 1
8.82841 0 1
8.94508 0 1
9.06179 0 1
9.17853 0 1
9.29531 0 1
9.41212 0 1
9.52897 0 1
9.64584 0 1
9.76276 0 1
9.8797 0 1
9.99667 0 1
10.1137 0 1
10.2307 0 1
10.3478 0 1
10.4648 0 1
10.5819 0 1
10.6991 0 1
10.8162 0 1
10.9334 0 1
11.0506 0 1
11.1678 0 1
11.285 0 1
11.4023 0 1
11.5196 0 1
11.6369 0 1
11.7542 0 1
11.8715 0 1
11.9888 0 1
12.1062 0 1
12.2235 0 1
12.3409 0 1
12.4582 0 1
12.5756 0 1
12.693 0 1
12.8104 0 1
12.9278 0 1
13.0452 0 1
13.1626 0 1
13.28 0 1
13.3974 0 1
13.5149 0 1
13.6323 0 1
13.7497 0 1
13.8671 0 1
13.9845 0 1
14.1019 0 1
14.2193 0 1
14.3367 0 1
14.4541 0 1
14.5714 0 1
14.6888 0 1
14.8062 0 1
14.9235 0 1
15.0408 1913 43.7379
15.1581 2034 45.0999
15.2755 2028 45.0333
15.3927 2098 45.8039
15.51 2075 45.5522
15.6273 2058 45.3652
15.7445 2038 45.1442
15.8617 1981 44.5084
15.9789 1970 44.3847
16.0961 1920 43.8178
16.2132 1971 44.3959
16.3304 1917 43.7836
16.4475 1894 43.5201
16.5646 1892 43.4971
16.6816 1899 43.5775
16.7986 1844 42.9418
16.9156 1870 43.2435
17.0326 1851 43.0232
17.1496 1823 42.6966
17.2665 1824 42.7083
17.3833 1802 42.45
17.5002 1881 43.3705
17.617 1888 43.4511
17.7338 1878 43.3359
17.8505 1972 44.4072
17.9672 2128 46.1303
18.0839 2113 45.9674
18.2005 2007 44.7996
18.3171 2091 45.7275
18.4337 2098 45.8039
18.5502 2120 46.0435
18.6666 2151 46.3789
18.7831 2108 45.913
18.8994 2022 44.9667
19.0158 1926 43.8862
19.1321 1788 42.2847
19.2483 1743 41.7493
19.3645 1804 42.4735
19.4806 1812 42.5676
19.5967 1755 41.8927
19.7128 1803 42.4617
19.8288 1845 42.9535
19.9447 1713 41.3884
20.0606 0 1
20.1764 0 1
20.2922 0 1
20.4079 0 1
20.5236 0 1
20.6392 0 1
20.7548 0 1
20.8702 0 1
23.3078 0 1
23.4233 0 1
23.539 0 1
23.6547 0 1
23.7704 0 1
23.8862 0 1
24.0021 0 1
24.118 0 1
24.234 0 1
24.35 0 1
24.4661 1846 42.9651
24.5822 1859 43.1161
24.6984 1767 42.0357
24.8146 1795 42.3674
24.9309 1887 43.4396
25.0472 1876 43.3128
25.1636 1993 44.643
25.28 2037 45.1331
25.3965 2111 45.9456
25.513 2153 46.4004
25.6296 2044 45.2106
25.7462 2121 46.0543
25.8628 2135 46.2061
25.9795 2096 45.7821
26.0962 2127 46.1194
26.213 2129 46.1411
26.3298 2064 45.4313
26.4466 2076 45.5631
26.5635 2133 46.1844
26.6804 2083 45.6399
26.7973 2075 45.5522
26.9143 2034 45.0999
27.0313 2018 44.9222
27.1483 1874 43.2897
27.2653 1933 43.9659
27.3824 1983 44.5309
27.4996 1992 44.6318
27.6167 1971 44.3959
27.7339 1916 43.7721
27.8511 1833 42.8135
27.9683 1844 42.9418
28.0855 1824 42.7083
28.2028 1739 41.7013
28.3201 1796 42.3792
28.4374 1880 43.359
28.5547 1824 42.7083
28.6721 1903 43.6234
28.7894 1882 43.382
28.9068 1914 43.7493
29.0242 1997 44.6878
29.1416 1960 44.2719
29.259 1990 44.6094
29.3764 1984 44.5421
29.4939 1943 44.0795
29.6113 1916 43.7721
29.7288 2002 44.7437
29.8463 1999 44.7102
29.9638 2038 45.1442
30.0812 2062 45.4093
30.1987 2086 45.6727
30.3162 2101 45.8367
30.4337 1917 43.7836
30.5512 1965 44.3283
30.6687 1851 43.0232
30.7862 1857 43.0929
30.9037 1948 44.1362
31.0212 1903 43.6234
31.1387 1927 43.8976
31.2562 1832 42.8019
31.3737 1840 42.8952
31.4912 1820 42.6615
31.6087 1757 41.9166
31.7262 1778 42.1663
31.8436 1857 43.0929
31.9611 1819 42.6497
32.0785 1850 43.0116
32.1959 1919 43.8064
32.3134 1933 43.9659
32.4308 1876 43.3128
32.5482 1961 44.2832
32.6655 1885 43.4166
32.7829 1937 44.0114
32.9002 1938 44.0227
33.0176 2009 44.8219
33.1349 1940 44.0454
33.2522 1938 44.0227
33.3694 2061 45.3982
33.4867 2041 45.1774
33.6039 2007 44.7996
33.7211 2073 45.5302
33.8383 2001 44.7325
33.9554 2001 44.7325
34.0725 2015 44.8888
34.1896 1941 44.0568
34.3067 1926 43.8862
34.4237 1792 42.332
34.5407 1824 42.7083
34.6577 1809 42.5323
34.7746 1857 43.0929
34.8915 1795 42.3674
35.0084 1791 42.3202
35.1252 1747 41.7971
35.242 1701 41.2432
35.3587 1753 41.8688
35.4755 1756 41.9047
35.5921 1781 42.2019
35.7088 1825 42.72
35.8254 1829 42.7668
35.9419 1929 43.9204
36.0584 1907 43.6692
36.1749 1840 42.8952
36.2913 1919 43.8064
36.4077 1945 44.1022
36.524 1865 43.1856
36.6403 1859 43.1161
36.7565 1824 42.7083
36.8727 1895 43.5316
36.9889 1936 44
37.1049 1953 44.1928
37.221 0 1
37.3369 0 1
37.4529 0 1
37.5687 0 1
37.6845 0 1
37.8003 0 1
37.916 0 1
38.0316 0 1
38.1472 0 1
40.5851 0 1
40.7008 0 1
40.8164 0 1
40.9322 0 1
41.048 0 1
41.1639 0 1
41.2798 0 1
41.3958 0 1
41.5118 0 1
41.6279 0 1
41.744 1527 39.0768
41.8602 1535 39.1791
41.9765 1521 39
42.0928 1602 40.025
42.2091 1544 39.2938
42.3255 1639 40.4846
42.4419 1582 39.7744
42.5584 1630 40.3733
42.675 1692 41.1339
42.7915 1652 40.6448
42.9081 1670 40.8656
43.0248 1543 39.281
43.1415 1426 37.7624
43.2582 1481 38.4838
43.375 1430 37.8153
43.4918 1441 37.9605
43.6087 1442 37.9737
43.7256 1501 38.7427
43.8425 1359 36.8646
43.9595 1229 35.0571
44.0765 1337 36.565
44.1935 1310 36.1939
44.3106 1322 36.3593
44.4277 1365 36.9459
44.5448 1387 37.2424
44.6619 1396 37.3631
44.7791 1348 36.7151
44.8963 1317 36.2905
45.0136 1306 36.1386
45.1308 1278 35.7491
45.2481 1243 35.2562
45.3654 1210 34.7851
45.4827 1210 34.7851
45.6001 1173 34.2491
45.7174 1224 34.9857
45.8348 1176 34.2929
45.9522 1242 35.242
46.0697 1225 35
46.1871 1276 35.7211
46.3046 1223 34.9714
46.422 1161 34.0735
46.5395 1126 33.5559
46.657 1111 33.3317
46.7745 1100 33.1662
46.892 1054 32.4654
47.0096 1099 33.1512
47.1271 1088 32.9848
47.2446 1119 33.4515
47.3622 1057 32.5115
47.4797 971 31.1609
47.5973 999 31.607
47.7149 983 31.3528
47.8324 919 30.315
47.95 979 31.289
48.0675 950 30.8221
48.1851 952 30.8545
48.3027 903 30.05
48.4202 880 29.6648
48.5378 912 30.1993
48.6554 916 30.2655
48.7729 939 30.6431
48.8904 903 30.05
49.008 819 28.6182
49.1255 836 28.9137
49.243 819 28.6182
49.3605 886 29.7658
49.478 896 29.9333
49.5955 884 29.7321
49.713 949 30.8058
49.8304 964 31.0483
49.9479 998 31.5911
50.0653 901 30.0167
50.1827 977 31.257
50.3001 894 29.8998
50.4175 954 30.8869
50.5348 945 30.7409
50.6521 1035 32.1714
50.7694 1070 32.7109
50.8867 1027 32.0468
51.004 1006 31.7175
51.1212 1081 32.8786
51.2384 1172 34.2345
51.3556 1180 34.3511
51.4727 1161 34.0735
51.5899 1227 35.0286
51.707 1313 36.2353
51.824 1351 36.756
51.9411 1308 36.1663
52.0581 1345 36.6742
52.175 1376 37.0945
52.2919 1437 37.9078
52.4088 1427 37.7757
52.5257 1348 36.7151
52.6425 1381 37.1618
52.7593 1397 37.3765
52.876 1494 38.6523
52.9927 1492 38.6264
53.1094 1565 39.5601
53.226 1629 40.3609
53.3426 1663 40.7799
53.4591 1689 41.0974
53.5756 1727 41.5572
53.692 1695 41.1704
53.8084 1627 40.3361
53.9248 1685 41.0488
54.0411 1644 40.5463
54.1573 1672 40.8901
54.2735 0 1
54.3896 0 1
54.5057 0 1
54.6217 0 1
54.7377 0 1
54.8537 0 1
54.9695 0 1
55.0853 0 1
55.2011 0 1
55.3168 0 1
55.4324 0 1
57.824 0 1
57.9396 0 1
58.0553 0 1
58.1711 0 1
58.2869 0 1
58.4028 0 1
58.5187 0 1
58.6347 0 1
58.7508 0 1
58.8669 0 1
58.983 2050 45.2769
59.0992 2012 44.8553
59.2155 1977 44.4635
59.3318 1973 44.4185
59.4482 1978 44.4747
59.5646 2082 45.6289
59.681 2006 44.7884
59.7975 2128 46.1303
59.9141 2037 45.1331
60.0306 2026 45.0111
60.1473 2015 44.8888
60.2639 2000 44.7214
60.3807 1979 44.486
60.4974 2005 44.7772
60.6142 1945 44.1022
60.731 1976 44.4522
60.8479 1837 42.8602
60.9648 1906 43.6578
61.0818 1764 42
61.1987 1865 43.1856
61.3158 1828 42.7551
61.4328 1836 42.8486
61.5499 1827 42.7434
61.667 1728 41.5692
61.7841 1811 42.5558
61.9013 1830 42.7785
62.0185 1916 43.7721
62.1357 1933 43.9659
62.253 1876 43.3128
62.3702 1935 43.9886
62.4875 1848 42.9884
62.6049 1851 43.0232
62.7222 1772 42.0951
62.8396 1833 42.8135
62.9569 1788 42.2847
63.0743 1853 43.0465
63.1918 1806 42.4971
63.3092 1867 43.2088
63.4267 1715 41.4126
63.5441 1782 42.2137
63.6616 1862 43.1509
63.7791 1718 41.4488
63.8966 1759 41.9404
64.0142 1765 42.0119
64.1317 1707 41.3159
64.2492 1673 40.9023
64.3668 1689 41.0974
64.4843 1624 40.2989
64.6019 1631 40.3856
64.7195 1654 40.6694
64.837 1659 40.7308
64.9546 1687 41.0731
65.0722 1646 40.5709
65.1898 1592 39.8999
65.3074 1600 40
65.4249 1612 40.1497
65.5425 1588 39.8497
65.6601 1690 41.1096
65.7777 1655 40.6817
65.8952 1646 40.5709
66.0128 1596 39.95
66.1304 1620 40.2492
66.2479 1615 40.1871
66.3655 1673 40.9023
66.483 1618 40.2244
66.6005 1666 40.8167
66.718 1735 41.6533
66.8355 1657 40.7063
66.953 1674 40.9145
67.0705 1642 40.5216
67.1879 1668 40.8412
67.3054 1631 40.3856
67.4228 1601 40.0125
67.5402 1563 39.5348
67.6576 1619 40.2368
67.7749 1566 39.5727
67.8923 1575 39.6863
68.0096 1668 40.8412
68.1269 1663 40.7799
68.2442 1667 40.8289
68.3614 1622 40.2741
68.4787 1647 40.5832
68.5958 1569 39.6106
68.713 1579 39.7366
68.8302 1670 40.8656
68.9473 1717 41.4367
69.0643 1670 40.8656
69.1814 1677 40.9512
69.2984 1663 40.7799
69.4154 1704 41.2795
69.5323 1678 40.9634
69.6492 1762 41.9762
69.7661 1837 42.8602
69.8829 1731 41.6053
69.9997 1785 42.2493
70.1165 1743 41.7493
70.2332 1703 41.2674
70.3499 1747 41.7971
70.4665 1789 42.2966
70.5831 1805 42.4853
70.6996 1685 41.0488
70.8161 1784 42.2374
70.9326 1742 41.7373
71.049 1784 42.2374
71.1653 1758 41.9285
71.2817 1690 41.1096
71.3979 1713 41.3884
71.5141 1690 41.1096
71.6303 1619 40.2368
71.7464 1493 38.6394
71.8624 0 1
71.9784 0 1
72.0944 0 1
72.2102 0 1
72.3261 0 1
72.4418 0 1
72.5575 0 1
72.6732 0 1
75.1054 0 1
75.2209 0 1
75.3365 0 1
75.4521 0 1
75.5678 0 1
75.6835 0 1
75.7993 0 1
75.9151 0 1
76.031 0 1
76.147 1602 40.025
76.263 1736 41.6653
76.3791 1683 41.0244
76.4952 1694 41.1582
76.6113 1636 40.4475
76.7276 1670 40.8656
76.8438 1575 39.6863
76.9601 1676 40.939
77.0765 1615 40.1871
77.1929 1659 40.7308
77.3093 1708 41.328
77.4258 1754 41.8808
77.5423 1737 41.6773
77.6589 1651 40.6325
77.7755 1589 39.8623
77.8921 1568 39.598
78.0088 1629 40.3609
78.1256 1549 39.3573
78.2423 1567 39.5854
78.3591 1587 39.8372
78.4759 1644 40.5463
78.5928 1596 39.95
78.7097 1564 39.5474
78.8266 1610 40.1248
78.9436 1649 40.6079
79.0606 1476 38.4187
79.1776 1424 37.7359
79.2946 1526 39.064
79.4117 1572 39.6485
79.5288 1519 38.9744
79.6459 1665 40.8044
79.7631 1588 39.8497
79.8802 1443 37.9868
79.9974 1463 38.2492
80.1147 1471 38.3536
80.2319 1445 38.0132
80.3491 1434 37.8682
80.4664 1392 37.3095
80.5837 1340 36.606
80.701 1309 36.1801
80.8183 1334 36.524
80.9357 1419 37.6696
81.053 1371 37.027
81.1704 1445 38.0132
81.2877 1429 37.8021
81.4051 1396 37.3631
81.5225 1282 35.805
81.6399 1265 35.5668
81.7573 1326 36.4143
81.8747 1237 35.171
81.9922 1257 35.4542
82.1096 1238 35.1852
82.227 1296 36
82.3444 1312 36.2215
82.4619 1386 37.229
82.5793 1339 36.5923
82.6967 1300 36.0555
82.8142 1205 34.7131
82.9316 1200 34.641
83.049 1206 34.7275
83.1664 1226 35.0143
83.2838 1172 34.2345
83.4012 1157 34.0147
83.5186 1102 33.1964
83.636 1171 34.2199
83.7534 1107 33.2716
83.8708 1085 32.9393
83.9881 1083 32.909
84.1055 1014 31.8434
84.2228 1046 32.3419
84.3401 1044 32.311
84.4575 1054 32.4654
84.5747 1112 33.3467
84.692 1155 33.9853
84.8093 1130 33.6155
84.9265 1152 33.9411
85.0437 1083 32.909
85.1609 1005 31.7017
85.2781 1092 33.0454
85.3952 1091 33.0303
85.5123 1102 33.1964
85.6294 1097 33.121
85.7465 1094 33.0757
85.8636 1106 33.2566
85.9806 1137 33.7194
86.0976 1180 34.3511
86.2145 1208 34.7563
86.3315 1164 34.1174
86.4484 1122 33.4963
86.5652 1096 33.1059
86.682 1212 34.8138
86.7988 1253 35.3977
86.9156 1198 34.6121
87.0323 1164 34.1174
87.149 1067 32.665
87.2657 1111 33.3317
87.3823 1148 33.8821
87.4988 1087 32.9697
87.6154 1029 32.078
87.7318 1033 32.1403
87.8483 1106 33.2566
87.9647 1077 32.8177
88.081 1113 33.3617
88.1973 1243 35.2562
88.3136 1224 34.9857
88.4298 1113 33.3617
88.546 1093 33.0606
88.6621 1084 32.9242
88.7781 1050 32.4037
88.8942 0 1
89.0101 0 1
89.126 0 1
89.2419 0 1
89.3577 0 1
89.4734 0 1
89.5891 0 1
89.7047 0 1
89.8203 0 1
89.9358 0 1
92.3269 0 1
92.4424 0 1
92.558 0 1
92.6736 0 1
92.7893 0 1
92.905 0 1
93.0208 0 1
93.1366 0 1
93.2525 0 1
93.3685 0 1
93.4845 0 1
93.6005 771 27.7669
93.7167 789 28.0891
93.8328 741 27.2213
93.949 794 28.178
94.0653 742 27.2397
94.1816 729 27
94.2979 723 26.8887
94.4143 728 26.9815
94.5307 673 25.9422
94.6472 644 25.3772
94.7637 644 25.3772
94.8803 701 26.4764
94.9969 717 26.7769
95.1135 763 27.6225
95.2302 757 27.5136
95.3469 723 26.8887
95.4637 756 27.4955
95.5805 710 26.6458
95.6973 660 25.6905
95.8142 689 26.2488
95.9311 664 25.7682
96.048 597 24.4336
96.1649 551 23.4734
96.2819 552 23.4947
96.3989 497 22.2935
96.516 459 21.4243
96.633 422 20.5426
96.7501 417 20.4206
96.8673 412 20.2978
96.9844 395 19.8746
97.1016 358 18.9209
97.2188 395 19.8746
97.336 452 21.2603
97.4532 442 21.0238
97.5704 424 20.5913
97.6877 428 20.6882
97.805 375 19.3649
97.9223 324 18
98.0396 322 17.9444
98.1569 340 18.4391
98.2743 332 18.2209
98.3916 312 17.6635
98.509 335 18.303
98.6264 376 19.3907
98.7438 394 19.8494
98.8612 429 20.7123
98.9786 455 21.3307
99.096 500 22.3607
99.2134 499 22.3383
99.3308 489 22.1133
99.4482 541 23.2594
99.5656 459 21.4243
99.6831 428 20.6882
99.8005 416 20.3961
99.9179 365 19.105
100.035 369 19.2094
100.153 371 19.2614
100.27 362 19.0263
100.388 325 18.0278
100.505 360 18.9737
100.622 404 20.0998
100.74 437 20.9045
100.857 485 22.0227
100.975 570 23.8747
101.092 579 24.0624
101.209 666 25.807
101.327 574 23.9583
101.444 627 25.04
101.561 659 25.671
101.679 697 26.4008
101.796 720 26.8328
101.913 809 28.4429
102.03 850 29.1548
102.148 916 30.2655
102.265 1101 33.1813
102.382 985 31.3847
102.499 1117 33.4215
102.616 1104 33.2265
102.733 1009 31.7648
102.851 1232 35.0999
102.968 1416 37.6298
103.085 1465 38.2753
103.202 1484 38.5227
103.319 1427 37.7757
103.436 1457 38.1707
103.552 1406 37.4967
103.669 1414 37.6032
103.786 1448 38.0526
103.903 1496 38.6782
104.02 1442 37.9737
104.137 1401 37.4299
104.253 1488 38.5746
104.37 1393 37.3229
104.487 1503 38.7685
104.603 1508 38.833
104.72 1406 37.4967
104.836 1472 38.3667
104.953 1372 37.0405
105.069 1405 37.4833
105.186 1360 36.8782
105.302 1333 36.5103
105.418 1335 36.5377
105.535 1393 37.3229
105.651 1338 36.5787
105.767 1485 38.5357
105.883 1518 38.9615
105.999 1432 37.8418
106.115 0 1
106.231 0 1
106.347 0 1
106.463 0 1
106.579 0 1
106.694 0 1
106.81 0 1
106.926 0 1
107.041 0 1
107.157 0 1
109.576 0 1
109.692 0 1
109.807 0 1
109.923 0 1
110.039 0 1
110.155 0 1
110.27 0 1
110.386 0 1
110.502 0 1
110.618 1642 40.5216
110.735 1767 42.0357
110.851 1828 42.7551
110.967 1841 42.9069
111.083 1801 42.4382
111.199 1573 39.6611
111.316 1440 37.9473
111.432 1656 40.694
111.549 1846 42.9651
111.665 1842 42.9185
111.782 1880 43.359
111.898 1802 42.45
112.015 1741 41.7253
112.132 1782 42.2137
112.248 1665 40.8044
112.365 1661 40.7554
112.482 1688 41.0853
112.599 1577 39.7115
112.716 1617 40.2119
112.832 1638 40.4722
112.949 1658 40.7185
113.066 1686 41.0609
113.183 1652 40.6448
113.3 1676 40.939
113.417 1651 40.6325
113.534 1655 40.6817
113.652 1634 40.4228
113.769 1684 41.0366
113.886 1736 41.6653
114.003 1618 40.2244
114.12 1691 41.1218
114.238 1708 41.328
114.355 1776 42.1426
114.472 1990 44.6094
114.589 1685 41.0488
114.707 1511 38.8716
114.824 1340 36.606
114.942 1530 39.1152
115.059 1793 42.3438
115.176 1843 42.9302
115.294 1906 43.6578
115.411 1849 43
115.529 1864 43.1741
115.646 1796 42.3792
115.764 1848 42.9884
115.881 1786 42.2611
115.999 1764 42
116.116 1719 41.4608
116.234 1678 40.9634
116.351 1768 42.0476
116.469 1709 41.3401
116.586 1737 41.6773
116.704 1719 41.4608
116.821 1735 41.6533
116.939 1676 40.939
117.056 1699 41.2189
117.174 1761 41.9643
117.291 1805 42.4853
117.409 1819 42.6497
117.526 1918 43.795
117.644 1907 43.6692
117.761 1889 43.4626
117.879 1960 44.2719
117.996 1976 44.4522
118.114 1927 43.8976
118.231 1748 41.8091
118.349 1548 39.3446
118.466 1539 39.2301
118.584 1742 41.7373
118.701 1870 43.2435
118.819 1968 44.3621
118.936 1984 44.5421
119.053 1893 43.5086
119.171 1863 43.1625
119.288 1793 42.3438
119.405 1829 42.7668
119.523 1714 41.4005
119.64 1758 41.9285
119.757 1639 40.4846
119.875 1601 40.0125
119.992 1629 40.3609
120.109 1533 39.1535
120.226 1519 38.9744
120.343 1447 38.0395
120.46 1491 38.6135
120.578 1513 38.8973
120.695 1494 38.6523
120.812 1507 38.8201
120.929 1512 38.8844
121.046 1569 39.6106
121.163 1699 41.2189
121.279 1635 40.4351
121.396 1647 40.5832
121.513 1665 40.8044
121.63 1589 39.8623
121.747 1696 41.1825
121.863 1622 40.2741
121.98 1479 38.4578
122.097 1326 36.4143
122.213 1223 34.9714
122.33 1353 36.7831
122.446 1484 38.5227
122.563 1574 39.6737
122.679 1470 38.3406
122.795 1476 38.4187
122.912 1485 38.5357
123.028 1427 37.7757
123.144 1479 38.4578
123.26 1330 36.4692
123.377 0 1
123.493 0 1
123.609 0 1
123.725 0 1
123.84 0 1
123.956 0 1
124.072 0 1
124.188 0 1
124.303 0 1
124.419 0 1
126.852 0 1
126.968 0 1
127.083 0 1
127.199 0 1
127.315 0 1
127.431 0 1
127.547 0 1
127.663 0 1
127.779 0 1
127.895 0 1
128.011 0 1
128.127 0 1
128.243 0 1
128.359 1109 33.3017
128.476 1157 34.0147
128.592 1098 33.1361
128.708 1017 31.8904
128.825 998 31.5911
128.941 963 31.0322
129.058 921 30.348
129.174 909 30.1496
129.291 833 28.8617
129.408 771 27.7669
129.524 884 29.7321
129.641 861 29.3428
129.758 895 29.9166
129.875 931 30.5123
129.992 997 31.5753
130.108 999 31.607
130.225 1001 31.6386
130.342 1051 32.4191
130.459 1032 32.1248
130.576 958 30.9516
130.693 930 30.4959
130.81 933 30.545
130.928 912 30.1993
131.045 1014 31.8434
131.162 908 30.133
131.279 917 30.282
131.396 908 30.133
131.513 985 31.3847
131.631 954 30.8869
131.748 966 31.0805
131.865 886 29.7658
131.983 982 31.3369
132.1 917 30.282
132.217 921 30.348
132.335 867 29.4449
132.452 884 29.7321
132.57 830 28.8097
132.687 831 28.8271
132.804 831 28.8271
132.922 757 27.5136
133.039 688 26.2298
133.157 770 27.7489
133.274 801 28.3019
133.392 840 28.9828
133.509 915 30.249
133.627 901 30.0167
133.744 871 29.5127
133.862 931 30.5123
133.979 943 30.7083
134.097 872 29.5296
134.214 752 27.4226
134.332 663 25.7488
134.449 731 27.037
134.567 905 30.0832
134.684 879 29.6479
134.802 911 30.1828
134.919 906 30.0998
135.037 905 30.0832
135.154 884 29.7321
135.272 977 31.257
135.389 1000 31.6228
135.507 1054 32.4654
135.624 918 30.2985
135.742 1012 31.8119
135.859 987 31.4166
135.977 873 29.5466
136.094 870 29.4958
136.211 945 30.7409
136.329 894 29.8998
136.446 813 28.5132
136.564 835 28.8964
136.681 866 29.4279
136.798 882 29.6985
136.915 913 30.2159
137.033 940 30.6594
137.15 959 30.9677
137.267 953 30.8707
137.384 957 30.9354
137.502 968 31.1127
137.619 997 31.5753
137.736 890 29.8329
137.853 740 27.2029
137.97 765 27.6586
138.087 769 27.7308
138.204 888 29.7993
138.321 944 30.7246
138.438 988 31.4325
138.555 958 30.9516
138.672 1017 31.8904
138.788 1051 32.4191
138.905 1058 32.5269
139.022 1085 32.9393
139.139 1077 32.8177
139.255 1071 32.7261
139.372 1034 32.1559
139.488 1094 33.0757
139.605 1097 33.121
139.721 1011 31.7962
139.838 1064 32.619
139.954 989 31.4484
140.071 1034 32.1559
140.187 964 31.0483
140.303 946 30.7571
140.419 1067 32.665
140.535 1017 31.8904
140.652 1045 32.3265
140.768 0 1
140.884 0 1
141 0 1
141.115 0 1
141.231 0 1
141.347 0 1
141.463 0 1
141.578 0 1
141.694 0 1
144.104 0 1
144.219 0 1
144.335 0 1
144.45 0 1
144.566 0 1
144.682 0 1
144.798 0 1
144.914 0 1
145.03 0 1
145.146 1057 32.5115
145.262 1077 32.8177
145.378 1071 32.7261
145.494 1073 32.7567
145.61 1067 32.665
145.726 1119 33.4515
145.842 1127 33.5708
145.959 1149 33.8969
146.075 1160 34.0588
146.192 1056 32.4962
146.308 1062 32.5883
146.425 933 30.545
146.541 996 31.5595
146.658 817 28.5832
146.774 893 29.8831
146.891 1001 31.6386
147.008 1079 32.8481
147.125 1141 33.7787
147.241 1173 34.2491
147.358 1210 34.7851
147.475 1190 34.4964
147.592 1204 34.6987
147.709 1226 35.0143
147.826 1214 34.8425
147.943 1182 34.3802
148.06 1218 34.8999
148.177 1270 35.6371
148.294 1256 35.4401
148.411 1160 34.0588
148.528 1236 35.1568
148.645 1167 34.1614
148.762 1105 33.2415
148.88 1193 34.5398
148.997 1179 34.3366
149.114 1266 35.5809
149.231 1201 34.6554
149.349 1251 35.3695
149.466 1229 35.0571
149.583 1244 35.2704
149.701 1117 33.4215
149.818 1233 35.1141
149.935 1115 33.3916
150.053 1083 32.909
150.17 976 31.241
150.287 989 31.4484
150.405 1034 32.1559
150.522 1028 32.0624
150.64 1116 33.4066
150.757 1272 35.6651
150.875 1207 34.7419
150.992 1338 36.5787
151.11 1280 35.7771
151.227 1373 37.054
151.344 1349 36.7287
151.462 1247 35.3129
151.579 1324 36.3868
151.697 1335 36.5377
151.814 1313 36.2353
151.932 1306 36.1386
152.049 1363 36.9188
152.167 1258 35.4683
152.284 1310 36.1939
152.402 1324 36.3868
152.519 1282 35.805
152.636 1312 36.2215
152.754 1296 36
152.871 1337 36.565
152.989 1273 35.6791
153.106 1230 35.0714
153.223 1333 36.5103
153.341 1267 35.5949
153.458 1217 34.8855
153.575 1189 34.4819
153.693 1110 33.3167
153.81 1091 33.0303
153.927 1121 33.4813
154.044 1170 34.2053
154.162 1165 34.1321
154.279 1253 35.3977
154.396 1287 35.8748
154.513 1454 38.1314
154.63 1468 38.3145
154.747 1401 37.4299
154.864 1458 38.1838
154.981 1485 38.5357
155.098 1490 38.6005
155.215 1491 38.6135
155.332 1492 38.6264
155.449 1497 38.6911
155.566 1443 37.9868
155.683 1418 37.6563
155.8 1457 38.1707
155.917 1371 37.027
156.033 1429 37.8021
156.15 0 1
156.267 0 1
156.383 0 1
156.5 0 1
156.617 0 1
156.733 0 1
156.85 0 1
156.966 0 1
157.082 0 1
157.199 0 1
157.315 0 1
157.431 0 1
157.547 0 1
157.664 0 1
157.78 0 1
157.896 0 1
158.012 0 1
158.128 0 1
158.244 0 1
158.359 0 1
158.475 0 1
158.591 0 1
158.706 0 1
