
6.15755 0 1
6.2731 0 1
6.3887 0 1
6.50437 0 1
6.62009 0 1
6.73587 0 1
6.8517 0 1
6.96759 0 1
7.08353 0 1
7.19952 0 1
7.31557 0 1
7.43166 0 1
7.54781 0 1
7.664 0 1
7.78024 0 1
7.89653 0 1
8.01286 0 1
8.12924 0 1
8.24567 0 1
8.36213 0 1
8.47864 0 1
8.59519 0 1
8.71178 0 1
8.82841 0 1
8.94508 0 1
9.06179 0 1
9.17853 0 1
9.29531 0 1
9.41212 0 1
9.52897 0 1
9.64584 0 1
9.76276 0 1
9.8797 0 1
9.99667 0 1
10.1137 0 1
10.2307 0 1
10.3478 0 1
10.4648 0 1
10.5819 0 1
10.6991 0 1
10.8162 0 1
10.9334 0 1
11.0506 0 1
11.1678 0 1
11.285 0 1
11.4023 0 1
11.5196 0 1
11.6369 0 1
11.7542 0 1
11.8715 0 1
11.9888 0 1
12.1062 0 1
12.2235 0 1
12.3409 0 1
12.4582 0 1
12.5756 0 1
12.693 0 1
12.8104 0 1
12.9278 0 1
13.0452 0 1
13.1626 0 1
13.28 0 1
13.3974 0 1
13.5149 0 1
13.6323 0 1
13.7497 0 1
13.8671 0 1
13.9845 0 1
14.1019 0 1
14.2193 0 1
14.3367 0 1
14.4541 0 1
14.5714 0 1
14.6888 0 1
14.8062 0 1
14.9235 0 1
15.0408 1276 35.7211
15.1581 1354 36.7967
15.2755 1431 37.8286
15.3927 1460 38.2099
15.51 1479 38.4578
15.6273 1399 37.4032
15.7445 1454 38.1314
15.8617 1476 38.4187
15.9789 1458 38.1838
16.0961 1454 38.1314
16.2132 1382 37.1753
16.3304 1454 38.1314
16.4475 1443 37.9868
16.5646 1574 39.6737
16.6816 1592 39.8999
16.7986 1704 41.2795
16.9156 1762 41.9762
17.0326 1684 41.0366
17.1496 1681 41
17.2665 1690 41.1096
17.3833 1708 41.328
17.5002 1638 40.4722
17.617 1661 40.7554
17.7338 1571 39.6358
17.8505 1443 37.9868
17.9672 1440 37.9473
18.0839 1510 38.8587
18.2005 1511 38.8716
18.3171 1542 39.2683
18.4337 1646 40.5709
18.5502 1637 40.4599
18.6666 1701 41.2432
18.7831 1716 41.4246
18.8994 1709 41.3401
19.0158 1659 40.7308
19.1321 1693 41.1461
19.2483 1540 39.2428
19.3645 1548 39.3446
19.4806 1374 37.0675
19.5967 1275 35.7071
19.7128 1137 33.7194
19.8288 1138 33.7343
19.9447 1005 31.7017
20.0606 0 1
20.1764 0 1
20.2922 0 1
20.4079 0 1
20.5236 0 1
20.6392 0 1
20.7548 0 1
20.8702 0 1
23.3078 0 1
23.4233 0 1
23.539 0 1
23.6547 0 1
23.7704 0 1
23.8862 0 1
24.0021 0 1
24.118 0 1
24.234 0 1
24.35 0 1
24.4661 732 27.0555
24.5822 852 29.189
24.6984 883 29.7153
24.8146 1006 31.7175
24.9309 1106 33.2566
25.0472 1206 34.7275
25.1636 1396 37.3631
25.28 1437 37.9078
25.3965 1554 39.4208
25.513 1612 40.1497
25.6296 1714 41.4005
25.7462 1795 42.3674
25.8628 1824 42.7083
25.9795 1803 42.4617
26.0962 1814 42.5911
26.213 1745 41.7732
26.3298 1685 41.0488
26.4466 1585 39.8121
26.5635 1653 40.6571
26.6804 1527 39.0768
26.7973 1619 40.2368
26.9143 1648 40.5956
27.0313 1683 41.0244
27.1483 1699 41.2189
27.2653 1761 41.9643
27.3824 1759 41.9404
27.4996 1843 42.9302
27.6167 1737 41.6773
27.7339 1754 41.8808
27.8511 1687 41.0731
27.9683 1662 40.7676
28.0855 1590 39.8748
28.2028 1544 39.2938
28.3201 1411 37.5633
28.4374 1439 37.9342
28.5547 1491 38.6135
28.6721 1523 39.0256
28.7894 1584 39.7995
28.9068 1589 39.8623
29.0242 1734 41.6413
29.1416 1696 41.1825
29.259 1792 42.332
29.3764 1727 41.5572
29.4939 1772 42.0951
29.6113 1750 41.833
29.7288 1611 40.1373
29.8463 1575 39.6863
29.9638 1516 38.9358
30.0812 1478 38.4448
30.1987 1390 37.2827
30.3162 1472 38.3667
30.4337 1508 38.833
30.5512 1704 41.2795
30.6687 1604 40.05
30.7862 1635 40.4351
30.9037 1648 40.5956
31.0212 1702 41.2553
31.1387 1683 41.0244
31.2562 1687 41.0731
31.3737 1572 39.6485
31.4912 1556 39.4462
31.6087 1537 39.2046
31.7262 1483 38.5097
31.8436 1463 38.2492
31.9611 1504 38.7814
32.0785 1386 37.229
32.1959 1550 39.37
32.3134 1469 38.3275
32.4308 1642 40.5216
32.5482 1743 41.7493
32.6655 1715 41.4126
32.7829 1746 41.7852
32.9002 1766 42.0238
33.0176 1749 41.821
33.1349 1702 41.2553
33.2522 1655 40.6817
33.3694 1541 39.2556
33.4867 1579 39.7366
33.6039 1414 37.6032
33.7211 1387 37.2424
33.8383 1347 36.7015
33.9554 1387 37.2424
34.0725 1594 39.9249
34.1896 1559 39.4842
34.3067 1607 40.0874
34.4237 1602 40.025
34.5407 1592 39.8999
34.6577 1688 41.0853
34.7746 1651 40.6325
34.8915 1604 40.05
35.0084 1557 39.4588
35.1252 1529 39.1024
35.242 1535 39.1791
35.3587 1391 37.2961
35.4755 1383 37.1887
35.5921 1335 36.5377
35.7088 1318 36.3043
35.8254 1382 37.1753
35.9419 1388 37.2559
36.0584 1464 38.2623
36.1749 1509 38.8458
36.2913 1504 38.7814
36.4077 1514 38.9102
36.524 1431 37.8286
36.6403 1452 38.1051
36.7565 1297 36.0139
36.8727 1359 36.8646
36.9889 1209 34.7707
37.1049 1151 33.9264
37.221 0 1
37.3369 0 1
37.4529 0 1
37.5687 0 1
37.6845 0 1
37.8003 0 1
37.916 0 1
38.0316 0 1
38.1472 0 1
40.5851 0 1
40.7008 0 1
40.8164 0 1
40.9322 0 1
41.048 0 1
41.1639 0 1
41.2798 0 1
41.3958 0 1
41.5118 0 1
41.6279 0 1
41.744 781 27.9464
41.8602 928 30.4631
41.9765 931 30.5123
42.0928 1003 31.6702
42.2091 963 31.0322
42.3255 925 30.4138
42.4419 883 29.7153
42.5584 902 30.0333
42.675 1017 31.8904
42.7915 1064 32.619
42.9081 1190 34.4964
43.0248 1184 34.4093
43.1415 1232 35.0999
43.2582 1308 36.1663
43.375 1335 36.5377
43.4918 1341 36.6197
43.6087 1391 37.2961
43.7256 1270 35.6371
43.8425 1240 35.2136
43.9595 1342 36.6333
44.0765 1264 35.5528
44.1935 1181 34.3657
44.3106 1167 34.1614
44.4277 1116 33.4066
44.5448 1104 33.2265
44.6619 1201 34.6554
44.7791 1163 34.1028
44.8963 1210 34.7851
45.0136 1309 36.1801
45.1308 1361 36.8917
45.2481 1336 36.5513
45.3654 1391 37.2961
45.4827 1371 37.027
45.6001 1372 37.0405
45.7174 1244 35.2704
45.8348 1250 35.3553
45.9522 1180 34.3511
46.0697 1170 34.2053
46.1871 1030 32.0936
46.3046 1169 34.1906
46.422 1178 34.322
46.5395 1299 36.0416
46.657 1265 35.5668
46.7745 1272 35.6651
46.892 1323 36.3731
47.0096 1387 37.2424
47.1271 1440 37.9473
47.2446 1433 37.855
47.3622 1385 37.2156
47.4797 1403 37.4566
47.5973 1307 36.1525
47.7149 1296 36
47.8324 1186 34.4384
47.95 1201 34.6554
48.0675 1164 34.1174
48.1851 1102 33.1964
48.3027 1158 34.0294
48.4202 1195 34.5688
48.5378 1293 35.9583
48.6554 1370 37.0135
48.7729 1401 37.4299
48.8904 1403 37.4566
49.008 1426 37.7624
49.1255 1434 37.8682
49.243 1301 36.0694
49.3605 1226 35.0143
49.478 1107 33.2716
49.5955 1115 33.3916
49.713 1039 32.2335
49.8304 1037 32.2025
49.9479 1151 33.9264
50.0653 1267 35.5949
50.1827 1312 36.2215
50.3001 1302 36.0832
50.4175 1309 36.1801
50.5348 1317 36.2905
50.6521 1418 37.6563
50.7694 1438 37.921
50.8867 1436 37.8946
51.004 1437 37.9078
51.1212 1437 37.9078
51.2384 1401 37.4299
51.3556 1402 37.4433
51.4727 1274 35.6931
51.5899 1248 35.327
51.707 1277 35.7351
51.824 1294 35.9722
51.9411 1448 38.0526
52.0581 1632 40.398
52.175 1645 40.5586
52.2919 1756 41.9047
52.4088 1748 41.8091
52.5257 1892 43.4971
52.6425 1861 43.1393
52.7593 1855 43.0697
52.876 1856 43.0813
52.9927 1845 42.9535
53.1094 1733 41.6293
53.226 1685 41.0488
53.3426 1598 39.975
53.4591 1527 39.0768
53.5756 1661 40.7554
53.692 1607 40.0874
53.8084 1603 40.0375
53.9248 1596 39.95
54.0411 1577 39.7115
54.1573 1471 38.3536
54.2735 0 1
54.3896 0 1
54.5057 0 1
54.6217 0 1
54.7377 0 1
54.8537 0 1
54.9695 0 1
55.0853 0 1
55.2011 0 1
55.3168 0 1
55.4324 0 1
57.824 0 1
57.9396 0 1
58.0553 0 1
58.1711 0 1
58.2869 0 1
58.4028 0 1
58.5187 0 1
58.6347 0 1
58.7508 0 1
58.8669 0 1
58.983 1112 33.3467
59.0992 1243 35.2562
59.2155 1401 37.4299
59.3318 1465 38.2753
59.4482 1581 39.7618
59.5646 1619 40.2368
59.681 1590 39.8748
59.7975 1590 39.8748
59.9141 1572 39.6485
60.0306 1600 40
60.1473 1547 39.3319
60.2639 1541 39.2556
60.3807 1477 38.4318
60.4974 1498 38.704
60.6142 1554 39.4208
60.731 1528 39.0896
60.8479 1772 42.0951
60.9648 1760 41.9524
61.0818 1731 41.6053
61.1987 1741 41.7253
61.3158 1786 42.2611
61.4328 1646 40.5709
61.5499 1601 40.0125
61.667 1409 37.5366
61.7841 1409 37.5366
61.9013 1314 36.2491
62.0185 1286 35.8608
62.1357 1409 37.5366
62.253 1424 37.7359
62.3702 1487 38.5616
62.4875 1588 39.8497
62.6049 1611 40.1373
62.7222 1739 41.7013
62.8396 1717 41.4367
62.9569 1716 41.4246
63.0743 1742 41.7373
63.1918 1640 40.4969
63.3092 1652 40.6448
63.4267 1582 39.7744
63.5441 1593 39.9124
63.6616 1547 39.3319
63.7791 1424 37.7359
63.8966 1346 36.6879
64.0142 1440 37.9473
64.1317 1447 38.0395
64.2492 1496 38.6782
64.3668 1630 40.3733
64.4843 1669 40.8534
64.6019 1725 41.5331
64.7195 1692 41.1339
64.837 1759 41.9404
64.9546 1701 41.2432
65.0722 1710 41.3521
65.1898 1520 38.9872
65.3074 1318 36.3043
65.4249 1316 36.2767
65.5425 1198 34.6121
65.6601 1330 36.4692
65.7777 1385 37.2156
65.8952 1469 38.3275
66.0128 1466 38.2884
66.1304 1580 39.7492
66.2479 1638 40.4722
66.3655 1600 40
66.483 1615 40.1871
66.6005 1740 41.7133
66.718 1683 41.0244
66.8355 1662 40.7676
66.953 1636 40.4475
67.0705 1591 39.8873
67.1879 1541 39.2556
67.3054 1463 38.2492
67.4228 1391 37.2961
67.5402 1342 36.6333
67.6576 1386 37.229
67.7749 1387 37.2424
67.8923 1462 38.2361
68.0096 1602 40.025
68.1269 1568 39.598
68.2442 1633 40.4104
68.3614 1638 40.4722
68.4787 1676 40.939
68.5958 1595 39.9375
68.713 1563 39.5348
68.8302 1471 38.3536
68.9473 1346 36.6879
69.0643 1281 35.7911
69.1814 1232 35.0999
69.2984 1267 35.5949
69.4154 1302 36.0832
69.5323 1365 36.9459
69.6492 1458 38.1838
69.7661 1494 38.6523
69.8829 1524 39.0384
69.9997 1535 39.1791
70.1165 1481 38.4838
70.2332 1507 38.8201
70.3499 1442 37.9737
70.4665 1311 36.2077
70.5831 1281 35.7911
70.6996 1112 33.3467
70.8161 1075 32.7872
70.9326 1080 32.8634
71.049 921 30.348
71.1653 713 26.7021
71.2817 685 26.1725
71.3979 608 24.6577
71.5141 579 24.0624
71.6303 536 23.1517
71.7464 548 23.4094
71.8624 0 1
71.9784 0 1
72.0944 0 1
72.2102 0 1
72.3261 0 1
72.4418 0 1
72.5575 0 1
72.6732 0 1
75.1054 0 1
75.2209 0 1
75.3365 0 1
75.4521 0 1
75.5678 0 1
75.6835 0 1
75.7993 0 1
75.9151 0 1
76.031 0 1
76.147 926 30.4302
76.263 992 31.496
76.3791 1021 31.9531
76.4952 1010 31.7805
76.6113 1139 33.7491
76.7276 1106 33.2566
76.8438 1211 34.7994
76.9601 1347 36.7015
77.0765 1384 37.2022
77.1929 1422 37.7094
77.3093 1383 37.1887
77.4258 1463 38.2492
77.5423 1405 37.4833
77.6589 1433 37.855
77.7755 1345 36.6742
77.8921 1181 34.3657
78.0088 1119 33.4515
78.1256 1102 33.1964
78.2423 949 30.8058
78.3591 1104 33.2265
78.4759 1139 33.7491
78.5928 1264 35.5528
78.7097 1282 35.805
78.8266 1325 36.4005
78.9436 1397 37.3765
79.0606 1397 37.3765
79.1776 1435 37.8814
79.2946 1459 38.1969
79.4117 1476 38.4187
79.5288 1427 37.7757
79.6459 1391 37.2961
79.7631 1385 37.2156
79.8802 1315 36.2629
79.9974 1295 35.9861
80.1147 1122 33.4963
80.2319 1151 33.9264
80.3491 1193 34.5398
80.4664 1250 35.3553
80.5837 1306 36.1386
80.701 1445 38.0132
80.8183 1532 39.1408
80.9357 1449 38.0657
81.053 1444 38
81.1704 1462 38.2361
81.2877 1547 39.3319
81.4051 1482 38.4968
81.5225 1254 35.4119
81.6399 1218 34.8999
81.7573 1089 33
81.8747 1125 33.541
81.9922 1056 32.4962
82.1096 1151 33.9264
82.227 1239 35.1994
82.3444 1389 37.2693
82.4619 1395 37.3497
82.5793 1492 38.6264
82.6967 1497 38.6911
82.8142 1510 38.8587
82.9316 1583 39.7869
83.049 1517 38.9487
83.1664 1398 37.3898
83.2838 1476 38.4187
83.4012 1410 37.55
83.5186 1461 38.223
83.636 1323 36.3731
83.7534 1253 35.3977
83.8708 1074 32.7719
83.9881 1160 34.0588
84.1055 1223 34.9714
84.2228 1237 35.171
84.3401 1422 37.7094
84.4575 1413 37.5899
84.5747 1513 38.8973
84.692 1548 39.3446
84.8093 1484 38.5227
84.9265 1439 37.9342
85.0437 1445 38.0132
85.1609 1335 36.5377
85.2781 1168 34.176
85.3952 1075 32.7872
85.5123 1047 32.3574
85.6294 1096 33.1059
85.7465 1174 34.2637
85.8636 1343 36.647
85.9806 1336 36.5513
86.0976 1419 37.6696
86.2145 1413 37.5899
86.3315 1532 39.1408
86.4484 1517 38.9487
86.5652 1557 39.4588
86.682 1541 39.2556
86.7988 1516 38.9358
86.9156 1467 38.3014
87.0323 1430 37.8153
87.149 1383 37.1887
87.2657 1340 36.606
87.3823 1185 34.4238
87.4988 1034 32.1559
87.6154 1004 31.686
87.7318 1038 32.218
87.8483 1106 33.2566
87.9647 1151 33.9264
88.081 1201 34.6554
88.1973 1136 33.7046
88.3136 1122 33.4963
88.4298 1094 33.0757
88.546 1053 32.45
88.6621 924 30.3974
88.7781 666 25.807
88.8942 0 1
89.0101 0 1
89.126 0 1
89.2419 0 1
89.3577 0 1
89.4734 0 1
89.5891 0 1
89.7047 0 1
89.8203 0 1
89.9358 0 1
92.3269 0 1
92.4424 0 1
92.558 0 1
92.6736 0 1
92.7893 0 1
92.905 0 1
93.0208 0 1
93.1366 0 1
93.2525 0 1
93.3685 0 1
93.4845 0 1
93.6005 1094 33.0757
93.7167 1141 33.7787
93.8328 1262 35.5246
93.949 1263 35.5387
94.0653 1281 35.7911
94.1816 1347 36.7015
94.2979 1303 36.0971
94.4143 1170 34.2053
94.5307 1203 34.6843
94.6472 1153 33.9559
94.7637 1090 33.0151
94.8803 1166 34.1467
94.9969 1297 36.0139
95.1135 1417 37.6431
95.2302 1410 37.55
95.3469 1503 38.7685
95.4637 1520 38.9872
95.5805 1596 39.95
95.6973 1515 38.923
95.8142 1541 39.2556
95.9311 1474 38.3927
96.048 1503 38.7685
96.1649 1489 38.5876
96.2819 1509 38.8458
96.3989 1360 36.8782
96.516 1326 36.4143
96.633 1253 35.3977
96.7501 1206 34.7275
96.8673 1150 33.9116
96.9844 1267 35.5949
97.1016 1322 36.3593
97.2188 1457 38.1707
97.336 1537 39.2046
97.4532 1625 40.3113
97.5704 1597 39.9625
97.6877 1545 39.3065
97.805 1520 38.9872
97.9223 1454 38.1314
98.0396 1303 36.0971
98.1569 1137 33.7194
98.2743 1120 33.4664
98.3916 1089 33
98.509 1144 33.8231
98.6264 1367 36.973
98.7438 1428 37.7889
98.8612 1453 38.1182
98.9786 1531 39.128
99.096 1507 38.8201
99.2134 1556 39.4462
99.3308 1542 39.2683
99.4482 1628 40.3485
99.5656 1646 40.5709
99.6831 1603 40.0375
99.8005 1597 39.9625
99.9179 1572 39.6485
100.035 1481 38.4838
100.153 1373 37.054
100.27 1340 36.606
100.388 1313 36.2353
100.505 1309 36.1801
100.622 1381 37.1618
100.74 1496 38.6782
100.857 1644 40.5463
100.975 1637 40.4599
101.092 1571 39.6358
101.209 1684 41.0366
101.327 1657 40.7063
101.444 1591 39.8873
101.561 1448 38.0526
101.679 1360 36.8782
101.796 1208 34.7563
101.913 1137 33.7194
102.03 1207 34.7419
102.148 1253 35.3977
102.265 1380 37.1484
102.382 1675 40.9268
102.499 1505 38.7943
102.616 1663 40.7799
102.733 1654 40.6694
102.851 1740 41.7133
102.968 1641 40.5093
103.085 1703 41.2674
103.202 1754 41.8808
103.319 1703 41.2674
103.436 1683 41.0244
103.552 1543 39.281
103.669 1486 38.5487
103.786 1492 38.6264
103.903 1318 36.3043
104.02 1372 37.0405
104.137 1553 39.4081
104.253 1612 40.1497
104.37 1745 41.7732
104.487 1680 40.9878
104.603 1791 42.3202
104.72 1650 40.6202
104.836 1659 40.7308
104.953 1532 39.1408
105.069 1408 37.5233
105.186 1246 35.2987
105.302 1198 34.6121
105.418 1077 32.8177
105.535 1070 32.7109
105.651 1076 32.8024
105.767 1157 34.0147
105.883 1097 33.121
105.999 993 31.5119
106.115 0 1
106.231 0 1
106.347 0 1
106.463 0 1
106.579 0 1
106.694 0 1
106.81 0 1
106.926 0 1
107.041 0 1
107.157 0 1
109.576 0 1
109.692 0 1
109.807 0 1
109.923 0 1
110.039 0 1
110.155 0 1
110.27 0 1
110.386 0 1
110.502 0 1
110.618 707 26.5895
110.735 974 31.209
110.851 1041 32.2645
110.967 1222 34.9571
111.083 1370 37.0135
111.199 1372 37.0405
111.316 1419 37.6696
111.432 1565 39.5601
111.549 1559 39.4842
111.665 1596 39.95
111.782 1623 40.2865
111.898 1532 39.1408
112.015 1603 40.0375
112.132 1521 39
112.248 1429 37.8021
112.365 1337 36.565
112.482 1271 35.6511
112.599 1299 36.0416
112.716 1463 38.2492
112.832 1579 39.7366
112.949 1681 41
113.066 1632 40.398
113.183 1606 40.0749
113.3 1577 39.7115
113.417 1638 40.4722
113.534 1529 39.1024
113.652 1403 37.4566
113.769 1305 36.1248
113.886 1243 35.2562
114.003 1191 34.5109
114.12 1190 34.4964
114.238 1344 36.6606
114.355 1473 38.3797
114.472 1425 37.7492
114.589 1587 39.8372
114.707 1642 40.5216
114.824 1690 41.1096
114.942 1637 40.4599
115.059 1694 41.1582
115.176 1623 40.2865
115.294 1653 40.6571
115.411 1650 40.6202
115.529 1582 39.7744
115.646 1452 38.1051
115.764 1445 38.0132
115.881 1432 37.8418
115.999 1335 36.5377
116.116 1417 37.6431
116.234 1382 37.1753
116.351 1513 38.8973
116.469 1691 41.1218
116.586 1638 40.4722
116.704 1663 40.7799
116.821 1591 39.8873
116.939 1628 40.3485
117.056 1561 39.5095
117.174 1469 38.3275
117.291 1366 36.9594
117.409 1226 35.0143
117.526 1229 35.0571
117.644 1144 33.8231
117.761 1260 35.4965
117.879 1344 36.6606
117.996 1460 38.2099
118.114 1498 38.704
118.231 1538 39.2173
118.349 1570 39.6232
118.466 1598 39.975
118.584 1599 39.9875
118.701 1565 39.5601
118.819 1612 40.1497
118.936 1621 40.2616
119.053 1561 39.5095
119.171 1566 39.5727
119.288 1451 38.092
119.405 1413 37.5899
119.523 1325 36.4005
119.64 1323 36.3731
119.757 1220 34.9285
119.875 1358 36.8511
119.992 1416 37.6298
120.109 1537 39.2046
120.226 1565 39.5601
120.343 1529 39.1024
120.46 1525 39.0512
120.578 1550 39.37
120.695 1545 39.3065
120.812 1460 38.2099
120.929 1332 36.4966
121.046 1254 35.4119
121.163 1088 32.9848
121.279 1098 33.1361
121.396 1110 33.3167
121.513 1122 33.4963
121.63 1300 36.0555
121.747 1243 35.2562
121.863 1212 34.8138
121.98 1312 36.2215
122.097 1280 35.7771
122.213 1246 35.2987
122.33 1173 34.2491
122.446 1178 34.322
122.563 1084 32.9242
122.679 1038 32.218
122.795 1021 31.9531
122.912 912 30.1993
123.028 795 28.1957
123.144 728 26.9815
123.26 690 26.2679
123.377 0 1
123.493 0 1
123.609 0 1
123.725 0 1
123.84 0 1
123.956 0 1
124.072 0 1
124.188 0 1
124.303 0 1
124.419 0 1
126.852 0 1
126.968 0 1
127.083 0 1
127.199 0 1
127.315 0 1
127.431 0 1
127.547 0 1
127.663 0 1
127.779 0 1
127.895 0 1
128.011 0 1
128.127 0 1
128.243 0 1
128.359 1432 37.8418
128.476 1449 38.0657
128.592 1368 36.9865
128.708 1360 36.8782
128.825 1421 37.6962
128.941 1454 38.1314
129.058 1551 39.3827
129.174 1605 40.0625
129.291 1731 41.6053
129.408 1695 41.1704
129.524 1675 40.9268
129.641 1664 40.7922
129.758 1618 40.2244
129.875 1532 39.1408
129.992 1394 37.3363
130.108 1396 37.3631
130.225 1301 36.0694
130.342 1235 35.1426
130.459 1278 35.7491
130.576 1446 38.0263
130.693 1438 37.921
130.81 1453 38.1182
130.928 1511 38.8716
131.045 1508 38.833
131.162 1538 39.2173
131.279 1656 40.694
131.396 1661 40.7554
131.513 1658 40.7185
131.631 1606 40.0749
131.748 1652 40.6448
131.865 1450 38.0789
131.983 1562 39.5221
132.1 1508 38.833
132.217 1392 37.3095
132.335 1373 37.054
132.452 1408 37.5233
132.57 1503 38.7685
132.687 1628 40.3485
132.804 1613 40.1622
132.922 1713 41.3884
133.039 1758 41.9285
133.157 1709 41.3401
133.274 1676 40.939
133.392 1622 40.2741
133.509 1456 38.1576
133.627 1391 37.2961
133.744 1313 36.2353
133.862 1293 35.9583
133.979 1252 35.3836
134.097 1342 36.6333
134.214 1443 37.9868
134.332 1466 38.2884
134.449 1592 39.8999
134.567 1543 39.281
134.684 1699 41.2189
134.802 1631 40.3856
134.919 1706 41.3038
135.037 1639 40.4846
135.154 1570 39.6232
135.272 1607 40.0874
135.389 1559 39.4842
135.507 1500 38.7298
135.624 1557 39.4588
135.742 1470 38.3406
135.859 1435 37.8814
135.977 1433 37.855
136.094 1526 39.064
136.211 1506 38.8072
136.329 1585 39.8121
136.446 1718 41.4488
136.564 1640 40.4969
136.681 1688 41.0853
136.798 1707 41.3159
136.915 1662 40.7676
137.033 1621 40.2616
137.15 1462 38.2361
137.267 1339 36.5923
137.384 1335 36.5377
137.502 1221 34.9428
137.619 1267 35.5949
137.736 1276 35.7211
137.853 1412 37.5766
137.97 1513 38.8973
138.087 1575 39.6863
138.204 1536 39.1918
138.321 1660 40.7431
138.438 1614 40.1746
138.555 1681 41
138.672 1626 40.3237
138.788 1605 40.0625
138.905 1415 37.6165
139.022 1425 37.7492
139.139 1350 36.7423
139.255 1307 36.1525
139.372 1195 34.5688
139.488 1127 33.5708
139.605 1150 33.9116
139.721 1070 32.7109
139.838 1120 33.4664
139.954 1078 32.8329
140.071 1077 32.8177
140.187 980 31.305
140.303 901 30.0167
140.419 865 29.4109
140.535 839 28.9655
140.652 730 27.0185
140.768 0 1
140.884 0 1
141 0 1
141.115 0 1
141.231 0 1
141.347 0 1
141.463 0 1
141.578 0 1
141.694 0 1
144.104 0 1
144.219 0 1
144.335 0 1
144.45 0 1
144.566 0 1
144.682 0 1
144.798 0 1
144.914 0 1
145.03 0 1
145.146 1126 33.5559
145.262 1291 35.9305
145.378 1328 36.4417
145.494 1398 37.3898
145.61 1342 36.6333
145.726 1234 35.1283
145.842 1202 34.6699
145.959 1152 33.9411
146.075 1091 33.0303
146.192 1049 32.3883
146.308 1081 32.8786
146.425 1000 31.6228
146.541 1096 33.1059
146.658 1130 33.6155
146.774 1213 34.8281
146.891 1154 33.9706
147.008 1245 35.2846
147.125 1261 35.5106
147.241 1235 35.1426
147.358 1281 35.7911
147.475 1271 35.6511
147.592 1306 36.1386
147.709 1252 35.3836
147.826 1138 33.7343
147.943 1171 34.2199
148.06 1131 33.6303
148.177 1097 33.121
148.294 1139 33.7491
148.411 1096 33.1059
148.528 1104 33.2265
148.645 1219 34.9142
148.762 1228 35.0428
148.88 1283 35.819
148.997 1392 37.3095
149.114 1289 35.9026
149.231 1347 36.7015
149.349 1345 36.6742
149.466 1263 35.5387
149.583 1241 35.2278
149.701 1105 33.2415
149.818 1053 32.45
149.935 1034 32.1559
150.053 997 31.5753
150.17 1101 33.1813
150.287 1105 33.2415
150.405 1126 33.5559
150.522 1229 35.0571
150.64 1165 34.1321
150.757 1207 34.7419
150.875 1237 35.171
150.992 1168 34.176
151.11 1226 35.0143
151.227 1215 34.8569
151.344 1205 34.7131
151.462 1147 33.8674
151.579 1131 33.6303
151.697 1110 33.3167
151.814 1111 33.3317
151.932 1067 32.665
152.049 1045 32.3265
152.167 1161 34.0735
152.284 1191 34.5109
152.402 1236 35.1568
152.519 1215 34.8569
152.636 1219 34.9142
152.754 1274 35.6931
152.871 1225 35
152.989 1129 33.6006
153.106 1189 34.4819
153.223 1124 33.5261
153.341 1056 32.4962
153.458 977 31.257
153.575 947 30.7734
153.693 923 30.3809
153.81 1042 32.28
153.927 998 31.5911
154.044 1014 31.8434
154.162 1056 32.4962
154.279 1078 32.8329
154.396 1111 33.3317
154.513 1210 34.7851
154.63 1154 33.9706
154.747 1133 33.6601
154.864 1116 33.4066
154.981 1149 33.8969
155.098 1080 32.8634
155.215 1079 32.8481
155.332 971 31.1609
155.449 989 31.4484
155.566 982 31.3369
155.683 984 31.3688
155.8 1092 33.0454
155.917 1067 32.665
156.033 1057 32.5115
156.15 0 1
156.267 0 1
156.383 0 1
156.5 0 1
156.617 0 1
156.733 0 1
156.85 0 1
156.966 0 1
157.082 0 1
157.199 0 1
157.315 0 1
157.431 0 1
157.547 0 1
157.664 0 1
157.78 0 1
157.896 0 1
158.012 0 1
158.128 0 1
158.244 0 1
158.359 0 1
158.475 0 1
158.591 0 1
158.706 0 1
