
6.15755 0 1
6.2731 0 1
6.3887 0 1
6.50437 0 1
6.62009 0 1
6.73587 0 1
6.8517 0 1
6.96759 0 1
7.08353 0 1
7.19952 0 1
7.31557 0 1
7.43166 0 1
7.54781 0 1
7.664 0 1
7.78024 0 1
7.89653 0 1
8.01286 0 1
8.12924 0 1
8.24567 0 1
8.36213 0 1
8.47864 0 1
8.59519 0 1
8.71178 0 1
8.82841 0 1
8.94508 0 1
9.06179 0 1
9.17853 0 1
9.29531 0 1
9.41212 0 1
9.52897 0 1
9.64584 0 1
9.76276 0 1
9.8797 0 1
9.99667 0 1
10.1137 0 1
10.2307 0 1
10.3478 0 1
10.4648 0 1
10.5819 0 1
10.6991 0 1
10.8162 0 1
10.9334 0 1
11.0506 0 1
11.1678 0 1
11.285 0 1
11.4023 0 1
11.5196 0 1
11.6369 0 1
11.7542 0 1
11.8715 0 1
11.9888 0 1
12.1062 0 1
12.2235 0 1
12.3409 0 1
12.4582 0 1
12.5756 0 1
12.693 0 1
12.8104 0 1
12.9278 0 1
13.0452 0 1
13.1626 0 1
13.28 0 1
13.3974 0 1
13.5149 0 1
13.6323 0 1
13.7497 0 1
13.8671 0 1
13.9845 0 1
14.1019 0 1
14.2193 0 1
14.3367 0 1
14.4541 0 1
14.5714 0 1
14.6888 0 1
14.8062 0 1
14.9235 0 1
15.0408 4502 67.0969
15.1581 4762 69.0072
15.2755 4931 70.2211
15.3927 4750 68.9202
15.51 4709 68.6222
15.6273 4858 69.6994
15.7445 4835 69.5342
15.8617 4958 70.4131
15.9789 4890 69.9285
16.0961 4984 70.5975
16.2132 5162 71.8471
16.3304 5272 72.6085
16.4475 5356 73.1847
16.5646 5656 75.2064
16.6816 5808 76.2102
16.7986 5888 76.7333
16.9156 5999 77.4532
17.0326 6248 79.0443
17.1496 6263 79.1391
17.2665 6406 80.0375
17.3833 6327 79.5424
17.5002 6466 80.4114
17.617 6652 81.5598
17.7338 6396 79.975
17.8505 6258 79.1075
17.9672 5967 77.2464
18.0839 6025 77.6209
18.2005 6027 77.6338
18.3171 6242 79.0063
18.4337 6478 80.486
18.5502 6748 82.1462
18.6666 6774 82.3043
18.7831 6992 83.6182
18.8994 6884 82.9699
19.0158 6900 83.0662
19.1321 6657 81.5904
19.2483 6544 80.895
19.3645 6516 80.7217
19.4806 6264 79.1454
19.5967 6049 77.7753
19.7128 6165 78.5175
19.8288 5919 76.935
19.9447 5433 73.7089
20.0606 0 1
20.1764 0 1
20.2922 0 1
20.4079 0 1
20.5236 0 1
20.6392 0 1
20.7548 0 1
20.8702 0 1
23.3078 0 1
23.4233 0 1
23.539 0 1
23.6547 0 1
23.7704 0 1
23.8862 0 1
24.0021 0 1
24.118 0 1
24.234 0 1
24.35 0 1
24.4661 6326 79.5362
24.5822 6402 80.0125
24.6984 6330 79.5613
24.8146 6224 78.8923
24.9309 6265 79.1518
25.0472 6457 80.3555
25.1636 6415 80.0937
25.28 6509 80.6784
25.3965 6664 81.6333
25.513 6961 83.4326
25.6296 7245 85.1176
25.7462 7253 85.1645
25.8628 7389 85.9593
25.9795 7279 85.3171
26.0962 7376 85.8836
26.213 7486 86.5217
26.3298 7225 85
26.4466 6866 82.8613
26.5635 6605 81.2712
26.6804 6463 80.3928
26.7973 6614 81.3265
26.9143 6769 82.2739
27.0313 7055 83.994
27.1483 7132 84.4512
27.2653 7219 84.9647
27.3824 7259 85.1998
27.4996 7298 85.4283
27.6167 7151 84.5636
27.7339 7189 84.788
27.8511 6899 83.0602
27.9683 6932 83.2586
28.0855 6657 81.5904
28.2028 6591 81.185
28.3201 6377 79.8561
28.4374 6388 79.925
28.5547 6372 79.8248
28.6721 6286 79.2843
28.7894 6439 80.2434
28.9068 6645 81.5169
29.0242 6899 83.0602
29.1416 6825 82.6136
29.259 7269 85.2584
29.3764 7275 85.2936
29.4939 7420 86.1394
29.6113 7220 84.9706
29.7288 7182 84.7467
29.8463 6897 83.0482
29.9638 6438 80.2371
30.0812 6407 80.0437
30.1987 6029 77.6466
30.3162 6055 77.8139
30.4337 6530 80.8084
30.5512 6670 81.6701
30.6687 6768 82.2679
30.7862 7157 84.5991
30.9037 6925 83.2166
31.0212 6973 83.5045
31.1387 7029 83.8391
31.2562 6953 83.3847
31.3737 6831 82.6499
31.4912 6510 80.6846
31.6087 6604 81.265
31.7262 6492 80.5729
31.8436 6407 80.0437
31.9611 6302 79.3851
32.0785 6190 78.6766
32.1959 6214 78.8289
32.3134 6143 78.3773
32.4308 6417 80.1062
32.5482 6651 81.5537
32.6655 6783 82.359
32.7829 6891 83.012
32.9002 7000 83.666
33.0176 7126 84.4156
33.1349 7173 84.6936
33.2522 7186 84.7703
33.3694 6842 82.7164
33.4867 6903 83.0843
33.6039 6357 79.7308
33.7211 5863 76.5702
33.8383 5779 76.0197
33.9554 5929 77
34.0725 6109 78.1601
34.1896 6229 78.924
34.3067 6399 79.9937
34.4237 6544 80.895
34.5407 6624 81.388
34.6577 6611 81.3081
34.7746 6559 80.9877
34.8915 6735 82.067
35.0084 6568 81.0432
35.1252 6457 80.3555
35.242 6474 80.4612
35.3587 6241 79
35.4755 6225 78.8987
35.5921 6163 78.5048
35.7088 5969 77.2593
35.8254 5895 76.7789
35.9419 5815 76.2561
36.0584 6118 78.2176
36.1749 6273 79.2023
36.2913 6283 79.2654
36.4077 6473 80.455
36.524 6721 81.9817
36.6403 6789 82.3954
36.7565 6662 81.6211
36.8727 6766 82.2557
36.9889 6797 82.4439
37.1049 6267 79.1644
37.221 0 1
37.3369 0 1
37.4529 0 1
37.5687 0 1
37.6845 0 1
37.8003 0 1
37.916 0 1
38.0316 0 1
38.1472 0 1
40.5851 0 1
40.7008 0 1
40.8164 0 1
40.9322 0 1
41.048 0 1
41.1639 0 1
41.2798 0 1
41.3958 0 1
41.5118 0 1
41.6279 0 1
41.744 5107 71.4633
41.8602 5610 74.8999
41.9765 5530 74.364
42.0928 5643 75.1199
42.2091 5554 74.5252
42.3255 5430 73.6885
42.4419 4984 70.5975
42.5584 4801 69.2892
42.675 4583 67.6979
42.7915 4631 68.0515
42.9081 4759 68.9855
43.0248 5006 70.7531
43.1415 4992 70.6541
43.2582 5147 71.7426
43.375 5290 72.7324
43.4918 5205 72.1457
43.6087 5406 73.5255
43.7256 5269 72.5879
43.8425 5061 71.1407
43.9595 4923 70.1641
44.0765 5144 71.7217
44.1935 4869 69.7782
44.3106 4712 68.644
44.4277 4686 68.4544
44.5448 4550 67.4537
44.6619 4351 65.9621
44.7791 4320 65.7267
44.8963 4297 65.5515
45.0136 4273 65.3682
45.1308 4543 67.4018
45.2481 4458 66.7683
45.3654 4558 67.513
45.4827 4527 67.283
45.6001 4455 66.7458
45.7174 4425 66.5207
45.8348 4454 66.7383
45.9522 4125 64.2262
46.0697 3782 61.498
46.1871 3497 59.1354
46.3046 3398 58.2924
46.422 3523 59.3549
46.5395 3737 61.131
46.657 3747 61.2127
46.7745 3889 62.3618
46.892 4039 63.5531
47.0096 3958 62.9126
47.1271 4178 64.6375
47.2446 4091 63.9609
47.3622 3990 63.1664
47.4797 3968 62.9921
47.5973 3930 62.6897
47.7149 3886 62.3378
47.8324 3846 62.0161
47.95 3705 60.8687
48.0675 3624 60.1997
48.1851 3526 59.3801
48.3027 3543 59.5231
48.4202 3467 58.8812
48.5378 3606 60.05
48.6554 3675 60.6218
48.7729 3732 61.0901
48.8904 3851 62.0564
49.008 3896 62.4179
49.1255 3898 62.434
49.243 3804 61.6766
49.3605 3701 60.8358
49.478 3512 59.2621
49.5955 3199 56.5597
49.713 2992 54.6992
49.8304 2996 54.7357
49.9479 3239 56.9122
50.0653 3329 57.6975
50.1827 3596 59.9667
50.3001 3767 61.3759
50.4175 3719 60.9836
50.5348 3892 62.3859
50.6521 4143 64.3661
50.7694 4090 63.9531
50.8867 4208 64.8691
51.004 4205 64.846
51.1212 4224 64.9923
51.2384 4196 64.7765
51.3556 4322 65.7419
51.4727 4252 65.2074
51.5899 4296 65.5439
51.707 4146 64.3894
51.824 4152 64.436
51.9411 4170 64.5755
52.0581 4314 65.681
52.175 4650 68.1909
52.2919 4961 70.4344
52.4088 4943 70.3065
52.5257 4974 70.5266
52.6425 4964 70.4557
52.7593 4951 70.3633
52.876 4856 69.685
52.9927 4814 69.383
53.1094 4443 66.6558
53.226 4171 64.5833
53.3426 4121 64.195
53.4591 4164 64.5291
53.5756 4202 64.8228
53.692 4573 67.624
53.8084 4917 70.1213
53.9248 4970 70.4982
54.0411 5127 71.6031
54.1573 5212 72.1942
54.2735 0 1
54.3896 0 1
54.5057 0 1
54.6217 0 1
54.7377 0 1
54.8537 0 1
54.9695 0 1
55.0853 0 1
55.2011 0 1
55.3168 0 1
55.4324 0 1
57.824 0 1
57.9396 0 1
58.0553 0 1
58.1711 0 1
58.2869 0 1
58.4028 0 1
58.5187 0 1
58.6347 0 1
58.7508 0 1
58.8669 0 1
58.983 5534 74.3909
59.0992 5975 77.2981
59.2155 6056 77.8203
59.3318 6342 79.6367
59.4482 6474 80.4612
59.5646 6557 80.9753
59.681 6518 80.7341
59.7975 6551 80.9382
59.9141 6547 80.9135
60.0306 6438 80.2371
60.1473 6181 78.6193
60.2639 6014 77.55
60.3807 5851 76.4918
60.4974 5687 75.4122
60.6142 5668 75.2861
60.731 5726 75.6703
60.8479 5997 77.4403
60.9648 6328 79.5487
61.0818 6356 79.7245
61.1987 6190 78.6766
61.3158 6208 78.7909
61.4328 6239 78.9873
61.5499 6074 77.9359
61.667 5690 75.4321
61.7841 5156 71.8053
61.9013 5048 71.0493
62.0185 4808 69.3397
62.1357 4962 70.4415
62.253 5124 71.5821
62.3702 5503 74.1822
62.4875 5851 76.4918
62.6049 5889 76.7398
62.7222 5967 77.2464
62.8396 6301 79.3788
62.9569 6240 78.9937
63.0743 6380 79.8749
63.1918 6313 79.4544
63.3092 6305 79.404
63.4267 6231 78.9367
63.5441 6286 79.2843
63.6616 5924 76.9675
63.7791 5728 75.6836
63.8966 5554 74.5252
64.0142 5522 74.3102
64.1317 5231 72.3257
64.2492 5497 74.1418
64.3668 5727 75.6769
64.4843 5766 75.9342
64.6019 6007 77.5048
64.7195 6133 78.3135
64.837 6083 77.9936
64.9546 5997 77.4403
65.0722 6062 77.8588
65.1898 5458 73.8783
65.3074 5171 71.9097
65.4249 4862 69.728
65.5425 4538 67.3647
65.6601 4473 66.8805
65.7777 4618 67.9559
65.8952 5072 71.218
66.0128 5324 72.9657
66.1304 5620 74.9667
66.2479 5912 76.8895
66.3655 5978 77.3175
66.483 6068 77.8974
66.6005 6253 79.0759
66.718 6253 79.0759
66.8355 6277 79.2275
66.953 6230 78.9303
67.0705 6189 78.6702
67.1879 6032 77.666
67.3054 5861 76.5572
67.4228 5811 76.2299
67.5402 5308 72.856
67.6576 5370 73.2803
67.7749 5249 72.45
67.8923 5464 73.9189
68.0096 5563 74.5855
68.1269 5923 76.961
68.2442 6033 77.6724
68.3614 6097 78.0833
68.4787 5985 77.3628
68.5958 6159 78.4793
68.713 5918 76.9285
68.8302 5790 76.092
68.9473 5117 71.5332
69.0643 5008 70.7672
69.1814 4678 68.3959
69.2984 4597 67.8012
69.4154 4912 70.0857
69.5323 5191 72.0486
69.6492 5501 74.1687
69.7661 5890 76.7463
69.8829 6064 77.8717
69.9997 6388 79.925
70.1165 6474 80.4612
70.2332 6431 80.1935
70.3499 6646 81.523
70.4665 6583 81.1357
70.5831 6711 81.9207
70.6996 6552 80.9444
70.8161 6487 80.5419
70.9326 6254 79.0822
71.049 6053 77.801
71.1653 5760 75.8947
71.2817 5275 72.6292
71.3979 4986 70.6116
71.5141 5040 70.993
71.6303 5141 71.7008
71.7464 5227 72.298
71.8624 0 1
71.9784 0 1
72.0944 0 1
72.2102 0 1
72.3261 0 1
72.4418 0 1
72.5575 0 1
72.6732 0 1
75.1054 0 1
75.2209 0 1
75.3365 0 1
75.4521 0 1
75.5678 0 1
75.6835 0 1
75.7993 0 1
75.9151 0 1
76.031 0 1
76.147 5572 74.6458
76.263 5936 77.0454
76.3791 5761 75.9013
76.4952 5299 72.7942
76.6113 5342 73.089
76.7276 5475 73.9932
76.8438 5781 76.0329
76.9601 6208 78.7909
77.0765 6261 79.1265
77.1929 6410 80.0625
77.3093 6511 80.6908
77.4258 6518 80.7341
77.5423 6147 78.4028
77.6589 5739 75.7562
77.7755 5338 73.0616
77.8921 4926 70.1855
78.0088 4644 68.1469
78.1256 4543 67.4018
78.2423 4564 67.5574
78.3591 4941 70.2922
78.4759 5537 74.411
78.5928 5838 76.4068
78.7097 5953 77.1557
78.8266 6169 78.543
78.9436 6703 81.8719
79.0606 6624 81.388
79.1776 6560 80.9938
79.2946 6719 81.9695
79.4117 6765 82.2496
79.5288 6468 80.4239
79.6459 6669 81.6639
79.7631 6530 80.8084
79.8802 6324 79.5236
79.9974 5798 76.1446
80.1147 5396 73.4575
80.2319 5366 73.253
80.3491 5472 73.973
80.4664 5791 76.0986
80.5837 6126 78.2688
80.701 6335 79.5927
80.8183 6298 79.3599
80.9357 6433 80.206
81.053 6281 79.2528
81.1704 6336 79.599
81.2877 5932 77.0195
81.4051 5276 72.6361
81.5225 5036 70.9648
81.6399 4572 67.6166
81.7573 4564 67.5574
81.8747 4433 66.5808
81.9922 4888 69.9142
82.1096 5374 73.3076
82.227 5771 75.9671
82.3444 6028 77.6402
82.4619 6346 79.6618
82.5793 6754 82.1827
82.6967 6397 79.9812
82.8142 6818 82.5712
82.9316 6711 81.9207
83.049 6751 82.1645
83.1664 6539 80.8641
83.2838 6430 80.1873
83.4012 6358 79.7371
83.5186 6239 78.9873
83.636 5759 75.8881
83.7534 5337 73.0548
83.8708 5138 71.6798
83.9881 5393 73.437
84.1055 5771 75.9671
84.2228 6342 79.6367
84.3401 6505 80.6536
84.4575 6555 80.963
84.5747 6476 80.4736
84.692 6239 78.9873
84.8093 6021 77.5951
84.9265 5522 74.3102
85.0437 5281 72.6705
85.1609 4825 69.4622
85.2781 4639 68.1102
85.3952 4593 67.7717
85.5123 4906 70.0428
85.6294 5486 74.0675
85.7465 5715 75.5976
85.8636 6111 78.1729
85.9806 6332 79.5739
86.0976 6634 81.4494
86.2145 6682 81.7435
86.3315 6826 82.6196
86.4484 7046 83.9405
86.5652 7091 84.2081
86.682 6928 83.2346
86.7988 7004 83.6899
86.9156 6881 82.9518
87.0323 6739 82.0914
87.149 6356 79.7245
87.2657 5912 76.8895
87.3823 5529 74.3572
87.4988 5727 75.6769
87.6154 6098 78.0897
87.7318 6466 80.4114
87.8483 6697 81.8352
87.9647 6807 82.5045
88.081 6856 82.801
88.1973 6965 83.4566
88.3136 6578 81.1049
88.4298 6086 78.0128
88.546 5544 74.458
88.6621 5161 71.8401
88.7781 4896 69.9714
88.8942 0 1
89.0101 0 1
89.126 0 1
89.2419 0 1
89.3577 0 1
89.4734 0 1
89.5891 0 1
89.7047 0 1
89.8203 0 1
89.9358 0 1
92.3269 0 1
92.4424 0 1
92.558 0 1
92.6736 0 1
92.7893 0 1
92.905 0 1
93.0208 0 1
93.1366 0 1
93.2525 0 1
93.3685 0 1
93.4845 0 1
93.6005 5717 75.6108
93.7167 5414 73.5799
93.8328 5089 71.3372
93.949 5027 70.9013
94.0653 4810 69.3542
94.1816 4854 69.6707
94.2979 4978 70.5549
94.4143 5469 73.9527
94.5307 5732 75.71
94.6472 5976 77.3046
94.7637 6229 78.924
94.8803 6339 79.6178
94.9969 6546 80.9074
95.1135 6596 81.2158
95.2302 6758 82.2071
95.3469 6918 83.1745
95.4637 6881 82.9518
95.5805 6921 83.1925
95.6973 6928 83.2346
95.8142 6973 83.5045
95.9311 6671 81.6762
96.048 6425 80.1561
96.1649 6026 77.6273
96.2819 5806 76.1971
96.3989 5565 74.5989
96.516 5824 76.3151
96.633 6289 79.3032
96.7501 6608 81.2896
96.8673 6816 82.5591
96.9844 6535 80.8393
97.1016 6697 81.8352
97.2188 6375 79.8436
97.336 6065 77.8781
97.4532 5809 76.2168
97.5704 5308 72.856
97.6877 5140 71.6938
97.805 4871 69.7925
97.9223 4773 69.0869
98.0396 4933 70.2353
98.1569 5427 73.6682
98.2743 5685 75.3989
98.3916 5980 77.3305
98.509 6153 78.4411
98.6264 6317 79.4796
98.7438 6508 80.6722
98.8612 6548 80.9197
98.9786 6862 82.8372
99.096 6719 81.9695
99.2134 6781 82.3468
99.3308 6897 83.0482
99.4482 6830 82.6438
99.5656 6673 81.6884
99.6831 6315 79.467
99.8005 5951 77.1427
99.9179 5574 74.6592
100.035 5551 74.505
100.153 5968 77.2528
100.27 6267 79.1644
100.388 6538 80.8579
100.505 6632 81.4371
100.622 6437 80.2309
100.74 6523 80.7651
100.857 6333 79.5801
100.975 6100 78.1025
101.092 5536 74.4043
101.209 5276 72.6361
101.327 4990 70.6399
101.444 4851 69.6491
101.561 4871 69.7925
101.679 5055 71.0985
101.796 5486 74.0675
101.913 5766 75.9342
102.03 6217 78.848
102.148 6521 80.7527
102.265 5916 76.9155
102.382 7427 86.18
102.499 7047 83.9464
102.616 7087 84.1843
102.733 7110 84.3208
102.851 7137 84.4808
102.968 7204 84.8764
103.085 6987 83.5883
103.202 6911 83.1324
103.319 6609 81.2958
103.436 6195 78.7083
103.552 6025 77.6209
103.669 6418 80.1124
103.786 6819 82.5772
103.903 7052 83.9762
104.02 7094 84.2259
104.137 7005 83.6959
104.253 6971 83.4925
104.37 6791 82.4075
104.487 6479 80.4922
104.603 6133 78.3135
104.72 5750 75.8288
104.836 5351 73.1505
104.953 5248 72.4431
105.069 5185 72.0069
105.186 5659 75.2263
105.302 6021 77.5951
105.418 6547 80.9135
105.535 6766 82.2557
105.651 7061 84.0298
105.767 7091 84.2081
105.883 7418 86.1278
105.999 7452 86.325
106.115 0 1
106.231 0 1
106.347 0 1
106.463 0 1
106.579 0 1
106.694 0 1
106.81 0 1
106.926 0 1
107.041 0 1
107.157 0 1
109.576 0 1
109.692 0 1
109.807 0 1
109.923 0 1
110.039 0 1
110.155 0 1
110.27 0 1
110.386 0 1
110.502 0 1
110.618 5900 76.8115
110.735 6095 78.0705
110.851 6285 79.278
110.967 6403 80.0187
111.083 6451 80.3181
111.199 6576 81.0925
111.316 6630 81.4248
111.432 6518 80.7341
111.549 6547 80.9135
111.665 6307 79.4166
111.782 5977 77.3111
111.898 5705 75.5315
112.015 5258 72.5121
112.132 5468 73.9459
112.248 5937 77.0519
112.365 6101 78.1089
112.482 6323 79.5173
112.599 6204 78.7655
112.716 6012 77.5371
112.832 5770 75.9605
112.949 5534 74.3909
113.066 5017 70.8308
113.183 4592 67.7643
113.3 4379 66.174
113.417 4277 65.3988
113.534 4168 64.56
113.652 4251 65.1997
113.769 4637 68.0955
113.886 4806 69.3253
114.003 4807 69.3325
114.12 5015 70.8167
114.238 5058 71.1196
114.355 5224 72.2772
114.472 5456 73.8647
114.589 5276 72.6361
114.707 5431 73.6953
114.824 5264 72.5534
114.942 5169 71.8958
115.059 5168 71.8888
115.176 5069 71.1969
115.294 4787 69.1881
115.411 4465 66.8207
115.529 4181 64.6607
115.646 4172 64.591
115.764 4309 65.643
115.881 4616 67.9412
115.999 4582 67.6905
116.116 4603 67.8454
116.234 4509 67.1491
116.351 4460 66.7832
116.469 4134 64.2962
116.586 3991 63.1744
116.704 3799 61.636
116.821 3548 59.5651
116.939 3449 58.7282
117.056 3275 57.2276
117.174 3280 57.2713
117.291 3327 57.6802
117.409 3633 60.2744
117.526 3779 61.4736
117.644 3930 62.6897
117.761 3958 62.9126
117.879 4199 64.7997
117.996 4126 64.2339
118.114 4274 65.3758
118.231 4336 65.8483
118.349 4214 64.9153
118.466 4375 66.1438
118.584 4348 65.9394
118.701 4344 65.909
118.819 4384 66.2118
118.936 4166 64.5446
119.053 3855 62.0886
119.171 3680 60.663
119.288 3863 62.153
119.405 4057 63.6946
119.523 4214 64.9153
119.64 4303 65.5973
119.757 4469 66.8506
119.875 4472 66.873
119.992 4362 66.0454
120.109 4127 64.2417
120.226 3977 63.0635
120.343 3974 63.0397
120.46 3676 60.63
120.578 3602 60.0167
120.695 3444 58.6856
120.812 3515 59.2874
120.929 3609 60.075
121.046 3776 61.4492
121.163 3961 62.9365
121.279 3999 63.2376
121.396 4511 67.164
121.513 4567 67.5796
121.63 4733 68.7968
121.747 4790 69.2098
121.863 4800 69.282
121.98 4746 68.8912
122.097 5066 71.1758
122.213 4992 70.6541
122.33 4965 70.4628
122.446 5101 71.4213
122.563 5117 71.5332
122.679 4841 69.5773
122.795 4723 68.7241
122.912 4485 66.9701
123.028 4716 68.6731
123.144 4860 69.7137
123.26 5065 71.1688
123.377 0 1
123.493 0 1
123.609 0 1
123.725 0 1
123.84 0 1
123.956 0 1
124.072 0 1
124.188 0 1
124.303 0 1
124.419 0 1
126.852 0 1
126.968 0 1
127.083 0 1
127.199 0 1
127.315 0 1
127.431 0 1
127.547 0 1
127.663 0 1
127.779 0 1
127.895 0 1
128.011 0 1
128.127 0 1
128.243 0 1
128.359 5391 73.4234
128.476 5679 75.3591
128.592 6016 77.5629
128.708 6102 78.1153
128.825 6075 77.9423
128.941 6105 78.1345
129.058 6043 77.7367
129.174 5782 76.0395
129.291 5450 73.8241
129.408 5339 73.0685
129.524 4875 69.8212
129.641 4739 68.8404
129.758 4701 68.5638
129.875 4573 67.624
129.992 4726 68.7459
130.108 4903 70.0214
130.225 4989 70.6329
130.342 5050 71.0634
130.459 5141 71.7008
130.576 5317 72.9178
130.693 5359 73.2052
130.81 5500 74.162
130.928 5486 74.0675
131.045 5395 73.4507
131.162 5489 74.0878
131.279 5729 75.6902
131.396 5361 73.2189
131.513 5394 73.4439
131.631 5148 71.7496
131.748 4964 70.4557
131.865 4890 69.9285
131.983 5052 71.0774
132.1 5200 72.111
132.217 5326 72.9794
132.335 5377 73.328
132.452 5389 73.4098
132.57 5247 72.4362
132.687 4900 70
132.804 4955 70.3918
132.922 4665 68.3008
133.039 4315 65.6887
133.157 4213 64.9076
133.274 4118 64.1716
133.392 3867 62.1852
133.509 4022 63.4192
133.627 4190 64.7302
133.744 4283 65.4446
133.862 4234 65.0692
133.979 4357 66.0076
134.097 4342 65.8939
134.214 4605 67.8602
134.332 4431 66.5658
134.449 4415 66.4455
134.567 4387 66.2344
134.684 4420 66.4831
134.802 4525 67.2681
134.919 4485 66.9701
135.037 4370 66.106
135.154 4182 64.6684
135.272 3929 62.6817
135.389 3805 61.6847
135.507 3855 62.0886
135.624 4014 63.3561
135.742 4167 64.5523
135.859 4081 63.8827
135.977 4024 63.435
136.094 4255 65.2304
136.211 3983 63.111
136.329 3846 62.0161
136.446 3609 60.075
136.564 3488 59.0593
136.681 3352 57.8965
136.798 3383 58.1636
136.915 3134 55.9821
137.033 3087 55.5608
137.15 3069 55.3986
137.267 3221 56.7539
137.384 3338 57.7754
137.502 3271 57.1927
137.619 3386 58.1893
137.736 3443 58.6771
137.853 3523 59.3549
137.97 3533 59.439
138.087 3541 59.5063
138.204 3803 61.6685
138.321 3796 61.6117
138.438 3909 62.522
138.555 3948 62.8331
138.672 3998 63.2297
138.788 3830 61.887
138.905 3823 61.8304
139.022 3690 60.7454
139.139 3710 60.9098
139.255 3982 63.1031
139.372 4011 63.3325
139.488 4364 66.0606
139.605 4322 65.7419
139.721 4328 65.7875
139.838 4276 65.3911
139.954 4346 65.9242
140.071 4038 63.5453
140.187 4114 64.1405
140.303 3949 62.8411
140.419 3887 62.3458
140.535 3727 61.0492
140.652 3674 60.6135
140.768 0 1
140.884 0 1
141 0 1
141.115 0 1
141.231 0 1
141.347 0 1
141.463 0 1
141.578 0 1
141.694 0 1
144.104 0 1
144.219 0 1
144.335 0 1
144.45 0 1
144.566 0 1
144.682 0 1
144.798 0 1
144.914 0 1
145.03 0 1
145.146 3467 58.8812
145.262 3543 59.5231
145.378 3332 57.7235
145.494 3338 57.7754
145.61 3233 56.8595
145.726 3205 56.6127
145.842 3049 55.2178
145.959 3115 55.8122
146.075 3174 56.3383
146.192 3209 56.648
146.308 3215 56.701
146.425 3154 56.1605
146.541 3274 57.2189
146.658 3233 56.8595
146.774 3246 56.9737
146.891 3300 57.4456
147.008 3255 57.0526
147.125 3144 56.0714
147.241 3214 56.6922
147.358 3271 57.1927
147.475 3120 55.857
147.592 3045 55.1815
147.709 2891 53.768
147.826 2978 54.5711
147.943 3123 55.8838
148.06 3230 56.8331
148.177 3062 55.3353
148.294 3111 55.7763
148.411 3176 56.356
148.528 3168 56.285
148.645 2955 54.3599
148.762 2890 53.7587
148.88 2820 53.1037
148.997 2769 52.6213
149.114 2411 49.1019
149.231 2503 50.03
149.349 2344 48.4149
149.466 2401 49
149.583 2414 49.1325
149.701 2427 49.2646
149.818 2499 49.99
149.935 2566 50.6557
150.053 2613 51.1175
150.17 2527 50.2693
150.287 2636 51.342
150.405 2699 51.9519
150.522 2773 52.6593
150.64 2815 53.0566
150.757 2738 52.3259
150.875 2945 54.2679
150.992 2800 52.915
151.11 2860 53.479
151.227 2652 51.4976
151.344 2643 51.4101
151.462 2730 52.2494
151.579 2744 52.3832
151.697 2952 54.3323
151.814 2937 54.1941
151.932 3089 55.5788
152.049 3046 55.1906
152.167 2987 54.6535
152.284 3017 54.9272
152.402 2930 54.1295
152.519 2732 52.2685
152.636 2737 52.3163
152.754 2738 52.3259
152.871 2681 51.7784
152.989 2655 51.5267
153.106 2681 51.7784
153.223 2779 52.7162
153.341 2820 53.1037
153.458 2857 53.4509
153.575 2933 54.1572
153.693 2965 54.4518
153.81 2956 54.3691
153.927 2975 54.5436
154.044 3138 56.0179
154.162 3136 56
154.279 3285 57.3149
154.396 3339 57.7841
154.513 3341 57.8014
154.63 3499 59.1523
154.747 3417 58.4551
154.864 3282 57.2887
154.981 3329 57.6975
155.098 3369 58.0431
155.215 3554 59.6154
155.332 3691 60.7536
155.449 3739 61.1474
155.566 3700 60.8276
155.683 3645 60.3738
155.8 3684 60.696
155.917 3701 60.8358
156.033 3610 60.0833
156.15 0 1
156.267 0 1
156.383 0 1
156.5 0 1
156.617 0 1
156.733 0 1
156.85 0 1
156.966 0 1
157.082 0 1
157.199 0 1
157.315 0 1
157.431 0 1
157.547 0 1
157.664 0 1
157.78 0 1
157.896 0 1
158.012 0 1
158.128 0 1
158.244 0 1
158.359 0 1
158.475 0 1
158.591 0 1
158.706 0 1
