
6.15755 0 1
6.2731 0 1
6.3887 0 1
6.50437 0 1
6.62009 0 1
6.73587 0 1
6.8517 0 1
6.96759 0 1
7.08353 0 1
7.19952 0 1
7.31557 0 1
7.43166 0 1
7.54781 0 1
7.664 0 1
7.78024 0 1
7.89653 0 1
8.01286 0 1
8.12924 0 1
8.24567 0 1
8.36213 0 1
8.47864 0 1
8.59519 0 1
8.71178 0 1
8.82841 0 1
8.94508 0 1
9.06179 0 1
9.17853 0 1
9.29531 0 1
9.41212 0 1
9.52897 0 1
9.64584 0 1
9.76276 0 1
9.8797 0 1
9.99667 0 1
10.1137 0 1
10.2307 0 1
10.3478 0 1
10.4648 0 1
10.5819 0 1
10.6991 0 1
10.8162 0 1
10.9334 0 1
11.0506 0 1
11.1678 0 1
11.285 0 1
11.4023 0 1
11.5196 0 1
11.6369 0 1
11.7542 0 1
11.8715 0 1
11.9888 0 1
12.1062 0 1
12.2235 0 1
12.3409 0 1
12.4582 0 1
12.5756 0 1
12.693 0 1
12.8104 0 1
12.9278 0 1
13.0452 0 1
13.1626 0 1
13.28 0 1
13.3974 0 1
13.5149 0 1
13.6323 0 1
13.7497 0 1
13.8671 0 1
13.9845 0 1
14.1019 0 1
14.2193 0 1
14.3367 0 1
14.4541 0 1
14.5714 0 1
14.6888 0 1
14.8062 0 1
14.9235 0 1
15.0408 937 30.6105
15.1581 990 31.4643
15.2755 1010 31.7805
15.3927 999 31.607
15.51 980 31.305
15.6273 979 31.289
15.7445 981 31.3209
15.8617 942 30.692
15.9789 972 31.1769
16.0961 931 30.5123
16.2132 889 29.8161
16.3304 929 30.4795
16.4475 875 29.5804
16.5646 846 29.0861
16.6816 914 30.2324
16.7986 878 29.6311
16.9156 927 30.4467
17.0326 932 30.5287
17.1496 900 30
17.2665 956 30.9192
17.3833 933 30.545
17.5002 918 30.2985
17.617 926 30.4302
17.7338 928 30.4631
17.8505 916 30.2655
17.9672 942 30.692
18.0839 968 31.1127
18.2005 893 29.8831
18.3171 801 28.3019
18.4337 858 29.2916
18.5502 878 29.6311
18.6666 839 28.9655
18.7831 915 30.249
18.8994 844 29.0517
19.0158 820 28.6356
19.1321 844 29.0517
19.2483 738 27.1662
19.3645 790 28.1069
19.4806 769 27.7308
19.5967 652 25.5343
19.7128 603 24.5561
19.8288 616 24.8193
19.9447 504 22.4499
20.0606 0 1
20.1764 0 1
20.2922 0 1
20.4079 0 1
20.5236 0 1
20.6392 0 1
20.7548 0 1
20.8702 0 1
23.3078 0 1
23.4233 0 1
23.539 0 1
23.6547 0 1
23.7704 0 1
23.8862 0 1
24.0021 0 1
24.118 0 1
24.234 0 1
24.35 0 1
24.4661 330 18.1659
24.5822 394 19.8494
24.6984 466 21.587
24.8146 511 22.6053
24.9309 608 24.6577
25.0472 681 26.096
25.1636 740 27.2029
25.28 808 28.4253
25.3965 845 29.0689
25.513 896 29.9333
25.6296 922 30.3645
25.7462 914 30.2324
25.8628 974 31.209
25.9795 942 30.692
26.0962 943 30.7083
26.213 936 30.5941
26.3298 889 29.8161
26.4466 852 29.189
26.5635 856 29.2575
26.6804 861 29.3428
26.7973 813 28.5132
26.9143 754 27.4591
27.0313 730 27.0185
27.1483 716 26.7582
27.2653 766 27.6767
27.3824 807 28.4077
27.4996 760 27.5681
27.6167 753 27.4408
27.7339 817 28.5832
27.8511 907 30.1164
27.9683 883 29.7153
28.0855 844 29.0517
28.2028 827 28.7576
28.3201 799 28.2666
28.4374 808 28.4253
28.5547 816 28.5657
28.6721 776 27.8568
28.7894 810 28.4605
28.9068 779 27.9106
29.0242 826 28.7402
29.1416 796 28.2135
29.259 821 28.6531
29.3764 781 27.9464
29.4939 809 28.4429
29.6113 834 28.8791
29.7288 807 28.4077
29.8463 802 28.3196
29.9638 795 28.1957
30.0812 785 28.0179
30.1987 748 27.3496
30.3162 742 27.2397
30.4337 686 26.1916
30.5512 708 26.6083
30.6687 764 27.6405
30.7862 758 27.5318
30.9037 811 28.4781
31.0212 834 28.8791
31.1387 863 29.3769
31.2562 855 29.2404
31.3737 866 29.4279
31.4912 821 28.6531
31.6087 858 29.2916
31.7262 816 28.5657
31.8436 752 27.4226
31.9611 822 28.6705
32.0785 743 27.258
32.1959 749 27.3679
32.3134 747 27.3313
32.4308 781 27.9464
32.5482 733 27.074
32.6655 807 28.4077
32.7829 774 27.8209
32.9002 744 27.2764
33.0176 758 27.5318
33.1349 774 27.8209
33.2522 751 27.4044
33.3694 701 26.4764
33.4867 730 27.0185
33.6039 737 27.1477
33.7211 798 28.2489
33.8383 788 28.0713
33.9554 774 27.8209
34.0725 734 27.0924
34.1896 630 25.0998
34.3067 671 25.9037
34.4237 750 27.3861
34.5407 797 28.2312
34.6577 784 28
34.7746 786 28.0357
34.8915 791 28.1247
35.0084 761 27.5862
35.1252 797 28.2312
35.242 781 27.9464
35.3587 812 28.4956
35.4755 737 27.1477
35.5921 717 26.7769
35.7088 696 26.3818
35.8254 707 26.5895
35.9419 655 25.593
36.0584 688 26.2298
36.1749 739 27.1846
36.2913 684 26.1534
36.4077 718 26.7955
36.524 669 25.865
36.6403 623 24.96
36.7565 585 24.1868
36.8727 585 24.1868
36.9889 542 23.2809
37.1049 535 23.1301
37.221 0 1
37.3369 0 1
37.4529 0 1
37.5687 0 1
37.6845 0 1
37.8003 0 1
37.916 0 1
38.0316 0 1
38.1472 0 1
40.5851 0 1
40.7008 0 1
40.8164 0 1
40.9322 0 1
41.048 0 1
41.1639 0 1
41.2798 0 1
41.3958 0 1
41.5118 0 1
41.6279 0 1
41.744 318 17.8326
41.8602 368 19.1833
41.9765 431 20.7605
42.0928 466 21.587
42.2091 529 23
42.3255 542 23.2809
42.4419 533 23.0868
42.5584 555 23.5584
42.675 518 22.7596
42.7915 560 23.6643
42.9081 492 22.1811
43.0248 535 23.1301
43.1415 522 22.8473
43.2582 536 23.1517
43.375 554 23.5372
43.4918 571 23.8956
43.6087 590 24.2899
43.7256 588 24.2487
43.8425 567 23.8118
43.9595 550 23.4521
44.0765 548 23.4094
44.1935 564 23.7487
44.3106 524 22.891
44.4277 514 22.6716
44.5448 546 23.3666
44.6619 489 22.1133
44.7791 553 23.516
44.8963 537 23.1733
45.0136 614 24.779
45.1308 611 24.7184
45.2481 544 23.3238
45.3654 583 24.1454
45.4827 588 24.2487
45.6001 581 24.1039
45.7174 600 24.4949
45.8348 661 25.7099
45.9522 631 25.1197
46.0697 620 24.8998
46.1871 613 24.7588
46.3046 528 22.9783
46.422 491 22.1585
46.5395 474 21.7715
46.657 488 22.0907
46.7745 534 23.1084
46.892 517 22.7376
47.0096 521 22.8254
47.1271 595 24.3926
47.2446 599 24.4745
47.3622 520 22.8035
47.4797 559 23.6432
47.5973 589 24.2693
47.7149 533 23.0868
47.8324 533 23.0868
47.95 516 22.7156
48.0675 453 21.2838
48.1851 475 21.7945
48.3027 549 23.4307
48.4202 529 23
48.5378 535 23.1301
48.6554 563 23.7276
48.7729 583 24.1454
48.8904 565 23.7697
49.008 602 24.5357
49.1255 559 23.6432
49.243 568 23.8328
49.3605 579 24.0624
49.478 508 22.5389
49.5955 551 23.4734
49.713 530 23.0217
49.8304 434 20.8327
49.9479 443 21.0476
50.0653 445 21.095
50.1827 442 21.0238
50.3001 449 21.1896
50.4175 550 23.4521
50.5348 491 22.1585
50.6521 527 22.9565
50.7694 514 22.6716
50.8867 558 23.622
51.004 538 23.1948
51.1212 542 23.2809
51.2384 505 22.4722
51.3556 474 21.7715
51.4727 501 22.383
51.5899 495 22.2486
51.707 511 22.6053
51.824 493 22.2036
51.9411 557 23.6008
52.0581 536 23.1517
52.175 549 23.4307
52.2919 514 22.6716
52.4088 531 23.0434
52.5257 508 22.5389
52.6425 571 23.8956
52.7593 532 23.0651
52.876 548 23.4094
52.9927 566 23.7908
53.1094 533 23.0868
53.226 526 22.9347
53.3426 458 21.4009
53.4591 430 20.7364
53.5756 400 20
53.692 387 19.6723
53.8084 384 19.5959
53.9248 415 20.3715
54.0411 389 19.7231
54.1573 339 18.412
54.2735 0 1
54.3896 0 1
54.5057 0 1
54.6217 0 1
54.7377 0 1
54.8537 0 1
54.9695 0 1
55.0853 0 1
55.2011 0 1
55.3168 0 1
55.4324 0 1
57.824 0 1
57.9396 0 1
58.0553 0 1
58.1711 0 1
58.2869 0 1
58.4028 0 1
58.5187 0 1
58.6347 0 1
58.7508 0 1
58.8669 0 1
58.983 498 22.3159
59.0992 592 24.3311
59.2155 714 26.7208
59.3318 813 28.5132
59.4482 830 28.8097
59.5646 892 29.8664
59.681 976 31.241
59.7975 900 30
59.9141 982 31.3369
60.0306 974 31.209
60.1473 899 29.9833
60.2639 926 30.4302
60.3807 960 30.9839
60.4974 1020 31.9374
60.6142 962 31.0161
60.731 1012 31.8119
60.8479 1013 31.8277
60.9648 1005 31.7017
61.0818 1012 31.8119
61.1987 957 30.9354
61.3158 868 29.4618
61.4328 969 31.1288
61.5499 860 29.3258
61.667 871 29.5127
61.7841 783 27.9821
61.9013 786 28.0357
62.0185 778 27.8927
62.1357 723 26.8887
62.253 717 26.7769
62.3702 696 26.3818
62.4875 691 26.2869
62.6049 686 26.1916
62.7222 733 27.074
62.8396 686 26.1916
62.9569 702 26.4953
63.0743 737 27.1477
63.1918 730 27.0185
63.3092 687 26.2107
63.4267 618 24.8596
63.5441 627 25.04
63.6616 633 25.1595
63.7791 553 23.516
63.8966 613 24.7588
64.0142 652 25.5343
64.1317 579 24.0624
64.2492 668 25.8457
64.3668 576 24
64.4843 645 25.3969
64.6019 590 24.2899
64.7195 619 24.8797
64.837 617 24.8395
64.9546 651 25.5147
65.0722 597 24.4336
65.1898 644 25.3772
65.3074 597 24.4336
65.4249 622 24.9399
65.5425 588 24.2487
65.6601 535 23.1301
65.7777 518 22.7596
65.8952 556 23.5797
66.0128 572 23.9165
66.1304 557 23.6008
66.2479 586 24.2074
66.3655 586 24.2074
66.483 627 25.04
66.6005 616 24.8193
66.718 565 23.7697
66.8355 588 24.2487
66.953 604 24.5764
67.0705 581 24.1039
67.1879 616 24.8193
67.3054 571 23.8956
67.4228 575 23.9792
67.5402 597 24.4336
67.6576 603 24.5561
67.7749 593 24.3516
67.8923 616 24.8193
68.0096 627 25.04
68.1269 537 23.1733
68.2442 602 24.5357
68.3614 589 24.2693
68.4787 555 23.5584
68.5958 575 23.9792
68.713 606 24.6171
68.8302 645 25.3969
68.9473 555 23.5584
69.0643 585 24.1868
69.1814 545 23.3452
69.2984 499 22.3383
69.4154 537 23.1733
69.5323 548 23.4094
69.6492 543 23.3024
69.7661 566 23.7908
69.8829 587 24.2281
69.9997 620 24.8998
70.1165 603 24.5561
70.2332 571 23.8956
70.3499 517 22.7376
70.4665 538 23.1948
70.5831 493 22.2036
70.6996 445 21.095
70.8161 407 20.1742
70.9326 370 19.2354
71.049 380 19.4936
71.1653 348 18.6548
71.2817 324 18
71.3979 306 17.4929
71.5141 291 17.0587
71.6303 236 15.3623
71.7464 211 14.5258
71.8624 0 1
71.9784 0 1
72.0944 0 1
72.2102 0 1
72.3261 0 1
72.4418 0 1
72.5575 0 1
72.6732 0 1
75.1054 0 1
75.2209 0 1
75.3365 0 1
75.4521 0 1
75.5678 0 1
75.6835 0 1
75.7993 0 1
75.9151 0 1
76.031 0 1
76.147 337 18.3576
76.263 382 19.5448
76.3791 404 20.0998
76.4952 466 21.587
76.6113 429 20.7123
76.7276 442 21.0238
76.8438 529 23
76.9601 518 22.7596
77.0765 491 22.1585
77.1929 511 22.6053
77.3093 504 22.4499
77.4258 526 22.9347
77.5423 481 21.9317
77.6589 489 22.1133
77.7755 460 21.4476
77.8921 524 22.891
78.0088 557 23.6008
78.1256 482 21.9545
78.2423 469 21.6564
78.3591 458 21.4009
78.4759 457 21.3776
78.5928 475 21.7945
78.7097 467 21.6102
78.8266 457 21.3776
78.9436 505 22.4722
79.0606 548 23.4094
79.1776 524 22.891
79.2946 488 22.0907
79.4117 511 22.6053
79.5288 445 21.095
79.6459 503 22.4277
79.7631 490 22.1359
79.8802 494 22.2261
79.9974 531 23.0434
80.1147 473 21.7486
80.2319 540 23.2379
80.3491 522 22.8473
80.4664 558 23.622
80.5837 508 22.5389
80.701 523 22.8692
80.8183 520 22.8035
80.9357 494 22.2261
81.053 543 23.3024
81.1704 517 22.7376
81.2877 524 22.891
81.4051 516 22.7156
81.5225 540 23.2379
81.6399 554 23.5372
81.7573 487 22.0681
81.8747 494 22.2261
81.9922 472 21.7256
82.1096 448 21.166
82.227 463 21.5174
82.3444 494 22.2261
82.4619 491 22.1585
82.5793 529 23
82.6967 524 22.891
82.8142 582 24.1247
82.9316 554 23.5372
83.049 535 23.1301
83.1664 487 22.0681
83.2838 513 22.6495
83.4012 459 21.4243
83.5186 504 22.4499
83.636 525 22.9129
83.7534 548 23.4094
83.8708 564 23.7487
83.9881 540 23.2379
84.1055 546 23.3666
84.2228 576 24
84.3401 524 22.891
84.4575 523 22.8692
84.5747 481 21.9317
84.692 523 22.8692
84.8093 519 22.7816
84.9265 541 23.2594
85.0437 524 22.891
85.1609 534 23.1084
85.2781 493 22.2036
85.3952 519 22.7816
85.5123 525 22.9129
85.6294 444 21.0713
85.7465 516 22.7156
85.8636 491 22.1585
85.9806 493 22.2036
86.0976 516 22.7156
86.2145 505 22.4722
86.3315 531 23.0434
86.4484 542 23.2809
86.5652 554 23.5372
86.682 564 23.7487
86.7988 532 23.0651
86.9156 521 22.8254
87.0323 556 23.5797
87.149 548 23.4094
87.2657 483 21.9773
87.3823 560 23.6643
87.4988 560 23.6643
87.6154 550 23.4521
87.7318 499 22.3383
87.8483 481 21.9317
87.9647 437 20.9045
88.081 445 21.095
88.1973 390 19.7484
88.3136 389 19.7231
88.4298 321 17.9165
88.546 346 18.6011
88.6621 321 17.9165
88.7781 276 16.6132
88.8942 0 1
89.0101 0 1
89.126 0 1
89.2419 0 1
89.3577 0 1
89.4734 0 1
89.5891 0 1
89.7047 0 1
89.8203 0 1
89.9358 0 1
92.3269 0 1
92.4424 0 1
92.558 0 1
92.6736 0 1
92.7893 0 1
92.905 0 1
93.0208 0 1
93.1366 0 1
93.2525 0 1
93.3685 0 1
93.4845 0 1
93.6005 429 20.7123
93.7167 468 21.6333
93.8328 499 22.3383
93.949 499 22.3383
94.0653 554 23.5372
94.1816 526 22.9347
94.2979 565 23.7697
94.4143 523 22.8692
94.5307 519 22.7816
94.6472 511 22.6053
94.7637 493 22.2036
94.8803 535 23.1301
94.9969 529 23
95.1135 524 22.891
95.2302 568 23.8328
95.3469 570 23.8747
95.4637 556 23.5797
95.5805 563 23.7276
95.6973 568 23.8328
95.8142 543 23.3024
95.9311 564 23.7487
96.048 547 23.388
96.1649 523 22.8692
96.2819 534 23.1084
96.3989 547 23.388
96.516 557 23.6008
96.633 559 23.6432
96.7501 622 24.9399
96.8673 618 24.8596
96.9844 597 24.4336
97.1016 558 23.622
97.2188 588 24.2487
97.336 527 22.9565
97.4532 583 24.1454
97.5704 539 23.2164
97.6877 515 22.6936
97.805 570 23.8747
97.9223 536 23.1517
98.0396 560 23.6643
98.1569 539 23.2164
98.2743 586 24.2074
98.3916 495 22.2486
98.509 538 23.1948
98.6264 560 23.6643
98.7438 572 23.9165
98.8612 588 24.2487
98.9786 613 24.7588
99.096 634 25.1794
99.2134 605 24.5967
99.3308 642 25.3377
99.4482 618 24.8596
99.5656 579 24.0624
99.6831 563 23.7276
99.8005 601 24.5153
99.9179 606 24.6171
100.035 627 25.04
100.153 574 23.9583
100.27 617 24.8395
100.388 632 25.1396
100.505 627 25.04
100.622 658 25.6515
100.74 578 24.0416
100.857 583 24.1454
100.975 632 25.1396
101.092 601 24.5153
101.209 649 25.4755
101.327 634 25.1794
101.444 601 24.5153
101.561 603 24.5561
101.679 600 24.4949
101.796 629 25.0799
101.913 578 24.0416
102.03 579 24.0624
102.148 579 24.0624
102.265 615 24.7992
102.382 589 24.2693
102.499 626 25.02
102.616 622 24.9399
102.733 665 25.7876
102.851 680 26.0768
102.968 676 26
103.085 674 25.9615
103.202 647 25.4362
103.319 635 25.1992
103.436 706 26.5707
103.552 681 26.096
103.669 671 25.9037
103.786 682 26.1151
103.903 653 25.5539
104.02 670 25.8844
104.137 688 26.2298
104.253 660 25.6905
104.37 707 26.5895
104.487 663 25.7488
104.603 656 25.6125
104.72 674 25.9615
104.836 627 25.04
104.953 648 25.4558
105.069 594 24.3721
105.186 575 23.9792
105.302 555 23.5584
105.418 530 23.0217
105.535 495 22.2486
105.651 436 20.8806
105.767 405 20.1246
105.883 394 19.8494
105.999 336 18.3303
106.115 0 1
106.231 0 1
106.347 0 1
106.463 0 1
106.579 0 1
106.694 0 1
106.81 0 1
106.926 0 1
107.041 0 1
107.157 0 1
109.576 0 1
109.692 0 1
109.807 0 1
109.923 0 1
110.039 0 1
110.155 0 1
110.27 0 1
110.386 0 1
110.502 0 1
110.618 290 17.0294
110.735 342 18.4932
110.851 446 21.1187
110.967 447 21.1424
111.083 530 23.0217
111.199 574 23.9583
111.316 620 24.8998
111.432 610 24.6982
111.549 651 25.5147
111.665 648 25.4558
111.782 613 24.7588
111.898 579 24.0624
112.015 586 24.2074
112.132 576 24
112.248 590 24.2899
112.365 634 25.1794
112.482 659 25.671
112.599 609 24.6779
112.716 592 24.3311
112.832 633 25.1595
112.949 600 24.4949
113.066 603 24.5561
113.183 572 23.9165
113.3 571 23.8956
113.417 558 23.622
113.534 525 22.9129
113.652 598 24.454
113.769 575 23.9792
113.886 567 23.8118
114.003 579 24.0624
114.12 580 24.0832
114.238 532 23.0651
114.355 517 22.7376
114.472 564 23.7487
114.589 553 23.516
114.707 551 23.4734
114.824 587 24.2281
114.942 534 23.1084
115.059 532 23.0651
115.176 569 23.8537
115.294 613 24.7588
115.411 580 24.0832
115.529 541 23.2594
115.646 502 22.4054
115.764 584 24.1661
115.881 534 23.1084
115.999 627 25.04
116.116 560 23.6643
116.234 546 23.3666
116.351 541 23.2594
116.469 571 23.8956
116.586 515 22.6936
116.704 510 22.5832
116.821 575 23.9792
116.939 539 23.2164
117.056 527 22.9565
117.174 550 23.4521
117.291 569 23.8537
117.409 516 22.7156
117.526 544 23.3238
117.644 546 23.3666
117.761 535 23.1301
117.879 509 22.561
117.996 492 22.1811
118.114 524 22.891
118.231 489 22.1133
118.349 558 23.622
118.466 541 23.2594
118.584 583 24.1454
118.701 549 23.4307
118.819 534 23.1084
118.936 530 23.0217
119.053 527 22.9565
119.171 533 23.0868
119.288 475 21.7945
119.405 536 23.1517
119.523 553 23.516
119.64 526 22.9347
119.757 538 23.1948
119.875 531 23.0434
119.992 535 23.1301
120.109 491 22.1585
120.226 507 22.5167
120.343 510 22.5832
120.46 507 22.5167
120.578 495 22.2486
120.695 593 24.3516
120.812 495 22.2486
120.929 489 22.1133
121.046 500 22.3607
121.163 481 21.9317
121.279 511 22.6053
121.396 474 21.7715
121.513 479 21.8861
121.63 429 20.7123
121.747 445 21.095
121.863 423 20.567
121.98 415 20.3715
122.097 431 20.7605
122.213 425 20.6155
122.33 411 20.2731
122.446 419 20.4695
122.563 420 20.4939
122.679 357 18.8944
122.795 333 18.2483
122.912 348 18.6548
123.028 297 17.2337
123.144 303 17.4069
123.26 275 16.5831
123.377 0 1
123.493 0 1
123.609 0 1
123.725 0 1
123.84 0 1
123.956 0 1
124.072 0 1
124.188 0 1
124.303 0 1
124.419 0 1
126.852 0 1
126.968 0 1
127.083 0 1
127.199 0 1
127.315 0 1
127.431 0 1
127.547 0 1
127.663 0 1
127.779 0 1
127.895 0 1
128.011 0 1
128.127 0 1
128.243 0 1
128.359 556 23.5797
128.476 570 23.8747
128.592 540 23.2379
128.708 597 24.4336
128.825 580 24.0832
128.941 558 23.622
129.058 619 24.8797
129.174 545 23.3452
129.291 629 25.0799
129.408 592 24.3311
129.524 557 23.6008
129.641 627 25.04
129.758 547 23.388
129.875 611 24.7184
129.992 596 24.4131
130.108 597 24.4336
130.225 591 24.3105
130.342 613 24.7588
130.459 518 22.7596
130.576 559 23.6432
130.693 563 23.7276
130.81 591 24.3105
130.928 584 24.1661
131.045 621 24.9199
131.162 678 26.0384
131.279 718 26.7955
131.396 706 26.5707
131.513 778 27.8927
131.631 764 27.6405
131.748 754 27.4591
131.865 769 27.7308
131.983 785 28.0179
132.1 801 28.3019
132.217 872 29.5296
132.335 886 29.7658
132.452 991 31.4802
132.57 1009 31.7648
132.687 952 30.8545
132.804 1011 31.7962
132.922 1054 32.4654
133.039 1107 33.2716
133.157 1066 32.6497
133.274 1063 32.6037
133.392 1104 33.2265
133.509 1098 33.1361
133.627 1074 32.7719
133.744 1102 33.1964
133.862 1026 32.0312
133.979 1000 31.6228
134.097 1037 32.2025
134.214 1011 31.7962
134.332 1015 31.8591
134.449 953 30.8707
134.567 976 31.241
134.684 1077 32.8177
134.802 1057 32.5115
134.919 1115 33.3916
135.037 1132 33.6452
135.154 1083 32.909
135.272 1119 33.4515
135.389 993 31.5119
135.507 918 30.2985
135.624 951 30.8383
135.742 1005 31.7017
135.859 991 31.4802
135.977 1060 32.5576
136.094 1046 32.3419
136.211 1126 33.5559
136.329 1159 34.0441
136.446 1131 33.6303
136.564 1157 34.0147
136.681 1157 34.0147
136.798 1096 33.1059
136.915 1131 33.6303
137.033 1106 33.2566
137.15 1130 33.6155
137.267 1134 33.6749
137.384 1077 32.8177
137.502 1187 34.4529
137.619 990 31.4643
137.736 1107 33.2716
137.853 993 31.5119
137.97 1016 31.8748
138.087 1005 31.7017
138.204 1068 32.6803
138.321 1020 31.9374
138.438 1089 33
138.555 1162 34.0881
138.672 1166 34.1467
138.788 1180 34.3511
138.905 1135 33.6898
139.022 1139 33.7491
139.139 1002 31.6544
139.255 976 31.241
139.372 902 30.0333
139.488 882 29.6985
139.605 846 29.0861
139.721 866 29.4279
139.838 841 29
139.954 789 28.0891
140.071 723 26.8887
140.187 758 27.5318
140.303 673 25.9422
140.419 651 25.5147
140.535 615 24.7992
140.652 627 25.04
140.768 0 1
140.884 0 1
141 0 1
141.115 0 1
141.231 0 1
141.347 0 1
141.463 0 1
141.578 0 1
141.694 0 1
144.104 0 1
144.219 0 1
144.335 0 1
144.45 0 1
144.566 0 1
144.682 0 1
144.798 0 1
144.914 0 1
145.03 0 1
145.146 1288 35.8887
145.262 1409 37.5366
145.378 1423 37.7227
145.494 1470 38.3406
145.61 1529 39.1024
145.726 1526 39.064
145.842 1582 39.7744
145.959 1626 40.3237
146.075 1654 40.6694
146.192 1727 41.5572
146.308 1809 42.5323
146.425 1814 42.5911
146.541 1721 41.4849
146.658 1820 42.6615
146.774 1785 42.2493
146.891 1837 42.8602
147.008 1791 42.3202
147.125 1727 41.5572
147.241 1693 41.1461
147.358 1896 43.5431
147.475 2045 45.2217
147.592 2121 46.0543
147.709 1989 44.5982
147.826 2061 45.3982
147.943 2077 45.5741
148.06 1962 44.2945
148.177 1934 43.9773
148.294 2000 44.7214
148.411 2009 44.8219
148.528 2129 46.1411
148.645 2076 45.5631
148.762 2105 45.8803
148.88 2089 45.7056
148.997 2118 46.0217
149.114 2072 45.5192
149.231 2109 45.9239
149.349 1978 44.4747
149.466 2008 44.8107
149.583 2030 45.0555
149.701 2070 45.4973
149.818 1864 43.1741
149.935 1984 44.5421
150.053 1872 43.2666
150.17 1868 43.2204
150.287 1845 42.9535
150.405 1819 42.6497
150.522 1761 41.9643
150.64 1766 42.0238
150.757 1696 41.1825
150.875 1625 40.3113
150.992 1639 40.4846
151.11 1722 41.497
151.227 1798 42.4028
151.344 1796 42.3792
151.462 1776 42.1426
151.579 1760 41.9524
151.697 1669 40.8534
151.814 1691 41.1218
151.932 1718 41.4488
152.049 1696 41.1825
152.167 1762 41.9762
152.284 1781 42.2019
152.402 1757 41.9166
152.519 1762 41.9762
152.636 1799 42.4146
152.754 1701 41.2432
152.871 1717 41.4367
152.989 1744 41.7612
153.106 1793 42.3438
153.223 1719 41.4608
153.341 1714 41.4005
153.458 1600 40
153.575 1559 39.4842
153.693 1456 38.1576
153.81 1456 38.1576
153.927 1436 37.8946
154.044 1484 38.5227
154.162 1493 38.6394
154.279 1497 38.6911
154.396 1448 38.0526
154.513 1531 39.128
154.63 1611 40.1373
154.747 1681 41
154.864 1647 40.5832
154.981 1669 40.8534
155.098 1583 39.7869
155.215 1592 39.8999
155.332 1638 40.4722
155.449 1603 40.0375
155.566 1610 40.1248
155.683 1631 40.3856
155.8 1700 41.2311
155.917 1701 41.2432
156.033 1639 40.4846
156.15 0 1
156.267 0 1
156.383 0 1
156.5 0 1
156.617 0 1
156.733 0 1
156.85 0 1
156.966 0 1
157.082 0 1
157.199 0 1
157.315 0 1
157.431 0 1
157.547 0 1
157.664 0 1
157.78 0 1
157.896 0 1
158.012 0 1
158.128 0 1
158.244 0 1
158.359 0 1
158.475 0 1
158.591 0 1
158.706 0 1
