
6.15755 0 1
6.2731 0 1
6.3887 0 1
6.50437 0 1
6.62009 0 1
6.73587 0 1
6.8517 0 1
6.96759 0 1
7.08353 0 1
7.19952 0 1
7.31557 0 1
7.43166 0 1
7.54781 0 1
7.664 0 1
7.78024 0 1
7.89653 0 1
8.01286 0 1
8.12924 0 1
8.24567 0 1
8.36213 0 1
8.47864 0 1
8.59519 0 1
8.71178 0 1
8.82841 0 1
8.94508 0 1
9.06179 0 1
9.17853 0 1
9.29531 0 1
9.41212 0 1
9.52897 0 1
9.64584 0 1
9.76276 0 1
9.8797 0 1
9.99667 0 1
10.1137 0 1
10.2307 0 1
10.3478 0 1
10.4648 0 1
10.5819 0 1
10.6991 0 1
10.8162 0 1
10.9334 0 1
11.0506 0 1
11.1678 0 1
11.285 0 1
11.4023 0 1
11.5196 0 1
11.6369 0 1
11.7542 0 1
11.8715 0 1
11.9888 0 1
12.1062 0 1
12.2235 0 1
12.3409 0 1
12.4582 0 1
12.5756 0 1
12.693 0 1
12.8104 0 1
12.9278 0 1
13.0452 0 1
13.1626 0 1
13.28 0 1
13.3974 0 1
13.5149 0 1
13.6323 0 1
13.7497 0 1
13.8671 0 1
13.9845 0 1
14.1019 0 1
14.2193 0 1
14.3367 0 1
14.4541 0 1
14.5714 0 1
14.6888 0 1
14.8062 0 1
14.9235 0 1
15.0408 0 0
15.1581 0 0
15.2755 0 0
15.3927 0 0
15.51 0 0
15.6273 0 0
15.7445 0 0
15.8617 0 0
15.9789 0 0
16.0961 0 0
16.2132 0 0
16.3304 0 0
16.4475 0 0
16.5646 0 0
16.6816 0 0
16.7986 0 0
16.9156 0 0
17.0326 0 0
17.1496 0 0
17.2665 0 0
17.3833 0 0
17.5002 0 0
17.617 0 0
17.7338 0 0
17.8505 0 0
17.9672 0 0
18.0839 0 0
18.2005 0 0
18.3171 0 0
18.4337 0 0
18.5502 0 0
18.6666 0 0
18.7831 0 0
18.8994 0 0
19.0158 0 0
19.1321 0 0
19.2483 0 0
19.3645 0 0
19.4806 0 0
19.5967 0 0
19.7128 0 0
19.8288 0 0
19.9447 0 0
20.0606 0 1
20.1764 0 1
20.2922 0 1
20.4079 0 1
20.5236 0 1
20.6392 0 1
20.7548 0 1
20.8702 0 1
23.3078 0 1
23.4233 0 1
23.539 0 1
23.6547 0 1
23.7704 0 1
23.8862 0 1
24.0021 0 1
24.118 0 1
24.234 0 1
24.35 0 1
24.4661 443 21.0476
24.5822 532 23.0651
24.6984 592 24.3311
24.8146 675 25.9808
24.9309 751 27.4044
25.0472 819 28.6182
25.1636 867 29.4449
25.28 968 31.1127
25.3965 1020 31.9374
25.513 1124 33.5261
25.6296 1140 33.7639
25.7462 1137 33.7194
25.8628 1130 33.6155
25.9795 1177 34.3074
26.0962 1178 34.322
26.213 1149 33.8969
26.3298 1011 31.7962
26.4466 1015 31.8591
26.5635 887 29.7825
26.6804 940 30.6594
26.7973 983 31.3528
26.9143 1044 32.311
27.0313 1087 32.9697
27.1483 1085 32.9393
27.2653 1086 32.9545
27.3824 1098 33.1361
27.4996 1100 33.1662
27.6167 1060 32.5576
27.7339 1094 33.0757
27.8511 1050 32.4037
27.9683 969 31.1288
28.0855 1036 32.187
28.2028 998 31.5911
28.3201 986 31.4006
28.4374 932 30.5287
28.5547 963 31.0322
28.6721 965 31.0644
28.7894 1065 32.6343
28.9068 1090 33.0151
29.0242 1137 33.7194
29.1416 1056 32.4962
29.259 1133 33.6601
29.3764 1199 34.6266
29.4939 1131 33.6303
29.6113 1124 33.5261
29.7288 1015 31.8591
29.8463 932 30.5287
29.9638 914 30.2324
30.0812 911 30.1828
30.1987 906 30.0998
30.3162 993 31.5119
30.4337 1002 31.6544
30.5512 1008 31.749
30.6687 1031 32.1092
30.7862 1047 32.3574
30.9037 1022 31.9687
31.0212 1073 32.7567
31.1387 1027 32.0468
31.2562 1054 32.4654
31.3737 1067 32.665
31.4912 1003 31.6702
31.6087 945 30.7409
31.7262 939 30.6431
31.8436 921 30.348
31.9611 907 30.1164
32.0785 928 30.4631
32.1959 946 30.7571
32.3134 947 30.7734
32.4308 1019 31.9218
32.5482 1060 32.5576
32.6655 1050 32.4037
32.7829 1087 32.9697
32.9002 1076 32.8024
33.0176 1142 33.7935
33.1349 1124 33.5261
33.2522 1040 32.249
33.3694 1013 31.8277
33.4867 975 31.225
33.6039 910 30.1662
33.7211 906 30.0998
33.8383 891 29.8496
33.9554 959 30.9677
34.0725 975 31.225
34.1896 952 30.8545
34.3067 996 31.5595
34.4237 1028 32.0624
34.5407 1072 32.7414
34.6577 1057 32.5115
34.7746 1128 33.5857
34.8915 1067 32.665
35.0084 1034 32.1559
35.1252 961 31
35.242 910 30.1662
35.3587 963 31.0322
35.4755 835 28.8964
35.5921 811 28.4781
35.7088 881 29.6816
35.8254 840 28.9828
35.9419 910 30.1662
36.0584 1012 31.8119
36.1749 984 31.3688
36.2913 977 31.257
36.4077 1025 32.0156
36.524 941 30.6757
36.6403 930 30.4959
36.7565 854 29.2233
36.8727 840 28.9828
36.9889 805 28.3725
37.1049 720 26.8328
37.221 0 1
37.3369 0 1
37.4529 0 1
37.5687 0 1
37.6845 0 1
37.8003 0 1
37.916 0 1
38.0316 0 1
38.1472 0 1
40.5851 0 1
40.7008 0 1
40.8164 0 1
40.9322 0 1
41.048 0 1
41.1639 0 1
41.2798 0 1
41.3958 0 1
41.5118 0 1
41.6279 0 1
41.744 498 22.3159
41.8602 560 23.6643
41.9765 569 23.8537
42.0928 601 24.5153
42.2091 661 25.7099
42.3255 640 25.2982
42.4419 665 25.7876
42.5584 683 26.1343
42.675 672 25.923
42.7915 753 27.4408
42.9081 764 27.6405
43.0248 823 28.688
43.1415 806 28.3901
43.2582 805 28.3725
43.375 843 29.0345
43.4918 875 29.5804
43.6087 909 30.1496
43.7256 869 29.4788
43.8425 784 28
43.9595 842 29.0172
44.0765 809 28.4429
44.1935 755 27.4773
44.3106 728 26.9815
44.4277 706 26.5707
44.5448 688 26.2298
44.6619 706 26.5707
44.7791 722 26.8701
44.8963 779 27.9106
45.0136 865 29.4109
45.1308 862 29.3598
45.2481 897 29.95
45.3654 831 28.8271
45.4827 906 30.0998
45.6001 905 30.0832
45.7174 874 29.5635
45.8348 816 28.5657
45.9522 810 28.4605
46.0697 721 26.8514
46.1871 777 27.8747
46.3046 786 28.0357
46.422 850 29.1548
46.5395 809 28.4429
46.657 888 29.7993
46.7745 891 29.8496
46.892 900 30
47.0096 867 29.4449
47.1271 902 30.0333
47.2446 930 30.4959
47.3622 882 29.6985
47.4797 918 30.2985
47.5973 834 28.8791
47.7149 814 28.5307
47.8324 789 28.0891
47.95 783 27.9821
48.0675 679 26.0576
48.1851 736 27.1293
48.3027 691 26.2869
48.4202 823 28.688
48.5378 881 29.6816
48.6554 920 30.3315
48.7729 909 30.1496
48.8904 873 29.5466
49.008 886 29.7658
49.1255 915 30.249
49.243 907 30.1164
49.3605 802 28.3196
49.478 766 27.6767
49.5955 736 27.1293
49.713 733 27.074
49.8304 752 27.4226
49.9479 782 27.9643
50.0653 813 28.5132
50.1827 871 29.5127
50.3001 844 29.0517
50.4175 877 29.6142
50.5348 858 29.2916
50.6521 931 30.5123
50.7694 911 30.1828
50.8867 923 30.3809
51.004 900 30
51.1212 896 29.9333
51.2384 828 28.775
51.3556 815 28.5482
51.4727 700 26.4575
51.5899 708 26.6083
51.707 707 26.5895
51.824 747 27.3313
51.9411 780 27.9285
52.0581 864 29.3939
52.175 927 30.4467
52.2919 960 30.9839
52.4088 886 29.7658
52.5257 965 31.0644
52.6425 884 29.7321
52.7593 904 30.0666
52.876 862 29.3598
52.9927 836 28.9137
53.1094 874 29.5635
53.226 788 28.0713
53.3426 785 28.0179
53.4591 758 27.5318
53.5756 768 27.7128
53.692 777 27.8747
53.8084 787 28.0535
53.9248 768 27.7128
54.0411 724 26.9072
54.1573 706 26.5707
54.2735 0 1
54.3896 0 1
54.5057 0 1
54.6217 0 1
54.7377 0 1
54.8537 0 1
54.9695 0 1
55.0853 0 1
55.2011 0 1
55.3168 0 1
55.4324 0 1
57.824 0 1
57.9396 0 1
58.0553 0 1
58.1711 0 1
58.2869 0 1
58.4028 0 1
58.5187 0 1
58.6347 0 1
58.7508 0 1
58.8669 0 1
58.983 550 23.4521
59.0992 658 25.6515
59.2155 735 27.1109
59.3318 742 27.2397
59.4482 867 29.4449
59.5646 946 30.7571
59.681 998 31.5911
59.7975 949 30.8058
59.9141 973 31.1929
60.0306 947 30.7734
60.1473 953 30.8707
60.2639 909 30.1496
60.3807 848 29.1204
60.4974 870 29.4958
60.6142 928 30.4631
60.731 976 31.241
60.8479 1012 31.8119
60.9648 1129 33.6006
61.0818 1138 33.7343
61.1987 1093 33.0606
61.3158 1108 33.2866
61.4328 1075 32.7872
61.5499 1019 31.9218
61.667 973 31.1929
61.7841 937 30.6105
61.9013 916 30.2655
62.0185 1002 31.6544
62.1357 954 30.8869
62.253 1055 32.4808
62.3702 1018 31.9061
62.4875 1034 32.1559
62.6049 1065 32.6343
62.7222 1078 32.8329
62.8396 1075 32.7872
62.9569 1123 33.5112
63.0743 1143 33.8083
63.1918 1100 33.1662
63.3092 1103 33.2114
63.4267 1058 32.5269
63.5441 941 30.6757
63.6616 920 30.3315
63.7791 848 29.1204
63.8966 794 28.178
64.0142 775 27.8388
64.1317 869 29.4788
64.2492 969 31.1288
64.3668 980 31.305
64.4843 1073 32.7567
64.6019 1101 33.1813
64.7195 1081 32.8786
64.837 1014 31.8434
64.9546 1056 32.4962
65.0722 1006 31.7175
65.1898 1037 32.2025
65.3074 1020 31.9374
65.4249 943 30.7083
65.5425 946 30.7571
65.6601 933 30.545
65.7777 992 31.496
65.8952 973 31.1929
66.0128 1066 32.6497
66.1304 1090 33.0151
66.2479 1074 32.7719
66.3655 1065 32.6343
66.483 1062 32.5883
66.6005 1122 33.4963
66.718 1087 32.9697
66.8355 1122 33.4963
66.953 1046 32.3419
67.0705 1065 32.6343
67.1879 937 30.6105
67.3054 899 29.9833
67.4228 821 28.6531
67.5402 727 26.9629
67.6576 746 27.313
67.7749 779 27.9106
67.8923 875 29.5804
68.0096 997 31.5753
68.1269 990 31.4643
68.2442 1056 32.4962
68.3614 1067 32.665
68.4787 1039 32.2335
68.5958 1084 32.9242
68.713 1003 31.6702
68.8302 978 31.273
68.9473 987 31.4166
69.0643 928 30.4631
69.1814 902 30.0333
69.2984 898 29.9666
69.4154 946 30.7571
69.5323 993 31.5119
69.6492 968 31.1127
69.7661 1034 32.1559
69.8829 1031 32.1092
69.9997 1006 31.7175
70.1165 976 31.241
70.2332 983 31.3528
70.3499 952 30.8545
70.4665 913 30.2159
70.5831 874 29.5635
70.6996 867 29.4449
70.8161 832 28.8444
70.9326 729 27
71.049 612 24.7386
71.1653 426 20.6398
71.2817 399 19.975
71.3979 375 19.3649
71.5141 350 18.7083
71.6303 357 18.8944
71.7464 328 18.1108
71.8624 0 1
71.9784 0 1
72.0944 0 1
72.2102 0 1
72.3261 0 1
72.4418 0 1
72.5575 0 1
72.6732 0 1
75.1054 0 1
75.2209 0 1
75.3365 0 1
75.4521 0 1
75.5678 0 1
75.6835 0 1
75.7993 0 1
75.9151 0 1
76.031 0 1
76.147 546 23.3666
76.263 564 23.7487
76.3791 533 23.0868
76.4952 532 23.0651
76.6113 531 23.0434
76.7276 578 24.0416
76.8438 645 25.3969
76.9601 762 27.6043
77.0765 876 29.5973
77.1929 850 29.1548
77.3093 880 29.6648
77.4258 921 30.348
77.5423 885 29.7489
77.6589 885 29.7489
77.7755 876 29.5973
77.8921 853 29.2062
78.0088 763 27.6225
78.1256 785 28.0179
78.2423 830 28.8097
78.3591 792 28.1425
78.4759 751 27.4044
78.5928 807 28.4077
78.7097 926 30.4302
78.8266 923 30.3809
78.9436 886 29.7658
79.0606 994 31.5278
79.1776 922 30.3645
79.2946 912 30.1993
79.4117 912 30.1993
79.5288 896 29.9333
79.6459 886 29.7658
79.7631 907 30.1164
79.8802 798 28.2489
79.9974 729 27
80.1147 593 24.3516
80.2319 531 23.0434
80.3491 582 24.1247
80.4664 616 24.8193
80.5837 740 27.2029
80.701 788 28.0713
80.8183 900 30
80.9357 913 30.2159
81.053 849 29.1376
81.1704 932 30.5287
81.2877 928 30.4631
81.4051 923 30.3809
81.5225 909 30.1496
81.6399 778 27.8927
81.7573 826 28.7402
81.8747 788 28.0713
81.9922 821 28.6531
82.1096 852 29.189
82.227 757 27.5136
82.3444 866 29.4279
82.4619 952 30.8545
82.5793 951 30.8383
82.6967 928 30.4631
82.8142 882 29.6985
82.9316 894 29.8998
83.049 914 30.2324
83.1664 920 30.3315
83.2838 834 28.8791
83.4012 852 29.189
83.5186 834 28.8791
83.636 756 27.4955
83.7534 652 25.5343
83.8708 595 24.3926
83.9881 527 22.9565
84.1055 585 24.1868
84.2228 661 25.7099
84.3401 773 27.8029
84.4575 858 29.2916
84.5747 878 29.6311
84.692 947 30.7734
84.8093 910 30.1662
84.9265 902 30.0333
85.0437 916 30.2655
85.1609 904 30.0666
85.2781 832 28.8444
85.3952 793 28.1603
85.5123 811 28.4781
85.6294 840 28.9828
85.7465 822 28.6705
85.8636 871 29.5127
85.9806 868 29.4618
86.0976 906 30.0998
86.2145 923 30.3809
86.3315 917 30.282
86.4484 936 30.5941
86.5652 924 30.3974
86.682 952 30.8545
86.7988 946 30.7571
86.9156 861 29.3428
87.0323 823 28.688
87.149 788 28.0713
87.2657 706 26.5707
87.3823 659 25.671
87.4988 495 22.2486
87.6154 532 23.0651
87.7318 603 24.5561
87.8483 678 26.0384
87.9647 780 27.9285
88.081 802 28.3196
88.1973 834 28.8791
88.3136 762 27.6043
88.4298 736 27.1293
88.546 716 26.7582
88.6621 586 24.2074
88.7781 426 20.6398
88.8942 0 1
89.0101 0 1
89.126 0 1
89.2419 0 1
89.3577 0 1
89.4734 0 1
89.5891 0 1
89.7047 0 1
89.8203 0 1
89.9358 0 1
92.3269 0 1
92.4424 0 1
92.558 0 1
92.6736 0 1
92.7893 0 1
92.905 0 1
93.0208 0 1
93.1366 0 1
93.2525 0 1
93.3685 0 1
93.4845 0 1
93.6005 558 23.622
93.7167 564 23.7487
93.8328 639 25.2784
93.949 677 26.0192
94.0653 706 26.5707
94.1816 788 28.0713
94.2979 779 27.9106
94.4143 858 29.2916
94.5307 809 28.4429
94.6472 809 28.4429
94.7637 892 29.8664
94.8803 826 28.7402
94.9969 901 30.0167
95.1135 888 29.7993
95.2302 863 29.3769
95.3469 951 30.8383
95.4637 912 30.1993
95.5805 918 30.2985
95.6973 988 31.4325
95.8142 921 30.348
95.9311 912 30.1993
96.048 985 31.3847
96.1649 877 29.6142
96.2819 841 29
96.3989 788 28.0713
96.516 708 26.6083
96.633 579 24.0624
96.7501 513 22.6495
96.8673 561 23.6854
96.9844 604 24.5764
97.1016 708 26.6083
97.2188 815 28.5482
97.336 884 29.7321
97.4532 922 30.3645
97.5704 907 30.1164
97.6877 905 30.0832
97.805 897 29.95
97.9223 918 30.2985
98.0396 866 29.4279
98.1569 850 29.1548
98.2743 823 28.688
98.3916 830 28.8097
98.509 837 28.931
98.6264 855 29.2404
98.7438 885 29.7489
98.8612 954 30.8869
98.9786 965 31.0644
99.096 909 30.1496
99.2134 949 30.8058
99.3308 992 31.496
99.4482 947 30.7734
99.5656 985 31.3847
99.6831 941 30.6757
99.8005 935 30.5778
99.9179 879 29.6479
100.035 757 27.5136
100.153 744 27.2764
100.27 587 24.2281
100.388 574 23.9583
100.505 662 25.7294
100.622 713 26.7021
100.74 856 29.2575
100.857 919 30.315
100.975 918 30.2985
101.092 909 30.1496
101.209 948 30.7896
101.327 940 30.6594
101.444 936 30.5941
101.561 912 30.1993
101.679 861 29.3428
101.796 833 28.8617
101.913 867 29.4449
102.03 927 30.4467
102.148 933 30.545
102.265 914 30.2324
102.382 913 30.2159
102.499 978 31.273
102.616 1016 31.8748
102.733 992 31.496
102.851 1060 32.5576
102.968 1052 32.4345
103.085 1051 32.4191
103.202 1070 32.7109
103.319 933 30.545
103.436 952 30.8545
103.552 850 29.1548
103.669 757 27.5136
103.786 596 24.4131
103.903 571 23.8956
104.02 685 26.1725
104.137 745 27.2947
104.253 846 29.0861
104.37 944 30.7246
104.487 1009 31.7648
104.603 1040 32.249
104.72 976 31.241
104.836 950 30.8221
104.953 956 30.9192
105.069 876 29.5973
105.186 822 28.6705
105.302 897 29.95
105.418 798 28.2489
105.535 810 28.4605
105.651 809 28.4429
105.767 795 28.1957
105.883 764 27.6405
105.999 736 27.1293
106.115 0 1
106.231 0 1
106.347 0 1
106.463 0 1
106.579 0 1
106.694 0 1
106.81 0 1
106.926 0 1
107.041 0 1
107.157 0 1
109.576 0 1
109.692 0 1
109.807 0 1
109.923 0 1
110.039 0 1
110.155 0 1
110.27 0 1
110.386 0 1
110.502 0 1
110.618 324 18
110.735 436 20.8806
110.851 511 22.6053
110.967 586 24.2074
111.083 654 25.5734
111.199 703 26.5141
111.316 715 26.7395
111.432 802 28.3196
111.549 861 29.3428
111.665 907 30.1164
111.782 861 29.3428
111.898 872 29.5296
112.015 792 28.1425
112.132 713 26.7021
112.248 631 25.1197
112.365 517 22.7376
112.482 522 22.8473
112.599 559 23.6432
112.716 624 24.98
112.832 727 26.9629
112.949 803 28.3373
113.066 836 28.9137
113.183 849 29.1376
113.3 902 30.0333
113.417 870 29.4958
113.534 843 29.0345
113.652 793 28.1603
113.769 830 28.8097
113.886 765 27.6586
114.003 824 28.7054
114.12 823 28.688
114.238 799 28.2666
114.355 869 29.4788
114.472 928 30.4631
114.589 862 29.3598
114.707 866 29.4279
114.824 922 30.3645
114.942 896 29.9333
115.059 907 30.1164
115.176 932 30.5287
115.294 897 29.95
115.411 888 29.7993
115.529 800 28.2843
115.646 762 27.6043
115.764 726 26.9444
115.881 562 23.7065
115.999 530 23.0217
116.116 546 23.3666
116.234 592 24.3311
116.351 741 27.2213
116.469 776 27.8568
116.586 873 29.5466
116.704 863 29.3769
116.821 868 29.4618
116.939 824 28.7054
117.056 845 29.0689
117.174 854 29.2233
117.291 772 27.7849
117.409 798 28.2489
117.526 765 27.6586
117.644 850 29.1548
117.761 787 28.0535
117.879 837 28.931
117.996 849 29.1376
118.114 838 28.9482
118.231 867 29.4449
118.349 904 30.0666
118.466 914 30.2324
118.584 836 28.9137
118.701 948 30.7896
118.819 860 29.3258
118.936 819 28.6182
119.053 812 28.4956
119.171 792 28.1425
119.288 740 27.2029
119.405 603 24.5561
119.523 543 23.3024
119.64 518 22.7596
119.757 528 22.9783
119.875 592 24.3311
119.992 673 25.9422
120.109 699 26.4386
120.226 780 27.9285
120.343 782 27.9643
120.46 792 28.1425
120.578 793 28.1603
120.695 812 28.4956
120.812 779 27.9106
120.929 748 27.3496
121.046 723 26.8887
121.163 717 26.7769
121.279 789 28.0891
121.396 791 28.1247
121.513 796 28.2135
121.63 733 27.074
121.747 785 28.0179
121.863 790 28.1069
121.98 786 28.0357
122.097 737 27.1477
122.213 813 28.5132
122.33 783 27.9821
122.446 773 27.8029
122.563 726 26.9444
122.679 677 26.0192
122.795 648 25.4558
122.912 533 23.0868
123.028 400 20
123.144 317 17.8045
123.26 250 15.8114
123.377 0 1
123.493 0 1
123.609 0 1
123.725 0 1
123.84 0 1
123.956 0 1
124.072 0 1
124.188 0 1
124.303 0 1
124.419 0 1
126.852 0 1
126.968 0 1
127.083 0 1
127.199 0 1
127.315 0 1
127.431 0 1
127.547 0 1
127.663 0 1
127.779 0 1
127.895 0 1
128.011 0 1
128.127 0 1
128.243 0 1
128.359 638 25.2587
128.476 647 25.4362
128.592 635 25.1992
128.708 525 22.9129
128.825 547 23.388
128.941 597 24.4336
129.058 716 26.7582
129.174 743 27.258
129.291 848 29.1204
129.408 871 29.5127
129.524 846 29.0861
129.641 889 29.8161
129.758 878 29.6311
129.875 897 29.95
129.992 902 30.0333
130.108 868 29.4618
130.225 826 28.7402
130.342 870 29.4958
130.459 862 29.3598
130.576 860 29.3258
130.693 895 29.9166
130.81 899 29.9833
130.928 858 29.2916
131.045 916 30.2655
131.162 906 30.0998
131.279 908 30.133
131.396 847 29.1033
131.513 805 28.3725
131.631 852 29.189
131.748 827 28.7576
131.865 789 28.0891
131.983 676 26
132.1 634 25.1794
132.217 544 23.3238
132.335 477 21.8403
132.452 579 24.0624
132.57 645 25.3969
132.687 744 27.2764
132.804 854 29.2233
132.922 812 28.4956
133.039 890 29.8329
133.157 826 28.7402
133.274 833 28.8617
133.392 862 29.3598
133.509 867 29.4449
133.627 802 28.3196
133.744 864 29.3939
133.862 879 29.6479
133.979 818 28.6007
134.097 859 29.3087
134.214 857 29.2746
134.332 819 28.6182
134.449 900 30
134.567 896 29.9333
134.684 862 29.3598
134.802 859 29.3087
134.919 812 28.4956
135.037 844 29.0517
135.154 806 28.3901
135.272 787 28.0535
135.389 770 27.7489
135.507 756 27.4955
135.624 671 25.9037
135.742 516 22.7156
135.859 540 23.2379
135.977 588 24.2487
136.094 602 24.5357
136.211 683 26.1343
136.329 782 27.9643
136.446 841 29
136.564 869 29.4788
136.681 876 29.5973
136.798 873 29.5466
136.915 881 29.6816
137.033 859 29.3087
137.15 880 29.6648
137.267 839 28.9655
137.384 825 28.7228
137.502 776 27.8568
137.619 837 28.931
137.736 818 28.6007
137.853 790 28.1069
137.97 817 28.5832
138.087 813 28.5132
138.204 829 28.7924
138.321 818 28.6007
138.438 863 29.3769
138.555 833 28.8617
138.672 854 29.2233
138.788 767 27.6948
138.905 793 28.1603
139.022 726 26.9444
139.139 701 26.4764
139.255 670 25.8844
139.372 544 23.3238
139.488 515 22.6936
139.605 480 21.9089
139.721 508 22.5389
139.838 540 23.2379
139.954 625 25
140.071 614 24.779
140.187 501 22.383
140.303 427 20.664
140.419 404 20.0998
140.535 385 19.6214
140.652 381 19.5192
140.768 0 1
140.884 0 1
141 0 1
141.115 0 1
141.231 0 1
141.347 0 1
141.463 0 1
141.578 0 1
141.694 0 1
144.104 0 1
144.219 0 1
144.335 0 1
144.45 0 1
144.566 0 1
144.682 0 1
144.798 0 1
144.914 0 1
145.03 0 1
145.146 477 21.8403
145.262 547 23.388
145.378 587 24.2281
145.494 630 25.0998
145.61 601 24.5153
145.726 624 24.98
145.842 632 25.1396
145.959 643 25.3574
146.075 596 24.4131
146.192 634 25.1794
146.308 593 24.3516
146.425 618 24.8596
146.541 626 25.02
146.658 657 25.632
146.774 668 25.8457
146.891 624 24.98
147.008 620 24.8998
147.125 630 25.0998
147.241 645 25.3969
147.358 633 25.1595
147.475 644 25.3772
147.592 672 25.923
147.709 585 24.1868
147.826 559 23.6432
147.943 546 23.3666
148.06 512 22.6274
148.177 520 22.8035
148.294 410 20.2485
148.411 424 20.5913
148.528 470 21.6795
148.645 549 23.4307
148.762 559 23.6432
148.88 638 25.2587
148.997 672 25.923
149.114 655 25.593
149.231 631 25.1197
149.349 659 25.671
149.466 625 25
149.583 591 24.3105
149.701 623 24.96
149.818 593 24.3516
149.935 628 25.0599
150.053 573 23.9374
150.17 583 24.1454
150.287 577 24.0208
150.405 655 25.593
150.522 647 25.4362
150.64 650 25.4951
150.757 594 24.3721
150.875 606 24.6171
150.992 648 25.4558
151.11 646 25.4165
151.227 591 24.3105
151.344 590 24.2899
151.462 562 23.7065
151.579 509 22.561
151.697 519 22.7816
151.814 483 21.9773
151.932 442 21.0238
152.049 444 21.0713
152.167 496 22.2711
152.284 486 22.0454
152.402 583 24.1454
152.519 562 23.7065
152.636 655 25.593
152.754 651 25.5147
152.871 670 25.8844
152.989 636 25.219
153.106 636 25.219
153.223 623 24.96
153.341 621 24.9199
153.458 600 24.4949
153.575 618 24.8596
153.693 637 25.2389
153.81 557 23.6008
153.927 641 25.318
154.044 617 24.8395
154.162 591 24.3105
154.279 646 25.4165
154.396 608 24.6577
154.513 662 25.7294
154.63 589 24.2693
154.747 633 25.1595
154.864 562 23.7065
154.981 573 23.9374
155.098 585 24.1868
155.215 567 23.8118
155.332 501 22.383
155.449 459 21.4243
155.566 417 20.4206
155.683 461 21.4709
155.8 511 22.6053
155.917 579 24.0624
156.033 589 24.2693
156.15 0 1
156.267 0 1
156.383 0 1
156.5 0 1
156.617 0 1
156.733 0 1
156.85 0 1
156.966 0 1
157.082 0 1
157.199 0 1
157.315 0 1
157.431 0 1
157.547 0 1
157.664 0 1
157.78 0 1
157.896 0 1
158.012 0 1
158.128 0 1
158.244 0 1
158.359 0 1
158.475 0 1
158.591 0 1
158.706 0 1
