
6.15755 0 1
6.2731 0 1
6.3887 0 1
6.50437 0 1
6.62009 0 1
6.73587 0 1
6.8517 0 1
6.96759 0 1
7.08353 0 1
7.19952 0 1
7.31557 0 1
7.43166 0 1
7.54781 0 1
7.664 0 1
7.78024 0 1
7.89653 0 1
8.01286 0 1
8.12924 0 1
8.24567 0 1
8.36213 0 1
8.47864 0 1
8.59519 0 1
8.71178 0 1
8.82841 0 1
8.94508 0 1
9.06179 0 1
9.17853 0 1
9.29531 0 1
9.41212 0 1
9.52897 0 1
9.64584 0 1
9.76276 0 1
9.8797 0 1
9.99667 0 1
10.1137 0 1
10.2307 0 1
10.3478 0 1
10.4648 0 1
10.5819 0 1
10.6991 0 1
10.8162 0 1
10.9334 0 1
11.0506 0 1
11.1678 0 1
11.285 0 1
11.4023 0 1
11.5196 0 1
11.6369 0 1
11.7542 0 1
11.8715 0 1
11.9888 0 1
12.1062 0 1
12.2235 0 1
12.3409 0 1
12.4582 0 1
12.5756 0 1
12.693 0 1
12.8104 0 1
12.9278 0 1
13.0452 0 1
13.1626 0 1
13.28 0 1
13.3974 0 1
13.5149 0 1
13.6323 0 1
13.7497 0 1
13.8671 0 1
13.9845 0 1
14.1019 0 1
14.2193 0 1
14.3367 0 1
14.4541 0 1
14.5714 0 1
14.6888 0 1
14.8062 0 1
14.9235 0 1
15.0408 21595 146.952
15.1581 22309 149.362
15.2755 22905 151.344
15.3927 22599 150.33
15.51 22469 149.897
15.6273 22189 148.96
15.7445 21930 148.088
15.8617 21854 147.831
15.9789 21135 145.379
16.0961 21126 145.348
16.2132 20157 141.975
16.3304 20527 143.272
16.4475 20331 142.587
16.5646 20635 143.649
16.6816 20588 143.485
16.7986 20637 143.656
16.9156 20489 143.14
17.0326 20610 143.562
17.1496 20491 143.147
17.2665 20850 144.395
17.3833 21075 145.172
17.5002 20942 144.714
17.617 21429 146.386
17.7338 22081 148.597
17.8505 23037 151.779
17.9672 24107 155.264
18.0839 24882 157.74
18.2005 26010 161.276
18.3171 26590 163.064
18.4337 26877 163.942
18.5502 26873 163.93
18.6666 26718 163.456
18.7831 26573 163.012
18.8994 25871 160.845
19.0158 24809 157.509
19.1321 24088 155.203
19.2483 23281 152.581
19.3645 22856 151.182
19.4806 22251 149.168
19.5967 21457 146.482
19.7128 21149 145.427
19.8288 20273 142.383
19.9447 18321 135.355
20.0606 0 1
20.1764 0 1
20.2922 0 1
20.4079 0 1
20.5236 0 1
20.6392 0 1
20.7548 0 1
20.8702 0 1
23.3078 0 1
23.4233 0 1
23.539 0 1
23.6547 0 1
23.7704 0 1
23.8862 0 1
24.0021 0 1
24.118 0 1
24.234 0 1
24.35 0 1
24.4661 21294 145.925
24.5822 21229 145.702
24.6984 21185 145.551
24.8146 21023 144.993
24.9309 20809 144.253
25.0472 20767 144.108
25.1636 20557 143.377
25.28 20646 143.687
25.3965 20850 144.395
25.513 21135 145.379
25.6296 21818 147.709
25.7462 22324 149.412
25.8628 22736 150.785
25.9795 22763 150.874
26.0962 23078 151.914
26.213 22787 150.954
26.3298 23149 152.148
26.4466 23259 152.509
26.5635 23855 154.451
26.6804 24681 157.102
26.7973 24748 157.315
26.9143 24971 158.022
27.0313 24708 157.188
27.1483 25063 158.313
27.2653 24508 156.55
27.3824 24394 156.186
27.4996 24063 155.123
27.6167 22921 151.397
27.7339 22015 148.375
27.8511 21606 146.99
27.9683 21327 146.038
28.0855 20527 143.272
28.2028 20453 143.014
28.3201 20033 141.538
28.4374 20296 142.464
28.5547 20144 141.93
28.6721 19901 141.071
28.7894 20044 141.577
28.9068 20165 142.004
29.0242 20042 141.57
29.1416 19892 141.039
29.259 20187 142.081
29.3764 19969 141.312
29.4939 20371 142.727
29.6113 20599 143.524
29.7288 20985 144.862
29.8463 21303 145.955
29.9638 21964 148.203
30.0812 22798 150.99
30.1987 23180 152.25
30.3162 23346 152.794
30.4337 23835 154.386
30.5512 23718 154.006
30.6687 22993 151.634
30.7862 23782 154.214
30.9037 22770 150.897
31.0212 22546 150.153
31.1387 21841 147.787
31.2562 20981 144.848
31.3737 20547 143.342
31.4912 19554 139.836
31.6087 19326 139.018
31.7262 19078 138.123
31.8436 19054 138.036
31.9611 18966 137.717
32.0785 19012 137.884
32.1959 19618 140.064
32.3134 19940 141.209
32.4308 19913 141.113
32.5482 19647 140.168
32.6655 19773 140.616
32.7829 19555 139.839
32.9002 19146 138.369
33.0176 19365 139.158
33.1349 19501 139.646
33.2522 20093 141.75
33.3694 19861 140.929
33.4867 20640 143.666
33.6039 21346 146.103
33.7211 22043 148.469
33.8383 22143 148.805
33.9554 22469 149.897
34.0725 21926 148.074
34.1896 21860 147.851
34.3067 21661 147.177
34.4237 21216 145.657
34.5407 21290 145.911
34.6577 20707 143.899
34.7746 20123 141.856
34.8915 19715 140.41
35.0084 18995 137.822
35.1252 18526 136.11
35.242 18212 134.952
35.3587 18016 134.224
35.4755 17929 133.899
35.5921 18275 135.185
35.7088 18590 136.345
35.8254 19176 138.477
35.9419 19613 140.046
36.0584 19819 140.78
36.1749 19749 140.531
36.2913 19308 138.953
36.4077 18879 137.401
36.524 18596 136.367
36.6403 18170 134.796
36.7565 18303 135.289
36.8727 18264 135.144
36.9889 18265 135.148
37.1049 18520 136.088
37.221 0 1
37.3369 0 1
37.4529 0 1
37.5687 0 1
37.6845 0 1
37.8003 0 1
37.916 0 1
38.0316 0 1
38.1472 0 1
40.5851 0 1
40.7008 0 1
40.8164 0 1
40.9322 0 1
41.048 0 1
41.1639 0 1
41.2798 0 1
41.3958 0 1
41.5118 0 1
41.6279 0 1
41.744 14597 120.818
41.8602 15286 123.637
41.9765 15656 125.124
42.0928 15856 125.921
42.2091 15680 125.22
42.3255 16198 127.271
42.4419 16384 128
42.5584 16452 128.265
42.675 16974 130.284
42.7915 17136 130.905
42.9081 17147 130.947
43.0248 17101 130.771
43.1415 17393 131.883
43.2582 17630 132.778
43.375 17380 131.833
43.4918 17427 132.011
43.6087 17641 132.819
43.7256 17233 131.275
43.8425 17075 130.671
43.9595 16464 128.312
44.0765 16305 127.691
44.1935 15930 126.214
44.3106 16354 127.883
44.4277 16218 127.35
44.5448 16270 127.554
44.6619 15779 125.614
44.7791 15624 124.996
44.8963 15155 123.106
45.0136 14955 122.291
45.1308 14750 121.45
45.2481 14370 119.875
45.3654 14306 119.608
45.4827 13794 117.448
45.6001 13470 116.06
45.7174 13284 115.256
45.8348 13060 114.28
45.9522 12882 113.499
46.0697 12802 113.146
46.1871 12420 111.445
46.3046 12404 111.373
46.422 12390 111.31
46.5395 12307 110.937
46.657 11974 109.426
46.7745 12193 110.422
46.892 12185 110.386
47.0096 12163 110.286
47.1271 11785 108.559
47.2446 11845 108.835
47.3622 11518 107.322
47.4797 11444 106.977
47.5973 11320 106.395
47.7149 11434 106.93
47.8324 11380 106.677
47.95 11229 105.967
48.0675 10899 104.398
48.1851 10700 103.441
48.3027 10353 101.75
48.4202 10124 100.618
48.5378 10086 100.429
48.6554 9917 99.5841
48.7729 9966 99.8299
48.8904 9530 97.6217
49.008 9768 98.8332
49.1255 9395 96.9278
49.243 9360 96.7471
49.3605 9357 96.7316
49.478 9436 97.1391
49.5955 9548 97.7139
49.713 9625 98.1071
49.8304 9863 99.3126
49.9479 9817 99.0808
50.0653 10107 100.534
50.1827 10439 102.171
50.3001 10500 102.47
50.4175 10698 103.431
50.5348 10932 104.556
50.6521 11237 106.005
50.7694 11107 105.39
50.8867 11623 107.81
51.004 11805 108.651
51.1212 12532 111.946
51.2384 12962 113.851
51.3556 13421 115.849
51.4727 13377 115.659
51.5899 13557 116.435
51.707 13344 115.516
51.824 13260 115.152
51.9411 13137 114.617
52.0581 13108 114.49
52.175 12894 113.552
52.2919 12965 113.864
52.4088 12641 112.432
52.5257 12457 111.611
52.6425 11995 109.522
52.7593 12160 110.272
52.876 12267 110.756
52.9927 12427 111.476
53.1094 12819 113.221
53.226 13165 114.739
53.3426 13558 116.439
53.4591 13652 116.842
53.5756 14120 118.828
53.692 14441 120.171
53.8084 14844 121.836
53.9248 15253 123.503
54.0411 15324 123.79
54.1573 15529 124.615
54.2735 0 1
54.3896 0 1
54.5057 0 1
54.6217 0 1
54.7377 0 1
54.8537 0 1
54.9695 0 1
55.0853 0 1
55.2011 0 1
55.3168 0 1
55.4324 0 1
57.824 0 1
57.9396 0 1
58.0553 0 1
58.1711 0 1
58.2869 0 1
58.4028 0 1
58.5187 0 1
58.6347 0 1
58.7508 0 1
58.8669 0 1
58.983 16750 129.422
59.0992 18054 134.365
59.2155 18557 136.224
59.3318 19029 137.946
59.4482 19951 141.248
59.5646 20336 142.604
59.681 21066 145.141
59.7975 21480 146.561
59.9141 21606 146.99
60.0306 21340 146.082
60.1473 20775 144.135
60.2639 19705 140.374
60.3807 19543 139.796
60.4974 18666 136.624
60.6142 18015 134.22
60.731 17233 131.275
60.8479 16093 126.858
60.9648 15133 123.016
61.0818 14698 121.235
61.1987 14440 120.167
61.3158 14674 121.136
61.4328 15321 123.778
61.5499 15461 124.342
61.667 15931 126.218
61.7841 15760 125.539
61.9013 15943 126.266
62.0185 16290 127.632
62.1357 16542 128.616
62.253 16802 129.623
62.3702 16603 128.853
62.4875 16952 130.2
62.6049 17338 131.674
62.7222 17367 131.784
62.8396 18615 136.437
62.9569 19362 139.147
63.0743 19909 141.099
63.1918 20300 142.478
63.3092 20313 142.524
63.4267 20321 142.552
63.5441 20132 141.887
63.6616 19688 140.314
63.7791 18865 137.35
63.8966 18268 135.159
64.0142 17340 131.681
64.1317 16249 127.472
64.2492 14831 121.783
64.3668 14030 118.448
64.4843 13725 117.154
64.6019 13315 115.391
64.7195 13105 114.477
64.837 13436 115.914
64.9546 13550 116.404
65.0722 14303 119.595
65.1898 14437 120.154
65.3074 14748 121.441
65.4249 14782 121.581
65.5425 15511 124.543
65.6601 15382 124.024
65.7777 15715 125.359
65.8952 15769 125.575
66.0128 15831 125.821
66.1304 16071 126.771
66.2479 16655 129.054
66.3655 17845 133.585
66.483 18544 136.176
66.6005 19236 138.694
66.718 19685 140.303
66.8355 19787 140.666
66.953 19655 140.196
67.0705 19551 139.825
67.1879 19228 138.665
67.3054 18757 136.956
67.4228 18022 134.246
67.5402 16194 127.256
67.6576 14604 120.847
67.7749 13596 116.602
67.8923 13751 117.265
68.0096 13108 114.49
68.1269 12726 112.81
68.2442 12904 113.596
68.3614 12753 112.929
68.4787 13019 114.101
68.5958 14058 118.566
68.713 14468 120.283
68.8302 14861 121.906
68.9473 14820 121.737
69.0643 14943 122.242
69.1814 15287 123.641
69.2984 15645 125.08
69.4154 16264 127.53
69.5323 16336 127.812
69.6492 16369 127.941
69.7661 17128 130.874
69.8829 18117 134.599
69.9997 19300 138.924
70.1165 19950 141.244
70.2332 20487 143.133
70.3499 20404 142.843
70.4665 20650 143.701
70.5831 20864 144.444
70.6996 20538 143.311
70.8161 20436 142.955
70.9326 19258 138.773
71.049 17210 131.187
71.1653 15733 125.431
71.2817 14703 121.256
71.3979 13958 118.144
71.5141 13278 115.23
71.6303 13179 114.8
71.7464 12222 110.553
71.8624 0 1
71.9784 0 1
72.0944 0 1
72.2102 0 1
72.3261 0 1
72.4418 0 1
72.5575 0 1
72.6732 0 1
75.1054 0 1
75.2209 0 1
75.3365 0 1
75.4521 0 1
75.5678 0 1
75.6835 0 1
75.7993 0 1
75.9151 0 1
76.031 0 1
76.147 17766 133.289
76.263 17403 131.92
76.3791 16381 127.988
76.4952 15283 123.624
76.6113 14740 121.408
76.7276 14359 119.829
76.8438 14101 118.748
76.9601 13859 117.724
77.0765 13688 116.996
77.1929 13476 116.086
77.3093 13446 115.957
77.4258 13604 116.636
77.5423 14737 121.396
77.6589 14982 122.401
77.7755 14937 122.217
77.8921 14615 120.893
78.0088 14901 122.07
78.1256 15193 123.26
78.2423 15433 124.23
78.3591 16171 127.165
78.4759 16350 127.867
78.5928 17104 130.782
78.7097 18140 134.685
78.8266 18541 136.165
78.9436 20076 141.69
79.0606 20127 141.87
79.1776 20265 142.355
79.2946 20648 143.694
79.4117 20708 143.903
79.5288 20711 143.913
79.6459 20167 142.011
79.7631 19278 138.845
79.8802 17929 133.899
79.9974 16628 128.95
80.1147 15630 125.02
80.2319 14854 121.877
80.3491 14309 119.62
80.4664 13984 118.254
80.5837 13689 117
80.701 13412 115.81
80.8183 13448 115.966
80.9357 13250 115.109
81.053 13560 116.447
81.1704 14571 120.71
81.2877 15070 122.76
81.4051 14826 121.762
81.5225 14585 120.768
81.6399 14486 120.358
81.7573 15146 123.069
81.8747 15298 123.685
81.9922 15824 125.793
82.1096 16647 129.023
82.227 17604 132.68
82.3444 18501 136.018
82.4619 19473 139.546
82.5793 20912 144.61
82.6967 20259 142.334
82.8142 20621 143.6
82.9316 21178 145.527
83.049 20905 144.586
83.1664 20633 143.642
83.2838 19808 140.741
83.4012 18788 137.069
83.5186 17146 130.943
83.636 15967 126.361
83.7534 15407 124.125
83.8708 14785 121.594
83.9881 14399 119.996
84.1055 14136 118.895
84.2228 14314 119.641
84.3401 13966 118.178
84.4575 14204 119.181
84.5747 14390 119.958
84.692 14937 122.217
84.8093 15610 124.94
84.9265 15717 125.367
85.0437 15756 125.523
85.1609 15450 124.298
85.2781 15443 124.27
85.3952 15952 126.301
85.5123 16768 129.491
85.6294 17088 130.721
85.7465 18434 135.772
85.8636 19299 138.921
85.9806 20342 142.625
86.0976 21085 145.207
86.2145 21282 145.884
86.3315 21729 147.408
86.4484 22872 151.235
86.5652 22834 151.109
86.682 22474 149.913
86.7988 22392 149.64
86.9156 20952 144.748
87.0323 19777 140.631
87.149 18186 134.855
87.2657 17466 132.159
87.3823 16625 128.938
87.4988 16124 126.98
87.6154 15645 125.08
87.7318 15412 124.145
87.8483 15540 124.66
87.9647 15301 123.697
88.081 15202 123.296
88.1973 15713 125.352
88.3136 16550 128.647
88.4298 17021 130.465
88.546 16525 128.55
88.6621 15924 126.19
88.7781 15666 125.164
88.8942 0 1
89.0101 0 1
89.126 0 1
89.2419 0 1
89.3577 0 1
89.4734 0 1
89.5891 0 1
89.7047 0 1
89.8203 0 1
89.9358 0 1
92.3269 0 1
92.4424 0 1
92.558 0 1
92.6736 0 1
92.7893 0 1
92.905 0 1
93.0208 0 1
93.1366 0 1
93.2525 0 1
93.3685 0 1
93.4845 0 1
93.6005 15262 123.539
93.7167 15374 123.992
93.8328 15117 122.951
93.949 15119 122.959
94.0653 15128 122.996
94.1816 15407 124.125
94.2979 16021 126.574
94.4143 16677 129.139
94.5307 17614 132.718
94.6472 18140 134.685
94.7637 19286 138.874
94.8803 20166 142.007
94.9969 20908 144.596
95.1135 21271 145.846
95.2302 21041 145.055
95.3469 21064 145.134
95.4637 21178 145.527
95.5805 21270 145.842
95.6973 21419 146.352
95.8142 20725 143.962
95.9311 19752 140.542
96.048 18534 136.14
96.1649 17552 132.484
96.2819 17119 130.84
96.3989 16232 127.405
96.516 16405 128.082
96.633 15631 125.024
96.7501 15256 123.515
96.8673 14840 121.82
96.9844 14869 121.939
97.1016 14779 121.569
97.2188 15022 122.564
97.336 15664 125.156
97.4532 15676 125.204
97.5704 15464 124.354
97.6877 15097 122.87
97.805 14530 120.54
97.9223 14693 121.215
98.0396 15047 122.666
98.1569 15925 126.194
98.2743 16722 129.314
98.3916 17401 131.913
98.509 18471 135.908
98.6264 19347 139.093
98.7438 19919 141.135
98.8612 20379 142.755
98.9786 20146 141.937
99.096 20452 143.01
99.2134 20513 143.224
99.3308 20802 144.229
99.4482 20359 142.685
99.5656 19611 140.039
99.6831 18327 135.377
99.8005 17517 132.352
99.9179 16568 128.717
100.035 15815 125.758
100.153 15168 123.158
100.27 14912 122.115
100.388 14433 120.137
100.505 14442 120.175
100.622 14249 119.369
100.74 14126 118.853
100.857 14623 120.926
100.975 14809 121.692
101.092 14865 121.922
101.209 14526 120.524
101.327 14544 120.599
101.444 14269 119.453
101.561 14834 121.795
101.679 15295 123.673
101.796 16256 127.499
101.913 17355 131.738
102.03 18466 135.89
102.148 19885 141.014
102.265 19306 138.946
102.382 22473 149.91
102.499 21034 145.031
102.616 20863 144.44
102.733 21717 147.367
102.851 22183 148.94
102.968 22198 148.99
103.085 21124 145.341
103.202 20078 141.697
103.319 19153 138.394
103.436 18176 134.818
103.552 17481 132.216
103.669 16705 129.248
103.786 16630 128.957
103.903 16259 127.511
104.02 16062 126.736
104.137 15475 124.399
104.253 15812 125.746
104.37 16005 126.511
104.487 16200 127.279
104.603 15919 126.171
104.72 15230 123.41
104.836 15819 125.774
104.953 16023 126.582
105.069 16395 128.043
105.186 16869 129.881
105.302 18092 134.507
105.418 19345 139.086
105.535 21047 145.076
105.651 21797 147.638
105.767 21955 148.172
105.883 21449 146.455
105.999 21093 145.234
106.115 0 1
106.231 0 1
106.347 0 1
106.463 0 1
106.579 0 1
106.694 0 1
106.81 0 1
106.926 0 1
107.041 0 1
107.157 0 1
109.576 0 1
109.692 0 1
109.807 0 1
109.923 0 1
110.039 0 1
110.155 0 1
110.27 0 1
110.386 0 1
110.502 0 1
110.618 17472 132.182
110.735 18693 136.722
110.851 18802 137.12
110.967 18938 137.615
111.083 18548 136.191
111.199 18936 137.608
111.316 19877 140.986
111.432 19984 141.365
111.549 19854 140.904
111.665 18994 137.819
111.782 17685 132.985
111.898 16998 130.376
112.015 16510 128.491
112.132 15980 126.412
112.248 15095 122.862
112.365 14707 121.272
112.482 14379 119.912
112.599 13480 116.103
112.716 13257 115.139
112.832 13007 114.048
112.949 12700 112.694
113.066 12534 111.955
113.183 12147 110.213
113.3 11896 109.069
113.417 12098 109.991
113.534 12462 111.633
113.652 13114 114.516
113.769 13689 117
113.886 14207 119.193
114.003 14512 120.466
114.12 15044 122.654
114.238 15736 125.443
114.355 15799 125.694
114.472 15844 125.873
114.589 14558 120.657
114.707 15166 123.15
114.824 15621 124.984
114.942 16218 127.35
115.059 15703 125.312
115.176 14969 122.348
115.294 14601 120.835
115.411 14179 119.076
115.529 13234 115.039
115.646 12772 113.013
115.764 12468 111.66
115.881 11850 108.858
115.999 11439 106.953
116.116 10911 104.456
116.234 10428 102.118
116.351 10384 101.902
116.469 9964 99.8198
116.586 9793 98.9596
116.704 9706 98.519
116.821 9525 97.5961
116.939 9821 99.101
117.056 10029 100.145
117.174 10601 102.961
117.291 10781 103.832
117.409 11216 105.906
117.526 11637 107.875
117.644 11959 109.357
117.761 12296 110.887
117.879 12689 112.645
117.996 12456 111.606
118.114 12250 110.68
118.231 12238 110.625
118.349 12634 112.401
118.466 13301 115.33
118.584 13845 117.665
118.701 13591 116.58
118.819 13376 115.655
118.936 13309 115.365
119.053 13003 114.031
119.171 12811 113.186
119.288 12577 112.147
119.405 12067 109.85
119.523 11793 108.596
119.64 11507 107.271
119.757 11238 106.009
119.875 10731 103.591
119.992 10682 103.354
120.109 10288 101.43
120.226 10333 101.651
120.343 10329 101.632
120.46 10215 101.069
120.578 10728 103.576
120.695 11311 106.353
120.812 11691 108.125
120.929 12198 110.445
121.046 12427 111.476
121.163 12803 113.15
121.279 13249 115.104
121.396 13463 116.03
121.513 14089 118.697
121.63 13906 117.924
121.747 13570 116.49
121.863 12755 112.938
121.98 13462 116.026
122.097 14311 119.629
122.213 15171 123.171
122.33 15481 124.423
122.446 15613 124.952
122.563 15331 123.818
122.679 15406 124.121
122.795 15109 122.919
122.912 15196 123.272
123.028 14675 121.14
123.144 14426 120.108
123.26 14072 118.625
123.377 0 1
123.493 0 1
123.609 0 1
123.725 0 1
123.84 0 1
123.956 0 1
124.072 0 1
124.188 0 1
124.303 0 1
124.419 0 1
126.852 0 1
126.968 0 1
127.083 0 1
127.199 0 1
127.315 0 1
127.431 0 1
127.547 0 1
127.663 0 1
127.779 0 1
127.895 0 1
128.011 0 1
128.127 0 1
128.243 0 1
128.359 17431 132.027
128.476 17214 131.202
128.592 16624 128.934
128.708 16362 127.914
128.825 15757 125.527
128.941 15308 123.726
129.058 14945 122.25
129.174 14716 121.31
129.291 14309 119.62
129.408 14327 119.695
129.524 14244 119.348
129.641 14387 119.946
129.758 14428 120.117
129.875 14632 120.963
129.992 15025 122.577
130.108 14971 122.356
130.225 14959 122.307
130.342 15454 124.314
130.459 15857 125.925
130.576 15051 122.683
130.693 13795 117.452
130.81 12212 110.508
130.928 12485 111.736
131.045 14281 119.503
131.162 15127 122.992
131.279 15557 124.728
131.396 15601 124.904
131.513 15231 123.414
131.631 15316 123.758
131.748 14914 122.123
131.865 15317 123.762
131.983 15118 122.955
132.1 14857 121.889
132.217 14202 119.172
132.335 14006 118.347
132.452 13801 117.478
132.57 13267 115.182
132.687 12606 112.276
132.804 13492 116.155
132.922 12886 113.517
133.039 12563 112.085
133.157 12226 110.571
133.274 12542 111.991
133.392 12509 111.844
133.509 12319 110.991
133.627 12356 111.158
133.744 12426 111.472
133.862 12754 112.934
133.979 12768 112.996
134.097 12430 111.49
134.214 11457 107.037
134.332 9546 97.7036
134.449 9657 98.27
134.567 10908 104.441
134.684 11662 107.991
134.802 12139 110.177
134.919 12145 110.204
135.037 12054 109.791
135.154 12081 109.914
135.272 12241 110.639
135.389 12152 110.236
135.507 12057 109.804
135.624 11726 108.287
135.742 11519 107.327
135.859 11216 105.906
135.977 10992 104.843
136.094 10760 103.73
136.211 10751 103.687
136.329 10561 102.767
136.446 10424 102.098
136.564 10174 100.866
136.681 10072 100.359
136.798 9937 99.6845
136.915 9935 99.6745
137.033 10014 100.07
137.15 9924 99.6193
137.267 10055 100.275
137.384 10109 100.544
137.502 10419 102.074
137.619 10245 101.218
137.736 9849 99.2421
137.853 8486 92.1195
137.97 7786 88.2383
138.087 8637 92.9355
138.204 9970 99.8499
138.321 10556 102.742
138.438 10973 104.752
138.555 11272 106.17
138.672 11252 106.075
138.788 11494 107.21
138.905 11765 108.467
139.022 11619 107.791
139.139 11624 107.815
139.255 11664 108
139.372 11616 107.778
139.488 11757 108.43
139.605 11825 108.743
139.721 11967 109.394
139.838 11901 109.092
139.954 11861 108.908
140.071 11543 107.438
140.187 11659 107.977
140.303 11586 107.638
140.419 11389 106.719
140.535 11427 106.897
140.652 11239 106.014
140.768 0 1
140.884 0 1
141 0 1
141.115 0 1
141.231 0 1
141.347 0 1
141.463 0 1
141.578 0 1
141.694 0 1
144.104 0 1
144.219 0 1
144.335 0 1
144.45 0 1
144.566 0 1
144.682 0 1
144.798 0 1
144.914 0 1
145.03 0 1
145.146 9534 97.6422
145.262 9726 98.6205
145.378 9621 98.0867
145.494 9339 96.6385
145.61 9182 95.8228
145.726 9038 95.0684
145.842 9025 95
145.959 8857 94.1116
146.075 8960 94.6573
146.192 8907 94.3769
146.308 8777 93.6856
146.425 8467 92.0163
146.541 8125 90.1388
146.658 7531 86.7813
146.774 7703 87.7667
146.891 8011 89.5042
147.008 8102 90.0111
147.125 8494 92.1629
147.241 8367 91.4713
147.358 8266 90.9175
147.475 8203 90.5704
147.592 8143 90.2386
147.709 7819 88.4251
147.826 7669 87.5728
147.943 7689 87.6869
148.06 7513 86.6776
148.177 7404 86.0465
148.294 7432 86.209
148.411 7307 85.481
148.528 7244 85.1117
148.645 7126 84.4156
148.762 6845 82.7345
148.88 6824 82.6075
148.997 6902 83.0783
149.114 6122 78.2432
149.231 6468 80.4239
149.349 6359 79.7433
149.466 6633 81.4432
149.583 6426 80.1623
149.701 6522 80.7589
149.818 6405 80.0312
149.935 6333 79.5801
150.053 6354 79.712
150.17 6420 80.1249
150.287 6287 79.2906
150.405 6253 79.0759
150.522 6278 79.2338
150.64 6598 81.2281
150.757 6809 82.5167
150.875 6827 82.6257
150.992 6861 82.8312
151.11 6843 82.7224
151.227 6783 82.359
151.344 6688 81.7802
151.462 6710 81.9146
151.579 6680 81.7313
151.697 6649 81.5414
151.814 6733 82.0549
151.932 6675 81.7007
152.049 6741 82.1036
152.167 6688 81.7802
152.284 6546 80.9074
152.402 6544 80.895
152.519 6417 80.1062
152.636 6405 80.0312
152.754 6474 80.4612
152.871 6390 79.9375
152.989 6610 81.3019
153.106 6771 82.2861
153.223 6945 83.3367
153.341 6946 83.3427
153.458 6679 81.7251
153.575 6706 81.8902
153.693 6854 82.7889
153.81 7145 84.5281
153.927 7443 86.2728
154.044 7506 86.6372
154.162 7862 88.6679
154.279 8145 90.2497
154.396 8313 91.1757
154.513 8510 92.2497
154.63 8782 93.7123
154.747 8629 92.8924
154.864 8817 93.8989
154.981 8582 92.6391
155.098 8776 93.6803
155.215 8868 94.1701
155.332 8727 93.4184
155.449 8647 92.9892
155.566 8597 92.72
155.683 8428 91.8041
155.8 8066 89.8109
155.917 7804 88.3403
156.033 7697 87.7325
156.15 0 1
156.267 0 1
156.383 0 1
156.5 0 1
156.617 0 1
156.733 0 1
156.85 0 1
156.966 0 1
157.082 0 1
157.199 0 1
157.315 0 1
157.431 0 1
157.547 0 1
157.664 0 1
157.78 0 1
157.896 0 1
158.012 0 1
158.128 0 1
158.244 0 1
158.359 0 1
158.475 0 1
158.591 0 1
158.706 0 1
