
6.15755 0 1
6.2731 0 1
6.3887 0 1
6.50437 0 1
6.62009 0 1
6.73587 0 1
6.8517 0 1
6.96759 0 1
7.08353 0 1
7.19952 0 1
7.31557 0 1
7.43166 0 1
7.54781 0 1
7.664 0 1
7.78024 0 1
7.89653 0 1
8.01286 0 1
8.12924 0 1
8.24567 0 1
8.36213 0 1
8.47864 0 1
8.59519 0 1
8.71178 0 1
8.82841 0 1
8.94508 0 1
9.06179 0 1
9.17853 0 1
9.29531 0 1
9.41212 0 1
9.52897 0 1
9.64584 0 1
9.76276 0 1
9.8797 0 1
9.99667 0 1
10.1137 0 1
10.2307 0 1
10.3478 0 1
10.4648 0 1
10.5819 0 1
10.6991 0 1
10.8162 0 1
10.9334 0 1
11.0506 0 1
11.1678 0 1
11.285 0 1
11.4023 0 1
11.5196 0 1
11.6369 0 1
11.7542 0 1
11.8715 0 1
11.9888 0 1
12.1062 0 1
12.2235 0 1
12.3409 0 1
12.4582 0 1
12.5756 0 1
12.693 0 1
12.8104 0 1
12.9278 0 1
13.0452 0 1
13.1626 0 1
13.28 0 1
13.3974 0 1
13.5149 0 1
13.6323 0 1
13.7497 0 1
13.8671 0 1
13.9845 0 1
14.1019 0 1
14.2193 0 1
14.3367 0 1
14.4541 0 1
14.5714 0 1
14.6888 0 1
14.8062 0 1
14.9235 0 1
15.0408 1581 39.7618
15.1581 1723 41.509
15.2755 1672 40.8901
15.3927 1724 41.5211
15.51 1766 42.0238
15.6273 1714 41.4005
15.7445 1708 41.328
15.8617 1712 41.3763
15.9789 1636 40.4475
16.0961 1600 40
16.2132 1596 39.95
16.3304 1537 39.2046
16.4475 1555 39.4335
16.5646 1436 37.8946
16.6816 1466 38.2884
16.7986 1506 38.8072
16.9156 1461 38.223
17.0326 1381 37.1618
17.1496 1342 36.6333
17.2665 1410 37.55
17.3833 1344 36.6606
17.5002 1349 36.7287
17.617 1391 37.2961
17.7338 1424 37.7359
17.8505 1465 38.2753
17.9672 1477 38.4318
18.0839 1459 38.1969
18.2005 1544 39.2938
18.3171 1598 39.975
18.4337 1551 39.3827
18.5502 1575 39.6863
18.6666 1649 40.6079
18.7831 1713 41.3884
18.8994 1626 40.3237
19.0158 1618 40.2244
19.1321 1533 39.1535
19.2483 1474 38.3927
19.3645 1444 38
19.4806 1294 35.9722
19.5967 1251 35.3695
19.7128 1113 33.3617
19.8288 1154 33.9706
19.9447 953 30.8707
20.0606 0 1
20.1764 0 1
20.2922 0 1
20.4079 0 1
20.5236 0 1
20.6392 0 1
20.7548 0 1
20.8702 0 1
23.3078 0 1
23.4233 0 1
23.539 0 1
23.6547 0 1
23.7704 0 1
23.8862 0 1
24.0021 0 1
24.118 0 1
24.234 0 1
24.35 0 1
24.4661 687 26.2107
24.5822 745 27.2947
24.6984 908 30.133
24.8146 911 30.1828
24.9309 1107 33.2716
25.0472 1218 34.8999
25.1636 1286 35.8608
25.28 1367 36.973
25.3965 1464 38.2623
25.513 1560 39.4968
25.6296 1489 38.5876
25.7462 1665 40.8044
25.8628 1634 40.4228
25.9795 1643 40.5339
26.0962 1672 40.8901
26.213 1601 40.0125
26.3298 1659 40.7308
26.4466 1654 40.6694
26.5635 1633 40.4104
26.6804 1719 41.4608
26.7973 1635 40.4351
26.9143 1614 40.1746
27.0313 1636 40.4475
27.1483 1669 40.8534
27.2653 1714 41.4005
27.3824 1686 41.0609
27.4996 1680 40.9878
27.6167 1659 40.7308
27.7339 1652 40.6448
27.8511 1645 40.5586
27.9683 1594 39.9249
28.0855 1589 39.8623
28.2028 1619 40.2368
28.3201 1575 39.6863
28.4374 1582 39.7744
28.5547 1559 39.4842
28.6721 1614 40.1746
28.7894 1626 40.3237
28.9068 1565 39.5601
29.0242 1595 39.9375
29.1416 1610 40.1248
29.259 1546 39.3192
29.3764 1625 40.3113
29.4939 1532 39.1408
29.6113 1566 39.5727
29.7288 1567 39.5854
29.8463 1523 39.0256
29.9638 1569 39.6106
30.0812 1567 39.5854
30.1987 1601 40.0125
30.3162 1561 39.5095
30.4337 1627 40.3361
30.5512 1652 40.6448
30.6687 1616 40.1995
30.7862 1730 41.5933
30.9037 1756 41.9047
31.0212 1720 41.4729
31.1387 1719 41.4608
31.2562 1741 41.7253
31.3737 1675 40.9268
31.4912 1695 41.1704
31.6087 1611 40.1373
31.7262 1701 41.2432
31.8436 1626 40.3237
31.9611 1589 39.8623
32.0785 1662 40.7676
32.1959 1635 40.4351
32.3134 1619 40.2368
32.4308 1683 41.0244
32.5482 1715 41.4126
32.6655 1626 40.3237
32.7829 1625 40.3113
32.9002 1617 40.2119
33.0176 1579 39.7366
33.1349 1638 40.4722
33.2522 1532 39.1408
33.3694 1575 39.6863
33.4867 1612 40.1497
33.6039 1688 41.0853
33.7211 1647 40.5832
33.8383 1571 39.6358
33.9554 1637 40.4599
34.0725 1702 41.2553
34.1896 1678 40.9634
34.3067 1612 40.1497
34.4237 1724 41.5211
34.5407 1755 41.8927
34.6577 1843 42.9302
34.7746 1700 41.2311
34.8915 1704 41.2795
35.0084 1708 41.328
35.1252 1726 41.5452
35.242 1689 41.0974
35.3587 1696 41.1825
35.4755 1645 40.5586
35.5921 1717 41.4367
35.7088 1614 40.1746
35.8254 1601 40.0125
35.9419 1646 40.5709
36.0584 1632 40.398
36.1749 1624 40.2989
36.2913 1543 39.281
36.4077 1477 38.4318
36.524 1424 37.7359
36.6403 1364 36.9324
36.7565 1240 35.2136
36.8727 1157 34.0147
36.9889 1090 33.0151
37.1049 1010 31.7805
37.221 0 1
37.3369 0 1
37.4529 0 1
37.5687 0 1
37.6845 0 1
37.8003 0 1
37.916 0 1
38.0316 0 1
38.1472 0 1
40.5851 0 1
40.7008 0 1
40.8164 0 1
40.9322 0 1
41.048 0 1
41.1639 0 1
41.2798 0 1
41.3958 0 1
41.5118 0 1
41.6279 0 1
41.744 830 28.8097
41.8602 976 31.241
41.9765 1145 33.8378
42.0928 1223 34.9714
42.2091 1310 36.1939
42.3255 1332 36.4966
42.4419 1427 37.7757
42.5584 1441 37.9605
42.675 1488 38.5746
42.7915 1499 38.7169
42.9081 1466 38.2884
43.0248 1570 39.6232
43.1415 1595 39.9375
43.2582 1621 40.2616
43.375 1690 41.1096
43.4918 1751 41.845
43.6087 1850 43.0116
43.7256 1768 42.0476
43.8425 1849 43
43.9595 1810 42.5441
44.0765 1883 43.3935
44.1935 1946 44.1135
44.3106 1915 43.7607
44.4277 2016 44.8999
44.5448 1954 44.2041
44.6619 2017 44.911
44.7791 1965 44.3283
44.8963 2100 45.8258
45.0136 2201 46.9148
45.1308 2271 47.655
45.2481 2289 47.8435
45.3654 2237 47.2969
45.4827 2234 47.2652
45.6001 2339 48.3632
45.7174 2306 48.0208
45.8348 2407 49.0612
45.9522 2337 48.3425
46.0697 2490 49.8999
46.1871 2475 49.7494
46.3046 2441 49.4065
46.422 2402 49.0102
46.5395 2397 48.9592
46.657 2523 50.2295
46.7745 2608 51.0686
46.892 2587 50.8626
47.0096 2747 52.4118
47.1271 2854 53.4228
47.2446 2823 53.1319
47.3622 2981 54.5985
47.4797 2859 53.4696
47.5973 2747 52.4118
47.7149 2776 52.6878
47.8324 2791 52.8299
47.95 2823 53.1319
48.0675 2760 52.5357
48.1851 2672 51.6914
48.3027 2665 51.6236
48.4202 2629 51.2738
48.5378 2503 50.03
48.6554 2526 50.2593
48.7729 2582 50.8134
48.8904 2551 50.5074
49.008 2414 49.1325
49.1255 2316 48.1248
49.243 2359 48.5695
49.3605 2358 48.5592
49.478 2110 45.9347
49.5955 2175 46.6369
49.713 2044 45.2106
49.8304 2001 44.7325
49.9479 1827 42.7434
50.0653 1863 43.1625
50.1827 1989 44.5982
50.3001 2028 45.0333
50.4175 2029 45.0444
50.5348 2090 45.7165
50.6521 2065 45.4423
50.7694 2167 46.551
50.8867 2109 45.9239
51.004 2137 46.2277
51.1212 2174 46.6262
51.2384 2095 45.7712
51.3556 2108 45.913
51.4727 2051 45.288
51.5899 1990 44.6094
51.707 1966 44.3396
51.824 1896 43.5431
51.9411 1913 43.7379
52.0581 1907 43.6692
52.175 1883 43.3935
52.2919 1846 42.9651
52.4088 1771 42.0833
52.5257 1900 43.589
52.6425 1827 42.7434
52.7593 1744 41.7612
52.876 1712 41.3763
52.9927 1697 41.1947
53.1094 1820 42.6615
53.226 1694 41.1582
53.3426 1656 40.694
53.4591 1595 39.9375
53.5756 1504 38.7814
53.692 1412 37.5766
53.8084 1412 37.5766
53.9248 1363 36.9188
54.0411 1246 35.2987
54.1573 1156 34
54.2735 0 1
54.3896 0 1
54.5057 0 1
54.6217 0 1
54.7377 0 1
54.8537 0 1
54.9695 0 1
55.0853 0 1
55.2011 0 1
55.3168 0 1
55.4324 0 1
57.824 0 1
57.9396 0 1
58.0553 0 1
58.1711 0 1
58.2869 0 1
58.4028 0 1
58.5187 0 1
58.6347 0 1
58.7508 0 1
58.8669 0 1
58.983 1561 39.5095
59.0992 1797 42.391
59.2155 1984 44.5421
59.3318 2127 46.1194
59.4482 2359 48.5695
59.5646 2517 50.1697
59.681 2539 50.3885
59.7975 2597 50.9608
59.9141 2683 51.7977
60.0306 2577 50.7642
60.1473 2594 50.9313
60.2639 2425 49.2443
60.3807 2565 50.6458
60.4974 2525 50.2494
60.6142 2462 49.6185
60.731 2486 49.8598
60.8479 2502 50.02
60.9648 2467 49.6689
61.0818 2493 49.93
61.1987 2465 49.6488
61.3158 2472 49.7192
61.4328 2522 50.2195
61.5499 2517 50.1697
61.667 2521 50.2096
61.7841 2442 49.4166
61.9013 2465 49.6488
62.0185 2491 49.9099
62.1357 2388 48.8672
62.253 2622 51.2055
62.3702 2530 50.2991
62.4875 2663 51.6043
62.6049 2770 52.6308
62.7222 2764 52.5738
62.8396 2977 54.5619
62.9569 3055 55.2721
63.0743 3052 55.2449
63.1918 2978 54.5711
63.3092 3036 55.0999
63.4267 2910 53.9444
63.5441 2780 52.7257
63.6616 2747 52.4118
63.7791 2781 52.7352
63.8966 2674 51.7107
64.0142 2722 52.1728
64.1317 2647 51.449
64.2492 2561 50.6063
64.3668 2523 50.2295
64.4843 2565 50.6458
64.6019 2537 50.3686
64.7195 2526 50.2593
64.837 2572 50.7149
64.9546 2438 49.3761
65.0722 2544 50.4381
65.1898 2505 50.05
65.3074 2552 50.5173
65.4249 2464 49.6387
65.5425 2401 49
65.6601 2515 50.1498
65.7777 2486 49.8598
65.8952 2580 50.7937
66.0128 2724 52.192
66.1304 2907 53.9166
66.2479 2879 53.6563
66.3655 2926 54.0925
66.483 3054 55.263
66.6005 3146 56.0892
66.718 3178 56.3738
66.8355 3034 55.0818
66.953 3193 56.5066
67.0705 3020 54.9545
67.1879 2976 54.5527
67.3054 2823 53.1319
67.4228 2784 52.7636
67.5402 2779 52.7162
67.6576 2740 52.345
67.7749 2746 52.4023
67.8923 2648 51.4587
68.0096 2579 50.7839
68.1269 2571 50.705
68.2442 2679 51.7591
68.3614 2646 51.4393
68.4787 2664 51.614
68.5958 2615 51.1371
68.713 2593 50.9215
68.8302 2579 50.7839
68.9473 2557 50.5668
69.0643 2430 49.295
69.1814 2369 48.6724
69.2984 2337 48.3425
69.4154 2357 48.5489
69.5323 2590 50.892
69.6492 2626 51.2445
69.7661 2678 51.7494
69.8829 2794 52.8583
69.9997 2877 53.6377
70.1165 2745 52.3927
70.2332 2679 51.7591
70.3499 2640 51.3809
70.4665 2435 49.3457
70.5831 2316 48.1248
70.6996 2138 46.2385
70.8161 1988 44.587
70.9326 1717 41.4367
71.049 1574 39.6737
71.1653 1438 37.921
71.2817 1477 38.4318
71.3979 1317 36.2905
71.5141 1257 35.4542
71.6303 1144 33.8231
71.7464 1067 32.665
71.8624 0 1
71.9784 0 1
72.0944 0 1
72.2102 0 1
72.3261 0 1
72.4418 0 1
72.5575 0 1
72.6732 0 1
75.1054 0 1
75.2209 0 1
75.3365 0 1
75.4521 0 1
75.5678 0 1
75.6835 0 1
75.7993 0 1
75.9151 0 1
76.031 0 1
76.147 2177 46.6583
76.263 2289 47.8435
76.3791 2320 48.1664
76.4952 2332 48.2908
76.6113 2320 48.1664
76.7276 2444 49.4368
76.8438 2490 49.8999
76.9601 2418 49.1732
77.0765 2479 49.7896
77.1929 2503 50.03
77.3093 2497 49.97
77.4258 2724 52.192
77.5423 2674 51.7107
77.6589 2630 51.2835
77.7755 2627 51.2543
77.8921 2521 50.2096
78.0088 2512 50.1199
78.1256 2294 47.8957
78.2423 2360 48.5798
78.3591 2269 47.634
78.4759 2429 49.2849
78.5928 2610 51.0882
78.7097 2715 52.1057
78.8266 2891 53.768
78.9436 3064 55.3534
79.0606 2966 54.461
79.1776 3104 55.7136
79.2946 3278 57.2538
79.4117 3222 56.7627
79.5288 3349 57.8705
79.6459 3226 56.7979
79.7631 3229 56.8243
79.8802 2985 54.6352
79.9974 2882 53.6843
80.1147 2786 52.7826
80.2319 2801 52.9245
80.3491 2917 54.0093
80.4664 2810 53.0094
80.5837 2830 53.1977
80.701 2836 53.2541
80.8183 2894 53.7959
80.9357 2907 53.9166
81.053 2916 54
81.1704 2964 54.4426
81.2877 3031 55.0545
81.4051 3059 55.3082
81.5225 2892 53.7773
81.6399 2891 53.768
81.7573 2720 52.1536
81.8747 2639 51.3712
81.9922 2519 50.1896
82.1096 2698 51.9423
82.227 2884 53.7029
82.3444 3068 55.3895
82.4619 3289 57.3498
82.5793 3481 59
82.6967 3365 58.0086
82.8142 3550 59.5819
82.9316 3452 58.7537
83.049 3527 59.3886
83.1664 3616 60.1332
83.2838 3652 60.4318
83.4012 3470 58.9067
83.5186 3337 57.7668
83.636 3103 55.7046
83.7534 3104 55.7136
83.8708 3149 56.116
83.9881 3126 55.9106
84.1055 3179 56.3826
84.2228 3268 57.1664
84.3401 3235 56.8771
84.4575 3162 56.2317
84.5747 3274 57.2189
84.692 3290 57.3585
84.8093 3487 59.0508
84.9265 3325 57.6628
85.0437 3309 57.5239
85.1609 3282 57.2887
85.2781 3035 55.0908
85.3952 2827 53.1695
85.5123 2805 52.9623
85.6294 2704 52
85.7465 2992 54.6992
85.8636 3189 56.4712
85.9806 3359 57.9569
86.0976 3552 59.5987
86.2145 3596 59.9667
86.3315 3797 61.6198
86.4484 3814 61.7576
86.5652 3867 62.1852
86.682 3942 62.7853
86.7988 3812 61.7414
86.9156 3847 62.0242
87.0323 3673 60.6053
87.149 3513 59.2706
87.2657 3400 58.3095
87.3823 3351 57.8878
87.4988 3048 55.2087
87.6154 3120 55.857
87.7318 3013 54.8908
87.8483 2882 53.6843
87.9647 2769 52.6213
88.081 2554 50.5371
88.1973 2456 49.558
88.3136 2240 47.3286
88.4298 2127 46.1194
88.546 1867 43.2088
88.6621 1824 42.7083
88.7781 1549 39.3573
88.8942 0 1
89.0101 0 1
89.126 0 1
89.2419 0 1
89.3577 0 1
89.4734 0 1
89.5891 0 1
89.7047 0 1
89.8203 0 1
89.9358 0 1
92.3269 0 1
92.4424 0 1
92.558 0 1
92.6736 0 1
92.7893 0 1
92.905 0 1
93.0208 0 1
93.1366 0 1
93.2525 0 1
93.3685 0 1
93.4845 0 1
93.6005 3031 55.0545
93.7167 3406 58.3609
93.8328 3707 60.8851
93.949 3862 62.145
94.0653 3964 62.9603
94.1816 3909 62.522
94.2979 3850 62.0484
94.4143 3685 60.7042
94.5307 3516 59.2959
94.6472 3408 58.3781
94.7637 3340 57.7927
94.8803 3453 58.7622
94.9969 3691 60.7536
95.1135 3732 61.0901
95.2302 4103 64.0547
95.3469 4244 65.146
95.4637 4413 66.4304
95.5805 4386 66.2269
95.6973 4489 67
95.8142 4509 67.1491
95.9311 4613 67.9191
96.048 4503 67.1044
96.1649 4575 67.6387
96.2819 4344 65.909
96.3989 4263 65.2917
96.516 4197 64.7843
96.633 4174 64.6065
96.7501 4075 63.8357
96.8673 4101 64.0391
96.9844 4189 64.7225
97.1016 4079 63.867
97.2188 4301 65.582
97.336 4308 65.6354
97.4532 4286 65.4675
97.5704 4324 65.7571
97.6877 4477 66.9104
97.805 4390 66.2571
97.9223 4291 65.5057
98.0396 4041 63.5689
98.1569 3821 61.8142
98.2743 3615 60.1249
98.3916 3546 59.5483
98.509 3478 58.9746
98.6264 3682 60.6795
98.7438 4048 63.6239
98.8612 4351 65.9621
98.9786 4638 68.1029
99.096 4538 67.3647
99.2134 4819 69.419
99.3308 4913 70.0928
99.4482 4955 70.3918
99.5656 5119 71.5472
99.6831 4954 70.3847
99.8005 4986 70.6116
99.9179 4780 69.1375
100.035 4595 67.7864
100.153 4541 67.3869
100.27 4501 67.0895
100.388 4549 67.4463
100.505 4503 67.1044
100.622 4486 66.9776
100.74 4340 65.8787
100.857 4468 66.8431
100.975 4431 66.5658
101.092 4519 67.2235
101.209 4699 68.5493
101.327 4713 68.6513
101.444 4487 66.9851
101.561 4597 67.8012
101.679 4344 65.909
101.796 4054 63.671
101.913 3859 62.1208
102.03 3718 60.9754
102.148 3933 62.7136
102.265 4220 64.9615
102.382 4474 66.888
102.499 4851 69.6491
102.616 5039 70.9859
102.733 5184 72
102.851 5199 72.1041
102.968 5204 72.1388
103.085 5322 72.952
103.202 5138 71.6798
103.319 5256 72.4983
103.436 5157 71.8123
103.552 4859 69.7065
103.669 4786 69.1809
103.786 4832 69.5126
103.903 4682 68.4251
104.02 4678 68.3959
104.137 4709 68.6222
104.253 4672 68.352
104.37 4698 68.542
104.487 4700 68.5565
104.603 4680 68.4105
104.72 4734 68.8041
104.836 4475 66.8954
104.953 4281 65.4294
105.069 3976 63.0555
105.186 3452 58.7537
105.302 3109 55.7584
105.418 2869 53.563
105.535 2588 50.8724
105.651 2514 50.1398
105.767 2380 48.7852
105.883 2258 47.5184
105.999 2256 47.4974
106.115 0 1
106.231 0 1
106.347 0 1
106.463 0 1
106.579 0 1
106.694 0 1
106.81 0 1
106.926 0 1
107.041 0 1
107.157 0 1
109.576 0 1
109.692 0 1
109.807 0 1
109.923 0 1
110.039 0 1
110.155 0 1
110.27 0 1
110.386 0 1
110.502 0 1
110.618 2072 45.5192
110.735 2487 49.8698
110.851 2928 54.111
110.967 3349 57.8705
111.083 3847 62.0242
111.199 4051 63.6475
111.316 4335 65.8407
111.432 4299 65.5668
111.549 4410 66.4078
111.665 4428 66.5432
111.782 4324 65.7571
111.898 4205 64.846
112.015 4109 64.1015
112.132 4124 64.2184
112.248 4011 63.3325
112.365 3969 63
112.482 3851 62.0564
112.599 3881 62.2977
112.716 3917 62.5859
112.832 3813 61.7495
112.949 3720 60.9918
113.066 3747 61.2127
113.183 3930 62.6897
113.3 4012 63.3404
113.417 4040 63.561
113.534 3829 61.8789
113.652 3683 60.6877
113.769 3544 59.5315
113.886 3326 57.6715
114.003 3194 56.5155
114.12 3115 55.8122
114.238 3129 55.9375
114.355 3433 58.5918
114.472 3559 59.6574
114.589 4182 64.6684
114.707 4128 64.2495
114.824 4142 64.3584
114.942 4222 64.9769
115.059 4240 65.1153
115.176 4284 65.4523
115.294 4330 65.8027
115.411 4227 65.0154
115.529 4299 65.5668
115.646 4074 63.8279
115.764 4017 63.3798
115.881 3909 62.522
115.999 3775 61.441
116.116 3704 60.8605
116.234 3716 60.959
116.351 3765 61.3596
116.469 3814 61.7576
116.586 3644 60.3656
116.704 3764 61.3514
116.821 3914 62.562
116.939 3935 62.7296
117.056 3950 62.849
117.174 3827 61.8628
117.291 3773 61.4248
117.409 3544 59.5315
117.526 3356 57.931
117.644 3155 56.1694
117.761 3260 57.0964
117.879 3312 57.55
117.996 3564 59.6992
118.114 3942 62.7853
118.231 4215 64.923
118.349 4390 66.2571
118.466 4297 65.5515
118.584 4303 65.5973
118.701 4352 65.9697
118.819 4269 65.3376
118.936 4328 65.7875
119.053 4115 64.1483
119.171 4163 64.5213
119.288 4039 63.5531
119.405 3975 63.0476
119.523 3797 61.6198
119.64 3830 61.887
119.757 3732 61.0901
119.875 3730 61.0737
119.992 3712 60.9262
120.109 3523 59.3549
120.226 3599 59.9917
120.343 3634 60.2827
120.46 3729 61.0655
120.578 3770 61.4003
120.695 3765 61.3596
120.812 3686 60.7124
120.929 3514 59.279
121.046 3454 58.7707
121.163 3044 55.1725
121.279 2904 53.8888
121.396 2832 53.2165
121.513 2843 53.3198
121.63 2977 54.5619
121.747 2965 54.4518
121.863 3093 55.6147
121.98 3239 56.9122
122.097 3277 57.2451
122.213 3040 55.1362
122.33 2963 54.4334
122.446 2800 52.915
122.563 2522 50.2195
122.679 2484 49.8397
122.795 2433 49.3254
122.912 2080 45.607
123.028 2012 44.8553
123.144 1890 43.4741
123.26 1816 42.6146
123.377 0 1
123.493 0 1
123.609 0 1
123.725 0 1
123.84 0 1
123.956 0 1
124.072 0 1
124.188 0 1
124.303 0 1
124.419 0 1
126.852 0 1
126.968 0 1
127.083 0 1
127.199 0 1
127.315 0 1
127.431 0 1
127.547 0 1
127.663 0 1
127.779 0 1
127.895 0 1
128.011 0 1
128.127 0 1
128.243 0 1
128.359 3980 63.0872
128.476 3976 63.0555
128.592 4088 63.9375
128.708 3985 63.1269
128.825 3857 62.1048
128.941 3811 61.7333
129.058 3899 62.442
129.174 3857 62.1048
129.291 3872 62.2254
129.408 3908 62.514
129.524 4025 63.4429
129.641 3937 62.7455
129.758 3993 63.1902
129.875 3919 62.6019
129.992 3750 61.2372
130.108 3642 60.349
130.225 3543 59.5231
130.342 3277 57.2451
130.459 3136 56
130.576 3146 56.0892
130.693 3311 57.5413
130.81 3480 58.9915
130.928 3702 60.8441
131.045 3889 62.3618
131.162 3964 62.9603
131.279 3982 63.1031
131.396 4160 64.4981
131.513 3966 62.9762
131.631 3871 62.2174
131.748 4061 63.726
131.865 3764 61.3514
131.983 3791 61.5711
132.1 3847 62.0242
132.217 3739 61.1474
132.335 3638 60.3158
132.452 3745 61.1964
132.57 3615 60.1249
132.687 3645 60.3738
132.804 3618 60.1498
132.922 3515 59.2874
133.039 3554 59.6154
133.157 3678 60.6465
133.274 3621 60.1747
133.392 3630 60.2495
133.509 3578 59.8164
133.627 3388 58.2065
133.744 3424 58.515
133.862 3062 55.3353
133.979 2998 54.754
134.097 3027 55.0182
134.214 3132 55.9643
134.332 3252 57.0263
134.449 3459 58.8133
134.567 3754 61.2699
134.684 3759 61.3107
134.802 3774 61.4329
134.919 3852 62.0645
135.037 3778 61.4654
135.154 3673 60.6053
135.272 3687 60.7207
135.389 3867 62.1852
135.507 3626 60.2163
135.624 3767 61.3759
135.742 3798 61.6279
135.859 3656 60.4649
135.977 3606 60.05
136.094 3549 59.5735
136.211 3503 59.1861
136.329 3547 59.5567
136.446 3583 59.8582
136.564 3672 60.597
136.681 3552 59.5987
136.798 3620 60.1664
136.915 3520 59.3296
137.033 3566 59.716
137.15 3576 59.7997
137.267 3557 59.6406
137.384 3235 56.8771
137.502 3112 55.7853
137.619 2986 54.6443
137.736 2976 54.5527
137.853 2882 53.6843
137.97 3193 56.5066
138.087 3291 57.3672
138.204 3554 59.6154
138.321 3691 60.7536
138.438 3665 60.5392
138.555 3644 60.3656
138.672 3508 59.2284
138.788 3478 58.9746
138.905 3414 58.4294
139.022 3162 56.2317
139.139 3058 55.2992
139.255 2875 53.619
139.372 2833 53.2259
139.488 2594 50.9313
139.605 2484 49.8397
139.721 2313 48.0937
139.838 2204 46.9468
139.954 2056 45.3431
140.071 2070 45.4973
140.187 1870 43.2435
140.303 1804 42.4735
140.419 1639 40.4846
140.535 1567 39.5854
140.652 1478 38.4448
140.768 0 1
140.884 0 1
141 0 1
141.115 0 1
141.231 0 1
141.347 0 1
141.463 0 1
141.578 0 1
141.694 0 1
144.104 0 1
144.219 0 1
144.335 0 1
144.45 0 1
144.566 0 1
144.682 0 1
144.798 0 1
144.914 0 1
145.03 0 1
145.146 2576 50.7543
145.262 2676 51.7301
145.378 2720 52.1536
145.494 2654 51.517
145.61 2736 52.3068
145.726 2749 52.4309
145.842 2758 52.5167
145.959 2677 51.7397
146.075 2704 52
146.192 2644 51.4198
146.308 2555 50.547
146.425 2475 49.7494
146.541 2443 49.4267
146.658 2418 49.1732
146.774 2402 49.0102
146.891 2606 51.049
147.008 2819 53.0943
147.125 2802 52.9339
147.241 2937 54.1941
147.358 2882 53.6843
147.475 2852 53.4041
147.592 2837 53.2635
147.709 2885 53.7122
147.826 2918 54.0185
147.943 2896 53.8145
148.06 2895 53.8052
148.177 2781 52.7352
148.294 2834 53.2353
148.411 2812 53.0283
148.528 2763 52.5642
148.645 2883 53.6936
148.762 2796 52.8772
148.88 2828 53.1789
148.997 2887 53.7308
149.114 2705 52.0096
149.231 2693 51.8941
149.349 2781 52.7352
149.466 2667 51.643
149.583 2714 52.0961
149.701 2752 52.4595
149.818 2770 52.6308
149.935 2485 49.8498
150.053 2495 49.95
150.17 2436 49.3559
150.287 2438 49.3761
150.405 2395 48.9387
150.522 2651 51.4879
150.64 2738 52.3259
150.757 2854 53.4228
150.875 2889 53.7494
150.992 2857 53.4509
151.11 2879 53.6563
151.227 2856 53.4416
151.344 2823 53.1319
151.462 2835 53.2447
151.579 2845 53.3385
151.697 2979 54.5802
151.814 2845 53.3385
151.932 2849 53.376
152.049 2814 53.0471
152.167 2847 53.3573
152.284 2751 52.45
152.402 2821 53.1131
152.519 2732 52.2685
152.636 2678 51.7494
152.754 2737 52.3163
152.871 2700 51.9615
152.989 2679 51.7591
153.106 2750 52.4404
153.223 2702 51.9808
153.341 2599 50.9804
153.458 2675 51.7204
153.575 2577 50.7642
153.693 2412 49.1121
153.81 2422 49.2138
153.927 2418 49.1732
154.044 2568 50.6754
154.162 2570 50.6952
154.279 2581 50.8035
154.396 2821 53.1131
154.513 2832 53.2165
154.63 2908 53.9259
154.747 2828 53.1789
154.864 2804 52.9528
154.981 2685 51.817
155.098 2777 52.6972
155.215 2786 52.7826
155.332 2713 52.0865
155.449 2687 51.8363
155.566 2760 52.5357
155.683 2626 51.2445
155.8 2614 51.1273
155.917 2454 49.5379
156.033 2419 49.1833
156.15 0 1
156.267 0 1
156.383 0 1
156.5 0 1
156.617 0 1
156.733 0 1
156.85 0 1
156.966 0 1
157.082 0 1
157.199 0 1
157.315 0 1
157.431 0 1
157.547 0 1
157.664 0 1
157.78 0 1
157.896 0 1
158.012 0 1
158.128 0 1
158.244 0 1
158.359 0 1
158.475 0 1
158.591 0 1
158.706 0 1
