
6.15755 0 1
6.2731 0 1
6.3887 0 1
6.50437 0 1
6.62009 0 1
6.73587 0 1
6.8517 0 1
6.96759 0 1
7.08353 0 1
7.19952 0 1
7.31557 0 1
7.43166 0 1
7.54781 0 1
7.664 0 1
7.78024 0 1
7.89653 0 1
8.01286 0 1
8.12924 0 1
8.24567 0 1
8.36213 0 1
8.47864 0 1
8.59519 0 1
8.71178 0 1
8.82841 0 1
8.94508 0 1
9.06179 0 1
9.17853 0 1
9.29531 0 1
9.41212 0 1
9.52897 0 1
9.64584 0 1
9.76276 0 1
9.8797 0 1
9.99667 0 1
10.1137 0 1
10.2307 0 1
10.3478 0 1
10.4648 0 1
10.5819 0 1
10.6991 0 1
10.8162 0 1
10.9334 0 1
11.0506 0 1
11.1678 0 1
11.285 0 1
11.4023 0 1
11.5196 0 1
11.6369 0 1
11.7542 0 1
11.8715 0 1
11.9888 0 1
12.1062 0 1
12.2235 0 1
12.3409 0 1
12.4582 0 1
12.5756 0 1
12.693 0 1
12.8104 0 1
12.9278 0 1
13.0452 0 1
13.1626 0 1
13.28 0 1
13.3974 0 1
13.5149 0 1
13.6323 0 1
13.7497 0 1
13.8671 0 1
13.9845 0 1
14.1019 0 1
14.2193 0 1
14.3367 0 1
14.4541 0 1
14.5714 0 1
14.6888 0 1
14.8062 0 1
14.9235 0 1
15.0408 871 29.5127
15.1581 914 30.2324
15.2755 925 30.4138
15.3927 981 31.3209
15.51 961 31
15.6273 901 30.0167
15.7445 920 30.3315
15.8617 888 29.7993
15.9789 932 30.5287
16.0961 917 30.282
16.2132 933 30.545
16.3304 960 30.9839
16.4475 931 30.5123
16.5646 980 31.305
16.6816 988 31.4325
16.7986 1058 32.5269
16.9156 1057 32.5115
17.0326 1091 33.0303
17.1496 1057 32.5115
17.2665 955 30.9031
17.3833 1016 31.8748
17.5002 1012 31.8119
17.617 951 30.8383
17.7338 971 31.1609
17.8505 998 31.5911
17.9672 935 30.5778
18.0839 874 29.5635
18.2005 893 29.8831
18.3171 981 31.3209
18.4337 902 30.0333
18.5502 954 30.8869
18.6666 938 30.6268
18.7831 992 31.496
18.8994 1020 31.9374
19.0158 970 31.1448
19.1321 903 30.05
19.2483 869 29.4788
19.3645 855 29.2404
19.4806 839 28.9655
19.5967 759 27.55
19.7128 757 27.5136
19.8288 710 26.6458
19.9447 607 24.6374
20.0606 0 1
20.1764 0 1
20.2922 0 1
20.4079 0 1
20.5236 0 1
20.6392 0 1
20.7548 0 1
20.8702 0 1
23.3078 0 1
23.4233 0 1
23.539 0 1
23.6547 0 1
23.7704 0 1
23.8862 0 1
24.0021 0 1
24.118 0 1
24.234 0 1
24.35 0 1
24.4661 287 16.9411
24.5822 338 18.3848
24.6984 422 20.5426
24.8146 509 22.561
24.9309 526 22.9347
25.0472 605 24.5967
25.1636 655 25.593
25.28 755 27.4773
25.3965 836 28.9137
25.513 814 28.5307
25.6296 929 30.4795
25.7462 956 30.9192
25.8628 935 30.5778
25.9795 971 31.1609
26.0962 977 31.257
26.213 874 29.5635
26.3298 913 30.2159
26.4466 776 27.8568
26.5635 821 28.6531
26.6804 840 28.9828
26.7973 787 28.0535
26.9143 875 29.5804
27.0313 864 29.3939
27.1483 798 28.2489
27.2653 826 28.7402
27.3824 835 28.8964
27.4996 849 29.1376
27.6167 875 29.5804
27.7339 822 28.6705
27.8511 779 27.9106
27.9683 774 27.8209
28.0855 739 27.1846
28.2028 759 27.55
28.3201 748 27.3496
28.4374 719 26.8142
28.5547 743 27.258
28.6721 762 27.6043
28.7894 746 27.313
28.9068 799 28.2666
29.0242 840 28.9828
29.1416 832 28.8444
29.259 877 29.6142
29.3764 801 28.3019
29.4939 849 29.1376
29.6113 854 29.2233
29.7288 816 28.5657
29.8463 775 27.8388
29.9638 771 27.7669
30.0812 722 26.8701
30.1987 747 27.3313
30.3162 737 27.1477
30.4337 721 26.8514
30.5512 715 26.7395
30.6687 728 26.9815
30.7862 691 26.2869
30.9037 785 28.0179
31.0212 799 28.2666
31.1387 769 27.7308
31.2562 737 27.1477
31.3737 688 26.2298
31.4912 761 27.5862
31.6087 677 26.0192
31.7262 658 25.6515
31.8436 695 26.3629
31.9611 680 26.0768
32.0785 619 24.8797
32.1959 682 26.1151
32.3134 645 25.3969
32.4308 740 27.2029
32.5482 668 25.8457
32.6655 773 27.8029
32.7829 735 27.1109
32.9002 728 26.9815
33.0176 712 26.6833
33.1349 734 27.0924
33.2522 741 27.2213
33.3694 724 26.9072
33.4867 678 26.0384
33.6039 667 25.8263
33.7211 646 25.4165
33.8383 676 26
33.9554 668 25.8457
34.0725 692 26.3059
34.1896 610 24.6982
34.3067 662 25.7294
34.4237 650 25.4951
34.5407 642 25.3377
34.6577 718 26.7955
34.7746 663 25.7488
34.8915 649 25.4755
35.0084 631 25.1197
35.1252 665 25.7876
35.242 664 25.7682
35.3587 584 24.1661
35.4755 670 25.8844
35.5921 603 24.5561
35.7088 539 23.2164
35.8254 571 23.8956
35.9419 615 24.7992
36.0584 593 24.3516
36.1749 600 24.4949
36.2913 632 25.1396
36.4077 587 24.2281
36.524 597 24.4336
36.6403 601 24.5153
36.7565 596 24.4131
36.8727 550 23.4521
36.9889 526 22.9347
37.1049 394 19.8494
37.221 0 1
37.3369 0 1
37.4529 0 1
37.5687 0 1
37.6845 0 1
37.8003 0 1
37.916 0 1
38.0316 0 1
38.1472 0 1
40.5851 0 1
40.7008 0 1
40.8164 0 1
40.9322 0 1
41.048 0 1
41.1639 0 1
41.2798 0 1
41.3958 0 1
41.5118 0 1
41.6279 0 1
41.744 264 16.2481
41.8602 318 17.8326
41.9765 343 18.5203
42.0928 399 19.975
42.2091 398 19.9499
42.3255 378 19.4422
42.4419 383 19.5704
42.5584 396 19.8997
42.675 400 20
42.7915 428 20.6882
42.9081 424 20.5913
43.0248 485 22.0227
43.1415 461 21.4709
43.2582 484 22
43.375 495 22.2486
43.4918 498 22.3159
43.6087 494 22.2261
43.7256 502 22.4054
43.8425 507 22.5167
43.9595 470 21.6795
44.0765 483 21.9773
44.1935 443 21.0476
44.3106 467 21.6102
44.4277 434 20.8327
44.5448 444 21.0713
44.6619 402 20.0499
44.7791 440 20.9762
44.8963 480 21.9089
45.0136 475 21.7945
45.1308 459 21.4243
45.2481 508 22.5389
45.3654 468 21.6333
45.4827 472 21.7256
45.6001 490 22.1359
45.7174 450 21.2132
45.8348 444 21.0713
45.9522 493 22.2036
46.0697 450 21.2132
46.1871 445 21.095
46.3046 436 20.8806
46.422 418 20.445
46.5395 450 21.2132
46.657 475 21.7945
46.7745 483 21.9773
46.892 460 21.4476
47.0096 512 22.6274
47.1271 436 20.8806
47.2446 501 22.383
47.3622 465 21.5639
47.4797 492 22.1811
47.5973 426 20.6398
47.7149 467 21.6102
47.8324 450 21.2132
47.95 428 20.6882
48.0675 406 20.1494
48.1851 416 20.3961
48.3027 397 19.9249
48.4202 481 21.9317
48.5378 474 21.7715
48.6554 499 22.3383
48.7729 490 22.1359
48.8904 472 21.7256
49.008 485 22.0227
49.1255 468 21.6333
49.243 470 21.6795
49.3605 448 21.166
49.478 481 21.9317
49.5955 375 19.3649
49.713 406 20.1494
49.8304 428 20.6882
49.9479 405 20.1246
50.0653 378 19.4422
50.1827 449 21.1896
50.3001 429 20.7123
50.4175 480 21.9089
50.5348 468 21.6333
50.6521 442 21.0238
50.7694 472 21.7256
50.8867 457 21.3776
51.004 437 20.9045
51.1212 460 21.4476
51.2384 467 21.6102
51.3556 434 20.8327
51.4727 369 19.2094
51.5899 394 19.8494
51.707 374 19.3391
51.824 381 19.5192
51.9411 376 19.3907
52.0581 391 19.7737
52.175 455 21.3307
52.2919 475 21.7945
52.4088 461 21.4709
52.5257 437 20.9045
52.6425 493 22.2036
52.7593 469 21.6564
52.876 428 20.6882
52.9927 441 21
53.1094 396 19.8997
53.226 415 20.3715
53.3426 389 19.7231
53.4591 364 19.0788
53.5756 389 19.7231
53.692 395 19.8746
53.8084 366 19.1311
53.9248 364 19.0788
54.0411 323 17.9722
54.1573 340 18.4391
54.2735 0 1
54.3896 0 1
54.5057 0 1
54.6217 0 1
54.7377 0 1
54.8537 0 1
54.9695 0 1
55.0853 0 1
55.2011 0 1
55.3168 0 1
55.4324 0 1
57.824 0 1
57.9396 0 1
58.0553 0 1
58.1711 0 1
58.2869 0 1
58.4028 0 1
58.5187 0 1
58.6347 0 1
58.7508 0 1
58.8669 0 1
58.983 269 16.4012
59.0992 319 17.8606
59.2155 382 19.5448
59.3318 387 19.6723
59.4482 457 21.3776
59.5646 464 21.5407
59.681 478 21.8632
59.7975 492 22.1811
59.9141 476 21.8174
60.0306 507 22.5167
60.1473 476 21.8174
60.2639 463 21.5174
60.3807 495 22.2486
60.4974 470 21.6795
60.6142 485 22.0227
60.731 491 22.1585
60.8479 513 22.6495
60.9648 530 23.0217
61.0818 542 23.2809
61.1987 528 22.9783
61.3158 585 24.1868
61.4328 562 23.7065
61.5499 549 23.4307
61.667 536 23.1517
61.7841 485 22.0227
61.9013 492 22.1811
62.0185 472 21.7256
62.1357 465 21.5639
62.253 522 22.8473
62.3702 512 22.6274
62.4875 566 23.7908
62.6049 539 23.2164
62.7222 571 23.8956
62.8396 566 23.7908
62.9569 606 24.6171
63.0743 611 24.7184
63.1918 576 24
63.3092 560 23.6643
63.4267 556 23.5797
63.5441 548 23.4094
63.6616 558 23.622
63.7791 484 22
63.8966 456 21.3542
64.0142 485 22.0227
64.1317 478 21.8632
64.2492 454 21.3073
64.3668 521 22.8254
64.4843 516 22.7156
64.6019 584 24.1661
64.7195 564 23.7487
64.837 593 24.3516
64.9546 547 23.388
65.0722 538 23.1948
65.1898 513 22.6495
65.3074 513 22.6495
65.4249 499 22.3383
65.5425 458 21.4009
65.6601 460 21.4476
65.7777 502 22.4054
65.8952 507 22.5167
66.0128 529 23
66.1304 574 23.9583
66.2479 603 24.5561
66.3655 627 25.04
66.483 618 24.8596
66.6005 624 24.98
66.718 633 25.1595
66.8355 610 24.6982
66.953 586 24.2074
67.0705 553 23.516
67.1879 527 22.9565
67.3054 573 23.9374
67.4228 485 22.0227
67.5402 502 22.4054
67.6576 472 21.7256
67.7749 508 22.5389
67.8923 490 22.1359
68.0096 548 23.4094
68.1269 531 23.0434
68.2442 545 23.3452
68.3614 603 24.5561
68.4787 602 24.5357
68.5958 616 24.8193
68.713 524 22.891
68.8302 542 23.2809
68.9473 568 23.8328
69.0643 526 22.9347
69.1814 513 22.6495
69.2984 538 23.1948
69.4154 520 22.8035
69.5323 511 22.6053
69.6492 570 23.8747
69.7661 542 23.2809
69.8829 573 23.9374
69.9997 599 24.4745
70.1165 607 24.6374
70.2332 555 23.5584
70.3499 621 24.9199
70.4665 516 22.7156
70.5831 524 22.891
70.6996 469 21.6564
70.8161 445 21.095
70.9326 377 19.4165
71.049 352 18.7617
71.1653 291 17.0587
71.2817 263 16.2173
71.3979 240 15.4919
71.5141 222 14.8997
71.6303 187 13.6748
71.7464 195 13.9642
71.8624 0 1
71.9784 0 1
72.0944 0 1
72.2102 0 1
72.3261 0 1
72.4418 0 1
72.5575 0 1
72.6732 0 1
75.1054 0 1
75.2209 0 1
75.3365 0 1
75.4521 0 1
75.5678 0 1
75.6835 0 1
75.7993 0 1
75.9151 0 1
76.031 0 1
76.147 320 17.8885
76.263 354 18.8149
76.3791 407 20.1742
76.4952 374 19.3391
76.6113 409 20.2237
76.7276 390 19.7484
76.8438 445 21.095
76.9601 460 21.4476
77.0765 477 21.8403
77.1929 544 23.3238
77.3093 531 23.0434
77.4258 530 23.0217
77.5423 565 23.7697
77.6589 475 21.7945
77.7755 537 23.1733
77.8921 462 21.4942
78.0088 454 21.3073
78.1256 406 20.1494
78.2423 371 19.2614
78.3591 384 19.5959
78.4759 442 21.0238
78.5928 476 21.8174
78.7097 456 21.3542
78.8266 513 22.6495
78.9436 525 22.9129
79.0606 517 22.7376
79.1776 527 22.9565
79.2946 501 22.383
79.4117 523 22.8692
79.5288 534 23.1084
79.6459 466 21.587
79.7631 472 21.7256
79.8802 502 22.4054
79.9974 482 21.9545
80.1147 428 20.6882
80.2319 429 20.7123
80.3491 404 20.0998
80.4664 387 19.6723
80.5837 423 20.567
80.701 419 20.4695
80.8183 469 21.6564
80.9357 445 21.095
81.053 478 21.8632
81.1704 483 21.9773
81.2877 521 22.8254
81.4051 456 21.3542
81.5225 437 20.9045
81.6399 422 20.5426
81.7573 397 19.9249
81.8747 379 19.4679
81.9922 347 18.6279
82.1096 385 19.6214
82.227 405 20.1246
82.3444 446 21.1187
82.4619 478 21.8632
82.5793 466 21.587
82.6967 391 19.7737
82.8142 528 22.9783
82.9316 451 21.2368
83.049 456 21.3542
83.1664 478 21.8632
83.2838 422 20.5426
83.4012 467 21.6102
83.5186 391 19.7737
83.636 415 20.3715
83.7534 377 19.4165
83.8708 346 18.6011
83.9881 340 18.4391
84.1055 350 18.7083
84.2228 381 19.5192
84.3401 354 18.8149
84.4575 373 19.3132
84.5747 413 20.3224
84.692 442 21.0238
84.8093 441 21
84.9265 441 21
85.0437 430 20.7364
85.1609 422 20.5426
85.2781 358 18.9209
85.3952 332 18.2209
85.5123 337 18.3576
85.6294 346 18.6011
85.7465 368 19.1833
85.8636 348 18.6548
85.9806 356 18.868
86.0976 422 20.5426
86.2145 392 19.799
86.3315 428 20.6882
86.4484 427 20.664
86.5652 436 20.8806
86.682 433 20.8087
86.7988 434 20.8327
86.9156 453 21.2838
87.0323 422 20.5426
87.149 388 19.6977
87.2657 372 19.2873
87.3823 313 17.6918
87.4988 298 17.2627
87.6154 314 17.72
87.7318 266 16.3095
87.8483 263 16.2173
87.9647 248 15.748
88.081 320 17.8885
88.1973 270 16.4317
88.3136 271 16.4621
88.4298 297 17.2337
88.546 284 16.8523
88.6621 218 14.7648
88.7781 180 13.4164
88.8942 0 1
89.0101 0 1
89.126 0 1
89.2419 0 1
89.3577 0 1
89.4734 0 1
89.5891 0 1
89.7047 0 1
89.8203 0 1
89.9358 0 1
92.3269 0 1
92.4424 0 1
92.558 0 1
92.6736 0 1
92.7893 0 1
92.905 0 1
93.0208 0 1
93.1366 0 1
93.2525 0 1
93.3685 0 1
93.4845 0 1
93.6005 214 14.6287
93.7167 285 16.8819
93.8328 281 16.7631
93.949 303 17.4069
94.0653 284 16.8523
94.1816 320 17.8885
94.2979 314 17.72
94.4143 316 17.7764
94.5307 315 17.7482
94.6472 290 17.0294
94.7637 290 17.0294
94.8803 310 17.6068
94.9969 281 16.7631
95.1135 312 17.6635
95.2302 366 19.1311
95.3469 338 18.3848
95.4637 357 18.8944
95.5805 403 20.0749
95.6973 389 19.7231
95.8142 381 19.5192
95.9311 397 19.9249
96.048 356 18.868
96.1649 362 19.0263
96.2819 355 18.8414
96.3989 356 18.868
96.516 310 17.6068
96.633 312 17.6635
96.7501 294 17.1464
96.8673 263 16.2173
96.9844 287 16.9411
97.1016 294 17.1464
97.2188 303 17.4069
97.336 363 19.0526
97.4532 357 18.8944
97.5704 357 18.8944
97.6877 362 19.0263
97.805 361 19
97.9223 334 18.2757
98.0396 340 18.4391
98.1569 291 17.0587
98.2743 307 17.5214
98.3916 284 16.8523
98.509 268 16.3707
98.6264 336 18.3303
98.7438 347 18.6279
98.8612 325 18.0278
98.9786 322 17.9444
99.096 348 18.6548
99.2134 409 20.2237
99.3308 357 18.8944
99.4482 384 19.5959
99.5656 399 19.975
99.6831 423 20.567
99.8005 348 18.6548
99.9179 356 18.868
100.035 349 18.6815
100.153 306 17.4929
100.27 308 17.5499
100.388 280 16.7332
100.505 299 17.2916
100.622 292 17.088
100.74 329 18.1384
100.857 320 17.8885
100.975 337 18.3576
101.092 381 19.5192
101.209 364 19.0788
101.327 383 19.5704
101.444 400 20
101.561 317 17.8045
101.679 314 17.72
101.796 300 17.3205
101.913 274 16.5529
102.03 285 16.8819
102.148 282 16.7929
102.265 344 18.5472
102.382 345 18.5742
102.499 364 19.0788
102.616 367 19.1572
102.733 369 19.2094
102.851 343 18.5203
102.968 392 19.799
103.085 373 19.3132
103.202 386 19.6469
103.319 382 19.5448
103.436 366 19.1311
103.552 331 18.1934
103.669 339 18.412
103.786 324 18
103.903 295 17.1756
104.02 263 16.2173
104.137 316 17.7764
104.253 305 17.4642
104.37 346 18.6011
104.487 390 19.7484
104.603 360 18.9737
104.72 391 19.7737
104.836 331 18.1934
104.953 343 18.5203
105.069 322 17.9444
105.186 265 16.2788
105.302 283 16.8226
105.418 251 15.843
105.535 251 15.843
105.651 230 15.1658
105.767 255 15.9687
105.883 194 13.9284
105.999 214 14.6287
106.115 0 1
106.231 0 1
106.347 0 1
106.463 0 1
106.579 0 1
106.694 0 1
106.81 0 1
106.926 0 1
107.041 0 1
107.157 0 1
109.576 0 1
109.692 0 1
109.807 0 1
109.923 0 1
110.039 0 1
110.155 0 1
110.27 0 1
110.386 0 1
110.502 0 1
110.618 106 10.2956
110.735 174 13.1909
110.851 223 14.9332
110.967 234 15.2971
111.083 232 15.2315
111.199 272 16.4924
111.316 297 17.2337
111.432 281 16.7631
111.549 317 17.8045
111.665 327 18.0831
111.782 339 18.412
111.898 347 18.6279
112.015 324 18
112.132 313 17.6918
112.248 288 16.9706
112.365 304 17.4356
112.482 233 15.2643
112.599 293 17.1172
112.716 243 15.5885
112.832 266 16.3095
112.949 307 17.5214
113.066 301 17.3494
113.183 321 17.9165
113.3 320 17.8885
113.417 312 17.6635
113.534 297 17.2337
113.652 306 17.4929
113.769 300 17.3205
113.886 238 15.4272
114.003 247 15.7162
114.12 251 15.843
114.238 278 16.6733
114.355 308 17.5499
114.472 295 17.1756
114.589 320 17.8885
114.707 333 18.2483
114.824 342 18.4932
114.942 357 18.8944
115.059 330 18.1659
115.176 376 19.3907
115.294 308 17.5499
115.411 350 18.7083
115.529 316 17.7764
115.646 318 17.8326
115.764 283 16.8226
115.881 290 17.0294
115.999 276 16.6132
116.116 268 16.3707
116.234 280 16.7332
116.351 284 16.8523
116.469 263 16.2173
116.586 328 18.1108
116.704 290 17.0294
116.821 328 18.1108
116.939 329 18.1384
117.056 305 17.4642
117.174 286 16.9115
117.291 260 16.1245
117.409 298 17.2627
117.526 269 16.4012
117.644 256 16
117.761 271 16.4621
117.879 291 17.0587
117.996 313 17.6918
118.114 316 17.7764
118.231 324 18
118.349 321 17.9165
118.466 301 17.3494
118.584 359 18.9473
118.701 329 18.1384
118.819 358 18.9209
118.936 330 18.1659
119.053 307 17.5214
119.171 314 17.72
119.288 295 17.1756
119.405 285 16.8819
119.523 267 16.3401
119.64 236 15.3623
119.757 235 15.3297
119.875 235 15.3297
119.992 278 16.6733
120.109 231 15.1987
120.226 280 16.7332
120.343 303 17.4069
120.46 290 17.0294
120.578 317 17.8045
120.695 297 17.2337
120.812 316 17.7764
120.929 236 15.3623
121.046 254 15.9374
121.163 238 15.4272
121.279 220 14.8324
121.396 249 15.7797
121.513 268 16.3707
121.63 265 16.2788
121.747 275 16.5831
121.863 271 16.4621
121.98 281 16.7631
122.097 268 16.3707
122.213 274 16.5529
122.33 279 16.7033
122.446 259 16.0935
122.563 265 16.2788
122.679 224 14.9666
122.795 222 14.8997
122.912 191 13.8203
123.028 143 11.9583
123.144 155 12.4499
123.26 119 10.9087
123.377 0 1
123.493 0 1
123.609 0 1
123.725 0 1
123.84 0 1
123.956 0 1
124.072 0 1
124.188 0 1
124.303 0 1
124.419 0 1
126.852 0 1
126.968 0 1
127.083 0 1
127.199 0 1
127.315 0 1
127.431 0 1
127.547 0 1
127.663 0 1
127.779 0 1
127.895 0 1
128.011 0 1
128.127 0 1
128.243 0 1
128.359 280 16.7332
128.476 302 17.3781
128.592 287 16.9411
128.708 306 17.4929
128.825 271 16.4621
128.941 255 15.9687
129.058 264 16.2481
129.174 290 17.0294
129.291 283 16.8226
129.408 336 18.3303
129.524 323 17.9722
129.641 318 17.8326
129.758 303 17.4069
129.875 342 18.4932
129.992 300 17.3205
130.108 283 16.8226
130.225 279 16.7033
130.342 299 17.2916
130.459 253 15.906
130.576 314 17.72
130.693 330 18.1659
130.81 331 18.1934
130.928 318 17.8326
131.045 326 18.0555
131.162 323 17.9722
131.279 346 18.6011
131.396 359 18.9473
131.513 346 18.6011
131.631 334 18.2757
131.748 337 18.3576
131.865 320 17.8885
131.983 296 17.2047
132.1 315 17.7482
132.217 244 15.6205
132.335 301 17.3494
132.452 274 16.5529
132.57 279 16.7033
132.687 299 17.2916
132.804 325 18.0278
132.922 361 19
133.039 337 18.3576
133.157 346 18.6011
133.274 337 18.3576
133.392 356 18.868
133.509 317 17.8045
133.627 313 17.6918
133.744 293 17.1172
133.862 294 17.1464
133.979 291 17.0587
134.097 325 18.0278
134.214 296 17.2047
134.332 314 17.72
134.449 332 18.2209
134.567 341 18.4662
134.684 345 18.5742
134.802 330 18.1659
134.919 336 18.3303
135.037 323 17.9722
135.154 335 18.303
135.272 348 18.6548
135.389 314 17.72
135.507 335 18.303
135.624 305 17.4642
135.742 322 17.9444
135.859 302 17.3781
135.977 298 17.2627
136.094 297 17.2337
136.211 289 17
136.329 304 17.4356
136.446 295 17.1756
136.564 326 18.0555
136.681 344 18.5472
136.798 350 18.7083
136.915 361 19
137.033 350 18.7083
137.15 281 16.7631
137.267 284 16.8523
137.384 278 16.6733
137.502 282 16.7929
137.619 279 16.7033
137.736 292 17.088
137.853 308 17.5499
137.97 313 17.6918
138.087 306 17.4929
138.204 354 18.8149
138.321 321 17.9165
138.438 343 18.5203
138.555 370 19.2354
138.672 339 18.412
138.788 325 18.0278
138.905 291 17.0587
139.022 292 17.088
139.139 295 17.1756
139.255 281 16.7631
139.372 249 15.7797
139.488 245 15.6525
139.605 200 14.1421
139.721 202 14.2127
139.838 218 14.7648
139.954 186 13.6382
140.071 198 14.0712
140.187 183 13.5277
140.303 151 12.2882
140.419 159 12.6095
140.535 149 12.2066
140.652 153 12.3693
140.768 0 1
140.884 0 1
141 0 1
141.115 0 1
141.231 0 1
141.347 0 1
141.463 0 1
141.578 0 1
141.694 0 1
144.104 0 1
144.219 0 1
144.335 0 1
144.45 0 1
144.566 0 1
144.682 0 1
144.798 0 1
144.914 0 1
145.03 0 1
145.146 211 14.5258
145.262 235 15.3297
145.378 231 15.1987
145.494 261 16.1555
145.61 251 15.843
145.726 270 16.4317
145.842 272 16.4924
145.959 265 16.2788
146.075 231 15.1987
146.192 222 14.8997
146.308 240 15.4919
146.425 257 16.0312
146.541 248 15.748
146.658 265 16.2788
146.774 218 14.7648
146.891 249 15.7797
147.008 263 16.2173
147.125 227 15.0665
147.241 274 16.5529
147.358 300 17.3205
147.475 277 16.6433
147.592 263 16.2173
147.709 261 16.1555
147.826 241 15.5242
147.943 246 15.6844
148.06 237 15.3948
148.177 263 16.2173
148.294 226 15.0333
148.411 208 14.4222
148.528 233 15.2643
148.645 247 15.7162
148.762 258 16.0624
148.88 254 15.9374
148.997 274 16.5529
149.114 237 15.3948
149.231 257 16.0312
149.349 246 15.6844
149.466 256 16
149.583 256 16
149.701 247 15.7162
149.818 242 15.5563
149.935 225 15
150.053 217 14.7309
150.17 248 15.748
150.287 213 14.5945
150.405 254 15.9374
150.522 234 15.2971
150.64 273 16.5227
150.757 266 16.3095
150.875 269 16.4012
150.992 259 16.0935
151.11 254 15.9374
151.227 254 15.9374
151.344 271 16.4621
151.462 272 16.4924
151.579 256 16
151.697 251 15.843
151.814 231 15.1987
151.932 219 14.7986
152.049 235 15.3297
152.167 218 14.7648
152.284 256 16
152.402 271 16.4621
152.519 273 16.5227
152.636 278 16.6733
152.754 249 15.7797
152.871 262 16.1864
152.989 279 16.7033
153.106 252 15.8745
153.223 232 15.2315
153.341 237 15.3948
153.458 230 15.1658
153.575 197 14.0357
153.693 247 15.7162
153.81 215 14.6629
153.927 229 15.1327
154.044 244 15.6205
154.162 257 16.0312
154.279 249 15.7797
154.396 262 16.1864
154.513 274 16.5529
154.63 253 15.906
154.747 279 16.7033
154.864 244 15.6205
154.981 281 16.7631
155.098 268 16.3707
155.215 235 15.3297
155.332 257 16.0312
155.449 243 15.5885
155.566 238 15.4272
155.683 217 14.7309
155.8 243 15.5885
155.917 197 14.0357
156.033 229 15.1327
156.15 0 1
156.267 0 1
156.383 0 1
156.5 0 1
156.617 0 1
156.733 0 1
156.85 0 1
156.966 0 1
157.082 0 1
157.199 0 1
157.315 0 1
157.431 0 1
157.547 0 1
157.664 0 1
157.78 0 1
157.896 0 1
158.012 0 1
158.128 0 1
158.244 0 1
158.359 0 1
158.475 0 1
158.591 0 1
158.706 0 1
