
6.15755 0 1
6.2731 0 1
6.3887 0 1
6.50437 0 1
6.62009 0 1
6.73587 0 1
6.8517 0 1
6.96759 0 1
7.08353 0 1
7.19952 0 1
7.31557 0 1
7.43166 0 1
7.54781 0 1
7.664 0 1
7.78024 0 1
7.89653 0 1
8.01286 0 1
8.12924 0 1
8.24567 0 1
8.36213 0 1
8.47864 0 1
8.59519 0 1
8.71178 0 1
8.82841 0 1
8.94508 0 1
9.06179 0 1
9.17853 0 1
9.29531 0 1
9.41212 0 1
9.52897 0 1
9.64584 0 1
9.76276 0 1
9.8797 0 1
9.99667 0 1
10.1137 0 1
10.2307 0 1
10.3478 0 1
10.4648 0 1
10.5819 0 1
10.6991 0 1
10.8162 0 1
10.9334 0 1
11.0506 0 1
11.1678 0 1
11.285 0 1
11.4023 0 1
11.5196 0 1
11.6369 0 1
11.7542 0 1
11.8715 0 1
11.9888 0 1
12.1062 0 1
12.2235 0 1
12.3409 0 1
12.4582 0 1
12.5756 0 1
12.693 0 1
12.8104 0 1
12.9278 0 1
13.0452 0 1
13.1626 0 1
13.28 0 1
13.3974 0 1
13.5149 0 1
13.6323 0 1
13.7497 0 1
13.8671 0 1
13.9845 0 1
14.1019 0 1
14.2193 0 1
14.3367 0 1
14.4541 0 1
14.5714 0 1
14.6888 0 1
14.8062 0 1
14.9235 0 1
15.0408 1183 34.3948
15.1581 1357 36.8375
15.2755 1429 37.8021
15.3927 1397 37.3765
15.51 1430 37.8153
15.6273 1360 36.8782
15.7445 1361 36.8917
15.8617 1397 37.3765
15.9789 1367 36.973
16.0961 1371 37.027
16.2132 1354 36.7967
16.3304 1394 37.3363
16.4475 1451 38.092
16.5646 1461 38.223
16.6816 1556 39.4462
16.7986 1585 39.8121
16.9156 1661 40.7554
17.0326 1635 40.4351
17.1496 1676 40.939
17.2665 1616 40.1995
17.3833 1670 40.8656
17.5002 1548 39.3446
17.617 1542 39.2683
17.7338 1439 37.9342
17.8505 1405 37.4833
17.9672 1445 38.0132
18.0839 1438 37.921
18.2005 1433 37.855
18.3171 1459 38.1969
18.4337 1500 38.7298
18.5502 1523 39.0256
18.6666 1569 39.6106
18.7831 1591 39.8873
18.8994 1554 39.4208
19.0158 1582 39.7744
19.1321 1631 40.3856
19.2483 1440 37.9473
19.3645 1357 36.8375
19.4806 1354 36.7967
19.5967 1228 35.0428
19.7128 1103 33.2114
19.8288 1075 32.7872
19.9447 948 30.7896
20.0606 0 1
20.1764 0 1
20.2922 0 1
20.4079 0 1
20.5236 0 1
20.6392 0 1
20.7548 0 1
20.8702 0 1
23.3078 0 1
23.4233 0 1
23.539 0 1
23.6547 0 1
23.7704 0 1
23.8862 0 1
24.0021 0 1
24.118 0 1
24.234 0 1
24.35 0 1
24.4661 669 25.865
24.5822 801 28.3019
24.6984 873 29.5466
24.8146 948 30.7896
24.9309 1100 33.1662
25.0472 1104 33.2265
25.1636 1247 35.3129
25.28 1346 36.6879
25.3965 1515 38.923
25.513 1520 38.9872
25.6296 1680 40.9878
25.7462 1694 41.1582
25.8628 1698 41.2068
25.9795 1708 41.328
26.0962 1675 40.9268
26.213 1627 40.3361
26.3298 1550 39.37
26.4466 1479 38.4578
26.5635 1469 38.3275
26.6804 1475 38.4057
26.7973 1481 38.4838
26.9143 1522 39.0128
27.0313 1624 40.2989
27.1483 1633 40.4104
27.2653 1674 40.9145
27.3824 1671 40.8779
27.4996 1662 40.7676
27.6167 1696 41.1825
27.7339 1516 38.9358
27.8511 1563 39.5348
27.9683 1548 39.3446
28.0855 1473 38.3797
28.2028 1494 38.6523
28.3201 1299 36.0416
28.4374 1380 37.1484
28.5547 1359 36.8646
28.6721 1380 37.1484
28.7894 1467 38.3014
28.9068 1638 40.4722
29.0242 1692 41.1339
29.1416 1685 41.0488
29.259 1695 41.1704
29.3764 1670 40.8656
29.4939 1725 41.5331
29.6113 1656 40.694
29.7288 1609 40.1123
29.8463 1490 38.6005
29.9638 1400 37.4166
30.0812 1361 36.8917
30.1987 1379 37.1349
30.3162 1471 38.3536
30.4337 1559 39.4842
30.5512 1527 39.0768
30.6687 1509 38.8458
30.7862 1593 39.9124
30.9037 1601 40.0125
31.0212 1580 39.7492
31.1387 1541 39.2556
31.2562 1536 39.1918
31.3737 1581 39.7618
31.4912 1536 39.1918
31.6087 1473 38.3797
31.7262 1460 38.2099
31.8436 1427 37.7757
31.9611 1316 36.2767
32.0785 1338 36.5787
32.1959 1337 36.565
32.3134 1416 37.6298
32.4308 1563 39.5348
32.5482 1568 39.598
32.6655 1592 39.8999
32.7829 1633 40.4104
32.9002 1680 40.9878
33.0176 1547 39.3319
33.1349 1644 40.5463
33.2522 1521 39
33.3694 1524 39.0384
33.4867 1424 37.7359
33.6039 1385 37.2156
33.7211 1266 35.5809
33.8383 1263 35.5387
33.9554 1298 36.0278
34.0725 1404 37.47
34.1896 1384 37.2022
34.3067 1432 37.8418
34.4237 1490 38.6005
34.5407 1491 38.6135
34.6577 1474 38.3927
34.7746 1547 39.3319
34.8915 1520 38.9872
35.0084 1509 38.8458
35.1252 1427 37.7757
35.242 1442 37.9737
35.3587 1390 37.2827
35.4755 1337 36.565
35.5921 1320 36.3318
35.7088 1267 35.5949
35.8254 1306 36.1386
35.9419 1329 36.4555
36.0584 1358 36.8511
36.1749 1429 37.8021
36.2913 1431 37.8286
36.4077 1407 37.51
36.524 1452 38.1051
36.6403 1315 36.2629
36.7565 1288 35.8887
36.8727 1225 35
36.9889 1168 34.176
37.1049 1034 32.1559
37.221 0 1
37.3369 0 1
37.4529 0 1
37.5687 0 1
37.6845 0 1
37.8003 0 1
37.916 0 1
38.0316 0 1
38.1472 0 1
40.5851 0 1
40.7008 0 1
40.8164 0 1
40.9322 0 1
41.048 0 1
41.1639 0 1
41.2798 0 1
41.3958 0 1
41.5118 0 1
41.6279 0 1
41.744 698 26.4197
41.8602 826 28.7402
41.9765 906 30.0998
42.0928 901 30.0167
42.2091 901 30.0167
42.3255 908 30.133
42.4419 875 29.5804
42.5584 960 30.9839
42.675 1036 32.187
42.7915 1031 32.1092
42.9081 1079 32.8481
43.0248 1126 33.5559
43.1415 1223 34.9714
43.2582 1126 33.5559
43.375 1239 35.1994
43.4918 1233 35.1141
43.6087 1288 35.8887
43.7256 1246 35.2987
43.8425 1220 34.9285
43.9595 1157 34.0147
44.0765 1187 34.4529
44.1935 1143 33.8083
44.3106 1056 32.4962
44.4277 995 31.5436
44.5448 1065 32.6343
44.6619 1120 33.4664
44.7791 1101 33.1813
44.8963 1102 33.1964
45.0136 1294 35.9722
45.1308 1229 35.0571
45.2481 1313 36.2353
45.3654 1299 36.0416
45.4827 1342 36.6333
45.6001 1296 36
45.7174 1249 35.3412
45.8348 1199 34.6266
45.9522 1080 32.8634
46.0697 1027 32.0468
46.1871 1037 32.2025
46.3046 1027 32.0468
46.422 1188 34.4674
46.5395 1168 34.176
46.657 1226 35.0143
46.7745 1266 35.5809
46.892 1313 36.2353
47.0096 1295 35.9861
47.1271 1372 37.0405
47.2446 1325 36.4005
47.3622 1214 34.8425
47.4797 1209 34.7707
47.5973 1198 34.6121
47.7149 1211 34.7994
47.8324 1171 34.2199
47.95 1127 33.5708
48.0675 1093 33.0606
48.1851 971 31.1609
48.3027 1066 32.6497
48.4202 1145 33.8378
48.5378 1287 35.8748
48.6554 1219 34.9142
48.7729 1358 36.8511
48.8904 1321 36.3456
49.008 1277 35.7351
49.1255 1321 36.3456
49.243 1281 35.7911
49.3605 1165 34.1321
49.478 1075 32.7872
49.5955 1047 32.3574
49.713 991 31.4802
49.8304 1004 31.686
49.9479 1097 33.121
50.0653 1131 33.6303
50.1827 1153 33.9559
50.3001 1188 34.4674
50.4175 1296 36
50.5348 1238 35.1852
50.6521 1325 36.4005
50.7694 1408 37.5233
50.8867 1340 36.606
51.004 1312 36.2215
51.1212 1335 36.5377
51.2384 1238 35.1852
51.3556 1374 37.0675
51.4727 1283 35.819
51.5899 1139 33.7491
51.707 1163 34.1028
51.824 1232 35.0999
51.9411 1314 36.2491
52.0581 1453 38.1182
52.175 1556 39.4462
52.2919 1645 40.5586
52.4088 1672 40.8901
52.5257 1739 41.7013
52.6425 1773 42.107
52.7593 1858 43.1045
52.876 1706 41.3038
52.9927 1688 41.0853
53.1094 1543 39.281
53.226 1523 39.0256
53.3426 1465 38.2753
53.4591 1473 38.3797
53.5756 1536 39.1918
53.692 1628 40.3485
53.8084 1463 38.2492
53.9248 1496 38.6782
54.0411 1499 38.7169
54.1573 1381 37.1618
54.2735 0 1
54.3896 0 1
54.5057 0 1
54.6217 0 1
54.7377 0 1
54.8537 0 1
54.9695 0 1
55.0853 0 1
55.2011 0 1
55.3168 0 1
55.4324 0 1
57.824 0 1
57.9396 0 1
58.0553 0 1
58.1711 0 1
58.2869 0 1
58.4028 0 1
58.5187 0 1
58.6347 0 1
58.7508 0 1
58.8669 0 1
58.983 1092 33.0454
59.0992 1209 34.7707
59.2155 1293 35.9583
59.3318 1460 38.2099
59.4482 1438 37.921
59.5646 1492 38.6264
59.681 1548 39.3446
59.7975 1542 39.2683
59.9141 1586 39.8246
60.0306 1466 38.2884
60.1473 1534 39.1663
60.2639 1458 38.1838
60.3807 1388 37.2559
60.4974 1479 38.4578
60.6142 1432 37.8418
60.731 1526 39.064
60.8479 1568 39.598
60.9648 1573 39.6611
61.0818 1682 41.0122
61.1987 1706 41.3038
61.3158 1639 40.4846
61.4328 1620 40.2492
61.5499 1494 38.6523
61.667 1403 37.4566
61.7841 1309 36.1801
61.9013 1308 36.1663
62.0185 1258 35.4683
62.1357 1296 36
62.253 1404 37.47
62.3702 1508 38.833
62.4875 1597 39.9625
62.6049 1540 39.2428
62.7222 1631 40.3856
62.8396 1554 39.4208
62.9569 1600 40
63.0743 1644 40.5463
63.1918 1673 40.9023
63.3092 1571 39.6358
63.4267 1578 39.724
63.5441 1419 37.6696
63.6616 1424 37.7359
63.7791 1380 37.1484
63.8966 1310 36.1939
64.0142 1267 35.5949
64.1317 1311 36.2077
64.2492 1441 37.9605
64.3668 1510 38.8587
64.4843 1573 39.6611
64.6019 1587 39.8372
64.7195 1594 39.9249
64.837 1646 40.5709
64.9546 1604 40.05
65.0722 1530 39.1152
65.1898 1471 38.3536
65.3074 1254 35.4119
65.4249 1229 35.0571
65.5425 1202 34.6699
65.6601 1186 34.4384
65.7777 1339 36.5923
65.8952 1378 37.1214
66.0128 1395 37.3497
66.1304 1453 38.1182
66.2479 1494 38.6523
66.3655 1471 38.3536
66.483 1610 40.1248
66.6005 1549 39.3573
66.718 1589 39.8623
66.8355 1522 39.0128
66.953 1549 39.3573
67.0705 1543 39.281
67.1879 1457 38.1707
67.3054 1377 37.108
67.4228 1291 35.9305
67.5402 1215 34.8569
67.6576 1241 35.2278
67.7749 1232 35.0999
67.8923 1350 36.7423
68.0096 1491 38.6135
68.1269 1487 38.5616
68.2442 1538 39.2173
68.3614 1626 40.3237
68.4787 1534 39.1663
68.5958 1589 39.8623
68.713 1511 38.8716
68.8302 1451 38.092
68.9473 1333 36.5103
69.0643 1160 34.0588
69.1814 1148 33.8821
69.2984 1230 35.0714
69.4154 1170 34.2053
69.5323 1297 36.0139
69.6492 1410 37.55
69.7661 1445 38.0132
69.8829 1502 38.7556
69.9997 1449 38.0657
70.1165 1392 37.3095
70.2332 1370 37.0135
70.3499 1334 36.524
70.4665 1276 35.7211
70.5831 1194 34.5543
70.6996 1127 33.5708
70.8161 1017 31.8904
70.9326 961 31
71.049 831 28.8271
71.1653 746 27.313
71.2817 640 25.2982
71.3979 579 24.0624
71.5141 556 23.5797
71.6303 502 22.4054
71.7464 520 22.8035
71.8624 0 1
71.9784 0 1
72.0944 0 1
72.2102 0 1
72.3261 0 1
72.4418 0 1
72.5575 0 1
72.6732 0 1
75.1054 0 1
75.2209 0 1
75.3365 0 1
75.4521 0 1
75.5678 0 1
75.6835 0 1
75.7993 0 1
75.9151 0 1
76.031 0 1
76.147 882 29.6985
76.263 971 31.1609
76.3791 931 30.5123
76.4952 977 31.257
76.6113 1013 31.8277
76.7276 1034 32.1559
76.8438 1158 34.0294
76.9601 1258 35.4683
77.0765 1314 36.2491
77.1929 1369 37
77.3093 1347 36.7015
77.4258 1373 37.054
77.5423 1301 36.0694
77.6589 1329 36.4555
77.7755 1187 34.4529
77.8921 1144 33.8231
78.0088 1037 32.2025
78.1256 955 30.9031
78.2423 972 31.1769
78.3591 994 31.5278
78.4759 1138 33.7343
78.5928 1088 32.9848
78.7097 1240 35.2136
78.8266 1230 35.0714
78.9436 1392 37.3095
79.0606 1292 35.9444
79.1776 1374 37.0675
79.2946 1385 37.2156
79.4117 1373 37.054
79.5288 1297 36.0139
79.6459 1358 36.8511
79.7631 1301 36.0694
79.8802 1227 35.0286
79.9974 1186 34.4384
80.1147 1120 33.4664
80.2319 1005 31.7017
80.3491 1131 33.6303
80.4664 1157 34.0147
80.5837 1199 34.6266
80.701 1259 35.4824
80.8183 1341 36.6197
80.9357 1384 37.2022
81.053 1416 37.6298
81.1704 1408 37.5233
81.2877 1435 37.8814
81.4051 1304 36.1109
81.5225 1235 35.1426
81.6399 1145 33.8378
81.7573 1117 33.4215
81.8747 991 31.4802
81.9922 1073 32.7567
82.1096 1057 32.5115
82.227 1140 33.7639
82.3444 1233 35.1141
82.4619 1278 35.7491
82.5793 1363 36.9188
82.6967 1429 37.8021
82.8142 1368 36.9865
82.9316 1427 37.7757
83.049 1369 37
83.1664 1354 36.7967
83.2838 1417 37.6431
83.4012 1383 37.1887
83.5186 1294 35.9722
83.636 1260 35.4965
83.7534 1153 33.9559
83.8708 1120 33.4664
83.9881 1081 32.8786
84.1055 1198 34.6121
84.2228 1231 35.0856
84.3401 1255 35.426
84.4575 1437 37.9078
84.5747 1447 38.0395
84.692 1410 37.55
84.8093 1409 37.5366
84.9265 1395 37.3497
85.0437 1362 36.9053
85.1609 1228 35.0428
85.2781 1133 33.6601
85.3952 969 31.1288
85.5123 1012 31.8119
85.6294 1010 31.7805
85.7465 1137 33.7194
85.8636 1307 36.1525
85.9806 1320 36.3318
86.0976 1330 36.4692
86.2145 1368 36.9865
86.3315 1371 37.027
86.4484 1427 37.7757
86.5652 1444 38
86.682 1448 38.0526
86.7988 1434 37.8682
86.9156 1429 37.8021
87.0323 1336 36.5513
87.149 1386 37.229
87.2657 1251 35.3695
87.3823 1116 33.4066
87.4988 992 31.496
87.6154 931 30.5123
87.7318 986 31.4006
87.8483 1061 32.573
87.9647 1110 33.3167
88.081 1175 34.2783
88.1973 1062 32.5883
88.3136 1093 33.0606
88.4298 995 31.5436
88.546 948 30.7896
88.6621 912 30.1993
88.7781 625 25
88.8942 0 1
89.0101 0 1
89.126 0 1
89.2419 0 1
89.3577 0 1
89.4734 0 1
89.5891 0 1
89.7047 0 1
89.8203 0 1
89.9358 0 1
92.3269 0 1
92.4424 0 1
92.558 0 1
92.6736 0 1
92.7893 0 1
92.905 0 1
93.0208 0 1
93.1366 0 1
93.2525 0 1
93.3685 0 1
93.4845 0 1
93.6005 1069 32.6956
93.7167 1116 33.4066
93.8328 1126 33.5559
93.949 1237 35.171
94.0653 1259 35.4824
94.1816 1265 35.5668
94.2979 1155 33.9853
94.4143 1186 34.4384
94.5307 1060 32.5576
94.6472 1041 32.2645
94.7637 1086 32.9545
94.8803 1082 32.8938
94.9969 1210 34.7851
95.1135 1317 36.2905
95.2302 1335 36.5377
95.3469 1401 37.4299
95.4637 1429 37.8021
95.5805 1427 37.7757
95.6973 1419 37.6696
95.8142 1392 37.3095
95.9311 1422 37.7094
96.048 1425 37.7492
96.1649 1420 37.6829
96.2819 1334 36.524
96.3989 1312 36.2215
96.516 1256 35.4401
96.633 1221 34.9428
96.7501 1116 33.4066
96.8673 1118 33.4365
96.9844 1197 34.5977
97.1016 1180 34.3511
97.2188 1350 36.7423
97.336 1436 37.8946
97.4532 1454 38.1314
97.5704 1454 38.1314
97.6877 1482 38.4968
97.805 1447 38.0395
97.9223 1344 36.6606
98.0396 1231 35.0856
98.1569 1214 34.8425
98.2743 1063 32.6037
98.3916 985 31.3847
98.509 1132 33.6452
98.6264 1202 34.6699
98.7438 1259 35.4824
98.8612 1383 37.1887
98.9786 1389 37.2693
99.096 1468 38.3145
99.2134 1492 38.6264
99.3308 1501 38.7427
99.4482 1493 38.6394
99.5656 1516 38.9358
99.6831 1476 38.4187
99.8005 1480 38.4708
99.9179 1462 38.2361
100.035 1402 37.4433
100.153 1334 36.524
100.27 1264 35.5528
100.388 1217 34.8855
100.505 1230 35.0714
100.622 1381 37.1618
100.74 1427 37.7757
100.857 1512 38.8844
100.975 1480 38.4708
101.092 1552 39.3954
101.209 1626 40.3237
101.327 1558 39.4715
101.444 1494 38.6523
101.561 1347 36.7015
101.679 1295 35.9861
101.796 1174 34.2637
101.913 1076 32.8024
102.03 1113 33.3617
102.148 1245 35.2846
102.265 1353 36.7831
102.382 1458 38.1838
102.499 1380 37.1484
102.616 1554 39.4208
102.733 1538 39.2173
102.851 1553 39.4081
102.968 1554 39.4208
103.085 1588 39.8497
103.202 1511 38.8716
103.319 1602 40.025
103.436 1608 40.0999
103.552 1514 38.9102
103.669 1421 37.6962
103.786 1360 36.8782
103.903 1287 35.8748
104.02 1322 36.3593
104.137 1436 37.8946
104.253 1446 38.0263
104.37 1605 40.0625
104.487 1612 40.1497
104.603 1637 40.4599
104.72 1645 40.5586
104.836 1596 39.95
104.953 1523 39.0256
105.069 1316 36.2767
105.186 1137 33.7194
105.302 1085 32.9393
105.418 1064 32.619
105.535 1023 31.9844
105.651 1024 32
105.767 1072 32.7414
105.883 1077 32.8177
105.999 1003 31.6702
106.115 0 1
106.231 0 1
106.347 0 1
106.463 0 1
106.579 0 1
106.694 0 1
106.81 0 1
106.926 0 1
107.041 0 1
107.157 0 1
109.576 0 1
109.692 0 1
109.807 0 1
109.923 0 1
110.039 0 1
110.155 0 1
110.27 0 1
110.386 0 1
110.502 0 1
110.618 658 25.6515
110.735 838 28.9482
110.851 994 31.5278
110.967 1132 33.6452
111.083 1276 35.7211
111.199 1324 36.3868
111.316 1434 37.8682
111.432 1454 38.1314
111.549 1461 38.223
111.665 1520 38.9872
111.782 1489 38.5876
111.898 1470 38.3406
112.015 1421 37.6962
112.132 1408 37.5233
112.248 1259 35.4824
112.365 1166 34.1467
112.482 1241 35.2278
112.599 1276 35.7211
112.716 1377 37.108
112.832 1568 39.598
112.949 1552 39.3954
113.066 1509 38.8458
113.183 1541 39.2556
113.3 1540 39.2428
113.417 1522 39.0128
113.534 1413 37.5899
113.652 1317 36.2905
113.769 1274 35.6931
113.886 1111 33.3317
114.003 1125 33.541
114.12 1153 33.9559
114.238 1301 36.0694
114.355 1405 37.4833
114.472 1312 36.2215
114.589 1519 38.9744
114.707 1442 37.9737
114.824 1499 38.7169
114.942 1554 39.4208
115.059 1518 38.9615
115.176 1587 39.8372
115.294 1458 38.1838
115.411 1527 39.0768
115.529 1541 39.2556
115.646 1438 37.921
115.764 1382 37.1753
115.881 1273 35.6791
115.999 1237 35.171
116.116 1307 36.1525
116.234 1369 37
116.351 1443 37.9868
116.469 1576 39.6989
116.586 1537 39.2046
116.704 1581 39.7618
116.821 1587 39.8372
116.939 1572 39.6485
117.056 1508 38.833
117.174 1368 36.9865
117.291 1273 35.6791
117.409 1169 34.1906
117.526 1150 33.9116
117.644 1118 33.4365
117.761 1203 34.6843
117.879 1284 35.8329
117.996 1404 37.47
118.114 1383 37.1887
118.231 1521 39
118.349 1375 37.081
118.466 1476 38.4187
118.584 1494 38.6523
118.701 1504 38.7814
118.819 1465 38.2753
118.936 1465 38.2753
119.053 1430 37.8153
119.171 1477 38.4318
119.288 1356 36.8239
119.405 1270 35.6371
119.523 1241 35.2278
119.64 1207 34.7419
119.757 1255 35.426
119.875 1382 37.1753
119.992 1332 36.4966
120.109 1436 37.8946
120.226 1461 38.223
120.343 1510 38.8587
120.46 1372 37.0405
120.578 1455 38.1445
120.695 1449 38.0657
120.812 1401 37.4299
120.929 1253 35.3977
121.046 1157 34.0147
121.163 1117 33.4215
121.279 1008 31.749
121.396 1026 32.0312
121.513 1140 33.7639
121.63 1137 33.7194
121.747 1222 34.9571
121.863 1111 33.3317
121.98 1257 35.4542
122.097 1176 34.2929
122.213 1118 33.4365
122.33 1146 33.8526
122.446 1125 33.541
122.563 1024 32
122.679 986 31.4006
122.795 916 30.2655
122.912 820 28.6356
123.028 724 26.9072
123.144 682 26.1151
123.26 562 23.7065
123.377 0 1
123.493 0 1
123.609 0 1
123.725 0 1
123.84 0 1
123.956 0 1
124.072 0 1
124.188 0 1
124.303 0 1
124.419 0 1
126.852 0 1
126.968 0 1
127.083 0 1
127.199 0 1
127.315 0 1
127.431 0 1
127.547 0 1
127.663 0 1
127.779 0 1
127.895 0 1
128.011 0 1
128.127 0 1
128.243 0 1
128.359 1275 35.7071
128.476 1342 36.6333
128.592 1352 36.7696
128.708 1327 36.428
128.825 1285 35.8469
128.941 1329 36.4555
129.058 1471 38.3536
129.174 1516 38.9358
129.291 1557 39.4588
129.408 1558 39.4715
129.524 1587 39.8372
129.641 1508 38.833
129.758 1499 38.7169
129.875 1481 38.4838
129.992 1336 36.5513
130.108 1287 35.8748
130.225 1191 34.5109
130.342 1081 32.8786
130.459 1196 34.5832
130.576 1297 36.0139
130.693 1366 36.9594
130.81 1413 37.5899
130.928 1502 38.7556
131.045 1541 39.2556
131.162 1530 39.1152
131.279 1545 39.3065
131.396 1527 39.0768
131.513 1523 39.0256
131.631 1528 39.0896
131.748 1486 38.5487
131.865 1454 38.1314
131.983 1465 38.2753
132.1 1436 37.8946
132.217 1292 35.9444
132.335 1440 37.9473
132.452 1347 36.7015
132.57 1412 37.5766
132.687 1519 38.9744
132.804 1528 39.0896
132.922 1527 39.0768
133.039 1571 39.6358
133.157 1541 39.2556
133.274 1563 39.5348
133.392 1540 39.2428
133.509 1405 37.4833
133.627 1357 36.8375
133.744 1232 35.0999
133.862 1129 33.6006
133.979 1202 34.6699
134.097 1275 35.7071
134.214 1388 37.2559
134.332 1510 38.8587
134.449 1464 38.2623
134.567 1497 38.6911
134.684 1532 39.1408
134.802 1519 38.9744
134.919 1596 39.95
135.037 1552 39.3954
135.154 1529 39.1024
135.272 1547 39.3319
135.389 1449 38.0657
135.507 1407 37.51
135.624 1384 37.2022
135.742 1378 37.1214
135.859 1339 36.5923
135.977 1361 36.8917
136.094 1382 37.1753
136.211 1475 38.4057
136.329 1550 39.37
136.446 1515 38.923
136.564 1639 40.4846
136.681 1666 40.8167
136.798 1555 39.4335
136.915 1581 39.7618
137.033 1495 38.6652
137.15 1417 37.6431
137.267 1311 36.2077
137.384 1231 35.0856
137.502 1166 34.1467
137.619 1234 35.1283
137.736 1319 36.318
137.853 1325 36.4005
137.97 1425 37.7492
138.087 1443 37.9868
138.204 1498 38.704
138.321 1496 38.6782
138.438 1532 39.1408
138.555 1602 40.025
138.672 1619 40.2368
138.788 1469 38.3275
138.905 1410 37.55
139.022 1377 37.108
139.139 1312 36.2215
139.255 1252 35.3836
139.372 1080 32.8634
139.488 1040 32.249
139.605 1009 31.7648
139.721 979 31.289
139.838 1031 32.1092
139.954 1036 32.187
140.071 982 31.3369
140.187 972 31.1769
140.303 866 29.4279
140.419 818 28.6007
140.535 813 28.5132
140.652 695 26.3629
140.768 0 1
140.884 0 1
141 0 1
141.115 0 1
141.231 0 1
141.347 0 1
141.463 0 1
141.578 0 1
141.694 0 1
144.104 0 1
144.219 0 1
144.335 0 1
144.45 0 1
144.566 0 1
144.682 0 1
144.798 0 1
144.914 0 1
145.03 0 1
145.146 1114 33.3766
145.262 1126 33.5559
145.378 1249 35.3412
145.494 1252 35.3836
145.61 1239 35.1994
145.726 1245 35.2846
145.842 1168 34.176
145.959 1064 32.619
146.075 1035 32.1714
146.192 1002 31.6544
146.308 946 30.7571
146.425 987 31.4166
146.541 1010 31.7805
146.658 1092 33.0454
146.774 1099 33.1512
146.891 1144 33.8231
147.008 1177 34.3074
147.125 1194 34.5543
147.241 1123 33.5112
147.358 1194 34.5543
147.475 1160 34.0588
147.592 1178 34.322
147.709 1175 34.2783
147.826 1177 34.3074
147.943 1072 32.7414
148.06 1018 31.9061
148.177 1046 32.3419
148.294 1078 32.8329
148.411 1079 32.8481
148.528 1078 32.8329
148.645 1135 33.6898
148.762 1214 34.8425
148.88 1202 34.6699
148.997 1210 34.7851
149.114 1200 34.641
149.231 1199 34.6266
149.349 1192 34.5254
149.466 1229 35.0571
149.583 1104 33.2265
149.701 1028 32.0624
149.818 946 30.7571
149.935 932 30.5287
150.053 987 31.4166
150.17 992 31.496
150.287 990 31.4643
150.405 1088 32.9848
150.522 1004 31.686
150.64 1076 32.8024
150.757 1130 33.6155
150.875 1123 33.5112
150.992 1154 33.9706
151.11 1115 33.3916
151.227 1175 34.2783
151.344 1143 33.8083
151.462 1011 31.7962
151.579 1079 32.8481
151.697 1013 31.8277
151.814 985 31.3847
151.932 989 31.4484
152.049 1053 32.45
152.167 1017 31.8904
152.284 1058 32.5269
152.402 1111 33.3317
152.519 1136 33.7046
152.636 1185 34.4238
152.754 1146 33.8526
152.871 1152 33.9411
152.989 1150 33.9116
153.106 1006 31.7175
153.223 1039 32.2335
153.341 970 31.1448
153.458 876 29.5973
153.575 914 30.2324
153.693 913 30.2159
153.81 894 29.8998
153.927 974 31.209
154.044 1032 32.1248
154.162 962 31.0161
154.279 1064 32.619
154.396 1028 32.0624
154.513 1139 33.7491
154.63 1102 33.1964
154.747 1070 32.7109
154.864 1069 32.6956
154.981 1077 32.8177
155.098 1039 32.2335
155.215 958 30.9516
155.332 956 30.9192
155.449 903 30.05
155.566 954 30.8869
155.683 979 31.289
155.8 951 30.8383
155.917 978 31.273
156.033 944 30.7246
156.15 0 1
156.267 0 1
156.383 0 1
156.5 0 1
156.617 0 1
156.733 0 1
156.85 0 1
156.966 0 1
157.082 0 1
157.199 0 1
157.315 0 1
157.431 0 1
157.547 0 1
157.664 0 1
157.78 0 1
157.896 0 1
158.012 0 1
158.128 0 1
158.244 0 1
158.359 0 1
158.475 0 1
158.591 0 1
158.706 0 1
