
6.15755 0 1
6.2731 0 1
6.3887 0 1
6.50437 0 1
6.62009 0 1
6.73587 0 1
6.8517 0 1
6.96759 0 1
7.08353 0 1
7.19952 0 1
7.31557 0 1
7.43166 0 1
7.54781 0 1
7.664 0 1
7.78024 0 1
7.89653 0 1
8.01286 0 1
8.12924 0 1
8.24567 0 1
8.36213 0 1
8.47864 0 1
8.59519 0 1
8.71178 0 1
8.82841 0 1
8.94508 0 1
9.06179 0 1
9.17853 0 1
9.29531 0 1
9.41212 0 1
9.52897 0 1
9.64584 0 1
9.76276 0 1
9.8797 0 1
9.99667 0 1
10.1137 0 1
10.2307 0 1
10.3478 0 1
10.4648 0 1
10.5819 0 1
10.6991 0 1
10.8162 0 1
10.9334 0 1
11.0506 0 1
11.1678 0 1
11.285 0 1
11.4023 0 1
11.5196 0 1
11.6369 0 1
11.7542 0 1
11.8715 0 1
11.9888 0 1
12.1062 0 1
12.2235 0 1
12.3409 0 1
12.4582 0 1
12.5756 0 1
12.693 0 1
12.8104 0 1
12.9278 0 1
13.0452 0 1
13.1626 0 1
13.28 0 1
13.3974 0 1
13.5149 0 1
13.6323 0 1
13.7497 0 1
13.8671 0 1
13.9845 0 1
14.1019 0 1
14.2193 0 1
14.3367 0 1
14.4541 0 1
14.5714 0 1
14.6888 0 1
14.8062 0 1
14.9235 0 1
15.0408 0 0
15.1581 0 0
15.2755 0 0
15.3927 0 0
15.51 0 0
15.6273 0 0
15.7445 0 0
15.8617 0 0
15.9789 0 0
16.0961 0 0
16.2132 0 0
16.3304 0 0
16.4475 0 0
16.5646 0 0
16.6816 0 0
16.7986 0 0
16.9156 0 0
17.0326 0 0
17.1496 0 0
17.2665 0 0
17.3833 0 0
17.5002 0 0
17.617 0 0
17.7338 0 0
17.8505 0 0
17.9672 0 0
18.0839 0 0
18.2005 0 0
18.3171 0 0
18.4337 0 0
18.5502 0 0
18.6666 0 0
18.7831 0 0
18.8994 0 0
19.0158 0 0
19.1321 0 0
19.2483 0 0
19.3645 0 0
19.4806 0 0
19.5967 0 0
19.7128 0 0
19.8288 0 0
19.9447 0 0
20.0606 0 1
20.1764 0 1
20.2922 0 1
20.4079 0 1
20.5236 0 1
20.6392 0 1
20.7548 0 1
20.8702 0 1
23.3078 0 1
23.4233 0 1
23.539 0 1
23.6547 0 1
23.7704 0 1
23.8862 0 1
24.0021 0 1
24.118 0 1
24.234 0 1
24.35 0 1
24.4661 1407 37.51
24.5822 1397 37.3765
24.6984 1386 37.229
24.8146 1346 36.6879
24.9309 1274 35.6931
25.0472 1266 35.5809
25.1636 1291 35.9305
25.28 1414 37.6032
25.3965 1451 38.092
25.513 1441 37.9605
25.6296 1528 39.0896
25.7462 1578 39.724
25.8628 1475 38.4057
25.9795 1598 39.975
26.0962 1553 39.4081
26.213 1528 39.0896
26.3298 1568 39.598
26.4466 1540 39.2428
26.5635 1526 39.064
26.6804 1500 38.7298
26.7973 1473 38.3797
26.9143 1421 37.6962
27.0313 1434 37.8682
27.1483 1457 38.1707
27.2653 1585 39.8121
27.3824 1604 40.05
27.4996 1544 39.2938
27.6167 1586 39.8246
27.7339 1547 39.3319
27.8511 1460 38.2099
27.9683 1474 38.3927
28.0855 1409 37.5366
28.2028 1377 37.108
28.3201 1351 36.756
28.4374 1250 35.3553
28.5547 1222 34.9571
28.6721 1213 34.8281
28.7894 1333 36.5103
28.9068 1377 37.108
29.0242 1407 37.51
29.1416 1443 37.9868
29.259 1450 38.0789
29.3764 1548 39.3446
29.4939 1544 39.2938
29.6113 1501 38.7427
29.7288 1493 38.6394
29.8463 1535 39.1791
29.9638 1561 39.5095
30.0812 1561 39.5095
30.1987 1444 38
30.3162 1423 37.7227
30.4337 1492 38.6264
30.5512 1478 38.4448
30.6687 1489 38.5876
30.7862 1537 39.2046
30.9037 1571 39.6358
31.0212 1589 39.8623
31.1387 1447 38.0395
31.2562 1567 39.5854
31.3737 1506 38.8072
31.4912 1454 38.1314
31.6087 1454 38.1314
31.7262 1409 37.5366
31.8436 1352 36.7696
31.9611 1289 35.9026
32.0785 1261 35.5106
32.1959 1311 36.2077
32.3134 1354 36.7967
32.4308 1358 36.8511
32.5482 1422 37.7094
32.6655 1449 38.0657
32.7829 1481 38.4838
32.9002 1525 39.0512
33.0176 1476 38.4187
33.1349 1550 39.37
33.2522 1514 38.9102
33.3694 1502 38.7556
33.4867 1543 39.281
33.6039 1527 39.0768
33.7211 1530 39.1152
33.8383 1472 38.3667
33.9554 1439 37.9342
34.0725 1493 38.6394
34.1896 1454 38.1314
34.3067 1523 39.0256
34.4237 1562 39.5221
34.5407 1538 39.2173
34.6577 1582 39.7744
34.7746 1631 40.3856
34.8915 1571 39.6358
35.0084 1560 39.4968
35.1252 1509 38.8458
35.242 1447 38.0395
35.3587 1393 37.3229
35.4755 1397 37.3765
35.5921 1262 35.5246
35.7088 1219 34.9142
35.8254 1256 35.4401
35.9419 1303 36.0971
36.0584 1285 35.8469
36.1749 1398 37.3898
36.2913 1496 38.6782
36.4077 1463 38.2492
36.524 1465 38.2753
36.6403 1504 38.7814
36.7565 1551 39.3827
36.8727 1543 39.281
36.9889 1538 39.2173
37.1049 1480 38.4708
37.221 0 1
37.3369 0 1
37.4529 0 1
37.5687 0 1
37.6845 0 1
37.8003 0 1
37.916 0 1
38.0316 0 1
38.1472 0 1
40.5851 0 1
40.7008 0 1
40.8164 0 1
40.9322 0 1
41.048 0 1
41.1639 0 1
41.2798 0 1
41.3958 0 1
41.5118 0 1
41.6279 0 1
41.744 1325 36.4005
41.8602 1313 36.2353
41.9765 1435 37.8814
42.0928 1411 37.5633
42.2091 1483 38.5097
42.3255 1304 36.1109
42.4419 1385 37.2156
42.5584 1386 37.229
42.675 1266 35.5809
42.7915 1316 36.2767
42.9081 1340 36.606
43.0248 1390 37.2827
43.1415 1405 37.4833
43.2582 1391 37.2961
43.375 1445 38.0132
43.4918 1453 38.1182
43.6087 1448 38.0526
43.7256 1456 38.1576
43.8425 1387 37.2424
43.9595 1381 37.1618
44.0765 1356 36.8239
44.1935 1268 35.609
44.3106 1232 35.0999
44.4277 1117 33.4215
44.5448 1057 32.5115
44.6619 1047 32.3574
44.7791 1088 32.9848
44.8963 1078 32.8329
45.0136 1185 34.4238
45.1308 1219 34.9142
45.2481 1194 34.5543
45.3654 1294 35.9722
45.4827 1260 35.4965
45.6001 1218 34.8999
45.7174 1244 35.2704
45.8348 1265 35.5668
45.9522 1244 35.2704
46.0697 1161 34.0735
46.1871 1024 32
46.3046 1065 32.6343
46.422 1105 33.2415
46.5395 1124 33.5261
46.657 1150 33.9116
46.7745 1142 33.7935
46.892 1158 34.0294
47.0096 1090 33.0151
47.1271 1166 34.1467
47.2446 1121 33.4813
47.3622 1118 33.4365
47.4797 1093 33.0606
47.5973 1105 33.2415
47.7149 968 31.1127
47.8324 950 30.8221
47.95 826 28.7402
48.0675 803 28.3373
48.1851 791 28.1247
48.3027 723 26.8887
48.4202 836 28.9137
48.5378 868 29.4618
48.6554 937 30.6105
48.7729 1022 31.9687
48.8904 1060 32.5576
49.008 1032 32.1248
49.1255 1039 32.2335
49.243 1025 32.0156
49.3605 1066 32.6497
49.478 1023 31.9844
49.5955 981 31.3209
49.713 996 31.5595
49.8304 1001 31.6386
49.9479 949 30.8058
50.0653 1030 32.0936
50.1827 1090 33.0151
50.3001 1179 34.3366
50.4175 1147 33.8674
50.5348 1182 34.3802
50.6521 1258 35.4683
50.7694 1334 36.524
50.8867 1276 35.7211
51.004 1303 36.0971
51.1212 1262 35.5246
51.2384 1328 36.4417
51.3556 1260 35.4965
51.4727 1200 34.641
51.5899 1114 33.3766
51.707 1069 32.6956
51.824 1067 32.665
51.9411 1192 34.5254
52.0581 1258 35.4683
52.175 1350 36.7423
52.2919 1418 37.6563
52.4088 1448 38.0526
52.5257 1449 38.0657
52.6425 1507 38.8201
52.7593 1582 39.7744
52.876 1476 38.4187
52.9927 1516 38.9358
53.1094 1628 40.3485
53.226 1500 38.7298
53.3426 1424 37.7359
53.4591 1554 39.4208
53.5756 1469 38.3275
53.692 1606 40.0749
53.8084 1598 39.975
53.9248 1640 40.4969
54.0411 1672 40.8901
54.1573 1692 41.1339
54.2735 0 1
54.3896 0 1
54.5057 0 1
54.6217 0 1
54.7377 0 1
54.8537 0 1
54.9695 0 1
55.0853 0 1
55.2011 0 1
55.3168 0 1
55.4324 0 1
57.824 0 1
57.9396 0 1
58.0553 0 1
58.1711 0 1
58.2869 0 1
58.4028 0 1
58.5187 0 1
58.6347 0 1
58.7508 0 1
58.8669 0 1
58.983 2001 44.7325
59.0992 2131 46.1628
59.2155 2124 46.0869
59.3318 2143 46.2925
59.4482 2198 46.8828
59.5646 2123 46.076
59.681 2145 46.3141
59.7975 2108 45.913
59.9141 2050 45.2769
60.0306 1964 44.317
60.1473 1681 41
60.2639 1660 40.7431
60.3807 1638 40.4722
60.4974 1582 39.7744
60.6142 1581 39.7618
60.731 1625 40.3113
60.8479 1856 43.0813
60.9648 1961 44.2832
61.0818 2061 45.3982
61.1987 2064 45.4313
61.3158 2105 45.8803
61.4328 2030 45.0555
61.5499 2027 45.0222
61.667 2062 45.4093
61.7841 1956 44.2267
61.9013 1946 44.1135
62.0185 1981 44.5084
62.1357 1887 43.4396
62.253 1996 44.6766
62.3702 2096 45.7821
62.4875 2198 46.8828
62.6049 2213 47.0425
62.7222 2239 47.3181
62.8396 2143 46.2925
62.9569 2193 46.8295
63.0743 2188 46.7761
63.1918 2152 46.3897
63.3092 2093 45.7493
63.4267 2045 45.2217
63.5441 1948 44.1362
63.6616 1751 41.845
63.7791 1560 39.4968
63.8966 1563 39.5348
64.0142 1455 38.1445
64.1317 1601 40.0125
64.2492 1777 42.1545
64.3668 1762 41.9762
64.4843 1937 44.0114
64.6019 2047 45.2438
64.7195 2052 45.299
64.837 2092 45.7384
64.9546 2125 46.0977
65.0722 2121 46.0543
65.1898 1972 44.4072
65.3074 2110 45.9347
65.4249 1933 43.9659
65.5425 1983 44.5309
65.6601 1968 44.3621
65.7777 2037 45.1331
65.8952 2150 46.3681
66.0128 2224 47.1593
66.1304 2329 48.2597
66.2479 2186 46.7547
66.3655 2293 47.8853
66.483 2229 47.2123
66.6005 2371 48.6929
66.718 2321 48.1768
66.8355 2153 46.4004
66.953 2102 45.8476
67.0705 2121 46.0543
67.1879 1981 44.5084
67.3054 1841 42.9069
67.4228 1596 39.95
67.5402 1484 38.5227
67.6576 1477 38.4318
67.7749 1588 39.8497
67.8923 1749 41.821
68.0096 1914 43.7493
68.1269 2084 45.6508
68.2442 2296 47.9166
68.3614 2281 47.7598
68.4787 2326 48.2286
68.5958 2246 47.392
68.713 2261 47.55
68.8302 2391 48.8979
68.9473 2398 48.9694
69.0643 2193 46.8295
69.1814 2146 46.3249
69.2984 2196 46.8615
69.4154 2346 48.4355
69.5323 2431 49.3052
69.6492 2383 48.816
69.7661 2523 50.2295
69.8829 2470 49.6991
69.9997 2590 50.892
70.1165 2694 51.9038
70.2332 2631 51.2933
70.3499 2466 49.6588
70.4665 2616 51.1468
70.5831 2533 50.3289
70.6996 2419 49.1833
70.8161 2240 47.3286
70.9326 2127 46.1194
71.049 1935 43.9886
71.1653 1716 41.4246
71.2817 1546 39.3192
71.3979 1632 40.398
71.5141 1704 41.2795
71.6303 1908 43.6807
71.7464 1915 43.7607
71.8624 0 1
71.9784 0 1
72.0944 0 1
72.2102 0 1
72.3261 0 1
72.4418 0 1
72.5575 0 1
72.6732 0 1
75.1054 0 1
75.2209 0 1
75.3365 0 1
75.4521 0 1
75.5678 0 1
75.6835 0 1
75.7993 0 1
75.9151 0 1
76.031 0 1
76.147 2229 47.2123
76.263 2279 47.7389
76.3791 2184 46.7333
76.4952 1822 42.6849
76.6113 1718 41.4488
76.7276 1858 43.1045
76.8438 2008 44.8107
76.9601 2258 47.5184
77.0765 2512 50.1199
77.1929 2627 51.2543
77.3093 2873 53.6004
77.4258 2744 52.3832
77.5423 2828 53.1789
77.6589 2732 52.2685
77.7755 2924 54.074
77.8921 2885 53.7122
78.0088 2831 53.2071
78.1256 2648 51.4587
78.2423 2722 52.1728
78.3591 2660 51.5752
78.4759 2758 52.5167
78.5928 2907 53.9166
78.7097 2879 53.6563
78.8266 3079 55.4887
78.9436 2837 53.2635
79.0606 3016 54.9181
79.1776 3003 54.7996
79.2946 3108 55.7494
79.4117 3041 55.1453
79.5288 2993 54.7083
79.6459 2879 53.6563
79.7631 2834 53.2353
79.8802 2674 51.7107
79.9974 2562 50.6162
80.1147 2202 46.9255
80.2319 1802 42.45
80.3491 1931 43.9431
80.4664 2136 46.2169
80.5837 2379 48.775
80.701 2687 51.8363
80.8183 2924 54.074
80.9357 2903 53.8795
81.053 3117 55.8301
81.1704 3049 55.2178
81.2877 3116 55.8211
81.4051 3069 55.3986
81.5225 2975 54.5436
81.6399 2919 54.0278
81.7573 2842 53.3104
81.8747 2824 53.1413
81.9922 2878 53.647
82.1096 2862 53.4977
82.227 3061 55.3263
82.3444 2962 54.4243
82.4619 3096 55.6417
82.5793 3088 55.5698
82.6967 3282 57.2887
82.8142 3199 56.5597
82.9316 3185 56.4358
83.049 3126 55.9106
83.1664 3051 55.2359
83.2838 3037 55.109
83.4012 2877 53.6377
83.5186 2762 52.5547
83.636 2608 51.0686
83.7534 2264 47.5815
83.8708 2000 44.7214
83.9881 1886 43.4281
84.1055 2104 45.8694
84.2228 2242 47.3498
84.3401 2735 52.2972
84.4575 3089 55.5788
84.5747 3189 56.4712
84.692 3209 56.648
84.8093 3251 57.0175
84.9265 3331 57.7148
85.0437 3212 56.6745
85.1609 3339 57.7841
85.2781 3233 56.8595
85.3952 3170 56.3028
85.5123 3107 55.7405
85.6294 3088 55.5698
85.7465 3179 56.3826
85.8636 3397 58.2838
85.9806 3335 57.7495
86.0976 3568 59.7327
86.2145 3626 60.2163
86.3315 3496 59.127
86.4484 3812 61.7414
86.5652 3782 61.498
86.682 3777 61.4573
86.7988 3676 60.63
86.9156 3623 60.1914
87.0323 3504 59.1946
87.149 3156 56.1783
87.2657 2981 54.5985
87.3823 2654 51.517
87.4988 2324 48.2079
87.6154 2433 49.3254
87.7318 2764 52.5738
87.8483 3170 56.3028
87.9647 3684 60.696
88.081 3843 61.9919
88.1973 3994 63.1981
88.3136 3890 62.3699
88.4298 3990 63.1664
88.546 3944 62.8013
88.6621 3944 62.8013
88.7781 3832 61.9032
88.8942 0 1
89.0101 0 1
89.126 0 1
89.2419 0 1
89.3577 0 1
89.4734 0 1
89.5891 0 1
89.7047 0 1
89.8203 0 1
89.9358 0 1
92.3269 0 1
92.4424 0 1
92.558 0 1
92.6736 0 1
92.7893 0 1
92.905 0 1
93.0208 0 1
93.1366 0 1
93.2525 0 1
93.3685 0 1
93.4845 0 1
93.6005 4033 63.5059
93.7167 4269 65.3376
93.8328 4096 64
93.949 4256 65.238
94.0653 4231 65.0461
94.1816 4236 65.0846
94.2979 4173 64.5988
94.4143 4113 64.1327
94.5307 3957 62.9047
94.6472 3993 63.1902
94.7637 3998 63.2297
94.8803 4052 63.6553
94.9969 4109 64.1015
95.1135 4224 64.9923
95.2302 4293 65.521
95.3469 4345 65.9166
95.4637 4443 66.6558
95.5805 4627 68.0221
95.6973 4580 67.6757
95.8142 4576 67.6461
95.9311 4424 66.5132
96.048 4505 67.1193
96.1649 4271 65.3529
96.2819 4051 63.6475
96.3989 3766 61.3677
96.516 3245 56.9649
96.633 2950 54.3139
96.7501 2834 53.2353
96.8673 2979 54.5802
96.9844 3501 59.1692
97.1016 3981 63.0952
97.2188 4330 65.8027
97.336 4652 68.2056
97.4532 4712 68.644
97.5704 4708 68.6149
97.6877 4719 68.695
97.805 4735 68.8113
97.9223 4672 68.352
98.0396 4833 69.5198
98.1569 4681 68.4178
98.2743 4403 66.3551
98.3916 4482 66.9477
98.509 4380 66.1816
98.6264 4438 66.6183
98.7438 4641 68.1249
98.8612 4729 68.7677
98.9786 4757 68.971
99.096 4860 69.7137
99.2134 4823 69.4478
99.3308 5011 70.7884
99.4482 4959 70.4202
99.5656 4931 70.2211
99.6831 4738 68.8331
99.8005 4708 68.6149
99.9179 4376 66.1513
100.035 3859 62.1208
100.153 3628 60.2329
100.27 3145 56.0803
100.388 3186 56.4447
100.505 3691 60.7536
100.622 4307 65.6277
100.74 4806 69.3253
100.857 4934 70.2424
100.975 5047 71.0422
101.092 5122 71.5681
101.209 4988 70.6258
101.327 4999 70.7036
101.444 5098 71.4003
101.561 5031 70.9295
101.679 4987 70.6187
101.796 4889 69.9214
101.913 4838 69.5557
102.03 4937 70.2638
102.148 4826 69.4694
102.265 5135 71.6589
102.382 4968 70.484
102.499 5167 71.8818
102.616 5382 73.3621
102.733 5279 72.6567
102.851 5553 74.5185
102.968 5541 74.4379
103.085 5432 73.7021
103.202 5242 72.4017
103.319 5124 71.5821
103.436 4899 69.9929
103.552 4388 66.242
103.669 3899 62.442
103.786 3368 58.0345
103.903 3438 58.6345
104.02 4020 63.4035
104.137 4595 67.7864
104.253 5198 72.0972
104.37 5406 73.5255
104.487 5474 73.9865
104.603 5633 75.0533
104.72 5602 74.8465
104.836 5598 74.8198
104.953 5447 73.8038
105.069 5485 74.0608
105.186 5463 73.9121
105.302 5477 74.0068
105.418 5269 72.5879
105.535 5253 72.4776
105.651 5210 72.1803
105.767 5368 73.2666
105.883 5603 74.8532
105.999 5791 76.0986
106.115 0 1
106.231 0 1
106.347 0 1
106.463 0 1
106.579 0 1
106.694 0 1
106.81 0 1
106.926 0 1
107.041 0 1
107.157 0 1
109.576 0 1
109.692 0 1
109.807 0 1
109.923 0 1
110.039 0 1
110.155 0 1
110.27 0 1
110.386 0 1
110.502 0 1
110.618 4905 70.0357
110.735 4948 70.342
110.851 5016 70.8237
110.967 5250 72.4569
111.083 5263 72.5465
111.199 5402 73.4983
111.316 5362 73.2257
111.432 5475 73.9932
111.549 5327 72.9863
111.665 5289 72.7255
111.782 5179 71.9653
111.898 4818 69.4118
112.015 4279 65.4141
112.132 3689 60.7371
112.248 3221 56.7539
112.365 3150 56.1249
112.482 3594 59.95
112.599 3969 63
112.716 4494 67.0373
112.832 4877 69.8355
112.949 4929 70.2068
113.066 5080 71.2741
113.183 5024 70.8802
113.3 4927 70.1926
113.417 4881 69.8642
113.534 4891 69.9357
113.652 4778 69.1231
113.769 4766 69.0362
113.886 4554 67.4833
114.003 4513 67.1789
114.12 4273 65.3682
114.238 4413 66.4304
114.355 4582 67.6905
114.472 4376 66.1513
114.589 4551 67.4611
114.707 4650 68.1909
114.824 4671 68.3447
114.942 4743 68.8694
115.059 4673 68.3593
115.176 4676 68.3813
115.294 4742 68.8622
115.411 4472 66.873
115.529 4051 63.6475
115.646 3841 61.9758
115.764 3445 58.6941
115.881 2971 54.5069
115.999 3140 56.0357
116.116 3487 59.0508
116.234 3992 63.1823
116.351 4456 66.7533
116.469 4460 66.7832
116.586 4630 68.0441
116.704 4649 68.1836
116.821 4696 68.5274
116.939 4529 67.2978
117.056 4614 67.9264
117.174 4431 66.5658
117.291 4504 67.1118
117.409 4558 67.513
117.526 4394 66.2873
117.644 4463 66.8057
117.761 4390 66.2571
117.879 4450 66.7083
117.996 4452 66.7233
118.114 4443 66.6558
118.231 4572 67.6166
118.349 4693 68.5055
118.466 4745 68.884
118.584 4729 68.7677
118.701 4854 69.6707
118.819 4715 68.6659
118.936 4605 67.8602
119.053 4271 65.3529
119.171 3863 62.153
119.288 3702 60.8441
119.405 3207 56.6304
119.523 3001 54.7814
119.64 3044 55.1725
119.757 3413 58.4209
119.875 3948 62.8331
119.992 4201 64.8151
120.109 4344 65.909
120.226 4385 66.2193
120.343 4502 67.0969
120.46 4461 66.7907
120.578 4413 66.4304
120.695 4531 67.3127
120.812 4357 66.0076
120.929 4472 66.873
121.046 4330 65.8027
121.163 4340 65.8787
121.279 4386 66.2269
121.396 4205 64.846
121.513 4337 65.8559
121.63 4261 65.2763
121.747 4122 64.2028
121.863 4296 65.5439
121.98 4331 65.8103
122.097 4338 65.8635
122.213 4533 67.3276
122.33 4452 66.7233
122.446 4396 66.3023
122.563 4413 66.4304
122.679 4349 65.9469
122.795 4118 64.1716
122.912 3755 61.2781
123.028 3429 58.5577
123.144 3031 55.0545
123.26 2832 53.2165
123.377 0 1
123.493 0 1
123.609 0 1
123.725 0 1
123.84 0 1
123.956 0 1
124.072 0 1
124.188 0 1
124.303 0 1
124.419 0 1
126.852 0 1
126.968 0 1
127.083 0 1
127.199 0 1
127.315 0 1
127.431 0 1
127.547 0 1
127.663 0 1
127.779 0 1
127.895 0 1
128.011 0 1
128.127 0 1
128.243 0 1
128.359 3394 58.258
128.476 3107 55.7405
128.592 3159 56.205
128.708 3629 60.2412
128.825 4038 63.5453
128.941 4434 66.5883
129.058 4604 67.8528
129.174 4651 68.1982
129.291 4717 68.6804
129.408 4616 67.9412
129.524 4652 68.2056
129.641 4633 68.0661
129.758 4591 67.7569
129.875 4575 67.6387
129.992 4568 67.587
130.108 4540 67.3795
130.225 4559 67.5204
130.342 4442 66.6483
130.459 4368 66.0908
130.576 4494 67.0373
130.693 4470 66.8581
130.81 4608 67.8823
130.928 4527 67.283
131.045 4694 68.5128
131.162 4656 68.2349
131.279 4612 67.9117
131.396 4676 68.3813
131.513 4480 66.9328
131.631 4172 64.591
131.748 4011 63.3325
131.865 3606 60.05
131.983 3264 57.1314
132.1 3037 55.109
132.217 3233 56.8595
132.335 3779 61.4736
132.452 4122 64.2028
132.57 4564 67.5574
132.687 4143 64.3661
132.804 4604 67.8528
132.922 4484 66.9627
133.039 4359 66.0227
133.157 4558 67.513
133.274 4499 67.0746
133.392 4400 66.3325
133.509 4386 66.2269
133.627 4344 65.909
133.744 4334 65.8331
133.862 4243 65.1383
133.979 4326 65.7723
134.097 4318 65.7115
134.214 4345 65.9166
134.332 4199 64.7997
134.449 4190 64.7302
134.567 4466 66.8281
134.684 4437 66.6108
134.802 4280 65.4217
134.919 4399 66.325
135.037 4329 65.7951
135.154 4310 65.6506
135.272 4049 63.6318
135.389 3800 61.6441
135.507 3336 57.7581
135.624 3044 55.1725
135.742 3133 55.9732
135.859 3491 59.0847
135.977 3734 61.1065
136.094 4177 64.6297
136.211 4323 65.7495
136.329 4449 66.7008
136.446 4249 65.1844
136.564 4254 65.2227
136.681 4527 67.283
136.798 4335 65.8407
136.915 4271 65.3529
137.033 4292 65.5134
137.15 4285 65.4599
137.267 4246 65.1613
137.384 4177 64.6297
137.502 4248 65.1767
137.619 4010 63.3246
137.736 3933 62.7136
137.853 4117 64.1639
137.97 4060 63.7181
138.087 4323 65.7495
138.204 4269 65.3376
138.321 4216 64.9307
138.438 4338 65.8635
138.555 4345 65.9166
138.672 4165 64.5368
138.788 4011 63.3325
138.905 4016 63.3719
139.022 3745 61.1964
139.139 3422 58.4979
139.255 3075 55.4527
139.372 3122 55.8749
139.488 3333 57.7321
139.605 3696 60.7947
139.721 3923 62.6339
139.838 4133 64.2884
139.954 4266 65.3146
140.071 4242 65.1306
140.187 4339 65.8711
140.303 4130 64.2651
140.419 4231 65.0461
140.535 4163 64.5213
140.652 3994 63.1981
140.768 0 1
140.884 0 1
141 0 1
141.115 0 1
141.231 0 1
141.347 0 1
141.463 0 1
141.578 0 1
141.694 0 1
144.104 0 1
144.219 0 1
144.335 0 1
144.45 0 1
144.566 0 1
144.682 0 1
144.798 0 1
144.914 0 1
145.03 0 1
145.146 3567 59.7244
145.262 3652 60.4318
145.378 3639 60.3241
145.494 3601 60.0083
145.61 3629 60.2412
145.726 3505 59.203
145.842 3538 59.4811
145.959 3438 58.6345
146.075 3360 57.9655
146.192 3449 58.7282
146.308 3418 58.4637
146.425 3490 59.0762
146.541 3520 59.3296
146.658 3365 58.0086
146.774 3448 58.7197
146.891 3498 59.1439
147.008 3527 59.3886
147.125 3453 58.7622
147.241 3466 58.8727
147.358 3401 58.3181
147.475 3312 57.55
147.592 3094 55.6237
147.709 2876 53.6284
147.826 2729 52.2398
147.943 2519 50.1896
148.06 2719 52.144
148.177 3007 54.8361
148.294 3298 57.4282
148.411 3443 58.6771
148.528 3469 58.8982
148.645 3313 57.5587
148.762 3331 57.7148
148.88 3286 57.3236
148.997 3265 57.1402
149.114 3546 59.5483
149.231 3133 55.9732
149.349 3196 56.5332
149.466 3122 55.8749
149.583 3106 55.7315
149.701 3232 56.8507
149.818 3118 55.8391
149.935 3261 57.1052
150.053 3283 57.2975
150.17 3157 56.1872
150.287 3226 56.7979
150.405 3039 55.1271
150.522 3244 56.9561
150.64 3247 56.9825
150.757 3296 57.4108
150.875 3215 56.701
150.992 3228 56.8155
151.11 3039 55.1271
151.227 3038 55.1181
151.344 2786 52.7826
151.462 2514 50.1398
151.579 2455 49.548
151.697 2632 51.303
151.814 2990 54.6809
151.932 3003 54.7996
152.049 3274 57.2189
152.167 3265 57.1402
152.284 3342 57.81
152.402 3320 57.6194
152.519 3403 58.3352
152.636 3425 58.5235
152.754 3244 56.9561
152.871 3294 57.3934
152.989 3208 56.6392
153.106 3221 56.7539
153.223 3108 55.7494
153.341 3085 55.5428
153.458 3219 56.7362
153.575 3254 57.0438
153.693 3207 56.6304
153.81 3302 57.463
153.927 3274 57.2189
154.044 3246 56.9737
154.162 3323 57.6455
154.279 3239 56.9122
154.396 3377 58.112
154.513 3387 58.1979
154.63 3268 57.1664
154.747 3288 57.3411
154.864 3183 56.4181
154.981 2939 54.2125
155.098 2722 52.1728
155.215 2743 52.3737
155.332 2855 53.4322
155.449 3092 55.6058
155.566 3259 57.0877
155.683 3310 57.5326
155.8 3310 57.5326
155.917 3383 58.1636
156.033 3379 58.1292
156.15 0 1
156.267 0 1
156.383 0 1
156.5 0 1
156.617 0 1
156.733 0 1
156.85 0 1
156.966 0 1
157.082 0 1
157.199 0 1
157.315 0 1
157.431 0 1
157.547 0 1
157.664 0 1
157.78 0 1
157.896 0 1
158.012 0 1
158.128 0 1
158.244 0 1
158.359 0 1
158.475 0 1
158.591 0 1
158.706 0 1
