
6.15755 0 1
6.2731 0 1
6.3887 0 1
6.50437 0 1
6.62009 0 1
6.73587 0 1
6.8517 0 1
6.96759 0 1
7.08353 0 1
7.19952 0 1
7.31557 0 1
7.43166 0 1
7.54781 0 1
7.664 0 1
7.78024 0 1
7.89653 0 1
8.01286 0 1
8.12924 0 1
8.24567 0 1
8.36213 0 1
8.47864 0 1
8.59519 0 1
8.71178 0 1
8.82841 0 1
8.94508 0 1
9.06179 0 1
9.17853 0 1
9.29531 0 1
9.41212 0 1
9.52897 0 1
9.64584 0 1
9.76276 0 1
9.8797 0 1
9.99667 0 1
10.1137 0 1
10.2307 0 1
10.3478 0 1
10.4648 0 1
10.5819 0 1
10.6991 0 1
10.8162 0 1
10.9334 0 1
11.0506 0 1
11.1678 0 1
11.285 0 1
11.4023 0 1
11.5196 0 1
11.6369 0 1
11.7542 0 1
11.8715 0 1
11.9888 0 1
12.1062 0 1
12.2235 0 1
12.3409 0 1
12.4582 0 1
12.5756 0 1
12.693 0 1
12.8104 0 1
12.9278 0 1
13.0452 0 1
13.1626 0 1
13.28 0 1
13.3974 0 1
13.5149 0 1
13.6323 0 1
13.7497 0 1
13.8671 0 1
13.9845 0 1
14.1019 0 1
14.2193 0 1
14.3367 0 1
14.4541 0 1
14.5714 0 1
14.6888 0 1
14.8062 0 1
14.9235 0 1
15.0408 0 0
15.1581 0 0
15.2755 0 0
15.3927 0 0
15.51 0 0
15.6273 0 0
15.7445 0 0
15.8617 0 0
15.9789 0 0
16.0961 0 0
16.2132 0 0
16.3304 0 0
16.4475 0 0
16.5646 0 0
16.6816 0 0
16.7986 0 0
16.9156 0 0
17.0326 0 0
17.1496 0 0
17.2665 0 0
17.3833 0 0
17.5002 0 0
17.617 0 0
17.7338 0 0
17.8505 0 0
17.9672 0 0
18.0839 0 0
18.2005 0 0
18.3171 0 0
18.4337 0 0
18.5502 0 0
18.6666 0 0
18.7831 0 0
18.8994 0 0
19.0158 0 0
19.1321 0 0
19.2483 0 0
19.3645 0 0
19.4806 0 0
19.5967 0 0
19.7128 0 0
19.8288 0 0
19.9447 0 0
20.0606 0 1
20.1764 0 1
20.2922 0 1
20.4079 0 1
20.5236 0 1
20.6392 0 1
20.7548 0 1
20.8702 0 1
23.3078 0 1
23.4233 0 1
23.539 0 1
23.6547 0 1
23.7704 0 1
23.8862 0 1
24.0021 0 1
24.118 0 1
24.234 0 1
24.35 0 1
24.4661 1713 41.3884
24.5822 1732 41.6173
24.6984 1712 41.3763
24.8146 1641 40.5093
24.9309 1558 39.4715
25.0472 1573 39.6611
25.1636 1638 40.4722
25.28 1705 41.2916
25.3965 1817 42.6263
25.513 1883 43.3935
25.6296 1971 44.3959
25.7462 2019 44.9333
25.8628 1995 44.6654
25.9795 2050 45.2769
26.0962 2106 45.8912
26.213 2080 45.607
26.3298 2029 45.0444
26.4466 2024 44.9889
26.5635 2039 45.1553
26.6804 1900 43.589
26.7973 1776 42.1426
26.9143 1973 44.4185
27.0313 1985 44.5533
27.1483 2007 44.7996
27.2653 2018 44.9222
27.3824 1969 44.3734
27.4996 2076 45.5631
27.6167 2181 46.7012
27.7339 2066 45.4533
27.8511 1958 44.2493
27.9683 1980 44.4972
28.0855 1910 43.7035
28.2028 1844 42.9418
28.3201 1651 40.6325
28.4374 1586 39.8246
28.5547 1587 39.8372
28.6721 1581 39.7618
28.7894 1611 40.1373
28.9068 1695 41.1704
29.0242 1862 43.1509
29.1416 1917 43.7836
29.259 1897 43.5546
29.3764 2055 45.3321
29.4939 2107 45.9021
29.6113 2048 45.2548
29.7288 1991 44.6206
29.8463 2022 44.9667
29.9638 1885 43.4166
30.0812 1932 43.9545
30.1987 1845 42.9535
30.3162 1901 43.6005
30.4337 1815 42.6028
30.5512 1868 43.2204
30.6687 1978 44.4747
30.7862 2022 44.9667
30.9037 2026 45.0111
31.0212 2054 45.3211
31.1387 2071 45.5082
31.2562 2063 45.4203
31.3737 2020 44.9444
31.4912 2007 44.7996
31.6087 1909 43.6921
31.7262 1800 42.4264
31.8436 1768 42.0476
31.9611 1606 40.0749
32.0785 1608 40.0999
32.1959 1560 39.4968
32.3134 1615 40.1871
32.4308 1740 41.7133
32.5482 1738 41.6893
32.6655 1881 43.3705
32.7829 1941 44.0568
32.9002 2009 44.8219
33.0176 2057 45.3542
33.1349 2039 45.1553
33.2522 2026 45.0111
33.3694 2048 45.2548
33.4867 2035 45.111
33.6039 2107 45.9021
33.7211 2000 44.7214
33.8383 1893 43.5086
33.9554 1822 42.6849
34.0725 1938 44.0227
34.1896 1920 43.8178
34.3067 2009 44.8219
34.4237 2095 45.7712
34.5407 2063 45.4203
34.6577 2065 45.4423
34.7746 2092 45.7384
34.8915 2102 45.8476
35.0084 2077 45.5741
35.1252 2057 45.3542
35.242 1937 44.0114
35.3587 1847 42.9767
35.4755 1885 43.4166
35.5921 1723 41.509
35.7088 1538 39.2173
35.8254 1494 38.6523
35.9419 1518 38.9615
36.0584 1574 39.6737
36.1749 1752 41.8569
36.2913 1751 41.845
36.4077 1986 44.5646
36.524 2011 44.8442
36.6403 2057 45.3542
36.7565 2025 45
36.8727 2030 45.0555
36.9889 2064 45.4313
37.1049 2040 45.1664
37.221 0 1
37.3369 0 1
37.4529 0 1
37.5687 0 1
37.6845 0 1
37.8003 0 1
37.916 0 1
38.0316 0 1
38.1472 0 1
40.5851 0 1
40.7008 0 1
40.8164 0 1
40.9322 0 1
41.048 0 1
41.1639 0 1
41.2798 0 1
41.3958 0 1
41.5118 0 1
41.6279 0 1
41.744 1689 41.0974
41.8602 1787 42.2729
41.9765 1808 42.5206
42.0928 1855 43.0697
42.2091 1780 42.19
42.3255 1797 42.391
42.4419 1753 41.8688
42.5584 1823 42.6966
42.675 1771 42.0833
42.7915 1711 41.3642
42.9081 1707 41.3159
43.0248 1743 41.7493
43.1415 1784 42.2374
43.2582 1786 42.2611
43.375 1852 43.0349
43.4918 1942 44.0681
43.6087 1774 42.1189
43.7256 1849 43
43.8425 1810 42.5441
43.9595 1790 42.3084
44.0765 1710 41.3521
44.1935 1733 41.6293
44.3106 1547 39.3319
44.4277 1429 37.8021
44.5448 1301 36.0694
44.6619 1247 35.3129
44.7791 1256 35.4401
44.8963 1346 36.6879
45.0136 1468 38.3145
45.1308 1508 38.833
45.2481 1601 40.0125
45.3654 1601 40.0125
45.4827 1583 39.7869
45.6001 1623 40.2865
45.7174 1606 40.0749
45.8348 1529 39.1024
45.9522 1616 40.1995
46.0697 1527 39.0768
46.1871 1540 39.2428
46.3046 1577 39.7115
46.422 1517 38.9487
46.5395 1480 38.4708
46.657 1471 38.3536
46.7745 1524 39.0384
46.892 1568 39.598
47.0096 1508 38.833
47.1271 1493 38.6394
47.2446 1546 39.3192
47.3622 1568 39.598
47.4797 1415 37.6165
47.5973 1416 37.6298
47.7149 1339 36.5923
47.8324 1269 35.623
47.95 1242 35.242
48.0675 1014 31.8434
48.1851 929 30.4795
48.3027 989 31.4484
48.4202 1065 32.6343
48.5378 1136 33.7046
48.6554 1251 35.3695
48.7729 1318 36.3043
48.8904 1340 36.606
49.008 1376 37.0945
49.1255 1406 37.4967
49.243 1456 38.1576
49.3605 1433 37.855
49.478 1401 37.4299
49.5955 1361 36.8917
49.713 1318 36.3043
49.8304 1416 37.6298
49.9479 1425 37.7492
50.0653 1400 37.4166
50.1827 1556 39.4462
50.3001 1521 39
50.4175 1583 39.7869
50.5348 1659 40.7308
50.6521 1680 40.9878
50.7694 1741 41.7253
50.8867 1721 41.4849
51.004 1725 41.5331
51.1212 1777 42.1545
51.2384 1807 42.5088
51.3556 1785 42.2493
51.4727 1609 40.1123
51.5899 1444 38
51.707 1300 36.0555
51.824 1411 37.5633
51.9411 1526 39.064
52.0581 1685 41.0488
52.175 1996 44.6766
52.2919 2075 45.5522
52.4088 2121 46.0543
52.5257 2193 46.8295
52.6425 2260 47.5395
52.7593 2145 46.3141
52.876 2260 47.5395
52.9927 2336 48.3322
53.1094 2379 48.775
53.226 2305 48.0104
53.3426 2257 47.5079
53.4591 2273 47.676
53.5756 2280 47.7493
53.692 2376 48.7442
53.8084 2347 48.4458
53.9248 2446 49.4571
54.0411 2565 50.6458
54.1573 2553 50.5272
54.2735 0 1
54.3896 0 1
54.5057 0 1
54.6217 0 1
54.7377 0 1
54.8537 0 1
54.9695 0 1
55.0853 0 1
55.2011 0 1
55.3168 0 1
55.4324 0 1
57.824 0 1
57.9396 0 1
58.0553 0 1
58.1711 0 1
58.2869 0 1
58.4028 0 1
58.5187 0 1
58.6347 0 1
58.7508 0 1
58.8669 0 1
58.983 3156 56.1783
59.0992 3236 56.8859
59.2155 3334 57.7408
59.3318 3575 59.7913
59.4482 3587 59.8916
59.5646 3416 58.4466
59.681 3432 58.5833
59.7975 3378 58.1206
59.9141 3338 57.7754
60.0306 3188 56.4624
60.1473 2918 54.0185
60.2639 2586 50.8527
60.3807 2382 48.8057
60.4974 2454 49.5379
60.6142 2679 51.7591
60.731 2831 53.2071
60.8479 3206 56.6216
60.9648 3256 57.0614
61.0818 3438 58.6345
61.1987 3549 59.5735
61.3158 3588 59.8999
61.4328 3521 59.338
61.5499 3431 58.5747
61.667 3557 59.6406
61.7841 3495 59.1185
61.9013 3561 59.6741
62.0185 3431 58.5747
62.1357 3537 59.4727
62.253 3492 59.0931
62.3702 3614 60.1166
62.4875 3685 60.7042
62.6049 3718 60.9754
62.7222 3800 61.6441
62.8396 3741 61.1637
62.9569 3733 61.0983
63.0743 3746 61.2046
63.1918 3750 61.2372
63.3092 3562 59.6825
63.4267 3457 58.7963
63.5441 3325 57.6628
63.6616 3042 55.1543
63.7791 2743 52.3737
63.8966 2526 50.2593
64.0142 2578 50.774
64.1317 2806 52.9717
64.2492 3134 55.9821
64.3668 3567 59.7244
64.4843 3523 59.3549
64.6019 3705 60.8687
64.7195 3800 61.6441
64.837 3742 61.1719
64.9546 3874 62.2415
65.0722 3747 61.2127
65.1898 3786 61.5305
65.3074 3884 62.3217
65.4249 3700 60.8276
65.5425 3722 61.0082
65.6601 3636 60.2993
65.7777 3654 60.4483
65.8952 3811 61.7333
66.0128 3775 61.441
66.1304 3786 61.5305
66.2479 3979 63.0793
66.3655 3974 63.0397
66.483 3928 62.6738
66.6005 4094 63.9844
66.718 4145 64.3817
66.8355 3919 62.6019
66.953 3830 61.887
67.0705 3618 60.1498
67.1879 3526 59.3801
67.3054 3223 56.7715
67.4228 2995 54.7266
67.5402 2614 51.1273
67.6576 2725 52.2015
67.7749 2952 54.3323
67.8923 3413 58.4209
68.0096 3781 61.4898
68.1269 4029 63.4744
68.2442 4187 64.707
68.3614 4200 64.8074
68.4787 4214 64.9153
68.5958 4317 65.7039
68.713 4360 66.0303
68.8302 4298 65.5591
68.9473 4370 66.106
69.0643 4279 65.4141
69.1814 4255 65.2304
69.2984 4243 65.1383
69.4154 4364 66.0606
69.5323 4280 65.4217
69.6492 4438 66.6183
69.7661 4452 66.7233
69.8829 4564 67.5574
69.9997 4577 67.6535
70.1165 4677 68.3886
70.2332 4682 68.4251
70.3499 4792 69.2243
70.4665 4497 67.0597
70.5831 4336 65.8483
70.6996 4342 65.8939
70.8161 4086 63.9218
70.9326 3928 62.6738
71.049 3588 59.8999
71.1653 2999 54.7631
71.2817 2857 53.4509
71.3979 2995 54.7266
71.5141 3269 57.1752
71.6303 3580 59.8331
71.7464 3648 60.3987
71.8624 0 1
71.9784 0 1
72.0944 0 1
72.2102 0 1
72.3261 0 1
72.4418 0 1
72.5575 0 1
72.6732 0 1
75.1054 0 1
75.2209 0 1
75.3365 0 1
75.4521 0 1
75.5678 0 1
75.6835 0 1
75.7993 0 1
75.9151 0 1
76.031 0 1
76.147 3808 61.709
76.263 3737 61.131
76.3791 3670 60.5805
76.4952 3205 56.6127
76.6113 3055 55.2721
76.7276 3281 57.28
76.8438 3693 60.7701
76.9601 4228 65.0231
77.0765 4708 68.6149
77.1929 4801 69.2892
77.3093 4949 70.3491
77.4258 5013 70.8025
77.5423 4992 70.6541
77.6589 4838 69.5557
77.7755 5005 70.746
77.8921 4928 70.1997
78.0088 4999 70.7036
78.1256 4786 69.1809
78.2423 4800 69.282
78.3591 4721 68.7095
78.4759 4827 69.4766
78.5928 4799 69.2748
78.7097 4860 69.7137
78.8266 4949 70.3491
78.9436 4778 69.1231
79.0606 4866 69.7567
79.1776 4991 70.647
79.2946 4954 70.3847
79.4117 4927 70.1926
79.5288 4716 68.6731
79.6459 4559 67.5204
79.7631 4415 66.4455
79.8802 4088 63.9375
79.9974 3868 62.1932
80.1147 3390 58.2237
80.2319 3151 56.1338
80.3491 3278 57.2538
80.4664 3561 59.6741
80.5837 4100 64.0312
80.701 4565 67.5648
80.8183 4853 69.6635
80.9357 4690 68.4836
81.053 4862 69.728
81.1704 4821 69.4334
81.2877 4763 69.0145
81.4051 4772 69.0797
81.5225 4765 69.029
81.6399 4601 67.8307
81.7573 4664 68.2935
81.8747 4576 67.6461
81.9922 4746 68.8912
82.1096 4698 68.542
82.227 4586 67.72
82.3444 4582 67.6905
82.4619 4564 67.5574
82.5793 4571 67.6092
82.6967 4736 68.8186
82.8142 4738 68.8331
82.9316 4670 68.3374
83.049 4692 68.4982
83.1664 4586 67.72
83.2838 4297 65.5515
83.4012 4029 63.4744
83.5186 3825 61.8466
83.636 3595 59.9583
83.7534 3263 57.1227
83.8708 2874 53.6097
83.9881 2891 53.768
84.1055 3190 56.4801
84.2228 3514 59.279
84.3401 4022 63.4192
84.4575 4509 67.1491
84.5747 4517 67.2086
84.692 4644 68.1469
84.8093 4709 68.6222
84.9265 4567 67.5796
85.0437 4653 68.2129
85.1609 4555 67.4907
85.2781 4530 67.3053
85.3952 4592 67.7643
85.5123 4552 67.4685
85.6294 4563 67.55
85.7465 4649 68.1836
85.8636 4659 68.2569
85.9806 4612 67.9117
86.0976 4782 69.152
86.2145 4878 69.8427
86.3315 4823 69.4478
86.4484 5197 72.0902
86.5652 5021 70.859
86.682 5020 70.852
86.7988 5021 70.859
86.9156 4748 68.9057
87.0323 4392 66.2722
87.149 4263 65.2917
87.2657 4019 63.3956
87.3823 3573 59.7746
87.4988 3289 57.3498
87.6154 3647 60.3904
87.7318 3949 62.8411
87.8483 4584 67.7052
87.9647 4923 70.1641
88.081 5071 71.211
88.1973 5260 72.5259
88.3136 5343 73.0958
88.4298 5152 71.7774
88.546 5196 72.0833
88.6621 5364 73.2393
88.7781 5228 72.3049
88.8942 0 1
89.0101 0 1
89.126 0 1
89.2419 0 1
89.3577 0 1
89.4734 0 1
89.5891 0 1
89.7047 0 1
89.8203 0 1
89.9358 0 1
92.3269 0 1
92.4424 0 1
92.558 0 1
92.6736 0 1
92.7893 0 1
92.905 0 1
93.0208 0 1
93.1366 0 1
93.2525 0 1
93.3685 0 1
93.4845 0 1
93.6005 5236 72.3602
93.7167 5236 72.3602
93.8328 5364 73.2393
93.949 5314 72.8972
94.0653 5119 71.5472
94.1816 5341 73.0821
94.2979 5261 72.5328
94.4143 5201 72.118
94.5307 5329 73
94.6472 5357 73.1915
94.7637 5208 72.1665
94.8803 5285 72.698
94.9969 5185 72.0069
95.1135 5261 72.5328
95.2302 5440 73.7564
95.3469 5376 73.3212
95.4637 5488 74.081
95.5805 5527 74.3438
95.6973 5557 74.5453
95.8142 5576 74.6726
95.9311 5439 73.7496
96.048 5366 73.253
96.1649 4877 69.8355
96.2819 4649 68.1836
96.3989 4168 64.56
96.516 3951 62.857
96.633 3737 61.131
96.7501 3727 61.0492
96.8673 4056 63.6867
96.9844 4518 67.2161
97.1016 5014 70.8096
97.2188 5378 73.3348
97.336 5528 74.3505
97.4532 5567 74.6123
97.5704 5640 75.0999
97.6877 5581 74.7061
97.805 5685 75.3989
97.9223 5693 75.452
98.0396 5517 74.2765
98.1569 5618 74.9533
98.2743 5515 74.263
98.3916 5614 74.9266
98.509 5744 75.7892
98.6264 5453 73.8444
98.7438 5758 75.8815
98.8612 5578 74.686
98.9786 5494 74.1215
99.096 5708 75.5513
99.2134 5807 76.2037
99.3308 5759 75.8881
99.4482 5781 76.0329
99.5656 5858 76.5376
99.6831 5530 74.364
99.8005 5290 72.7324
99.9179 4914 70.0999
100.035 4485 66.9701
100.153 4071 63.8044
100.27 3962 62.9444
100.388 4205 64.846
100.505 4652 68.2056
100.622 5203 72.1318
100.74 5668 75.2861
100.857 5923 76.961
100.975 5835 76.3872
101.092 6077 77.9551
101.209 5851 76.4918
101.327 5936 77.0454
101.444 5917 76.922
101.561 5835 76.3872
101.679 5921 76.948
101.796 5981 77.3369
101.913 5864 76.5768
102.03 6042 77.7303
102.148 5939 77.0649
102.265 6148 78.4092
102.382 5590 74.7663
102.499 6088 78.0256
102.616 6075 77.9423
102.733 6022 77.6015
102.851 6123 78.2496
102.968 6363 79.7684
103.085 6123 78.2496
103.202 5913 76.896
103.319 5897 76.7919
103.436 5547 74.4782
103.552 5043 71.0141
103.669 4428 66.5432
103.786 4312 65.6658
103.903 4390 66.2571
104.02 4895 69.9643
104.137 5531 74.3707
104.253 6124 78.256
104.37 6116 78.2049
104.487 6348 79.6743
104.603 6500 80.6226
104.72 6446 80.287
104.836 6318 79.4858
104.953 6487 80.5419
105.069 6498 80.6102
105.186 6427 80.1686
105.302 6514 80.7094
105.418 6390 79.9375
105.535 6409 80.0562
105.651 6397 79.9812
105.767 6468 80.4239
105.883 6471 80.4425
105.999 6408 80.05
106.115 0 1
106.231 0 1
106.347 0 1
106.463 0 1
106.579 0 1
106.694 0 1
106.81 0 1
106.926 0 1
107.041 0 1
107.157 0 1
109.576 0 1
109.692 0 1
109.807 0 1
109.923 0 1
110.039 0 1
110.155 0 1
110.27 0 1
110.386 0 1
110.502 0 1
110.618 6055 77.8139
110.735 6061 77.8524
110.851 6333 79.5801
110.967 6180 78.613
111.083 6130 78.2943
111.199 6416 80.0999
111.316 6277 79.2275
111.432 6185 78.6448
111.549 6220 78.867
111.665 5936 77.0454
111.782 5724 75.6571
111.898 5382 73.3621
112.015 4921 70.1498
112.132 4312 65.6658
112.248 4020 63.4035
112.365 4150 64.4205
112.482 4573 67.624
112.599 5074 71.232
112.716 5510 74.2294
112.832 5874 76.642
112.949 5884 76.7072
113.066 5772 75.9737
113.183 5773 75.9803
113.3 5819 76.2824
113.417 5562 74.5788
113.534 5492 74.108
113.652 5624 74.9933
113.769 5658 75.2197
113.886 5516 74.2698
114.003 5509 74.2226
114.12 5470 73.9594
114.238 5643 75.1199
114.355 5433 73.7089
114.472 5520 74.2967
114.589 5390 73.4166
114.707 5484 74.054
114.824 5462 73.9053
114.942 5619 74.96
115.059 5566 74.6056
115.176 5485 74.0608
115.294 5427 73.6682
115.411 5177 71.9514
115.529 4756 68.9638
115.646 4265 65.307
115.764 3826 61.8547
115.881 3833 61.9112
115.999 4086 63.9218
116.116 4563 67.55
116.234 5050 71.0634
116.351 5301 72.808
116.469 5337 73.0548
116.586 5324 72.9657
116.704 5401 73.4915
116.821 5490 74.0945
116.939 5517 74.2765
117.056 5461 73.8986
117.174 5415 73.5867
117.291 5493 74.1148
117.409 5402 73.4983
117.526 5371 73.2871
117.644 5382 73.3621
117.761 5613 74.92
117.879 5509 74.2226
117.996 5449 73.8173
118.114 5556 74.5386
118.231 5640 75.0999
118.349 5615 74.9333
118.466 5635 75.0666
118.584 5619 74.96
118.701 5621 74.9733
118.819 5519 74.29
118.936 5265 72.5603
119.053 5089 71.3372
119.171 4792 69.2243
119.288 4320 65.7267
119.405 3931 62.6977
119.523 3768 61.384
119.64 4132 64.2806
119.757 4631 68.0515
119.875 4976 70.5408
119.992 5308 72.856
120.109 5332 73.0205
120.226 5420 73.6206
120.343 5464 73.9189
120.46 5609 74.8933
120.578 5367 73.2598
120.695 5475 73.9932
120.812 5474 73.9865
120.929 5478 74.0135
121.046 5436 73.7292
121.163 5441 73.7631
121.279 5338 73.0616
121.396 5357 73.1915
121.513 5412 73.5663
121.63 5418 73.6071
121.747 5387 73.3962
121.863 5363 73.2325
121.98 5465 73.9256
122.097 5445 73.7902
122.213 5367 73.2598
122.33 5443 73.7767
122.446 5395 73.4507
122.563 5397 73.4643
122.679 5099 71.4073
122.795 4931 70.2211
122.912 4586 67.72
123.028 4338 65.8635
123.144 4048 63.6239
123.26 3718 60.9754
123.377 0 1
123.493 0 1
123.609 0 1
123.725 0 1
123.84 0 1
123.956 0 1
124.072 0 1
124.188 0 1
124.303 0 1
124.419 0 1
126.852 0 1
126.968 0 1
127.083 0 1
127.199 0 1
127.315 0 1
127.431 0 1
127.547 0 1
127.663 0 1
127.779 0 1
127.895 0 1
128.011 0 1
128.127 0 1
128.243 0 1
128.359 4414 66.4379
128.476 4183 64.6761
128.592 4528 67.2904
128.708 4910 70.0714
128.825 5491 74.1013
128.941 5850 76.4853
129.058 6017 77.5693
129.174 6071 77.9166
129.291 6106 78.1409
129.408 5893 76.7659
129.524 6067 77.8909
129.641 5961 77.2075
129.758 5882 76.6942
129.875 6131 78.3007
129.992 5943 77.0909
130.108 5952 77.1492
130.225 5907 76.857
130.342 5828 76.3413
130.459 5750 75.8288
130.576 5976 77.3046
130.693 5764 75.921
130.81 5838 76.4068
130.928 6006 77.4984
131.045 5931 77.013
131.162 5815 76.2561
131.279 5868 76.6029
131.396 5786 76.0658
131.513 5669 75.2928
131.631 5299 72.7942
131.748 5166 71.8749
131.865 4662 68.2788
131.983 4299 65.5668
132.1 4477 66.9104
132.217 4681 68.4178
132.335 5246 72.4293
132.452 5636 75.0733
132.57 5851 76.4918
132.687 5679 75.3591
132.804 6015 77.5564
132.922 5846 76.4591
133.039 5874 76.642
133.157 5867 76.5963
133.274 5755 75.8617
133.392 5853 76.5049
133.509 5780 76.0263
133.627 5813 76.243
133.744 5706 75.5381
133.862 5616 74.94
133.979 5730 75.6968
134.097 5602 74.8465
134.214 5749 75.8222
134.332 5608 74.8866
134.449 5689 75.4255
134.567 5680 75.3658
134.684 5712 75.5778
134.802 5767 75.9408
134.919 5734 75.7232
135.037 5467 73.9392
135.154 5529 74.3572
135.272 5107 71.4633
135.389 4745 68.884
135.507 4464 66.8132
135.624 4198 64.792
135.742 4420 66.4831
135.859 4969 70.4911
135.977 5344 73.1027
136.094 5655 75.1997
136.211 5767 75.9408
136.329 5883 76.7007
136.446 5633 75.0533
136.564 5798 76.1446
136.681 5928 76.9935
136.798 5721 75.6373
136.915 5799 76.1512
137.033 5594 74.793
137.15 5606 74.8732
137.267 5660 75.233
137.384 5648 75.1532
137.502 5498 74.1485
137.619 5525 74.3303
137.736 5601 74.8398
137.853 5278 72.6498
137.97 5420 73.6206
138.087 5768 75.9474
138.204 5580 74.6994
138.321 5554 74.5252
138.438 5846 76.4591
138.555 5635 75.0666
138.672 5599 74.8265
138.788 5419 73.6139
138.905 5178 71.9583
139.022 4927 70.1926
139.139 4566 67.5722
139.255 4383 66.2042
139.372 4389 66.2495
139.488 4756 68.9638
139.605 5232 72.3326
139.721 5499 74.1552
139.838 5645 75.1332
139.954 5772 75.9737
140.071 5649 75.1598
140.187 5794 76.1183
140.303 5783 76.046
140.419 5773 75.9803
140.535 5571 74.6391
140.652 5457 73.8715
140.768 0 1
140.884 0 1
141 0 1
141.115 0 1
141.231 0 1
141.347 0 1
141.463 0 1
141.578 0 1
141.694 0 1
144.104 0 1
144.219 0 1
144.335 0 1
144.45 0 1
144.566 0 1
144.682 0 1
144.798 0 1
144.914 0 1
145.03 0 1
145.146 5012 70.7955
145.262 4996 70.6824
145.378 4935 70.2496
145.494 4841 69.5773
145.61 4939 70.278
145.726 4919 70.1356
145.842 4832 69.5126
145.959 4846 69.6132
146.075 4806 69.3253
146.192 4700 68.5565
146.308 4726 68.7459
146.425 4806 69.3253
146.541 4757 68.971
146.658 4727 68.7532
146.774 4725 68.7386
146.891 4857 69.6922
147.008 4920 70.1427
147.125 4873 69.8069
147.241 4920 70.1427
147.358 4630 68.0441
147.475 4481 66.9403
147.592 4195 64.7688
147.709 3939 62.7615
147.826 3680 60.663
147.943 3846 62.0161
148.06 4030 63.4823
148.177 4259 65.261
148.294 4595 67.7864
148.411 4767 69.0435
148.528 4698 68.542
148.645 4577 67.6535
148.762 4725 68.7386
148.88 4800 69.282
148.997 4449 66.7008
149.114 4889 69.9214
149.231 4545 67.4166
149.349 4719 68.695
149.466 4443 66.6558
149.583 4367 66.0833
149.701 4527 67.283
149.818 4427 66.5357
149.935 4436 66.6033
150.053 4468 66.8431
150.17 4349 65.9469
150.287 4493 67.0298
150.405 4527 67.283
150.522 4628 68.0294
150.64 4583 67.6979
150.757 4645 68.1542
150.875 4644 68.1469
150.992 4536 67.3498
151.11 4321 65.7343
151.227 4160 64.4981
151.344 3787 61.5386
151.462 3566 59.716
151.579 3619 60.1581
151.697 3831 61.8951
151.814 4237 65.0922
151.932 4539 67.3721
152.049 4560 67.5278
152.167 4606 67.8675
152.284 4682 68.4251
152.402 4781 69.1448
152.519 4593 67.7717
152.636 4657 68.2422
152.754 4605 67.8602
152.871 4560 67.5278
152.989 4365 66.0681
153.106 4410 66.4078
153.223 4359 66.0227
153.341 4450 66.7083
153.458 4374 66.1362
153.575 4365 66.0681
153.693 4413 66.4304
153.81 4341 65.8863
153.927 4429 66.5507
154.044 4524 67.2607
154.162 4560 67.5278
154.279 4662 68.2788
154.396 4625 68.0074
154.513 4798 69.2676
154.63 4636 68.0882
154.747 4563 67.55
154.864 4348 65.9394
154.981 3962 62.9444
155.098 3855 62.0886
155.215 3808 61.709
155.332 4017 63.3798
155.449 4356 66
155.566 4533 67.3276
155.683 4584 67.7052
155.8 4787 69.1881
155.917 4813 69.3758
156.033 4677 68.3886
156.15 0 1
156.267 0 1
156.383 0 1
156.5 0 1
156.617 0 1
156.733 0 1
156.85 0 1
156.966 0 1
157.082 0 1
157.199 0 1
157.315 0 1
157.431 0 1
157.547 0 1
157.664 0 1
157.78 0 1
157.896 0 1
158.012 0 1
158.128 0 1
158.244 0 1
158.359 0 1
158.475 0 1
158.591 0 1
158.706 0 1
