
6.15755 0 1
6.2731 0 1
6.3887 0 1
6.50437 0 1
6.62009 0 1
6.73587 0 1
6.8517 0 1
6.96759 0 1
7.08353 0 1
7.19952 0 1
7.31557 0 1
7.43166 0 1
7.54781 0 1
7.664 0 1
7.78024 0 1
7.89653 0 1
8.01286 0 1
8.12924 0 1
8.24567 0 1
8.36213 0 1
8.47864 0 1
8.59519 0 1
8.71178 0 1
8.82841 0 1
8.94508 0 1
9.06179 0 1
9.17853 0 1
9.29531 0 1
9.41212 0 1
9.52897 0 1
9.64584 0 1
9.76276 0 1
9.8797 0 1
9.99667 0 1
10.1137 0 1
10.2307 0 1
10.3478 0 1
10.4648 0 1
10.5819 0 1
10.6991 0 1
10.8162 0 1
10.9334 0 1
11.0506 0 1
11.1678 0 1
11.285 0 1
11.4023 0 1
11.5196 0 1
11.6369 0 1
11.7542 0 1
11.8715 0 1
11.9888 0 1
12.1062 0 1
12.2235 0 1
12.3409 0 1
12.4582 0 1
12.5756 0 1
12.693 0 1
12.8104 0 1
12.9278 0 1
13.0452 0 1
13.1626 0 1
13.28 0 1
13.3974 0 1
13.5149 0 1
13.6323 0 1
13.7497 0 1
13.8671 0 1
13.9845 0 1
14.1019 0 1
14.2193 0 1
14.3367 0 1
14.4541 0 1
14.5714 0 1
14.6888 0 1
14.8062 0 1
14.9235 0 1
15.0408 511 22.6053
15.1581 508 22.5389
15.2755 530 23.0217
15.3927 548 23.4094
15.51 482 21.9545
15.6273 529 23
15.7445 563 23.7276
15.8617 529 23
15.9789 524 22.891
16.0961 502 22.4054
16.2132 512 22.6274
16.3304 516 22.7156
16.4475 512 22.6274
16.5646 585 24.1868
16.6816 561 23.6854
16.7986 617 24.8395
16.9156 624 24.98
17.0326 635 25.1992
17.1496 566 23.7908
17.2665 560 23.6643
17.3833 592 24.3311
17.5002 523 22.8692
17.617 536 23.1517
17.7338 553 23.516
17.8505 472 21.7256
17.9672 479 21.8861
18.0839 556 23.5797
18.2005 518 22.7596
18.3171 508 22.5389
18.4337 515 22.6936
18.5502 551 23.4734
18.6666 574 23.9583
18.7831 558 23.622
18.8994 551 23.4734
19.0158 535 23.1301
19.1321 556 23.5797
19.2483 519 22.7816
19.3645 435 20.8567
19.4806 449 21.1896
19.5967 389 19.7231
19.7128 343 18.5203
19.8288 339 18.412
19.9447 332 18.2209
20.0606 0 1
20.1764 0 1
20.2922 0 1
20.4079 0 1
20.5236 0 1
20.6392 0 1
20.7548 0 1
20.8702 0 1
23.3078 0 1
23.4233 0 1
23.539 0 1
23.6547 0 1
23.7704 0 1
23.8862 0 1
24.0021 0 1
24.118 0 1
24.234 0 1
24.35 0 1
24.4661 214 14.6287
24.5822 226 15.0333
24.6984 288 16.9706
24.8146 319 17.8606
24.9309 304 17.4356
25.0472 347 18.6279
25.1636 381 19.5192
25.28 411 20.2731
25.3965 424 20.5913
25.513 415 20.3715
25.6296 466 21.587
25.7462 448 21.166
25.8628 515 22.6936
25.9795 535 23.1301
26.0962 504 22.4499
26.213 533 23.0868
26.3298 458 21.4009
26.4466 470 21.6795
26.5635 451 21.2368
26.6804 408 20.199
26.7973 460 21.4476
26.9143 429 20.7123
27.0313 448 21.166
27.1483 487 22.0681
27.2653 447 21.1424
27.3824 471 21.7025
27.4996 472 21.7256
27.6167 428 20.6882
27.7339 456 21.3542
27.8511 445 21.095
27.9683 439 20.9523
28.0855 429 20.7123
28.2028 451 21.2368
28.3201 409 20.2237
28.4374 403 20.0749
28.5547 360 18.9737
28.6721 378 19.4422
28.7894 415 20.3715
28.9068 402 20.0499
29.0242 439 20.9523
29.1416 477 21.8403
29.259 454 21.3073
29.3764 466 21.587
29.4939 507 22.5167
29.6113 488 22.0907
29.7288 413 20.3224
29.8463 407 20.1742
29.9638 381 19.5192
30.0812 327 18.0831
30.1987 362 19.0263
30.3162 388 19.6977
30.4337 388 19.6977
30.5512 392 19.799
30.6687 459 21.4243
30.7862 416 20.3961
30.9037 426 20.6398
31.0212 447 21.1424
31.1387 424 20.5913
31.2562 423 20.567
31.3737 372 19.2873
31.4912 454 21.3073
31.6087 422 20.5426
31.7262 400 20
31.8436 357 18.8944
31.9611 415 20.3715
32.0785 327 18.0831
32.1959 333 18.2483
32.3134 371 19.2614
32.4308 389 19.7231
32.5482 428 20.6882
32.6655 408 20.199
32.7829 500 22.3607
32.9002 472 21.7256
33.0176 422 20.5426
33.1349 438 20.9284
33.2522 414 20.347
33.3694 393 19.8242
33.4867 405 20.1246
33.6039 329 18.1384
33.7211 350 18.7083
33.8383 373 19.3132
33.9554 375 19.3649
34.0725 425 20.6155
34.1896 376 19.3907
34.3067 381 19.5192
34.4237 377 19.4165
34.5407 399 19.975
34.6577 391 19.7737
34.7746 399 19.975
34.8915 404 20.0998
35.0084 400 20
35.1252 418 20.445
35.242 377 19.4165
35.3587 333 18.2483
35.4755 377 19.4165
35.5921 353 18.7883
35.7088 333 18.2483
35.8254 338 18.3848
35.9419 328 18.1108
36.0584 338 18.3848
36.1749 323 17.9722
36.2913 338 18.3848
36.4077 394 19.8494
36.524 393 19.8242
36.6403 368 19.1833
36.7565 332 18.2209
36.8727 345 18.5742
36.9889 299 17.2916
37.1049 277 16.6433
37.221 0 1
37.3369 0 1
37.4529 0 1
37.5687 0 1
37.6845 0 1
37.8003 0 1
37.916 0 1
38.0316 0 1
38.1472 0 1
40.5851 0 1
40.7008 0 1
40.8164 0 1
40.9322 0 1
41.048 0 1
41.1639 0 1
41.2798 0 1
41.3958 0 1
41.5118 0 1
41.6279 0 1
41.744 189 13.7477
41.8602 196 14
41.9765 251 15.843
42.0928 245 15.6525
42.2091 260 16.1245
42.3255 243 15.5885
42.4419 226 15.0333
42.5584 209 14.4568
42.675 262 16.1864
42.7915 281 16.7631
42.9081 298 17.2627
43.0248 339 18.412
43.1415 310 17.6068
43.2582 312 17.6635
43.375 302 17.3781
43.4918 356 18.868
43.6087 366 19.1311
43.7256 307 17.5214
43.8425 313 17.6918
43.9595 307 17.5214
44.0765 323 17.9722
44.1935 329 18.1384
44.3106 303 17.4069
44.4277 272 16.4924
44.5448 276 16.6132
44.6619 283 16.8226
44.7791 288 16.9706
44.8963 308 17.5499
45.0136 291 17.0587
45.1308 348 18.6548
45.2481 340 18.4391
45.3654 329 18.1384
45.4827 322 17.9444
45.6001 353 18.7883
45.7174 309 17.5784
45.8348 348 18.6548
45.9522 336 18.3303
46.0697 279 16.7033
46.1871 280 16.7332
46.3046 277 16.6433
46.422 302 17.3781
46.5395 311 17.6352
46.657 292 17.088
46.7745 320 17.8885
46.892 333 18.2483
47.0096 343 18.5203
47.1271 380 19.4936
47.2446 359 18.9473
47.3622 300 17.3205
47.4797 320 17.8885
47.5973 300 17.3205
47.7149 329 18.1384
47.8324 265 16.2788
47.95 282 16.7929
48.0675 319 17.8606
48.1851 255 15.9687
48.3027 265 16.2788
48.4202 288 16.9706
48.5378 311 17.6352
48.6554 335 18.303
48.7729 351 18.735
48.8904 319 17.8606
49.008 378 19.4422
49.1255 335 18.303
49.243 302 17.3781
49.3605 301 17.3494
49.478 273 16.5227
49.5955 283 16.8226
49.713 267 16.3401
49.8304 247 15.7162
49.9479 277 16.6433
50.0653 300 17.3205
50.1827 320 17.8885
50.3001 359 18.9473
50.4175 342 18.4932
50.5348 343 18.5203
50.6521 335 18.303
50.7694 322 17.9444
50.8867 335 18.303
51.004 298 17.2627
51.1212 300 17.3205
51.2384 323 17.9722
51.3556 261 16.1555
51.4727 283 16.8226
51.5899 263 16.2173
51.707 254 15.9374
51.824 259 16.0935
51.9411 279 16.7033
52.0581 317 17.8045
52.175 324 18
52.2919 312 17.6635
52.4088 353 18.7883
52.5257 377 19.4165
52.6425 314 17.72
52.7593 325 18.0278
52.876 352 18.7617
52.9927 314 17.72
53.1094 287 16.9411
53.226 270 16.4317
53.3426 277 16.6433
53.4591 285 16.8819
53.5756 285 16.8819
53.692 253 15.906
53.8084 288 16.9706
53.9248 275 16.5831
54.0411 254 15.9374
54.1573 237 15.3948
54.2735 0 1
54.3896 0 1
54.5057 0 1
54.6217 0 1
54.7377 0 1
54.8537 0 1
54.9695 0 1
55.0853 0 1
55.2011 0 1
55.3168 0 1
55.4324 0 1
57.824 0 1
57.9396 0 1
58.0553 0 1
58.1711 0 1
58.2869 0 1
58.4028 0 1
58.5187 0 1
58.6347 0 1
58.7508 0 1
58.8669 0 1
58.983 226 15.0333
59.0992 279 16.7033
59.2155 311 17.6352
59.3318 317 17.8045
59.4482 345 18.5742
59.5646 322 17.9444
59.681 368 19.1833
59.7975 406 20.1494
59.9141 369 19.2094
60.0306 343 18.5203
60.1473 366 19.1311
60.2639 348 18.6548
60.3807 346 18.6011
60.4974 324 18
60.6142 347 18.6279
60.731 355 18.8414
60.8479 382 19.5448
60.9648 416 20.3961
61.0818 395 19.8746
61.1987 453 21.2838
61.3158 397 19.9249
61.4328 445 21.095
61.5499 423 20.567
61.667 395 19.8746
61.7841 367 19.1572
61.9013 313 17.6918
62.0185 330 18.1659
62.1357 335 18.303
62.253 376 19.3907
62.3702 415 20.3715
62.4875 397 19.9249
62.6049 417 20.4206
62.7222 394 19.8494
62.8396 448 21.166
62.9569 403 20.0749
63.0743 427 20.664
63.1918 472 21.7256
63.3092 401 20.025
63.4267 404 20.0998
63.5441 432 20.7846
63.6616 378 19.4422
63.7791 362 19.0263
63.8966 329 18.1384
64.0142 328 18.1108
64.1317 338 18.3848
64.2492 337 18.3576
64.3668 342 18.4932
64.4843 399 19.975
64.6019 401 20.025
64.7195 414 20.347
64.837 406 20.1494
64.9546 381 19.5192
65.0722 446 21.1187
65.1898 395 19.8746
65.3074 379 19.4679
65.4249 332 18.2209
65.5425 297 17.2337
65.6601 319 17.8606
65.7777 313 17.6918
65.8952 378 19.4422
66.0128 379 19.4679
66.1304 408 20.199
66.2479 388 19.6977
66.3655 384 19.5959
66.483 414 20.347
66.6005 438 20.9284
66.718 402 20.0499
66.8355 436 20.8806
66.953 421 20.5183
67.0705 402 20.0499
67.1879 379 19.4679
67.3054 364 19.0788
67.4228 381 19.5192
67.5402 365 19.105
67.6576 321 17.9165
67.7749 337 18.3576
67.8923 346 18.6011
68.0096 427 20.664
68.1269 454 21.3073
68.2442 491 22.1585
68.3614 537 23.1733
68.4787 525 22.9129
68.5958 519 22.7816
68.713 546 23.3666
68.8302 585 24.1868
68.9473 507 22.5167
69.0643 541 23.2594
69.1814 498 22.3159
69.2984 539 23.2164
69.4154 573 23.9374
69.5323 550 23.4521
69.6492 641 25.318
69.7661 620 24.8998
69.8829 639 25.2784
69.9997 648 25.4558
70.1165 687 26.2107
70.2332 663 25.7488
70.3499 640 25.2982
70.4665 705 26.5518
70.5831 609 24.6779
70.6996 603 24.5561
70.8161 577 24.0208
70.9326 551 23.4734
71.049 509 22.561
71.1653 443 21.0476
71.2817 285 16.8819
71.3979 217 14.7309
71.5141 235 15.3297
71.6303 212 14.5602
71.7464 187 13.6748
71.8624 0 1
71.9784 0 1
72.0944 0 1
72.2102 0 1
72.3261 0 1
72.4418 0 1
72.5575 0 1
72.6732 0 1
75.1054 0 1
75.2209 0 1
75.3365 0 1
75.4521 0 1
75.5678 0 1
75.6835 0 1
75.7993 0 1
75.9151 0 1
76.031 0 1
76.147 311 17.6352
76.263 380 19.4936
76.3791 298 17.2627
76.4952 327 18.0831
76.6113 296 17.2047
76.7276 294 17.1464
76.8438 311 17.6352
76.9601 329 18.1384
77.0765 376 19.3907
77.1929 424 20.5913
77.3093 458 21.4009
77.4258 476 21.8174
77.5423 509 22.561
77.6589 502 22.4054
77.7755 471 21.7025
77.8921 474 21.7715
78.0088 494 22.2261
78.1256 457 21.3776
78.2423 437 20.9045
78.3591 453 21.2838
78.4759 489 22.1133
78.5928 520 22.8035
78.7097 610 24.6982
78.8266 631 25.1197
78.9436 682 26.1151
79.0606 710 26.6458
79.1776 663 25.7488
79.2946 750 27.3861
79.4117 767 27.6948
79.5288 777 27.8747
79.6459 820 28.6356
79.7631 797 28.2312
79.8802 756 27.4955
79.9974 787 28.0535
80.1147 725 26.9258
80.2319 685 26.1725
80.3491 656 25.6125
80.4664 675 25.9808
80.5837 739 27.1846
80.701 780 27.9285
80.8183 887 29.7825
80.9357 892 29.8664
81.053 912 30.1993
81.1704 975 31.225
81.2877 964 31.0483
81.4051 947 30.7734
81.5225 887 29.7825
81.6399 841 29
81.7573 726 26.9444
81.8747 685 26.1725
81.9922 582 24.1247
82.1096 566 23.7908
82.227 721 26.8514
82.3444 695 26.3629
82.4619 801 28.3019
82.5793 812 28.4956
82.6967 790 28.1069
82.8142 759 27.55
82.9316 751 27.4044
83.049 730 27.0185
83.1664 709 26.6271
83.2838 682 26.1151
83.4012 687 26.2107
83.5186 634 25.1794
83.636 592 24.3311
83.7534 568 23.8328
83.8708 509 22.561
83.9881 471 21.7025
84.1055 387 19.6723
84.2228 429 20.7123
84.3401 464 21.5407
84.4575 467 21.6102
84.5747 483 21.9773
84.692 454 21.3073
84.8093 463 21.5174
84.9265 445 21.095
85.0437 445 21.095
85.1609 471 21.7025
85.2781 356 18.868
85.3952 296 17.2047
85.5123 299 17.2916
85.6294 277 16.6433
85.7465 323 17.9722
85.8636 313 17.6918
85.9806 325 18.0278
86.0976 386 19.6469
86.2145 396 19.8997
86.3315 368 19.1833
86.4484 410 20.2485
86.5652 384 19.5959
86.682 388 19.6977
86.7988 347 18.6279
86.9156 394 19.8494
87.0323 388 19.6977
87.149 367 19.1572
87.2657 361 19
87.3823 361 19
87.4988 278 16.6733
87.6154 243 15.5885
87.7318 247 15.7162
87.8483 245 15.6525
87.9647 231 15.1987
88.081 261 16.1555
88.1973 296 17.2047
88.3136 284 16.8523
88.4298 261 16.1555
88.546 274 16.5529
88.6621 214 14.6287
88.7781 239 15.4596
88.8942 0 1
89.0101 0 1
89.126 0 1
89.2419 0 1
89.3577 0 1
89.4734 0 1
89.5891 0 1
89.7047 0 1
89.8203 0 1
89.9358 0 1
92.3269 0 1
92.4424 0 1
92.558 0 1
92.6736 0 1
92.7893 0 1
92.905 0 1
93.0208 0 1
93.1366 0 1
93.2525 0 1
93.3685 0 1
93.4845 0 1
93.6005 287 16.9411
93.7167 277 16.6433
93.8328 324 18
93.949 343 18.5203
94.0653 328 18.1108
94.1816 381 19.5192
94.2979 357 18.8944
94.4143 365 19.105
94.5307 345 18.5742
94.6472 322 17.9444
94.7637 312 17.6635
94.8803 331 18.1934
94.9969 305 17.4642
95.1135 355 18.8414
95.2302 387 19.6723
95.3469 409 20.2237
95.4637 393 19.8242
95.5805 428 20.6882
95.6973 453 21.2838
95.8142 456 21.3542
95.9311 412 20.2978
96.048 444 21.0713
96.1649 402 20.0499
96.2819 430 20.7364
96.3989 453 21.2838
96.516 395 19.8746
96.633 381 19.5192
96.7501 378 19.4422
96.8673 340 18.4391
96.9844 322 17.9444
97.1016 383 19.5704
97.2188 372 19.2873
97.336 380 19.4936
97.4532 443 21.0476
97.5704 423 20.567
97.6877 438 20.9284
97.805 452 21.2603
97.9223 453 21.2838
98.0396 411 20.2731
98.1569 389 19.7231
98.2743 401 20.025
98.3916 315 17.7482
98.509 331 18.1934
98.6264 390 19.7484
98.7438 440 20.9762
98.8612 454 21.3073
98.9786 424 20.5913
99.096 456 21.3542
99.2134 452 21.2603
99.3308 475 21.7945
99.4482 454 21.3073
99.5656 468 21.6333
99.6831 478 21.8632
99.8005 445 21.095
99.9179 466 21.587
100.035 448 21.166
100.153 454 21.3073
100.27 463 21.5174
100.388 355 18.8414
100.505 336 18.3303
100.622 379 19.4679
100.74 395 19.8746
100.857 417 20.4206
100.975 441 21
101.092 449 21.1896
101.209 449 21.1896
101.327 468 21.6333
101.444 422 20.5426
101.561 473 21.7486
101.679 406 20.1494
101.796 384 19.5959
101.913 337 18.3576
102.03 317 17.8045
102.148 325 18.0278
102.265 370 19.2354
102.382 399 19.975
102.499 393 19.8242
102.616 436 20.8806
102.733 422 20.5426
102.851 459 21.4243
102.968 452 21.2603
103.085 448 21.166
103.202 426 20.6398
103.319 429 20.7123
103.436 416 20.3961
103.552 452 21.2603
103.669 397 19.9249
103.786 412 20.2978
103.903 369 19.2094
104.02 312 17.6635
104.137 340 18.4391
104.253 342 18.4932
104.37 407 20.1742
104.487 466 21.587
104.603 509 22.561
104.72 563 23.7276
104.836 546 23.3666
104.953 515 22.6936
105.069 478 21.8632
105.186 431 20.7605
105.302 426 20.6398
105.418 415 20.3715
105.535 400 20
105.651 390 19.7484
105.767 499 22.3383
105.883 489 22.1133
105.999 494 22.2261
106.115 0 1
106.231 0 1
106.347 0 1
106.463 0 1
106.579 0 1
106.694 0 1
106.81 0 1
106.926 0 1
107.041 0 1
107.157 0 1
109.576 0 1
109.692 0 1
109.807 0 1
109.923 0 1
110.039 0 1
110.155 0 1
110.27 0 1
110.386 0 1
110.502 0 1
110.618 299 17.2916
110.735 387 19.6723
110.851 499 22.3383
110.967 490 22.1359
111.083 590 24.2899
111.199 665 25.7876
111.316 716 26.7582
111.432 680 26.0768
111.549 749 27.3679
111.665 774 27.8209
111.782 767 27.6948
111.898 782 27.9643
112.015 818 28.6007
112.132 763 27.6225
112.248 713 26.7021
112.365 723 26.8887
112.482 539 23.2164
112.599 553 23.516
112.716 532 23.0651
112.832 604 24.5764
112.949 652 25.5343
113.066 728 26.9815
113.183 798 28.2489
113.3 764 27.6405
113.417 760 27.5681
113.534 810 28.4605
113.652 732 27.0555
113.769 701 26.4764
113.886 669 25.865
114.003 580 24.0832
114.12 579 24.0624
114.238 620 24.8998
114.355 663 25.7488
114.472 614 24.779
114.589 725 26.9258
114.707 632 25.1396
114.824 682 26.1151
114.942 651 25.5147
115.059 650 25.4951
115.176 596 24.4131
115.294 596 24.4131
115.411 541 23.2594
115.529 535 23.1301
115.646 544 23.3238
115.764 501 22.383
115.881 414 20.347
115.999 387 19.6723
116.116 398 19.9499
116.234 360 18.9737
116.351 409 20.2237
116.469 401 20.025
116.586 448 21.166
116.704 449 21.1896
116.821 456 21.3542
116.939 451 21.2368
117.056 468 21.6333
117.174 443 21.0476
117.291 428 20.6882
117.409 395 19.8746
117.526 404 20.0998
117.644 350 18.7083
117.761 346 18.6011
117.879 370 19.2354
117.996 446 21.1187
118.114 405 20.1246
118.231 409 20.2237
118.349 398 19.9499
118.466 414 20.347
118.584 435 20.8567
118.701 419 20.4695
118.819 427 20.664
118.936 396 19.8997
119.053 403 20.0749
119.171 381 19.5192
119.288 341 18.4662
119.405 338 18.3848
119.523 314 17.72
119.64 315 17.7482
119.757 274 16.5529
119.875 293 17.1172
119.992 287 16.9411
120.109 319 17.8606
120.226 296 17.2047
120.343 322 17.9444
120.46 278 16.6733
120.578 344 18.5472
120.695 352 18.7617
120.812 333 18.2483
120.929 300 17.3205
121.046 297 17.2337
121.163 264 16.2481
121.279 243 15.5885
121.396 233 15.2643
121.513 244 15.6205
121.63 269 16.4012
121.747 266 16.3095
121.863 265 16.2788
121.98 272 16.4924
122.097 251 15.843
122.213 267 16.3401
122.33 260 16.1245
122.446 290 17.0294
122.563 243 15.5885
122.679 221 14.8661
122.795 216 14.6969
122.912 211 14.5258
123.028 175 13.2288
123.144 140 11.8322
123.26 126 11.225
123.377 0 1
123.493 0 1
123.609 0 1
123.725 0 1
123.84 0 1
123.956 0 1
124.072 0 1
124.188 0 1
124.303 0 1
124.419 0 1
126.852 0 1
126.968 0 1
127.083 0 1
127.199 0 1
127.315 0 1
127.431 0 1
127.547 0 1
127.663 0 1
127.779 0 1
127.895 0 1
128.011 0 1
128.127 0 1
128.243 0 1
128.359 358 18.9209
128.476 384 19.5959
128.592 380 19.4936
128.708 386 19.6469
128.825 398 19.9499
128.941 386 19.6469
129.058 404 20.0998
129.174 436 20.8806
129.291 455 21.3307
129.408 450 21.2132
129.524 493 22.2036
129.641 513 22.6495
129.758 508 22.5389
129.875 490 22.1359
129.992 456 21.3542
130.108 396 19.8997
130.225 331 18.1934
130.342 372 19.2873
130.459 363 19.0526
130.576 428 20.6882
130.693 453 21.2838
130.81 501 22.383
130.928 453 21.2838
131.045 497 22.2935
131.162 461 21.4709
131.279 462 21.4942
131.396 491 22.1585
131.513 481 21.9317
131.631 473 21.7486
131.748 499 22.3383
131.865 422 20.5426
131.983 460 21.4476
132.1 454 21.3073
132.217 402 20.0499
132.335 358 18.9209
132.452 375 19.3649
132.57 418 20.445
132.687 445 21.095
132.804 464 21.5407
132.922 464 21.5407
133.039 456 21.3542
133.157 467 21.6102
133.274 459 21.4243
133.392 467 21.6102
133.509 441 21
133.627 416 20.3961
133.744 382 19.5448
133.862 331 18.1934
133.979 330 18.1659
134.097 377 19.4165
134.214 422 20.5426
134.332 407 20.1742
134.449 411 20.2731
134.567 443 21.0476
134.684 487 22.0681
134.802 454 21.3073
134.919 453 21.2838
135.037 461 21.4709
135.154 455 21.3307
135.272 390 19.7484
135.389 416 20.3961
135.507 422 20.5426
135.624 443 21.0476
135.742 405 20.1246
135.859 397 19.9249
135.977 385 19.6214
136.094 390 19.7484
136.211 363 19.0526
136.329 412 20.2978
136.446 409 20.2237
136.564 457 21.3776
136.681 473 21.7486
136.798 459 21.4243
136.915 480 21.9089
137.033 413 20.3224
137.15 385 19.6214
137.267 331 18.1934
137.384 325 18.0278
137.502 337 18.3576
137.619 310 17.6068
137.736 356 18.868
137.853 408 20.199
137.97 395 19.8746
138.087 401 20.025
138.204 403 20.0749
138.321 447 21.1424
138.438 376 19.3907
138.555 423 20.567
138.672 409 20.2237
138.788 400 20
138.905 376 19.3907
139.022 354 18.8149
139.139 332 18.2209
139.255 299 17.2916
139.372 310 17.6068
139.488 289 17
139.605 232 15.2315
139.721 236 15.3623
139.838 251 15.843
139.954 222 14.8997
140.071 245 15.6525
140.187 255 15.9687
140.303 224 14.9666
140.419 208 14.4222
140.535 184 13.5647
140.652 174 13.1909
140.768 0 1
140.884 0 1
141 0 1
141.115 0 1
141.231 0 1
141.347 0 1
141.463 0 1
141.578 0 1
141.694 0 1
144.104 0 1
144.219 0 1
144.335 0 1
144.45 0 1
144.566 0 1
144.682 0 1
144.798 0 1
144.914 0 1
145.03 0 1
145.146 199 14.1067
145.262 212 14.5602
145.378 218 14.7648
145.494 220 14.8324
145.61 211 14.5258
145.726 252 15.8745
145.842 208 14.4222
145.959 202 14.2127
146.075 226 15.0333
146.192 209 14.4568
146.308 176 13.2665
146.425 214 14.6287
146.541 197 14.0357
146.658 199 14.1067
146.774 232 15.2315
146.891 227 15.0665
147.008 261 16.1555
147.125 212 14.5602
147.241 244 15.6205
147.358 235 15.3297
147.475 234 15.2971
147.592 266 16.3095
147.709 260 16.1245
147.826 245 15.6525
147.943 251 15.843
148.06 236 15.3623
148.177 245 15.6525
148.294 240 15.4919
148.411 239 15.4596
148.528 212 14.5602
148.645 247 15.7162
148.762 254 15.9374
148.88 280 16.7332
148.997 301 17.3494
149.114 290 17.0294
149.231 283 16.8226
149.349 297 17.2337
149.466 297 17.2337
149.583 257 16.0312
149.701 249 15.7797
149.818 262 16.1864
149.935 222 14.8997
150.053 217 14.7309
150.17 223 14.9332
150.287 234 15.2971
150.405 274 16.5529
150.522 272 16.4924
150.64 269 16.4012
150.757 250 15.8114
150.875 266 16.3095
150.992 290 17.0294
151.11 253 15.906
151.227 285 16.8819
151.344 251 15.843
151.462 231 15.1987
151.579 277 16.6433
151.697 250 15.8114
151.814 228 15.0997
151.932 244 15.6205
152.049 228 15.0997
152.167 254 15.9374
152.284 231 15.1987
152.402 254 15.9374
152.519 264 16.2481
152.636 257 16.0312
152.754 293 17.1172
152.871 235 15.3297
152.989 274 16.5529
153.106 270 16.4317
153.223 263 16.2173
153.341 289 17
153.458 252 15.8745
153.575 195 13.9642
153.693 228 15.0997
153.81 217 14.7309
153.927 228 15.0997
154.044 231 15.1987
154.162 240 15.4919
154.279 264 16.2481
154.396 279 16.7033
154.513 242 15.5563
154.63 258 16.0624
154.747 271 16.4621
154.864 283 16.8226
154.981 238 15.4272
155.098 263 16.2173
155.215 264 16.2481
155.332 256 16
155.449 215 14.6629
155.566 217 14.7309
155.683 226 15.0333
155.8 221 14.8661
155.917 217 14.7309
156.033 223 14.9332
156.15 0 1
156.267 0 1
156.383 0 1
156.5 0 1
156.617 0 1
156.733 0 1
156.85 0 1
156.966 0 1
157.082 0 1
157.199 0 1
157.315 0 1
157.431 0 1
157.547 0 1
157.664 0 1
157.78 0 1
157.896 0 1
158.012 0 1
158.128 0 1
158.244 0 1
158.359 0 1
158.475 0 1
158.591 0 1
158.706 0 1
