
6.15755 0 1
6.2731 0 1
6.3887 0 1
6.50437 0 1
6.62009 0 1
6.73587 0 1
6.8517 0 1
6.96759 0 1
7.08353 0 1
7.19952 0 1
7.31557 0 1
7.43166 0 1
7.54781 0 1
7.664 0 1
7.78024 0 1
7.89653 0 1
8.01286 0 1
8.12924 0 1
8.24567 0 1
8.36213 0 1
8.47864 0 1
8.59519 0 1
8.71178 0 1
8.82841 0 1
8.94508 0 1
9.06179 0 1
9.17853 0 1
9.29531 0 1
9.41212 0 1
9.52897 0 1
9.64584 0 1
9.76276 0 1
9.8797 0 1
9.99667 0 1
10.1137 0 1
10.2307 0 1
10.3478 0 1
10.4648 0 1
10.5819 0 1
10.6991 0 1
10.8162 0 1
10.9334 0 1
11.0506 0 1
11.1678 0 1
11.285 0 1
11.4023 0 1
11.5196 0 1
11.6369 0 1
11.7542 0 1
11.8715 0 1
11.9888 0 1
12.1062 0 1
12.2235 0 1
12.3409 0 1
12.4582 0 1
12.5756 0 1
12.693 0 1
12.8104 0 1
12.9278 0 1
13.0452 0 1
13.1626 0 1
13.28 0 1
13.3974 0 1
13.5149 0 1
13.6323 0 1
13.7497 0 1
13.8671 0 1
13.9845 0 1
14.1019 0 1
14.2193 0 1
14.3367 0 1
14.4541 0 1
14.5714 0 1
14.6888 0 1
14.8062 0 1
14.9235 0 1
15.0408 737 27.1477
15.1581 766 27.6767
15.2755 771 27.7669
15.3927 803 28.3373
15.51 902 30.0333
15.6273 791 28.1247
15.7445 794 28.178
15.8617 807 28.4077
15.9789 797 28.2312
16.0961 832 28.8444
16.2132 871 29.5127
16.3304 799 28.2666
16.4475 796 28.2135
16.5646 813 28.5132
16.6816 915 30.249
16.7986 922 30.3645
16.9156 938 30.6268
17.0326 968 31.1127
17.1496 978 31.273
17.2665 935 30.5778
17.3833 928 30.4631
17.5002 906 30.0998
17.617 817 28.5832
17.7338 844 29.0517
17.8505 774 27.8209
17.9672 754 27.4591
18.0839 782 27.9643
18.2005 859 29.3087
18.3171 882 29.6985
18.4337 865 29.4109
18.5502 904 30.0666
18.6666 903 30.05
18.7831 906 30.0998
18.8994 919 30.315
19.0158 877 29.6142
19.1321 887 29.7825
19.2483 826 28.7402
19.3645 807 28.4077
19.4806 758 27.5318
19.5967 704 26.533
19.7128 617 24.8395
19.8288 603 24.5561
19.9447 582 24.1247
20.0606 0 1
20.1764 0 1
20.2922 0 1
20.4079 0 1
20.5236 0 1
20.6392 0 1
20.7548 0 1
20.8702 0 1
23.3078 0 1
23.4233 0 1
23.539 0 1
23.6547 0 1
23.7704 0 1
23.8862 0 1
24.0021 0 1
24.118 0 1
24.234 0 1
24.35 0 1
24.4661 348 18.6548
24.5822 426 20.6398
24.6984 488 22.0907
24.8146 498 22.3159
24.9309 573 23.9374
25.0472 660 25.6905
25.1636 680 26.0768
25.28 734 27.0924
25.3965 783 27.9821
25.513 876 29.5973
25.6296 913 30.2159
25.7462 922 30.3645
25.8628 911 30.1828
25.9795 1017 31.8904
26.0962 1004 31.686
26.213 925 30.4138
26.3298 862 29.3598
26.4466 866 29.4279
26.5635 826 28.7402
26.6804 800 28.2843
26.7973 844 29.0517
26.9143 858 29.2916
27.0313 845 29.0689
27.1483 915 30.249
27.2653 892 29.8664
27.3824 933 30.545
27.4996 919 30.315
27.6167 933 30.545
27.7339 884 29.7321
27.8511 893 29.8831
27.9683 856 29.2575
28.0855 841 29
28.2028 823 28.688
28.3201 769 27.7308
28.4374 783 27.9821
28.5547 762 27.6043
28.6721 776 27.8568
28.7894 779 27.9106
28.9068 915 30.249
29.0242 897 29.95
29.1416 1005 31.7017
29.259 968 31.1127
29.3764 891 29.8496
29.4939 919 30.315
29.6113 906 30.0998
29.7288 866 29.4279
29.8463 793 28.1603
29.9638 858 29.2916
30.0812 768 27.7128
30.1987 719 26.8142
30.3162 776 27.8568
30.4337 799 28.2666
30.5512 833 28.8617
30.6687 860 29.3258
30.7862 869 29.4788
30.9037 913 30.2159
31.0212 892 29.8664
31.1387 873 29.5466
31.2562 879 29.6479
31.3737 864 29.3939
31.4912 867 29.4449
31.6087 845 29.0689
31.7262 781 27.9464
31.8436 807 28.4077
31.9611 724 26.9072
32.0785 735 27.1109
32.1959 786 28.0357
32.3134 790 28.1069
32.4308 797 28.2312
32.5482 858 29.2916
32.6655 897 29.95
32.7829 955 30.9031
32.9002 883 29.7153
33.0176 897 29.95
33.1349 883 29.7153
33.2522 920 30.3315
33.3694 863 29.3769
33.4867 761 27.5862
33.6039 722 26.8701
33.7211 769 27.7308
33.8383 718 26.7955
33.9554 748 27.3496
34.0725 792 28.1425
34.1896 756 27.4955
34.3067 800 28.2843
34.4237 798 28.2489
34.5407 892 29.8664
34.6577 818 28.6007
34.7746 794 28.178
34.8915 808 28.4253
35.0084 844 29.0517
35.1252 827 28.7576
35.242 755 27.4773
35.3587 800 28.2843
35.4755 751 27.4044
35.5921 735 27.1109
35.7088 664 25.7682
35.8254 677 26.0192
35.9419 692 26.3059
36.0584 755 27.4773
36.1749 828 28.775
36.2913 706 26.5707
36.4077 798 28.2489
36.524 784 28
36.6403 735 27.1109
36.7565 734 27.0924
36.8727 663 25.7488
36.9889 684 26.1534
37.1049 589 24.2693
37.221 0 1
37.3369 0 1
37.4529 0 1
37.5687 0 1
37.6845 0 1
37.8003 0 1
37.916 0 1
38.0316 0 1
38.1472 0 1
40.5851 0 1
40.7008 0 1
40.8164 0 1
40.9322 0 1
41.048 0 1
41.1639 0 1
41.2798 0 1
41.3958 0 1
41.5118 0 1
41.6279 0 1
41.744 393 19.8242
41.8602 426 20.6398
41.9765 448 21.166
42.0928 509 22.561
42.2091 477 21.8403
42.3255 497 22.2935
42.4419 479 21.8861
42.5584 513 22.6495
42.675 498 22.3159
42.7915 561 23.6854
42.9081 631 25.1197
43.0248 625 25
43.1415 693 26.3249
43.2582 728 26.9815
43.375 690 26.2679
43.4918 751 27.4044
43.6087 741 27.2213
43.7256 715 26.7395
43.8425 698 26.4197
43.9595 661 25.7099
44.0765 699 26.4386
44.1935 659 25.671
44.3106 647 25.4362
44.4277 596 24.4131
44.5448 558 23.622
44.6619 605 24.5967
44.7791 592 24.3311
44.8963 608 24.6577
45.0136 688 26.2298
45.1308 746 27.313
45.2481 691 26.2869
45.3654 715 26.7395
45.4827 734 27.0924
45.6001 742 27.2397
45.7174 695 26.3629
45.8348 694 26.3439
45.9522 631 25.1197
46.0697 636 25.219
46.1871 576 24
46.3046 590 24.2899
46.422 634 25.1794
46.5395 677 26.0192
46.657 671 25.9037
46.7745 700 26.4575
46.892 675 25.9808
47.0096 708 26.6083
47.1271 715 26.7395
47.2446 694 26.3439
47.3622 682 26.1151
47.4797 724 26.9072
47.5973 723 26.8887
47.7149 647 25.4362
47.8324 705 26.5518
47.95 636 25.219
48.0675 622 24.9399
48.1851 591 24.3105
48.3027 584 24.1661
48.4202 621 24.9199
48.5378 617 24.8395
48.6554 753 27.4408
48.7729 716 26.7582
48.8904 673 25.9422
49.008 754 27.4591
49.1255 740 27.2029
49.243 644 25.3772
49.3605 690 26.2679
49.478 573 23.9374
49.5955 589 24.2693
49.713 539 23.2164
49.8304 600 24.4949
49.9479 622 24.9399
50.0653 687 26.2107
50.1827 677 26.0192
50.3001 716 26.7582
50.4175 680 26.0768
50.5348 703 26.5141
50.6521 743 27.258
50.7694 707 26.5895
50.8867 732 27.0555
51.004 685 26.1725
51.1212 649 25.4755
51.2384 700 26.4575
51.3556 660 25.6905
51.4727 600 24.4949
51.5899 561 23.6854
51.707 592 24.3311
51.824 599 24.4745
51.9411 617 24.8395
52.0581 693 26.3249
52.175 719 26.8142
52.2919 759 27.55
52.4088 719 26.8142
52.5257 712 26.6833
52.6425 691 26.2869
52.7593 707 26.5895
52.876 695 26.3629
52.9927 634 25.1794
53.1094 596 24.4131
53.226 559 23.6432
53.3426 580 24.0832
53.4591 567 23.8118
53.5756 548 23.4094
53.692 575 23.9792
53.8084 566 23.7908
53.9248 529 23
54.0411 534 23.1084
54.1573 504 22.4499
54.2735 0 1
54.3896 0 1
54.5057 0 1
54.6217 0 1
54.7377 0 1
54.8537 0 1
54.9695 0 1
55.0853 0 1
55.2011 0 1
55.3168 0 1
55.4324 0 1
57.824 0 1
57.9396 0 1
58.0553 0 1
58.1711 0 1
58.2869 0 1
58.4028 0 1
58.5187 0 1
58.6347 0 1
58.7508 0 1
58.8669 0 1
58.983 471 21.7025
59.0992 540 23.2379
59.2155 646 25.4165
59.3318 679 26.0576
59.4482 714 26.7208
59.5646 773 27.8029
59.681 819 28.6182
59.7975 834 28.8791
59.9141 817 28.5832
60.0306 827 28.7576
60.1473 739 27.1846
60.2639 757 27.5136
60.3807 709 26.6271
60.4974 727 26.9629
60.6142 741 27.2213
60.731 886 29.7658
60.8479 866 29.4279
60.9648 871 29.5127
61.0818 881 29.6816
61.1987 947 30.7734
61.3158 892 29.8664
61.4328 844 29.0517
61.5499 803 28.3373
61.667 792 28.1425
61.7841 747 27.3313
61.9013 734 27.0924
62.0185 713 26.7021
62.1357 743 27.258
62.253 801 28.3019
62.3702 853 29.2062
62.4875 911 30.1828
62.6049 967 31.0966
62.7222 870 29.4958
62.8396 900 30
62.9569 942 30.692
63.0743 922 30.3645
63.1918 864 29.3939
63.3092 893 29.8831
63.4267 865 29.4109
63.5441 796 28.2135
63.6616 804 28.3549
63.7791 779 27.9106
63.8966 749 27.3679
64.0142 720 26.8328
64.1317 709 26.6271
64.2492 829 28.7924
64.3668 882 29.6985
64.4843 810 28.4605
64.6019 909 30.1496
64.7195 910 30.1662
64.837 930 30.4959
64.9546 878 29.6311
65.0722 832 28.8444
65.1898 792 28.1425
65.3074 738 27.1662
65.4249 710 26.6458
65.5425 687 26.2107
65.6601 739 27.1846
65.7777 717 26.7769
65.8952 838 28.9482
66.0128 830 28.8097
66.1304 883 29.7153
66.2479 896 29.9333
66.3655 950 30.8221
66.483 938 30.6268
66.6005 934 30.5614
66.718 882 29.6985
66.8355 948 30.7896
66.953 908 30.133
67.0705 929 30.4795
67.1879 860 29.3258
67.3054 836 28.9137
67.4228 731 27.037
67.5402 694 26.3439
67.6576 752 27.4226
67.7749 787 28.0535
67.8923 827 28.7576
68.0096 867 29.4449
68.1269 816 28.5657
68.2442 908 30.133
68.3614 1001 31.6386
68.4787 955 30.9031
68.5958 1029 32.078
68.713 993 31.5119
68.8302 883 29.7153
68.9473 863 29.3769
69.0643 784 28
69.1814 784 28
69.2984 836 28.9137
69.4154 850 29.1548
69.5323 877 29.6142
69.6492 961 31
69.7661 1036 32.187
69.8829 1080 32.8634
69.9997 1067 32.665
70.1165 1040 32.249
70.2332 963 31.0322
70.3499 937 30.6105
70.4665 941 30.6757
70.5831 906 30.0998
70.6996 812 28.4956
70.8161 790 28.1069
70.9326 728 26.9815
71.049 629 25.0799
71.1653 522 22.8473
71.2817 454 21.3073
71.3979 405 20.1246
71.5141 409 20.2237
71.6303 410 20.2485
71.7464 343 18.5203
71.8624 0 1
71.9784 0 1
72.0944 0 1
72.2102 0 1
72.3261 0 1
72.4418 0 1
72.5575 0 1
72.6732 0 1
75.1054 0 1
75.2209 0 1
75.3365 0 1
75.4521 0 1
75.5678 0 1
75.6835 0 1
75.7993 0 1
75.9151 0 1
76.031 0 1
76.147 614 24.779
76.263 717 26.7769
76.3791 577 24.0208
76.4952 621 24.9199
76.6113 610 24.6982
76.7276 613 24.7588
76.8438 683 26.1343
76.9601 750 27.3861
77.0765 828 28.775
77.1929 815 28.5482
77.3093 800 28.2843
77.4258 799 28.2666
77.5423 820 28.6356
77.6589 793 28.1603
77.7755 699 26.4386
77.8921 643 25.3574
78.0088 605 24.5967
78.1256 600 24.4949
78.2423 566 23.7908
78.3591 622 24.9399
78.4759 665 25.7876
78.5928 730 27.0185
78.7097 784 28
78.8266 706 26.5707
78.9436 819 28.6182
79.0606 782 27.9643
79.1776 806 28.3901
79.2946 826 28.7402
79.4117 838 28.9482
79.5288 819 28.6182
79.6459 754 27.4591
79.7631 713 26.7021
79.8802 740 27.2029
79.9974 690 26.2679
80.1147 592 24.3311
80.2319 658 25.6515
80.3491 596 24.4131
80.4664 587 24.2281
80.5837 682 26.1151
80.701 753 27.4408
80.8183 792 28.1425
80.9357 797 28.2312
81.053 805 28.3725
81.1704 816 28.5657
81.2877 782 27.9643
81.4051 807 28.4077
81.5225 742 27.2397
81.6399 700 26.4575
81.7573 627 25.04
81.8747 585 24.1868
81.9922 588 24.2487
82.1096 621 24.9199
82.227 729 27
82.3444 750 27.3861
82.4619 758 27.5318
82.5793 796 28.2135
82.6967 833 28.8617
82.8142 747 27.3313
82.9316 830 28.8097
83.049 831 28.8271
83.1664 795 28.1957
83.2838 838 28.9482
83.4012 731 27.037
83.5186 772 27.7849
83.636 705 26.5518
83.7534 691 26.2869
83.8708 639 25.2784
83.9881 643 25.3574
84.1055 655 25.593
84.2228 732 27.0555
84.3401 748 27.3496
84.4575 854 29.2233
84.5747 825 28.7228
84.692 802 28.3196
84.8093 867 29.4449
84.9265 836 28.9137
85.0437 781 27.9464
85.1609 708 26.6083
85.2781 681 26.096
85.3952 592 24.3311
85.5123 615 24.7992
85.6294 653 25.5539
85.7465 702 26.4953
85.8636 764 27.6405
85.9806 740 27.2029
86.0976 851 29.1719
86.2145 843 29.0345
86.3315 819 28.6182
86.4484 825 28.7228
86.5652 854 29.2233
86.682 831 28.8271
86.7988 847 29.1033
86.9156 828 28.775
87.0323 795 28.1957
87.149 828 28.775
87.2657 711 26.6646
87.3823 661 25.7099
87.4988 533 23.0868
87.6154 548 23.4094
87.7318 546 23.3666
87.8483 613 24.7588
87.9647 618 24.8596
88.081 662 25.7294
88.1973 617 24.8395
88.3136 655 25.593
88.4298 600 24.4949
88.546 529 23
88.6621 427 20.664
88.7781 383 19.5704
88.8942 0 1
89.0101 0 1
89.126 0 1
89.2419 0 1
89.3577 0 1
89.4734 0 1
89.5891 0 1
89.7047 0 1
89.8203 0 1
89.9358 0 1
92.3269 0 1
92.4424 0 1
92.558 0 1
92.6736 0 1
92.7893 0 1
92.905 0 1
93.0208 0 1
93.1366 0 1
93.2525 0 1
93.3685 0 1
93.4845 0 1
93.6005 631 25.1197
93.7167 609 24.6779
93.8328 664 25.7682
93.949 708 26.6083
94.0653 707 26.5895
94.1816 663 25.7488
94.2979 713 26.7021
94.4143 676 26
94.5307 591 24.3105
94.6472 660 25.6905
94.7637 636 25.219
94.8803 637 25.2389
94.9969 718 26.7955
95.1135 723 26.8887
95.2302 769 27.7308
95.3469 812 28.4956
95.4637 778 27.8927
95.5805 784 28
95.6973 835 28.8964
95.8142 857 29.2746
95.9311 819 28.6182
96.048 799 28.2666
96.1649 819 28.6182
96.2819 815 28.5482
96.3989 807 28.4077
96.516 712 26.6833
96.633 685 26.1725
96.7501 592 24.3311
96.8673 629 25.0799
96.9844 648 25.4558
97.1016 718 26.7955
97.2188 750 27.3861
97.336 833 28.8617
97.4532 876 29.5973
97.5704 880 29.6648
97.6877 845 29.0689
97.805 797 28.2312
97.9223 789 28.0891
98.0396 746 27.313
98.1569 648 25.4558
98.2743 617 24.8395
98.3916 608 24.6577
98.509 649 25.4755
98.6264 735 27.1109
98.7438 725 26.9258
98.8612 793 28.1603
98.9786 834 28.8791
99.096 808 28.4253
99.2134 868 29.4618
99.3308 884 29.7321
99.4482 894 29.8998
99.5656 873 29.5466
99.6831 835 28.8964
99.8005 857 29.2746
99.9179 818 28.6007
100.035 810 28.4605
100.153 764 27.6405
100.27 666 25.807
100.388 676 26
100.505 700 26.4575
100.622 734 27.0924
100.74 791 28.1247
100.857 803 28.3373
100.975 931 30.5123
101.092 933 30.545
101.209 876 29.5973
101.327 923 30.3809
101.444 846 29.0861
101.561 775 27.8388
101.679 735 27.1109
101.796 694 26.3439
101.913 598 24.454
102.03 625 25
102.148 732 27.0555
102.265 763 27.6225
102.382 850 29.1548
102.499 855 29.2404
102.616 933 30.545
102.733 889 29.8161
102.851 899 29.9833
102.968 899 29.9833
103.085 952 30.8545
103.202 949 30.8058
103.319 890 29.8329
103.436 891 29.8496
103.552 891 29.8496
103.669 831 28.8271
103.786 734 27.0924
103.903 706 26.5707
104.02 721 26.8514
104.137 775 27.8388
104.253 821 28.6531
104.37 910 30.1662
104.487 1004 31.686
104.603 981 31.3209
104.72 907 30.1164
104.836 875 29.5804
104.953 793 28.1603
105.069 736 27.1293
105.186 664 25.7682
105.302 649 25.4755
105.418 555 23.5584
105.535 592 24.3311
105.651 606 24.6171
105.767 601 24.5153
105.883 661 25.7099
105.999 572 23.9165
106.115 0 1
106.231 0 1
106.347 0 1
106.463 0 1
106.579 0 1
106.694 0 1
106.81 0 1
106.926 0 1
107.041 0 1
107.157 0 1
109.576 0 1
109.692 0 1
109.807 0 1
109.923 0 1
110.039 0 1
110.155 0 1
110.27 0 1
110.386 0 1
110.502 0 1
110.618 369 19.2094
110.735 470 21.6795
110.851 541 23.2594
110.967 594 24.3721
111.083 689 26.2488
111.199 725 26.9258
111.316 803 28.3373
111.432 811 28.4781
111.549 829 28.7924
111.665 849 29.1376
111.782 853 29.2062
111.898 842 29.0172
112.015 827 28.7576
112.132 762 27.6043
112.248 710 26.6458
112.365 651 25.5147
112.482 642 25.3377
112.599 698 26.4197
112.716 684 26.1534
112.832 759 27.55
112.949 794 28.178
113.066 790 28.1069
113.183 836 28.9137
113.3 834 28.8791
113.417 795 28.1957
113.534 805 28.3725
113.652 718 26.7955
113.769 700 26.4575
113.886 619 24.8797
114.003 578 24.0416
114.12 620 24.8998
114.238 679 26.0576
114.355 701 26.4764
114.472 781 27.9464
114.589 828 28.775
114.707 877 29.6142
114.824 760 27.5681
114.942 867 29.4449
115.059 816 28.5657
115.176 834 28.8791
115.294 845 29.0689
115.411 861 29.3428
115.529 863 29.3769
115.646 797 28.2312
115.764 723 26.8887
115.881 713 26.7021
115.999 722 26.8701
116.116 652 25.5343
116.234 711 26.6646
116.351 762 27.6043
116.469 821 28.6531
116.586 781 27.9464
116.704 871 29.5127
116.821 850 29.1548
116.939 841 29
117.056 777 27.8747
117.174 759 27.55
117.291 692 26.3059
117.409 644 25.3772
117.526 604 24.5764
117.644 631 25.1197
117.761 625 25
117.879 751 27.4044
117.996 758 27.5318
118.114 800 28.2843
118.231 831 28.8271
118.349 877 29.6142
118.466 857 29.2746
118.584 810 28.4605
118.701 865 29.4109
118.819 858 29.2916
118.936 794 28.178
119.053 790 28.1069
119.171 764 27.6405
119.288 808 28.4253
119.405 688 26.2298
119.523 624 24.98
119.64 660 25.6905
119.757 698 26.4197
119.875 669 25.865
119.992 704 26.533
120.109 747 27.3313
120.226 803 28.3373
120.343 812 28.4956
120.46 808 28.4253
120.578 841 29
120.695 788 28.0713
120.812 766 27.6767
120.929 696 26.3818
121.046 642 25.3377
121.163 621 24.9199
121.279 635 25.1992
121.396 636 25.219
121.513 623 24.96
121.63 668 25.8457
121.747 688 26.2298
121.863 692 26.3059
121.98 674 25.9615
122.097 683 26.1343
122.213 688 26.2298
122.33 635 25.1992
122.446 639 25.2784
122.563 618 24.8596
122.679 575 23.9792
122.795 551 23.4734
122.912 498 22.3159
123.028 437 20.9045
123.144 381 19.5192
123.26 340 18.4391
123.377 0 1
123.493 0 1
123.609 0 1
123.725 0 1
123.84 0 1
123.956 0 1
124.072 0 1
124.188 0 1
124.303 0 1
124.419 0 1
126.852 0 1
126.968 0 1
127.083 0 1
127.199 0 1
127.315 0 1
127.431 0 1
127.547 0 1
127.663 0 1
127.779 0 1
127.895 0 1
128.011 0 1
128.127 0 1
128.243 0 1
128.359 819 28.6182
128.476 819 28.6182
128.592 837 28.931
128.708 820 28.6356
128.825 789 28.0891
128.941 855 29.2404
129.058 881 29.6816
129.174 981 31.3209
129.291 1033 32.1403
129.408 1006 31.7175
129.524 980 31.305
129.641 1066 32.6497
129.758 969 31.1288
129.875 914 30.2324
129.992 921 30.348
130.108 847 29.1033
130.225 741 27.2213
130.342 780 27.9285
130.459 834 28.8791
130.576 844 29.0517
130.693 883 29.7153
130.81 917 30.282
130.928 957 30.9354
131.045 1038 32.218
131.162 1042 32.28
131.279 1035 32.1714
131.396 1077 32.8177
131.513 1071 32.7261
131.631 986 31.4006
131.748 984 31.3688
131.865 935 30.5778
131.983 946 30.7571
132.1 894 29.8998
132.217 829 28.7924
132.335 849 29.1376
132.452 910 30.1662
132.57 925 30.4138
132.687 1047 32.3574
132.804 935 30.5778
132.922 1046 32.3419
133.039 1007 31.7333
133.157 1041 32.2645
133.274 956 30.9192
133.392 981 31.3209
133.509 928 30.4631
133.627 859 29.3087
133.744 790 28.1069
133.862 852 29.189
133.979 793 28.1603
134.097 869 29.4788
134.214 887 29.7825
134.332 913 30.2159
134.449 946 30.7571
134.567 943 30.7083
134.684 1037 32.2025
134.802 979 31.289
134.919 1013 31.8277
135.037 1032 32.1248
135.154 979 31.289
135.272 915 30.249
135.389 942 30.692
135.507 939 30.6431
135.624 894 29.8998
135.742 885 29.7489
135.859 810 28.4605
135.977 860 29.3258
136.094 875 29.5804
136.211 899 29.9833
136.329 953 30.8707
136.446 977 31.257
136.564 1011 31.7962
136.681 979 31.289
136.798 1005 31.7017
136.915 950 30.8221
137.033 867 29.4449
137.15 865 29.4109
137.267 752 27.4226
137.384 735 27.1109
137.502 719 26.8142
137.619 740 27.2029
137.736 845 29.0689
137.853 882 29.6985
137.97 858 29.2916
138.087 822 28.6705
138.204 868 29.4618
138.321 960 30.9839
138.438 973 31.1929
138.555 897 29.95
138.672 965 31.0644
138.788 869 29.4788
138.905 849 29.1376
139.022 752 27.4226
139.139 743 27.258
139.255 694 26.3439
139.372 626 25.02
139.488 582 24.1247
139.605 601 24.5153
139.721 531 23.0434
139.838 596 24.4131
139.954 593 24.3516
140.071 529 23
140.187 550 23.4521
140.303 481 21.9317
140.419 435 20.8567
140.535 388 19.6977
140.652 400 20
140.768 0 1
140.884 0 1
141 0 1
141.115 0 1
141.231 0 1
141.347 0 1
141.463 0 1
141.578 0 1
141.694 0 1
144.104 0 1
144.219 0 1
144.335 0 1
144.45 0 1
144.566 0 1
144.682 0 1
144.798 0 1
144.914 0 1
145.03 0 1
145.146 680 26.0768
145.262 597 24.4336
145.378 667 25.8263
145.494 719 26.8142
145.61 696 26.3818
145.726 704 26.533
145.842 634 25.1794
145.959 599 24.4745
146.075 566 23.7908
146.192 548 23.4094
146.308 524 22.891
146.425 565 23.7697
146.541 550 23.4521
146.658 627 25.04
146.774 598 24.454
146.891 641 25.318
147.008 621 24.9199
147.125 627 25.04
147.241 655 25.593
147.358 671 25.9037
147.475 682 26.1151
147.592 675 25.9808
147.709 620 24.8998
147.826 670 25.8844
147.943 649 25.4755
148.06 594 24.3721
148.177 594 24.3721
148.294 569 23.8537
148.411 565 23.7697
148.528 595 24.3926
148.645 622 24.9399
148.762 627 25.04
148.88 689 26.2488
148.997 641 25.318
149.114 655 25.593
149.231 660 25.6905
149.349 631 25.1197
149.466 661 25.7099
149.583 634 25.1794
149.701 609 24.6779
149.818 554 23.5372
149.935 537 23.1733
150.053 527 22.9565
150.17 567 23.8118
150.287 573 23.9374
150.405 594 24.3721
150.522 598 24.454
150.64 641 25.318
150.757 658 25.6515
150.875 642 25.3377
150.992 622 24.9399
151.11 674 25.9615
151.227 603 24.5561
151.344 604 24.5764
151.462 597 24.4336
151.579 586 24.2074
151.697 596 24.4131
151.814 590 24.2899
151.932 561 23.6854
152.049 550 23.4521
152.167 571 23.8956
152.284 591 24.3105
152.402 607 24.6374
152.519 611 24.7184
152.636 625 25
152.754 634 25.1794
152.871 656 25.6125
152.989 604 24.5764
153.106 606 24.6171
153.223 589 24.2693
153.341 507 22.5167
153.458 503 22.4277
153.575 473 21.7486
153.693 542 23.2809
153.81 542 23.2809
153.927 521 22.8254
154.044 541 23.2594
154.162 623 24.96
154.279 648 25.4558
154.396 583 24.1454
154.513 600 24.4949
154.63 607 24.6374
154.747 618 24.8596
154.864 601 24.5153
154.981 603 24.5561
155.098 571 23.8956
155.215 568 23.8328
155.332 576 24
155.449 499 22.3383
155.566 527 22.9565
155.683 515 22.6936
155.8 519 22.7816
155.917 553 23.516
156.033 521 22.8254
156.15 0 1
156.267 0 1
156.383 0 1
156.5 0 1
156.617 0 1
156.733 0 1
156.85 0 1
156.966 0 1
157.082 0 1
157.199 0 1
157.315 0 1
157.431 0 1
157.547 0 1
157.664 0 1
157.78 0 1
157.896 0 1
158.012 0 1
158.128 0 1
158.244 0 1
158.359 0 1
158.475 0 1
158.591 0 1
158.706 0 1
