
6.15755 0 1
6.2731 0 1
6.3887 0 1
6.50437 0 1
6.62009 0 1
6.73587 0 1
6.8517 0 1
6.96759 0 1
7.08353 0 1
7.19952 0 1
7.31557 0 1
7.43166 0 1
7.54781 0 1
7.664 0 1
7.78024 0 1
7.89653 0 1
8.01286 0 1
8.12924 0 1
8.24567 0 1
8.36213 0 1
8.47864 0 1
8.59519 0 1
8.71178 0 1
8.82841 0 1
8.94508 0 1
9.06179 0 1
9.17853 0 1
9.29531 0 1
9.41212 0 1
9.52897 0 1
9.64584 0 1
9.76276 0 1
9.8797 0 1
9.99667 0 1
10.1137 0 1
10.2307 0 1
10.3478 0 1
10.4648 0 1
10.5819 0 1
10.6991 0 1
10.8162 0 1
10.9334 0 1
11.0506 0 1
11.1678 0 1
11.285 0 1
11.4023 0 1
11.5196 0 1
11.6369 0 1
11.7542 0 1
11.8715 0 1
11.9888 0 1
12.1062 0 1
12.2235 0 1
12.3409 0 1
12.4582 0 1
12.5756 0 1
12.693 0 1
12.8104 0 1
12.9278 0 1
13.0452 0 1
13.1626 0 1
13.28 0 1
13.3974 0 1
13.5149 0 1
13.6323 0 1
13.7497 0 1
13.8671 0 1
13.9845 0 1
14.1019 0 1
14.2193 0 1
14.3367 0 1
14.4541 0 1
14.5714 0 1
14.6888 0 1
14.8062 0 1
14.9235 0 1
15.0408 0 0
15.1581 0 0
15.2755 0 0
15.3927 0 0
15.51 0 0
15.6273 0 0
15.7445 0 0
15.8617 0 0
15.9789 0 0
16.0961 0 0
16.2132 0 0
16.3304 0 0
16.4475 0 0
16.5646 0 0
16.6816 0 0
16.7986 0 0
16.9156 0 0
17.0326 0 0
17.1496 0 0
17.2665 0 0
17.3833 0 0
17.5002 0 0
17.617 0 0
17.7338 0 0
17.8505 0 0
17.9672 0 0
18.0839 0 0
18.2005 0 0
18.3171 0 0
18.4337 0 0
18.5502 0 0
18.6666 0 0
18.7831 0 0
18.8994 0 0
19.0158 0 0
19.1321 0 0
19.2483 0 0
19.3645 0 0
19.4806 0 0
19.5967 0 0
19.7128 0 0
19.8288 0 0
19.9447 0 0
20.0606 0 1
20.1764 0 1
20.2922 0 1
20.4079 0 1
20.5236 0 1
20.6392 0 1
20.7548 0 1
20.8702 0 1
23.3078 0 1
23.4233 0 1
23.539 0 1
23.6547 0 1
23.7704 0 1
23.8862 0 1
24.0021 0 1
24.118 0 1
24.234 0 1
24.35 0 1
24.4661 1054 32.4654
24.5822 1062 32.5883
24.6984 1208 34.7563
24.8146 1068 32.6803
24.9309 1112 33.3467
25.0472 1218 34.8999
25.1636 1232 35.0999
25.28 1198 34.6121
25.3965 1227 35.0286
25.513 1190 34.4964
25.6296 1202 34.6699
25.7462 1189 34.4819
25.8628 1245 35.2846
25.9795 1124 33.5261
26.0962 1225 35
26.213 1236 35.1568
26.3298 1243 35.2562
26.4466 1255 35.426
26.5635 1208 34.7563
26.6804 1184 34.4093
26.7973 1188 34.4674
26.9143 1056 32.4962
27.0313 1061 32.573
27.1483 1043 32.2955
27.2653 1122 33.4963
27.3824 1187 34.4529
27.4996 1143 33.8083
27.6167 1183 34.3948
27.7339 1072 32.7414
27.8511 1057 32.5115
27.9683 1054 32.4654
28.0855 1070 32.7109
28.2028 1055 32.4808
28.3201 1061 32.573
28.4374 1107 33.2716
28.5547 1124 33.5261
28.6721 1142 33.7935
28.7894 1138 33.7343
28.9068 1211 34.7994
29.0242 1116 33.4066
29.1416 1161 34.0735
29.259 1202 34.6699
29.3764 1161 34.0735
29.4939 1223 34.9714
29.6113 1146 33.8526
29.7288 1139 33.7491
29.8463 1174 34.2637
29.9638 1193 34.5398
30.0812 1146 33.8526
30.1987 1173 34.2491
30.3162 1087 32.9697
30.4337 1028 32.0624
30.5512 973 31.1929
30.6687 1001 31.6386
30.7862 1012 31.8119
30.9037 1071 32.7261
31.0212 1023 31.9844
31.1387 1063 32.6037
31.2562 1051 32.4191
31.3737 999 31.607
31.4912 995 31.5436
31.6087 1037 32.2025
31.7262 964 31.0483
31.8436 1025 32.0156
31.9611 1044 32.311
32.0785 1019 31.9218
32.1959 1102 33.1964
32.3134 1061 32.573
32.4308 1136 33.7046
32.5482 1171 34.2199
32.6655 1166 34.1467
32.7829 1151 33.9264
32.9002 1110 33.3167
33.0176 1093 33.0606
33.1349 1118 33.4365
33.2522 1188 34.4674
33.3694 1105 33.2415
33.4867 1105 33.2415
33.6039 1144 33.8231
33.7211 1142 33.7935
33.8383 1092 33.0454
33.9554 1135 33.6898
34.0725 1066 32.6497
34.1896 928 30.4631
34.3067 1034 32.1559
34.4237 948 30.7896
34.5407 978 31.273
34.6577 965 31.0644
34.7746 1036 32.187
34.8915 1036 32.187
35.0084 1005 31.7017
35.1252 1003 31.6702
35.242 995 31.5436
35.3587 1067 32.665
35.4755 1056 32.4962
35.5921 1067 32.665
35.7088 1063 32.6037
35.8254 1080 32.8634
35.9419 1174 34.2637
36.0584 1114 33.3766
36.1749 1176 34.2929
36.2913 1064 32.619
36.4077 1100 33.1662
36.524 1059 32.5423
36.6403 1140 33.7639
36.7565 1164 34.1174
36.8727 1122 33.4963
36.9889 1109 33.3017
37.1049 1070 32.7109
37.221 0 1
37.3369 0 1
37.4529 0 1
37.5687 0 1
37.6845 0 1
37.8003 0 1
37.916 0 1
38.0316 0 1
38.1472 0 1
40.5851 0 1
40.7008 0 1
40.8164 0 1
40.9322 0 1
41.048 0 1
41.1639 0 1
41.2798 0 1
41.3958 0 1
41.5118 0 1
41.6279 0 1
41.744 905 30.0832
41.8602 882 29.6985
41.9765 853 29.2062
42.0928 874 29.5635
42.2091 904 30.0666
42.3255 886 29.7658
42.4419 951 30.8383
42.5584 949 30.8058
42.675 913 30.2159
42.7915 862 29.3598
42.9081 908 30.133
43.0248 809 28.4429
43.1415 731 27.037
43.2582 772 27.7849
43.375 826 28.7402
43.4918 884 29.7321
43.6087 856 29.2575
43.7256 867 29.4449
43.8425 787 28.0535
43.9595 746 27.313
44.0765 775 27.8388
44.1935 787 28.0535
44.3106 761 27.5862
44.4277 808 28.4253
44.5448 829 28.7924
44.6619 814 28.5307
44.7791 814 28.5307
44.8963 816 28.5657
45.0136 783 27.9821
45.1308 831 28.8271
45.2481 809 28.4429
45.3654 801 28.3019
45.4827 789 28.0891
45.6001 815 28.5482
45.7174 763 27.6225
45.8348 762 27.6043
45.9522 821 28.6531
46.0697 788 28.0713
46.1871 717 26.7769
46.3046 741 27.2213
46.422 738 27.1662
46.5395 717 26.7769
46.657 633 25.1595
46.7745 609 24.6779
46.892 628 25.0599
47.0096 624 24.98
47.1271 621 24.9199
47.2446 657 25.632
47.3622 643 25.3574
47.4797 629 25.0799
47.5973 618 24.8596
47.7149 610 24.6982
47.8324 585 24.1868
47.95 618 24.8596
48.0675 643 25.3574
48.1851 635 25.1992
48.3027 674 25.9615
48.4202 672 25.923
48.5378 627 25.04
48.6554 575 23.9792
48.7729 618 24.8596
48.8904 652 25.5343
49.008 634 25.1794
49.1255 669 25.865
49.243 608 24.6577
49.3605 677 26.0192
49.478 645 25.3969
49.5955 661 25.7099
49.713 650 25.4951
49.8304 653 25.5539
49.9479 688 26.2298
50.0653 657 25.632
50.1827 573 23.9374
50.3001 591 24.3105
50.4175 560 23.6643
50.5348 563 23.7276
50.6521 629 25.0799
50.7694 682 26.1151
50.8867 681 26.096
51.004 696 26.3818
51.1212 647 25.4362
51.2384 687 26.2107
51.3556 730 27.0185
51.4727 734 27.0924
51.5899 714 26.7208
51.707 771 27.7669
51.824 810 28.4605
51.9411 719 26.8142
52.0581 773 27.8029
52.175 863 29.3769
52.2919 774 27.8209
52.4088 839 28.9655
52.5257 847 29.1033
52.6425 809 28.4429
52.7593 852 29.189
52.876 904 30.0666
52.9927 896 29.9333
53.1094 872 29.5296
53.226 854 29.2233
53.3426 823 28.688
53.4591 808 28.4253
53.5756 880 29.6648
53.692 860 29.3258
53.8084 778 27.8927
53.9248 769 27.7308
54.0411 743 27.258
54.1573 765 27.6586
54.2735 0 1
54.3896 0 1
54.5057 0 1
54.6217 0 1
54.7377 0 1
54.8537 0 1
54.9695 0 1
55.0853 0 1
55.2011 0 1
55.3168 0 1
55.4324 0 1
57.824 0 1
57.9396 0 1
58.0553 0 1
58.1711 0 1
58.2869 0 1
58.4028 0 1
58.5187 0 1
58.6347 0 1
58.7508 0 1
58.8669 0 1
58.983 874 29.5635
59.0992 867 29.4449
59.2155 821 28.6531
59.3318 838 28.9482
59.4482 798 28.2489
59.5646 870 29.4958
59.681 902 30.0333
59.7975 899 29.9833
59.9141 894 29.8998
60.0306 947 30.7734
60.1473 951 30.8383
60.2639 897 29.95
60.3807 920 30.3315
60.4974 944 30.7246
60.6142 943 30.7083
60.731 928 30.4631
60.8479 919 30.315
60.9648 902 30.0333
61.0818 909 30.1496
61.1987 928 30.4631
61.3158 927 30.4467
61.4328 886 29.7658
61.5499 927 30.4467
61.667 861 29.3428
61.7841 828 28.775
61.9013 891 29.8496
62.0185 909 30.1496
62.1357 843 29.0345
62.253 924 30.3974
62.3702 821 28.6531
62.4875 790 28.1069
62.6049 755 27.4773
62.7222 727 26.9629
62.8396 750 27.3861
62.9569 806 28.3901
63.0743 752 27.4226
63.1918 792 28.1425
63.3092 809 28.4429
63.4267 820 28.6356
63.5441 809 28.4429
63.6616 886 29.7658
63.7791 823 28.688
63.8966 818 28.6007
64.0142 871 29.5127
64.1317 814 28.5307
64.2492 786 28.0357
64.3668 805 28.3725
64.4843 820 28.6356
64.6019 831 28.8271
64.7195 822 28.6705
64.837 772 27.7849
64.9546 775 27.8388
65.0722 756 27.4955
65.1898 775 27.8388
65.3074 761 27.5862
65.4249 768 27.7128
65.5425 733 27.074
65.6601 750 27.3861
65.7777 796 28.2135
65.8952 736 27.1293
66.0128 699 26.4386
66.1304 700 26.4575
66.2479 681 26.096
66.3655 629 25.0799
66.483 634 25.1794
66.6005 648 25.4558
66.718 612 24.7386
66.8355 615 24.7992
66.953 680 26.0768
67.0705 674 25.9615
67.1879 754 27.4591
67.3054 694 26.3439
67.4228 746 27.313
67.5402 671 25.9037
67.6576 702 26.4953
67.7749 713 26.7021
67.8923 687 26.2107
68.0096 708 26.6083
68.1269 714 26.7208
68.2442 672 25.923
68.3614 733 27.074
68.4787 695 26.3629
68.5958 683 26.1343
68.713 721 26.8514
68.8302 690 26.2679
68.9473 725 26.9258
69.0643 679 26.0576
69.1814 726 26.9444
69.2984 709 26.6271
69.4154 671 25.9037
69.5323 691 26.2869
69.6492 690 26.2679
69.7661 689 26.2488
69.8829 654 25.5734
69.9997 615 24.7992
70.1165 576 24
70.2332 622 24.9399
70.3499 607 24.6374
70.4665 653 25.5539
70.5831 679 26.0576
70.6996 647 25.4362
70.8161 629 25.0799
70.9326 656 25.6125
71.049 722 26.8701
71.1653 658 25.6515
71.2817 657 25.632
71.3979 604 24.5764
71.5141 634 25.1794
71.6303 568 23.8328
71.7464 560 23.6643
71.8624 0 1
71.9784 0 1
72.0944 0 1
72.2102 0 1
72.3261 0 1
72.4418 0 1
72.5575 0 1
72.6732 0 1
75.1054 0 1
75.2209 0 1
75.3365 0 1
75.4521 0 1
75.5678 0 1
75.6835 0 1
75.7993 0 1
75.9151 0 1
76.031 0 1
76.147 487 22.0681
76.263 488 22.0907
76.3791 507 22.5167
76.4952 484 22
76.6113 519 22.7816
76.7276 499 22.3383
76.8438 524 22.891
76.9601 503 22.4277
77.0765 474 21.7715
77.1929 502 22.4054
77.3093 474 21.7715
77.4258 493 22.2036
77.5423 473 21.7486
77.6589 466 21.587
77.7755 464 21.5407
77.8921 455 21.3307
78.0088 457 21.3776
78.1256 451 21.2368
78.2423 425 20.6155
78.3591 415 20.3715
78.4759 425 20.6155
78.5928 401 20.025
78.7097 407 20.1742
78.8266 418 20.445
78.9436 352 18.7617
79.0606 352 18.7617
79.1776 298 17.2627
79.2946 294 17.1464
79.4117 366 19.1311
79.5288 404 20.0998
79.6459 371 19.2614
79.7631 367 19.1572
79.8802 366 19.1311
79.9974 342 18.4932
80.1147 330 18.1659
80.2319 350 18.7083
80.3491 326 18.0555
80.4664 351 18.735
80.5837 319 17.8606
80.701 299 17.2916
80.8183 289 17
80.9357 317 17.8045
81.053 271 16.4621
81.1704 329 18.1384
81.2877 260 16.1245
81.4051 277 16.6433
81.5225 246 15.6844
81.6399 238 15.4272
81.7573 256 16
81.8747 218 14.7648
81.9922 226 15.0333
82.1096 220 14.8324
82.227 221 14.8661
82.3444 211 14.5258
82.4619 226 15.0333
82.5793 206 14.3527
82.6967 215 14.6629
82.8142 159 12.6095
82.9316 169 13
83.049 155 12.4499
83.1664 146 12.083
83.2838 166 12.8841
83.4012 142 11.9164
83.5186 131 11.4455
83.636 133 11.5326
83.7534 139 11.7898
83.8708 139 11.7898
83.9881 112 10.583
84.1055 113 10.6301
84.2228 111 10.5357
84.3401 113 10.6301
84.4575 120 10.9545
84.5747 105 10.247
84.692 93 9.64365
84.8093 113 10.6301
84.9265 97 9.84886
85.0437 91 9.53939
85.1609 93 9.64365
85.2781 91 9.53939
85.3952 83 9.11043
85.5123 97 9.84886
85.6294 101 10.0499
85.7465 115 10.7238
85.8636 94 9.69536
85.9806 83 9.11043
86.0976 89 9.43398
86.2145 76 8.7178
86.3315 80 8.94427
86.4484 115 10.7238
86.5652 131 11.4455
86.682 124 11.1355
86.7988 121 11
86.9156 123 11.0905
87.0323 131 11.4455
87.149 144 12
87.2657 136 11.6619
87.3823 143 11.9583
87.4988 147 12.1244
87.6154 151 12.2882
87.7318 156 12.49
87.8483 175 13.2288
87.9647 163 12.7671
88.081 168 12.9615
88.1973 168 12.9615
88.3136 185 13.6015
88.4298 209 14.4568
88.546 204 14.2829
88.6621 212 14.5602
88.7781 233 15.2643
88.8942 0 1
89.0101 0 1
89.126 0 1
89.2419 0 1
89.3577 0 1
89.4734 0 1
89.5891 0 1
89.7047 0 1
89.8203 0 1
89.9358 0 1
92.3269 0 1
92.4424 0 1
92.558 0 1
92.6736 0 1
92.7893 0 1
92.905 0 1
93.0208 0 1
93.1366 0 1
93.2525 0 1
93.3685 0 1
93.4845 0 1
93.6005 339 18.412
93.7167 328 18.1108
93.8328 318 17.8326
93.949 356 18.868
94.0653 304 17.4356
94.1816 338 18.3848
94.2979 307 17.5214
94.4143 294 17.1464
94.5307 289 17
94.6472 305 17.4642
94.7637 255 15.9687
94.8803 309 17.5784
94.9969 294 17.1464
95.1135 258 16.0624
95.2302 270 16.4317
95.3469 254 15.9374
95.4637 214 14.6287
95.5805 220 14.8324
95.6973 240 15.4919
95.8142 326 18.0555
95.9311 315 17.7482
96.048 340 18.4391
96.1649 340 18.4391
96.2819 344 18.5472
96.3989 358 18.9209
96.516 394 19.8494
96.633 354 18.8149
96.7501 384 19.5959
96.8673 402 20.0499
96.9844 382 19.5448
97.1016 379 19.4679
97.2188 399 19.975
97.336 417 20.4206
97.4532 404 20.0998
97.5704 452 21.2603
97.6877 460 21.4476
97.805 453 21.2838
97.9223 462 21.4942
98.0396 454 21.3073
98.1569 490 22.1359
98.2743 465 21.5639
98.3916 458 21.4009
98.509 507 22.5167
98.6264 454 21.3073
98.7438 469 21.6564
98.8612 465 21.5639
98.9786 491 22.1585
99.096 373 19.3132
99.2134 363 19.0526
99.3308 470 21.6795
99.4482 584 24.1661
99.5656 622 24.9399
99.6831 636 25.219
99.8005 580 24.0832
99.9179 596 24.4131
100.035 685 26.1725
100.153 614 24.779
100.27 638 25.2587
100.388 641 25.318
100.505 629 25.0799
100.622 623 24.96
100.74 698 26.4197
100.857 655 25.593
100.975 667 25.8263
101.092 649 25.4755
101.209 692 26.3059
101.327 619 24.8797
101.444 688 26.2298
101.561 737 27.1477
101.679 660 25.6905
101.796 692 26.3059
101.913 747 27.3313
102.03 717 26.7769
102.148 717 26.7769
102.265 745 27.2947
102.382 644 25.3772
102.499 628 25.0599
102.616 517 22.7376
102.733 508 22.5389
102.851 522 22.8473
102.968 689 26.2488
103.085 716 26.7582
103.202 732 27.0555
103.319 723 26.8887
103.436 713 26.7021
103.552 745 27.2947
103.669 701 26.4764
103.786 736 27.1293
103.903 715 26.7395
104.02 682 26.1151
104.137 733 27.074
104.253 765 27.6586
104.37 699 26.4386
104.487 767 27.6948
104.603 770 27.7489
104.72 745 27.2947
104.836 721 26.8514
104.953 804 28.3549
105.069 750 27.3861
105.186 808 28.4253
105.302 768 27.7128
105.418 744 27.2764
105.535 743 27.258
105.651 736 27.1293
105.767 731 27.037
105.883 767 27.6948
105.999 655 25.593
106.115 0 1
106.231 0 1
106.347 0 1
106.463 0 1
106.579 0 1
106.694 0 1
106.81 0 1
106.926 0 1
107.041 0 1
107.157 0 1
109.576 0 1
109.692 0 1
109.807 0 1
109.923 0 1
110.039 0 1
110.155 0 1
110.27 0 1
110.386 0 1
110.502 0 1
110.618 591 24.3105
110.735 628 25.0599
110.851 548 23.4094
110.967 574 23.9583
111.083 543 23.3024
111.199 495 22.2486
111.316 476 21.8174
111.432 531 23.0434
111.549 532 23.0651
111.665 590 24.2899
111.782 554 23.5372
111.898 587 24.2281
112.015 552 23.4947
112.132 514 22.6716
112.248 536 23.1517
112.365 528 22.9783
112.482 556 23.5797
112.599 534 23.1084
112.716 517 22.7376
112.832 496 22.2711
112.949 526 22.9347
113.066 462 21.4942
113.183 474 21.7715
113.3 487 22.0681
113.417 490 22.1359
113.534 482 21.9545
113.652 448 21.166
113.769 447 21.1424
113.886 447 21.1424
114.003 482 21.9545
114.12 451 21.2368
114.238 457 21.3776
114.355 435 20.8567
114.472 425 20.6155
114.589 400 20
114.707 425 20.6155
114.824 391 19.7737
114.942 381 19.5192
115.059 391 19.7737
115.176 425 20.6155
115.294 406 20.1494
115.411 434 20.8327
115.529 416 20.3961
115.646 419 20.4695
115.764 458 21.4009
115.881 437 20.9045
115.999 429 20.7123
116.116 414 20.347
116.234 457 21.3776
116.351 428 20.6882
116.469 409 20.2237
116.586 424 20.5913
116.704 438 20.9284
116.821 452 21.2603
116.939 432 20.7846
117.056 410 20.2485
117.174 422 20.5426
117.291 432 20.7846
117.409 439 20.9523
117.526 405 20.1246
117.644 434 20.8327
117.761 423 20.567
117.879 372 19.2873
117.996 353 18.7883
118.114 318 17.8326
118.231 380 19.4936
118.349 402 20.0499
118.466 438 20.9284
118.584 427 20.664
118.701 410 20.2485
118.819 463 21.5174
118.936 447 21.1424
119.053 455 21.3307
119.171 452 21.2603
119.288 484 22
119.405 436 20.8806
119.523 432 20.7846
119.64 470 21.6795
119.757 419 20.4695
119.875 432 20.7846
119.992 442 21.0238
120.109 417 20.4206
120.226 452 21.2603
120.343 444 21.0713
120.46 414 20.347
120.578 481 21.9317
120.695 456 21.3542
120.812 469 21.6564
120.929 440 20.9762
121.046 487 22.0681
121.163 453 21.2838
121.279 466 21.587
121.396 427 20.664
121.513 426 20.6398
121.63 384 19.5959
121.747 306 17.4929
121.863 340 18.4391
121.98 367 19.1572
122.097 397 19.9249
122.213 440 20.9762
122.33 457 21.3776
122.446 448 21.166
122.563 454 21.3073
122.679 443 21.0476
122.795 478 21.8632
122.912 464 21.5407
123.028 495 22.2486
123.144 483 21.9773
123.26 479 21.8861
123.377 0 1
123.493 0 1
123.609 0 1
123.725 0 1
123.84 0 1
123.956 0 1
124.072 0 1
124.188 0 1
124.303 0 1
124.419 0 1
126.852 0 1
126.968 0 1
127.083 0 1
127.199 0 1
127.315 0 1
127.431 0 1
127.547 0 1
127.663 0 1
127.779 0 1
127.895 0 1
128.011 0 1
128.127 0 1
128.243 0 1
128.359 605 24.5967
128.476 654 25.5734
128.592 613 24.7588
128.708 628 25.0599
128.825 601 24.5153
128.941 583 24.1454
129.058 631 25.1197
129.174 623 24.96
129.291 633 25.1595
129.408 618 24.8596
129.524 649 25.4755
129.641 620 24.8998
129.758 630 25.0998
129.875 648 25.4558
129.992 620 24.8998
130.108 597 24.4336
130.225 603 24.5561
130.342 567 23.8118
130.459 478 21.8632
130.576 458 21.4009
130.693 436 20.8806
130.81 461 21.4709
130.928 447 21.1424
131.045 537 23.1733
131.162 607 24.6374
131.279 631 25.1197
131.396 659 25.671
131.513 624 24.98
131.631 663 25.7488
131.748 662 25.7294
131.865 677 26.0192
131.983 611 24.7184
132.1 674 25.9615
132.217 622 24.9399
132.335 696 26.3818
132.452 664 25.7682
132.57 695 26.3629
132.687 666 25.807
132.804 633 25.1595
132.922 693 26.3249
133.039 681 26.096
133.157 628 25.0599
133.274 656 25.6125
133.392 644 25.3772
133.509 661 25.7099
133.627 678 26.0384
133.744 676 26
133.862 606 24.6171
133.979 580 24.0832
134.097 524 22.891
134.214 544 23.3238
134.332 493 22.2036
134.449 532 23.0651
134.567 518 22.7596
134.684 660 25.6905
134.802 661 25.7099
134.919 714 26.7208
135.037 728 26.9815
135.154 687 26.2107
135.272 700 26.4575
135.389 763 27.6225
135.507 724 26.9072
135.624 713 26.7021
135.742 749 27.3679
135.859 751 27.4044
135.977 727 26.9629
136.094 744 27.2764
136.211 738 27.1662
136.329 744 27.2764
136.446 783 27.9821
136.564 718 26.7955
136.681 754 27.4591
136.798 711 26.6646
136.915 716 26.7582
137.033 714 26.7208
137.15 740 27.2029
137.267 715 26.7395
137.384 671 25.9037
137.502 659 25.671
137.619 682 26.1151
137.736 588 24.2487
137.853 592 24.3311
137.97 584 24.1661
138.087 598 24.454
138.204 645 25.3969
138.321 672 25.923
138.438 702 26.4953
138.555 750 27.3861
138.672 769 27.7308
138.788 760 27.5681
138.905 807 28.4077
139.022 778 27.8927
139.139 787 28.0535
139.255 852 29.189
139.372 765 27.6586
139.488 833 28.8617
139.605 809 28.4429
139.721 828 28.775
139.838 833 28.8617
139.954 825 28.7228
140.071 798 28.2489
140.187 815 28.5482
140.303 812 28.4956
140.419 804 28.3549
140.535 796 28.2135
140.652 822 28.6705
140.768 0 1
140.884 0 1
141 0 1
141.115 0 1
141.231 0 1
141.347 0 1
141.463 0 1
141.578 0 1
141.694 0 1
144.104 0 1
144.219 0 1
144.335 0 1
144.45 0 1
144.566 0 1
144.682 0 1
144.798 0 1
144.914 0 1
145.03 0 1
145.146 711 26.6646
145.262 757 27.5136
145.378 775 27.8388
145.494 772 27.7849
145.61 832 28.8444
145.726 776 27.8568
145.842 787 28.0535
145.959 765 27.6586
146.075 738 27.1662
146.192 733 27.074
146.308 643 25.3574
146.425 626 25.02
146.541 619 24.8797
146.658 614 24.779
146.774 637 25.2389
146.891 679 26.0576
147.008 729 27
147.125 745 27.2947
147.241 762 27.6043
147.358 763 27.6225
147.475 827 28.7576
147.592 711 26.6646
147.709 787 28.0535
147.826 763 27.6225
147.943 779 27.9106
148.06 732 27.0555
148.177 796 28.2135
148.294 802 28.3196
148.411 765 27.6586
148.528 818 28.6007
148.645 792 28.1425
148.762 737 27.1477
148.88 759 27.55
148.997 751 27.4044
149.114 813 28.5132
149.231 799 28.2666
149.349 712 26.6833
149.466 718 26.7955
149.583 705 26.5518
149.701 707 26.5895
149.818 669 25.865
149.935 681 26.096
150.053 641 25.318
150.17 632 25.1396
150.287 639 25.2784
150.405 641 25.318
150.522 673 25.9422
150.64 683 26.1343
150.757 706 26.5707
150.875 708 26.6083
150.992 809 28.4429
151.11 779 27.9106
151.227 791 28.1247
151.344 796 28.2135
151.462 743 27.258
151.579 805 28.3725
151.697 799 28.2666
151.814 752 27.4226
151.932 833 28.8617
152.049 771 27.7669
152.167 792 28.1425
152.284 776 27.8568
152.402 844 29.0517
152.519 832 28.8444
152.636 792 28.1425
152.754 796 28.2135
152.871 810 28.4605
152.989 760 27.5681
153.106 756 27.4955
153.223 732 27.0555
153.341 701 26.4764
153.458 705 26.5518
153.575 642 25.3377
153.693 660 25.6905
153.81 702 26.4953
153.927 672 25.923
154.044 695 26.3629
154.162 744 27.2764
154.279 762 27.6043
154.396 755 27.4773
154.513 823 28.688
154.63 836 28.9137
154.747 812 28.4956
154.864 838 28.9482
154.981 821 28.6531
155.098 823 28.688
155.215 873 29.5466
155.332 868 29.4618
155.449 851 29.1719
155.566 839 28.9655
155.683 834 28.8791
155.8 837 28.931
155.917 807 28.4077
156.033 823 28.688
156.15 0 1
156.267 0 1
156.383 0 1
156.5 0 1
156.617 0 1
156.733 0 1
156.85 0 1
156.966 0 1
157.082 0 1
157.199 0 1
157.315 0 1
157.431 0 1
157.547 0 1
157.664 0 1
157.78 0 1
157.896 0 1
158.012 0 1
158.128 0 1
158.244 0 1
158.359 0 1
158.475 0 1
158.591 0 1
158.706 0 1
