
6.15755 0 1
6.2731 0 1
6.3887 0 1
6.50437 0 1
6.62009 0 1
6.73587 0 1
6.8517 0 1
6.96759 0 1
7.08353 0 1
7.19952 0 1
7.31557 0 1
7.43166 0 1
7.54781 0 1
7.664 0 1
7.78024 0 1
7.89653 0 1
8.01286 0 1
8.12924 0 1
8.24567 0 1
8.36213 0 1
8.47864 0 1
8.59519 0 1
8.71178 0 1
8.82841 0 1
8.94508 0 1
9.06179 0 1
9.17853 0 1
9.29531 0 1
9.41212 0 1
9.52897 0 1
9.64584 0 1
9.76276 0 1
9.8797 0 1
9.99667 0 1
10.1137 0 1
10.2307 0 1
10.3478 0 1
10.4648 0 1
10.5819 0 1
10.6991 0 1
10.8162 0 1
10.9334 0 1
11.0506 0 1
11.1678 0 1
11.285 0 1
11.4023 0 1
11.5196 0 1
11.6369 0 1
11.7542 0 1
11.8715 0 1
11.9888 0 1
12.1062 0 1
12.2235 0 1
12.3409 0 1
12.4582 0 1
12.5756 0 1
12.693 0 1
12.8104 0 1
12.9278 0 1
13.0452 0 1
13.1626 0 1
13.28 0 1
13.3974 0 1
13.5149 0 1
13.6323 0 1
13.7497 0 1
13.8671 0 1
13.9845 0 1
14.1019 0 1
14.2193 0 1
14.3367 0 1
14.4541 0 1
14.5714 0 1
14.6888 0 1
14.8062 0 1
14.9235 0 1
15.0408 0 0
15.1581 0 0
15.2755 0 0
15.3927 0 0
15.51 0 0
15.6273 0 0
15.7445 0 0
15.8617 0 0
15.9789 0 0
16.0961 0 0
16.2132 0 0
16.3304 0 0
16.4475 0 0
16.5646 0 0
16.6816 0 0
16.7986 0 0
16.9156 0 0
17.0326 0 0
17.1496 0 0
17.2665 0 0
17.3833 0 0
17.5002 0 0
17.617 0 0
17.7338 0 0
17.8505 0 0
17.9672 0 0
18.0839 0 0
18.2005 0 0
18.3171 0 0
18.4337 0 0
18.5502 0 0
18.6666 0 0
18.7831 0 0
18.8994 0 0
19.0158 0 0
19.1321 0 0
19.2483 0 0
19.3645 0 0
19.4806 0 0
19.5967 0 0
19.7128 0 0
19.8288 0 0
19.9447 0 0
20.0606 0 1
20.1764 0 1
20.2922 0 1
20.4079 0 1
20.5236 0 1
20.6392 0 1
20.7548 0 1
20.8702 0 1
23.3078 0 1
23.4233 0 1
23.539 0 1
23.6547 0 1
23.7704 0 1
23.8862 0 1
24.0021 0 1
24.118 0 1
24.234 0 1
24.35 0 1
24.4661 1434 37.8682
24.5822 1575 39.6863
24.6984 1682 41.0122
24.8146 1870 43.2435
24.9309 2175 46.6369
25.0472 2479 49.7896
25.1636 2713 52.0865
25.28 2837 53.2635
25.3965 2991 54.69
25.513 3049 55.2178
25.6296 2938 54.2033
25.7462 2890 53.7587
25.8628 2927 54.1018
25.9795 2908 53.9259
26.0962 3081 55.5068
26.213 3086 55.5518
26.3298 3096 55.6417
26.4466 3068 55.3895
26.5635 3140 56.0357
26.6804 3001 54.7814
26.7973 3013 54.8908
26.9143 2834 53.2353
27.0313 2838 53.2729
27.1483 2800 52.915
27.2653 2830 53.1977
27.3824 2722 52.1728
27.4996 2454 49.5379
27.6167 2400 48.9898
27.7339 2256 47.4974
27.8511 2593 50.9215
27.9683 2614 51.1273
28.0855 2842 53.3104
28.2028 2784 52.7636
28.3201 2753 52.469
28.4374 2691 51.8748
28.5547 2802 52.9339
28.6721 2756 52.4976
28.7894 2680 51.7687
28.9068 2769 52.6213
29.0242 2762 52.5547
29.1416 2815 53.0566
29.259 2799 52.9056
29.3764 2779 52.7162
29.4939 2619 51.1762
29.6113 2656 51.5364
29.7288 2624 51.225
29.8463 2563 50.6261
29.9638 2487 49.8698
30.0812 2659 51.5655
30.1987 2702 51.9808
30.3162 2645 51.4296
30.4337 2797 52.8867
30.5512 2788 52.8015
30.6687 2725 52.2015
30.7862 2748 52.4214
30.9037 2562 50.6162
31.0212 2580 50.7937
31.1387 2491 49.9099
31.2562 2559 50.5866
31.3737 2667 51.643
31.4912 2721 52.1632
31.6087 2845 53.3385
31.7262 2797 52.8867
31.8436 2847 53.3573
31.9611 2732 52.2685
32.0785 2684 51.8073
32.1959 2778 52.7067
32.3134 2602 51.0098
32.4308 2558 50.5767
32.5482 2501 50.01
32.6655 2547 50.4678
32.7829 2532 50.319
32.9002 2542 50.4183
33.0176 2399 48.9796
33.1349 2387 48.8569
33.2522 2357 48.5489
33.3694 2421 49.2037
33.4867 2396 48.949
33.6039 2384 48.8262
33.7211 2397 48.9592
33.8383 2505 50.05
33.9554 2453 49.5278
34.0725 2539 50.3885
34.1896 2619 51.1762
34.3067 2679 51.7591
34.4237 2652 51.4976
34.5407 2577 50.7642
34.6577 2467 49.6689
34.7746 2484 49.8397
34.8915 2430 49.295
35.0084 2648 51.4587
35.1252 2787 52.792
35.242 2735 52.2972
35.3587 2792 52.8394
35.4755 2523 50.2295
35.5921 2600 50.9902
35.7088 2519 50.1896
35.8254 2455 49.548
35.9419 2422 49.2138
36.0584 2231 47.2335
36.1749 2255 47.4868
36.2913 2247 47.4025
36.4077 2139 46.2493
36.524 2012 44.8553
36.6403 1777 42.1545
36.7565 1486 38.5487
36.8727 1426 37.7624
36.9889 1401 37.4299
37.1049 1302 36.0832
37.221 0 1
37.3369 0 1
37.4529 0 1
37.5687 0 1
37.6845 0 1
37.8003 0 1
37.916 0 1
38.0316 0 1
38.1472 0 1
40.5851 0 1
40.7008 0 1
40.8164 0 1
40.9322 0 1
41.048 0 1
41.1639 0 1
41.2798 0 1
41.3958 0 1
41.5118 0 1
41.6279 0 1
41.744 1056 32.4962
41.8602 1379 37.1349
41.9765 1578 39.724
42.0928 1692 41.1339
42.2091 1747 41.7971
42.3255 1770 42.0714
42.4419 1806 42.4971
42.5584 1832 42.8019
42.675 1941 44.0568
42.7915 1925 43.8748
42.9081 2092 45.7384
43.0248 2163 46.5081
43.1415 2172 46.6047
43.2582 2222 47.1381
43.375 2015 44.8888
43.4918 2074 45.5412
43.6087 1974 44.4297
43.7256 2084 45.6508
43.8425 2188 46.7761
43.9595 2231 47.2335
44.0765 2199 46.8935
44.1935 2127 46.1194
44.3106 2186 46.7547
44.4277 2141 46.2709
44.5448 2067 45.4643
44.6619 2063 45.4203
44.7791 2008 44.8107
44.8963 2050 45.2769
45.0136 1978 44.4747
45.1308 1913 43.7379
45.2481 1828 42.7551
45.3654 1801 42.4382
45.4827 1855 43.0697
45.6001 1754 41.8808
45.7174 1756 41.9047
45.8348 1801 42.4382
45.9522 1909 43.6921
46.0697 1947 44.1248
46.1871 2129 46.1411
46.3046 2113 45.9674
46.422 2040 45.1664
46.5395 2141 46.2709
46.657 2183 46.7226
46.7745 2205 46.9574
46.892 2101 45.8367
47.0096 2054 45.3211
47.1271 2061 45.3982
47.2446 2045 45.2217
47.3622 2165 46.5296
47.4797 2163 46.5081
47.5973 2190 46.7974
47.7149 2172 46.6047
47.8324 2109 45.9239
47.95 2120 46.0435
48.0675 2129 46.1411
48.1851 2138 46.2385
48.3027 2043 45.1996
48.4202 1997 44.6878
48.5378 2033 45.0888
48.6554 1884 43.4051
48.7729 1894 43.5201
48.8904 1901 43.6005
49.008 1858 43.1045
49.1255 1840 42.8952
49.243 1763 41.9881
49.3605 1821 42.6732
49.478 1803 42.4617
49.5955 1891 43.4856
49.713 1916 43.7721
49.8304 1945 44.1022
49.9479 1933 43.9659
50.0653 2057 45.3542
50.1827 2036 45.1221
50.3001 1979 44.486
50.4175 1856 43.0813
50.5348 1622 40.2741
50.6521 1701 41.2432
50.7694 1889 43.4626
50.8867 1909 43.6921
51.004 2015 44.8888
51.1212 2124 46.0869
51.2384 2090 45.7165
51.3556 2083 45.6399
51.4727 2056 45.3431
51.5899 2016 44.8999
51.707 2061 45.3982
51.824 1996 44.6766
51.9411 2002 44.7437
52.0581 1962 44.2945
52.175 1883 43.3935
52.2919 1858 43.1045
52.4088 1853 43.0465
52.5257 1793 42.3438
52.6425 1792 42.332
52.7593 1804 42.4735
52.876 1751 41.845
52.9927 1759 41.9404
53.1094 1747 41.7971
53.226 1784 42.2374
53.3426 1829 42.7668
53.4591 1787 42.2729
53.5756 1636 40.4475
53.692 1485 38.5357
53.8084 1297 36.0139
53.9248 1262 35.5246
54.0411 1211 34.7994
54.1573 1043 32.2955
54.2735 0 1
54.3896 0 1
54.5057 0 1
54.6217 0 1
54.7377 0 1
54.8537 0 1
54.9695 0 1
55.0853 0 1
55.2011 0 1
55.3168 0 1
55.4324 0 1
57.824 0 1
57.9396 0 1
58.0553 0 1
58.1711 0 1
58.2869 0 1
58.4028 0 1
58.5187 0 1
58.6347 0 1
58.7508 0 1
58.8669 0 1
58.983 1505 38.7943
59.0992 1630 40.3733
59.2155 1582 39.7744
59.3318 1675 40.9268
59.4482 1930 43.9318
59.5646 2073 45.5302
59.681 2094 45.7602
59.7975 2129 46.1411
59.9141 2227 47.1911
60.0306 2252 47.4552
60.1473 2276 47.7074
60.2639 2255 47.4868
60.3807 2279 47.7389
60.4974 2258 47.5184
60.6142 2184 46.7333
60.731 2281 47.7598
60.8479 2346 48.4355
60.9648 2383 48.816
61.0818 2341 48.3839
61.1987 2304 48
61.3158 2162 46.4973
61.4328 2084 45.6508
61.5499 2153 46.4004
61.667 2099 45.8148
61.7841 2052 45.299
61.9013 2104 45.8694
62.0185 2135 46.2061
62.1357 2185 46.744
62.253 2313 48.0937
62.3702 2274 47.6865
62.4875 2039 45.1553
62.6049 2049 45.2659
62.7222 1986 44.5646
62.8396 2093 45.7493
62.9569 2188 46.7761
63.0743 2154 46.4112
63.1918 2275 47.697
63.3092 2371 48.6929
63.4267 2317 48.1352
63.5441 2304 48
63.6616 2182 46.7119
63.7791 2158 46.4543
63.8966 2357 48.5489
64.0142 2227 47.1911
64.1317 2191 46.8081
64.2492 2238 47.3075
64.3668 2269 47.634
64.4843 2158 46.4543
64.6019 2201 46.9148
64.7195 2145 46.3141
64.837 2049 45.2659
64.9546 2045 45.2217
65.0722 2065 45.4423
65.1898 1997 44.6878
65.3074 2073 45.5302
65.4249 2123 46.076
65.5425 2032 45.0777
65.6601 2168 46.5618
65.7777 2112 45.9565
65.8952 2214 47.0532
66.0128 2114 45.9783
66.1304 1977 44.4635
66.2479 1829 42.7668
66.3655 1840 42.8952
66.483 2025 45
66.6005 2129 46.1411
66.718 2177 46.6583
66.8355 2279 47.7389
66.953 2300 47.9583
67.0705 2290 47.8539
67.1879 2262 47.5605
67.3054 2153 46.4004
67.4228 2190 46.7974
67.5402 2296 47.9166
67.6576 2093 45.7493
67.7749 2178 46.669
67.8923 2173 46.6154
68.0096 2136 46.2169
68.1269 2183 46.7226
68.2442 2131 46.1628
68.3614 2202 46.9255
68.4787 1994 44.6542
68.5958 2015 44.8888
68.713 2001 44.7325
68.8302 1958 44.2493
68.9473 1886 43.4281
69.0643 1927 43.8976
69.1814 1940 44.0454
69.2984 1991 44.6206
69.4154 2022 44.9667
69.5323 2078 45.5851
69.6492 1985 44.5533
69.7661 1909 43.6921
69.8829 1634 40.4228
69.9997 1672 40.8901
70.1165 1830 42.7785
70.2332 1849 43
70.3499 1756 41.9047
70.4665 1632 40.398
70.5831 1535 39.1791
70.6996 1526 39.064
70.8161 1412 37.5766
70.9326 1359 36.8646
71.049 1278 35.7491
71.1653 1240 35.2136
71.2817 1192 34.5254
71.3979 1119 33.4515
71.5141 1145 33.8378
71.6303 1087 32.9697
71.7464 1035 32.1714
71.8624 0 1
71.9784 0 1
72.0944 0 1
72.2102 0 1
72.3261 0 1
72.4418 0 1
72.5575 0 1
72.6732 0 1
75.1054 0 1
75.2209 0 1
75.3365 0 1
75.4521 0 1
75.5678 0 1
75.6835 0 1
75.7993 0 1
75.9151 0 1
76.031 0 1
76.147 1674 40.9145
76.263 1920 43.8178
76.3791 1838 42.8719
76.4952 1894 43.5201
76.6113 1858 43.1045
76.7276 1907 43.6692
76.8438 1929 43.9204
76.9601 1968 44.3621
77.0765 2014 44.8776
77.1929 2062 45.4093
77.3093 2007 44.7996
77.4258 2018 44.9222
77.5423 2046 45.2327
77.6589 1872 43.2666
77.7755 1897 43.5546
77.8921 1909 43.6921
78.0088 1899 43.5775
78.1256 1963 44.3058
78.2423 1986 44.5646
78.3591 2032 45.0777
78.4759 1975 44.441
78.5928 1938 44.0227
78.7097 1940 44.0454
78.8266 1793 42.3438
78.9436 1507 38.8201
79.0606 1527 39.0768
79.1776 1690 41.1096
79.2946 1989 44.5982
79.4117 2056 45.3431
79.5288 2180 46.6905
79.6459 2124 46.0869
79.7631 2106 45.8912
79.8802 2105 45.8803
79.9974 1990 44.6094
80.1147 1974 44.4297
80.2319 2017 44.911
80.3491 2073 45.5302
80.4664 2179 46.6798
80.5837 2069 45.4863
80.701 2147 46.3357
80.8183 2115 45.9891
80.9357 2183 46.7226
81.053 2261 47.55
81.1704 2173 46.6154
81.2877 2129 46.1411
81.4051 2114 45.9783
81.5225 2075 45.5522
81.6399 1945 44.1022
81.7573 2066 45.4533
81.8747 1931 43.9431
81.9922 2181 46.7012
82.1096 2175 46.6369
82.227 2089 45.7056
82.3444 1964 44.317
82.4619 1856 43.0813
82.5793 1710 41.3521
82.6967 1586 39.8246
82.8142 1752 41.8569
82.9316 2026 45.0111
83.049 2178 46.669
83.1664 2170 46.5833
83.2838 2244 47.3709
83.4012 2251 47.4447
83.5186 2232 47.244
83.636 2157 46.4435
83.7534 2197 46.8722
83.8708 2224 47.1593
83.9881 2217 47.085
84.1055 2232 47.244
84.2228 2295 47.9062
84.3401 2310 48.0625
84.4575 2310 48.0625
84.5747 2350 48.4768
84.692 2273 47.676
84.8093 2350 48.4768
84.9265 2184 46.7333
85.0437 2195 46.8508
85.1609 2202 46.9255
85.2781 2177 46.6583
85.3952 2304 48
85.5123 2245 47.3814
85.6294 2210 47.0106
85.7465 2138 46.2385
85.8636 2141 46.2709
85.9806 2043 45.1996
86.0976 1812 42.5676
86.2145 1711 41.3642
86.3315 1687 41.0731
86.4484 2018 44.9222
86.5652 2102 45.8476
86.682 2279 47.7389
86.7988 2182 46.7119
86.9156 2089 45.7056
87.0323 2180 46.6905
87.149 2123 46.076
87.2657 2202 46.9255
87.3823 2115 45.9891
87.4988 2175 46.6369
87.6154 2000 44.7214
87.7318 1852 43.0349
87.8483 1715 41.4126
87.9647 1729 41.5812
88.081 1720 41.4729
88.1973 1704 41.2795
88.3136 1633 40.4104
88.4298 1518 38.9615
88.546 1358 36.8511
88.6621 1412 37.5766
88.7781 1343 36.647
88.8942 0 1
89.0101 0 1
89.126 0 1
89.2419 0 1
89.3577 0 1
89.4734 0 1
89.5891 0 1
89.7047 0 1
89.8203 0 1
89.9358 0 1
92.3269 0 1
92.4424 0 1
92.558 0 1
92.6736 0 1
92.7893 0 1
92.905 0 1
93.0208 0 1
93.1366 0 1
93.2525 0 1
93.3685 0 1
93.4845 0 1
93.6005 2468 49.679
93.7167 2480 49.7996
93.8328 2411 49.1019
93.949 2358 48.5592
94.0653 2390 48.8876
94.1816 2463 49.6286
94.2979 2378 48.7647
94.4143 2479 49.7896
94.5307 2389 48.8774
94.6472 2533 50.3289
94.7637 2503 50.03
94.8803 2481 49.8096
94.9969 2201 46.9148
95.1135 2045 45.2217
95.2302 2019 44.9333
95.3469 2125 46.0977
95.4637 2367 48.6518
95.5805 2517 50.1697
95.6973 2691 51.8748
95.8142 2611 51.0979
95.9311 2592 50.9117
96.048 2577 50.7642
96.1649 2564 50.636
96.2819 2555 50.547
96.3989 2619 51.1762
96.516 2584 50.8331
96.633 2649 51.4684
96.7501 2634 51.3225
96.8673 2770 52.6308
96.9844 2844 53.3292
97.1016 2744 52.3832
97.2188 2733 52.2781
97.336 2684 51.8073
97.4532 2770 52.6308
97.5704 2680 51.7687
97.6877 2655 51.5267
97.805 2648 51.4587
97.9223 2789 52.811
98.0396 2789 52.811
98.1569 2644 51.4198
98.2743 2648 51.4587
98.3916 2631 51.2933
98.509 2429 49.2849
98.6264 2295 47.9062
98.7438 2190 46.7974
98.8612 2267 47.613
98.9786 2591 50.9019
99.096 2698 51.9423
99.2134 2731 52.259
99.3308 2658 51.5558
99.4482 2657 51.5461
99.5656 2679 51.7591
99.6831 2651 51.4879
99.8005 2623 51.2152
99.9179 2685 51.817
100.035 2588 50.8724
100.153 2670 51.672
100.27 2690 51.8652
100.388 2835 53.2447
100.505 2874 53.6097
100.622 2827 53.1695
100.74 3008 54.8452
100.857 2885 53.7122
100.975 2830 53.1977
101.092 2770 52.6308
101.209 2834 53.2353
101.327 2761 52.5452
101.444 2812 53.0283
101.561 2858 53.4603
101.679 2830 53.1977
101.796 2755 52.4881
101.913 2816 53.066
102.03 2706 52.0192
102.148 2538 50.3786
102.265 2259 47.5289
102.382 2375 48.734
102.499 2379 48.775
102.616 2658 51.5558
102.733 2695 51.9134
102.851 2744 52.3832
102.968 2723 52.1824
103.085 2688 51.8459
103.202 2579 50.7839
103.319 2619 51.1762
103.436 2636 51.342
103.552 2521 50.2096
103.669 2544 50.4381
103.786 2559 50.5866
103.903 2552 50.5173
104.02 2604 51.0294
104.137 2647 51.449
104.253 2633 51.3128
104.37 2571 50.705
104.487 2552 50.5173
104.603 2501 50.01
104.72 2494 49.94
104.836 2310 48.0625
104.953 2123 46.076
105.069 1969 44.3734
105.186 1641 40.5093
105.302 1643 40.5339
105.418 1452 38.1051
105.535 1434 37.8682
105.651 1263 35.5387
105.767 1009 31.7648
105.883 873 29.5466
105.999 836 28.9137
106.115 0 1
106.231 0 1
106.347 0 1
106.463 0 1
106.579 0 1
106.694 0 1
106.81 0 1
106.926 0 1
107.041 0 1
107.157 0 1
109.576 0 1
109.692 0 1
109.807 0 1
109.923 0 1
110.039 0 1
110.155 0 1
110.27 0 1
110.386 0 1
110.502 0 1
110.618 2587 50.8626
110.735 2748 52.4214
110.851 2778 52.7067
110.967 2446 49.4571
111.083 2417 49.163
111.199 2414 49.1325
111.316 2638 51.3615
111.432 2868 53.5537
111.549 2964 54.4426
111.665 2984 54.626
111.782 2882 53.6843
111.898 2937 54.1941
112.015 2794 52.8583
112.132 2840 53.2917
112.248 2867 53.5444
112.365 2781 52.7352
112.482 2734 52.2877
112.599 2998 54.754
112.716 3035 55.0908
112.832 3118 55.8391
112.949 3242 56.9386
113.066 3234 56.8683
113.183 3166 56.2672
113.3 3274 57.2189
113.417 3264 57.1314
113.534 3201 56.5774
113.652 3208 56.6392
113.769 3280 57.2713
113.886 3173 56.3294
114.003 3126 55.9106
114.12 3079 55.4887
114.238 3219 56.7362
114.355 3010 54.8635
114.472 2831 53.2071
114.589 2698 51.9423
114.707 2685 51.817
114.824 2781 52.7352
114.942 2926 54.0925
115.059 3041 55.1453
115.176 2962 54.4243
115.294 2904 53.8888
115.411 3008 54.8452
115.529 2995 54.7266
115.646 2964 54.4426
115.764 3010 54.8635
115.881 2919 54.0278
115.999 2911 53.9537
116.116 2903 53.8795
116.234 2993 54.7083
116.351 3107 55.7405
116.469 3140 56.0357
116.586 3363 57.9914
116.704 3190 56.4801
116.821 3361 57.9741
116.939 3466 58.8727
117.056 3360 57.9655
117.174 3386 58.1893
117.291 3299 57.4369
117.409 3156 56.1783
117.526 3247 56.9825
117.644 3268 57.1664
117.761 3306 57.4978
117.879 3192 56.4978
117.996 2841 53.301
118.114 2721 52.1632
118.231 2715 52.1057
118.349 2621 51.1957
118.466 2864 53.5164
118.584 3014 54.8999
118.701 3098 55.6597
118.819 3002 54.7905
118.936 2900 53.8516
119.053 2914 53.9815
119.171 2858 53.4603
119.288 2788 52.8015
119.405 2911 53.9537
119.523 2960 54.4059
119.64 2863 53.507
119.757 2792 52.8394
119.875 2877 53.6377
119.992 3078 55.4797
120.109 3153 56.1516
120.226 3108 55.7494
120.343 3095 55.6327
120.46 3182 56.4092
120.578 3032 55.0636
120.695 3072 55.4256
120.812 3055 55.2721
120.929 3022 54.9727
121.046 2790 52.8205
121.163 2946 54.2771
121.279 2923 54.0648
121.396 2957 54.3783
121.513 2804 52.9528
121.63 2706 52.0192
121.747 2629 51.2738
121.863 2278 47.7284
121.98 2294 47.8957
122.097 2070 45.4973
122.213 2129 46.1411
122.33 2153 46.4004
122.446 2146 46.3249
122.563 2066 45.4533
122.679 2027 45.0222
122.795 1879 43.3474
122.912 1925 43.8748
123.028 1811 42.5558
123.144 1737 41.6773
123.26 1699 41.2189
123.377 0 1
123.493 0 1
123.609 0 1
123.725 0 1
123.84 0 1
123.956 0 1
124.072 0 1
124.188 0 1
124.303 0 1
124.419 0 1
126.852 0 1
126.968 0 1
127.083 0 1
127.199 0 1
127.315 0 1
127.431 0 1
127.547 0 1
127.663 0 1
127.779 0 1
127.895 0 1
128.011 0 1
128.127 0 1
128.243 0 1
128.359 3329 57.6975
128.476 3443 58.6771
128.592 3507 59.2199
128.708 3447 58.7112
128.825 3523 59.3549
128.941 3507 59.2199
129.058 3536 59.4643
129.174 3633 60.2744
129.291 3572 59.7662
129.408 3768 61.384
129.524 3970 63.0079
129.641 3890 62.3699
129.758 4005 63.2851
129.875 4157 64.4748
129.992 4133 64.2884
130.108 4147 64.3972
130.225 4262 65.284
130.342 4268 65.3299
130.459 4098 64.0156
130.576 4234 65.0692
130.693 3864 62.1611
130.81 3728 61.0574
130.928 3730 61.0737
131.045 3812 61.7414
131.162 3877 62.2656
131.279 4032 63.498
131.396 3954 62.8808
131.513 4037 63.5374
131.631 3991 63.1744
131.748 4158 64.4826
131.865 3934 62.7216
131.983 3886 62.3378
132.1 3995 63.206
132.217 3843 61.9919
132.335 3844 62
132.452 3814 61.7576
132.57 3890 62.3699
132.687 3660 60.4979
132.804 4027 63.4586
132.922 3890 62.3699
133.039 3983 63.111
133.157 4003 63.2693
133.274 3975 63.0476
133.392 4154 64.4515
133.509 4352 65.9697
133.627 4422 66.4981
133.744 4390 66.2571
133.862 4475 66.8954
133.979 4491 67.0149
134.097 4436 66.6033
134.214 4399 66.325
134.332 4225 65
134.449 4189 64.7225
134.567 4070 63.7966
134.684 4293 65.521
134.802 4314 65.681
134.919 4360 66.0303
135.037 4511 67.164
135.154 4212 64.8999
135.272 4247 65.169
135.389 4201 64.8151
135.507 4133 64.2884
135.624 4192 64.7457
135.742 4104 64.0625
135.859 4057 63.6946
135.977 4013 63.3482
136.094 4064 63.7495
136.211 3965 62.9682
136.329 4023 63.4271
136.446 4133 64.2884
136.564 4078 63.8592
136.681 4097 64.0078
136.798 4267 65.3223
136.915 4173 64.5988
137.033 4217 64.9384
137.15 4156 64.467
137.267 4259 65.261
137.384 4358 66.0151
137.502 4330 65.8027
137.619 4315 65.6887
137.736 4320 65.7267
137.853 4015 63.364
137.97 4080 63.8749
138.087 3975 63.0476
138.204 4026 63.4508
138.321 4019 63.3956
138.438 4241 65.123
138.555 4103 64.0547
138.672 4177 64.6297
138.788 4003 63.2693
138.905 4020 63.4035
139.022 3960 62.9285
139.139 3735 61.1146
139.255 3584 59.8665
139.372 3471 58.9152
139.488 3244 56.9561
139.605 3197 56.542
139.721 3105 55.7225
139.838 3086 55.5518
139.954 3015 54.909
140.071 2714 52.0961
140.187 2808 52.9906
140.303 2738 52.3259
140.419 2724 52.192
140.535 2748 52.4214
140.652 2810 53.0094
140.768 0 1
140.884 0 1
141 0 1
141.115 0 1
141.231 0 1
141.347 0 1
141.463 0 1
141.578 0 1
141.694 0 1
144.104 0 1
144.219 0 1
144.335 0 1
144.45 0 1
144.566 0 1
144.682 0 1
144.798 0 1
144.914 0 1
145.03 0 1
145.146 4041 63.5689
145.262 4151 64.4283
145.378 4046 63.6082
145.494 4223 64.9846
145.61 4204 64.8383
145.726 4333 65.8255
145.842 4161 64.5058
145.959 4313 65.6734
146.075 4196 64.7765
146.192 4290 65.4981
146.308 4070 63.7966
146.425 4302 65.5896
146.541 4071 63.8044
146.658 3897 62.426
146.774 3735 61.1146
146.891 3527 59.3886
147.008 3650 60.4152
147.125 3702 60.8441
147.241 3927 62.6658
147.358 3983 63.111
147.475 4095 63.9922
147.592 4030 63.4823
147.709 4090 63.9531
147.826 4223 64.9846
147.943 4093 63.9766
148.06 4181 64.6607
148.177 4167 64.5523
148.294 4293 65.521
148.411 4268 65.3299
148.528 4358 66.0151
148.645 4268 65.3299
148.762 4324 65.7571
148.88 4349 65.9469
148.997 4251 65.1997
149.114 4554 67.4833
149.231 4461 66.7907
149.349 4544 67.4092
149.466 4518 67.2161
149.583 4568 67.587
149.701 4396 66.3023
149.818 4404 66.3626
149.935 4433 66.5808
150.053 4295 65.5362
150.17 4345 65.9166
150.287 4005 63.2851
150.405 3787 61.5386
150.522 3639 60.3241
150.64 3528 59.397
150.757 3566 59.716
150.875 3525 59.3717
150.992 3613 60.1082
151.11 3460 58.8218
151.227 3577 59.808
151.344 3340 57.7927
151.462 3366 58.0172
151.579 3310 57.5326
151.697 3351 57.8878
151.814 3428 58.5491
151.932 3409 58.3866
152.049 3322 57.6368
152.167 3482 59.0085
152.284 3377 58.112
152.402 3524 59.3633
152.519 3552 59.5987
152.636 3595 59.9583
152.754 3756 61.2862
152.871 3640 60.3324
152.989 3731 61.0819
153.106 3923 62.6339
153.223 3870 62.2093
153.341 3913 62.554
153.458 3943 62.7933
153.575 4088 63.9375
153.693 3888 62.3538
153.81 4040 63.561
153.927 3827 61.8628
154.044 3741 61.1637
154.162 3616 60.1332
154.279 3641 60.3407
154.396 3751 61.2454
154.513 3825 61.8466
154.63 3982 63.1031
154.747 3967 62.9841
154.864 3840 61.9677
154.981 3721 61
155.098 3614 60.1166
155.215 3328 57.6888
155.332 3313 57.5587
155.449 3279 57.2626
155.566 3022 54.9727
155.683 2991 54.69
155.8 2777 52.6972
155.917 2607 51.0588
156.033 2498 49.98
156.15 0 1
156.267 0 1
156.383 0 1
156.5 0 1
156.617 0 1
156.733 0 1
156.85 0 1
156.966 0 1
157.082 0 1
157.199 0 1
157.315 0 1
157.431 0 1
157.547 0 1
157.664 0 1
157.78 0 1
157.896 0 1
158.012 0 1
158.128 0 1
158.244 0 1
158.359 0 1
158.475 0 1
158.591 0 1
158.706 0 1
