
6.15755 0 1
6.2731 0 1
6.3887 0 1
6.50437 0 1
6.62009 0 1
6.73587 0 1
6.8517 0 1
6.96759 0 1
7.08353 0 1
7.19952 0 1
7.31557 0 1
7.43166 0 1
7.54781 0 1
7.664 0 1
7.78024 0 1
7.89653 0 1
8.01286 0 1
8.12924 0 1
8.24567 0 1
8.36213 0 1
8.47864 0 1
8.59519 0 1
8.71178 0 1
8.82841 0 1
8.94508 0 1
9.06179 0 1
9.17853 0 1
9.29531 0 1
9.41212 0 1
9.52897 0 1
9.64584 0 1
9.76276 0 1
9.8797 0 1
9.99667 0 1
10.1137 0 1
10.2307 0 1
10.3478 0 1
10.4648 0 1
10.5819 0 1
10.6991 0 1
10.8162 0 1
10.9334 0 1
11.0506 0 1
11.1678 0 1
11.285 0 1
11.4023 0 1
11.5196 0 1
11.6369 0 1
11.7542 0 1
11.8715 0 1
11.9888 0 1
12.1062 0 1
12.2235 0 1
12.3409 0 1
12.4582 0 1
12.5756 0 1
12.693 0 1
12.8104 0 1
12.9278 0 1
13.0452 0 1
13.1626 0 1
13.28 0 1
13.3974 0 1
13.5149 0 1
13.6323 0 1
13.7497 0 1
13.8671 0 1
13.9845 0 1
14.1019 0 1
14.2193 0 1
14.3367 0 1
14.4541 0 1
14.5714 0 1
14.6888 0 1
14.8062 0 1
14.9235 0 1
15.0408 0 0
15.1581 0 0
15.2755 0 0
15.3927 0 0
15.51 0 0
15.6273 0 0
15.7445 0 0
15.8617 0 0
15.9789 0 0
16.0961 0 0
16.2132 0 0
16.3304 0 0
16.4475 0 0
16.5646 0 0
16.6816 0 0
16.7986 0 0
16.9156 0 0
17.0326 0 0
17.1496 0 0
17.2665 0 0
17.3833 0 0
17.5002 0 0
17.617 0 0
17.7338 0 0
17.8505 0 0
17.9672 0 0
18.0839 0 0
18.2005 0 0
18.3171 0 0
18.4337 0 0
18.5502 0 0
18.6666 0 0
18.7831 0 0
18.8994 0 0
19.0158 0 0
19.1321 0 0
19.2483 0 0
19.3645 0 0
19.4806 0 0
19.5967 0 0
19.7128 0 0
19.8288 0 0
19.9447 0 0
20.0606 0 1
20.1764 0 1
20.2922 0 1
20.4079 0 1
20.5236 0 1
20.6392 0 1
20.7548 0 1
20.8702 0 1
23.3078 0 1
23.4233 0 1
23.539 0 1
23.6547 0 1
23.7704 0 1
23.8862 0 1
24.0021 0 1
24.118 0 1
24.234 0 1
24.35 0 1
24.4661 32240 179.555
24.5822 32529 180.358
24.6984 32476 180.211
24.8146 32696 180.82
24.9309 32554 180.427
25.0472 30711 175.246
25.1636 28737 169.52
25.28 28468 168.725
25.3965 29032 170.388
25.513 29678 172.273
25.6296 31754 178.197
25.7462 34138 184.765
25.8628 35068 187.265
25.9795 35431 188.231
26.0962 35636 188.775
26.213 35542 188.526
26.3298 35007 187.102
26.4466 34595 185.997
26.5635 33474 182.959
26.6804 32866 181.29
26.7973 32659 180.718
26.9143 33494 183.014
27.0313 33396 182.746
27.1483 33823 183.91
27.2653 35338 187.984
27.3824 35321 187.939
27.4996 35215 187.657
27.6167 35274 187.814
27.7339 34795 186.534
27.8511 34241 185.043
27.9683 33799 183.845
28.0855 33633 183.393
28.2028 33738 183.679
28.3201 32909 181.408
28.4374 32453 180.147
28.5547 30576 174.86
28.6721 28708 169.434
28.7894 28264 168.119
28.9068 28189 167.896
29.0242 28194 167.911
29.1416 28991 170.267
29.259 31106 176.369
29.3764 33232 182.296
29.4939 33915 184.16
29.6113 33807 183.867
29.7288 33884 184.076
29.8463 34119 184.713
29.9638 32982 181.609
30.0812 31934 178.701
30.1987 31707 178.065
30.3162 30971 175.986
30.4337 31713 178.081
30.5512 32003 178.894
30.6687 32817 181.155
30.7862 33840 183.957
30.9037 34135 184.757
31.0212 34824 186.612
31.1387 34257 185.086
31.2562 34610 186.038
31.3737 34443 185.588
31.4912 33789 183.818
31.6087 33830 183.929
31.7262 34037 184.491
31.8436 33715 183.616
31.9611 32726 180.903
32.0785 30743 175.337
32.1959 28569 169.024
32.3134 28167 167.83
32.4308 27967 167.233
32.5482 28395 168.508
32.6655 29885 172.873
32.7829 31762 178.219
32.9002 33132 182.022
33.0176 33318 182.532
33.1349 33831 183.932
33.2522 33696 183.565
33.3694 33635 183.398
33.4867 33767 183.758
33.6039 32701 180.834
33.7211 31626 177.837
33.8383 30618 174.98
33.9554 30405 174.37
34.0725 30139 173.606
34.1896 31090 176.324
34.3067 32157 179.324
34.4237 32652 180.699
34.5407 33300 182.483
34.6577 34060 184.554
34.7746 34637 186.11
34.8915 34044 184.51
35.0084 33699 183.573
35.1252 33533 183.12
35.242 33586 183.265
35.3587 33568 183.216
35.4755 33255 182.36
35.5921 32621 180.613
35.7088 31259 176.802
35.8254 28698 169.405
35.9419 27308 165.251
36.0584 27079 164.557
36.1749 27047 164.46
36.2913 27227 165.006
36.4077 28639 169.231
36.524 30584 174.883
36.6403 31459 177.367
36.7565 32023 178.95
36.8727 32422 180.061
36.9889 32434 180.094
37.1049 31618 177.815
37.221 0 1
37.3369 0 1
37.4529 0 1
37.5687 0 1
37.6845 0 1
37.8003 0 1
37.916 0 1
38.0316 0 1
38.1472 0 1
40.5851 0 1
40.7008 0 1
40.8164 0 1
40.9322 0 1
41.048 0 1
41.1639 0 1
41.2798 0 1
41.3958 0 1
41.5118 0 1
41.6279 0 1
41.744 24192 155.538
41.8602 25417 159.427
41.9765 26073 161.471
42.0928 26792 163.683
42.2091 27056 164.487
42.3255 26876 163.939
42.4419 25698 160.306
42.5584 24280 155.82
42.675 23163 152.194
42.7915 22779 150.927
42.9081 23151 152.155
43.0248 24049 155.077
43.1415 24620 156.908
43.2582 25779 160.558
43.375 26583 163.043
43.4918 26651 163.251
43.6087 26377 162.41
43.7256 26028 161.332
43.8425 25992 161.22
43.9595 25930 161.028
44.0765 25389 159.339
44.1935 25698 160.306
44.3106 24837 157.598
44.4277 24148 155.396
44.5448 22160 148.862
44.6619 20108 141.803
44.7791 19515 139.696
44.8963 19282 138.86
45.0136 19336 139.054
45.1308 20013 141.467
45.2481 21033 145.028
45.3654 21310 145.979
45.4827 21662 147.18
45.6001 21728 147.404
45.7174 21428 146.383
45.8348 21298 145.938
45.9522 20576 143.443
46.0697 18903 137.488
46.1871 17753 133.24
46.3046 16833 129.742
46.422 16682 129.159
46.5395 18089 134.495
46.657 18564 136.25
46.7745 19437 139.417
46.892 19682 140.293
47.0096 20170 142.021
47.1271 20113 141.82
47.2446 20407 142.853
47.3622 20043 141.573
47.4797 19716 140.414
47.5973 19465 139.517
47.7149 19217 138.625
47.8324 18735 136.876
47.95 18409 135.68
48.0675 17237 131.29
48.1851 15959 126.329
48.3027 15255 123.511
48.4202 15026 122.581
48.5378 15515 124.559
48.6554 15981 126.416
48.7729 17136 130.905
48.8904 17439 132.057
49.008 17588 132.62
49.1255 17846 133.589
49.243 17715 133.098
49.3605 17427 132.011
49.478 16351 127.871
49.5955 15378 124.008
49.713 14286 119.524
49.8304 13487 116.134
49.9479 14031 118.453
50.0653 15389 124.052
50.1827 16657 129.062
50.3001 17653 132.865
50.4175 18672 136.646
50.5348 19198 138.557
50.6521 19524 139.728
50.7694 20177 142.046
50.8867 20669 143.767
51.004 20691 143.844
51.1212 20862 144.437
51.2384 21331 146.051
51.3556 21484 146.574
51.4727 20758 144.076
51.5899 19935 141.191
51.707 18831 137.226
51.824 18684 136.689
51.9411 19317 138.986
52.0581 20020 141.492
52.175 21843 147.794
52.2919 22870 151.228
52.4088 23231 152.417
52.5257 23515 153.346
52.6425 23829 154.366
52.7593 23891 154.567
52.876 24386 156.16
52.9927 23698 153.942
53.1094 22006 148.344
53.226 20786 144.174
53.3426 20082 141.711
53.4591 19728 140.456
53.5756 20784 144.167
53.692 23182 152.256
53.8084 24131 155.342
53.9248 25337 159.176
54.0411 25992 161.22
54.1573 26572 163.009
54.2735 0 1
54.3896 0 1
54.5057 0 1
54.6217 0 1
54.7377 0 1
54.8537 0 1
54.9695 0 1
55.0853 0 1
55.2011 0 1
55.3168 0 1
55.4324 0 1
57.824 0 1
57.9396 0 1
58.0553 0 1
58.1711 0 1
58.2869 0 1
58.4028 0 1
58.5187 0 1
58.6347 0 1
58.7508 0 1
58.8669 0 1
58.983 27486 165.789
59.0992 29232 170.974
59.2155 30632 175.02
59.3318 31437 177.305
59.4482 31785 178.283
59.5646 32245 179.569
59.681 32400 180
59.7975 31738 178.152
59.9141 31109 176.377
60.0306 30144 173.62
60.1473 28590 169.086
60.2639 27432 165.626
60.3807 25683 160.259
60.4974 25568 159.9
60.6142 26093 161.533
60.731 26833 163.808
60.8479 27167 164.824
60.9648 28150 167.78
61.0818 27959 167.209
61.1987 28333 168.324
61.3158 28252 168.083
61.4328 28275 168.152
61.5499 26786 163.664
61.667 24966 158.006
61.7841 23836 154.389
61.9013 22790 150.964
62.0185 23104 152
62.1357 24417 156.259
62.253 26670 163.31
62.3702 27729 166.52
62.4875 29760 172.511
62.6049 30977 176.003
62.7222 32150 179.304
62.8396 33136 182.033
62.9569 33776 183.782
63.0743 34297 185.194
63.1918 34021 184.448
63.3092 33488 182.997
63.4267 33223 182.272
63.5441 32298 179.716
63.6616 30427 174.433
63.7791 29090 170.558
63.8966 28311 168.259
64.0142 28622 169.18
64.1317 29388 171.429
64.2492 30517 174.691
64.3668 31286 176.878
64.4843 31648 177.899
64.6019 32010 178.913
64.7195 32427 180.075
64.837 32079 179.106
64.9546 31926 178.678
65.0722 30604 174.94
65.1898 27752 166.589
65.3074 26112 161.592
65.4249 23581 153.561
65.5425 22957 151.516
65.6601 24435 156.317
65.7777 26181 161.805
65.8952 28476 168.748
66.0128 30640 175.043
66.1304 31573 177.688
66.2479 33005 181.673
66.3655 33825 183.916
66.483 34004 184.402
66.6005 34255 185.081
66.718 34208 184.954
66.8355 33889 184.09
66.953 33224 182.275
67.0705 31689 178.014
67.1879 30484 174.597
67.3054 28510 168.849
67.4228 27110 164.651
67.5402 26585 163.049
67.6576 26848 163.854
67.7749 26742 163.53
67.8923 28050 167.481
68.0096 27657 166.304
68.1269 27687 166.394
68.2442 27555 165.997
68.3614 27796 166.721
68.4787 27990 167.302
68.5958 27073 164.539
68.713 25925 161.012
68.8302 23433 153.078
68.9473 21096 145.245
69.0643 19622 140.079
69.1814 19074 138.109
69.2984 20511 143.217
69.4154 22440 149.8
69.5323 24353 156.054
69.6492 26204 161.876
69.7661 28011 167.365
69.8829 29114 170.628
69.9997 30013 173.243
70.1165 30027 173.283
70.2332 29924 172.986
70.3499 30360 174.241
70.4665 30033 173.3
70.5831 29602 172.052
70.6996 28233 168.027
70.8161 26888 163.976
70.9326 24951 157.959
71.049 23821 154.341
71.1653 23446 153.121
71.2817 22798 150.99
71.3979 23780 154.208
71.5141 24062 155.119
71.6303 23649 153.782
71.7464 22041 148.462
71.8624 0 1
71.9784 0 1
72.0944 0 1
72.2102 0 1
72.3261 0 1
72.4418 0 1
72.5575 0 1
72.6732 0 1
75.1054 0 1
75.2209 0 1
75.3365 0 1
75.4521 0 1
75.5678 0 1
75.6835 0 1
75.7993 0 1
75.9151 0 1
76.031 0 1
76.147 23895 154.58
76.263 24167 155.457
76.3791 23604 153.636
76.4952 23601 153.626
76.6113 24075 155.161
76.7276 24895 157.781
76.8438 25047 158.262
76.9601 25323 159.132
77.0765 25535 159.797
77.1929 25479 159.621
77.3093 26132 161.654
77.4258 26736 163.511
77.5423 26541 162.914
77.6589 24970 158.019
77.7755 22111 148.698
77.8921 19784 140.656
78.0088 18386 135.595
78.1256 17338 131.674
78.2423 16797 129.603
78.3591 18496 136
78.4759 21422 146.363
78.5928 23546 153.447
78.7097 25504 159.7
78.8266 26125 161.632
78.9436 28813 169.744
79.0606 28016 167.38
79.1776 28409 168.55
79.2946 28183 167.878
79.4117 28165 167.824
79.5288 27887 166.994
79.6459 27284 165.179
79.7631 25370 159.28
79.8802 23811 154.308
79.9974 22727 150.755
80.1147 22370 149.566
80.2319 22882 151.268
80.3491 23335 152.758
80.4664 23311 152.679
80.5837 23454 153.147
80.701 23374 152.886
80.8183 23159 152.181
80.9357 23767 154.165
81.053 24245 155.708
81.1704 23812 154.311
81.2877 23070 151.888
81.4051 20987 144.869
81.5225 17923 133.877
81.6399 16541 128.612
81.7573 15128 122.996
81.8747 14454 120.225
81.9922 15815 125.758
82.1096 19436 139.413
82.227 21356 146.137
82.3444 22726 150.751
82.4619 24045 155.065
82.5793 25032 158.215
82.6967 24667 157.057
82.8142 25303 159.069
82.9316 25458 159.556
83.049 25154 158.6
83.1664 24685 157.115
83.2838 23373 152.882
83.4012 21664 147.187
83.5186 20608 143.555
83.636 20342 142.625
83.7534 20474 143.087
83.8708 20953 144.752
83.9881 21381 146.222
84.1055 21484 146.574
84.2228 21785 147.597
84.3401 21953 148.165
84.4575 21736 147.431
84.5747 22479 149.93
84.692 22927 151.417
84.8093 22322 149.405
84.9265 19903 141.078
85.0437 17129 130.878
85.1609 15560 124.74
85.2781 14039 118.486
85.3952 13592 116.585
85.5123 14526 120.524
85.6294 17760 133.267
85.7465 20796 144.208
85.8636 22921 151.397
85.9806 24044 155.061
86.0976 25076 158.354
86.2145 26100 161.555
86.3315 27475 165.756
86.4484 26282 162.117
86.5652 27071 164.533
86.682 27167 164.824
86.7988 26423 162.552
86.9156 25146 158.575
87.0323 23959 154.787
87.149 23463 153.176
87.2657 23559 153.489
87.3823 24187 155.522
87.4988 24355 156.061
87.6154 24639 156.968
87.7318 24777 157.407
87.8483 24429 156.298
87.9647 24925 157.877
88.081 25544 159.825
88.1973 26194 161.846
88.3136 26132 161.654
88.4298 24422 156.275
88.546 21085 145.207
88.6621 18914 137.528
88.7781 16644 129.012
88.8942 0 1
89.0101 0 1
89.126 0 1
89.2419 0 1
89.3577 0 1
89.4734 0 1
89.5891 0 1
89.7047 0 1
89.8203 0 1
89.9358 0 1
92.3269 0 1
92.4424 0 1
92.558 0 1
92.6736 0 1
92.7893 0 1
92.905 0 1
93.0208 0 1
93.1366 0 1
93.2525 0 1
93.3685 0 1
93.4845 0 1
93.6005 25802 160.63
93.7167 26025 161.323
93.8328 25452 159.537
93.949 23725 154.029
94.0653 21224 145.685
94.1816 18902 137.485
94.2979 17251 131.343
94.4143 16215 127.338
94.5307 16566 128.709
94.6472 18935 137.605
94.7637 21638 147.099
94.8803 24753 157.331
94.9969 26580 163.034
95.1135 27957 167.203
95.2302 28882 169.947
95.3469 29322 171.237
95.4637 29753 172.491
95.5805 29941 173.035
95.6973 30430 174.442
95.8142 30211 173.813
95.9311 29688 172.302
96.048 28377 168.455
96.1649 27716 166.481
96.2819 27431 165.623
96.3989 27523 165.901
96.516 27462 165.717
96.633 27394 165.511
96.7501 27599 166.129
96.8673 27450 165.68
96.9844 27552 165.988
97.1016 27605 166.148
97.2188 27802 166.739
97.336 28386 168.481
97.4532 27819 166.79
97.5704 26597 163.086
97.6877 23395 152.954
97.805 19556 139.843
97.9223 17588 132.62
98.0396 16266 127.538
98.1569 16226 127.381
98.2743 17388 131.864
98.3916 21239 145.736
98.509 24798 157.474
98.6264 27009 164.344
98.7438 28726 169.487
98.8612 29663 172.229
98.9786 30538 174.751
99.096 30772 175.419
99.2134 31049 176.207
99.3308 31435 177.299
99.4482 30923 175.849
99.5656 30655 175.086
99.6831 29301 171.175
99.8005 28681 169.355
99.9179 28676 169.34
100.035 28470 168.731
100.153 28236 168.036
100.27 28039 167.448
100.388 27891 167.006
100.505 27890 167.003
100.622 27962 167.218
100.74 28376 168.452
100.857 28287 168.187
100.975 28837 169.815
101.092 28353 168.383
101.209 25850 160.779
101.327 22496 149.987
101.444 18882 137.412
101.561 17032 130.507
101.679 16528 128.561
101.796 16814 129.669
101.913 20121 141.849
102.03 24911 157.832
102.148 27819 166.79
102.265 29304 171.184
102.382 32132 179.254
102.499 31805 178.34
102.616 32707 180.851
102.733 32665 180.735
102.851 32870 181.301
102.968 32982 181.609
103.085 31913 178.642
103.202 31241 176.751
103.319 31530 177.567
103.436 30928 175.864
103.552 30710 175.243
103.669 30094 173.476
103.786 30150 173.638
103.903 30041 173.323
104.02 29924 172.986
104.137 30007 173.225
104.253 30636 175.031
104.37 30610 174.957
104.487 30751 175.36
104.603 30364 174.253
104.72 27335 165.333
104.836 22961 151.529
104.953 20115 141.827
105.069 18357 135.488
105.186 17752 133.237
105.302 19281 138.856
105.418 23338 152.768
105.535 27911 167.066
105.651 31058 176.233
105.767 33583 183.257
105.883 34315 185.243
105.999 34552 185.882
106.115 0 1
106.231 0 1
106.347 0 1
106.463 0 1
106.579 0 1
106.694 0 1
106.81 0 1
106.926 0 1
107.041 0 1
107.157 0 1
109.576 0 1
109.692 0 1
109.807 0 1
109.923 0 1
110.039 0 1
110.155 0 1
110.27 0 1
110.386 0 1
110.502 0 1
110.618 26310 162.204
110.735 29580 171.988
110.851 32166 179.349
110.967 32766 181.014
111.083 32831 181.193
111.199 32907 181.403
111.316 33227 182.283
111.432 33654 183.45
111.549 33637 183.404
111.665 33392 182.735
111.782 32659 180.718
111.898 32003 178.894
112.015 31237 176.74
112.132 31102 176.358
112.248 30278 174.006
112.365 30465 174.542
112.482 29389 171.432
112.599 30524 174.711
112.716 29524 171.825
112.832 29409 171.491
112.949 29934 173.014
113.066 29896 172.905
113.183 28220 167.988
113.3 25245 158.887
113.417 21764 147.526
113.534 19248 138.737
113.652 17611 132.706
113.769 17061 130.618
113.886 17784 133.357
114.003 21248 145.767
114.12 25399 159.371
114.238 28004 167.344
114.355 29585 172.003
114.472 30281 174.014
114.589 31349 177.056
114.707 31332 177.008
114.824 31380 177.144
114.942 31795 178.312
115.059 31825 178.396
115.176 31852 178.471
115.294 31371 177.119
115.411 30635 175.029
115.529 30087 173.456
115.646 29829 172.711
115.764 29657 172.212
115.881 28946 170.135
115.999 28664 169.304
116.116 28568 169.021
116.234 28398 168.517
116.351 28205 167.943
116.469 28838 169.818
116.586 28647 169.254
116.704 27876 166.961
116.821 26422 162.548
116.939 23203 152.325
117.056 20169 142.018
117.174 18732 136.865
117.291 17659 132.887
117.409 18028 134.268
117.526 19742 140.506
117.644 23051 151.826
117.761 26255 162.034
117.879 28690 169.381
117.996 29116 170.634
118.114 30732 175.305
118.231 31334 177.014
118.349 31097 176.343
118.466 31267 176.825
118.584 31654 177.916
118.701 31825 178.396
118.819 31557 177.643
118.936 30836 175.602
119.053 30294 174.052
119.171 29833 172.722
119.288 29477 171.689
119.405 28837 169.815
119.523 28741 169.532
119.64 28279 168.164
119.757 28450 168.671
119.875 27870 166.943
119.992 27543 165.961
120.109 27850 166.883
120.226 27826 166.811
120.343 27100 164.621
120.46 25508 159.712
120.578 23145 152.135
120.695 21006 144.934
120.812 19152 138.391
120.929 18331 135.392
121.046 17898 133.783
121.163 18813 137.16
121.279 21570 146.867
121.396 24570 156.748
121.513 26666 163.297
121.63 28665 169.307
121.747 28969 170.203
121.863 29389 171.432
121.98 29669 172.247
122.097 30001 173.208
122.213 30329 174.152
122.33 30294 174.052
122.446 30108 173.517
122.563 29585 172.003
122.679 29175 170.807
122.795 29091 170.561
122.912 28671 169.325
123.028 28209 167.955
123.144 27958 167.206
123.26 27266 165.124
123.377 0 1
123.493 0 1
123.609 0 1
123.725 0 1
123.84 0 1
123.956 0 1
124.072 0 1
124.188 0 1
124.303 0 1
124.419 0 1
126.852 0 1
126.968 0 1
127.083 0 1
127.199 0 1
127.315 0 1
127.431 0 1
127.547 0 1
127.663 0 1
127.779 0 1
127.895 0 1
128.011 0 1
128.127 0 1
128.243 0 1
128.359 32283 179.675
128.476 31933 178.698
128.592 31559 177.649
128.708 31669 177.958
128.825 31657 177.924
128.941 31228 176.714
129.058 31092 176.329
129.174 31278 176.856
129.291 30303 174.078
129.408 29002 170.3
129.524 26078 161.487
129.641 24074 155.158
129.758 22210 149.03
129.875 20902 144.575
129.992 20471 143.077
130.108 20830 144.326
130.225 23534 153.408
130.342 26673 163.319
130.459 27885 166.988
130.576 30400 174.356
130.693 30174 173.707
130.81 30625 175
130.928 31664 177.944
131.045 32902 181.389
131.162 33576 183.238
131.279 33396 182.746
131.396 33314 182.521
131.513 33207 182.228
131.631 32919 181.436
131.748 32561 180.447
131.865 32021 178.944
131.983 31994 178.869
132.1 31718 178.095
132.217 31608 177.786
132.335 31527 177.558
132.452 31357 177.079
132.57 30975 175.997
132.687 30156 173.655
132.804 31073 176.275
132.922 29699 172.334
133.039 27023 164.387
133.157 24321 155.952
133.274 22874 151.242
133.392 21163 145.475
133.509 20073 141.679
133.627 19698 140.35
133.744 21558 146.826
133.862 24438 156.327
133.979 26297 162.163
134.097 27464 165.723
134.214 28266 168.125
134.332 29321 171.234
134.449 30600 174.929
134.567 31670 177.961
134.684 32595 180.541
134.802 32541 180.391
134.919 32187 179.407
135.037 32171 179.363
135.154 31755 178.199
135.272 32090 179.137
135.389 31558 177.646
135.507 31285 176.876
135.624 31265 176.819
135.742 31000 176.068
135.859 30881 175.73
135.977 30903 175.792
136.094 30655 175.086
136.211 30493 174.622
136.329 30282 174.017
136.446 29490 171.727
136.564 28427 168.603
136.681 26007 161.267
136.798 24127 155.329
136.915 22495 149.983
137.033 21241 145.743
137.15 20225 142.215
137.267 19715 140.41
137.384 21625 147.054
137.502 23537 153.418
137.619 25260 158.934
137.736 26835 163.814
137.853 27276 165.154
137.97 29409 171.491
138.087 30151 173.64
138.204 31875 178.536
138.321 32865 181.287
138.438 32971 181.579
138.555 33202 182.214
138.672 33298 182.477
138.788 33048 181.791
138.905 33105 181.948
139.022 33299 182.48
139.139 33224 182.275
139.255 33228 182.285
139.372 33393 182.738
139.488 32830 181.191
139.605 32559 180.441
139.721 33180 182.154
139.838 32464 180.178
139.954 32078 179.103
140.071 31773 178.25
140.187 31404 177.212
140.303 28649 169.26
140.419 26465 162.681
140.535 24513 156.566
140.652 22777 150.921
140.768 0 1
140.884 0 1
141 0 1
141.115 0 1
141.231 0 1
141.347 0 1
141.463 0 1
141.578 0 1
141.694 0 1
144.104 0 1
144.219 0 1
144.335 0 1
144.45 0 1
144.566 0 1
144.682 0 1
144.798 0 1
144.914 0 1
145.03 0 1
145.146 21918 148.047
145.262 23158 152.178
145.378 22339 149.462
145.494 20873 144.475
145.61 19805 140.73
145.726 18495 135.996
145.842 17316 131.59
145.959 16882 129.931
146.075 16162 127.13
146.192 16618 128.911
146.308 17657 132.88
146.425 18494 135.993
146.541 19665 140.232
146.658 21023 144.993
146.774 22884 151.275
146.891 24160 155.435
147.008 24903 157.807
147.125 24802 157.487
147.241 25666 160.206
147.358 25731 160.409
147.475 25612 160.037
147.592 25742 160.443
147.709 25126 158.512
147.826 25102 158.436
147.943 25048 158.266
148.06 25008 158.139
148.177 24886 157.753
148.294 24793 157.458
148.411 24340 156.013
148.528 24372 156.115
148.645 24229 155.657
148.762 24194 155.544
148.88 23837 154.392
148.997 23215 152.365
149.114 23698 153.942
149.231 22277 149.255
149.349 20509 143.21
149.466 20083 141.715
149.583 18382 135.58
149.701 17492 132.257
149.818 16642 129.004
149.935 15872 125.984
150.053 16759 129.457
150.17 17567 132.541
150.287 19052 138.029
150.405 20493 143.154
150.522 22095 148.644
150.64 23654 153.799
150.757 24588 156.806
150.875 24813 157.521
150.992 25473 159.603
151.11 25671 160.222
151.227 25640 160.125
151.344 25620 160.062
151.462 25043 158.25
151.579 25230 158.84
151.697 25109 158.458
151.814 24960 157.987
151.932 25128 158.518
152.049 24904 157.81
152.167 24852 157.645
152.284 24878 157.728
152.402 24822 157.55
152.519 24556 156.704
152.636 24393 156.183
152.754 23919 154.658
152.871 22722 150.738
152.989 21682 147.248
153.106 20298 142.471
153.223 19334 139.047
153.341 18035 134.294
153.458 17101 130.771
153.575 17061 130.618
153.693 17618 132.733
153.81 19140 138.347
153.927 20782 144.16
154.044 22662 150.539
154.162 24401 156.208
154.279 25634 160.106
154.396 26672 163.316
154.513 27137 164.733
154.63 27350 165.378
154.747 27881 166.976
154.864 27873 166.952
154.981 28253 168.086
155.098 28008 167.356
155.215 27985 167.287
155.332 27961 167.215
155.449 27615 166.178
155.566 27515 165.876
155.683 27581 166.075
155.8 27602 166.138
155.917 27557 166.003
156.033 27343 165.357
156.15 0 1
156.267 0 1
156.383 0 1
156.5 0 1
156.617 0 1
156.733 0 1
156.85 0 1
156.966 0 1
157.082 0 1
157.199 0 1
157.315 0 1
157.431 0 1
157.547 0 1
157.664 0 1
157.78 0 1
157.896 0 1
158.012 0 1
158.128 0 1
158.244 0 1
158.359 0 1
158.475 0 1
158.591 0 1
158.706 0 1
