
6.15755 0 1
6.2731 0 1
6.3887 0 1
6.50437 0 1
6.62009 0 1
6.73587 0 1
6.8517 0 1
6.96759 0 1
7.08353 0 1
7.19952 0 1
7.31557 0 1
7.43166 0 1
7.54781 0 1
7.664 0 1
7.78024 0 1
7.89653 0 1
8.01286 0 1
8.12924 0 1
8.24567 0 1
8.36213 0 1
8.47864 0 1
8.59519 0 1
8.71178 0 1
8.82841 0 1
8.94508 0 1
9.06179 0 1
9.17853 0 1
9.29531 0 1
9.41212 0 1
9.52897 0 1
9.64584 0 1
9.76276 0 1
9.8797 0 1
9.99667 0 1
10.1137 0 1
10.2307 0 1
10.3478 0 1
10.4648 0 1
10.5819 0 1
10.6991 0 1
10.8162 0 1
10.9334 0 1
11.0506 0 1
11.1678 0 1
11.285 0 1
11.4023 0 1
11.5196 0 1
11.6369 0 1
11.7542 0 1
11.8715 0 1
11.9888 0 1
12.1062 0 1
12.2235 0 1
12.3409 0 1
12.4582 0 1
12.5756 0 1
12.693 0 1
12.8104 0 1
12.9278 0 1
13.0452 0 1
13.1626 0 1
13.28 0 1
13.3974 0 1
13.5149 0 1
13.6323 0 1
13.7497 0 1
13.8671 0 1
13.9845 0 1
14.1019 0 1
14.2193 0 1
14.3367 0 1
14.4541 0 1
14.5714 0 1
14.6888 0 1
14.8062 0 1
14.9235 0 1
15.0408 7985 89.3588
15.1581 8127 90.1499
15.2755 8439 91.864
15.3927 8424 91.7824
15.51 8326 91.2469
15.6273 8463 91.9946
15.7445 8522 92.3147
15.8617 8217 90.6477
15.9789 8208 90.598
16.0961 7878 88.7581
16.2132 8057 89.7608
16.3304 7872 88.7243
16.4475 7977 89.3141
16.5646 8153 90.294
16.6816 8350 91.3783
16.7986 8149 90.2718
16.9156 8119 90.1055
17.0326 8199 90.5483
17.1496 8149 90.2718
17.2665 7918 88.9831
17.3833 7832 88.4986
17.5002 7559 86.9425
17.617 7627 87.3327
17.7338 7752 88.0454
17.8505 7928 89.0393
17.9672 8020 89.5545
18.0839 8347 91.3619
18.2005 8654 93.0269
18.3171 8756 93.5735
18.4337 8927 94.4828
18.5502 8855 94.101
18.6666 9071 95.2418
18.7831 9175 95.7862
18.8994 8929 94.4934
19.0158 8844 94.0425
19.1321 8482 92.0978
19.2483 8389 91.5915
19.3645 8120 90.111
19.4806 7882 88.7806
19.5967 7418 86.1278
19.7128 7168 84.664
19.8288 7202 84.8646
19.9447 6542 80.8826
20.0606 0 1
20.1764 0 1
20.2922 0 1
20.4079 0 1
20.5236 0 1
20.6392 0 1
20.7548 0 1
20.8702 0 1
23.3078 0 1
23.4233 0 1
23.539 0 1
23.6547 0 1
23.7704 0 1
23.8862 0 1
24.0021 0 1
24.118 0 1
24.234 0 1
24.35 0 1
24.4661 7528 86.764
24.5822 7460 86.3713
24.6984 7166 84.6522
24.8146 7123 84.3979
24.9309 7409 86.0755
25.0472 7535 86.8044
25.1636 7805 88.3459
25.28 7890 88.8257
25.3965 8278 90.9835
25.513 8329 91.2634
25.6296 8512 92.2605
25.7462 8761 93.6002
25.8628 8614 92.8116
25.9795 8441 91.8749
26.0962 8207 90.5925
26.213 7839 88.5381
26.3298 7633 87.367
26.4466 7472 86.4407
26.5635 7636 87.3842
26.6804 7875 88.7412
26.7973 7974 89.2973
26.9143 8141 90.2275
27.0313 8201 90.5594
27.1483 8363 91.4494
27.2653 8481 92.0923
27.3824 8554 92.4878
27.4996 8679 93.1612
27.6167 8243 90.791
27.7339 8341 91.3291
27.8511 8226 90.6973
27.9683 8166 90.3659
28.0855 7832 88.4986
28.2028 7605 87.2067
28.3201 7243 85.1058
28.4374 6970 83.4865
28.5547 7201 84.8587
28.6721 7371 85.8545
28.7894 7506 86.6372
28.9068 7797 88.3006
29.0242 7815 88.4025
29.1416 7992 89.398
29.259 7765 88.1192
29.3764 7804 88.3403
29.4939 7551 86.8965
29.6113 7676 87.6128
29.7288 7247 85.1293
29.8463 7227 85.0118
29.9638 7059 84.0179
30.0812 7073 84.1011
30.1987 7151 84.5636
30.3162 7304 85.4634
30.4337 7733 87.9375
30.5512 7722 87.8749
30.6687 7878 88.7581
30.7862 8169 90.3825
30.9037 8195 90.5262
31.0212 8227 90.7028
31.1387 8283 91.011
31.2562 8213 90.6256
31.3737 7877 88.7525
31.4912 7791 88.2666
31.6087 7744 88
31.7262 7520 86.7179
31.8436 7255 85.1763
31.9611 6872 82.8975
32.0785 6880 82.9458
32.1959 7074 84.1071
32.3134 7144 84.5222
32.4308 7440 86.2554
32.5482 7584 87.0862
32.6655 7601 87.1837
32.7829 7683 87.6527
32.9002 7615 87.264
33.0176 7424 86.1626
33.1349 7668 87.5671
33.2522 7479 86.4812
33.3694 7162 84.6286
33.4867 7017 83.7675
33.6039 6919 83.1805
33.7211 6854 82.7889
33.8383 6857 82.807
33.9554 7058 84.0119
34.0725 7279 85.3171
34.1896 7595 87.1493
34.3067 7518 86.7064
34.4237 7688 87.6812
34.5407 7689 87.6869
34.6577 7879 88.7637
34.7746 7867 88.6961
34.8915 7627 87.3327
35.0084 7737 87.9602
35.1252 7631 87.3556
35.242 7469 86.4234
35.3587 7388 85.9535
35.4755 7006 83.7019
35.5921 6747 82.1401
35.7088 6642 81.4985
35.8254 6505 80.6536
35.9419 6645 81.5169
36.0584 6832 82.6559
36.1749 6878 82.9337
36.2913 7192 84.8057
36.4077 7269 85.2584
36.524 7341 85.6796
36.6403 7283 85.3405
36.7565 7315 85.5278
36.8727 7241 85.0941
36.9889 7172 84.6877
37.1049 6707 81.8963
37.221 0 1
37.3369 0 1
37.4529 0 1
37.5687 0 1
37.6845 0 1
37.8003 0 1
37.916 0 1
38.0316 0 1
38.1472 0 1
40.5851 0 1
40.7008 0 1
40.8164 0 1
40.9322 0 1
41.048 0 1
41.1639 0 1
41.2798 0 1
41.3958 0 1
41.5118 0 1
41.6279 0 1
41.744 5736 75.7364
41.8602 6129 78.2879
41.9765 6283 79.2654
42.0928 6182 78.6257
42.2091 6198 78.7274
42.3255 6028 77.6402
42.4419 5651 75.1731
42.5584 5499 74.1552
42.675 5493 74.1148
42.7915 5676 75.3392
42.9081 5748 75.8156
43.0248 5886 76.7203
43.1415 5954 77.1622
43.2582 5958 77.1881
43.375 6188 78.6638
43.4918 6059 77.8396
43.6087 6339 79.6178
43.7256 6071 77.9166
43.8425 5942 77.0844
43.9595 5836 76.3937
44.0765 5824 76.3151
44.1935 5612 74.9133
44.3106 5509 74.2226
44.4277 5074 71.232
44.5448 5014 70.8096
44.6619 4717 68.6804
44.7791 4690 68.4836
44.8963 4592 67.7643
45.0136 4658 68.2495
45.1308 4763 69.0145
45.2481 4858 69.6994
45.3654 4870 69.7854
45.4827 5015 70.8167
45.6001 4913 70.0928
45.7174 4944 70.3136
45.8348 4726 68.7459
45.9522 4634 68.0735
46.0697 4426 66.5282
46.1871 4225 65
46.3046 4186 64.6993
46.422 4242 65.1306
46.5395 4491 67.0149
46.657 4516 67.2012
46.7745 4472 66.873
46.892 4500 67.082
47.0096 4650 68.1909
47.1271 4590 67.7495
47.2446 4591 67.7569
47.3622 4651 68.1982
47.4797 4566 67.5722
47.5973 4331 65.8103
47.7149 4310 65.6506
47.8324 4193 64.7534
47.95 4170 64.5755
48.0675 4049 63.6318
48.1851 3776 61.4492
48.3027 3678 60.6465
48.4202 3597 59.975
48.5378 3689 60.7371
48.6554 3882 62.3057
48.7729 3891 62.3779
48.8904 4022 63.4192
49.008 4142 64.3584
49.1255 4231 65.0461
49.243 4319 65.7191
49.3605 4281 65.4294
49.478 3980 63.0872
49.5955 3976 63.0555
49.713 3938 62.7535
49.8304 3896 62.4179
49.9479 3938 62.7535
50.0653 4090 63.9531
50.1827 4188 64.7148
50.3001 4526 67.2756
50.4175 4565 67.5648
50.5348 4573 67.624
50.6521 4743 68.8694
50.7694 4914 70.0999
50.8867 5110 71.4843
51.004 5011 70.7884
51.1212 5108 71.4703
51.2384 5266 72.5672
51.3556 5137 71.6729
51.4727 5109 71.4773
51.5899 5217 72.2288
51.707 4921 70.1498
51.824 4817 69.4046
51.9411 5008 70.7672
52.0581 5134 71.6519
52.175 5367 73.2598
52.2919 5690 75.4321
52.4088 5772 75.9737
52.5257 6047 77.7625
52.6425 5951 77.1427
52.7593 6276 79.2212
52.876 6480 80.4984
52.9927 6319 79.4921
53.1094 6172 78.5621
53.226 6128 78.2815
53.3426 5833 76.3741
53.4591 5819 76.2824
53.5756 5898 76.7984
53.692 6221 78.8733
53.8084 6443 80.2683
53.9248 6881 82.9518
54.0411 6843 82.7224
54.1573 6908 83.1144
54.2735 0 1
54.3896 0 1
54.5057 0 1
54.6217 0 1
54.7377 0 1
54.8537 0 1
54.9695 0 1
55.0853 0 1
55.2011 0 1
55.3168 0 1
55.4324 0 1
57.824 0 1
57.9396 0 1
58.0553 0 1
58.1711 0 1
58.2869 0 1
58.4028 0 1
58.5187 0 1
58.6347 0 1
58.7508 0 1
58.8669 0 1
58.983 7734 87.9432
59.0992 8290 91.0494
59.2155 8586 92.6607
59.3318 8842 94.0319
59.4482 9136 95.5824
59.5646 8868 94.1701
59.681 9144 95.6243
59.7975 8920 94.4458
59.9141 8814 93.8829
60.0306 8768 93.6376
60.1473 8713 93.3435
60.2639 8469 92.0272
60.3807 8215 90.6366
60.4974 7922 89.0056
60.6142 7501 86.6083
60.731 7606 87.2124
60.8479 7509 86.6545
60.9648 7835 88.5155
61.0818 8043 89.6828
61.1987 7902 88.8932
61.3158 8364 91.4549
61.4328 8323 91.2305
61.5499 8462 91.9891
61.667 8592 92.693
61.7841 8203 90.5704
61.9013 7807 88.3572
62.0185 7556 86.9253
62.1357 7301 85.4459
62.253 7284 85.3464
62.3702 7562 86.9598
62.4875 7640 87.4071
62.6049 7961 89.2244
62.7222 7814 88.3968
62.8396 8172 90.3991
62.9569 8013 89.5154
63.0743 8137 90.2053
63.1918 8128 90.1554
63.3092 8219 90.6587
63.4267 8123 90.1277
63.5441 7820 88.4308
63.6616 8001 89.4483
63.7791 7771 88.1533
63.8966 7475 86.4581
64.0142 7116 84.3564
64.1317 6706 81.8902
64.2492 6818 82.5712
64.3668 6925 83.2166
64.4843 7065 84.0536
64.6019 7263 85.2232
64.7195 7425 86.1684
64.837 7428 86.1858
64.9546 7596 87.155
65.0722 7681 87.6413
65.1898 7795 88.2893
65.3074 7800 88.3176
65.4249 7510 86.6603
65.5425 7256 85.1822
65.6601 6900 83.0662
65.7777 6711 81.9207
65.8952 6678 81.719
66.0128 6990 83.6062
66.1304 7415 86.1104
66.2479 7547 86.8735
66.3655 7730 87.9204
66.483 7815 88.4025
66.6005 8090 89.9444
66.718 7880 88.7694
66.8355 8019 89.5489
66.953 8044 89.6883
67.0705 7917 88.9775
67.1879 7992 89.398
67.3054 7799 88.3119
67.4228 7838 88.5325
67.5402 7653 87.4814
67.6576 7413 86.0988
67.7749 6914 83.1505
67.8923 7020 83.7854
68.0096 6837 82.6862
68.1269 7183 84.7526
68.2442 7318 85.5453
68.3614 7673 87.5957
68.4787 8073 89.8499
68.5958 8192 90.5097
68.713 8175 90.4157
68.8302 8402 91.6624
68.9473 8428 91.8041
69.0643 8316 91.1921
69.1814 7792 88.2723
69.2984 7570 87.0057
69.4154 7250 85.1469
69.5323 7196 84.8292
69.6492 7466 86.406
69.7661 7989 89.3812
69.8829 8021 89.56
69.9997 8217 90.6477
70.1165 8520 92.3038
70.2332 8506 92.228
70.3499 8555 92.4932
70.4665 8691 93.2255
70.5831 8763 93.6109
70.6996 8604 92.7577
70.8161 8728 93.4238
70.9326 8562 92.5311
71.049 8517 92.2876
71.1653 8240 90.7744
71.2817 7996 89.4204
71.3979 7315 85.5278
71.5141 7022 83.7974
71.6303 6931 83.2526
71.7464 6491 80.5667
71.8624 0 1
71.9784 0 1
72.0944 0 1
72.2102 0 1
72.3261 0 1
72.4418 0 1
72.5575 0 1
72.6732 0 1
75.1054 0 1
75.2209 0 1
75.3365 0 1
75.4521 0 1
75.5678 0 1
75.6835 0 1
75.7993 0 1
75.9151 0 1
76.031 0 1
76.147 7535 86.8044
76.263 8088 89.9333
76.3791 8282 91.0055
76.4952 7913 88.955
76.6113 7732 87.9318
76.7276 7528 86.764
76.8438 7168 84.664
76.9601 7238 85.0764
77.0765 7512 86.6718
77.1929 7785 88.2326
77.3093 7860 88.6566
77.4258 8272 90.9505
77.5423 8278 90.9835
77.6589 8638 92.9408
77.7755 8738 93.4773
77.8921 8817 93.8989
78.0088 8489 92.1358
78.1256 7976 89.3085
78.2423 7664 87.5443
78.3591 7131 84.4452
78.4759 6744 82.1219
78.5928 6867 82.8674
78.7097 7530 86.7756
78.8266 7826 88.4647
78.9436 8319 91.2086
79.0606 8350 91.3783
79.1776 8397 91.6351
79.2946 8457 91.9619
79.4117 8711 93.3327
79.5288 8462 91.9891
79.6459 8757 93.5788
79.7631 8438 91.8586
79.8802 8422 91.7715
79.9974 8690 93.2202
80.1147 8325 91.2414
80.2319 7993 89.4036
80.3491 7491 86.5506
80.4664 7237 85.0706
80.5837 7106 84.2971
80.701 7219 84.9647
80.8183 7600 87.178
80.9357 7823 88.4477
81.053 8194 90.5207
81.1704 8129 90.161
81.2877 8661 93.0645
81.4051 8594 92.7038
81.5225 8978 94.7523
81.6399 8531 92.3634
81.7573 8573 92.5905
81.8747 7869 88.7074
81.9922 7161 84.6227
82.1096 6723 81.9939
82.227 7060 84.0238
82.3444 7493 86.5621
82.4619 8057 89.7608
82.5793 8136 90.1998
82.6967 8254 90.8515
82.8142 8480 92.0869
82.9316 8546 92.4446
83.049 8700 93.2738
83.1664 8516 92.2822
83.2838 8766 93.6269
83.4012 8639 92.9462
83.5186 8714 93.3488
83.636 8722 93.3916
83.7534 8460 91.9783
83.8708 8332 91.2798
83.9881 7649 87.4586
84.1055 7436 86.2322
84.2228 7380 85.9069
84.3401 7636 87.3842
84.4575 7684 87.6584
84.5747 8093 89.9611
84.692 8195 90.5262
84.8093 8689 93.2148
84.9265 8901 94.3451
85.0437 9285 96.3587
85.1609 9101 95.3992
85.2781 8897 94.3239
85.3952 8447 91.9076
85.5123 7789 88.2553
85.6294 7450 86.3134
85.7465 7255 85.1763
85.8636 7555 86.9195
85.9806 8231 90.7249
86.0976 8563 92.5365
86.2145 8594 92.7038
86.3315 8888 94.2762
86.4484 9111 95.4516
86.5652 9186 95.8436
86.682 9396 96.933
86.7988 9166 95.7392
86.9156 9356 96.7264
87.0323 9310 96.4883
87.149 9310 96.4883
87.2657 9197 95.901
87.3823 9115 95.4725
87.4988 8554 92.4878
87.6154 8165 90.3604
87.7318 7959 89.2132
87.8483 8023 89.5712
87.9647 7979 89.3252
88.081 8400 91.6515
88.1973 8611 92.7955
88.3136 8896 94.3186
88.4298 9171 95.7653
88.546 9442 97.17
88.6621 9632 98.1428
88.7781 9464 97.2831
88.8942 0 1
89.0101 0 1
89.126 0 1
89.2419 0 1
89.3577 0 1
89.4734 0 1
89.5891 0 1
89.7047 0 1
89.8203 0 1
89.9358 0 1
92.3269 0 1
92.4424 0 1
92.558 0 1
92.6736 0 1
92.7893 0 1
92.905 0 1
93.0208 0 1
93.1366 0 1
93.2525 0 1
93.3685 0 1
93.4845 0 1
93.6005 8311 91.1647
93.7167 8816 93.8936
93.8328 8978 94.7523
93.949 8922 94.4563
94.0653 8896 94.3186
94.1816 8688 93.2094
94.2979 8417 91.7442
94.4143 7852 88.6115
94.5307 7366 85.8254
94.6472 7215 84.9412
94.7637 7512 86.6718
94.8803 7643 87.4243
94.9969 8165 90.3604
95.1135 8375 91.515
95.2302 8466 92.0109
95.3469 8719 93.3756
95.4637 8900 94.3398
95.5805 9041 95.0842
95.6973 9007 94.9052
95.8142 9268 96.2705
95.9311 8878 94.2231
96.048 9057 95.1683
96.1649 9035 95.0526
96.2819 9028 95.0158
96.3989 8676 93.145
96.516 8343 91.34
96.633 8036 89.6437
96.7501 7611 87.241
96.8673 7708 87.7952
96.9844 7511 86.666
97.1016 7868 88.7017
97.2188 8021 89.56
97.336 8170 90.3881
97.4532 8581 92.6337
97.5704 8784 93.723
97.6877 8930 94.4987
97.805 9129 95.5458
97.9223 8561 92.5257
98.0396 8306 91.1373
98.1569 7992 89.398
98.2743 7538 86.8217
98.3916 7117 84.3623
98.509 7297 85.4225
98.6264 7754 88.0568
98.7438 7964 89.2412
98.8612 8219 90.6587
98.9786 8516 92.2822
99.096 8419 91.7551
99.2134 8633 92.9139
99.3308 8694 93.2416
99.4482 8549 92.4608
99.5656 8459 91.9728
99.6831 8494 92.1629
99.8005 8420 91.7606
99.9179 8271 90.945
100.035 8329 91.2634
100.153 7992 89.398
100.27 7667 87.5614
100.388 7258 85.1939
100.505 7281 85.3288
100.622 7456 86.3481
100.74 7739 87.9716
100.857 7889 88.82
100.975 8107 90.0389
101.092 8172 90.3991
101.209 8813 93.8776
101.327 8769 93.6429
101.444 8871 94.186
101.561 8538 92.4013
101.679 8339 91.3181
101.796 7850 88.6002
101.913 7304 85.4634
102.03 7180 84.7349
102.148 7486 86.5217
102.265 7466 86.406
102.382 8959 94.652
102.499 8661 93.0645
102.616 8648 92.9946
102.733 8850 94.0744
102.851 9136 95.5824
102.968 9135 95.5772
103.085 9077 95.2733
103.202 9155 95.6818
103.319 9013 94.9368
103.436 9026 95.0053
103.552 8949 94.5992
103.669 8697 93.2577
103.786 8196 90.5318
103.903 7877 88.7525
104.02 7955 89.1908
104.137 8032 89.6214
104.253 8223 90.6808
104.37 8439 91.864
104.487 8759 93.5895
104.603 9155 95.6818
104.72 9403 96.9691
104.836 9386 96.8814
104.953 9416 97.0361
105.069 8999 94.8631
105.186 8558 92.5095
105.302 7927 89.0337
105.418 7560 86.9483
105.535 7517 86.7006
105.651 7905 88.9101
105.767 8498 92.1846
105.883 8853 94.0904
105.999 8826 93.9468
106.115 0 1
106.231 0 1
106.347 0 1
106.463 0 1
106.579 0 1
106.694 0 1
106.81 0 1
106.926 0 1
107.041 0 1
107.157 0 1
109.576 0 1
109.692 0 1
109.807 0 1
109.923 0 1
110.039 0 1
110.155 0 1
110.27 0 1
110.386 0 1
110.502 0 1
110.618 6567 81.037
110.735 7090 84.2021
110.851 7428 86.1858
110.967 7956 89.1964
111.083 7946 89.1403
111.199 8383 91.5587
111.316 8191 90.5041
111.432 8210 90.6091
111.549 8379 91.5369
111.665 8453 91.9402
111.782 8172 90.3991
111.898 8105 90.0278
112.015 7925 89.0225
112.132 7746 88.0114
112.248 7516 86.6949
112.365 7157 84.5991
112.482 7007 83.7078
112.599 6702 81.8657
112.716 6803 82.4803
112.832 6989 83.6002
112.949 7139 84.4926
113.066 7439 86.2496
113.183 7522 86.7295
113.3 7505 86.6314
113.417 7722 87.8749
113.534 7691 87.6983
113.652 7420 86.1394
113.769 6991 83.6122
113.886 6543 80.8888
114.003 6299 79.3662
114.12 5845 76.4526
114.238 6087 78.0192
114.355 6616 81.3388
114.472 6953 83.3847
114.589 6771 82.2861
114.707 7022 83.7974
114.824 6990 83.6062
114.942 7089 84.1962
115.059 6997 83.6481
115.176 6781 82.3468
115.294 6820 82.5833
115.411 6777 82.3225
115.529 6646 81.523
115.646 6412 80.075
115.764 6152 78.4347
115.881 5959 77.1946
115.999 5605 74.8665
116.116 5415 73.5867
116.234 5470 73.9594
116.351 5496 74.135
116.469 5521 74.3034
116.586 5795 76.1249
116.704 6039 77.711
116.821 6171 78.5557
116.939 6062 77.8588
117.056 6189 78.6702
117.174 6021 77.5951
117.291 6056 77.8203
117.409 5662 75.2463
117.526 5372 73.2939
117.644 5045 71.0282
117.761 5051 71.0704
117.879 5267 72.5741
117.996 5543 74.4513
118.114 5835 76.3872
118.231 5908 76.8635
118.349 6020 77.5887
118.466 6075 77.9423
118.584 6020 77.5887
118.701 6088 78.0256
118.819 6054 77.8075
118.936 6231 78.9367
119.053 6058 77.8332
119.171 6035 77.6853
119.288 5889 76.7398
119.405 5894 76.7724
119.523 5513 74.2496
119.64 5469 73.9527
119.757 5348 73.13
119.875 5410 73.5527
119.992 5516 74.2698
120.109 5853 76.5049
120.226 6082 77.9872
120.343 6051 77.7882
120.46 6342 79.6367
120.578 6349 79.6806
120.695 6740 82.0975
120.812 6736 82.0731
120.929 6623 81.3818
121.046 6353 79.7057
121.163 6102 78.1153
121.279 5775 75.9934
121.396 5649 75.1598
121.513 5931 77.013
121.63 6285 79.278
121.747 6584 81.1419
121.863 6805 82.4924
121.98 7005 83.6959
122.097 7010 83.7257
122.213 7099 84.2556
122.33 7231 85.0353
122.446 7170 84.6759
122.563 7138 84.4867
122.679 7371 85.8545
122.795 7101 84.2674
122.912 7022 83.7974
123.028 6899 83.0602
123.144 6747 82.1401
123.26 6537 80.8517
123.377 0 1
123.493 0 1
123.609 0 1
123.725 0 1
123.84 0 1
123.956 0 1
124.072 0 1
124.188 0 1
124.303 0 1
124.419 0 1
126.852 0 1
126.968 0 1
127.083 0 1
127.199 0 1
127.315 0 1
127.431 0 1
127.547 0 1
127.663 0 1
127.779 0 1
127.895 0 1
128.011 0 1
128.127 0 1
128.243 0 1
128.359 8064 89.7998
128.476 8195 90.5262
128.592 7789 88.2553
128.708 7534 86.7986
128.825 7450 86.3134
128.941 7320 85.557
129.058 7677 87.6185
129.174 7828 88.476
129.291 8026 89.5879
129.408 8197 90.5373
129.524 8227 90.7028
129.641 8444 91.8912
129.758 8309 91.1537
129.875 8614 92.8116
129.992 8056 89.7552
130.108 7640 87.4071
130.225 7368 85.8371
130.342 7069 84.0773
130.459 6866 82.8613
130.576 6992 83.6182
130.693 7444 86.2786
130.81 7658 87.51
130.928 7949 89.1572
131.045 8168 90.377
131.162 8151 90.2829
131.279 8361 91.4385
131.396 8231 90.7249
131.513 8132 90.1776
131.631 8137 90.2053
131.748 7899 88.8763
131.865 7927 89.0337
131.983 7792 88.2723
132.1 7504 86.6256
132.217 7263 85.2232
132.335 7048 83.9524
132.452 7015 83.7556
132.57 7087 84.1843
132.687 7068 84.0714
132.804 7714 87.8294
132.922 7688 87.6812
133.039 7770 88.1476
133.157 7977 89.3141
133.274 8019 89.5489
133.392 7982 89.342
133.509 7805 88.3459
133.627 7520 86.7179
133.744 7179 84.729
133.862 6839 82.6982
133.979 6506 80.6598
134.097 6835 82.6741
134.214 7264 85.2291
134.332 7204 84.8764
134.449 7715 87.8351
134.567 7775 88.176
134.684 7613 87.2525
134.802 7732 87.9318
134.919 7759 88.0852
135.037 7793 88.278
135.154 7329 85.6096
135.272 7274 85.2877
135.389 7267 85.2467
135.507 7022 83.7974
135.624 6713 81.9329
135.742 6529 80.8022
135.859 6122 78.2432
135.977 6141 78.3645
136.094 6009 77.5177
136.211 6108 78.1537
136.329 6330 79.5613
136.446 6471 80.4425
136.564 6554 80.9568
136.681 6568 81.0432
136.798 6812 82.5348
136.915 6743 82.1158
137.033 6719 81.9695
137.15 6543 80.8888
137.267 6261 79.1265
137.384 5987 77.3757
137.502 5573 74.6525
137.619 5620 74.9667
137.736 5975 77.2981
137.853 6080 77.9744
137.97 6357 79.7308
138.087 6678 81.719
138.204 7083 84.1606
138.321 6965 83.4566
138.438 7171 84.6818
138.555 6961 83.4326
138.672 7391 85.9709
138.788 7171 84.6818
138.905 7461 86.3771
139.022 7172 84.6877
139.139 7119 84.3742
139.255 6906 83.1023
139.372 6742 82.1097
139.488 6762 82.2314
139.605 6709 81.9085
139.721 6770 82.28
139.838 6984 83.5703
139.954 7137 84.4808
140.071 7402 86.0349
140.187 7677 87.6185
140.303 7839 88.5381
140.419 7899 88.8763
140.535 8069 89.8276
140.652 7938 89.0955
140.768 0 1
140.884 0 1
141 0 1
141.115 0 1
141.231 0 1
141.347 0 1
141.463 0 1
141.578 0 1
141.694 0 1
144.104 0 1
144.219 0 1
144.335 0 1
144.45 0 1
144.566 0 1
144.682 0 1
144.798 0 1
144.914 0 1
145.03 0 1
145.146 10625 103.078
145.262 11756 108.425
145.378 12371 111.225
145.494 13328 115.447
145.61 13776 117.371
145.726 14637 120.983
145.842 15033 122.609
145.959 14919 122.143
146.075 14872 121.951
146.192 14729 121.363
146.308 14313 119.637
146.425 14930 122.188
146.541 16449 128.254
146.658 17676 132.951
146.774 18968 137.724
146.891 20462 143.045
147.008 21378 146.212
147.125 22324 149.412
147.241 23336 152.761
147.358 23759 154.14
147.475 24356 156.064
147.592 24177 155.49
147.709 24424 156.282
147.826 24170 155.467
147.943 24457 156.387
148.06 23457 153.157
148.177 23029 151.753
148.294 22898 151.321
148.411 22815 151.046
148.528 23424 153.049
148.645 23805 154.289
148.762 25090 158.398
148.88 25360 159.248
148.997 27026 164.396
149.114 24606 156.863
149.231 26002 161.251
149.349 25505 159.703
149.466 25595 159.984
149.583 24233 155.67
149.701 22357 149.523
149.818 21585 146.918
149.935 20547 143.342
150.053 20568 143.415
150.17 21109 145.289
150.287 22384 149.613
150.405 23247 152.47
150.522 23755 154.127
150.64 24210 155.596
150.757 24761 157.356
150.875 25220 158.808
150.992 24973 158.028
151.11 25728 160.4
151.227 24895 157.781
151.344 24807 157.502
151.462 24205 155.58
151.579 23859 154.464
151.697 23562 153.499
151.814 23107 152.01
151.932 22952 151.499
152.049 22947 151.483
152.167 24070 155.145
152.284 24900 157.797
152.402 25608 160.025
152.519 26696 163.389
152.636 26921 164.076
152.754 27264 165.118
152.871 27710 166.463
152.989 27480 165.771
153.106 26842 163.835
153.223 25485 159.64
153.341 24253 155.734
153.458 23067 151.878
153.575 22762 150.871
153.693 23476 153.219
153.81 24256 155.743
153.927 25542 159.819
154.044 26486 162.745
154.162 27257 165.097
154.279 28104 167.642
154.396 29036 170.4
154.513 29684 172.29
154.63 29568 171.953
154.747 29821 172.688
154.864 29880 172.858
154.981 29489 171.724
155.098 29116 170.634
155.215 28860 169.882
155.332 28644 169.245
155.449 27966 167.23
155.566 27941 167.156
155.683 28239 168.045
155.8 29350 171.318
155.917 30546 174.774
156.033 31534 177.578
156.15 0 1
156.267 0 1
156.383 0 1
156.5 0 1
156.617 0 1
156.733 0 1
156.85 0 1
156.966 0 1
157.082 0 1
157.199 0 1
157.315 0 1
157.431 0 1
157.547 0 1
157.664 0 1
157.78 0 1
157.896 0 1
158.012 0 1
158.128 0 1
158.244 0 1
158.359 0 1
158.475 0 1
158.591 0 1
158.706 0 1
