
6.15755 0 1
6.2731 0 1
6.3887 0 1
6.50437 0 1
6.62009 0 1
6.73587 0 1
6.8517 0 1
6.96759 0 1
7.08353 0 1
7.19952 0 1
7.31557 0 1
7.43166 0 1
7.54781 0 1
7.664 0 1
7.78024 0 1
7.89653 0 1
8.01286 0 1
8.12924 0 1
8.24567 0 1
8.36213 0 1
8.47864 0 1
8.59519 0 1
8.71178 0 1
8.82841 0 1
8.94508 0 1
9.06179 0 1
9.17853 0 1
9.29531 0 1
9.41212 0 1
9.52897 0 1
9.64584 0 1
9.76276 0 1
9.8797 0 1
9.99667 0 1
10.1137 0 1
10.2307 0 1
10.3478 0 1
10.4648 0 1
10.5819 0 1
10.6991 0 1
10.8162 0 1
10.9334 0 1
11.0506 0 1
11.1678 0 1
11.285 0 1
11.4023 0 1
11.5196 0 1
11.6369 0 1
11.7542 0 1
11.8715 0 1
11.9888 0 1
12.1062 0 1
12.2235 0 1
12.3409 0 1
12.4582 0 1
12.5756 0 1
12.693 0 1
12.8104 0 1
12.9278 0 1
13.0452 0 1
13.1626 0 1
13.28 0 1
13.3974 0 1
13.5149 0 1
13.6323 0 1
13.7497 0 1
13.8671 0 1
13.9845 0 1
14.1019 0 1
14.2193 0 1
14.3367 0 1
14.4541 0 1
14.5714 0 1
14.6888 0 1
14.8062 0 1
14.9235 0 1
15.0408 7741 87.983
15.1581 8112 90.0666
15.2755 8253 90.846
15.3927 8205 90.5815
15.51 8205 90.5815
15.6273 8238 90.7634
15.7445 8174 90.4102
15.8617 8223 90.6808
15.9789 8097 89.9833
16.0961 7827 88.4703
16.2132 7645 87.4357
16.3304 7793 88.278
16.4475 7927 89.0337
16.5646 8015 89.5265
16.6816 7963 89.2356
16.7986 8061 89.7831
16.9156 7952 89.174
17.0326 7969 89.2693
17.1496 7956 89.1964
17.2665 7775 88.176
17.3833 7693 87.7097
17.5002 7548 86.8792
17.617 7610 87.2353
17.7338 7423 86.1568
17.8505 7607 87.2181
17.9672 7882 88.7806
18.0839 8083 89.9055
18.2005 8407 91.6897
18.3171 8396 91.6297
18.4337 8780 93.7017
18.5502 8872 94.1913
18.6666 8887 94.2709
18.7831 9104 95.4149
18.8994 8775 93.675
19.0158 8587 92.6661
19.1321 8464 92
19.2483 8100 90
19.3645 7617 87.2754
19.4806 7493 86.5621
19.5967 7404 86.0465
19.7128 7238 85.0764
19.8288 7000 83.666
19.9447 6484 80.5233
20.0606 0 1
20.1764 0 1
20.2922 0 1
20.4079 0 1
20.5236 0 1
20.6392 0 1
20.7548 0 1
20.8702 0 1
23.3078 0 1
23.4233 0 1
23.539 0 1
23.6547 0 1
23.7704 0 1
23.8862 0 1
24.0021 0 1
24.118 0 1
24.234 0 1
24.35 0 1
24.4661 7524 86.741
24.5822 7112 84.3327
24.6984 7145 84.5281
24.8146 7033 83.863
24.9309 7199 84.8469
25.0472 7398 86.0116
25.1636 7356 85.7671
25.28 7810 88.3742
25.3965 7808 88.3629
25.513 8127 90.1499
25.6296 8165 90.3604
25.7462 8353 91.3947
25.8628 8516 92.2822
25.9795 8294 91.0714
26.0962 7951 89.1684
26.213 7608 87.2238
26.3298 7448 86.3018
26.4466 7373 85.8662
26.5635 7329 85.6096
26.6804 7487 86.5275
26.7973 7817 88.4138
26.9143 7957 89.202
27.0313 8070 89.8332
27.1483 8103 90.0167
27.2653 8354 91.4002
27.3824 8428 91.8041
27.4996 8451 91.9293
27.6167 8208 90.598
27.7339 8213 90.6256
27.8511 8042 89.6772
27.9683 7688 87.6812
28.0855 7448 86.3018
28.2028 7479 86.4812
28.3201 7042 83.9166
28.4374 7150 84.5577
28.5547 7083 84.1606
28.6721 7294 85.4049
28.7894 7328 85.6037
28.9068 7439 86.2496
29.0242 7808 88.3629
29.1416 7748 88.0227
29.259 7709 87.8009
29.3764 7813 88.3912
29.4939 7326 85.5921
29.6113 7492 86.5563
29.7288 7131 84.4452
29.8463 7084 84.1665
29.9638 6804 82.4864
30.0812 6822 82.5954
30.1987 7154 84.5813
30.3162 7432 86.209
30.4337 7435 86.2264
30.5512 7623 87.3098
30.6687 7703 87.7667
30.7862 7925 89.0225
30.9037 7697 87.7325
31.0212 7836 88.5212
31.1387 7805 88.3459
31.2562 7832 88.4986
31.3737 7761 88.0965
31.4912 7603 87.1952
31.6087 7444 86.2786
31.7262 7338 85.6621
31.8436 7044 83.9285
31.9611 6746 82.134
32.0785 6726 82.0122
32.1959 6828 82.6317
32.3134 6949 83.3607
32.4308 7123 84.3979
32.5482 7388 85.9535
32.6655 7361 85.7963
32.7829 7429 86.1916
32.9002 7418 86.1278
33.0176 7454 86.3366
33.1349 7251 85.1528
33.2522 7343 85.6913
33.3694 7068 84.0714
33.4867 6853 82.7828
33.6039 6699 81.8474
33.7211 6528 80.796
33.8383 6765 82.2496
33.9554 6870 82.8855
34.0725 7035 83.8749
34.1896 7206 84.8882
34.3067 7419 86.1336
34.4237 7446 86.2902
34.5407 7612 87.2468
34.6577 7588 87.1091
34.7746 7739 87.9716
34.8915 7625 87.3212
35.0084 7534 86.7986
35.1252 7250 85.1469
35.242 7412 86.093
35.3587 7030 83.8451
35.4755 6866 82.8613
35.5921 6627 81.4064
35.7088 6412 80.075
35.8254 6288 79.2969
35.9419 6479 80.4922
36.0584 6669 81.6639
36.1749 6792 82.4136
36.2913 6954 83.3906
36.4077 7273 85.2819
36.524 6927 83.2286
36.6403 7187 84.7762
36.7565 7076 84.119
36.8727 7118 84.3682
36.9889 6802 82.4742
37.1049 6527 80.7899
37.221 0 1
37.3369 0 1
37.4529 0 1
37.5687 0 1
37.6845 0 1
37.8003 0 1
37.916 0 1
38.0316 0 1
38.1472 0 1
40.5851 0 1
40.7008 0 1
40.8164 0 1
40.9322 0 1
41.048 0 1
41.1639 0 1
41.2798 0 1
41.3958 0 1
41.5118 0 1
41.6279 0 1
41.744 5621 74.9733
41.8602 5836 76.3937
41.9765 6027 77.6338
42.0928 6167 78.5302
42.2091 5888 76.7333
42.3255 5782 76.0395
42.4419 5590 74.7663
42.5584 5523 74.3169
42.675 5406 73.5255
42.7915 5426 73.6614
42.9081 5611 74.9066
43.0248 5637 75.08
43.1415 5707 75.5447
43.2582 5874 76.642
43.375 5869 76.6094
43.4918 5923 76.961
43.6087 5973 77.2852
43.7256 6035 77.6853
43.8425 5779 76.0197
43.9595 5667 75.2795
44.0765 5582 74.7128
44.1935 5347 73.1232
44.3106 5276 72.6361
44.4277 4905 70.0357
44.5448 4812 69.3686
44.6619 4551 67.4611
44.7791 4547 67.4314
44.8963 4539 67.3721
45.0136 4448 66.6933
45.1308 4557 67.5056
45.2481 4727 68.7532
45.3654 4690 68.4836
45.4827 4675 68.374
45.6001 4709 68.6222
45.7174 4657 68.2422
45.8348 4548 67.4389
45.9522 4423 66.5056
46.0697 4391 66.2646
46.1871 4208 64.8691
46.3046 3996 63.2139
46.422 4119 64.1794
46.5395 4191 64.7379
46.657 4233 65.0615
46.7745 4366 66.0757
46.892 4417 66.4605
47.0096 4461 66.7907
47.1271 4426 66.5282
47.2446 4494 67.0373
47.3622 4479 66.9253
47.4797 4294 65.5286
47.5973 4192 64.7457
47.7149 4254 65.2227
47.8324 4091 63.9609
47.95 3909 62.522
48.0675 3816 61.7738
48.1851 3569 59.7411
48.3027 3504 59.1946
48.4202 3470 58.9067
48.5378 3602 60.0167
48.6554 3573 59.7746
48.7729 3864 62.1611
48.8904 3965 62.9682
49.008 3841 61.9758
49.1255 3982 63.1031
49.243 3970 63.0079
49.3605 4046 63.6082
49.478 4041 63.5689
49.5955 3773 61.4248
49.713 3726 61.041
49.8304 3701 60.8358
49.9479 3797 61.6198
50.0653 3968 62.9921
50.1827 4049 63.6318
50.3001 4295 65.5362
50.4175 4290 65.4981
50.5348 4528 67.2904
50.6521 4698 68.542
50.7694 4811 69.3614
50.8867 4763 69.0145
51.004 4898 69.9857
51.1212 4921 70.1498
51.2384 4922 70.157
51.3556 4883 69.8785
51.4727 4922 70.157
51.5899 4832 69.5126
51.707 4802 69.2965
51.824 4627 68.0221
51.9411 4840 69.5701
52.0581 4853 69.6635
52.175 5087 71.3232
52.2919 5547 74.4782
52.4088 5566 74.6056
52.5257 5783 76.046
52.6425 5881 76.6877
52.7593 6176 78.5875
52.876 6104 78.1281
52.9927 6246 79.0316
53.1094 6113 78.1857
53.226 5897 76.7919
53.3426 5719 75.6241
53.4591 5442 73.7699
53.5756 5574 74.6592
53.692 6001 77.4661
53.8084 6335 79.5927
53.9248 6322 79.511
54.0411 6568 81.0432
54.1573 6897 83.0482
54.2735 0 1
54.3896 0 1
54.5057 0 1
54.6217 0 1
54.7377 0 1
54.8537 0 1
54.9695 0 1
55.0853 0 1
55.2011 0 1
55.3168 0 1
55.4324 0 1
57.824 0 1
57.9396 0 1
58.0553 0 1
58.1711 0 1
58.2869 0 1
58.4028 0 1
58.5187 0 1
58.6347 0 1
58.7508 0 1
58.8669 0 1
58.983 7388 85.9535
59.0992 8079 89.8833
59.2155 8390 91.5969
59.3318 8450 91.9239
59.4482 8769 93.6429
59.5646 8960 94.6573
59.681 8591 92.6876
59.7975 8929 94.4934
59.9141 8652 93.0161
60.0306 8601 92.7416
60.1473 8471 92.038
60.2639 8395 91.6242
60.3807 7982 89.342
60.4974 7586 87.0976
60.6142 7253 85.1645
60.731 7330 85.6154
60.8479 7259 85.1998
60.9648 7609 87.2296
61.0818 7849 88.5946
61.1987 7922 89.0056
61.3158 7929 89.0449
61.4328 8290 91.0494
61.5499 8213 90.6256
61.667 8201 90.5594
61.7841 8023 89.5712
61.9013 7468 86.4176
62.0185 7376 85.8836
62.1357 7119 84.3742
62.253 6950 83.3667
62.3702 7107 84.303
62.4875 7465 86.4002
62.6049 7653 87.4814
62.7222 7625 87.3212
62.8396 7850 88.6002
62.9569 7928 89.0393
63.0743 7819 88.4251
63.1918 7897 88.8651
63.3092 7999 89.4371
63.4267 7736 87.9545
63.5441 7778 88.193
63.6616 7623 87.3098
63.7791 7521 86.7237
63.8966 7367 85.8312
64.0142 6741 82.1036
64.1317 6581 81.1234
64.2492 6454 80.3368
64.3668 6662 81.6211
64.4843 6769 82.2739
64.6019 6896 83.0422
64.7195 7134 84.463
64.837 7248 85.1352
64.9546 7268 85.2526
65.0722 7450 86.3134
65.1898 7421 86.1452
65.3074 7728 87.909
65.4249 6969 83.4805
65.5425 6931 83.2526
65.6601 6756 82.1949
65.7777 6498 80.6102
65.8952 6466 80.4114
66.0128 6773 82.2982
66.1304 7048 83.9524
66.2479 7265 85.235
66.3655 7364 85.8138
66.483 7523 86.7352
66.6005 7566 86.9828
66.718 7728 87.909
66.8355 7723 87.8806
66.953 7749 88.0284
67.0705 7734 87.9432
67.1879 7751 88.0398
67.3054 7600 87.178
67.4228 7524 86.741
67.5402 7424 86.1626
67.6576 7112 84.3327
67.7749 6605 81.2712
67.8923 6732 82.0488
68.0096 6760 82.2192
68.1269 6922 83.1986
68.2442 7184 84.7585
68.3614 7417 86.122
68.4787 7600 87.178
68.5958 7759 88.0852
68.713 7990 89.3868
68.8302 8227 90.7028
68.9473 8145 90.2497
69.0643 8037 89.6493
69.1814 7596 87.155
69.2984 7207 84.8941
69.4154 7055 83.994
69.5323 6873 82.9036
69.6492 7016 83.7616
69.7661 7526 86.7525
69.8829 7599 87.1722
69.9997 7954 89.1852
70.1165 8149 90.2718
70.2332 8250 90.8295
70.3499 8380 91.5423
70.4665 8564 92.5419
70.5831 8350 91.3783
70.6996 8460 91.9783
70.8161 8278 90.9835
70.9326 8408 91.6951
71.049 8149 90.2718
71.1653 8112 90.0666
71.2817 7876 88.7468
71.3979 7527 86.7583
71.5141 6817 82.5651
71.6303 6593 81.1973
71.7464 6371 79.8185
71.8624 0 1
71.9784 0 1
72.0944 0 1
72.2102 0 1
72.3261 0 1
72.4418 0 1
72.5575 0 1
72.6732 0 1
75.1054 0 1
75.2209 0 1
75.3365 0 1
75.4521 0 1
75.5678 0 1
75.6835 0 1
75.7993 0 1
75.9151 0 1
76.031 0 1
76.147 7448 86.3018
76.263 7951 89.1684
76.3791 7996 89.4204
76.4952 7798 88.3063
76.6113 7589 87.1149
76.7276 7119 84.3742
76.8438 7077 84.1249
76.9601 6970 83.4865
77.0765 7236 85.0647
77.1929 7539 86.8274
77.3093 7743 87.9943
77.4258 7911 88.9438
77.5423 8138 90.2109
77.6589 8362 91.444
77.7755 8534 92.3797
77.8921 8543 92.4284
78.0088 8156 90.3106
78.1256 7742 87.9886
78.2423 7560 86.9483
78.3591 7073 84.1011
78.4759 6694 81.8169
78.5928 6732 82.0488
78.7097 7143 84.5163
78.8266 7578 87.0517
78.9436 8025 89.5824
79.0606 8125 90.1388
79.1776 8116 90.0888
79.2946 8221 90.6697
79.4117 8376 91.5205
79.5288 8207 90.5925
79.6459 8473 92.0489
79.7631 8177 90.4268
79.8802 8153 90.294
79.9974 8215 90.6366
80.1147 8104 90.0222
80.2319 7649 87.4586
80.3491 7342 85.6855
80.4664 6942 83.3187
80.5837 7056 84
80.701 7114 84.3445
80.8183 7284 85.3464
80.9357 7766 88.1249
81.053 7857 88.6397
81.1704 8152 90.2884
81.2877 8226 90.6973
81.4051 8550 92.4662
81.5225 8694 93.2416
81.6399 8334 91.2907
81.7573 8252 90.8405
81.8747 7563 86.9655
81.9922 6874 82.9096
82.1096 6634 81.4494
82.227 6629 81.4187
82.3444 7144 84.5222
82.4619 7665 87.55
82.5793 7797 88.3006
82.6967 7998 89.4315
82.8142 8105 90.0278
82.9316 8244 90.7965
83.049 8381 91.5478
83.1664 8362 91.444
83.2838 8282 91.0055
83.4012 8199 90.5483
83.5186 8301 91.1098
83.636 8515 92.2768
83.7534 8158 90.3216
83.8708 7779 88.1986
83.9881 7397 86.0058
84.1055 7032 83.857
84.2228 7097 84.2437
84.3401 7193 84.8116
84.4575 7468 86.4176
84.5747 7663 87.5386
84.692 8079 89.8833
84.8093 8363 91.4494
84.9265 8618 92.8332
85.0437 8892 94.2974
85.1609 8865 94.1541
85.2781 8602 92.747
85.3952 8041 89.6716
85.5123 7667 87.5614
85.6294 7166 84.6522
85.7465 7129 84.4334
85.8636 7127 84.4216
85.9806 7637 87.3899
86.0976 8248 90.8185
86.2145 8419 91.7551
86.3315 8525 92.3309
86.4484 8836 94
86.5652 8994 94.8367
86.682 9096 95.373
86.7988 9009 94.9158
86.9156 9042 95.0894
87.0323 8905 94.3663
87.149 8822 93.9255
87.2657 8856 94.1063
87.3823 8638 92.9408
87.4988 8334 91.2907
87.6154 7913 88.955
87.7318 7697 87.7325
87.8483 7711 87.8123
87.9647 7825 88.459
88.081 8097 89.9833
88.1973 8421 91.766
88.3136 8634 92.9193
88.4298 8867 94.1647
88.546 9250 96.1769
88.6621 9282 96.3431
88.7781 9163 95.7236
88.8942 0 1
89.0101 0 1
89.126 0 1
89.2419 0 1
89.3577 0 1
89.4734 0 1
89.5891 0 1
89.7047 0 1
89.8203 0 1
89.9358 0 1
92.3269 0 1
92.4424 0 1
92.558 0 1
92.6736 0 1
92.7893 0 1
92.905 0 1
93.0208 0 1
93.1366 0 1
93.2525 0 1
93.3685 0 1
93.4845 0 1
93.6005 8098 89.9889
93.7167 8554 92.4878
93.8328 8559 92.5149
93.949 8740 93.488
94.0653 8521 92.3093
94.1816 8544 92.4338
94.2979 8098 89.9889
94.4143 7620 87.2926
94.5307 7062 84.0357
94.6472 6890 83.006
94.7637 7013 83.7437
94.8803 7368 85.8371
94.9969 7772 88.1589
95.1135 8004 89.4651
95.2302 8246 90.8075
95.3469 8239 90.7689
95.4637 8406 91.6842
95.5805 8464 92
95.6973 8727 93.4184
95.8142 8725 93.4077
95.9311 8722 93.3916
96.048 8668 93.1021
96.1649 8591 92.6876
96.2819 8301 91.1098
96.3989 8328 91.2579
96.516 8079 89.8833
96.633 7610 87.2353
96.7501 7271 85.2702
96.8673 7349 85.7263
96.9844 7416 86.1162
97.1016 7591 87.1263
97.2188 7807 88.3572
97.336 8180 90.4434
97.4532 8379 91.5369
97.5704 8536 92.3905
97.6877 8542 92.4229
97.805 8716 93.3595
97.9223 8237 90.7579
98.0396 7746 88.0114
98.1569 7493 86.5621
98.2743 7118 84.3682
98.3916 6899 83.0602
98.509 7250 85.1469
98.6264 7441 86.2612
98.7438 7634 87.3728
98.8612 7861 88.6623
98.9786 8118 90.0999
99.096 8041 89.6716
99.2134 8326 91.2469
99.3308 8384 91.5642
99.4482 8430 91.815
99.5656 8350 91.3783
99.6831 8363 91.4494
99.8005 8276 90.9725
99.9179 8116 90.0888
100.035 7988 89.3756
100.153 7546 86.8677
100.27 7199 84.8469
100.388 6970 83.4865
100.505 7018 83.7735
100.622 7115 84.3505
100.74 7579 87.0575
100.857 7604 87.2009
100.975 8061 89.7831
101.092 8052 89.7329
101.209 8277 90.978
101.327 8738 93.4773
101.444 8679 93.1612
101.561 8276 90.9725
101.679 7996 89.4204
101.796 7389 85.9593
101.913 6924 83.2106
102.03 6976 83.5225
102.148 7255 85.1763
102.265 7129 84.4334
102.382 8523 92.3201
102.499 8377 91.526
102.616 8486 92.1195
102.733 8627 92.8816
102.851 8614 92.8116
102.968 8821 93.9202
103.085 8815 93.8882
103.202 8745 93.5147
103.319 8861 94.1329
103.436 8702 93.2845
103.552 8422 91.7715
103.669 8476 92.0652
103.786 7851 88.6059
103.903 7501 86.6083
104.02 7556 86.9253
104.137 7757 88.0738
104.253 7884 88.7919
104.37 8231 90.7249
104.487 8655 93.0323
104.603 8771 93.6536
104.72 9008 94.9105
104.836 9143 95.619
104.953 9210 95.9687
105.069 8616 92.8224
105.186 8188 90.4876
105.302 7525 86.7468
105.418 7212 84.9235
105.535 7299 85.4342
105.651 7712 87.818
105.767 8225 90.6918
105.883 8406 91.6842
105.999 8581 92.6337
106.115 0 1
106.231 0 1
106.347 0 1
106.463 0 1
106.579 0 1
106.694 0 1
106.81 0 1
106.926 0 1
107.041 0 1
107.157 0 1
109.576 0 1
109.692 0 1
109.807 0 1
109.923 0 1
110.039 0 1
110.155 0 1
110.27 0 1
110.386 0 1
110.502 0 1
110.618 6171 78.5557
110.735 6896 83.0422
110.851 7372 85.8604
110.967 7604 87.2009
111.083 7872 88.7243
111.199 7942 89.1179
111.316 8016 89.5321
111.432 8089 89.9389
111.549 7976 89.3085
111.665 7934 89.073
111.782 7899 88.8763
111.898 7914 88.9607
112.015 7679 87.6299
112.132 7551 86.8965
112.248 7373 85.8662
112.365 6880 82.9458
112.482 6907 83.1084
112.599 6318 79.4858
112.716 6525 80.7775
112.832 6577 81.0987
112.949 6791 82.4075
113.066 7118 84.3682
113.183 7140 84.4985
113.3 7523 86.7352
113.417 7531 86.7813
113.534 7458 86.3597
113.652 7288 85.3698
113.769 6670 81.6701
113.886 6209 78.7972
114.003 5979 77.324
114.12 5746 75.8024
114.238 6049 77.7753
114.355 6258 79.1075
114.472 6517 80.7279
114.589 6572 81.0679
114.707 6647 81.5291
114.824 6731 82.0427
114.942 6685 81.7618
115.059 6734 82.061
115.176 6640 81.4862
115.294 6514 80.7094
115.411 6424 80.1499
115.529 6101 78.1089
115.646 6164 78.5111
115.764 5838 76.4068
115.881 5712 75.5778
115.999 5468 73.9459
116.116 5286 72.7049
116.234 5275 72.6292
116.351 5235 72.3533
116.469 5419 73.6139
116.586 5663 75.2529
116.704 5665 75.2662
116.821 5758 75.8815
116.939 5900 76.8115
117.056 5913 76.896
117.174 5838 76.4068
117.291 5703 75.5182
117.409 5169 71.8958
117.526 5013 70.8025
117.644 4800 69.282
117.761 4844 69.5989
117.879 5196 72.0833
117.996 5255 72.4914
118.114 5547 74.4782
118.231 5730 75.6968
118.349 5847 76.4657
118.466 5818 76.2758
118.584 5967 77.2464
118.701 5914 76.9025
118.819 5759 75.8881
118.936 5727 75.6769
119.053 5755 75.8617
119.171 5753 75.8485
119.288 5703 75.5182
119.405 5610 74.8999
119.523 5350 73.1437
119.64 5149 71.7565
119.757 5196 72.0833
119.875 5261 72.5328
119.992 5518 74.2832
120.109 5465 73.9256
120.226 5859 76.5441
120.343 5828 76.3413
120.46 6057 77.8267
120.578 6102 78.1153
120.695 6480 80.4984
120.812 6375 79.8436
120.929 6331 79.5676
121.046 6052 77.7946
121.163 5666 75.2728
121.279 5523 74.3169
121.396 5412 73.5663
121.513 5735 75.7298
121.63 6066 77.8845
121.747 6279 79.2401
121.863 6535 80.8393
121.98 6758 82.2071
122.097 6810 82.5227
122.213 6990 83.6062
122.33 6967 83.4686
122.446 6924 83.2106
122.563 6920 83.1865
122.679 6847 82.7466
122.795 6707 81.8963
122.912 6652 81.5598
123.028 6552 80.9444
123.144 6530 80.8084
123.26 6203 78.7591
123.377 0 1
123.493 0 1
123.609 0 1
123.725 0 1
123.84 0 1
123.956 0 1
124.072 0 1
124.188 0 1
124.303 0 1
124.419 0 1
126.852 0 1
126.968 0 1
127.083 0 1
127.199 0 1
127.315 0 1
127.431 0 1
127.547 0 1
127.663 0 1
127.779 0 1
127.895 0 1
128.011 0 1
128.127 0 1
128.243 0 1
128.359 7888 88.8144
128.476 7810 88.3742
128.592 7499 86.5968
128.708 7220 84.9706
128.825 7098 84.2496
128.941 7137 84.4808
129.058 7202 84.8646
129.174 7525 86.7468
129.291 7613 87.2525
129.408 7979 89.3252
129.524 8093 89.9611
129.641 8100 90
129.758 8139 90.2164
129.875 8246 90.8075
129.992 7820 88.4308
130.108 7349 85.7263
130.225 6972 83.4985
130.342 6902 83.0783
130.459 6550 80.9321
130.576 6710 81.9146
130.693 7267 85.2467
130.81 7423 86.1568
130.928 7492 86.5563
131.045 7715 87.8351
131.162 7738 87.9659
131.279 7987 89.37
131.396 7920 88.9944
131.513 7872 88.7243
131.631 7860 88.6566
131.748 7657 87.5043
131.865 7510 86.6603
131.983 7535 86.8044
132.1 7126 84.4156
132.217 6834 82.668
132.335 6567 81.037
132.452 6675 81.7007
132.57 6889 83
132.687 6967 83.4686
132.804 7481 86.4928
132.922 7510 86.6603
133.039 7703 87.7667
133.157 7837 88.5268
133.274 7714 87.8294
133.392 7626 87.327
133.509 7648 87.4528
133.627 7220 84.9706
133.744 6822 82.5954
133.862 6453 80.3306
133.979 6304 79.3977
134.097 6591 81.185
134.214 6987 83.5883
134.332 7023 83.8033
134.449 7301 85.4459
134.567 7327 85.5979
134.684 7573 87.023
134.802 7549 86.885
134.919 7496 86.5794
135.037 7295 85.4108
135.154 7309 85.4927
135.272 7088 84.1903
135.389 6895 83.0361
135.507 6819 82.5772
135.624 6579 81.111
135.742 6244 79.019
135.859 5947 77.1168
135.977 5922 76.9545
136.094 5780 76.0263
136.211 6026 77.6273
136.329 6098 78.0897
136.446 6329 79.555
136.564 6354 79.712
136.681 6317 79.4796
136.798 6484 80.5233
136.915 6530 80.8084
137.033 6386 79.9125
137.15 6228 78.9177
137.267 5790 76.092
137.384 5645 75.1332
137.502 5560 74.5654
137.619 5468 73.9459
137.736 5841 76.4264
137.853 5992 77.408
137.97 6172 78.5621
138.087 6543 80.8888
138.204 6646 81.523
138.321 6858 82.813
138.438 6904 83.0903
138.555 6973 83.5045
138.672 7069 84.0773
138.788 7049 83.9583
138.905 6973 83.5045
139.022 6968 83.4745
139.139 6950 83.3667
139.255 6855 82.7949
139.372 6651 81.5537
139.488 6539 80.8641
139.605 6409 80.0562
139.721 6471 80.4425
139.838 6803 82.4803
139.954 7115 84.3505
140.071 7318 85.5453
140.187 7624 87.3155
140.303 7444 86.2786
140.419 7752 88.0454
140.535 7698 87.7382
140.652 7765 88.1192
140.768 0 1
140.884 0 1
141 0 1
141.115 0 1
141.231 0 1
141.347 0 1
141.463 0 1
141.578 0 1
141.694 0 1
144.104 0 1
144.219 0 1
144.335 0 1
144.45 0 1
144.566 0 1
144.682 0 1
144.798 0 1
144.914 0 1
145.03 0 1
145.146 10130 100.648
145.262 11222 105.934
145.378 11830 108.766
145.494 12500 111.803
145.61 13200 114.891
145.726 13908 117.932
145.842 13887 117.843
145.959 14274 119.474
146.075 14047 118.52
146.192 13802 117.482
146.308 13755 117.282
146.425 14328 119.7
146.541 15863 125.948
146.658 17180 131.072
146.774 18441 135.798
146.891 19652 140.186
147.008 20713 143.92
147.125 21980 148.257
147.241 22629 150.429
147.358 23626 153.708
147.475 23628 153.714
147.592 23939 154.722
147.709 23690 153.916
147.826 23749 154.107
147.943 23774 154.188
148.06 23325 152.725
148.177 23016 151.71
148.294 22658 150.526
148.411 22937 151.45
148.528 23271 152.548
148.645 23829 154.366
148.762 24580 156.78
148.88 25866 160.829
148.997 26963 164.204
149.114 24525 156.605
149.231 25910 160.966
149.349 25304 159.072
149.466 25246 158.89
149.583 23865 154.483
149.701 22249 149.161
149.818 21106 145.279
149.935 20547 143.342
150.053 20649 143.698
150.17 21452 146.465
150.287 22483 149.943
150.405 22846 151.149
150.522 23707 153.971
150.64 24117 155.296
150.757 24858 157.664
150.875 25120 158.493
150.992 24665 157.051
151.11 25371 159.283
151.227 24685 157.115
151.344 24214 155.608
151.462 23852 154.441
151.579 23529 153.392
151.697 23375 152.889
151.814 22764 150.877
151.932 22320 149.399
152.049 23051 151.826
152.167 23815 154.321
152.284 24801 157.483
152.402 25519 159.747
152.519 26701 163.404
152.636 27184 164.876
152.754 27648 166.277
152.871 27372 165.445
152.989 27679 166.37
153.106 26314 162.216
153.223 24935 157.908
153.341 23802 154.279
153.458 22727 150.755
153.575 22661 150.536
153.693 23306 152.663
153.81 24458 156.391
153.927 25130 158.524
154.044 26377 162.41
154.162 26897 164.003
154.279 28013 167.371
154.396 28831 169.797
154.513 29543 171.881
154.63 29776 172.557
154.747 29833 172.722
154.864 29699 172.334
154.981 29204 170.892
155.098 29009 170.32
155.215 28651 169.266
155.332 28237 168.039
155.449 27861 166.916
155.566 27625 166.208
155.683 28413 168.562
155.8 29153 170.742
155.917 30799 175.496
156.033 31564 177.663
156.15 0 1
156.267 0 1
156.383 0 1
156.5 0 1
156.617 0 1
156.733 0 1
156.85 0 1
156.966 0 1
157.082 0 1
157.199 0 1
157.315 0 1
157.431 0 1
157.547 0 1
157.664 0 1
157.78 0 1
157.896 0 1
158.012 0 1
158.128 0 1
158.244 0 1
158.359 0 1
158.475 0 1
158.591 0 1
158.706 0 1
