
6.15755 0 1
6.2731 0 1
6.3887 0 1
6.50437 0 1
6.62009 0 1
6.73587 0 1
6.8517 0 1
6.96759 0 1
7.08353 0 1
7.19952 0 1
7.31557 0 1
7.43166 0 1
7.54781 0 1
7.664 0 1
7.78024 0 1
7.89653 0 1
8.01286 0 1
8.12924 0 1
8.24567 0 1
8.36213 0 1
8.47864 0 1
8.59519 0 1
8.71178 0 1
8.82841 0 1
8.94508 0 1
9.06179 0 1
9.17853 0 1
9.29531 0 1
9.41212 0 1
9.52897 0 1
9.64584 0 1
9.76276 0 1
9.8797 0 1
9.99667 0 1
10.1137 0 1
10.2307 0 1
10.3478 0 1
10.4648 0 1
10.5819 0 1
10.6991 0 1
10.8162 0 1
10.9334 0 1
11.0506 0 1
11.1678 0 1
11.285 0 1
11.4023 0 1
11.5196 0 1
11.6369 0 1
11.7542 0 1
11.8715 0 1
11.9888 0 1
12.1062 0 1
12.2235 0 1
12.3409 0 1
12.4582 0 1
12.5756 0 1
12.693 0 1
12.8104 0 1
12.9278 0 1
13.0452 0 1
13.1626 0 1
13.28 0 1
13.3974 0 1
13.5149 0 1
13.6323 0 1
13.7497 0 1
13.8671 0 1
13.9845 0 1
14.1019 0 1
14.2193 0 1
14.3367 0 1
14.4541 0 1
14.5714 0 1
14.6888 0 1
14.8062 0 1
14.9235 0 1
15.0408 0 0
15.1581 0 0
15.2755 0 0
15.3927 0 0
15.51 0 0
15.6273 0 0
15.7445 0 0
15.8617 0 0
15.9789 0 0
16.0961 0 0
16.2132 0 0
16.3304 0 0
16.4475 0 0
16.5646 0 0
16.6816 0 0
16.7986 0 0
16.9156 0 0
17.0326 0 0
17.1496 0 0
17.2665 0 0
17.3833 0 0
17.5002 0 0
17.617 0 0
17.7338 0 0
17.8505 0 0
17.9672 0 0
18.0839 0 0
18.2005 0 0
18.3171 0 0
18.4337 0 0
18.5502 0 0
18.6666 0 0
18.7831 0 0
18.8994 0 0
19.0158 0 0
19.1321 0 0
19.2483 0 0
19.3645 0 0
19.4806 0 0
19.5967 0 0
19.7128 0 0
19.8288 0 0
19.9447 0 0
20.0606 0 1
20.1764 0 1
20.2922 0 1
20.4079 0 1
20.5236 0 1
20.6392 0 1
20.7548 0 1
20.8702 0 1
23.3078 0 1
23.4233 0 1
23.539 0 1
23.6547 0 1
23.7704 0 1
23.8862 0 1
24.0021 0 1
24.118 0 1
24.234 0 1
24.35 0 1
24.4661 7260 85.2056
24.5822 7387 85.9477
24.6984 7391 85.9709
24.8146 7287 85.3639
24.9309 7277 85.3053
25.0472 7035 83.8749
25.1636 6978 83.5344
25.28 7068 84.0714
25.3965 7092 84.214
25.513 7143 84.5163
25.6296 7317 85.5395
25.7462 7615 87.264
25.8628 7513 86.6776
25.9795 7494 86.5679
26.0962 7325 85.5862
26.213 7362 85.8021
26.3298 7313 85.5161
26.4466 7258 85.1939
26.5635 7208 84.8999
26.6804 7404 86.0465
26.7973 7190 84.7939
26.9143 7452 86.325
27.0313 7635 87.3785
27.1483 7870 88.713
27.2653 7881 88.775
27.3824 8015 89.5265
27.4996 7995 89.4148
27.6167 7818 88.4195
27.7339 7780 88.2043
27.8511 7571 87.0115
27.9683 7509 86.6545
28.0855 7433 86.2148
28.2028 7196 84.8292
28.3201 7055 83.994
28.4374 6877 82.9277
28.5547 6606 81.2773
28.6721 6571 81.0617
28.7894 6497 80.604
28.9068 6418 80.1124
29.0242 6176 78.5875
29.1416 6151 78.4283
29.259 6165 78.5175
29.3764 6164 78.5111
29.4939 6086 78.0128
29.6113 6270 79.1833
29.7288 6347 79.6681
29.8463 6222 78.8797
29.9638 6584 81.1419
30.0812 6544 80.895
30.1987 6653 81.5659
30.3162 6917 83.1685
30.4337 7003 83.6839
30.5512 7229 85.0235
30.6687 7279 85.3171
30.7862 7422 86.151
30.9037 7584 87.0862
31.0212 7539 86.8274
31.1387 7663 87.5386
31.2562 7592 87.1321
31.3737 7522 86.7295
31.4912 7283 85.3405
31.6087 7236 85.0647
31.7262 7227 85.0118
31.8436 7081 84.1487
31.9611 6823 82.6015
32.0785 6530 80.8084
32.1959 6507 80.666
32.3134 6352 79.6994
32.4308 6145 78.3901
32.5482 5998 77.4468
32.6655 5998 77.4468
32.7829 5962 77.214
32.9002 5947 77.1168
33.0176 6107 78.1473
33.1349 6186 78.6511
33.2522 5911 76.883
33.3694 6243 79.0127
33.4867 6300 79.3725
33.6039 6541 80.8764
33.7211 6574 81.0802
33.8383 6651 81.5537
33.9554 6890 83.006
34.0725 6962 83.4386
34.1896 7175 84.7054
34.3067 7190 84.7939
34.4237 7495 86.5737
34.5407 7527 86.7583
34.6577 7570 87.0057
34.7746 7472 86.4407
34.8915 7597 87.1608
35.0084 7426 86.1742
35.1252 7328 85.6037
35.242 7191 84.7998
35.3587 7178 84.7231
35.4755 7078 84.1309
35.5921 6876 82.9216
35.7088 6570 81.0555
35.8254 6482 80.5109
35.9419 6262 79.1328
36.0584 6101 78.1089
36.1749 5820 76.2889
36.2913 5826 76.3282
36.4077 5877 76.6616
36.524 5707 75.5447
36.6403 5785 76.0592
36.7565 5988 77.3822
36.8727 5968 77.2528
36.9889 5947 77.1168
37.1049 5998 77.4468
37.221 0 1
37.3369 0 1
37.4529 0 1
37.5687 0 1
37.6845 0 1
37.8003 0 1
37.916 0 1
38.0316 0 1
38.1472 0 1
40.5851 0 1
40.7008 0 1
40.8164 0 1
40.9322 0 1
41.048 0 1
41.1639 0 1
41.2798 0 1
41.3958 0 1
41.5118 0 1
41.6279 0 1
41.744 4695 68.5201
41.8602 4898 69.9857
41.9765 5029 70.9154
42.0928 5143 71.7147
42.2091 5279 72.6567
42.3255 5273 72.6154
42.4419 5255 72.4914
42.5584 5286 72.7049
42.675 5502 74.1755
42.7915 5746 75.8024
42.9081 5872 76.629
43.0248 6269 79.177
43.1415 6017 77.5693
43.2582 6061 77.8524
43.375 6222 78.8797
43.4918 6435 80.2185
43.6087 6391 79.9437
43.7256 6337 79.6053
43.8425 6295 79.341
43.9595 6159 78.4793
44.0765 6202 78.7528
44.1935 6050 77.7817
44.3106 5919 76.935
44.4277 5501 74.1687
44.5448 5418 73.6071
44.6619 5026 70.8943
44.7791 4830 69.4982
44.8963 4613 67.9191
45.0136 4702 68.5711
45.1308 4521 67.2384
45.2481 4438 66.6183
45.3654 4442 66.6483
45.4827 4407 66.3852
45.6001 4457 66.7608
45.7174 4468 66.8431
45.8348 4527 67.283
45.9522 4584 67.7052
46.0697 4557 67.5056
46.1871 4606 67.8675
46.3046 4757 68.971
46.422 4922 70.157
46.5395 5014 70.8096
46.657 5197 72.0902
46.7745 5167 71.8818
46.892 5336 73.0479
47.0096 5208 72.1665
47.1271 5452 73.8377
47.2446 5325 72.9726
47.3622 5197 72.0902
47.4797 5331 73.0137
47.5973 5053 71.0845
47.7149 4939 70.278
47.8324 4830 69.4982
47.95 4544 67.4092
48.0675 4389 66.2495
48.1851 4123 64.2106
48.3027 3960 62.9285
48.4202 3852 62.0645
48.5378 3598 59.9833
48.6554 3634 60.2827
48.7729 3686 60.7124
48.8904 3788 61.5467
49.008 3861 62.1369
49.1255 3979 63.0793
49.243 4064 63.7495
49.3605 4025 63.4429
49.478 3955 62.8888
49.5955 4008 63.3088
49.713 4363 66.053
49.8304 4441 66.6408
49.9479 4587 67.7274
50.0653 4789 69.2026
50.1827 5104 71.4423
50.3001 5257 72.5052
50.4175 5589 74.7596
50.5348 5722 75.6439
50.6521 5931 77.013
50.7694 6094 78.0641
50.8867 6171 78.5557
51.004 6273 79.2023
51.1212 6359 79.7433
51.2384 6569 81.0494
51.3556 6441 80.2558
51.4727 6191 78.6829
51.5899 5810 76.2234
51.707 5366 73.253
51.824 5299 72.7942
51.9411 5274 72.6223
52.0581 5128 71.6101
52.175 4929 70.2068
52.2919 4993 70.6612
52.4088 4957 70.406
52.5257 5343 73.0958
52.6425 5381 73.3553
52.7593 5459 73.885
52.876 5624 74.9933
52.9927 5678 75.3525
53.1094 5637 75.08
53.226 5984 77.3563
53.3426 5998 77.4468
53.4591 6440 80.2496
53.5756 6901 83.0723
53.692 6927 83.2286
53.8084 7298 85.4283
53.9248 7644 87.43
54.0411 7850 88.6002
54.1573 8118 90.0999
54.2735 0 1
54.3896 0 1
54.5057 0 1
54.6217 0 1
54.7377 0 1
54.8537 0 1
54.9695 0 1
55.0853 0 1
55.2011 0 1
55.3168 0 1
55.4324 0 1
57.824 0 1
57.9396 0 1
58.0553 0 1
58.1711 0 1
58.2869 0 1
58.4028 0 1
58.5187 0 1
58.6347 0 1
58.7508 0 1
58.8669 0 1
58.983 8398 91.6406
59.0992 8882 94.2444
59.2155 9301 96.4417
59.3318 9686 98.4175
59.4482 9736 98.6712
59.5646 9944 99.7196
59.681 9815 99.0707
59.7975 9850 99.2472
59.9141 9260 96.2289
60.0306 8575 92.6013
60.1473 7849 88.5946
60.2639 7689 87.6869
60.3807 7164 84.6404
60.4974 6766 82.2557
60.6142 6500 80.6226
60.731 6122 78.2432
60.8479 6040 77.7174
60.9648 6145 78.3901
61.0818 6422 80.1374
61.1987 6589 81.1727
61.3158 6794 82.4257
61.4328 6627 81.4064
61.5499 6497 80.604
61.667 6609 81.2958
61.7841 6629 81.4187
61.9013 6841 82.7103
62.0185 7118 84.3682
62.1357 7254 85.1704
62.253 7476 86.4639
62.3702 7820 88.4308
62.4875 8186 90.4765
62.6049 8715 93.3542
62.7222 9248 96.1665
62.8396 9266 96.2601
62.9569 9401 96.9588
63.0743 9517 97.5551
63.1918 9522 97.5807
63.3092 9075 95.2628
63.4267 8840 94.0213
63.5441 8013 89.5154
63.6616 7517 86.7006
63.7791 6855 82.7949
63.8966 6458 80.3617
64.0142 6180 78.613
64.1317 5628 75.02
64.2492 5436 73.7292
64.3668 5252 72.4707
64.4843 5314 72.8972
64.6019 5652 75.1798
64.7195 6002 77.4726
64.837 6172 78.5621
64.9546 6206 78.7782
65.0722 5887 76.7268
65.1898 6009 77.5177
65.3074 6143 78.3773
65.4249 6058 77.8332
65.5425 6142 78.3709
65.6601 6502 80.635
65.7777 6896 83.0422
65.8952 7240 85.0882
66.0128 7789 88.2553
66.1304 8088 89.9333
66.2479 8539 92.4067
66.3655 8767 93.6323
66.483 8958 94.6467
66.6005 9038 95.0684
66.718 8882 94.2444
66.8355 8957 94.6414
66.953 8633 92.9139
67.0705 8020 89.5545
67.1879 7290 85.3815
67.3054 6794 82.4257
67.4228 6316 79.4733
67.5402 5706 75.5381
67.6576 5379 73.3417
67.7749 5244 72.4155
67.8923 5049 71.0563
68.0096 5123 71.5751
68.1269 5407 73.5323
68.2442 6004 77.4855
68.3614 6277 79.2275
68.4787 6485 80.5295
68.5958 6365 79.781
68.713 6112 78.1793
68.8302 6102 78.1153
68.9473 6008 77.5113
69.0643 6030 77.6531
69.1814 6096 78.0769
69.2984 6554 80.9568
69.4154 6944 83.3307
69.5323 7253 85.1645
69.6492 7796 88.295
69.7661 8548 92.4554
69.8829 8899 94.3345
69.9997 9241 96.1301
70.1165 9492 97.4269
70.2332 9461 97.2677
70.3499 9565 97.8008
70.4665 9310 96.4883
70.5831 8648 92.9946
70.6996 8020 89.5545
70.8161 7380 85.9069
70.9326 6749 82.1523
71.049 6408 80.05
71.1653 5831 76.361
71.2817 5505 74.1957
71.3979 5232 72.3326
71.5141 5037 70.9718
71.6303 5109 71.4773
71.7464 4685 68.4471
71.8624 0 1
71.9784 0 1
72.0944 0 1
72.2102 0 1
72.3261 0 1
72.4418 0 1
72.5575 0 1
72.6732 0 1
75.1054 0 1
75.2209 0 1
75.3365 0 1
75.4521 0 1
75.5678 0 1
75.6835 0 1
75.7993 0 1
75.9151 0 1
76.031 0 1
76.147 6799 82.456
76.263 6631 81.431
76.3791 6134 78.3199
76.4952 5747 75.809
76.6113 5483 74.0473
76.7276 5522 74.3102
76.8438 5228 72.3049
76.9601 5309 72.8629
77.0765 5550 74.4983
77.1929 5865 76.5833
77.3093 6662 81.6211
77.4258 6904 83.0903
77.5423 6973 83.5045
77.6589 6695 81.823
77.7755 6015 77.5564
77.8921 6101 78.1089
78.0088 6082 77.9872
78.1256 6009 77.5177
78.2423 6209 78.7972
78.3591 6400 80
78.4759 6996 83.6421
78.5928 7418 86.1278
78.7097 8004 89.4651
78.8266 9091 95.3467
78.9436 9015 94.9474
79.0606 9368 96.7884
79.1776 9437 97.1442
79.2946 9639 98.1784
79.4117 9535 97.6473
79.5288 9486 97.3961
79.6459 8952 94.615
79.7631 8327 91.2524
79.8802 7431 86.2032
79.9974 6734 82.061
80.1147 6142 78.3709
80.2319 5710 75.5645
80.3491 5378 73.3348
80.4664 5410 73.5527
80.5837 5234 72.3464
80.701 5168 71.8888
80.8183 5636 75.0733
80.9357 6199 78.7337
81.053 6828 82.6317
81.1704 6706 81.8902
81.2877 6387 79.9187
81.4051 5903 76.831
81.5225 5870 76.6159
81.6399 5634 75.06
81.7573 5481 74.0338
81.8747 5696 75.4718
81.9922 6052 77.7946
82.1096 6384 79.8999
82.227 6961 83.4326
82.3444 7536 86.8101
82.4619 8322 91.225
82.5793 8505 92.2226
82.6967 9102 95.4044
82.8142 8940 94.5516
82.9316 8854 94.0957
83.049 8977 94.747
83.1664 8506 92.228
83.2838 7884 88.7919
83.4012 7034 83.8689
83.5186 6523 80.7651
83.636 6149 78.4156
83.7534 5631 75.04
83.8708 5158 71.8192
83.9881 4952 70.3704
84.1055 4878 69.8427
84.2228 4632 68.0588
84.3401 4832 69.5126
84.4575 5329 73
84.5747 6296 79.3473
84.692 6536 80.8455
84.8093 6868 82.8734
84.9265 6198 78.7274
85.0437 5708 75.5513
85.1609 5485 74.0608
85.2781 5401 73.4915
85.3952 5451 73.8309
85.5123 5664 75.2596
85.6294 5897 76.7919
85.7465 6483 80.5171
85.8636 7137 84.4808
85.9806 7597 87.1608
86.0976 8392 91.6079
86.2145 9037 95.0631
86.3315 9394 96.9226
86.4484 9716 98.5698
86.5652 9700 98.4886
86.682 9545 97.6985
86.7988 9053 95.1473
86.9156 8402 91.6624
87.0323 7512 86.6718
87.149 7013 83.7437
87.2657 6698 81.8413
87.3823 6169 78.543
87.4988 5894 76.7724
87.6154 5822 76.302
87.7318 5728 75.6836
87.8483 5887 76.7268
87.9647 6153 78.4411
88.081 7026 83.8212
88.1973 7639 87.4014
88.3136 7876 88.7468
88.4298 7705 87.7781
88.546 6573 81.074
88.6621 6006 77.4984
88.7781 5572 74.6458
88.8942 0 1
89.0101 0 1
89.126 0 1
89.2419 0 1
89.3577 0 1
89.4734 0 1
89.5891 0 1
89.7047 0 1
89.8203 0 1
89.9358 0 1
92.3269 0 1
92.4424 0 1
92.558 0 1
92.6736 0 1
92.7893 0 1
92.905 0 1
93.0208 0 1
93.1366 0 1
93.2525 0 1
93.3685 0 1
93.4845 0 1
93.6005 6737 82.0792
93.7167 7032 83.857
93.8328 7161 84.6227
93.949 6767 82.2618
94.0653 6405 80.0312
94.1816 6032 77.666
94.2979 6090 78.0385
94.4143 6018 77.5758
94.5307 6238 78.981
94.6472 6483 80.5171
94.7637 6912 83.1384
94.8803 7650 87.4643
94.9969 7992 89.398
95.1135 8954 94.6256
95.2302 9541 97.678
95.3469 9904 99.5188
95.4637 10082 100.409
95.5805 10221 101.099
95.6973 10423 102.093
95.8142 10288 101.43
95.9311 9679 98.3819
96.048 9078 95.2785
96.1649 8558 92.5095
96.2819 7955 89.1908
96.3989 7469 86.4234
96.516 7064 84.0476
96.633 6481 80.5047
96.7501 6078 77.9615
96.8673 5760 75.8947
96.9844 5945 77.1038
97.1016 6284 79.2717
97.2188 6593 81.1973
97.336 7394 85.9884
97.4532 7792 88.2723
97.5704 7711 87.8123
97.6877 7264 85.2291
97.805 6713 81.9329
97.9223 6066 77.8845
98.0396 5972 77.2787
98.1569 6043 77.7367
98.2743 6239 78.9873
98.3916 6483 80.5171
98.509 7226 85.0059
98.6264 7449 86.3076
98.7438 8129 90.161
98.8612 8910 94.3928
98.9786 9817 99.0808
99.096 10265 101.316
99.2134 10336 101.666
99.3308 10788 103.865
99.4482 10538 102.655
99.5656 10011 100.055
99.6831 9244 96.1457
99.8005 8820 93.9149
99.9179 8083 89.9055
100.035 7726 87.8977
100.153 6945 83.3367
100.27 6524 80.7713
100.388 6263 79.1391
100.505 6154 78.4474
100.622 6209 78.7972
100.74 6516 80.7217
100.857 6924 83.2106
100.975 7632 87.3613
101.092 7913 88.955
101.209 7792 88.2723
101.327 7047 83.9464
101.444 6410 80.0625
101.561 6311 79.4418
101.679 6520 80.7465
101.796 6648 81.5353
101.913 6895 83.0361
102.03 7405 86.0523
102.148 8299 91.0988
102.265 9476 97.3447
102.382 9805 99.0202
102.499 10777 103.812
102.616 11352 106.546
102.733 11371 106.635
102.851 11657 107.968
102.968 11586 107.638
103.085 11221 105.929
103.202 10449 102.22
103.319 9747 98.7269
103.436 9147 95.6399
103.552 8529 92.3526
103.669 7844 88.5664
103.786 7399 86.0174
103.903 7000 83.666
104.02 7027 83.8272
104.137 6898 83.0542
104.253 7394 85.9884
104.37 7771 88.1533
104.487 8640 92.9516
104.603 8688 93.2094
104.72 8254 90.8515
104.836 7857 88.6397
104.953 7291 85.3874
105.069 7315 85.5278
105.186 7459 86.3655
105.302 7449 86.3076
105.418 8014 89.5209
105.535 8617 92.8278
105.651 9380 96.8504
105.767 10528 102.606
105.883 11371 106.635
105.999 11694 108.139
106.115 0 1
106.231 0 1
106.347 0 1
106.463 0 1
106.579 0 1
106.694 0 1
106.81 0 1
106.926 0 1
107.041 0 1
107.157 0 1
109.576 0 1
109.692 0 1
109.807 0 1
109.923 0 1
110.039 0 1
110.155 0 1
110.27 0 1
110.386 0 1
110.502 0 1
110.618 8248 90.8185
110.735 9336 96.623
110.851 10174 100.866
110.967 11087 105.295
111.083 11427 106.897
111.199 11489 107.187
111.316 11568 107.555
111.432 11415 106.841
111.549 11296 106.283
111.665 10794 103.894
111.782 9879 99.3932
111.898 9438 97.1494
112.015 8699 93.2684
112.132 8162 90.3438
112.248 7859 88.651
112.365 7279 85.3171
112.482 7093 84.22
112.599 6621 81.3695
112.716 6876 82.9216
112.832 7034 83.8689
112.949 7342 85.6855
113.066 7575 87.0345
113.183 7290 85.3815
113.3 6914 83.1505
113.417 6277 79.2275
113.534 6395 79.9687
113.652 6381 79.8812
113.769 6651 81.5537
113.886 6500 80.6226
114.003 7200 84.8528
114.12 7747 88.017
114.238 8616 92.8224
114.355 9484 97.3858
114.472 9912 99.559
114.589 10355 101.76
114.707 10375 101.858
114.824 10612 103.015
114.942 10503 102.484
115.059 10445 102.201
115.176 10277 101.376
115.294 9545 97.6985
115.411 9051 95.1367
115.529 8578 92.6175
115.646 8191 90.5041
115.764 7737 87.9602
115.881 7466 86.406
115.999 7057 84.006
116.116 6877 82.9277
116.234 6837 82.6862
116.351 6906 83.1023
116.469 7081 84.1487
116.586 7639 87.4014
116.704 7566 86.9828
116.821 7302 85.4517
116.939 6776 82.3165
117.056 6650 81.5475
117.174 6664 81.6333
117.291 6758 82.2071
117.409 7155 84.5872
117.526 7367 85.8312
117.644 8202 90.5649
117.761 9095 95.3677
117.879 9733 98.656
117.996 10478 102.362
118.114 10442 102.186
118.231 11200 105.83
118.349 11113 105.418
118.466 11120 105.451
118.584 11396 106.752
118.701 11047 105.105
118.819 10559 102.757
118.936 10117 100.583
119.053 9747 98.7269
119.171 9400 96.9536
119.288 8889 94.2815
119.405 8603 92.7524
119.523 8080 89.8888
119.64 7559 86.9425
119.757 7479 86.4812
119.875 7432 86.209
119.992 7187 84.7762
120.109 7353 85.7496
120.226 7565 86.977
120.343 7546 86.8677
120.46 7377 85.8895
120.578 7120 84.3801
120.695 6812 82.5348
120.812 6885 82.9759
120.929 7053 83.9821
121.046 7530 86.7756
121.163 7821 88.4364
121.279 8212 90.6201
121.396 8901 94.3451
121.513 9383 96.8659
121.63 10133 100.663
121.747 10676 103.325
121.863 10880 104.307
121.98 11084 105.281
122.097 10875 104.283
122.213 11208 105.868
122.33 11070 105.214
122.446 10792 103.885
122.563 10496 102.45
122.679 9838 99.1867
122.795 9618 98.0714
122.912 9349 96.6902
123.028 9048 95.121
123.144 8588 92.6715
123.26 8110 90.0555
123.377 0 1
123.493 0 1
123.609 0 1
123.725 0 1
123.84 0 1
123.956 0 1
124.072 0 1
124.188 0 1
124.303 0 1
124.419 0 1
126.852 0 1
126.968 0 1
127.083 0 1
127.199 0 1
127.315 0 1
127.431 0 1
127.547 0 1
127.663 0 1
127.779 0 1
127.895 0 1
128.011 0 1
128.127 0 1
128.243 0 1
128.359 10060 100.3
128.476 9521 97.5756
128.592 9067 95.2208
128.708 8866 94.1594
128.825 8621 92.8493
128.941 8717 93.3649
129.058 8691 93.2255
129.174 8474 92.0543
129.291 8598 92.7254
129.408 8447 91.9076
129.524 8248 90.8185
129.641 7929 89.0449
129.758 8253 90.846
129.875 8377 91.526
129.992 8893 94.3027
130.108 9034 95.0474
130.225 9540 97.6729
130.342 10039 100.195
130.459 10317 101.573
130.576 11355 106.56
130.693 11336 106.471
130.81 11260 106.113
130.928 11298 106.292
131.045 11306 106.33
131.162 11441 106.963
131.279 11174 105.707
131.396 11298 106.292
131.513 10877 104.293
131.631 10595 102.932
131.748 10343 101.701
131.865 9903 99.5138
131.983 9454 97.2317
132.1 9207 95.9531
132.217 8710 93.3274
132.335 8602 92.747
132.452 8427 91.7987
132.57 8623 92.8601
132.687 8176 90.4212
132.804 8721 93.3863
132.922 8470 92.0326
133.039 8184 90.4655
133.157 8106 90.0333
133.274 8315 91.1866
133.392 8226 90.6973
133.509 8625 92.8709
133.627 8759 93.5895
133.744 9141 95.6086
133.862 9768 98.8332
133.979 10225 101.119
134.097 10720 103.537
134.214 10944 104.614
134.332 10882 104.317
134.449 11061 105.171
134.567 11195 105.806
134.684 11283 106.221
134.802 11256 106.094
134.919 11217 105.91
135.037 11077 105.247
135.154 10993 104.848
135.272 10701 103.446
135.389 10596 102.937
135.507 10055 100.275
135.624 9867 99.3328
135.742 9421 97.0618
135.859 9229 96.0677
135.977 9103 95.4096
136.094 8844 94.0425
136.211 8981 94.7681
136.329 9117 95.483
136.446 9122 95.5092
136.564 8881 94.2391
136.681 8784 93.723
136.798 8793 93.771
136.915 8812 93.8723
137.033 8904 94.361
137.15 9120 95.4987
137.267 9361 96.7523
137.384 9605 98.0051
137.502 10101 100.504
137.619 10333 101.651
137.736 11011 104.933
137.853 10852 104.173
137.97 10830 104.067
138.087 11522 107.341
138.204 11288 106.245
138.321 11390 106.724
138.438 11546 107.452
138.555 11612 107.759
138.672 11336 106.471
138.788 11179 105.731
138.905 11100 105.357
139.022 10727 103.571
139.139 10386 101.912
139.255 10324 101.607
139.372 9795 98.9697
139.488 9417 97.0412
139.605 9597 97.9643
139.721 9526 97.6012
139.838 9487 97.4012
139.954 9397 96.9381
140.071 9102 95.4044
140.187 9307 96.4728
140.303 9002 94.8789
140.419 8802 93.819
140.535 8705 93.3006
140.652 8683 93.1826
140.768 0 1
140.884 0 1
141 0 1
141.115 0 1
141.231 0 1
141.347 0 1
141.463 0 1
141.578 0 1
141.694 0 1
144.104 0 1
144.219 0 1
144.335 0 1
144.45 0 1
144.566 0 1
144.682 0 1
144.798 0 1
144.914 0 1
145.03 0 1
145.146 8868 94.1701
145.262 8724 93.4024
145.378 8737 93.4719
145.494 8931 94.504
145.61 8830 93.9681
145.726 9054 95.1525
145.842 8966 94.689
145.959 9228 96.0625
146.075 9482 97.3756
146.192 9701 98.4937
146.308 10202 101.005
146.425 10315 101.563
146.541 10498 102.46
146.658 10541 102.669
146.774 10854 104.183
146.891 10703 103.455
147.008 10752 103.692
147.125 11007 104.914
147.241 10991 104.838
147.358 11101 105.361
147.475 10760 103.73
147.592 10500 102.47
147.709 10268 101.331
147.826 10144 100.717
147.943 9791 98.9495
148.06 9450 97.2111
148.177 9523 97.5859
148.294 9336 96.623
148.411 9205 95.9427
148.528 9323 96.5557
148.645 9118 95.4882
148.762 8964 94.6784
148.88 9102 95.4044
148.997 8778 93.691
149.114 9095 95.3677
149.231 8836 94
149.349 8932 94.5093
149.466 9034 95.0474
149.583 9031 95.0316
149.701 9173 95.7758
149.818 9485 97.391
149.935 9811 99.0505
150.053 10037 100.185
150.17 10078 100.389
150.287 10410 102.029
150.405 10494 102.44
150.522 10544 102.684
150.64 10896 104.384
150.757 10959 104.685
150.875 10853 104.178
150.992 10930 104.547
151.11 10667 103.281
151.227 10607 102.99
151.344 10417 102.064
151.462 10231 101.148
151.579 9748 98.732
151.697 9633 98.1478
151.814 9778 98.8838
151.932 9785 98.9192
152.049 9626 98.1122
152.167 9710 98.5393
152.284 9478 97.355
152.402 9707 98.5241
152.519 9555 97.7497
152.636 9461 97.2677
152.754 9475 97.3396
152.871 9423 97.0721
152.989 9525 97.5961
153.106 9756 98.7725
153.223 9667 98.3209
153.341 9960 99.7998
153.458 10323 101.602
153.575 10391 101.936
153.693 10792 103.885
153.81 10993 104.848
153.927 11403 106.785
154.044 11634 107.861
154.162 12037 109.713
154.279 11930 109.225
154.396 12207 110.485
154.513 12293 110.874
154.63 12122 110.1
154.747 11985 109.476
154.864 11685 108.097
154.981 11733 108.319
155.098 11500 107.238
155.215 10863 104.226
155.332 10891 104.36
155.449 10742 103.644
155.566 10506 102.499
155.683 10765 103.755
155.8 10503 102.484
155.917 10285 101.415
156.033 10317 101.573
156.15 0 1
156.267 0 1
156.383 0 1
156.5 0 1
156.617 0 1
156.733 0 1
156.85 0 1
156.966 0 1
157.082 0 1
157.199 0 1
157.315 0 1
157.431 0 1
157.547 0 1
157.664 0 1
157.78 0 1
157.896 0 1
158.012 0 1
158.128 0 1
158.244 0 1
158.359 0 1
158.475 0 1
158.591 0 1
158.706 0 1
