
6.15755 0 1
6.2731 0 1
6.3887 0 1
6.50437 0 1
6.62009 0 1
6.73587 0 1
6.8517 0 1
6.96759 0 1
7.08353 0 1
7.19952 0 1
7.31557 0 1
7.43166 0 1
7.54781 0 1
7.664 0 1
7.78024 0 1
7.89653 0 1
8.01286 0 1
8.12924 0 1
8.24567 0 1
8.36213 0 1
8.47864 0 1
8.59519 0 1
8.71178 0 1
8.82841 0 1
8.94508 0 1
9.06179 0 1
9.17853 0 1
9.29531 0 1
9.41212 0 1
9.52897 0 1
9.64584 0 1
9.76276 0 1
9.8797 0 1
9.99667 0 1
10.1137 0 1
10.2307 0 1
10.3478 0 1
10.4648 0 1
10.5819 0 1
10.6991 0 1
10.8162 0 1
10.9334 0 1
11.0506 0 1
11.1678 0 1
11.285 0 1
11.4023 0 1
11.5196 0 1
11.6369 0 1
11.7542 0 1
11.8715 0 1
11.9888 0 1
12.1062 0 1
12.2235 0 1
12.3409 0 1
12.4582 0 1
12.5756 0 1
12.693 0 1
12.8104 0 1
12.9278 0 1
13.0452 0 1
13.1626 0 1
13.28 0 1
13.3974 0 1
13.5149 0 1
13.6323 0 1
13.7497 0 1
13.8671 0 1
13.9845 0 1
14.1019 0 1
14.2193 0 1
14.3367 0 1
14.4541 0 1
14.5714 0 1
14.6888 0 1
14.8062 0 1
14.9235 0 1
15.0408 746 27.313
15.1581 790 28.1069
15.2755 748 27.3496
15.3927 727 26.9629
15.51 785 28.0179
15.6273 767 27.6948
15.7445 751 27.4044
15.8617 797 28.2312
15.9789 763 27.6225
16.0961 728 26.9815
16.2132 762 27.6043
16.3304 767 27.6948
16.4475 806 28.3901
16.5646 784 28
16.6816 795 28.1957
16.7986 861 29.3428
16.9156 897 29.95
17.0326 868 29.4618
17.1496 856 29.2575
17.2665 868 29.4618
17.3833 902 30.0333
17.5002 843 29.0345
17.617 843 29.0345
17.7338 761 27.5862
17.8505 758 27.5318
17.9672 733 27.074
18.0839 790 28.1069
18.2005 785 28.0179
18.3171 802 28.3196
18.4337 820 28.6356
18.5502 864 29.3939
18.6666 868 29.4618
18.7831 807 28.4077
18.8994 865 29.4109
19.0158 839 28.9655
19.1321 813 28.5132
19.2483 781 27.9464
19.3645 747 27.3313
19.4806 658 25.6515
19.5967 660 25.6905
19.7128 608 24.6577
19.8288 592 24.3311
19.9447 501 22.383
20.0606 0 1
20.1764 0 1
20.2922 0 1
20.4079 0 1
20.5236 0 1
20.6392 0 1
20.7548 0 1
20.8702 0 1
23.3078 0 1
23.4233 0 1
23.539 0 1
23.6547 0 1
23.7704 0 1
23.8862 0 1
24.0021 0 1
24.118 0 1
24.234 0 1
24.35 0 1
24.4661 357 18.8944
24.5822 426 20.6398
24.6984 473 21.7486
24.8146 498 22.3159
24.9309 507 22.5167
25.0472 592 24.3311
25.1636 615 24.7992
25.28 715 26.7395
25.3965 718 26.7955
25.513 740 27.2029
25.6296 831 28.8271
25.7462 871 29.5127
25.8628 945 30.7409
25.9795 900 30
26.0962 909 30.1496
26.213 935 30.5778
26.3298 799 28.2666
26.4466 780 27.9285
26.5635 773 27.8029
26.6804 769 27.7308
26.7973 827 28.7576
26.9143 772 27.7849
27.0313 804 28.3549
27.1483 826 28.7402
27.2653 856 29.2575
27.3824 861 29.3428
27.4996 881 29.6816
27.6167 810 28.4605
27.7339 863 29.3769
27.8511 801 28.3019
27.9683 763 27.6225
28.0855 783 27.9821
28.2028 787 28.0535
28.3201 689 26.2488
28.4374 657 25.632
28.5547 705 26.5518
28.6721 733 27.074
28.7894 752 27.4226
28.9068 863 29.3769
29.0242 835 28.8964
29.1416 829 28.7924
29.259 807 28.4077
29.3764 889 29.8161
29.4939 856 29.2575
29.6113 772 27.7849
29.7288 812 28.4956
29.8463 741 27.2213
29.9638 734 27.0924
30.0812 688 26.2298
30.1987 688 26.2298
30.3162 703 26.5141
30.4337 757 27.5136
30.5512 812 28.4956
30.6687 730 27.0185
30.7862 736 27.1293
30.9037 804 28.3549
31.0212 805 28.3725
31.1387 837 28.931
31.2562 758 27.5318
31.3737 783 27.9821
31.4912 733 27.074
31.6087 781 27.9464
31.7262 728 26.9815
31.8436 717 26.7769
31.9611 708 26.6083
32.0785 658 25.6515
32.1959 701 26.4764
32.3134 679 26.0576
32.4308 709 26.6271
32.5482 755 27.4773
32.6655 843 29.0345
32.7829 882 29.6985
32.9002 812 28.4956
33.0176 830 28.8097
33.1349 809 28.4429
33.2522 816 28.5657
33.3694 812 28.4956
33.4867 757 27.5136
33.6039 719 26.8142
33.7211 694 26.3439
33.8383 660 25.6905
33.9554 679 26.0576
34.0725 697 26.4008
34.1896 715 26.7395
34.3067 739 27.1846
34.4237 784 28
34.5407 756 27.4955
34.6577 748 27.3496
34.7746 801 28.3019
34.8915 753 27.4408
35.0084 703 26.5141
35.1252 772 27.7849
35.242 762 27.6043
35.3587 676 26
35.4755 684 26.1534
35.5921 662 25.7294
35.7088 624 24.98
35.8254 667 25.8263
35.9419 663 25.7488
36.0584 708 26.6083
36.1749 705 26.5518
36.2913 739 27.1846
36.4077 749 27.3679
36.524 787 28.0535
36.6403 679 26.0576
36.7565 656 25.6125
36.8727 630 25.0998
36.9889 589 24.2693
37.1049 539 23.2164
37.221 0 1
37.3369 0 1
37.4529 0 1
37.5687 0 1
37.6845 0 1
37.8003 0 1
37.916 0 1
38.0316 0 1
38.1472 0 1
40.5851 0 1
40.7008 0 1
40.8164 0 1
40.9322 0 1
41.048 0 1
41.1639 0 1
41.2798 0 1
41.3958 0 1
41.5118 0 1
41.6279 0 1
41.744 376 19.3907
41.8602 417 20.4206
41.9765 406 20.1494
42.0928 451 21.2368
42.2091 420 20.4939
42.3255 468 21.6333
42.4419 422 20.5426
42.5584 472 21.7256
42.675 492 22.1811
42.7915 533 23.0868
42.9081 553 23.516
43.0248 594 24.3721
43.1415 638 25.2587
43.2582 625 25
43.375 609 24.6779
43.4918 625 25
43.6087 668 25.8457
43.7256 643 25.3574
43.8425 661 25.7099
43.9595 611 24.7184
44.0765 589 24.2693
44.1935 546 23.3666
44.3106 580 24.0832
44.4277 499 22.3383
44.5448 552 23.4947
44.6619 510 22.5832
44.7791 575 23.9792
44.8963 567 23.8118
45.0136 596 24.4131
45.1308 692 26.3059
45.2481 629 25.0799
45.3654 674 25.9615
45.4827 635 25.1992
45.6001 677 26.0192
45.7174 602 24.5357
45.8348 616 24.8193
45.9522 536 23.1517
46.0697 555 23.5584
46.1871 511 22.6053
46.3046 535 23.1301
46.422 601 24.5153
46.5395 575 23.9792
46.657 629 25.0799
46.7745 606 24.6171
46.892 637 25.2389
47.0096 646 25.4165
47.1271 635 25.1992
47.2446 669 25.865
47.3622 619 24.8797
47.4797 624 24.98
47.5973 616 24.8193
47.7149 636 25.219
47.8324 581 24.1039
47.95 548 23.4094
48.0675 565 23.7697
48.1851 491 22.1585
48.3027 508 22.5389
48.4202 557 23.6008
48.5378 610 24.6982
48.6554 610 24.6982
48.7729 697 26.4008
48.8904 632 25.1396
49.008 683 26.1343
49.1255 690 26.2679
49.243 619 24.8797
49.3605 564 23.7487
49.478 580 24.0832
49.5955 516 22.7156
49.713 483 21.9773
49.8304 540 23.2379
49.9479 578 24.0416
50.0653 560 23.6643
50.1827 586 24.2074
50.3001 640 25.2982
50.4175 618 24.8596
50.5348 620 24.8998
50.6521 624 24.98
50.7694 641 25.318
50.8867 669 25.865
51.004 669 25.865
51.1212 599 24.4745
51.2384 597 24.4336
51.3556 596 24.4131
51.4727 516 22.7156
51.5899 492 22.1811
51.707 502 22.4054
51.824 512 22.6274
51.9411 559 23.6432
52.0581 553 23.516
52.175 678 26.0384
52.2919 625 25
52.4088 654 25.5734
52.5257 652 25.5343
52.6425 679 26.0576
52.7593 627 25.04
52.876 648 25.4558
52.9927 568 23.8328
53.1094 547 23.388
53.226 539 23.2164
53.3426 538 23.1948
53.4591 485 22.0227
53.5756 522 22.8473
53.692 491 22.1585
53.8084 545 23.3452
53.9248 479 21.8861
54.0411 492 22.1811
54.1573 470 21.6795
54.2735 0 1
54.3896 0 1
54.5057 0 1
54.6217 0 1
54.7377 0 1
54.8537 0 1
54.9695 0 1
55.0853 0 1
55.2011 0 1
55.3168 0 1
55.4324 0 1
57.824 0 1
57.9396 0 1
58.0553 0 1
58.1711 0 1
58.2869 0 1
58.4028 0 1
58.5187 0 1
58.6347 0 1
58.7508 0 1
58.8669 0 1
58.983 431 20.7605
59.0992 502 22.4054
59.2155 594 24.3721
59.3318 599 24.4745
59.4482 678 26.0384
59.5646 783 27.9821
59.681 733 27.074
59.7975 746 27.313
59.9141 715 26.7395
60.0306 725 26.9258
60.1473 730 27.0185
60.2639 673 25.9422
60.3807 674 25.9615
60.4974 663 25.7488
60.6142 691 26.2869
60.731 724 26.9072
60.8479 745 27.2947
60.9648 812 28.4956
61.0818 838 28.9482
61.1987 854 29.2233
61.3158 855 29.2404
61.4328 781 27.9464
61.5499 761 27.5862
61.667 711 26.6646
61.7841 658 25.6515
61.9013 639 25.2784
62.0185 657 25.632
62.1357 677 26.0192
62.253 749 27.3679
62.3702 764 27.6405
62.4875 787 28.0535
62.6049 789 28.0891
62.7222 781 27.9464
62.8396 822 28.6705
62.9569 877 29.6142
63.0743 837 28.931
63.1918 794 28.178
63.3092 828 28.775
63.4267 766 27.6767
63.5441 723 26.8887
63.6616 720 26.8328
63.7791 652 25.5343
63.8966 651 25.5147
64.0142 642 25.3377
64.1317 673 25.9422
64.2492 719 26.8142
64.3668 799 28.2666
64.4843 876 29.5973
64.6019 823 28.688
64.7195 825 28.7228
64.837 784 28
64.9546 837 28.931
65.0722 762 27.6043
65.1898 731 27.037
65.3074 674 25.9615
65.4249 628 25.0599
65.5425 624 24.98
65.6601 564 23.7487
65.7777 749 27.3679
65.8952 686 26.1916
66.0128 752 27.4226
66.1304 728 26.9815
66.2479 780 27.9285
66.3655 823 28.688
66.483 800 28.2843
66.6005 848 29.1204
66.718 825 28.7228
66.8355 832 28.8444
66.953 779 27.9106
67.0705 755 27.4773
67.1879 786 28.0357
67.3054 739 27.1846
67.4228 698 26.4197
67.5402 656 25.6125
67.6576 686 26.1916
67.7749 657 25.632
67.8923 742 27.2397
68.0096 780 27.9285
68.1269 869 29.4788
68.2442 863 29.3769
68.3614 832 28.8444
68.4787 903 30.05
68.5958 892 29.8664
68.713 834 28.8791
68.8302 827 28.7576
68.9473 769 27.7308
69.0643 685 26.1725
69.1814 705 26.5518
69.2984 704 26.533
69.4154 770 27.7489
69.5323 799 28.2666
69.6492 883 29.7153
69.7661 890 29.8329
69.8829 933 30.545
69.9997 959 30.9677
70.1165 971 31.1609
70.2332 919 30.315
70.3499 861 29.3428
70.4665 835 28.8964
70.5831 784 28
70.6996 806 28.3901
70.8161 726 26.9444
70.9326 677 26.0192
71.049 562 23.7065
71.1653 516 22.7156
71.2817 450 21.2132
71.3979 406 20.1494
71.5141 394 19.8494
71.6303 388 19.6977
71.7464 344 18.5472
71.8624 0 1
71.9784 0 1
72.0944 0 1
72.2102 0 1
72.3261 0 1
72.4418 0 1
72.5575 0 1
72.6732 0 1
75.1054 0 1
75.2209 0 1
75.3365 0 1
75.4521 0 1
75.5678 0 1
75.6835 0 1
75.7993 0 1
75.9151 0 1
76.031 0 1
76.147 556 23.5797
76.263 623 24.96
76.3791 589 24.2693
76.4952 586 24.2074
76.6113 578 24.0416
76.7276 662 25.7294
76.8438 639 25.2784
76.9601 770 27.7489
77.0765 760 27.5681
77.1929 813 28.5132
77.3093 823 28.688
77.4258 830 28.8097
77.5423 795 28.1957
77.6589 741 27.2213
77.7755 692 26.3059
77.8921 626 25.02
78.0088 568 23.8328
78.1256 544 23.3238
78.2423 511 22.6053
78.3591 547 23.388
78.4759 614 24.779
78.5928 628 25.0599
78.7097 700 26.4575
78.8266 702 26.4953
78.9436 726 26.9444
79.0606 763 27.6225
79.1776 698 26.4197
79.2946 718 26.7955
79.4117 726 26.9444
79.5288 698 26.4197
79.6459 744 27.2764
79.7631 721 26.8514
79.8802 675 25.9808
79.9974 662 25.7294
80.1147 551 23.4734
80.2319 590 24.2899
80.3491 532 23.0651
80.4664 576 24
80.5837 622 24.9399
80.701 701 26.4764
80.8183 692 26.3059
80.9357 730 27.0185
81.053 736 27.1293
81.1704 710 26.6458
81.2877 739 27.1846
81.4051 701 26.4764
81.5225 654 25.5734
81.6399 585 24.1868
81.7573 542 23.2809
81.8747 583 24.1454
81.9922 514 22.6716
82.1096 590 24.2899
82.227 611 24.7184
82.3444 692 26.3059
82.4619 674 25.9615
82.5793 710 26.6458
82.6967 716 26.7582
82.8142 727 26.9629
82.9316 755 27.4773
83.049 736 27.1293
83.1664 736 27.1293
83.2838 691 26.2869
83.4012 752 27.4226
83.5186 708 26.6083
83.636 705 26.5518
83.7534 648 25.4558
83.8708 569 23.8537
83.9881 566 23.7908
84.1055 595 24.3926
84.2228 663 25.7488
84.3401 629 25.0799
84.4575 711 26.6646
84.5747 774 27.8209
84.692 724 26.9072
84.8093 786 28.0357
84.9265 693 26.3249
85.0437 725 26.9258
85.1609 670 25.8844
85.2781 603 24.5561
85.3952 561 23.6854
85.5123 513 22.6495
85.6294 550 23.4521
85.7465 617 24.8395
85.8636 728 26.9815
85.9806 704 26.533
86.0976 756 27.4955
86.2145 790 28.1069
86.3315 756 27.4955
86.4484 741 27.2213
86.5652 815 28.5482
86.682 736 27.1293
86.7988 769 27.7308
86.9156 767 27.6948
87.0323 773 27.8029
87.149 747 27.3313
87.2657 711 26.6646
87.3823 583 24.1454
87.4988 493 22.2036
87.6154 478 21.8632
87.7318 441 21
87.8483 545 23.3452
87.9647 534 23.1084
88.081 584 24.1661
88.1973 573 23.9374
88.3136 542 23.2809
88.4298 584 24.1661
88.546 487 22.0681
88.6621 423 20.567
88.7781 304 17.4356
88.8942 0 1
89.0101 0 1
89.126 0 1
89.2419 0 1
89.3577 0 1
89.4734 0 1
89.5891 0 1
89.7047 0 1
89.8203 0 1
89.9358 0 1
92.3269 0 1
92.4424 0 1
92.558 0 1
92.6736 0 1
92.7893 0 1
92.905 0 1
93.0208 0 1
93.1366 0 1
93.2525 0 1
93.3685 0 1
93.4845 0 1
93.6005 482 21.9545
93.7167 522 22.8473
93.8328 540 23.2379
93.949 586 24.2074
94.0653 616 24.8193
94.1816 647 25.4362
94.2979 619 24.8797
94.4143 576 24
94.5307 579 24.0624
94.6472 537 23.1733
94.7637 538 23.1948
94.8803 586 24.2074
94.9969 624 24.98
95.1135 730 27.0185
95.2302 693 26.3249
95.3469 715 26.7395
95.4637 744 27.2764
95.5805 753 27.4408
95.6973 746 27.313
95.8142 770 27.7489
95.9311 743 27.258
96.048 707 26.5895
96.1649 742 27.2397
96.2819 725 26.9258
96.3989 754 27.4591
96.516 666 25.807
96.633 559 23.6432
96.7501 521 22.8254
96.8673 536 23.1517
96.9844 584 24.1661
97.1016 658 25.6515
97.2188 669 25.865
97.336 712 26.6833
97.4532 750 27.3861
97.5704 762 27.6043
97.6877 822 28.6705
97.805 715 26.7395
97.9223 695 26.3629
98.0396 624 24.98
98.1569 590 24.2899
98.2743 598 24.454
98.3916 551 23.4734
98.509 545 23.3452
98.6264 683 26.1343
98.7438 695 26.3629
98.8612 707 26.5895
98.9786 734 27.0924
99.096 808 28.4253
99.2134 720 26.8328
99.3308 765 27.6586
99.4482 776 27.8568
99.5656 773 27.8029
99.6831 762 27.6043
99.8005 755 27.4773
99.9179 715 26.7395
100.035 740 27.2029
100.153 697 26.4008
100.27 638 25.2587
100.388 582 24.1247
100.505 597 24.4336
100.622 649 25.4755
100.74 738 27.1662
100.857 722 26.8701
100.975 758 27.5318
101.092 760 27.5681
101.209 791 28.1247
101.327 768 27.7128
101.444 746 27.313
101.561 693 26.3249
101.679 683 26.1343
101.796 567 23.8118
101.913 575 23.9792
102.03 574 23.9583
102.148 678 26.0384
102.265 687 26.2107
102.382 749 27.3679
102.499 799 28.2666
102.616 803 28.3373
102.733 846 29.0861
102.851 828 28.775
102.968 769 27.7308
103.085 838 28.9482
103.202 781 27.9464
103.319 803 28.3373
103.436 796 28.2135
103.552 790 28.1069
103.669 725 26.9258
103.786 674 25.9615
103.903 646 25.4165
104.02 644 25.3772
104.137 693 26.3249
104.253 767 27.6948
104.37 792 28.1425
104.487 827 28.7576
104.603 837 28.931
104.72 805 28.3725
104.836 788 28.0713
104.953 744 27.2764
105.069 688 26.2298
105.186 592 24.3311
105.302 597 24.4336
105.418 539 23.2164
105.535 510 22.5832
105.651 557 23.6008
105.767 570 23.8747
105.883 529 23
105.999 499 22.3383
106.115 0 1
106.231 0 1
106.347 0 1
106.463 0 1
106.579 0 1
106.694 0 1
106.81 0 1
106.926 0 1
107.041 0 1
107.157 0 1
109.576 0 1
109.692 0 1
109.807 0 1
109.923 0 1
110.039 0 1
110.155 0 1
110.27 0 1
110.386 0 1
110.502 0 1
110.618 334 18.2757
110.735 456 21.3542
110.851 513 22.6495
110.967 546 23.3666
111.083 653 25.5539
111.199 732 27.0555
111.316 729 27
111.432 759 27.55
111.549 814 28.5307
111.665 736 27.1293
111.782 753 27.4408
111.898 713 26.7021
112.015 672 25.923
112.132 716 26.7582
112.248 641 25.318
112.365 630 25.0998
112.482 607 24.6374
112.599 644 25.3772
112.716 635 25.1992
112.832 689 26.2488
112.949 725 26.9258
113.066 687 26.2107
113.183 701 26.4764
113.3 787 28.0535
113.417 733 27.074
113.534 640 25.2982
113.652 647 25.4362
113.769 585 24.1868
113.886 550 23.4521
114.003 549 23.4307
114.12 575 23.9792
114.238 675 25.9808
114.355 667 25.8263
114.472 642 25.3377
114.589 801 28.3019
114.707 769 27.7308
114.824 766 27.6767
114.942 757 27.5136
115.059 786 28.0357
115.176 727 26.9629
115.294 776 27.8568
115.411 755 27.4773
115.529 710 26.6458
115.646 679 26.0576
115.764 664 25.7682
115.881 591 24.3105
115.999 577 24.0208
116.116 626 25.02
116.234 608 24.6577
116.351 677 26.0192
116.469 763 27.6225
116.586 733 27.074
116.704 825 28.7228
116.821 791 28.1247
116.939 744 27.2764
117.056 728 26.9815
117.174 727 26.9629
117.291 600 24.4949
117.409 557 23.6008
117.526 582 24.1247
117.644 561 23.6854
117.761 581 24.1039
117.879 629 25.0799
117.996 664 25.7682
118.114 701 26.4764
118.231 710 26.6458
118.349 733 27.074
118.466 767 27.6948
118.584 678 26.0384
118.701 753 27.4408
118.819 718 26.7955
118.936 739 27.1846
119.053 720 26.8328
119.171 704 26.533
119.288 703 26.5141
119.405 624 24.98
119.523 599 24.4745
119.64 575 23.9792
119.757 640 25.2982
119.875 688 26.2298
119.992 678 26.0384
120.109 691 26.2869
120.226 720 26.8328
120.343 674 25.9615
120.46 716 26.7582
120.578 730 27.0185
120.695 665 25.7876
120.812 625 25
120.929 641 25.318
121.046 592 24.3311
121.163 526 22.9347
121.279 525 22.9129
121.396 527 22.9565
121.513 563 23.7276
121.63 591 24.3105
121.747 647 25.4362
121.863 596 24.4131
121.98 624 24.98
122.097 623 24.96
122.213 639 25.2784
122.33 605 24.5967
122.446 577 24.0208
122.563 534 23.1084
122.679 559 23.6432
122.795 510 22.5832
122.912 460 21.4476
123.028 399 19.975
123.144 360 18.9737
123.26 304 17.4356
123.377 0 1
123.493 0 1
123.609 0 1
123.725 0 1
123.84 0 1
123.956 0 1
124.072 0 1
124.188 0 1
124.303 0 1
124.419 0 1
126.852 0 1
126.968 0 1
127.083 0 1
127.199 0 1
127.315 0 1
127.431 0 1
127.547 0 1
127.663 0 1
127.779 0 1
127.895 0 1
128.011 0 1
128.127 0 1
128.243 0 1
128.359 787 28.0535
128.476 829 28.7924
128.592 778 27.8927
128.708 740 27.2029
128.825 758 27.5318
128.941 770 27.7489
129.058 803 28.3373
129.174 864 29.3939
129.291 912 30.1993
129.408 944 30.7246
129.524 894 29.8998
129.641 926 30.4302
129.758 919 30.315
129.875 836 28.9137
129.992 800 28.2843
130.108 778 27.8927
130.225 761 27.5862
130.342 709 26.6271
130.459 748 27.3496
130.576 811 28.4781
130.693 827 28.7576
130.81 830 28.8097
130.928 883 29.7153
131.045 871 29.5127
131.162 896 29.9333
131.279 936 30.5941
131.396 929 30.4795
131.513 916 30.2655
131.631 922 30.3645
131.748 883 29.7153
131.865 907 30.1164
131.983 824 28.7054
132.1 729 27
132.217 781 27.9464
132.335 793 28.1603
132.452 807 28.4077
132.57 834 28.8791
132.687 894 29.8998
132.804 908 30.133
132.922 989 31.4484
133.039 875 29.5804
133.157 970 31.1448
133.274 886 29.7658
133.392 913 30.2159
133.509 817 28.5832
133.627 771 27.7669
133.744 733 27.074
133.862 642 25.3377
133.979 684 26.1534
134.097 710 26.6458
134.214 788 28.0713
134.332 860 29.3258
134.449 924 30.3974
134.567 879 29.6479
134.684 928 30.4631
134.802 910 30.1662
134.919 905 30.0832
135.037 909 30.1496
135.154 903 30.05
135.272 909 30.1496
135.389 850 29.1548
135.507 860 29.3258
135.624 847 29.1033
135.742 780 27.9285
135.859 737 27.1477
135.977 813 28.5132
136.094 793 28.1603
136.211 839 28.9655
136.329 896 29.9333
136.446 891 29.8496
136.564 872 29.5296
136.681 963 31.0322
136.798 876 29.5973
136.915 892 29.8664
137.033 898 29.9666
137.15 758 27.5318
137.267 765 27.6586
137.384 676 26
137.502 604 24.5764
137.619 707 26.5895
137.736 683 26.1343
137.853 746 27.313
137.97 817 28.5832
138.087 787 28.0535
138.204 785 28.0179
138.321 862 29.3598
138.438 866 29.4279
138.555 858 29.2916
138.672 897 29.95
138.788 845 29.0689
138.905 738 27.1662
139.022 716 26.7582
139.139 703 26.5141
139.255 651 25.5147
139.372 612 24.7386
139.488 556 23.5797
139.605 560 23.6643
139.721 534 23.1084
139.838 558 23.622
139.954 573 23.9374
140.071 577 24.0208
140.187 500 22.3607
140.303 456 21.3542
140.419 400 20
140.535 451 21.2368
140.652 406 20.1494
140.768 0 1
140.884 0 1
141 0 1
141.115 0 1
141.231 0 1
141.347 0 1
141.463 0 1
141.578 0 1
141.694 0 1
144.104 0 1
144.219 0 1
144.335 0 1
144.45 0 1
144.566 0 1
144.682 0 1
144.798 0 1
144.914 0 1
145.03 0 1
145.146 549 23.4307
145.262 579 24.0624
145.378 543 23.3024
145.494 628 25.0599
145.61 621 24.9199
145.726 619 24.8797
145.842 579 24.0624
145.959 544 23.3238
146.075 522 22.8473
146.192 475 21.7945
146.308 460 21.4476
146.425 467 21.6102
146.541 497 22.2935
146.658 575 23.9792
146.774 504 22.4499
146.891 529 23
147.008 563 23.7276
147.125 574 23.9583
147.241 532 23.0651
147.358 585 24.1868
147.475 567 23.8118
147.592 574 23.9583
147.709 597 24.4336
147.826 575 23.9792
147.943 545 23.3452
148.06 540 23.2379
148.177 536 23.1517
148.294 509 22.561
148.411 469 21.6564
148.528 546 23.3666
148.645 546 23.3666
148.762 567 23.8118
148.88 602 24.5357
148.997 549 23.4307
149.114 595 24.3926
149.231 582 24.1247
149.349 574 23.9583
149.466 550 23.4521
149.583 542 23.2809
149.701 485 22.0227
149.818 431 20.7605
149.935 471 21.7025
150.053 465 21.5639
150.17 473 21.7486
150.287 494 22.2261
150.405 527 22.9565
150.522 516 22.7156
150.64 576 24
150.757 499 22.3383
150.875 559 23.6432
150.992 587 24.2281
151.11 604 24.5764
151.227 550 23.4521
151.344 547 23.388
151.462 506 22.4944
151.579 514 22.6716
151.697 494 22.2261
151.814 469 21.6564
151.932 465 21.5639
152.049 493 22.2036
152.167 528 22.9783
152.284 519 22.7816
152.402 512 22.6274
152.519 548 23.4094
152.636 533 23.0868
152.754 561 23.6854
152.871 572 23.9165
152.989 570 23.8747
153.106 536 23.1517
153.223 527 22.9565
153.341 425 20.6155
153.458 434 20.8327
153.575 433 20.8087
153.693 457 21.3776
153.81 489 22.1133
153.927 455 21.3307
154.044 517 22.7376
154.162 528 22.9783
154.279 499 22.3383
154.396 547 23.388
154.513 521 22.8254
154.63 538 23.1948
154.747 498 22.3159
154.864 531 23.0434
154.981 497 22.2935
155.098 482 21.9545
155.215 460 21.4476
155.332 488 22.0907
155.449 471 21.7025
155.566 433 20.8087
155.683 451 21.2368
155.8 501 22.383
155.917 461 21.4709
156.033 465 21.5639
156.15 0 1
156.267 0 1
156.383 0 1
156.5 0 1
156.617 0 1
156.733 0 1
156.85 0 1
156.966 0 1
157.082 0 1
157.199 0 1
157.315 0 1
157.431 0 1
157.547 0 1
157.664 0 1
157.78 0 1
157.896 0 1
158.012 0 1
158.128 0 1
158.244 0 1
158.359 0 1
158.475 0 1
158.591 0 1
158.706 0 1
