
6.15755 0 1
6.2731 0 1
6.3887 0 1
6.50437 0 1
6.62009 0 1
6.73587 0 1
6.8517 0 1
6.96759 0 1
7.08353 0 1
7.19952 0 1
7.31557 0 1
7.43166 0 1
7.54781 0 1
7.664 0 1
7.78024 0 1
7.89653 0 1
8.01286 0 1
8.12924 0 1
8.24567 0 1
8.36213 0 1
8.47864 0 1
8.59519 0 1
8.71178 0 1
8.82841 0 1
8.94508 0 1
9.06179 0 1
9.17853 0 1
9.29531 0 1
9.41212 0 1
9.52897 0 1
9.64584 0 1
9.76276 0 1
9.8797 0 1
9.99667 0 1
10.1137 0 1
10.2307 0 1
10.3478 0 1
10.4648 0 1
10.5819 0 1
10.6991 0 1
10.8162 0 1
10.9334 0 1
11.0506 0 1
11.1678 0 1
11.285 0 1
11.4023 0 1
11.5196 0 1
11.6369 0 1
11.7542 0 1
11.8715 0 1
11.9888 0 1
12.1062 0 1
12.2235 0 1
12.3409 0 1
12.4582 0 1
12.5756 0 1
12.693 0 1
12.8104 0 1
12.9278 0 1
13.0452 0 1
13.1626 0 1
13.28 0 1
13.3974 0 1
13.5149 0 1
13.6323 0 1
13.7497 0 1
13.8671 0 1
13.9845 0 1
14.1019 0 1
14.2193 0 1
14.3367 0 1
14.4541 0 1
14.5714 0 1
14.6888 0 1
14.8062 0 1
14.9235 0 1
15.0408 2722 52.1728
15.1581 2841 53.301
15.2755 2977 54.5619
15.3927 2910 53.9444
15.51 2886 53.7215
15.6273 2797 52.8867
15.7445 2758 52.5167
15.8617 2828 53.1789
15.9789 2597 50.9608
16.0961 2646 51.4393
16.2132 2600 50.9902
16.3304 2643 51.4101
16.4475 2457 49.5681
16.5646 2563 50.6261
16.6816 2457 49.5681
16.7986 2465 49.6488
16.9156 2509 50.0899
17.0326 2369 48.6724
17.1496 2510 50.0999
17.2665 2568 50.6754
17.3833 2560 50.5964
17.5002 2715 52.1057
17.617 2665 51.6236
17.7338 2755 52.4881
17.8505 2912 53.963
17.9672 2920 54.037
18.0839 2923 54.0648
18.2005 2944 54.2586
18.3171 3043 55.1634
18.4337 3019 54.9454
18.5502 3263 57.1227
18.6666 3189 56.4712
18.7831 3173 56.3294
18.8994 3267 57.1577
19.0158 3147 56.0981
19.1321 3004 54.8088
19.2483 3041 55.1453
19.3645 2804 52.9528
19.4806 2776 52.6878
19.5967 2779 52.7162
19.7128 2673 51.7011
19.8288 2614 51.1273
19.9447 2269 47.634
20.0606 0 1
20.1764 0 1
20.2922 0 1
20.4079 0 1
20.5236 0 1
20.6392 0 1
20.7548 0 1
20.8702 0 1
23.3078 0 1
23.4233 0 1
23.539 0 1
23.6547 0 1
23.7704 0 1
23.8862 0 1
24.0021 0 1
24.118 0 1
24.234 0 1
24.35 0 1
24.4661 2578 50.774
24.5822 2615 51.1371
24.6984 2615 51.1371
24.8146 2517 50.1697
24.9309 2466 49.6588
25.0472 2376 48.7442
25.1636 2420 49.1935
25.28 2371 48.6929
25.3965 2307 48.0312
25.513 2423 49.224
25.6296 2538 50.3786
25.7462 2554 50.5371
25.8628 2576 50.7543
25.9795 2546 50.4579
26.0962 2578 50.774
26.213 2600 50.9902
26.3298 2862 53.4977
26.4466 2708 52.0384
26.5635 2815 53.0566
26.6804 2621 51.1957
26.7973 2756 52.4976
26.9143 2708 52.0384
27.0313 2738 52.3259
27.1483 2897 53.8238
27.2653 2840 53.2917
27.3824 2782 52.7447
27.4996 2805 52.9623
27.6167 2779 52.7162
27.7339 2696 51.923
27.8511 2690 51.8652
27.9683 2681 51.7784
28.0855 2582 50.8134
28.2028 2589 50.8822
28.3201 2374 48.7237
28.4374 2350 48.4768
28.5547 2370 48.6826
28.6721 2262 47.5605
28.7894 2301 47.9687
28.9068 2253 47.4658
29.0242 2230 47.2229
29.1416 2298 47.9375
29.259 2299 47.9479
29.3764 2300 47.9583
29.4939 2428 49.2747
29.6113 2494 49.94
29.7288 2519 50.1896
29.8463 2408 49.0714
29.9638 2460 49.5984
30.0812 2406 49.051
30.1987 2549 50.4876
30.3162 2495 49.95
30.4337 2482 49.8197
30.5512 2542 50.4183
30.6687 2570 50.6952
30.7862 2615 51.1371
30.9037 2515 50.1498
31.0212 2576 50.7543
31.1387 2605 51.0392
31.2562 2562 50.6162
31.3737 2394 48.9285
31.4912 2419 49.1833
31.6087 2345 48.4252
31.7262 2334 48.3115
31.8436 2272 47.6655
31.9611 2286 47.8121
32.0785 2167 46.551
32.1959 2221 47.1275
32.3134 2236 47.2864
32.4308 2224 47.1593
32.5482 2265 47.592
32.6655 2202 46.9255
32.7829 2157 46.4435
32.9002 2242 47.3498
33.0176 2252 47.4552
33.1349 2183 46.7226
33.2522 2334 48.3115
33.3694 2339 48.3632
33.4867 2324 48.2079
33.6039 2416 49.1528
33.7211 2523 50.2295
33.8383 2456 49.558
33.9554 2361 48.5901
34.0725 2303 47.9896
34.1896 2380 48.7852
34.3067 2292 47.8748
34.4237 2315 48.1144
34.5407 2370 48.6826
34.6577 2298 47.9375
34.7746 2323 48.1975
34.8915 2329 48.2597
35.0084 2192 46.8188
35.1252 2165 46.5296
35.242 2138 46.2385
35.3587 2217 47.085
35.4755 2136 46.2169
35.5921 2269 47.634
35.7088 2187 46.7654
35.8254 2166 46.5403
35.9419 2045 45.2217
36.0584 2079 45.5961
36.1749 2133 46.1844
36.2913 2052 45.299
36.4077 2143 46.2925
36.524 2053 45.31
36.6403 2070 45.4973
36.7565 2168 46.5618
36.8727 2075 45.5522
36.9889 2170 46.5833
37.1049 2160 46.4758
37.221 0 1
37.3369 0 1
37.4529 0 1
37.5687 0 1
37.6845 0 1
37.8003 0 1
37.916 0 1
38.0316 0 1
38.1472 0 1
40.5851 0 1
40.7008 0 1
40.8164 0 1
40.9322 0 1
41.048 0 1
41.1639 0 1
41.2798 0 1
41.3958 0 1
41.5118 0 1
41.6279 0 1
41.744 1533 39.1535
41.8602 1608 40.0999
41.9765 1704 41.2795
42.0928 1734 41.6413
42.2091 1730 41.5933
42.3255 1693 41.1461
42.4419 1727 41.5572
42.5584 1684 41.0366
42.675 1655 40.6817
42.7915 1622 40.2741
42.9081 1558 39.4715
43.0248 1616 40.1995
43.1415 1630 40.3733
43.2582 1662 40.7676
43.375 1639 40.4846
43.4918 1622 40.2741
43.6087 1653 40.6571
43.7256 1639 40.4846
43.8425 1653 40.6571
43.9595 1594 39.9249
44.0765 1688 41.0853
44.1935 1593 39.9124
44.3106 1646 40.5709
44.4277 1669 40.8534
44.5448 1539 39.2301
44.6619 1493 38.6394
44.7791 1426 37.7624
44.8963 1399 37.4032
45.0136 1304 36.1109
45.1308 1320 36.3318
45.2481 1360 36.8782
45.3654 1295 35.9861
45.4827 1315 36.2629
45.6001 1238 35.1852
45.7174 1210 34.7851
45.8348 1264 35.5528
45.9522 1228 35.0428
46.0697 1168 34.176
46.1871 1190 34.4964
46.3046 1123 33.5112
46.422 1108 33.2866
46.5395 1156 34
46.657 1156 34
46.7745 1172 34.2345
46.892 1187 34.4529
47.0096 1191 34.5109
47.1271 1259 35.4824
47.2446 1237 35.171
47.3622 1214 34.8425
47.4797 1258 35.4683
47.5973 1240 35.2136
47.7149 1173 34.2491
47.8324 1267 35.5949
47.95 1274 35.6931
48.0675 1238 35.1852
48.1851 1186 34.4384
48.3027 1128 33.5857
48.4202 1153 33.9559
48.5378 1134 33.6749
48.6554 1107 33.2716
48.7729 1042 32.28
48.8904 1068 32.6803
49.008 1085 32.9393
49.1255 1023 31.9844
49.243 1060 32.5576
49.3605 1127 33.5708
49.478 999 31.607
49.5955 1048 32.3728
49.713 1025 32.0156
49.8304 1077 32.8177
49.9479 946 30.7571
50.0653 1002 31.6544
50.1827 1038 32.218
50.3001 1073 32.7567
50.4175 1178 34.322
50.5348 1175 34.2783
50.6521 1175 34.2783
50.7694 1274 35.6931
50.8867 1303 36.0971
51.004 1357 36.8375
51.1212 1463 38.2492
51.2384 1413 37.5899
51.3556 1536 39.1918
51.4727 1470 38.3406
51.5899 1559 39.4842
51.707 1474 38.3927
51.824 1466 38.2884
51.9411 1320 36.3318
52.0581 1405 37.4833
52.175 1329 36.4555
52.2919 1422 37.7094
52.4088 1272 35.6651
52.5257 1225 35
52.6425 1246 35.2987
52.7593 1302 36.0832
52.876 1255 35.426
52.9927 1335 36.5377
53.1094 1309 36.1801
53.226 1347 36.7015
53.3426 1307 36.1525
53.4591 1312 36.2215
53.5756 1420 37.6829
53.692 1426 37.7624
53.8084 1530 39.1152
53.9248 1518 38.9615
54.0411 1596 39.95
54.1573 1584 39.7995
54.2735 0 1
54.3896 0 1
54.5057 0 1
54.6217 0 1
54.7377 0 1
54.8537 0 1
54.9695 0 1
55.0853 0 1
55.2011 0 1
55.3168 0 1
55.4324 0 1
57.824 0 1
57.9396 0 1
58.0553 0 1
58.1711 0 1
58.2869 0 1
58.4028 0 1
58.5187 0 1
58.6347 0 1
58.7508 0 1
58.8669 0 1
58.983 1798 42.4028
59.0992 1895 43.5316
59.2155 2042 45.1885
59.3318 2068 45.4753
59.4482 2201 46.9148
59.5646 2443 49.4267
59.681 2466 49.6588
59.7975 2485 49.8498
59.9141 2483 49.8297
60.0306 2437 49.366
60.1473 2373 48.7134
60.2639 2249 47.4236
60.3807 2123 46.076
60.4974 1927 43.8976
60.6142 1900 43.589
60.731 1749 41.821
60.8479 1553 39.4081
60.9648 1476 38.4187
61.0818 1565 39.5601
61.1987 1478 38.4448
61.3158 1535 39.1791
61.4328 1563 39.5348
61.5499 1662 40.7676
61.667 1563 39.5348
61.7841 1574 39.6737
61.9013 1567 39.5854
62.0185 1547 39.3319
62.1357 1590 39.8748
62.253 1656 40.694
62.3702 1650 40.6202
62.4875 1755 41.8927
62.6049 1707 41.3159
62.7222 1948 44.1362
62.8396 2000 44.7214
62.9569 2244 47.3709
63.0743 2302 47.9792
63.1918 2348 48.4562
63.3092 2255 47.4868
63.4267 2329 48.2597
63.5441 2273 47.676
63.6616 2148 46.3465
63.7791 1996 44.6766
63.8966 1892 43.4971
64.0142 1741 41.7253
64.1317 1626 40.3237
64.2492 1433 37.855
64.3668 1384 37.2022
64.4843 1297 36.0139
64.6019 1243 35.2562
64.7195 1268 35.609
64.837 1374 37.0675
64.9546 1358 36.8511
65.0722 1458 38.1838
65.1898 1466 38.2884
65.3074 1522 39.0128
65.4249 1500 38.7298
65.5425 1459 38.1969
65.6601 1521 39
65.7777 1516 38.9358
65.8952 1553 39.4081
66.0128 1573 39.6611
66.1304 1742 41.7373
66.2479 1784 42.2374
66.3655 2014 44.8776
66.483 2268 47.6235
66.6005 2251 47.4447
66.718 2327 48.239
66.8355 2352 48.4974
66.953 2339 48.3632
67.0705 2330 48.2701
67.1879 2236 47.2864
67.3054 2055 45.3321
67.4228 2011 44.8442
67.5402 1732 41.6173
67.6576 1554 39.4208
67.7749 1315 36.2629
67.8923 1299 36.0416
68.0096 1342 36.6333
68.1269 1380 37.1484
68.2442 1346 36.6879
68.3614 1389 37.2693
68.4787 1529 39.1024
68.5958 1547 39.3319
68.713 1614 40.1746
68.8302 1559 39.4842
68.9473 1547 39.3319
69.0643 1579 39.7366
69.1814 1538 39.2173
69.2984 1555 39.4335
69.4154 1615 40.1871
69.5323 1613 40.1622
69.6492 1810 42.5441
69.7661 1848 42.9884
69.8829 2149 46.3573
69.9997 2211 47.0213
70.1165 2395 48.9387
70.2332 2490 49.8999
70.3499 2464 49.6387
70.4665 2549 50.4876
70.5831 2610 51.0882
70.6996 2579 50.7839
70.8161 2449 49.4874
70.9326 2204 46.9468
71.049 1969 44.3734
71.1653 1770 42.0714
71.2817 1535 39.1791
71.3979 1410 37.55
71.5141 1391 37.2961
71.6303 1269 35.623
71.7464 1181 34.3657
71.8624 0 1
71.9784 0 1
72.0944 0 1
72.2102 0 1
72.3261 0 1
72.4418 0 1
72.5575 0 1
72.6732 0 1
75.1054 0 1
75.2209 0 1
75.3365 0 1
75.4521 0 1
75.5678 0 1
75.6835 0 1
75.7993 0 1
75.9151 0 1
76.031 0 1
76.147 2112 45.9565
76.263 2051 45.288
76.3791 1838 42.8719
76.4952 1613 40.1622
76.6113 1550 39.37
76.7276 1433 37.855
76.8438 1443 37.9868
76.9601 1411 37.5633
77.0765 1385 37.2156
77.1929 1399 37.4032
77.3093 1418 37.6563
77.4258 1503 38.7685
77.5423 1664 40.7922
77.6589 1696 41.1825
77.7755 1649 40.6079
77.8921 1471 38.3536
78.0088 1539 39.2301
78.1256 1524 39.0384
78.2423 1552 39.3954
78.3591 1517 38.9487
78.4759 1603 40.0375
78.5928 1723 41.509
78.7097 1934 43.9773
78.8266 2087 45.6837
78.9436 2414 49.1325
79.0606 2543 50.4282
79.1776 2568 50.6754
79.2946 2580 50.7937
79.4117 2669 51.6624
79.5288 2542 50.4183
79.6459 2465 49.6488
79.7631 2239 47.3181
79.8802 2124 46.0869
79.9974 1941 44.0568
80.1147 1741 41.7253
80.2319 1551 39.3827
80.3491 1394 37.3363
80.4664 1398 37.3898
80.5837 1396 37.3631
80.701 1405 37.4833
80.8183 1461 38.223
80.9357 1452 38.1051
81.053 1559 39.4842
81.1704 1617 40.2119
81.2877 1676 40.939
81.4051 1636 40.4475
81.5225 1528 39.0896
81.6399 1475 38.4057
81.7573 1548 39.3446
81.8747 1473 38.3797
81.9922 1545 39.3065
82.1096 1696 41.1825
82.227 1872 43.2666
82.3444 2090 45.7165
82.4619 2416 49.1528
82.5793 2509 50.0899
82.6967 2576 50.7543
82.8142 2641 51.3907
82.9316 2598 50.9706
83.049 2533 50.3289
83.1664 2404 49.0306
83.2838 2513 50.1298
83.4012 2283 47.7807
83.5186 1924 43.8634
83.636 1779 42.1782
83.7534 1536 39.1918
83.8708 1487 38.5616
83.9881 1338 36.5787
84.1055 1327 36.428
84.2228 1363 36.9188
84.3401 1424 37.7359
84.4575 1450 38.0789
84.5747 1515 38.923
84.692 1717 41.4367
84.8093 1737 41.6773
84.9265 1714 41.4005
85.0437 1598 39.975
85.1609 1509 38.8458
85.2781 1448 38.0526
85.3952 1518 38.9615
85.5123 1635 40.4351
85.6294 1694 41.1582
85.7465 1927 43.8976
85.8636 2049 45.2659
85.9806 2218 47.0956
86.0976 2371 48.6929
86.2145 2659 51.5655
86.3315 2682 51.788
86.4484 2777 52.6972
86.5652 2719 52.144
86.682 2707 52.0288
86.7988 2594 50.9313
86.9156 2453 49.5278
87.0323 2158 46.4543
87.149 2018 44.9222
87.2657 1800 42.4264
87.3823 1621 40.2616
87.4988 1538 39.2173
87.6154 1433 37.855
87.7318 1530 39.1152
87.8483 1578 39.724
87.9647 1592 39.8999
88.081 1651 40.6325
88.1973 1730 41.5933
88.3136 1768 42.0476
88.4298 1795 42.3674
88.546 1563 39.5348
88.6621 1531 39.128
88.7781 1439 37.9342
88.8942 0 1
89.0101 0 1
89.126 0 1
89.2419 0 1
89.3577 0 1
89.4734 0 1
89.5891 0 1
89.7047 0 1
89.8203 0 1
89.9358 0 1
92.3269 0 1
92.4424 0 1
92.558 0 1
92.6736 0 1
92.7893 0 1
92.905 0 1
93.0208 0 1
93.1366 0 1
93.2525 0 1
93.3685 0 1
93.4845 0 1
93.6005 1616 40.1995
93.7167 1627 40.3361
93.8328 1530 39.1152
93.949 1489 38.5876
94.0653 1472 38.3667
94.1816 1417 37.6431
94.2979 1483 38.5097
94.4143 1638 40.4722
94.5307 1748 41.8091
94.6472 1930 43.9318
94.7637 1954 44.2041
94.8803 2116 46
94.9969 2307 48.0312
95.1135 2525 50.2494
95.2302 2628 51.264
95.3469 2606 51.049
95.4637 2560 50.5964
95.5805 2554 50.5371
95.6973 2516 50.1597
95.8142 2464 49.6387
95.9311 2263 47.571
96.048 2070 45.4973
96.1649 2023 44.9778
96.2819 1860 43.1277
96.3989 1679 40.9756
96.516 1527 39.0768
96.633 1469 38.3275
96.7501 1531 39.128
96.8673 1501 38.7427
96.9844 1569 39.6106
97.1016 1544 39.2938
97.2188 1655 40.6817
97.336 1674 40.9145
97.4532 1652 40.6448
97.5704 1635 40.4351
97.6877 1508 38.833
97.805 1397 37.3765
97.9223 1426 37.7624
98.0396 1442 37.9737
98.1569 1527 39.0768
98.2743 1628 40.3485
98.3916 1813 42.5793
98.509 1946 44.1135
98.6264 2110 45.9347
98.7438 2314 48.1041
98.8612 2522 50.2195
98.9786 2525 50.2494
99.096 2554 50.5371
99.2134 2495 49.95
99.3308 2430 49.295
99.4482 2415 49.1426
99.5656 2267 47.613
99.6831 2219 47.1063
99.8005 1929 43.9204
99.9179 1728 41.5692
100.035 1641 40.5093
100.153 1491 38.6135
100.27 1504 38.7814
100.388 1506 38.8072
100.505 1546 39.3192
100.622 1557 39.4588
100.74 1602 40.025
100.857 1599 39.9875
100.975 1631 40.3856
101.092 1642 40.5216
101.209 1491 38.6135
101.327 1447 38.0395
101.444 1366 36.9594
101.561 1378 37.1214
101.679 1513 38.8973
101.796 1582 39.7744
101.913 1774 42.1189
102.03 1965 44.3283
102.148 2305 48.0104
102.265 2214 47.0532
102.382 2766 52.5928
102.499 2621 51.1957
102.616 2689 51.8556
102.733 2723 52.1824
102.851 2692 51.8845
102.968 2522 50.2195
103.085 2541 50.4083
103.202 2261 47.55
103.319 2165 46.5296
103.436 1979 44.486
103.552 1702 41.2553
103.669 1706 41.3038
103.786 1672 40.8901
103.903 1675 40.9268
104.02 1735 41.6533
104.137 1782 42.2137
104.253 1698 41.2068
104.37 1759 41.9404
104.487 1866 43.1972
104.603 1765 42.0119
104.72 1620 40.2492
104.836 1557 39.4588
104.953 1548 39.3446
105.069 1538 39.2173
105.186 1728 41.5692
105.302 1856 43.0813
105.418 2106 45.8912
105.535 2384 48.8262
105.651 2598 50.9706
105.767 2744 52.3832
105.883 2744 52.3832
105.999 2748 52.4214
106.115 0 1
106.231 0 1
106.347 0 1
106.463 0 1
106.579 0 1
106.694 0 1
106.81 0 1
106.926 0 1
107.041 0 1
107.157 0 1
109.576 0 1
109.692 0 1
109.807 0 1
109.923 0 1
110.039 0 1
110.155 0 1
110.27 0 1
110.386 0 1
110.502 0 1
110.618 2130 46.1519
110.735 2367 48.6518
110.851 2407 49.0612
110.967 2402 49.0102
111.083 2440 49.3964
111.199 2460 49.5984
111.316 2482 49.8197
111.432 2402 49.0102
111.549 2229 47.2123
111.665 2082 45.6289
111.782 1923 43.852
111.898 1754 41.8808
112.015 1537 39.2046
112.132 1620 40.2492
112.248 1602 40.025
112.365 1560 39.4968
112.482 1635 40.4351
112.599 1592 39.8999
112.716 1497 38.6911
112.832 1456 38.1576
112.949 1470 38.3406
113.066 1407 37.51
113.183 1279 35.7631
113.3 1286 35.8608
113.417 1225 35
113.534 1268 35.609
113.652 1271 35.6511
113.769 1497 38.6911
113.886 1582 39.7744
114.003 1698 41.2068
114.12 1787 42.2729
114.238 1985 44.5533
114.355 2015 44.8888
114.472 2017 44.911
114.589 1996 44.6766
114.707 2007 44.7996
114.824 1862 43.1509
114.942 1916 43.7721
115.059 1813 42.5793
115.176 1662 40.7676
115.294 1663 40.7799
115.411 1410 37.55
115.529 1440 37.9473
115.646 1270 35.6371
115.764 1255 35.426
115.881 1220 34.9285
115.999 1281 35.7911
116.116 1205 34.7131
116.234 1202 34.6699
116.351 1182 34.3802
116.469 1181 34.3657
116.586 1138 33.7343
116.704 1068 32.6803
116.821 963 31.0322
116.939 989 31.4484
117.056 1056 32.4962
117.174 1091 33.0303
117.291 1186 34.4384
117.409 1242 35.242
117.526 1384 37.2022
117.644 1420 37.6829
117.761 1539 39.2301
117.879 1642 40.5216
117.996 1614 40.1746
118.114 1690 41.1096
118.231 1657 40.7063
118.349 1653 40.6571
118.466 1629 40.3609
118.584 1641 40.5093
118.701 1568 39.598
118.819 1414 37.6032
118.936 1431 37.8286
119.053 1393 37.3229
119.171 1254 35.4119
119.288 1272 35.6651
119.405 1297 36.0139
119.523 1250 35.3553
119.64 1327 36.428
119.757 1239 35.1994
119.875 1268 35.609
119.992 1162 34.0881
120.109 1198 34.6121
120.226 1160 34.0588
120.343 1137 33.7194
120.46 1105 33.2415
120.578 1054 32.4654
120.695 1204 34.6987
120.812 1283 35.819
120.929 1230 35.0714
121.046 1386 37.229
121.163 1519 38.9744
121.279 1584 39.7995
121.396 1624 40.2989
121.513 1758 41.9285
121.63 1820 42.6615
121.747 1796 42.3792
121.863 1853 43.0465
121.98 1883 43.3935
122.097 1792 42.332
122.213 1745 41.7732
122.33 1768 42.0476
122.446 1716 41.4246
122.563 1680 40.9878
122.679 1690 41.1096
122.795 1539 39.2301
122.912 1545 39.3065
123.028 1502 38.7556
123.144 1504 38.7814
123.26 1485 38.5357
123.377 0 1
123.493 0 1
123.609 0 1
123.725 0 1
123.84 0 1
123.956 0 1
124.072 0 1
124.188 0 1
124.303 0 1
124.419 0 1
126.852 0 1
126.968 0 1
127.083 0 1
127.199 0 1
127.315 0 1
127.431 0 1
127.547 0 1
127.663 0 1
127.779 0 1
127.895 0 1
128.011 0 1
128.127 0 1
128.243 0 1
128.359 1789 42.2966
128.476 1787 42.2729
128.592 1886 43.4281
128.708 1817 42.6263
128.825 1921 43.8292
128.941 1907 43.6692
129.058 1840 42.8952
129.174 1718 41.4488
129.291 1852 43.0349
129.408 1721 41.4849
129.524 1680 40.9878
129.641 1723 41.509
129.758 1657 40.7063
129.875 1693 41.1461
129.992 1708 41.328
130.108 1820 42.6615
130.225 1828 42.7551
130.342 1924 43.8634
130.459 1943 44.0795
130.576 1958 44.2493
130.693 1961 44.2832
130.81 2021 44.9555
130.928 1867 43.2088
131.045 1979 44.486
131.162 1814 42.5911
131.279 1927 43.8976
131.396 1785 42.2493
131.513 1835 42.8369
131.631 1871 43.2551
131.748 1723 41.509
131.865 1688 41.0853
131.983 1624 40.2989
132.1 1666 40.8167
132.217 1727 41.5572
132.335 1715 41.4126
132.452 1750 41.833
132.57 1780 42.19
132.687 1615 40.1871
132.804 1784 42.2374
132.922 1651 40.6325
133.039 1579 39.7366
133.157 1604 40.05
133.274 1545 39.3065
133.392 1632 40.398
133.509 1677 40.9512
133.627 1677 40.9512
133.744 1706 41.3038
133.862 1781 42.2019
133.979 1793 42.3438
134.097 1787 42.2729
134.214 1849 43
134.332 1665 40.8044
134.449 1731 41.6053
134.567 1755 41.8927
134.684 1780 42.19
134.802 1685 41.0488
134.919 1691 41.1218
135.037 1755 41.8927
135.154 1623 40.2865
135.272 1589 39.8623
135.389 1613 40.1622
135.507 1507 38.8201
135.624 1536 39.1918
135.742 1628 40.3485
135.859 1576 39.6989
135.977 1536 39.1918
136.094 1588 39.8497
136.211 1583 39.7869
136.329 1443 37.9868
136.446 1439 37.9342
136.564 1457 38.1707
136.681 1375 37.081
136.798 1350 36.7423
136.915 1306 36.1386
137.033 1284 35.8329
137.15 1387 37.2424
137.267 1373 37.054
137.384 1419 37.6696
137.502 1477 38.4318
137.619 1501 38.7427
137.736 1425 37.7492
137.853 1465 38.2753
137.97 1424 37.7359
138.087 1470 38.3406
138.204 1534 39.1663
138.321 1552 39.3954
138.438 1506 38.8072
138.555 1623 40.2865
138.672 1534 39.1663
138.788 1556 39.4462
138.905 1596 39.95
139.022 1522 39.0128
139.139 1550 39.37
139.255 1621 40.2616
139.372 1636 40.4475
139.488 1607 40.0874
139.605 1704 41.2795
139.721 1729 41.5812
139.838 1708 41.328
139.954 1707 41.3159
140.071 1632 40.398
140.187 1685 41.0488
140.303 1615 40.1871
140.419 1606 40.0749
140.535 1628 40.3485
140.652 1554 39.4208
140.768 0 1
140.884 0 1
141 0 1
141.115 0 1
141.231 0 1
141.347 0 1
141.463 0 1
141.578 0 1
141.694 0 1
144.104 0 1
144.219 0 1
144.335 0 1
144.45 0 1
144.566 0 1
144.682 0 1
144.798 0 1
144.914 0 1
145.03 0 1
145.146 1834 42.8252
145.262 1951 44.1701
145.378 1966 44.3396
145.494 2091 45.7275
145.61 2006 44.7884
145.726 2227 47.1911
145.842 2253 47.4658
145.959 2402 49.0102
146.075 2576 50.7543
146.192 2686 51.8266
146.308 2866 53.535
146.425 3093 55.6147
146.541 3288 57.3411
146.658 3440 58.6515
146.774 3653 60.4401
146.891 3725 61.0328
147.008 3963 62.9524
147.125 4162 64.5136
147.241 4309 65.643
147.358 4473 66.8805
147.475 4532 67.3201
147.592 4502 67.0969
147.709 4441 66.6408
147.826 4337 65.8559
147.943 4499 67.0746
148.06 4720 68.7023
148.177 5161 71.8401
148.294 5339 73.0685
148.411 5442 73.7699
148.528 5406 73.5255
148.645 5411 73.5595
148.762 5267 72.5741
148.88 5223 72.2703
148.997 5351 73.1505
149.114 4879 69.8498
149.231 4789 69.2026
149.349 4891 69.9357
149.466 5030 70.9225
149.583 4889 69.9214
149.701 4837 69.5485
149.818 5028 70.9084
149.935 5046 71.0352
150.053 5001 70.7177
150.17 5237 72.3671
150.287 5074 71.232
150.405 5272 72.6085
150.522 5214 72.208
150.64 5293 72.753
150.757 5478 74.0135
150.875 5446 73.797
150.992 5519 74.29
151.11 5550 74.4983
151.227 5203 72.1318
151.344 4771 69.0724
151.462 4994 70.6682
151.579 5123 71.5751
151.697 5577 74.6793
151.814 5760 75.8947
151.932 5897 76.7919
152.049 5962 77.214
152.167 5920 76.9415
152.284 5911 76.883
152.402 5848 76.4722
152.519 5679 75.3591
152.636 5582 74.7128
152.754 5695 75.4652
152.871 5682 75.379
152.989 5458 73.8783
153.106 5399 73.4779
153.223 5360 73.212
153.341 5608 74.8866
153.458 5622 74.98
153.575 5892 76.7594
153.693 5863 76.5702
153.81 5913 76.896
153.927 6080 77.9744
154.044 6249 79.0506
154.162 6238 78.981
154.279 6442 80.2621
154.396 6421 80.1311
154.513 6748 82.1462
154.63 6631 81.431
154.747 6597 81.2219
154.864 6477 80.4798
154.981 6176 78.5875
155.098 6386 79.9125
155.215 6608 81.2896
155.332 6990 83.6062
155.449 7298 85.4283
155.566 7304 85.4634
155.683 7360 85.7904
155.8 7404 86.0465
155.917 7254 85.1704
156.033 7210 84.9117
156.15 0 1
156.267 0 1
156.383 0 1
156.5 0 1
156.617 0 1
156.733 0 1
156.85 0 1
156.966 0 1
157.082 0 1
157.199 0 1
157.315 0 1
157.431 0 1
157.547 0 1
157.664 0 1
157.78 0 1
157.896 0 1
158.012 0 1
158.128 0 1
158.244 0 1
158.359 0 1
158.475 0 1
158.591 0 1
158.706 0 1
