
6.15755 0 1
6.2731 0 1
6.3887 0 1
6.50437 0 1
6.62009 0 1
6.73587 0 1
6.8517 0 1
6.96759 0 1
7.08353 0 1
7.19952 0 1
7.31557 0 1
7.43166 0 1
7.54781 0 1
7.664 0 1
7.78024 0 1
7.89653 0 1
8.01286 0 1
8.12924 0 1
8.24567 0 1
8.36213 0 1
8.47864 0 1
8.59519 0 1
8.71178 0 1
8.82841 0 1
8.94508 0 1
9.06179 0 1
9.17853 0 1
9.29531 0 1
9.41212 0 1
9.52897 0 1
9.64584 0 1
9.76276 0 1
9.8797 0 1
9.99667 0 1
10.1137 0 1
10.2307 0 1
10.3478 0 1
10.4648 0 1
10.5819 0 1
10.6991 0 1
10.8162 0 1
10.9334 0 1
11.0506 0 1
11.1678 0 1
11.285 0 1
11.4023 0 1
11.5196 0 1
11.6369 0 1
11.7542 0 1
11.8715 0 1
11.9888 0 1
12.1062 0 1
12.2235 0 1
12.3409 0 1
12.4582 0 1
12.5756 0 1
12.693 0 1
12.8104 0 1
12.9278 0 1
13.0452 0 1
13.1626 0 1
13.28 0 1
13.3974 0 1
13.5149 0 1
13.6323 0 1
13.7497 0 1
13.8671 0 1
13.9845 0 1
14.1019 0 1
14.2193 0 1
14.3367 0 1
14.4541 0 1
14.5714 0 1
14.6888 0 1
14.8062 0 1
14.9235 0 1
15.0408 857 29.2746
15.1581 902 30.0333
15.2755 917 30.282
15.3927 985 31.3847
15.51 909 30.1496
15.6273 908 30.133
15.7445 896 29.9333
15.8617 905 30.0832
15.9789 934 30.5614
16.0961 867 29.4449
16.2132 827 28.7576
16.3304 856 29.2575
16.4475 854 29.2233
16.5646 823 28.688
16.6816 828 28.775
16.7986 775 27.8388
16.9156 794 28.178
17.0326 816 28.5657
17.1496 727 26.9629
17.2665 748 27.3496
17.3833 816 28.5657
17.5002 781 27.9464
17.617 750 27.3861
17.7338 719 26.8142
17.8505 769 27.7308
17.9672 783 27.9821
18.0839 811 28.4781
18.2005 825 28.7228
18.3171 829 28.7924
18.4337 774 27.8209
18.5502 737 27.1477
18.6666 768 27.7128
18.7831 791 28.1247
18.8994 777 27.8747
19.0158 759 27.55
19.1321 689 26.2488
19.2483 695 26.3629
19.3645 649 25.4755
19.4806 717 26.7769
19.5967 629 25.0799
19.7128 610 24.6982
19.8288 563 23.7276
19.9447 572 23.9165
20.0606 0 1
20.1764 0 1
20.2922 0 1
20.4079 0 1
20.5236 0 1
20.6392 0 1
20.7548 0 1
20.8702 0 1
23.3078 0 1
23.4233 0 1
23.539 0 1
23.6547 0 1
23.7704 0 1
23.8862 0 1
24.0021 0 1
24.118 0 1
24.234 0 1
24.35 0 1
24.4661 358 18.9209
24.5822 423 20.567
24.6984 501 22.383
24.8146 498 22.3159
24.9309 635 25.1992
25.0472 733 27.074
25.1636 743 27.258
25.28 727 26.9629
25.3965 823 28.688
25.513 859 29.3087
25.6296 893 29.8831
25.7462 804 28.3549
25.8628 850 29.1548
25.9795 896 29.9333
26.0962 818 28.6007
26.213 819 28.6182
26.3298 769 27.7308
26.4466 726 26.9444
26.5635 726 26.9444
26.6804 742 27.2397
26.7973 701 26.4764
26.9143 712 26.6833
27.0313 707 26.5895
27.1483 704 26.533
27.2653 707 26.5895
27.3824 813 28.5132
27.4996 769 27.7308
27.6167 784 28
27.7339 691 26.2869
27.8511 669 25.865
27.9683 745 27.2947
28.0855 711 26.6646
28.2028 739 27.1846
28.3201 801 28.3019
28.4374 774 27.8209
28.5547 770 27.7489
28.6721 760 27.5681
28.7894 798 28.2489
28.9068 783 27.9821
29.0242 789 28.0891
29.1416 726 26.9444
29.259 703 26.5141
29.3764 732 27.0555
29.4939 720 26.8328
29.6113 743 27.258
29.7288 634 25.1794
29.8463 670 25.8844
29.9638 682 26.1151
30.0812 640 25.2982
30.1987 707 26.5895
30.3162 682 26.1151
30.4337 693 26.3249
30.5512 684 26.1534
30.6687 711 26.6646
30.7862 737 27.1477
30.9037 748 27.3496
31.0212 741 27.2213
31.1387 749 27.3679
31.2562 743 27.258
31.3737 679 26.0576
31.4912 710 26.6458
31.6087 724 26.9072
31.7262 794 28.178
31.8436 804 28.3549
31.9611 741 27.2213
32.0785 763 27.6225
32.1959 764 27.6405
32.3134 707 26.5895
32.4308 736 27.1293
32.5482 671 25.9037
32.6655 690 26.2679
32.7829 647 25.4362
32.9002 620 24.8998
33.0176 652 25.5343
33.1349 627 25.04
33.2522 556 23.5797
33.3694 605 24.5967
33.4867 626 25.02
33.6039 591 24.3105
33.7211 598 24.454
33.8383 685 26.1725
33.9554 667 25.8263
34.0725 685 26.1725
34.1896 649 25.4755
34.3067 676 26
34.4237 673 25.9422
34.5407 726 26.9444
34.6577 673 25.9422
34.7746 632 25.1396
34.8915 661 25.7099
35.0084 655 25.593
35.1252 600 24.4949
35.242 647 25.4362
35.3587 662 25.7294
35.4755 671 25.9037
35.5921 690 26.2679
35.7088 679 26.0576
35.8254 641 25.318
35.9419 715 26.7395
36.0584 685 26.1725
36.1749 661 25.7099
36.2913 629 25.0799
36.4077 623 24.96
36.524 619 24.8797
36.6403 545 23.3452
36.7565 511 22.6053
36.8727 469 21.6564
36.9889 448 21.166
37.1049 383 19.5704
37.221 0 1
37.3369 0 1
37.4529 0 1
37.5687 0 1
37.6845 0 1
37.8003 0 1
37.916 0 1
38.0316 0 1
38.1472 0 1
40.5851 0 1
40.7008 0 1
40.8164 0 1
40.9322 0 1
41.048 0 1
41.1639 0 1
41.2798 0 1
41.3958 0 1
41.5118 0 1
41.6279 0 1
41.744 282 16.7929
41.8602 318 17.8326
41.9765 366 19.1311
42.0928 384 19.5959
42.2091 433 20.8087
42.3255 380 19.4936
42.4419 492 22.1811
42.5584 525 22.9129
42.675 490 22.1359
42.7915 514 22.6716
42.9081 545 23.3452
43.0248 542 23.2809
43.1415 487 22.0681
43.2582 494 22.2261
43.375 507 22.5167
43.4918 502 22.4054
43.6087 504 22.4499
43.7256 509 22.561
43.8425 478 21.8632
43.9595 436 20.8806
44.0765 470 21.6795
44.1935 486 22.0454
44.3106 508 22.5389
44.4277 538 23.1948
44.5448 558 23.622
44.6619 548 23.4094
44.7791 498 22.3159
44.8963 527 22.9565
45.0136 529 23
45.1308 555 23.5584
45.2481 577 24.0208
45.3654 538 23.1948
45.4827 550 23.4521
45.6001 519 22.7816
45.7174 548 23.4094
45.8348 500 22.3607
45.9522 468 21.6333
46.0697 500 22.3607
46.1871 514 22.6716
46.3046 501 22.383
46.422 453 21.2838
46.5395 499 22.3383
46.657 494 22.2261
46.7745 514 22.6716
46.892 498 22.3159
47.0096 519 22.7816
47.1271 513 22.6495
47.2446 522 22.8473
47.3622 532 23.0651
47.4797 474 21.7715
47.5973 462 21.4942
47.7149 471 21.7025
47.8324 533 23.0868
47.95 527 22.9565
48.0675 506 22.4944
48.1851 492 22.1811
48.3027 515 22.6936
48.4202 499 22.3383
48.5378 542 23.2809
48.6554 513 22.6495
48.7729 527 22.9565
48.8904 535 23.1301
49.008 556 23.5797
49.1255 489 22.1133
49.243 460 21.4476
49.3605 487 22.0681
49.478 481 21.9317
49.5955 447 21.1424
49.713 472 21.7256
49.8304 479 21.8861
49.9479 467 21.6102
50.0653 526 22.9347
50.1827 525 22.9129
50.3001 471 21.7025
50.4175 511 22.6053
50.5348 495 22.2486
50.6521 481 21.9317
50.7694 534 23.1084
50.8867 477 21.8403
51.004 462 21.4942
51.1212 443 21.0476
51.2384 534 23.1084
51.3556 565 23.7697
51.4727 571 23.8956
51.5899 608 24.6577
51.707 556 23.5797
51.824 604 24.5764
51.9411 626 25.02
52.0581 572 23.9165
52.175 587 24.2281
52.2919 560 23.6643
52.4088 587 24.2281
52.5257 592 24.3311
52.6425 571 23.8956
52.7593 567 23.8118
52.876 575 23.9792
52.9927 526 22.9347
53.1094 507 22.5167
53.226 579 24.0624
53.3426 614 24.779
53.4591 658 25.6515
53.5756 725 26.9258
53.692 770 27.7489
53.8084 951 30.8383
53.9248 1108 33.2866
54.0411 1303 36.0971
54.1573 1402 37.4433
54.2735 0 1
54.3896 0 1
54.5057 0 1
54.6217 0 1
54.7377 0 1
54.8537 0 1
54.9695 0 1
55.0853 0 1
55.2011 0 1
55.3168 0 1
55.4324 0 1
57.824 0 1
57.9396 0 1
58.0553 0 1
58.1711 0 1
58.2869 0 1
58.4028 0 1
58.5187 0 1
58.6347 0 1
58.7508 0 1
58.8669 0 1
58.983 42876 207.065
59.0992 48323 219.825
59.2155 51103 226.06
59.3318 54900 234.307
59.4482 58578 242.029
59.5646 59700 244.336
59.681 59541 244.01
59.7975 56627 237.964
59.9141 53802 231.953
60.0306 51482 226.896
60.1473 50691 225.147
60.2639 48859 221.041
60.3807 45634 213.621
60.4974 41582 203.917
60.6142 36984 192.312
60.731 33100 181.934
60.8479 29730 172.424
60.9648 26587 163.055
61.0818 23816 154.324
61.1987 20973 144.821
61.3158 17249 131.335
61.4328 13518 116.267
61.5499 9333 96.6075
61.667 5929 77
61.7841 3878 62.2736
61.9013 3299 57.4369
62.0185 3712 60.9262
62.1357 4521 67.2384
62.253 4757 68.971
62.3702 4342 65.8939
62.4875 3708 60.8933
62.6049 3247 56.9825
62.7222 2767 52.6023
62.8396 2288 47.833
62.9569 1902 43.6119
63.0743 1726 41.5452
63.1918 1293 35.9583
63.3092 1131 33.6303
63.4267 968 31.1127
63.5441 889 29.8161
63.6616 811 28.4781
63.7791 760 27.5681
63.8966 733 27.074
64.0142 663 25.7488
64.1317 702 26.4953
64.2492 667 25.8263
64.3668 671 25.9037
64.4843 655 25.593
64.6019 661 25.7099
64.7195 574 23.9583
64.837 615 24.7992
64.9546 598 24.454
65.0722 608 24.6577
65.1898 569 23.8537
65.3074 597 24.4336
65.4249 520 22.8035
65.5425 578 24.0416
65.6601 526 22.9347
65.7777 543 23.3024
65.8952 529 23
66.0128 564 23.7487
66.1304 588 24.2487
66.2479 592 24.3311
66.3655 596 24.4131
66.483 568 23.8328
66.6005 594 24.3721
66.718 621 24.9199
66.8355 576 24
66.953 515 22.6936
67.0705 543 23.3024
67.1879 528 22.9783
67.3054 584 24.1661
67.4228 567 23.8118
67.5402 588 24.2487
67.6576 599 24.4745
67.7749 597 24.4336
67.8923 588 24.2487
68.0096 606 24.6171
68.1269 599 24.4745
68.2442 574 23.9583
68.3614 570 23.8747
68.4787 608 24.6577
68.5958 556 23.5797
68.713 547 23.388
68.8302 514 22.6716
68.9473 557 23.6008
69.0643 536 23.1517
69.1814 519 22.7816
69.2984 516 22.7156
69.4154 535 23.1301
69.5323 539 23.2164
69.6492 577 24.0208
69.7661 564 23.7487
69.8829 547 23.388
69.9997 529 23
70.1165 529 23
70.2332 564 23.7487
70.3499 519 22.7816
70.4665 526 22.9347
70.5831 448 21.166
70.6996 404 20.0998
70.8161 424 20.5913
70.9326 375 19.3649
71.049 329 18.1384
71.1653 324 18
71.2817 295 17.1756
71.3979 319 17.8606
71.5141 296 17.2047
71.6303 245 15.6525
71.7464 190 13.784
71.8624 0 1
71.9784 0 1
72.0944 0 1
72.2102 0 1
72.3261 0 1
72.4418 0 1
72.5575 0 1
72.6732 0 1
75.1054 0 1
75.2209 0 1
75.3365 0 1
75.4521 0 1
75.5678 0 1
75.6835 0 1
75.7993 0 1
75.9151 0 1
76.031 0 1
76.147 277 16.6433
76.263 363 19.0526
76.3791 401 20.025
76.4952 462 21.4942
76.6113 484 22
76.7276 488 22.0907
76.8438 471 21.7025
76.9601 477 21.8403
77.0765 488 22.0907
77.1929 476 21.8174
77.3093 501 22.383
77.4258 487 22.0681
77.5423 465 21.5639
77.6589 505 22.4722
77.7755 448 21.166
77.8921 462 21.4942
78.0088 451 21.2368
78.1256 409 20.2237
78.2423 417 20.4206
78.3591 431 20.7605
78.4759 501 22.383
78.5928 468 21.6333
78.7097 488 22.0907
78.8266 419 20.4695
78.9436 484 22
79.0606 434 20.8327
79.1776 479 21.8861
79.2946 474 21.7715
79.4117 496 22.2711
79.5288 472 21.7256
79.6459 488 22.0907
79.7631 483 21.9773
79.8802 490 22.1359
79.9974 479 21.8861
80.1147 473 21.7486
80.2319 500 22.3607
80.3491 513 22.6495
80.4664 501 22.383
80.5837 487 22.0681
80.701 493 22.2036
80.8183 457 21.3776
80.9357 482 21.9545
81.053 458 21.4009
81.1704 451 21.2368
81.2877 517 22.7376
81.4051 493 22.2036
81.5225 535 23.1301
81.6399 517 22.7376
81.7573 463 21.5174
81.8747 405 20.1246
81.9922 429 20.7123
82.1096 418 20.445
82.227 508 22.5389
82.3444 498 22.3159
82.4619 490 22.1359
82.5793 491 22.1585
82.6967 467 21.6102
82.8142 503 22.4277
82.9316 475 21.7945
83.049 492 22.1811
83.1664 530 23.0217
83.2838 476 21.8174
83.4012 523 22.8692
83.5186 449 21.1896
83.636 470 21.6795
83.7534 463 21.5174
83.8708 487 22.0681
83.9881 496 22.2711
84.1055 501 22.383
84.2228 485 22.0227
84.3401 516 22.7156
84.4575 480 21.9089
84.5747 507 22.5167
84.692 527 22.9565
84.8093 469 21.6564
84.9265 513 22.6495
85.0437 503 22.4277
85.1609 492 22.1811
85.2781 493 22.2036
85.3952 488 22.0907
85.5123 408 20.199
85.6294 437 20.9045
85.7465 421 20.5183
85.8636 468 21.6333
85.9806 472 21.7256
86.0976 456 21.3542
86.2145 470 21.6795
86.3315 507 22.5167
86.4484 507 22.5167
86.5652 556 23.5797
86.682 486 22.0454
86.7988 487 22.0681
86.9156 465 21.5639
87.0323 494 22.2261
87.149 509 22.561
87.2657 476 21.8174
87.3823 488 22.0907
87.4988 441 21
87.6154 467 21.6102
87.7318 463 21.5174
87.8483 486 22.0454
87.9647 446 21.1187
88.081 386 19.6469
88.1973 399 19.975
88.3136 321 17.9165
88.4298 339 18.412
88.546 273 16.5227
88.6621 285 16.8819
88.7781 249 15.7797
88.8942 0 1
89.0101 0 1
89.126 0 1
89.2419 0 1
89.3577 0 1
89.4734 0 1
89.5891 0 1
89.7047 0 1
89.8203 0 1
89.9358 0 1
92.3269 0 1
92.4424 0 1
92.558 0 1
92.6736 0 1
92.7893 0 1
92.905 0 1
93.0208 0 1
93.1366 0 1
93.2525 0 1
93.3685 0 1
93.4845 0 1
93.6005 364 19.0788
93.7167 366 19.1311
93.8328 441 21
93.949 451 21.2368
94.0653 467 21.6102
94.1816 488 22.0907
94.2979 520 22.8035
94.4143 477 21.8403
94.5307 445 21.095
94.6472 466 21.587
94.7637 437 20.9045
94.8803 452 21.2603
94.9969 426 20.6398
95.1135 482 21.9545
95.2302 459 21.4243
95.3469 471 21.7025
95.4637 494 22.2261
95.5805 545 23.3452
95.6973 517 22.7376
95.8142 529 23
95.9311 494 22.2261
96.048 476 21.8174
96.1649 431 20.7605
96.2819 482 21.9545
96.3989 443 21.0476
96.516 497 22.2935
96.633 488 22.0907
96.7501 490 22.1359
96.8673 474 21.7715
96.9844 517 22.7376
97.1016 468 21.6333
97.2188 477 21.8403
97.336 487 22.0681
97.4532 465 21.5639
97.5704 501 22.383
97.6877 485 22.0227
97.805 497 22.2935
97.9223 507 22.5167
98.0396 512 22.6274
98.1569 495 22.2486
98.2743 491 22.1585
98.3916 484 22
98.509 448 21.166
98.6264 469 21.6564
98.7438 476 21.8174
98.8612 503 22.4277
98.9786 504 22.4499
99.096 528 22.9783
99.2134 505 22.4722
99.3308 554 23.5372
99.4482 537 23.1733
99.5656 553 23.516
99.6831 514 22.6716
99.8005 535 23.1301
99.9179 529 23
100.035 471 21.7025
100.153 519 22.7816
100.27 506 22.4944
100.388 519 22.7816
100.505 521 22.8254
100.622 506 22.4944
100.74 514 22.6716
100.857 513 22.6495
100.975 510 22.5832
101.092 506 22.4944
101.209 602 24.5357
101.327 528 22.9783
101.444 515 22.6936
101.561 551 23.4734
101.679 543 23.3024
101.796 540 23.2379
101.913 518 22.7596
102.03 427 20.664
102.148 504 22.4499
102.265 495 22.2486
102.382 524 22.891
102.499 527 22.9565
102.616 560 23.6643
102.733 503 22.4277
102.851 579 24.0624
102.968 570 23.8747
103.085 581 24.1039
103.202 546 23.3666
103.319 497 22.2935
103.436 494 22.2261
103.552 469 21.6564
103.669 531 23.0434
103.786 523 22.8692
103.903 553 23.516
104.02 549 23.4307
104.137 557 23.6008
104.253 524 22.891
104.37 554 23.5372
104.487 515 22.6936
104.603 561 23.6854
104.72 518 22.7596
104.836 504 22.4499
104.953 525 22.9129
105.069 490 22.1359
105.186 483 21.9773
105.302 466 21.587
105.418 422 20.5426
105.535 356 18.868
105.651 370 19.2354
105.767 326 18.0555
105.883 296 17.2047
105.999 264 16.2481
106.115 0 1
106.231 0 1
106.347 0 1
106.463 0 1
106.579 0 1
106.694 0 1
106.81 0 1
106.926 0 1
107.041 0 1
107.157 0 1
109.576 0 1
109.692 0 1
109.807 0 1
109.923 0 1
110.039 0 1
110.155 0 1
110.27 0 1
110.386 0 1
110.502 0 1
110.618 280 16.7332
110.735 317 17.8045
110.851 337 18.3576
110.967 366 19.1311
111.083 411 20.2731
111.199 426 20.6398
111.316 460 21.4476
111.432 482 21.9545
111.549 486 22.0454
111.665 535 23.1301
111.782 522 22.8473
111.898 498 22.3159
112.015 460 21.4476
112.132 497 22.2935
112.248 486 22.0454
112.365 514 22.6716
112.482 510 22.5832
112.599 443 21.0476
112.716 540 23.2379
112.832 474 21.7715
112.949 445 21.095
113.066 467 21.6102
113.183 445 21.095
113.3 471 21.7025
113.417 454 21.3073
113.534 459 21.4243
113.652 517 22.7376
113.769 516 22.7156
113.886 547 23.388
114.003 461 21.4709
114.12 498 22.3159
114.238 473 21.7486
114.355 432 20.7846
114.472 391 19.7737
114.589 439 20.9523
114.707 408 20.199
114.824 494 22.2261
114.942 501 22.383
115.059 505 22.4722
115.176 486 22.0454
115.294 509 22.561
115.411 504 22.4499
115.529 467 21.6102
115.646 454 21.3073
115.764 452 21.2603
115.881 490 22.1359
115.999 440 20.9762
116.116 499 22.3383
116.234 485 22.0227
116.351 459 21.4243
116.469 467 21.6102
116.586 453 21.2838
116.704 439 20.9523
116.821 441 21
116.939 419 20.4695
117.056 492 22.1811
117.174 443 21.0476
117.291 447 21.1424
117.409 478 21.8632
117.526 472 21.7256
117.644 469 21.6564
117.761 458 21.4009
117.879 411 20.2731
117.996 353 18.7883
118.114 402 20.0499
118.231 413 20.3224
118.349 453 21.2838
118.466 481 21.9317
118.584 479 21.8861
118.701 452 21.2603
118.819 475 21.7945
118.936 441 21
119.053 417 20.4206
119.171 452 21.2603
119.288 420 20.4939
119.405 425 20.6155
119.523 401 20.025
119.64 458 21.4009
119.757 462 21.4942
119.875 420 20.4939
119.992 400 20
120.109 430 20.7364
120.226 428 20.6882
120.343 429 20.7123
120.46 448 21.166
120.578 436 20.8806
120.695 422 20.5426
120.812 428 20.6882
120.929 452 21.2603
121.046 469 21.6564
121.163 428 20.6882
121.279 418 20.445
121.396 422 20.5426
121.513 438 20.9284
121.63 360 18.9737
121.747 384 19.5959
121.863 368 19.1833
121.98 388 19.6977
122.097 392 19.799
122.213 368 19.1833
122.33 357 18.8944
122.446 355 18.8414
122.563 309 17.5784
122.679 318 17.8326
122.795 292 17.088
122.912 270 16.4317
123.028 251 15.843
123.144 219 14.7986
123.26 226 15.0333
123.377 0 1
123.493 0 1
123.609 0 1
123.725 0 1
123.84 0 1
123.956 0 1
124.072 0 1
124.188 0 1
124.303 0 1
124.419 0 1
126.852 0 1
126.968 0 1
127.083 0 1
127.199 0 1
127.315 0 1
127.431 0 1
127.547 0 1
127.663 0 1
127.779 0 1
127.895 0 1
128.011 0 1
128.127 0 1
128.243 0 1
128.359 485 22.0227
128.476 468 21.6333
128.592 473 21.7486
128.708 506 22.4944
128.825 490 22.1359
128.941 494 22.2261
129.058 510 22.5832
129.174 519 22.7816
129.291 529 23
129.408 527 22.9565
129.524 537 23.1733
129.641 517 22.7376
129.758 494 22.2261
129.875 499 22.3383
129.992 581 24.1039
130.108 578 24.0416
130.225 603 24.5561
130.342 588 24.2487
130.459 582 24.1247
130.576 556 23.5797
130.693 573 23.9374
130.81 714 26.7208
130.928 934 30.5614
131.045 1078 32.8329
131.162 1172 34.2345
131.279 1332 36.4966
131.396 1380 37.1484
131.513 1417 37.6431
131.631 1427 37.7757
131.748 1488 38.5746
131.865 1499 38.7169
131.983 1443 37.9868
132.1 1438 37.921
132.217 1542 39.2683
132.335 1583 39.7869
132.452 1584 39.7995
132.57 1651 40.6325
132.687 1635 40.4351
132.804 1642 40.5216
132.922 1640 40.4969
133.039 1625 40.3113
133.157 1606 40.0749
133.274 1628 40.3485
133.392 1577 39.7115
133.509 1580 39.7492
133.627 1488 38.5746
133.744 1540 39.2428
133.862 1417 37.6431
133.979 1356 36.8239
134.097 1173 34.2491
134.214 1100 33.1662
134.332 1123 33.5112
134.449 1220 34.9285
134.567 1349 36.7287
134.684 1321 36.3456
134.802 1339 36.5923
134.919 1335 36.5377
135.037 1361 36.8917
135.154 1286 35.8608
135.272 1254 35.4119
135.389 1190 34.4964
135.507 1279 35.7631
135.624 1188 34.4674
135.742 1225 35
135.859 1303 36.0971
135.977 1293 35.9583
136.094 1295 35.9861
136.211 1298 36.0278
136.329 1335 36.5377
136.446 1260 35.4965
136.564 1281 35.7911
136.681 1292 35.9444
136.798 1260 35.4965
136.915 1222 34.9571
137.033 1245 35.2846
137.15 1179 34.3366
137.267 1290 35.9166
137.384 1201 34.6554
137.502 1144 33.8231
137.619 1132 33.6452
137.736 1083 32.909
137.853 969 31.1288
137.97 938 30.6268
138.087 988 31.4325
138.204 1099 33.1512
138.321 1054 32.4654
138.438 1075 32.7872
138.555 1088 32.9848
138.672 1056 32.4962
138.788 1077 32.8177
138.905 961 31
139.022 973 31.1929
139.139 930 30.4959
139.255 912 30.1993
139.372 893 29.8831
139.488 838 28.9482
139.605 843 29.0345
139.721 751 27.4044
139.838 751 27.4044
139.954 737 27.1477
140.071 679 26.0576
140.187 679 26.0576
140.303 586 24.2074
140.419 602 24.5357
140.535 548 23.4094
140.652 572 23.9165
140.768 0 1
140.884 0 1
141 0 1
141.115 0 1
141.231 0 1
141.347 0 1
141.463 0 1
141.578 0 1
141.694 0 1
144.104 0 1
144.219 0 1
144.335 0 1
144.45 0 1
144.566 0 1
144.682 0 1
144.798 0 1
144.914 0 1
145.03 0 1
145.146 1113 33.3617
145.262 1216 34.8712
145.378 1315 36.2629
145.494 1348 36.7151
145.61 1368 36.9865
145.726 1458 38.1838
145.842 1427 37.7757
145.959 1441 37.9605
146.075 1402 37.4433
146.192 1419 37.6696
146.308 1346 36.6879
146.425 1346 36.6879
146.541 1357 36.8375
146.658 1391 37.2961
146.774 1455 38.1445
146.891 1409 37.5366
147.008 1551 39.3827
147.125 1512 38.8844
147.241 1592 39.8999
147.358 1721 41.4849
147.475 1729 41.5812
147.592 1686 41.0609
147.709 1624 40.2989
147.826 1591 39.8873
147.943 1582 39.7744
148.06 1636 40.4475
148.177 1675 40.9268
148.294 1710 41.3521
148.411 1791 42.3202
148.528 1793 42.3438
148.645 1693 41.1461
148.762 1773 42.107
148.88 1733 41.6293
148.997 1836 42.8486
149.114 1835 42.8369
149.231 1823 42.6966
149.349 1826 42.7317
149.466 1866 43.1972
149.583 1893 43.5086
149.701 1784 42.2374
149.818 1841 42.9069
149.935 1831 42.7902
150.053 1793 42.3438
150.17 1675 40.9268
150.287 1668 40.8412
150.405 1712 41.3763
150.522 1629 40.3609
150.64 1617 40.2119
150.757 1792 42.332
150.875 1721 41.4849
150.992 1817 42.6263
151.11 1742 41.7373
151.227 1662 40.7676
151.344 1715 41.4126
151.462 1716 41.4246
151.579 1774 42.1189
151.697 1784 42.2374
151.814 1821 42.6732
151.932 1904 43.6348
152.049 1970 44.3847
152.167 1956 44.2267
152.284 2025 45
152.402 2032 45.0777
152.519 2018 44.9222
152.636 2060 45.3872
152.754 2064 45.4313
152.871 2055 45.3321
152.989 2014 44.8776
153.106 2103 45.8585
153.223 2110 45.9347
153.341 2049 45.2659
153.458 2088 45.6946
153.575 1891 43.4856
153.693 1979 44.486
153.81 1928 43.909
153.927 2014 44.8776
154.044 1983 44.5309
154.162 2030 45.0555
154.279 2103 45.8585
154.396 2105 45.8803
154.513 2112 45.9565
154.63 2019 44.9333
154.747 2043 45.1996
154.864 1822 42.6849
154.981 1890 43.4741
155.098 1923 43.852
155.215 2039 45.1553
155.332 2152 46.3897
155.449 2154 46.4112
155.566 2276 47.7074
155.683 2244 47.3709
155.8 2304 48
155.917 2266 47.6025
156.033 2311 48.0729
156.15 0 1
156.267 0 1
156.383 0 1
156.5 0 1
156.617 0 1
156.733 0 1
156.85 0 1
156.966 0 1
157.082 0 1
157.199 0 1
157.315 0 1
157.431 0 1
157.547 0 1
157.664 0 1
157.78 0 1
157.896 0 1
158.012 0 1
158.128 0 1
158.244 0 1
158.359 0 1
158.475 0 1
158.591 0 1
158.706 0 1
