
6.15755 0 1
6.2731 0 1
6.3887 0 1
6.50437 0 1
6.62009 0 1
6.73587 0 1
6.8517 0 1
6.96759 0 1
7.08353 0 1
7.19952 0 1
7.31557 0 1
7.43166 0 1
7.54781 0 1
7.664 0 1
7.78024 0 1
7.89653 0 1
8.01286 0 1
8.12924 0 1
8.24567 0 1
8.36213 0 1
8.47864 0 1
8.59519 0 1
8.71178 0 1
8.82841 0 1
8.94508 0 1
9.06179 0 1
9.17853 0 1
9.29531 0 1
9.41212 0 1
9.52897 0 1
9.64584 0 1
9.76276 0 1
9.8797 0 1
9.99667 0 1
10.1137 0 1
10.2307 0 1
10.3478 0 1
10.4648 0 1
10.5819 0 1
10.6991 0 1
10.8162 0 1
10.9334 0 1
11.0506 0 1
11.1678 0 1
11.285 0 1
11.4023 0 1
11.5196 0 1
11.6369 0 1
11.7542 0 1
11.8715 0 1
11.9888 0 1
12.1062 0 1
12.2235 0 1
12.3409 0 1
12.4582 0 1
12.5756 0 1
12.693 0 1
12.8104 0 1
12.9278 0 1
13.0452 0 1
13.1626 0 1
13.28 0 1
13.3974 0 1
13.5149 0 1
13.6323 0 1
13.7497 0 1
13.8671 0 1
13.9845 0 1
14.1019 0 1
14.2193 0 1
14.3367 0 1
14.4541 0 1
14.5714 0 1
14.6888 0 1
14.8062 0 1
14.9235 0 1
15.0408 9011 94.9263
15.1581 9506 97.4987
15.2755 9776 98.8737
15.3927 9760 98.7927
15.51 9567 97.811
15.6273 9505 97.4936
15.7445 9680 98.387
15.8617 9592 97.9388
15.9789 9567 97.811
16.0961 9905 99.5239
16.2132 10060 100.3
16.3304 10107 100.534
16.4475 10587 102.893
16.5646 10865 104.235
16.6816 11311 106.353
16.7986 11670 108.028
16.9156 12040 109.727
17.0326 12145 110.204
17.1496 12195 110.431
17.2665 12770 113.004
17.3833 12906 113.605
17.5002 12998 114.009
17.617 12998 114.009
17.7338 13051 114.241
17.8505 13194 114.865
17.9672 12936 113.737
18.0839 12391 111.315
18.2005 11923 109.192
18.3171 12066 109.845
18.4337 12387 111.297
18.5502 12930 113.71
18.6666 13259 115.148
18.7831 13396 115.741
18.8994 13377 115.659
19.0158 13192 114.856
19.1321 12839 113.309
19.2483 12474 111.687
19.3645 12448 111.571
19.4806 12290 110.86
19.5967 11969 109.403
19.7128 11954 109.334
19.8288 11497 107.224
19.9447 10433 102.142
20.0606 0 1
20.1764 0 1
20.2922 0 1
20.4079 0 1
20.5236 0 1
20.6392 0 1
20.7548 0 1
20.8702 0 1
23.3078 0 1
23.4233 0 1
23.539 0 1
23.6547 0 1
23.7704 0 1
23.8862 0 1
24.0021 0 1
24.118 0 1
24.234 0 1
24.35 0 1
24.4661 12108 110.036
24.5822 11803 108.642
24.6984 12069 109.859
24.8146 12008 109.581
24.9309 12043 109.741
25.0472 11878 108.986
25.1636 11888 109.032
25.28 12157 110.259
25.3965 12488 111.75
25.513 12805 113.159
25.6296 13273 115.209
25.7462 13708 117.081
25.8628 13519 116.271
25.9795 14083 118.672
26.0962 14319 119.662
26.213 14203 119.176
26.3298 14121 118.832
26.4466 14036 118.474
26.5635 13833 117.614
26.6804 13248 115.1
26.7973 12574 112.134
26.9143 12362 111.185
27.0313 12817 113.212
27.1483 13322 115.421
27.2653 13661 116.88
27.3824 13708 117.081
27.4996 13831 117.605
27.6167 13516 116.258
27.7339 13094 114.429
27.8511 13054 114.254
27.9683 12667 112.548
28.0855 12570 112.116
28.2028 12558 112.062
28.3201 12125 110.114
28.4374 12180 110.363
28.5547 11980 109.453
28.6721 11649 107.931
28.7894 11852 108.867
28.9068 11804 108.646
29.0242 12205 110.476
29.1416 12786 113.075
29.259 12758 112.951
29.3764 13258 115.143
29.4939 13421 115.849
29.6113 13597 116.606
29.7288 13656 116.859
29.8463 13633 116.76
29.9638 13729 117.171
30.0812 13538 116.353
30.1987 12712 112.748
30.3162 12101 110.005
30.4337 11537 107.41
30.5512 11860 108.904
30.6687 12164 110.291
30.7862 12745 112.894
30.9037 12991 113.978
31.0212 13232 115.03
31.1387 12998 114.009
31.2562 12835 113.292
31.3737 12864 113.42
31.4912 12605 112.272
31.6087 12411 111.405
31.7262 12195 110.431
31.8436 12091 109.959
31.9611 11641 107.893
32.0785 11477 107.131
32.1959 11488 107.182
32.3134 11218 105.915
32.4308 11478 107.135
32.5482 11883 109.009
32.6655 12130 110.136
32.7829 12409 111.396
32.9002 12593 112.219
33.0176 12928 113.701
33.1349 13116 114.525
33.2522 13384 115.689
33.3694 13105 114.477
33.4867 13322 115.421
33.6039 13296 115.308
33.7211 13161 114.721
33.8383 12500 111.803
33.9554 11777 108.522
34.0725 11181 105.74
34.1896 11052 105.128
34.3067 11330 106.442
34.4237 12055 109.795
34.5407 12344 111.104
34.6577 12567 112.103
34.7746 12490 111.759
34.8915 12606 112.276
35.0084 12375 111.243
35.1252 12269 110.766
35.242 11973 109.421
35.3587 11646 107.917
35.4755 11758 108.434
35.5921 11665 108.005
35.7088 11301 106.306
35.8254 11052 105.128
35.9419 11121 105.456
36.0584 10952 104.652
36.1749 11082 105.271
36.2913 11174 105.707
36.4077 11352 106.546
36.524 11658 107.972
36.6403 11844 108.83
36.7565 12160 110.272
36.8727 12431 111.494
36.9889 12749 112.911
37.1049 12471 111.674
37.221 0 1
37.3369 0 1
37.4529 0 1
37.5687 0 1
37.6845 0 1
37.8003 0 1
37.916 0 1
38.0316 0 1
38.1472 0 1
40.5851 0 1
40.7008 0 1
40.8164 0 1
40.9322 0 1
41.048 0 1
41.1639 0 1
41.2798 0 1
41.3958 0 1
41.5118 0 1
41.6279 0 1
41.744 8853 94.0904
41.8602 9829 99.1413
41.9765 10195 100.97
42.0928 10754 103.701
42.2091 10689 103.388
42.3255 10611 103.01
42.4419 10586 102.888
42.5584 10486 102.401
42.675 10177 100.881
42.7915 9591 97.9337
42.9081 8895 94.3133
43.0248 8681 93.1719
43.1415 8647 92.9892
43.2582 9475 97.3396
43.375 9675 98.3616
43.4918 9945 99.7246
43.6087 9782 98.904
43.7256 9827 99.1312
43.8425 9485 97.391
43.9595 9150 95.6556
44.0765 9299 96.4313
44.1935 9156 95.687
44.3106 8710 93.3274
44.4277 8491 92.1466
44.5448 8018 89.5433
44.6619 8057 89.7608
44.7791 7698 87.7382
44.8963 7525 86.7468
45.0136 7472 86.4407
45.1308 7520 86.7179
45.2481 7522 86.7295
45.3654 7837 88.5268
45.4827 8012 89.5098
45.6001 8254 90.8515
45.7174 8231 90.7249
45.8348 8163 90.3493
45.9522 8104 90.0222
46.0697 7947 89.1459
46.1871 7911 88.9438
46.3046 7392 85.9767
46.422 6710 81.9146
46.5395 6418 80.1124
46.657 6479 80.4922
46.7745 6666 81.6456
46.892 7041 83.9107
47.0096 7100 84.2615
47.1271 7367 85.8312
47.2446 7253 85.1645
47.3622 7397 86.0058
47.4797 7076 84.119
47.5973 7076 84.119
47.7149 6891 83.012
47.8324 6808 82.5106
47.95 6631 81.431
48.0675 6353 79.7057
48.1851 6336 79.599
48.3027 6095 78.0705
48.4202 5909 76.87
48.5378 5913 76.896
48.6554 5833 76.3741
48.7729 6096 78.0769
48.8904 6245 79.0253
49.008 6515 80.7155
49.1255 6608 81.2896
49.243 6891 83.012
49.3605 7044 83.9285
49.478 7072 84.0952
49.5955 7107 84.303
49.713 6770 82.28
49.8304 6618 81.3511
49.9479 6231 78.9367
50.0653 5765 75.9276
50.1827 5786 76.0658
50.3001 6235 78.962
50.4175 6695 81.823
50.5348 6898 83.0542
50.6521 7384 85.9302
50.7694 7343 85.6913
50.8867 7745 88.0057
51.004 7808 88.3629
51.1212 7771 88.1533
51.2384 7976 89.3085
51.3556 7994 89.4092
51.4727 7981 89.3364
51.5899 7931 89.0562
51.707 7928 89.0393
51.824 7735 87.9488
51.9411 7602 87.1894
52.0581 7475 86.4581
52.175 7769 88.1419
52.2919 8150 90.2774
52.4088 8470 92.0326
52.5257 8781 93.707
52.6425 9328 96.5816
52.7593 9654 98.2548
52.876 9638 98.1733
52.9927 9763 98.8079
53.1094 9867 99.3328
53.226 10002 100.01
53.3426 9841 99.2018
53.4591 9474 97.3345
53.5756 8943 94.5674
53.692 8128 90.1554
53.8084 8226 90.6973
53.9248 8490 92.1412
54.0411 9180 95.8123
54.1573 9603 97.9949
54.2735 0 1
54.3896 0 1
54.5057 0 1
54.6217 0 1
54.7377 0 1
54.8537 0 1
54.9695 0 1
55.0853 0 1
55.2011 0 1
55.3168 0 1
55.4324 0 1
57.824 0 1
57.9396 0 1
58.0553 0 1
58.1711 0 1
58.2869 0 1
58.4028 0 1
58.5187 0 1
58.6347 0 1
58.7508 0 1
58.8669 0 1
58.983 9687 98.4226
59.0992 10654 103.218
59.2155 11227 105.958
59.3318 11640 107.889
59.4482 12112 110.055
59.5646 12478 111.705
59.681 12579 112.156
59.7975 12433 111.503
59.9141 12541 111.987
60.0306 12249 110.675
60.1473 12177 110.349
60.2639 11840 108.812
60.3807 11639 107.884
60.4974 11181 105.74
60.6142 10663 103.262
60.731 10470 102.323
60.8479 10395 101.956
60.9648 10600 102.956
61.0818 10825 104.043
61.1987 11019 104.971
61.3158 11554 107.49
61.4328 11966 109.389
61.5499 12019 109.631
61.667 12048 109.763
61.7841 12039 109.722
61.9013 11814 108.692
62.0185 11283 106.221
62.1357 10641 103.155
62.253 9893 99.4636
62.3702 9674 98.3565
62.4875 9974 99.8699
62.6049 10549 102.708
62.7222 11069 105.209
62.8396 11383 106.691
62.9569 11437 106.944
63.0743 11866 108.931
63.1918 11935 109.247
63.3092 11885 109.018
63.4267 11829 108.761
63.5441 11533 107.392
63.6616 11417 106.85
63.7791 11320 106.395
63.8966 10795 103.899
64.0142 10686 103.373
64.1317 10182 100.906
64.2492 9808 99.0353
64.3668 9790 98.9444
64.4843 9606 98.0102
64.6019 9968 99.8399
64.7195 10370 101.833
64.837 10950 104.642
64.9546 11314 106.367
65.0722 11451 107.009
65.1898 11498 107.229
65.3074 11655 107.958
65.4249 11416 106.846
65.5425 11197 105.816
65.6601 10530 102.616
65.7777 9809 99.0404
65.8952 9133 95.5667
66.0128 9075 95.2628
66.1304 9429 97.103
66.2479 9920 99.5992
66.3655 10496 102.45
66.483 10916 104.48
66.6005 11247 106.052
66.718 11645 107.912
66.8355 11572 107.573
66.953 11727 108.291
67.0705 11658 107.972
67.1879 11417 106.85
67.3054 11084 105.281
67.4228 10880 104.307
67.5402 10916 104.48
67.6576 10277 101.376
67.7749 9755 98.7674
67.8923 9518 97.5602
68.0096 9359 96.7419
68.1269 9344 96.6644
68.2442 9743 98.7066
68.3614 10036 100.18
68.4787 10473 102.338
68.5958 11279 106.203
68.713 11411 106.822
68.8302 11760 108.444
68.9473 11605 107.727
69.0643 11696 108.148
69.1814 11578 107.601
69.2984 11000 104.881
69.4154 10174 100.866
69.5323 9582 97.8877
69.6492 9453 97.2265
69.7661 9765 98.818
69.8829 10388 101.922
69.9997 11080 105.262
70.1165 11574 107.583
70.2332 11914 109.151
70.3499 12115 110.068
70.4665 12315 110.973
70.5831 12137 110.168
70.6996 12228 110.58
70.8161 12085 109.932
70.9326 11952 109.325
71.049 11761 108.448
71.1653 11442 106.967
71.2817 11261 106.118
71.3979 10624 103.073
71.5141 9819 99.0909
71.6303 9291 96.3898
71.7464 8714 93.3488
71.8624 0 1
71.9784 0 1
72.0944 0 1
72.2102 0 1
72.3261 0 1
72.4418 0 1
72.5575 0 1
72.6732 0 1
75.1054 0 1
75.2209 0 1
75.3365 0 1
75.4521 0 1
75.5678 0 1
75.6835 0 1
75.7993 0 1
75.9151 0 1
76.031 0 1
76.147 11146 105.575
76.263 11520 107.331
76.3791 11599 107.699
76.4952 11109 105.399
76.6113 10579 102.854
76.7276 10001 100.005
76.8438 9611 98.0357
76.9601 9774 98.8635
77.0765 10246 101.223
77.1929 10716 103.518
77.3093 11359 106.579
77.4258 11887 109.028
77.5423 12422 111.454
77.6589 12257 110.711
77.7755 12335 111.063
77.8921 12240 110.635
78.0088 11661 107.986
78.1256 11065 105.19
78.2423 10069 100.344
78.3591 9293 96.4002
78.4759 8761 93.6002
78.5928 9102 95.4044
78.7097 10006 100.03
78.8266 10550 102.713
78.9436 11426 106.892
79.0606 11733 108.319
79.1776 12032 109.69
79.2946 12345 111.108
79.4117 12414 111.418
79.5288 12134 110.154
79.6459 12238 110.625
79.7631 11808 108.665
79.8802 11729 108.301
79.9974 11568 107.555
80.1147 11225 105.948
80.2319 10859 104.207
80.3491 10091 100.454
80.4664 9448 97.2008
80.5837 9583 97.8928
80.701 9925 99.6243
80.8183 10553 102.728
80.9357 11212 105.887
81.053 11743 108.365
81.1704 12077 109.895
81.2877 12047 109.759
81.4051 12150 110.227
81.5225 12210 110.499
81.6399 11810 108.674
81.7573 11309 106.344
81.8747 10224 101.114
81.9922 9530 97.6217
82.1096 9055 95.1578
82.227 9203 95.9323
82.3444 9940 99.6995
82.4619 10859 104.207
82.5793 11578 107.601
82.6967 11715 108.236
82.8142 11878 108.986
82.9316 12109 110.041
83.049 12207 110.485
83.1664 12291 110.865
83.2838 12210 110.499
83.4012 12272 110.779
83.5186 11709 108.208
83.636 11538 107.415
83.7534 11150 105.594
83.8708 10840 104.115
83.9881 10186 100.926
84.1055 9539 97.6678
84.2228 9607 98.0153
84.3401 9839 99.1917
84.4575 10616 103.034
84.5747 11279 106.203
84.692 12089 109.95
84.8093 12376 111.247
84.9265 12678 112.597
85.0437 12503 111.817
85.1609 12726 112.81
85.2781 11793 108.596
85.3952 10918 104.489
85.5123 10235 101.168
85.6294 9543 97.6883
85.7465 9256 96.2081
85.8636 9958 99.7898
85.9806 10873 104.274
86.0976 11486 107.173
86.2145 12101 110.005
86.3315 12548 112.018
86.4484 12862 113.411
86.5652 13093 114.425
86.682 13030 114.149
86.7988 13283 115.252
86.9156 13177 114.791
87.0323 12900 113.578
87.149 12584 112.178
87.2657 12343 111.099
87.3823 12133 110.15
87.4988 11532 107.387
87.6154 10620 103.053
87.7318 10407 102.015
87.8483 10565 102.786
87.9647 11283 106.221
88.081 11943 109.284
88.1973 13084 114.385
88.3136 13179 114.8
88.4298 13359 115.581
88.546 13136 114.612
88.6621 12843 113.327
88.7781 12611 112.299
88.8942 0 1
89.0101 0 1
89.126 0 1
89.2419 0 1
89.3577 0 1
89.4734 0 1
89.5891 0 1
89.7047 0 1
89.8203 0 1
89.9358 0 1
92.3269 0 1
92.4424 0 1
92.558 0 1
92.6736 0 1
92.7893 0 1
92.905 0 1
93.0208 0 1
93.1366 0 1
93.2525 0 1
93.3685 0 1
93.4845 0 1
93.6005 12652 112.481
93.7167 12611 112.299
93.8328 12504 111.821
93.949 12433 111.503
94.0653 11839 108.807
94.1816 11306 106.33
94.2979 10395 101.956
94.4143 10243 101.208
94.5307 10173 100.861
94.6472 10486 102.401
94.7637 11084 105.281
94.8803 11545 107.448
94.9969 12081 109.914
95.1135 12489 111.754
95.2302 12807 113.168
95.3469 12939 113.75
95.4637 13128 114.577
95.5805 13440 115.931
95.6973 13507 116.22
95.8142 13510 116.233
95.9311 13232 115.03
96.048 12882 113.499
96.1649 12882 113.499
96.2819 12281 110.82
96.3989 11689 108.116
96.516 10860 104.211
96.633 10381 101.887
96.7501 10631 103.107
96.8673 10874 104.278
96.9844 11527 107.364
97.1016 12262 110.734
97.2188 12809 113.177
97.336 13355 115.564
97.4532 13156 114.7
97.5704 13207 114.922
97.6877 12793 113.106
97.805 12075 109.886
97.9223 11175 105.712
98.0396 10620 103.053
98.1569 10008 100.04
98.2743 9918 99.5892
98.3916 10296 101.469
98.509 11017 104.962
98.6264 11651 107.94
98.7438 12161 110.277
98.8612 12709 112.734
98.9786 12873 113.459
99.096 12988 113.965
99.2134 13181 114.809
99.3308 13125 114.564
99.4482 13250 115.109
99.5656 13025 114.127
99.6831 12535 111.96
99.8005 12537 111.969
99.9179 12006 109.572
100.035 11498 107.229
100.153 10675 103.32
100.27 10137 100.683
100.388 10446 102.206
100.505 10942 104.604
100.622 12053 109.786
100.74 12630 112.383
100.857 12814 113.199
100.975 13138 114.621
101.092 12927 113.697
101.209 12956 113.824
101.327 12507 111.835
101.444 11918 109.17
101.561 10891 104.36
101.679 10351 101.74
101.796 10318 101.578
101.913 10118 100.588
102.03 10559 102.757
102.148 11701 108.171
102.265 11402 106.78
102.382 13652 116.842
102.499 13252 115.117
102.616 13405 115.78
102.733 13520 116.276
102.851 13776 117.371
102.968 13688 116.996
103.085 13869 117.767
103.202 13630 116.748
103.319 13355 115.564
103.436 12890 113.534
103.552 12106 110.027
103.669 11655 107.958
103.786 10930 104.547
103.903 11228 105.962
104.02 11768 108.48
104.137 12658 112.508
104.253 13534 116.336
104.37 13801 117.478
104.487 14126 118.853
104.603 13965 118.174
104.72 13657 116.863
104.836 13354 115.56
104.953 12517 111.879
105.069 11768 108.48
105.186 11086 105.29
105.302 10872 104.269
105.418 11242 106.028
105.535 11881 109
105.651 12549 112.022
105.767 13255 115.13
105.883 13509 116.228
105.999 13683 116.974
106.115 0 1
106.231 0 1
106.347 0 1
106.463 0 1
106.579 0 1
106.694 0 1
106.81 0 1
106.926 0 1
107.041 0 1
107.157 0 1
109.576 0 1
109.692 0 1
109.807 0 1
109.923 0 1
110.039 0 1
110.155 0 1
110.27 0 1
110.386 0 1
110.502 0 1
110.618 10618 103.044
110.735 11197 105.816
110.851 11485 107.168
110.967 12047 109.759
111.083 12109 110.041
111.199 12367 111.207
111.316 12357 111.162
111.432 12474 111.687
111.549 12404 111.373
111.665 11877 108.982
111.782 11830 108.766
111.898 11360 106.583
112.015 10720 103.537
112.132 9874 99.368
112.248 9486 97.3961
112.365 9551 97.7292
112.482 10313 101.553
112.599 10522 102.577
112.716 11415 106.841
112.832 11482 107.154
112.949 11243 106.033
113.066 11086 105.29
113.183 10984 104.805
113.3 10541 102.669
113.417 9849 99.2421
113.534 9341 96.6488
113.652 8904 94.361
113.769 8479 92.0815
113.886 8414 91.7279
114.003 8651 93.0108
114.12 9142 95.6138
114.238 9420 97.0567
114.355 9870 99.3479
114.472 10004 100.02
114.589 9977 99.8849
114.707 10138 100.688
114.824 9929 99.6444
114.942 9955 99.7747
115.059 9910 99.549
115.176 9574 97.8468
115.294 9350 96.6954
115.411 9066 95.2155
115.529 8717 93.3649
115.646 8126 90.1443
115.764 7454 86.3366
115.881 7201 84.8587
115.999 7595 87.1493
116.116 8253 90.846
116.234 8600 92.7362
116.351 8656 93.0376
116.469 8591 92.6876
116.586 8444 91.8912
116.704 8524 92.3255
116.821 8130 90.1665
116.939 7576 87.0402
117.056 7444 86.2786
117.174 7119 84.3742
117.291 6718 81.9634
117.409 6464 80.399
117.526 6651 81.5537
117.644 7032 83.857
117.761 7471 86.4349
117.879 7547 86.8735
117.996 7862 88.6679
118.114 8260 90.8845
118.231 8307 91.1427
118.349 8095 89.9722
118.466 8161 90.3383
118.584 8484 92.1086
118.701 8226 90.6973
118.819 8411 91.7115
118.936 8063 89.7942
119.053 7803 88.3346
119.171 7764 88.1136
119.288 7162 84.6286
119.405 6830 82.6438
119.523 7076 84.119
119.64 7287 85.3639
119.757 7970 89.2749
119.875 8416 91.7388
119.992 8535 92.3851
120.109 8669 93.1075
120.226 8537 92.3959
120.343 8563 92.5365
120.46 8425 91.7878
120.578 8060 89.7775
120.695 7773 88.1646
120.812 7696 87.7268
120.929 7453 86.3308
121.046 7187 84.7762
121.163 7123 84.3979
121.279 7596 87.155
121.396 8037 89.6493
121.513 8455 91.9511
121.63 8665 93.086
121.747 8964 94.6784
121.863 9404 96.9742
121.98 9359 96.7419
122.097 9402 96.9639
122.213 9726 98.6205
122.33 9753 98.7573
122.446 9720 98.5901
122.563 9717 98.5748
122.679 9584 97.8979
122.795 9293 96.4002
122.912 9190 95.8645
123.028 8466 92.0109
123.144 8047 89.7051
123.26 8202 90.5649
123.377 0 1
123.493 0 1
123.609 0 1
123.725 0 1
123.84 0 1
123.956 0 1
124.072 0 1
124.188 0 1
124.303 0 1
124.419 0 1
126.852 0 1
126.968 0 1
127.083 0 1
127.199 0 1
127.315 0 1
127.431 0 1
127.547 0 1
127.663 0 1
127.779 0 1
127.895 0 1
128.011 0 1
128.127 0 1
128.243 0 1
128.359 9933 99.6644
128.476 9640 98.1835
128.592 10114 100.568
128.708 10498 102.46
128.825 11373 106.644
128.941 11643 107.903
129.058 11817 108.706
129.174 11692 108.13
129.291 11651 107.94
129.408 11367 106.616
129.524 10967 104.723
129.641 10413 102.044
129.758 9927 99.6343
129.875 9482 97.3756
129.992 9220 96.0208
130.108 8987 94.7998
130.225 9444 97.1802
130.342 9548 97.7139
130.459 9842 99.2069
130.576 9953 99.7647
130.693 10323 101.602
130.81 10355 101.76
130.928 10437 102.162
131.045 10545 102.689
131.162 10518 102.557
131.279 10474 102.343
131.396 10460 102.274
131.513 10525 102.591
131.631 10070 100.349
131.748 9493 97.432
131.865 9262 96.2393
131.983 8877 94.2178
132.1 8775 93.675
132.217 9550 97.7241
132.335 9917 99.5841
132.452 10130 100.648
132.57 10155 100.772
132.687 9485 97.391
132.804 10176 100.876
132.922 9823 99.111
133.039 9426 97.0876
133.157 8802 93.819
133.274 8475 92.0598
133.392 8168 90.377
133.509 7829 88.4816
133.627 7712 87.818
133.744 7727 87.9034
133.862 7977 89.3141
133.979 8156 90.3106
134.097 8472 92.0435
134.214 8375 91.515
134.332 8471 92.038
134.449 8600 92.7362
134.567 8377 91.526
134.684 8431 91.8205
134.802 8702 93.2845
134.919 8503 92.2117
135.037 8288 91.0385
135.154 7950 89.1628
135.272 7521 86.7237
135.389 7273 85.2819
135.507 6933 83.2646
135.624 6747 82.1401
135.742 7197 84.8351
135.859 7465 86.4002
135.977 7546 86.8677
136.094 7585 87.0919
136.211 7492 86.5563
136.329 7348 85.7205
136.446 7447 86.296
136.564 7227 85.0118
136.681 6761 82.2253
136.798 6532 80.8208
136.915 6395 79.9687
137.033 6156 78.4602
137.15 5964 77.2269
137.267 5915 76.909
137.384 6214 78.8289
137.502 6296 79.3473
137.619 6428 80.1748
137.736 6611 81.3081
137.853 6661 81.6149
137.97 6744 82.1219
138.087 6907 83.1084
138.204 7153 84.5754
138.321 7262 85.2174
138.438 7439 86.2496
138.555 7535 86.8044
138.672 7517 86.7006
138.788 7442 86.267
138.905 7270 85.2643
139.022 7111 84.3267
139.139 6943 83.3247
139.255 6910 83.1264
139.372 7304 85.4634
139.488 7912 88.9494
139.605 8365 91.4604
139.721 8484 92.1086
139.838 8567 92.5581
139.954 8399 91.6461
140.071 8357 91.4166
140.187 8590 92.6823
140.303 8154 90.2995
140.419 7898 88.8707
140.535 7720 87.8635
140.652 7532 86.7871
140.768 0 1
140.884 0 1
141 0 1
141.115 0 1
141.231 0 1
141.347 0 1
141.463 0 1
141.578 0 1
141.694 0 1
144.104 0 1
144.219 0 1
144.335 0 1
144.45 0 1
144.566 0 1
144.682 0 1
144.798 0 1
144.914 0 1
145.03 0 1
145.146 7179 84.729
145.262 7208 84.8999
145.378 7005 83.6959
145.494 6653 81.5659
145.61 6462 80.3866
145.726 6331 79.5676
145.842 6040 77.7174
145.959 5854 76.5114
146.075 5965 77.2334
146.192 6110 78.1665
146.308 6052 77.7946
146.425 6384 79.8999
146.541 6239 78.9873
146.658 6176 78.5875
146.774 6109 78.1601
146.891 6241 79
147.008 6352 79.6994
147.125 6133 78.3135
147.241 6329 79.555
147.358 6122 78.2432
147.475 5991 77.4016
147.592 5894 76.7724
147.709 5555 74.5319
147.826 5223 72.2703
147.943 5275 72.6292
148.06 5459 73.885
148.177 5495 74.1283
148.294 5971 77.2722
148.411 5867 76.5963
148.528 5759 75.8881
148.645 5734 75.7232
148.762 5666 75.2728
148.88 5507 74.2092
148.997 5673 75.3193
149.114 4934 70.2424
149.231 4927 70.1926
149.349 4793 69.2315
149.466 4681 68.4178
149.583 4671 68.3447
149.701 4706 68.6003
149.818 4799 69.2748
149.935 4745 68.884
150.053 4936 70.2567
150.17 4957 70.406
150.287 5113 71.5052
150.405 5178 71.9583
150.522 5071 71.211
150.64 5251 72.4638
150.757 5301 72.808
150.875 5279 72.6567
150.992 5298 72.7874
151.11 5347 73.1232
151.227 5095 71.3793
151.344 5021 70.859
151.462 4822 69.4406
151.579 5024 70.8802
151.697 5362 73.2257
151.814 5432 73.7021
151.932 5536 74.4043
152.049 5733 75.7166
152.167 5623 74.9867
152.284 5797 76.138
152.402 5706 75.5381
152.519 5656 75.2064
152.636 5473 73.9797
152.754 5472 73.973
152.871 5186 72.0139
152.989 5130 71.624
153.106 5025 70.8872
153.223 5020 70.852
153.341 5259 72.519
153.458 5283 72.6842
153.575 5428 73.675
153.693 5461 73.8986
153.81 5629 75.0267
153.927 5602 74.8465
154.044 5797 76.138
154.162 5990 77.3951
154.279 6130 78.2943
154.396 6242 79.0063
154.513 6254 79.0822
154.63 6432 80.1998
154.747 6330 79.5613
154.864 6301 79.3788
154.981 5917 76.922
155.098 6023 77.608
155.215 6029 77.6466
155.332 6527 80.7899
155.449 6805 82.4924
155.566 6822 82.5954
155.683 7001 83.672
155.8 6915 83.1565
155.917 6988 83.5943
156.033 6877 82.9277
156.15 0 1
156.267 0 1
156.383 0 1
156.5 0 1
156.617 0 1
156.733 0 1
156.85 0 1
156.966 0 1
157.082 0 1
157.199 0 1
157.315 0 1
157.431 0 1
157.547 0 1
157.664 0 1
157.78 0 1
157.896 0 1
158.012 0 1
158.128 0 1
158.244 0 1
158.359 0 1
158.475 0 1
158.591 0 1
158.706 0 1
