
6.15755 0 1
6.2731 0 1
6.3887 0 1
6.50437 0 1
6.62009 0 1
6.73587 0 1
6.8517 0 1
6.96759 0 1
7.08353 0 1
7.19952 0 1
7.31557 0 1
7.43166 0 1
7.54781 0 1
7.664 0 1
7.78024 0 1
7.89653 0 1
8.01286 0 1
8.12924 0 1
8.24567 0 1
8.36213 0 1
8.47864 0 1
8.59519 0 1
8.71178 0 1
8.82841 0 1
8.94508 0 1
9.06179 0 1
9.17853 0 1
9.29531 0 1
9.41212 0 1
9.52897 0 1
9.64584 0 1
9.76276 0 1
9.8797 0 1
9.99667 0 1
10.1137 0 1
10.2307 0 1
10.3478 0 1
10.4648 0 1
10.5819 0 1
10.6991 0 1
10.8162 0 1
10.9334 0 1
11.0506 0 1
11.1678 0 1
11.285 0 1
11.4023 0 1
11.5196 0 1
11.6369 0 1
11.7542 0 1
11.8715 0 1
11.9888 0 1
12.1062 0 1
12.2235 0 1
12.3409 0 1
12.4582 0 1
12.5756 0 1
12.693 0 1
12.8104 0 1
12.9278 0 1
13.0452 0 1
13.1626 0 1
13.28 0 1
13.3974 0 1
13.5149 0 1
13.6323 0 1
13.7497 0 1
13.8671 0 1
13.9845 0 1
14.1019 0 1
14.2193 0 1
14.3367 0 1
14.4541 0 1
14.5714 0 1
14.6888 0 1
14.8062 0 1
14.9235 0 1
15.0408 0 0
15.1581 0 0
15.2755 0 0
15.3927 0 0
15.51 0 0
15.6273 0 0
15.7445 0 0
15.8617 0 0
15.9789 0 0
16.0961 0 0
16.2132 0 0
16.3304 0 0
16.4475 0 0
16.5646 0 0
16.6816 0 0
16.7986 0 0
16.9156 0 0
17.0326 0 0
17.1496 0 0
17.2665 0 0
17.3833 0 0
17.5002 0 0
17.617 0 0
17.7338 0 0
17.8505 0 0
17.9672 0 0
18.0839 0 0
18.2005 0 0
18.3171 0 0
18.4337 0 0
18.5502 0 0
18.6666 0 0
18.7831 0 0
18.8994 0 0
19.0158 0 0
19.1321 0 0
19.2483 0 0
19.3645 0 0
19.4806 0 0
19.5967 0 0
19.7128 0 0
19.8288 0 0
19.9447 0 0
20.0606 0 1
20.1764 0 1
20.2922 0 1
20.4079 0 1
20.5236 0 1
20.6392 0 1
20.7548 0 1
20.8702 0 1
23.3078 0 1
23.4233 0 1
23.539 0 1
23.6547 0 1
23.7704 0 1
23.8862 0 1
24.0021 0 1
24.118 0 1
24.234 0 1
24.35 0 1
24.4661 1422 37.7094
24.5822 1476 38.4187
24.6984 1329 36.4555
24.8146 1320 36.3318
24.9309 1296 36
25.0472 1254 35.4119
25.1636 1339 36.5923
25.28 1311 36.2077
25.3965 1400 37.4166
25.513 1490 38.6005
25.6296 1596 39.95
25.7462 1573 39.6611
25.8628 1666 40.8167
25.9795 1618 40.2244
26.0962 1582 39.7744
26.213 1632 40.398
26.3298 1550 39.37
26.4466 1589 39.8623
26.5635 1470 38.3406
26.6804 1440 37.9473
26.7973 1489 38.5876
26.9143 1453 38.1182
27.0313 1498 38.704
27.1483 1539 39.2301
27.2653 1613 40.1622
27.3824 1566 39.5727
27.4996 1588 39.8497
27.6167 1546 39.3192
27.7339 1559 39.4842
27.8511 1447 38.0395
27.9683 1508 38.833
28.0855 1401 37.4299
28.2028 1402 37.4433
28.3201 1312 36.2215
28.4374 1186 34.4384
28.5547 1202 34.6699
28.6721 1219 34.9142
28.7894 1179 34.3366
28.9068 1272 35.6651
29.0242 1368 36.9865
29.1416 1429 37.8021
29.259 1469 38.3275
29.3764 1473 38.3797
29.4939 1552 39.3954
29.6113 1538 39.2173
29.7288 1531 39.128
29.8463 1556 39.4462
29.9638 1516 38.9358
30.0812 1482 38.4968
30.1987 1415 37.6165
30.3162 1353 36.7831
30.4337 1463 38.2492
30.5512 1454 38.1314
30.6687 1566 39.5727
30.7862 1537 39.2046
30.9037 1481 38.4838
31.0212 1617 40.2119
31.1387 1574 39.6737
31.2562 1528 39.0896
31.3737 1547 39.3319
31.4912 1517 38.9487
31.6087 1395 37.3497
31.7262 1395 37.3497
31.8436 1355 36.8103
31.9611 1242 35.242
32.0785 1141 33.7787
32.1959 1218 34.8999
32.3134 1238 35.1852
32.4308 1316 36.2767
32.5482 1369 37
32.6655 1479 38.4578
32.7829 1562 39.5221
32.9002 1573 39.6611
33.0176 1519 38.9744
33.1349 1560 39.4968
33.2522 1636 40.4475
33.3694 1533 39.1535
33.4867 1514 38.9102
33.6039 1473 38.3797
33.7211 1439 37.9342
33.8383 1435 37.8814
33.9554 1434 37.8682
34.0725 1413 37.5899
34.1896 1480 38.4708
34.3067 1521 39
34.4237 1553 39.4081
34.5407 1541 39.2556
34.6577 1537 39.2046
34.7746 1603 40.0375
34.8915 1601 40.0125
35.0084 1597 39.9625
35.1252 1430 37.8153
35.242 1525 39.0512
35.3587 1484 38.5227
35.4755 1431 37.8286
35.5921 1299 36.0416
35.7088 1189 34.4819
35.8254 1114 33.3766
35.9419 1256 35.4401
36.0584 1225 35
36.1749 1354 36.7967
36.2913 1412 37.5766
36.4077 1463 38.2492
36.524 1517 38.9487
36.6403 1584 39.7995
36.7565 1514 38.9102
36.8727 1641 40.5093
36.9889 1580 39.7492
37.1049 1561 39.5095
37.221 0 1
37.3369 0 1
37.4529 0 1
37.5687 0 1
37.6845 0 1
37.8003 0 1
37.916 0 1
38.0316 0 1
38.1472 0 1
40.5851 0 1
40.7008 0 1
40.8164 0 1
40.9322 0 1
41.048 0 1
41.1639 0 1
41.2798 0 1
41.3958 0 1
41.5118 0 1
41.6279 0 1
41.744 1269 35.623
41.8602 1386 37.229
41.9765 1381 37.1618
42.0928 1336 36.5513
42.2091 1358 36.8511
42.3255 1367 36.973
42.4419 1414 37.6032
42.5584 1366 36.9594
42.675 1304 36.1109
42.7915 1337 36.565
42.9081 1290 35.9166
43.0248 1358 36.8511
43.1415 1361 36.8917
43.2582 1410 37.55
43.375 1413 37.5899
43.4918 1430 37.8153
43.6087 1393 37.3229
43.7256 1411 37.5633
43.8425 1292 35.9444
43.9595 1371 37.027
44.0765 1350 36.7423
44.1935 1234 35.1283
44.3106 1111 33.3317
44.4277 1028 32.0624
44.5448 956 30.9192
44.6619 898 29.9666
44.7791 909 30.1496
44.8963 1042 32.28
45.0136 1111 33.3317
45.1308 1206 34.7275
45.2481 1194 34.5543
45.3654 1178 34.322
45.4827 1214 34.8425
45.6001 1247 35.3129
45.7174 1213 34.8281
45.8348 1225 35
45.9522 1172 34.2345
46.0697 1204 34.6987
46.1871 1111 33.3317
46.3046 1119 33.4515
46.422 1073 32.7567
46.5395 1132 33.6452
46.657 1122 33.4963
46.7745 1119 33.4515
46.892 1122 33.4963
47.0096 1123 33.5112
47.1271 1211 34.7994
47.2446 1116 33.4066
47.3622 1131 33.6303
47.4797 1133 33.6601
47.5973 1115 33.3916
47.7149 1066 32.6497
47.8324 948 30.7896
47.95 868 29.4618
48.0675 814 28.5307
48.1851 702 26.4953
48.3027 750 27.3861
48.4202 733 27.074
48.5378 940 30.6594
48.6554 975 31.225
48.7729 1043 32.2955
48.8904 1130 33.6155
49.008 1140 33.7639
49.1255 1003 31.6702
49.243 1120 33.4664
49.3605 1097 33.121
49.478 1062 32.5883
49.5955 1093 33.0606
49.713 1105 33.2415
49.8304 1068 32.6803
49.9479 1122 33.4963
50.0653 1078 32.8329
50.1827 1176 34.2929
50.3001 1266 35.5809
50.4175 1294 35.9722
50.5348 1321 36.3456
50.6521 1315 36.2629
50.7694 1297 36.0139
50.8867 1406 37.4967
51.004 1326 36.4143
51.1212 1415 37.6165
51.2384 1361 36.8917
51.3556 1414 37.6032
51.4727 1268 35.609
51.5899 1061 32.573
51.707 1077 32.8177
51.824 1108 33.2866
51.9411 1198 34.6121
52.0581 1440 37.9473
52.175 1622 40.2741
52.2919 1589 39.8623
52.4088 1625 40.3113
52.5257 1614 40.1746
52.6425 1779 42.1782
52.7593 1690 41.1096
52.876 1803 42.4617
52.9927 1822 42.6849
53.1094 1821 42.6732
53.226 1812 42.5676
53.3426 1747 41.7971
53.4591 1912 43.7264
53.5756 1778 42.1663
53.692 1822 42.6849
53.8084 1952 44.1814
53.9248 1913 43.7379
54.0411 1930 43.9318
54.1573 2011 44.8442
54.2735 0 1
54.3896 0 1
54.5057 0 1
54.6217 0 1
54.7377 0 1
54.8537 0 1
54.9695 0 1
55.0853 0 1
55.2011 0 1
55.3168 0 1
55.4324 0 1
57.824 0 1
57.9396 0 1
58.0553 0 1
58.1711 0 1
58.2869 0 1
58.4028 0 1
58.5187 0 1
58.6347 0 1
58.7508 0 1
58.8669 0 1
58.983 2613 51.1175
59.0992 2676 51.7301
59.2155 2853 53.4135
59.3318 2902 53.8702
59.4482 2975 54.5436
59.5646 2884 53.7029
59.681 2775 52.6783
59.7975 2664 51.614
59.9141 2615 51.1371
60.0306 2633 51.3128
60.1473 2288 47.833
60.2639 2173 46.6154
60.3807 2036 45.1221
60.4974 2013 44.8665
60.6142 2178 46.669
60.731 2384 48.8262
60.8479 2659 51.5655
60.9648 2881 53.6749
61.0818 2989 54.6717
61.1987 2898 53.8331
61.3158 2858 53.4603
61.4328 2894 53.7959
61.5499 3117 55.8301
61.667 2926 54.0925
61.7841 2991 54.69
61.9013 2896 53.8145
62.0185 2912 53.963
62.1357 2820 53.1037
62.253 2857 53.4509
62.3702 2972 54.5161
62.4875 3022 54.9727
62.6049 3054 55.263
62.7222 3082 55.5158
62.8396 2995 54.7266
62.9569 3089 55.5788
63.0743 3117 55.8301
63.1918 3182 56.4092
63.3092 3115 55.8122
63.4267 2922 54.0555
63.5441 2844 53.3292
63.6616 2485 49.8498
63.7791 2290 47.8539
63.8966 2217 47.085
64.0142 2149 46.3573
64.1317 2390 48.8876
64.2492 2697 51.9326
64.3668 2959 54.3967
64.4843 3141 56.0446
64.6019 3200 56.5685
64.7195 3275 57.2276
64.837 3253 57.0351
64.9546 3434 58.6003
65.0722 3292 57.376
65.1898 3229 56.8243
65.3074 3337 57.7668
65.4249 3252 57.0263
65.5425 3266 57.1489
65.6601 3192 56.4978
65.7777 3238 56.9034
65.8952 3170 56.3028
66.0128 3275 57.2276
66.1304 3301 57.4543
66.2479 3474 58.9406
66.3655 3346 57.8446
66.483 3452 58.7537
66.6005 3494 59.1101
66.718 3492 59.0931
66.8355 3402 58.3267
66.953 3305 57.4891
67.0705 3148 56.107
67.1879 3060 55.3173
67.3054 2771 52.6403
67.4228 2470 49.6991
67.5402 2317 48.1352
67.6576 2412 49.1121
67.7749 2706 52.0192
67.8923 3003 54.7996
68.0096 3381 58.1464
68.1269 3502 59.1777
68.2442 3525 59.3717
68.3614 3650 60.4152
68.4787 3669 60.5723
68.5958 3738 61.1392
68.713 3779 61.4736
68.8302 3788 61.5467
68.9473 3752 61.2536
69.0643 3822 61.8223
69.1814 3758 61.3025
69.2984 3685 60.7042
69.4154 3758 61.3025
69.5323 3728 61.0574
69.6492 3853 62.0725
69.7661 3889 62.3618
69.8829 3850 62.0484
69.9997 3983 63.111
70.1165 4047 63.616
70.2332 4191 64.7379
70.3499 4087 63.9296
70.4665 4046 63.6082
70.5831 3829 61.8789
70.6996 3697 60.803
70.8161 3655 60.4566
70.9326 3550 59.5819
71.049 2977 54.5619
71.1653 2601 51
71.2817 2511 50.1099
71.3979 2689 51.8556
71.5141 2945 54.2679
71.6303 3203 56.5951
71.7464 3337 57.7668
71.8624 0 1
71.9784 0 1
72.0944 0 1
72.2102 0 1
72.3261 0 1
72.4418 0 1
72.5575 0 1
72.6732 0 1
75.1054 0 1
75.2209 0 1
75.3365 0 1
75.4521 0 1
75.5678 0 1
75.6835 0 1
75.7993 0 1
75.9151 0 1
76.031 0 1
76.147 3437 58.6259
76.263 3496 59.127
76.3791 3240 56.921
76.4952 2887 53.7308
76.6113 2839 53.2823
76.7276 2995 54.7266
76.8438 3324 57.6541
76.9601 3734 61.1065
77.0765 4194 64.7611
77.1929 4366 66.0757
77.3093 4476 66.9029
77.4258 4416 66.453
77.5423 4579 67.6683
77.6589 4464 66.8132
77.7755 4445 66.6708
77.8921 4418 66.468
78.0088 4430 66.5582
78.1256 4474 66.888
78.2423 4379 66.174
78.3591 4347 65.9318
78.4759 4255 65.2304
78.5928 4177 64.6297
78.7097 4169 64.5678
78.8266 4489 67
78.9436 4146 64.3894
79.0606 4509 67.1491
79.1776 4406 66.3777
79.2946 4388 66.242
79.4117 4393 66.2797
79.5288 4272 65.3605
79.6459 4078 63.8592
79.7631 3840 61.9677
79.8802 3689 60.7371
79.9974 3404 58.3438
80.1147 3027 55.0182
80.2319 2809 53
80.3491 2966 54.461
80.4664 3177 56.3649
80.5837 3674 60.6135
80.701 4040 63.561
80.8183 4194 64.7611
80.9357 4317 65.7039
81.053 4391 66.2646
81.1704 4317 65.7039
81.2877 4350 65.9545
81.4051 4303 65.5973
81.5225 4310 65.6506
81.6399 4184 64.6838
81.7573 4174 64.6065
81.8747 4187 64.707
81.9922 4196 64.7765
82.1096 4125 64.2262
82.227 4046 63.6082
82.3444 4127 64.2417
82.4619 4170 64.5755
82.5793 4027 63.4586
82.6967 4215 64.923
82.8142 4116 64.1561
82.9316 4185 64.6916
83.049 4115 64.1483
83.1664 4056 63.6867
83.2838 3786 61.5305
83.4012 3567 59.7244
83.5186 3273 57.2101
83.636 3111 55.7763
83.7534 2799 52.9056
83.8708 2546 50.4579
83.9881 2604 51.0294
84.1055 2821 53.1131
84.2228 3258 57.0789
84.3401 3649 60.407
84.4575 3943 62.7933
84.5747 4206 64.8537
84.692 4185 64.6916
84.8093 4007 63.3009
84.9265 4181 64.6607
85.0437 4124 64.2184
85.1609 4140 64.3428
85.2781 4171 64.5833
85.3952 4298 65.5591
85.5123 4240 65.1153
85.6294 4181 64.6607
85.7465 4211 64.8922
85.8636 4146 64.3894
85.9806 4271 65.3529
86.0976 4263 65.2917
86.2145 4264 65.2993
86.3315 4289 65.4905
86.4484 4625 68.0074
86.5652 4446 66.6783
86.682 4427 66.5357
86.7988 4449 66.7008
86.9156 4226 65.0077
87.0323 3951 62.857
87.149 3768 61.384
87.2657 3601 60.0083
87.3823 3200 56.5685
87.4988 2978 54.5711
87.6154 3300 57.4456
87.7318 3628 60.2329
87.8483 4187 64.707
87.9647 4518 67.2161
88.081 4654 68.2202
88.1973 4750 68.9202
88.3136 4765 69.029
88.4298 4936 70.2567
88.546 4733 68.7968
88.6621 4879 69.8498
88.7781 4742 68.8622
88.8942 0 1
89.0101 0 1
89.126 0 1
89.2419 0 1
89.3577 0 1
89.4734 0 1
89.5891 0 1
89.7047 0 1
89.8203 0 1
89.9358 0 1
92.3269 0 1
92.4424 0 1
92.558 0 1
92.6736 0 1
92.7893 0 1
92.905 0 1
93.0208 0 1
93.1366 0 1
93.2525 0 1
93.3685 0 1
93.4845 0 1
93.6005 4772 69.0797
93.7167 4796 69.2532
93.8328 4839 69.5629
93.949 4747 68.8985
94.0653 4762 69.0072
94.1816 4788 69.1954
94.2979 4792 69.2243
94.4143 4863 69.7352
94.5307 4866 69.7567
94.6472 4730 68.775
94.7637 4778 69.1231
94.8803 4798 69.2676
94.9969 4882 69.8713
95.1135 4702 68.5711
95.2302 4840 69.5701
95.3469 4888 69.9142
95.4637 4710 68.6294
95.5805 4919 70.1356
95.6973 4938 70.2709
95.8142 4911 70.0785
95.9311 4841 69.5773
96.048 4621 67.9779
96.1649 4302 65.5896
96.2819 4169 64.5678
96.3989 3779 61.4736
96.516 3410 58.3952
96.633 3340 57.7927
96.7501 3430 58.5662
96.8673 3696 60.7947
96.9844 4165 64.5368
97.1016 4596 67.7938
97.2188 4936 70.2567
97.336 5071 71.211
97.4532 5030 70.9225
97.5704 5179 71.9653
97.6877 5031 70.9295
97.805 5004 70.739
97.9223 5149 71.7565
98.0396 5157 71.8123
98.1569 5168 71.8888
98.2743 5135 71.6589
98.3916 4942 70.2994
98.509 5188 72.0278
98.6264 4906 70.0428
98.7438 4934 70.2424
98.8612 5095 71.3793
98.9786 5082 71.2881
99.096 5017 70.8308
99.2134 5165 71.8679
99.3308 5164 71.861
99.4482 5123 71.5751
99.5656 5158 71.8192
99.6831 5047 71.0422
99.8005 4844 69.5989
99.9179 4413 66.4304
100.035 4001 63.2535
100.153 3628 60.2329
100.27 3566 59.716
100.388 3705 60.8687
100.505 4354 65.9848
100.622 4674 68.3667
100.74 5146 71.7356
100.857 5241 72.3948
100.975 5401 73.4915
101.092 5370 73.2803
101.209 5341 73.0821
101.327 5309 72.8629
101.444 5270 72.5948
101.561 5352 73.1574
101.679 5372 73.2939
101.796 5292 72.7461
101.913 5475 73.9932
102.03 5321 72.9452
102.148 5375 73.3144
102.265 5721 75.6373
102.382 5124 71.5821
102.499 5371 73.2871
102.616 5450 73.8241
102.733 5597 74.8131
102.851 5510 74.2294
102.968 5607 74.8799
103.085 5541 74.4379
103.202 5334 73.0342
103.319 5136 71.6659
103.436 4848 69.6276
103.552 4386 66.2269
103.669 3915 62.57
103.786 3801 61.6523
103.903 4128 64.2495
104.02 4611 67.9043
104.137 5062 71.1477
104.253 5667 75.2795
104.37 5561 74.5721
104.487 5745 75.7958
104.603 5787 76.0723
104.72 5622 74.98
104.836 5794 76.1183
104.953 5852 76.4984
105.069 5707 75.5447
105.186 5918 76.9285
105.302 5894 76.7724
105.418 5940 77.0714
105.535 5881 76.6877
105.651 5959 77.1946
105.767 5831 76.361
105.883 5838 76.4068
105.999 6056 77.8203
106.115 0 1
106.231 0 1
106.347 0 1
106.463 0 1
106.579 0 1
106.694 0 1
106.81 0 1
106.926 0 1
107.041 0 1
107.157 0 1
109.576 0 1
109.692 0 1
109.807 0 1
109.923 0 1
110.039 0 1
110.155 0 1
110.27 0 1
110.386 0 1
110.502 0 1
110.618 5460 73.8918
110.735 5591 74.773
110.851 5490 74.0945
110.967 5512 74.2428
111.083 5520 74.2967
111.199 5351 73.1505
111.316 5755 75.8617
111.432 5723 75.6505
111.549 5447 73.8038
111.665 5411 73.5595
111.782 5186 72.0139
111.898 4835 69.5342
112.015 4355 65.9924
112.132 3732 61.0901
112.248 3599 59.9917
112.365 3786 61.5305
112.482 4364 66.0606
112.599 4507 67.1342
112.716 5070 71.2039
112.832 5177 71.9514
112.949 5186 72.0139
113.066 5215 72.215
113.183 5174 71.9305
113.3 5231 72.3257
113.417 5062 71.1477
113.534 5038 70.9789
113.652 5099 71.4073
113.769 5003 70.7319
113.886 4963 70.4486
114.003 5010 70.7814
114.12 4929 70.2068
114.238 4835 69.5342
114.355 4886 69.8999
114.472 4978 70.5549
114.589 4847 69.6204
114.707 4802 69.2965
114.824 4771 69.0724
114.942 4894 69.9571
115.059 4827 69.4766
115.176 4828 69.4838
115.294 4758 68.9783
115.411 4594 67.7791
115.529 4140 64.3428
115.646 3751 61.2454
115.764 3421 58.4893
115.881 3387 58.1979
115.999 3779 61.4736
116.116 4007 63.3009
116.234 4538 67.3647
116.351 4845 69.606
116.469 4909 70.0643
116.586 4878 69.8427
116.704 5028 70.9084
116.821 4954 70.3847
116.939 5002 70.7248
117.056 4908 70.0571
117.174 4899 69.9929
117.291 5019 70.8449
117.409 5074 71.232
117.526 4910 70.0714
117.644 4975 70.5337
117.761 5013 70.8025
117.879 4989 70.6329
117.996 4849 69.6348
118.114 4906 70.0428
118.231 4994 70.6682
118.349 4888 69.9142
118.466 4941 70.2922
118.584 5025 70.8872
118.701 4955 70.3918
118.819 5006 70.7531
118.936 4826 69.4694
119.053 4517 67.2086
119.171 4223 64.9846
119.288 3797 61.6198
119.405 3455 58.7792
119.523 3443 58.6771
119.64 3792 61.5792
119.757 4091 63.9609
119.875 4665 68.3008
119.992 4692 68.4982
120.109 4877 69.8355
120.226 4873 69.8069
120.343 4988 70.6258
120.46 4871 69.7925
120.578 4868 69.7711
120.695 4922 70.157
120.812 4819 69.419
120.929 4863 69.7352
121.046 4860 69.7137
121.163 4850 69.6419
121.279 4812 69.3686
121.396 4889 69.9214
121.513 4892 69.9428
121.63 4806 69.3253
121.747 4845 69.606
121.863 4803 69.3037
121.98 4872 69.7997
122.097 4845 69.606
122.213 4922 70.157
122.33 4847 69.6204
122.446 4811 69.3614
122.563 4593 67.7717
122.679 4549 67.4463
122.795 4364 66.0606
122.912 4099 64.0234
123.028 3775 61.441
123.144 3308 57.5152
123.26 3391 58.2323
123.377 0 1
123.493 0 1
123.609 0 1
123.725 0 1
123.84 0 1
123.956 0 1
124.072 0 1
124.188 0 1
124.303 0 1
124.419 0 1
126.852 0 1
126.968 0 1
127.083 0 1
127.199 0 1
127.315 0 1
127.431 0 1
127.547 0 1
127.663 0 1
127.779 0 1
127.895 0 1
128.011 0 1
128.127 0 1
128.243 0 1
128.359 3855 62.0886
128.476 3853 62.0725
128.592 4058 63.7024
128.708 4601 67.8307
128.825 4929 70.2068
128.941 5242 72.4017
129.058 5416 73.5935
129.174 5486 74.0675
129.291 5423 73.641
129.408 5507 74.2092
129.524 5597 74.8131
129.641 5405 73.5187
129.758 5447 73.8038
129.875 5451 73.8309
129.992 5400 73.4847
130.108 5393 73.437
130.225 5234 72.3464
130.342 5280 72.6636
130.459 5197 72.0902
130.576 5173 71.9236
130.693 5267 72.5741
130.81 5222 72.2634
130.928 5226 72.2911
131.045 5121 71.5612
131.162 5227 72.298
131.279 5308 72.856
131.396 5144 71.7217
131.513 5037 70.9718
131.631 4727 68.7532
131.748 4664 68.2935
131.865 4166 64.5446
131.983 3722 61.0082
132.1 3982 63.1031
132.217 4310 65.6506
132.335 4928 70.1997
132.452 5148 71.7496
132.57 5196 72.0833
132.687 4943 70.3065
132.804 5413 73.5731
132.922 5396 73.4575
133.039 5173 71.9236
133.157 5192 72.0555
133.274 5230 72.3187
133.392 5203 72.1318
133.509 5074 71.232
133.627 5087 71.3232
133.744 5075 71.239
133.862 4986 70.6116
133.979 4993 70.6612
134.097 5112 71.4983
134.214 4974 70.5266
134.332 4970 70.4982
134.449 5076 71.2461
134.567 4938 70.2709
134.684 5068 71.1899
134.802 5069 71.1969
134.919 5211 72.1873
135.037 5037 70.9718
135.154 4726 68.7459
135.272 4658 68.2495
135.389 4270 65.3452
135.507 3769 61.3922
135.624 3734 61.1065
135.742 3786 61.5305
135.859 4481 66.9403
135.977 4816 69.3974
136.094 5193 72.0625
136.211 5118 71.5402
136.329 5165 71.8679
136.446 5153 71.7844
136.564 5261 72.5328
136.681 5174 71.9305
136.798 5190 72.0417
136.915 5095 71.3793
137.033 5288 72.7186
137.15 5149 71.7565
137.267 4949 70.3491
137.384 4946 70.3278
137.502 5145 71.7287
137.619 4870 69.7854
137.736 4876 69.8284
137.853 4922 70.157
137.97 4859 69.7065
138.087 4985 70.6045
138.204 4894 69.9571
138.321 4871 69.7925
138.438 5114 71.5122
138.555 5065 71.1688
138.672 4916 70.1142
138.788 4935 70.2496
138.905 4566 67.5722
139.022 4335 65.8407
139.139 4061 63.726
139.255 3706 60.8769
139.372 4022 63.4192
139.488 4297 65.5515
139.605 4792 69.2243
139.721 4889 69.9214
139.838 4974 70.5266
139.954 5187 72.0208
140.071 5218 72.2357
140.187 5002 70.7248
140.303 5111 71.4913
140.419 5113 71.5052
140.535 4932 70.2282
140.652 5012 70.7955
140.768 0 1
140.884 0 1
141 0 1
141.115 0 1
141.231 0 1
141.347 0 1
141.463 0 1
141.578 0 1
141.694 0 1
144.104 0 1
144.219 0 1
144.335 0 1
144.45 0 1
144.566 0 1
144.682 0 1
144.798 0 1
144.914 0 1
145.03 0 1
145.146 4409 66.4003
145.262 4325 65.7647
145.378 4404 66.3626
145.494 4441 66.6408
145.61 4194 64.7611
145.726 4263 65.2917
145.842 4293 65.521
145.959 4121 64.195
146.075 4180 64.6529
146.192 4193 64.7534
146.308 4194 64.7611
146.425 4153 64.4438
146.541 3989 63.1585
146.658 4120 64.1872
146.774 4036 63.5295
146.891 4016 63.3719
147.008 4200 64.8074
147.125 4170 64.5755
147.241 4177 64.6297
147.358 4030 63.4823
147.475 3826 61.8547
147.592 3787 61.5386
147.709 3421 58.4893
147.826 3083 55.5248
147.943 3305 57.4891
148.06 3438 58.6345
148.177 3865 62.1691
148.294 3976 63.0555
148.411 4201 64.8151
148.528 4234 65.0692
148.645 4163 64.5213
148.762 4047 63.616
148.88 4166 64.5446
148.997 3987 63.1427
149.114 4269 65.3376
149.231 4032 63.498
149.349 4010 63.3246
149.466 3862 62.145
149.583 3893 62.3939
149.701 3721 61
149.818 3688 60.7289
149.935 3780 61.4817
150.053 3879 62.2816
150.17 3842 61.9839
150.287 3889 62.3618
150.405 3862 62.145
150.522 3824 61.8385
150.64 3993 63.1902
150.757 3972 63.0238
150.875 3852 62.0645
150.992 3811 61.7333
151.11 3656 60.4649
151.227 3457 58.7963
151.344 3248 56.9912
151.462 3005 54.8179
151.579 3026 55.0091
151.697 3251 57.0175
151.814 3582 59.8498
151.932 3785 61.5224
152.049 4060 63.7181
152.167 4034 63.5138
152.284 3991 63.1744
152.402 4043 63.5846
152.519 3994 63.1981
152.636 3971 63.0159
152.754 3916 62.578
152.871 3914 62.562
152.989 3837 61.9435
153.106 3814 61.7576
153.223 3732 61.0901
153.341 3763 61.3433
153.458 3691 60.7536
153.575 3637 60.3075
153.693 3769 61.3922
153.81 3750 61.2372
153.927 3786 61.5305
154.044 3867 62.1852
154.162 3866 62.1772
154.279 3962 62.9444
154.396 3973 63.0317
154.513 3949 62.8411
154.63 3941 62.7774
154.747 3833 61.9112
154.864 3704 60.8605
154.981 3390 58.2237
155.098 3197 56.542
155.215 3202 56.5862
155.332 3571 59.7578
155.449 3805 61.6847
155.566 3818 61.79
155.683 4000 63.2456
155.8 4005 63.2851
155.917 4104 64.0625
156.033 4098 64.0156
156.15 0 1
156.267 0 1
156.383 0 1
156.5 0 1
156.617 0 1
156.733 0 1
156.85 0 1
156.966 0 1
157.082 0 1
157.199 0 1
157.315 0 1
157.431 0 1
157.547 0 1
157.664 0 1
157.78 0 1
157.896 0 1
158.012 0 1
158.128 0 1
158.244 0 1
158.359 0 1
158.475 0 1
158.591 0 1
158.706 0 1
