
6.15755 0 1
6.2731 0 1
6.3887 0 1
6.50437 0 1
6.62009 0 1
6.73587 0 1
6.8517 0 1
6.96759 0 1
7.08353 0 1
7.19952 0 1
7.31557 0 1
7.43166 0 1
7.54781 0 1
7.664 0 1
7.78024 0 1
7.89653 0 1
8.01286 0 1
8.12924 0 1
8.24567 0 1
8.36213 0 1
8.47864 0 1
8.59519 0 1
8.71178 0 1
8.82841 0 1
8.94508 0 1
9.06179 0 1
9.17853 0 1
9.29531 0 1
9.41212 0 1
9.52897 0 1
9.64584 0 1
9.76276 0 1
9.8797 0 1
9.99667 0 1
10.1137 0 1
10.2307 0 1
10.3478 0 1
10.4648 0 1
10.5819 0 1
10.6991 0 1
10.8162 0 1
10.9334 0 1
11.0506 0 1
11.1678 0 1
11.285 0 1
11.4023 0 1
11.5196 0 1
11.6369 0 1
11.7542 0 1
11.8715 0 1
11.9888 0 1
12.1062 0 1
12.2235 0 1
12.3409 0 1
12.4582 0 1
12.5756 0 1
12.693 0 1
12.8104 0 1
12.9278 0 1
13.0452 0 1
13.1626 0 1
13.28 0 1
13.3974 0 1
13.5149 0 1
13.6323 0 1
13.7497 0 1
13.8671 0 1
13.9845 0 1
14.1019 0 1
14.2193 0 1
14.3367 0 1
14.4541 0 1
14.5714 0 1
14.6888 0 1
14.8062 0 1
14.9235 0 1
15.0408 0 0
15.1581 0 0
15.2755 0 0
15.3927 0 0
15.51 0 0
15.6273 0 0
15.7445 0 0
15.8617 0 0
15.9789 0 0
16.0961 0 0
16.2132 0 0
16.3304 0 0
16.4475 0 0
16.5646 0 0
16.6816 0 0
16.7986 0 0
16.9156 0 0
17.0326 0 0
17.1496 0 0
17.2665 0 0
17.3833 0 0
17.5002 0 0
17.617 0 0
17.7338 0 0
17.8505 0 0
17.9672 0 0
18.0839 0 0
18.2005 0 0
18.3171 0 0
18.4337 0 0
18.5502 0 0
18.6666 0 0
18.7831 0 0
18.8994 0 0
19.0158 0 0
19.1321 0 0
19.2483 0 0
19.3645 0 0
19.4806 0 0
19.5967 0 0
19.7128 0 0
19.8288 0 0
19.9447 0 0
20.0606 0 1
20.1764 0 1
20.2922 0 1
20.4079 0 1
20.5236 0 1
20.6392 0 1
20.7548 0 1
20.8702 0 1
23.3078 0 1
23.4233 0 1
23.539 0 1
23.6547 0 1
23.7704 0 1
23.8862 0 1
24.0021 0 1
24.118 0 1
24.234 0 1
24.35 0 1
24.4661 11047 105.105
24.5822 10914 104.47
24.6984 11110 105.404
24.8146 11151 105.598
24.9309 10990 104.833
25.0472 10877 104.293
25.1636 10663 103.262
25.28 10662 103.257
25.3965 10880 104.307
25.513 11060 105.167
25.6296 11145 105.57
25.7462 11790 108.582
25.8628 11769 108.485
25.9795 12172 110.327
26.0962 12029 109.677
26.213 12221 110.549
26.3298 12125 110.114
26.4466 12330 111.041
26.5635 11908 109.124
26.6804 11757 108.43
26.7973 11432 106.921
26.9143 11236 106
27.0313 11587 107.643
27.1483 12207 110.485
27.2653 12096 109.982
27.3824 12595 112.227
27.4996 12496 111.786
27.6167 12100 110
27.7339 12379 111.261
27.8511 12099 109.995
27.9683 11777 108.522
28.0855 11658 107.972
28.2028 11703 108.18
28.3201 11425 106.888
28.4374 10964 104.709
28.5547 10743 103.648
28.6721 10280 101.39
28.7894 10405 102.005
28.9068 10389 101.926
29.0242 10551 102.718
29.1416 10578 102.849
29.259 10672 103.305
29.3764 10757 103.716
29.4939 11035 105.048
29.6113 11358 106.574
29.7288 11362 106.593
29.8463 11418 106.855
29.9638 11461 107.056
30.0812 11362 106.593
30.1987 11114 105.423
30.3162 10840 104.115
30.4337 10896 104.384
30.5512 10968 104.728
30.6687 11538 107.415
30.7862 11722 108.268
30.9037 12260 110.725
31.0212 11986 109.481
31.1387 12387 111.297
31.2562 12080 109.909
31.3737 12096 109.982
31.4912 11970 109.407
31.6087 11890 109.041
31.7262 11572 107.573
31.8436 11348 106.527
31.9611 11171 105.693
32.0785 10958 104.68
32.1959 10597 102.942
32.3134 10356 101.764
32.4308 10277 101.376
32.5482 10238 101.183
32.6655 10354 101.755
32.7829 10596 102.937
32.9002 10716 103.518
33.0176 11248 106.057
33.1349 11054 105.138
33.2522 10935 104.571
33.3694 11458 107.042
33.4867 11369 106.626
33.6039 11498 107.229
33.7211 11468 107.089
33.8383 11165 105.665
33.9554 10998 104.871
34.0725 10772 103.788
34.1896 11062 105.176
34.3067 11430 106.911
34.4237 11932 109.234
34.5407 11876 108.977
34.6577 12197 110.44
34.7746 12095 109.977
34.8915 11906 109.115
35.0084 11962 109.371
35.1252 11785 108.559
35.242 11729 108.301
35.3587 11495 107.215
35.4755 11491 107.196
35.5921 11248 106.057
35.7088 10928 104.537
35.8254 10878 104.298
35.9419 10505 102.494
36.0584 10082 100.409
36.1749 10078 100.389
36.2913 10078 100.389
36.4077 9985 99.925
36.524 10337 101.671
36.6403 10491 102.426
36.7565 10885 104.331
36.8727 11035 105.048
36.9889 11176 105.717
37.1049 11220 105.925
37.221 0 1
37.3369 0 1
37.4529 0 1
37.5687 0 1
37.6845 0 1
37.8003 0 1
37.916 0 1
38.0316 0 1
38.1472 0 1
40.5851 0 1
40.7008 0 1
40.8164 0 1
40.9322 0 1
41.048 0 1
41.1639 0 1
41.2798 0 1
41.3958 0 1
41.5118 0 1
41.6279 0 1
41.744 8290 91.0494
41.8602 9300 96.4365
41.9765 9315 96.5142
42.0928 9694 98.4581
42.2091 9832 99.1564
42.3255 9955 99.7747
42.4419 10242 101.203
42.5584 10083 100.414
42.675 9433 97.1236
42.7915 9481 97.3704
42.9081 9294 96.4054
43.0248 9736 98.6712
43.1415 10103 100.514
43.2582 10338 101.676
43.375 10470 102.323
43.4918 10717 103.523
43.6087 10565 102.786
43.7256 10392 101.941
43.8425 10315 101.563
43.9595 10136 100.678
44.0765 9970 99.8499
44.1935 9760 98.7927
44.3106 9542 97.6832
44.4277 9373 96.8143
44.5448 8816 93.8936
44.6619 8482 92.0978
44.7791 8217 90.6477
44.8963 7849 88.5946
45.0136 7676 87.6128
45.1308 7763 88.1079
45.2481 7691 87.6983
45.3654 7909 88.9326
45.4827 8180 90.4434
45.6001 8101 90.0056
45.7174 8227 90.7028
45.8348 8466 92.0109
45.9522 8434 91.8368
46.0697 8274 90.9615
46.1871 7903 88.8988
46.3046 7775 88.176
46.422 7468 86.4176
46.5395 7660 87.5214
46.657 7991 89.3924
46.7745 8188 90.4876
46.892 8456 91.9565
47.0096 8269 90.934
47.1271 8380 91.5423
47.2446 8432 91.8259
47.3622 8168 90.377
47.4797 8076 89.8666
47.5973 7951 89.1684
47.7149 7826 88.4647
47.8324 7488 86.5332
47.95 7214 84.9353
48.0675 7129 84.4334
48.1851 6621 81.3695
48.3027 6206 78.7782
48.4202 6108 78.1537
48.5378 6006 77.4984
48.6554 5916 76.9155
48.7729 6002 77.4726
48.8904 6096 78.0769
49.008 6513 80.7032
49.1255 6413 80.0812
49.243 6517 80.7279
49.3605 6788 82.3893
49.478 6960 83.4266
49.5955 6872 82.8975
49.713 6533 80.827
49.8304 6392 79.95
49.9479 6295 79.341
50.0653 6708 81.9024
50.1827 7116 84.3564
50.3001 7572 87.0172
50.4175 7884 88.7919
50.5348 8116 90.0888
50.6521 8381 91.5478
50.7694 8542 92.4229
50.8867 8655 93.0323
51.004 8794 93.7763
51.1212 8760 93.5949
51.2384 9037 95.0631
51.3556 8856 94.1063
51.4727 8566 92.5527
51.5899 8444 91.8912
51.707 8363 91.4494
51.824 7911 88.9438
51.9411 7889 88.82
52.0581 7871 88.7187
52.175 7898 88.8707
52.2919 8146 90.2552
52.4088 8560 92.5203
52.5257 8855 94.101
52.6425 9233 96.0885
52.7593 9356 96.7264
52.876 9631 98.1377
52.9927 9979 99.8949
53.1094 10112 100.558
53.226 10242 101.203
53.3426 9696 98.4683
53.4591 9825 99.1211
53.5756 9895 99.4736
53.692 10018 100.09
53.8084 10908 104.441
53.9248 11524 107.35
54.0411 11896 109.069
54.1573 12303 110.919
54.2735 0 1
54.3896 0 1
54.5057 0 1
54.6217 0 1
54.7377 0 1
54.8537 0 1
54.9695 0 1
55.0853 0 1
55.2011 0 1
55.3168 0 1
55.4324 0 1
57.824 0 1
57.9396 0 1
58.0553 0 1
58.1711 0 1
58.2869 0 1
58.4028 0 1
58.5187 0 1
58.6347 0 1
58.7508 0 1
58.8669 0 1
58.983 13362 115.594
59.0992 14464 120.266
59.2155 15009 122.511
59.3318 15569 124.776
59.4482 15812 125.746
59.5646 16102 126.894
59.681 16127 126.992
59.7975 15674 125.196
59.9141 15405 124.117
60.0306 14536 120.565
60.1473 14283 119.512
60.2639 13648 116.825
60.3807 12800 113.137
60.4974 12136 110.164
60.6142 11675 108.051
60.731 11305 106.325
60.8479 11233 105.986
60.9648 11411 106.822
61.0818 11763 108.457
61.1987 12300 110.905
61.3158 12489 111.754
61.4328 12609 112.29
61.5499 12544 112
61.667 12542 111.991
61.7841 12189 110.404
61.9013 11909 109.128
62.0185 11497 107.224
62.1357 11278 106.198
62.253 11610 107.75
62.3702 12213 110.512
62.4875 12823 113.239
62.6049 13350 115.542
62.7222 14085 118.68
62.8396 14078 118.651
62.9569 13997 118.309
63.0743 14012 118.372
63.1918 14144 118.929
63.3092 13904 117.915
63.4267 13288 115.274
63.5441 12848 113.349
63.6616 12267 110.756
63.7791 11525 107.355
63.8966 10968 104.728
64.0142 10151 100.752
64.1317 9627 98.1173
64.2492 9371 96.8039
64.3668 9335 96.6178
64.4843 9679 98.3819
64.6019 10056 100.28
64.7195 10793 103.889
64.837 10953 104.657
64.9546 11031 105.029
65.0722 11194 105.802
65.1898 11163 105.655
65.3074 11188 105.773
65.4249 10988 104.824
65.5425 10470 102.323
65.6601 10333 101.651
65.7777 10499 102.465
65.8952 11041 105.076
66.0128 11861 108.908
66.1304 12672 112.57
66.2479 13106 114.481
66.3655 13373 115.642
66.483 13994 118.296
66.6005 14120 118.828
66.718 13866 117.754
66.8355 13940 118.068
66.953 13607 116.649
67.0705 13204 114.909
67.1879 12608 112.285
67.3054 11851 108.862
67.4228 11577 107.596
67.5402 10927 104.532
67.6576 10083 100.414
67.7749 9723 98.6053
67.8923 9478 97.355
68.0096 9598 97.9694
68.1269 9820 99.0959
68.2442 10864 104.231
68.3614 11741 108.356
68.4787 11962 109.371
68.5958 12030 109.681
68.713 12247 110.666
68.8302 12327 111.027
68.9473 12174 110.336
69.0643 12118 110.082
69.1814 11557 107.503
69.2984 11243 106.033
69.4154 11249 106.061
69.5323 12022 109.645
69.6492 13119 114.538
69.7661 13933 118.038
69.8829 14689 121.198
69.9997 15182 123.215
70.1165 15299 123.689
70.2332 15445 124.278
70.3499 15546 124.684
70.4665 15281 123.616
70.5831 14978 122.385
70.6996 14188 119.113
70.8161 13865 117.75
70.9326 12970 113.886
71.049 12593 112.219
71.1653 11924 109.197
71.2817 11179 105.731
71.3979 10161 100.802
71.5141 9938 99.6895
71.6303 9667 98.3209
71.7464 8942 94.5621
71.8624 0 1
71.9784 0 1
72.0944 0 1
72.2102 0 1
72.3261 0 1
72.4418 0 1
72.5575 0 1
72.6732 0 1
75.1054 0 1
75.2209 0 1
75.3365 0 1
75.4521 0 1
75.5678 0 1
75.6835 0 1
75.7993 0 1
75.9151 0 1
76.031 0 1
76.147 12420 111.445
76.263 12854 113.375
76.3791 12688 112.641
76.4952 12091 109.959
76.6113 11542 107.434
76.7276 10455 102.25
76.8438 10276 101.371
76.9601 10250 101.242
77.0765 10298 101.479
77.1929 11299 106.297
77.3093 12068 109.854
77.4258 12866 113.428
77.5423 13235 115.043
77.6589 13083 114.381
77.7755 12881 113.494
77.8921 12906 113.605
78.0088 12561 112.076
78.1256 11912 109.142
78.2423 11154 105.612
78.3591 11117 105.437
78.4759 11186 105.764
78.5928 11997 109.531
78.7097 13254 115.126
78.8266 13868 117.762
78.9436 14703 121.256
79.0606 14988 122.425
79.1776 15203 123.3
79.2946 15138 123.037
79.4117 15236 123.434
79.5288 14940 122.229
79.6459 14686 121.186
79.7631 13570 116.49
79.8802 12949 113.794
79.9974 12471 111.674
80.1147 11816 108.701
80.2319 10987 104.819
80.3491 10283 101.405
80.4664 9852 99.2572
80.5837 9507 97.5038
80.701 9849 99.2421
80.8183 10248 101.232
80.9357 10894 104.374
81.053 11770 108.49
81.1704 12024 109.654
81.2877 11866 108.931
81.4051 11642 107.898
81.5225 11620 107.796
81.6399 11147 105.579
81.7573 10968 104.728
81.8747 10153 100.762
81.9922 9920 99.5992
82.1096 9869 99.3428
82.227 10460 102.274
82.3444 11502 107.247
82.4619 12523 111.906
82.5793 13160 114.717
82.6967 13161 114.721
82.8142 13304 115.343
82.9316 13225 115
83.049 13202 114.9
83.1664 12753 112.929
83.2838 12355 111.153
83.4012 11814 108.692
83.5186 11389 106.719
83.636 10981 104.79
83.7534 10239 101.188
83.8708 9718 98.5799
83.9881 8970 94.7101
84.1055 8386 91.5751
84.2228 8412 91.717
84.3401 8688 93.2094
84.4575 9086 95.3205
84.5747 9942 99.7096
84.692 10682 103.354
84.8093 10938 104.585
84.9265 11040 105.071
85.0437 10700 103.441
85.1609 10800 103.923
85.2781 10242 101.203
85.3952 9885 99.4233
85.5123 9565 97.8008
85.6294 9592 97.9388
85.7465 10182 100.906
85.8636 11172 105.698
85.9806 11998 109.535
86.0976 12794 113.111
86.2145 13595 116.598
86.3315 13934 118.042
86.4484 14697 121.231
86.5652 14647 121.025
86.682 14530 120.54
86.7988 14204 119.181
86.9156 13894 117.873
87.0323 13246 115.091
87.149 12592 112.214
87.2657 12375 111.243
87.3823 11616 107.778
87.4988 11049 105.114
87.6154 10353 101.75
87.7318 10112 100.558
87.8483 10345 101.71
87.9647 10950 104.642
88.081 11869 108.945
88.1973 13172 114.769
88.3136 13310 115.369
88.4298 13337 115.486
88.546 13204 114.909
88.6621 13125 114.564
88.7781 12945 113.776
88.8942 0 1
89.0101 0 1
89.126 0 1
89.2419 0 1
89.3577 0 1
89.4734 0 1
89.5891 0 1
89.7047 0 1
89.8203 0 1
89.9358 0 1
92.3269 0 1
92.4424 0 1
92.558 0 1
92.6736 0 1
92.7893 0 1
92.905 0 1
93.0208 0 1
93.1366 0 1
93.2525 0 1
93.3685 0 1
93.4845 0 1
93.6005 12509 111.844
93.7167 13154 114.691
93.8328 13324 115.43
93.949 13151 114.678
94.0653 13098 114.446
94.1816 12682 112.614
94.2979 12646 112.454
94.4143 12211 110.503
94.5307 11657 107.968
94.6472 11778 108.526
94.7637 11922 109.188
94.8803 12464 111.642
94.9969 13871 117.775
95.1135 14749 121.445
95.2302 15122 122.972
95.3469 15641 125.064
95.4637 15834 125.833
95.5805 16144 127.059
95.6973 16204 127.295
95.8142 16085 126.827
95.9311 15797 125.686
96.048 15257 123.519
96.1649 14720 121.326
96.2819 14195 119.143
96.3989 13763 117.316
96.516 12996 114
96.633 12058 109.809
96.7501 11341 106.494
96.8673 10829 104.062
96.9844 10945 104.618
97.1016 11285 106.231
97.2188 12005 109.567
97.336 12889 113.53
97.4532 13523 116.288
97.5704 13771 117.35
97.6877 13254 115.126
97.805 13053 114.25
97.9223 12466 111.651
98.0396 12037 109.713
98.1569 11665 108.005
98.2743 11290 106.254
98.3916 11425 106.888
98.509 12013 109.604
98.6264 12803 113.15
98.7438 13830 117.601
98.8612 14765 121.511
98.9786 15469 124.374
99.096 16072 126.775
99.2134 16084 126.823
99.3308 16295 127.652
99.4482 16023 126.582
99.5656 15863 125.948
99.6831 15413 124.149
99.8005 14511 120.462
99.9179 14095 118.722
100.035 13582 116.542
100.153 12884 113.508
100.27 11974 109.426
100.388 11256 106.094
100.505 11071 105.219
100.622 11576 107.592
100.74 12231 110.594
100.857 13020 114.105
100.975 13854 117.703
101.092 13957 118.14
101.209 13969 118.191
101.327 13482 116.112
101.444 13283 115.252
101.561 12894 113.552
101.679 12397 111.342
101.796 12046 109.754
101.913 11991 109.503
102.03 12401 111.36
102.148 13718 117.124
102.265 15822 125.786
102.382 14884 122
102.499 16482 128.382
102.616 17143 130.931
102.733 17312 131.575
102.851 17662 132.898
102.968 17488 132.242
103.085 17305 131.548
103.202 16808 129.646
103.319 15838 125.849
103.436 15567 124.768
103.552 14895 122.045
103.669 14367 119.862
103.786 13474 116.078
103.903 12563 112.085
104.02 12339 111.081
104.137 12505 111.826
104.253 13633 116.76
104.37 14165 119.017
104.487 15501 124.503
104.603 15596 124.884
104.72 15351 123.899
104.836 14948 122.262
104.953 14749 121.445
105.069 14502 120.424
105.186 13827 117.588
105.302 13392 115.724
105.418 13497 116.177
105.535 14168 119.029
105.651 15671 125.184
105.767 17152 130.966
105.883 18565 136.253
105.999 18999 137.837
106.115 0 1
106.231 0 1
106.347 0 1
106.463 0 1
106.579 0 1
106.694 0 1
106.81 0 1
106.926 0 1
107.041 0 1
107.157 0 1
109.576 0 1
109.692 0 1
109.807 0 1
109.923 0 1
110.039 0 1
110.155 0 1
110.27 0 1
110.386 0 1
110.502 0 1
110.618 13707 117.077
110.735 15391 124.06
110.851 16437 128.207
110.967 17606 132.688
111.083 18143 134.696
111.199 18566 136.257
111.316 18654 136.58
111.432 19067 138.083
111.549 19005 137.859
111.665 18438 135.787
111.782 17721 133.12
111.898 17350 131.719
112.015 16503 128.464
112.132 15618 124.972
112.248 14520 120.499
112.365 13539 116.357
112.482 13292 115.291
112.599 13130 114.586
112.716 13453 115.987
112.832 14581 120.752
112.949 14873 121.955
113.066 15173 123.179
113.183 15074 122.776
113.3 14537 120.569
113.417 14674 121.136
113.534 14217 119.235
113.652 13729 117.171
113.769 13239 115.061
113.886 13361 115.59
114.003 13111 114.503
114.12 14228 119.281
114.238 15424 124.193
114.355 16774 129.514
114.472 18255 135.111
114.589 16839 129.765
114.707 18223 134.993
114.824 18310 135.314
114.942 18634 136.506
115.059 18828 137.215
115.176 18553 136.209
115.294 17826 133.514
115.411 17412 131.955
115.529 16678 129.143
115.646 16155 127.102
115.764 15839 125.853
115.881 14333 119.721
115.999 13822 117.567
116.116 13811 117.52
116.234 13924 118
116.351 14661 121.083
116.469 15441 124.262
116.586 15745 125.479
116.704 15654 125.116
116.821 15436 124.242
116.939 15167 123.154
117.056 15066 122.744
117.174 14920 122.147
117.291 14401 120.004
117.409 14037 118.478
117.526 14031 118.453
117.644 14532 120.549
117.761 15587 124.848
117.879 16980 130.307
117.996 17504 132.303
118.114 18311 135.318
118.231 18563 136.246
118.349 19086 138.152
118.466 19168 138.449
118.584 19203 138.575
118.701 19293 138.899
118.819 18855 137.314
118.936 18280 135.204
119.053 17602 132.673
119.171 17241 131.305
119.288 16681 129.155
119.405 16027 126.598
119.523 14921 122.152
119.64 14385 119.937
119.757 14138 118.903
119.875 14390 119.958
119.992 14864 121.918
120.109 15287 123.641
120.226 15897 126.083
120.343 15463 124.35
120.46 15505 124.519
120.578 15548 124.692
120.695 15306 123.717
120.812 15175 123.187
120.929 14695 121.223
121.046 14638 120.988
121.163 14527 120.528
121.279 14636 120.979
121.396 15622 124.988
121.513 16452 128.265
121.63 17548 132.469
121.747 18244 135.07
121.863 18715 136.803
121.98 18869 137.364
122.097 19090 138.167
122.213 19025 137.931
122.33 19026 137.935
122.446 18769 137
122.563 18376 135.558
122.679 17733 133.165
122.795 17444 132.076
122.912 16873 129.896
123.028 16278 127.585
123.144 15600 124.9
123.26 14605 120.851
123.377 0 1
123.493 0 1
123.609 0 1
123.725 0 1
123.84 0 1
123.956 0 1
124.072 0 1
124.188 0 1
124.303 0 1
124.419 0 1
126.852 0 1
126.968 0 1
127.083 0 1
127.199 0 1
127.315 0 1
127.431 0 1
127.547 0 1
127.663 0 1
127.779 0 1
127.895 0 1
128.011 0 1
128.127 0 1
128.243 0 1
128.359 17708 133.071
128.476 16688 129.182
128.592 16011 126.535
128.708 16331 127.793
128.825 16622 128.926
128.941 17385 131.852
129.058 18080 134.462
129.174 17863 133.653
129.291 17790 133.379
129.408 17541 132.442
129.524 17652 132.861
129.641 17375 131.814
129.758 16809 129.65
129.875 16493 128.425
129.992 16154 127.098
130.108 16367 127.934
130.225 16689 129.186
130.342 17492 132.257
130.459 18279 135.2
130.576 19541 139.789
130.693 19787 140.666
130.81 20346 142.639
130.928 20292 142.45
131.045 20474 143.087
131.162 20903 144.579
131.279 20947 144.731
131.396 20914 144.617
131.513 20320 142.548
131.631 20210 142.162
131.748 20237 142.257
131.865 19409 139.316
131.983 18343 135.436
132.1 17697 133.03
132.217 17817 133.48
132.335 18043 134.324
132.452 18545 136.18
132.57 19391 139.252
132.687 19075 138.112
132.804 20290 142.443
132.922 19815 140.766
133.039 19973 141.326
133.157 19407 139.309
133.274 18863 137.343
133.392 18387 135.599
133.509 17977 134.078
133.627 17824 133.507
133.744 18241 135.059
133.862 18661 136.605
133.979 19993 141.397
134.097 20736 144
134.214 21199 145.599
134.332 21419 146.352
134.449 21773 147.557
134.567 22139 148.792
134.684 22427 149.756
134.802 22793 150.974
134.919 22272 149.238
135.037 22372 149.573
135.154 21830 147.75
135.272 21556 146.82
135.389 21021 144.986
135.507 20150 141.951
135.624 19100 138.203
135.742 18548 136.191
135.859 18856 137.317
135.977 19381 139.216
136.094 20416 142.885
136.211 20796 144.208
136.329 20626 143.618
136.446 20580 143.457
136.564 20523 143.259
136.681 20276 142.394
136.798 19705 140.374
136.915 19862 140.933
137.033 18720 136.821
137.15 18803 137.124
137.267 18484 135.956
137.384 18583 136.319
137.502 18917 137.539
137.619 19908 141.096
137.736 20637 143.656
137.853 20697 143.865
137.97 21501 146.632
138.087 21566 146.854
138.204 21898 147.98
138.321 22317 149.389
138.438 22292 149.305
138.555 22876 151.248
138.672 22682 150.605
138.788 22139 148.792
138.905 22143 148.805
139.022 21457 146.482
139.139 20922 144.644
139.255 19785 140.659
139.372 19586 139.95
139.488 19512 139.685
139.605 20167 142.011
139.721 20987 144.869
139.838 21240 145.739
139.954 21292 145.918
140.071 20907 144.593
140.187 21277 145.866
140.303 20798 144.215
140.419 20233 142.243
140.535 19371 139.18
140.652 18919 137.546
140.768 0 1
140.884 0 1
141 0 1
141.115 0 1
141.231 0 1
141.347 0 1
141.463 0 1
141.578 0 1
141.694 0 1
144.104 0 1
144.219 0 1
144.335 0 1
144.45 0 1
144.566 0 1
144.682 0 1
144.798 0 1
144.914 0 1
145.03 0 1
145.146 44140 210.095
145.262 46726 216.162
145.378 47897 218.854
145.494 47290 217.463
145.61 46950 216.679
145.726 46342 215.272
145.842 46463 215.553
145.959 46687 216.072
146.075 48256 219.672
146.192 51314 226.526
146.308 54567 233.596
146.425 56598 237.903
146.541 58772 242.429
146.658 60688 246.349
146.774 62702 250.404
146.891 64043 253.067
147.008 65463 255.857
147.125 67702 260.196
147.241 67635 260.067
147.358 67773 260.332
147.475 66192 257.278
147.592 65130 255.206
147.709 63169 251.334
147.826 60566 246.102
147.943 58675 242.229
148.06 58523 241.915
148.177 61338 247.665
148.294 65054 255.057
148.411 67262 259.349
148.528 68483 261.693
148.645 68516 261.756
148.762 68066 260.895
148.88 68476 261.679
148.997 64814 254.586
149.114 66087 257.074
149.231 61724 248.443
149.349 60096 245.145
149.466 56308 237.293
149.583 56232 237.133
149.701 55366 235.3
149.818 57485 239.76
149.935 59206 243.323
150.053 60511 245.99
150.17 61860 248.717
150.287 62975 250.948
150.405 64391 253.754
150.522 65116 255.178
150.64 65916 256.741
150.757 66667 258.2
150.875 66593 258.056
150.992 65904 256.718
151.11 64725 254.411
151.227 62983 250.964
151.344 60947 246.874
151.462 57966 240.761
151.579 56638 237.987
151.697 57189 239.142
151.814 59407 243.736
151.932 63042 251.082
152.049 65827 256.568
152.167 66784 258.426
152.284 66702 258.267
152.402 66455 257.789
152.519 65905 256.72
152.636 64335 253.643
152.754 61705 248.405
152.871 59703 244.342
152.989 57541 239.877
153.106 55426 235.427
153.223 54915 234.339
153.341 55151 234.843
153.458 57125 239.008
153.575 58209 241.265
153.693 59671 244.276
153.81 61037 247.057
153.927 61659 248.312
154.044 63090 251.177
154.162 64172 253.322
154.279 65730 256.379
154.396 66565 258.002
154.513 66872 258.596
154.63 66568 258.008
154.747 65130 255.206
154.864 63770 252.527
154.981 61434 247.859
155.098 59822 244.585
155.215 57686 240.179
155.332 58751 242.386
155.449 61353 247.695
155.566 63853 252.692
155.683 65766 256.449
155.8 65916 256.741
155.917 65700 256.32
156.033 65185 255.314
156.15 0 1
156.267 0 1
156.383 0 1
156.5 0 1
156.617 0 1
156.733 0 1
156.85 0 1
156.966 0 1
157.082 0 1
157.199 0 1
157.315 0 1
157.431 0 1
157.547 0 1
157.664 0 1
157.78 0 1
157.896 0 1
158.012 0 1
158.128 0 1
158.244 0 1
158.359 0 1
158.475 0 1
158.591 0 1
158.706 0 1
