
6.15755 0 1
6.2731 0 1
6.3887 0 1
6.50437 0 1
6.62009 0 1
6.73587 0 1
6.8517 0 1
6.96759 0 1
7.08353 0 1
7.19952 0 1
7.31557 0 1
7.43166 0 1
7.54781 0 1
7.664 0 1
7.78024 0 1
7.89653 0 1
8.01286 0 1
8.12924 0 1
8.24567 0 1
8.36213 0 1
8.47864 0 1
8.59519 0 1
8.71178 0 1
8.82841 0 1
8.94508 0 1
9.06179 0 1
9.17853 0 1
9.29531 0 1
9.41212 0 1
9.52897 0 1
9.64584 0 1
9.76276 0 1
9.8797 0 1
9.99667 0 1
10.1137 0 1
10.2307 0 1
10.3478 0 1
10.4648 0 1
10.5819 0 1
10.6991 0 1
10.8162 0 1
10.9334 0 1
11.0506 0 1
11.1678 0 1
11.285 0 1
11.4023 0 1
11.5196 0 1
11.6369 0 1
11.7542 0 1
11.8715 0 1
11.9888 0 1
12.1062 0 1
12.2235 0 1
12.3409 0 1
12.4582 0 1
12.5756 0 1
12.693 0 1
12.8104 0 1
12.9278 0 1
13.0452 0 1
13.1626 0 1
13.28 0 1
13.3974 0 1
13.5149 0 1
13.6323 0 1
13.7497 0 1
13.8671 0 1
13.9845 0 1
14.1019 0 1
14.2193 0 1
14.3367 0 1
14.4541 0 1
14.5714 0 1
14.6888 0 1
14.8062 0 1
14.9235 0 1
15.0408 9526 97.6012
15.1581 10077 100.384
15.2755 10011 100.055
15.3927 9927 99.6343
15.51 9816 99.0757
15.6273 9541 97.678
15.7445 9284 96.3535
15.8617 9498 97.4577
15.9789 9664 98.3056
16.0961 9919 99.5942
16.2132 10650 103.199
16.3304 10921 104.504
16.4475 10986 104.814
16.5646 11319 106.391
16.6816 11227 105.958
16.7986 11199 105.825
16.9156 11372 106.64
17.0326 11030 105.024
17.1496 11256 106.094
17.2665 11117 105.437
17.3833 10808 103.962
17.5002 11108 105.394
17.617 11110 105.404
17.7338 11504 107.257
17.8505 11361 106.588
17.9672 11846 108.839
18.0839 12124 110.109
18.2005 11894 109.06
18.3171 12559 112.067
18.4337 12559 112.067
18.5502 12925 113.688
18.6666 13055 114.258
18.7831 13016 114.088
18.8994 12725 112.805
19.0158 12357 111.162
19.1321 12239 110.63
19.2483 11765 108.467
19.3645 11725 108.282
19.4806 11794 108.6
19.5967 12157 110.259
19.7128 12565 112.094
19.8288 12733 112.841
19.9447 11733 108.319
20.0606 0 1
20.1764 0 1
20.2922 0 1
20.4079 0 1
20.5236 0 1
20.6392 0 1
20.7548 0 1
20.8702 0 1
23.3078 0 1
23.4233 0 1
23.539 0 1
23.6547 0 1
23.7704 0 1
23.8862 0 1
24.0021 0 1
24.118 0 1
24.234 0 1
24.35 0 1
24.4661 12070 109.864
24.5822 12179 110.359
24.6984 12222 110.553
24.8146 12706 112.721
24.9309 13106 114.481
25.0472 13759 117.299
25.1636 13645 116.812
25.28 14112 118.794
25.3965 14298 119.574
25.513 13623 116.718
25.6296 13865 117.75
25.7462 13543 116.374
25.8628 13369 115.624
25.9795 13546 116.387
26.0962 13307 115.356
26.213 13424 115.862
26.3298 14018 118.398
26.4466 14384 119.933
26.5635 14568 120.698
26.6804 14808 121.688
26.7973 15198 123.28
26.9143 15233 123.422
27.0313 15700 125.3
27.1483 15757 125.527
27.2653 15763 125.551
27.3824 15923 126.186
27.4996 15667 125.168
27.6167 15369 123.972
27.7339 14920 122.147
27.8511 14420 120.083
27.9683 14084 118.676
28.0855 13374 115.646
28.2028 13441 115.935
28.3201 13511 116.237
28.4374 13660 116.876
28.5547 14389 119.954
28.6721 14689 121.198
28.7894 15159 123.122
28.9068 14960 122.311
29.0242 14590 120.789
29.1416 14159 118.992
29.259 13891 117.86
29.3764 13384 115.689
29.4939 13477 116.09
29.6113 13418 115.836
29.7288 13571 116.495
29.8463 13732 117.184
29.9638 13944 118.085
30.0812 14437 120.154
30.1987 15095 122.862
30.3162 15096 122.866
30.4337 15418 124.169
30.5512 15904 126.111
30.6687 15858 125.929
30.7862 16561 128.69
30.9037 16239 127.432
31.0212 16211 127.322
31.1387 15803 125.71
31.2562 15474 124.395
31.3737 15225 123.39
31.4912 14785 121.594
31.6087 14220 119.248
31.7262 14088 118.693
31.8436 13848 117.678
31.9611 14184 119.097
32.0785 14976 122.376
32.1959 15152 123.093
32.3134 15470 124.378
32.4308 15657 125.128
32.5482 15640 125.06
32.6655 15153 123.098
32.7829 14578 120.739
32.9002 14154 118.971
33.0176 14038 118.482
33.1349 14043 118.503
33.2522 14131 118.874
33.3694 13913 117.953
33.4867 14305 119.604
33.6039 14832 121.787
33.7211 15274 123.588
33.8383 15832 125.825
33.9554 16147 127.071
34.0725 16242 127.444
34.1896 16366 127.93
34.3067 16608 128.872
34.4237 16730 129.345
34.5407 16656 129.058
34.6577 16811 129.657
34.7746 16804 129.63
34.8915 15994 126.467
35.0084 15573 124.792
35.1252 15425 124.197
35.242 15105 122.902
35.3587 14606 120.855
35.4755 14297 119.57
35.5921 14527 120.528
35.7088 14681 121.165
35.8254 15480 124.419
35.9419 15755 125.519
36.0584 16017 126.558
36.1749 16023 126.582
36.2913 15522 124.587
36.4077 15332 123.822
36.524 14541 120.586
36.6403 14282 119.507
36.7565 14219 119.243
36.8727 13767 117.333
36.9889 13939 118.064
37.1049 13889 117.852
37.221 0 1
37.3369 0 1
37.4529 0 1
37.5687 0 1
37.6845 0 1
37.8003 0 1
37.916 0 1
38.0316 0 1
38.1472 0 1
40.5851 0 1
40.7008 0 1
40.8164 0 1
40.9322 0 1
41.048 0 1
41.1639 0 1
41.2798 0 1
41.3958 0 1
41.5118 0 1
41.6279 0 1
41.744 11677 108.06
41.8602 12146 110.209
41.9765 11975 109.43
42.0928 12118 110.082
42.2091 12427 111.476
42.3255 12617 112.325
42.4419 13405 115.78
42.5584 13677 116.949
42.675 14391 119.962
42.7915 14598 120.822
42.9081 15076 122.784
43.0248 15206 123.313
43.1415 15384 124.032
43.2582 15346 123.879
43.375 15645 125.08
43.4918 15553 124.712
43.6087 15124 122.98
43.7256 14786 121.598
43.8425 14453 120.221
43.9595 13883 117.826
44.0765 13558 116.439
44.1935 13072 114.333
44.3106 12569 112.112
44.4277 12772 113.013
44.5448 12969 113.882
44.6619 13210 114.935
44.7791 13635 116.769
44.8963 13467 116.047
45.0136 13161 114.721
45.1308 12502 111.812
45.2481 11980 109.453
45.3654 11450 107.005
45.4827 10838 104.106
45.6001 10654 103.218
45.7174 10751 103.687
45.8348 10882 104.317
45.9522 11072 105.224
46.0697 11622 107.805
46.1871 12056 109.8
46.3046 12392 111.319
46.422 12905 113.6
46.5395 13178 114.795
46.657 13255 115.13
46.7745 13180 114.804
46.892 13262 115.161
47.0096 12984 113.947
47.1271 13102 114.464
47.2446 12738 112.863
47.3622 12356 111.158
47.4797 12090 109.955
47.5973 11792 108.591
47.7149 11352 106.546
47.8324 10739 103.629
47.95 10914 104.47
48.0675 10682 103.354
48.1851 11155 105.617
48.3027 11267 106.146
48.4202 11330 106.442
48.5378 11036 105.052
48.6554 10518 102.557
48.7729 10050 100.25
48.8904 9451 97.2163
49.008 9168 95.7497
49.1255 8942 94.5621
49.243 8790 93.755
49.3605 9077 95.2733
49.478 9516 97.55
49.5955 10114 100.568
49.713 10662 103.257
49.8304 11053 105.133
49.9479 11613 107.764
50.0653 11891 109.046
50.1827 12120 110.091
50.3001 12152 110.236
50.4175 12314 110.968
50.5348 12655 112.494
50.6521 12657 112.503
50.7694 12699 112.69
50.8867 12524 111.911
51.004 12479 111.709
51.1212 12439 111.53
51.2384 12287 110.847
51.3556 11879 108.991
51.4727 12166 110.3
51.5899 12783 113.062
51.707 13163 114.73
51.824 13597 116.606
51.9411 14019 118.402
52.0581 14043 118.503
52.175 14004 118.338
52.2919 13518 116.267
52.4088 12760 112.96
52.5257 12308 110.941
52.6425 12151 110.232
52.7593 12234 110.607
52.876 12437 111.521
52.9927 13071 114.328
53.1094 14085 118.68
53.226 15086 122.825
53.3426 15892 126.063
53.4591 16779 129.534
53.5756 17450 132.098
53.692 18072 134.432
53.8084 18319 135.348
53.9248 18352 135.47
54.0411 18873 137.379
54.1573 19147 138.373
54.2735 0 1
54.3896 0 1
54.5057 0 1
54.6217 0 1
54.7377 0 1
54.8537 0 1
54.9695 0 1
55.0853 0 1
55.2011 0 1
55.3168 0 1
55.4324 0 1
57.824 0 1
57.9396 0 1
58.0553 0 1
58.1711 0 1
58.2869 0 1
58.4028 0 1
58.5187 0 1
58.6347 0 1
58.7508 0 1
58.8669 0 1
58.983 21234 145.719
59.0992 22361 149.536
59.2155 22626 150.419
59.3318 22869 151.225
59.4482 22653 150.509
59.5646 22504 150.013
59.681 22258 149.191
59.7975 22005 148.341
59.9141 21506 146.649
60.0306 21145 145.413
60.1473 21085 145.207
60.2639 21154 145.444
60.3807 21016 144.969
60.4974 21169 145.496
60.6142 20744 144.028
60.731 20503 143.189
60.8479 19315 138.978
60.9648 18333 135.399
61.0818 17748 133.222
61.1987 16878 129.915
61.3158 16678 129.143
61.4328 16535 128.588
61.5499 17022 130.468
61.667 17906 133.813
61.7841 18830 137.222
61.9013 19628 140.1
62.0185 20011 141.46
62.1357 21117 145.317
62.253 21920 148.054
62.3702 21803 147.658
62.4875 22436 149.787
62.6049 22545 150.15
62.7222 22287 149.288
62.8396 22335 149.449
62.9569 22039 148.455
63.0743 21841 147.787
63.1918 21372 146.192
63.3092 20832 144.333
63.4267 20452 143.01
63.5441 20129 141.877
63.6616 20218 142.19
63.7791 20137 141.905
63.8966 20044 141.577
64.0142 20181 142.06
64.1317 20367 142.713
64.2492 19723 140.439
64.3668 19096 138.188
64.4843 18048 134.343
64.6019 16883 129.935
64.7195 16030 126.61
64.837 15587 124.848
64.9546 15563 124.752
65.0722 15732 125.427
65.1898 16667 129.101
65.3074 17854 133.619
65.4249 18484 135.956
65.5425 19777 140.631
65.6601 20342 142.625
65.7777 21203 145.612
65.8952 21790 147.614
66.0128 22160 148.862
66.1304 22296 149.318
66.2479 22367 149.556
66.3655 22149 148.825
66.483 22693 150.642
66.6005 22318 149.392
66.718 22021 148.395
66.8355 21770 147.547
66.953 21313 145.99
67.0705 20941 144.71
67.1879 21310 145.979
67.3054 20983 144.855
67.4228 21201 145.606
67.5402 21325 146.031
67.6576 21617 147.027
67.7749 21385 146.236
67.8923 21411 146.325
68.0096 20337 142.608
68.1269 19207 138.589
68.2442 18264 135.144
68.3614 17452 132.106
68.4787 16835 129.75
68.5958 16693 129.201
68.713 17350 131.719
68.8302 18146 134.707
68.9473 19513 139.689
69.0643 21136 145.382
69.1814 22145 148.812
69.2984 23501 153.3
69.4154 24812 157.518
69.5323 25044 158.253
69.6492 25830 160.717
69.7661 26507 162.81
69.8829 26729 163.49
69.9997 26991 164.289
70.1165 27181 164.867
70.2332 27184 164.876
70.3499 26880 163.951
70.4665 26351 162.33
70.5831 26300 162.173
70.6996 26025 161.323
70.8161 25699 160.309
70.9326 25433 159.477
71.049 25257 158.925
71.1653 25671 160.222
71.2817 25899 160.932
71.3979 25727 160.396
71.5141 24431 156.304
71.6303 22818 151.056
71.7464 19513 139.689
71.8624 0 1
71.9784 0 1
72.0944 0 1
72.2102 0 1
72.3261 0 1
72.4418 0 1
72.5575 0 1
72.6732 0 1
75.1054 0 1
75.2209 0 1
75.3365 0 1
75.4521 0 1
75.5678 0 1
75.6835 0 1
75.7993 0 1
75.9151 0 1
76.031 0 1
76.147 24953 157.965
76.263 26786 163.664
76.3791 27899 167.03
76.4952 28787 169.667
76.6113 29465 171.654
76.7276 29626 172.122
76.8438 29449 171.607
76.9601 27889 167
77.0765 25864 160.823
77.1929 23841 154.405
77.3093 21438 146.417
77.4258 20477 143.098
77.5423 19950 141.244
77.6589 20424 142.913
77.7755 21634 147.085
77.8921 23800 154.272
78.0088 25783 160.571
78.1256 28175 167.854
78.2423 30148 173.632
78.3591 31431 177.288
78.4759 32034 178.98
78.5928 32626 180.627
78.7097 32831 181.193
78.8266 31875 178.536
78.9436 34569 185.927
79.0606 32809 181.133
79.1776 32501 180.28
79.2946 32464 180.178
79.4117 31971 178.804
79.5288 31343 177.04
79.6459 31308 176.941
79.7631 30213 173.819
79.8802 29843 172.751
79.9974 29879 172.855
80.1147 30561 174.817
80.2319 31233 176.729
80.3491 31416 177.246
80.4664 31134 176.448
80.5837 30103 173.502
80.701 27417 165.581
80.8183 25140 158.556
80.9357 22853 151.172
81.053 21100 145.258
81.1704 20336 142.604
81.2877 20234 142.246
81.4051 21010 144.948
81.5225 22159 148.859
81.6399 25517 159.74
81.7573 27828 166.817
81.8747 29035 170.397
81.9922 30978 176.006
82.1096 32329 179.803
82.227 32540 180.388
82.3444 32690 180.804
82.4619 32589 180.524
82.5793 33329 182.562
82.6967 31855 178.48
82.8142 31913 178.642
82.9316 31642 177.882
83.049 30925 175.855
83.1664 30465 174.542
83.2838 29734 172.435
83.4012 29731 172.427
83.5186 28982 170.241
83.636 28868 169.906
83.7534 29283 171.123
83.8708 30098 173.488
83.9881 30435 174.456
84.1055 30232 173.874
84.2228 28921 170.062
84.3401 27002 164.323
84.4575 24513 156.566
84.5747 22453 149.843
84.692 20952 144.748
84.8093 19799 140.709
84.9265 20007 141.446
85.0437 21268 145.836
85.1609 23140 152.118
85.2781 25658 160.181
85.3952 28425 168.597
85.5123 30737 175.32
85.6294 32994 181.643
85.7465 34545 185.863
85.8636 35585 188.64
85.9806 36252 190.4
86.0976 36484 191.008
86.2145 36923 192.154
86.3315 38439 196.059
86.4484 36570 191.233
86.5652 37409 193.414
86.682 38129 195.266
86.7988 37515 193.688
86.9156 37371 193.316
87.0323 37240 192.977
87.149 37189 192.844
87.2657 36691 191.549
87.3823 38272 195.632
87.4988 38952 197.363
87.6154 39935 199.837
87.7318 38978 197.428
87.8483 37468 193.567
87.9647 34359 185.362
88.081 31950 178.746
88.1973 29124 170.658
88.3136 27154 164.785
88.4298 26634 163.199
88.546 27288 165.191
88.6621 29394 171.447
88.7781 32248 179.577
88.8942 0 1
89.0101 0 1
89.126 0 1
89.2419 0 1
89.3577 0 1
89.4734 0 1
89.5891 0 1
89.7047 0 1
89.8203 0 1
89.9358 0 1
92.3269 0 1
92.4424 0 1
92.558 0 1
92.6736 0 1
92.7893 0 1
92.905 0 1
93.0208 0 1
93.1366 0 1
93.2525 0 1
93.3685 0 1
93.4845 0 1
93.6005 30085 173.45
93.7167 29588 172.012
93.8328 29621 172.108
93.949 30912 175.818
94.0653 32241 179.558
94.1816 35369 188.066
94.2979 39076 197.677
94.4143 42292 205.65
94.5307 45044 212.236
94.6472 46930 216.633
94.7637 48209 219.565
94.8803 48992 221.341
94.9969 49405 222.272
95.1135 49499 222.484
95.2302 49535 222.565
95.3469 49895 223.372
95.4637 49749 223.045
95.5805 49743 223.031
95.6973 49762 223.074
95.8142 49509 222.506
95.9311 48538 220.313
96.048 48048 219.199
96.1649 47294 217.472
96.2819 47195 217.244
96.3989 47447 217.823
96.516 48638 220.54
96.633 48858 221.038
96.7501 49028 221.423
96.8673 47467 217.869
96.9844 44160 210.143
97.1016 41067 202.65
97.2188 37806 194.438
97.336 34796 186.537
97.4532 32195 179.43
97.5704 31127 176.428
97.6877 31171 176.553
97.805 33152 182.077
97.9223 36642 191.421
98.0396 39853 199.632
98.1569 42916 207.162
98.2743 46265 215.093
98.3916 48419 220.043
98.509 50046 223.71
98.6264 51366 226.641
98.7438 51340 226.583
98.8612 51671 227.313
98.9786 51954 227.934
99.096 51389 226.691
99.2134 50616 224.98
99.3308 51250 226.385
99.4482 51945 227.914
99.5656 50904 225.619
99.6831 50589 224.92
99.8005 49479 222.439
99.9179 48954 221.256
100.035 48919 221.176
100.153 50909 225.63
100.27 50776 225.335
100.388 50751 225.28
100.505 48763 220.823
100.622 45357 212.972
100.74 42705 206.652
100.857 38623 196.527
100.975 35188 187.585
101.092 32995 181.645
101.209 32466 180.183
101.327 33221 182.266
101.444 36088 189.968
101.561 39929 199.822
101.679 43944 209.628
101.796 46939 216.654
101.913 50792 225.371
102.03 52158 228.381
102.148 53153 230.549
102.265 51942 227.908
102.382 54937 234.386
102.499 53796 231.94
102.616 53891 232.144
102.733 52598 229.343
102.851 52948 230.104
102.968 54034 232.452
103.085 53663 231.653
103.202 52992 230.2
103.319 52057 228.16
103.436 51377 226.665
103.552 51371 226.652
103.669 51796 227.587
103.786 53765 231.873
103.903 53784 231.914
104.02 52061 228.169
104.137 49269 221.966
104.253 46061 214.618
104.37 42698 206.635
104.487 38224 195.51
104.603 36132 190.084
104.72 35108 187.371
104.836 35752 189.082
104.953 38492 196.194
105.069 42088 205.154
105.186 46889 216.539
105.302 50368 224.428
105.418 53599 231.515
105.535 55948 236.533
105.651 57118 238.994
105.767 57197 239.159
105.883 58306 241.466
105.999 57746 240.304
106.115 0 1
106.231 0 1
106.347 0 1
106.463 0 1
106.579 0 1
106.694 0 1
106.81 0 1
106.926 0 1
107.041 0 1
107.157 0 1
109.576 0 1
109.692 0 1
109.807 0 1
109.923 0 1
110.039 0 1
110.155 0 1
110.27 0 1
110.386 0 1
110.502 0 1
110.618 50315 224.31
110.735 51535 227.013
110.851 52703 229.571
110.967 52930 230.065
111.083 53563 231.437
111.199 52581 229.305
111.316 53184 230.617
111.432 53112 230.46
111.549 52875 229.946
111.665 52729 229.628
111.782 50652 225.06
111.898 49997 223.6
112.015 49990 223.584
112.132 50564 224.864
112.248 51508 226.954
112.365 51419 226.758
112.482 48482 220.186
112.599 47953 218.982
112.716 43584 208.768
112.832 40465 201.159
112.949 37243 192.984
113.066 34836 186.644
113.183 33148 182.066
113.3 33337 182.584
113.417 34603 186.019
113.534 37433 193.476
113.652 40183 200.457
113.769 43049 207.483
113.886 46363 215.321
114.003 47851 218.749
114.12 48747 220.787
114.238 49484 222.45
114.355 49822 223.208
114.472 49208 221.829
114.589 50095 223.819
114.707 48819 220.95
114.824 48241 219.638
114.942 49150 221.698
115.059 50037 223.69
115.176 49450 222.374
115.294 48716 220.717
115.411 47526 218.005
115.529 47124 217.081
115.646 47647 218.282
115.764 48399 219.998
115.881 48800 220.907
115.999 48775 220.851
116.116 47092 217.007
116.234 44615 211.223
116.351 41546 203.828
116.469 39297 198.235
116.586 35917 189.518
116.704 33712 183.608
116.821 33048 181.791
116.939 33063 181.832
117.056 34504 185.753
117.174 36857 191.982
117.291 39796 199.489
117.409 42540 206.252
117.526 45192 212.584
117.644 46740 216.194
117.761 47384 217.679
117.879 48538 220.313
117.996 48231 219.616
118.114 48183 219.506
118.231 48365 219.92
118.349 47155 217.152
118.466 46890 216.541
118.584 47810 218.655
118.701 48028 219.153
118.819 47974 219.03
118.936 46835 216.414
119.053 45923 214.297
119.171 45509 213.328
119.288 45401 213.075
119.405 46109 214.73
119.523 47064 216.942
119.64 46470 215.569
119.757 45711 213.801
119.875 43322 208.139
119.992 40736 201.832
120.109 38726 196.789
120.226 36322 190.583
120.343 34035 184.486
120.46 32498 180.272
120.578 32420 180.056
120.695 32677 180.768
120.812 34485 185.701
120.929 36731 191.653
121.046 38880 197.18
121.163 41555 203.85
121.279 43230 207.918
121.396 44410 210.737
121.513 45432 213.148
121.63 46138 214.798
121.747 45798 214.005
121.863 46001 214.478
121.98 45770 213.939
122.097 45034 212.212
122.213 44677 211.369
122.33 45010 212.156
122.446 45612 213.57
122.563 44689 211.398
122.679 44252 210.362
122.795 43142 207.707
122.912 42873 207.058
123.028 42565 206.313
123.144 43138 207.697
123.26 43662 208.955
123.377 0 1
123.493 0 1
123.609 0 1
123.725 0 1
123.84 0 1
123.956 0 1
124.072 0 1
124.188 0 1
124.303 0 1
124.419 0 1
126.852 0 1
126.968 0 1
127.083 0 1
127.199 0 1
127.315 0 1
127.431 0 1
127.547 0 1
127.663 0 1
127.779 0 1
127.895 0 1
128.011 0 1
128.127 0 1
128.243 0 1
128.359 46036 214.56
128.476 46369 215.335
128.592 46394 215.393
128.708 44902 211.901
128.825 43334 208.168
128.941 41779 204.399
129.058 38954 197.368
129.174 36595 191.298
129.291 35652 188.817
129.408 35213 187.651
129.524 35106 187.366
129.641 36420 190.84
129.758 38208 195.469
129.875 40706 201.757
129.992 42531 206.23
130.108 43917 209.564
130.225 44853 211.785
130.342 45858 214.145
130.459 45174 212.542
130.576 47635 218.254
130.693 45575 213.483
130.81 45094 212.353
130.928 44050 209.881
131.045 45138 212.457
131.162 45535 213.389
131.279 45615 213.577
131.396 45520 213.354
131.513 45200 212.603
131.631 44902 211.901
131.748 45260 212.744
131.865 45736 213.86
131.983 45941 214.339
132.1 45238 212.692
132.217 44269 210.402
132.335 43045 207.473
132.452 41303 203.231
132.57 39419 198.542
132.687 36541 191.157
132.804 36136 190.095
132.922 34700 186.279
133.039 34504 185.753
133.157 35203 187.625
133.274 36578 191.254
133.392 38441 196.064
133.509 40045 200.112
133.627 41256 203.116
133.744 43191 207.824
133.862 43494 208.552
133.979 43557 208.703
134.097 43537 208.655
134.214 43238 207.937
134.332 43391 208.305
134.449 42226 205.49
134.567 42544 206.262
134.684 42908 207.142
134.802 44211 210.264
134.919 44025 209.821
135.037 43425 208.387
135.154 42805 206.894
135.272 43032 207.442
135.389 43299 208.084
135.507 43954 209.652
135.624 43659 208.947
135.742 43443 208.43
135.859 42166 205.344
135.977 40962 202.391
136.094 39420 198.545
136.211 37690 194.139
136.329 36009 189.76
136.446 34478 185.683
136.564 34108 184.684
136.681 33734 183.668
136.798 34564 185.914
136.915 35514 188.452
137.033 36906 192.109
137.15 38313 195.737
137.267 39972 199.93
137.384 40756 201.881
137.502 40712 201.772
137.619 41138 202.825
137.736 41926 204.758
137.853 40196 200.489
137.97 40822 202.045
138.087 39061 197.639
138.204 39838 199.595
138.321 40949 202.359
138.438 41449 203.59
138.555 42144 205.29
138.672 41966 204.856
138.788 41472 203.647
138.905 41587 203.929
139.022 41995 204.927
139.139 42714 206.674
139.255 42104 205.193
139.372 42635 206.482
139.488 41377 203.413
139.605 40329 200.821
139.721 38655 196.609
139.838 37640 194.01
139.954 36009 189.76
140.071 34381 185.421
140.187 33936 184.217
140.303 33424 182.822
140.419 33231 182.294
140.535 33742 183.69
140.652 33980 184.337
140.768 0 1
140.884 0 1
141 0 1
141.115 0 1
141.231 0 1
141.347 0 1
141.463 0 1
141.578 0 1
141.694 0 1
144.104 0 1
144.219 0 1
144.335 0 1
144.45 0 1
144.566 0 1
144.682 0 1
144.798 0 1
144.914 0 1
145.03 0 1
145.146 23932 154.7
145.262 25589 159.966
145.378 26312 162.21
145.494 26928 164.098
145.61 27086 164.578
145.726 27754 166.595
145.842 28785 169.661
145.959 29365 171.362
146.075 30188 173.747
146.192 30635 175.029
146.308 30728 175.294
146.425 30782 175.448
146.541 30814 175.539
146.658 30463 174.537
146.774 29751 172.485
146.891 29619 172.102
147.008 30172 173.701
147.125 30498 174.637
147.241 31439 177.31
147.358 31689 178.014
147.475 31750 178.185
147.592 31585 177.722
147.709 31810 178.354
147.826 32025 178.955
147.943 31867 178.513
148.06 31844 178.449
148.177 31838 178.432
148.294 31345 177.045
148.411 30979 176.009
148.528 30470 174.557
148.645 29261 171.058
148.762 28577 169.047
148.88 28043 167.46
148.997 27459 165.708
149.114 28327 168.306
149.231 27366 165.427
149.349 27593 166.111
149.466 28756 169.576
149.583 28952 170.153
149.701 29816 172.673
149.818 30251 173.928
149.935 30563 174.823
150.053 31248 176.771
150.17 31480 177.426
150.287 31064 176.25
150.405 31008 176.091
150.522 30484 174.597
150.64 30383 174.307
150.757 30218 173.833
150.875 31207 176.655
150.992 31567 177.671
151.11 32336 179.822
151.227 32202 179.449
151.344 31671 177.963
151.462 31782 178.275
151.579 32634 180.649
151.697 32179 179.385
151.814 32082 179.114
151.932 31836 178.426
152.049 31307 176.938
152.167 30677 175.149
152.284 30080 173.436
152.402 29438 171.575
152.519 29194 170.863
152.636 28480 168.76
152.754 28351 168.378
152.871 28554 168.979
152.989 28770 169.617
153.106 28839 169.82
153.223 29794 172.609
153.341 30221 173.842
153.458 30880 175.727
153.575 31290 176.89
153.693 31200 176.635
153.81 31648 177.899
153.927 31384 177.155
154.044 30875 175.713
154.162 30108 173.517
154.279 30202 173.787
154.396 30715 175.257
154.513 31742 178.163
154.63 32692 180.809
154.747 33386 182.718
154.864 33738 183.679
154.981 33403 182.765
155.098 33537 183.131
155.215 33784 183.804
155.332 33603 183.311
155.449 33338 182.587
155.566 32888 181.35
155.683 32271 179.641
155.8 31684 178
155.917 31502 177.488
156.033 30536 174.746
156.15 0 1
156.267 0 1
156.383 0 1
156.5 0 1
156.617 0 1
156.733 0 1
156.85 0 1
156.966 0 1
157.082 0 1
157.199 0 1
157.315 0 1
157.431 0 1
157.547 0 1
157.664 0 1
157.78 0 1
157.896 0 1
158.012 0 1
158.128 0 1
158.244 0 1
158.359 0 1
158.475 0 1
158.591 0 1
158.706 0 1
