
6.15755 0 1
6.2731 0 1
6.3887 0 1
6.50437 0 1
6.62009 0 1
6.73587 0 1
6.8517 0 1
6.96759 0 1
7.08353 0 1
7.19952 0 1
7.31557 0 1
7.43166 0 1
7.54781 0 1
7.664 0 1
7.78024 0 1
7.89653 0 1
8.01286 0 1
8.12924 0 1
8.24567 0 1
8.36213 0 1
8.47864 0 1
8.59519 0 1
8.71178 0 1
8.82841 0 1
8.94508 0 1
9.06179 0 1
9.17853 0 1
9.29531 0 1
9.41212 0 1
9.52897 0 1
9.64584 0 1
9.76276 0 1
9.8797 0 1
9.99667 0 1
10.1137 0 1
10.2307 0 1
10.3478 0 1
10.4648 0 1
10.5819 0 1
10.6991 0 1
10.8162 0 1
10.9334 0 1
11.0506 0 1
11.1678 0 1
11.285 0 1
11.4023 0 1
11.5196 0 1
11.6369 0 1
11.7542 0 1
11.8715 0 1
11.9888 0 1
12.1062 0 1
12.2235 0 1
12.3409 0 1
12.4582 0 1
12.5756 0 1
12.693 0 1
12.8104 0 1
12.9278 0 1
13.0452 0 1
13.1626 0 1
13.28 0 1
13.3974 0 1
13.5149 0 1
13.6323 0 1
13.7497 0 1
13.8671 0 1
13.9845 0 1
14.1019 0 1
14.2193 0 1
14.3367 0 1
14.4541 0 1
14.5714 0 1
14.6888 0 1
14.8062 0 1
14.9235 0 1
15.0408 0 0
15.1581 0 0
15.2755 0 0
15.3927 0 0
15.51 0 0
15.6273 0 0
15.7445 0 0
15.8617 0 0
15.9789 0 0
16.0961 0 0
16.2132 0 0
16.3304 0 0
16.4475 0 0
16.5646 0 0
16.6816 0 0
16.7986 0 0
16.9156 0 0
17.0326 0 0
17.1496 0 0
17.2665 0 0
17.3833 0 0
17.5002 0 0
17.617 0 0
17.7338 0 0
17.8505 0 0
17.9672 0 0
18.0839 0 0
18.2005 0 0
18.3171 0 0
18.4337 0 0
18.5502 0 0
18.6666 0 0
18.7831 0 0
18.8994 0 0
19.0158 0 0
19.1321 0 0
19.2483 0 0
19.3645 0 0
19.4806 0 0
19.5967 0 0
19.7128 0 0
19.8288 0 0
19.9447 0 0
20.0606 0 1
20.1764 0 1
20.2922 0 1
20.4079 0 1
20.5236 0 1
20.6392 0 1
20.7548 0 1
20.8702 0 1
23.3078 0 1
23.4233 0 1
23.539 0 1
23.6547 0 1
23.7704 0 1
23.8862 0 1
24.0021 0 1
24.118 0 1
24.234 0 1
24.35 0 1
24.4661 205 14.3178
24.5822 243 15.5885
24.6984 240 15.4919
24.8146 286 16.9115
24.9309 274 16.5529
25.0472 354 18.8149
25.1636 382 19.5448
25.28 421 20.5183
25.3965 490 22.1359
25.513 486 22.0454
25.6296 467 21.6102
25.7462 462 21.4942
25.8628 459 21.4243
25.9795 484 22
26.0962 482 21.9545
26.213 445 21.095
26.3298 449 21.1896
26.4466 462 21.4942
26.5635 442 21.0238
26.6804 461 21.4709
26.7973 410 20.2485
26.9143 441 21
27.0313 428 20.6882
27.1483 420 20.4939
27.2653 388 19.6977
27.3824 407 20.1742
27.4996 365 19.105
27.6167 339 18.412
27.7339 352 18.7617
27.8511 370 19.2354
27.9683 399 19.975
28.0855 358 18.9209
28.2028 414 20.347
28.3201 378 19.4422
28.4374 385 19.6214
28.5547 424 20.5913
28.6721 389 19.7231
28.7894 425 20.6155
28.9068 429 20.7123
29.0242 426 20.6398
29.1416 395 19.8746
29.259 430 20.7364
29.3764 447 21.1424
29.4939 422 20.5426
29.6113 390 19.7484
29.7288 398 19.9499
29.8463 380 19.4936
29.9638 390 19.7484
30.0812 384 19.5959
30.1987 371 19.2614
30.3162 389 19.7231
30.4337 396 19.8997
30.5512 397 19.9249
30.6687 389 19.7231
30.7862 394 19.8494
30.9037 421 20.5183
31.0212 379 19.4679
31.1387 374 19.3391
31.2562 365 19.105
31.3737 370 19.2354
31.4912 422 20.5426
31.6087 397 19.9249
31.7262 432 20.7846
31.8436 401 20.025
31.9611 420 20.4939
32.0785 387 19.6723
32.1959 382 19.5448
32.3134 365 19.105
32.4308 386 19.6469
32.5482 396 19.8997
32.6655 411 20.2731
32.7829 368 19.1833
32.9002 371 19.2614
33.0176 337 18.3576
33.1349 389 19.7231
33.2522 330 18.1659
33.3694 362 19.0263
33.4867 352 18.7617
33.6039 354 18.8149
33.7211 379 19.4679
33.8383 362 19.0263
33.9554 371 19.2614
34.0725 402 20.0499
34.1896 385 19.6214
34.3067 360 18.9737
34.4237 390 19.7484
34.5407 374 19.3391
34.6577 387 19.6723
34.7746 376 19.3907
34.8915 338 18.3848
35.0084 391 19.7737
35.1252 406 20.1494
35.242 369 19.2094
35.3587 436 20.8806
35.4755 364 19.0788
35.5921 403 20.0749
35.7088 343 18.5203
35.8254 368 19.1833
35.9419 369 19.2094
36.0584 365 19.105
36.1749 313 17.6918
36.2913 327 18.0831
36.4077 338 18.3848
36.524 278 16.6733
36.6403 235 15.3297
36.7565 250 15.8114
36.8727 226 15.0333
36.9889 220 14.8324
37.1049 167 12.9228
37.221 0 1
37.3369 0 1
37.4529 0 1
37.5687 0 1
37.6845 0 1
37.8003 0 1
37.916 0 1
38.0316 0 1
38.1472 0 1
40.5851 0 1
40.7008 0 1
40.8164 0 1
40.9322 0 1
41.048 0 1
41.1639 0 1
41.2798 0 1
41.3958 0 1
41.5118 0 1
41.6279 0 1
41.744 193 13.8924
41.8602 204 14.2829
41.9765 247 15.7162
42.0928 253 15.906
42.2091 248 15.748
42.3255 305 17.4642
42.4419 311 17.6352
42.5584 344 18.5472
42.675 380 19.4936
42.7915 392 19.799
42.9081 435 20.8567
43.0248 501 22.383
43.1415 541 23.2594
43.2582 556 23.5797
43.375 607 24.6374
43.4918 575 23.9792
43.6087 643 25.3574
43.7256 699 26.4386
43.8425 747 27.3313
43.9595 758 27.5318
44.0765 838 28.9482
44.1935 782 27.9643
44.3106 822 28.6705
44.4277 876 29.5973
44.5448 887 29.7825
44.6619 889 29.8161
44.7791 866 29.4279
44.8963 818 28.6007
45.0136 829 28.7924
45.1308 828 28.775
45.2481 726 26.9444
45.3654 740 27.2029
45.4827 712 26.6833
45.6001 723 26.8887
45.7174 692 26.3059
45.8348 655 25.593
45.9522 594 24.3721
46.0697 581 24.1039
46.1871 528 22.9783
46.3046 596 24.4131
46.422 550 23.4521
46.5395 455 21.3307
46.657 484 22
46.7745 395 19.8746
46.892 345 18.5742
47.0096 304 17.4356
47.1271 329 18.1384
47.2446 339 18.412
47.3622 334 18.2757
47.4797 340 18.4391
47.5973 298 17.2627
47.7149 335 18.303
47.8324 320 17.8885
47.95 295 17.1756
48.0675 319 17.8606
48.1851 324 18
48.3027 306 17.4929
48.4202 307 17.5214
48.5378 285 16.8819
48.6554 311 17.6352
48.7729 319 17.8606
48.8904 275 16.5831
49.008 269 16.4012
49.1255 296 17.2047
49.243 281 16.7631
49.3605 296 17.2047
49.478 300 17.3205
49.5955 341 18.4662
49.713 318 17.8326
49.8304 296 17.2047
49.9479 309 17.5784
50.0653 309 17.5784
50.1827 325 18.0278
50.3001 309 17.5784
50.4175 240 15.4919
50.5348 303 17.4069
50.6521 290 17.0294
50.7694 301 17.3494
50.8867 312 17.6635
51.004 295 17.1756
51.1212 320 17.8885
51.2384 322 17.9444
51.3556 293 17.1172
51.4727 322 17.9444
51.5899 340 18.4391
51.707 354 18.8149
51.824 298 17.2627
51.9411 325 18.0278
52.0581 328 18.1108
52.175 294 17.1464
52.2919 269 16.4012
52.4088 311 17.6352
52.5257 312 17.6635
52.6425 294 17.1464
52.7593 295 17.1756
52.876 319 17.8606
52.9927 275 16.5831
53.1094 304 17.4356
53.226 283 16.8226
53.3426 280 16.7332
53.4591 263 16.2173
53.5756 261 16.1555
53.692 225 15
53.8084 199 14.1067
53.9248 165 12.8452
54.0411 168 12.9615
54.1573 167 12.9228
54.2735 0 1
54.3896 0 1
54.5057 0 1
54.6217 0 1
54.7377 0 1
54.8537 0 1
54.9695 0 1
55.0853 0 1
55.2011 0 1
55.3168 0 1
55.4324 0 1
57.824 0 1
57.9396 0 1
58.0553 0 1
58.1711 0 1
58.2869 0 1
58.4028 0 1
58.5187 0 1
58.6347 0 1
58.7508 0 1
58.8669 0 1
58.983 223 14.9332
59.0992 258 16.0624
59.2155 275 16.5831
59.3318 285 16.8819
59.4482 353 18.7883
59.5646 336 18.3303
59.681 394 19.8494
59.7975 402 20.0499
59.9141 371 19.2614
60.0306 369 19.2094
60.1473 385 19.6214
60.2639 377 19.4165
60.3807 357 18.8944
60.4974 380 19.4936
60.6142 371 19.2614
60.731 395 19.8746
60.8479 380 19.4936
60.9648 358 18.9209
61.0818 391 19.7737
61.1987 379 19.4679
61.3158 403 20.0749
61.4328 395 19.8746
61.5499 381 19.5192
61.667 396 19.8997
61.7841 356 18.868
61.9013 363 19.0526
62.0185 370 19.2354
62.1357 393 19.8242
62.253 417 20.4206
62.3702 417 20.4206
62.4875 346 18.6011
62.6049 350 18.7083
62.7222 369 19.2094
62.8396 364 19.0788
62.9569 385 19.6214
63.0743 415 20.3715
63.1918 414 20.347
63.3092 400 20
63.4267 407 20.1742
63.5441 411 20.2731
63.6616 385 19.6214
63.7791 411 20.2731
63.8966 407 20.1742
64.0142 420 20.4939
64.1317 390 19.7484
64.2492 410 20.2485
64.3668 375 19.3649
64.4843 410 20.2485
64.6019 380 19.4936
64.7195 377 19.4165
64.837 380 19.4936
64.9546 351 18.735
65.0722 344 18.5472
65.1898 362 19.0263
65.3074 381 19.5192
65.4249 381 19.5192
65.5425 396 19.8997
65.6601 338 18.3848
65.7777 362 19.0263
65.8952 346 18.6011
66.0128 349 18.6815
66.1304 309 17.5784
66.2479 309 17.5784
66.3655 291 17.0587
66.483 333 18.2483
66.6005 366 19.1311
66.718 398 19.9499
66.8355 370 19.2354
66.953 412 20.2978
67.0705 398 19.9499
67.1879 374 19.3391
67.3054 428 20.6882
67.4228 382 19.5448
67.5402 398 19.9499
67.6576 357 18.8944
67.7749 336 18.3303
67.8923 361 19
68.0096 359 18.9473
68.1269 369 19.2094
68.2442 397 19.9249
68.3614 396 19.8997
68.4787 364 19.0788
68.5958 381 19.5192
68.713 358 18.9209
68.8302 336 18.3303
68.9473 324 18
69.0643 359 18.9473
69.1814 343 18.5203
69.2984 337 18.3576
69.4154 304 17.4356
69.5323 341 18.4662
69.6492 350 18.7083
69.7661 303 17.4069
69.8829 271 16.4621
69.9997 279 16.7033
70.1165 363 19.0526
70.2332 319 17.8606
70.3499 300 17.3205
70.4665 318 17.8326
70.5831 280 16.7332
70.6996 257 16.0312
70.8161 205 14.3178
70.9326 214 14.6287
71.049 209 14.4568
71.1653 209 14.4568
71.2817 208 14.4222
71.3979 177 13.3041
71.5141 196 14
71.6303 185 13.6015
71.7464 164 12.8062
71.8624 0 1
71.9784 0 1
72.0944 0 1
72.2102 0 1
72.3261 0 1
72.4418 0 1
72.5575 0 1
72.6732 0 1
75.1054 0 1
75.2209 0 1
75.3365 0 1
75.4521 0 1
75.5678 0 1
75.6835 0 1
75.7993 0 1
75.9151 0 1
76.031 0 1
76.147 286 16.9115
76.263 309 17.5784
76.3791 313 17.6918
76.4952 346 18.6011
76.6113 346 18.6011
76.7276 321 17.9165
76.8438 383 19.5704
76.9601 393 19.8242
77.0765 395 19.8746
77.1929 348 18.6548
77.3093 370 19.2354
77.4258 354 18.8149
77.5423 339 18.412
77.6589 332 18.2209
77.7755 333 18.2483
77.8921 325 18.0278
78.0088 378 19.4422
78.1256 331 18.1934
78.2423 383 19.5704
78.3591 350 18.7083
78.4759 357 18.8944
78.5928 361 19
78.7097 309 17.5784
78.8266 253 15.906
78.9436 236 15.3623
79.0606 278 16.6733
79.1776 295 17.1756
79.2946 346 18.6011
79.4117 372 19.2873
79.5288 365 19.105
79.6459 396 19.8997
79.7631 361 19
79.8802 375 19.3649
79.9974 367 19.1572
80.1147 358 18.9209
80.2319 371 19.2614
80.3491 366 19.1311
80.4664 403 20.0749
80.5837 397 19.9249
80.701 406 20.1494
80.8183 400 20
80.9357 377 19.4165
81.053 344 18.5472
81.1704 401 20.025
81.2877 394 19.8494
81.4051 334 18.2757
81.5225 339 18.412
81.6399 372 19.2873
81.7573 358 18.9209
81.8747 353 18.7883
81.9922 352 18.7617
82.1096 362 19.0263
82.227 384 19.5959
82.3444 351 18.735
82.4619 280 16.7332
82.5793 285 16.8819
82.6967 299 17.2916
82.8142 328 18.1108
82.9316 340 18.4391
83.049 398 19.9499
83.1664 397 19.9249
83.2838 427 20.664
83.4012 384 19.5959
83.5186 402 20.0499
83.636 408 20.199
83.7534 383 19.5704
83.8708 362 19.0263
83.9881 378 19.4422
84.1055 379 19.4679
84.2228 398 19.9499
84.3401 407 20.1742
84.4575 405 20.1246
84.5747 392 19.799
84.692 435 20.8567
84.8093 403 20.0749
84.9265 366 19.1311
85.0437 405 20.1246
85.1609 362 19.0263
85.2781 346 18.6011
85.3952 360 18.9737
85.5123 385 19.6214
85.6294 360 18.9737
85.7465 406 20.1494
85.8636 351 18.735
85.9806 309 17.5784
86.0976 252 15.8745
86.2145 276 16.6132
86.3315 313 17.6918
86.4484 354 18.8149
86.5652 375 19.3649
86.682 402 20.0499
86.7988 380 19.4936
86.9156 423 20.567
87.0323 377 19.4165
87.149 392 19.799
87.2657 381 19.5192
87.3823 405 20.1246
87.4988 343 18.5203
87.6154 338 18.3848
87.7318 314 17.72
87.8483 291 17.0587
87.9647 281 16.7631
88.081 294 17.1464
88.1973 273 16.5227
88.3136 268 16.3707
88.4298 256 16
88.546 227 15.0665
88.6621 241 15.5242
88.7781 207 14.3875
88.8942 0 1
89.0101 0 1
89.126 0 1
89.2419 0 1
89.3577 0 1
89.4734 0 1
89.5891 0 1
89.7047 0 1
89.8203 0 1
89.9358 0 1
92.3269 0 1
92.4424 0 1
92.558 0 1
92.6736 0 1
92.7893 0 1
92.905 0 1
93.0208 0 1
93.1366 0 1
93.2525 0 1
93.3685 0 1
93.4845 0 1
93.6005 435 20.8567
93.7167 413 20.3224
93.8328 416 20.3961
93.949 430 20.7364
94.0653 435 20.8567
94.1816 475 21.7945
94.2979 477 21.8403
94.4143 502 22.4054
94.5307 511 22.6053
94.6472 540 23.2379
94.7637 531 23.0434
94.8803 540 23.2379
94.9969 514 22.6716
95.1135 494 22.2261
95.2302 539 23.2164
95.3469 697 26.4008
95.4637 767 27.6948
95.5805 873 29.5466
95.6973 912 30.1993
95.8142 1004 31.686
95.9311 1070 32.7109
96.048 1064 32.619
96.1649 1074 32.7719
96.2819 1138 33.7343
96.3989 1134 33.6749
96.516 1124 33.5261
96.633 1178 34.322
96.7501 1190 34.4964
96.8673 1160 34.0588
96.9844 1152 33.9411
97.1016 1175 34.2783
97.2188 1183 34.3948
97.336 1159 34.0441
97.4532 1154 33.9706
97.5704 1087 32.9697
97.6877 1193 34.5398
97.805 1140 33.7639
97.9223 1167 34.1614
98.0396 1120 33.4664
98.1569 1133 33.6601
98.2743 1055 32.4808
98.3916 958 30.9516
98.509 852 29.189
98.6264 759 27.55
98.7438 699 26.4386
98.8612 907 30.1164
98.9786 1010 31.7805
99.096 1091 33.0303
99.2134 1088 32.9848
99.3308 1084 32.9242
99.4482 1078 32.8329
99.5656 1095 33.0908
99.6831 1085 32.9393
99.8005 1109 33.3017
99.9179 1087 32.9697
100.035 1112 33.3467
100.153 1138 33.7343
100.27 1109 33.3017
100.388 1153 33.9559
100.505 1166 34.1467
100.622 1104 33.2265
100.74 1122 33.4963
100.857 1106 33.2566
100.975 1109 33.3017
101.092 1096 33.1059
101.209 1148 33.8821
101.327 1135 33.6898
101.444 1060 32.5576
101.561 1081 32.8786
101.679 1035 32.1714
101.796 995 31.5436
101.913 927 30.4467
102.03 795 28.1957
102.148 668 25.8457
102.265 554 23.5372
102.382 677 26.0192
102.499 695 26.3629
102.616 747 27.3313
102.733 751 27.4044
102.851 718 26.7955
102.968 666 25.807
103.085 635 25.1992
103.202 608 24.6577
103.319 560 23.6643
103.436 547 23.388
103.552 518 22.7596
103.669 457 21.3776
103.786 442 21.0238
103.903 468 21.6333
104.02 438 20.9284
104.137 420 20.4939
104.253 441 21
104.37 437 20.9045
104.487 451 21.2368
104.603 446 21.1187
104.72 415 20.3715
104.836 386 19.6469
104.953 364 19.0788
105.069 312 17.6635
105.186 255 15.9687
105.302 276 16.6132
105.418 235 15.3297
105.535 225 15
105.651 182 13.4907
105.767 155 12.4499
105.883 139 11.7898
105.999 143 11.9583
106.115 0 1
106.231 0 1
106.347 0 1
106.463 0 1
106.579 0 1
106.694 0 1
106.81 0 1
106.926 0 1
107.041 0 1
107.157 0 1
109.576 0 1
109.692 0 1
109.807 0 1
109.923 0 1
110.039 0 1
110.155 0 1
110.27 0 1
110.386 0 1
110.502 0 1
110.618 417 20.4206
110.735 468 21.6333
110.851 429 20.7123
110.967 412 20.2978
111.083 387 19.6723
111.199 393 19.8242
111.316 429 20.7123
111.432 500 22.3607
111.549 526 22.9347
111.665 454 21.3073
111.782 492 22.1811
111.898 476 21.8174
112.015 437 20.9045
112.132 460 21.4476
112.248 451 21.2368
112.365 475 21.7945
112.482 503 22.4277
112.599 512 22.6274
112.716 504 22.4499
112.832 514 22.6716
112.949 510 22.5832
113.066 564 23.7487
113.183 521 22.8254
113.3 532 23.0651
113.417 550 23.4521
113.534 522 22.8473
113.652 500 22.3607
113.769 538 23.1948
113.886 515 22.6936
114.003 552 23.4947
114.12 538 23.1948
114.238 491 22.1585
114.355 503 22.4277
114.472 445 21.095
114.589 408 20.199
114.707 407 20.1742
114.824 495 22.2486
114.942 514 22.6716
115.059 570 23.8747
115.176 463 21.5174
115.294 505 22.4722
115.411 502 22.4054
115.529 523 22.8692
115.646 472 21.7256
115.764 494 22.2261
115.881 511 22.6053
115.999 486 22.0454
116.116 531 23.0434
116.234 548 23.4094
116.351 555 23.5584
116.469 582 24.1247
116.586 532 23.0651
116.704 572 23.9165
116.821 581 24.1039
116.939 537 23.1733
117.056 517 22.7376
117.174 506 22.4944
117.291 541 23.2594
117.409 557 23.6008
117.526 552 23.4947
117.644 545 23.3452
117.761 495 22.2486
117.879 510 22.5832
117.996 434 20.8327
118.114 447 21.1424
118.231 431 20.7605
118.349 464 21.5407
118.466 474 21.7715
118.584 507 22.5167
118.701 508 22.5389
118.819 444 21.0713
118.936 532 23.0651
119.053 518 22.7596
119.171 531 23.0434
119.288 475 21.7945
119.405 537 23.1733
119.523 468 21.6333
119.64 479 21.8861
119.757 481 21.9317
119.875 513 22.6495
119.992 528 22.9783
120.109 471 21.7025
120.226 522 22.8473
120.343 526 22.9347
120.46 540 23.2379
120.578 517 22.7376
120.695 503 22.4277
120.812 503 22.4277
120.929 518 22.7596
121.046 502 22.4054
121.163 493 22.2036
121.279 477 21.8403
121.396 445 21.095
121.513 439 20.9523
121.63 413 20.3224
121.747 377 19.4165
121.863 327 18.0831
121.98 301 17.3494
122.097 378 19.4422
122.213 373 19.3132
122.33 331 18.1934
122.446 365 19.105
122.563 358 18.9209
122.679 318 17.8326
122.795 291 17.0587
122.912 332 18.2209
123.028 273 16.5227
123.144 302 17.3781
123.26 303 17.4069
123.377 0 1
123.493 0 1
123.609 0 1
123.725 0 1
123.84 0 1
123.956 0 1
124.072 0 1
124.188 0 1
124.303 0 1
124.419 0 1
126.852 0 1
126.968 0 1
127.083 0 1
127.199 0 1
127.315 0 1
127.431 0 1
127.547 0 1
127.663 0 1
127.779 0 1
127.895 0 1
128.011 0 1
128.127 0 1
128.243 0 1
128.359 573 23.9374
128.476 576 24
128.592 621 24.9199
128.708 629 25.0799
128.825 626 25.02
128.941 598 24.454
129.058 592 24.3311
129.174 616 24.8193
129.291 608 24.6577
129.408 644 25.3772
129.524 654 25.5734
129.641 707 26.5895
129.758 671 25.9037
129.875 661 25.7099
129.992 683 26.1343
130.108 662 25.7294
130.225 675 25.9808
130.342 686 26.1916
130.459 684 26.1534
130.576 727 26.9629
130.693 614 24.779
130.81 627 25.04
130.928 630 25.0998
131.045 667 25.8263
131.162 634 25.1794
131.279 670 25.8844
131.396 684 26.1534
131.513 715 26.7395
131.631 684 26.1534
131.748 712 26.6833
131.865 657 25.632
131.983 669 25.865
132.1 665 25.7876
132.217 620 24.8998
132.335 624 24.98
132.452 650 25.4951
132.57 597 24.4336
132.687 644 25.3772
132.804 664 25.7682
132.922 635 25.1992
133.039 689 26.2488
133.157 658 25.6515
133.274 717 26.7769
133.392 682 26.1151
133.509 734 27.0924
133.627 711 26.6646
133.744 737 27.1477
133.862 727 26.9629
133.979 761 27.5862
134.097 773 27.8029
134.214 668 25.8457
134.332 663 25.7488
134.449 663 25.7488
134.567 699 26.4386
134.684 704 26.533
134.802 708 26.6083
134.919 679 26.0576
135.037 664 25.7682
135.154 732 27.0555
135.272 671 25.9037
135.389 699 26.4386
135.507 679 26.0576
135.624 716 26.7582
135.742 695 26.3629
135.859 693 26.3249
135.977 648 25.4558
136.094 719 26.8142
136.211 680 26.0768
136.329 647 25.4362
136.446 679 26.0576
136.564 652 25.5343
136.681 662 25.7294
136.798 624 24.98
136.915 699 26.4386
137.033 722 26.8701
137.15 667 25.8263
137.267 727 26.9629
137.384 761 27.5862
137.502 741 27.2213
137.619 674 25.9615
137.736 681 26.096
137.853 688 26.2298
137.97 637 25.2389
138.087 640 25.2982
138.204 651 25.5147
138.321 653 25.5539
138.438 658 25.6515
138.555 682 26.1151
138.672 682 26.1151
138.788 634 25.1794
138.905 664 25.7682
139.022 614 24.779
139.139 582 24.1247
139.255 582 24.1247
139.372 526 22.9347
139.488 519 22.7816
139.605 510 22.5832
139.721 500 22.3607
139.838 428 20.6882
139.954 484 22
140.071 471 21.7025
140.187 466 21.587
140.303 424 20.5913
140.419 464 21.5407
140.535 488 22.0907
140.652 434 20.8327
140.768 0 1
140.884 0 1
141 0 1
141.115 0 1
141.231 0 1
141.347 0 1
141.463 0 1
141.578 0 1
141.694 0 1
144.104 0 1
144.219 0 1
144.335 0 1
144.45 0 1
144.566 0 1
144.682 0 1
144.798 0 1
144.914 0 1
145.03 0 1
145.146 667 25.8263
145.262 686 26.1916
145.378 677 26.0192
145.494 678 26.0384
145.61 684 26.1534
145.726 731 27.037
145.842 709 26.6271
145.959 706 26.5707
146.075 724 26.9072
146.192 741 27.2213
146.308 700 26.4575
146.425 666 25.807
146.541 635 25.1992
146.658 559 23.6432
146.774 585 24.1868
146.891 581 24.1039
147.008 593 24.3516
147.125 586 24.2074
147.241 669 25.865
147.358 663 25.7488
147.475 646 25.4165
147.592 693 26.3249
147.709 693 26.3249
147.826 650 25.4951
147.943 702 26.4953
148.06 704 26.533
148.177 693 26.3249
148.294 705 26.5518
148.411 753 27.4408
148.528 674 25.9615
148.645 723 26.8887
148.762 727 26.9629
148.88 769 27.7308
148.997 676 26
149.114 715 26.7395
149.231 746 27.313
149.349 755 27.4773
149.466 704 26.533
149.583 693 26.3249
149.701 718 26.7955
149.818 701 26.4764
149.935 747 27.3313
150.053 673 25.9422
150.17 627 25.04
150.287 606 24.6171
150.405 603 24.5561
150.522 545 23.3452
150.64 588 24.2487
150.757 578 24.0416
150.875 596 24.4131
150.992 602 24.5357
151.11 570 23.8747
151.227 581 24.1039
151.344 510 22.5832
151.462 533 23.0868
151.579 563 23.7276
151.697 568 23.8328
151.814 569 23.8537
151.932 563 23.7276
152.049 569 23.8537
152.167 581 24.1039
152.284 566 23.7908
152.402 552 23.4947
152.519 624 24.98
152.636 590 24.2899
152.754 564 23.7487
152.871 562 23.7065
152.989 615 24.7992
153.106 600 24.4949
153.223 625 25
153.341 643 25.3574
153.458 663 25.7488
153.575 680 26.0768
153.693 638 25.2587
153.81 704 26.533
153.927 621 24.9199
154.044 589 24.2693
154.162 563 23.7276
154.279 585 24.1868
154.396 623 24.96
154.513 657 25.632
154.63 637 25.2389
154.747 699 26.4386
154.864 651 25.5147
154.981 595 24.3926
155.098 615 24.7992
155.215 605 24.5967
155.332 527 22.9565
155.449 503 22.4277
155.566 493 22.2036
155.683 483 21.9773
155.8 455 21.3307
155.917 416 20.3961
156.033 432 20.7846
156.15 0 1
156.267 0 1
156.383 0 1
156.5 0 1
156.617 0 1
156.733 0 1
156.85 0 1
156.966 0 1
157.082 0 1
157.199 0 1
157.315 0 1
157.431 0 1
157.547 0 1
157.664 0 1
157.78 0 1
157.896 0 1
158.012 0 1
158.128 0 1
158.244 0 1
158.359 0 1
158.475 0 1
158.591 0 1
158.706 0 1
