
6.15755 0 1
6.2731 0 1
6.3887 0 1
6.50437 0 1
6.62009 0 1
6.73587 0 1
6.8517 0 1
6.96759 0 1
7.08353 0 1
7.19952 0 1
7.31557 0 1
7.43166 0 1
7.54781 0 1
7.664 0 1
7.78024 0 1
7.89653 0 1
8.01286 0 1
8.12924 0 1
8.24567 0 1
8.36213 0 1
8.47864 0 1
8.59519 0 1
8.71178 0 1
8.82841 0 1
8.94508 0 1
9.06179 0 1
9.17853 0 1
9.29531 0 1
9.41212 0 1
9.52897 0 1
9.64584 0 1
9.76276 0 1
9.8797 0 1
9.99667 0 1
10.1137 0 1
10.2307 0 1
10.3478 0 1
10.4648 0 1
10.5819 0 1
10.6991 0 1
10.8162 0 1
10.9334 0 1
11.0506 0 1
11.1678 0 1
11.285 0 1
11.4023 0 1
11.5196 0 1
11.6369 0 1
11.7542 0 1
11.8715 0 1
11.9888 0 1
12.1062 0 1
12.2235 0 1
12.3409 0 1
12.4582 0 1
12.5756 0 1
12.693 0 1
12.8104 0 1
12.9278 0 1
13.0452 0 1
13.1626 0 1
13.28 0 1
13.3974 0 1
13.5149 0 1
13.6323 0 1
13.7497 0 1
13.8671 0 1
13.9845 0 1
14.1019 0 1
14.2193 0 1
14.3367 0 1
14.4541 0 1
14.5714 0 1
14.6888 0 1
14.8062 0 1
14.9235 0 1
15.0408 1396 37.3631
15.1581 1413 37.5899
15.2755 1495 38.6652
15.3927 1492 38.6264
15.51 1515 38.923
15.6273 1472 38.3667
15.7445 1483 38.5097
15.8617 1543 39.281
15.9789 1534 39.1663
16.0961 1543 39.281
16.2132 1511 38.8716
16.3304 1412 37.5766
16.4475 1541 39.2556
16.5646 1597 39.9625
16.6816 1655 40.6817
16.7986 1842 42.9185
16.9156 1741 41.7253
17.0326 1727 41.5572
17.1496 1780 42.19
17.2665 1810 42.5441
17.3833 1778 42.1663
17.5002 1714 41.4005
17.617 1645 40.5586
17.7338 1612 40.1497
17.8505 1537 39.2046
17.9672 1576 39.6989
18.0839 1599 39.9875
18.2005 1530 39.1152
18.3171 1662 40.7676
18.4337 1692 41.1339
18.5502 1615 40.1871
18.6666 1716 41.4246
18.7831 1794 42.3556
18.8994 1760 41.9524
19.0158 1740 41.7133
19.1321 1672 40.8901
19.2483 1653 40.6571
19.3645 1520 38.9872
19.4806 1392 37.3095
19.5967 1286 35.8608
19.7128 1228 35.0428
19.8288 1162 34.0881
19.9447 1061 32.573
20.0606 0 1
20.1764 0 1
20.2922 0 1
20.4079 0 1
20.5236 0 1
20.6392 0 1
20.7548 0 1
20.8702 0 1
23.3078 0 1
23.4233 0 1
23.539 0 1
23.6547 0 1
23.7704 0 1
23.8862 0 1
24.0021 0 1
24.118 0 1
24.234 0 1
24.35 0 1
24.4661 696 26.3818
24.5822 868 29.4618
24.6984 958 30.9516
24.8146 1024 32
24.9309 1142 33.7935
25.0472 1278 35.7491
25.1636 1376 37.0945
25.28 1556 39.4462
25.3965 1587 39.8372
25.513 1687 41.0731
25.6296 1853 43.0465
25.7462 1775 42.1307
25.8628 1914 43.7493
25.9795 1851 43.0232
26.0962 1884 43.4051
26.213 1794 42.3556
26.3298 1766 42.0238
26.4466 1704 41.2795
26.5635 1544 39.2938
26.6804 1631 40.3856
26.7973 1679 40.9756
26.9143 1682 41.0122
27.0313 1717 41.4367
27.1483 1762 41.9762
27.2653 1836 42.8486
27.3824 1894 43.5201
27.4996 1828 42.7551
27.6167 1804 42.4735
27.7339 1755 41.8927
27.8511 1756 41.9047
27.9683 1718 41.4488
28.0855 1652 40.6448
28.2028 1652 40.6448
28.3201 1544 39.2938
28.4374 1598 39.975
28.5547 1513 38.8973
28.6721 1593 39.9124
28.7894 1629 40.3609
28.9068 1744 41.7612
29.0242 1782 42.2137
29.1416 1852 43.0349
29.259 1808 42.5206
29.3764 1859 43.1161
29.4939 1868 43.2204
29.6113 1872 43.2666
29.7288 1779 42.1782
29.8463 1649 40.6079
29.9638 1652 40.6448
30.0812 1484 38.5227
30.1987 1499 38.7169
30.3162 1516 38.9358
30.4337 1615 40.1871
30.5512 1598 39.975
30.6687 1675 40.9268
30.7862 1707 41.3159
30.9037 1695 41.1704
31.0212 1815 42.6028
31.1387 1786 42.2611
31.2562 1719 41.4608
31.3737 1701 41.2432
31.4912 1627 40.3361
31.6087 1667 40.8289
31.7262 1554 39.4208
31.8436 1427 37.7757
31.9611 1483 38.5097
32.0785 1469 38.3275
32.1959 1550 39.37
32.3134 1558 39.4715
32.4308 1700 41.2311
32.5482 1760 41.9524
32.6655 1707 41.3159
32.7829 1817 42.6263
32.9002 1763 41.9881
33.0176 1773 42.107
33.1349 1727 41.5572
33.2522 1749 41.821
33.3694 1620 40.2492
33.4867 1572 39.6485
33.6039 1484 38.5227
33.7211 1508 38.833
33.8383 1446 38.0263
33.9554 1417 37.6431
34.0725 1458 38.1838
34.1896 1594 39.9249
34.3067 1575 39.6863
34.4237 1574 39.6737
34.5407 1624 40.2989
34.6577 1706 41.3038
34.7746 1691 41.1218
34.8915 1664 40.7922
35.0084 1598 39.975
35.1252 1663 40.7799
35.242 1611 40.1373
35.3587 1554 39.4208
35.4755 1504 38.7814
35.5921 1453 38.1182
35.7088 1347 36.7015
35.8254 1375 37.081
35.9419 1441 37.9605
36.0584 1436 37.8946
36.1749 1498 38.704
36.2913 1518 38.9615
36.4077 1616 40.1995
36.524 1548 39.3446
36.6403 1555 39.4335
36.7565 1511 38.8716
36.8727 1421 37.6962
36.9889 1307 36.1525
37.1049 1155 33.9853
37.221 0 1
37.3369 0 1
37.4529 0 1
37.5687 0 1
37.6845 0 1
37.8003 0 1
37.916 0 1
38.0316 0 1
38.1472 0 1
40.5851 0 1
40.7008 0 1
40.8164 0 1
40.9322 0 1
41.048 0 1
41.1639 0 1
41.2798 0 1
41.3958 0 1
41.5118 0 1
41.6279 0 1
41.744 813 28.5132
41.8602 917 30.282
41.9765 950 30.8221
42.0928 990 31.4643
42.2091 995 31.5436
42.3255 993 31.5119
42.4419 960 30.9839
42.5584 1033 32.1403
42.675 960 30.9839
42.7915 1162 34.0881
42.9081 1237 35.171
43.0248 1300 36.0555
43.1415 1399 37.4032
43.2582 1372 37.0405
43.375 1381 37.1618
43.4918 1348 36.7151
43.6087 1361 36.8917
43.7256 1368 36.9865
43.8425 1334 36.524
43.9595 1329 36.4555
44.0765 1302 36.0832
44.1935 1257 35.4542
44.3106 1202 34.6699
44.4277 1105 33.2415
44.5448 1163 34.1028
44.6619 1131 33.6303
44.7791 1245 35.2846
44.8963 1242 35.242
45.0136 1368 36.9865
45.1308 1419 37.6696
45.2481 1412 37.5766
45.3654 1481 38.4838
45.4827 1344 36.6606
45.6001 1380 37.1484
45.7174 1351 36.756
45.8348 1216 34.8712
45.9522 1197 34.5977
46.0697 1177 34.3074
46.1871 1141 33.7787
46.3046 1151 33.9264
46.422 1157 34.0147
46.5395 1242 35.242
46.657 1290 35.9166
46.7745 1367 36.973
46.892 1375 37.081
47.0096 1379 37.1349
47.1271 1363 36.9188
47.2446 1368 36.9865
47.3622 1437 37.9078
47.4797 1437 37.9078
47.5973 1381 37.1618
47.7149 1223 34.9714
47.8324 1278 35.7491
47.95 1243 35.2562
48.0675 1202 34.6699
48.1851 1165 34.1321
48.3027 1231 35.0856
48.4202 1229 35.0571
48.5378 1351 36.756
48.6554 1444 38
48.7729 1401 37.4299
48.8904 1449 38.0657
49.008 1424 37.7359
49.1255 1436 37.8946
49.243 1400 37.4166
49.3605 1285 35.8469
49.478 1198 34.6121
49.5955 1105 33.2415
49.713 1118 33.4365
49.8304 1134 33.6749
49.9479 1169 34.1906
50.0653 1224 34.9857
50.1827 1291 35.9305
50.3001 1318 36.3043
50.4175 1374 37.0675
50.5348 1382 37.1753
50.6521 1453 38.1182
50.7694 1416 37.6298
50.8867 1460 38.2099
51.004 1421 37.6962
51.1212 1454 38.1314
51.2384 1401 37.4299
51.3556 1334 36.524
51.4727 1416 37.6298
51.5899 1248 35.327
51.707 1188 34.4674
51.824 1387 37.2424
51.9411 1424 37.7359
52.0581 1661 40.7554
52.175 1741 41.7253
52.2919 1823 42.6966
52.4088 1775 42.1307
52.5257 1850 43.0116
52.6425 1820 42.6615
52.7593 1912 43.7264
52.876 1839 42.8836
52.9927 1814 42.5911
53.1094 1731 41.6053
53.226 1567 39.5854
53.3426 1512 38.8844
53.4591 1647 40.5832
53.5756 1583 39.7869
53.692 1635 40.4351
53.8084 1641 40.5093
53.9248 1621 40.2616
54.0411 1523 39.0256
54.1573 1510 38.8587
54.2735 0 1
54.3896 0 1
54.5057 0 1
54.6217 0 1
54.7377 0 1
54.8537 0 1
54.9695 0 1
55.0853 0 1
55.2011 0 1
55.3168 0 1
55.4324 0 1
57.824 0 1
57.9396 0 1
58.0553 0 1
58.1711 0 1
58.2869 0 1
58.4028 0 1
58.5187 0 1
58.6347 0 1
58.7508 0 1
58.8669 0 1
58.983 1203 34.6843
59.0992 1325 36.4005
59.2155 1417 37.6431
59.3318 1593 39.9124
59.4482 1681 41
59.5646 1628 40.3485
59.681 1756 41.9047
59.7975 1677 40.9512
59.9141 1663 40.7799
60.0306 1706 41.3038
60.1473 1565 39.5601
60.2639 1512 38.8844
60.3807 1533 39.1535
60.4974 1588 39.8497
60.6142 1615 40.1871
60.731 1646 40.5709
60.8479 1742 41.7373
60.9648 1846 42.9651
61.0818 1822 42.6849
61.1987 1772 42.0951
61.3158 1784 42.2374
61.4328 1762 41.9762
61.5499 1649 40.6079
61.667 1529 39.1024
61.7841 1448 38.0526
61.9013 1412 37.5766
62.0185 1380 37.1484
62.1357 1466 38.2884
62.253 1511 38.8716
62.3702 1615 40.1871
62.4875 1621 40.2616
62.6049 1739 41.7013
62.7222 1688 41.0853
62.8396 1737 41.6773
62.9569 1835 42.8369
63.0743 1760 41.9524
63.1918 1728 41.5692
63.3092 1759 41.9404
63.4267 1631 40.3856
63.5441 1648 40.5956
63.6616 1525 39.0512
63.7791 1431 37.8286
63.8966 1432 37.8418
64.0142 1406 37.4967
64.1317 1542 39.2683
64.2492 1571 39.6358
64.3668 1633 40.4104
64.4843 1714 41.4005
64.6019 1677 40.9512
64.7195 1764 42
64.837 1775 42.1307
64.9546 1740 41.7133
65.0722 1681 41
65.1898 1613 40.1622
65.3074 1425 37.7492
65.4249 1417 37.6431
65.5425 1271 35.6511
65.6601 1264 35.5528
65.7777 1429 37.8021
65.8952 1541 39.2556
66.0128 1533 39.1535
66.1304 1694 41.1582
66.2479 1626 40.3237
66.3655 1717 41.4367
66.483 1724 41.5211
66.6005 1768 42.0476
66.718 1778 42.1663
66.8355 1651 40.6325
66.953 1647 40.5832
67.0705 1673 40.9023
67.1879 1551 39.3827
67.3054 1469 38.3275
67.4228 1394 37.3363
67.5402 1363 36.9188
67.6576 1293 35.9583
67.7749 1396 37.3631
67.8923 1514 38.9102
68.0096 1575 39.6863
68.1269 1650 40.6202
68.2442 1646 40.5709
68.3614 1691 41.1218
68.4787 1660 40.7431
68.5958 1588 39.8497
68.713 1671 40.8779
68.8302 1550 39.37
68.9473 1366 36.9594
69.0643 1289 35.9026
69.1814 1234 35.1283
69.2984 1266 35.5809
69.4154 1378 37.1214
69.5323 1440 37.9473
69.6492 1556 39.4462
69.7661 1570 39.6232
69.8829 1630 40.3733
69.9997 1579 39.7366
70.1165 1514 38.9102
70.2332 1559 39.4842
70.3499 1500 38.7298
70.4665 1379 37.1349
70.5831 1333 36.5103
70.6996 1262 35.5246
70.8161 1144 33.8231
70.9326 1092 33.0454
71.049 946 30.7571
71.1653 771 27.7669
71.2817 701 26.4764
71.3979 668 25.8457
71.5141 632 25.1396
71.6303 628 25.0599
71.7464 498 22.3159
71.8624 0 1
71.9784 0 1
72.0944 0 1
72.2102 0 1
72.3261 0 1
72.4418 0 1
72.5575 0 1
72.6732 0 1
75.1054 0 1
75.2209 0 1
75.3365 0 1
75.4521 0 1
75.5678 0 1
75.6835 0 1
75.7993 0 1
75.9151 0 1
76.031 0 1
76.147 942 30.692
76.263 990 31.4643
76.3791 1091 33.0303
76.4952 1053 32.45
76.6113 1091 33.0303
76.7276 1089 33
76.8438 1246 35.2987
76.9601 1405 37.4833
77.0765 1462 38.2361
77.1929 1449 38.0657
77.3093 1429 37.8021
77.4258 1469 38.3275
77.5423 1488 38.5746
77.6589 1427 37.7757
77.7755 1321 36.3456
77.8921 1188 34.4674
78.0088 1097 33.121
78.1256 1087 32.9697
78.2423 1035 32.1714
78.3591 1085 32.9393
78.4759 1185 34.4238
78.5928 1382 37.1753
78.7097 1356 36.8239
78.8266 1391 37.2961
78.9436 1475 38.4057
79.0606 1462 38.2361
79.1776 1422 37.7094
79.2946 1465 38.2753
79.4117 1475 38.4057
79.5288 1443 37.9868
79.6459 1443 37.9868
79.7631 1362 36.9053
79.8802 1411 37.5633
79.9974 1292 35.9444
80.1147 1205 34.7131
80.2319 1138 33.7343
80.3491 1198 34.6121
80.4664 1233 35.1141
80.5837 1287 35.8748
80.701 1457 38.1707
80.8183 1554 39.4208
80.9357 1529 39.1024
81.053 1506 38.8072
81.1704 1527 39.0768
81.2877 1510 38.8587
81.4051 1515 38.923
81.5225 1416 37.6298
81.6399 1281 35.7911
81.7573 1140 33.7639
81.8747 1051 32.4191
81.9922 1092 33.0454
82.1096 1166 34.1467
82.227 1325 36.4005
82.3444 1316 36.2767
82.4619 1441 37.9605
82.5793 1440 37.9473
82.6967 1486 38.5487
82.8142 1499 38.7169
82.9316 1540 39.2428
83.049 1515 38.923
83.1664 1630 40.3733
83.2838 1490 38.6005
83.4012 1526 39.064
83.5186 1421 37.6962
83.636 1337 36.565
83.7534 1288 35.8887
83.8708 1221 34.9428
83.9881 1165 34.1321
84.1055 1228 35.0428
84.2228 1285 35.8469
84.3401 1330 36.4692
84.4575 1453 38.1182
84.5747 1505 38.7943
84.692 1605 40.0625
84.8093 1593 39.9124
84.9265 1572 39.6485
85.0437 1502 38.7556
85.1609 1313 36.2353
85.2781 1209 34.7707
85.3952 1152 33.9411
85.5123 1083 32.909
85.6294 1135 33.6898
85.7465 1240 35.2136
85.8636 1387 37.2424
85.9806 1369 37
86.0976 1406 37.4967
86.2145 1475 38.4057
86.3315 1479 38.4578
86.4484 1584 39.7995
86.5652 1515 38.923
86.682 1566 39.5727
86.7988 1533 39.1535
86.9156 1474 38.3927
87.0323 1485 38.5357
87.149 1485 38.5357
87.2657 1384 37.2022
87.3823 1236 35.1568
87.4988 1114 33.3766
87.6154 1060 32.5576
87.7318 1023 31.9844
87.8483 1087 32.9697
87.9647 1173 34.2491
88.081 1218 34.8999
88.1973 1157 34.0147
88.3136 1178 34.322
88.4298 1132 33.6452
88.546 1002 31.6544
88.6621 880 29.6648
88.7781 647 25.4362
88.8942 0 1
89.0101 0 1
89.126 0 1
89.2419 0 1
89.3577 0 1
89.4734 0 1
89.5891 0 1
89.7047 0 1
89.8203 0 1
89.9358 0 1
92.3269 0 1
92.4424 0 1
92.558 0 1
92.6736 0 1
92.7893 0 1
92.905 0 1
93.0208 0 1
93.1366 0 1
93.2525 0 1
93.3685 0 1
93.4845 0 1
93.6005 1138 33.7343
93.7167 1193 34.5398
93.8328 1236 35.1568
93.949 1374 37.0675
94.0653 1384 37.2022
94.1816 1324 36.3868
94.2979 1296 36
94.4143 1206 34.7275
94.5307 1196 34.5832
94.6472 1161 34.0735
94.7637 1114 33.3766
94.8803 1298 36.0278
94.9969 1323 36.3731
95.1135 1390 37.2827
95.2302 1445 38.0132
95.3469 1497 38.6911
95.4637 1543 39.281
95.5805 1549 39.3573
95.6973 1556 39.4462
95.8142 1701 41.2432
95.9311 1623 40.2865
96.048 1579 39.7366
96.1649 1486 38.5487
96.2819 1507 38.8201
96.3989 1385 37.2156
96.516 1349 36.7287
96.633 1354 36.7967
96.7501 1267 35.5949
96.8673 1274 35.6931
96.9844 1299 36.0416
97.1016 1408 37.5233
97.2188 1494 38.6523
97.336 1563 39.5348
97.4532 1553 39.4081
97.5704 1586 39.8246
97.6877 1637 40.4599
97.805 1637 40.4599
97.9223 1462 38.2361
98.0396 1362 36.9053
98.1569 1226 35.0143
98.2743 1230 35.0714
98.3916 1116 33.4066
98.509 1135 33.6898
98.6264 1427 37.7757
98.7438 1392 37.3095
98.8612 1488 38.5746
98.9786 1508 38.833
99.096 1583 39.7869
99.2134 1620 40.2492
99.3308 1635 40.4351
99.4482 1595 39.9375
99.5656 1629 40.3609
99.6831 1590 39.8748
99.8005 1614 40.1746
99.9179 1578 39.724
100.035 1513 38.8973
100.153 1460 38.2099
100.27 1349 36.7287
100.388 1278 35.7491
100.505 1361 36.8917
100.622 1513 38.8973
100.74 1575 39.6863
100.857 1766 42.0238
100.975 1643 40.5339
101.092 1705 41.2916
101.209 1724 41.5211
101.327 1662 40.7676
101.444 1591 39.8873
101.561 1558 39.4715
101.679 1462 38.2361
101.796 1247 35.3129
101.913 1162 34.0881
102.03 1185 34.4238
102.148 1425 37.7492
102.265 1458 38.1838
102.382 1558 39.4715
102.499 1613 40.1622
102.616 1648 40.5956
102.733 1689 41.0974
102.851 1776 42.1426
102.968 1786 42.2611
103.085 1777 42.1545
103.202 1760 41.9524
103.319 1745 41.7732
103.436 1647 40.5832
103.552 1611 40.1373
103.669 1622 40.2741
103.786 1453 38.1182
103.903 1460 38.2099
104.02 1439 37.9342
104.137 1503 38.7685
104.253 1567 39.5854
104.37 1712 41.3763
104.487 1799 42.4146
104.603 1847 42.9767
104.72 1729 41.5812
104.836 1652 40.6448
104.953 1629 40.3609
105.069 1439 37.9342
105.186 1328 36.4417
105.302 1192 34.5254
105.418 1158 34.0294
105.535 1027 32.0468
105.651 1137 33.7194
105.767 1136 33.7046
105.883 1153 33.9559
105.999 1070 32.7109
106.115 0 1
106.231 0 1
106.347 0 1
106.463 0 1
106.579 0 1
106.694 0 1
106.81 0 1
106.926 0 1
107.041 0 1
107.157 0 1
109.576 0 1
109.692 0 1
109.807 0 1
109.923 0 1
110.039 0 1
110.155 0 1
110.27 0 1
110.386 0 1
110.502 0 1
110.618 670 25.8844
110.735 971 31.1609
110.851 1094 33.0757
110.967 1206 34.7275
111.083 1296 36
111.199 1427 37.7757
111.316 1507 38.8201
111.432 1554 39.4208
111.549 1596 39.95
111.665 1588 39.8497
111.782 1565 39.5601
111.898 1605 40.0625
112.015 1630 40.3733
112.132 1495 38.6652
112.248 1400 37.4166
112.365 1313 36.2353
112.482 1374 37.0675
112.599 1432 37.8418
112.716 1407 37.51
112.832 1682 41.0122
112.949 1689 41.0974
113.066 1655 40.6817
113.183 1596 39.95
113.3 1614 40.1746
113.417 1628 40.3485
113.534 1563 39.5348
113.652 1472 38.3667
113.769 1260 35.4965
113.886 1206 34.7275
114.003 1154 33.9706
114.12 1205 34.7131
114.238 1387 37.2424
114.355 1503 38.7685
114.472 1498 38.704
114.589 1648 40.5956
114.707 1695 41.1704
114.824 1616 40.1995
114.942 1663 40.7799
115.059 1651 40.6325
115.176 1719 41.4608
115.294 1692 41.1339
115.411 1614 40.1746
115.529 1607 40.0874
115.646 1568 39.598
115.764 1512 38.8844
115.881 1449 38.0657
115.999 1331 36.4829
116.116 1428 37.7889
116.234 1469 38.3275
116.351 1663 40.7799
116.469 1677 40.9512
116.586 1647 40.5832
116.704 1689 41.0974
116.821 1649 40.6079
116.939 1639 40.4846
117.056 1569 39.6106
117.174 1552 39.3954
117.291 1445 38.0132
117.409 1232 35.0999
117.526 1228 35.0428
117.644 1221 34.9428
117.761 1271 35.6511
117.879 1430 37.8153
117.996 1449 38.0657
118.114 1579 39.7366
118.231 1566 39.5727
118.349 1614 40.1746
118.466 1600 40
118.584 1596 39.95
118.701 1600 40
118.819 1647 40.5832
118.936 1556 39.4462
119.053 1582 39.7744
119.171 1487 38.5616
119.288 1485 38.5357
119.405 1475 38.4057
119.523 1277 35.7351
119.64 1309 36.1801
119.757 1294 35.9722
119.875 1379 37.1349
119.992 1530 39.1152
120.109 1507 38.8201
120.226 1620 40.2492
120.343 1544 39.2938
120.46 1583 39.7869
120.578 1634 40.4228
120.695 1594 39.9249
120.812 1504 38.7814
120.929 1369 37
121.046 1291 35.9305
121.163 1171 34.2199
121.279 1135 33.6898
121.396 1142 33.7935
121.513 1256 35.4401
121.63 1211 34.7994
121.747 1325 36.4005
121.863 1340 36.606
121.98 1283 35.819
122.097 1346 36.6879
122.213 1319 36.318
122.33 1273 35.6791
122.446 1197 34.5977
122.563 1172 34.2345
122.679 1094 33.0757
122.795 989 31.4484
122.912 945 30.7409
123.028 831 28.8271
123.144 711 26.6646
123.26 641 25.318
123.377 0 1
123.493 0 1
123.609 0 1
123.725 0 1
123.84 0 1
123.956 0 1
124.072 0 1
124.188 0 1
124.303 0 1
124.419 0 1
126.852 0 1
126.968 0 1
127.083 0 1
127.199 0 1
127.315 0 1
127.431 0 1
127.547 0 1
127.663 0 1
127.779 0 1
127.895 0 1
128.011 0 1
128.127 0 1
128.243 0 1
128.359 1496 38.6782
128.476 1579 39.7366
128.592 1384 37.2022
128.708 1397 37.3765
128.825 1483 38.5097
128.941 1398 37.3898
129.058 1637 40.4599
129.174 1644 40.5463
129.291 1658 40.7185
129.408 1690 41.1096
129.524 1732 41.6173
129.641 1637 40.4599
129.758 1600 40
129.875 1553 39.4081
129.992 1436 37.8946
130.108 1328 36.4417
130.225 1269 35.623
130.342 1205 34.7131
130.459 1279 35.7631
130.576 1411 37.5633
130.693 1500 38.7298
130.81 1571 39.6358
130.928 1544 39.2938
131.045 1527 39.0768
131.162 1690 41.1096
131.279 1658 40.7185
131.396 1689 41.0974
131.513 1669 40.8534
131.631 1678 40.9634
131.748 1606 40.0749
131.865 1517 38.9487
131.983 1456 38.1576
132.1 1505 38.7943
132.217 1438 37.921
132.335 1420 37.6829
132.452 1497 38.6911
132.57 1570 39.6232
132.687 1681 41
132.804 1626 40.3237
132.922 1775 42.1307
133.039 1735 41.6533
133.157 1738 41.6893
133.274 1682 41.0122
133.392 1629 40.3609
133.509 1478 38.4448
133.627 1375 37.081
133.744 1322 36.3593
133.862 1290 35.9166
133.979 1348 36.7151
134.097 1329 36.4555
134.214 1563 39.5348
134.332 1593 39.9124
134.449 1636 40.4475
134.567 1646 40.5709
134.684 1647 40.5832
134.802 1651 40.6325
134.919 1714 41.4005
135.037 1664 40.7922
135.154 1734 41.6413
135.272 1650 40.6202
135.389 1647 40.5832
135.507 1596 39.95
135.624 1558 39.4715
135.742 1472 38.3667
135.859 1439 37.9342
135.977 1505 38.7943
136.094 1502 38.7556
136.211 1627 40.3361
136.329 1664 40.7922
136.446 1665 40.8044
136.564 1834 42.8252
136.681 1733 41.6293
136.798 1736 41.6653
136.915 1765 42.0119
137.033 1602 40.025
137.15 1556 39.4462
137.267 1427 37.7757
137.384 1369 37
137.502 1245 35.2846
137.619 1255 35.426
137.736 1439 37.9342
137.853 1392 37.3095
137.97 1533 39.1535
138.087 1513 38.8973
138.204 1636 40.4475
138.321 1676 40.939
138.438 1694 41.1582
138.555 1716 41.4246
138.672 1755 41.8927
138.788 1581 39.7618
138.905 1545 39.3065
139.022 1499 38.7169
139.139 1407 37.51
139.255 1339 36.5923
139.372 1255 35.426
139.488 1123 33.5112
139.605 1082 32.8938
139.721 1119 33.4515
139.838 1146 33.8526
139.954 1118 33.4365
140.071 1105 33.2415
140.187 1013 31.8277
140.303 921 30.348
140.419 850 29.1548
140.535 847 29.1033
140.652 762 27.6043
140.768 0 1
140.884 0 1
141 0 1
141.115 0 1
141.231 0 1
141.347 0 1
141.463 0 1
141.578 0 1
141.694 0 1
144.104 0 1
144.219 0 1
144.335 0 1
144.45 0 1
144.566 0 1
144.682 0 1
144.798 0 1
144.914 0 1
145.03 0 1
145.146 1207 34.7419
145.262 1244 35.2704
145.378 1302 36.0832
145.494 1419 37.6696
145.61 1396 37.3631
145.726 1267 35.5949
145.842 1207 34.7419
145.959 1163 34.1028
146.075 1131 33.6303
146.192 1134 33.6749
146.308 1043 32.2955
146.425 1035 32.1714
146.541 1133 33.6601
146.658 1140 33.7639
146.774 1254 35.4119
146.891 1284 35.8329
147.008 1256 35.4401
147.125 1347 36.7015
147.241 1235 35.1426
147.358 1279 35.7631
147.475 1351 36.756
147.592 1301 36.0694
147.709 1255 35.426
147.826 1221 34.9428
147.943 1236 35.1568
148.06 1180 34.3511
148.177 1140 33.7639
148.294 1122 33.4963
148.411 1170 34.2053
148.528 1217 34.8855
148.645 1173 34.2491
148.762 1237 35.171
148.88 1348 36.7151
148.997 1351 36.756
149.114 1286 35.8608
149.231 1327 36.428
149.349 1270 35.6371
149.466 1298 36.0278
149.583 1224 34.9857
149.701 1100 33.1662
149.818 1101 33.1813
149.935 1028 32.0624
150.053 1021 31.9531
150.17 1084 32.9242
150.287 1081 32.8786
150.405 1199 34.6266
150.522 1208 34.7563
150.64 1245 35.2846
150.757 1184 34.4093
150.875 1264 35.5528
150.992 1299 36.0416
151.11 1295 35.9861
151.227 1255 35.426
151.344 1225 35
151.462 1168 34.176
151.579 1173 34.2491
151.697 1151 33.9264
151.814 1106 33.2566
151.932 1057 32.5115
152.049 1165 34.1321
152.167 1128 33.5857
152.284 1166 34.1467
152.402 1240 35.2136
152.519 1290 35.9166
152.636 1177 34.3074
152.754 1246 35.2987
152.871 1326 36.4143
152.989 1273 35.6791
153.106 1169 34.1906
153.223 1153 33.9559
153.341 1077 32.8177
153.458 998 31.5911
153.575 1013 31.8277
153.693 996 31.5595
153.81 994 31.5278
153.927 1013 31.8277
154.044 1107 33.2716
154.162 1106 33.2566
154.279 1165 34.1321
154.396 1133 33.6601
154.513 1178 34.322
154.63 1124 33.5261
154.747 1194 34.5543
154.864 1092 33.0454
154.981 1133 33.6601
155.098 1090 33.0151
155.215 1070 32.7109
155.332 997 31.5753
155.449 1011 31.7962
155.566 1016 31.8748
155.683 1022 31.9687
155.8 1038 32.218
155.917 1098 33.1361
156.033 1088 32.9848
156.15 0 1
156.267 0 1
156.383 0 1
156.5 0 1
156.617 0 1
156.733 0 1
156.85 0 1
156.966 0 1
157.082 0 1
157.199 0 1
157.315 0 1
157.431 0 1
157.547 0 1
157.664 0 1
157.78 0 1
157.896 0 1
158.012 0 1
158.128 0 1
158.244 0 1
158.359 0 1
158.475 0 1
158.591 0 1
158.706 0 1
