
6.15755 0 1
6.2731 0 1
6.3887 0 1
6.50437 0 1
6.62009 0 1
6.73587 0 1
6.8517 0 1
6.96759 0 1
7.08353 0 1
7.19952 0 1
7.31557 0 1
7.43166 0 1
7.54781 0 1
7.664 0 1
7.78024 0 1
7.89653 0 1
8.01286 0 1
8.12924 0 1
8.24567 0 1
8.36213 0 1
8.47864 0 1
8.59519 0 1
8.71178 0 1
8.82841 0 1
8.94508 0 1
9.06179 0 1
9.17853 0 1
9.29531 0 1
9.41212 0 1
9.52897 0 1
9.64584 0 1
9.76276 0 1
9.8797 0 1
9.99667 0 1
10.1137 0 1
10.2307 0 1
10.3478 0 1
10.4648 0 1
10.5819 0 1
10.6991 0 1
10.8162 0 1
10.9334 0 1
11.0506 0 1
11.1678 0 1
11.285 0 1
11.4023 0 1
11.5196 0 1
11.6369 0 1
11.7542 0 1
11.8715 0 1
11.9888 0 1
12.1062 0 1
12.2235 0 1
12.3409 0 1
12.4582 0 1
12.5756 0 1
12.693 0 1
12.8104 0 1
12.9278 0 1
13.0452 0 1
13.1626 0 1
13.28 0 1
13.3974 0 1
13.5149 0 1
13.6323 0 1
13.7497 0 1
13.8671 0 1
13.9845 0 1
14.1019 0 1
14.2193 0 1
14.3367 0 1
14.4541 0 1
14.5714 0 1
14.6888 0 1
14.8062 0 1
14.9235 0 1
15.0408 0 0
15.1581 0 0
15.2755 0 0
15.3927 0 0
15.51 0 0
15.6273 0 0
15.7445 0 0
15.8617 0 0
15.9789 0 0
16.0961 0 0
16.2132 0 0
16.3304 0 0
16.4475 0 0
16.5646 0 0
16.6816 0 0
16.7986 0 0
16.9156 0 0
17.0326 0 0
17.1496 0 0
17.2665 0 0
17.3833 0 0
17.5002 0 0
17.617 0 0
17.7338 0 0
17.8505 0 0
17.9672 0 0
18.0839 0 0
18.2005 0 0
18.3171 0 0
18.4337 0 0
18.5502 0 0
18.6666 0 0
18.7831 0 0
18.8994 0 0
19.0158 0 0
19.1321 0 0
19.2483 0 0
19.3645 0 0
19.4806 0 0
19.5967 0 0
19.7128 0 0
19.8288 0 0
19.9447 0 0
20.0606 0 1
20.1764 0 1
20.2922 0 1
20.4079 0 1
20.5236 0 1
20.6392 0 1
20.7548 0 1
20.8702 0 1
23.3078 0 1
23.4233 0 1
23.539 0 1
23.6547 0 1
23.7704 0 1
23.8862 0 1
24.0021 0 1
24.118 0 1
24.234 0 1
24.35 0 1
24.4661 403 20.0749
24.5822 442 21.0238
24.6984 524 22.891
24.8146 591 24.3105
24.9309 691 26.2869
25.0472 707 26.5895
25.1636 730 27.0185
25.28 826 28.7402
25.3965 896 29.9333
25.513 914 30.2324
25.6296 998 31.5911
25.7462 973 31.1929
25.8628 1009 31.7648
25.9795 1024 32
26.0962 1019 31.9218
26.213 964 31.0483
26.3298 888 29.7993
26.4466 829 28.7924
26.5635 826 28.7402
26.6804 792 28.1425
26.7973 813 28.5132
26.9143 828 28.775
27.0313 848 29.1204
27.1483 916 30.2655
27.2653 970 31.1448
27.3824 915 30.249
27.4996 910 30.1662
27.6167 916 30.2655
27.7339 922 30.3645
27.8511 863 29.3769
27.9683 815 28.5482
28.0855 869 29.4788
28.2028 792 28.1425
28.3201 806 28.3901
28.4374 761 27.5862
28.5547 778 27.8927
28.6721 812 28.4956
28.7894 900 30
28.9068 934 30.5614
29.0242 1012 31.8119
29.1416 919 30.315
29.259 1011 31.7962
29.3764 926 30.4302
29.4939 911 30.1828
29.6113 953 30.8707
29.7288 860 29.3258
29.8463 851 29.1719
29.9638 869 29.4788
30.0812 788 28.0713
30.1987 791 28.1247
30.3162 820 28.6356
30.4337 816 28.5657
30.5512 814 28.5307
30.6687 829 28.7924
30.7862 894 29.8998
30.9037 917 30.282
31.0212 863 29.3769
31.1387 893 29.8831
31.2562 884 29.7321
31.3737 827 28.7576
31.4912 858 29.2916
31.6087 826 28.7402
31.7262 789 28.0891
31.8436 783 27.9821
31.9611 795 28.1957
32.0785 788 28.0713
32.1959 822 28.6705
32.3134 854 29.2233
32.4308 890 29.8329
32.5482 924 30.3974
32.6655 900 30
32.7829 958 30.9516
32.9002 917 30.282
33.0176 948 30.7896
33.1349 877 29.6142
33.2522 906 30.0998
33.3694 853 29.2062
33.4867 818 28.6007
33.6039 776 27.8568
33.7211 733 27.074
33.8383 801 28.3019
33.9554 802 28.3196
34.0725 838 28.9482
34.1896 776 27.8568
34.3067 821 28.6531
34.4237 831 28.8271
34.5407 848 29.1204
34.6577 924 30.3974
34.7746 819 28.6182
34.8915 824 28.7054
35.0084 837 28.931
35.1252 797 28.2312
35.242 800 28.2843
35.3587 779 27.9106
35.4755 716 26.7582
35.5921 735 27.1109
35.7088 738 27.1662
35.8254 710 26.6458
35.9419 797 28.2312
36.0584 767 27.6948
36.1749 877 29.6142
36.2913 816 28.5657
36.4077 841 29
36.524 806 28.3901
36.6403 835 28.8964
36.7565 786 28.0357
36.8727 748 27.3496
36.9889 716 26.7582
37.1049 632 25.1396
37.221 0 1
37.3369 0 1
37.4529 0 1
37.5687 0 1
37.6845 0 1
37.8003 0 1
37.916 0 1
38.0316 0 1
38.1472 0 1
40.5851 0 1
40.7008 0 1
40.8164 0 1
40.9322 0 1
41.048 0 1
41.1639 0 1
41.2798 0 1
41.3958 0 1
41.5118 0 1
41.6279 0 1
41.744 410 20.2485
41.8602 477 21.8403
41.9765 524 22.891
42.0928 569 23.8537
42.2091 513 22.6495
42.3255 516 22.7156
42.4419 520 22.8035
42.5584 560 23.6643
42.675 559 23.6432
42.7915 690 26.2679
42.9081 677 26.0192
43.0248 661 25.7099
43.1415 689 26.2488
43.2582 736 27.1293
43.375 739 27.1846
43.4918 740 27.2029
43.6087 685 26.1725
43.7256 710 26.6458
43.8425 742 27.2397
43.9595 721 26.8514
44.0765 688 26.2298
44.1935 662 25.7294
44.3106 567 23.8118
44.4277 606 24.6171
44.5448 559 23.6432
44.6619 638 25.2587
44.7791 605 24.5967
44.8963 676 26
45.0136 708 26.6083
45.1308 772 27.7849
45.2481 744 27.2764
45.3654 732 27.0555
45.4827 747 27.3313
45.6001 747 27.3313
45.7174 710 26.6458
45.8348 683 26.1343
45.9522 722 26.8701
46.0697 677 26.0192
46.1871 617 24.8395
46.3046 647 25.4362
46.422 683 26.1343
46.5395 700 26.4575
46.657 706 26.5707
46.7745 695 26.3629
46.892 681 26.096
47.0096 771 27.7669
47.1271 811 28.4781
47.2446 772 27.7849
47.3622 755 27.4773
47.4797 681 26.096
47.5973 666 25.807
47.7149 693 26.3249
47.8324 641 25.318
47.95 635 25.1992
48.0675 561 23.6854
48.1851 592 24.3311
48.3027 619 24.8797
48.4202 696 26.3818
48.5378 743 27.258
48.6554 722 26.8701
48.7729 811 28.4781
48.8904 793 28.1603
49.008 736 27.1293
49.1255 733 27.074
49.243 764 27.6405
49.3605 714 26.7208
49.478 671 25.9037
49.5955 655 25.593
49.713 643 25.3574
49.8304 612 24.7386
49.9479 691 26.2869
50.0653 672 25.923
50.1827 732 27.0555
50.3001 667 25.8263
50.4175 707 26.5895
50.5348 727 26.9629
50.6521 766 27.6767
50.7694 790 28.1069
50.8867 706 26.5707
51.004 758 27.5318
51.1212 719 26.8142
51.2384 691 26.2869
51.3556 680 26.0768
51.4727 601 24.5153
51.5899 550 23.4521
51.707 602 24.5357
51.824 636 25.219
51.9411 713 26.7021
52.0581 757 27.5136
52.175 787 28.0535
52.2919 796 28.2135
52.4088 752 27.4226
52.5257 779 27.9106
52.6425 789 28.0891
52.7593 774 27.8209
52.876 782 27.9643
52.9927 732 27.0555
53.1094 694 26.3439
53.226 671 25.9037
53.3426 594 24.3721
53.4591 664 25.7682
53.5756 669 25.865
53.692 600 24.4949
53.8084 569 23.8537
53.9248 673 25.9422
54.0411 628 25.0599
54.1573 606 24.6171
54.2735 0 1
54.3896 0 1
54.5057 0 1
54.6217 0 1
54.7377 0 1
54.8537 0 1
54.9695 0 1
55.0853 0 1
55.2011 0 1
55.3168 0 1
55.4324 0 1
57.824 0 1
57.9396 0 1
58.0553 0 1
58.1711 0 1
58.2869 0 1
58.4028 0 1
58.5187 0 1
58.6347 0 1
58.7508 0 1
58.8669 0 1
58.983 463 21.5174
59.0992 533 23.0868
59.2155 579 24.0624
59.3318 640 25.2982
59.4482 672 25.923
59.5646 775 27.8388
59.681 840 28.9828
59.7975 839 28.9655
59.9141 832 28.8444
60.0306 815 28.5482
60.1473 772 27.7849
60.2639 686 26.1916
60.3807 644 25.3772
60.4974 683 26.1343
60.6142 727 26.9629
60.731 830 28.8097
60.8479 831 28.8271
60.9648 893 29.8831
61.0818 942 30.692
61.1987 879 29.6479
61.3158 863 29.3769
61.4328 932 30.5287
61.5499 902 30.0333
61.667 849 29.1376
61.7841 808 28.4253
61.9013 784 28
62.0185 797 28.2312
62.1357 767 27.6948
62.253 802 28.3196
62.3702 902 30.0333
62.4875 889 29.8161
62.6049 893 29.8831
62.7222 908 30.133
62.8396 913 30.2159
62.9569 920 30.3315
63.0743 993 31.5119
63.1918 886 29.7658
63.3092 906 30.0998
63.4267 879 29.6479
63.5441 804 28.3549
63.6616 758 27.5318
63.7791 701 26.4764
63.8966 606 24.6171
64.0142 628 25.0599
64.1317 718 26.7955
64.2492 778 27.8927
64.3668 862 29.3598
64.4843 925 30.4138
64.6019 887 29.7825
64.7195 876 29.5973
64.837 856 29.2575
64.9546 921 30.348
65.0722 865 29.4109
65.1898 903 30.05
65.3074 799 28.2666
65.4249 782 27.9643
65.5425 752 27.4226
65.6601 815 28.5482
65.7777 820 28.6356
65.8952 820 28.6356
66.0128 905 30.0832
66.1304 860 29.3258
66.2479 787 28.0535
66.3655 863 29.3769
66.483 884 29.7321
66.6005 952 30.8545
66.718 901 30.0167
66.8355 882 29.6985
66.953 923 30.3809
67.0705 813 28.5132
67.1879 782 27.9643
67.3054 746 27.313
67.4228 636 25.219
67.5402 621 24.9199
67.6576 594 24.3721
67.7749 613 24.7588
67.8923 768 27.7128
68.0096 823 28.688
68.1269 806 28.3901
68.2442 844 29.0517
68.3614 919 30.315
68.4787 855 29.2404
68.5958 836 28.9137
68.713 837 28.931
68.8302 847 29.1033
68.9473 796 28.2135
69.0643 801 28.3019
69.1814 789 28.0891
69.2984 745 27.2947
69.4154 793 28.1603
69.5323 801 28.3019
69.6492 834 28.8791
69.7661 863 29.3769
69.8829 841 29
69.9997 839 28.9655
70.1165 825 28.7228
70.2332 862 29.3598
70.3499 805 28.3725
70.4665 773 27.8029
70.5831 675 25.9808
70.6996 711 26.6646
70.8161 664 25.7682
70.9326 595 24.3926
71.049 463 21.5174
71.1653 347 18.6279
71.2817 323 17.9722
71.3979 308 17.5499
71.5141 296 17.2047
71.6303 272 16.4924
71.7464 283 16.8226
71.8624 0 1
71.9784 0 1
72.0944 0 1
72.2102 0 1
72.3261 0 1
72.4418 0 1
72.5575 0 1
72.6732 0 1
75.1054 0 1
75.2209 0 1
75.3365 0 1
75.4521 0 1
75.5678 0 1
75.6835 0 1
75.7993 0 1
75.9151 0 1
76.031 0 1
76.147 458 21.4009
76.263 472 21.7256
76.3791 430 20.7364
76.4952 394 19.8494
76.6113 418 20.445
76.7276 468 21.6333
76.8438 529 23
76.9601 615 24.7992
77.0765 748 27.3496
77.1929 737 27.1477
77.3093 718 26.7955
77.4258 784 28
77.5423 722 26.8701
77.6589 772 27.7849
77.7755 755 27.4773
77.8921 727 26.9629
78.0088 680 26.0768
78.1256 641 25.318
78.2423 607 24.6374
78.3591 619 24.8797
78.4759 655 25.593
78.5928 695 26.3629
78.7097 722 26.8701
78.8266 783 27.9821
78.9436 728 26.9815
79.0606 777 27.8747
79.1776 762 27.6043
79.2946 779 27.9106
79.4117 736 27.1293
79.5288 705 26.5518
79.6459 697 26.4008
79.7631 691 26.2869
79.8802 642 25.3377
79.9974 632 25.1396
80.1147 525 22.9129
80.2319 408 20.199
80.3491 477 21.8403
80.4664 563 23.7276
80.5837 666 25.807
80.701 754 27.4591
80.8183 783 27.9821
80.9357 766 27.6767
81.053 779 27.9106
81.1704 731 27.037
81.2877 687 26.2107
81.4051 795 28.1957
81.5225 691 26.2869
81.6399 726 26.9444
81.7573 646 25.4165
81.8747 661 25.7099
81.9922 655 25.593
82.1096 637 25.2389
82.227 715 26.7395
82.3444 707 26.5895
82.4619 785 28.0179
82.5793 736 27.1293
82.6967 779 27.9106
82.8142 778 27.8927
82.9316 793 28.1603
83.049 773 27.8029
83.1664 768 27.7128
83.2838 752 27.4226
83.4012 675 25.9808
83.5186 665 25.7876
83.636 644 25.3772
83.7534 529 23
83.8708 452 21.2603
83.9881 403 20.0749
84.1055 456 21.3542
84.2228 540 23.2379
84.3401 678 26.0384
84.4575 750 27.3861
84.5747 793 28.1603
84.692 756 27.4955
84.8093 786 28.0357
84.9265 784 28
85.0437 739 27.1846
85.1609 712 26.6833
85.2781 726 26.9444
85.3952 682 26.1151
85.5123 622 24.9399
85.6294 678 26.0384
85.7465 709 26.6271
85.8636 686 26.1916
85.9806 679 26.0576
86.0976 732 27.0555
86.2145 777 27.8747
86.3315 778 27.8927
86.4484 742 27.2397
86.5652 740 27.2029
86.682 758 27.5318
86.7988 780 27.9285
86.9156 732 27.0555
87.0323 782 27.9643
87.149 643 25.3574
87.2657 588 24.2487
87.3823 482 21.9545
87.4988 448 21.166
87.6154 433 20.8087
87.7318 483 21.9773
87.8483 606 24.6171
87.9647 665 25.7876
88.081 707 26.5895
88.1973 656 25.6125
88.3136 696 26.3818
88.4298 640 25.2982
88.546 595 24.3926
88.6621 485 22.0227
88.7781 380 19.4936
88.8942 0 1
89.0101 0 1
89.126 0 1
89.2419 0 1
89.3577 0 1
89.4734 0 1
89.5891 0 1
89.7047 0 1
89.8203 0 1
89.9358 0 1
92.3269 0 1
92.4424 0 1
92.558 0 1
92.6736 0 1
92.7893 0 1
92.905 0 1
93.0208 0 1
93.1366 0 1
93.2525 0 1
93.3685 0 1
93.4845 0 1
93.6005 482 21.9545
93.7167 488 22.0907
93.8328 533 23.0868
93.949 541 23.2594
94.0653 565 23.7697
94.1816 611 24.7184
94.2979 680 26.0768
94.4143 709 26.6271
94.5307 712 26.6833
94.6472 655 25.593
94.7637 694 26.3439
94.8803 693 26.3249
94.9969 693 26.3249
95.1135 696 26.3818
95.2302 736 27.1293
95.3469 787 28.0535
95.4637 756 27.4955
95.5805 778 27.8927
95.6973 809 28.4429
95.8142 830 28.8097
95.9311 776 27.8568
96.048 742 27.2397
96.1649 721 26.8514
96.2819 713 26.7021
96.3989 649 25.4755
96.516 578 24.0416
96.633 527 22.9565
96.7501 397 19.9249
96.8673 442 21.0238
96.9844 419 20.4695
97.1016 523 22.8692
97.2188 618 24.8596
97.336 756 27.4955
97.4532 723 26.8887
97.5704 748 27.3496
97.6877 780 27.9285
97.805 753 27.4408
97.9223 713 26.7021
98.0396 712 26.6833
98.1569 706 26.5707
98.2743 662 25.7294
98.3916 664 25.7682
98.509 707 26.5895
98.6264 727 26.9629
98.7438 677 26.0192
98.8612 730 27.0185
98.9786 710 26.6458
99.096 781 27.9464
99.2134 770 27.7489
99.3308 777 27.8747
99.4482 752 27.4226
99.5656 770 27.7489
99.6831 758 27.5318
99.8005 714 26.7208
99.9179 697 26.4008
100.035 607 24.6374
100.153 568 23.8328
100.27 504 22.4499
100.388 474 21.7715
100.505 549 23.4307
100.622 587 24.2281
100.74 744 27.2764
100.857 743 27.258
100.975 773 27.8029
101.092 709 26.6271
101.209 762 27.6043
101.327 741 27.2213
101.444 742 27.2397
101.561 752 27.4226
101.679 744 27.2764
101.796 681 26.096
101.913 696 26.3818
102.03 670 25.8844
102.148 742 27.2397
102.265 742 27.2397
102.382 789 28.0891
102.499 806 28.3901
102.616 769 27.7308
102.733 810 28.4605
102.851 783 27.9821
102.968 814 28.5307
103.085 765 27.6586
103.202 836 28.9137
103.319 805 28.3725
103.436 741 27.2213
103.552 694 26.3439
103.669 598 24.454
103.786 495 22.2486
103.903 458 21.4009
104.02 514 22.6716
104.137 566 23.7908
104.253 726 26.9444
104.37 822 28.6705
104.487 824 28.7054
104.603 854 29.2233
104.72 783 27.9821
104.836 834 28.8791
104.953 746 27.313
105.069 785 28.0179
105.186 759 27.55
105.302 770 27.7489
105.418 714 26.7208
105.535 709 26.6271
105.651 734 27.0924
105.767 689 26.2488
105.883 669 25.865
105.999 570 23.8747
106.115 0 1
106.231 0 1
106.347 0 1
106.463 0 1
106.579 0 1
106.694 0 1
106.81 0 1
106.926 0 1
107.041 0 1
107.157 0 1
109.576 0 1
109.692 0 1
109.807 0 1
109.923 0 1
110.039 0 1
110.155 0 1
110.27 0 1
110.386 0 1
110.502 0 1
110.618 295 17.1756
110.735 356 18.868
110.851 412 20.2978
110.967 445 21.095
111.083 498 22.3159
111.199 549 23.4307
111.316 607 24.6374
111.432 676 26
111.549 687 26.2107
111.665 683 26.1343
111.782 730 27.0185
111.898 715 26.7395
112.015 679 26.0576
112.132 605 24.5967
112.248 515 22.6936
112.365 413 20.3224
112.482 382 19.5448
112.599 454 21.3073
112.716 477 21.8403
112.832 577 24.0208
112.949 698 26.4197
113.066 734 27.0924
113.183 704 26.533
113.3 662 25.7294
113.417 646 25.4165
113.534 639 25.2784
113.652 641 25.318
113.769 621 24.9199
113.886 655 25.593
114.003 638 25.2587
114.12 636 25.219
114.238 636 25.219
114.355 712 26.6833
114.472 687 26.2107
114.589 643 25.3574
114.707 720 26.8328
114.824 701 26.4764
114.942 737 27.1477
115.059 712 26.6833
115.176 747 27.3313
115.294 702 26.4953
115.411 689 26.2488
115.529 693 26.3249
115.646 598 24.454
115.764 553 23.516
115.881 479 21.8861
115.999 414 20.347
116.116 350 18.7083
116.234 472 21.7256
116.351 589 24.2693
116.469 656 25.6125
116.586 696 26.3818
116.704 694 26.3439
116.821 680 26.0768
116.939 659 25.671
117.056 728 26.9815
117.174 699 26.4386
117.291 640 25.2982
117.409 706 26.5707
117.526 604 24.5764
117.644 621 24.9199
117.761 711 26.6646
117.879 684 26.1534
117.996 637 25.2389
118.114 668 25.8457
118.231 730 27.0185
118.349 700 26.4575
118.466 689 26.2488
118.584 717 26.7769
118.701 724 26.9072
118.819 687 26.2107
118.936 707 26.5895
119.053 698 26.4197
119.171 623 24.96
119.288 536 23.1517
119.405 520 22.8035
119.523 415 20.3715
119.64 392 19.799
119.757 398 19.9499
119.875 498 22.3159
119.992 517 22.7376
120.109 618 24.8596
120.226 596 24.4131
120.343 639 25.2784
120.46 658 25.6515
120.578 669 25.865
120.695 667 25.8263
120.812 614 24.779
120.929 599 24.4745
121.046 613 24.7588
121.163 626 25.02
121.279 604 24.5764
121.396 645 25.3969
121.513 634 25.1794
121.63 635 25.1992
121.747 656 25.6125
121.863 672 25.923
121.98 663 25.7488
122.097 662 25.7294
122.213 613 24.7588
122.33 659 25.671
122.446 603 24.5561
122.563 624 24.98
122.679 512 22.6274
122.795 516 22.7156
122.912 414 20.347
123.028 346 18.6011
123.144 261 16.1555
123.26 216 14.6969
123.377 0 1
123.493 0 1
123.609 0 1
123.725 0 1
123.84 0 1
123.956 0 1
124.072 0 1
124.188 0 1
124.303 0 1
124.419 0 1
126.852 0 1
126.968 0 1
127.083 0 1
127.199 0 1
127.315 0 1
127.431 0 1
127.547 0 1
127.663 0 1
127.779 0 1
127.895 0 1
128.011 0 1
128.127 0 1
128.243 0 1
128.359 516 22.7156
128.476 539 23.2164
128.592 440 20.9762
128.708 405 20.1246
128.825 414 20.347
128.941 480 21.9089
129.058 568 23.8328
129.174 634 25.1794
129.291 680 26.0768
129.408 686 26.1916
129.524 702 26.4953
129.641 724 26.9072
129.758 694 26.3439
129.875 701 26.4764
129.992 699 26.4386
130.108 666 25.807
130.225 689 26.2488
130.342 674 25.9615
130.459 657 25.632
130.576 620 24.8998
130.693 693 26.3249
130.81 712 26.6833
130.928 681 26.096
131.045 732 27.0555
131.162 735 27.1109
131.279 703 26.5141
131.396 687 26.2107
131.513 649 25.4755
131.631 615 24.7992
131.748 631 25.1197
131.865 660 25.6905
131.983 615 24.7992
132.1 498 22.3159
132.217 411 20.2731
132.335 392 19.799
132.452 459 21.4243
132.57 541 23.2594
132.687 635 25.1992
132.804 704 26.533
132.922 700 26.4575
133.039 722 26.8701
133.157 703 26.5141
133.274 671 25.9037
133.392 658 25.6515
133.509 687 26.2107
133.627 720 26.8328
133.744 643 25.3574
133.862 614 24.779
133.979 654 25.5734
134.097 683 26.1343
134.214 620 24.8998
134.332 683 26.1343
134.449 664 25.7682
134.567 682 26.1151
134.684 704 26.533
134.802 654 25.5734
134.919 684 26.1534
135.037 654 25.5734
135.154 636 25.219
135.272 644 25.3772
135.389 615 24.7992
135.507 549 23.4307
135.624 533 23.0868
135.742 411 20.2731
135.859 389 19.7231
135.977 425 20.6155
136.094 516 22.7156
136.211 538 23.1948
136.329 565 23.7697
136.446 648 25.4558
136.564 707 26.5895
136.681 698 26.4197
136.798 683 26.1343
136.915 665 25.7876
137.033 681 26.096
137.15 718 26.7955
137.267 691 26.2869
137.384 696 26.3818
137.502 617 24.8395
137.619 580 24.0832
137.736 651 25.5147
137.853 614 24.779
137.97 688 26.2298
138.087 651 25.5147
138.204 720 26.8328
138.321 661 25.7099
138.438 640 25.2982
138.555 669 25.865
138.672 639 25.2784
138.788 628 25.0599
138.905 600 24.4949
139.022 595 24.3926
139.139 545 23.3452
139.255 516 22.7156
139.372 412 20.2978
139.488 364 19.0788
139.605 394 19.8494
139.721 391 19.7737
139.838 442 21.0238
139.954 504 22.4499
140.071 512 22.6274
140.187 399 19.975
140.303 380 19.4936
140.419 337 18.3576
140.535 335 18.303
140.652 305 17.4642
140.768 0 1
140.884 0 1
141 0 1
141.115 0 1
141.231 0 1
141.347 0 1
141.463 0 1
141.578 0 1
141.694 0 1
144.104 0 1
144.219 0 1
144.335 0 1
144.45 0 1
144.566 0 1
144.682 0 1
144.798 0 1
144.914 0 1
145.03 0 1
145.146 381 19.5192
145.262 428 20.6882
145.378 509 22.561
145.494 508 22.5389
145.61 507 22.5167
145.726 513 22.6495
145.842 498 22.3159
145.959 476 21.8174
146.075 496 22.2711
146.192 531 23.0434
146.308 489 22.1133
146.425 473 21.7486
146.541 428 20.6882
146.658 444 21.0713
146.774 481 21.9317
146.891 476 21.8174
147.008 520 22.8035
147.125 465 21.5639
147.241 505 22.4722
147.358 489 22.1133
147.475 475 21.7945
147.592 472 21.7256
147.709 490 22.1359
147.826 441 21
147.943 415 20.3715
148.06 392 19.799
148.177 345 18.5742
148.294 291 17.0587
148.411 315 17.7482
148.528 354 18.8149
148.645 399 19.975
148.762 447 21.1424
148.88 492 22.1811
148.997 507 22.5167
149.114 484 22
149.231 492 22.1811
149.349 506 22.4944
149.466 463 21.5174
149.583 506 22.4944
149.701 475 21.7945
149.818 468 21.6333
149.935 493 22.2036
150.053 488 22.0907
150.17 511 22.6053
150.287 435 20.8567
150.405 457 21.3776
150.522 465 21.5639
150.64 474 21.7715
150.757 489 22.1133
150.875 476 21.8174
150.992 457 21.3776
151.11 435 20.8567
151.227 451 21.2368
151.344 457 21.3776
151.462 431 20.7605
151.579 428 20.6882
151.697 389 19.7231
151.814 377 19.4165
151.932 319 17.8606
152.049 337 18.3576
152.167 377 19.4165
152.284 378 19.4422
152.402 415 20.3715
152.519 468 21.6333
152.636 480 21.9089
152.754 505 22.4722
152.871 467 21.6102
152.989 465 21.5639
153.106 511 22.6053
153.223 460 21.4476
153.341 499 22.3383
153.458 452 21.2603
153.575 446 21.1187
153.693 488 22.0907
153.81 436 20.8806
153.927 459 21.4243
154.044 488 22.0907
154.162 446 21.1187
154.279 461 21.4709
154.396 433 20.8087
154.513 454 21.3073
154.63 480 21.9089
154.747 491 22.1585
154.864 460 21.4476
154.981 437 20.9045
155.098 417 20.4206
155.215 419 20.4695
155.332 414 20.347
155.449 395 19.8746
155.566 313 17.6918
155.683 378 19.4422
155.8 381 19.5192
155.917 428 20.6882
156.033 469 21.6564
156.15 0 1
156.267 0 1
156.383 0 1
156.5 0 1
156.617 0 1
156.733 0 1
156.85 0 1
156.966 0 1
157.082 0 1
157.199 0 1
157.315 0 1
157.431 0 1
157.547 0 1
157.664 0 1
157.78 0 1
157.896 0 1
158.012 0 1
158.128 0 1
158.244 0 1
158.359 0 1
158.475 0 1
158.591 0 1
158.706 0 1
