
6.15755 0 1
6.2731 0 1
6.3887 0 1
6.50437 0 1
6.62009 0 1
6.73587 0 1
6.8517 0 1
6.96759 0 1
7.08353 0 1
7.19952 0 1
7.31557 0 1
7.43166 0 1
7.54781 0 1
7.664 0 1
7.78024 0 1
7.89653 0 1
8.01286 0 1
8.12924 0 1
8.24567 0 1
8.36213 0 1
8.47864 0 1
8.59519 0 1
8.71178 0 1
8.82841 0 1
8.94508 0 1
9.06179 0 1
9.17853 0 1
9.29531 0 1
9.41212 0 1
9.52897 0 1
9.64584 0 1
9.76276 0 1
9.8797 0 1
9.99667 0 1
10.1137 0 1
10.2307 0 1
10.3478 0 1
10.4648 0 1
10.5819 0 1
10.6991 0 1
10.8162 0 1
10.9334 0 1
11.0506 0 1
11.1678 0 1
11.285 0 1
11.4023 0 1
11.5196 0 1
11.6369 0 1
11.7542 0 1
11.8715 0 1
11.9888 0 1
12.1062 0 1
12.2235 0 1
12.3409 0 1
12.4582 0 1
12.5756 0 1
12.693 0 1
12.8104 0 1
12.9278 0 1
13.0452 0 1
13.1626 0 1
13.28 0 1
13.3974 0 1
13.5149 0 1
13.6323 0 1
13.7497 0 1
13.8671 0 1
13.9845 0 1
14.1019 0 1
14.2193 0 1
14.3367 0 1
14.4541 0 1
14.5714 0 1
14.6888 0 1
14.8062 0 1
14.9235 0 1
15.0408 0 0
15.1581 0 0
15.2755 0 0
15.3927 0 0
15.51 0 0
15.6273 0 0
15.7445 0 0
15.8617 0 0
15.9789 0 0
16.0961 0 0
16.2132 0 0
16.3304 0 0
16.4475 0 0
16.5646 0 0
16.6816 0 0
16.7986 0 0
16.9156 0 0
17.0326 0 0
17.1496 0 0
17.2665 0 0
17.3833 0 0
17.5002 0 0
17.617 0 0
17.7338 0 0
17.8505 0 0
17.9672 0 0
18.0839 0 0
18.2005 0 0
18.3171 0 0
18.4337 0 0
18.5502 0 0
18.6666 0 0
18.7831 0 0
18.8994 0 0
19.0158 0 0
19.1321 0 0
19.2483 0 0
19.3645 0 0
19.4806 0 0
19.5967 0 0
19.7128 0 0
19.8288 0 0
19.9447 0 0
20.0606 0 1
20.1764 0 1
20.2922 0 1
20.4079 0 1
20.5236 0 1
20.6392 0 1
20.7548 0 1
20.8702 0 1
23.3078 0 1
23.4233 0 1
23.539 0 1
23.6547 0 1
23.7704 0 1
23.8862 0 1
24.0021 0 1
24.118 0 1
24.234 0 1
24.35 0 1
24.4661 5036 70.9648
24.5822 5084 71.3022
24.6984 5187 72.0208
24.8146 5449 73.8173
24.9309 5318 72.9246
25.0472 5421 73.6274
25.1636 5646 75.1399
25.28 5700 75.4983
25.3965 5737 75.743
25.513 5739 75.7562
25.6296 5733 75.7166
25.7462 5675 75.3326
25.8628 5342 73.089
25.9795 5339 73.0685
26.0962 5209 72.1734
26.213 5059 71.1266
26.3298 5071 71.211
26.4466 5025 70.8872
26.5635 4899 69.9929
26.6804 4858 69.6994
26.7973 4938 70.2709
26.9143 4750 68.9202
27.0313 4425 66.5207
27.1483 4332 65.8179
27.2653 4317 65.7039
27.3824 4406 66.3777
27.4996 4531 67.3127
27.6167 4656 68.2349
27.7339 4557 67.5056
27.8511 4786 69.1809
27.9683 5094 71.3723
28.0855 5043 71.0141
28.2028 5281 72.6705
28.3201 5099 71.4073
28.4374 5034 70.9507
28.5547 4990 70.6399
28.6721 5049 71.0563
28.7894 4915 70.1071
28.9068 4819 69.419
29.0242 4669 68.3301
29.1416 4459 66.7757
29.259 4395 66.2948
29.3764 4411 66.4154
29.4939 4438 66.6183
29.6113 4423 66.5056
29.7288 4322 65.7419
29.8463 4245 65.1537
29.9638 4336 65.8483
30.0812 4301 65.582
30.1987 4448 66.6933
30.3162 4465 66.8207
30.4337 4267 65.3223
30.5512 4306 65.6201
30.6687 4243 65.1383
30.7862 4113 64.1327
30.9037 4261 65.2763
31.0212 4722 68.7168
31.1387 4839 69.5629
31.2562 4779 69.1303
31.3737 4832 69.5126
31.4912 5115 71.5192
31.6087 5016 70.8237
31.7262 4971 70.5053
31.8436 4788 69.1954
31.9611 4681 68.4178
32.0785 4489 67
32.1959 4318 65.7115
32.3134 4234 65.0692
32.4308 3975 63.0476
32.5482 3867 62.1852
32.6655 3862 62.145
32.7829 3725 61.0328
32.9002 3726 61.041
33.0176 3547 59.5567
33.1349 3695 60.7865
33.2522 3597 59.975
33.3694 3615 60.1249
33.4867 3577 59.808
33.6039 3686 60.7124
33.7211 3697 60.803
33.8383 3759 61.3107
33.9554 3972 63.0238
34.0725 3929 62.6817
34.1896 3900 62.45
34.3067 3907 62.506
34.4237 3689 60.7371
34.5407 3762 61.3351
34.6577 3902 62.466
34.7746 3856 62.0967
34.8915 3693 60.7701
35.0084 3681 60.6712
35.1252 3772 61.4166
35.242 3690 60.7454
35.3587 3727 61.0492
35.4755 3594 59.95
35.5921 3596 59.9667
35.7088 3556 59.6322
35.8254 3449 58.7282
35.9419 3333 57.7321
36.0584 3206 56.6216
36.1749 3290 57.3585
36.2913 3259 57.0877
36.4077 3052 55.2449
36.524 3102 55.6956
36.6403 3052 55.2449
36.7565 3003 54.7996
36.8727 3051 55.2359
36.9889 3072 55.4256
37.1049 3178 56.3738
37.221 0 1
37.3369 0 1
37.4529 0 1
37.5687 0 1
37.6845 0 1
37.8003 0 1
37.916 0 1
38.0316 0 1
38.1472 0 1
40.5851 0 1
40.7008 0 1
40.8164 0 1
40.9322 0 1
41.048 0 1
41.1639 0 1
41.2798 0 1
41.3958 0 1
41.5118 0 1
41.6279 0 1
41.744 2432 49.3153
41.8602 2450 49.4975
41.9765 2551 50.5074
42.0928 2605 51.0392
42.2091 2673 51.7011
42.3255 2557 50.5668
42.4419 2451 49.5076
42.5584 2546 50.4579
42.675 2348 48.4562
42.7915 2348 48.4562
42.9081 2236 47.2864
43.0248 2167 46.551
43.1415 2002 44.7437
43.2582 1851 43.0232
43.375 1972 44.4072
43.4918 2015 44.8888
43.6087 2025 45
43.7256 1942 44.0681
43.8425 1902 43.6119
43.9595 1966 44.3396
44.0765 2003 44.7549
44.1935 2004 44.7661
44.3106 2020 44.9444
44.4277 1962 44.2945
44.5448 1937 44.0114
44.6619 1920 43.8178
44.7791 1808 42.5206
44.8963 1878 43.3359
45.0136 1932 43.9545
45.1308 1873 43.2782
45.2481 1910 43.7035
45.3654 1959 44.2606
45.4827 1938 44.0227
45.6001 1887 43.4396
45.7174 1906 43.6578
45.8348 1816 42.6146
45.9522 1689 41.0974
46.0697 1640 40.4969
46.1871 1521 39
46.3046 1519 38.9744
46.422 1595 39.9375
46.5395 1360 36.8782
46.657 1303 36.0971
46.7745 1261 35.5106
46.892 1306 36.1386
47.0096 1287 35.8748
47.1271 1352 36.7696
47.2446 1320 36.3318
47.3622 1285 35.8469
47.4797 1304 36.1109
47.5973 1288 35.8887
47.7149 1390 37.2827
47.8324 1284 35.8329
47.95 1365 36.9459
48.0675 1287 35.8748
48.1851 1265 35.5668
48.3027 1255 35.426
48.4202 1347 36.7015
48.5378 1362 36.9053
48.6554 1409 37.5366
48.7729 1401 37.4299
48.8904 1384 37.2022
49.008 1334 36.524
49.1255 1289 35.9026
49.243 1401 37.4299
49.3605 1334 36.524
49.478 1330 36.4692
49.5955 1352 36.7696
49.713 1299 36.0416
49.8304 1297 36.0139
49.9479 1342 36.6333
50.0653 1225 35
50.1827 1187 34.4529
50.3001 1100 33.1662
50.4175 1165 34.1321
50.5348 1193 34.5398
50.6521 1305 36.1248
50.7694 1401 37.4299
50.8867 1355 36.8103
51.004 1392 37.3095
51.1212 1496 38.6782
51.2384 1485 38.5357
51.3556 1529 39.1024
51.4727 1553 39.4081
51.5899 1512 38.8844
51.707 1562 39.5221
51.824 1530 39.1152
51.9411 1582 39.7744
52.0581 1620 40.2492
52.175 1656 40.694
52.2919 1661 40.7554
52.4088 1728 41.5692
52.5257 1665 40.8044
52.6425 1599 39.9875
52.7593 1691 41.1218
52.876 1678 40.9634
52.9927 1773 42.107
53.1094 1684 41.0366
53.226 1704 41.2795
53.3426 1766 42.0238
53.4591 1644 40.5463
53.5756 1697 41.1947
53.692 1698 41.2068
53.8084 1548 39.3446
53.9248 1520 38.9872
54.0411 1448 38.0526
54.1573 1553 39.4081
54.2735 0 1
54.3896 0 1
54.5057 0 1
54.6217 0 1
54.7377 0 1
54.8537 0 1
54.9695 0 1
55.0853 0 1
55.2011 0 1
55.3168 0 1
55.4324 0 1
57.824 0 1
57.9396 0 1
58.0553 0 1
58.1711 0 1
58.2869 0 1
58.4028 0 1
58.5187 0 1
58.6347 0 1
58.7508 0 1
58.8669 0 1
58.983 1842 42.9185
59.0992 1752 41.8569
59.2155 1868 43.2204
59.3318 1915 43.7607
59.4482 1934 43.9773
59.5646 2010 44.833
59.681 2013 44.8665
59.7975 2151 46.3789
59.9141 2214 47.0532
60.0306 2288 47.833
60.1473 2262 47.5605
60.2639 2318 48.1456
60.3807 2292 47.8748
60.4974 2312 48.0833
60.6142 2493 49.93
60.731 2410 49.0918
60.8479 2501 50.01
60.9648 2480 49.7996
61.0818 2592 50.9117
61.1987 2555 50.547
61.3158 2486 49.8598
61.4328 2406 49.051
61.5499 2462 49.6185
61.667 2500 50
61.7841 2374 48.7237
61.9013 2454 49.5379
62.0185 2472 49.7192
62.1357 2439 49.3862
62.253 2388 48.8672
62.3702 2218 47.0956
62.4875 2229 47.2123
62.6049 2237 47.2969
62.7222 2248 47.4131
62.8396 2284 47.7912
62.9569 2312 48.0833
63.0743 2379 48.775
63.1918 2362 48.6004
63.3092 2507 50.07
63.4267 2558 50.5767
63.5441 2499 49.99
63.6616 2536 50.3587
63.7791 2630 51.2835
63.8966 2604 51.0294
64.0142 2696 51.923
64.1317 2541 50.4083
64.2492 2583 50.8232
64.3668 2613 51.1175
64.4843 2710 52.0577
64.6019 2739 52.3355
64.7195 2661 51.5849
64.837 2541 50.4083
64.9546 2725 52.2015
65.0722 2587 50.8626
65.1898 2517 50.1697
65.3074 2458 49.5782
65.4249 2456 49.558
65.5425 2380 48.7852
65.6601 2380 48.7852
65.7777 2369 48.6724
65.8952 2196 46.8615
66.0128 2077 45.5741
66.1304 1945 44.1022
66.2479 2041 45.1774
66.3655 1999 44.7102
66.483 2072 45.5192
66.6005 2163 46.5081
66.718 2128 46.1303
66.8355 2095 45.7712
66.953 2174 46.6262
67.0705 2164 46.5188
67.1879 2183 46.7226
67.3054 2220 47.1169
67.4228 2101 45.8367
67.5402 2156 46.4327
67.6576 2090 45.7165
67.7749 2157 46.4435
67.8923 2242 47.3498
68.0096 2241 47.3392
68.1269 2226 47.1805
68.2442 2159 46.465
68.3614 2063 45.4203
68.4787 2185 46.744
68.5958 2254 47.4763
68.713 2190 46.7974
68.8302 2052 45.299
68.9473 1987 44.5758
69.0643 1919 43.8064
69.1814 1968 44.3621
69.2984 1885 43.4166
69.4154 1916 43.7721
69.5323 1885 43.4166
69.6492 1769 42.0595
69.7661 1691 41.1218
69.8829 1554 39.4208
69.9997 1706 41.3038
70.1165 1767 42.0357
70.2332 1755 41.8927
70.3499 1757 41.9166
70.4665 1691 41.1218
70.5831 1710 41.3521
70.6996 1834 42.8252
70.8161 1781 42.2019
70.9326 1726 41.5452
71.049 1810 42.5441
71.1653 1730 41.5933
71.2817 1667 40.8289
71.3979 1712 41.3763
71.5141 1654 40.6694
71.6303 1635 40.4351
71.7464 1563 39.5348
71.8624 0 1
71.9784 0 1
72.0944 0 1
72.2102 0 1
72.3261 0 1
72.4418 0 1
72.5575 0 1
72.6732 0 1
75.1054 0 1
75.2209 0 1
75.3365 0 1
75.4521 0 1
75.5678 0 1
75.6835 0 1
75.7993 0 1
75.9151 0 1
76.031 0 1
76.147 1529 39.1024
76.263 1654 40.6694
76.3791 1665 40.8044
76.4952 1714 41.4005
76.6113 1736 41.6653
76.7276 1776 42.1426
76.8438 1736 41.6653
76.9601 1808 42.5206
77.0765 1902 43.6119
77.1929 1914 43.7493
77.3093 1912 43.7264
77.4258 1880 43.359
77.5423 1862 43.1509
77.6589 1887 43.4396
77.7755 1871 43.2551
77.8921 1904 43.6348
78.0088 1782 42.2137
78.1256 1855 43.0697
78.2423 1858 43.1045
78.3591 1815 42.6028
78.4759 1743 41.7493
78.5928 1709 41.3401
78.7097 1625 40.3113
78.8266 1594 39.9249
78.9436 1391 37.2961
79.0606 1535 39.1791
79.1776 1569 39.6106
79.2946 1636 40.4475
79.4117 1650 40.6202
79.5288 1658 40.7185
79.6459 1759 41.9404
79.7631 1710 41.3521
79.8802 1773 42.107
79.9974 1805 42.4853
80.1147 1927 43.8976
80.2319 1878 43.3359
80.3491 1861 43.1393
80.4664 1945 44.1022
80.5837 1881 43.3705
80.701 1994 44.6542
80.8183 1990 44.6094
80.9357 1967 44.3509
81.053 2086 45.6727
81.1704 1956 44.2267
81.2877 2055 45.3321
81.4051 1991 44.6206
81.5225 1936 44
81.6399 1774 42.1189
81.7573 1846 42.9651
81.8747 1871 43.2551
81.9922 1799 42.4146
82.1096 1882 43.382
82.227 1699 41.2189
82.3444 1732 41.6173
82.4619 1555 39.4335
82.5793 1479 38.4578
82.6967 1638 40.4722
82.8142 1581 39.7618
82.9316 1550 39.37
83.049 1659 40.7308
83.1664 1618 40.2244
83.2838 1656 40.694
83.4012 1768 42.0476
83.5186 1768 42.0476
83.636 1800 42.4264
83.7534 1861 43.1393
83.8708 1887 43.4396
83.9881 1849 43
84.1055 1789 42.2966
84.2228 1872 43.2666
84.3401 1933 43.9659
84.4575 1930 43.9318
84.5747 1946 44.1135
84.692 1893 43.5086
84.8093 1954 44.2041
84.9265 1952 44.1814
85.0437 1985 44.5533
85.1609 1907 43.6692
85.2781 1898 43.566
85.3952 1848 42.9884
85.5123 1941 44.0568
85.6294 1841 42.9069
85.7465 1799 42.4146
85.8636 1833 42.8135
85.9806 1609 40.1123
86.0976 1608 40.0999
86.2145 1605 40.0625
86.3315 1550 39.37
86.4484 1805 42.4853
86.5652 1699 41.2189
86.682 1744 41.7612
86.7988 1703 41.2674
86.9156 1861 43.1393
87.0323 1913 43.7379
87.149 1909 43.6921
87.2657 2051 45.288
87.3823 2012 44.8553
87.4988 1996 44.6766
87.6154 2121 46.0543
87.7318 2080 45.607
87.8483 2173 46.6154
87.9647 2169 46.5725
88.081 2149 46.3573
88.1973 2131 46.1628
88.3136 2212 47.0319
88.4298 2213 47.0425
88.546 2180 46.6905
88.6621 2173 46.6154
88.7781 2038 45.1442
88.8942 0 1
89.0101 0 1
89.126 0 1
89.2419 0 1
89.3577 0 1
89.4734 0 1
89.5891 0 1
89.7047 0 1
89.8203 0 1
89.9358 0 1
92.3269 0 1
92.4424 0 1
92.558 0 1
92.6736 0 1
92.7893 0 1
92.905 0 1
93.0208 0 1
93.1366 0 1
93.2525 0 1
93.3685 0 1
93.4845 0 1
93.6005 2180 46.6905
93.7167 2170 46.5833
93.8328 2209 47
93.949 2209 47
94.0653 2221 47.1275
94.1816 2142 46.2817
94.2979 2117 46.0109
94.4143 2071 45.5082
94.5307 2087 45.6837
94.6472 2145 46.3141
94.7637 2098 45.8039
94.8803 2003 44.7549
94.9969 1917 43.7836
95.1135 1891 43.4856
95.2302 1879 43.3474
95.3469 1751 41.845
95.4637 1789 42.2966
95.5805 1785 42.2493
95.6973 1950 44.1588
95.8142 1977 44.4635
95.9311 1929 43.9204
96.048 1989 44.5982
96.1649 2082 45.6289
96.2819 2126 46.1086
96.3989 2229 47.2123
96.516 2296 47.9166
96.633 2427 49.2646
96.7501 2291 47.8644
96.8673 2330 48.2701
96.9844 2394 48.9285
97.1016 2510 50.0999
97.2188 2401 49
97.336 2528 50.2792
97.4532 2535 50.3488
97.5704 2478 49.7795
97.6877 2562 50.6162
97.805 2407 49.0612
97.9223 2408 49.0714
98.0396 2419 49.1833
98.1569 2330 48.2701
98.2743 2306 48.0208
98.3916 2220 47.1169
98.509 2243 47.3603
98.6264 2083 45.6399
98.7438 2134 46.1952
98.8612 1977 44.4635
98.9786 1945 44.1022
99.096 1841 42.9069
99.2134 1920 43.8178
99.3308 2018 44.9222
99.4482 2059 45.3762
99.5656 2075 45.5522
99.6831 2193 46.8295
99.8005 2150 46.3681
99.9179 2223 47.1487
100.035 2204 46.9468
100.153 2364 48.621
100.27 2330 48.2701
100.388 2432 49.3153
100.505 2455 49.548
100.622 2491 49.9099
100.74 2555 50.547
100.857 2509 50.0899
100.975 2666 51.6333
101.092 2538 50.3786
101.209 2634 51.3225
101.327 2633 51.3128
101.444 2616 51.1468
101.561 2596 50.951
101.679 2454 49.5379
101.796 2458 49.5782
101.913 2362 48.6004
102.03 2419 49.1833
102.148 2366 48.6415
102.265 2471 49.7092
102.382 2147 46.3357
102.499 2133 46.1844
102.616 2122 46.0652
102.733 2188 46.7761
102.851 2246 47.392
102.968 2267 47.613
103.085 2265 47.592
103.202 2360 48.5798
103.319 2396 48.949
103.436 2419 49.1833
103.552 2558 50.5767
103.669 2587 50.8626
103.786 2582 50.8134
103.903 2761 52.5452
104.02 2681 51.7784
104.137 2808 52.9906
104.253 3065 55.3624
104.37 2925 54.0833
104.487 3023 54.9818
104.603 2919 54.0278
104.72 2941 54.231
104.836 2970 54.4977
104.953 2933 54.1572
105.069 2841 53.301
105.186 3024 54.9909
105.302 2947 54.2863
105.418 2882 53.6843
105.535 3046 55.1906
105.651 2879 53.6563
105.767 2874 53.6097
105.883 2746 52.4023
105.999 2657 51.5461
106.115 0 1
106.231 0 1
106.347 0 1
106.463 0 1
106.579 0 1
106.694 0 1
106.81 0 1
106.926 0 1
107.041 0 1
107.157 0 1
109.576 0 1
109.692 0 1
109.807 0 1
109.923 0 1
110.039 0 1
110.155 0 1
110.27 0 1
110.386 0 1
110.502 0 1
110.618 4144 64.3739
110.735 4046 63.6082
110.851 3979 63.0793
110.967 3800 61.6441
111.083 3693 60.7701
111.199 3549 59.5735
111.316 3663 60.5227
111.432 3774 61.4329
111.549 3997 63.2218
111.665 3818 61.79
111.782 3797 61.6198
111.898 3968 62.9921
112.015 4095 63.9922
112.132 4064 63.7495
112.248 4044 63.5925
112.365 4164 64.5291
112.482 4094 63.9844
112.599 4091 63.9609
112.716 4176 64.622
112.832 4256 65.238
112.949 4217 64.9384
113.066 4229 65.0308
113.183 4221 64.9692
113.3 4184 64.6838
113.417 4068 63.7809
113.534 4036 63.5295
113.652 3969 63
113.769 3992 63.1823
113.886 3808 61.709
114.003 3811 61.7333
114.12 3754 61.2699
114.238 3756 61.2862
114.355 3696 60.7947
114.472 3477 58.9661
114.589 3338 57.7754
114.707 3186 56.4447
114.824 3166 56.2672
114.942 3349 57.8705
115.059 3390 58.2237
115.176 3432 58.5833
115.294 3397 58.2838
115.411 3586 59.8832
115.529 3648 60.3987
115.646 3782 61.498
115.764 3749 61.2291
115.881 3756 61.2862
115.999 3815 61.7657
116.116 3902 62.466
116.234 4035 63.5216
116.351 4004 63.2772
116.469 4081 63.8827
116.586 4045 63.6003
116.704 4089 63.9453
116.821 4034 63.5138
116.939 4124 64.2184
117.056 4105 64.0703
117.174 3885 62.3298
117.291 3998 63.2297
117.409 3958 62.9126
117.526 3822 61.8223
117.644 3833 61.9112
117.761 3806 61.6928
117.879 3886 62.3378
117.996 3759 61.3107
118.114 3570 59.7495
118.231 3357 57.9396
118.349 3300 57.4456
118.466 3376 58.1034
118.584 3547 59.5567
118.701 3557 59.6406
118.819 3531 59.4222
118.936 3489 59.0678
119.053 3604 60.0333
119.171 3778 61.4654
119.288 3774 61.4329
119.405 3816 61.7738
119.523 3796 61.6117
119.64 4003 63.2693
119.757 3870 62.2093
119.875 3870 62.2093
119.992 4011 63.3325
120.109 3881 62.2977
120.226 3964 62.9603
120.343 3963 62.9524
120.46 4028 63.4665
120.578 4050 63.6396
120.695 3870 62.2093
120.812 3917 62.5859
120.929 3833 61.9112
121.046 3807 61.7009
121.163 3792 61.5792
121.279 3855 62.0886
121.396 3730 61.0737
121.513 3639 60.3241
121.63 3801 61.6523
121.747 3579 59.8247
121.863 3491 59.0847
121.98 3265 57.1402
122.097 3204 56.6039
122.213 3164 56.2494
122.33 3386 58.1893
122.446 3404 58.3438
122.563 3275 57.2276
122.679 3416 58.4466
122.795 3448 58.7197
122.912 3484 59.0254
123.028 3558 59.649
123.144 3560 59.6657
123.26 3566 59.716
123.377 0 1
123.493 0 1
123.609 0 1
123.725 0 1
123.84 0 1
123.956 0 1
124.072 0 1
124.188 0 1
124.303 0 1
124.419 0 1
126.852 0 1
126.968 0 1
127.083 0 1
127.199 0 1
127.315 0 1
127.431 0 1
127.547 0 1
127.663 0 1
127.779 0 1
127.895 0 1
128.011 0 1
128.127 0 1
128.243 0 1
128.359 3762 61.3351
128.476 3646 60.3821
128.592 3686 60.7124
128.708 3687 60.7207
128.825 3528 59.397
128.941 3605 60.0417
129.058 3642 60.349
129.174 3600 60
129.291 3603 60.025
129.408 3577 59.808
129.524 3406 58.3609
129.641 3454 58.7707
129.758 3217 56.7186
129.875 3207 56.6304
129.992 3172 56.3205
130.108 2907 53.9166
130.225 2955 54.3599
130.342 2936 54.1849
130.459 2745 52.3927
130.576 2783 52.7541
130.693 2686 51.8266
130.81 2483 49.8297
130.928 2382 48.8057
131.045 2391 48.8979
131.162 2404 49.0306
131.279 2507 50.07
131.396 2536 50.3587
131.513 2586 50.8527
131.631 2607 51.0588
131.748 2633 51.3128
131.865 2730 52.2494
131.983 2686 51.8266
132.1 2799 52.9056
132.217 2787 52.792
132.335 2926 54.0925
132.452 3009 54.8544
132.57 3115 55.8122
132.687 2955 54.3599
132.804 3179 56.3826
132.922 3060 55.3173
133.039 2933 54.1572
133.157 2978 54.5711
133.274 2966 54.461
133.392 3015 54.909
133.509 3014 54.8999
133.627 2903 53.8795
133.744 2896 53.8145
133.862 2837 53.2635
133.979 2857 53.4509
134.097 2792 52.8394
134.214 2920 54.037
134.332 2640 51.3809
134.449 2703 51.9904
134.567 2627 51.2543
134.684 2693 51.8941
134.802 2712 52.0769
134.919 2808 52.9906
135.037 2761 52.5452
135.154 2877 53.6377
135.272 3003 54.7996
135.389 2983 54.6168
135.507 3134 55.9821
135.624 3143 56.0625
135.742 3191 56.4889
135.859 3165 56.2583
135.977 3183 56.4181
136.094 3315 57.576
136.211 3386 58.1893
136.329 3360 57.9655
136.446 3359 57.9569
136.564 3366 58.0172
136.681 3460 58.8218
136.798 3319 57.6108
136.915 3244 56.9561
137.033 3170 56.3028
137.15 3115 55.8122
137.267 3224 56.7803
137.384 3070 55.4076
137.502 3131 55.9553
137.619 3250 57.0088
137.736 3099 55.6687
137.853 3006 54.827
137.97 2932 54.1479
138.087 3046 55.1906
138.204 2938 54.2033
138.321 2880 53.6656
138.438 3130 55.9464
138.555 3306 57.4978
138.672 3452 58.7537
138.788 3379 58.1292
138.905 3682 60.6795
139.022 3968 62.9921
139.139 3864 62.1611
139.255 4102 64.0469
139.372 4196 64.7765
139.488 4319 65.7191
139.605 4482 66.9477
139.721 4473 66.8805
139.838 4682 68.4251
139.954 4803 69.3037
140.071 4936 70.2567
140.187 5277 72.643
140.303 5351 73.1505
140.419 5803 76.1774
140.535 6058 77.8332
140.652 6195 78.7083
140.768 0 1
140.884 0 1
141 0 1
141.115 0 1
141.231 0 1
141.347 0 1
141.463 0 1
141.578 0 1
141.694 0 1
144.104 0 1
144.219 0 1
144.335 0 1
144.45 0 1
144.566 0 1
144.682 0 1
144.798 0 1
144.914 0 1
145.03 0 1
145.146 6143 78.3773
145.262 6262 79.1328
145.378 6149 78.4156
145.494 6290 79.3095
145.61 6423 80.1436
145.726 6329 79.555
145.842 6390 79.9375
145.959 6585 81.148
146.075 6845 82.7345
146.192 6908 83.1144
146.308 7259 85.1998
146.425 7125 84.4097
146.541 7240 85.0882
146.658 6854 82.7889
146.774 6497 80.604
146.891 6429 80.181
147.008 6410 80.0625
147.125 6544 80.895
147.241 6784 82.365
147.358 6580 81.1172
147.475 6537 80.8517
147.592 6796 82.4379
147.709 6604 81.265
147.826 6649 81.5414
147.943 6662 81.6211
148.06 6408 80.05
148.177 6366 79.7872
148.294 6351 79.6932
148.411 6252 79.0696
148.528 6210 78.8036
148.645 6101 78.1089
148.762 6271 79.1896
148.88 6338 79.6116
148.997 6002 77.4726
149.114 6661 81.6149
149.231 6426 80.1623
149.349 6458 80.3617
149.466 6602 81.2527
149.583 6453 80.3306
149.701 6609 81.2958
149.818 6662 81.6211
149.935 6841 82.7103
150.053 6652 81.5598
150.17 6626 81.4002
150.287 6496 80.5978
150.405 6079 77.9679
150.522 5947 77.1168
150.64 5954 77.1622
150.757 6014 77.55
150.875 5958 77.1881
150.992 5970 77.2658
151.11 5665 75.2662
151.227 6077 77.9551
151.344 6241 79
151.462 6287 79.2906
151.579 6300 79.3725
151.697 6234 78.9557
151.814 6457 80.3555
151.932 6416 80.0999
152.049 6255 79.0886
152.167 6385 79.9062
152.284 6445 80.2808
152.402 6538 80.8579
152.519 6473 80.455
152.636 6549 80.9259
152.754 6695 81.823
152.871 6626 81.4002
152.989 6576 81.0925
153.106 6933 83.2646
153.223 6848 82.7526
153.341 6875 82.9156
153.458 6752 82.1706
153.575 6806 82.4985
153.693 6801 82.4682
153.81 6645 81.5169
153.927 6420 80.1249
154.044 6182 78.6257
154.162 5890 76.7463
154.279 6026 77.6273
154.396 6198 78.7274
154.513 6374 79.8373
154.63 6365 79.781
154.747 6443 80.2683
154.864 6518 80.7341
154.981 6798 82.45
155.098 6862 82.8372
155.215 7055 83.994
155.332 7063 84.0417
155.449 7152 84.5695
155.566 7312 85.5102
155.683 7338 85.6621
155.8 7376 85.8836
155.917 7580 87.0632
156.033 7725 87.892
156.15 0 1
156.267 0 1
156.383 0 1
156.5 0 1
156.617 0 1
156.733 0 1
156.85 0 1
156.966 0 1
157.082 0 1
157.199 0 1
157.315 0 1
157.431 0 1
157.547 0 1
157.664 0 1
157.78 0 1
157.896 0 1
158.012 0 1
158.128 0 1
158.244 0 1
158.359 0 1
158.475 0 1
158.591 0 1
158.706 0 1
