
6.15755 0 1
6.2731 0 1
6.3887 0 1
6.50437 0 1
6.62009 0 1
6.73587 0 1
6.8517 0 1
6.96759 0 1
7.08353 0 1
7.19952 0 1
7.31557 0 1
7.43166 0 1
7.54781 0 1
7.664 0 1
7.78024 0 1
7.89653 0 1
8.01286 0 1
8.12924 0 1
8.24567 0 1
8.36213 0 1
8.47864 0 1
8.59519 0 1
8.71178 0 1
8.82841 0 1
8.94508 0 1
9.06179 0 1
9.17853 0 1
9.29531 0 1
9.41212 0 1
9.52897 0 1
9.64584 0 1
9.76276 0 1
9.8797 0 1
9.99667 0 1
10.1137 0 1
10.2307 0 1
10.3478 0 1
10.4648 0 1
10.5819 0 1
10.6991 0 1
10.8162 0 1
10.9334 0 1
11.0506 0 1
11.1678 0 1
11.285 0 1
11.4023 0 1
11.5196 0 1
11.6369 0 1
11.7542 0 1
11.8715 0 1
11.9888 0 1
12.1062 0 1
12.2235 0 1
12.3409 0 1
12.4582 0 1
12.5756 0 1
12.693 0 1
12.8104 0 1
12.9278 0 1
13.0452 0 1
13.1626 0 1
13.28 0 1
13.3974 0 1
13.5149 0 1
13.6323 0 1
13.7497 0 1
13.8671 0 1
13.9845 0 1
14.1019 0 1
14.2193 0 1
14.3367 0 1
14.4541 0 1
14.5714 0 1
14.6888 0 1
14.8062 0 1
14.9235 0 1
15.0408 943 30.7083
15.1581 1125 33.541
15.2755 1182 34.3802
15.3927 1185 34.4238
15.51 1123 33.5112
15.6273 1101 33.1813
15.7445 1125 33.541
15.8617 1089 33
15.9789 1091 33.0303
16.0961 1058 32.5269
16.2132 1102 33.1964
16.3304 1045 32.3265
16.4475 1026 32.0312
16.5646 1086 32.9545
16.6816 1050 32.4037
16.7986 991 31.4802
16.9156 968 31.1127
17.0326 980 31.305
17.1496 989 31.4484
17.2665 926 30.4302
17.3833 893 29.8831
17.5002 918 30.2985
17.617 945 30.7409
17.7338 859 29.3087
17.8505 926 30.4302
17.9672 865 29.4109
18.0839 912 30.1993
18.2005 907 30.1164
18.3171 932 30.5287
18.4337 902 30.0333
18.5502 894 29.8998
18.6666 954 30.8869
18.7831 952 30.8545
18.8994 921 30.348
19.0158 898 29.9666
19.1321 898 29.9666
19.2483 845 29.0689
19.3645 803 28.3373
19.4806 758 27.5318
19.5967 718 26.7955
19.7128 674 25.9615
19.8288 650 25.4951
19.9447 551 23.4734
20.0606 0 1
20.1764 0 1
20.2922 0 1
20.4079 0 1
20.5236 0 1
20.6392 0 1
20.7548 0 1
20.8702 0 1
23.3078 0 1
23.4233 0 1
23.539 0 1
23.6547 0 1
23.7704 0 1
23.8862 0 1
24.0021 0 1
24.118 0 1
24.234 0 1
24.35 0 1
24.4661 416 20.3961
24.5822 489 22.1133
24.6984 508 22.5389
24.8146 590 24.2899
24.9309 705 26.5518
25.0472 800 28.2843
25.1636 874 29.5635
25.28 885 29.7489
25.3965 974 31.209
25.513 981 31.3209
25.6296 1005 31.7017
25.7462 970 31.1448
25.8628 976 31.241
25.9795 975 31.225
26.0962 982 31.3369
26.213 853 29.2062
26.3298 826 28.7402
26.4466 783 27.9821
26.5635 779 27.9106
26.6804 774 27.8209
26.7973 760 27.5681
26.9143 763 27.6225
27.0313 759 27.55
27.1483 739 27.1846
27.2653 802 28.3196
27.3824 816 28.5657
27.4996 870 29.4958
27.6167 794 28.178
27.7339 869 29.4788
27.8511 793 28.1603
27.9683 818 28.6007
28.0855 898 29.9666
28.2028 859 29.3087
28.3201 856 29.2575
28.4374 814 28.5307
28.5547 879 29.6479
28.6721 861 29.3428
28.7894 816 28.5657
28.9068 879 29.6479
29.0242 801 28.3019
29.1416 823 28.688
29.259 847 29.1033
29.3764 834 28.8791
29.4939 825 28.7228
29.6113 765 27.6586
29.7288 696 26.3818
29.8463 721 26.8514
29.9638 675 25.9808
30.0812 707 26.5895
30.1987 785 28.0179
30.3162 783 27.9821
30.4337 779 27.9106
30.5512 736 27.1293
30.6687 745 27.2947
30.7862 780 27.9285
30.9037 847 29.1033
31.0212 831 28.8271
31.1387 851 29.1719
31.2562 818 28.6007
31.3737 840 28.9828
31.4912 796 28.2135
31.6087 783 27.9821
31.7262 806 28.3901
31.8436 851 29.1719
31.9611 822 28.6705
32.0785 855 29.2404
32.1959 765 27.6586
32.3134 847 29.1033
32.4308 798 28.2489
32.5482 731 27.037
32.6655 760 27.5681
32.7829 708 26.6083
32.9002 739 27.1846
33.0176 725 26.9258
33.1349 709 26.6271
33.2522 717 26.7769
33.3694 608 24.6577
33.4867 635 25.1992
33.6039 676 26
33.7211 705 26.5518
33.8383 692 26.3059
33.9554 778 27.8927
34.0725 731 27.037
34.1896 719 26.8142
34.3067 724 26.9072
34.4237 743 27.258
34.5407 748 27.3496
34.6577 750 27.3861
34.7746 739 27.1846
34.8915 725 26.9258
35.0084 714 26.7208
35.1252 729 27
35.242 735 27.1109
35.3587 661 25.7099
35.4755 713 26.7021
35.5921 767 27.6948
35.7088 749 27.3679
35.8254 722 26.8701
35.9419 702 26.4953
36.0584 721 26.8514
36.1749 677 26.0192
36.2913 656 25.6125
36.4077 652 25.5343
36.524 638 25.2587
36.6403 592 24.3311
36.7565 510 22.5832
36.8727 452 21.2603
36.9889 421 20.5183
37.1049 411 20.2731
37.221 0 1
37.3369 0 1
37.4529 0 1
37.5687 0 1
37.6845 0 1
37.8003 0 1
37.916 0 1
38.0316 0 1
38.1472 0 1
40.5851 0 1
40.7008 0 1
40.8164 0 1
40.9322 0 1
41.048 0 1
41.1639 0 1
41.2798 0 1
41.3958 0 1
41.5118 0 1
41.6279 0 1
41.744 323 17.9722
41.8602 364 19.0788
41.9765 390 19.7484
42.0928 407 20.1742
42.2091 477 21.8403
42.3255 498 22.3159
42.4419 525 22.9129
42.5584 550 23.4521
42.675 579 24.0624
42.7915 563 23.7276
42.9081 525 22.9129
43.0248 561 23.6854
43.1415 529 23
43.2582 534 23.1084
43.375 534 23.1084
43.4918 580 24.0832
43.6087 576 24
43.7256 507 22.5167
43.8425 534 23.1084
43.9595 542 23.2809
44.0765 541 23.2594
44.1935 547 23.388
44.3106 578 24.0416
44.4277 592 24.3311
44.5448 576 24
44.6619 560 23.6643
44.7791 559 23.6432
44.8963 560 23.6643
45.0136 538 23.1948
45.1308 594 24.3721
45.2481 566 23.7908
45.3654 580 24.0832
45.4827 552 23.4947
45.6001 535 23.1301
45.7174 578 24.0416
45.8348 518 22.7596
45.9522 501 22.383
46.0697 567 23.8118
46.1871 530 23.0217
46.3046 544 23.3238
46.422 563 23.7276
46.5395 524 22.891
46.657 550 23.4521
46.7745 533 23.0868
46.892 544 23.3238
47.0096 540 23.2379
47.1271 562 23.7065
47.2446 598 24.454
47.3622 541 23.2594
47.4797 507 22.5167
47.5973 530 23.0217
47.7149 554 23.5372
47.8324 588 24.2487
47.95 570 23.8747
48.0675 543 23.3024
48.1851 573 23.9374
48.3027 580 24.0832
48.4202 598 24.454
48.5378 551 23.4734
48.6554 571 23.8956
48.7729 578 24.0416
48.8904 537 23.1733
49.008 527 22.9565
49.1255 521 22.8254
49.243 568 23.8328
49.3605 518 22.7596
49.478 530 23.0217
49.5955 510 22.5832
49.713 560 23.6643
49.8304 560 23.6643
49.9479 556 23.5797
50.0653 597 24.4336
50.1827 597 24.4336
50.3001 543 23.3024
50.4175 521 22.8254
50.5348 558 23.622
50.6521 612 24.7386
50.7694 570 23.8747
50.8867 512 22.6274
51.004 499 22.3383
51.1212 501 22.383
51.2384 532 23.0651
51.3556 582 24.1247
51.4727 617 24.8395
51.5899 587 24.2281
51.707 584 24.1661
51.824 574 23.9583
51.9411 619 24.8797
52.0581 501 22.383
52.175 568 23.8328
52.2919 529 23
52.4088 528 22.9783
52.5257 557 23.6008
52.6425 534 23.1084
52.7593 512 22.6274
52.876 488 22.0907
52.9927 464 21.5407
53.1094 484 22
53.226 479 21.8861
53.3426 488 22.0907
53.4591 493 22.2036
53.5756 546 23.3666
53.692 565 23.7697
53.8084 597 24.4336
53.9248 641 25.318
54.0411 656 25.6125
54.1573 594 24.3721
54.2735 0 1
54.3896 0 1
54.5057 0 1
54.6217 0 1
54.7377 0 1
54.8537 0 1
54.9695 0 1
55.0853 0 1
55.2011 0 1
55.3168 0 1
55.4324 0 1
57.824 0 1
57.9396 0 1
58.0553 0 1
58.1711 0 1
58.2869 0 1
58.4028 0 1
58.5187 0 1
58.6347 0 1
58.7508 0 1
58.8669 0 1
58.983 6537 80.8517
59.0992 8287 91.033
59.2155 9529 97.6166
59.3318 10860 104.211
59.4482 11607 107.736
59.5646 12425 111.467
59.681 13394 115.732
59.7975 13978 118.229
59.9141 15093 122.854
60.0306 16366 127.93
60.1473 17578 132.582
60.2639 18551 136.202
60.3807 18130 134.648
60.4974 18047 134.339
60.6142 16845 129.788
60.731 15959 126.329
60.8479 14538 120.574
60.9648 12916 113.649
61.0818 10983 104.8
61.1987 9469 97.3088
61.3158 7688 87.6812
61.4328 6265 79.1518
61.5499 5236 72.3602
61.667 4393 66.2797
61.7841 3712 60.9262
61.9013 3009 54.8544
62.0185 2467 49.6689
62.1357 2083 45.6399
62.253 1608 40.0999
62.3702 1259 35.4824
62.4875 1131 33.6303
62.6049 895 29.9166
62.7222 854 29.2233
62.8396 811 28.4781
62.9569 769 27.7308
63.0743 694 26.3439
63.1918 742 27.2397
63.3092 680 26.0768
63.4267 693 26.3249
63.5441 627 25.04
63.6616 729 27
63.7791 676 26
63.8966 661 25.7099
64.0142 707 26.5895
64.1317 701 26.4764
64.2492 724 26.9072
64.3668 697 26.4008
64.4843 652 25.5343
64.6019 654 25.5734
64.7195 700 26.4575
64.837 600 24.4949
64.9546 585 24.1868
65.0722 575 23.9792
65.1898 569 23.8537
65.3074 585 24.1868
65.4249 600 24.4949
65.5425 554 23.5372
65.6601 584 24.1661
65.7777 634 25.1794
65.8952 666 25.807
66.0128 680 26.0768
66.1304 665 25.7876
66.2479 681 26.096
66.3655 628 25.0599
66.483 666 25.807
66.6005 644 25.3772
66.718 621 24.9199
66.8355 603 24.5561
66.953 647 25.4362
67.0705 621 24.9199
67.1879 617 24.8395
67.3054 605 24.5967
67.4228 667 25.8263
67.5402 648 25.4558
67.6576 648 25.4558
67.7749 675 25.9808
67.8923 673 25.9422
68.0096 630 25.0998
68.1269 637 25.2389
68.2442 641 25.318
68.3614 634 25.1794
68.4787 563 23.7276
68.5958 594 24.3721
68.713 624 24.98
68.8302 575 23.9792
68.9473 589 24.2693
69.0643 552 23.4947
69.1814 545 23.3452
69.2984 594 24.3721
69.4154 614 24.779
69.5323 619 24.8797
69.6492 677 26.0192
69.7661 643 25.3574
69.8829 634 25.1794
69.9997 618 24.8596
70.1165 621 24.9199
70.2332 596 24.4131
70.3499 565 23.7697
70.4665 538 23.1948
70.5831 503 22.4277
70.6996 465 21.5639
70.8161 454 21.3073
70.9326 400 20
71.049 362 19.0263
71.1653 368 19.1833
71.2817 423 20.567
71.3979 303 17.4069
71.5141 322 17.9444
71.6303 306 17.4929
71.7464 237 15.3948
71.8624 0 1
71.9784 0 1
72.0944 0 1
72.2102 0 1
72.3261 0 1
72.4418 0 1
72.5575 0 1
72.6732 0 1
75.1054 0 1
75.2209 0 1
75.3365 0 1
75.4521 0 1
75.5678 0 1
75.6835 0 1
75.7993 0 1
75.9151 0 1
76.031 0 1
76.147 369 19.2094
76.263 475 21.7945
76.3791 504 22.4499
76.4952 520 22.8035
76.6113 551 23.4734
76.7276 593 24.3516
76.8438 519 22.7816
76.9601 565 23.7697
77.0765 595 24.3926
77.1929 532 23.0651
77.3093 584 24.1661
77.4258 549 23.4307
77.5423 554 23.5372
77.6589 501 22.383
77.7755 513 22.6495
77.8921 486 22.0454
78.0088 491 22.1585
78.1256 475 21.7945
78.2423 467 21.6102
78.3591 488 22.0907
78.4759 572 23.9165
78.5928 594 24.3721
78.7097 534 23.1084
78.8266 538 23.1948
78.9436 597 24.4336
79.0606 572 23.9165
79.1776 556 23.5797
79.2946 548 23.4094
79.4117 558 23.622
79.5288 601 24.5153
79.6459 556 23.5797
79.7631 523 22.8692
79.8802 553 23.516
79.9974 563 23.7276
80.1147 554 23.5372
80.2319 586 24.2074
80.3491 634 25.1794
80.4664 576 24
80.5837 649 25.4755
80.701 602 24.5357
80.8183 600 24.4949
80.9357 596 24.4131
81.053 540 23.2379
81.1704 590 24.2899
81.2877 525 22.9129
81.4051 530 23.0217
81.5225 508 22.5389
81.6399 515 22.6936
81.7573 437 20.9045
81.8747 485 22.0227
81.9922 519 22.7816
82.1096 500 22.3607
82.227 571 23.8956
82.3444 547 23.388
82.4619 581 24.1039
82.5793 574 23.9583
82.6967 568 23.8328
82.8142 594 24.3721
82.9316 550 23.4521
83.049 619 24.8797
83.1664 570 23.8747
83.2838 549 23.4307
83.4012 536 23.1517
83.5186 632 25.1396
83.636 528 22.9783
83.7534 598 24.454
83.8708 612 24.7386
83.9881 549 23.4307
84.1055 610 24.6982
84.2228 629 25.0799
84.3401 604 24.5764
84.4575 584 24.1661
84.5747 533 23.0868
84.692 593 24.3516
84.8093 593 24.3516
84.9265 555 23.5584
85.0437 586 24.2074
85.1609 599 24.4745
85.2781 506 22.4944
85.3952 544 23.3238
85.5123 502 22.4054
85.6294 543 23.3024
85.7465 588 24.2487
85.8636 535 23.1301
85.9806 590 24.2899
86.0976 580 24.0832
86.2145 593 24.3516
86.3315 614 24.779
86.4484 606 24.6171
86.5652 580 24.0832
86.682 621 24.9199
86.7988 614 24.779
86.9156 615 24.7992
87.0323 592 24.3311
87.149 569 23.8537
87.2657 572 23.9165
87.3823 594 24.3721
87.4988 548 23.4094
87.6154 551 23.4734
87.7318 556 23.5797
87.8483 523 22.8692
87.9647 513 22.6495
88.081 454 21.3073
88.1973 417 20.4206
88.3136 421 20.5183
88.4298 381 19.5192
88.546 338 18.3848
88.6621 322 17.9444
88.7781 307 17.5214
88.8942 0 1
89.0101 0 1
89.126 0 1
89.2419 0 1
89.3577 0 1
89.4734 0 1
89.5891 0 1
89.7047 0 1
89.8203 0 1
89.9358 0 1
92.3269 0 1
92.4424 0 1
92.558 0 1
92.6736 0 1
92.7893 0 1
92.905 0 1
93.0208 0 1
93.1366 0 1
93.2525 0 1
93.3685 0 1
93.4845 0 1
93.6005 426 20.6398
93.7167 478 21.8632
93.8328 546 23.3666
93.949 525 22.9129
94.0653 572 23.9165
94.1816 561 23.6854
94.2979 543 23.3024
94.4143 595 24.3926
94.5307 556 23.5797
94.6472 545 23.3452
94.7637 552 23.4947
94.8803 570 23.8747
94.9969 567 23.8118
95.1135 571 23.8956
95.2302 621 24.9199
95.3469 571 23.8956
95.4637 576 24
95.5805 589 24.2693
95.6973 571 23.8956
95.8142 610 24.6982
95.9311 554 23.5372
96.048 642 25.3377
96.1649 550 23.4521
96.2819 562 23.7065
96.3989 598 24.454
96.516 610 24.6982
96.633 618 24.8596
96.7501 630 25.0998
96.8673 631 25.1197
96.9844 623 24.96
97.1016 621 24.9199
97.2188 615 24.7992
97.336 602 24.5357
97.4532 579 24.0624
97.5704 582 24.1247
97.6877 620 24.8998
97.805 589 24.2693
97.9223 567 23.8118
98.0396 541 23.2594
98.1569 551 23.4734
98.2743 559 23.6432
98.3916 566 23.7908
98.509 523 22.8692
98.6264 578 24.0416
98.7438 585 24.1868
98.8612 583 24.1454
98.9786 611 24.7184
99.096 634 25.1794
99.2134 606 24.6171
99.3308 643 25.3574
99.4482 648 25.4558
99.5656 656 25.6125
99.6831 660 25.6905
99.8005 665 25.7876
99.9179 578 24.0416
100.035 609 24.6779
100.153 647 25.4362
100.27 640 25.2982
100.388 614 24.779
100.505 643 25.3574
100.622 637 25.2389
100.74 594 24.3721
100.857 602 24.5357
100.975 608 24.6577
101.092 624 24.98
101.209 667 25.8263
101.327 620 24.8998
101.444 631 25.1197
101.561 613 24.7588
101.679 638 25.2587
101.796 573 23.9374
101.913 572 23.9165
102.03 595 24.3926
102.148 541 23.2594
102.265 676 26
102.382 623 24.96
102.499 639 25.2784
102.616 646 25.4165
102.733 700 26.4575
102.851 722 26.8701
102.968 666 25.807
103.085 681 26.096
103.202 682 26.1151
103.319 682 26.1151
103.436 631 25.1197
103.552 675 25.9808
103.669 691 26.2869
103.786 695 26.3629
103.903 740 27.2029
104.02 715 26.7395
104.137 655 25.593
104.253 669 25.865
104.37 717 26.7769
104.487 658 25.6515
104.603 690 26.2679
104.72 664 25.7682
104.836 676 26
104.953 633 25.1595
105.069 593 24.3516
105.186 575 23.9792
105.302 551 23.4734
105.418 489 22.1133
105.535 444 21.0713
105.651 436 20.8806
105.767 391 19.7737
105.883 345 18.5742
105.999 363 19.0526
106.115 0 1
106.231 0 1
106.347 0 1
106.463 0 1
106.579 0 1
106.694 0 1
106.81 0 1
106.926 0 1
107.041 0 1
107.157 0 1
109.576 0 1
109.692 0 1
109.807 0 1
109.923 0 1
110.039 0 1
110.155 0 1
110.27 0 1
110.386 0 1
110.502 0 1
110.618 308 17.5499
110.735 352 18.7617
110.851 421 20.5183
110.967 431 20.7605
111.083 495 22.2486
111.199 521 22.8254
111.316 563 23.7276
111.432 594 24.3721
111.549 661 25.7099
111.665 656 25.6125
111.782 617 24.8395
111.898 647 25.4362
112.015 563 23.7276
112.132 607 24.6374
112.248 601 24.5153
112.365 550 23.4521
112.482 591 24.3105
112.599 608 24.6577
112.716 637 25.2389
112.832 606 24.6171
112.949 596 24.4131
113.066 558 23.622
113.183 596 24.4131
113.3 580 24.0832
113.417 595 24.3926
113.534 580 24.0832
113.652 592 24.3311
113.769 580 24.0832
113.886 572 23.9165
114.003 578 24.0416
114.12 600 24.4949
114.238 552 23.4947
114.355 526 22.9347
114.472 545 23.3452
114.589 479 21.8861
114.707 516 22.7156
114.824 576 24
114.942 625 25
115.059 571 23.8956
115.176 619 24.8797
115.294 614 24.779
115.411 574 23.9583
115.529 600 24.4949
115.646 551 23.4734
115.764 552 23.4947
115.881 545 23.3452
115.999 578 24.0416
116.116 559 23.6432
116.234 570 23.8747
116.351 596 24.4131
116.469 521 22.8254
116.586 523 22.8692
116.704 482 21.9545
116.821 527 22.9565
116.939 537 23.1733
117.056 537 23.1733
117.174 571 23.8956
117.291 552 23.4947
117.409 597 24.4336
117.526 562 23.7065
117.644 600 24.4949
117.761 575 23.9792
117.879 549 23.4307
117.996 511 22.6053
118.114 521 22.8254
118.231 526 22.9347
118.349 565 23.7697
118.466 639 25.2784
118.584 645 25.3969
118.701 675 25.9808
118.819 685 26.1725
118.936 697 26.4008
119.053 690 26.2679
119.171 619 24.8797
119.288 600 24.4949
119.405 596 24.4131
119.523 600 24.4949
119.64 546 23.3666
119.757 562 23.7065
119.875 559 23.6432
119.992 565 23.7697
120.109 563 23.7276
120.226 544 23.3238
120.343 549 23.4307
120.46 480 21.9089
120.578 518 22.7596
120.695 505 22.4722
120.812 523 22.8692
120.929 514 22.6716
121.046 517 22.7376
121.163 517 22.7376
121.279 465 21.5639
121.396 475 21.7945
121.513 452 21.2603
121.63 430 20.7364
121.747 402 20.0499
121.863 376 19.3907
121.98 381 19.5192
122.097 435 20.8567
122.213 433 20.8087
122.33 390 19.7484
122.446 417 20.4206
122.563 398 19.9499
122.679 346 18.6011
122.795 349 18.6815
122.912 303 17.4069
123.028 295 17.1756
123.144 261 16.1555
123.26 264 16.2481
123.377 0 1
123.493 0 1
123.609 0 1
123.725 0 1
123.84 0 1
123.956 0 1
124.072 0 1
124.188 0 1
124.303 0 1
124.419 0 1
126.852 0 1
126.968 0 1
127.083 0 1
127.199 0 1
127.315 0 1
127.431 0 1
127.547 0 1
127.663 0 1
127.779 0 1
127.895 0 1
128.011 0 1
128.127 0 1
128.243 0 1
128.359 497 22.2935
128.476 510 22.5832
128.592 547 23.388
128.708 500 22.3607
128.825 479 21.8861
128.941 498 22.3159
129.058 533 23.0868
129.174 536 23.1517
129.291 573 23.9374
129.408 523 22.8692
129.524 536 23.1517
129.641 560 23.6643
129.758 551 23.4734
129.875 561 23.6854
129.992 561 23.6854
130.108 614 24.779
130.225 628 25.0599
130.342 593 24.3516
130.459 530 23.0217
130.576 644 25.3772
130.693 566 23.7908
130.81 546 23.3666
130.928 659 25.671
131.045 720 26.8328
131.162 811 28.4781
131.279 895 29.9166
131.396 841 29
131.513 932 30.5287
131.631 1004 31.686
131.748 909 30.1496
131.865 1009 31.7648
131.983 1166 34.1467
132.1 1185 34.4238
132.217 1504 38.7814
132.335 1780 42.19
132.452 2147 46.3357
132.57 2448 49.4773
132.687 2937 54.1941
132.804 3639 60.3241
132.922 4382 66.1967
133.039 5311 72.8766
133.157 6111 78.1729
133.274 6708 81.9024
133.392 7618 87.2812
133.509 8264 90.9065
133.627 9163 95.7236
133.744 10090 100.449
133.862 10687 103.378
133.979 10991 104.838
134.097 10644 103.17
134.214 9626 98.1122
134.332 6895 83.0361
134.449 5334 73.0342
134.567 7998 89.4315
134.684 11437 106.944
134.802 12925 113.688
134.919 13911 117.945
135.037 14565 120.686
135.154 14655 121.058
135.272 14438 120.158
135.389 14879 121.98
135.507 15432 124.226
135.624 16130 127.004
135.742 17097 130.755
135.859 17627 132.767
135.977 18587 136.334
136.094 19493 139.617
136.211 20181 142.06
136.329 20874 144.478
136.446 21764 147.526
136.564 22888 151.288
136.681 23569 153.522
136.798 24620 156.908
136.915 25878 160.866
137.033 27056 164.487
137.15 28151 167.783
137.267 29665 172.235
137.384 31325 176.989
137.502 32223 179.508
137.619 34099 184.659
137.736 35110 187.377
137.853 32959 181.546
137.97 29813 172.664
138.087 26252 162.025
138.204 28986 170.253
138.321 37212 192.904
138.438 46475 215.581
138.555 51498 226.932
138.672 54987 234.493
138.788 57593 239.985
138.905 58393 241.646
139.022 58746 242.376
139.139 57062 238.877
139.255 52837 229.863
139.372 49343 222.133
139.488 47726 218.463
139.605 47914 218.893
139.721 47398 217.711
139.838 46768 216.259
139.954 46309 215.195
140.071 44909 211.917
140.187 43402 208.331
140.303 41404 203.48
140.419 39284 198.202
140.535 38046 195.054
140.652 35840 189.315
140.768 0 1
140.884 0 1
141 0 1
141.115 0 1
141.231 0 1
141.347 0 1
141.463 0 1
141.578 0 1
141.694 0 1
144.104 0 1
144.219 0 1
144.335 0 1
144.45 0 1
144.566 0 1
144.682 0 1
144.798 0 1
144.914 0 1
145.03 0 1
145.146 22882 151.268
145.262 25494 159.668
145.378 26309 162.2
145.494 25788 160.586
145.61 25778 160.555
145.726 24562 156.723
145.842 23980 154.855
145.959 23411 153.007
146.075 22673 150.576
146.192 21795 147.631
146.308 21064 145.134
146.425 20056 141.619
146.541 19021 137.917
146.658 17501 132.291
146.774 16424 128.156
146.891 15787 125.646
147.008 15966 126.357
147.125 15217 123.357
147.241 14044 118.507
147.358 13416 115.827
147.475 12467 111.656
147.592 11194 105.802
147.709 10259 101.287
147.826 9980 99.8999
147.943 9542 97.6832
148.06 9098 95.3834
148.177 8722 93.3916
148.294 8436 91.8477
148.411 8264 90.9065
148.528 7939 89.1011
148.645 7462 86.3829
148.762 7354 85.7555
148.88 6880 82.9458
148.997 6669 81.6639
149.114 6104 78.1281
149.231 5915 76.909
149.349 5699 75.4917
149.466 5155 71.7983
149.583 4953 70.3776
149.701 4854 69.6707
149.818 4566 67.5722
149.935 4361 66.0379
150.053 3984 63.1189
150.17 3444 58.6856
150.287 3102 55.6956
150.405 2840 53.2917
150.522 3007 54.8361
150.64 3016 54.9181
150.757 3068 55.3895
150.875 3136 56
150.992 2966 54.461
151.11 2904 53.8888
151.227 2605 51.0392
151.344 2358 48.5592
151.462 2435 49.3457
151.579 2352 48.4974
151.697 2281 47.7598
151.814 2341 48.3839
151.932 2299 47.9479
152.049 2399 48.9796
152.167 2226 47.1805
152.284 2255 47.4868
152.402 2276 47.7074
152.519 2115 45.9891
152.636 2189 46.7868
152.754 2183 46.7226
152.871 2214 47.0532
152.989 2096 45.7821
153.106 2053 45.31
153.223 2122 46.0652
153.341 2122 46.0652
153.458 2017 44.911
153.575 1947 44.1248
153.693 1834 42.8252
153.81 1652 40.6448
153.927 1526 39.064
154.044 1543 39.281
154.162 1657 40.7063
154.279 1736 41.6653
154.396 1862 43.1509
154.513 1938 44.0227
154.63 2039 45.1553
154.747 2013 44.8665
154.864 2007 44.7996
154.981 1917 43.7836
155.098 1770 42.0714
155.215 1847 42.9767
155.332 2042 45.1885
155.449 1988 44.587
155.566 2113 45.9674
155.683 2050 45.2769
155.8 2147 46.3357
155.917 2146 46.3249
156.033 2128 46.1303
156.15 0 1
156.267 0 1
156.383 0 1
156.5 0 1
156.617 0 1
156.733 0 1
156.85 0 1
156.966 0 1
157.082 0 1
157.199 0 1
157.315 0 1
157.431 0 1
157.547 0 1
157.664 0 1
157.78 0 1
157.896 0 1
158.012 0 1
158.128 0 1
158.244 0 1
158.359 0 1
158.475 0 1
158.591 0 1
158.706 0 1
