
6.15755 0 1
6.2731 0 1
6.3887 0 1
6.50437 0 1
6.62009 0 1
6.73587 0 1
6.8517 0 1
6.96759 0 1
7.08353 0 1
7.19952 0 1
7.31557 0 1
7.43166 0 1
7.54781 0 1
7.664 0 1
7.78024 0 1
7.89653 0 1
8.01286 0 1
8.12924 0 1
8.24567 0 1
8.36213 0 1
8.47864 0 1
8.59519 0 1
8.71178 0 1
8.82841 0 1
8.94508 0 1
9.06179 0 1
9.17853 0 1
9.29531 0 1
9.41212 0 1
9.52897 0 1
9.64584 0 1
9.76276 0 1
9.8797 0 1
9.99667 0 1
10.1137 0 1
10.2307 0 1
10.3478 0 1
10.4648 0 1
10.5819 0 1
10.6991 0 1
10.8162 0 1
10.9334 0 1
11.0506 0 1
11.1678 0 1
11.285 0 1
11.4023 0 1
11.5196 0 1
11.6369 0 1
11.7542 0 1
11.8715 0 1
11.9888 0 1
12.1062 0 1
12.2235 0 1
12.3409 0 1
12.4582 0 1
12.5756 0 1
12.693 0 1
12.8104 0 1
12.9278 0 1
13.0452 0 1
13.1626 0 1
13.28 0 1
13.3974 0 1
13.5149 0 1
13.6323 0 1
13.7497 0 1
13.8671 0 1
13.9845 0 1
14.1019 0 1
14.2193 0 1
14.3367 0 1
14.4541 0 1
14.5714 0 1
14.6888 0 1
14.8062 0 1
14.9235 0 1
15.0408 0 0
15.1581 0 0
15.2755 0 0
15.3927 0 0
15.51 0 0
15.6273 0 0
15.7445 0 0
15.8617 0 0
15.9789 0 0
16.0961 0 0
16.2132 0 0
16.3304 0 0
16.4475 0 0
16.5646 0 0
16.6816 0 0
16.7986 0 0
16.9156 0 0
17.0326 0 0
17.1496 0 0
17.2665 0 0
17.3833 0 0
17.5002 0 0
17.617 0 0
17.7338 0 0
17.8505 0 0
17.9672 0 0
18.0839 0 0
18.2005 0 0
18.3171 0 0
18.4337 0 0
18.5502 0 0
18.6666 0 0
18.7831 0 0
18.8994 0 0
19.0158 0 0
19.1321 0 0
19.2483 0 0
19.3645 0 0
19.4806 0 0
19.5967 0 0
19.7128 0 0
19.8288 0 0
19.9447 0 0
20.0606 0 1
20.1764 0 1
20.2922 0 1
20.4079 0 1
20.5236 0 1
20.6392 0 1
20.7548 0 1
20.8702 0 1
23.3078 0 1
23.4233 0 1
23.539 0 1
23.6547 0 1
23.7704 0 1
23.8862 0 1
24.0021 0 1
24.118 0 1
24.234 0 1
24.35 0 1
24.4661 3808 61.709
24.5822 4275 65.3835
24.6984 4678 68.3959
24.8146 5361 73.2189
24.9309 6661 81.6149
25.0472 7664 87.5443
25.1636 8421 91.766
25.28 8210 90.6091
25.3965 7996 89.4204
25.513 7817 88.4138
25.6296 7864 88.6792
25.7462 7742 87.9886
25.8628 7313 85.5161
25.9795 7029 83.8391
26.0962 6819 82.5772
26.213 6834 82.668
26.3298 6527 80.7899
26.4466 6414 80.0875
26.5635 6160 78.4857
26.6804 6066 77.8845
26.7973 5736 75.7364
26.9143 5607 74.8799
27.0313 5403 73.5051
27.1483 5315 72.904
27.2653 5250 72.4569
27.3824 4876 69.8284
27.4996 4696 68.5274
27.6167 4468 66.8431
27.7339 4501 67.0895
27.8511 4841 69.5773
27.9683 5295 72.7668
28.0855 5452 73.8377
28.2028 5725 75.6637
28.3201 5747 75.809
28.4374 5813 76.243
28.5547 5864 76.5768
28.6721 5793 76.1118
28.7894 6001 77.4661
28.9068 5985 77.3628
29.0242 6270 79.1833
29.1416 6357 79.7308
29.259 6081 77.9808
29.3764 6191 78.6829
29.4939 5965 77.2334
29.6113 5737 75.743
29.7288 5767 75.9408
29.8463 5694 75.4586
29.9638 5498 74.1485
30.0812 5581 74.7061
30.1987 5464 73.9189
30.3162 5403 73.5051
30.4337 5494 74.1215
30.5512 5498 74.1485
30.6687 5515 74.263
30.7862 5530 74.364
30.9037 5096 71.3863
31.0212 4969 70.4911
31.1387 5109 71.4773
31.2562 5119 71.5472
31.3737 5393 73.437
31.4912 5672 75.3127
31.6087 5756 75.8683
31.7262 5896 76.7854
31.8436 5856 76.5245
31.9611 5852 76.4984
32.0785 5928 76.9935
32.1959 5675 75.3326
32.3134 5588 74.7529
32.4308 5511 74.2361
32.5482 5445 73.7902
32.6655 5246 72.4293
32.7829 5067 71.1829
32.9002 4897 69.9786
33.0176 4843 69.5917
33.1349 4569 67.5944
33.2522 4828 69.4838
33.3694 4422 66.4981
33.4867 4651 68.1982
33.6039 4695 68.5201
33.7211 4827 69.4766
33.8383 5031 70.9295
33.9554 4961 70.4344
34.0725 4997 70.6895
34.1896 5113 71.5052
34.3067 5194 72.0694
34.4237 5233 72.3395
34.5407 5089 71.3372
34.6577 5161 71.8401
34.7746 5048 71.0493
34.8915 5095 71.3793
35.0084 5377 73.328
35.1252 5590 74.7663
35.242 5644 75.1266
35.3587 5428 73.675
35.4755 5410 73.5527
35.5921 5169 71.8958
35.7088 5034 70.9507
35.8254 4881 69.8642
35.9419 4621 67.9779
36.0584 4381 66.1891
36.1749 4231 65.0461
36.2913 4123 64.2106
36.4077 4059 63.7103
36.524 3645 60.3738
36.6403 3245 56.9649
36.7565 2869 53.563
36.8727 2517 50.1697
36.9889 2409 49.0816
37.1049 2265 47.592
37.221 0 1
37.3369 0 1
37.4529 0 1
37.5687 0 1
37.6845 0 1
37.8003 0 1
37.916 0 1
38.0316 0 1
38.1472 0 1
40.5851 0 1
40.7008 0 1
40.8164 0 1
40.9322 0 1
41.048 0 1
41.1639 0 1
41.2798 0 1
41.3958 0 1
41.5118 0 1
41.6279 0 1
41.744 1992 44.6318
41.8602 2676 51.7301
41.9765 3135 55.9911
42.0928 3363 57.9914
42.2091 3473 58.9322
42.3255 3538 59.4811
42.4419 3683 60.6877
42.5584 3836 61.9355
42.675 4047 63.616
42.7915 4159 64.4903
42.9081 4415 66.4455
43.0248 4631 68.0515
43.1415 4766 69.0362
43.2582 4615 67.9338
43.375 4360 66.0303
43.4918 4329 65.7951
43.6087 4449 66.7008
43.7256 4440 66.6333
43.8425 4435 66.5958
43.9595 4493 67.0298
44.0765 4471 66.8655
44.1935 4384 66.2118
44.3106 4454 66.7383
44.4277 4342 65.8939
44.5448 4423 66.5056
44.6619 4419 66.4756
44.7791 4385 66.2193
44.8963 4507 67.1342
45.0136 4563 67.55
45.1308 4756 68.9638
45.2481 4803 69.3037
45.3654 5023 70.8731
45.4827 5281 72.6705
45.6001 5609 74.8933
45.7174 5744 75.7892
45.8348 6033 77.6724
45.9522 6449 80.3057
46.0697 6565 81.0247
46.1871 6808 82.5106
46.3046 7203 84.8705
46.422 7517 86.7006
46.5395 7524 86.741
46.657 7378 85.8953
46.7745 7149 84.5518
46.892 6560 80.9938
47.0096 6303 79.3914
47.1271 6479 80.4922
47.2446 6597 81.2219
47.3622 6757 82.201
47.4797 6870 82.8855
47.5973 6983 83.5643
47.7149 6881 82.9518
47.8324 7045 83.9345
47.95 7115 84.3505
48.0675 6947 83.3487
48.1851 7233 85.047
48.3027 6936 83.2827
48.4202 7130 84.4393
48.5378 7048 83.9524
48.6554 6744 82.1219
48.7729 6606 81.2773
48.8904 6575 81.0864
49.008 6638 81.4739
49.1255 6471 80.4425
49.243 6691 81.7985
49.3605 6558 80.9815
49.478 6836 82.6801
49.5955 6958 83.4146
49.713 6949 83.3607
49.8304 6928 83.2346
49.9479 6852 82.7768
50.0653 6626 81.4002
50.1827 6252 79.0696
50.3001 5645 75.1332
50.4175 4644 68.1469
50.5348 4106 64.0781
50.6521 4407 66.3852
50.7694 4712 68.644
50.8867 4911 70.0785
51.004 4743 68.8694
51.1212 4611 67.9043
51.2384 4521 67.2384
51.3556 4271 65.3529
51.4727 4170 64.5755
51.5899 3917 62.5859
51.707 4075 63.8357
51.824 3986 63.1348
51.9411 3977 63.0635
52.0581 3992 63.1823
52.175 3947 62.8252
52.2919 3871 62.2174
52.4088 3845 62.0081
52.5257 3651 60.4235
52.6425 3658 60.4814
52.7593 3536 59.4643
52.876 3517 59.3043
52.9927 3446 58.7026
53.1094 3401 58.3181
53.226 3424 58.515
53.3426 3349 57.8705
53.4591 3151 56.1338
53.5756 2914 53.9815
53.692 2458 49.5782
53.8084 2145 46.3141
53.9248 1902 43.6119
54.0411 1719 41.4608
54.1573 1599 39.9875
54.2735 0 1
54.3896 0 1
54.5057 0 1
54.6217 0 1
54.7377 0 1
54.8537 0 1
54.9695 0 1
55.0853 0 1
55.2011 0 1
55.3168 0 1
55.4324 0 1
57.824 0 1
57.9396 0 1
58.0553 0 1
58.1711 0 1
58.2869 0 1
58.4028 0 1
58.5187 0 1
58.6347 0 1
58.7508 0 1
58.8669 0 1
58.983 3016 54.9181
59.0992 3053 55.254
59.2155 3071 55.4166
59.3318 3235 56.8771
59.4482 3684 60.696
59.5646 3917 62.5859
59.681 4129 64.2573
59.7975 4158 64.4826
59.9141 4242 65.1306
60.0306 4180 64.6529
60.1473 4029 63.4744
60.2639 4163 64.5213
60.3807 4166 64.5446
60.4974 4077 63.8514
60.6142 4327 65.7799
60.731 4258 65.2534
60.8479 4406 66.3777
60.9648 4502 67.0969
61.0818 4490 67.0075
61.1987 4319 65.7191
61.3158 4237 65.0922
61.4328 4123 64.2106
61.5499 3988 63.1506
61.667 3975 63.0476
61.7841 4005 63.2851
61.9013 4079 63.867
62.0185 4160 64.4981
62.1357 4145 64.3817
62.253 4162 64.5136
62.3702 4097 64.0078
62.4875 3811 61.7333
62.6049 3580 59.8331
62.7222 3685 60.7042
62.8396 3897 62.426
62.9569 4056 63.6867
63.0743 4308 65.6354
63.1918 4293 65.521
63.3092 4324 65.7571
63.4267 4344 65.909
63.5441 4346 65.9242
63.6616 4206 64.8537
63.7791 4196 64.7765
63.8966 4266 65.3146
64.0142 4072 63.8122
64.1317 4225 65
64.2492 4174 64.6065
64.3668 4270 65.3452
64.4843 4141 64.3506
64.6019 4249 65.1844
64.7195 4142 64.3584
64.837 4178 64.6375
64.9546 4347 65.9318
65.0722 4465 66.8207
65.1898 4540 67.3795
65.3074 5027 70.9013
65.4249 5304 72.8286
65.5425 5945 77.1038
65.6601 6769 82.2739
65.7777 7423 86.1568
65.8952 7999 89.4371
66.0128 8014 89.5209
66.1304 7703 87.7667
66.2479 7658 87.51
66.3655 8728 93.4238
66.483 10540 102.665
66.6005 12301 110.91
66.718 13295 115.304
66.8355 13907 117.928
66.953 14587 120.777
67.0705 15065 122.74
67.1879 15200 123.288
67.3054 15642 125.068
67.4228 15623 124.992
67.5402 15891 126.06
67.6576 16188 127.232
67.7749 16029 126.606
67.8923 16278 127.585
68.0096 16383 127.996
68.1269 16404 128.078
68.2442 16540 128.608
68.3614 17062 130.622
68.4787 16694 129.205
68.5958 16866 129.869
68.713 16776 129.522
68.8302 16978 130.3
68.9473 17134 130.897
69.0643 17404 131.924
69.1814 17613 132.714
69.2984 17805 133.435
69.4154 17900 133.791
69.5323 18097 134.525
69.6492 17168 131.027
69.7661 15203 123.3
69.8829 13426 115.871
69.9997 14241 119.336
70.1165 15998 126.483
70.2332 16518 128.522
70.3499 15150 123.085
70.4665 13300 115.326
70.5831 11802 108.637
70.6996 11078 105.252
70.8161 10331 101.642
70.9326 9902 99.5088
71.049 9434 97.1288
71.1653 9099 95.3887
71.2817 8535 92.3851
71.3979 8173 90.4046
71.5141 7733 87.9375
71.6303 7255 85.1763
71.7464 6728 82.0244
71.8624 0 1
71.9784 0 1
72.0944 0 1
72.2102 0 1
72.3261 0 1
72.4418 0 1
72.5575 0 1
72.6732 0 1
75.1054 0 1
75.2209 0 1
75.3365 0 1
75.4521 0 1
75.5678 0 1
75.6835 0 1
75.7993 0 1
75.9151 0 1
76.031 0 1
76.147 18970 137.732
76.263 20570 143.422
76.3791 20181 142.06
76.4952 19583 139.939
76.6113 19040 137.986
76.7276 18246 135.078
76.8438 17906 133.813
76.9601 16845 129.788
77.0765 16486 128.398
77.1929 15663 125.152
77.3093 14968 122.344
77.4258 14721 121.33
77.5423 13860 117.729
77.6589 13815 117.537
77.7755 13268 115.187
77.8921 12741 112.876
78.0088 12891 113.539
78.1256 12826 113.252
78.2423 12638 112.419
78.3591 12650 112.472
78.4759 12208 110.49
78.5928 11686 108.102
78.7097 10434 102.147
78.8266 8122 90.1221
78.9436 6673 81.6884
79.0606 7237 85.0706
79.1776 8754 93.5628
79.2946 10838 104.106
79.4117 11471 107.103
79.5288 11788 108.573
79.6459 11715 108.236
79.7631 11810 108.674
79.8802 11611 107.754
79.9974 11743 108.365
80.1147 11567 107.55
80.2319 11267 106.146
80.3491 11145 105.57
80.4664 11046 105.1
80.5837 10825 104.043
80.701 10739 103.629
80.8183 10310 101.538
80.9357 10353 101.75
81.053 9935 99.6745
81.1704 9715 98.5647
81.2877 9533 97.6371
81.4051 9271 96.286
81.5225 9362 96.7574
81.6399 8982 94.7734
81.7573 9291 96.3898
81.8747 9054 95.1525
81.9922 9051 95.1367
82.1096 9142 95.6138
82.227 8919 94.4405
82.3444 8039 89.6605
82.4619 6684 81.7557
82.5793 5632 75.0467
82.6967 5572 74.6458
82.8142 6924 83.2106
82.9316 8125 90.1388
83.049 8903 94.3557
83.1664 8855 94.101
83.2838 8909 94.3875
83.4012 9006 94.8999
83.5186 9084 95.31
83.636 9022 94.9842
83.7534 8827 93.9521
83.8708 8756 93.5735
83.9881 8600 92.7362
84.1055 8808 93.8509
84.2228 8431 91.8205
84.3401 8398 91.6406
84.4575 8100 90
84.5747 7972 89.2861
84.692 7418 86.1278
84.8093 7135 84.4689
84.9265 6921 83.1925
85.0437 6545 80.9012
85.1609 6328 79.5487
85.2781 6068 77.8974
85.3952 5745 75.7958
85.5123 5561 74.5721
85.6294 5471 73.9662
85.7465 5301 72.808
85.8636 4962 70.4415
85.9806 4468 66.8431
86.0976 3940 62.7694
86.2145 3854 62.0806
86.3315 4189 64.7225
86.4484 5175 71.9375
86.5652 5619 74.96
86.682 5898 76.7984
86.7988 5818 76.2758
86.9156 6055 77.8139
87.0323 6090 78.0385
87.149 6051 77.7882
87.2657 6201 78.7464
87.3823 6239 78.9873
87.4988 6164 78.5111
87.6154 5738 75.7496
87.7318 5396 73.4575
87.8483 5015 70.8167
87.9647 4886 69.8999
88.081 4629 68.0368
88.1973 4669 68.3301
88.3136 4671 68.3447
88.4298 4726 68.7459
88.546 4668 68.3228
88.6621 4584 67.7052
88.7781 4822 69.4406
88.8942 0 1
89.0101 0 1
89.126 0 1
89.2419 0 1
89.3577 0 1
89.4734 0 1
89.5891 0 1
89.7047 0 1
89.8203 0 1
89.9358 0 1
92.3269 0 1
92.4424 0 1
92.558 0 1
92.6736 0 1
92.7893 0 1
92.905 0 1
93.0208 0 1
93.1366 0 1
93.2525 0 1
93.3685 0 1
93.4845 0 1
93.6005 9944 99.7196
93.7167 10276 101.371
93.8328 10663 103.262
93.949 11224 105.943
94.0653 11483 107.159
94.1816 11931 109.229
94.2979 12148 110.218
94.4143 12391 111.315
94.5307 12356 111.158
94.6472 12691 112.654
94.7637 12446 111.562
94.8803 11515 107.308
94.9969 10469 102.318
95.1135 9711 98.5444
95.2302 10087 100.434
95.3469 10987 104.819
95.4637 12214 110.517
95.5805 13037 114.18
95.6973 12958 113.833
95.8142 13134 114.604
95.9311 13246 115.091
96.048 13167 114.748
96.1649 13087 114.398
96.2819 12666 112.543
96.3989 11977 109.439
96.516 11981 109.458
96.633 11908 109.124
96.7501 12228 110.58
96.8673 12280 110.815
96.9844 12239 110.63
97.1016 12273 110.784
97.2188 12545 112.004
97.336 13136 114.612
97.4532 14023 118.419
97.5704 14011 118.368
97.6877 14397 119.987
97.805 15056 122.703
97.9223 15729 125.415
98.0396 16122 126.972
98.1569 16009 126.527
98.2743 15868 125.968
98.3916 14957 122.299
98.509 13103 114.468
98.6264 12104 110.018
98.7438 12019 109.631
98.8612 13466 116.043
98.9786 15106 122.906
99.096 16041 126.653
99.2134 16587 128.791
99.3308 16790 129.576
99.4482 16429 128.176
99.5656 16630 128.957
99.6831 16326 127.773
99.8005 16063 126.74
99.9179 15821 125.782
100.035 15232 123.418
100.153 14965 122.332
100.27 15026 122.581
100.388 15247 123.479
100.505 15418 124.169
100.622 15119 122.959
100.74 15119 122.959
100.857 15487 124.447
100.975 16056 126.712
101.092 16568 128.717
101.209 16805 129.634
101.327 17070 130.652
101.444 17074 130.668
101.561 17244 131.316
101.679 17174 131.05
101.796 17315 131.586
101.913 16745 129.402
102.03 15893 126.067
102.148 14064 118.592
102.265 12300 110.905
102.382 13867 117.758
102.499 15161 123.13
102.616 16911 130.042
102.733 17519 132.359
102.851 17767 133.293
102.968 17899 133.787
103.085 17409 131.943
103.202 17802 133.424
103.319 17976 134.075
103.436 17855 133.623
103.552 18234 135.033
103.669 18194 134.885
103.786 18026 134.261
103.903 18097 134.525
104.02 18396 135.632
104.137 18374 135.551
104.253 18633 136.503
104.37 17665 132.91
104.487 17672 132.936
104.603 17032 130.507
104.72 16395 128.043
104.836 15570 124.78
104.953 14052 118.541
105.069 12427 111.476
105.186 11431 106.916
105.302 10762 103.74
105.418 10607 102.99
105.535 9926 99.6293
105.651 9008 94.9105
105.767 7847 88.5833
105.883 6957 83.4086
105.999 6173 78.5684
106.115 0 1
106.231 0 1
106.347 0 1
106.463 0 1
106.579 0 1
106.694 0 1
106.81 0 1
106.926 0 1
107.041 0 1
107.157 0 1
109.576 0 1
109.692 0 1
109.807 0 1
109.923 0 1
110.039 0 1
110.155 0 1
110.27 0 1
110.386 0 1
110.502 0 1
110.618 24546 156.672
110.735 25797 160.614
110.851 25211 158.78
110.967 24256 155.743
111.083 24082 155.184
111.199 25048 158.266
111.316 26212 161.901
111.432 26925 164.088
111.549 27288 165.191
111.665 28045 167.466
111.782 27451 165.683
111.898 26921 164.076
112.015 26370 162.388
112.132 26043 161.378
112.248 25929 161.025
112.365 25936 161.047
112.482 25866 160.829
112.599 27972 167.248
112.716 28211 167.961
112.832 29957 173.081
112.949 31846 178.454
113.066 32527 180.352
113.183 32548 180.411
113.3 32322 179.783
113.417 32122 179.226
113.534 32445 180.125
113.652 32119 179.218
113.769 31664 177.944
113.886 31655 177.919
114.003 31641 177.879
114.12 32185 179.402
114.238 32490 180.25
114.355 31487 177.446
114.472 29594 172.029
114.589 29369 171.374
114.707 29333 171.269
114.824 31359 177.085
114.942 33512 183.063
115.059 33801 183.85
115.176 34250 185.068
115.294 33962 184.288
115.411 33813 183.883
115.529 33384 182.713
115.646 32992 181.637
115.764 31971 178.804
115.881 31434 177.296
115.999 30843 175.622
116.116 31138 176.46
116.234 32588 180.521
116.351 33965 184.296
116.469 34963 186.984
116.586 36018 189.784
116.704 37202 192.878
116.821 37289 193.104
116.939 35841 189.317
117.056 34971 187.005
117.174 33528 183.107
117.291 32553 180.424
117.409 33018 181.709
117.526 32975 181.59
117.644 33860 184.011
117.761 33963 184.291
117.879 33746 183.701
117.996 31191 176.61
118.114 30303 174.078
118.231 29882 172.864
118.349 30763 175.394
118.466 32170 179.36
118.584 32567 180.463
118.701 32488 180.244
118.819 31372 177.121
118.936 30125 173.566
119.053 29582 171.994
119.171 28840 169.823
119.288 27290 165.197
119.405 26206 161.883
119.523 26078 161.487
119.64 25861 160.814
119.757 27109 164.648
119.875 28091 167.604
119.992 29228 170.962
120.109 30505 174.657
120.226 31535 177.581
120.343 31315 176.96
120.46 30685 175.171
120.578 29455 171.625
120.695 27994 167.314
120.812 26768 163.609
120.929 25968 161.146
121.046 25455 159.546
121.163 25513 159.728
121.279 25833 160.726
121.396 25420 159.437
121.513 24879 157.731
121.63 23776 154.195
121.747 22005 148.341
121.863 19628 140.1
121.98 18456 135.853
122.097 17410 131.947
122.213 17514 132.34
122.33 17191 131.114
122.446 16605 128.86
122.563 15690 125.26
122.679 14916 122.131
122.795 13926 118.008
122.912 13037 114.18
123.028 12144 110.2
123.144 11077 105.247
123.26 10773 103.793
123.377 0 1
123.493 0 1
123.609 0 1
123.725 0 1
123.84 0 1
123.956 0 1
124.072 0 1
124.188 0 1
124.303 0 1
124.419 0 1
126.852 0 1
126.968 0 1
127.083 0 1
127.199 0 1
127.315 0 1
127.431 0 1
127.547 0 1
127.663 0 1
127.779 0 1
127.895 0 1
128.011 0 1
128.127 0 1
128.243 0 1
128.359 16933 130.127
128.476 16763 129.472
128.592 16503 128.464
128.708 16652 129.043
128.825 16830 129.73
128.941 17062 130.622
129.058 17692 133.011
129.174 18044 134.328
129.291 19141 138.351
129.408 20444 142.983
129.524 21626 147.058
129.641 22856 151.182
129.758 24148 155.396
129.875 24303 155.894
129.992 24635 156.955
130.108 24533 156.63
130.225 24157 155.425
130.342 23687 153.906
130.459 22256 149.184
130.576 22173 148.906
130.693 20423 142.909
130.81 19473 139.546
130.928 19118 138.268
131.045 19518 139.707
131.162 20011 141.46
131.279 20728 143.972
131.396 20792 144.194
131.513 20858 144.423
131.631 20662 143.743
131.748 20573 143.433
131.865 20466 143.059
131.983 20513 143.224
132.1 20724 143.958
132.217 20962 144.783
132.335 20967 144.8
132.452 21435 146.407
132.57 21129 145.358
132.687 20168 142.014
132.804 21567 146.857
132.922 20384 142.773
133.039 20548 143.346
133.157 20807 144.246
133.274 20958 144.769
133.392 21257 145.798
133.509 21765 147.53
133.627 21977 148.246
133.744 22302 149.339
133.862 22371 149.569
133.979 22777 150.921
134.097 22328 149.426
134.214 21993 148.3
134.332 21981 148.26
134.449 21551 146.803
134.567 22163 148.872
134.684 22910 151.36
134.802 23603 153.633
134.919 23789 154.237
135.037 23928 154.687
135.154 23682 153.89
135.272 23260 152.512
135.389 23001 151.661
135.507 22824 151.076
135.624 22579 150.263
135.742 22009 148.354
135.859 21730 147.411
135.977 21392 146.26
136.094 20940 144.707
136.211 20788 144.18
136.329 20650 143.701
136.446 20926 144.658
136.564 20576 143.443
136.681 20528 143.276
136.798 20889 144.53
136.915 21012 144.955
137.033 20867 144.454
137.15 21248 145.767
137.267 21209 145.633
137.384 21069 145.152
137.502 20741 144.017
137.619 20333 142.594
137.736 19521 139.718
137.853 18806 137.135
137.97 18164 134.774
138.087 17020 130.461
138.204 17580 132.59
138.321 18310 135.314
138.438 18889 137.437
138.555 18763 136.978
138.672 19277 138.842
138.788 18978 137.761
138.905 19096 138.188
139.022 18496 136
139.139 17841 133.57
139.255 16871 129.888
139.372 15996 126.475
139.488 15493 124.471
139.605 15031 122.601
139.721 14310 119.624
139.838 13686 116.987
139.954 13342 115.508
140.071 12593 112.219
140.187 12678 112.597
140.303 12796 113.119
140.419 13226 115.004
140.535 13807 117.503
140.652 14054 118.55
140.768 0 1
140.884 0 1
141 0 1
141.115 0 1
141.231 0 1
141.347 0 1
141.463 0 1
141.578 0 1
141.694 0 1
144.104 0 1
144.219 0 1
144.335 0 1
144.45 0 1
144.566 0 1
144.682 0 1
144.798 0 1
144.914 0 1
145.03 0 1
145.146 23873 154.509
145.262 24062 155.119
145.378 24117 155.296
145.494 24972 158.025
145.61 24893 157.775
145.726 25425 159.452
145.842 25486 159.643
145.959 25352 159.223
146.075 25764 160.512
146.192 25585 159.953
146.308 24799 157.477
146.425 24781 157.42
146.541 23437 153.091
146.658 21630 147.071
146.774 19584 139.943
146.891 18709 136.781
147.008 20148 141.944
147.125 22441 149.803
147.241 24257 155.747
147.358 25359 159.245
147.475 26292 162.148
147.592 26189 161.83
147.709 27120 164.682
147.826 27093 164.6
147.943 27378 165.463
148.06 28037 167.443
148.177 27719 166.49
148.294 27447 165.671
148.411 27180 164.864
148.528 26757 163.576
148.645 27407 165.551
148.762 27493 165.81
148.88 27314 165.269
148.997 26876 163.939
149.114 28756 169.576
149.231 27766 166.631
149.349 27964 167.224
149.466 27170 164.833
149.583 27721 166.496
149.701 27460 165.711
149.818 27499 165.828
149.935 27682 166.379
150.053 27095 164.606
150.17 26710 163.432
150.287 25022 158.183
150.405 22959 151.522
150.522 21337 146.072
150.64 21246 145.76
150.757 22622 150.406
150.875 24163 155.445
150.992 24711 157.197
151.11 23684 153.896
151.227 23415 153.02
151.344 22553 150.177
151.462 22442 149.807
151.579 22651 150.502
151.697 23294 152.624
151.814 23957 154.78
151.932 24049 155.077
152.049 24542 156.659
152.167 24896 157.785
152.284 25182 158.688
152.402 24953 157.965
152.519 24764 157.366
152.636 24970 158.019
152.754 24790 157.448
152.871 25009 158.142
152.989 25161 158.622
153.106 25440 159.499
153.223 25488 159.65
153.341 25416 159.424
153.458 26159 161.737
153.575 26619 163.153
153.693 26920 164.073
153.81 26287 162.133
153.927 24736 157.277
154.044 23064 151.868
154.162 21302 145.952
154.279 22024 148.405
154.396 23901 154.599
154.513 25029 158.206
154.63 25310 159.091
154.747 25028 158.202
154.864 24419 156.266
154.981 24023 154.994
155.098 23345 152.791
155.215 22428 149.76
155.332 21064 145.134
155.449 20423 142.909
155.566 19765 140.588
155.683 18427 135.746
155.8 17819 133.488
155.917 17029 130.495
156.033 16191 127.244
156.15 0 1
156.267 0 1
156.383 0 1
156.5 0 1
156.617 0 1
156.733 0 1
156.85 0 1
156.966 0 1
157.082 0 1
157.199 0 1
157.315 0 1
157.431 0 1
157.547 0 1
157.664 0 1
157.78 0 1
157.896 0 1
158.012 0 1
158.128 0 1
158.244 0 1
158.359 0 1
158.475 0 1
158.591 0 1
158.706 0 1
