
6.15755 0 1
6.2731 0 1
6.3887 0 1
6.50437 0 1
6.62009 0 1
6.73587 0 1
6.8517 0 1
6.96759 0 1
7.08353 0 1
7.19952 0 1
7.31557 0 1
7.43166 0 1
7.54781 0 1
7.664 0 1
7.78024 0 1
7.89653 0 1
8.01286 0 1
8.12924 0 1
8.24567 0 1
8.36213 0 1
8.47864 0 1
8.59519 0 1
8.71178 0 1
8.82841 0 1
8.94508 0 1
9.06179 0 1
9.17853 0 1
9.29531 0 1
9.41212 0 1
9.52897 0 1
9.64584 0 1
9.76276 0 1
9.8797 0 1
9.99667 0 1
10.1137 0 1
10.2307 0 1
10.3478 0 1
10.4648 0 1
10.5819 0 1
10.6991 0 1
10.8162 0 1
10.9334 0 1
11.0506 0 1
11.1678 0 1
11.285 0 1
11.4023 0 1
11.5196 0 1
11.6369 0 1
11.7542 0 1
11.8715 0 1
11.9888 0 1
12.1062 0 1
12.2235 0 1
12.3409 0 1
12.4582 0 1
12.5756 0 1
12.693 0 1
12.8104 0 1
12.9278 0 1
13.0452 0 1
13.1626 0 1
13.28 0 1
13.3974 0 1
13.5149 0 1
13.6323 0 1
13.7497 0 1
13.8671 0 1
13.9845 0 1
14.1019 0 1
14.2193 0 1
14.3367 0 1
14.4541 0 1
14.5714 0 1
14.6888 0 1
14.8062 0 1
14.9235 0 1
15.0408 1658 40.7185
15.1581 1676 40.939
15.2755 1700 41.2311
15.3927 1697 41.1947
15.51 1723 41.509
15.6273 1672 40.8901
15.7445 1675 40.9268
15.8617 1663 40.7799
15.9789 1625 40.3113
16.0961 1610 40.1248
16.2132 1623 40.2865
16.3304 1722 41.497
16.4475 1820 42.6615
16.5646 1722 41.497
16.6816 1880 43.359
16.7986 2021 44.9555
16.9156 2214 47.0532
17.0326 2310 48.0625
17.1496 2307 48.0312
17.2665 2332 48.2908
17.3833 2319 48.156
17.5002 2278 47.7284
17.617 2266 47.6025
17.7338 2343 48.4045
17.8505 2424 49.2341
17.9672 2438 49.3761
18.0839 2442 49.4166
18.2005 2525 50.2494
18.3171 2441 49.4065
18.4337 2487 49.8698
18.5502 2527 50.2693
18.6666 2512 50.1199
18.7831 2441 49.4065
18.8994 2459 49.5883
19.0158 2407 49.0612
19.1321 2386 48.8467
19.2483 2307 48.0312
19.3645 2271 47.655
19.4806 2129 46.1411
19.5967 2131 46.1628
19.7128 1993 44.643
19.8288 1736 41.6653
19.9447 1475 38.4057
20.0606 0 1
20.1764 0 1
20.2922 0 1
20.4079 0 1
20.5236 0 1
20.6392 0 1
20.7548 0 1
20.8702 0 1
23.3078 0 1
23.4233 0 1
23.539 0 1
23.6547 0 1
23.7704 0 1
23.8862 0 1
24.0021 0 1
24.118 0 1
24.234 0 1
24.35 0 1
24.4661 2143 46.2925
24.5822 2167 46.551
24.6984 2180 46.6905
24.8146 2213 47.0425
24.9309 2119 46.0326
25.0472 1975 44.441
25.1636 1838 42.8719
25.28 1820 42.6615
25.3965 1858 43.1045
25.513 1946 44.1135
25.6296 2069 45.4863
25.7462 2293 47.8853
25.8628 2555 50.547
25.9795 2584 50.8331
26.0962 2589 50.8822
26.213 2567 50.6656
26.3298 2582 50.8134
26.4466 2584 50.8331
26.5635 2549 50.4876
26.6804 2545 50.448
26.7973 2518 50.1797
26.9143 2610 51.0882
27.0313 2515 50.1498
27.1483 2542 50.4183
27.2653 2515 50.1498
27.3824 2529 50.2892
27.4996 2589 50.8822
27.6167 2483 49.8297
27.7339 2490 49.8999
27.8511 2330 48.2701
27.9683 2416 49.1528
28.0855 2391 48.8979
28.2028 2338 48.3529
28.3201 2304 48
28.4374 2282 47.7703
28.5547 2075 45.5522
28.6721 1803 42.4617
28.7894 1637 40.4599
28.9068 1699 41.2189
29.0242 1752 41.8569
29.1416 1853 43.0465
29.259 2047 45.2438
29.3764 2219 47.1063
29.4939 2361 48.5901
29.6113 2423 49.224
29.7288 2420 49.1935
29.8463 2489 49.8899
29.9638 2512 50.1199
30.0812 2523 50.2295
30.1987 2500 50
30.3162 2455 49.548
30.4337 2414 49.1325
30.5512 2441 49.4065
30.6687 2443 49.4267
30.7862 2373 48.7134
30.9037 2355 48.5283
31.0212 2450 49.4975
31.1387 2422 49.2138
31.2562 2440 49.3964
31.3737 2387 48.8569
31.4912 2347 48.4458
31.6087 2278 47.7284
31.7262 2309 48.0521
31.8436 2317 48.1352
31.9611 2072 45.5192
32.0785 2061 45.3982
32.1959 1847 42.9767
32.3134 1729 41.5812
32.4308 1712 41.3763
32.5482 1776 42.1426
32.6655 1842 42.9185
32.7829 2027 45.0222
32.9002 2175 46.6369
33.0176 2307 48.0312
33.1349 2371 48.6929
33.2522 2275 47.697
33.3694 2332 48.2908
33.4867 2468 49.679
33.6039 2431 49.3052
33.7211 2361 48.5901
33.8383 2351 48.4871
33.9554 2400 48.9898
34.0725 2334 48.3115
34.1896 2333 48.3011
34.3067 2335 48.3218
34.4237 2242 47.3498
34.5407 2309 48.0521
34.6577 2399 48.9796
34.7746 2359 48.5695
34.8915 2353 48.5077
35.0084 2292 47.8748
35.1252 2311 48.0729
35.242 2257 47.5079
35.3587 2259 47.5289
35.4755 2177 46.6583
35.5921 2179 46.6798
35.7088 2088 45.6946
35.8254 1928 43.909
35.9419 1726 41.5452
36.0584 1630 40.3733
36.1749 1561 39.5095
36.2913 1719 41.4608
36.4077 1722 41.497
36.524 1932 43.9545
36.6403 2126 46.1086
36.7565 2122 46.0652
36.8727 2207 46.9787
36.9889 2299 47.9479
37.1049 2223 47.1487
37.221 0 1
37.3369 0 1
37.4529 0 1
37.5687 0 1
37.6845 0 1
37.8003 0 1
37.916 0 1
38.0316 0 1
38.1472 0 1
40.5851 0 1
40.7008 0 1
40.8164 0 1
40.9322 0 1
41.048 0 1
41.1639 0 1
41.2798 0 1
41.3958 0 1
41.5118 0 1
41.6279 0 1
41.744 1405 37.4833
41.8602 1713 41.3884
41.9765 1787 42.2729
42.0928 1830 42.7785
42.2091 1875 43.3013
42.3255 1905 43.6463
42.4419 1873 43.2782
42.5584 1866 43.1972
42.675 1876 43.3128
42.7915 1856 43.0813
42.9081 1736 41.6653
43.0248 1729 41.5812
43.1415 1759 41.9404
43.2582 1801 42.4382
43.375 1749 41.821
43.4918 1773 42.107
43.6087 1785 42.2493
43.7256 1730 41.5933
43.8425 1701 41.2432
43.9595 1703 41.2674
44.0765 1619 40.2368
44.1935 1714 41.4005
44.3106 1591 39.8873
44.4277 1602 40.025
44.5448 1498 38.704
44.6619 1354 36.7967
44.7791 1159 34.0441
44.8963 1010 31.7805
45.0136 1053 32.45
45.1308 1081 32.8786
45.2481 1136 33.7046
45.3654 1233 35.1141
45.4827 1349 36.7287
45.6001 1341 36.6197
45.7174 1387 37.2424
45.8348 1384 37.2022
45.9522 1369 37
46.0697 1332 36.4966
46.1871 1258 35.4683
46.3046 1311 36.2077
46.422 1281 35.7911
46.5395 1237 35.171
46.657 1246 35.2987
46.7745 1221 34.9428
46.892 1175 34.2783
47.0096 1286 35.8608
47.1271 1294 35.9722
47.2446 1258 35.4683
47.3622 1184 34.4093
47.4797 1179 34.3366
47.5973 1258 35.4683
47.7149 1175 34.2783
47.8324 1170 34.2053
47.95 1109 33.3017
48.0675 1014 31.8434
48.1851 957 30.9354
48.3027 835 28.8964
48.4202 801 28.3019
48.5378 803 28.3373
48.6554 825 28.7228
48.7729 819 28.6182
48.8904 889 29.8161
49.008 966 31.0805
49.1255 1069 32.6956
49.243 1060 32.5576
49.3605 1132 33.6452
49.478 1014 31.8434
49.5955 1053 32.45
49.713 1041 32.2645
49.8304 1034 32.1559
49.9479 1058 32.5269
50.0653 1013 31.8277
50.1827 1004 31.686
50.3001 1084 32.9242
50.4175 988 31.4325
50.5348 1152 33.9411
50.6521 1112 33.3467
50.7694 1149 33.8969
50.8867 1269 35.623
51.004 1255 35.426
51.1212 1261 35.5106
51.2384 1239 35.1994
51.3556 1304 36.1109
51.4727 1319 36.318
51.5899 1335 36.5377
51.707 1220 34.9285
51.824 1038 32.218
51.9411 1054 32.4654
52.0581 1065 32.6343
52.175 1121 33.4813
52.2919 1225 35
52.4088 1341 36.6197
52.5257 1492 38.6264
52.6425 1603 40.0375
52.7593 1549 39.3573
52.876 1696 41.1825
52.9927 1731 41.6053
53.1094 1731 41.6053
53.226 1712 41.3763
53.3426 1742 41.7373
53.4591 1733 41.6293
53.5756 1733 41.6293
53.692 1613 40.1622
53.8084 1631 40.3856
53.9248 1736 41.6653
54.0411 1744 41.7612
54.1573 1858 43.1045
54.2735 0 1
54.3896 0 1
54.5057 0 1
54.6217 0 1
54.7377 0 1
54.8537 0 1
54.9695 0 1
55.0853 0 1
55.2011 0 1
55.3168 0 1
55.4324 0 1
57.824 0 1
57.9396 0 1
58.0553 0 1
58.1711 0 1
58.2869 0 1
58.4028 0 1
58.5187 0 1
58.6347 0 1
58.7508 0 1
58.8669 0 1
58.983 1789 42.2966
59.0992 1966 44.3396
59.2155 2063 45.4203
59.3318 2169 46.5725
59.4482 2199 46.8935
59.5646 2255 47.4868
59.681 2188 46.7761
59.7975 2262 47.5605
59.9141 2235 47.2758
60.0306 2181 46.7012
60.1473 2000 44.7214
60.2639 1934 43.9773
60.3807 1884 43.4051
60.4974 1734 41.6413
60.6142 1647 40.5832
60.731 1676 40.939
60.8479 1674 40.9145
60.9648 1713 41.3884
61.0818 1817 42.6263
61.1987 1915 43.7607
61.3158 1969 44.3734
61.4328 1927 43.8976
61.5499 2008 44.8107
61.667 1910 43.7035
61.7841 1937 44.0114
61.9013 1831 42.7902
62.0185 1855 43.0697
62.1357 1804 42.4735
62.253 1830 42.7785
62.3702 1835 42.8369
62.4875 1852 43.0349
62.6049 1913 43.7379
62.7222 1911 43.715
62.8396 1941 44.0568
62.9569 1978 44.4747
63.0743 2035 45.111
63.1918 2049 45.2659
63.3092 1960 44.2719
63.4267 1929 43.9204
63.5441 1930 43.9318
63.6616 1806 42.4971
63.7791 1775 42.1307
63.8966 1682 41.0122
64.0142 1588 39.8497
64.1317 1491 38.6135
64.2492 1485 38.5357
64.3668 1498 38.704
64.4843 1522 39.0128
64.6019 1586 39.8246
64.7195 1720 41.4729
64.837 1821 42.6732
64.9546 1701 41.2432
65.0722 1780 42.19
65.1898 1676 40.939
65.3074 1806 42.4971
65.4249 1717 41.4367
65.5425 1658 40.7185
65.6601 1658 40.7185
65.7777 1709 41.3401
65.8952 1634 40.4228
66.0128 1671 40.8779
66.1304 1763 41.9881
66.2479 1806 42.4971
66.3655 1835 42.8369
66.483 1926 43.8862
66.6005 1904 43.6348
66.718 1890 43.4741
66.8355 1939 44.0341
66.953 1903 43.6234
67.0705 1868 43.2204
67.1879 1784 42.2374
67.3054 1704 41.2795
67.4228 1656 40.694
67.5402 1609 40.1123
67.6576 1546 39.3192
67.7749 1349 36.7287
67.8923 1428 37.7889
68.0096 1471 38.3536
68.1269 1586 39.8246
68.2442 1593 39.9124
68.3614 1738 41.6893
68.4787 1776 42.1426
68.5958 1873 43.2782
68.713 1892 43.4971
68.8302 1903 43.6234
68.9473 1806 42.4971
69.0643 1762 41.9762
69.1814 1718 41.4488
69.2984 1748 41.8091
69.4154 1693 41.1461
69.5323 1705 41.2916
69.6492 1810 42.5441
69.7661 1871 43.2551
69.8829 2031 45.0666
69.9997 2000 44.7214
70.1165 2071 45.5082
70.2332 2114 45.9783
70.3499 2190 46.7974
70.4665 2129 46.1411
70.5831 2120 46.0435
70.6996 2012 44.8553
70.8161 2057 45.3542
70.9326 1882 43.382
71.049 1832 42.8019
71.1653 1759 41.9404
71.2817 1709 41.3401
71.3979 1677 40.9512
71.5141 1480 38.4708
71.6303 1485 38.5357
71.7464 1257 35.4542
71.8624 0 1
71.9784 0 1
72.0944 0 1
72.2102 0 1
72.3261 0 1
72.4418 0 1
72.5575 0 1
72.6732 0 1
75.1054 0 1
75.2209 0 1
75.3365 0 1
75.4521 0 1
75.5678 0 1
75.6835 0 1
75.7993 0 1
75.9151 0 1
76.031 0 1
76.147 1741 41.7253
76.263 1897 43.5546
76.3791 1954 44.2041
76.4952 1842 42.9185
76.6113 1693 41.1461
76.7276 1595 39.9375
76.8438 1569 39.6106
76.9601 1638 40.4722
77.0765 1719 41.4608
77.1929 1759 41.9404
77.3093 1906 43.6578
77.4258 1977 44.4635
77.5423 1995 44.6654
77.6589 2005 44.7772
77.7755 1978 44.4747
77.8921 1900 43.589
78.0088 1937 44.0114
78.1256 1804 42.4735
78.2423 1647 40.5832
78.3591 1582 39.7744
78.4759 1519 38.9744
78.5928 1643 40.5339
78.7097 1748 41.8091
78.8266 1815 42.6028
78.9436 2037 45.1331
79.0606 2106 45.8912
79.1776 1980 44.4972
79.2946 2113 45.9674
79.4117 2138 46.2385
79.5288 2037 45.1331
79.6459 1967 44.3509
79.7631 1992 44.6318
79.8802 1865 43.1856
79.9974 1812 42.5676
80.1147 1725 41.5331
80.2319 1601 40.0125
80.3491 1533 39.1535
80.4664 1478 38.4448
80.5837 1469 38.3275
80.701 1473 38.3797
80.8183 1653 40.6571
80.9357 1670 40.8656
81.053 1766 42.0238
81.1704 1759 41.9404
81.2877 1774 42.1189
81.4051 1647 40.5832
81.5225 1765 42.0119
81.6399 1701 41.2432
81.7573 1677 40.9512
81.8747 1482 38.4968
81.9922 1304 36.1109
82.1096 1376 37.0945
82.227 1332 36.4966
82.3444 1562 39.5221
82.4619 1666 40.8167
82.5793 1799 42.4146
82.6967 1729 41.5812
82.8142 1836 42.8486
82.9316 1720 41.4729
83.049 1790 42.3084
83.1664 1763 41.9881
83.2838 1733 41.6293
83.4012 1629 40.3609
83.5186 1612 40.1497
83.636 1609 40.1123
83.7534 1428 37.7889
83.8708 1316 36.2767
83.9881 1317 36.2905
84.1055 1290 35.9166
84.2228 1288 35.8887
84.3401 1413 37.5899
84.4575 1503 38.7685
84.5747 1542 39.2683
84.692 1597 39.9625
84.8093 1585 39.8121
84.9265 1658 40.7185
85.0437 1593 39.9124
85.1609 1562 39.5221
85.2781 1586 39.8246
85.3952 1387 37.2424
85.5123 1332 36.4966
85.6294 1235 35.1426
85.7465 1355 36.8103
85.8636 1478 38.4448
85.9806 1579 39.7366
86.0976 1710 41.3521
86.2145 1815 42.6028
86.3315 1921 43.8292
86.4484 1879 43.3474
86.5652 1970 44.3847
86.682 1955 44.2154
86.7988 1928 43.909
86.9156 1894 43.5201
87.0323 1910 43.7035
87.149 1784 42.2374
87.2657 1757 41.9166
87.3823 1728 41.5692
87.4988 1575 39.6863
87.6154 1648 40.5956
87.7318 1591 39.8873
87.8483 1726 41.5452
87.9647 1842 42.9185
88.081 1872 43.2666
88.1973 1929 43.9204
88.3136 1961 44.2832
88.4298 1902 43.6119
88.546 1986 44.5646
88.6621 1972 44.4072
88.7781 1898 43.566
88.8942 0 1
89.0101 0 1
89.126 0 1
89.2419 0 1
89.3577 0 1
89.4734 0 1
89.5891 0 1
89.7047 0 1
89.8203 0 1
89.9358 0 1
92.3269 0 1
92.4424 0 1
92.558 0 1
92.6736 0 1
92.7893 0 1
92.905 0 1
93.0208 0 1
93.1366 0 1
93.2525 0 1
93.3685 0 1
93.4845 0 1
93.6005 1942 44.0681
93.7167 1982 44.5197
93.8328 1982 44.5197
93.949 1862 43.1509
94.0653 1935 43.9886
94.1816 1917 43.7836
94.2979 1855 43.0697
94.4143 1620 40.2492
94.5307 1510 38.8587
94.6472 1531 39.128
94.7637 1468 38.3145
94.8803 1535 39.1791
94.9969 1794 42.3556
95.1135 1908 43.6807
95.2302 2039 45.1553
95.3469 2098 45.8039
95.4637 2104 45.8694
95.5805 2138 46.2385
95.6973 2262 47.5605
95.8142 2192 46.8188
95.9311 2101 45.8367
96.048 2142 46.2817
96.1649 2076 45.5631
96.2819 1943 44.0795
96.3989 1937 44.0114
96.516 1827 42.7434
96.633 1817 42.6263
96.7501 1779 42.1782
96.8673 1684 41.0366
96.9844 1823 42.6966
97.1016 1757 41.9166
97.2188 1909 43.6921
97.336 1979 44.486
97.4532 1966 44.3396
97.5704 1972 44.4072
97.6877 1940 44.0454
97.805 1847 42.9767
97.9223 1783 42.2256
98.0396 1747 41.7971
98.1569 1489 38.5876
98.2743 1330 36.4692
98.3916 1280 35.7771
98.509 1509 38.8458
98.6264 1758 41.9285
98.7438 1880 43.359
98.8612 1979 44.486
98.9786 1993 44.643
99.096 2124 46.0869
99.2134 2034 45.0999
99.3308 2059 45.3762
99.4482 2168 46.5618
99.5656 2137 46.2277
99.6831 2062 45.4093
99.8005 1947 44.1248
99.9179 1881 43.3705
100.035 1794 42.3556
100.153 1750 41.833
100.27 1784 42.2374
100.388 1711 41.3642
100.505 1799 42.4146
100.622 1810 42.5441
100.74 1916 43.7721
100.857 1942 44.0681
100.975 1959 44.2606
101.092 1902 43.6119
101.209 1979 44.486
101.327 1968 44.3621
101.444 1954 44.2041
101.561 1780 42.19
101.679 1543 39.281
101.796 1394 37.3363
101.913 1316 36.2767
102.03 1489 38.5876
102.148 1704 41.2795
102.265 1921 43.8292
102.382 2123 46.076
102.499 2179 46.6798
102.616 2188 46.7761
102.733 2132 46.1736
102.851 2181 46.7012
102.968 2336 48.3322
103.085 2250 47.4342
103.202 2193 46.8295
103.319 2069 45.4863
103.436 2065 45.4423
103.552 2027 45.0222
103.669 1920 43.8178
103.786 1944 44.0908
103.903 1927 43.8976
104.02 1932 43.9545
104.137 1928 43.909
104.253 2084 45.6508
104.37 2146 46.3249
104.487 2123 46.076
104.603 2127 46.1194
104.72 2155 46.422
104.836 2097 45.793
104.953 2011 44.8442
105.069 1827 42.7434
105.186 1585 39.8121
105.302 1428 37.7889
105.418 1524 39.0384
105.535 1631 40.3856
105.651 2022 44.9667
105.767 2292 47.8748
105.883 2354 48.518
105.999 2378 48.7647
106.115 0 1
106.231 0 1
106.347 0 1
106.463 0 1
106.579 0 1
106.694 0 1
106.81 0 1
106.926 0 1
107.041 0 1
107.157 0 1
109.576 0 1
109.692 0 1
109.807 0 1
109.923 0 1
110.039 0 1
110.155 0 1
110.27 0 1
110.386 0 1
110.502 0 1
110.618 1661 40.7554
110.735 2090 45.7165
110.851 2232 47.244
110.967 2307 48.0312
111.083 2348 48.4562
111.199 2412 49.1121
111.316 2419 49.1833
111.432 2482 49.8197
111.549 2409 49.0816
111.665 2310 48.0625
111.782 2205 46.9574
111.898 2209 47
112.015 2080 45.607
112.132 2074 45.5412
112.248 2013 44.8665
112.365 1997 44.6878
112.482 1992 44.6318
112.599 2005 44.7772
112.716 2140 46.2601
112.832 2101 45.8367
112.949 2152 46.3897
113.066 2097 45.793
113.183 2059 45.3762
113.3 2094 45.7602
113.417 2064 45.4313
113.534 1989 44.5982
113.652 1898 43.566
113.769 1566 39.5727
113.886 1487 38.5616
114.003 1378 37.1214
114.12 1498 38.704
114.238 1873 43.2782
114.355 2225 47.1699
114.472 2190 46.7974
114.589 2278 47.7284
114.707 2288 47.833
114.824 2341 48.3839
114.942 2328 48.2494
115.059 2362 48.6004
115.176 2437 49.366
115.294 2329 48.2597
115.411 2243 47.3603
115.529 2261 47.55
115.646 2136 46.2169
115.764 2151 46.3789
115.881 2210 47.0106
115.999 2227 47.1911
116.116 2278 47.7284
116.234 2154 46.4112
116.351 2299 47.9479
116.469 2307 48.0312
116.586 2390 48.8876
116.704 2299 47.9479
116.821 2296 47.9166
116.939 2243 47.3603
117.056 2109 45.9239
117.174 2159 46.465
117.291 1754 41.8808
117.409 1547 39.3319
117.526 1536 39.1918
117.644 1533 39.1535
117.761 1812 42.5676
117.879 2108 45.913
117.996 2278 47.7284
118.114 2319 48.156
118.231 2424 49.2341
118.349 2500 50
118.466 2529 50.2892
118.584 2535 50.3488
118.701 2574 50.7346
118.819 2399 48.9796
118.936 2384 48.8262
119.053 2427 49.2646
119.171 2364 48.621
119.288 2241 47.3392
119.405 2227 47.1911
119.523 2263 47.571
119.64 2242 47.3498
119.757 2228 47.2017
119.875 2292 47.8748
119.992 2289 47.8435
120.109 2273 47.676
120.226 2258 47.5184
120.343 2315 48.1144
120.46 2247 47.4025
120.578 2216 47.0744
120.695 2186 46.7547
120.812 2107 45.9021
120.929 1862 43.1509
121.046 1656 40.694
121.163 1561 39.5095
121.279 1485 38.5357
121.396 1621 40.2616
121.513 1826 42.7317
121.63 2218 47.0956
121.747 2281 47.7598
121.863 2383 48.816
121.98 2469 49.689
122.097 2421 49.2037
122.213 2352 48.4974
122.33 2506 50.06
122.446 2378 48.7647
122.563 2300 47.9583
122.679 2344 48.4149
122.795 2225 47.1699
122.912 2271 47.655
123.028 2160 46.4758
123.144 2254 47.4763
123.26 2246 47.392
123.377 0 1
123.493 0 1
123.609 0 1
123.725 0 1
123.84 0 1
123.956 0 1
124.072 0 1
124.188 0 1
124.303 0 1
124.419 0 1
126.852 0 1
126.968 0 1
127.083 0 1
127.199 0 1
127.315 0 1
127.431 0 1
127.547 0 1
127.663 0 1
127.779 0 1
127.895 0 1
128.011 0 1
128.127 0 1
128.243 0 1
128.359 2446 49.4571
128.476 2465 49.6488
128.592 2412 49.1121
128.708 2418 49.1732
128.825 2417 49.163
128.941 2465 49.6488
129.058 2483 49.8297
129.174 2441 49.4065
129.291 2419 49.1833
129.408 2408 49.0714
129.524 2472 49.7192
129.641 2439 49.3862
129.758 2314 48.1041
129.875 2035 45.111
129.992 1777 42.1545
130.108 1672 40.8901
130.225 1572 39.6485
130.342 1770 42.0714
130.459 2009 44.8219
130.576 2447 49.4672
130.693 2558 50.5767
130.81 2607 51.0588
130.928 2652 51.4976
131.045 2674 51.7107
131.162 2671 51.6817
131.279 2674 51.7107
131.396 2791 52.8299
131.513 2595 50.9411
131.631 2660 51.5752
131.748 2634 51.3225
131.865 2745 52.3927
131.983 2548 50.4777
132.1 2708 52.0384
132.217 2692 51.8845
132.335 2617 51.1566
132.452 2627 51.2543
132.57 2584 50.8331
132.687 2575 50.7445
132.804 2563 50.6261
132.922 2552 50.5173
133.039 2563 50.6261
133.157 2438 49.3761
133.274 2434 49.3356
133.392 2186 46.7547
133.509 1894 43.5201
133.627 1778 42.1663
133.744 1658 40.7185
133.862 1668 40.8412
133.979 1892 43.4971
134.097 2172 46.6047
134.214 2373 48.7134
134.332 2552 50.5173
134.449 2626 51.2445
134.567 2636 51.342
134.684 2676 51.7301
134.802 2565 50.6458
134.919 2713 52.0865
135.037 2699 51.9519
135.154 2581 50.8035
135.272 2652 51.4976
135.389 2585 50.8429
135.507 2704 52
135.624 2657 51.5461
135.742 2592 50.9117
135.859 2657 51.5461
135.977 2675 51.7204
136.094 2675 51.7204
136.211 2785 52.7731
136.329 2624 51.225
136.446 2461 49.6085
136.564 2515 50.1498
136.681 2613 51.1175
136.798 2528 50.2792
136.915 2282 47.7703
137.033 2087 45.6837
137.15 1903 43.6234
137.267 1729 41.5812
137.384 1561 39.5095
137.502 1666 40.8167
137.619 1918 43.795
137.736 2311 48.0729
137.853 2329 48.2597
137.97 2490 49.8999
138.087 2448 49.4773
138.204 2623 51.2152
138.321 2604 51.0294
138.438 2643 51.4101
138.555 2759 52.5262
138.672 2656 51.5364
138.788 2502 50.02
138.905 2665 51.6236
139.022 2698 51.9423
139.139 2664 51.614
139.255 2658 51.5558
139.372 2696 51.923
139.488 2652 51.4976
139.605 2703 51.9904
139.721 2680 51.7687
139.838 2632 51.303
139.954 2605 51.0392
140.071 2580 50.7937
140.187 2649 51.4684
140.303 2620 51.1859
140.419 2504 50.04
140.535 2353 48.5077
140.652 2058 45.3652
140.768 0 1
140.884 0 1
141 0 1
141.115 0 1
141.231 0 1
141.347 0 1
141.463 0 1
141.578 0 1
141.694 0 1
144.104 0 1
144.219 0 1
144.335 0 1
144.45 0 1
144.566 0 1
144.682 0 1
144.798 0 1
144.914 0 1
145.03 0 1
145.146 1618 40.2244
145.262 1883 43.3935
145.378 1947 44.1248
145.494 2031 45.0666
145.61 1873 43.2782
145.726 1774 42.1189
145.842 1629 40.3609
145.959 1471 38.3536
146.075 1349 36.7287
146.192 1402 37.4433
146.308 1312 36.2215
146.425 1434 37.8682
146.541 1610 40.1248
146.658 1806 42.4971
146.774 1885 43.4166
146.891 2020 44.9444
147.008 2124 46.0869
147.125 2074 45.5412
147.241 2192 46.8188
147.358 2155 46.422
147.475 2172 46.6047
147.592 2184 46.7333
147.709 2225 47.1699
147.826 2169 46.5725
147.943 2221 47.1275
148.06 2329 48.2597
148.177 2223 47.1487
148.294 2156 46.4327
148.411 2196 46.8615
148.528 2232 47.244
148.645 2268 47.6235
148.762 2216 47.0744
148.88 2142 46.2817
148.997 2140 46.2601
149.114 2254 47.4763
149.231 2166 46.5403
149.349 2184 46.7333
149.466 2120 46.0435
149.583 1884 43.4051
149.701 1743 41.7493
149.818 1612 40.1497
149.935 1485 38.5357
150.053 1373 37.054
150.17 1429 37.8021
150.287 1564 39.5474
150.405 1774 42.1189
150.522 1868 43.2204
150.64 1997 44.6878
150.757 2241 47.3392
150.875 2192 46.8188
150.992 2232 47.244
151.11 2309 48.0521
151.227 2310 48.0625
151.344 2354 48.518
151.462 2355 48.5283
151.579 2417 49.163
151.697 2367 48.6518
151.814 2230 47.2229
151.932 2365 48.6313
152.049 2289 47.8435
152.167 2393 48.9183
152.284 2357 48.5489
152.402 2304 48
152.519 2325 48.2183
152.636 2316 48.1248
152.754 2292 47.8748
152.871 2272 47.6655
152.989 2247 47.4025
153.106 2138 46.2385
153.223 1961 44.2832
153.341 1797 42.391
153.458 1661 40.7554
153.575 1497 38.6911
153.693 1505 38.7943
153.81 1534 39.1663
153.927 1682 41.0122
154.044 1834 42.8252
154.162 1911 43.715
154.279 2123 46.076
154.396 2239 47.3181
154.513 2348 48.4562
154.63 2408 49.0714
154.747 2367 48.6518
154.864 2428 49.2747
154.981 2446 49.4571
155.098 2408 49.0714
155.215 2553 50.5272
155.332 2411 49.1019
155.449 2497 49.97
155.566 2396 48.949
155.683 2290 47.8539
155.8 2340 48.3735
155.917 2268 47.6235
156.033 2378 48.7647
156.15 0 1
156.267 0 1
156.383 0 1
156.5 0 1
156.617 0 1
156.733 0 1
156.85 0 1
156.966 0 1
157.082 0 1
157.199 0 1
157.315 0 1
157.431 0 1
157.547 0 1
157.664 0 1
157.78 0 1
157.896 0 1
158.012 0 1
158.128 0 1
158.244 0 1
158.359 0 1
158.475 0 1
158.591 0 1
158.706 0 1
