
6.15755 0 1
6.2731 0 1
6.3887 0 1
6.50437 0 1
6.62009 0 1
6.73587 0 1
6.8517 0 1
6.96759 0 1
7.08353 0 1
7.19952 0 1
7.31557 0 1
7.43166 0 1
7.54781 0 1
7.664 0 1
7.78024 0 1
7.89653 0 1
8.01286 0 1
8.12924 0 1
8.24567 0 1
8.36213 0 1
8.47864 0 1
8.59519 0 1
8.71178 0 1
8.82841 0 1
8.94508 0 1
9.06179 0 1
9.17853 0 1
9.29531 0 1
9.41212 0 1
9.52897 0 1
9.64584 0 1
9.76276 0 1
9.8797 0 1
9.99667 0 1
10.1137 0 1
10.2307 0 1
10.3478 0 1
10.4648 0 1
10.5819 0 1
10.6991 0 1
10.8162 0 1
10.9334 0 1
11.0506 0 1
11.1678 0 1
11.285 0 1
11.4023 0 1
11.5196 0 1
11.6369 0 1
11.7542 0 1
11.8715 0 1
11.9888 0 1
12.1062 0 1
12.2235 0 1
12.3409 0 1
12.4582 0 1
12.5756 0 1
12.693 0 1
12.8104 0 1
12.9278 0 1
13.0452 0 1
13.1626 0 1
13.28 0 1
13.3974 0 1
13.5149 0 1
13.6323 0 1
13.7497 0 1
13.8671 0 1
13.9845 0 1
14.1019 0 1
14.2193 0 1
14.3367 0 1
14.4541 0 1
14.5714 0 1
14.6888 0 1
14.8062 0 1
14.9235 0 1
15.0408 0 0
15.1581 0 0
15.2755 0 0
15.3927 0 0
15.51 0 0
15.6273 0 0
15.7445 0 0
15.8617 0 0
15.9789 0 0
16.0961 0 0
16.2132 0 0
16.3304 0 0
16.4475 0 0
16.5646 0 0
16.6816 0 0
16.7986 0 0
16.9156 0 0
17.0326 0 0
17.1496 0 0
17.2665 0 0
17.3833 0 0
17.5002 0 0
17.617 0 0
17.7338 0 0
17.8505 0 0
17.9672 0 0
18.0839 0 0
18.2005 0 0
18.3171 0 0
18.4337 0 0
18.5502 0 0
18.6666 0 0
18.7831 0 0
18.8994 0 0
19.0158 0 0
19.1321 0 0
19.2483 0 0
19.3645 0 0
19.4806 0 0
19.5967 0 0
19.7128 0 0
19.8288 0 0
19.9447 0 0
20.0606 0 1
20.1764 0 1
20.2922 0 1
20.4079 0 1
20.5236 0 1
20.6392 0 1
20.7548 0 1
20.8702 0 1
23.3078 0 1
23.4233 0 1
23.539 0 1
23.6547 0 1
23.7704 0 1
23.8862 0 1
24.0021 0 1
24.118 0 1
24.234 0 1
24.35 0 1
24.4661 1389 37.2693
24.5822 1404 37.47
24.6984 1377 37.108
24.8146 1346 36.6879
24.9309 1421 37.6962
25.0472 1473 38.3797
25.1636 1446 38.0263
25.28 1506 38.8072
25.3965 1532 39.1408
25.513 1552 39.3954
25.6296 1550 39.37
25.7462 1535 39.1791
25.8628 1554 39.4208
25.9795 1514 38.9102
26.0962 1546 39.3192
26.213 1526 39.064
26.3298 1551 39.3827
26.4466 1487 38.5616
26.5635 1504 38.7814
26.6804 1506 38.8072
26.7973 1432 37.8418
26.9143 1375 37.081
27.0313 1295 35.9861
27.1483 1346 36.6879
27.2653 1320 36.3318
27.3824 1387 37.2424
27.4996 1371 37.027
27.6167 1360 36.8782
27.7339 1311 36.2077
27.8511 1263 35.5387
27.9683 1292 35.9444
28.0855 1313 36.2353
28.2028 1322 36.3593
28.3201 1360 36.8782
28.4374 1329 36.4555
28.5547 1362 36.9053
28.6721 1414 37.6032
28.7894 1346 36.6879
28.9068 1436 37.8946
29.0242 1457 38.1707
29.1416 1382 37.1753
29.259 1438 37.921
29.3764 1450 38.0789
29.4939 1401 37.4299
29.6113 1525 39.0512
29.7288 1442 37.9737
29.8463 1444 38
29.9638 1431 37.8286
30.0812 1418 37.6563
30.1987 1403 37.4566
30.3162 1283 35.819
30.4337 1211 34.7994
30.5512 1218 34.8999
30.6687 1228 35.0428
30.7862 1243 35.2562
30.9037 1238 35.1852
31.0212 1376 37.0945
31.1387 1305 36.1248
31.2562 1357 36.8375
31.3737 1221 34.9428
31.4912 1257 35.4542
31.6087 1318 36.3043
31.7262 1303 36.0971
31.8436 1233 35.1141
31.9611 1356 36.8239
32.0785 1350 36.7423
32.1959 1309 36.1801
32.3134 1408 37.5233
32.4308 1422 37.7094
32.5482 1411 37.5633
32.6655 1413 37.5899
32.7829 1367 36.973
32.9002 1340 36.606
33.0176 1379 37.1349
33.1349 1412 37.5766
33.2522 1345 36.6742
33.3694 1418 37.6563
33.4867 1420 37.6829
33.6039 1332 36.4966
33.7211 1338 36.5787
33.8383 1338 36.5787
33.9554 1420 37.6829
34.0725 1306 36.1386
34.1896 1145 33.8378
34.3067 1133 33.6601
34.4237 1168 34.176
34.5407 1241 35.2278
34.6577 1223 34.9714
34.7746 1250 35.3553
34.8915 1244 35.2704
35.0084 1228 35.0428
35.1252 1217 34.8855
35.242 1220 34.9285
35.3587 1261 35.5106
35.4755 1246 35.2987
35.5921 1230 35.0714
35.7088 1278 35.7491
35.8254 1270 35.6371
35.9419 1330 36.4692
36.0584 1377 37.108
36.1749 1276 35.7211
36.2913 1345 36.6742
36.4077 1348 36.7151
36.524 1384 37.2022
36.6403 1396 37.3631
36.7565 1365 36.9459
36.8727 1395 37.3497
36.9889 1271 35.6511
37.1049 1405 37.4833
37.221 0 1
37.3369 0 1
37.4529 0 1
37.5687 0 1
37.6845 0 1
37.8003 0 1
37.916 0 1
38.0316 0 1
38.1472 0 1
40.5851 0 1
40.7008 0 1
40.8164 0 1
40.9322 0 1
41.048 0 1
41.1639 0 1
41.2798 0 1
41.3958 0 1
41.5118 0 1
41.6279 0 1
41.744 1076 32.8024
41.8602 1089 33
41.9765 1112 33.3467
42.0928 1078 32.8329
42.2091 1102 33.1964
42.3255 1111 33.3317
42.4419 1144 33.8231
42.5584 1159 34.0441
42.675 1155 33.9853
42.7915 1098 33.1361
42.9081 1081 32.8786
43.0248 1002 31.6544
43.1415 935 30.5778
43.2582 997 31.5753
43.375 994 31.5278
43.4918 961 31
43.6087 1062 32.5883
43.7256 1008 31.749
43.8425 1012 31.8119
43.9595 956 30.9192
44.0765 929 30.4795
44.1935 972 31.1769
44.3106 974 31.209
44.4277 921 30.348
44.5448 1036 32.187
44.6619 1019 31.9218
44.7791 975 31.225
44.8963 1017 31.8904
45.0136 972 31.1769
45.1308 1000 31.6228
45.2481 957 30.9354
45.3654 971 31.1609
45.4827 975 31.225
45.6001 995 31.5436
45.7174 987 31.4166
45.8348 977 31.257
45.9522 853 29.2062
46.0697 941 30.6757
46.1871 976 31.241
46.3046 900 30
46.422 959 30.9677
46.5395 853 29.2062
46.657 788 28.0713
46.7745 753 27.4408
46.892 750 27.3861
47.0096 739 27.1846
47.1271 842 29.0172
47.2446 788 28.0713
47.3622 778 27.8927
47.4797 713 26.7021
47.5973 735 27.1109
47.7149 716 26.7582
47.8324 720 26.8328
47.95 757 27.5136
48.0675 735 27.1109
48.1851 772 27.7849
48.3027 819 28.6182
48.4202 768 27.7128
48.5378 759 27.55
48.6554 767 27.6948
48.7729 733 27.074
48.8904 723 26.8887
49.008 748 27.3496
49.1255 705 26.5518
49.243 771 27.7669
49.3605 776 27.8568
49.478 772 27.7849
49.5955 765 27.6586
49.713 816 28.5657
49.8304 814 28.5307
49.9479 785 28.0179
50.0653 760 27.5681
50.1827 747 27.3313
50.3001 673 25.9422
50.4175 666 25.807
50.5348 749 27.3679
50.6521 784 28
50.7694 809 28.4429
50.8867 823 28.688
51.004 832 28.8444
51.1212 762 27.6043
51.2384 847 29.1033
51.3556 825 28.7228
51.4727 921 30.348
51.5899 853 29.2062
51.707 963 31.0322
51.824 967 31.0966
51.9411 940 30.6594
52.0581 974 31.209
52.175 968 31.1127
52.2919 994 31.5278
52.4088 991 31.4802
52.5257 1000 31.6228
52.6425 957 30.9354
52.7593 971 31.1609
52.876 940 30.6594
52.9927 1011 31.7962
53.1094 983 31.3528
53.226 1026 32.0312
53.3426 1046 32.3419
53.4591 1045 32.3265
53.5756 1011 31.7962
53.692 964 31.0483
53.8084 992 31.496
53.9248 900 30
54.0411 911 30.1828
54.1573 917 30.282
54.2735 0 1
54.3896 0 1
54.5057 0 1
54.6217 0 1
54.7377 0 1
54.8537 0 1
54.9695 0 1
55.0853 0 1
55.2011 0 1
55.3168 0 1
55.4324 0 1
57.824 0 1
57.9396 0 1
58.0553 0 1
58.1711 0 1
58.2869 0 1
58.4028 0 1
58.5187 0 1
58.6347 0 1
58.7508 0 1
58.8669 0 1
58.983 1036 32.187
59.0992 1048 32.3728
59.2155 975 31.225
59.3318 1009 31.7648
59.4482 1030 32.0936
59.5646 1020 31.9374
59.681 1036 32.187
59.7975 1048 32.3728
59.9141 1125 33.541
60.0306 1091 33.0303
60.1473 1204 34.6987
60.2639 1129 33.6006
60.3807 1140 33.7639
60.4974 1139 33.7491
60.6142 1069 32.6956
60.731 1111 33.3317
60.8479 1119 33.4515
60.9648 1088 32.9848
61.0818 1053 32.45
61.1987 1051 32.4191
61.3158 1095 33.0908
61.4328 999 31.607
61.5499 1060 32.5576
61.667 1089 33
61.7841 1077 32.8177
61.9013 1063 32.6037
62.0185 1057 32.5115
62.1357 1035 32.1714
62.253 1049 32.3883
62.3702 1011 31.7962
62.4875 994 31.5278
62.6049 905 30.0832
62.7222 884 29.7321
62.8396 916 30.2655
62.9569 864 29.3939
63.0743 985 31.3847
63.1918 959 30.9677
63.3092 915 30.249
63.4267 922 30.3645
63.5441 1041 32.2645
63.6616 1022 31.9687
63.7791 947 30.7734
63.8966 929 30.4795
64.0142 980 31.305
64.1317 939 30.6431
64.2492 1008 31.749
64.3668 947 30.7734
64.4843 933 30.545
64.6019 1002 31.6544
64.7195 906 30.0998
64.837 908 30.133
64.9546 935 30.5778
65.0722 916 30.2655
65.1898 875 29.5804
65.3074 923 30.3809
65.4249 907 30.1164
65.5425 875 29.5804
65.6601 889 29.8161
65.7777 884 29.7321
65.8952 889 29.8161
66.0128 882 29.6985
66.1304 780 27.9285
66.2479 773 27.8029
66.3655 744 27.2764
66.483 729 27
66.6005 744 27.2764
66.718 782 27.9643
66.8355 841 29
66.953 834 28.8791
67.0705 898 29.9666
67.1879 870 29.4958
67.3054 833 28.8617
67.4228 845 29.0689
67.5402 869 29.4788
67.6576 898 29.9666
67.7749 858 29.2916
67.8923 890 29.8329
68.0096 850 29.1548
68.1269 822 28.6705
68.2442 827 28.7576
68.3614 858 29.2916
68.4787 824 28.7054
68.5958 833 28.8617
68.713 855 29.2404
68.8302 886 29.7658
68.9473 837 28.931
69.0643 833 28.8617
69.1814 813 28.5132
69.2984 821 28.6531
69.4154 838 28.9482
69.5323 886 29.7658
69.6492 811 28.4781
69.7661 846 29.0861
69.8829 763 27.6225
69.9997 640 25.2982
70.1165 709 26.6271
70.2332 740 27.2029
70.3499 730 27.0185
70.4665 697 26.4008
70.5831 764 27.6405
70.6996 815 28.5482
70.8161 797 28.2312
70.9326 773 27.8029
71.049 750 27.3861
71.1653 787 28.0535
71.2817 731 27.037
71.3979 717 26.7769
71.5141 746 27.313
71.6303 746 27.313
71.7464 652 25.5343
71.8624 0 1
71.9784 0 1
72.0944 0 1
72.2102 0 1
72.3261 0 1
72.4418 0 1
72.5575 0 1
72.6732 0 1
75.1054 0 1
75.2209 0 1
75.3365 0 1
75.4521 0 1
75.5678 0 1
75.6835 0 1
75.7993 0 1
75.9151 0 1
76.031 0 1
76.147 547 23.388
76.263 611 24.7184
76.3791 597 24.4336
76.4952 613 24.7588
76.6113 603 24.5561
76.7276 575 23.9792
76.8438 507 22.5167
76.9601 600 24.4949
77.0765 549 23.4307
77.1929 544 23.3238
77.3093 580 24.0832
77.4258 553 23.516
77.5423 534 23.1084
77.6589 530 23.0217
77.7755 548 23.4094
77.8921 514 22.6716
78.0088 497 22.2935
78.1256 523 22.8692
78.2423 546 23.3666
78.3591 510 22.5832
78.4759 514 22.6716
78.5928 486 22.0454
78.7097 498 22.3159
78.8266 501 22.383
78.9436 437 20.9045
79.0606 434 20.8327
79.1776 337 18.3576
79.2946 376 19.3907
79.4117 404 20.0998
79.5288 411 20.2731
79.6459 399 19.975
79.7631 432 20.7846
79.8802 392 19.799
79.9974 436 20.8806
80.1147 421 20.5183
80.2319 352 18.7617
80.3491 378 19.4422
80.4664 366 19.1311
80.5837 374 19.3391
80.701 358 18.9209
80.8183 349 18.6815
80.9357 334 18.2757
81.053 309 17.5784
81.1704 304 17.4356
81.2877 306 17.4929
81.4051 310 17.6068
81.5225 309 17.5784
81.6399 296 17.2047
81.7573 294 17.1464
81.8747 293 17.1172
81.9922 251 15.843
82.1096 282 16.7929
82.227 260 16.1245
82.3444 244 15.6205
82.4619 212 14.5602
82.5793 245 15.6525
82.6967 229 15.1327
82.8142 177 13.3041
82.9316 170 13.0384
83.049 162 12.7279
83.1664 195 13.9642
83.2838 194 13.9284
83.4012 179 13.3791
83.5186 185 13.6015
83.636 160 12.6491
83.7534 171 13.0767
83.8708 140 11.8322
83.9881 161 12.6886
84.1055 127 11.2694
84.2228 118 10.8628
84.3401 122 11.0454
84.4575 106 10.2956
84.5747 130 11.4018
84.692 106 10.2956
84.8093 109 10.4403
84.9265 101 10.0499
85.0437 107 10.3441
85.1609 98 9.89949
85.2781 97 9.84886
85.3952 82 9.05539
85.5123 91 9.53939
85.6294 90 9.48683
85.7465 113 10.6301
85.8636 89 9.43398
85.9806 104 10.198
86.0976 74 8.60233
86.2145 69 8.30662
86.3315 86 9.27362
86.4484 90 9.48683
86.5652 117 10.8167
86.682 113 10.6301
86.7988 141 11.8743
86.9156 139 11.7898
87.0323 145 12.0416
87.149 154 12.4097
87.2657 169 13
87.3823 162 12.7279
87.4988 151 12.2882
87.6154 155 12.4499
87.7318 175 13.2288
87.8483 191 13.8203
87.9647 196 14
88.081 211 14.5258
88.1973 217 14.7309
88.3136 246 15.6844
88.4298 252 15.8745
88.546 245 15.6525
88.6621 248 15.748
88.7781 279 16.7033
88.8942 0 1
89.0101 0 1
89.126 0 1
89.2419 0 1
89.3577 0 1
89.4734 0 1
89.5891 0 1
89.7047 0 1
89.8203 0 1
89.9358 0 1
92.3269 0 1
92.4424 0 1
92.558 0 1
92.6736 0 1
92.7893 0 1
92.905 0 1
93.0208 0 1
93.1366 0 1
93.2525 0 1
93.3685 0 1
93.4845 0 1
93.6005 425 20.6155
93.7167 433 20.8087
93.8328 419 20.4695
93.949 417 20.4206
94.0653 395 19.8746
94.1816 346 18.6011
94.2979 390 19.7484
94.4143 370 19.2354
94.5307 366 19.1311
94.6472 375 19.3649
94.7637 336 18.3303
94.8803 323 17.9722
94.9969 299 17.2916
95.1135 357 18.8944
95.2302 337 18.3576
95.3469 269 16.4012
95.4637 239 15.4596
95.5805 230 15.1658
95.6973 305 17.4642
95.8142 362 19.0263
95.9311 322 17.9444
96.048 388 19.6977
96.1649 348 18.6548
96.2819 415 20.3715
96.3989 421 20.5183
96.516 418 20.445
96.633 422 20.5426
96.7501 431 20.7605
96.8673 430 20.7364
96.9844 426 20.6398
97.1016 456 21.3542
97.2188 480 21.9089
97.336 487 22.0681
97.4532 527 22.9565
97.5704 523 22.8692
97.6877 543 23.3024
97.805 558 23.622
97.9223 534 23.1084
98.0396 513 22.6495
98.1569 577 24.0208
98.2743 611 24.7184
98.3916 536 23.1517
98.509 618 24.8596
98.6264 644 25.3772
98.7438 627 25.04
98.8612 617 24.8395
98.9786 542 23.2809
99.096 451 21.2368
99.2134 465 21.5639
99.3308 629 25.0799
99.4482 671 25.9037
99.5656 667 25.8263
99.6831 738 27.1662
99.8005 749 27.3679
99.9179 712 26.6833
100.035 735 27.1109
100.153 743 27.258
100.27 765 27.6586
100.388 751 27.4044
100.505 774 27.8209
100.622 728 26.9815
100.74 824 28.7054
100.857 833 28.8617
100.975 795 28.1957
101.092 793 28.1603
101.209 849 29.1376
101.327 806 28.3901
101.444 845 29.0689
101.561 852 29.189
101.679 870 29.4958
101.796 909 30.1496
101.913 774 27.8209
102.03 881 29.6816
102.148 861 29.3428
102.265 893 29.8831
102.382 772 27.7849
102.499 778 27.8927
102.616 665 25.7876
102.733 537 23.1733
102.851 745 27.2947
102.968 820 28.6356
103.085 897 29.95
103.202 868 29.4618
103.319 846 29.0861
103.436 867 29.4449
103.552 872 29.5296
103.669 853 29.2062
103.786 919 30.315
103.903 832 28.8444
104.02 906 30.0998
104.137 918 30.2985
104.253 952 30.8545
104.37 862 29.3598
104.487 934 30.5614
104.603 936 30.5941
104.72 923 30.3809
104.836 924 30.3974
104.953 923 30.3809
105.069 946 30.7571
105.186 964 31.0483
105.302 904 30.0666
105.418 935 30.5778
105.535 954 30.8869
105.651 938 30.6268
105.767 958 30.9516
105.883 873 29.5466
105.999 766 27.6767
106.115 0 1
106.231 0 1
106.347 0 1
106.463 0 1
106.579 0 1
106.694 0 1
106.81 0 1
106.926 0 1
107.041 0 1
107.157 0 1
109.576 0 1
109.692 0 1
109.807 0 1
109.923 0 1
110.039 0 1
110.155 0 1
110.27 0 1
110.386 0 1
110.502 0 1
110.618 718 26.7955
110.735 740 27.2029
110.851 704 26.533
110.967 659 25.671
111.083 608 24.6577
111.199 576 24
111.316 542 23.2809
111.432 629 25.0799
111.549 606 24.6171
111.665 636 25.219
111.782 640 25.2982
111.898 649 25.4755
112.015 676 26
112.132 659 25.671
112.248 620 24.8998
112.365 631 25.1197
112.482 652 25.5343
112.599 602 24.5357
112.716 621 24.9199
112.832 618 24.8596
112.949 568 23.8328
113.066 574 23.9583
113.183 583 24.1454
113.3 594 24.3721
113.417 588 24.2487
113.534 592 24.3311
113.652 587 24.2281
113.769 535 23.1301
113.886 546 23.3666
114.003 532 23.0651
114.12 573 23.9374
114.238 522 22.8473
114.355 502 22.4054
114.472 476 21.8174
114.589 470 21.6795
114.707 470 21.6795
114.824 433 20.8087
114.942 457 21.3776
115.059 444 21.0713
115.176 538 23.1948
115.294 525 22.9129
115.411 514 22.6716
115.529 533 23.0868
115.646 514 22.6716
115.764 463 21.5174
115.881 484 22
115.999 486 22.0454
116.116 525 22.9129
116.234 509 22.561
116.351 482 21.9545
116.469 500 22.3607
116.586 457 21.3776
116.704 524 22.891
116.821 482 21.9545
116.939 498 22.3159
117.056 520 22.8035
117.174 517 22.7376
117.291 464 21.5407
117.409 477 21.8403
117.526 494 22.2261
117.644 519 22.7816
117.761 478 21.8632
117.879 424 20.5913
117.996 411 20.2731
118.114 374 19.3391
118.231 403 20.0749
118.349 454 21.3073
118.466 425 20.6155
118.584 455 21.3307
118.701 478 21.8632
118.819 471 21.7025
118.936 498 22.3159
119.053 520 22.8035
119.171 536 23.1517
119.288 482 21.9545
119.405 513 22.6495
119.523 498 22.3159
119.64 520 22.8035
119.757 495 22.2486
119.875 503 22.4277
119.992 564 23.7487
120.109 544 23.3238
120.226 550 23.4521
120.343 518 22.7596
120.46 515 22.6936
120.578 551 23.4734
120.695 522 22.8473
120.812 610 24.6982
120.929 519 22.7816
121.046 522 22.8473
121.163 529 23
121.279 532 23.0651
121.396 535 23.1301
121.513 498 22.3159
121.63 463 21.5174
121.747 399 19.975
121.863 358 18.9209
121.98 446 21.1187
122.097 541 23.2594
122.213 565 23.7697
122.33 541 23.2594
122.446 543 23.3024
122.563 537 23.1733
122.679 575 23.9792
122.795 565 23.7697
122.912 603 24.5561
123.028 589 24.2693
123.144 578 24.0416
123.26 578 24.0416
123.377 0 1
123.493 0 1
123.609 0 1
123.725 0 1
123.84 0 1
123.956 0 1
124.072 0 1
124.188 0 1
124.303 0 1
124.419 0 1
126.852 0 1
126.968 0 1
127.083 0 1
127.199 0 1
127.315 0 1
127.431 0 1
127.547 0 1
127.663 0 1
127.779 0 1
127.895 0 1
128.011 0 1
128.127 0 1
128.243 0 1
128.359 765 27.6586
128.476 732 27.0555
128.592 758 27.5318
128.708 725 26.9258
128.825 745 27.2947
128.941 756 27.4955
129.058 703 26.5141
129.174 782 27.9643
129.291 760 27.5681
129.408 771 27.7669
129.524 758 27.5318
129.641 762 27.6043
129.758 756 27.4955
129.875 746 27.313
129.992 751 27.4044
130.108 730 27.0185
130.225 706 26.5707
130.342 644 25.3772
130.459 564 23.7487
130.576 578 24.0416
130.693 496 22.2711
130.81 477 21.8403
130.928 551 23.4734
131.045 646 25.4165
131.162 693 26.3249
131.279 794 28.178
131.396 806 28.3901
131.513 763 27.6225
131.631 785 28.0179
131.748 772 27.7849
131.865 782 27.9643
131.983 803 28.3373
132.1 828 28.775
132.217 775 27.8388
132.335 807 28.4077
132.452 825 28.7228
132.57 795 28.1957
132.687 787 28.0535
132.804 844 29.0517
132.922 722 26.8701
133.039 757 27.5136
133.157 789 28.0891
133.274 789 28.0891
133.392 824 28.7054
133.509 763 27.6225
133.627 805 28.3725
133.744 772 27.7849
133.862 759 27.55
133.979 694 26.3439
134.097 607 24.6374
134.214 653 25.5539
134.332 563 23.7276
134.449 566 23.7908
134.567 630 25.0998
134.684 729 27
134.802 802 28.3196
134.919 878 29.6311
135.037 860 29.3258
135.154 915 30.249
135.272 834 28.8791
135.389 866 29.4279
135.507 843 29.0345
135.624 949 30.8058
135.742 832 28.8444
135.859 870 29.4958
135.977 896 29.9333
136.094 854 29.2233
136.211 859 29.3087
136.329 912 30.1993
136.446 879 29.6479
136.564 868 29.4618
136.681 882 29.6985
136.798 908 30.133
136.915 918 30.2985
137.033 975 31.225
137.15 940 30.6594
137.267 844 29.0517
137.384 837 28.931
137.502 780 27.9285
137.619 754 27.4591
137.736 731 27.037
137.853 678 26.0384
137.97 657 25.632
138.087 706 26.5707
138.204 678 26.0384
138.321 745 27.2947
138.438 841 29
138.555 901 30.0167
138.672 923 30.3809
138.788 934 30.5614
138.905 948 30.7896
139.022 954 30.8869
139.139 1038 32.218
139.255 1001 31.6386
139.372 1055 32.4808
139.488 979 31.289
139.605 1002 31.6544
139.721 921 30.348
139.838 1004 31.686
139.954 993 31.5119
140.071 939 30.6431
140.187 946 30.7571
140.303 949 30.8058
140.419 981 31.3209
140.535 982 31.3369
140.652 993 31.5119
140.768 0 1
140.884 0 1
141 0 1
141.115 0 1
141.231 0 1
141.347 0 1
141.463 0 1
141.578 0 1
141.694 0 1
144.104 0 1
144.219 0 1
144.335 0 1
144.45 0 1
144.566 0 1
144.682 0 1
144.798 0 1
144.914 0 1
145.03 0 1
145.146 909 30.1496
145.262 920 30.3315
145.378 924 30.3974
145.494 930 30.4959
145.61 891 29.8496
145.726 927 30.4467
145.842 883 29.7153
145.959 869 29.4788
146.075 852 29.189
146.192 825 28.7228
146.308 779 27.9106
146.425 725 26.9258
146.541 707 26.5895
146.658 747 27.3313
146.774 753 27.4408
146.891 718 26.7955
147.008 781 27.9464
147.125 836 28.9137
147.241 903 30.05
147.358 922 30.3645
147.475 942 30.692
147.592 895 29.9166
147.709 920 30.3315
147.826 955 30.9031
147.943 988 31.4325
148.06 853 29.2062
148.177 903 30.05
148.294 968 31.1127
148.411 892 29.8664
148.528 938 30.6268
148.645 935 30.5778
148.762 885 29.7489
148.88 944 30.7246
148.997 877 29.6142
149.114 934 30.5614
149.231 903 30.05
149.349 907 30.1164
149.466 886 29.7658
149.583 817 28.5832
149.701 774 27.8209
149.818 797 28.2312
149.935 745 27.2947
150.053 771 27.7669
150.17 769 27.7308
150.287 738 27.1662
150.405 760 27.5681
150.522 781 27.9464
150.64 846 29.0861
150.757 915 30.249
150.875 859 29.3087
150.992 891 29.8496
151.11 945 30.7409
151.227 930 30.4959
151.344 941 30.6757
151.462 959 30.9677
151.579 894 29.8998
151.697 911 30.1828
151.814 966 31.0805
151.932 909 30.1496
152.049 908 30.133
152.167 940 30.6594
152.284 930 30.4959
152.402 968 31.1127
152.519 937 30.6105
152.636 955 30.9031
152.754 959 30.9677
152.871 897 29.95
152.989 943 30.7083
153.106 883 29.7153
153.223 862 29.3598
153.341 811 28.4781
153.458 848 29.1204
153.575 790 28.1069
153.693 773 27.8029
153.81 754 27.4591
153.927 826 28.7402
154.044 830 28.8097
154.162 820 28.6356
154.279 900 30
154.396 900 30
154.513 937 30.6105
154.63 883 29.7153
154.747 1004 31.686
154.864 999 31.607
154.981 990 31.4643
155.098 1006 31.7175
155.215 1024 32
155.332 1018 31.9061
155.449 971 31.1609
155.566 1030 32.0936
155.683 999 31.607
155.8 1020 31.9374
155.917 955 30.9031
156.033 998 31.5911
156.15 0 1
156.267 0 1
156.383 0 1
156.5 0 1
156.617 0 1
156.733 0 1
156.85 0 1
156.966 0 1
157.082 0 1
157.199 0 1
157.315 0 1
157.431 0 1
157.547 0 1
157.664 0 1
157.78 0 1
157.896 0 1
158.012 0 1
158.128 0 1
158.244 0 1
158.359 0 1
158.475 0 1
158.591 0 1
158.706 0 1
