
6.15755 0 1
6.2731 0 1
6.3887 0 1
6.50437 0 1
6.62009 0 1
6.73587 0 1
6.8517 0 1
6.96759 0 1
7.08353 0 1
7.19952 0 1
7.31557 0 1
7.43166 0 1
7.54781 0 1
7.664 0 1
7.78024 0 1
7.89653 0 1
8.01286 0 1
8.12924 0 1
8.24567 0 1
8.36213 0 1
8.47864 0 1
8.59519 0 1
8.71178 0 1
8.82841 0 1
8.94508 0 1
9.06179 0 1
9.17853 0 1
9.29531 0 1
9.41212 0 1
9.52897 0 1
9.64584 0 1
9.76276 0 1
9.8797 0 1
9.99667 0 1
10.1137 0 1
10.2307 0 1
10.3478 0 1
10.4648 0 1
10.5819 0 1
10.6991 0 1
10.8162 0 1
10.9334 0 1
11.0506 0 1
11.1678 0 1
11.285 0 1
11.4023 0 1
11.5196 0 1
11.6369 0 1
11.7542 0 1
11.8715 0 1
11.9888 0 1
12.1062 0 1
12.2235 0 1
12.3409 0 1
12.4582 0 1
12.5756 0 1
12.693 0 1
12.8104 0 1
12.9278 0 1
13.0452 0 1
13.1626 0 1
13.28 0 1
13.3974 0 1
13.5149 0 1
13.6323 0 1
13.7497 0 1
13.8671 0 1
13.9845 0 1
14.1019 0 1
14.2193 0 1
14.3367 0 1
14.4541 0 1
14.5714 0 1
14.6888 0 1
14.8062 0 1
14.9235 0 1
15.0408 8148 90.2663
15.1581 8494 92.1629
15.2755 8526 92.3363
15.3927 8664 93.0806
15.51 8646 92.9839
15.6273 8566 92.5527
15.7445 8597 92.72
15.8617 8553 92.4824
15.9789 8394 91.6188
16.0961 8054 89.7441
16.2132 8194 90.5207
16.3304 8202 90.5649
16.4475 8223 90.6808
16.5646 8428 91.8041
16.6816 8739 93.4826
16.7986 8416 91.7388
16.9156 8478 92.0761
17.0326 8483 92.1032
17.1496 8301 91.1098
17.2665 8426 91.7932
17.3833 8007 89.4818
17.5002 7913 88.955
17.617 7964 89.2412
17.7338 8045 89.6939
17.8505 8064 89.7998
17.9672 8315 91.1866
18.0839 8613 92.8062
18.2005 9017 94.9579
18.3171 8932 94.5093
18.4337 9210 95.9687
18.5502 9308 96.478
18.6666 9616 98.0612
18.7831 9543 97.6883
18.8994 9281 96.3379
19.0158 9175 95.7862
19.1321 8879 94.2284
19.2483 8627 92.8816
19.3645 8474 92.0543
19.4806 7945 89.1347
19.5967 7629 87.3441
19.7128 7482 86.4986
19.8288 7336 85.6505
19.9447 6860 82.8251
20.0606 0 1
20.1764 0 1
20.2922 0 1
20.4079 0 1
20.5236 0 1
20.6392 0 1
20.7548 0 1
20.8702 0 1
23.3078 0 1
23.4233 0 1
23.539 0 1
23.6547 0 1
23.7704 0 1
23.8862 0 1
24.0021 0 1
24.118 0 1
24.234 0 1
24.35 0 1
24.4661 7834 88.5099
24.5822 7768 88.1363
24.6984 7619 87.2869
24.8146 7512 86.6718
24.9309 7527 86.7583
25.0472 7855 88.6284
25.1636 8249 90.824
25.28 8295 91.0769
25.3965 8429 91.8096
25.513 8735 93.4612
25.6296 8782 93.7123
25.7462 8955 94.6309
25.8628 8927 94.4828
25.9795 8785 93.7283
26.0962 8546 92.4446
26.213 8201 90.5594
26.3298 7953 89.1796
26.4466 7913 88.955
26.5635 7933 89.0674
26.6804 8224 90.6863
26.7973 8281 91
26.9143 8607 92.7739
27.0313 8587 92.6661
27.1483 8818 93.9042
27.2653 9007 94.9052
27.3824 8928 94.4881
27.4996 8882 94.2444
27.6167 8753 93.5575
27.7339 8628 92.887
27.8511 8685 93.1933
27.9683 8254 90.8515
28.0855 8215 90.6366
28.2028 7939 89.1011
28.3201 7620 87.2926
28.4374 7450 86.3134
28.5547 7600 87.178
28.6721 7593 87.1378
28.7894 7788 88.2496
28.9068 8068 89.822
29.0242 8152 90.2884
29.1416 8267 90.923
29.259 8307 91.1427
29.3764 8072 89.8443
29.4939 8246 90.8075
29.6113 7923 89.0112
29.7288 7782 88.2156
29.8463 7431 86.2032
29.9638 7261 85.2115
30.0812 7190 84.7939
30.1987 7644 87.43
30.3162 7827 88.4703
30.4337 7876 88.7468
30.5512 8152 90.2884
30.6687 8414 91.7279
30.7862 8496 92.1737
30.9037 8538 92.4013
31.0212 8473 92.0489
31.1387 8554 92.4878
31.2562 8429 91.8096
31.3737 8204 90.5759
31.4912 8242 90.7855
31.6087 7978 89.3197
31.7262 7821 88.4364
31.8436 7600 87.178
31.9611 7434 86.2206
32.0785 7130 84.4393
32.1959 7240 85.0882
32.3134 7565 86.977
32.4308 7757 88.0738
32.5482 8030 89.6103
32.6655 8007 89.4818
32.7829 8011 89.5042
32.9002 7911 88.9438
33.0176 7989 89.3812
33.1349 8121 90.1166
33.2522 7963 89.2356
33.3694 7464 86.3944
33.4867 7486 86.5217
33.6039 7248 85.1352
33.7211 7159 84.6109
33.8383 7074 84.1071
33.9554 7433 86.2148
34.0725 7427 86.18
34.1896 7805 88.3459
34.3067 7874 88.7356
34.4237 7899 88.8763
34.5407 8117 90.0944
34.6577 8326 91.2469
34.7746 8381 91.5478
34.8915 8210 90.6091
35.0084 8092 89.9555
35.1252 7868 88.7017
35.242 7869 88.7074
35.3587 7481 86.4928
35.4755 7519 86.7122
35.5921 7309 85.4927
35.7088 6855 82.7949
35.8254 6659 81.6027
35.9419 7056 84
36.0584 7132 84.4512
36.1749 7233 85.047
36.2913 7443 86.2728
36.4077 7616 87.2697
36.524 7638 87.3957
36.6403 7594 87.1436
36.7565 7582 87.0747
36.8727 7629 87.3441
36.9889 7298 85.4283
37.1049 7163 84.6345
37.221 0 1
37.3369 0 1
37.4529 0 1
37.5687 0 1
37.6845 0 1
37.8003 0 1
37.916 0 1
38.0316 0 1
38.1472 0 1
40.5851 0 1
40.7008 0 1
40.8164 0 1
40.9322 0 1
41.048 0 1
41.1639 0 1
41.2798 0 1
41.3958 0 1
41.5118 0 1
41.6279 0 1
41.744 5887 76.7268
41.8602 6231 78.9367
41.9765 6472 80.4487
42.0928 6577 81.0987
42.2091 6343 79.643
42.3255 6344 79.6492
42.4419 6048 77.7689
42.5584 5853 76.5049
42.675 5713 75.5844
42.7915 5714 75.591
42.9081 5942 77.0844
43.0248 6285 79.278
43.1415 6425 80.1561
43.2582 6420 80.1249
43.375 6356 79.7245
43.4918 6479 80.4922
43.6087 6552 80.9444
43.7256 6550 80.9321
43.8425 6268 79.1707
43.9595 6323 79.5173
44.0765 6108 78.1537
44.1935 5917 76.922
44.3106 5700 75.4983
44.4277 5528 74.3505
44.5448 5193 72.0625
44.6619 4871 69.7925
44.7791 4931 70.2211
44.8963 4786 69.1809
45.0136 4852 69.6563
45.1308 4977 70.5479
45.2481 5169 71.8958
45.3654 5139 71.6868
45.4827 5185 72.0069
45.6001 5128 71.6101
45.7174 5074 71.232
45.8348 5092 71.3583
45.9522 4845 69.606
46.0697 4780 69.1375
46.1871 4556 67.4981
46.3046 4488 66.9925
46.422 4486 66.9776
46.5395 4587 67.7274
46.657 4688 68.469
46.7745 4785 69.1737
46.892 4909 70.0643
47.0096 4817 69.4046
47.1271 4840 69.5701
47.2446 4766 69.0362
47.3622 4923 70.1641
47.4797 4666 68.3081
47.5973 4621 67.9779
47.7149 4556 67.4981
47.8324 4467 66.8356
47.95 4217 64.9384
48.0675 4132 64.2806
48.1851 4000 63.2456
48.3027 3783 61.5061
48.4202 3934 62.7216
48.5378 3963 62.9524
48.6554 4102 64.0469
48.7729 4196 64.7765
48.8904 4249 65.1844
49.008 4165 64.5368
49.1255 4435 66.5958
49.243 4459 66.7757
49.3605 4493 67.0298
49.478 4436 66.6033
49.5955 4092 63.9687
49.713 4156 64.467
49.8304 4137 64.3195
49.9479 4087 63.9296
50.0653 4331 65.8103
50.1827 4580 67.6757
50.3001 4668 68.3228
50.4175 4849 69.6348
50.5348 4888 69.9142
50.6521 5096 71.3863
50.7694 5103 71.4353
50.8867 5342 73.089
51.004 5252 72.4707
51.1212 5477 74.0068
51.2384 5530 74.364
51.3556 5414 73.5799
51.4727 5400 73.4847
51.5899 5456 73.8647
51.707 5215 72.215
51.824 4982 70.5833
51.9411 5073 71.225
52.0581 5274 72.6223
52.175 5595 74.7997
52.2919 5952 77.1492
52.4088 6170 78.5493
52.5257 6159 78.4793
52.6425 6382 79.8874
52.7593 6679 81.7251
52.876 6703 81.8719
52.9927 6784 82.365
53.1094 6627 81.4064
53.226 6443 80.2683
53.3426 6206 78.7782
53.4591 6192 78.6893
53.5756 6171 78.5557
53.692 6550 80.9321
53.8084 6886 82.9819
53.9248 6904 83.0903
54.0411 7204 84.8764
54.1573 7329 85.6096
54.2735 0 1
54.3896 0 1
54.5057 0 1
54.6217 0 1
54.7377 0 1
54.8537 0 1
54.9695 0 1
55.0853 0 1
55.2011 0 1
55.3168 0 1
55.4324 0 1
57.824 0 1
57.9396 0 1
58.0553 0 1
58.1711 0 1
58.2869 0 1
58.4028 0 1
58.5187 0 1
58.6347 0 1
58.7508 0 1
58.8669 0 1
58.983 8113 90.0722
59.0992 8696 93.2523
59.2155 9064 95.205
59.3318 9193 95.8801
59.4482 9330 96.5919
59.5646 9370 96.7988
59.681 9739 98.6864
59.7975 9405 96.9794
59.9141 9344 96.6644
60.0306 9290 96.3846
60.1473 9204 95.9375
60.2639 8876 94.2125
60.3807 8706 93.3059
60.4974 8336 91.3017
60.6142 8009 89.493
60.731 7984 89.3532
60.8479 8026 89.5879
60.9648 8096 89.9778
61.0818 8375 91.515
61.1987 8534 92.3797
61.3158 8729 93.4291
61.4328 8636 92.9301
61.5499 8924 94.4669
61.667 8892 94.2974
61.7841 8557 92.5041
61.9013 8308 91.1482
62.0185 7860 88.6566
62.1357 7856 88.6341
62.253 7736 87.9545
62.3702 7778 88.193
62.4875 8114 90.0777
62.6049 8099 89.9944
62.7222 8358 91.4221
62.8396 8572 92.5851
62.9569 8489 92.1358
63.0743 8661 93.0645
63.1918 8635 92.9247
63.3092 8536 92.3905
63.4267 8578 92.6175
63.5441 8298 91.0934
63.6616 8339 91.3181
63.7791 7979 89.3252
63.8966 7806 88.3516
64.0142 7515 86.6891
64.1317 7299 85.4342
64.2492 6933 83.2646
64.3668 7196 84.8292
64.4843 7371 85.8545
64.6019 7395 85.9942
64.7195 7713 87.8237
64.837 7963 89.2356
64.9546 8108 90.0444
65.0722 8252 90.8405
65.1898 7945 89.1347
65.3074 8249 90.824
65.4249 7883 88.7863
65.5425 7660 87.5214
65.6601 7288 85.3698
65.7777 7082 84.1546
65.8952 7026 83.8212
66.0128 7311 85.5044
66.1304 7754 88.0568
66.2479 8033 89.627
66.3655 8089 89.9389
66.483 8224 90.6863
66.6005 8311 91.1647
66.718 8453 91.9402
66.8355 8279 90.989
66.953 8455 91.9511
67.0705 8390 91.5969
67.1879 8474 92.0543
67.3054 8195 90.5262
67.4228 8234 90.7414
67.5402 8037 89.6493
67.6576 7673 87.5957
67.7749 7199 84.8469
67.8923 7158 84.605
68.0096 7261 85.2115
68.1269 7529 86.7698
68.2442 7671 87.5842
68.3614 8057 89.7608
68.4787 8409 91.7006
68.5958 8454 91.9456
68.713 8688 93.2094
68.8302 8787 93.739
68.9473 8937 94.5357
69.0643 8720 93.3809
69.1814 8387 91.5806
69.2984 7783 88.2213
69.4154 7733 87.9375
69.5323 7660 87.5214
69.6492 7779 88.1986
69.7661 8212 90.6201
69.8829 8192 90.5097
69.9997 8867 94.1647
70.1165 8830 93.9681
70.2332 9098 95.3834
70.3499 9065 95.2103
70.4665 9271 96.286
70.5831 9096 95.373
70.6996 9194 95.8853
70.8161 9098 95.3834
70.9326 9022 94.9842
71.049 8758 93.5842
71.1653 8712 93.3381
71.2817 8454 91.9456
71.3979 7882 88.7806
71.5141 7301 85.4459
71.6303 7145 84.5281
71.7464 6738 82.0853
71.8624 0 1
71.9784 0 1
72.0944 0 1
72.2102 0 1
72.3261 0 1
72.4418 0 1
72.5575 0 1
72.6732 0 1
75.1054 0 1
75.2209 0 1
75.3365 0 1
75.4521 0 1
75.5678 0 1
75.6835 0 1
75.7993 0 1
75.9151 0 1
76.031 0 1
76.147 8064 89.7998
76.263 8674 93.1343
76.3791 8650 93.0054
76.4952 8724 93.4024
76.6113 8124 90.1332
76.7276 7855 88.6284
76.8438 7553 86.908
76.9601 7312 85.5102
77.0765 7669 87.5728
77.1929 7982 89.342
77.3093 8226 90.6973
77.4258 8627 92.8816
77.5423 8599 92.7308
77.6589 8812 93.8723
77.7755 9196 95.8958
77.8921 9250 96.1769
78.0088 8888 94.2762
78.1256 8612 92.8009
78.2423 8281 91
78.3591 7521 86.7237
78.4759 7298 85.4283
78.5928 7329 85.6096
78.7097 7891 88.8313
78.8266 8055 89.7497
78.9436 8647 92.9892
79.0606 8656 93.0376
79.1776 8726 93.4131
79.2946 8769 93.6429
79.4117 9031 95.0316
79.5288 9162 95.7183
79.6459 9104 95.4149
79.7631 8805 93.835
79.8802 9014 94.9421
79.9974 8938 94.541
80.1147 9008 94.9105
80.2319 8491 92.1466
80.3491 7921 89
80.4664 7578 87.0517
80.5837 7620 87.2926
80.701 7693 87.7097
80.8183 7953 89.1796
80.9357 8283 91.011
81.053 8598 92.7254
81.1704 8603 92.7524
81.2877 8988 94.8051
81.4051 9019 94.9684
81.5225 9460 97.2625
81.6399 8963 94.6731
81.7573 9101 95.3992
81.8747 8191 90.5041
81.9922 7755 88.0625
82.1096 7258 85.1939
82.227 7328 85.6037
82.3444 7797 88.3006
82.4619 8119 90.1055
82.5793 8692 93.2309
82.6967 8598 92.7254
82.8142 8836 94
82.9316 8784 93.723
83.049 9108 95.4358
83.1664 8970 94.7101
83.2838 9225 96.0469
83.4012 9172 95.7706
83.5186 9156 95.687
83.636 9026 95.0053
83.7534 8829 93.9628
83.8708 8568 92.5635
83.9881 8131 90.1721
84.1055 7715 87.8351
84.2228 7915 88.9663
84.3401 7727 87.9034
84.4575 7969 89.2693
84.5747 8286 91.0275
84.692 8683 93.1826
84.8093 9081 95.2943
84.9265 9180 95.8123
85.0437 9542 97.6832
85.1609 9423 97.0721
85.2781 9326 96.5712
85.3952 8786 93.7337
85.5123 8417 91.7442
85.6294 7731 87.9261
85.7465 7563 86.9655
85.8636 7898 88.8707
85.9806 8441 91.8749
86.0976 8771 93.6536
86.2145 9231 96.0781
86.3315 9290 96.3846
86.4484 9511 97.5244
86.5652 9768 98.8332
86.682 9959 99.7948
86.7988 9873 99.363
86.9156 9856 99.2774
87.0323 9663 98.3006
87.149 9794 98.9646
87.2657 9676 98.3667
87.3823 9545 97.6985
87.4988 9173 95.7758
87.6154 8670 93.1128
87.7318 8249 90.824
87.8483 8057 89.7608
87.9647 8382 91.5533
88.081 8654 93.0269
88.1973 8912 94.4034
88.3136 9494 97.4372
88.4298 9478 97.355
88.546 9930 99.6494
88.6621 9945 99.7246
88.7781 9915 99.5741
88.8942 0 1
89.0101 0 1
89.126 0 1
89.2419 0 1
89.3577 0 1
89.4734 0 1
89.5891 0 1
89.7047 0 1
89.8203 0 1
89.9358 0 1
92.3269 0 1
92.4424 0 1
92.558 0 1
92.6736 0 1
92.7893 0 1
92.905 0 1
93.0208 0 1
93.1366 0 1
93.2525 0 1
93.3685 0 1
93.4845 0 1
93.6005 9029 95.0211
93.7167 9355 96.7212
93.8328 9352 96.7057
93.949 9335 96.6178
94.0653 9557 97.7599
94.1816 9127 95.5353
94.2979 8819 93.9095
94.4143 8444 91.8912
94.5307 7770 88.1476
94.6472 7516 86.6949
94.7637 7655 87.4929
94.8803 8145 90.2497
94.9969 8631 92.9032
95.1135 8814 93.8829
95.2302 9011 94.9263
95.3469 9269 96.2756
95.4637 9282 96.3431
95.5805 9399 96.9484
95.6973 9521 97.5756
95.8142 9583 97.8928
95.9311 9376 96.8297
96.048 9433 97.1236
96.1649 9282 96.3431
96.2819 9381 96.8556
96.3989 9363 96.7626
96.516 8775 93.675
96.633 8397 91.6351
96.7501 7903 88.8988
96.8673 7772 88.1589
96.9844 7969 89.2693
97.1016 8054 89.7441
97.2188 8297 91.0879
97.336 8631 92.9032
97.4532 8889 94.2815
97.5704 9247 96.1613
97.6877 9514 97.5397
97.805 9372 96.8091
97.9223 9027 95.0105
98.0396 8681 93.1719
98.1569 8143 90.2386
98.2743 7681 87.6413
98.3916 7553 86.908
98.509 7597 87.1608
98.6264 7943 89.1235
98.7438 8397 91.6351
98.8612 8610 92.7901
98.9786 8797 93.7923
99.096 8963 94.6731
99.2134 9176 95.7914
99.3308 9059 95.1788
99.4482 9029 95.0211
99.5656 9003 94.8841
99.6831 8787 93.739
99.8005 8731 93.4398
99.9179 8884 94.255
100.035 8698 93.2631
100.153 8499 92.19
100.27 8024 89.5768
100.388 7689 87.6869
100.505 7473 86.4465
100.622 7732 87.9318
100.74 7922 89.0056
100.857 8253 90.846
100.975 8567 92.5581
101.092 8818 93.9042
101.209 9150 95.6556
101.327 9329 96.5867
101.444 9239 96.1197
101.561 9189 95.8593
101.679 8994 94.8367
101.796 8121 90.1166
101.913 7721 87.8692
102.03 7632 87.3613
102.148 7955 89.1908
102.265 7791 88.2666
102.382 9328 96.5816
102.499 8922 94.4563
102.616 9259 96.2237
102.733 9469 97.3088
102.851 9411 97.0103
102.968 9663 98.3006
103.085 9521 97.5756
103.202 9397 96.9381
103.319 9568 97.8162
103.436 9604 98
103.552 9501 97.4731
103.669 9097 95.3782
103.786 8744 93.5094
103.903 8248 90.8185
104.02 8398 91.6406
104.137 8219 90.6587
104.253 8391 91.6024
104.37 8807 93.8456
104.487 9153 95.6713
104.603 9494 97.4372
104.72 9738 98.6813
104.836 9837 99.1817
104.953 9752 98.7522
105.069 9538 97.6627
105.186 9164 95.7288
105.302 8470 92.0326
105.418 8043 89.6828
105.535 8051 89.7274
105.651 8503 92.2117
105.767 8798 93.7977
105.883 9206 95.9479
105.999 9499 97.4628
106.115 0 1
106.231 0 1
106.347 0 1
106.463 0 1
106.579 0 1
106.694 0 1
106.81 0 1
106.926 0 1
107.041 0 1
107.157 0 1
109.576 0 1
109.692 0 1
109.807 0 1
109.923 0 1
110.039 0 1
110.155 0 1
110.27 0 1
110.386 0 1
110.502 0 1
110.618 6986 83.5823
110.735 7520 86.7179
110.851 8047 89.7051
110.967 8213 90.6256
111.083 8385 91.5696
111.199 8610 92.7901
111.316 8762 93.6056
111.432 8854 94.0957
111.549 8837 94.0053
111.665 8686 93.1987
111.782 8626 92.8763
111.898 8532 92.3688
112.015 8427 91.7987
112.132 8266 90.9175
112.248 7952 89.174
112.365 7528 86.764
112.482 7237 85.0706
112.599 7027 83.8272
112.716 7095 84.2318
112.832 7207 84.8941
112.949 7527 86.7583
113.066 7722 87.8749
113.183 7831 88.4929
113.3 8075 89.861
113.417 8148 90.2663
113.534 8133 90.1831
113.652 7909 88.9326
113.769 7415 86.1104
113.886 6956 83.4026
114.003 6554 80.9568
114.12 6360 79.7496
114.238 6512 80.697
114.355 6803 82.4803
114.472 7369 85.8429
114.589 7086 84.1784
114.707 7397 86.0058
114.824 7347 85.7146
114.942 7480 86.487
115.059 7461 86.3771
115.176 7404 86.0465
115.294 7197 84.8351
115.411 6997 83.6481
115.529 6769 82.2739
115.646 6733 82.0549
115.764 6478 80.486
115.881 6264 79.1454
115.999 5955 77.1686
116.116 5609 74.8933
116.234 5674 75.326
116.351 5811 76.2299
116.469 5937 77.0519
116.586 6211 78.8099
116.704 6119 78.224
116.821 6273 79.2023
116.939 6478 80.486
117.056 6575 81.0864
117.174 6425 80.1561
117.291 6272 79.196
117.409 6018 77.5758
117.526 5724 75.6571
117.644 5253 72.4776
117.761 5350 73.1437
117.879 5607 74.8799
117.996 5689 75.4255
118.114 6086 78.0128
118.231 6315 79.467
118.349 6234 78.9557
118.466 6328 79.5487
118.584 6522 80.7589
118.701 6494 80.5854
118.819 6456 80.3492
118.936 6522 80.7589
119.053 6377 79.8561
119.171 6398 79.9875
119.288 6100 78.1025
119.405 6131 78.3007
119.523 5891 76.7529
119.64 5675 75.3326
119.757 5855 76.518
119.875 5578 74.686
119.992 5981 77.3369
120.109 5927 76.987
120.226 6259 79.1138
120.343 6458 80.3617
120.46 6733 82.0549
120.578 6858 82.813
120.695 6936 83.2827
120.812 7028 83.8332
120.929 7015 83.7556
121.046 6656 81.5843
121.163 6422 80.1374
121.279 6158 78.4729
121.396 5979 77.324
121.513 6237 78.9747
121.63 6578 81.1049
121.747 6901 83.0723
121.863 7145 84.5281
121.98 7201 84.8587
122.097 7341 85.6796
122.213 7565 86.977
122.33 7606 87.2124
122.446 7576 87.0402
122.563 7494 86.5679
122.679 7544 86.8562
122.795 7410 86.0814
122.912 7315 85.5278
123.028 7289 85.3756
123.144 7373 85.8662
123.26 6965 83.4566
123.377 0 1
123.493 0 1
123.609 0 1
123.725 0 1
123.84 0 1
123.956 0 1
124.072 0 1
124.188 0 1
124.303 0 1
124.419 0 1
126.852 0 1
126.968 0 1
127.083 0 1
127.199 0 1
127.315 0 1
127.431 0 1
127.547 0 1
127.663 0 1
127.779 0 1
127.895 0 1
128.011 0 1
128.127 0 1
128.243 0 1
128.359 8829 93.9628
128.476 8466 92.0109
128.592 8421 91.766
128.708 7946 89.1403
128.825 7838 88.5325
128.941 7885 88.7975
129.058 8088 89.9333
129.174 8143 90.2386
129.291 8385 91.5696
129.408 8618 92.8332
129.524 8811 93.8669
129.641 8873 94.1966
129.758 8873 94.1966
129.875 8724 93.4024
129.992 8588 92.6715
130.108 8175 90.4157
130.225 7970 89.2749
130.342 7620 87.2926
130.459 7309 85.4927
130.576 7566 86.9828
130.693 7863 88.6736
130.81 8146 90.2552
130.928 8406 91.6842
131.045 8714 93.3488
131.162 8660 93.0591
131.279 8553 92.4824
131.396 8686 93.1987
131.513 8380 91.5423
131.631 8547 92.45
131.748 8632 92.9086
131.865 8261 90.89
131.983 8126 90.1443
132.1 8074 89.8554
132.217 7737 87.9602
132.335 7339 85.668
132.452 7490 86.5448
132.57 7376 85.8836
132.687 7615 87.264
132.804 8172 90.3991
132.922 8101 90.0056
133.039 8206 90.587
133.157 8367 91.4713
133.274 8367 91.4713
133.392 8511 92.2551
133.509 8254 90.8515
133.627 8036 89.6437
133.744 7602 87.1894
133.862 7350 85.7321
133.979 6893 83.0241
134.097 7109 84.3149
134.214 7686 87.6698
134.332 7608 87.2238
134.449 7948 89.1516
134.567 7898 88.8707
134.684 8253 90.846
134.802 8164 90.3549
134.919 8067 89.8165
135.037 8156 90.3106
135.154 7701 87.7553
135.272 7574 87.0287
135.389 7437 86.238
135.507 7253 85.1645
135.624 7090 84.2021
135.742 6797 82.4439
135.859 6560 80.9938
135.977 6340 79.6241
136.094 6273 79.2023
136.211 6494 80.5854
136.329 6593 81.1973
136.446 6762 82.2314
136.564 6836 82.6801
136.681 6768 82.2679
136.798 7101 84.2674
136.915 7064 84.0476
137.033 6999 83.66
137.15 6811 82.5288
137.267 6474 80.4612
137.384 6271 79.1896
137.502 6029 77.6466
137.619 5961 77.2075
137.736 6284 79.2717
137.853 6438 80.2371
137.97 6764 82.2435
138.087 7029 83.8391
138.204 7178 84.7231
138.321 7234 85.0529
138.438 7699 87.7439
138.555 7547 86.8735
138.672 7566 86.9828
138.788 7440 86.2554
138.905 7638 87.3957
139.022 7404 86.0465
139.139 7301 85.4459
139.255 7217 84.9529
139.372 7289 85.3756
139.488 7227 85.0118
139.605 6995 83.6361
139.721 7130 84.4393
139.838 7334 85.6388
139.954 7564 86.9713
140.071 7765 88.1192
140.187 8146 90.2552
140.303 8156 90.3106
140.419 8409 91.7006
140.535 8261 90.89
140.652 8290 91.0494
140.768 0 1
140.884 0 1
141 0 1
141.115 0 1
141.231 0 1
141.347 0 1
141.463 0 1
141.578 0 1
141.694 0 1
144.104 0 1
144.219 0 1
144.335 0 1
144.45 0 1
144.566 0 1
144.682 0 1
144.798 0 1
144.914 0 1
145.03 0 1
145.146 11520 107.331
145.262 12585 112.183
145.378 13461 116.022
145.494 14141 118.916
145.61 14894 122.041
145.726 15231 123.414
145.842 15887 126.044
145.959 15780 125.618
146.075 15508 124.531
146.192 15433 124.23
146.308 15226 123.394
146.425 16012 126.539
146.541 17101 130.771
146.658 18694 136.726
146.774 20199 142.123
146.891 21357 146.14
147.008 22275 149.248
147.125 23475 153.216
147.241 23898 154.59
147.358 24887 157.756
147.475 25026 158.196
147.592 25296 159.047
147.709 25080 158.367
147.826 24793 157.458
147.943 24854 157.652
148.06 24000 154.919
148.177 23836 154.389
148.294 23292 152.617
148.411 23203 152.325
148.528 23871 154.502
148.645 23942 154.732
148.762 25480 159.625
148.88 25658 160.181
148.997 27320 165.288
149.114 25011 158.149
149.231 26344 162.308
149.349 26137 161.669
149.466 25747 160.459
149.583 24179 155.496
149.701 22889 151.291
149.818 21828 147.743
149.935 21080 145.19
150.053 21118 145.32
150.17 21827 147.74
150.287 22917 151.384
150.405 23483 153.242
150.522 24112 155.28
150.64 24739 157.286
150.757 24994 158.095
150.875 25458 159.556
150.992 25294 159.041
151.11 25982 161.189
151.227 25289 159.025
151.344 24781 157.42
151.462 24255 155.74
151.579 24046 155.068
151.697 23684 153.896
151.814 23600 153.623
151.932 23121 152.056
152.049 23454 153.147
152.167 24016 154.971
152.284 24884 157.747
152.402 25950 161.09
152.519 26821 163.771
152.636 27147 164.763
152.754 27824 166.805
152.871 27992 167.308
152.989 28060 167.511
153.106 27496 165.819
153.223 25727 160.396
153.341 24660 157.035
153.458 23658 153.812
153.575 22840 151.129
153.693 23507 153.32
153.81 24432 156.307
153.927 25343 159.195
154.044 26762 163.591
154.162 27544 165.964
154.279 28407 168.544
154.396 29320 171.231
154.513 29740 172.453
154.63 30208 173.804
154.747 30107 173.514
154.864 30317 174.118
154.981 29717 172.386
155.098 29376 171.394
155.215 29415 171.508
155.332 29117 170.637
155.449 28206 167.946
155.566 28287 168.187
155.683 28555 168.982
155.8 29467 171.66
155.917 30798 175.494
156.033 31943 178.726
156.15 0 1
156.267 0 1
156.383 0 1
156.5 0 1
156.617 0 1
156.733 0 1
156.85 0 1
156.966 0 1
157.082 0 1
157.199 0 1
157.315 0 1
157.431 0 1
157.547 0 1
157.664 0 1
157.78 0 1
157.896 0 1
158.012 0 1
158.128 0 1
158.244 0 1
158.359 0 1
158.475 0 1
158.591 0 1
158.706 0 1
