
6.15755 0 1
6.2731 0 1
6.3887 0 1
6.50437 0 1
6.62009 0 1
6.73587 0 1
6.8517 0 1
6.96759 0 1
7.08353 0 1
7.19952 0 1
7.31557 0 1
7.43166 0 1
7.54781 0 1
7.664 0 1
7.78024 0 1
7.89653 0 1
8.01286 0 1
8.12924 0 1
8.24567 0 1
8.36213 0 1
8.47864 0 1
8.59519 0 1
8.71178 0 1
8.82841 0 1
8.94508 0 1
9.06179 0 1
9.17853 0 1
9.29531 0 1
9.41212 0 1
9.52897 0 1
9.64584 0 1
9.76276 0 1
9.8797 0 1
9.99667 0 1
10.1137 0 1
10.2307 0 1
10.3478 0 1
10.4648 0 1
10.5819 0 1
10.6991 0 1
10.8162 0 1
10.9334 0 1
11.0506 0 1
11.1678 0 1
11.285 0 1
11.4023 0 1
11.5196 0 1
11.6369 0 1
11.7542 0 1
11.8715 0 1
11.9888 0 1
12.1062 0 1
12.2235 0 1
12.3409 0 1
12.4582 0 1
12.5756 0 1
12.693 0 1
12.8104 0 1
12.9278 0 1
13.0452 0 1
13.1626 0 1
13.28 0 1
13.3974 0 1
13.5149 0 1
13.6323 0 1
13.7497 0 1
13.8671 0 1
13.9845 0 1
14.1019 0 1
14.2193 0 1
14.3367 0 1
14.4541 0 1
14.5714 0 1
14.6888 0 1
14.8062 0 1
14.9235 0 1
15.0408 0 0
15.1581 0 0
15.2755 0 0
15.3927 0 0
15.51 0 0
15.6273 0 0
15.7445 0 0
15.8617 0 0
15.9789 0 0
16.0961 0 0
16.2132 0 0
16.3304 0 0
16.4475 0 0
16.5646 0 0
16.6816 0 0
16.7986 0 0
16.9156 0 0
17.0326 0 0
17.1496 0 0
17.2665 0 0
17.3833 0 0
17.5002 0 0
17.617 0 0
17.7338 0 0
17.8505 0 0
17.9672 0 0
18.0839 0 0
18.2005 0 0
18.3171 0 0
18.4337 0 0
18.5502 0 0
18.6666 0 0
18.7831 0 0
18.8994 0 0
19.0158 0 0
19.1321 0 0
19.2483 0 0
19.3645 0 0
19.4806 0 0
19.5967 0 0
19.7128 0 0
19.8288 0 0
19.9447 0 0
20.0606 0 1
20.1764 0 1
20.2922 0 1
20.4079 0 1
20.5236 0 1
20.6392 0 1
20.7548 0 1
20.8702 0 1
23.3078 0 1
23.4233 0 1
23.539 0 1
23.6547 0 1
23.7704 0 1
23.8862 0 1
24.0021 0 1
24.118 0 1
24.234 0 1
24.35 0 1
24.4661 20090 141.739
24.5822 19979 141.347
24.6984 19097 138.192
24.8146 18161 134.763
24.9309 17416 131.97
25.0472 17162 131.004
25.1636 17399 131.905
25.28 18714 136.799
25.3965 19661 140.218
25.513 20503 143.189
25.6296 21961 148.192
25.7462 22626 150.419
25.8628 22531 150.103
25.9795 22745 150.814
26.0962 22817 151.053
26.213 22760 150.864
26.3298 22217 149.054
26.4466 21883 147.929
26.5635 21232 145.712
26.6804 20676 143.792
26.7973 20162 141.993
26.9143 20332 142.59
27.0313 20906 144.589
27.1483 21568 146.86
27.2653 21858 147.845
27.3824 21793 147.625
27.4996 21421 146.359
27.6167 22314 149.379
27.7339 21793 147.625
27.8511 21441 146.427
27.9683 20721 143.948
28.0855 20319 142.545
28.2028 19259 138.777
28.3201 17828 133.522
28.4374 16830 129.73
28.5547 16401 128.066
28.6721 16557 128.674
28.7894 17335 131.662
28.9068 18179 134.83
29.0242 19527 139.739
29.1416 20390 142.794
29.259 21208 145.63
29.3764 21659 147.17
29.4939 21350 146.116
29.6113 21511 146.666
29.7288 21299 145.942
29.8463 21369 146.181
29.9638 21088 145.217
30.0812 20107 141.799
30.1987 19858 140.918
30.3162 19547 139.811
30.4337 19917 141.128
30.5512 20467 143.063
30.6687 20720 143.944
30.7862 21263 145.818
30.9037 21132 145.368
31.0212 21505 146.646
31.1387 21752 147.486
31.2562 21293 145.921
31.3737 21101 145.262
31.4912 20696 143.861
31.6087 20106 141.796
31.7262 19194 138.542
31.8436 18291 135.244
31.9611 16943 130.165
32.0785 16203 127.291
32.1959 16538 128.6
32.3134 17266 131.4
32.4308 18267 135.155
32.5482 19508 139.671
32.6655 20860 144.43
32.7829 21514 146.677
32.9002 21637 147.095
33.0176 21339 146.079
33.1349 21747 147.469
33.2522 21705 147.326
33.3694 21857 147.841
33.4867 21672 147.214
33.6039 21254 145.788
33.7211 20892 144.541
33.8383 20409 142.86
33.9554 20125 141.863
34.0725 20015 141.474
34.1896 20487 143.133
34.3067 21570 146.867
34.4237 21516 146.683
34.5407 21533 146.741
34.6577 21885 147.936
34.7746 21578 146.895
34.8915 21454 146.472
35.0084 21492 146.602
35.1252 21076 145.176
35.242 20575 143.44
35.3587 20249 142.299
35.4755 18870 137.368
35.5921 18077 134.451
35.7088 16326 127.773
35.8254 15986 126.436
35.9419 16173 127.173
36.0584 17279 131.45
36.1749 18123 134.622
36.2913 20052 141.605
36.4077 20682 143.812
36.524 21415 146.339
36.6403 21642 147.112
36.7565 21765 147.53
36.8727 21796 147.635
36.9889 21782 147.587
37.1049 21397 146.277
37.221 0 1
37.3369 0 1
37.4529 0 1
37.5687 0 1
37.6845 0 1
37.8003 0 1
37.916 0 1
38.0316 0 1
38.1472 0 1
40.5851 0 1
40.7008 0 1
40.8164 0 1
40.9322 0 1
41.048 0 1
41.1639 0 1
41.2798 0 1
41.3958 0 1
41.5118 0 1
41.6279 0 1
41.744 18116 134.596
41.8602 18965 137.713
41.9765 19183 138.503
42.0928 19218 138.629
42.2091 19234 138.687
42.3255 19242 138.716
42.4419 18973 137.743
42.5584 18568 136.264
42.675 18042 134.321
42.7915 17945 133.959
42.9081 17815 133.473
43.0248 18195 134.889
43.1415 18752 136.938
43.2582 18994 137.819
43.375 19276 138.838
43.4918 19040 137.986
43.6087 18830 137.222
43.7256 18735 136.876
43.8425 18605 136.4
43.9595 18138 134.677
44.0765 17905 133.81
44.1935 17184 131.088
44.3106 15816 125.762
44.4277 13977 118.224
44.5448 12515 111.87
44.6619 11998 109.535
44.7791 12772 113.013
44.8963 13941 118.072
45.0136 15250 123.491
45.1308 16250 127.475
45.2481 17069 130.648
45.3654 17176 131.057
45.4827 17220 131.225
45.6001 16931 130.119
45.7174 17211 131.191
45.8348 16877 129.912
45.9522 16719 129.302
46.0697 16548 128.639
46.1871 16139 127.039
46.3046 15421 124.181
46.422 15271 123.576
46.5395 15155 123.106
46.657 15546 124.684
46.7745 15826 125.801
46.892 15834 125.833
47.0096 15678 125.212
47.1271 15830 125.817
47.2446 15556 124.724
47.3622 15550 124.7
47.4797 14981 122.397
47.5973 14872 121.951
47.7149 14273 119.47
47.8324 13597 116.606
47.95 12468 111.66
48.0675 10941 104.599
48.1851 9967 99.8349
48.3027 10401 101.985
48.4202 11149 105.589
48.5378 12661 112.521
48.6554 13885 117.835
48.7729 14425 120.104
48.8904 14644 121.012
49.008 14964 122.327
49.1255 15302 123.701
49.243 15156 123.11
49.3605 15272 123.58
49.478 15446 124.282
49.5955 14808 121.688
49.713 15066 122.744
49.8304 15084 122.817
49.9479 15294 123.669
50.0653 15450 124.298
50.1827 16057 126.716
50.3001 16680 129.151
50.4175 17293 131.503
50.5348 17620 132.74
50.6521 18175 134.815
50.7694 18197 134.896
50.8867 18564 136.25
51.004 18836 137.244
51.1212 19303 138.935
51.2384 19123 138.286
51.3556 18470 135.904
51.4727 16978 130.3
51.5899 14984 122.409
51.707 14185 119.101
51.824 15027 122.585
51.9411 16947 130.181
52.0581 19446 139.449
52.175 21749 147.475
52.2919 22986 151.611
52.4088 23439 153.098
52.5257 24095 155.226
52.6425 24108 155.268
52.7593 24733 157.267
52.876 25005 158.13
52.9927 25874 160.854
53.1094 25480 159.625
53.226 25767 160.521
53.3426 25282 159.003
53.4591 25399 159.371
53.5756 25425 159.452
53.692 25744 160.449
53.8084 26303 162.182
53.9248 26843 163.838
54.0411 27456 165.699
54.1573 28698 169.405
54.2735 0 1
54.3896 0 1
54.5057 0 1
54.6217 0 1
54.7377 0 1
54.8537 0 1
54.9695 0 1
55.0853 0 1
55.2011 0 1
55.3168 0 1
55.4324 0 1
57.824 0 1
57.9396 0 1
58.0553 0 1
58.1711 0 1
58.2869 0 1
58.4028 0 1
58.5187 0 1
58.6347 0 1
58.7508 0 1
58.8669 0 1
58.983 38093 195.174
59.0992 39042 197.59
59.2155 40506 201.261
59.3318 40512 201.276
59.4482 40774 201.926
59.5646 40342 200.853
59.681 40173 200.432
59.7975 39667 199.166
59.9141 38399 195.957
60.0306 36406 190.804
60.1473 33841 183.959
60.2639 30118 173.545
60.3807 28343 168.354
60.4974 28960 170.176
60.6142 31497 177.474
60.731 34862 186.714
60.8479 38632 196.55
60.9648 40587 201.462
61.0818 42314 205.704
61.1987 42404 205.922
61.3158 43048 207.48
61.4328 42842 206.983
61.5499 42479 206.104
61.667 42873 207.058
61.7841 42814 206.915
61.9013 42826 206.944
62.0185 42139 205.278
62.1357 41992 204.919
62.253 41932 204.773
62.3702 42415 205.949
62.4875 43042 207.466
62.6049 43896 209.514
62.7222 44562 211.097
62.8396 44995 212.12
62.9569 45117 212.408
63.0743 44600 211.187
63.1918 44314 210.509
63.3092 42859 207.024
63.4267 42353 205.798
63.5441 39981 199.952
63.6616 36396 190.777
63.7791 32160 179.332
63.8966 30374 174.281
64.0142 31588 177.73
64.1317 34569 185.927
64.2492 38507 196.232
64.3668 43103 207.613
64.4843 45229 212.671
64.6019 46390 215.383
64.7195 46528 215.704
64.837 47630 218.243
64.9546 47669 218.332
65.0722 47538 218.032
65.1898 47501 217.947
65.3074 48328 219.836
65.4249 47176 217.2
65.5425 47471 217.878
65.6601 46807 216.349
65.7777 46439 215.497
65.8952 46740 216.194
66.0128 47580 218.128
66.1304 48080 219.272
66.2479 48657 220.583
66.3655 49870 223.316
66.483 50364 224.419
66.6005 50715 225.2
66.718 49338 222.122
66.8355 48879 221.086
66.953 47732 218.477
67.0705 46447 215.516
67.1879 44137 210.088
67.3054 39819 199.547
67.4228 34814 186.585
67.5402 33285 182.442
67.6576 34269 185.119
67.7749 37697 194.157
67.8923 44139 210.093
68.0096 48465 220.148
68.1269 51324 226.548
68.2442 53689 231.709
68.3614 54185 232.777
68.4787 54362 233.157
68.5958 55325 235.213
68.713 55608 235.813
68.8302 55810 236.241
68.9473 56108 236.871
69.0643 55340 235.245
69.1814 55291 235.14
69.2984 55221 234.991
69.4154 55350 235.266
69.5323 55351 235.268
69.6492 55939 236.514
69.7661 56965 238.673
69.8829 57757 240.327
69.9997 59091 243.086
70.1165 59850 244.643
70.2332 60573 246.116
70.3499 59406 243.733
70.4665 57943 240.714
70.5831 56748 238.218
70.6996 54414 233.268
70.8161 52480 229.085
70.9326 48851 221.023
71.049 43680 208.998
71.1653 38523 196.273
71.2817 36825 191.898
71.3979 38684 196.682
71.5141 43421 208.377
71.6303 48219 219.588
71.7464 48742 220.776
71.8624 0 1
71.9784 0 1
72.0944 0 1
72.2102 0 1
72.3261 0 1
72.4418 0 1
72.5575 0 1
72.6732 0 1
75.1054 0 1
75.2209 0 1
75.3365 0 1
75.4521 0 1
75.5678 0 1
75.6835 0 1
75.7993 0 1
75.9151 0 1
76.031 0 1
76.147 49696 222.926
76.263 50962 225.748
76.3791 47528 218.009
76.4952 41882 204.651
76.6113 40583 201.452
76.7276 44023 209.817
76.8438 48611 220.479
76.9601 56316 237.31
77.0765 61700 248.395
77.1929 64154 253.286
77.3093 65371 255.678
77.4258 65228 255.398
77.5423 65187 255.317
77.6589 65573 256.072
77.7755 65904 256.718
77.8921 65340 255.617
78.0088 65142 255.229
78.1256 64658 254.279
78.2423 64280 253.535
78.3591 63504 252
78.4759 62827 250.653
78.5928 62650 250.3
78.7097 62498 249.996
78.8266 64772 254.503
78.9436 60454 245.874
79.0606 63384 251.762
79.1776 63708 252.404
79.2946 64750 254.46
79.4117 63792 252.571
79.5288 62956 250.91
79.6459 59838 244.618
79.7631 56763 238.25
79.8802 53891 232.144
79.9974 49729 223
80.1147 43965 209.678
80.2319 41221 203.03
80.3491 42246 205.538
80.4664 48208 219.563
80.5837 54536 233.529
80.701 60514 245.996
80.8183 62559 250.118
80.9357 63169 251.334
81.053 63567 252.125
81.1704 63108 251.213
81.2877 63971 252.925
81.4051 62749 250.498
81.5225 63839 252.664
81.6399 61592 248.177
81.7573 62763 250.525
81.8747 61192 247.37
81.9922 60867 246.712
82.1096 60415 245.795
82.227 59534 243.996
82.3444 59436 243.795
82.4619 60524 246.016
82.5793 59203 243.317
82.6967 61736 248.467
82.8142 60711 246.396
82.9316 60824 246.625
83.049 60741 246.457
83.1664 58977 242.852
83.2838 55947 236.531
83.4012 52619 229.388
83.5186 49222 221.86
83.636 45787 213.979
83.7534 40835 202.077
83.8708 37675 194.1
83.9881 38365 195.87
84.1055 42520 206.204
84.2228 48236 219.627
84.3401 54846 234.192
84.4575 58437 241.737
84.5747 59998 244.945
84.692 60755 246.485
84.8093 61057 247.097
84.9265 60896 246.771
85.0437 60998 246.978
85.1609 61212 247.411
85.2781 61337 247.663
85.3952 61619 248.232
85.5123 61498 247.988
85.6294 61679 248.353
85.7465 62037 249.072
85.8636 61525 248.042
85.9806 61298 247.584
86.0976 62242 249.483
86.2145 62992 250.982
86.3315 62090 249.179
86.4484 66045 256.992
86.5652 65555 256.037
86.682 66050 257.002
86.7988 63760 252.507
86.9156 61919 248.835
87.0323 58029 240.892
87.149 55098 234.73
87.2657 50644 225.042
87.3823 46671 216.035
87.4988 44543 211.052
87.6154 48709 220.701
87.7318 55206 234.96
87.8483 62001 249
87.9647 67040 258.921
88.081 69142 262.949
88.1973 70747 265.983
88.3136 71083 266.614
88.4298 71217 266.865
88.546 70720 265.932
88.6621 71512 267.417
88.7781 70536 265.586
88.8942 0 1
89.0101 0 1
89.126 0 1
89.2419 0 1
89.3577 0 1
89.4734 0 1
89.5891 0 1
89.7047 0 1
89.8203 0 1
89.9358 0 1
92.3269 0 1
92.4424 0 1
92.558 0 1
92.6736 0 1
92.7893 0 1
92.905 0 1
93.0208 0 1
93.1366 0 1
93.2525 0 1
93.3685 0 1
93.4845 0 1
93.6005 69707 264.021
93.7167 71288 266.998
93.8328 70538 265.59
93.949 70548 265.609
94.0653 70526 265.567
94.1816 71055 266.561
94.2979 71076 266.601
94.4143 70631 265.765
94.5307 70437 265.4
94.6472 70271 265.087
94.7637 69601 263.82
94.8803 70687 265.87
94.9969 70168 264.892
95.1135 70290 265.123
95.2302 69771 264.142
95.3469 70504 265.526
95.4637 71290 267.002
95.5805 71678 267.727
95.6973 72373 269.022
95.8142 71919 268.177
95.9311 71149 266.738
96.048 68315 261.371
96.1649 65291 255.521
96.2819 60475 245.917
96.3989 55429 235.434
96.516 51290 226.473
96.633 47667 218.328
96.7501 49395 222.25
96.8673 54504 233.461
96.9844 61297 247.582
97.1016 68225 261.199
97.2188 71843 268.035
97.336 75062 273.974
97.4532 75279 274.37
97.5704 75776 275.274
97.6877 74703 273.318
97.805 75643 275.033
97.9223 75199 274.224
98.0396 74819 273.531
98.1569 75076 274
98.2743 74679 273.275
98.3916 75175 274.181
98.509 75069 273.987
98.6264 73979 271.991
98.7438 73534 271.172
98.8612 73623 271.336
98.9786 75002 273.865
99.096 74965 273.797
99.2134 75416 274.62
99.3308 75384 274.561
99.4482 75964 275.616
99.5656 75296 274.401
99.6831 73042 270.263
99.8005 70496 265.511
99.9179 64804 254.566
100.035 59432 243.787
100.153 54102 232.598
100.27 52070 228.189
100.388 56226 237.12
100.505 63649 252.288
100.622 70622 265.748
100.74 75114 274.069
100.857 77595 278.559
100.975 77988 279.263
101.092 78572 280.307
101.209 78633 280.416
101.327 79030 281.123
101.444 78566 280.296
101.561 78880 280.856
101.679 79475 281.913
101.796 79298 281.599
101.913 79285 281.576
102.03 78767 280.655
102.148 78496 280.171
102.265 82614 287.427
102.382 74892 273.664
102.499 79095 281.238
102.616 79803 282.494
102.733 80731 284.132
102.851 81525 285.526
102.968 81562 285.591
103.085 80756 284.176
103.202 78945 280.972
103.319 75998 275.677
103.436 70704 265.902
103.552 64264 253.503
103.669 57134 239.027
103.786 55309 235.179
103.903 59761 244.461
104.02 68378 261.492
104.137 76157 275.966
104.253 83552 289.054
104.37 82029 286.407
104.487 85139 291.786
104.603 85959 293.188
104.72 85222 291.928
104.836 86695 294.44
104.953 85793 292.904
105.069 86409 293.954
105.186 86622 294.316
105.302 86711 294.467
105.418 86598 294.275
105.535 86420 293.973
105.651 86201 293.6
105.767 85704 292.752
105.883 86802 294.622
105.999 86389 293.92
106.115 0 1
106.231 0 1
106.347 0 1
106.463 0 1
106.579 0 1
106.694 0 1
106.81 0 1
106.926 0 1
107.041 0 1
107.157 0 1
109.576 0 1
109.692 0 1
109.807 0 1
109.923 0 1
110.039 0 1
110.155 0 1
110.27 0 1
110.386 0 1
110.502 0 1
110.618 79853 282.583
110.735 81538 285.549
110.851 81819 286.04
110.967 81616 285.685
111.083 81506 285.493
111.199 82524 287.27
111.316 82357 286.979
111.432 82536 287.291
111.549 81339 285.2
111.665 79727 282.36
111.782 75955 275.599
111.898 71172 266.781
112.015 63703 252.395
112.132 56240 237.15
112.248 52882 229.961
112.365 56292 237.259
112.482 62954 250.906
112.599 68690 262.088
112.716 74402 272.767
112.832 76865 277.245
112.949 77070 277.615
113.066 77293 278.016
113.183 77001 277.491
113.3 76647 276.852
113.417 75359 274.516
113.534 74943 273.757
113.652 75183 274.195
113.769 74851 273.589
113.886 74434 272.826
114.003 73285 270.712
114.12 72924 270.044
114.238 72533 269.32
114.355 71744 267.851
114.472 71202 266.837
114.589 71733 267.83
114.707 71698 267.765
114.824 71318 267.054
114.942 71796 267.948
115.059 72790 269.796
115.176 70921 266.31
115.294 69927 264.437
115.411 66168 257.231
115.529 61393 247.776
115.646 54988 234.495
115.764 50209 224.074
115.881 49645 222.812
115.999 54763 234.015
116.116 61785 248.566
116.234 66754 258.368
116.351 70598 265.703
116.469 72616 269.474
116.586 72468 269.199
116.704 73231 270.612
116.821 72790 269.796
116.939 73311 270.76
117.056 73024 270.23
117.174 72392 269.058
117.291 72881 269.965
117.409 73536 271.175
117.526 72856 269.919
117.644 73266 270.677
117.761 73203 270.561
117.879 72249 268.792
117.996 71954 268.242
118.114 72346 268.972
118.231 73539 271.181
118.349 71878 268.101
118.466 72747 269.717
118.584 73725 271.523
118.701 73455 271.026
118.819 72350 268.98
118.936 70288 265.119
119.053 66650 258.167
119.171 61889 248.775
119.288 55785 236.188
119.405 50900 225.61
119.523 50133 223.904
119.64 55071 234.672
119.757 61338 247.665
119.875 66961 258.768
119.992 69646 263.905
120.109 71985 268.3
120.226 72954 270.1
120.343 72566 269.381
120.46 72704 269.637
120.578 72189 268.68
120.695 72301 268.888
120.812 72276 268.842
120.929 72036 268.395
121.046 72390 269.054
121.163 72144 268.596
121.279 72085 268.486
121.396 70986 266.432
121.513 70862 266.199
121.63 71188 266.811
121.747 70350 265.236
121.863 70510 265.537
121.98 70929 266.325
122.097 70455 265.434
122.213 70634 265.771
122.33 70963 266.389
122.446 70923 266.314
122.563 69347 263.338
122.679 67353 259.525
122.795 64078 253.136
122.912 60483 245.933
123.028 54914 234.337
123.144 50144 223.929
123.26 49230 221.878
123.377 0 1
123.493 0 1
123.609 0 1
123.725 0 1
123.84 0 1
123.956 0 1
124.072 0 1
124.188 0 1
124.303 0 1
124.419 0 1
126.852 0 1
126.968 0 1
127.083 0 1
127.199 0 1
127.315 0 1
127.431 0 1
127.547 0 1
127.663 0 1
127.779 0 1
127.895 0 1
128.011 0 1
128.127 0 1
128.243 0 1
128.359 56913 238.564
128.476 55304 235.168
128.592 59273 243.46
128.708 67005 258.853
128.825 73906 271.857
128.941 78555 280.277
129.058 79857 282.59
129.174 80772 284.204
129.291 80780 284.218
129.408 80448 283.634
129.524 80071 282.968
129.641 79709 282.328
129.758 80034 282.903
129.875 79736 282.376
129.992 78915 280.918
130.108 78744 280.614
130.225 77603 278.573
130.342 77813 278.95
130.459 75152 274.139
130.576 78554 280.275
130.693 76846 277.211
130.81 76615 276.794
130.928 76513 276.61
131.045 76410 276.424
131.162 77411 278.228
131.279 77478 278.349
131.396 76449 276.494
131.513 73310 270.758
131.631 70374 265.281
131.748 66781 258.42
131.865 59668 244.27
131.983 55219 234.987
132.1 57117 238.992
132.217 62890 250.779
132.335 69860 264.31
132.452 74756 273.415
132.57 76484 276.557
132.687 74467 272.886
132.804 79970 282.79
132.922 77722 278.787
133.039 77133 277.728
133.157 77127 277.717
133.274 76463 276.519
133.392 77029 277.541
133.509 75842 275.394
133.627 75220 274.263
133.744 74799 273.494
133.862 73503 271.114
133.979 74371 272.71
134.097 73635 271.358
134.214 74730 273.368
134.332 71971 268.274
134.449 73396 270.917
134.567 73796 271.654
134.684 74570 273.075
134.802 74530 273.002
134.919 74601 273.132
135.037 72939 270.072
135.154 69602 263.822
135.272 66938 258.724
135.389 60963 246.907
135.507 56182 237.027
135.624 54119 232.635
135.742 57630 240.062
135.859 63969 252.921
135.977 70693 265.882
136.094 74072 272.162
136.211 75029 273.914
136.329 75696 275.129
136.446 76259 276.15
136.564 75778 275.278
136.681 77164 277.784
136.798 75268 274.35
136.915 76165 275.98
137.033 75217 274.257
137.15 74454 272.863
137.267 74346 272.665
137.384 73080 270.333
137.502 72345 268.97
137.619 71627 267.632
137.736 72100 268.514
137.853 70604 265.714
137.97 70148 264.855
138.087 73387 270.9
138.204 72110 268.533
138.321 72609 269.461
138.438 73647 271.38
138.555 73727 271.527
138.672 72352 268.983
138.788 70257 265.06
138.905 66807 258.471
139.022 62726 250.452
139.139 57604 240.008
139.255 54892 234.29
139.372 57659 240.123
139.488 63303 251.601
139.605 70080 264.726
139.721 73242 270.633
139.838 74177 272.355
139.954 75462 274.703
140.071 73971 271.976
140.187 75134 274.106
140.303 74457 272.868
140.419 74345 272.663
140.535 73223 270.597
140.652 73233 270.616
140.768 0 1
140.884 0 1
141 0 1
141.115 0 1
141.231 0 1
141.347 0 1
141.463 0 1
141.578 0 1
141.694 0 1
144.104 0 1
144.219 0 1
144.335 0 1
144.45 0 1
144.566 0 1
144.682 0 1
144.798 0 1
144.914 0 1
145.03 0 1
145.146 63945 252.873
145.262 64452 253.874
145.378 64743 254.446
145.494 64785 254.529
145.61 63691 252.371
145.726 63239 251.474
145.842 62278 249.556
145.959 61307 247.603
146.075 60915 246.81
146.192 60050 245.051
146.308 59930 244.806
146.425 59996 244.941
146.541 59890 244.724
146.658 59399 243.719
146.774 59488 243.902
146.891 60205 245.367
147.008 61153 247.291
147.125 60980 246.941
147.241 59759 244.457
147.358 58914 242.722
147.475 56060 236.77
147.592 52878 229.952
147.709 48300 219.773
147.826 44635 211.27
147.943 45719 213.82
148.06 49903 223.39
148.177 55550 235.69
148.294 58949 242.794
148.411 60044 245.039
148.528 60772 246.52
148.645 59860 244.663
148.762 59989 244.927
148.88 59905 244.755
148.997 56989 238.724
149.114 61408 247.806
149.231 59059 243.021
149.349 58341 241.539
149.466 56526 237.752
149.583 55903 236.438
149.701 54633 233.737
149.818 54542 233.542
149.935 54204 232.818
150.053 54563 233.587
150.17 54617 233.703
150.287 55300 235.16
150.405 55431 235.438
150.522 56261 237.194
150.64 56448 237.588
150.757 56796 238.319
150.875 56403 237.493
150.992 55771 236.159
151.11 52916 230.035
151.227 50614 224.976
151.344 45703 213.783
151.462 42088 205.154
151.579 43546 208.677
151.697 47767 218.557
151.814 53360 230.998
151.932 56024 236.694
152.049 57946 240.72
152.167 58207 241.261
152.284 58356 241.57
152.402 58659 242.196
152.519 58323 241.502
152.636 58286 241.425
152.754 57638 240.079
152.871 57088 238.931
152.989 56276 237.226
153.106 55164 234.87
153.223 54162 232.727
153.341 53635 231.592
153.458 53148 230.539
153.575 53480 231.257
153.693 53735 231.808
153.81 53896 232.155
153.927 54903 234.314
154.044 55319 235.2
154.162 56290 237.255
154.279 56894 238.525
154.396 57198 239.161
154.513 57944 240.716
154.63 57063 238.879
154.747 55843 236.311
154.864 52541 229.218
154.981 48576 220.4
155.098 45852 214.131
155.215 47023 216.848
155.332 51230 226.34
155.449 55025 234.574
155.566 57493 239.777
155.683 58598 242.07
155.8 58582 242.037
155.917 59007 242.914
156.033 58930 242.755
156.15 0 1
156.267 0 1
156.383 0 1
156.5 0 1
156.617 0 1
156.733 0 1
156.85 0 1
156.966 0 1
157.082 0 1
157.199 0 1
157.315 0 1
157.431 0 1
157.547 0 1
157.664 0 1
157.78 0 1
157.896 0 1
158.012 0 1
158.128 0 1
158.244 0 1
158.359 0 1
158.475 0 1
158.591 0 1
158.706 0 1
