
6.15755 0 1
6.2731 0 1
6.3887 0 1
6.50437 0 1
6.62009 0 1
6.73587 0 1
6.8517 0 1
6.96759 0 1
7.08353 0 1
7.19952 0 1
7.31557 0 1
7.43166 0 1
7.54781 0 1
7.664 0 1
7.78024 0 1
7.89653 0 1
8.01286 0 1
8.12924 0 1
8.24567 0 1
8.36213 0 1
8.47864 0 1
8.59519 0 1
8.71178 0 1
8.82841 0 1
8.94508 0 1
9.06179 0 1
9.17853 0 1
9.29531 0 1
9.41212 0 1
9.52897 0 1
9.64584 0 1
9.76276 0 1
9.8797 0 1
9.99667 0 1
10.1137 0 1
10.2307 0 1
10.3478 0 1
10.4648 0 1
10.5819 0 1
10.6991 0 1
10.8162 0 1
10.9334 0 1
11.0506 0 1
11.1678 0 1
11.285 0 1
11.4023 0 1
11.5196 0 1
11.6369 0 1
11.7542 0 1
11.8715 0 1
11.9888 0 1
12.1062 0 1
12.2235 0 1
12.3409 0 1
12.4582 0 1
12.5756 0 1
12.693 0 1
12.8104 0 1
12.9278 0 1
13.0452 0 1
13.1626 0 1
13.28 0 1
13.3974 0 1
13.5149 0 1
13.6323 0 1
13.7497 0 1
13.8671 0 1
13.9845 0 1
14.1019 0 1
14.2193 0 1
14.3367 0 1
14.4541 0 1
14.5714 0 1
14.6888 0 1
14.8062 0 1
14.9235 0 1
15.0408 5802 76.1709
15.1581 6086 78.0128
15.2755 6079 77.9679
15.3927 6038 77.7046
15.51 6076 77.9487
15.6273 5962 77.214
15.7445 5805 76.1906
15.8617 5583 74.7195
15.9789 5341 73.0821
16.0961 5458 73.8783
16.2132 5337 73.0548
16.3304 5254 72.4845
16.4475 5316 72.9109
16.5646 5206 72.1526
16.6816 5158 71.8192
16.7986 4937 70.2638
16.9156 4799 69.2748
17.0326 4778 69.1231
17.1496 4633 68.0661
17.2665 4571 67.6092
17.3833 4516 67.2012
17.5002 4449 66.7008
17.617 4503 67.1044
17.7338 4679 68.4032
17.8505 4892 69.9428
17.9672 4973 70.5195
18.0839 5214 72.208
18.2005 5575 74.6659
18.3171 5471 73.9662
18.4337 5496 74.135
18.5502 5664 75.2596
18.6666 5649 75.1598
18.7831 5742 75.776
18.8994 5472 73.973
19.0158 5372 73.2939
19.1321 5250 72.4569
19.2483 4943 70.3065
19.3645 4644 68.1469
19.4806 4514 67.1863
19.5967 4442 66.6483
19.7128 4433 66.5808
19.8288 4388 66.242
19.9447 4023 63.4271
20.0606 0 1
20.1764 0 1
20.2922 0 1
20.4079 0 1
20.5236 0 1
20.6392 0 1
20.7548 0 1
20.8702 0 1
23.3078 0 1
23.4233 0 1
23.539 0 1
23.6547 0 1
23.7704 0 1
23.8862 0 1
24.0021 0 1
24.118 0 1
24.234 0 1
24.35 0 1
24.4661 4320 65.7267
24.5822 4113 64.1327
24.6984 4209 64.8768
24.8146 4094 63.9844
24.9309 4428 66.5432
25.0472 4487 66.9851
25.1636 4529 67.2978
25.28 4707 68.6076
25.3965 4642 68.1322
25.513 4571 67.6092
25.6296 4639 68.1102
25.7462 4665 68.3008
25.8628 4635 68.0808
25.9795 4376 66.1513
26.0962 4349 65.9469
26.213 4135 64.304
26.3298 4230 65.0385
26.4466 4171 64.5833
26.5635 4362 66.0454
26.6804 4374 66.1362
26.7973 4487 66.9851
26.9143 4647 68.1689
27.0313 4483 66.9552
27.1483 4656 68.2349
27.2653 4722 68.7168
27.3824 4823 69.4478
27.4996 4814 69.383
27.6167 4686 68.4544
27.7339 4514 67.1863
27.8511 4464 66.8132
27.9683 4378 66.1665
28.0855 4248 65.1767
28.2028 4076 63.8436
28.3201 3982 63.1031
28.4374 4108 64.0937
28.5547 4190 64.7302
28.6721 4122 64.2028
28.7894 4236 65.0846
28.9068 4298 65.5591
29.0242 4281 65.4294
29.1416 4256 65.238
29.259 4020 63.4035
29.3764 4010 63.3246
29.4939 3885 62.3298
29.6113 3633 60.2744
29.7288 3722 61.0082
29.8463 3785 61.5224
29.9638 3802 61.6604
30.0812 3943 62.7933
30.1987 4109 64.1015
30.3162 3982 63.1031
30.4337 4086 63.9218
30.5512 4271 65.3529
30.6687 4242 65.1306
30.7862 4400 66.3325
30.9037 4418 66.468
31.0212 4595 67.7864
31.1387 4536 67.3498
31.2562 4446 66.6783
31.3737 4393 66.2797
31.4912 4130 64.2651
31.6087 3992 63.1823
31.7262 3969 63
31.8436 3878 62.2736
31.9611 3909 62.522
32.0785 4128 64.2495
32.1959 4158 64.4826
32.3134 4126 64.2339
32.4308 4082 63.8905
32.5482 3930 62.6897
32.6655 4023 63.4271
32.7829 3930 62.6897
32.9002 4061 63.726
33.0176 3780 61.4817
33.1349 3726 61.041
33.2522 3646 60.3821
33.3694 3530 59.4138
33.4867 3646 60.3821
33.6039 3631 60.2578
33.7211 3697 60.803
33.8383 3864 62.1611
33.9554 3925 62.6498
34.0725 4144 64.3739
34.1896 4252 65.2074
34.3067 4227 65.0154
34.4237 4289 65.4905
34.5407 4244 65.146
34.6577 4446 66.6783
34.7746 4353 65.9773
34.8915 4214 64.9153
35.0084 4224 64.9923
35.1252 4083 63.8984
35.242 4044 63.5925
35.3587 3908 62.514
35.4755 3793 61.5873
35.5921 3713 60.9344
35.7088 3913 62.554
35.8254 3856 62.0967
35.9419 4114 64.1405
36.0584 3894 62.4019
36.1749 4018 63.3877
36.2913 3807 61.7009
36.4077 3916 62.578
36.524 3703 60.8523
36.6403 3779 61.4736
36.7565 3671 60.5888
36.8727 3537 59.4727
36.9889 3586 59.8832
37.1049 3512 59.2621
37.221 0 1
37.3369 0 1
37.4529 0 1
37.5687 0 1
37.6845 0 1
37.8003 0 1
37.916 0 1
38.0316 0 1
38.1472 0 1
40.5851 0 1
40.7008 0 1
40.8164 0 1
40.9322 0 1
41.048 0 1
41.1639 0 1
41.2798 0 1
41.3958 0 1
41.5118 0 1
41.6279 0 1
41.744 2740 52.345
41.8602 3015 54.909
41.9765 2960 54.4059
42.0928 2921 54.0463
42.2091 2878 53.647
42.3255 2830 53.1977
42.4419 2810 53.0094
42.5584 2838 53.2729
42.675 2839 53.2823
42.7915 3022 54.9727
42.9081 3004 54.8088
43.0248 2955 54.3599
43.1415 3024 54.9909
43.2582 3054 55.263
43.375 2968 54.4794
43.4918 3093 55.6147
43.6087 3046 55.1906
43.7256 3139 56.0268
43.8425 3001 54.7814
43.9595 2830 53.1977
44.0765 2867 53.5444
44.1935 2748 52.4214
44.3106 2668 51.6527
44.4277 2439 49.3862
44.5448 2410 49.0918
44.6619 2387 48.8569
44.7791 2479 49.7896
44.8963 2493 49.93
45.0136 2408 49.0714
45.1308 2404 49.0306
45.2481 2326 48.2286
45.3654 2260 47.5395
45.4827 2372 48.7032
45.6001 2211 47.0213
45.7174 2214 47.0532
45.8348 2175 46.6369
45.9522 2126 46.1086
46.0697 2119 46.0326
46.1871 2098 45.8039
46.3046 2125 46.0977
46.422 2220 47.1169
46.5395 2111 45.9456
46.657 2182 46.7119
46.7745 2218 47.0956
46.892 2164 46.5188
47.0096 2137 46.2277
47.1271 2230 47.2229
47.2446 2308 48.0416
47.3622 2167 46.551
47.4797 2162 46.4973
47.5973 2106 45.8912
47.7149 2022 44.9667
47.8324 1967 44.3509
47.95 1867 43.2088
48.0675 1674 40.9145
48.1851 1808 42.5206
48.3027 1855 43.0697
48.4202 1827 42.7434
48.5378 1955 44.2154
48.6554 1886 43.4281
48.7729 1909 43.6921
48.8904 1894 43.5201
49.008 1850 43.0116
49.1255 1845 42.9535
49.243 1874 43.2897
49.3605 1749 41.821
49.478 1789 42.2966
49.5955 1787 42.2729
49.713 1810 42.5441
49.8304 1840 42.8952
49.9479 1952 44.1814
50.0653 2109 45.9239
50.1827 2069 45.4863
50.3001 2108 45.913
50.4175 2183 46.7226
50.5348 2245 47.3814
50.6521 2335 48.3218
50.7694 2282 47.7703
50.8867 2426 49.2544
51.004 2341 48.3839
51.1212 2323 48.1975
51.2384 2429 49.2849
51.3556 2368 48.6621
51.4727 2346 48.4355
51.5899 2207 46.9787
51.707 2364 48.621
51.824 2427 49.2646
51.9411 2533 50.3289
52.0581 2745 52.3927
52.175 2772 52.6498
52.2919 2810 53.0094
52.4088 2728 52.2303
52.5257 2868 53.5537
52.6425 2844 53.3292
52.7593 2866 53.535
52.876 2809 53
52.9927 2856 53.4416
53.1094 2729 52.2398
53.226 2807 52.9811
53.3426 2825 53.1507
53.4591 2947 54.2863
53.5756 3099 55.6687
53.692 3127 55.9196
53.8084 3219 56.7362
53.9248 3270 57.1839
54.0411 3348 57.8619
54.1573 3404 58.3438
54.2735 0 1
54.3896 0 1
54.5057 0 1
54.6217 0 1
54.7377 0 1
54.8537 0 1
54.9695 0 1
55.0853 0 1
55.2011 0 1
55.3168 0 1
55.4324 0 1
57.824 0 1
57.9396 0 1
58.0553 0 1
58.1711 0 1
58.2869 0 1
58.4028 0 1
58.5187 0 1
58.6347 0 1
58.7508 0 1
58.8669 0 1
58.983 3980 63.0872
59.0992 4133 64.2884
59.2155 4220 64.9615
59.3318 4192 64.7457
59.4482 4454 66.7383
59.5646 4356 66
59.681 4381 66.1891
59.7975 4329 65.7951
59.9141 4268 65.3299
60.0306 4138 64.3273
60.1473 4128 64.2495
60.2639 3969 63
60.3807 3869 62.2013
60.4974 3790 61.563
60.6142 3820 61.8061
60.731 4074 63.8279
60.8479 4203 64.8305
60.9648 4245 65.1537
61.0818 4312 65.6658
61.1987 4167 64.5523
61.3158 4101 64.0391
61.4328 3953 62.8729
61.5499 3980 63.0872
61.667 3739 61.1474
61.7841 3710 60.9098
61.9013 3627 60.2246
62.0185 3592 59.9333
62.1357 3578 59.8164
62.253 3716 60.959
62.3702 3782 61.498
62.4875 3780 61.4817
62.6049 3875 62.2495
62.7222 3722 61.0082
62.8396 4018 63.3877
62.9569 3821 61.8142
63.0743 3865 62.1691
63.1918 3820 61.8061
63.3092 3784 61.5142
63.4267 3761 61.327
63.5441 3729 61.0655
63.6616 3516 59.2959
63.7791 3377 58.112
63.8966 3341 57.8014
64.0142 3283 57.2975
64.1317 3433 58.5918
64.2492 3623 60.1914
64.3668 3693 60.7701
64.4843 3697 60.803
64.6019 3612 60.0999
64.7195 3641 60.3407
64.837 3690 60.7454
64.9546 3681 60.6712
65.0722 3561 59.6741
65.1898 3393 58.2495
65.3074 3503 59.1861
65.4249 3366 58.0172
65.5425 3240 56.921
65.6601 3296 57.4108
65.7777 3281 57.28
65.8952 3414 58.4294
66.0128 3459 58.8133
66.1304 3655 60.4566
66.2479 3582 59.8498
66.3655 3549 59.5735
66.483 3590 59.9166
66.6005 3680 60.663
66.718 3663 60.5227
66.8355 3573 59.7746
66.953 3684 60.696
67.0705 3619 60.1581
67.1879 3668 60.564
67.3054 3587 59.8916
67.4228 3441 58.66
67.5402 3370 58.0517
67.6576 3394 58.258
67.7749 3293 57.3847
67.8923 3707 60.8851
68.0096 3688 60.7289
68.1269 3910 62.53
68.2442 3909 62.522
68.3614 3935 62.7296
68.4787 3802 61.6604
68.5958 3860 62.1289
68.713 3914 62.562
68.8302 3916 62.578
68.9473 3793 61.5873
69.0643 3672 60.597
69.1814 3596 59.9667
69.2984 3579 59.8247
69.4154 3732 61.0901
69.5323 3625 60.208
69.6492 3751 61.2454
69.7661 3952 62.8649
69.8829 3950 62.849
69.9997 4020 63.4035
70.1165 3971 63.0159
70.2332 4074 63.8279
70.3499 4118 64.1716
70.4665 4084 63.9062
70.5831 4093 63.9766
70.6996 4102 64.0469
70.8161 4073 63.8201
70.9326 4064 63.7495
71.049 4228 65.0231
71.1653 3969 63
71.2817 3740 61.1555
71.3979 3565 59.7076
71.5141 3640 60.3324
71.6303 3799 61.636
71.7464 3752 61.2536
71.8624 0 1
71.9784 0 1
72.0944 0 1
72.2102 0 1
72.3261 0 1
72.4418 0 1
72.5575 0 1
72.6732 0 1
75.1054 0 1
75.2209 0 1
75.3365 0 1
75.4521 0 1
75.5678 0 1
75.6835 0 1
75.7993 0 1
75.9151 0 1
76.031 0 1
76.147 4021 63.4114
76.263 4351 65.9621
76.3791 4384 66.2118
76.4952 4326 65.7723
76.6113 4073 63.8201
76.7276 4109 64.1015
76.8438 4370 66.106
76.9601 4611 67.9043
77.0765 4741 68.8549
77.1929 4835 69.5342
77.3093 4798 69.2676
77.4258 4622 67.9853
77.5423 4590 67.7495
77.6589 4624 68
77.7755 4418 66.468
77.8921 4241 65.123
78.0088 4218 64.9461
78.1256 4033 63.5059
78.2423 3979 63.0793
78.3591 3888 62.3538
78.4759 4143 64.3661
78.5928 4128 64.2495
78.7097 4224 64.9923
78.8266 4070 63.7966
78.9436 4164 64.5291
79.0606 4351 65.9621
79.1776 4368 66.0908
79.2946 4300 65.5744
79.4117 4407 66.3852
79.5288 4296 65.5439
79.6459 4342 65.8939
79.7631 4351 65.9621
79.8802 4403 66.3551
79.9974 4293 65.521
80.1147 4179 64.6452
80.2319 4029 63.4744
80.3491 3984 63.1189
80.4664 3906 62.498
80.5837 4183 64.6761
80.701 4378 66.1665
80.8183 4500 67.082
80.9357 4189 64.7225
81.053 4085 63.914
81.1704 4222 64.9769
81.2877 4267 65.3223
81.4051 4299 65.5668
81.5225 4188 64.7148
81.6399 3797 61.6198
81.7573 3861 62.1369
81.8747 3555 59.6238
81.9922 3448 58.7197
82.1096 3536 59.4643
82.227 3663 60.5227
82.3444 3708 60.8933
82.4619 3756 61.2862
82.5793 3950 62.849
82.6967 3928 62.6738
82.8142 3874 62.2415
82.9316 3957 62.9047
83.049 4052 63.6553
83.1664 4052 63.6553
83.2838 4004 63.2772
83.4012 4144 64.3739
83.5186 4071 63.8044
83.636 4092 63.9687
83.7534 3960 62.9285
83.8708 3763 61.3433
83.9881 3752 61.2536
84.1055 3786 61.5305
84.2228 3972 63.0238
84.3401 4123 64.2106
84.4575 4346 65.9242
84.5747 4305 65.6125
84.692 4242 65.1306
84.8093 4292 65.5134
84.9265 4498 67.0671
85.0437 4293 65.521
85.1609 4054 63.671
85.2781 4021 63.4114
85.3952 3899 62.442
85.5123 3724 61.0246
85.6294 3656 60.4649
85.7465 3756 61.2862
85.8636 3815 61.7657
85.9806 4021 63.4114
86.0976 4129 64.2573
86.2145 4187 64.707
86.3315 4082 63.8905
86.4484 4357 66.0076
86.5652 4315 65.6887
86.682 4351 65.9621
86.7988 4372 66.1211
86.9156 4399 66.325
87.0323 4354 65.9848
87.149 4340 65.8787
87.2657 4289 65.4905
87.3823 4239 65.1076
87.4988 4267 65.3223
87.6154 4195 64.7688
87.7318 4197 64.7843
87.8483 4327 65.7799
87.9647 4475 66.8954
88.081 4555 67.4907
88.1973 4425 66.5207
88.3136 4512 67.1714
88.4298 4522 67.2458
88.546 4595 67.7864
88.6621 4460 66.7832
88.7781 4308 65.6354
88.8942 0 1
89.0101 0 1
89.126 0 1
89.2419 0 1
89.3577 0 1
89.4734 0 1
89.5891 0 1
89.7047 0 1
89.8203 0 1
89.9358 0 1
92.3269 0 1
92.4424 0 1
92.558 0 1
92.6736 0 1
92.7893 0 1
92.905 0 1
93.0208 0 1
93.1366 0 1
93.2525 0 1
93.3685 0 1
93.4845 0 1
93.6005 4263 65.2917
93.7167 4383 66.2042
93.8328 4309 65.643
93.949 4366 66.0757
94.0653 4070 63.7966
94.1816 3990 63.1664
94.2979 3807 61.7009
94.4143 3744 61.1882
94.5307 3493 59.1016
94.6472 3545 59.5399
94.7637 3877 62.2656
94.8803 3856 62.0967
94.9969 3946 62.8172
95.1135 4001 63.2535
95.2302 4079 63.867
95.3469 4065 63.7574
95.4637 4139 64.3351
95.5805 4151 64.4283
95.6973 4305 65.6125
95.8142 4301 65.582
95.9311 4235 65.0769
96.048 4301 65.582
96.1649 4249 65.1844
96.2819 4209 64.8768
96.3989 4157 64.4748
96.516 4120 64.1872
96.633 3879 62.2816
96.7501 3902 62.466
96.8673 3995 63.206
96.9844 4173 64.5988
97.1016 4222 64.9769
97.2188 4247 65.169
97.336 4245 65.1537
97.4532 4201 64.8151
97.5704 4295 65.5362
97.6877 4295 65.5362
97.805 4023 63.4271
97.9223 3952 62.8649
98.0396 3856 62.0967
98.1569 3635 60.291
98.2743 3686 60.7124
98.3916 3397 58.2838
98.509 3683 60.6877
98.6264 3752 61.2536
98.7438 3848 62.0322
98.8612 3875 62.2495
98.9786 3954 62.8808
99.096 3957 62.9047
99.2134 4048 63.6239
99.3308 3872 62.2254
99.4482 3927 62.6658
99.5656 3991 63.1744
99.6831 3902 62.466
99.8005 3953 62.8729
99.9179 3915 62.57
100.035 3928 62.6738
100.153 3839 61.9597
100.27 3563 59.6909
100.388 3795 61.6036
100.505 3936 62.7375
100.622 3900 62.45
100.74 3996 63.2139
100.857 3982 63.1031
100.975 4025 63.4429
101.092 4153 64.4438
101.209 4120 64.1872
101.327 4087 63.9296
101.444 4167 64.5523
101.561 3939 62.7615
101.679 3753 61.2617
101.796 3648 60.3987
101.913 3460 58.8218
102.03 3593 59.9416
102.148 3784 61.5142
102.265 3619 60.1581
102.382 4262 65.284
102.499 4059 63.7103
102.616 4065 63.7574
102.733 4076 63.8436
102.851 4055 63.6789
102.968 4251 65.1997
103.085 4254 65.2227
103.202 4255 65.2304
103.319 4257 65.2457
103.436 4188 64.7148
103.552 4282 65.437
103.669 4182 64.6684
103.786 3962 62.9444
103.903 4015 63.364
104.02 4124 64.2184
104.137 4230 65.0385
104.253 4409 66.4003
104.37 4357 66.0076
104.487 4504 67.1118
104.603 4462 66.7982
104.72 4652 68.2056
104.836 4404 66.3626
104.953 4419 66.4756
105.069 4116 64.1561
105.186 4036 63.5295
105.302 3870 62.2093
105.418 3809 61.7171
105.535 3847 62.0242
105.651 3933 62.7136
105.767 4042 63.5767
105.883 4124 64.2184
105.999 4300 65.5744
106.115 0 1
106.231 0 1
106.347 0 1
106.463 0 1
106.579 0 1
106.694 0 1
106.81 0 1
106.926 0 1
107.041 0 1
107.157 0 1
109.576 0 1
109.692 0 1
109.807 0 1
109.923 0 1
110.039 0 1
110.155 0 1
110.27 0 1
110.386 0 1
110.502 0 1
110.618 3255 57.0526
110.735 3567 59.7244
110.851 3590 59.9166
110.967 3731 61.0819
111.083 3709 60.9016
111.199 3787 61.5386
111.316 3825 61.8466
111.432 3944 62.8013
111.549 3873 62.2334
111.665 3832 61.9032
111.782 3877 62.2656
111.898 3792 61.5792
112.015 3788 61.5467
112.132 3725 61.0328
112.248 3574 59.7829
112.365 3378 58.1206
112.482 3546 59.5483
112.599 3347 57.8533
112.716 3511 59.2537
112.832 3612 60.0999
112.949 3566 59.716
113.066 3583 59.8582
113.183 3532 59.4306
113.3 3684 60.696
113.417 3607 60.0583
113.534 3542 59.5147
113.652 3355 57.9224
113.769 3163 56.2406
113.886 3185 56.4358
114.003 2901 53.8609
114.12 2902 53.8702
114.238 2952 54.3323
114.355 3188 56.4624
114.472 3316 57.5847
114.589 3221 56.7539
114.707 3316 57.5847
114.824 3154 56.1605
114.942 3105 55.7225
115.059 3218 56.7274
115.176 3146 56.0892
115.294 3172 56.3205
115.411 3018 54.9363
115.529 3005 54.8179
115.646 2942 54.2402
115.764 2999 54.7631
115.881 2742 52.3641
115.999 2670 51.672
116.116 2775 52.6783
116.234 2699 51.9519
116.351 2776 52.6878
116.469 2843 53.3198
116.586 2931 54.1387
116.704 2888 53.7401
116.821 2853 53.4135
116.939 2946 54.2771
117.056 2902 53.8702
117.174 2852 53.4041
117.291 2746 52.4023
117.409 2557 50.5668
117.526 2530 50.2991
117.644 2466 49.6588
117.761 2517 50.1697
117.879 2616 51.1468
117.996 2669 51.6624
118.114 2735 52.2972
118.231 2756 52.4976
118.349 2748 52.4214
118.466 2794 52.8583
118.584 2863 53.507
118.701 2764 52.5738
118.819 2831 53.2071
118.936 2893 53.7866
119.053 2829 53.1883
119.171 2773 52.6593
119.288 2728 52.2303
119.405 2689 51.8556
119.523 2630 51.2835
119.64 2525 50.2494
119.757 2639 51.3712
119.875 2747 52.4118
119.992 2826 53.1601
120.109 2767 52.6023
120.226 2879 53.6563
120.343 2956 54.3691
120.46 3045 55.1815
120.578 3017 54.9272
120.695 3185 56.4358
120.812 3124 55.8928
120.929 3073 55.4346
121.046 2971 54.5069
121.163 2879 53.6563
121.279 2751 52.45
121.396 2746 52.4023
121.513 2958 54.3875
121.63 3087 55.5608
121.747 3160 56.2139
121.863 3286 57.3236
121.98 3297 57.4195
122.097 3222 56.7627
122.213 3249 57
122.33 3378 58.1206
122.446 3315 57.576
122.563 3405 58.3524
122.679 3304 57.4804
122.795 3200 56.5685
122.912 3275 57.2276
123.028 3144 56.0714
123.144 3235 56.8771
123.26 3038 55.1181
123.377 0 1
123.493 0 1
123.609 0 1
123.725 0 1
123.84 0 1
123.956 0 1
124.072 0 1
124.188 0 1
124.303 0 1
124.419 0 1
126.852 0 1
126.968 0 1
127.083 0 1
127.199 0 1
127.315 0 1
127.431 0 1
127.547 0 1
127.663 0 1
127.779 0 1
127.895 0 1
128.011 0 1
128.127 0 1
128.243 0 1
128.359 3837 61.9435
128.476 3780 61.4817
128.592 3574 59.7829
128.708 3605 60.0417
128.825 3538 59.4811
128.941 3495 59.1185
129.058 3687 60.7207
129.174 3763 61.3433
129.291 3891 62.3779
129.408 3927 62.6658
129.524 3938 62.7535
129.641 3984 63.1189
129.758 4062 63.7338
129.875 4085 63.914
129.992 3873 62.2334
130.108 3662 60.5145
130.225 3453 58.7622
130.342 3392 58.2409
130.459 3487 59.0508
130.576 3432 58.5833
130.693 3520 59.3296
130.81 3620 60.1664
130.928 3701 60.8358
131.045 3737 61.131
131.162 3865 62.1691
131.279 3823 61.8304
131.396 3828 61.8708
131.513 3756 61.2862
131.631 3708 60.8933
131.748 3636 60.2993
131.865 3665 60.5392
131.983 3547 59.5567
132.1 3485 59.0339
132.217 3433 58.5918
132.335 3338 57.7754
132.452 3381 58.1464
132.57 3395 58.2666
132.687 3407 58.3695
132.804 3676 60.63
132.922 3611 60.0916
133.039 3652 60.4318
133.157 3705 60.8687
133.274 3706 60.8769
133.392 3851 62.0564
133.509 3753 61.2617
133.627 3570 59.7495
133.744 3552 59.5987
133.862 3406 58.3609
133.979 3278 57.2538
134.097 3395 58.2666
134.214 3536 59.4643
134.332 3566 59.716
134.449 3839 61.9597
134.567 3811 61.7333
134.684 3943 62.7933
134.802 3991 63.1744
134.919 3860 62.1289
135.037 3753 61.2617
135.154 3601 60.0083
135.272 3600 60
135.389 3549 59.5735
135.507 3362 57.9828
135.624 3445 58.6941
135.742 3251 57.0175
135.859 3093 55.6147
135.977 3107 55.7405
136.094 3132 55.9643
136.211 3150 56.1249
136.329 3281 57.28
136.446 3289 57.3498
136.564 3381 58.1464
136.681 3353 57.9051
136.798 3407 58.3695
136.915 3396 58.2752
137.033 3426 58.532
137.15 3364 58
137.267 3102 55.6956
137.384 3032 55.0636
137.502 3020 54.9545
137.619 2989 54.6717
137.736 3024 54.9909
137.853 3106 55.7315
137.97 3245 56.9649
138.087 3506 59.2115
138.204 3471 58.9152
138.321 3566 59.716
138.438 3616 60.1332
138.555 3680 60.663
138.672 3584 59.8665
138.788 3668 60.564
138.905 3644 60.3656
139.022 3561 59.6741
139.139 3620 60.1664
139.255 3489 59.0678
139.372 3453 58.7622
139.488 3351 57.8878
139.605 3480 58.9915
139.721 3519 59.3212
139.838 3578 59.8164
139.954 3568 59.7327
140.071 3728 61.0574
140.187 4015 63.364
140.303 3848 62.0322
140.419 4029 63.4744
140.535 4089 63.9453
140.652 3882 62.3057
140.768 0 1
140.884 0 1
141 0 1
141.115 0 1
141.231 0 1
141.347 0 1
141.463 0 1
141.578 0 1
141.694 0 1
144.104 0 1
144.219 0 1
144.335 0 1
144.45 0 1
144.566 0 1
144.682 0 1
144.798 0 1
144.914 0 1
145.03 0 1
145.146 4429 66.5507
145.262 4887 69.9071
145.378 5257 72.5052
145.494 5733 75.7166
145.61 6015 77.5564
145.726 6300 79.3725
145.842 6561 81
145.959 6755 82.1888
146.075 6721 81.9817
146.192 6847 82.7466
146.308 6712 81.9268
146.425 7076 84.119
146.541 7767 88.1306
146.658 8537 92.3959
146.774 9248 96.1665
146.891 10196 100.975
147.008 10770 103.779
147.125 11680 108.074
147.241 12637 112.414
147.358 13088 114.403
147.475 13539 116.357
147.592 13821 117.563
147.709 14089 118.697
147.826 14372 119.883
147.943 14815 121.717
148.06 14678 121.153
148.177 14927 122.176
148.294 14640 120.996
148.411 14910 122.107
148.528 15851 125.901
148.645 16445 128.238
148.762 16970 130.269
148.88 17681 132.97
148.997 18921 137.554
149.114 17728 133.147
149.231 18795 137.095
149.349 18519 136.085
149.466 18891 137.445
149.583 17929 133.899
149.701 16820 129.692
149.818 15869 125.972
149.935 15198 123.28
150.053 14886 122.008
150.17 15358 123.927
150.287 16523 128.542
150.405 16907 130.027
150.522 17649 132.85
150.64 17931 133.907
150.757 18319 135.348
150.875 18589 136.341
150.992 18416 135.706
151.11 18797 137.102
151.227 18280 135.204
151.344 17910 133.828
151.462 17725 133.135
151.579 17423 131.996
151.697 17236 131.286
151.814 17177 131.061
151.932 16386 128.008
152.049 16533 128.581
152.167 17262 131.385
152.284 17908 133.821
152.402 18615 136.437
152.519 19277 138.842
152.636 19902 141.074
152.754 19909 141.099
152.871 20432 142.941
152.989 20342 142.625
153.106 20243 142.278
153.223 19288 138.881
153.341 18296 135.263
153.458 17409 131.943
153.575 16580 128.763
153.693 16761 129.464
153.81 17548 132.469
153.927 18516 136.074
154.044 19246 138.73
154.162 19672 140.257
154.279 20693 143.851
154.396 21189 145.564
154.513 21682 147.248
154.63 22224 149.077
154.747 21696 147.296
154.864 22124 148.741
154.981 21641 147.109
155.098 21565 146.85
155.215 21475 146.544
155.332 20801 144.226
155.449 20837 144.35
155.566 20159 141.982
155.683 20659 143.732
155.8 21098 145.252
155.917 21856 147.838
156.033 22528 150.093
156.15 0 1
156.267 0 1
156.383 0 1
156.5 0 1
156.617 0 1
156.733 0 1
156.85 0 1
156.966 0 1
157.082 0 1
157.199 0 1
157.315 0 1
157.431 0 1
157.547 0 1
157.664 0 1
157.78 0 1
157.896 0 1
158.012 0 1
158.128 0 1
158.244 0 1
158.359 0 1
158.475 0 1
158.591 0 1
158.706 0 1
