
6.15755 0 1
6.2731 0 1
6.3887 0 1
6.50437 0 1
6.62009 0 1
6.73587 0 1
6.8517 0 1
6.96759 0 1
7.08353 0 1
7.19952 0 1
7.31557 0 1
7.43166 0 1
7.54781 0 1
7.664 0 1
7.78024 0 1
7.89653 0 1
8.01286 0 1
8.12924 0 1
8.24567 0 1
8.36213 0 1
8.47864 0 1
8.59519 0 1
8.71178 0 1
8.82841 0 1
8.94508 0 1
9.06179 0 1
9.17853 0 1
9.29531 0 1
9.41212 0 1
9.52897 0 1
9.64584 0 1
9.76276 0 1
9.8797 0 1
9.99667 0 1
10.1137 0 1
10.2307 0 1
10.3478 0 1
10.4648 0 1
10.5819 0 1
10.6991 0 1
10.8162 0 1
10.9334 0 1
11.0506 0 1
11.1678 0 1
11.285 0 1
11.4023 0 1
11.5196 0 1
11.6369 0 1
11.7542 0 1
11.8715 0 1
11.9888 0 1
12.1062 0 1
12.2235 0 1
12.3409 0 1
12.4582 0 1
12.5756 0 1
12.693 0 1
12.8104 0 1
12.9278 0 1
13.0452 0 1
13.1626 0 1
13.28 0 1
13.3974 0 1
13.5149 0 1
13.6323 0 1
13.7497 0 1
13.8671 0 1
13.9845 0 1
14.1019 0 1
14.2193 0 1
14.3367 0 1
14.4541 0 1
14.5714 0 1
14.6888 0 1
14.8062 0 1
14.9235 0 1
15.0408 1105 33.2415
15.1581 1155 33.9853
15.2755 1105 33.2415
15.3927 1153 33.9559
15.51 1126 33.5559
15.6273 1061 32.573
15.7445 1010 31.7805
15.8617 999 31.607
15.9789 1042 32.28
16.0961 1033 32.1403
16.2132 980 31.305
16.3304 970 31.1448
16.4475 981 31.3209
16.5646 959 30.9677
16.6816 961 31
16.7986 940 30.6594
16.9156 888 29.7993
17.0326 835 28.8964
17.1496 877 29.6142
17.2665 903 30.05
17.3833 843 29.0345
17.5002 871 29.5127
17.617 915 30.249
17.7338 906 30.0998
17.8505 855 29.2404
17.9672 797 28.2312
18.0839 886 29.7658
18.2005 869 29.4788
18.3171 850 29.1548
18.4337 835 28.8964
18.5502 815 28.5482
18.6666 953 30.8707
18.7831 841 29
18.8994 817 28.5832
19.0158 821 28.6531
19.1321 831 28.8271
19.2483 754 27.4591
19.3645 689 26.2488
19.4806 706 26.5707
19.5967 711 26.6646
19.7128 685 26.1725
19.8288 676 26
19.9447 585 24.1868
20.0606 0 1
20.1764 0 1
20.2922 0 1
20.4079 0 1
20.5236 0 1
20.6392 0 1
20.7548 0 1
20.8702 0 1
23.3078 0 1
23.4233 0 1
23.539 0 1
23.6547 0 1
23.7704 0 1
23.8862 0 1
24.0021 0 1
24.118 0 1
24.234 0 1
24.35 0 1
24.4661 369 19.2094
24.5822 369 19.2094
24.6984 483 21.9773
24.8146 595 24.3926
24.9309 659 25.671
25.0472 714 26.7208
25.1636 873 29.5466
25.28 919 30.315
25.3965 932 30.5287
25.513 940 30.6594
25.6296 983 31.3528
25.7462 912 30.1993
25.8628 973 31.1929
25.9795 948 30.7896
26.0962 977 31.257
26.213 874 29.5635
26.3298 876 29.5973
26.4466 890 29.8329
26.5635 789 28.0891
26.6804 806 28.3901
26.7973 810 28.4605
26.9143 713 26.7021
27.0313 766 27.6767
27.1483 822 28.6705
27.2653 776 27.8568
27.3824 773 27.8029
27.4996 804 28.3549
27.6167 845 29.0689
27.7339 850 29.1548
27.8511 823 28.688
27.9683 834 28.8791
28.0855 734 27.0924
28.2028 780 27.9285
28.3201 823 28.688
28.4374 885 29.7489
28.5547 910 30.1662
28.6721 909 30.1496
28.7894 865 29.4109
28.9068 855 29.2404
29.0242 778 27.8927
29.1416 814 28.5307
29.259 741 27.2213
29.3764 859 29.3087
29.4939 818 28.6007
29.6113 837 28.931
29.7288 759 27.55
29.8463 751 27.4044
29.9638 808 28.4253
30.0812 761 27.5862
30.1987 767 27.6948
30.3162 739 27.1846
30.4337 676 26
30.5512 748 27.3496
30.6687 769 27.7308
30.7862 772 27.7849
30.9037 768 27.7128
31.0212 889 29.8161
31.1387 884 29.7321
31.2562 853 29.2062
31.3737 891 29.8496
31.4912 797 28.2312
31.6087 761 27.5862
31.7262 862 29.3598
31.8436 794 28.178
31.9611 782 27.9643
32.0785 872 29.5296
32.1959 821 28.6531
32.3134 812 28.4956
32.4308 815 28.5482
32.5482 767 27.6948
32.6655 799 28.2666
32.7829 736 27.1293
32.9002 726 26.9444
33.0176 730 27.0185
33.1349 764 27.6405
33.2522 748 27.3496
33.3694 708 26.6083
33.4867 768 27.7128
33.6039 744 27.2764
33.7211 680 26.0768
33.8383 727 26.9629
33.9554 702 26.4953
34.0725 706 26.5707
34.1896 703 26.5141
34.3067 640 25.2982
34.4237 735 27.1109
34.5407 731 27.037
34.6577 777 27.8747
34.7746 767 27.6948
34.8915 747 27.3313
35.0084 723 26.8887
35.1252 730 27.0185
35.242 667 25.8263
35.3587 737 27.1477
35.4755 642 25.3377
35.5921 685 26.1725
35.7088 715 26.7395
35.8254 748 27.3496
35.9419 714 26.7208
36.0584 672 25.923
36.1749 710 26.6458
36.2913 659 25.671
36.4077 613 24.7588
36.524 632 25.1396
36.6403 607 24.6374
36.7565 545 23.3452
36.8727 533 23.0868
36.9889 483 21.9773
37.1049 487 22.0681
37.221 0 1
37.3369 0 1
37.4529 0 1
37.5687 0 1
37.6845 0 1
37.8003 0 1
37.916 0 1
38.0316 0 1
38.1472 0 1
40.5851 0 1
40.7008 0 1
40.8164 0 1
40.9322 0 1
41.048 0 1
41.1639 0 1
41.2798 0 1
41.3958 0 1
41.5118 0 1
41.6279 0 1
41.744 359 18.9473
41.8602 377 19.4165
41.9765 457 21.3776
42.0928 511 22.6053
42.2091 528 22.9783
42.3255 512 22.6274
42.4419 531 23.0434
42.5584 596 24.4131
42.675 531 23.0434
42.7915 605 24.5967
42.9081 500 22.3607
43.0248 472 21.7256
43.1415 519 22.7816
43.2582 553 23.516
43.375 534 23.1084
43.4918 586 24.2074
43.6087 539 23.2164
43.7256 589 24.2693
43.8425 527 22.9565
43.9595 533 23.0868
44.0765 596 24.4131
44.1935 510 22.5832
44.3106 541 23.2594
44.4277 578 24.0416
44.5448 576 24
44.6619 559 23.6432
44.7791 576 24
44.8963 583 24.1454
45.0136 621 24.9199
45.1308 616 24.8193
45.2481 595 24.3926
45.3654 608 24.6577
45.4827 573 23.9374
45.6001 582 24.1247
45.7174 602 24.5357
45.8348 563 23.7276
45.9522 562 23.7065
46.0697 550 23.4521
46.1871 519 22.7816
46.3046 524 22.891
46.422 490 22.1359
46.5395 485 22.0227
46.657 498 22.3159
46.7745 505 22.4722
46.892 530 23.0217
47.0096 610 24.6982
47.1271 582 24.1247
47.2446 563 23.7276
47.3622 581 24.1039
47.4797 557 23.6008
47.5973 500 22.3607
47.7149 520 22.8035
47.8324 544 23.3238
47.95 552 23.4947
48.0675 547 23.388
48.1851 569 23.8537
48.3027 614 24.779
48.4202 598 24.454
48.5378 558 23.622
48.6554 609 24.6779
48.7729 582 24.1247
48.8904 559 23.6432
49.008 575 23.9792
49.1255 624 24.98
49.243 578 24.0416
49.3605 590 24.2899
49.478 565 23.7697
49.5955 607 24.6374
49.713 584 24.1661
49.8304 587 24.2281
49.9479 530 23.0217
50.0653 510 22.5832
50.1827 540 23.2379
50.3001 547 23.388
50.4175 505 22.4722
50.5348 549 23.4307
50.6521 568 23.8328
50.7694 553 23.516
50.8867 608 24.6577
51.004 600 24.4949
51.1212 591 24.3105
51.2384 536 23.1517
51.3556 509 22.561
51.4727 567 23.8118
51.5899 554 23.5372
51.707 559 23.6432
51.824 525 22.9129
51.9411 595 24.3926
52.0581 593 24.3516
52.175 555 23.5584
52.2919 569 23.8537
52.4088 548 23.4094
52.5257 586 24.2074
52.6425 571 23.8956
52.7593 566 23.7908
52.876 547 23.388
52.9927 546 23.3666
53.1094 576 24
53.226 531 23.0434
53.3426 478 21.8632
53.4591 508 22.5389
53.5756 459 21.4243
53.692 461 21.4709
53.8084 447 21.1424
53.9248 496 22.2711
54.0411 658 25.6515
54.1573 780 27.9285
54.2735 0 1
54.3896 0 1
54.5057 0 1
54.6217 0 1
54.7377 0 1
54.8537 0 1
54.9695 0 1
55.0853 0 1
55.2011 0 1
55.3168 0 1
55.4324 0 1
57.824 0 1
57.9396 0 1
58.0553 0 1
58.1711 0 1
58.2869 0 1
58.4028 0 1
58.5187 0 1
58.6347 0 1
58.7508 0 1
58.8669 0 1
58.983 96875 311.247
59.0992 122604 350.149
59.2155 140005 374.172
59.3318 153582 391.895
59.4482 163684 404.579
59.5646 171577 414.219
59.681 177170 420.916
59.7975 180545 424.906
59.9141 179499 423.673
60.0306 176985 420.696
60.1473 173019 415.956
60.2639 167666 409.47
60.3807 160913 401.14
60.4974 153778 392.145
60.6142 145651 381.643
60.731 137404 370.68
60.8479 128227 358.088
60.9648 119700 345.977
61.0818 113241 336.513
61.1987 105105 324.199
61.3158 95062 308.321
61.4328 83601 289.138
61.5499 70650 265.801
61.667 57736 240.283
61.7841 45432 213.148
61.9013 36670 191.494
62.0185 31457 177.361
62.1357 28706 169.428
62.253 27923 167.102
62.3702 27181 164.867
62.4875 25274 158.978
62.6049 23260 152.512
62.7222 20518 143.241
62.8396 17496 132.272
62.9569 14742 121.417
63.0743 12561 112.076
63.1918 10379 101.877
63.3092 8530 92.358
63.4267 7128 84.4275
63.5441 5637 75.08
63.6616 4114 64.1405
63.7791 3033 55.0727
63.8966 2228 47.2017
64.0142 1695 41.1704
64.1317 1356 36.8239
64.2492 1102 33.1964
64.3668 965 31.0644
64.4843 770 27.7489
64.6019 729 27
64.7195 685 26.1725
64.837 720 26.8328
64.9546 650 25.4951
65.0722 595 24.3926
65.1898 626 25.02
65.3074 575 23.9792
65.4249 600 24.4949
65.5425 567 23.8118
65.6601 582 24.1247
65.7777 514 22.6716
65.8952 539 23.2164
66.0128 578 24.0416
66.1304 597 24.4336
66.2479 573 23.9374
66.3655 576 24
66.483 652 25.5343
66.6005 613 24.7588
66.718 638 25.2587
66.8355 699 26.4386
66.953 734 27.0924
67.0705 740 27.2029
67.1879 759 27.55
67.3054 811 28.4781
67.4228 752 27.4226
67.5402 750 27.3861
67.6576 744 27.2764
67.7749 658 25.6515
67.8923 766 27.6767
68.0096 733 27.074
68.1269 718 26.7955
68.2442 708 26.6083
68.3614 682 26.1151
68.4787 650 25.4951
68.5958 599 24.4745
68.713 612 24.7386
68.8302 574 23.9583
68.9473 555 23.5584
69.0643 533 23.0868
69.1814 578 24.0416
69.2984 512 22.6274
69.4154 526 22.9347
69.5323 519 22.7816
69.6492 517 22.7376
69.7661 558 23.622
69.8829 551 23.4734
69.9997 496 22.2711
70.1165 530 23.0217
70.2332 555 23.5584
70.3499 512 22.6274
70.4665 520 22.8035
70.5831 505 22.4722
70.6996 505 22.4722
70.8161 470 21.6795
70.9326 426 20.6398
71.049 426 20.6398
71.1653 364 19.0788
71.2817 327 18.0831
71.3979 324 18
71.5141 322 17.9444
71.6303 268 16.3707
71.7464 296 17.2047
71.8624 0 1
71.9784 0 1
72.0944 0 1
72.2102 0 1
72.3261 0 1
72.4418 0 1
72.5575 0 1
72.6732 0 1
75.1054 0 1
75.2209 0 1
75.3365 0 1
75.4521 0 1
75.5678 0 1
75.6835 0 1
75.7993 0 1
75.9151 0 1
76.031 0 1
76.147 443 21.0476
76.263 449 21.1896
76.3791 477 21.8403
76.4952 489 22.1133
76.6113 510 22.5832
76.7276 509 22.561
76.8438 537 23.1733
76.9601 533 23.0868
77.0765 541 23.2594
77.1929 500 22.3607
77.3093 509 22.561
77.4258 596 24.4131
77.5423 534 23.1084
77.6589 523 22.8692
77.7755 496 22.2711
77.8921 513 22.6495
78.0088 477 21.8403
78.1256 481 21.9317
78.2423 454 21.3073
78.3591 497 22.2935
78.4759 483 21.9773
78.5928 503 22.4277
78.7097 475 21.7945
78.8266 479 21.8861
78.9436 469 21.6564
79.0606 520 22.8035
79.1776 540 23.2379
79.2946 505 22.4722
79.4117 527 22.9565
79.5288 514 22.6716
79.6459 562 23.7065
79.7631 539 23.2164
79.8802 560 23.6643
79.9974 493 22.2036
80.1147 502 22.4054
80.2319 577 24.0208
80.3491 537 23.1733
80.4664 540 23.2379
80.5837 545 23.3452
80.701 548 23.4094
80.8183 522 22.8473
80.9357 536 23.1517
81.053 527 22.9565
81.1704 544 23.3238
81.2877 505 22.4722
81.4051 474 21.7715
81.5225 524 22.891
81.6399 504 22.4499
81.7573 456 21.3542
81.8747 484 22
81.9922 473 21.7486
82.1096 490 22.1359
82.227 508 22.5389
82.3444 488 22.0907
82.4619 477 21.8403
82.5793 480 21.9089
82.6967 499 22.3383
82.8142 547 23.388
82.9316 554 23.5372
83.049 553 23.516
83.1664 580 24.0832
83.2838 563 23.7276
83.4012 577 24.0208
83.5186 532 23.0651
83.636 543 23.3024
83.7534 552 23.4947
83.8708 542 23.2809
83.9881 571 23.8956
84.1055 536 23.1517
84.2228 585 24.1868
84.3401 548 23.4094
84.4575 542 23.2809
84.5747 559 23.6432
84.692 482 21.9545
84.8093 528 22.9783
84.9265 529 23
85.0437 543 23.3024
85.1609 503 22.4277
85.2781 503 22.4277
85.3952 460 21.4476
85.5123 546 23.3666
85.6294 580 24.0832
85.7465 560 23.6643
85.8636 582 24.1247
85.9806 484 22
86.0976 524 22.891
86.2145 488 22.0907
86.3315 530 23.0217
86.4484 551 23.4734
86.5652 547 23.388
86.682 612 24.7386
86.7988 551 23.4734
86.9156 561 23.6854
87.0323 561 23.6854
87.149 512 22.6274
87.2657 484 22
87.3823 516 22.7156
87.4988 500 22.3607
87.6154 531 23.0434
87.7318 524 22.891
87.8483 485 22.0227
87.9647 461 21.4709
88.081 393 19.8242
88.1973 394 19.8494
88.3136 378 19.4422
88.4298 324 18
88.546 317 17.8045
88.6621 302 17.3781
88.7781 240 15.4919
88.8942 0 1
89.0101 0 1
89.126 0 1
89.2419 0 1
89.3577 0 1
89.4734 0 1
89.5891 0 1
89.7047 0 1
89.8203 0 1
89.9358 0 1
92.3269 0 1
92.4424 0 1
92.558 0 1
92.6736 0 1
92.7893 0 1
92.905 0 1
93.0208 0 1
93.1366 0 1
93.2525 0 1
93.3685 0 1
93.4845 0 1
93.6005 400 20
93.7167 418 20.445
93.8328 484 22
93.949 504 22.4499
94.0653 522 22.8473
94.1816 484 22
94.2979 501 22.383
94.4143 506 22.4944
94.5307 474 21.7715
94.6472 519 22.7816
94.7637 528 22.9783
94.8803 538 23.1948
94.9969 550 23.4521
95.1135 551 23.4734
95.2302 569 23.8537
95.3469 508 22.5389
95.4637 555 23.5584
95.5805 587 24.2281
95.6973 599 24.4745
95.8142 548 23.4094
95.9311 541 23.2594
96.048 572 23.9165
96.1649 544 23.3238
96.2819 515 22.6936
96.3989 583 24.1454
96.516 558 23.622
96.633 574 23.9583
96.7501 615 24.7992
96.8673 612 24.7386
96.9844 535 23.1301
97.1016 560 23.6643
97.2188 541 23.2594
97.336 501 22.383
97.4532 510 22.5832
97.5704 515 22.6936
97.6877 470 21.6795
97.805 506 22.4944
97.9223 525 22.9129
98.0396 546 23.3666
98.1569 545 23.3452
98.2743 555 23.5584
98.3916 545 23.3452
98.509 599 24.4745
98.6264 537 23.1733
98.7438 581 24.1039
98.8612 572 23.9165
98.9786 574 23.9583
99.096 606 24.6171
99.2134 586 24.2074
99.3308 608 24.6577
99.4482 597 24.4336
99.5656 606 24.6171
99.6831 618 24.8596
99.8005 553 23.516
99.9179 641 25.318
100.035 564 23.7487
100.153 597 24.4336
100.27 612 24.7386
100.388 612 24.7386
100.505 620 24.8998
100.622 589 24.2693
100.74 625 25
100.857 580 24.0832
100.975 592 24.3311
101.092 538 23.1948
101.209 538 23.1948
101.327 524 22.891
101.444 532 23.0651
101.561 557 23.6008
101.679 544 23.3238
101.796 598 24.454
101.913 596 24.4131
102.03 588 24.2487
102.148 659 25.671
102.265 642 25.3377
102.382 643 25.3574
102.499 629 25.0799
102.616 634 25.1794
102.733 657 25.632
102.851 719 26.8142
102.968 691 26.2869
103.085 627 25.04
103.202 684 26.1534
103.319 664 25.7682
103.436 638 25.2587
103.552 664 25.7682
103.669 662 25.7294
103.786 718 26.7955
103.903 709 26.6271
104.02 721 26.8514
104.137 642 25.3377
104.253 696 26.3818
104.37 654 25.5734
104.487 677 26.0192
104.603 641 25.318
104.72 628 25.0599
104.836 580 24.0832
104.953 629 25.0799
105.069 569 23.8537
105.186 551 23.4734
105.302 544 23.3238
105.418 537 23.1733
105.535 507 22.5167
105.651 462 21.4942
105.767 393 19.8242
105.883 399 19.975
105.999 338 18.3848
106.115 0 1
106.231 0 1
106.347 0 1
106.463 0 1
106.579 0 1
106.694 0 1
106.81 0 1
106.926 0 1
107.041 0 1
107.157 0 1
109.576 0 1
109.692 0 1
109.807 0 1
109.923 0 1
110.039 0 1
110.155 0 1
110.27 0 1
110.386 0 1
110.502 0 1
110.618 365 19.105
110.735 413 20.3224
110.851 476 21.8174
110.967 525 22.9129
111.083 513 22.6495
111.199 581 24.1039
111.316 561 23.6854
111.432 582 24.1247
111.549 622 24.9399
111.665 639 25.2784
111.782 638 25.2587
111.898 640 25.2982
112.015 609 24.6779
112.132 611 24.7184
112.248 647 25.4362
112.365 707 26.5895
112.482 719 26.8142
112.599 718 26.7955
112.716 761 27.5862
112.832 698 26.4197
112.949 700 26.4575
113.066 758 27.5318
113.183 722 26.8701
113.3 752 27.4226
113.417 755 27.4773
113.534 744 27.2764
113.652 727 26.9629
113.769 791 28.1247
113.886 776 27.8568
114.003 782 27.9643
114.12 782 27.9643
114.238 869 29.4788
114.355 944 30.7246
114.472 878 29.6311
114.589 889 29.8161
114.707 841 29
114.824 863 29.3769
114.942 733 27.074
115.059 701 26.4764
115.176 705 26.5518
115.294 616 24.8193
115.411 593 24.3516
115.529 628 25.0599
115.646 632 25.1396
115.764 616 24.8193
115.881 582 24.1247
115.999 527 22.9565
116.116 560 23.6643
116.234 524 22.891
116.351 478 21.8632
116.469 546 23.3666
116.586 522 22.8473
116.704 498 22.3159
116.821 506 22.4944
116.939 491 22.1585
117.056 443 21.0476
117.174 428 20.6882
117.291 421 20.5183
117.409 449 21.1896
117.526 479 21.8861
117.644 467 21.6102
117.761 478 21.8632
117.879 495 22.2486
117.996 505 22.4722
118.114 476 21.8174
118.231 507 22.5167
118.349 521 22.8254
118.466 517 22.7376
118.584 548 23.4094
118.701 525 22.9129
118.819 508 22.5389
118.936 466 21.587
119.053 474 21.7715
119.171 469 21.6564
119.288 499 22.3383
119.405 490 22.1359
119.523 558 23.622
119.64 543 23.3024
119.757 504 22.4499
119.875 520 22.8035
119.992 487 22.0681
120.109 481 21.9317
120.226 497 22.2935
120.343 473 21.7486
120.46 455 21.3307
120.578 477 21.8403
120.695 443 21.0476
120.812 403 20.0749
120.929 400 20
121.046 412 20.2978
121.163 427 20.664
121.279 419 20.4695
121.396 420 20.4939
121.513 456 21.3542
121.63 426 20.6398
121.747 404 20.0998
121.863 468 21.6333
121.98 444 21.0713
122.097 393 19.8242
122.213 387 19.6723
122.33 417 20.4206
122.446 369 19.2094
122.563 344 18.5472
122.679 278 16.6733
122.795 311 17.6352
122.912 298 17.2627
123.028 287 16.9411
123.144 244 15.6205
123.26 274 16.5529
123.377 0 1
123.493 0 1
123.609 0 1
123.725 0 1
123.84 0 1
123.956 0 1
124.072 0 1
124.188 0 1
124.303 0 1
124.419 0 1
126.852 0 1
126.968 0 1
127.083 0 1
127.199 0 1
127.315 0 1
127.431 0 1
127.547 0 1
127.663 0 1
127.779 0 1
127.895 0 1
128.011 0 1
128.127 0 1
128.243 0 1
128.359 516 22.7156
128.476 542 23.2809
128.592 547 23.388
128.708 561 23.6854
128.825 601 24.5153
128.941 567 23.8118
129.058 592 24.3311
129.174 578 24.0416
129.291 547 23.388
129.408 530 23.0217
129.524 536 23.1517
129.641 499 22.3383
129.758 523 22.8692
129.875 532 23.0651
129.992 523 22.8692
130.108 491 22.1585
130.225 464 21.5407
130.342 510 22.5832
130.459 518 22.7596
130.576 617 24.8395
130.693 626 25.02
130.81 655 25.593
130.928 612 24.7386
131.045 624 24.98
131.162 684 26.1534
131.279 703 26.5141
131.396 747 27.3313
131.513 819 28.6182
131.631 741 27.2213
131.748 784 28
131.865 847 29.1033
131.983 924 30.3974
132.1 969 31.1288
132.217 1000 31.6228
132.335 1068 32.6803
132.452 1123 33.5112
132.57 1066 32.6497
132.687 1133 33.6601
132.804 1171 34.2199
132.922 1166 34.1467
133.039 1179 34.3366
133.157 1169 34.1906
133.274 1207 34.7419
133.392 1164 34.1174
133.509 1163 34.1028
133.627 1166 34.1467
133.744 1145 33.8378
133.862 1145 33.8378
133.979 1134 33.6749
134.097 1211 34.7994
134.214 1241 35.2278
134.332 1306 36.1386
134.449 1207 34.7419
134.567 1169 34.1906
134.684 1175 34.2783
134.802 1259 35.4824
134.919 1182 34.3802
135.037 1212 34.8138
135.154 1162 34.0881
135.272 1082 32.8938
135.389 1111 33.3317
135.507 1195 34.5688
135.624 1306 36.1386
135.742 1314 36.2491
135.859 1314 36.2491
135.977 1378 37.1214
136.094 1260 35.4965
136.211 1325 36.4005
136.329 1287 35.8748
136.446 1334 36.524
136.564 1303 36.0971
136.681 1295 35.9861
136.798 1223 34.9714
136.915 1304 36.1109
137.033 1292 35.9444
137.15 1232 35.0999
137.267 1240 35.2136
137.384 1189 34.4819
137.502 1190 34.4964
137.619 1247 35.3129
137.736 1205 34.7131
137.853 1227 35.0286
137.97 1278 35.7491
138.087 1249 35.3412
138.204 1328 36.4417
138.321 1275 35.7071
138.438 1311 36.2077
138.555 1267 35.5949
138.672 1287 35.8748
138.788 1276 35.7211
138.905 1192 34.5254
139.022 1151 33.9264
139.139 1259 35.4824
139.255 1194 34.5543
139.372 1265 35.5668
139.488 1193 34.5398
139.605 1150 33.9116
139.721 1024 32
139.838 985 31.3847
139.954 948 30.7896
140.071 879 29.6479
140.187 826 28.7402
140.303 884 29.7321
140.419 790 28.1069
140.535 720 26.8328
140.652 741 27.2213
140.768 0 1
140.884 0 1
141 0 1
141.115 0 1
141.231 0 1
141.347 0 1
141.463 0 1
141.578 0 1
141.694 0 1
144.104 0 1
144.219 0 1
144.335 0 1
144.45 0 1
144.566 0 1
144.682 0 1
144.798 0 1
144.914 0 1
145.03 0 1
145.146 1003 31.6702
145.262 1066 32.6497
145.378 1084 32.9242
145.494 1111 33.3317
145.61 1136 33.7046
145.726 1142 33.7935
145.842 1107 33.2716
145.959 1111 33.3317
146.075 1121 33.4813
146.192 1039 32.2335
146.308 997 31.5753
146.425 1033 32.1403
146.541 1073 32.7567
146.658 1092 33.0454
146.774 1094 33.0757
146.891 1150 33.9116
147.008 1131 33.6303
147.125 1054 32.4654
147.241 1110 33.3167
147.358 1144 33.8231
147.475 1122 33.4963
147.592 1074 32.7719
147.709 1088 32.9848
147.826 1008 31.749
147.943 997 31.5753
148.06 1070 32.7109
148.177 1071 32.7261
148.294 1217 34.8855
148.411 1106 33.2566
148.528 1130 33.6155
148.645 1086 32.9545
148.762 1149 33.8969
148.88 1112 33.3467
148.997 1147 33.8674
149.114 1081 32.8786
149.231 1152 33.9411
149.349 1205 34.7131
149.466 1126 33.5559
149.583 1149 33.8969
149.701 1156 34
149.818 1118 33.4365
149.935 1093 33.0606
150.053 1149 33.8969
150.17 1093 33.0606
150.287 1164 34.1174
150.405 1077 32.8177
150.522 1069 32.6956
150.64 1096 33.1059
150.757 1106 33.2566
150.875 1131 33.6303
150.992 1094 33.0757
151.11 1066 32.6497
151.227 1095 33.0908
151.344 1030 32.0936
151.462 1029 32.078
151.579 1005 31.7017
151.697 1008 31.749
151.814 1011 31.7962
151.932 1078 32.8329
152.049 1141 33.7787
152.167 1118 33.4365
152.284 1141 33.7787
152.402 1091 33.0303
152.519 1142 33.7935
152.636 1101 33.1813
152.754 1111 33.3317
152.871 1094 33.0757
152.989 1064 32.619
153.106 990 31.4643
153.223 1061 32.573
153.341 1020 31.9374
153.458 947 30.7734
153.575 965 31.0644
153.693 953 30.8707
153.81 927 30.4467
153.927 929 30.4795
154.044 959 30.9677
154.162 938 30.6268
154.279 884 29.7321
154.396 803 28.3373
154.513 904 30.0666
154.63 946 30.7571
154.747 973 31.1929
154.864 888 29.7993
154.981 870 29.4958
155.098 875 29.5804
155.215 787 28.0535
155.332 851 29.1719
155.449 851 29.1719
155.566 809 28.4429
155.683 910 30.1662
155.8 901 30.0167
155.917 939 30.6431
156.033 853 29.2062
156.15 0 1
156.267 0 1
156.383 0 1
156.5 0 1
156.617 0 1
156.733 0 1
156.85 0 1
156.966 0 1
157.082 0 1
157.199 0 1
157.315 0 1
157.431 0 1
157.547 0 1
157.664 0 1
157.78 0 1
157.896 0 1
158.012 0 1
158.128 0 1
158.244 0 1
158.359 0 1
158.475 0 1
158.591 0 1
158.706 0 1
