
6.15755 0 1
6.2731 0 1
6.3887 0 1
6.50437 0 1
6.62009 0 1
6.73587 0 1
6.8517 0 1
6.96759 0 1
7.08353 0 1
7.19952 0 1
7.31557 0 1
7.43166 0 1
7.54781 0 1
7.664 0 1
7.78024 0 1
7.89653 0 1
8.01286 0 1
8.12924 0 1
8.24567 0 1
8.36213 0 1
8.47864 0 1
8.59519 0 1
8.71178 0 1
8.82841 0 1
8.94508 0 1
9.06179 0 1
9.17853 0 1
9.29531 0 1
9.41212 0 1
9.52897 0 1
9.64584 0 1
9.76276 0 1
9.8797 0 1
9.99667 0 1
10.1137 0 1
10.2307 0 1
10.3478 0 1
10.4648 0 1
10.5819 0 1
10.6991 0 1
10.8162 0 1
10.9334 0 1
11.0506 0 1
11.1678 0 1
11.285 0 1
11.4023 0 1
11.5196 0 1
11.6369 0 1
11.7542 0 1
11.8715 0 1
11.9888 0 1
12.1062 0 1
12.2235 0 1
12.3409 0 1
12.4582 0 1
12.5756 0 1
12.693 0 1
12.8104 0 1
12.9278 0 1
13.0452 0 1
13.1626 0 1
13.28 0 1
13.3974 0 1
13.5149 0 1
13.6323 0 1
13.7497 0 1
13.8671 0 1
13.9845 0 1
14.1019 0 1
14.2193 0 1
14.3367 0 1
14.4541 0 1
14.5714 0 1
14.6888 0 1
14.8062 0 1
14.9235 0 1
15.0408 0 0
15.1581 0 0
15.2755 0 0
15.3927 0 0
15.51 0 0
15.6273 0 0
15.7445 0 0
15.8617 0 0
15.9789 0 0
16.0961 0 0
16.2132 0 0
16.3304 0 0
16.4475 0 0
16.5646 0 0
16.6816 0 0
16.7986 0 0
16.9156 0 0
17.0326 0 0
17.1496 0 0
17.2665 0 0
17.3833 0 0
17.5002 0 0
17.617 0 0
17.7338 0 0
17.8505 0 0
17.9672 0 0
18.0839 0 0
18.2005 0 0
18.3171 0 0
18.4337 0 0
18.5502 0 0
18.6666 0 0
18.7831 0 0
18.8994 0 0
19.0158 0 0
19.1321 0 0
19.2483 0 0
19.3645 0 0
19.4806 0 0
19.5967 0 0
19.7128 0 0
19.8288 0 0
19.9447 0 0
20.0606 0 1
20.1764 0 1
20.2922 0 1
20.4079 0 1
20.5236 0 1
20.6392 0 1
20.7548 0 1
20.8702 0 1
23.3078 0 1
23.4233 0 1
23.539 0 1
23.6547 0 1
23.7704 0 1
23.8862 0 1
24.0021 0 1
24.118 0 1
24.234 0 1
24.35 0 1
24.4661 1687 41.0731
24.5822 1676 40.939
24.6984 1681 41
24.8146 1629 40.3609
24.9309 1716 41.4246
25.0472 1649 40.6079
25.1636 1464 38.2623
25.28 1512 38.8844
25.3965 1479 38.4578
25.513 1523 39.0256
25.6296 1640 40.4969
25.7462 1897 43.5546
25.8628 1876 43.3128
25.9795 1896 43.5431
26.0962 1876 43.3128
26.213 1838 42.8719
26.3298 1832 42.8019
26.4466 1852 43.0349
26.5635 1771 42.0833
26.6804 1869 43.2319
26.7973 1769 42.0595
26.9143 1753 41.8688
27.0313 1754 41.8808
27.1483 1803 42.4617
27.2653 1879 43.3474
27.3824 1891 43.4856
27.4996 1790 42.3084
27.6167 1903 43.6234
27.7339 1830 42.7785
27.8511 1789 42.2966
27.9683 1692 41.1339
28.0855 1730 41.5933
28.2028 1753 41.8688
28.3201 1768 42.0476
28.4374 1701 41.2432
28.5547 1658 40.7185
28.6721 1463 38.2492
28.7894 1457 38.1707
28.9068 1481 38.4838
29.0242 1437 37.9078
29.1416 1466 38.2884
29.259 1649 40.6079
29.3764 1707 41.3159
29.4939 1822 42.6849
29.6113 1793 42.3438
29.7288 1845 42.9535
29.8463 1832 42.8019
29.9638 1683 41.0244
30.0812 1743 41.7493
30.1987 1714 41.4005
30.3162 1653 40.6571
30.4337 1624 40.2989
30.5512 1686 41.0609
30.6687 1745 41.7732
30.7862 1736 41.6653
30.9037 1797 42.391
31.0212 1870 43.2435
31.1387 1828 42.7551
31.2562 1863 43.1625
31.3737 1807 42.5088
31.4912 1796 42.3792
31.6087 1805 42.4853
31.7262 1756 41.9047
31.8436 1724 41.5211
31.9611 1687 41.0731
32.0785 1568 39.598
32.1959 1441 37.9605
32.3134 1444 38
32.4308 1443 37.9868
32.5482 1445 38.0132
32.6655 1584 39.7995
32.7829 1713 41.3884
32.9002 1814 42.5911
33.0176 1718 41.4488
33.1349 1777 42.1545
33.2522 1807 42.5088
33.3694 1754 41.8808
33.4867 1771 42.0833
33.6039 1732 41.6173
33.7211 1641 40.5093
33.8383 1683 41.0244
33.9554 1580 39.7492
34.0725 1522 39.0128
34.1896 1592 39.8999
34.3067 1657 40.7063
34.4237 1796 42.3792
34.5407 1712 41.3763
34.6577 1769 42.0595
34.7746 1823 42.6966
34.8915 1834 42.8252
35.0084 1770 42.0714
35.1252 1796 42.3792
35.242 1784 42.2374
35.3587 1777 42.1545
35.4755 1745 41.7732
35.5921 1760 41.9524
35.7088 1642 40.5216
35.8254 1489 38.5876
35.9419 1423 37.7227
36.0584 1431 37.8286
36.1749 1472 38.3667
36.2913 1464 38.2623
36.4077 1504 38.7814
36.524 1576 39.6989
36.6403 1682 41.0122
36.7565 1723 41.509
36.8727 1770 42.0714
36.9889 1696 41.1825
37.1049 1660 40.7431
37.221 0 1
37.3369 0 1
37.4529 0 1
37.5687 0 1
37.6845 0 1
37.8003 0 1
37.916 0 1
38.0316 0 1
38.1472 0 1
40.5851 0 1
40.7008 0 1
40.8164 0 1
40.9322 0 1
41.048 0 1
41.1639 0 1
41.2798 0 1
41.3958 0 1
41.5118 0 1
41.6279 0 1
41.744 1264 35.5528
41.8602 1394 37.3363
41.9765 1372 37.0405
42.0928 1534 39.1663
42.2091 1465 38.2753
42.3255 1438 37.921
42.4419 1400 37.4166
42.5584 1325 36.4005
42.675 1221 34.9428
42.7915 1227 35.0286
42.9081 1236 35.1568
43.0248 1305 36.1248
43.1415 1352 36.7696
43.2582 1449 38.0657
43.375 1401 37.4299
43.4918 1394 37.3363
43.6087 1467 38.3014
43.7256 1373 37.054
43.8425 1399 37.4032
43.9595 1384 37.2022
44.0765 1379 37.1349
44.1935 1354 36.7967
44.3106 1301 36.0694
44.4277 1282 35.805
44.5448 1208 34.7563
44.6619 1082 32.8938
44.7791 1030 32.0936
44.8963 1086 32.9545
45.0136 1047 32.3574
45.1308 1078 32.8329
45.2481 1171 34.2199
45.3654 1207 34.7419
45.4827 1099 33.1512
45.6001 1203 34.6843
45.7174 1196 34.5832
45.8348 1070 32.7109
45.9522 1118 33.4365
46.0697 1065 32.6343
46.1871 905 30.0832
46.3046 905 30.0832
46.422 905 30.0832
46.5395 952 30.8545
46.657 945 30.7409
46.7745 1048 32.3728
46.892 1078 32.8329
47.0096 1113 33.3617
47.1271 1099 33.1512
47.2446 1062 32.5883
47.3622 1085 32.9393
47.4797 1136 33.7046
47.5973 1073 32.7567
47.7149 1062 32.5883
47.8324 998 31.5911
47.95 1056 32.4962
48.0675 916 30.2655
48.1851 881 29.6816
48.3027 805 28.3725
48.4202 807 28.4077
48.5378 778 27.8927
48.6554 853 29.2062
48.7729 906 30.0998
48.8904 932 30.5287
49.008 971 31.1609
49.1255 980 31.305
49.243 962 31.0161
49.3605 956 30.9192
49.478 869 29.4788
49.5955 801 28.3019
49.713 765 27.6586
49.8304 715 26.7395
49.9479 757 27.5136
50.0653 844 29.0517
50.1827 894 29.8998
50.3001 935 30.5778
50.4175 1036 32.187
50.5348 1139 33.7491
50.6521 1060 32.5576
50.7694 1055 32.4808
50.8867 1083 32.909
51.004 1175 34.2783
51.1212 1123 33.5112
51.2384 1106 33.2566
51.3556 1130 33.6155
51.4727 1126 33.5559
51.5899 1100 33.1662
51.707 1032 32.1248
51.824 1011 31.7962
51.9411 1003 31.6702
52.0581 1104 33.2265
52.175 1221 34.9428
52.2919 1195 34.5688
52.4088 1229 35.0571
52.5257 1255 35.426
52.6425 1297 36.0139
52.7593 1315 36.2629
52.876 1356 36.8239
52.9927 1281 35.7911
53.1094 1157 34.0147
53.226 1192 34.5254
53.3426 1048 32.3728
53.4591 1059 32.5423
53.5756 1118 33.4365
53.692 1270 35.6371
53.8084 1252 35.3836
53.9248 1387 37.2424
54.0411 1421 37.6962
54.1573 1457 38.1707
54.2735 0 1
54.3896 0 1
54.5057 0 1
54.6217 0 1
54.7377 0 1
54.8537 0 1
54.9695 0 1
55.0853 0 1
55.2011 0 1
55.3168 0 1
55.4324 0 1
57.824 0 1
57.9396 0 1
58.0553 0 1
58.1711 0 1
58.2869 0 1
58.4028 0 1
58.5187 0 1
58.6347 0 1
58.7508 0 1
58.8669 0 1
58.983 1444 38
59.0992 1613 40.1622
59.2155 1648 40.5956
59.3318 1629 40.3609
59.4482 1777 42.1545
59.5646 1667 40.8289
59.681 1756 41.9047
59.7975 1684 41.0366
59.9141 1781 42.2019
60.0306 1639 40.4846
60.1473 1533 39.1535
60.2639 1489 38.5876
60.3807 1403 37.4566
60.4974 1412 37.5766
60.6142 1447 38.0395
60.731 1424 37.7359
60.8479 1528 39.0896
60.9648 1503 38.7685
61.0818 1535 39.1791
61.1987 1545 39.3065
61.3158 1549 39.3573
61.4328 1509 38.8458
61.5499 1517 38.9487
61.667 1347 36.7015
61.7841 1352 36.7696
61.9013 1215 34.8569
62.0185 1241 35.2278
62.1357 1360 36.8782
62.253 1487 38.5616
62.3702 1532 39.1408
62.4875 1573 39.6611
62.6049 1684 41.0366
62.7222 1707 41.3159
62.8396 1772 42.0951
62.9569 1910 43.7035
63.0743 1822 42.6849
63.1918 1817 42.6263
63.3092 1855 43.0697
63.4267 1739 41.7013
63.5441 1730 41.5933
63.6616 1613 40.1622
63.7791 1598 39.975
63.8966 1536 39.1918
64.0142 1504 38.7814
64.1317 1665 40.8044
64.2492 1637 40.4599
64.3668 1641 40.5093
64.4843 1594 39.9249
64.6019 1667 40.8289
64.7195 1702 41.2553
64.837 1715 41.4126
64.9546 1688 41.0853
65.0722 1589 39.8623
65.1898 1428 37.7889
65.3074 1388 37.2559
65.4249 1229 35.0571
65.5425 1190 34.4964
65.6601 1305 36.1248
65.7777 1343 36.647
65.8952 1506 38.8072
66.0128 1562 39.5221
66.1304 1711 41.3642
66.2479 1689 41.0974
66.3655 1770 42.0714
66.483 1790 42.3084
66.6005 1718 41.4488
66.718 1796 42.3792
66.8355 1786 42.2611
66.953 1732 41.6173
67.0705 1698 41.2068
67.1879 1596 39.95
67.3054 1462 38.2361
67.4228 1367 36.973
67.5402 1387 37.2424
67.6576 1450 38.0789
67.7749 1420 37.6829
67.8923 1497 38.6911
68.0096 1475 38.4057
68.1269 1467 38.3014
68.2442 1467 38.3014
68.3614 1512 38.8844
68.4787 1481 38.4838
68.5958 1450 38.0789
68.713 1310 36.1939
68.8302 1246 35.2987
68.9473 1135 33.6898
69.0643 1028 32.0624
69.1814 1072 32.7414
69.2984 1169 34.1906
69.4154 1181 34.3657
69.5323 1348 36.7151
69.6492 1371 37.027
69.7661 1506 38.8072
69.8829 1531 39.128
69.9997 1639 40.4846
70.1165 1646 40.5709
70.2332 1683 41.0244
70.3499 1717 41.4367
70.4665 1656 40.694
70.5831 1578 39.724
70.6996 1469 38.3275
70.8161 1470 38.3406
70.9326 1384 37.2022
71.049 1374 37.0675
71.1653 1204 34.6987
71.2817 1200 34.641
71.3979 1252 35.3836
71.5141 1295 35.9861
71.6303 1286 35.8608
71.7464 1208 34.7563
71.8624 0 1
71.9784 0 1
72.0944 0 1
72.2102 0 1
72.3261 0 1
72.4418 0 1
72.5575 0 1
72.6732 0 1
75.1054 0 1
75.2209 0 1
75.3365 0 1
75.4521 0 1
75.5678 0 1
75.6835 0 1
75.7993 0 1
75.9151 0 1
76.031 0 1
76.147 1346 36.6879
76.263 1330 36.4692
76.3791 1259 35.4824
76.4952 1219 34.9142
76.6113 1293 35.9583
76.7276 1309 36.1801
76.8438 1338 36.5787
76.9601 1420 37.6829
77.0765 1412 37.5766
77.1929 1404 37.47
77.3093 1438 37.921
77.4258 1442 37.9737
77.5423 1434 37.8682
77.6589 1354 36.7967
77.7755 1245 35.2846
77.8921 1144 33.8231
78.0088 988 31.4325
78.1256 991 31.4802
78.2423 956 30.9192
78.3591 952 30.8545
78.4759 1155 33.9853
78.5928 1318 36.3043
78.7097 1394 37.3363
78.8266 1415 37.6165
78.9436 1524 39.0384
79.0606 1561 39.5095
79.1776 1620 40.2492
79.2946 1530 39.1152
79.4117 1584 39.7995
79.5288 1502 38.7556
79.6459 1515 38.923
79.7631 1434 37.8682
79.8802 1293 35.9583
79.9974 1273 35.6791
80.1147 1269 35.623
80.2319 1256 35.4401
80.3491 1274 35.6931
80.4664 1293 35.9583
80.5837 1298 36.0278
80.701 1287 35.8748
80.8183 1197 34.5977
80.9357 1270 35.6371
81.053 1355 36.8103
81.1704 1381 37.1618
81.2877 1260 35.4965
81.4051 1149 33.8969
81.5225 939 30.6431
81.6399 901 30.0167
81.7573 794 28.178
81.8747 780 27.9285
81.9922 861 29.3428
82.1096 1060 32.5576
82.227 1147 33.8674
82.3444 1225 35
82.4619 1327 36.428
82.5793 1437 37.9078
82.6967 1391 37.2961
82.8142 1438 37.921
82.9316 1399 37.4032
83.049 1390 37.2827
83.1664 1332 36.4966
83.2838 1233 35.1141
83.4012 1311 36.2077
83.5186 1211 34.7994
83.636 1050 32.4037
83.7534 1055 32.4808
83.8708 1195 34.5688
83.9881 1192 34.5254
84.1055 1145 33.8378
84.2228 1212 34.8138
84.3401 1176 34.2929
84.4575 1202 34.6699
84.5747 1242 35.242
84.692 1297 36.0139
84.8093 1247 35.3129
84.9265 1110 33.3167
85.0437 988 31.4325
85.1609 882 29.6985
85.2781 779 27.9106
85.3952 775 27.8388
85.5123 845 29.0689
85.6294 1004 31.686
85.7465 1239 35.1994
85.8636 1232 35.0999
85.9806 1351 36.756
86.0976 1395 37.3497
86.2145 1446 38.0263
86.3315 1500 38.7298
86.4484 1399 37.4032
86.5652 1507 38.8201
86.682 1514 38.9102
86.7988 1496 38.6782
86.9156 1312 36.2215
87.0323 1362 36.9053
87.149 1361 36.8917
87.2657 1342 36.6333
87.3823 1299 36.0416
87.4988 1313 36.2353
87.6154 1340 36.606
87.7318 1372 37.0405
87.8483 1308 36.1663
87.9647 1329 36.4555
88.081 1438 37.921
88.1973 1430 37.8153
88.3136 1372 37.0405
88.4298 1348 36.7151
88.546 1133 33.6601
88.6621 1002 31.6544
88.7781 1008 31.749
88.8942 0 1
89.0101 0 1
89.126 0 1
89.2419 0 1
89.3577 0 1
89.4734 0 1
89.5891 0 1
89.7047 0 1
89.8203 0 1
89.9358 0 1
92.3269 0 1
92.4424 0 1
92.558 0 1
92.6736 0 1
92.7893 0 1
92.905 0 1
93.0208 0 1
93.1366 0 1
93.2525 0 1
93.3685 0 1
93.4845 0 1
93.6005 1427 37.7757
93.7167 1437 37.9078
93.8328 1372 37.0405
93.949 1334 36.524
94.0653 1147 33.8674
94.1816 998 31.5911
94.2979 907 30.1164
94.4143 942 30.692
94.5307 937 30.6105
94.6472 1018 31.9061
94.7637 1177 34.3074
94.8803 1333 36.5103
94.9969 1443 37.9868
95.1135 1544 39.2938
95.2302 1517 38.9487
95.3469 1650 40.6202
95.4637 1581 39.7618
95.5805 1669 40.8534
95.6973 1687 41.0731
95.8142 1589 39.8623
95.9311 1616 40.1995
96.048 1558 39.4715
96.1649 1463 38.2492
96.2819 1457 38.1707
96.3989 1501 38.7427
96.516 1544 39.2938
96.633 1517 38.9487
96.7501 1549 39.3573
96.8673 1495 38.6652
96.9844 1543 39.281
97.1016 1559 39.4842
97.2188 1474 38.3927
97.336 1672 40.8901
97.4532 1523 39.0256
97.5704 1504 38.7814
97.6877 1315 36.2629
97.805 1178 34.322
97.9223 946 30.7571
98.0396 934 30.5614
98.1569 840 28.9828
98.2743 965 31.0644
98.3916 1140 33.7639
98.509 1444 38
98.6264 1500 38.7298
98.7438 1520 38.9872
98.8612 1634 40.4228
98.9786 1616 40.1995
99.096 1601 40.0125
99.2134 1663 40.7799
99.3308 1728 41.5692
99.4482 1710 41.3521
99.5656 1700 41.2311
99.6831 1620 40.2492
99.8005 1602 40.025
99.9179 1626 40.3237
100.035 1574 39.6737
100.153 1535 39.1791
100.27 1575 39.6863
100.388 1573 39.6611
100.505 1528 39.0896
100.622 1568 39.598
100.74 1484 38.5227
100.857 1594 39.9249
100.975 1621 40.2616
101.092 1610 40.1248
101.209 1439 37.9342
101.327 1227 35.0286
101.444 1057 32.5115
101.561 946 30.7571
101.679 924 30.3974
101.796 996 31.5595
101.913 1119 33.4515
102.03 1390 37.2827
102.148 1579 39.7366
102.265 1562 39.5221
102.382 1760 41.9524
102.499 1720 41.4729
102.616 1782 42.2137
102.733 1779 42.1782
102.851 1776 42.1426
102.968 1846 42.9651
103.085 1812 42.5676
103.202 1710 41.3521
103.319 1749 41.821
103.436 1674 40.9145
103.552 1667 40.8289
103.669 1646 40.5709
103.786 1628 40.3485
103.903 1624 40.2989
104.02 1648 40.5956
104.137 1667 40.8289
104.253 1626 40.3237
104.37 1662 40.7676
104.487 1677 40.9512
104.603 1676 40.939
104.72 1515 38.923
104.836 1235 35.1426
104.953 1093 33.0606
105.069 1031 32.1092
105.186 1012 31.8119
105.302 1090 33.0151
105.418 1242 35.242
105.535 1486 38.5487
105.651 1693 41.1461
105.767 1845 42.9535
105.883 1904 43.6348
105.999 1887 43.4396
106.115 0 1
106.231 0 1
106.347 0 1
106.463 0 1
106.579 0 1
106.694 0 1
106.81 0 1
106.926 0 1
107.041 0 1
107.157 0 1
109.576 0 1
109.692 0 1
109.807 0 1
109.923 0 1
110.039 0 1
110.155 0 1
110.27 0 1
110.386 0 1
110.502 0 1
110.618 1503 38.7685
110.735 1668 40.8412
110.851 1825 42.72
110.967 1794 42.3556
111.083 1747 41.7971
111.199 1838 42.8719
111.316 1841 42.9069
111.432 1844 42.9418
111.549 1773 42.107
111.665 1801 42.4382
111.782 1760 41.9524
111.898 1781 42.2019
112.015 1688 41.0853
112.132 1739 41.7013
112.248 1617 40.2119
112.365 1536 39.1918
112.482 1586 39.8246
112.599 1685 41.0488
112.716 1706 41.3038
112.832 1615 40.1871
112.949 1646 40.5709
113.066 1540 39.2428
113.183 1516 38.9358
113.3 1357 36.8375
113.417 1222 34.9571
113.534 1078 32.8329
113.652 949 30.8058
113.769 901 30.0167
113.886 938 30.6268
114.003 1163 34.1028
114.12 1424 37.7359
114.238 1523 39.0256
114.355 1616 40.1995
114.472 1673 40.9023
114.589 1696 41.1825
114.707 1744 41.7612
114.824 1734 41.6413
114.942 1693 41.1461
115.059 1755 41.8927
115.176 1681 41
115.294 1718 41.4488
115.411 1679 40.9756
115.529 1661 40.7554
115.646 1603 40.0375
115.764 1576 39.6989
115.881 1626 40.3237
115.999 1583 39.7869
116.116 1571 39.6358
116.234 1571 39.6358
116.351 1602 40.025
116.469 1550 39.37
116.586 1579 39.7366
116.704 1509 38.8458
116.821 1483 38.5097
116.939 1294 35.9722
117.056 1154 33.9706
117.174 1068 32.6803
117.291 942 30.692
117.409 936 30.5941
117.526 1122 33.4963
117.644 1323 36.3731
117.761 1465 38.2753
117.879 1586 39.8246
117.996 1607 40.0874
118.114 1704 41.2795
118.231 1701 41.2432
118.349 1728 41.5692
118.466 1738 41.6893
118.584 1695 41.1704
118.701 1707 41.3159
118.819 1742 41.7373
118.936 1665 40.8044
119.053 1747 41.7971
119.171 1634 40.4228
119.288 1557 39.4588
119.405 1582 39.7744
119.523 1561 39.5095
119.64 1596 39.95
119.757 1494 38.6523
119.875 1498 38.704
119.992 1549 39.3573
120.109 1537 39.2046
120.226 1490 38.6005
120.343 1515 38.923
120.46 1465 38.2753
120.578 1299 36.0416
120.695 1198 34.6121
120.812 1073 32.7567
120.929 1024 32
121.046 1022 31.9687
121.163 1007 31.7333
121.279 1155 33.9853
121.396 1283 35.819
121.513 1454 38.1314
121.63 1602 40.025
121.747 1590 39.8748
121.863 1643 40.5339
121.98 1556 39.4462
122.097 1683 41.0244
122.213 1652 40.6448
122.33 1597 39.9625
122.446 1591 39.8873
122.563 1685 41.0488
122.679 1568 39.598
122.795 1581 39.7618
122.912 1530 39.1152
123.028 1539 39.2301
123.144 1522 39.0128
123.26 1488 38.5746
123.377 0 1
123.493 0 1
123.609 0 1
123.725 0 1
123.84 0 1
123.956 0 1
124.072 0 1
124.188 0 1
124.303 0 1
124.419 0 1
126.852 0 1
126.968 0 1
127.083 0 1
127.199 0 1
127.315 0 1
127.431 0 1
127.547 0 1
127.663 0 1
127.779 0 1
127.895 0 1
128.011 0 1
128.127 0 1
128.243 0 1
128.359 1845 42.9535
128.476 1795 42.3674
128.592 1723 41.509
128.708 1728 41.5692
128.825 1681 41
128.941 1730 41.5933
129.058 1655 40.6817
129.174 1755 41.8927
129.291 1674 40.9145
129.408 1589 39.8623
129.524 1498 38.704
129.641 1321 36.3456
129.758 1181 34.3657
129.875 1137 33.7194
129.992 1107 33.2716
130.108 1220 34.9285
130.225 1306 36.1386
130.342 1390 37.2827
130.459 1576 39.6989
130.576 1652 40.6448
130.693 1683 41.0244
130.81 1713 41.3884
130.928 1751 41.845
131.045 1761 41.9643
131.162 1893 43.5086
131.279 1823 42.6966
131.396 1781 42.2019
131.513 1740 41.7133
131.631 1807 42.5088
131.748 1804 42.4735
131.865 1817 42.6263
131.983 1709 41.3401
132.1 1774 42.1189
132.217 1733 41.6293
132.335 1741 41.7253
132.452 1731 41.6053
132.57 1682 41.0122
132.687 1701 41.2432
132.804 1756 41.9047
132.922 1571 39.6358
133.039 1572 39.6485
133.157 1344 36.6606
133.274 1267 35.5949
133.392 1171 34.2199
133.509 1143 33.8083
133.627 1048 32.3728
133.744 1169 34.1906
133.862 1285 35.8469
133.979 1479 38.4578
134.097 1549 39.3573
134.214 1566 39.5727
134.332 1672 40.8901
134.449 1649 40.6079
134.567 1894 43.5201
134.684 1785 42.2493
134.802 1805 42.4853
134.919 1753 41.8688
135.037 1760 41.9524
135.154 1772 42.0951
135.272 1792 42.332
135.389 1756 41.9047
135.507 1836 42.8486
135.624 1738 41.6893
135.742 1794 42.3556
135.859 1728 41.5692
135.977 1705 41.2916
136.094 1735 41.6533
136.211 1758 41.9285
136.329 1627 40.3361
136.446 1633 40.4104
136.564 1654 40.6694
136.681 1442 37.9737
136.798 1411 37.5633
136.915 1296 36
137.033 1201 34.6554
137.15 1148 33.8821
137.267 1097 33.121
137.384 1231 35.0856
137.502 1388 37.2559
137.619 1442 37.9737
137.736 1430 37.8153
137.853 1493 38.6394
137.97 1638 40.4722
138.087 1768 42.0476
138.204 1801 42.4382
138.321 1818 42.638
138.438 1933 43.9659
138.555 1831 42.7902
138.672 1882 43.382
138.788 1798 42.4028
138.905 1755 41.8927
139.022 1883 43.3935
139.139 1872 43.2666
139.255 1843 42.9302
139.372 1838 42.8719
139.488 1801 42.4382
139.605 1870 43.2435
139.721 1775 42.1307
139.838 1847 42.9767
139.954 1762 41.9762
140.071 1747 41.7971
140.187 1670 40.8656
140.303 1561 39.5095
140.419 1488 38.5746
140.535 1365 36.9459
140.652 1252 35.3836
140.768 0 1
140.884 0 1
141 0 1
141.115 0 1
141.231 0 1
141.347 0 1
141.463 0 1
141.578 0 1
141.694 0 1
144.104 0 1
144.219 0 1
144.335 0 1
144.45 0 1
144.566 0 1
144.682 0 1
144.798 0 1
144.914 0 1
145.03 0 1
145.146 1234 35.1283
145.262 1345 36.6742
145.378 1258 35.4683
145.494 1122 33.4963
145.61 1116 33.4066
145.726 1018 31.9061
145.842 1009 31.7648
145.959 927 30.4467
146.075 859 29.3087
146.192 903 30.05
146.308 986 31.4006
146.425 993 31.5119
146.541 1055 32.4808
146.658 1224 34.9857
146.774 1266 35.5809
146.891 1360 36.8782
147.008 1375 37.081
147.125 1437 37.9078
147.241 1436 37.8946
147.358 1408 37.5233
147.475 1457 38.1707
147.592 1531 39.128
147.709 1367 36.973
147.826 1457 38.1707
147.943 1379 37.1349
148.06 1390 37.2827
148.177 1425 37.7492
148.294 1420 37.6829
148.411 1449 38.0657
148.528 1363 36.9188
148.645 1351 36.756
148.762 1334 36.524
148.88 1339 36.5923
148.997 1319 36.318
149.114 1322 36.3593
149.231 1235 35.1426
149.349 1208 34.7563
149.466 1144 33.8231
149.583 1033 32.1403
149.701 1008 31.749
149.818 887 29.7825
149.935 900 30
150.053 944 30.7246
150.17 984 31.3688
150.287 1103 33.2114
150.405 1193 34.5398
150.522 1272 35.6651
150.64 1283 35.819
150.757 1326 36.4143
150.875 1391 37.2961
150.992 1494 38.6523
151.11 1425 37.7492
151.227 1365 36.9459
151.344 1431 37.8286
151.462 1404 37.47
151.579 1441 37.9605
151.697 1377 37.108
151.814 1318 36.3043
151.932 1344 36.6606
152.049 1424 37.7359
152.167 1384 37.2022
152.284 1361 36.8917
152.402 1373 37.054
152.519 1447 38.0395
152.636 1373 37.054
152.754 1430 37.8153
152.871 1287 35.8748
152.989 1177 34.3074
153.106 1104 33.2265
153.223 1093 33.0606
153.341 956 30.9192
153.458 953 30.8707
153.575 994 31.5278
153.693 1067 32.665
153.81 1024 32
153.927 1162 34.0881
154.044 1349 36.7287
154.162 1289 35.9026
154.279 1419 37.6696
154.396 1422 37.7094
154.513 1450 38.0789
154.63 1560 39.4968
154.747 1547 39.3319
154.864 1577 39.7115
154.981 1623 40.2865
155.098 1538 39.2173
155.215 1578 39.724
155.332 1541 39.2556
155.449 1483 38.5097
155.566 1485 38.5357
155.683 1504 38.7814
155.8 1581 39.7618
155.917 1492 38.6264
156.033 1506 38.8072
156.15 0 1
156.267 0 1
156.383 0 1
156.5 0 1
156.617 0 1
156.733 0 1
156.85 0 1
156.966 0 1
157.082 0 1
157.199 0 1
157.315 0 1
157.431 0 1
157.547 0 1
157.664 0 1
157.78 0 1
157.896 0 1
158.012 0 1
158.128 0 1
158.244 0 1
158.359 0 1
158.475 0 1
158.591 0 1
158.706 0 1
