
6.15755 0 1
6.2731 0 1
6.3887 0 1
6.50437 0 1
6.62009 0 1
6.73587 0 1
6.8517 0 1
6.96759 0 1
7.08353 0 1
7.19952 0 1
7.31557 0 1
7.43166 0 1
7.54781 0 1
7.664 0 1
7.78024 0 1
7.89653 0 1
8.01286 0 1
8.12924 0 1
8.24567 0 1
8.36213 0 1
8.47864 0 1
8.59519 0 1
8.71178 0 1
8.82841 0 1
8.94508 0 1
9.06179 0 1
9.17853 0 1
9.29531 0 1
9.41212 0 1
9.52897 0 1
9.64584 0 1
9.76276 0 1
9.8797 0 1
9.99667 0 1
10.1137 0 1
10.2307 0 1
10.3478 0 1
10.4648 0 1
10.5819 0 1
10.6991 0 1
10.8162 0 1
10.9334 0 1
11.0506 0 1
11.1678 0 1
11.285 0 1
11.4023 0 1
11.5196 0 1
11.6369 0 1
11.7542 0 1
11.8715 0 1
11.9888 0 1
12.1062 0 1
12.2235 0 1
12.3409 0 1
12.4582 0 1
12.5756 0 1
12.693 0 1
12.8104 0 1
12.9278 0 1
13.0452 0 1
13.1626 0 1
13.28 0 1
13.3974 0 1
13.5149 0 1
13.6323 0 1
13.7497 0 1
13.8671 0 1
13.9845 0 1
14.1019 0 1
14.2193 0 1
14.3367 0 1
14.4541 0 1
14.5714 0 1
14.6888 0 1
14.8062 0 1
14.9235 0 1
15.0408 0 0
15.1581 0 0
15.2755 0 0
15.3927 0 0
15.51 0 0
15.6273 0 0
15.7445 0 0
15.8617 0 0
15.9789 0 0
16.0961 0 0
16.2132 0 0
16.3304 0 0
16.4475 0 0
16.5646 0 0
16.6816 0 0
16.7986 0 0
16.9156 0 0
17.0326 0 0
17.1496 0 0
17.2665 0 0
17.3833 0 0
17.5002 0 0
17.617 0 0
17.7338 0 0
17.8505 0 0
17.9672 0 0
18.0839 0 0
18.2005 0 0
18.3171 0 0
18.4337 0 0
18.5502 0 0
18.6666 0 0
18.7831 0 0
18.8994 0 0
19.0158 0 0
19.1321 0 0
19.2483 0 0
19.3645 0 0
19.4806 0 0
19.5967 0 0
19.7128 0 0
19.8288 0 0
19.9447 0 0
20.0606 0 1
20.1764 0 1
20.2922 0 1
20.4079 0 1
20.5236 0 1
20.6392 0 1
20.7548 0 1
20.8702 0 1
23.3078 0 1
23.4233 0 1
23.539 0 1
23.6547 0 1
23.7704 0 1
23.8862 0 1
24.0021 0 1
24.118 0 1
24.234 0 1
24.35 0 1
24.4661 1278 35.7491
24.5822 1400 37.4166
24.6984 1600 40
24.8146 1859 43.1161
24.9309 2141 46.2709
25.0472 2321 48.1768
25.1636 2579 50.7839
25.28 2607 51.0588
25.3965 2754 52.4786
25.513 2760 52.5357
25.6296 2821 53.1131
25.7462 2844 53.3292
25.8628 2758 52.5167
25.9795 2744 52.3832
26.0962 2878 53.647
26.213 2883 53.6936
26.3298 2794 52.8583
26.4466 2927 54.1018
26.5635 2831 53.2071
26.6804 2832 53.2165
26.7973 2737 52.3163
26.9143 2777 52.6972
27.0313 2628 51.264
27.1483 2753 52.469
27.2653 2585 50.8429
27.3824 2556 50.5569
27.4996 2414 49.1325
27.6167 2233 47.2546
27.7339 2249 47.4236
27.8511 2377 48.7545
27.9683 2539 50.3885
28.0855 2636 51.342
28.2028 2589 50.8822
28.3201 2645 51.4296
28.4374 2678 51.7494
28.5547 2685 51.817
28.6721 2656 51.5364
28.7894 2536 50.3587
28.9068 2705 52.0096
29.0242 2538 50.3786
29.1416 2692 51.8845
29.259 2692 51.8845
29.3764 2715 52.1057
29.4939 2543 50.4282
29.6113 2449 49.4874
29.7288 2568 50.6754
29.8463 2547 50.4678
29.9638 2449 49.4874
30.0812 2551 50.5074
30.1987 2491 49.9099
30.3162 2584 50.8331
30.4337 2593 50.9215
30.5512 2614 51.1273
30.6687 2606 51.049
30.7862 2684 51.8073
30.9037 2432 49.3153
31.0212 2392 48.9081
31.1387 2460 49.5984
31.2562 2420 49.1935
31.3737 2645 51.4296
31.4912 2598 50.9706
31.6087 2676 51.7301
31.7262 2690 51.8652
31.8436 2728 52.2303
31.9611 2655 51.5267
32.0785 2582 50.8134
32.1959 2547 50.4678
32.3134 2582 50.8134
32.4308 2545 50.448
32.5482 2533 50.3289
32.6655 2500 50
32.7829 2486 49.8598
32.9002 2383 48.816
33.0176 2276 47.7074
33.1349 2234 47.2652
33.2522 2230 47.2229
33.3694 2270 47.6445
33.4867 2291 47.8644
33.6039 2281 47.7598
33.7211 2330 48.2701
33.8383 2496 49.96
33.9554 2427 49.2646
34.0725 2438 49.3761
34.1896 2508 50.0799
34.3067 2538 50.3786
34.4237 2539 50.3885
34.5407 2412 49.1121
34.6577 2349 48.4665
34.7746 2301 47.9687
34.8915 2395 48.9387
35.0084 2406 49.051
35.1252 2651 51.4879
35.242 2620 51.1859
35.3587 2717 52.1249
35.4755 2574 50.7346
35.5921 2533 50.3289
35.7088 2471 49.7092
35.8254 2304 48
35.9419 2324 48.2079
36.0584 2281 47.7598
36.1749 2176 46.6476
36.2913 2119 46.0326
36.4077 2126 46.1086
36.524 1908 43.6807
36.6403 1821 42.6732
36.7565 1666 40.8167
36.8727 1538 39.2173
36.9889 1473 38.3797
37.1049 1408 37.5233
37.221 0 1
37.3369 0 1
37.4529 0 1
37.5687 0 1
37.6845 0 1
37.8003 0 1
37.916 0 1
38.0316 0 1
38.1472 0 1
40.5851 0 1
40.7008 0 1
40.8164 0 1
40.9322 0 1
41.048 0 1
41.1639 0 1
41.2798 0 1
41.3958 0 1
41.5118 0 1
41.6279 0 1
41.744 1951 44.1701
41.8602 2487 49.8698
41.9765 3033 55.0727
42.0928 3295 57.4021
42.2091 3188 56.4624
42.3255 3218 56.7274
42.4419 3267 57.1577
42.5584 3466 58.8727
42.675 3445 58.6941
42.7915 3545 59.5399
42.9081 3635 60.291
43.0248 3618 60.1498
43.1415 3636 60.2993
43.2582 3409 58.3866
43.375 3158 56.1961
43.4918 3380 58.1378
43.6087 3339 57.7841
43.7256 3333 57.7321
43.8425 3340 57.7927
43.9595 3531 59.4222
44.0765 3414 58.4294
44.1935 3408 58.3781
44.3106 3397 58.2838
44.4277 3358 57.9483
44.5448 3221 56.7539
44.6619 3131 55.9553
44.7791 2953 54.3415
44.8963 2792 52.8394
45.0136 2707 52.0288
45.1308 2598 50.9706
45.2481 2409 49.0816
45.3654 2342 48.3942
45.4827 2202 46.9255
45.6001 2183 46.7226
45.7174 2122 46.0652
45.8348 2083 45.6399
45.9522 2089 45.7056
46.0697 2101 45.8367
46.1871 2009 44.8219
46.3046 2145 46.3141
46.422 2234 47.2652
46.5395 2301 47.9687
46.657 2328 48.2494
46.7745 2271 47.655
46.892 2000 44.7214
47.0096 2007 44.7996
47.1271 2081 45.618
47.2446 2097 45.793
47.3622 2063 45.4203
47.4797 2220 47.1169
47.5973 2155 46.422
47.7149 2156 46.4327
47.8324 2154 46.4112
47.95 2102 45.8476
48.0675 2146 46.3249
48.1851 2181 46.7012
48.3027 2053 45.31
48.4202 2070 45.4973
48.5378 1988 44.587
48.6554 1971 44.3959
48.7729 1918 43.795
48.8904 1954 44.2041
49.008 1917 43.7836
49.1255 1870 43.2435
49.243 1873 43.2782
49.3605 1844 42.9418
49.478 1894 43.5201
49.5955 2026 45.0111
49.713 2109 45.9239
49.8304 2152 46.3897
49.9479 2173 46.6154
50.0653 2070 45.4973
50.1827 2118 46.0217
50.3001 1925 43.8748
50.4175 1693 41.1461
50.5348 1607 40.0874
50.6521 1743 41.7493
50.7694 1968 44.3621
50.8867 2021 44.9555
51.004 2137 46.2277
51.1212 2160 46.4758
51.2384 2143 46.2925
51.3556 2086 45.6727
51.4727 2152 46.3897
51.5899 2156 46.4327
51.707 2163 46.5081
51.824 2036 45.1221
51.9411 2144 46.3033
52.0581 2092 45.7384
52.175 2033 45.0888
52.2919 1999 44.7102
52.4088 1895 43.5316
52.5257 1895 43.5316
52.6425 1889 43.4626
52.7593 1878 43.3359
52.876 1928 43.909
52.9927 1890 43.4741
53.1094 1867 43.2088
53.226 1912 43.7264
53.3426 1894 43.5201
53.4591 1897 43.5546
53.5756 1694 41.1582
53.692 1513 38.8973
53.8084 1382 37.1753
53.9248 1209 34.7707
54.0411 1131 33.6303
54.1573 1035 32.1714
54.2735 0 1
54.3896 0 1
54.5057 0 1
54.6217 0 1
54.7377 0 1
54.8537 0 1
54.9695 0 1
55.0853 0 1
55.2011 0 1
55.3168 0 1
55.4324 0 1
57.824 0 1
57.9396 0 1
58.0553 0 1
58.1711 0 1
58.2869 0 1
58.4028 0 1
58.5187 0 1
58.6347 0 1
58.7508 0 1
58.8669 0 1
58.983 1684 41.0366
59.0992 1733 41.6293
59.2155 1750 41.833
59.3318 1881 43.3705
59.4482 2048 45.2548
59.5646 2320 48.1664
59.681 2466 49.6588
59.7975 2398 48.9694
59.9141 2450 49.4975
60.0306 2555 50.547
60.1473 2479 49.7896
60.2639 2494 49.94
60.3807 2604 51.0294
60.4974 2478 49.7795
60.6142 2584 50.8331
60.731 2587 50.8626
60.8479 2474 49.7393
60.9648 2525 50.2494
61.0818 2502 50.02
61.1987 2471 49.7092
61.3158 2461 49.6085
61.4328 2451 49.5076
61.5499 2379 48.775
61.667 2336 48.3322
61.7841 2371 48.6929
61.9013 2381 48.7955
62.0185 2425 49.2443
62.1357 2532 50.319
62.253 2461 49.6085
62.3702 2393 48.9183
62.4875 2320 48.1664
62.6049 2153 46.4004
62.7222 2189 46.7868
62.8396 2310 48.0625
62.9569 2411 49.1019
63.0743 2477 49.7695
63.1918 2617 51.1566
63.3092 2619 51.1762
63.4267 2616 51.1468
63.5441 2612 51.1077
63.6616 2599 50.9804
63.7791 2451 49.5076
63.8966 2592 50.9117
64.0142 2545 50.448
64.1317 2526 50.2593
64.2492 2627 51.2543
64.3668 2526 50.2593
64.4843 2376 48.7442
64.6019 2485 49.8498
64.7195 2490 49.8999
64.837 2341 48.3839
64.9546 2490 49.8999
65.0722 2452 49.5177
65.1898 2397 48.9592
65.3074 2389 48.8774
65.4249 2400 48.9898
65.5425 2457 49.5681
65.6601 2521 50.2096
65.7777 2421 49.2037
65.8952 2410 49.0918
66.0128 2308 48.0416
66.1304 2007 44.7996
66.2479 1985 44.5533
66.3655 2074 45.5412
66.483 2214 47.0532
66.6005 2503 50.03
66.718 2431 49.3052
66.8355 2532 50.319
66.953 2606 51.049
67.0705 2512 50.1199
67.1879 2445 49.4469
67.3054 2588 50.8724
67.4228 2493 49.93
67.5402 2432 49.3153
67.6576 2472 49.7192
67.7749 2420 49.1935
67.8923 2481 49.8096
68.0096 2459 49.5883
68.1269 2497 49.97
68.2442 2406 49.051
68.3614 2415 49.1426
68.4787 2310 48.0625
68.5958 2276 47.7074
68.713 2286 47.8121
68.8302 2247 47.4025
68.9473 2229 47.2123
69.0643 2222 47.1381
69.1814 2341 48.3839
69.2984 2367 48.6518
69.4154 2292 47.8748
69.5323 2319 48.156
69.6492 2173 46.6154
69.7661 2054 45.3211
69.8829 1824 42.7083
69.9997 1901 43.6005
70.1165 2111 45.9456
70.2332 2120 46.0435
70.3499 1961 44.2832
70.4665 1851 43.0232
70.5831 1652 40.6448
70.6996 1652 40.6448
70.8161 1526 39.064
70.9326 1523 39.0256
71.049 1376 37.0945
71.1653 1426 37.7624
71.2817 1323 36.3731
71.3979 1232 35.0999
71.5141 1269 35.623
71.6303 1196 34.5832
71.7464 1130 33.6155
71.8624 0 1
71.9784 0 1
72.0944 0 1
72.2102 0 1
72.3261 0 1
72.4418 0 1
72.5575 0 1
72.6732 0 1
75.1054 0 1
75.2209 0 1
75.3365 0 1
75.4521 0 1
75.5678 0 1
75.6835 0 1
75.7993 0 1
75.9151 0 1
76.031 0 1
76.147 1917 43.7836
76.263 2119 46.0326
76.3791 2105 45.8803
76.4952 2141 46.2709
76.6113 2192 46.8188
76.7276 2156 46.4327
76.8438 2209 47
76.9601 2307 48.0312
77.0765 2315 48.1144
77.1929 2248 47.4131
77.3093 2322 48.1871
77.4258 2291 47.8644
77.5423 2289 47.8435
77.6589 2193 46.8295
77.7755 2226 47.1805
77.8921 2228 47.2017
78.0088 2175 46.6369
78.1256 2175 46.6369
78.2423 2196 46.8615
78.3591 2320 48.1664
78.4759 2361 48.5901
78.5928 2185 46.744
78.7097 2042 45.1885
78.8266 1704 41.2795
78.9436 1544 39.2938
79.0606 1571 39.6358
79.1776 1872 43.2666
79.2946 2211 47.0213
79.4117 2305 48.0104
79.5288 2285 47.8017
79.6459 2251 47.4447
79.7631 2352 48.4974
79.8802 2380 48.7852
79.9974 2400 48.9898
80.1147 2353 48.5077
80.2319 2377 48.7545
80.3491 2273 47.676
80.4664 2477 49.7695
80.5837 2338 48.3529
80.701 2535 50.3488
80.8183 2496 49.96
80.9357 2450 49.4975
81.053 2447 49.4672
81.1704 2487 49.8698
81.2877 2431 49.3052
81.4051 2335 48.3218
81.5225 2309 48.0521
81.6399 2287 47.8226
81.7573 2372 48.7032
81.8747 2463 49.6286
81.9922 2600 50.9902
82.1096 2715 52.1057
82.227 2710 52.0577
82.3444 2520 50.1996
82.4619 2281 47.7598
82.5793 2175 46.6369
82.6967 2157 46.4435
82.8142 2817 53.0754
82.9316 3306 57.4978
83.049 3606 60.05
83.1664 3797 61.6198
83.2838 3881 62.2977
83.4012 4000 63.2456
83.5186 4047 63.616
83.636 4204 64.8383
83.7534 4134 64.2962
83.8708 4219 64.9538
83.9881 4375 66.1438
84.1055 4367 66.0833
84.2228 4407 66.3852
84.3401 4432 66.5733
84.4575 4353 65.9773
84.5747 4499 67.0746
84.692 4316 65.6963
84.8093 4277 65.3988
84.9265 4255 65.2304
85.0437 4286 65.4675
85.1609 4271 65.3529
85.2781 4233 65.0615
85.3952 4331 65.8103
85.5123 4356 66
85.6294 4292 65.5134
85.7465 4113 64.1327
85.8636 3910 62.53
85.9806 3180 56.3915
86.0976 2737 52.3163
86.2145 2851 53.3948
86.3315 3154 56.1605
86.4484 3798 61.6279
86.5652 4060 63.7181
86.682 4185 64.6916
86.7988 4202 64.8228
86.9156 4241 65.123
87.0323 4261 65.2763
87.149 4258 65.2534
87.2657 4235 65.0769
87.3823 4176 64.622
87.4988 4065 63.7574
87.6154 3643 60.3573
87.7318 3322 57.6368
87.8483 3131 55.9553
87.9647 3125 55.9017
88.081 3001 54.7814
88.1973 2920 54.037
88.3136 2763 52.5642
88.4298 2694 51.9038
88.546 2550 50.4975
88.6621 2450 49.4975
88.7781 2358 48.5592
88.8942 0 1
89.0101 0 1
89.126 0 1
89.2419 0 1
89.3577 0 1
89.4734 0 1
89.5891 0 1
89.7047 0 1
89.8203 0 1
89.9358 0 1
92.3269 0 1
92.4424 0 1
92.558 0 1
92.6736 0 1
92.7893 0 1
92.905 0 1
93.0208 0 1
93.1366 0 1
93.2525 0 1
93.3685 0 1
93.4845 0 1
93.6005 4430 66.5582
93.7167 4422 66.4981
93.8328 4358 66.0151
93.949 4427 66.5357
94.0653 4384 66.2118
94.1816 4374 66.1362
94.2979 4362 66.0454
94.4143 4274 65.3758
94.5307 4356 66
94.6472 4283 65.4446
94.7637 4194 64.7611
94.8803 3836 61.9355
94.9969 3394 58.258
95.1135 3124 55.8928
95.2302 3298 57.4282
95.3469 3576 59.7997
95.4637 4204 64.8383
95.5805 4439 66.6258
95.6973 4374 66.1362
95.8142 4535 67.3424
95.9311 4559 67.5204
96.048 4504 67.1118
96.1649 4552 67.4685
96.2819 4620 67.9706
96.3989 4547 67.4314
96.516 4614 67.9264
96.633 4475 66.8954
96.7501 4564 67.5574
96.8673 4548 67.4389
96.9844 4758 68.9783
97.1016 4576 67.6461
97.2188 4661 68.2715
97.336 4629 68.0368
97.4532 4593 67.7717
97.5704 4342 65.8939
97.6877 4495 67.0448
97.805 4469 66.8506
97.9223 4464 66.8132
98.0396 4536 67.3498
98.1569 4499 67.0746
98.2743 4341 65.8863
98.3916 4090 63.9531
98.509 3428 58.5491
98.6264 3096 55.6417
98.7438 3282 57.2887
98.8612 3718 60.9754
98.9786 4185 64.6916
99.096 4122 64.2028
99.2134 4205 64.846
99.3308 3996 63.2139
99.4482 4029 63.4744
99.5656 3936 62.7375
99.6831 3798 61.6279
99.8005 3701 60.8358
99.9179 3678 60.6465
100.035 3596 59.9667
100.153 3490 59.0762
100.27 3532 59.4306
100.388 3401 58.3181
100.505 3433 58.5918
100.622 3293 57.3847
100.74 3399 58.3009
100.857 3294 57.3934
100.975 3126 55.9106
101.092 3102 55.6956
101.209 3156 56.1783
101.327 2965 54.4518
101.444 3047 55.1996
101.561 3067 55.3805
101.679 3020 54.9545
101.796 3045 55.1815
101.913 2969 54.4885
102.03 2678 51.7494
102.148 2484 49.8397
102.265 2295 47.9062
102.382 2456 49.558
102.499 2599 50.9804
102.616 2847 53.3573
102.733 2897 53.8238
102.851 2923 54.0648
102.968 2917 54.0093
103.085 2733 52.2781
103.202 2828 53.1789
103.319 2817 53.0754
103.436 2870 53.5724
103.552 2810 53.0094
103.669 2779 52.7162
103.786 2696 51.923
103.903 2775 52.6783
104.02 2876 53.6284
104.137 2915 53.9907
104.253 2969 54.4885
104.37 2748 52.4214
104.487 2786 52.7826
104.603 2774 52.6688
104.72 2758 52.5167
104.836 2474 49.7393
104.953 2351 48.4871
105.069 2008 44.8107
105.186 1854 43.0581
105.302 1671 40.8779
105.418 1570 39.6232
105.535 1454 38.1314
105.651 1290 35.9166
105.767 1013 31.8277
105.883 872 29.5296
105.999 835 28.8964
106.115 0 1
106.231 0 1
106.347 0 1
106.463 0 1
106.579 0 1
106.694 0 1
106.81 0 1
106.926 0 1
107.041 0 1
107.157 0 1
109.576 0 1
109.692 0 1
109.807 0 1
109.923 0 1
110.039 0 1
110.155 0 1
110.27 0 1
110.386 0 1
110.502 0 1
110.618 2680 51.7687
110.735 2945 54.2679
110.851 2649 51.4684
110.967 2443 49.4267
111.083 2474 49.7393
111.199 2613 51.1175
111.316 2836 53.2541
111.432 2990 54.6809
111.549 3163 56.2406
111.665 3116 55.8211
111.782 3104 55.7136
111.898 3070 55.4076
112.015 3103 55.7046
112.132 2985 54.6352
112.248 3236 56.8859
112.365 3057 55.2901
112.482 3083 55.5248
112.599 3255 57.0526
112.716 3244 56.9561
112.832 3360 57.9655
112.949 3324 57.6541
113.066 3452 58.7537
113.183 3435 58.6089
113.3 3390 58.2237
113.417 3380 58.1378
113.534 3375 58.0948
113.652 3434 58.6003
113.769 3354 57.9137
113.886 3470 58.9067
114.003 3365 58.0086
114.12 3315 57.576
114.238 3205 56.6127
114.355 2965 54.4518
114.472 2583 50.8232
114.589 2643 51.4101
114.707 2641 51.3907
114.824 2964 54.4426
114.942 3119 55.848
115.059 3171 56.3116
115.176 3317 57.5934
115.294 3200 56.5685
115.411 3142 56.0535
115.529 3277 57.2451
115.646 3133 55.9732
115.764 3156 56.1783
115.881 3110 55.7674
115.999 3117 55.8301
116.116 3227 56.8067
116.234 3250 57.0088
116.351 3309 57.5239
116.469 3327 57.6802
116.586 3474 58.9406
116.704 3490 59.0762
116.821 3557 59.6406
116.939 3443 58.6771
117.056 3567 59.7244
117.174 3508 59.2284
117.291 3495 59.1185
117.409 3396 58.2752
117.526 3318 57.6021
117.644 3406 58.3609
117.761 3463 58.8473
117.879 3218 56.7274
117.996 2914 53.9815
118.114 2747 52.4118
118.231 2701 51.9711
118.349 2675 51.7204
118.466 3008 54.8452
118.584 3203 56.5951
118.701 3203 56.5951
118.819 3158 56.1961
118.936 3101 55.6866
119.053 3082 55.5158
119.171 3070 55.4076
119.288 3045 55.1815
119.405 2976 54.5527
119.523 3076 55.4617
119.64 3033 55.0727
119.757 3010 54.8635
119.875 2948 54.2955
119.992 3152 56.1427
120.109 3191 56.4889
120.226 3173 56.3294
120.343 3331 57.7148
120.46 3340 57.7927
120.578 3269 57.1752
120.695 3254 57.0438
120.812 3326 57.6715
120.929 3209 56.648
121.046 3278 57.2538
121.163 3098 55.6597
121.279 3190 56.4801
121.396 3221 56.7539
121.513 2979 54.5802
121.63 2716 52.1153
121.747 2483 49.8297
121.863 2253 47.4658
121.98 2121 46.0543
122.097 2225 47.1699
122.213 2214 47.0532
122.33 2305 48.0104
122.446 2176 46.6476
122.563 2196 46.8615
122.679 2045 45.2217
122.795 2039 45.1553
122.912 1923 43.852
123.028 1898 43.566
123.144 1811 42.5558
123.26 1879 43.3474
123.377 0 1
123.493 0 1
123.609 0 1
123.725 0 1
123.84 0 1
123.956 0 1
124.072 0 1
124.188 0 1
124.303 0 1
124.419 0 1
126.852 0 1
126.968 0 1
127.083 0 1
127.199 0 1
127.315 0 1
127.431 0 1
127.547 0 1
127.663 0 1
127.779 0 1
127.895 0 1
128.011 0 1
128.127 0 1
128.243 0 1
128.359 3701 60.8358
128.476 3603 60.025
128.592 3612 60.0999
128.708 3606 60.05
128.825 3569 59.7411
128.941 3578 59.8164
129.058 3703 60.8523
129.174 3867 62.1852
129.291 3846 62.0161
129.408 4004 63.2772
129.524 4004 63.2772
129.641 4152 64.436
129.758 4309 65.643
129.875 4348 65.9394
129.992 4298 65.5591
130.108 4276 65.3911
130.225 4361 66.0379
130.342 4365 66.0681
130.459 4180 64.6529
130.576 4037 63.5374
130.693 3873 62.2334
130.81 3710 60.9098
130.928 3669 60.5723
131.045 3882 62.3057
131.162 3950 62.849
131.279 4314 65.681
131.396 4179 64.6452
131.513 4135 64.304
131.631 4259 65.261
131.748 4256 65.238
131.865 4192 64.7457
131.983 4089 63.9453
132.1 3969 63
132.217 4042 63.5767
132.335 4067 63.773
132.452 3958 62.9126
132.57 4007 63.3009
132.687 3799 61.636
132.804 4120 64.1872
132.922 4085 63.914
133.039 4173 64.5988
133.157 4283 65.4446
133.274 4225 65
133.392 4315 65.6887
133.509 4369 66.0984
133.627 4533 67.3276
133.744 4703 68.5784
133.862 4512 67.1714
133.979 4648 68.1762
134.097 4411 66.4154
134.214 4357 66.0076
134.332 4147 64.3972
134.449 4240 65.1153
134.567 4184 64.6838
134.684 4463 66.8057
134.802 4463 66.8057
134.919 4436 66.6033
135.037 4561 67.5352
135.154 4445 66.6708
135.272 4416 66.453
135.389 4405 66.3702
135.507 4353 65.9773
135.624 4239 65.1076
135.742 4338 65.8635
135.859 4249 65.1844
135.977 4288 65.4828
136.094 4223 64.9846
136.211 4306 65.6201
136.329 4250 65.192
136.446 4116 64.1561
136.564 4264 65.2993
136.681 4213 64.9076
136.798 4350 65.9545
136.915 4288 65.4828
137.033 4509 67.1491
137.15 4290 65.4981
137.267 4517 67.2086
137.384 4432 66.5733
137.502 4514 67.1863
137.619 4418 66.468
137.736 4255 65.2304
137.853 4166 64.5446
137.97 4161 64.5058
138.087 3897 62.426
138.204 4198 64.792
138.321 4032 63.498
138.438 4251 65.1997
138.555 4411 66.4154
138.672 4289 65.4905
138.788 4254 65.2227
138.905 4182 64.6684
139.022 4001 63.2535
139.139 3850 62.0484
139.255 3756 61.2862
139.372 3431 58.5747
139.488 3284 57.3062
139.605 3278 57.2538
139.721 3275 57.2276
139.838 3107 55.7405
139.954 2938 54.2033
140.071 2929 54.1202
140.187 2907 53.9166
140.303 2882 53.6843
140.419 2941 54.231
140.535 3015 54.909
140.652 3069 55.3986
140.768 0 1
140.884 0 1
141 0 1
141.115 0 1
141.231 0 1
141.347 0 1
141.463 0 1
141.578 0 1
141.694 0 1
144.104 0 1
144.219 0 1
144.335 0 1
144.45 0 1
144.566 0 1
144.682 0 1
144.798 0 1
144.914 0 1
145.03 0 1
145.146 8589 92.6769
145.262 8819 93.9095
145.378 8888 94.2762
145.494 8865 94.1541
145.61 8924 94.4669
145.726 9022 94.9842
145.842 9109 95.4411
145.959 9285 96.3587
146.075 9033 95.0421
146.192 9297 96.421
146.308 8994 94.8367
146.425 8763 93.6109
146.541 7990 89.3868
146.658 7034 83.8689
146.774 6057 77.8267
146.891 5795 76.1249
147.008 6323 79.5173
147.125 7805 88.3459
147.241 8549 92.4608
147.358 8804 93.8296
147.475 8993 94.8314
147.592 9061 95.1893
147.709 8957 94.6414
147.826 9132 95.5615
147.943 8838 94.0106
148.06 9047 95.1157
148.177 8894 94.308
148.294 8918 94.4352
148.411 8756 93.5735
148.528 9123 95.5144
148.645 8959 94.652
148.762 9118 95.4882
148.88 9037 95.0631
148.997 8872 94.1913
149.114 9576 97.857
149.231 9063 95.1998
149.349 9373 96.8143
149.466 9298 96.4261
149.583 9454 97.2317
149.701 9186 95.8436
149.818 9435 97.1339
149.935 9219 96.0156
150.053 9231 96.0781
150.17 8912 94.4034
150.287 7999 89.4371
150.405 6754 82.1827
150.522 6047 77.7625
150.64 6643 81.5046
150.757 7556 86.9253
150.875 8596 92.7146
150.992 9030 95.0263
151.11 8753 93.5575
151.227 8827 93.9521
151.344 8902 94.3504
151.462 8804 93.8296
151.579 8835 93.9947
151.697 9080 95.289
151.814 9054 95.1525
151.932 9013 94.9368
152.049 9008 94.9105
152.167 8983 94.7787
152.284 9101 95.3992
152.402 9200 95.9166
152.519 9110 95.4463
152.636 9279 96.3276
152.754 9269 96.2756
152.871 9374 96.8194
152.989 9365 96.7729
153.106 9332 96.6023
153.223 9281 96.3379
153.341 9550 97.7241
153.458 9630 98.1326
153.575 9660 98.2853
153.693 9507 97.5038
153.81 9188 95.8541
153.927 8048 89.7106
154.044 6835 82.6741
154.162 6327 79.5424
154.279 7049 83.9583
154.396 8145 90.2497
154.513 8877 94.2178
154.63 9277 96.3172
154.747 9459 97.2574
154.864 9148 95.6452
154.981 9414 97.0258
155.098 9090 95.3415
155.215 9106 95.4254
155.332 8660 93.0591
155.449 8561 92.5257
155.566 8494 92.1629
155.683 8317 91.1976
155.8 8143 90.2386
155.917 7884 88.7919
156.033 7890 88.8257
156.15 0 1
156.267 0 1
156.383 0 1
156.5 0 1
156.617 0 1
156.733 0 1
156.85 0 1
156.966 0 1
157.082 0 1
157.199 0 1
157.315 0 1
157.431 0 1
157.547 0 1
157.664 0 1
157.78 0 1
157.896 0 1
158.012 0 1
158.128 0 1
158.244 0 1
158.359 0 1
158.475 0 1
158.591 0 1
158.706 0 1
