
6.15755 0 1
6.2731 0 1
6.3887 0 1
6.50437 0 1
6.62009 0 1
6.73587 0 1
6.8517 0 1
6.96759 0 1
7.08353 0 1
7.19952 0 1
7.31557 0 1
7.43166 0 1
7.54781 0 1
7.664 0 1
7.78024 0 1
7.89653 0 1
8.01286 0 1
8.12924 0 1
8.24567 0 1
8.36213 0 1
8.47864 0 1
8.59519 0 1
8.71178 0 1
8.82841 0 1
8.94508 0 1
9.06179 0 1
9.17853 0 1
9.29531 0 1
9.41212 0 1
9.52897 0 1
9.64584 0 1
9.76276 0 1
9.8797 0 1
9.99667 0 1
10.1137 0 1
10.2307 0 1
10.3478 0 1
10.4648 0 1
10.5819 0 1
10.6991 0 1
10.8162 0 1
10.9334 0 1
11.0506 0 1
11.1678 0 1
11.285 0 1
11.4023 0 1
11.5196 0 1
11.6369 0 1
11.7542 0 1
11.8715 0 1
11.9888 0 1
12.1062 0 1
12.2235 0 1
12.3409 0 1
12.4582 0 1
12.5756 0 1
12.693 0 1
12.8104 0 1
12.9278 0 1
13.0452 0 1
13.1626 0 1
13.28 0 1
13.3974 0 1
13.5149 0 1
13.6323 0 1
13.7497 0 1
13.8671 0 1
13.9845 0 1
14.1019 0 1
14.2193 0 1
14.3367 0 1
14.4541 0 1
14.5714 0 1
14.6888 0 1
14.8062 0 1
14.9235 0 1
15.0408 5504 74.1889
15.1581 5684 75.3923
15.2755 5803 76.1774
15.3927 5961 77.2075
15.51 5694 75.4586
15.6273 5598 74.8198
15.7445 5545 74.4648
15.8617 5608 74.8866
15.9789 5840 76.4199
16.0961 5829 76.3479
16.2132 5967 77.2464
16.3304 6039 77.711
16.4475 6346 79.6618
16.5646 6076 77.9487
16.6816 6457 80.3555
16.7986 6495 80.5916
16.9156 6621 81.3695
17.0326 6634 81.4494
17.1496 6713 81.9329
17.2665 6774 82.3043
17.3833 6801 82.4682
17.5002 6777 82.3225
17.617 6876 82.9216
17.7338 6766 82.2557
17.8505 6643 81.5046
17.9672 6601 81.2465
18.0839 6351 79.6932
18.2005 6490 80.5605
18.3171 6594 81.2034
18.4337 6810 82.5227
18.5502 6835 82.6741
18.6666 7050 83.9643
18.7831 7115 84.3505
18.8994 7029 83.8391
19.0158 6716 81.9512
19.1321 6674 81.6946
19.2483 6392 79.95
19.3645 6366 79.7872
19.4806 6153 78.4411
19.5967 6161 78.492
19.7128 5752 75.8419
19.8288 5291 72.7393
19.9447 4628 68.0294
20.0606 0 1
20.1764 0 1
20.2922 0 1
20.4079 0 1
20.5236 0 1
20.6392 0 1
20.7548 0 1
20.8702 0 1
23.3078 0 1
23.4233 0 1
23.539 0 1
23.6547 0 1
23.7704 0 1
23.8862 0 1
24.0021 0 1
24.118 0 1
24.234 0 1
24.35 0 1
24.4661 3569 59.7411
24.5822 4248 65.1767
24.6984 4899 69.9929
24.8146 5573 74.6525
24.9309 6095 78.0705
25.0472 6459 80.3679
25.1636 6906 83.1023
25.28 7409 86.0755
25.3965 7902 88.8932
25.513 8245 90.802
25.6296 8633 92.9139
25.7462 8826 93.9468
25.8628 8868 94.1701
25.9795 9192 95.8749
26.0962 9112 95.4568
26.213 9316 96.5194
26.3298 9162 95.7183
26.4466 8972 94.7206
26.5635 8924 94.4669
26.6804 9054 95.1525
26.7973 9134 95.572
26.9143 9129 95.5458
27.0313 9307 96.4728
27.1483 9697 98.4733
27.2653 9945 99.7246
27.3824 10037 100.185
27.4996 9883 99.4133
27.6167 9670 98.3362
27.7339 9467 97.2985
27.8511 9372 96.8091
27.9683 9369 96.7936
28.0855 9304 96.4572
28.2028 9381 96.8556
28.3201 9317 96.5246
28.4374 9254 96.1977
28.5547 9088 95.331
28.6721 9066 95.2155
28.7894 8798 93.7977
28.9068 8835 93.9947
29.0242 9233 96.0885
29.1416 9299 96.4313
29.259 9278 96.3224
29.3764 9203 95.9323
29.4939 9485 97.391
29.6113 9460 97.2625
29.7288 9555 97.7497
29.8463 9468 97.3036
29.9638 9379 96.8452
30.0812 9554 97.7446
30.1987 9493 97.432
30.3162 9575 97.8519
30.4337 9778 98.8838
30.5512 9899 99.4937
30.6687 10324 101.607
30.7862 10460 102.274
30.9037 10584 102.879
31.0212 10810 103.971
31.1387 10769 103.774
31.2562 10421 102.083
31.3737 10338 101.676
31.4912 10149 100.742
31.6087 10070 100.349
31.7262 10082 100.409
31.8436 10393 101.946
31.9611 10343 101.701
32.0785 9871 99.3529
32.1959 9796 98.9747
32.3134 9780 98.8939
32.4308 9802 99.0051
32.5482 9887 99.4334
32.6655 10013 100.065
32.7829 10132 100.658
32.9002 10191 100.95
33.0176 10433 102.142
33.1349 10564 102.781
33.2522 10197 100.98
33.3694 10348 101.725
33.4867 10472 102.333
33.6039 10492 102.43
33.7211 10546 102.694
33.8383 10592 102.917
33.9554 10784 103.846
34.0725 10945 104.618
34.1896 11218 105.915
34.3067 11411 106.822
34.4237 11765 108.467
34.5407 12055 109.795
34.6577 12015 109.613
34.7746 12137 110.168
34.8915 12101 110.005
35.0084 11787 108.568
35.1252 11674 108.046
35.242 11307 106.334
35.3587 11690 108.12
35.4755 11836 108.793
35.5921 11834 108.784
35.7088 11449 107
35.8254 11309 106.344
35.9419 10817 104.005
36.0584 10467 102.308
36.1749 10088 100.439
36.2913 9905 99.5239
36.4077 9781 98.8989
36.524 9862 99.3076
36.6403 9714 98.5596
36.7565 9400 96.9536
36.8727 9322 96.5505
36.9889 9081 95.2943
37.1049 8570 92.5743
37.221 0 1
37.3369 0 1
37.4529 0 1
37.5687 0 1
37.6845 0 1
37.8003 0 1
37.916 0 1
38.0316 0 1
38.1472 0 1
40.5851 0 1
40.7008 0 1
40.8164 0 1
40.9322 0 1
41.048 0 1
41.1639 0 1
41.2798 0 1
41.3958 0 1
41.5118 0 1
41.6279 0 1
41.744 6438 80.2371
41.8602 7193 84.8116
41.9765 8166 90.3659
42.0928 9023 94.9895
42.2091 9839 99.1917
42.3255 10578 102.849
42.4419 11575 107.587
42.5584 12201 110.458
42.675 12848 113.349
42.7915 13230 115.022
42.9081 13993 118.292
43.0248 14851 121.865
43.1415 15583 124.832
43.2582 16101 126.89
43.375 16834 129.746
43.4918 17181 131.076
43.6087 17188 131.103
43.7256 17150 130.958
43.8425 17041 130.541
43.9595 16688 129.182
44.0765 16553 128.658
44.1935 16644 129.012
44.3106 17010 130.422
44.4277 17081 130.694
44.5448 16776 129.522
44.6619 15983 126.424
44.7791 15202 123.296
44.8963 14286 119.524
45.0136 13982 118.246
45.1308 14094 118.718
45.2481 13996 118.305
45.3654 14064 118.592
45.4827 14377 119.904
45.6001 15060 122.719
45.7174 15627 125.008
45.8348 16649 129.031
45.9522 17425 132.004
46.0697 17750 133.229
46.1871 18069 134.421
46.3046 18189 134.867
46.422 18098 134.529
46.5395 18663 136.613
46.657 19219 138.633
46.7745 19591 139.968
46.892 20359 142.685
47.0096 20837 144.35
47.1271 20862 144.437
47.2446 20997 144.903
47.3622 20650 143.701
47.4797 20213 142.172
47.5973 19620 140.071
47.7149 19443 139.438
47.8324 20135 141.898
47.95 20423 142.909
48.0675 19632 140.114
48.1851 19064 138.072
48.3027 17470 132.174
48.4202 16218 127.35
48.5378 14890 122.025
48.6554 14505 120.437
48.7729 14283 119.512
48.8904 14280 119.499
49.008 14540 120.582
49.1255 15438 124.25
49.243 16557 128.674
49.3605 17658 132.883
49.478 18487 135.967
49.5955 18758 136.96
49.713 18972 137.739
49.8304 18886 137.426
49.9479 18702 136.755
50.0653 19094 138.181
50.1827 19523 139.725
50.3001 20118 141.838
50.4175 20279 142.404
50.5348 20122 141.852
50.6521 20573 143.433
50.7694 20646 143.687
50.8867 20234 142.246
51.004 19851 140.894
51.1212 19243 138.719
51.2384 19329 139.029
51.3556 18990 137.804
51.4727 19366 139.162
51.5899 19264 138.795
51.707 18489 135.974
51.824 17139 130.916
51.9411 15548 124.692
52.0581 14282 119.507
52.175 13094 114.429
52.2919 13185 114.826
52.4088 13002 114.026
52.5257 13016 114.088
52.6425 13721 117.137
52.7593 14375 119.896
52.876 15097 122.87
52.9927 15298 123.685
53.1094 15281 123.616
53.226 15524 124.595
53.3426 15075 122.78
53.4591 14361 119.837
53.5756 13920 117.983
53.692 13364 115.603
53.8084 12897 113.565
53.9248 12896 113.561
54.0411 11825 108.743
54.1573 11446 106.986
54.2735 0 1
54.3896 0 1
54.5057 0 1
54.6217 0 1
54.7377 0 1
54.8537 0 1
54.9695 0 1
55.0853 0 1
55.2011 0 1
55.3168 0 1
55.4324 0 1
57.824 0 1
57.9396 0 1
58.0553 0 1
58.1711 0 1
58.2869 0 1
58.4028 0 1
58.5187 0 1
58.6347 0 1
58.7508 0 1
58.8669 0 1
58.983 10416 102.059
59.0992 11675 108.051
59.2155 12726 112.81
59.3318 13332 115.464
59.4482 14414 120.058
59.5646 14831 121.783
59.681 15048 122.67
59.7975 15357 123.923
59.9141 15445 124.278
60.0306 15874 125.992
60.1473 16185 127.22
60.2639 16415 128.121
60.3807 16158 127.114
60.4974 15245 123.471
60.6142 14360 119.833
60.731 12720 112.783
60.8479 11410 106.818
60.9648 10657 103.233
61.0818 10183 100.911
61.1987 10249 101.237
61.3158 11151 105.598
61.4328 12184 110.381
61.5499 13618 116.696
61.667 14780 121.573
61.7841 15537 124.648
61.9013 15848 125.889
62.0185 16145 127.063
62.1357 15665 125.16
62.253 15493 124.471
62.3702 15705 125.32
62.4875 15920 126.174
62.6049 16116 126.949
62.7222 16353 127.879
62.8396 16284 127.609
62.9569 16090 126.846
63.0743 16081 126.811
63.1918 15669 125.176
63.3092 15692 125.268
63.4267 15279 123.608
63.5441 15173 123.179
63.6616 15192 123.256
63.7791 15398 124.089
63.8966 14991 122.438
64.0142 13909 117.936
64.1317 12859 113.398
64.2492 11586 107.638
64.3668 10033 100.165
64.4843 9002 94.8789
64.6019 8552 92.477
64.7195 8648 92.9946
64.837 9129 95.5458
64.9546 9889 99.4435
65.0722 11537 107.41
65.1898 12528 111.929
65.3074 13735 117.196
65.4249 14001 118.326
65.5425 14114 118.802
65.6601 14110 118.786
65.7777 13659 116.872
65.8952 13392 115.724
66.0128 13726 117.158
66.1304 14065 118.596
66.2479 14021 118.41
66.3655 14431 120.129
66.483 14500 120.416
66.6005 14440 120.167
66.718 14233 119.302
66.8355 14168 119.029
66.953 13846 117.669
67.0705 13236 115.048
67.1879 13556 116.43
67.3054 13410 115.802
67.4228 13550 116.404
67.5402 13552 116.413
67.6576 12715 112.761
67.7749 11598 107.694
67.8923 10069 100.344
68.0096 8737 93.4719
68.1269 7843 88.5607
68.2442 7450 86.3134
68.3614 7341 85.6796
68.4787 7862 88.6679
68.5958 8827 93.9521
68.713 10002 100.01
68.8302 11409 106.813
68.9473 12558 112.062
69.0643 13095 114.433
69.1814 12957 113.829
69.2984 12803 113.15
69.4154 12166 110.3
69.5323 11937 109.257
69.6492 11438 106.949
69.7661 11383 106.691
69.8829 11441 106.963
69.9997 11434 106.93
70.1165 11286 106.236
70.2332 10997 104.867
70.3499 11057 105.152
70.4665 10433 102.142
70.5831 9825 99.1211
70.6996 9163 95.7236
70.8161 8560 92.5203
70.9326 8252 90.8405
71.049 7997 89.4259
71.1653 7511 86.666
71.2817 6846 82.7406
71.3979 6456 80.3492
71.5141 5397 73.4643
71.6303 4282 65.437
71.7464 2971 54.5069
71.8624 0 1
71.9784 0 1
72.0944 0 1
72.2102 0 1
72.3261 0 1
72.4418 0 1
72.5575 0 1
72.6732 0 1
75.1054 0 1
75.2209 0 1
75.3365 0 1
75.4521 0 1
75.5678 0 1
75.6835 0 1
75.7993 0 1
75.9151 0 1
76.031 0 1
76.147 7647 87.4471
76.263 8422 91.7715
76.3791 8586 92.6607
76.4952 8770 93.6483
76.6113 8592 92.693
76.7276 8393 91.6133
76.8438 7851 88.6059
76.9601 7112 84.3327
77.0765 6572 81.0679
77.1929 6271 79.1896
77.3093 6174 78.5748
77.4258 6268 79.1707
77.5423 6948 83.3547
77.6589 8218 90.6532
77.7755 9601 97.9847
77.8921 10439 102.171
78.0088 11190 105.783
78.1256 11538 107.415
78.2423 11629 107.838
78.3591 10999 104.876
78.4759 10846 104.144
78.5928 10593 102.922
78.7097 10344 101.705
78.8266 10532 102.626
78.9436 11311 106.353
79.0606 11343 106.504
79.1776 11473 107.112
79.2946 11370 106.63
79.4117 11342 106.499
79.5288 11238 106.009
79.6459 11070 105.214
79.7631 10830 104.067
79.8802 11018 104.967
79.9974 10967 104.723
80.1147 11461 107.056
80.2319 11013 104.943
80.3491 10405 102.005
80.4664 9686 98.4175
80.5837 8616 92.8224
80.701 7381 85.9127
80.8183 6633 81.4432
80.9357 6262 79.1328
81.053 6349 79.6806
81.1704 6617 81.3449
81.2877 7702 87.761
81.4051 9018 94.9632
81.5225 10577 102.845
81.6399 11224 105.943
81.7573 11518 107.322
81.8747 11569 107.559
81.9922 11488 107.182
82.1096 11236 106
82.227 10720 103.537
82.3444 10456 102.255
82.4619 10856 104.192
82.5793 11035 105.048
82.6967 11316 106.377
82.8142 11543 107.438
82.9316 11542 107.434
83.049 11324 106.414
83.1664 11225 105.948
83.2838 11060 105.167
83.4012 11176 105.717
83.5186 10841 104.12
83.636 10867 104.245
83.7534 11059 105.162
83.8708 10873 104.274
83.9881 10081 100.404
84.1055 9443 97.1751
84.2228 8866 94.1594
84.3401 7627 87.3327
84.4575 6990 83.6062
84.5747 6619 81.3572
84.692 6781 82.3468
84.8093 7354 85.7555
84.9265 8586 92.6607
85.0437 9810 99.0454
85.1609 10945 104.618
85.2781 11987 109.485
85.3952 12400 111.355
85.5123 12487 111.745
85.6294 12079 109.905
85.7465 12000 109.545
85.8636 12116 110.073
85.9806 11947 109.302
86.0976 12314 110.968
86.2145 12453 111.593
86.3315 12827 113.256
86.4484 12317 110.982
86.5652 12548 112.018
86.682 12175 110.34
86.7988 11887 109.028
86.9156 11398 106.761
87.0323 11158 105.631
87.149 10695 103.417
87.2657 10565 102.786
87.3823 10280 101.39
87.4988 10292 101.449
87.6154 9529 97.6166
87.7318 8843 94.0372
87.8483 7900 88.8819
87.9647 6782 82.3529
88.081 5958 77.1881
88.1973 5440 73.7564
88.3136 5217 72.2288
88.4298 5547 74.4782
88.546 6199 78.7337
88.6621 6992 83.6182
88.7781 7449 86.3076
88.8942 0 1
89.0101 0 1
89.126 0 1
89.2419 0 1
89.3577 0 1
89.4734 0 1
89.5891 0 1
89.7047 0 1
89.8203 0 1
89.9358 0 1
92.3269 0 1
92.4424 0 1
92.558 0 1
92.6736 0 1
92.7893 0 1
92.905 0 1
93.0208 0 1
93.1366 0 1
93.2525 0 1
93.3685 0 1
93.4845 0 1
93.6005 7846 88.5776
93.7167 8676 93.145
93.8328 9430 97.1082
93.949 11049 105.114
94.0653 12889 113.53
94.1816 14626 120.938
94.2979 16350 127.867
94.4143 16962 130.238
94.5307 18279 135.2
94.6472 19042 137.993
94.7637 19571 139.896
94.8803 19710 140.392
94.9969 19546 139.807
95.1135 19265 138.798
95.2302 19630 140.107
95.3469 19925 141.156
95.4637 19914 141.117
95.5805 20060 141.633
95.6973 19635 140.125
95.8142 19634 140.121
95.9311 18816 137.171
96.048 18865 137.35
96.1649 18039 134.309
96.2819 17922 133.873
96.3989 17775 133.323
96.516 17241 131.305
96.633 16741 129.387
96.7501 15386 124.04
96.8673 14381 119.921
96.9844 13657 116.863
97.1016 12694 112.668
97.2188 11940 109.27
97.336 11711 108.217
97.4532 12144 110.2
97.5704 13257 115.139
97.6877 14910 122.107
97.805 17164 131.011
97.9223 19340 139.068
98.0396 21514 146.677
98.1569 22754 150.844
98.2743 23925 154.677
98.3916 24212 155.602
98.509 24863 157.68
98.6264 23955 154.774
98.7438 23923 154.671
98.8612 23414 153.016
98.9786 23647 153.776
99.096 23904 154.609
99.2134 23491 153.268
99.3308 22698 150.659
99.4482 22208 149.023
99.5656 21215 145.654
99.6831 20701 143.878
99.8005 20095 141.757
99.9179 19777 140.631
100.035 19848 140.883
100.153 19329 139.029
100.27 17915 133.847
100.388 16061 126.732
100.505 14425 120.104
100.622 13347 115.529
100.74 12575 112.138
100.857 12184 110.381
100.975 12126 110.118
101.092 12894 113.552
101.209 14448 120.2
101.327 16878 129.915
101.444 19751 140.538
101.561 21812 147.689
101.679 23737 154.068
101.796 24237 155.682
101.913 25011 158.149
102.03 24340 156.013
102.148 23712 153.987
102.265 23694 153.929
102.382 22357 149.523
102.499 22619 150.396
102.616 22382 149.606
102.733 22280 149.265
102.851 21870 147.885
102.968 21598 146.963
103.085 21023 144.993
103.202 20325 142.566
103.319 20031 141.531
103.436 19463 139.51
103.552 19413 139.331
103.669 19321 139
103.786 18736 136.88
103.903 17249 131.335
104.02 15338 123.847
104.137 13335 115.477
104.253 12348 111.122
104.37 11519 107.327
104.487 11267 106.146
104.603 11521 107.336
104.72 12261 110.729
104.836 13624 116.722
104.953 14567 120.694
105.069 15078 122.793
105.186 15402 124.105
105.302 15074 122.776
105.418 14464 120.266
105.535 13528 116.31
105.651 12384 111.283
105.767 11280 106.207
105.883 10075 100.374
105.999 9173 95.7758
106.115 0 1
106.231 0 1
106.347 0 1
106.463 0 1
106.579 0 1
106.694 0 1
106.81 0 1
106.926 0 1
107.041 0 1
107.157 0 1
109.576 0 1
109.692 0 1
109.807 0 1
109.923 0 1
110.039 0 1
110.155 0 1
110.27 0 1
110.386 0 1
110.502 0 1
110.618 11161 105.646
110.735 11861 108.908
110.851 12501 111.808
110.967 13322 115.421
111.083 14459 120.246
111.199 15938 126.246
111.316 16793 129.588
111.432 17693 133.015
111.549 18108 134.566
111.665 18512 136.059
111.782 18363 135.51
111.898 18423 135.731
112.015 18367 135.525
112.132 18258 135.122
112.248 18420 135.72
112.365 18513 136.062
112.482 17820 133.492
112.599 16109 126.921
112.716 13911 117.945
112.832 12253 110.693
112.949 11194 105.802
113.066 10705 103.465
113.183 11060 105.167
113.3 11586 107.638
113.417 12420 111.445
113.534 14900 122.066
113.652 17115 130.824
113.769 18289 135.237
113.886 19385 139.23
114.003 19391 139.252
114.12 19604 140.014
114.238 19295 138.906
114.355 18131 134.651
114.472 18035 134.294
114.589 18029 134.272
114.707 18857 137.321
114.824 19142 138.355
114.942 19119 138.271
115.059 19358 139.133
115.176 19603 140.011
115.294 19449 139.46
115.411 18693 136.722
115.529 18643 136.539
115.646 18072 134.432
115.764 17766 133.289
115.881 17940 133.94
115.999 17710 133.079
116.116 16917 130.065
116.234 15303 123.705
116.351 13603 116.632
116.469 12132 110.145
116.586 11408 106.808
116.704 11009 104.924
116.821 10960 104.69
116.939 11524 107.35
117.056 12837 113.3
117.174 15082 122.809
117.291 16730 129.345
117.409 17979 134.086
117.526 18546 136.184
117.644 18531 136.129
117.761 18805 137.131
117.879 18063 134.399
117.996 17206 131.172
118.114 16976 130.292
118.231 17127 130.87
118.349 17693 133.015
118.466 18188 134.863
118.584 18479 135.937
118.701 18306 135.3
118.819 18122 134.618
118.936 17895 133.772
119.053 17683 132.977
119.171 17116 130.828
119.288 16585 128.783
119.405 16789 129.572
119.523 16751 129.426
119.64 16659 129.07
119.757 16260 127.515
119.875 14808 121.688
119.992 13419 115.84
120.109 12425 111.467
120.226 11459 107.047
120.343 10900 104.403
120.46 10854 104.183
120.578 10927 104.532
120.695 11636 107.87
120.812 12931 113.715
120.929 14458 120.241
121.046 15468 124.37
121.163 15950 126.293
121.279 16199 127.275
121.396 15998 126.483
121.513 15372 123.984
121.63 14736 121.392
121.747 14178 119.071
121.863 13793 117.444
121.98 13755 117.282
122.097 13876 117.796
122.213 13674 116.936
122.33 13371 115.633
122.446 12922 113.675
122.563 12380 111.265
122.679 11604 107.722
122.795 10713 103.504
122.912 10100 100.499
123.028 9507 97.5038
123.144 8679 93.1612
123.26 8054 89.7441
123.377 0 1
123.493 0 1
123.609 0 1
123.725 0 1
123.84 0 1
123.956 0 1
124.072 0 1
124.188 0 1
124.303 0 1
124.419 0 1
126.852 0 1
126.968 0 1
127.083 0 1
127.199 0 1
127.315 0 1
127.431 0 1
127.547 0 1
127.663 0 1
127.779 0 1
127.895 0 1
128.011 0 1
128.127 0 1
128.243 0 1
128.359 15998 126.483
128.476 16589 128.798
128.592 16679 129.147
128.708 17143 130.931
128.825 17184 131.088
128.941 16579 128.759
129.058 15367 123.964
129.174 14386 119.942
129.291 13479 116.099
129.408 13356 115.568
129.524 12931 113.715
129.641 12845 113.336
129.758 13220 114.978
129.875 14207 119.193
129.992 15434 124.234
130.108 16579 128.759
130.225 17290 131.491
130.342 18275 135.185
130.459 17993 134.138
130.576 18282 135.211
130.693 17391 131.875
130.81 17381 131.837
130.928 17076 130.675
131.045 17882 133.724
131.162 17952 133.985
131.279 18402 135.654
131.396 18494 135.993
131.513 18471 135.908
131.631 18258 135.122
131.748 17719 133.113
131.865 17580 132.59
131.983 17102 130.775
132.1 16773 129.511
132.217 16859 129.842
132.335 16751 129.426
132.452 16253 127.487
132.57 15531 124.623
132.687 14507 120.445
132.804 13797 117.461
132.922 13281 115.243
133.039 12761 112.965
133.157 12752 112.925
133.274 12583 112.174
133.392 12925 113.688
133.509 13833 117.614
133.627 14779 121.569
133.744 15701 125.304
133.862 16351 127.871
133.979 16906 130.023
134.097 17166 131.019
134.214 16792 129.584
134.332 16340 127.828
134.449 16324 127.765
134.567 16871 129.888
134.684 17263 131.389
134.802 17215 131.206
134.919 17498 132.28
135.037 17641 132.819
135.154 17645 132.834
135.272 17262 131.385
135.389 16944 130.169
135.507 16657 129.062
135.624 16510 128.491
135.742 16326 127.773
135.859 16394 128.039
135.977 16329 127.785
136.094 15546 124.684
136.211 15424 124.193
136.329 14646 121.021
136.446 13833 117.614
136.564 13706 117.073
136.681 13238 115.057
136.798 13060 114.28
136.915 12766 112.987
137.033 12959 113.838
137.15 13249 115.104
137.267 14161 119
137.384 14950 122.27
137.502 15653 125.112
137.619 16048 126.681
137.736 16256 127.499
137.853 15591 124.864
137.97 15701 125.304
138.087 15298 123.685
138.204 15789 125.654
138.321 16091 126.85
138.438 16050 126.689
138.555 15646 125.084
138.672 15480 124.419
138.788 14970 122.352
138.905 14407 120.029
139.022 14055 118.554
139.139 13472 116.069
139.255 12720 112.783
139.372 11980 109.453
139.488 11657 107.968
139.605 11224 105.943
139.721 10651 103.204
139.838 9946 99.7296
139.954 9105 95.4201
140.071 8195 90.5262
140.187 7525 86.7468
140.303 6983 83.5643
140.419 6380 79.8749
140.535 5790 76.092
140.652 5364 73.2393
140.768 0 1
140.884 0 1
141 0 1
141.115 0 1
141.231 0 1
141.347 0 1
141.463 0 1
141.578 0 1
141.694 0 1
144.104 0 1
144.219 0 1
144.335 0 1
144.45 0 1
144.566 0 1
144.682 0 1
144.798 0 1
144.914 0 1
145.03 0 1
145.146 10344 101.705
145.262 10636 103.131
145.378 10730 103.586
145.494 10527 102.601
145.61 10329 101.632
145.726 10403 101.995
145.842 10322 101.597
145.959 10422 102.088
146.075 10534 102.635
146.192 11073 105.228
146.308 11345 106.513
146.425 11551 107.476
146.541 11984 109.471
146.658 11847 108.844
146.774 11418 106.855
146.891 11802 108.637
147.008 12103 110.014
147.125 12187 110.395
147.241 12321 111
147.358 12828 113.261
147.475 12721 112.787
147.592 12632 112.392
147.709 12459 111.62
147.826 12361 111.18
147.943 11923 109.192
148.06 11887 109.028
148.177 11866 108.931
148.294 12085 109.932
148.411 12352 111.14
148.528 12052 109.782
148.645 11930 109.225
148.762 12140 110.182
148.88 11888 109.032
148.997 12095 109.977
149.114 11685 108.097
149.231 11436 106.939
149.349 11253 106.08
149.466 10870 104.259
149.583 10999 104.876
149.701 10824 104.038
149.818 10846 104.144
149.935 10992 104.843
150.053 11633 107.856
150.17 11905 109.11
150.287 11794 108.6
150.405 11765 108.467
150.522 11833 108.78
150.64 11923 109.192
150.757 12310 110.95
150.875 12732 112.836
150.992 12767 112.991
151.11 12839 113.309
151.227 12693 112.663
151.344 12487 111.745
151.462 12256 110.707
151.579 11975 109.43
151.697 11808 108.665
151.814 11617 107.782
151.932 11758 108.434
152.049 11712 108.222
152.167 11684 108.093
152.284 11871 108.954
152.402 11925 109.202
152.519 11929 109.22
152.636 11853 108.871
152.754 11740 108.351
152.871 11541 107.429
152.989 11163 105.655
153.106 11199 105.825
153.223 10739 103.629
153.341 10889 104.35
153.458 10702 103.45
153.575 10920 104.499
153.693 11013 104.943
153.81 11256 106.094
153.927 11159 105.636
154.044 11231 105.976
154.162 11005 104.905
154.279 11429 106.907
154.396 11663 107.995
154.513 11850 108.858
154.63 12048 109.763
154.747 11973 109.421
154.864 12003 109.558
154.981 11666 108.009
155.098 11447 106.991
155.215 11281 106.212
155.332 11064 105.186
155.449 10778 103.817
155.566 11018 104.967
155.683 10968 104.728
155.8 10874 104.278
155.917 10806 103.952
156.033 10443 102.191
156.15 0 1
156.267 0 1
156.383 0 1
156.5 0 1
156.617 0 1
156.733 0 1
156.85 0 1
156.966 0 1
157.082 0 1
157.199 0 1
157.315 0 1
157.431 0 1
157.547 0 1
157.664 0 1
157.78 0 1
157.896 0 1
158.012 0 1
158.128 0 1
158.244 0 1
158.359 0 1
158.475 0 1
158.591 0 1
158.706 0 1
