
6.15755 0 1
6.2731 0 1
6.3887 0 1
6.50437 0 1
6.62009 0 1
6.73587 0 1
6.8517 0 1
6.96759 0 1
7.08353 0 1
7.19952 0 1
7.31557 0 1
7.43166 0 1
7.54781 0 1
7.664 0 1
7.78024 0 1
7.89653 0 1
8.01286 0 1
8.12924 0 1
8.24567 0 1
8.36213 0 1
8.47864 0 1
8.59519 0 1
8.71178 0 1
8.82841 0 1
8.94508 0 1
9.06179 0 1
9.17853 0 1
9.29531 0 1
9.41212 0 1
9.52897 0 1
9.64584 0 1
9.76276 0 1
9.8797 0 1
9.99667 0 1
10.1137 0 1
10.2307 0 1
10.3478 0 1
10.4648 0 1
10.5819 0 1
10.6991 0 1
10.8162 0 1
10.9334 0 1
11.0506 0 1
11.1678 0 1
11.285 0 1
11.4023 0 1
11.5196 0 1
11.6369 0 1
11.7542 0 1
11.8715 0 1
11.9888 0 1
12.1062 0 1
12.2235 0 1
12.3409 0 1
12.4582 0 1
12.5756 0 1
12.693 0 1
12.8104 0 1
12.9278 0 1
13.0452 0 1
13.1626 0 1
13.28 0 1
13.3974 0 1
13.5149 0 1
13.6323 0 1
13.7497 0 1
13.8671 0 1
13.9845 0 1
14.1019 0 1
14.2193 0 1
14.3367 0 1
14.4541 0 1
14.5714 0 1
14.6888 0 1
14.8062 0 1
14.9235 0 1
15.0408 4818 69.4118
15.1581 5090 71.3442
15.2755 5240 72.3878
15.3927 5296 72.7736
15.51 5049 71.0563
15.6273 5099 71.4073
15.7445 5073 71.225
15.8617 5050 71.0634
15.9789 5111 71.4913
16.0961 5230 72.3187
16.2132 5278 72.6498
16.3304 5251 72.4638
16.4475 5329 73
16.5646 5329 73
16.6816 5294 72.7599
16.7986 5542 74.4446
16.9156 5488 74.081
17.0326 5442 73.7699
17.1496 5416 73.5935
17.2665 5449 73.8173
17.3833 5415 73.5867
17.5002 5281 72.6705
17.617 5635 75.0666
17.7338 5607 74.8799
17.8505 5408 73.5391
17.9672 5509 74.2226
18.0839 5468 73.9459
18.2005 5594 74.793
18.3171 5640 75.0999
18.4337 5750 75.8288
18.5502 5739 75.7562
18.6666 5834 76.3806
18.7831 5924 76.9675
18.8994 5933 77.026
19.0158 5745 75.7958
19.1321 5627 75.0133
19.2483 5330 73.0068
19.3645 5192 72.0555
19.4806 4968 70.484
19.5967 4708 68.6149
19.7128 4519 67.2235
19.8288 4419 66.4756
19.9447 3833 61.9112
20.0606 0 1
20.1764 0 1
20.2922 0 1
20.4079 0 1
20.5236 0 1
20.6392 0 1
20.7548 0 1
20.8702 0 1
23.3078 0 1
23.4233 0 1
23.539 0 1
23.6547 0 1
23.7704 0 1
23.8862 0 1
24.0021 0 1
24.118 0 1
24.234 0 1
24.35 0 1
24.4661 2868 53.5537
24.5822 3262 57.1139
24.6984 3650 60.4152
24.8146 4213 64.9076
24.9309 4609 67.8896
25.0472 4886 69.8999
25.1636 5131 71.631
25.28 5321 72.9452
25.3965 5632 75.0467
25.513 5725 75.6637
25.6296 6091 78.0449
25.7462 5908 76.8635
25.8628 6120 78.2304
25.9795 6184 78.6384
26.0962 6167 78.5302
26.213 6421 80.1311
26.3298 6537 80.8517
26.4466 6454 80.3368
26.5635 6442 80.2621
26.6804 6316 79.4733
26.7973 6265 79.1518
26.9143 6336 79.599
27.0313 6598 81.2281
27.1483 6688 81.7802
27.2653 6713 81.9329
27.3824 6907 83.1084
27.4996 6968 83.4745
27.6167 6827 82.6257
27.7339 6752 82.1706
27.8511 6419 80.1187
27.9683 6543 80.8888
28.0855 6320 79.4984
28.2028 6431 80.1935
28.3201 6408 80.05
28.4374 6475 80.4674
28.5547 6313 79.4544
28.6721 6158 78.4729
28.7894 6021 77.5951
28.9068 5877 76.6616
29.0242 5972 77.2787
29.1416 5855 76.518
29.259 5968 77.2528
29.3764 5829 76.3479
29.4939 5980 77.3305
29.6113 6099 78.0961
29.7288 6071 77.9166
29.8463 6384 79.8999
29.9638 6347 79.6681
30.0812 6189 78.6702
30.1987 6302 79.3851
30.3162 6251 79.0633
30.4337 6390 79.9375
30.5512 6573 81.074
30.6687 6860 82.8251
30.7862 6811 82.5288
30.9037 7053 83.9821
31.0212 6870 82.8855
31.1387 6933 83.2646
31.2562 6646 81.523
31.3737 6782 82.3529
31.4912 6297 79.3536
31.6087 6562 81.0062
31.7262 6568 81.0432
31.8436 6515 80.7155
31.9611 6536 80.8455
32.0785 6502 80.635
32.1959 6189 78.6702
32.3134 5963 77.2205
32.4308 5991 77.4016
32.5482 5930 77.0065
32.6655 5915 76.909
32.7829 5916 76.9155
32.9002 5917 76.922
33.0176 6017 77.5693
33.1349 6040 77.7174
33.2522 6048 77.7689
33.3694 6271 79.1896
33.4867 6142 78.3709
33.6039 6407 80.0437
33.7211 6478 80.486
33.8383 6278 79.2338
33.9554 6295 79.341
34.0725 6627 81.4064
34.1896 6550 80.9321
34.3067 6701 81.8596
34.4237 7000 83.666
34.5407 7042 83.9166
34.6577 6997 83.6481
34.7746 6959 83.4206
34.8915 6706 81.8902
35.0084 6785 82.3711
35.1252 6692 81.8046
35.242 6538 80.8579
35.3587 6402 80.0125
35.4755 6707 81.8963
35.5921 6592 81.1911
35.7088 6345 79.6555
35.8254 6136 78.3326
35.9419 5913 76.896
36.0584 5696 75.4718
36.1749 5350 73.1437
36.2913 5102 71.4283
36.4077 4967 70.4769
36.524 4786 69.1809
36.6403 4833 69.5198
36.7565 4709 68.6222
36.8727 4707 68.6076
36.9889 4508 67.1416
37.1049 4159 64.4903
37.221 0 1
37.3369 0 1
37.4529 0 1
37.5687 0 1
37.6845 0 1
37.8003 0 1
37.916 0 1
38.0316 0 1
38.1472 0 1
40.5851 0 1
40.7008 0 1
40.8164 0 1
40.9322 0 1
41.048 0 1
41.1639 0 1
41.2798 0 1
41.3958 0 1
41.5118 0 1
41.6279 0 1
41.744 2827 53.1695
41.8602 3265 57.1402
41.9765 3519 59.3212
42.0928 3996 63.2139
42.2091 4349 65.9469
42.3255 4650 68.1909
42.4419 5110 71.4843
42.5584 5432 73.7021
42.675 5487 74.0743
42.7915 5607 74.8799
42.9081 5759 75.8881
43.0248 6112 78.1793
43.1415 6454 80.3368
43.2582 6644 81.5107
43.375 6784 82.365
43.4918 6682 81.7435
43.6087 6837 82.6862
43.7256 6780 82.3408
43.8425 6738 82.0853
43.9595 6626 81.4002
44.0765 6507 80.666
44.1935 6544 80.895
44.3106 6794 82.4257
44.4277 6534 80.8332
44.5448 6487 80.5419
44.6619 6124 78.256
44.7791 5890 76.7463
44.8963 5416 73.5935
45.0136 5365 73.2462
45.1308 5236 72.3602
45.2481 5074 71.232
45.3654 5124 71.5821
45.4827 5237 72.3671
45.6001 5521 74.3034
45.7174 5688 75.4188
45.8348 6169 78.543
45.9522 6417 80.1062
46.0697 6621 81.3695
46.1871 6633 81.4432
46.3046 6635 81.4555
46.422 6681 81.7374
46.5395 6666 81.6456
46.657 6975 83.5165
46.7745 7050 83.9643
46.892 7245 85.1176
47.0096 7286 85.3581
47.1271 7469 86.4234
47.2446 7299 85.4342
47.3622 7252 85.1587
47.4797 7325 85.5862
47.5973 7098 84.2496
47.7149 6968 83.4745
47.8324 7133 84.4571
47.95 7153 84.5754
48.0675 6868 82.8734
48.1851 6723 81.9939
48.3027 6247 79.038
48.4202 6021 77.5951
48.5378 5334 73.0342
48.6554 5177 71.9514
48.7729 5192 72.0555
48.8904 5123 71.5751
49.008 5242 72.4017
49.1255 5538 74.4177
49.243 6149 78.4156
49.3605 6407 80.0437
49.478 6732 82.0488
49.5955 6851 82.7708
49.713 6832 82.6559
49.8304 6854 82.7889
49.9479 6954 83.3906
50.0653 6997 83.6481
50.1827 7108 84.309
50.3001 7182 84.7467
50.4175 7458 86.3597
50.5348 7680 87.6356
50.6521 7581 87.0689
50.7694 7786 88.2383
50.8867 7591 87.1263
51.004 7374 85.872
51.1212 7362 85.8021
51.2384 7604 87.2009
51.3556 7617 87.2754
51.4727 7528 86.764
51.5899 7218 84.9588
51.707 6989 83.6002
51.824 6552 80.9444
51.9411 6122 78.2432
52.0581 5601 74.8398
52.175 5352 73.1574
52.2919 5116 71.5262
52.4088 5294 72.7599
52.5257 5192 72.0555
52.6425 5493 74.1148
52.7593 5912 76.8895
52.876 6231 78.9367
52.9927 6535 80.8393
53.1094 6613 81.3204
53.226 6515 80.7155
53.3426 6463 80.3928
53.4591 6282 79.2591
53.5756 5997 77.4403
53.692 5835 76.3872
53.8084 5836 76.3937
53.9248 5771 75.9671
54.0411 5621 74.9733
54.1573 5163 71.854
54.2735 0 1
54.3896 0 1
54.5057 0 1
54.6217 0 1
54.7377 0 1
54.8537 0 1
54.9695 0 1
55.0853 0 1
55.2011 0 1
55.3168 0 1
55.4324 0 1
57.824 0 1
57.9396 0 1
58.0553 0 1
58.1711 0 1
58.2869 0 1
58.4028 0 1
58.5187 0 1
58.6347 0 1
58.7508 0 1
58.8669 0 1
58.983 6097 78.0833
59.0992 6911 83.1324
59.2155 7511 86.666
59.3318 7929 89.0449
59.4482 8437 91.8531
59.5646 8696 93.2523
59.681 8909 94.3875
59.7975 9056 95.163
59.9141 9266 96.2601
60.0306 9395 96.9278
60.1473 9804 99.0152
60.2639 9553 97.7394
60.3807 9287 96.3691
60.4974 8754 93.5628
60.6142 8255 90.857
60.731 7243 85.1058
60.8479 6671 81.6762
60.9648 6303 79.3914
61.0818 6270 79.1833
61.1987 6525 80.7775
61.3158 7142 84.5104
61.4328 8027 89.5935
61.5499 8946 94.5833
61.667 9529 97.6166
61.7841 9997 99.985
61.9013 10098 100.489
62.0185 10088 100.439
62.1357 10024 100.12
62.253 10093 100.464
62.3702 10415 102.054
62.4875 10680 103.344
62.6049 10792 103.885
62.7222 11110 105.404
62.8396 11149 105.589
62.9569 11072 105.224
63.0743 11282 106.217
63.1918 11132 105.508
63.3092 10952 104.652
63.4267 10955 104.666
63.5441 11076 105.243
63.6616 11003 104.895
63.7791 10570 102.811
63.8966 10100 100.499
64.0142 9387 96.8865
64.1317 8461 91.9837
64.2492 7572 87.0172
64.3668 6765 82.2496
64.4843 6249 79.0506
64.6019 6159 78.4793
64.7195 6377 79.8561
64.837 7073 84.1011
64.9546 7887 88.8088
65.0722 9080 95.289
65.1898 10174 100.866
65.3074 10504 102.489
65.4249 10524 102.587
65.5425 10607 102.99
65.6601 10644 103.17
65.7777 10538 102.655
65.8952 10976 104.766
66.0128 11071 105.219
66.1304 11320 106.395
66.2479 11381 106.682
66.3655 11835 108.789
66.483 11498 107.229
66.6005 11663 107.995
66.718 11644 107.907
66.8355 11391 106.729
66.953 11345 106.513
67.0705 11392 106.733
67.1879 11535 107.401
67.3054 11392 106.733
67.4228 10929 104.542
67.5402 10351 101.74
67.6576 9456 97.242
67.7749 8582 92.6391
67.8923 7411 86.0872
68.0096 6643 81.5046
68.1269 6125 78.2624
68.2442 6149 78.4156
68.3614 6357 79.7308
68.4787 7053 83.9821
68.5958 8213 90.6256
68.713 9648 98.2242
68.8302 10708 103.479
68.9473 11236 106
69.0643 11325 106.419
69.1814 11339 106.485
69.2984 10868 104.25
69.4154 10664 103.267
69.5323 10467 102.308
69.6492 10497 102.455
69.7661 10773 103.793
69.8829 10811 103.976
69.9997 10714 103.508
70.1165 10664 103.267
70.2332 10556 102.742
70.3499 10110 100.548
70.4665 9853 99.2623
70.5831 9146 95.6347
70.6996 8909 94.3875
70.8161 8876 94.2125
70.9326 8491 92.1466
71.049 7869 88.7074
71.1653 7172 84.6877
71.2817 6377 79.8561
71.3979 5704 75.5248
71.5141 4712 68.644
71.6303 3554 59.6154
71.7464 2509 50.0899
71.8624 0 1
71.9784 0 1
72.0944 0 1
72.2102 0 1
72.3261 0 1
72.4418 0 1
72.5575 0 1
72.6732 0 1
75.1054 0 1
75.2209 0 1
75.3365 0 1
75.4521 0 1
75.5678 0 1
75.6835 0 1
75.7993 0 1
75.9151 0 1
76.031 0 1
76.147 8434 91.8368
76.263 8852 94.0851
76.3791 8907 94.3769
76.4952 8483 92.1032
76.6113 8040 89.666
76.7276 7276 85.2995
76.8438 6599 81.2342
76.9601 6032 77.666
77.0765 5583 74.7195
77.1929 5692 75.4453
77.3093 5982 77.3434
77.4258 6594 81.2034
77.5423 7864 88.6792
77.6589 9723 98.6053
77.7755 11098 105.347
77.8921 11870 108.95
78.0088 12205 110.476
78.1256 12010 109.59
78.2423 11893 109.055
78.3591 11991 109.503
78.4759 12053 109.786
78.5928 12272 110.779
78.7097 12315 110.973
78.8266 12464 111.642
78.9436 13393 115.728
79.0606 13090 114.412
79.1776 13070 114.324
79.2946 13588 116.568
79.4117 13313 115.382
79.5288 13137 114.617
79.6459 13009 114.057
79.7631 13285 115.261
79.8802 13672 116.927
79.9974 13363 115.598
80.1147 12856 113.384
80.2319 11719 108.254
80.3491 10355 101.76
80.4664 9371 96.8039
80.5837 8024 89.5768
80.701 6683 81.7496
80.8183 6228 78.9177
80.9357 6331 79.5676
81.053 6952 83.3787
81.1704 8086 89.9222
81.2877 10130 100.648
81.4051 12363 111.189
81.5225 13835 117.622
81.6399 14129 118.865
81.7573 14437 120.154
81.8747 13330 115.456
81.9922 13459 116.013
82.1096 13642 116.799
82.227 13897 117.886
82.3444 14065 118.596
82.4619 14944 122.246
82.5793 15020 122.556
82.6967 15092 122.85
82.8142 15474 124.395
82.9316 15284 123.628
83.049 15074 122.776
83.1664 15016 122.54
83.2838 14801 121.659
83.4012 15160 123.126
83.5186 15473 124.391
83.636 15082 122.809
83.7534 14226 119.273
83.8708 12697 112.681
83.9881 11550 107.471
84.1055 10453 102.24
84.2228 9239 96.1197
84.3401 7763 88.1079
84.4575 6909 83.1204
84.5747 6886 82.9819
84.692 7647 87.4471
84.8093 9700 98.4886
84.9265 11869 108.945
85.0437 13562 116.456
85.1609 15330 123.814
85.2781 15860 125.936
85.3952 15724 125.395
85.5123 15501 124.503
85.6294 15271 123.576
85.7465 15366 123.96
85.8636 15943 126.266
85.9806 16450 128.258
86.0976 16566 128.709
86.2145 16787 129.565
86.3315 16991 130.35
86.4484 16656 129.058
86.5652 16880 129.923
86.682 16523 128.542
86.7988 15644 125.076
86.9156 15268 123.564
87.0323 15060 122.719
87.149 15634 125.036
87.2657 15200 123.288
87.3823 14303 119.595
87.4988 12474 111.687
87.6154 10902 104.413
87.7318 9696 98.4683
87.8483 7789 88.2553
87.9647 6391 79.9437
88.081 5712 75.5778
88.1973 5642 75.1132
88.3136 6275 79.2149
88.4298 7369 85.8429
88.546 8989 94.8103
88.6621 10415 102.054
88.7781 10981 104.79
88.8942 0 1
89.0101 0 1
89.126 0 1
89.2419 0 1
89.3577 0 1
89.4734 0 1
89.5891 0 1
89.7047 0 1
89.8203 0 1
89.9358 0 1
92.3269 0 1
92.4424 0 1
92.558 0 1
92.6736 0 1
92.7893 0 1
92.905 0 1
93.0208 0 1
93.1366 0 1
93.2525 0 1
93.3685 0 1
93.4845 0 1
93.6005 7096 84.2378
93.7167 8269 90.934
93.8328 10562 102.772
93.949 13142 114.639
94.0653 14921 122.152
94.1816 16400 128.062
94.2979 17317 131.594
94.4143 17584 132.605
94.5307 17810 133.454
94.6472 18116 134.596
94.7637 18460 135.868
94.8803 19014 137.891
94.9969 19136 138.333
95.1135 19596 139.986
95.2302 20082 141.711
95.3469 20003 141.432
95.4637 20322 142.555
95.5805 20514 143.227
95.6973 19993 141.397
95.8142 19988 141.379
95.9311 19912 141.11
96.048 19721 140.431
96.1649 19618 140.064
96.2819 19267 138.806
96.3989 18674 136.653
96.516 16791 129.58
96.633 15647 125.088
96.7501 13685 116.983
96.8673 12259 110.72
96.9844 10758 103.721
97.1016 9724 98.6103
97.2188 9166 95.7392
97.336 9683 98.4022
97.4532 11045 105.095
97.5704 13574 116.508
97.6877 15993 126.463
97.805 18158 134.752
97.9223 19345 139.086
98.0396 20034 141.542
98.1569 19927 141.163
98.2743 19419 139.352
98.3916 19329 139.029
98.509 19997 141.411
98.6264 20397 142.818
98.7438 20756 144.069
98.8612 20846 144.381
98.9786 21191 145.571
99.096 21622 147.044
99.2134 21434 146.404
99.3308 21548 146.792
99.4482 21087 145.214
99.5656 21036 145.038
99.6831 20970 144.81
99.8005 21246 145.76
99.9179 20784 144.167
100.035 19354 139.119
100.153 17622 132.748
100.27 15723 125.391
100.388 13737 117.205
100.505 12506 111.83
100.622 10817 104.005
100.74 9914 99.5691
100.857 10138 100.688
100.975 11139 105.541
101.092 13339 115.495
101.209 16173 127.173
101.327 18596 136.367
101.444 20083 141.715
101.561 20845 144.378
101.679 20355 142.671
101.796 20559 143.384
101.913 20086 141.725
102.03 20181 142.06
102.148 20718 143.937
102.265 21478 146.554
102.382 20935 144.689
102.499 21744 147.458
102.616 21859 147.848
102.733 21974 148.236
102.851 21697 147.299
102.968 22049 148.489
103.085 21634 147.085
103.202 21453 146.468
103.319 21495 146.612
103.436 21326 146.034
103.552 20298 142.471
103.669 18812 137.157
103.786 16685 129.17
103.903 15227 123.398
104.02 13372 115.637
104.137 11847 108.844
104.253 10685 103.368
104.37 10110 100.548
104.487 10476 102.352
104.603 11635 107.866
104.72 13247 115.096
104.836 14996 122.458
104.953 16292 127.64
105.069 16669 129.108
105.186 16596 128.825
105.302 15936 126.238
105.418 15310 123.734
105.535 14587 120.777
105.651 13892 117.864
105.767 13090 114.412
105.883 12632 112.392
105.999 11609 107.745
106.115 0 1
106.231 0 1
106.347 0 1
106.463 0 1
106.579 0 1
106.694 0 1
106.81 0 1
106.926 0 1
107.041 0 1
107.157 0 1
109.576 0 1
109.692 0 1
109.807 0 1
109.923 0 1
110.039 0 1
110.155 0 1
110.27 0 1
110.386 0 1
110.502 0 1
110.618 11505 107.261
110.735 12942 113.763
110.851 14280 119.499
110.967 15505 124.519
111.083 16136 127.028
111.199 16904 130.015
111.316 17780 133.342
111.432 18303 135.289
111.549 18617 136.444
111.665 18897 137.466
111.782 18864 137.346
111.898 19090 138.167
112.015 19516 139.7
112.132 19649 140.175
112.248 18855 137.314
112.365 17253 131.351
112.482 15458 124.33
112.599 13478 116.095
112.716 12001 109.549
112.832 10584 102.879
112.949 9636 98.1631
113.066 9446 97.1905
113.183 9867 99.3328
113.3 11412 106.827
113.417 13536 116.344
113.534 15747 125.487
113.652 17648 132.846
113.769 18096 134.521
113.886 17937 133.929
114.003 17444 132.076
114.12 17364 131.773
114.238 17758 133.259
114.355 18167 134.785
114.472 18555 136.217
114.589 19032 137.957
114.707 18861 137.335
114.824 18999 137.837
114.942 19022 137.92
115.059 19144 138.362
115.176 19036 137.971
115.294 18608 136.411
115.411 18396 135.632
115.529 18643 136.539
115.646 18510 136.051
115.764 18006 134.186
115.881 17120 130.843
115.999 15511 124.543
116.116 13928 118.017
116.234 12336 111.068
116.351 11077 105.247
116.469 9997 99.985
116.586 9464 97.2831
116.704 9551 97.7292
116.821 9999 99.995
116.939 11722 108.268
117.056 13787 117.418
117.174 15427 124.205
117.291 16553 128.658
117.409 16537 128.596
117.526 16521 128.534
117.644 16289 127.628
117.761 16217 127.346
117.879 16375 127.965
117.996 16982 130.315
118.114 17435 132.042
118.231 17275 131.434
118.349 17428 132.015
118.466 17515 132.344
118.584 17446 132.083
118.701 17661 132.895
118.819 17029 130.495
118.936 16759 129.457
119.053 16845 129.788
119.171 16901 130.004
119.288 16994 130.361
119.405 16580 128.763
119.523 15661 125.144
119.64 14284 119.516
119.757 13180 114.804
119.875 11740 108.351
119.992 10620 103.053
120.109 9651 98.2395
120.226 9557 97.7599
120.343 9081 95.2943
120.46 9360 96.7471
120.578 10539 102.66
120.695 11662 107.991
120.812 12910 113.622
120.929 13906 117.924
121.046 14031 118.453
121.163 13921 117.987
121.279 13442 115.94
121.396 13245 115.087
121.513 12963 113.855
121.63 13261 115.156
121.747 13299 115.321
121.863 13245 115.087
121.98 13388 115.707
122.097 13389 115.711
122.213 12874 113.464
122.33 12772 113.013
122.446 12258 110.716
122.563 11458 107.042
122.679 11160 105.641
122.795 10514 102.538
122.912 10242 101.203
123.028 9731 98.6458
123.144 8991 94.8209
123.26 7945 89.1347
123.377 0 1
123.493 0 1
123.609 0 1
123.725 0 1
123.84 0 1
123.956 0 1
124.072 0 1
124.188 0 1
124.303 0 1
124.419 0 1
126.852 0 1
126.968 0 1
127.083 0 1
127.199 0 1
127.315 0 1
127.431 0 1
127.547 0 1
127.663 0 1
127.779 0 1
127.895 0 1
128.011 0 1
128.127 0 1
128.243 0 1
128.359 15838 125.849
128.476 15904 126.111
128.592 15462 124.346
128.708 14962 122.319
128.825 14224 119.264
128.941 13520 116.276
129.058 12177 110.349
129.174 11513 107.299
129.291 11205 105.854
129.408 11068 105.205
129.524 11092 105.319
129.641 11588 107.648
129.758 12726 112.81
129.875 13819 117.554
129.992 14844 121.836
130.108 15200 123.288
130.225 15131 123.008
130.342 15570 124.78
130.459 14881 121.988
130.576 15763 125.551
130.693 15905 126.115
130.81 16524 128.546
130.928 16759 129.457
131.045 17084 130.706
131.162 17178 131.065
131.279 17277 131.442
131.396 17232 131.271
131.513 17052 130.583
131.631 16708 129.259
131.748 16444 128.234
131.865 16746 129.406
131.983 16643 129.008
132.1 16353 127.879
132.217 15897 126.083
132.335 14994 122.45
132.452 13837 117.631
132.57 12882 113.499
132.687 12195 110.431
132.804 11958 109.353
132.922 11449 107
133.039 11408 106.808
133.157 11356 106.565
133.274 12175 110.34
133.392 13159 114.713
133.509 14045 118.512
133.627 14630 120.955
133.744 14560 120.665
133.862 14827 121.766
133.979 14772 121.54
134.097 15055 122.699
134.214 15398 124.089
134.332 15836 125.841
134.449 16276 127.577
134.567 16255 127.495
134.684 16447 128.246
134.802 16471 128.339
134.919 16794 129.592
135.037 16627 128.946
135.154 16240 127.436
135.272 16124 126.98
135.389 16014 126.546
135.507 16373 127.957
135.624 16215 127.338
135.742 15779 125.614
135.859 15280 123.612
135.977 14503 120.428
136.094 13835 117.622
136.211 12863 113.415
136.329 12220 110.544
136.446 12090 109.955
136.564 11922 109.188
136.681 11540 107.424
136.798 11528 107.369
136.915 11984 109.471
137.033 12827 113.256
137.15 13398 115.75
137.267 14024 118.423
137.384 13993 118.292
137.502 13936 118.051
137.619 13887 117.843
137.736 14235 119.311
137.853 14136 118.895
137.97 15089 122.837
138.087 14788 121.606
138.204 15148 123.077
138.321 15406 124.121
138.438 15040 122.638
138.555 14704 121.26
138.672 14589 120.785
138.788 14050 118.533
138.905 13445 115.953
139.022 13010 114.061
139.139 12701 112.699
139.255 12519 111.888
139.372 11997 109.531
139.488 11156 105.622
139.605 10220 101.094
139.721 9439 97.1545
139.838 8582 92.6391
139.954 8032 89.6214
140.071 7356 85.7671
140.187 6904 83.0903
140.303 6350 79.6869
140.419 5849 76.4788
140.535 5401 73.4915
140.652 5472 73.973
140.768 0 1
140.884 0 1
141 0 1
141.115 0 1
141.231 0 1
141.347 0 1
141.463 0 1
141.578 0 1
141.694 0 1
144.104 0 1
144.219 0 1
144.335 0 1
144.45 0 1
144.566 0 1
144.682 0 1
144.798 0 1
144.914 0 1
145.03 0 1
145.146 8759 93.5895
145.262 9089 95.3362
145.378 8968 94.6995
145.494 8979 94.7576
145.61 9123 95.5144
145.726 9206 95.9479
145.842 9554 97.7446
145.959 9764 98.813
146.075 10050 100.25
146.192 10087 100.434
146.308 9946 99.7296
146.425 9733 98.656
146.541 10059 100.295
146.658 10280 101.39
146.774 10555 102.738
146.891 10595 102.932
147.008 11080 105.262
147.125 11130 105.499
147.241 11399 106.766
147.358 11322 106.405
147.475 11149 105.589
147.592 11377 106.663
147.709 11053 105.133
147.826 10716 103.518
147.943 10898 104.393
148.06 10915 104.475
148.177 10952 104.652
148.294 10928 104.537
148.411 10757 103.716
148.528 10479 102.367
148.645 10182 100.906
148.762 9831 99.1514
148.88 9861 99.3026
148.997 9926 99.6293
149.114 9356 96.7264
149.231 9528 97.6115
149.349 9528 97.6115
149.466 9320 96.5401
149.583 9548 97.7139
149.701 9801 99
149.818 9638 98.1733
149.935 9656 98.2649
150.053 9672 98.3463
150.17 9765 98.818
150.287 9777 98.8787
150.405 10089 100.444
150.522 10437 102.162
150.64 10521 102.572
150.757 10858 104.202
150.875 10837 104.101
150.992 10927 104.532
151.11 11140 105.546
151.227 10576 102.84
151.344 10529 102.611
151.462 10424 102.098
151.579 10219 101.089
151.697 10242 101.203
151.814 10389 101.926
151.932 10403 101.995
152.049 10136 100.678
152.167 10037 100.185
152.284 9816 99.0757
152.402 9714 98.5596
152.519 9365 96.7729
152.636 9497 97.4526
152.754 9271 96.286
152.871 8997 94.8525
152.989 8993 94.8314
153.106 9097 95.3782
153.223 9210 95.9687
153.341 9348 96.6851
153.458 9157 95.6922
153.575 8960 94.6573
153.693 9081 95.2943
153.81 8874 94.2019
153.927 9041 95.0842
154.044 9288 96.3743
154.162 9506 97.4987
154.279 9811 99.0505
154.396 9860 99.2975
154.513 10053 100.265
154.63 10108 100.539
154.747 10085 100.424
154.864 9872 99.3579
154.981 9688 98.4276
155.098 9477 97.3499
155.215 9561 97.7804
155.332 9567 97.811
155.449 9437 97.1442
155.566 9397 96.9381
155.683 9025 95
155.8 8920 94.4458
155.917 8799 93.803
156.033 8415 91.7333
156.15 0 1
156.267 0 1
156.383 0 1
156.5 0 1
156.617 0 1
156.733 0 1
156.85 0 1
156.966 0 1
157.082 0 1
157.199 0 1
157.315 0 1
157.431 0 1
157.547 0 1
157.664 0 1
157.78 0 1
157.896 0 1
158.012 0 1
158.128 0 1
158.244 0 1
158.359 0 1
158.475 0 1
158.591 0 1
158.706 0 1
