
6.15755 0 1
6.2731 0 1
6.3887 0 1
6.50437 0 1
6.62009 0 1
6.73587 0 1
6.8517 0 1
6.96759 0 1
7.08353 0 1
7.19952 0 1
7.31557 0 1
7.43166 0 1
7.54781 0 1
7.664 0 1
7.78024 0 1
7.89653 0 1
8.01286 0 1
8.12924 0 1
8.24567 0 1
8.36213 0 1
8.47864 0 1
8.59519 0 1
8.71178 0 1
8.82841 0 1
8.94508 0 1
9.06179 0 1
9.17853 0 1
9.29531 0 1
9.41212 0 1
9.52897 0 1
9.64584 0 1
9.76276 0 1
9.8797 0 1
9.99667 0 1
10.1137 0 1
10.2307 0 1
10.3478 0 1
10.4648 0 1
10.5819 0 1
10.6991 0 1
10.8162 0 1
10.9334 0 1
11.0506 0 1
11.1678 0 1
11.285 0 1
11.4023 0 1
11.5196 0 1
11.6369 0 1
11.7542 0 1
11.8715 0 1
11.9888 0 1
12.1062 0 1
12.2235 0 1
12.3409 0 1
12.4582 0 1
12.5756 0 1
12.693 0 1
12.8104 0 1
12.9278 0 1
13.0452 0 1
13.1626 0 1
13.28 0 1
13.3974 0 1
13.5149 0 1
13.6323 0 1
13.7497 0 1
13.8671 0 1
13.9845 0 1
14.1019 0 1
14.2193 0 1
14.3367 0 1
14.4541 0 1
14.5714 0 1
14.6888 0 1
14.8062 0 1
14.9235 0 1
15.0408 0 0
15.1581 0 0
15.2755 0 0
15.3927 0 0
15.51 0 0
15.6273 0 0
15.7445 0 0
15.8617 0 0
15.9789 0 0
16.0961 0 0
16.2132 0 0
16.3304 0 0
16.4475 0 0
16.5646 0 0
16.6816 0 0
16.7986 0 0
16.9156 0 0
17.0326 0 0
17.1496 0 0
17.2665 0 0
17.3833 0 0
17.5002 0 0
17.617 0 0
17.7338 0 0
17.8505 0 0
17.9672 0 0
18.0839 0 0
18.2005 0 0
18.3171 0 0
18.4337 0 0
18.5502 0 0
18.6666 0 0
18.7831 0 0
18.8994 0 0
19.0158 0 0
19.1321 0 0
19.2483 0 0
19.3645 0 0
19.4806 0 0
19.5967 0 0
19.7128 0 0
19.8288 0 0
19.9447 0 0
20.0606 0 1
20.1764 0 1
20.2922 0 1
20.4079 0 1
20.5236 0 1
20.6392 0 1
20.7548 0 1
20.8702 0 1
23.3078 0 1
23.4233 0 1
23.539 0 1
23.6547 0 1
23.7704 0 1
23.8862 0 1
24.0021 0 1
24.118 0 1
24.234 0 1
24.35 0 1
24.4661 1184 34.4093
24.5822 1240 35.2136
24.6984 1175 34.2783
24.8146 1222 34.9571
24.9309 1193 34.5398
25.0472 1192 34.5254
25.1636 1286 35.8608
25.28 1279 35.7631
25.3965 1246 35.2987
25.513 1324 36.3868
25.6296 1376 37.0945
25.7462 1277 35.7351
25.8628 1353 36.7831
25.9795 1292 35.9444
26.0962 1295 35.9861
26.213 1311 36.2077
26.3298 1289 35.9026
26.4466 1285 35.8469
26.5635 1397 37.3765
26.6804 1329 36.4555
26.7973 1229 35.0571
26.9143 1166 34.1467
27.0313 1143 33.8083
27.1483 1113 33.3617
27.2653 1190 34.4964
27.3824 1238 35.1852
27.4996 1147 33.8674
27.6167 1225 35
27.7339 1162 34.0881
27.8511 1085 32.9393
27.9683 1152 33.9411
28.0855 1101 33.1813
28.2028 1192 34.5254
28.3201 1095 33.0908
28.4374 1158 34.0294
28.5547 1173 34.2491
28.6721 1243 35.2562
28.7894 1214 34.8425
28.9068 1277 35.7351
29.0242 1227 35.0286
29.1416 1268 35.609
29.259 1199 34.6266
29.3764 1193 34.5398
29.4939 1234 35.1283
29.6113 1249 35.3412
29.7288 1239 35.1994
29.8463 1236 35.1568
29.9638 1256 35.4401
30.0812 1251 35.3695
30.1987 1191 34.5109
30.3162 1189 34.4819
30.4337 1109 33.3017
30.5512 1071 32.7261
30.6687 1062 32.5883
30.7862 1105 33.2415
30.9037 1126 33.5559
31.0212 1134 33.6749
31.1387 1140 33.7639
31.2562 1055 32.4808
31.3737 1072 32.7414
31.4912 1067 32.665
31.6087 1049 32.3883
31.7262 1068 32.6803
31.8436 1104 33.2265
31.9611 1129 33.6006
32.0785 1199 34.6266
32.1959 1229 35.0571
32.3134 1214 34.8425
32.4308 1233 35.1141
32.5482 1188 34.4674
32.6655 1258 35.4683
32.7829 1201 34.6554
32.9002 1186 34.4384
33.0176 1257 35.4542
33.1349 1120 33.4664
33.2522 1234 35.1283
33.3694 1206 34.7275
33.4867 1193 34.5398
33.6039 1238 35.1852
33.7211 1221 34.9428
33.8383 1223 34.9714
33.9554 1163 34.1028
34.0725 1089 33
34.1896 1078 32.8329
34.3067 1007 31.7333
34.4237 1027 32.0468
34.5407 1028 32.0624
34.6577 1069 32.6956
34.7746 1045 32.3265
34.8915 1110 33.3167
35.0084 1073 32.7567
35.1252 998 31.5911
35.242 1086 32.9545
35.3587 1051 32.4191
35.4755 1063 32.6037
35.5921 1161 34.0735
35.7088 1171 34.2199
35.8254 1109 33.3017
35.9419 1127 33.5708
36.0584 1163 34.1028
36.1749 1190 34.4964
36.2913 1218 34.8999
36.4077 1209 34.7707
36.524 1193 34.5398
36.6403 1206 34.7275
36.7565 1177 34.3074
36.8727 1122 33.4963
36.9889 1189 34.4819
37.1049 1164 34.1174
37.221 0 1
37.3369 0 1
37.4529 0 1
37.5687 0 1
37.6845 0 1
37.8003 0 1
37.916 0 1
38.0316 0 1
38.1472 0 1
40.5851 0 1
40.7008 0 1
40.8164 0 1
40.9322 0 1
41.048 0 1
41.1639 0 1
41.2798 0 1
41.3958 0 1
41.5118 0 1
41.6279 0 1
41.744 958 30.9516
41.8602 964 31.0483
41.9765 942 30.692
42.0928 976 31.241
42.2091 1037 32.2025
42.3255 967 31.0966
42.4419 954 30.8869
42.5584 1026 32.0312
42.675 963 31.0322
42.7915 1024 32
42.9081 907 30.1164
43.0248 852 29.189
43.1415 811 28.4781
43.2582 831 28.8271
43.375 854 29.2233
43.4918 916 30.2655
43.6087 893 29.8831
43.7256 819 28.6182
43.8425 876 29.5973
43.9595 844 29.0517
44.0765 816 28.5657
44.1935 844 29.0517
44.3106 862 29.3598
44.4277 889 29.8161
44.5448 891 29.8496
44.6619 917 30.282
44.7791 931 30.5123
44.8963 876 29.5973
45.0136 933 30.545
45.1308 829 28.7924
45.2481 824 28.7054
45.3654 846 29.0861
45.4827 820 28.6356
45.6001 817 28.5832
45.7174 886 29.7658
45.8348 834 28.8791
45.9522 803 28.3373
46.0697 837 28.931
46.1871 836 28.9137
46.3046 740 27.2029
46.422 814 28.5307
46.5395 766 27.6767
46.657 679 26.0576
46.7745 699 26.4386
46.892 685 26.1725
47.0096 675 25.9808
47.1271 690 26.2679
47.2446 693 26.3249
47.3622 655 25.593
47.4797 656 25.6125
47.5973 653 25.5539
47.7149 638 25.2587
47.8324 638 25.2587
47.95 648 25.4558
48.0675 660 25.6905
48.1851 686 26.1916
48.3027 665 25.7876
48.4202 691 26.2869
48.5378 705 26.5518
48.6554 681 26.096
48.7729 651 25.5147
48.8904 673 25.9422
49.008 622 24.9399
49.1255 682 26.1151
49.243 734 27.0924
49.3605 685 26.1725
49.478 655 25.593
49.5955 722 26.8701
49.713 724 26.9072
49.8304 737 27.1477
49.9479 716 26.7582
50.0653 685 26.1725
50.1827 616 24.8193
50.3001 574 23.9583
50.4175 631 25.1197
50.5348 596 24.4131
50.6521 654 25.5734
50.7694 667 25.8263
50.8867 694 26.3439
51.004 698 26.4197
51.1212 764 27.6405
51.2384 773 27.8029
51.3556 797 28.2312
51.4727 790 28.1069
51.5899 822 28.6705
51.707 855 29.2404
51.824 803 28.3373
51.9411 889 29.8161
52.0581 869 29.4788
52.175 941 30.6757
52.2919 876 29.5973
52.4088 868 29.4618
52.5257 863 29.3769
52.6425 843 29.0345
52.7593 914 30.2324
52.876 929 30.4795
52.9927 946 30.7571
53.1094 899 29.9833
53.226 950 30.8221
53.3426 901 30.0167
53.4591 881 29.6816
53.5756 958 30.9516
53.692 917 30.282
53.8084 896 29.9333
53.9248 809 28.4429
54.0411 771 27.7669
54.1573 797 28.2312
54.2735 0 1
54.3896 0 1
54.5057 0 1
54.6217 0 1
54.7377 0 1
54.8537 0 1
54.9695 0 1
55.0853 0 1
55.2011 0 1
55.3168 0 1
55.4324 0 1
57.824 0 1
57.9396 0 1
58.0553 0 1
58.1711 0 1
58.2869 0 1
58.4028 0 1
58.5187 0 1
58.6347 0 1
58.7508 0 1
58.8669 0 1
58.983 991 31.4802
59.0992 916 30.2655
59.2155 849 29.1376
59.3318 875 29.5804
59.4482 913 30.2159
59.5646 958 30.9516
59.681 985 31.3847
59.7975 957 30.9354
59.9141 1011 31.7962
60.0306 1044 32.311
60.1473 1015 31.8591
60.2639 970 31.1448
60.3807 972 31.1769
60.4974 1036 32.187
60.6142 1020 31.9374
60.731 981 31.3209
60.8479 1008 31.749
60.9648 997 31.5753
61.0818 1014 31.8434
61.1987 921 30.348
61.3158 1024 32
61.4328 947 30.7734
61.5499 958 30.9516
61.667 961 31
61.7841 932 30.5287
61.9013 921 30.348
62.0185 932 30.5287
62.1357 947 30.7734
62.253 945 30.7409
62.3702 957 30.9354
62.4875 875 29.5804
62.6049 791 28.1247
62.7222 769 27.7308
62.8396 749 27.3679
62.9569 849 29.1376
63.0743 826 28.7402
63.1918 841 29
63.3092 829 28.7924
63.4267 801 28.3019
63.5441 897 29.95
63.6616 877 29.6142
63.7791 924 30.3974
63.8966 833 28.8617
64.0142 875 29.5804
64.1317 849 29.1376
64.2492 876 29.5973
64.3668 816 28.5657
64.4843 810 28.4605
64.6019 772 27.7849
64.7195 863 29.3769
64.837 817 28.5832
64.9546 833 28.8617
65.0722 838 28.9482
65.1898 804 28.3549
65.3074 848 29.1204
65.4249 781 27.9464
65.5425 814 28.5307
65.6601 786 28.0357
65.7777 791 28.1247
65.8952 787 28.0535
66.0128 748 27.3496
66.1304 712 26.6833
66.2479 699 26.4386
66.3655 670 25.8844
66.483 620 24.8998
66.6005 705 26.5518
66.718 716 26.7582
66.8355 763 27.6225
66.953 763 27.6225
67.0705 779 27.9106
67.1879 776 27.8568
67.3054 754 27.4591
67.4228 730 27.0185
67.5402 809 28.4429
67.6576 725 26.9258
67.7749 741 27.2213
67.8923 717 26.7769
68.0096 745 27.2947
68.1269 713 26.7021
68.2442 780 27.9285
68.3614 785 28.0179
68.4787 750 27.3861
68.5958 757 27.5136
68.713 728 26.9815
68.8302 747 27.3313
68.9473 722 26.8701
69.0643 797 28.2312
69.1814 697 26.4008
69.2984 772 27.7849
69.4154 685 26.1725
69.5323 703 26.5141
69.6492 762 27.6043
69.7661 749 27.3679
69.8829 729 27
69.9997 635 25.1992
70.1165 642 25.3377
70.2332 638 25.2587
70.3499 638 25.2587
70.4665 684 26.1534
70.5831 717 26.7769
70.6996 728 26.9815
70.8161 699 26.4386
70.9326 663 25.7488
71.049 666 25.807
71.1653 738 27.1662
71.2817 652 25.5343
71.3979 627 25.04
71.5141 666 25.807
71.6303 590 24.2899
71.7464 613 24.7588
71.8624 0 1
71.9784 0 1
72.0944 0 1
72.2102 0 1
72.3261 0 1
72.4418 0 1
72.5575 0 1
72.6732 0 1
75.1054 0 1
75.2209 0 1
75.3365 0 1
75.4521 0 1
75.5678 0 1
75.6835 0 1
75.7993 0 1
75.9151 0 1
76.031 0 1
76.147 493 22.2036
76.263 509 22.561
76.3791 540 23.2379
76.4952 536 23.1517
76.6113 542 23.2809
76.7276 533 23.0868
76.8438 507 22.5167
76.9601 561 23.6854
77.0765 539 23.2164
77.1929 538 23.1948
77.3093 512 22.6274
77.4258 518 22.7596
77.5423 482 21.9545
77.6589 520 22.8035
77.7755 469 21.6564
77.8921 480 21.9089
78.0088 475 21.7945
78.1256 536 23.1517
78.2423 450 21.2132
78.3591 430 20.7364
78.4759 465 21.5639
78.5928 444 21.0713
78.7097 483 21.9773
78.8266 506 22.4944
78.9436 446 21.1187
79.0606 348 18.6548
79.1776 318 17.8326
79.2946 308 17.5499
79.4117 395 19.8746
79.5288 384 19.5959
79.6459 358 18.9209
79.7631 409 20.2237
79.8802 333 18.2483
79.9974 343 18.5203
80.1147 359 18.9473
80.2319 351 18.735
80.3491 323 17.9722
80.4664 346 18.6011
80.5837 368 19.1833
80.701 337 18.3576
80.8183 321 17.9165
80.9357 306 17.4929
81.053 327 18.0831
81.1704 308 17.5499
81.2877 317 17.8045
81.4051 293 17.1172
81.5225 283 16.8226
81.6399 247 15.7162
81.7573 264 16.2481
81.8747 257 16.0312
81.9922 248 15.748
82.1096 254 15.9374
82.227 224 14.9666
82.3444 219 14.7986
82.4619 186 13.6382
82.5793 220 14.8324
82.6967 227 15.0665
82.8142 195 13.9642
82.9316 159 12.6095
83.049 158 12.5698
83.1664 189 13.7477
83.2838 185 13.6015
83.4012 165 12.8452
83.5186 161 12.6886
83.636 152 12.3288
83.7534 139 11.7898
83.8708 144 12
83.9881 137 11.7047
84.1055 116 10.7703
84.2228 129 11.3578
84.3401 111 10.5357
84.4575 119 10.9087
84.5747 106 10.2956
84.692 116 10.7703
84.8093 106 10.2956
84.9265 115 10.7238
85.0437 102 10.0995
85.1609 111 10.5357
85.2781 96 9.79796
85.3952 120 10.9545
85.5123 91 9.53939
85.6294 95 9.74679
85.7465 79 8.88819
85.8636 101 10.0499
85.9806 107 10.3441
86.0976 81 9
86.2145 87 9.32738
86.3315 99 9.94987
86.4484 112 10.583
86.5652 119 10.9087
86.682 126 11.225
86.7988 139 11.7898
86.9156 128 11.3137
87.0323 128 11.3137
87.149 144 12
87.2657 130 11.4018
87.3823 133 11.5326
87.4988 144 12
87.6154 170 13.0384
87.7318 159 12.6095
87.8483 183 13.5277
87.9647 181 13.4536
88.081 198 14.0712
88.1973 226 15.0333
88.3136 202 14.2127
88.4298 215 14.6629
88.546 242 15.5563
88.6621 240 15.4919
88.7781 257 16.0312
88.8942 0 1
89.0101 0 1
89.126 0 1
89.2419 0 1
89.3577 0 1
89.4734 0 1
89.5891 0 1
89.7047 0 1
89.8203 0 1
89.9358 0 1
92.3269 0 1
92.4424 0 1
92.558 0 1
92.6736 0 1
92.7893 0 1
92.905 0 1
93.0208 0 1
93.1366 0 1
93.2525 0 1
93.3685 0 1
93.4845 0 1
93.6005 411 20.2731
93.7167 370 19.2354
93.8328 318 17.8326
93.949 336 18.3303
94.0653 353 18.7883
94.1816 336 18.3303
94.2979 327 18.0831
94.4143 326 18.0555
94.5307 324 18
94.6472 303 17.4069
94.7637 333 18.2483
94.8803 309 17.5784
94.9969 293 17.1172
95.1135 311 17.6352
95.2302 304 17.4356
95.3469 266 16.3095
95.4637 225 15
95.5805 232 15.2315
95.6973 290 17.0294
95.8142 364 19.0788
95.9311 348 18.6548
96.048 329 18.1384
96.1649 325 18.0278
96.2819 394 19.8494
96.3989 360 18.9737
96.516 385 19.6214
96.633 405 20.1246
96.7501 415 20.3715
96.8673 394 19.8494
96.9844 378 19.4422
97.1016 411 20.2731
97.2188 393 19.8242
97.336 419 20.4695
97.4532 491 22.1585
97.5704 417 20.4206
97.6877 483 21.9773
97.805 468 21.6333
97.9223 473 21.7486
98.0396 469 21.6564
98.1569 493 22.2036
98.2743 525 22.9129
98.3916 547 23.388
98.509 587 24.2281
98.6264 519 22.7816
98.7438 541 23.2594
98.8612 539 23.2164
98.9786 487 22.0681
99.096 398 19.9499
99.2134 381 19.5192
99.3308 529 23
99.4482 616 24.8193
99.5656 647 25.4362
99.6831 628 25.0599
99.8005 663 25.7488
99.9179 601 24.5153
100.035 655 25.593
100.153 651 25.5147
100.27 666 25.807
100.388 658 25.6515
100.505 693 26.3249
100.622 628 25.0599
100.74 684 26.1534
100.857 742 27.2397
100.975 688 26.2298
101.092 693 26.3249
101.209 724 26.9072
101.327 732 27.0555
101.444 757 27.5136
101.561 690 26.2679
101.679 759 27.55
101.796 755 27.4773
101.913 785 28.0179
102.03 724 26.9072
102.148 776 27.8568
102.265 782 27.9643
102.382 710 26.6458
102.499 710 26.6458
102.616 576 24
102.733 474 21.7715
102.851 598 24.454
102.968 677 26.0192
103.085 793 28.1603
103.202 800 28.2843
103.319 802 28.3196
103.436 778 27.8927
103.552 837 28.931
103.669 792 28.1425
103.786 782 27.9643
103.903 810 28.4605
104.02 843 29.0345
104.137 762 27.6043
104.253 789 28.0891
104.37 734 27.0924
104.487 817 28.5832
104.603 816 28.5657
104.72 831 28.8271
104.836 784 28
104.953 836 28.9137
105.069 824 28.7054
105.186 852 29.189
105.302 854 29.2233
105.418 826 28.7402
105.535 865 29.4109
105.651 840 28.9828
105.767 823 28.688
105.883 797 28.2312
105.999 699 26.4386
106.115 0 1
106.231 0 1
106.347 0 1
106.463 0 1
106.579 0 1
106.694 0 1
106.81 0 1
106.926 0 1
107.041 0 1
107.157 0 1
109.576 0 1
109.692 0 1
109.807 0 1
109.923 0 1
110.039 0 1
110.155 0 1
110.27 0 1
110.386 0 1
110.502 0 1
110.618 641 25.318
110.735 663 25.7488
110.851 719 26.8142
110.967 616 24.8193
111.083 612 24.7386
111.199 537 23.1733
111.316 501 22.383
111.432 558 23.622
111.549 604 24.5764
111.665 594 24.3721
111.782 606 24.6171
111.898 597 24.4336
112.015 614 24.779
112.132 600 24.4949
112.248 562 23.7065
112.365 563 23.7276
112.482 576 24
112.599 525 22.9129
112.716 482 21.9545
112.832 555 23.5584
112.949 554 23.5372
113.066 551 23.4734
113.183 523 22.8692
113.3 491 22.1585
113.417 511 22.6053
113.534 500 22.3607
113.652 504 22.4499
113.769 476 21.8174
113.886 493 22.2036
114.003 473 21.7486
114.12 505 22.4722
114.238 527 22.9565
114.355 436 20.8806
114.472 449 21.1896
114.589 464 21.5407
114.707 463 21.5174
114.824 436 20.8806
114.942 401 20.025
115.059 407 20.1742
115.176 461 21.4709
115.294 454 21.3073
115.411 474 21.7715
115.529 456 21.3542
115.646 486 22.0454
115.764 540 23.2379
115.881 469 21.6564
115.999 490 22.1359
116.116 452 21.2603
116.234 488 22.0907
116.351 449 21.1896
116.469 458 21.4009
116.586 458 21.4009
116.704 489 22.1133
116.821 457 21.3776
116.939 473 21.7486
117.056 448 21.166
117.174 479 21.8861
117.291 454 21.3073
117.409 465 21.5639
117.526 444 21.0713
117.644 464 21.5407
117.761 469 21.6564
117.879 410 20.2485
117.996 383 19.5704
118.114 370 19.2354
118.231 418 20.445
118.349 442 21.0238
118.466 428 20.6882
118.584 421 20.5183
118.701 452 21.2603
118.819 482 21.9545
118.936 454 21.3073
119.053 472 21.7256
119.171 489 22.1133
119.288 486 22.0454
119.405 452 21.2603
119.523 461 21.4709
119.64 467 21.6102
119.757 482 21.9545
119.875 445 21.095
119.992 447 21.1424
120.109 466 21.587
120.226 439 20.9523
120.343 465 21.5639
120.46 486 22.0454
120.578 497 22.2935
120.695 533 23.0868
120.812 499 22.3383
120.929 477 21.8403
121.046 500 22.3607
121.163 511 22.6053
121.279 480 21.9089
121.396 442 21.0238
121.513 407 20.1742
121.63 390 19.7484
121.747 311 17.6352
121.863 344 18.5472
121.98 408 20.199
122.097 477 21.8403
122.213 492 22.1811
122.33 528 22.9783
122.446 470 21.6795
122.563 500 22.3607
122.679 509 22.561
122.795 522 22.8473
122.912 527 22.9565
123.028 516 22.7156
123.144 547 23.388
123.26 476 21.8174
123.377 0 1
123.493 0 1
123.609 0 1
123.725 0 1
123.84 0 1
123.956 0 1
124.072 0 1
124.188 0 1
124.303 0 1
124.419 0 1
126.852 0 1
126.968 0 1
127.083 0 1
127.199 0 1
127.315 0 1
127.431 0 1
127.547 0 1
127.663 0 1
127.779 0 1
127.895 0 1
128.011 0 1
128.127 0 1
128.243 0 1
128.359 645 25.3969
128.476 669 25.865
128.592 644 25.3772
128.708 672 25.923
128.825 626 25.02
128.941 687 26.2107
129.058 647 25.4362
129.174 674 25.9615
129.291 612 24.7386
129.408 671 25.9037
129.524 711 26.6646
129.641 660 25.6905
129.758 679 26.0576
129.875 643 25.3574
129.992 703 26.5141
130.108 714 26.7208
130.225 635 25.1992
130.342 595 24.3926
130.459 558 23.622
130.576 540 23.2379
130.693 452 21.2603
130.81 472 21.7256
130.928 476 21.8174
131.045 607 24.6374
131.162 666 25.807
131.279 626 25.02
131.396 667 25.8263
131.513 691 26.2869
131.631 696 26.3818
131.748 736 27.1293
131.865 684 26.1534
131.983 725 26.9258
132.1 724 26.9072
132.217 710 26.6458
132.335 691 26.2869
132.452 738 27.1662
132.57 741 27.2213
132.687 643 25.3574
132.804 752 27.4226
132.922 722 26.8701
133.039 675 25.9808
133.157 723 26.8887
133.274 712 26.6833
133.392 686 26.1916
133.509 724 26.9072
133.627 749 27.3679
133.744 685 26.1725
133.862 662 25.7294
133.979 633 25.1595
134.097 568 23.8328
134.214 556 23.5797
134.332 537 23.1733
134.449 537 23.1733
134.567 547 23.388
134.684 653 25.5539
134.802 716 26.7582
134.919 723 26.8887
135.037 718 26.7955
135.154 766 27.6767
135.272 746 27.313
135.389 758 27.5318
135.507 842 29.0172
135.624 747 27.3313
135.742 805 28.3725
135.859 859 29.3087
135.977 799 28.2666
136.094 787 28.0535
136.211 804 28.3549
136.329 825 28.7228
136.446 767 27.6948
136.564 798 28.2489
136.681 773 27.8029
136.798 873 29.5466
136.915 794 28.178
137.033 765 27.6586
137.15 793 28.1603
137.267 778 27.8927
137.384 743 27.258
137.502 703 26.5141
137.619 671 25.9037
137.736 672 25.923
137.853 614 24.779
137.97 624 24.98
138.087 625 25
138.204 631 25.1197
138.321 684 26.1534
138.438 768 27.7128
138.555 786 28.0357
138.672 853 29.2062
138.788 835 28.8964
138.905 844 29.0517
139.022 902 30.0333
139.139 859 29.3087
139.255 907 30.1164
139.372 839 28.9655
139.488 870 29.4958
139.605 866 29.4279
139.721 877 29.6142
139.838 822 28.6705
139.954 805 28.3725
140.071 860 29.3258
140.187 875 29.5804
140.303 844 29.0517
140.419 875 29.5804
140.535 801 28.3019
140.652 826 28.7402
140.768 0 1
140.884 0 1
141 0 1
141.115 0 1
141.231 0 1
141.347 0 1
141.463 0 1
141.578 0 1
141.694 0 1
144.104 0 1
144.219 0 1
144.335 0 1
144.45 0 1
144.566 0 1
144.682 0 1
144.798 0 1
144.914 0 1
145.03 0 1
145.146 840 28.9828
145.262 840 28.9828
145.378 838 28.9482
145.494 860 29.3258
145.61 813 28.5132
145.726 814 28.5307
145.842 868 29.4618
145.959 823 28.688
146.075 776 27.8568
146.192 734 27.0924
146.308 722 26.8701
146.425 680 26.0768
146.541 678 26.0384
146.658 628 25.0599
146.774 689 26.2488
146.891 675 25.9808
147.008 716 26.7582
147.125 727 26.9629
147.241 833 28.8617
147.358 813 28.5132
147.475 821 28.6531
147.592 831 28.8271
147.709 790 28.1069
147.826 838 28.9482
147.943 852 29.189
148.06 877 29.6142
148.177 846 29.0861
148.294 844 29.0517
148.411 817 28.5832
148.528 840 28.9828
148.645 836 28.9137
148.762 849 29.1376
148.88 812 28.4956
148.997 805 28.3725
149.114 839 28.9655
149.231 825 28.7228
149.349 855 29.2404
149.466 761 27.5862
149.583 834 28.8791
149.701 731 27.037
149.818 695 26.3629
149.935 677 26.0192
150.053 719 26.8142
150.17 671 25.9037
150.287 676 26
150.405 700 26.4575
150.522 727 26.9629
150.64 686 26.1916
150.757 801 28.3019
150.875 794 28.178
150.992 797 28.2312
151.11 788 28.0713
151.227 784 28
151.344 811 28.4781
151.462 850 29.1548
151.579 857 29.2746
151.697 860 29.3258
151.814 826 28.7402
151.932 823 28.688
152.049 806 28.3901
152.167 899 29.9833
152.284 839 28.9655
152.402 856 29.2575
152.519 781 27.9464
152.636 845 29.0689
152.754 846 29.0861
152.871 869 29.4788
152.989 817 28.5832
153.106 841 29
153.223 803 28.3373
153.341 769 27.7308
153.458 797 28.2312
153.575 672 25.923
153.693 730 27.0185
153.81 714 26.7208
153.927 699 26.4386
154.044 754 27.4591
154.162 763 27.6225
154.279 845 29.0689
154.396 870 29.4958
154.513 821 28.6531
154.63 866 29.4279
154.747 896 29.9333
154.864 937 30.6105
154.981 882 29.6985
155.098 886 29.7658
155.215 865 29.4109
155.332 832 28.8444
155.449 883 29.7153
155.566 913 30.2159
155.683 875 29.5804
155.8 891 29.8496
155.917 890 29.8329
156.033 885 29.7489
156.15 0 1
156.267 0 1
156.383 0 1
156.5 0 1
156.617 0 1
156.733 0 1
156.85 0 1
156.966 0 1
157.082 0 1
157.199 0 1
157.315 0 1
157.431 0 1
157.547 0 1
157.664 0 1
157.78 0 1
157.896 0 1
158.012 0 1
158.128 0 1
158.244 0 1
158.359 0 1
158.475 0 1
158.591 0 1
158.706 0 1
