
6.15755 0 1
6.2731 0 1
6.3887 0 1
6.50437 0 1
6.62009 0 1
6.73587 0 1
6.8517 0 1
6.96759 0 1
7.08353 0 1
7.19952 0 1
7.31557 0 1
7.43166 0 1
7.54781 0 1
7.664 0 1
7.78024 0 1
7.89653 0 1
8.01286 0 1
8.12924 0 1
8.24567 0 1
8.36213 0 1
8.47864 0 1
8.59519 0 1
8.71178 0 1
8.82841 0 1
8.94508 0 1
9.06179 0 1
9.17853 0 1
9.29531 0 1
9.41212 0 1
9.52897 0 1
9.64584 0 1
9.76276 0 1
9.8797 0 1
9.99667 0 1
10.1137 0 1
10.2307 0 1
10.3478 0 1
10.4648 0 1
10.5819 0 1
10.6991 0 1
10.8162 0 1
10.9334 0 1
11.0506 0 1
11.1678 0 1
11.285 0 1
11.4023 0 1
11.5196 0 1
11.6369 0 1
11.7542 0 1
11.8715 0 1
11.9888 0 1
12.1062 0 1
12.2235 0 1
12.3409 0 1
12.4582 0 1
12.5756 0 1
12.693 0 1
12.8104 0 1
12.9278 0 1
13.0452 0 1
13.1626 0 1
13.28 0 1
13.3974 0 1
13.5149 0 1
13.6323 0 1
13.7497 0 1
13.8671 0 1
13.9845 0 1
14.1019 0 1
14.2193 0 1
14.3367 0 1
14.4541 0 1
14.5714 0 1
14.6888 0 1
14.8062 0 1
14.9235 0 1
15.0408 0 0
15.1581 0 0
15.2755 0 0
15.3927 0 0
15.51 0 0
15.6273 0 0
15.7445 0 0
15.8617 0 0
15.9789 0 0
16.0961 0 0
16.2132 0 0
16.3304 0 0
16.4475 0 0
16.5646 0 0
16.6816 0 0
16.7986 0 0
16.9156 0 0
17.0326 0 0
17.1496 0 0
17.2665 0 0
17.3833 0 0
17.5002 0 0
17.617 0 0
17.7338 0 0
17.8505 0 0
17.9672 0 0
18.0839 0 0
18.2005 0 0
18.3171 0 0
18.4337 0 0
18.5502 0 0
18.6666 0 0
18.7831 0 0
18.8994 0 0
19.0158 0 0
19.1321 0 0
19.2483 0 0
19.3645 0 0
19.4806 0 0
19.5967 0 0
19.7128 0 0
19.8288 0 0
19.9447 0 0
20.0606 0 1
20.1764 0 1
20.2922 0 1
20.4079 0 1
20.5236 0 1
20.6392 0 1
20.7548 0 1
20.8702 0 1
23.3078 0 1
23.4233 0 1
23.539 0 1
23.6547 0 1
23.7704 0 1
23.8862 0 1
24.0021 0 1
24.118 0 1
24.234 0 1
24.35 0 1
24.4661 542 23.2809
24.5822 614 24.779
24.6984 691 26.2869
24.8146 751 27.4044
24.9309 809 28.4429
25.0472 760 27.5681
25.1636 777 27.8747
25.28 840 28.9828
25.3965 871 29.5127
25.513 934 30.5614
25.6296 995 31.5436
25.7462 1056 32.4962
25.8628 1044 32.311
25.9795 1107 33.2716
26.0962 1124 33.5261
26.213 1123 33.5112
26.3298 1149 33.8969
26.4466 1005 31.7017
26.5635 941 30.6757
26.6804 1017 31.8904
26.7973 927 30.4467
26.9143 951 30.8383
27.0313 925 30.4138
27.1483 1034 32.1559
27.2653 1001 31.6386
27.3824 1033 32.1403
27.4996 1103 33.2114
27.6167 1049 32.3883
27.7339 1052 32.4345
27.8511 1047 32.3574
27.9683 958 30.9516
28.0855 905 30.0832
28.2028 930 30.4959
28.3201 916 30.2655
28.4374 951 30.8383
28.5547 861 29.3428
28.6721 849 29.1376
28.7894 870 29.4958
28.9068 876 29.5973
29.0242 908 30.133
29.1416 922 30.3645
29.259 964 31.0483
29.3764 1047 32.3574
29.4939 1024 32
29.6113 1027 32.0468
29.7288 1025 32.0156
29.8463 955 30.9031
29.9638 986 31.4006
30.0812 992 31.496
30.1987 884 29.7321
30.3162 824 28.7054
30.4337 808 28.4253
30.5512 918 30.2985
30.6687 955 30.9031
30.7862 914 30.2324
30.9037 958 30.9516
31.0212 904 30.0666
31.1387 960 30.9839
31.2562 960 30.9839
31.3737 953 30.8707
31.4912 919 30.315
31.6087 932 30.5287
31.7262 918 30.2985
31.8436 908 30.133
31.9611 901 30.0167
32.0785 860 29.3258
32.1959 833 28.8617
32.3134 860 29.3258
32.4308 855 29.2404
32.5482 856 29.2575
32.6655 923 30.3809
32.7829 881 29.6816
32.9002 976 31.241
33.0176 930 30.4959
33.1349 946 30.7571
33.2522 965 31.0644
33.3694 983 31.3528
33.4867 895 29.9166
33.6039 945 30.7409
33.7211 927 30.4467
33.8383 871 29.5127
33.9554 825 28.7228
34.0725 800 28.2843
34.1896 782 27.9643
34.3067 838 28.9482
34.4237 944 30.7246
34.5407 910 30.1662
34.6577 893 29.8831
34.7746 902 30.0333
34.8915 901 30.0167
35.0084 914 30.2324
35.1252 939 30.6431
35.242 904 30.0666
35.3587 873 29.5466
35.4755 863 29.3769
35.5921 808 28.4253
35.7088 832 28.8444
35.8254 815 28.5482
35.9419 794 28.178
36.0584 760 27.5681
36.1749 748 27.3496
36.2913 729 27
36.4077 692 26.3059
36.524 768 27.7128
36.6403 677 26.0192
36.7565 704 26.533
36.8727 643 25.3574
36.9889 575 23.9792
37.1049 580 24.0832
37.221 0 1
37.3369 0 1
37.4529 0 1
37.5687 0 1
37.6845 0 1
37.8003 0 1
37.916 0 1
38.0316 0 1
38.1472 0 1
40.5851 0 1
40.7008 0 1
40.8164 0 1
40.9322 0 1
41.048 0 1
41.1639 0 1
41.2798 0 1
41.3958 0 1
41.5118 0 1
41.6279 0 1
41.744 518 22.7596
41.8602 553 23.516
41.9765 619 24.8797
42.0928 655 25.593
42.2091 643 25.3574
42.3255 655 25.593
42.4419 697 26.4008
42.5584 685 26.1725
42.675 651 25.5147
42.7915 626 25.02
42.9081 657 25.632
43.0248 716 26.7582
43.1415 689 26.2488
43.2582 746 27.313
43.375 755 27.4773
43.4918 798 28.2489
43.6087 796 28.2135
43.7256 778 27.8927
43.8425 820 28.6356
43.9595 777 27.8747
44.0765 723 26.8887
44.1935 780 27.9285
44.3106 740 27.2029
44.4277 685 26.1725
44.5448 707 26.5895
44.6619 633 25.1595
44.7791 602 24.5357
44.8963 681 26.096
45.0136 668 25.8457
45.1308 694 26.3439
45.2481 751 27.4044
45.3654 764 27.6405
45.4827 809 28.4429
45.6001 780 27.9285
45.7174 739 27.1846
45.8348 775 27.8388
45.9522 767 27.6948
46.0697 764 27.6405
46.1871 699 26.4386
46.3046 672 25.923
46.422 656 25.6125
46.5395 665 25.7876
46.657 742 27.2397
46.7745 799 28.2666
46.892 759 27.55
47.0096 768 27.7128
47.1271 836 28.9137
47.2446 859 29.3087
47.3622 856 29.2575
47.4797 782 27.9643
47.5973 754 27.4591
47.7149 754 27.4591
47.8324 701 26.4764
47.95 772 27.7849
48.0675 691 26.2869
48.1851 660 25.6905
48.3027 651 25.5147
48.4202 606 24.6171
48.5378 705 26.5518
48.6554 705 26.5518
48.7729 722 26.8701
48.8904 765 27.6586
49.008 768 27.7128
49.1255 771 27.7669
49.243 832 28.8444
49.3605 845 29.0689
49.478 832 28.8444
49.5955 736 27.1293
49.713 708 26.6083
49.8304 632 25.1396
49.9479 631 25.1197
50.0653 652 25.5343
50.1827 705 26.5518
50.3001 703 26.5141
50.4175 801 28.3019
50.5348 808 28.4253
50.6521 816 28.5657
50.7694 836 28.9137
50.8867 794 28.178
51.004 738 27.1662
51.1212 822 28.6705
51.2384 773 27.8029
51.3556 704 26.533
51.4727 775 27.8388
51.5899 696 26.3818
51.707 644 25.3772
51.824 627 25.04
51.9411 635 25.1992
52.0581 690 26.2679
52.175 688 26.2298
52.2919 710 26.6458
52.4088 738 27.1662
52.5257 787 28.0535
52.6425 782 27.9643
52.7593 746 27.313
52.876 773 27.8029
52.9927 742 27.2397
53.1094 759 27.55
53.226 725 26.9258
53.3426 665 25.7876
53.4591 595 24.3926
53.5756 555 23.5584
53.692 546 23.3666
53.8084 538 23.1948
53.9248 510 22.5832
54.0411 519 22.7816
54.1573 470 21.6795
54.2735 0 1
54.3896 0 1
54.5057 0 1
54.6217 0 1
54.7377 0 1
54.8537 0 1
54.9695 0 1
55.0853 0 1
55.2011 0 1
55.3168 0 1
55.4324 0 1
57.824 0 1
57.9396 0 1
58.0553 0 1
58.1711 0 1
58.2869 0 1
58.4028 0 1
58.5187 0 1
58.6347 0 1
58.7508 0 1
58.8669 0 1
58.983 525 22.9129
59.0992 646 25.4165
59.2155 698 26.4197
59.3318 759 27.55
59.4482 786 28.0357
59.5646 859 29.3087
59.681 917 30.282
59.7975 906 30.0998
59.9141 922 30.3645
60.0306 880 29.6648
60.1473 871 29.5127
60.2639 804 28.3549
60.3807 807 28.4077
60.4974 786 28.0357
60.6142 745 27.2947
60.731 825 28.7228
60.8479 844 29.0517
60.9648 873 29.5466
61.0818 906 30.0998
61.1987 928 30.4631
61.3158 857 29.2746
61.4328 933 30.545
61.5499 928 30.4631
61.667 913 30.2159
61.7841 888 29.7993
61.9013 825 28.7228
62.0185 756 27.4955
62.1357 743 27.258
62.253 825 28.7228
62.3702 824 28.7054
62.4875 911 30.1828
62.6049 876 29.5973
62.7222 992 31.496
62.8396 936 30.5941
62.9569 996 31.5595
63.0743 920 30.3315
63.1918 974 31.209
63.3092 915 30.249
63.4267 860 29.3258
63.5441 887 29.7825
63.6616 832 28.8444
63.7791 846 29.0861
63.8966 818 28.6007
64.0142 763 27.6225
64.1317 752 27.4226
64.2492 820 28.6356
64.3668 764 27.6405
64.4843 804 28.3549
64.6019 868 29.4618
64.7195 890 29.8329
64.837 874 29.5635
64.9546 922 30.3645
65.0722 926 30.4302
65.1898 843 29.0345
65.3074 947 30.7734
65.4249 796 28.2135
65.5425 795 28.1957
65.6601 723 26.8887
65.7777 752 27.4226
65.8952 874 29.5635
66.0128 809 28.4429
66.1304 852 29.189
66.2479 966 31.0805
66.3655 937 30.6105
66.483 935 30.5778
66.6005 962 31.0161
66.718 888 29.7993
66.8355 949 30.8058
66.953 885 29.7489
67.0705 888 29.7993
67.1879 823 28.688
67.3054 814 28.5307
67.4228 770 27.7489
67.5402 691 26.2869
67.6576 696 26.3818
67.7749 710 26.6458
67.8923 665 25.7876
68.0096 780 27.9285
68.1269 799 28.2666
68.2442 868 29.4618
68.3614 930 30.4959
68.4787 847 29.1033
68.5958 880 29.6648
68.713 852 29.189
68.8302 834 28.8791
68.9473 818 28.6007
69.0643 867 29.4449
69.1814 769 27.7308
69.2984 739 27.1846
69.4154 695 26.3629
69.5323 683 26.1343
69.6492 733 27.074
69.7661 800 28.2843
69.8829 876 29.5973
69.9997 794 28.178
70.1165 781 27.9464
70.2332 784 28
70.3499 762 27.6043
70.4665 766 27.6767
70.5831 744 27.2764
70.6996 594 24.3721
70.8161 544 23.3238
70.9326 536 23.1517
71.049 466 21.587
71.1653 414 20.347
71.2817 349 18.6815
71.3979 319 17.8606
71.5141 300 17.3205
71.6303 301 17.3494
71.7464 292 17.088
71.8624 0 1
71.9784 0 1
72.0944 0 1
72.2102 0 1
72.3261 0 1
72.4418 0 1
72.5575 0 1
72.6732 0 1
75.1054 0 1
75.2209 0 1
75.3365 0 1
75.4521 0 1
75.5678 0 1
75.6835 0 1
75.7993 0 1
75.9151 0 1
76.031 0 1
76.147 568 23.8328
76.263 690 26.2679
76.3791 590 24.2899
76.4952 648 25.4558
76.6113 659 25.671
76.7276 602 24.5357
76.8438 676 26
76.9601 680 26.0768
77.0765 768 27.7128
77.1929 804 28.3549
77.3093 784 28
77.4258 821 28.6531
77.5423 843 29.0345
77.6589 807 28.4077
77.7755 814 28.5307
77.8921 791 28.1247
78.0088 785 28.0179
78.1256 688 26.2298
78.2423 677 26.0192
78.3591 615 24.7992
78.4759 656 25.6125
78.5928 685 26.1725
78.7097 807 28.4077
78.8266 818 28.6007
78.9436 822 28.6705
79.0606 869 29.4788
79.1776 876 29.5973
79.2946 888 29.7993
79.4117 894 29.8998
79.5288 860 29.3258
79.6459 904 30.0666
79.7631 870 29.4958
79.8802 805 28.3725
79.9974 788 28.0713
80.1147 722 26.8701
80.2319 710 26.6458
80.3491 647 25.4362
80.4664 690 26.2679
80.5837 744 27.2764
80.701 783 27.9821
80.8183 809 28.4429
80.9357 832 28.8444
81.053 831 28.8271
81.1704 854 29.2233
81.2877 831 28.8271
81.4051 869 29.4788
81.5225 863 29.3769
81.6399 839 28.9655
81.7573 747 27.3313
81.8747 716 26.7582
81.9922 689 26.2488
82.1096 732 27.0555
82.227 682 26.1151
82.3444 813 28.5132
82.4619 866 29.4279
82.5793 936 30.5941
82.6967 882 29.6985
82.8142 818 28.6007
82.9316 923 30.3809
83.049 922 30.3645
83.1664 888 29.7993
83.2838 890 29.8329
83.4012 855 29.2404
83.5186 837 28.931
83.636 849 29.1376
83.7534 738 27.1662
83.8708 673 25.9422
83.9881 698 26.4197
84.1055 731 27.037
84.2228 721 26.8514
84.3401 790 28.1069
84.4575 812 28.4956
84.5747 919 30.315
84.692 912 30.1993
84.8093 882 29.6985
84.9265 847 29.1033
85.0437 867 29.4449
85.1609 886 29.7658
85.2781 852 29.189
85.3952 676 26
85.5123 702 26.4953
85.6294 700 26.4575
85.7465 755 27.4773
85.8636 815 28.5482
85.9806 835 28.8964
86.0976 822 28.6705
86.2145 925 30.4138
86.3315 882 29.6985
86.4484 954 30.8869
86.5652 886 29.7658
86.682 929 30.4795
86.7988 868 29.4618
86.9156 895 29.9166
87.0323 842 29.0172
87.149 794 28.178
87.2657 706 26.5707
87.3823 662 25.7294
87.4988 647 25.4362
87.6154 610 24.6982
87.7318 594 24.3721
87.8483 657 25.632
87.9647 630 25.0998
88.081 671 25.9037
88.1973 693 26.3249
88.3136 636 25.219
88.4298 595 24.3926
88.546 448 21.166
88.6621 422 20.5426
88.7781 370 19.2354
88.8942 0 1
89.0101 0 1
89.126 0 1
89.2419 0 1
89.3577 0 1
89.4734 0 1
89.5891 0 1
89.7047 0 1
89.8203 0 1
89.9358 0 1
92.3269 0 1
92.4424 0 1
92.558 0 1
92.6736 0 1
92.7893 0 1
92.905 0 1
93.0208 0 1
93.1366 0 1
93.2525 0 1
93.3685 0 1
93.4845 0 1
93.6005 819 28.6182
93.7167 910 30.1662
93.8328 909 30.1496
93.949 894 29.8998
94.0653 883 29.7153
94.1816 824 28.7054
94.2979 799 28.2666
94.4143 781 27.9464
94.5307 819 28.6182
94.6472 873 29.5466
94.7637 949 30.8058
94.8803 943 30.7083
94.9969 1018 31.9061
95.1135 1004 31.686
95.2302 993 31.5119
95.3469 1000 31.6228
95.4637 987 31.4166
95.5805 1021 31.9531
95.6973 959 30.9677
95.8142 954 30.8869
95.9311 867 29.4449
96.048 799 28.2666
96.1649 751 27.4044
96.2819 768 27.7128
96.3989 829 28.7924
96.516 840 28.9828
96.633 941 30.6757
96.7501 916 30.2655
96.8673 888 29.7993
96.9844 963 31.0322
97.1016 940 30.6594
97.2188 995 31.5436
97.336 918 30.2985
97.4532 851 29.1719
97.5704 801 28.3019
97.6877 730 27.0185
97.805 793 28.1603
97.9223 806 28.3901
98.0396 820 28.6356
98.1569 901 30.0167
98.2743 961 31
98.3916 992 31.496
98.509 963 31.0322
98.6264 996 31.5595
98.7438 963 31.0322
98.8612 986 31.4006
98.9786 983 31.3528
99.096 929 30.4795
99.2134 932 30.5287
99.3308 902 30.0333
99.4482 854 29.2233
99.5656 776 27.8568
99.6831 779 27.9106
99.8005 810 28.4605
99.9179 837 28.931
100.035 811 28.4781
100.153 927 30.4467
100.27 950 30.8221
100.388 1002 31.6544
100.505 952 30.8545
100.622 936 30.5941
100.74 929 30.4795
100.857 909 30.1496
100.975 873 29.5466
101.092 905 30.0832
101.209 804 28.3549
101.327 746 27.313
101.444 773 27.8029
101.561 809 28.4429
101.679 868 29.4618
101.796 884 29.7321
101.913 943 30.7083
102.03 996 31.5595
102.148 971 31.1609
102.265 890 29.8329
102.382 1059 32.5423
102.499 1031 32.1092
102.616 1055 32.4808
102.733 978 31.273
102.851 995 31.5436
102.968 981 31.3209
103.085 922 30.3645
103.202 817 28.5832
103.319 788 28.0713
103.436 807 28.4077
103.552 862 29.3598
103.669 992 31.496
103.786 1042 32.28
103.903 1069 32.6956
104.02 1240 35.2136
104.137 1143 33.8083
104.253 1207 34.7419
104.37 1170 34.2053
104.487 1180 34.3511
104.603 1165 34.1321
104.72 1184 34.4093
104.836 1099 33.1512
104.953 1068 32.6803
105.069 1012 31.8119
105.186 975 31.225
105.302 1082 32.8938
105.418 1020 31.9374
105.535 1065 32.6343
105.651 1001 31.6386
105.767 936 30.5941
105.883 842 29.0172
105.999 753 27.4408
106.115 0 1
106.231 0 1
106.347 0 1
106.463 0 1
106.579 0 1
106.694 0 1
106.81 0 1
106.926 0 1
107.041 0 1
107.157 0 1
109.576 0 1
109.692 0 1
109.807 0 1
109.923 0 1
110.039 0 1
110.155 0 1
110.27 0 1
110.386 0 1
110.502 0 1
110.618 1281 35.7911
110.735 1634 40.4228
110.851 1800 42.4264
110.967 2079 45.5961
111.083 2249 47.4236
111.199 2401 49
111.316 2550 50.4975
111.432 2588 50.8724
111.549 2531 50.309
111.665 2643 51.4101
111.782 2611 51.0979
111.898 2475 49.7494
112.015 2411 49.1019
112.132 2176 46.6476
112.248 2184 46.7333
112.365 2085 45.6618
112.482 2132 46.1736
112.599 2294 47.8957
112.716 2442 49.4166
112.832 2680 51.7687
112.949 2646 51.4393
113.066 2627 51.2543
113.183 2633 51.3128
113.3 2543 50.4282
113.417 2511 50.1099
113.534 2394 48.9285
113.652 2295 47.9062
113.769 2037 45.1331
113.886 2040 45.1664
114.003 1935 43.9886
114.12 1991 44.6206
114.238 2059 45.3762
114.355 2211 47.0213
114.472 2232 47.244
114.589 2293 47.8853
114.707 2286 47.8121
114.824 2194 46.8402
114.942 2286 47.8121
115.059 2256 47.4974
115.176 2229 47.2123
115.294 2124 46.0869
115.411 2120 46.0435
115.529 1987 44.5758
115.646 1852 43.0349
115.764 1684 41.0366
115.881 1604 40.05
115.999 1509 38.8458
116.116 1583 39.7869
116.234 1685 41.0488
116.351 1738 41.6893
116.469 1789 42.2966
116.586 1755 41.8927
116.704 1656 40.694
116.821 1727 41.5572
116.939 1571 39.6358
117.056 1502 38.7556
117.174 1406 37.4967
117.291 1334 36.524
117.409 1192 34.5254
117.526 1083 32.909
117.644 1051 32.4191
117.761 1098 33.1361
117.879 1141 33.7787
117.996 1154 33.9706
118.114 1175 34.2783
118.231 1156 34
118.349 1118 33.4365
118.466 1116 33.4066
118.584 1053 32.45
118.701 1083 32.909
118.819 1040 32.249
118.936 1021 31.9531
119.053 996 31.5595
119.171 940 30.6594
119.288 876 29.5973
119.405 800 28.2843
119.523 782 27.9643
119.64 843 29.0345
119.757 824 28.7054
119.875 904 30.0666
119.992 887 29.7825
120.109 913 30.2159
120.226 887 29.7825
120.343 933 30.545
120.46 936 30.5941
120.578 880 29.6648
120.695 837 28.931
120.812 790 28.1069
120.929 762 27.6043
121.046 863 29.3769
121.163 709 26.6271
121.279 719 26.8142
121.396 715 26.7395
121.513 715 26.7395
121.63 728 26.9815
121.747 796 28.2135
121.863 736 27.1293
121.98 701 26.4764
122.097 740 27.2029
122.213 725 26.9258
122.33 759 27.55
122.446 652 25.5343
122.563 653 25.5539
122.679 595 24.3926
122.795 562 23.7065
122.912 465 21.5639
123.028 425 20.6155
123.144 356 18.868
123.26 348 18.6548
123.377 0 1
123.493 0 1
123.609 0 1
123.725 0 1
123.84 0 1
123.956 0 1
124.072 0 1
124.188 0 1
124.303 0 1
124.419 0 1
126.852 0 1
126.968 0 1
127.083 0 1
127.199 0 1
127.315 0 1
127.431 0 1
127.547 0 1
127.663 0 1
127.779 0 1
127.895 0 1
128.011 0 1
128.127 0 1
128.243 0 1
128.359 739 27.1846
128.476 750 27.3861
128.592 725 26.9258
128.708 791 28.1247
128.825 780 27.9285
128.941 903 30.05
129.058 904 30.0666
129.174 871 29.5127
129.291 972 31.1769
129.408 881 29.6816
129.524 881 29.6816
129.641 818 28.6007
129.758 825 28.7228
129.875 821 28.6531
129.992 723 26.8887
130.108 761 27.5862
130.225 764 27.6405
130.342 774 27.8209
130.459 790 28.1069
130.576 865 29.4109
130.693 866 29.4279
130.81 873 29.5466
130.928 960 30.9839
131.045 855 29.2404
131.162 939 30.6431
131.279 908 30.133
131.396 939 30.6431
131.513 918 30.2985
131.631 868 29.4618
131.748 844 29.0517
131.865 765 27.6586
131.983 744 27.2764
132.1 757 27.5136
132.217 785 28.0179
132.335 845 29.0689
132.452 851 29.1719
132.57 888 29.7993
132.687 887 29.7825
132.804 919 30.315
132.922 882 29.6985
133.039 901 30.0167
133.157 890 29.8329
133.274 876 29.5973
133.392 791 28.1247
133.509 729 27
133.627 793 28.1603
133.744 753 27.4408
133.862 746 27.313
133.979 743 27.258
134.097 781 27.9464
134.214 869 29.4788
134.332 881 29.6816
134.449 844 29.0517
134.567 916 30.2655
134.684 882 29.6985
134.802 885 29.7489
134.919 952 30.8545
135.037 930 30.4959
135.154 877 29.6142
135.272 844 29.0517
135.389 805 28.3725
135.507 731 27.037
135.624 742 27.2397
135.742 733 27.074
135.859 774 27.8209
135.977 885 29.7489
136.094 807 28.4077
136.211 818 28.6007
136.329 821 28.6531
136.446 889 29.8161
136.564 866 29.4279
136.681 852 29.189
136.798 858 29.2916
136.915 794 28.178
137.033 784 28
137.15 780 27.9285
137.267 746 27.313
137.384 676 26
137.502 698 26.4197
137.619 766 27.6767
137.736 777 27.8747
137.853 765 27.6586
137.97 809 28.4429
138.087 824 28.7054
138.204 854 29.2233
138.321 811 28.4781
138.438 825 28.7228
138.555 834 28.8791
138.672 867 29.4449
138.788 824 28.7054
138.905 733 27.074
139.022 690 26.2679
139.139 670 25.8844
139.255 571 23.8956
139.372 569 23.8537
139.488 652 25.5343
139.605 627 25.04
139.721 622 24.9399
139.838 632 25.1396
139.954 584 24.1661
140.071 550 23.4521
140.187 475 21.7945
140.303 456 21.3542
140.419 381 19.5192
140.535 372 19.2873
140.652 351 18.735
140.768 0 1
140.884 0 1
141 0 1
141.115 0 1
141.231 0 1
141.347 0 1
141.463 0 1
141.578 0 1
141.694 0 1
144.104 0 1
144.219 0 1
144.335 0 1
144.45 0 1
144.566 0 1
144.682 0 1
144.798 0 1
144.914 0 1
145.03 0 1
145.146 681 26.096
145.262 687 26.2107
145.378 709 26.6271
145.494 682 26.1151
145.61 673 25.9422
145.726 628 25.0599
145.842 642 25.3377
145.959 617 24.8395
146.075 589 24.2693
146.192 623 24.96
146.308 655 25.593
146.425 653 25.5539
146.541 656 25.6125
146.658 677 26.0192
146.774 672 25.923
146.891 677 26.0192
147.008 698 26.4197
147.125 718 26.7955
147.241 764 27.6405
147.358 776 27.8568
147.475 686 26.1916
147.592 714 26.7208
147.709 725 26.9258
147.826 663 25.7488
147.943 627 25.04
148.06 651 25.5147
148.177 633 25.1595
148.294 684 26.1534
148.411 681 26.096
148.528 725 26.9258
148.645 743 27.258
148.762 692 26.3059
148.88 714 26.7208
148.997 740 27.2029
149.114 718 26.7955
149.231 692 26.3059
149.349 649 25.4755
149.466 610 24.6982
149.583 607 24.6374
149.701 596 24.4131
149.818 648 25.4558
149.935 635 25.1992
150.053 652 25.5343
150.17 647 25.4362
150.287 641 25.318
150.405 702 26.4953
150.522 705 26.5518
150.64 674 25.9615
150.757 712 26.6833
150.875 755 27.4773
150.992 797 28.2312
151.11 668 25.8457
151.227 681 26.096
151.344 699 26.4386
151.462 619 24.8797
151.579 599 24.4745
151.697 591 24.3105
151.814 640 25.2982
151.932 727 26.9629
152.049 693 26.3249
152.167 715 26.7395
152.284 683 26.1343
152.402 734 27.0924
152.519 690 26.2679
152.636 689 26.2488
152.754 684 26.1534
152.871 658 25.6515
152.989 660 25.6905
153.106 618 24.8596
153.223 538 23.1948
153.341 622 24.9399
153.458 577 24.0208
153.575 636 25.219
153.693 620 24.8998
153.81 642 25.3377
153.927 674 25.9615
154.044 675 25.9808
154.162 644 25.3772
154.279 670 25.8844
154.396 676 26
154.513 714 26.7208
154.63 712 26.6833
154.747 731 27.037
154.864 693 26.3249
154.981 731 27.037
155.098 645 25.3969
155.215 629 25.0799
155.332 620 24.8998
155.449 626 25.02
155.566 658 25.6515
155.683 666 25.807
155.8 717 26.7769
155.917 618 24.8596
156.033 644 25.3772
156.15 0 1
156.267 0 1
156.383 0 1
156.5 0 1
156.617 0 1
156.733 0 1
156.85 0 1
156.966 0 1
157.082 0 1
157.199 0 1
157.315 0 1
157.431 0 1
157.547 0 1
157.664 0 1
157.78 0 1
157.896 0 1
158.012 0 1
158.128 0 1
158.244 0 1
158.359 0 1
158.475 0 1
158.591 0 1
158.706 0 1
