
6.15755 0 1
6.2731 0 1
6.3887 0 1
6.50437 0 1
6.62009 0 1
6.73587 0 1
6.8517 0 1
6.96759 0 1
7.08353 0 1
7.19952 0 1
7.31557 0 1
7.43166 0 1
7.54781 0 1
7.664 0 1
7.78024 0 1
7.89653 0 1
8.01286 0 1
8.12924 0 1
8.24567 0 1
8.36213 0 1
8.47864 0 1
8.59519 0 1
8.71178 0 1
8.82841 0 1
8.94508 0 1
9.06179 0 1
9.17853 0 1
9.29531 0 1
9.41212 0 1
9.52897 0 1
9.64584 0 1
9.76276 0 1
9.8797 0 1
9.99667 0 1
10.1137 0 1
10.2307 0 1
10.3478 0 1
10.4648 0 1
10.5819 0 1
10.6991 0 1
10.8162 0 1
10.9334 0 1
11.0506 0 1
11.1678 0 1
11.285 0 1
11.4023 0 1
11.5196 0 1
11.6369 0 1
11.7542 0 1
11.8715 0 1
11.9888 0 1
12.1062 0 1
12.2235 0 1
12.3409 0 1
12.4582 0 1
12.5756 0 1
12.693 0 1
12.8104 0 1
12.9278 0 1
13.0452 0 1
13.1626 0 1
13.28 0 1
13.3974 0 1
13.5149 0 1
13.6323 0 1
13.7497 0 1
13.8671 0 1
13.9845 0 1
14.1019 0 1
14.2193 0 1
14.3367 0 1
14.4541 0 1
14.5714 0 1
14.6888 0 1
14.8062 0 1
14.9235 0 1
15.0408 1064 32.619
15.1581 1082 32.8938
15.2755 1182 34.3802
15.3927 1207 34.7419
15.51 1167 34.1614
15.6273 1199 34.6266
15.7445 1202 34.6699
15.8617 1142 33.7935
15.9789 1160 34.0588
16.0961 1157 34.0147
16.2132 1178 34.322
16.3304 1182 34.3802
16.4475 1179 34.3366
16.5646 1275 35.7071
16.6816 1357 36.8375
16.7986 1308 36.1663
16.9156 1365 36.9459
17.0326 1369 37
17.1496 1368 36.9865
17.2665 1351 36.756
17.3833 1372 37.0405
17.5002 1314 36.2491
17.617 1235 35.1426
17.7338 1219 34.9142
17.8505 1193 34.5398
17.9672 1193 34.5398
18.0839 1193 34.5398
18.2005 1294 35.9722
18.3171 1287 35.8748
18.4337 1325 36.4005
18.5502 1250 35.3553
18.6666 1382 37.1753
18.7831 1374 37.0675
18.8994 1404 37.47
19.0158 1370 37.0135
19.1321 1329 36.4555
19.2483 1239 35.1994
19.3645 1217 34.8855
19.4806 1066 32.6497
19.5967 1008 31.749
19.7128 935 30.5778
19.8288 908 30.133
19.9447 863 29.3769
20.0606 0 1
20.1764 0 1
20.2922 0 1
20.4079 0 1
20.5236 0 1
20.6392 0 1
20.7548 0 1
20.8702 0 1
23.3078 0 1
23.4233 0 1
23.539 0 1
23.6547 0 1
23.7704 0 1
23.8862 0 1
24.0021 0 1
24.118 0 1
24.234 0 1
24.35 0 1
24.4661 610 24.6982
24.5822 659 25.671
24.6984 808 28.4253
24.8146 886 29.7658
24.9309 912 30.1993
25.0472 1021 31.9531
25.1636 1074 32.7719
25.28 1186 34.4384
25.3965 1254 35.4119
25.513 1373 37.054
25.6296 1348 36.7151
25.7462 1445 38.0132
25.8628 1501 38.7427
25.9795 1476 38.4187
26.0962 1441 37.9605
26.213 1400 37.4166
26.3298 1309 36.1801
26.4466 1308 36.1663
26.5635 1242 35.242
26.6804 1230 35.0714
26.7973 1268 35.609
26.9143 1274 35.6931
27.0313 1326 36.4143
27.1483 1409 37.5366
27.2653 1435 37.8814
27.3824 1439 37.9342
27.4996 1422 37.7094
27.6167 1380 37.1484
27.7339 1391 37.2961
27.8511 1355 36.8103
27.9683 1324 36.3868
28.0855 1265 35.5668
28.2028 1235 35.1426
28.3201 1163 34.1028
28.4374 1198 34.6121
28.5547 1193 34.5398
28.6721 1225 35
28.7894 1302 36.0832
28.9068 1297 36.0139
29.0242 1422 37.7094
29.1416 1498 38.704
29.259 1447 38.0395
29.3764 1480 38.4708
29.4939 1411 37.5633
29.6113 1387 37.2424
29.7288 1325 36.4005
29.8463 1257 35.4542
29.9638 1199 34.6266
30.0812 1178 34.322
30.1987 1179 34.3366
30.3162 1224 34.9857
30.4337 1224 34.9857
30.5512 1270 35.6371
30.6687 1261 35.5106
30.7862 1336 36.5513
30.9037 1356 36.8239
31.0212 1345 36.6742
31.1387 1413 37.5899
31.2562 1361 36.8917
31.3737 1371 37.027
31.4912 1335 36.5377
31.6087 1206 34.7275
31.7262 1199 34.6266
31.8436 1248 35.327
31.9611 1146 33.8526
32.0785 1127 33.5708
32.1959 1141 33.7787
32.3134 1300 36.0555
32.4308 1282 35.805
32.5482 1320 36.3318
32.6655 1345 36.6742
32.7829 1360 36.8782
32.9002 1414 37.6032
33.0176 1320 36.3318
33.1349 1363 36.9188
33.2522 1440 37.9473
33.3694 1316 36.2767
33.4867 1203 34.6843
33.6039 1155 33.9853
33.7211 1113 33.3617
33.8383 1071 32.7261
33.9554 1166 34.1467
34.0725 1265 35.5668
34.1896 1240 35.2136
34.3067 1258 35.4683
34.4237 1352 36.7696
34.5407 1330 36.4692
34.6577 1336 36.5513
34.7746 1413 37.5899
34.8915 1337 36.565
35.0084 1289 35.9026
35.1252 1219 34.9142
35.242 1157 34.0147
35.3587 1195 34.5688
35.4755 1134 33.6749
35.5921 1087 32.9697
35.7088 1085 32.9393
35.8254 1087 32.9697
35.9419 1120 33.4664
36.0584 1213 34.8281
36.1749 1241 35.2278
36.2913 1243 35.2562
36.4077 1235 35.1426
36.524 1140 33.7639
36.6403 1172 34.2345
36.7565 1124 33.5261
36.8727 1044 32.311
36.9889 1000 31.6228
37.1049 824 28.7054
37.221 0 1
37.3369 0 1
37.4529 0 1
37.5687 0 1
37.6845 0 1
37.8003 0 1
37.916 0 1
38.0316 0 1
38.1472 0 1
40.5851 0 1
40.7008 0 1
40.8164 0 1
40.9322 0 1
41.048 0 1
41.1639 0 1
41.2798 0 1
41.3958 0 1
41.5118 0 1
41.6279 0 1
41.744 639 25.2784
41.8602 697 26.4008
41.9765 762 27.6043
42.0928 788 28.0713
42.2091 753 27.4408
42.3255 733 27.074
42.4419 775 27.8388
42.5584 779 27.9106
42.675 815 28.5482
42.7915 884 29.7321
42.9081 1004 31.686
43.0248 1021 31.9531
43.1415 1013 31.8277
43.2582 1061 32.573
43.375 1137 33.7194
43.4918 1109 33.3017
43.6087 1091 33.0303
43.7256 1061 32.573
43.8425 1020 31.9374
43.9595 1031 32.1092
44.0765 986 31.4006
44.1935 930 30.4959
44.3106 934 30.5614
44.4277 906 30.0998
44.5448 889 29.8161
44.6619 887 29.7825
44.7791 904 30.0666
44.8963 997 31.5753
45.0136 1073 32.7567
45.1308 1093 33.0606
45.2481 1124 33.5261
45.3654 1108 33.2866
45.4827 1177 34.3074
45.6001 1139 33.7491
45.7174 1081 32.8786
45.8348 1037 32.2025
45.9522 946 30.7571
46.0697 910 30.1662
46.1871 925 30.4138
46.3046 934 30.5614
46.422 947 30.7734
46.5395 1038 32.218
46.657 1033 32.1403
46.7745 1102 33.1964
46.892 1122 33.4963
47.0096 1135 33.6898
47.1271 1147 33.8674
47.2446 1096 33.1059
47.3622 1059 32.5423
47.4797 1027 32.0468
47.5973 1032 32.1248
47.7149 1024 32
47.8324 1004 31.686
47.95 980 31.305
48.0675 867 29.4449
48.1851 895 29.9166
48.3027 975 31.225
48.4202 946 30.7571
48.5378 1057 32.5115
48.6554 1146 33.8526
48.7729 1195 34.5688
48.8904 1153 33.9559
49.008 1149 33.8969
49.1255 1110 33.3167
49.243 1042 32.28
49.3605 1035 32.1714
49.478 968 31.1127
49.5955 906 30.0998
49.713 874 29.5635
49.8304 906 30.0998
49.9479 941 30.6757
50.0653 980 31.305
50.1827 1041 32.2645
50.3001 1150 33.9116
50.4175 1141 33.7787
50.5348 1126 33.5559
50.6521 1192 34.5254
50.7694 1171 34.2199
50.8867 1243 35.2562
51.004 1222 34.9571
51.1212 1222 34.9571
51.2384 1122 33.4963
51.3556 1112 33.3467
51.4727 1094 33.0757
51.5899 1008 31.749
51.707 1045 32.3265
51.824 1087 32.9697
51.9411 1190 34.4964
52.0581 1270 35.6371
52.175 1472 38.3667
52.2919 1483 38.5097
52.4088 1521 39
52.5257 1584 39.7995
52.6425 1512 38.8844
52.7593 1643 40.5339
52.876 1597 39.9625
52.9927 1534 39.1663
53.1094 1395 37.3497
53.226 1330 36.4692
53.3426 1316 36.2767
53.4591 1294 35.9722
53.5756 1308 36.1663
53.692 1317 36.2905
53.8084 1344 36.6606
53.9248 1282 35.805
54.0411 1209 34.7707
54.1573 1175 34.2783
54.2735 0 1
54.3896 0 1
54.5057 0 1
54.6217 0 1
54.7377 0 1
54.8537 0 1
54.9695 0 1
55.0853 0 1
55.2011 0 1
55.3168 0 1
55.4324 0 1
57.824 0 1
57.9396 0 1
58.0553 0 1
58.1711 0 1
58.2869 0 1
58.4028 0 1
58.5187 0 1
58.6347 0 1
58.7508 0 1
58.8669 0 1
58.983 891 29.8496
59.0992 964 31.0483
59.2155 1013 31.8277
59.3318 1051 32.4191
59.4482 1128 33.5857
59.5646 1222 34.9571
59.681 1300 36.0555
59.7975 1306 36.1386
59.9141 1288 35.8887
60.0306 1239 35.1994
60.1473 1264 35.5528
60.2639 1195 34.5688
60.3807 1165 34.1321
60.4974 1168 34.176
60.6142 1190 34.4964
60.731 1309 36.1801
60.8479 1334 36.524
60.9648 1431 37.8286
61.0818 1426 37.7624
61.1987 1386 37.229
61.3158 1440 37.9473
61.4328 1370 37.0135
61.5499 1348 36.7151
61.667 1158 34.0294
61.7841 1176 34.2929
61.9013 1079 32.8481
62.0185 1155 33.9853
62.1357 1131 33.6303
62.253 1228 35.0428
62.3702 1255 35.426
62.4875 1309 36.1801
62.6049 1357 36.8375
62.7222 1322 36.3593
62.8396 1360 36.8782
62.9569 1357 36.8375
63.0743 1427 37.7757
63.1918 1426 37.7624
63.3092 1358 36.8511
63.4267 1352 36.7696
63.5441 1271 35.6511
63.6616 1307 36.1525
63.7791 1158 34.0294
63.8966 1123 33.5112
64.0142 1101 33.1813
64.1317 1228 35.0428
64.2492 1269 35.623
64.3668 1328 36.4417
64.4843 1367 36.973
64.6019 1409 37.5366
64.7195 1375 37.081
64.837 1402 37.4433
64.9546 1384 37.2022
65.0722 1263 35.5387
65.1898 1250 35.3553
65.3074 1076 32.8024
65.4249 1194 34.5543
65.5425 1036 32.187
65.6601 1076 32.8024
65.7777 1148 33.8821
65.8952 1202 34.6699
66.0128 1276 35.7211
66.1304 1289 35.9026
66.2479 1303 36.0971
66.3655 1373 37.054
66.483 1385 37.2156
66.6005 1406 37.4967
66.718 1390 37.2827
66.8355 1377 37.108
66.953 1255 35.426
67.0705 1269 35.623
67.1879 1269 35.623
67.3054 1179 34.3366
67.4228 1083 32.909
67.5402 1036 32.187
67.6576 1087 32.9697
67.7749 1085 32.9393
67.8923 1143 33.8083
68.0096 1315 36.2629
68.1269 1350 36.7423
68.2442 1326 36.4143
68.3614 1320 36.3318
68.4787 1318 36.3043
68.5958 1266 35.5809
68.713 1302 36.0832
68.8302 1211 34.7994
68.9473 1096 33.1059
69.0643 1013 31.8277
69.1814 1046 32.3419
69.2984 974 31.209
69.4154 1059 32.5423
69.5323 1108 33.2866
69.6492 1185 34.4238
69.7661 1228 35.0428
69.8829 1243 35.2562
69.9997 1273 35.6791
70.1165 1227 35.0286
70.2332 1167 34.1614
70.3499 1150 33.9116
70.4665 1073 32.7567
70.5831 1016 31.8748
70.6996 940 30.6594
70.8161 980 31.305
70.9326 844 29.0517
71.049 729 27
71.1653 617 24.8395
71.2817 573 23.9374
71.3979 496 22.2711
71.5141 463 21.5174
71.6303 440 20.9762
71.7464 454 21.3073
71.8624 0 1
71.9784 0 1
72.0944 0 1
72.2102 0 1
72.3261 0 1
72.4418 0 1
72.5575 0 1
72.6732 0 1
75.1054 0 1
75.2209 0 1
75.3365 0 1
75.4521 0 1
75.5678 0 1
75.6835 0 1
75.7993 0 1
75.9151 0 1
76.031 0 1
76.147 747 27.3313
76.263 854 29.2233
76.3791 856 29.2575
76.4952 803 28.3373
76.6113 884 29.7321
76.7276 894 29.8998
76.8438 965 31.0644
76.9601 1073 32.7567
77.0765 1133 33.6601
77.1929 1176 34.2929
77.3093 1172 34.2345
77.4258 1159 34.0441
77.5423 1095 33.0908
77.6589 1132 33.6452
77.7755 1036 32.187
77.8921 1010 31.7805
78.0088 951 30.8383
78.1256 855 29.2404
78.2423 833 28.8617
78.3591 881 29.6816
78.4759 969 31.1288
78.5928 1032 32.1248
78.7097 1126 33.5559
78.8266 1065 32.6343
78.9436 1120 33.4664
79.0606 1153 33.9559
79.1776 1174 34.2637
79.2946 1167 34.1614
79.4117 1165 34.1321
79.5288 1200 34.641
79.6459 1229 35.0571
79.7631 1125 33.541
79.8802 1133 33.6601
79.9974 1015 31.8591
80.1147 909 30.1496
80.2319 928 30.4631
80.3491 920 30.3315
80.4664 993 31.5119
80.5837 1067 32.665
80.701 1183 34.3948
80.8183 1173 34.2491
80.9357 1239 35.1994
81.053 1218 34.8999
81.1704 1294 35.9722
81.2877 1176 34.2929
81.4051 1135 33.6898
81.5225 1085 32.9393
81.6399 987 31.4166
81.7573 887 29.7825
81.8747 916 30.2655
81.9922 859 29.3087
82.1096 929 30.4795
82.227 1019 31.9218
82.3444 1084 32.9242
82.4619 1094 33.0757
82.5793 1171 34.2199
82.6967 1215 34.8569
82.8142 1220 34.9285
82.9316 1267 35.5949
83.049 1247 35.3129
83.1664 1247 35.3129
83.2838 1202 34.6699
83.4012 1139 33.7491
83.5186 1176 34.2929
83.636 1130 33.6155
83.7534 1032 32.1248
83.8708 942 30.692
83.9881 890 29.8329
84.1055 938 30.6268
84.2228 969 31.1288
84.3401 1090 33.0151
84.4575 1221 34.9428
84.5747 1244 35.2704
84.692 1205 34.7131
84.8093 1262 35.5246
84.9265 1232 35.0999
85.0437 1167 34.1614
85.1609 999 31.607
85.2781 1011 31.7962
85.3952 988 31.4325
85.5123 886 29.7658
85.6294 907 30.1164
85.7465 989 31.4484
85.8636 1071 32.7261
85.9806 1090 33.0151
86.0976 1127 33.5708
86.2145 1215 34.8569
86.3315 1177 34.3074
86.4484 1235 35.1426
86.5652 1223 34.9714
86.682 1268 35.609
86.7988 1277 35.7351
86.9156 1256 35.4401
87.0323 1276 35.7211
87.149 1152 33.9411
87.2657 1119 33.4515
87.3823 982 31.3369
87.4988 836 28.9137
87.6154 825 28.7228
87.7318 822 28.6705
87.8483 886 29.7658
87.9647 993 31.5119
88.081 970 31.1448
88.1973 942 30.692
88.3136 968 31.1127
88.4298 871 29.5127
88.546 801 28.3019
88.6621 726 26.9444
88.7781 569 23.8537
88.8942 0 1
89.0101 0 1
89.126 0 1
89.2419 0 1
89.3577 0 1
89.4734 0 1
89.5891 0 1
89.7047 0 1
89.8203 0 1
89.9358 0 1
92.3269 0 1
92.4424 0 1
92.558 0 1
92.6736 0 1
92.7893 0 1
92.905 0 1
93.0208 0 1
93.1366 0 1
93.2525 0 1
93.3685 0 1
93.4845 0 1
93.6005 888 29.7993
93.7167 967 31.0966
93.8328 1009 31.7648
93.949 1025 32.0156
94.0653 1028 32.0624
94.1816 1083 32.909
94.2979 1013 31.8277
94.4143 965 31.0644
94.5307 949 30.8058
94.6472 873 29.5466
94.7637 952 30.8545
94.8803 1027 32.0468
94.9969 1085 32.9393
95.1135 1093 33.0606
95.2302 1153 33.9559
95.3469 1213 34.8281
95.4637 1200 34.641
95.5805 1205 34.7131
95.6973 1225 35
95.8142 1274 35.6931
95.9311 1240 35.2136
96.048 1272 35.6651
96.1649 1216 34.8712
96.2819 1193 34.5398
96.3989 1145 33.8378
96.516 1078 32.8329
96.633 1042 32.28
96.7501 986 31.4006
96.8673 1011 31.7962
96.9844 1030 32.0936
97.1016 1130 33.6155
97.2188 1184 34.4093
97.336 1194 34.5543
97.4532 1330 36.4692
97.5704 1191 34.5109
97.6877 1293 35.9583
97.805 1237 35.171
97.9223 1172 34.2345
98.0396 1075 32.7872
98.1569 986 31.4006
98.2743 883 29.7153
98.3916 947 30.7734
98.509 928 30.4631
98.6264 1080 32.8634
98.7438 1167 34.1614
98.8612 1189 34.4819
98.9786 1311 36.2077
99.096 1258 35.4683
99.2134 1322 36.3593
99.3308 1307 36.1525
99.4482 1276 35.7211
99.5656 1310 36.1939
99.6831 1264 35.5528
99.8005 1250 35.3553
99.9179 1223 34.9714
100.035 1203 34.6843
100.153 1215 34.8569
100.27 1125 33.541
100.388 1054 32.4654
100.505 1098 33.1361
100.622 1164 34.1174
100.74 1256 35.4401
100.857 1344 36.6606
100.975 1325 36.4005
101.092 1361 36.8917
101.209 1430 37.8153
101.327 1353 36.7831
101.444 1343 36.647
101.561 1216 34.8712
101.679 1121 33.4813
101.796 970 31.1448
101.913 1007 31.7333
102.03 1013 31.8277
102.148 1097 33.121
102.265 1125 33.541
102.382 1322 36.3593
102.499 1234 35.1283
102.616 1337 36.565
102.733 1417 37.6431
102.851 1377 37.108
102.968 1353 36.7831
103.085 1392 37.3095
103.202 1405 37.4833
103.319 1342 36.6333
103.436 1297 36.0139
103.552 1328 36.4417
103.669 1211 34.7994
103.786 1143 33.8083
103.903 1155 33.9853
104.02 1150 33.9116
104.137 1223 34.9714
104.253 1345 36.6742
104.37 1397 37.3765
104.487 1437 37.9078
104.603 1435 37.8814
104.72 1429 37.8021
104.836 1383 37.1887
104.953 1234 35.1283
105.069 1166 34.1467
105.186 1113 33.3617
105.302 995 31.5436
105.418 900 30
105.535 902 30.0333
105.651 949 30.8058
105.767 872 29.5296
105.883 871 29.5127
105.999 859 29.3087
106.115 0 1
106.231 0 1
106.347 0 1
106.463 0 1
106.579 0 1
106.694 0 1
106.81 0 1
106.926 0 1
107.041 0 1
107.157 0 1
109.576 0 1
109.692 0 1
109.807 0 1
109.923 0 1
110.039 0 1
110.155 0 1
110.27 0 1
110.386 0 1
110.502 0 1
110.618 566 23.7908
110.735 706 26.5707
110.851 896 29.9333
110.967 1002 31.6544
111.083 1088 32.9848
111.199 1236 35.1568
111.316 1242 35.242
111.432 1222 34.9571
111.549 1232 35.0999
111.665 1297 36.0139
111.782 1313 36.2353
111.898 1337 36.565
112.015 1263 35.5387
112.132 1195 34.5688
112.248 1107 33.2716
112.365 1127 33.5708
112.482 1122 33.4963
112.599 1233 35.1141
112.716 1201 34.6554
112.832 1309 36.1801
112.949 1366 36.9594
113.066 1335 36.5377
113.183 1363 36.9188
113.3 1316 36.2767
113.417 1346 36.6879
113.534 1253 35.3977
113.652 1171 34.2199
113.769 1050 32.4037
113.886 1006 31.7175
114.003 942 30.692
114.12 981 31.3209
114.238 1106 33.2566
114.355 1184 34.4093
114.472 1214 34.8425
114.589 1384 37.2022
114.707 1351 36.756
114.824 1350 36.7423
114.942 1350 36.7423
115.059 1359 36.8646
115.176 1405 37.4833
115.294 1350 36.7423
115.411 1348 36.7151
115.529 1346 36.6879
115.646 1279 35.7631
115.764 1268 35.609
115.881 1209 34.7707
115.999 1113 33.3617
116.116 1109 33.3017
116.234 1188 34.4674
116.351 1288 35.8887
116.469 1347 36.7015
116.586 1360 36.8782
116.704 1376 37.0945
116.821 1367 36.973
116.939 1377 37.108
117.056 1334 36.524
117.174 1238 35.1852
117.291 1146 33.8526
117.409 983 31.3528
117.526 1004 31.686
117.644 958 30.9516
117.761 1089 33
117.879 1106 33.2566
117.996 1223 34.9714
118.114 1278 35.7491
118.231 1347 36.7015
118.349 1274 35.6931
118.466 1320 36.3318
118.584 1309 36.1801
118.701 1232 35.0999
118.819 1333 36.5103
118.936 1228 35.0428
119.053 1267 35.5949
119.171 1282 35.805
119.288 1179 34.3366
119.405 1124 33.5261
119.523 1047 32.3574
119.64 1037 32.2025
119.757 1085 32.9393
119.875 1064 32.619
119.992 1178 34.322
120.109 1242 35.242
120.226 1175 34.2783
120.343 1235 35.1426
120.46 1257 35.4542
120.578 1275 35.7071
120.695 1198 34.6121
120.812 1201 34.6554
120.929 1079 32.8481
121.046 974 31.209
121.163 913 30.2159
121.279 863 29.3769
121.396 916 30.2655
121.513 923 30.3809
121.63 980 31.305
121.747 1005 31.7017
121.863 1022 31.9687
121.98 1100 33.1662
122.097 958 30.9516
122.213 967 31.0966
122.33 980 31.305
122.446 974 31.209
122.563 863 29.3769
122.679 770 27.7489
122.795 787 28.0535
122.912 721 26.8514
123.028 611 24.7184
123.144 554 23.5372
123.26 499 22.3383
123.377 0 1
123.493 0 1
123.609 0 1
123.725 0 1
123.84 0 1
123.956 0 1
124.072 0 1
124.188 0 1
124.303 0 1
124.419 0 1
126.852 0 1
126.968 0 1
127.083 0 1
127.199 0 1
127.315 0 1
127.431 0 1
127.547 0 1
127.663 0 1
127.779 0 1
127.895 0 1
128.011 0 1
128.127 0 1
128.243 0 1
128.359 1149 33.8969
128.476 1126 33.5559
128.592 1093 33.0606
128.708 1062 32.5883
128.825 1165 34.1321
128.941 1200 34.641
129.058 1274 35.6931
129.174 1351 36.756
129.291 1373 37.054
129.408 1310 36.1939
129.524 1380 37.1484
129.641 1378 37.1214
129.758 1330 36.4692
129.875 1253 35.3977
129.992 1127 33.5708
130.108 1087 32.9697
130.225 1004 31.686
130.342 974 31.209
130.459 1039 32.2335
130.576 1110 33.3167
130.693 1148 33.8821
130.81 1217 34.8855
130.928 1251 35.3695
131.045 1265 35.5668
131.162 1364 36.9324
131.279 1362 36.9053
131.396 1326 36.4143
131.513 1349 36.7287
131.631 1301 36.0694
131.748 1365 36.9459
131.865 1301 36.0694
131.983 1223 34.9714
132.1 1225 35
132.217 1214 34.8425
132.335 1115 33.3916
132.452 1217 34.8855
132.57 1247 35.3129
132.687 1244 35.2704
132.804 1337 36.565
132.922 1332 36.4966
133.039 1322 36.3593
133.157 1372 37.0405
133.274 1408 37.5233
133.392 1298 36.0278
133.509 1280 35.7771
133.627 1170 34.2053
133.744 1080 32.8634
133.862 991 31.4802
133.979 1051 32.4191
134.097 1136 33.7046
134.214 1202 34.6699
134.332 1250 35.3553
134.449 1220 34.9285
134.567 1327 36.428
134.684 1351 36.756
134.802 1366 36.9594
134.919 1334 36.524
135.037 1383 37.1887
135.154 1332 36.4966
135.272 1317 36.2905
135.389 1352 36.7696
135.507 1257 35.4542
135.624 1117 33.4215
135.742 1174 34.2637
135.859 1210 34.7851
135.977 1234 35.1283
136.094 1265 35.5668
136.211 1252 35.3836
136.329 1330 36.4692
136.446 1376 37.0945
136.564 1326 36.4143
136.681 1477 38.4318
136.798 1389 37.2693
136.915 1412 37.5766
137.033 1291 35.9305
137.15 1168 34.176
137.267 1150 33.9116
137.384 1066 32.6497
137.502 1065 32.6343
137.619 1094 33.0757
137.736 1134 33.6749
137.853 1178 34.322
137.97 1262 35.5246
138.087 1277 35.7351
138.204 1318 36.3043
138.321 1346 36.6879
138.438 1267 35.5949
138.555 1432 37.8418
138.672 1358 36.8511
138.788 1289 35.9026
138.905 1161 34.0735
139.022 1152 33.9411
139.139 1085 32.9393
139.255 1019 31.9218
139.372 1038 32.218
139.488 971 31.1609
139.605 880 29.6648
139.721 832 28.8444
139.838 910 30.1662
139.954 911 30.1828
140.071 901 30.0167
140.187 822 28.6705
140.303 727 26.9629
140.419 718 26.7955
140.535 681 26.096
140.652 602 24.5357
140.768 0 1
140.884 0 1
141 0 1
141.115 0 1
141.231 0 1
141.347 0 1
141.463 0 1
141.578 0 1
141.694 0 1
144.104 0 1
144.219 0 1
144.335 0 1
144.45 0 1
144.566 0 1
144.682 0 1
144.798 0 1
144.914 0 1
145.03 0 1
145.146 965 31.0644
145.262 1086 32.9545
145.378 1072 32.7414
145.494 1048 32.3728
145.61 1180 34.3511
145.726 1038 32.218
145.842 1019 31.9218
145.959 942 30.692
146.075 964 31.0483
146.192 910 30.1662
146.308 851 29.1719
146.425 814 28.5307
146.541 901 30.0167
146.658 954 30.8869
146.774 986 31.4006
146.891 1062 32.5883
147.008 986 31.4006
147.125 1025 32.0156
147.241 1063 32.6037
147.358 1140 33.7639
147.475 1052 32.4345
147.592 1056 32.4962
147.709 983 31.3528
147.826 1021 31.9531
147.943 955 30.9031
148.06 1017 31.8904
148.177 939 30.6431
148.294 955 30.9031
148.411 882 29.6985
148.528 1022 31.9687
148.645 1028 32.0624
148.762 1068 32.6803
148.88 1059 32.5423
148.997 1058 32.5269
149.114 1063 32.6037
149.231 1075 32.7872
149.349 1071 32.7261
149.466 1039 32.2335
149.583 974 31.209
149.701 954 30.8869
149.818 913 30.2159
149.935 822 28.6705
150.053 841 29
150.17 834 28.8791
150.287 916 30.2655
150.405 968 31.1127
150.522 941 30.6757
150.64 1038 32.218
150.757 1002 31.6544
150.875 1014 31.8434
150.992 1027 32.0468
151.11 969 31.1288
151.227 1028 32.0624
151.344 978 31.273
151.462 1000 31.6228
151.579 968 31.1127
151.697 940 30.6594
151.814 855 29.2404
151.932 905 30.0832
152.049 902 30.0333
152.167 935 30.5778
152.284 974 31.209
152.402 987 31.4166
152.519 1003 31.6702
152.636 1040 32.249
152.754 983 31.3528
152.871 1049 32.3883
152.989 982 31.3369
153.106 960 30.9839
153.223 932 30.5287
153.341 897 29.95
153.458 857 29.2746
153.575 760 27.5681
153.693 811 28.4781
153.81 858 29.2916
153.927 891 29.8496
154.044 830 28.8097
154.162 921 30.348
154.279 881 29.6816
154.396 936 30.5941
154.513 911 30.1828
154.63 982 31.3369
154.747 975 31.225
154.864 944 30.7246
154.981 898 29.9666
155.098 874 29.5635
155.215 790 28.1069
155.332 849 29.1376
155.449 804 28.3549
155.566 813 28.5132
155.683 799 28.2666
155.8 837 28.931
155.917 858 29.2916
156.033 837 28.931
156.15 0 1
156.267 0 1
156.383 0 1
156.5 0 1
156.617 0 1
156.733 0 1
156.85 0 1
156.966 0 1
157.082 0 1
157.199 0 1
157.315 0 1
157.431 0 1
157.547 0 1
157.664 0 1
157.78 0 1
157.896 0 1
158.012 0 1
158.128 0 1
158.244 0 1
158.359 0 1
158.475 0 1
158.591 0 1
158.706 0 1
