
6.15755 0 1
6.2731 0 1
6.3887 0 1
6.50437 0 1
6.62009 0 1
6.73587 0 1
6.8517 0 1
6.96759 0 1
7.08353 0 1
7.19952 0 1
7.31557 0 1
7.43166 0 1
7.54781 0 1
7.664 0 1
7.78024 0 1
7.89653 0 1
8.01286 0 1
8.12924 0 1
8.24567 0 1
8.36213 0 1
8.47864 0 1
8.59519 0 1
8.71178 0 1
8.82841 0 1
8.94508 0 1
9.06179 0 1
9.17853 0 1
9.29531 0 1
9.41212 0 1
9.52897 0 1
9.64584 0 1
9.76276 0 1
9.8797 0 1
9.99667 0 1
10.1137 0 1
10.2307 0 1
10.3478 0 1
10.4648 0 1
10.5819 0 1
10.6991 0 1
10.8162 0 1
10.9334 0 1
11.0506 0 1
11.1678 0 1
11.285 0 1
11.4023 0 1
11.5196 0 1
11.6369 0 1
11.7542 0 1
11.8715 0 1
11.9888 0 1
12.1062 0 1
12.2235 0 1
12.3409 0 1
12.4582 0 1
12.5756 0 1
12.693 0 1
12.8104 0 1
12.9278 0 1
13.0452 0 1
13.1626 0 1
13.28 0 1
13.3974 0 1
13.5149 0 1
13.6323 0 1
13.7497 0 1
13.8671 0 1
13.9845 0 1
14.1019 0 1
14.2193 0 1
14.3367 0 1
14.4541 0 1
14.5714 0 1
14.6888 0 1
14.8062 0 1
14.9235 0 1
15.0408 0 0
15.1581 0 0
15.2755 0 0
15.3927 0 0
15.51 0 0
15.6273 0 0
15.7445 0 0
15.8617 0 0
15.9789 0 0
16.0961 0 0
16.2132 0 0
16.3304 0 0
16.4475 0 0
16.5646 0 0
16.6816 0 0
16.7986 0 0
16.9156 0 0
17.0326 0 0
17.1496 0 0
17.2665 0 0
17.3833 0 0
17.5002 0 0
17.617 0 0
17.7338 0 0
17.8505 0 0
17.9672 0 0
18.0839 0 0
18.2005 0 0
18.3171 0 0
18.4337 0 0
18.5502 0 0
18.6666 0 0
18.7831 0 0
18.8994 0 0
19.0158 0 0
19.1321 0 0
19.2483 0 0
19.3645 0 0
19.4806 0 0
19.5967 0 0
19.7128 0 0
19.8288 0 0
19.9447 0 0
20.0606 0 1
20.1764 0 1
20.2922 0 1
20.4079 0 1
20.5236 0 1
20.6392 0 1
20.7548 0 1
20.8702 0 1
23.3078 0 1
23.4233 0 1
23.539 0 1
23.6547 0 1
23.7704 0 1
23.8862 0 1
24.0021 0 1
24.118 0 1
24.234 0 1
24.35 0 1
24.4661 900 30
24.5822 1025 32.0156
24.6984 1150 33.9116
24.8146 1368 36.9865
24.9309 1680 40.9878
25.0472 1913 43.7379
25.1636 2031 45.0666
25.28 2081 45.618
25.3965 2129 46.1411
25.513 2132 46.1736
25.6296 1937 44.0114
25.7462 1862 43.1509
25.8628 1780 42.19
25.9795 1857 43.0929
26.0962 1797 42.391
26.213 1660 40.7431
26.3298 1738 41.6893
26.4466 1726 41.5452
26.5635 1642 40.5216
26.6804 1629 40.3609
26.7973 1522 39.0128
26.9143 1444 38
27.0313 1432 37.8418
27.1483 1409 37.5366
27.2653 1448 38.0526
27.3824 1283 35.819
27.4996 1233 35.1141
27.6167 1170 34.2053
27.7339 1209 34.7707
27.8511 1284 35.8329
27.9683 1382 37.1753
28.0855 1469 38.3275
28.2028 1562 39.5221
28.3201 1553 39.4081
28.4374 1654 40.6694
28.5547 1538 39.2173
28.6721 1518 38.9615
28.7894 1633 40.4104
28.9068 1663 40.7799
29.0242 1650 40.6202
29.1416 1695 41.1704
29.259 1763 41.9881
29.3764 1661 40.7554
29.4939 1610 40.1248
29.6113 1639 40.4846
29.7288 1515 38.923
29.8463 1560 39.4968
29.9638 1466 38.2884
30.0812 1467 38.3014
30.1987 1509 38.8458
30.3162 1456 38.1576
30.4337 1533 39.1535
30.5512 1463 38.2492
30.6687 1478 38.4448
30.7862 1480 38.4708
30.9037 1373 37.054
31.0212 1373 37.054
31.1387 1370 37.0135
31.2562 1363 36.9188
31.3737 1433 37.855
31.4912 1583 39.7869
31.6087 1593 39.9124
31.7262 1567 39.5854
31.8436 1614 40.1746
31.9611 1592 39.8999
32.0785 1475 38.4057
32.1959 1567 39.5854
32.3134 1477 38.4318
32.4308 1486 38.5487
32.5482 1446 38.0263
32.6655 1438 37.921
32.7829 1379 37.1349
32.9002 1320 36.3318
33.0176 1318 36.3043
33.1349 1305 36.1248
33.2522 1259 35.4824
33.3694 1210 34.7851
33.4867 1256 35.4401
33.6039 1270 35.6371
33.7211 1312 36.2215
33.8383 1292 35.9444
33.9554 1339 36.5923
34.0725 1383 37.1887
34.1896 1439 37.9342
34.3067 1430 37.8153
34.4237 1464 38.2623
34.5407 1305 36.1248
34.6577 1370 37.0135
34.7746 1377 37.108
34.8915 1397 37.3765
35.0084 1372 37.0405
35.1252 1489 38.5876
35.242 1518 38.9615
35.3587 1502 38.7556
35.4755 1505 38.7943
35.5921 1429 37.8021
35.7088 1339 36.5923
35.8254 1376 37.0945
35.9419 1258 35.4683
36.0584 1257 35.4542
36.1749 1148 33.8821
36.2913 1109 33.3017
36.4077 1083 32.909
36.524 1000 31.6228
36.6403 822 28.6705
36.7565 776 27.8568
36.8727 781 27.9464
36.9889 698 26.4197
37.1049 605 24.5967
37.221 0 1
37.3369 0 1
37.4529 0 1
37.5687 0 1
37.6845 0 1
37.8003 0 1
37.916 0 1
38.0316 0 1
38.1472 0 1
40.5851 0 1
40.7008 0 1
40.8164 0 1
40.9322 0 1
41.048 0 1
41.1639 0 1
41.2798 0 1
41.3958 0 1
41.5118 0 1
41.6279 0 1
41.744 547 23.388
41.8602 746 27.313
41.9765 844 29.0517
42.0928 926 30.4302
42.2091 951 30.8383
42.3255 949 30.8058
42.4419 999 31.607
42.5584 1024 32
42.675 1097 33.121
42.7915 1130 33.6155
42.9081 1217 34.8855
43.0248 1243 35.2562
43.1415 1296 36
43.2582 1257 35.4542
43.375 1183 34.3948
43.4918 1200 34.641
43.6087 1243 35.2562
43.7256 1152 33.9411
43.8425 1222 34.9571
43.9595 1189 34.4819
44.0765 1192 34.5254
44.1935 1166 34.1467
44.3106 1129 33.6006
44.4277 1216 34.8712
44.5448 1122 33.4963
44.6619 1085 32.9393
44.7791 1068 32.6803
44.8963 1062 32.5883
45.0136 1101 33.1813
45.1308 1012 31.8119
45.2481 1073 32.7567
45.3654 984 31.3688
45.4827 1007 31.7333
45.6001 1081 32.8786
45.7174 1109 33.3017
45.8348 1129 33.6006
45.9522 1196 34.5832
46.0697 1253 35.3977
46.1871 1405 37.4833
46.3046 1572 39.6485
46.422 1652 40.6448
46.5395 1666 40.8167
46.657 1713 41.3884
46.7745 1732 41.6173
46.892 1673 40.9023
47.0096 1600 40
47.1271 1743 41.7493
47.2446 1783 42.2256
47.3622 1889 43.4626
47.4797 1928 43.909
47.5973 1987 44.5758
47.7149 1975 44.441
47.8324 2067 45.4643
47.95 2084 45.6508
48.0675 1971 44.3959
48.1851 2000 44.7214
48.3027 2034 45.0999
48.4202 2003 44.7549
48.5378 2080 45.607
48.6554 1960 44.2719
48.7729 2023 44.9778
48.8904 2011 44.8442
49.008 1893 43.5086
49.1255 1927 43.8976
49.243 1982 44.5197
49.3605 1967 44.3509
49.478 2022 44.9667
49.5955 2004 44.7661
49.713 1997 44.6878
49.8304 1952 44.1814
49.9479 1924 43.8634
50.0653 1797 42.391
50.1827 1836 42.8486
50.3001 1562 39.5221
50.4175 1278 35.7491
50.5348 1164 34.1174
50.6521 1178 34.322
50.7694 1281 35.7911
50.8867 1358 36.8511
51.004 1294 35.9722
51.1212 1318 36.3043
51.2384 1227 35.0286
51.3556 1163 34.1028
51.4727 1099 33.1512
51.5899 1062 32.5883
51.707 1063 32.6037
51.824 1082 32.8938
51.9411 1077 32.8177
52.0581 1062 32.5883
52.175 1017 31.8904
52.2919 980 31.305
52.4088 1004 31.686
52.5257 988 31.4325
52.6425 982 31.3369
52.7593 954 30.8869
52.876 872 29.5296
52.9927 945 30.7409
53.1094 913 30.2159
53.226 885 29.7489
53.3426 939 30.6431
53.4591 851 29.1719
53.5756 772 27.7849
53.692 708 26.6083
53.8084 600 24.4949
53.9248 558 23.622
54.0411 453 21.2838
54.1573 423 20.567
54.2735 0 1
54.3896 0 1
54.5057 0 1
54.6217 0 1
54.7377 0 1
54.8537 0 1
54.9695 0 1
55.0853 0 1
55.2011 0 1
55.3168 0 1
55.4324 0 1
57.824 0 1
57.9396 0 1
58.0553 0 1
58.1711 0 1
58.2869 0 1
58.4028 0 1
58.5187 0 1
58.6347 0 1
58.7508 0 1
58.8669 0 1
58.983 728 26.9815
59.0992 785 28.0179
59.2155 838 28.9482
59.3318 916 30.2655
59.4482 927 30.4467
59.5646 1045 32.3265
59.681 1148 33.8821
59.7975 1155 33.9853
59.9141 1128 33.5857
60.0306 1098 33.1361
60.1473 1132 33.6452
60.2639 1099 33.1512
60.3807 1132 33.6452
60.4974 1143 33.8083
60.6142 1140 33.7639
60.731 1159 34.0441
60.8479 1202 34.6699
60.9648 1151 33.9264
61.0818 1203 34.6843
61.1987 1139 33.7491
61.3158 1086 32.9545
61.4328 1076 32.8024
61.5499 1107 33.2716
61.667 1059 32.5423
61.7841 1070 32.7109
61.9013 1186 34.4384
62.0185 1136 33.7046
62.1357 1095 33.0908
62.253 1080 32.8634
62.3702 1093 33.0606
62.4875 954 30.8869
62.6049 946 30.7571
62.7222 958 30.9516
62.8396 1081 32.8786
62.9569 1099 33.1512
63.0743 1133 33.6601
63.1918 1160 34.0588
63.3092 1132 33.6452
63.4267 1196 34.5832
63.5441 1152 33.9411
63.6616 1080 32.8634
63.7791 1094 33.0757
63.8966 1122 33.4963
64.0142 1053 32.45
64.1317 1126 33.5559
64.2492 1167 34.1614
64.3668 1168 34.176
64.4843 1108 33.2866
64.6019 1067 32.665
64.7195 1106 33.2566
64.837 1091 33.0303
64.9546 1023 31.9844
65.0722 1068 32.6803
65.1898 1066 32.6497
65.3074 1114 33.3766
65.4249 1114 33.3766
65.5425 1132 33.6452
65.6601 1080 32.8634
65.7777 1100 33.1662
65.8952 1070 32.7109
66.0128 1082 32.8938
66.1304 971 31.1609
66.2479 829 28.7924
66.3655 897 29.95
66.483 1009 31.7648
66.6005 1089 33
66.718 1128 33.5857
66.8355 1181 34.3657
66.953 1188 34.4674
67.0705 1237 35.171
67.1879 1259 35.4824
67.3054 1318 36.3043
67.4228 1505 38.7943
67.5402 1594 39.9249
67.6576 1838 42.8719
67.7749 2105 45.8803
67.8923 2266 47.6025
68.0096 2577 50.7642
68.1269 2712 52.0769
68.2442 2937 54.1941
68.3614 3221 56.7539
68.4787 3307 57.5065
68.5958 3704 60.8605
68.713 3930 62.6897
68.8302 4087 63.9296
68.9473 4194 64.7611
69.0643 4437 66.6108
69.1814 4491 67.0149
69.2984 4674 68.3667
69.4154 4617 67.9485
69.5323 4758 68.9783
69.6492 4385 66.2193
69.7661 3879 62.2816
69.8829 3429 58.5577
69.9997 3661 60.5062
70.1165 4185 64.6916
70.2332 4269 65.3376
70.3499 3869 62.2013
70.4665 3394 58.258
70.5831 3020 54.9545
70.6996 2950 54.3139
70.8161 2795 52.8678
70.9326 2675 51.7204
71.049 2662 51.5946
71.1653 2443 49.4267
71.2817 2382 48.8057
71.3979 2252 47.4552
71.5141 2143 46.2925
71.6303 2048 45.2548
71.7464 1979 44.486
71.8624 0 1
71.9784 0 1
72.0944 0 1
72.2102 0 1
72.3261 0 1
72.4418 0 1
72.5575 0 1
72.6732 0 1
75.1054 0 1
75.2209 0 1
75.3365 0 1
75.4521 0 1
75.5678 0 1
75.6835 0 1
75.7993 0 1
75.9151 0 1
76.031 0 1
76.147 4796 69.2532
76.263 5211 72.1873
76.3791 5164 71.861
76.4952 4817 69.4046
76.6113 4772 69.0797
76.7276 4704 68.5857
76.8438 4712 68.644
76.9601 4376 66.1513
77.0765 4275 65.3835
77.1929 4171 64.5833
77.3093 4139 64.3351
77.4258 4016 63.3719
77.5423 4016 63.3719
77.6589 3943 62.7933
77.7755 3843 61.9919
77.8921 3852 62.0645
78.0088 3761 61.327
78.1256 3822 61.8223
78.2423 3847 62.0242
78.3591 3788 61.5467
78.4759 3665 60.5392
78.5928 3388 58.2065
78.7097 2927 54.1018
78.8266 2390 48.8876
78.9436 1868 43.2204
79.0606 2017 44.911
79.1776 2651 51.4879
79.2946 3162 56.2317
79.4117 3283 57.2975
79.5288 3381 58.1464
79.6459 3348 57.8619
79.7631 3398 58.2924
79.8802 3409 58.3866
79.9974 3422 58.4979
80.1147 3318 57.6021
80.2319 3330 57.7062
80.3491 3150 56.1249
80.4664 3039 55.1271
80.5837 3018 54.9363
80.701 3098 55.6597
80.8183 2954 54.3507
80.9357 2980 54.5894
81.053 2878 53.647
81.1704 2718 52.1344
81.2877 2588 50.8724
81.4051 2679 51.7591
81.5225 2680 51.7687
81.6399 2614 51.1273
81.7573 2502 50.02
81.8747 2576 50.7543
81.9922 2564 50.636
82.1096 2610 51.0882
82.227 2539 50.3885
82.3444 2353 48.5077
82.4619 1990 44.6094
82.5793 1618 40.2244
82.6967 1604 40.05
82.8142 2101 45.8367
82.9316 2453 49.5278
83.049 2685 51.817
83.1664 2679 51.7591
83.2838 2555 50.547
83.4012 2597 50.9608
83.5186 2633 51.3128
83.636 2550 50.4975
83.7534 2593 50.9215
83.8708 2491 49.9099
83.9881 2546 50.4579
84.1055 2464 49.6387
84.2228 2427 49.2646
84.3401 2412 49.1121
84.4575 2357 48.5489
84.5747 2192 46.8188
84.692 2138 46.2385
84.8093 2015 44.8888
84.9265 1902 43.6119
85.0437 1757 41.9166
85.1609 1664 40.7922
85.2781 1548 39.3446
85.3952 1497 38.6911
85.5123 1447 38.0395
85.6294 1344 36.6606
85.7465 1216 34.8712
85.8636 1178 34.322
85.9806 988 31.4325
86.0976 864 29.3939
86.2145 796 28.2135
86.3315 879 29.6479
86.4484 1122 33.4963
86.5652 1167 34.1614
86.682 1238 35.1852
86.7988 1232 35.0999
86.9156 1160 34.0588
87.0323 1144 33.8231
87.149 1164 34.1174
87.2657 1184 34.4093
87.3823 1176 34.2929
87.4988 1095 33.0908
87.6154 1069 32.6956
87.7318 931 30.5123
87.8483 866 29.4279
87.9647 808 28.4253
88.081 771 27.7669
88.1973 781 27.9464
88.3136 762 27.6043
88.4298 733 27.074
88.546 703 26.5141
88.6621 717 26.7769
88.7781 758 27.5318
88.8942 0 1
89.0101 0 1
89.126 0 1
89.2419 0 1
89.3577 0 1
89.4734 0 1
89.5891 0 1
89.7047 0 1
89.8203 0 1
89.9358 0 1
92.3269 0 1
92.4424 0 1
92.558 0 1
92.6736 0 1
92.7893 0 1
92.905 0 1
93.0208 0 1
93.1366 0 1
93.2525 0 1
93.3685 0 1
93.4845 0 1
93.6005 2011 44.8442
93.7167 2298 47.9375
93.8328 2501 50.01
93.949 2703 51.9904
94.0653 2989 54.6717
94.1816 3321 57.6281
94.2979 3355 57.9224
94.4143 3491 59.0847
94.5307 3537 59.4727
94.6472 3752 61.2536
94.7637 3776 61.4492
94.8803 3478 58.9746
94.9969 3180 56.3915
95.1135 3030 55.0454
95.2302 3112 55.7853
95.3469 3522 59.3464
95.4637 3891 62.3779
95.5805 4006 63.293
95.6973 3975 63.0476
95.8142 4215 64.923
95.9311 4114 64.1405
96.048 4026 63.4508
96.1649 4036 63.5295
96.2819 3770 61.4003
96.3989 3661 60.5062
96.516 3430 58.5662
96.633 3650 60.4152
96.7501 3497 59.1354
96.8673 3342 57.81
96.9844 3391 58.2323
97.1016 3396 58.2752
97.2188 3537 59.4727
97.336 3584 59.8665
97.4532 3742 61.1719
97.5704 3893 62.3939
97.6877 3935 62.7296
97.805 3956 62.8967
97.9223 4333 65.8255
98.0396 4432 66.5733
98.1569 4300 65.5744
98.2743 4122 64.2028
98.3916 3930 62.6897
98.509 3421 58.4893
98.6264 3193 56.5066
98.7438 3372 58.0689
98.8612 3625 60.208
98.9786 4130 64.2651
99.096 4306 65.6201
99.2134 4385 66.2193
99.3308 4353 65.9773
99.4482 4309 65.643
99.5656 4327 65.7799
99.6831 4355 65.9924
99.8005 4095 63.9922
99.9179 3869 62.2013
100.035 3787 61.5386
100.153 3597 59.975
100.27 3723 61.0164
100.388 3707 60.8851
100.505 3700 60.8276
100.622 3609 60.075
100.74 3689 60.7371
100.857 3938 62.7535
100.975 3932 62.7057
101.092 4264 65.2993
101.209 4441 66.6408
101.327 4507 67.1342
101.444 4464 66.8132
101.561 4493 67.0298
101.679 4460 66.7832
101.796 4305 65.6125
101.913 4141 64.3506
102.03 3597 59.975
102.148 3083 55.5248
102.265 2747 52.4118
102.382 3099 55.6687
102.499 3403 58.3352
102.616 3776 61.4492
102.733 3910 62.53
102.851 3738 61.1392
102.968 3874 62.2415
103.085 3736 61.1228
103.202 3786 61.5305
103.319 3672 60.597
103.436 3697 60.803
103.552 3525 59.3717
103.669 3510 59.2453
103.786 3565 59.7076
103.903 3493 59.1016
104.02 3512 59.2621
104.137 3519 59.3212
104.253 3407 58.3695
104.37 3282 57.2887
104.487 3216 56.7098
104.603 3080 55.4977
104.72 2944 54.2586
104.836 2691 51.8748
104.953 2230 47.2229
105.069 1840 42.8952
105.186 1575 39.6863
105.302 1431 37.8286
105.418 1332 36.4966
105.535 1223 34.9714
105.651 1008 31.749
105.767 843 29.0345
105.883 754 27.4591
105.999 755 27.4773
106.115 0 1
106.231 0 1
106.347 0 1
106.463 0 1
106.579 0 1
106.694 0 1
106.81 0 1
106.926 0 1
107.041 0 1
107.157 0 1
109.576 0 1
109.692 0 1
109.807 0 1
109.923 0 1
110.039 0 1
110.155 0 1
110.27 0 1
110.386 0 1
110.502 0 1
110.618 6248 79.0443
110.735 6830 82.6438
110.851 6335 79.5927
110.967 6385 79.9062
111.083 6381 79.8812
111.199 6910 83.1264
111.316 7326 85.5921
111.432 7505 86.6314
111.549 7850 88.6002
111.665 8205 90.5815
111.782 8309 91.1537
111.898 8407 91.6897
112.015 8267 90.923
112.132 8202 90.5649
112.248 8422 91.7715
112.365 8628 92.887
112.482 8640 92.9516
112.599 9266 96.2601
112.716 9352 96.7057
112.832 10182 100.906
112.949 10542 102.674
113.066 10887 104.341
113.183 10536 102.645
113.3 10508 102.509
113.417 10309 101.533
113.534 10730 103.586
113.652 10416 102.059
113.769 10351 101.74
113.886 10237 101.178
114.003 10234 101.163
114.12 10205 101.02
114.238 10056 100.28
114.355 9903 99.5138
114.472 9296 96.4158
114.589 9358 96.7368
114.707 9254 96.1977
114.824 9604 98
114.942 10035 100.175
115.059 9997 99.985
115.176 9762 98.8028
115.294 9699 98.4835
115.411 9762 98.8028
115.529 9683 98.4022
115.646 9267 96.2653
115.764 8981 94.7681
115.881 8782 93.7123
115.999 8675 93.1397
116.116 8856 94.1063
116.234 9323 96.5557
116.351 9665 98.3107
116.469 9984 99.92
116.586 10259 101.287
116.704 10806 103.952
116.821 10456 102.255
116.939 10256 101.272
117.056 9999 99.995
117.174 9617 98.0663
117.291 9328 96.5816
117.409 9444 97.1802
117.526 9394 96.9226
117.644 9352 96.7057
117.761 9634 98.1529
117.879 9578 97.8673
117.996 9098 95.3834
118.114 8975 94.7365
118.231 9002 94.8789
118.349 9342 96.654
118.466 9195 95.8906
118.584 9274 96.3016
118.701 9254 96.1977
118.819 9039 95.0737
118.936 8615 92.817
119.053 8607 92.7739
119.171 8371 91.4932
119.288 7938 89.0955
119.405 7843 88.5607
119.523 7716 87.8408
119.64 7908 88.9269
119.757 8226 90.6973
119.875 8727 93.4184
119.992 9305 96.4624
120.109 9915 99.5741
120.226 10214 101.064
120.343 10231 101.148
120.46 9954 99.7697
120.578 9496 97.4474
120.695 9148 95.6452
120.812 8730 93.4345
120.929 8515 92.2768
121.046 8298 91.0934
121.163 8358 91.4221
121.279 8492 92.152
121.396 8388 91.586
121.513 8230 90.7193
121.63 7669 87.5728
121.747 7089 84.1962
121.863 6347 79.6681
121.98 6050 77.7817
122.097 5789 76.0855
122.213 5969 77.2593
122.33 5578 74.686
122.446 5436 73.7292
122.563 5141 71.7008
122.679 4833 69.5198
122.795 4595 67.7864
122.912 4161 64.5058
123.028 3963 62.9524
123.144 3739 61.1474
123.26 3507 59.2199
123.377 0 1
123.493 0 1
123.609 0 1
123.725 0 1
123.84 0 1
123.956 0 1
124.072 0 1
124.188 0 1
124.303 0 1
124.419 0 1
126.852 0 1
126.968 0 1
127.083 0 1
127.199 0 1
127.315 0 1
127.431 0 1
127.547 0 1
127.663 0 1
127.779 0 1
127.895 0 1
128.011 0 1
128.127 0 1
128.243 0 1
128.359 4617 67.9485
128.476 4619 67.9632
128.592 4473 66.8805
128.708 4368 66.0908
128.825 4316 65.6963
128.941 4067 63.773
129.058 4053 63.6632
129.174 4051 63.6475
129.291 4101 64.0391
129.408 4321 65.7343
129.524 4521 67.2384
129.641 4790 69.2098
129.758 5001 70.7177
129.875 4971 70.5053
129.992 4833 69.5198
130.108 4553 67.4759
130.225 4346 65.9242
130.342 4103 64.0547
130.459 3632 60.2661
130.576 3320 57.6194
130.693 2885 53.7122
130.81 2743 52.3737
130.928 2661 51.5849
131.045 2988 54.6626
131.162 3145 56.0803
131.279 3351 57.8878
131.396 3261 57.1052
131.513 3378 58.1206
131.631 3400 58.3095
131.748 3436 58.6174
131.865 3403 58.3352
131.983 3533 59.439
132.1 3447 58.7112
132.217 3385 58.1808
132.335 3360 57.9655
132.452 3465 58.8643
132.57 3418 58.4637
132.687 3299 57.4369
132.804 3457 58.7963
132.922 3551 59.5903
133.039 3646 60.3821
133.157 3531 59.4222
133.274 3601 60.0083
133.392 3730 61.0737
133.509 3718 60.9754
133.627 3741 61.1637
133.744 3652 60.4318
133.862 3701 60.8358
133.979 3638 60.3158
134.097 3385 58.1808
134.214 3231 56.8419
134.332 3023 54.9818
134.449 3065 55.3624
134.567 3223 56.7715
134.684 3577 59.808
134.802 3822 61.8223
134.919 4112 64.1249
135.037 4331 65.8103
135.154 4333 65.8255
135.272 4436 66.6033
135.389 4620 67.9706
135.507 4668 68.3228
135.624 4830 69.4982
135.742 4952 70.3704
135.859 5186 72.0139
135.977 5112 71.4983
136.094 5335 73.0411
136.211 5528 74.3505
136.329 5729 75.6902
136.446 5658 75.2197
136.564 6157 78.4666
136.681 6063 77.8653
136.798 6289 79.3032
136.915 6271 79.1896
137.033 6500 80.6226
137.15 6566 81.0309
137.267 6527 80.7899
137.384 6590 81.1788
137.502 6541 80.8764
137.619 6196 78.7147
137.736 5992 77.408
137.853 5672 75.3127
137.97 5499 74.1552
138.087 5198 72.0972
138.204 5548 74.4849
138.321 5716 75.6042
138.438 5912 76.8895
138.555 5961 77.2075
138.672 6080 77.9744
138.788 6032 77.666
138.905 5882 76.6942
139.022 5833 76.3741
139.139 5549 74.4916
139.255 5152 71.7774
139.372 4976 70.5408
139.488 4800 69.282
139.605 4680 68.4105
139.721 4291 65.5057
139.838 4250 65.192
139.954 3956 62.8967
140.071 3786 61.5305
140.187 3791 61.5711
140.303 3732 61.0901
140.419 3977 63.0635
140.535 3993 63.1902
140.652 4094 63.9844
140.768 0 1
140.884 0 1
141 0 1
141.115 0 1
141.231 0 1
141.347 0 1
141.463 0 1
141.578 0 1
141.694 0 1
144.104 0 1
144.219 0 1
144.335 0 1
144.45 0 1
144.566 0 1
144.682 0 1
144.798 0 1
144.914 0 1
145.03 0 1
145.146 4997 70.6895
145.262 5091 71.3512
145.378 5239 72.3809
145.494 5241 72.3948
145.61 5401 73.4915
145.726 5465 73.9256
145.842 5437 73.736
145.959 5603 74.8532
146.075 5621 74.9733
146.192 5756 75.8683
146.308 5513 74.2496
146.425 5172 71.9166
146.541 5186 72.0139
146.658 4904 70.0286
146.774 4694 68.5128
146.891 4702 68.5711
147.008 4817 69.4046
147.125 4956 70.3989
147.241 5129 71.617
147.358 5322 72.952
147.475 5409 73.5459
147.592 5573 74.6525
147.709 5619 74.96
147.826 5714 75.591
147.943 6053 77.801
148.06 5943 77.0909
148.177 5851 76.4918
148.294 5791 76.0986
148.411 5737 75.743
148.528 5692 75.4453
148.645 5889 76.7398
148.762 5903 76.831
148.88 5863 76.5702
148.997 5811 76.2299
149.114 6160 78.4857
149.231 6248 79.0443
149.349 6268 79.1707
149.466 6147 78.4028
149.583 6133 78.3135
149.701 6016 77.5629
149.818 6074 77.9359
149.935 6075 77.9423
150.053 5931 77.013
150.17 5946 77.1103
150.287 5576 74.6726
150.405 5522 74.3102
150.522 5282 72.6774
150.64 5220 72.2496
150.757 5201 72.118
150.875 5237 72.3671
150.992 5140 71.6938
151.11 5014 70.8096
151.227 4696 68.5274
151.344 4512 67.1714
151.462 4555 67.4907
151.579 4829 69.491
151.697 4855 69.6778
151.814 5289 72.7255
151.932 5480 74.027
152.049 5374 73.3076
152.167 5684 75.3923
152.284 5902 76.8245
152.402 5884 76.7072
152.519 6002 77.4726
152.636 6131 78.3007
152.754 6324 79.5236
152.871 6587 81.1603
152.989 6591 81.185
153.106 6903 83.0843
153.223 7125 84.4097
153.341 7340 85.6738
153.458 7552 86.9022
153.575 7994 89.4092
153.693 8082 89.8999
153.81 7883 88.7863
153.927 7522 86.7295
154.044 6914 83.1505
154.162 6581 81.1234
154.279 6960 83.4266
154.396 7639 87.4014
154.513 7890 88.8257
154.63 7993 89.4036
154.747 7750 88.0341
154.864 7692 87.704
154.981 7432 86.209
155.098 7281 85.3288
155.215 7224 84.9941
155.332 6608 81.2896
155.449 6366 79.7872
155.566 6117 78.2113
155.683 5860 76.5506
155.8 5600 74.8331
155.917 5209 72.1734
156.033 4938 70.2709
156.15 0 1
156.267 0 1
156.383 0 1
156.5 0 1
156.617 0 1
156.733 0 1
156.85 0 1
156.966 0 1
157.082 0 1
157.199 0 1
157.315 0 1
157.431 0 1
157.547 0 1
157.664 0 1
157.78 0 1
157.896 0 1
158.012 0 1
158.128 0 1
158.244 0 1
158.359 0 1
158.475 0 1
158.591 0 1
158.706 0 1
