
6.15755 0 1
6.2731 0 1
6.3887 0 1
6.50437 0 1
6.62009 0 1
6.73587 0 1
6.8517 0 1
6.96759 0 1
7.08353 0 1
7.19952 0 1
7.31557 0 1
7.43166 0 1
7.54781 0 1
7.664 0 1
7.78024 0 1
7.89653 0 1
8.01286 0 1
8.12924 0 1
8.24567 0 1
8.36213 0 1
8.47864 0 1
8.59519 0 1
8.71178 0 1
8.82841 0 1
8.94508 0 1
9.06179 0 1
9.17853 0 1
9.29531 0 1
9.41212 0 1
9.52897 0 1
9.64584 0 1
9.76276 0 1
9.8797 0 1
9.99667 0 1
10.1137 0 1
10.2307 0 1
10.3478 0 1
10.4648 0 1
10.5819 0 1
10.6991 0 1
10.8162 0 1
10.9334 0 1
11.0506 0 1
11.1678 0 1
11.285 0 1
11.4023 0 1
11.5196 0 1
11.6369 0 1
11.7542 0 1
11.8715 0 1
11.9888 0 1
12.1062 0 1
12.2235 0 1
12.3409 0 1
12.4582 0 1
12.5756 0 1
12.693 0 1
12.8104 0 1
12.9278 0 1
13.0452 0 1
13.1626 0 1
13.28 0 1
13.3974 0 1
13.5149 0 1
13.6323 0 1
13.7497 0 1
13.8671 0 1
13.9845 0 1
14.1019 0 1
14.2193 0 1
14.3367 0 1
14.4541 0 1
14.5714 0 1
14.6888 0 1
14.8062 0 1
14.9235 0 1
15.0408 0 0
15.1581 0 0
15.2755 0 0
15.3927 0 0
15.51 0 0
15.6273 0 0
15.7445 0 0
15.8617 0 0
15.9789 0 0
16.0961 0 0
16.2132 0 0
16.3304 0 0
16.4475 0 0
16.5646 0 0
16.6816 0 0
16.7986 0 0
16.9156 0 0
17.0326 0 0
17.1496 0 0
17.2665 0 0
17.3833 0 0
17.5002 0 0
17.617 0 0
17.7338 0 0
17.8505 0 0
17.9672 0 0
18.0839 0 0
18.2005 0 0
18.3171 0 0
18.4337 0 0
18.5502 0 0
18.6666 0 0
18.7831 0 0
18.8994 0 0
19.0158 0 0
19.1321 0 0
19.2483 0 0
19.3645 0 0
19.4806 0 0
19.5967 0 0
19.7128 0 0
19.8288 0 0
19.9447 0 0
20.0606 0 1
20.1764 0 1
20.2922 0 1
20.4079 0 1
20.5236 0 1
20.6392 0 1
20.7548 0 1
20.8702 0 1
23.3078 0 1
23.4233 0 1
23.539 0 1
23.6547 0 1
23.7704 0 1
23.8862 0 1
24.0021 0 1
24.118 0 1
24.234 0 1
24.35 0 1
24.4661 1428 37.7889
24.5822 1511 38.8716
24.6984 1512 38.8844
24.8146 1401 37.4299
24.9309 1315 36.2629
25.0472 1345 36.6742
25.1636 1370 37.0135
25.28 1427 37.7757
25.3965 1530 39.1152
25.513 1545 39.3065
25.6296 1684 41.0366
25.7462 1590 39.8748
25.8628 1699 41.2189
25.9795 1636 40.4475
26.0962 1605 40.0625
26.213 1661 40.7554
26.3298 1660 40.7431
26.4466 1570 39.6232
26.5635 1483 38.5097
26.6804 1464 38.2623
26.7973 1473 38.3797
26.9143 1510 38.8587
27.0313 1512 38.8844
27.1483 1554 39.4208
27.2653 1618 40.2244
27.3824 1531 39.128
27.4996 1565 39.5601
27.6167 1563 39.5348
27.7339 1545 39.3065
27.8511 1495 38.6652
27.9683 1480 38.4708
28.0855 1427 37.7757
28.2028 1473 38.3797
28.3201 1429 37.8021
28.4374 1363 36.9188
28.5547 1285 35.8469
28.6721 1287 35.8748
28.7894 1319 36.318
28.9068 1394 37.3363
29.0242 1567 39.5854
29.1416 1520 38.9872
29.259 1425 37.7492
29.3764 1533 39.1535
29.4939 1514 38.9102
29.6113 1590 39.8748
29.7288 1509 38.8458
29.8463 1534 39.1663
29.9638 1424 37.7359
30.0812 1477 38.4318
30.1987 1383 37.1887
30.3162 1358 36.8511
30.4337 1441 37.9605
30.5512 1398 37.3898
30.6687 1552 39.3954
30.7862 1621 40.2616
30.9037 1491 38.6135
31.0212 1513 38.8973
31.1387 1570 39.6232
31.2562 1573 39.6611
31.3737 1584 39.7995
31.4912 1491 38.6135
31.6087 1464 38.2623
31.7262 1457 38.1707
31.8436 1388 37.2559
31.9611 1285 35.8469
32.0785 1312 36.2215
32.1959 1328 36.4417
32.3134 1312 36.2215
32.4308 1385 37.2156
32.5482 1489 38.5876
32.6655 1535 39.1791
32.7829 1556 39.4462
32.9002 1527 39.0768
33.0176 1496 38.6782
33.1349 1587 39.8372
33.2522 1584 39.7995
33.3694 1534 39.1663
33.4867 1604 40.05
33.6039 1531 39.128
33.7211 1456 38.1576
33.8383 1365 36.9459
33.9554 1315 36.2629
34.0725 1376 37.0945
34.1896 1523 39.0256
34.3067 1461 38.223
34.4237 1516 38.9358
34.5407 1581 39.7618
34.6577 1582 39.7744
34.7746 1537 39.2046
34.8915 1546 39.3192
35.0084 1469 38.3275
35.1252 1520 38.9872
35.242 1473 38.3797
35.3587 1488 38.5746
35.4755 1487 38.5616
35.5921 1386 37.229
35.7088 1268 35.609
35.8254 1299 36.0416
35.9419 1292 35.9444
36.0584 1339 36.5923
36.1749 1472 38.3667
36.2913 1440 37.9473
36.4077 1547 39.3319
36.524 1504 38.7814
36.6403 1531 39.128
36.7565 1531 39.128
36.8727 1634 40.4228
36.9889 1488 38.5746
37.1049 1543 39.281
37.221 0 1
37.3369 0 1
37.4529 0 1
37.5687 0 1
37.6845 0 1
37.8003 0 1
37.916 0 1
38.0316 0 1
38.1472 0 1
40.5851 0 1
40.7008 0 1
40.8164 0 1
40.9322 0 1
41.048 0 1
41.1639 0 1
41.2798 0 1
41.3958 0 1
41.5118 0 1
41.6279 0 1
41.744 1274 35.6931
41.8602 1266 35.5809
41.9765 1382 37.1753
42.0928 1333 36.5103
42.2091 1365 36.9459
42.3255 1306 36.1386
42.4419 1260 35.4965
42.5584 1164 34.1174
42.675 1159 34.0441
42.7915 1137 33.7194
42.9081 1280 35.7771
43.0248 1229 35.0571
43.1415 1252 35.3836
43.2582 1272 35.6651
43.375 1305 36.1248
43.4918 1349 36.7287
43.6087 1291 35.9305
43.7256 1273 35.6791
43.8425 1241 35.2278
43.9595 1225 35
44.0765 1180 34.3511
44.1935 1115 33.3916
44.3106 1074 32.7719
44.4277 1068 32.6803
44.5448 966 31.0805
44.6619 961 31
44.7791 972 31.1769
44.8963 1054 32.4654
45.0136 1092 33.0454
45.1308 1178 34.322
45.2481 1132 33.6452
45.3654 1106 33.2566
45.4827 1061 32.573
45.6001 1124 33.5261
45.7174 1162 34.0881
45.8348 1125 33.541
45.9522 1093 33.0606
46.0697 1001 31.6386
46.1871 979 31.289
46.3046 921 30.348
46.422 986 31.4006
46.5395 1006 31.7175
46.657 1006 31.7175
46.7745 1031 32.1092
46.892 1056 32.4962
47.0096 1140 33.7639
47.1271 1106 33.2566
47.2446 1039 32.2335
47.3622 985 31.3847
47.4797 1089 33
47.5973 911 30.1828
47.7149 928 30.4631
47.8324 916 30.2655
47.95 849 29.1376
48.0675 839 28.9655
48.1851 777 27.8747
48.3027 764 27.6405
48.4202 792 28.1425
48.5378 869 29.4788
48.6554 884 29.7321
48.7729 878 29.6311
48.8904 920 30.3315
49.008 963 31.0322
49.1255 973 31.1929
49.243 984 31.3688
49.3605 951 30.8383
49.478 947 30.7734
49.5955 806 28.3901
49.713 854 29.2233
49.8304 840 28.9828
49.9479 851 29.1719
50.0653 947 30.7734
50.1827 977 31.257
50.3001 1033 32.1403
50.4175 1000 31.6228
50.5348 1082 32.8938
50.6521 1091 33.0303
50.7694 1133 33.6601
50.8867 1136 33.7046
51.004 1189 34.4819
51.1212 1180 34.3511
51.2384 1158 34.0294
51.3556 1175 34.2783
51.4727 1113 33.3617
51.5899 1039 32.2335
51.707 948 30.7896
51.824 1031 32.1092
51.9411 1122 33.4963
52.0581 1171 34.2199
52.175 1298 36.0278
52.2919 1261 35.5106
52.4088 1464 38.2623
52.5257 1381 37.1618
52.6425 1353 36.7831
52.7593 1381 37.1618
52.876 1450 38.0789
52.9927 1473 38.3797
53.1094 1373 37.054
53.226 1352 36.7696
53.3426 1417 37.6431
53.4591 1294 35.9722
53.5756 1428 37.7889
53.692 1384 37.2022
53.8084 1445 38.0132
53.9248 1481 38.4838
54.0411 1526 39.064
54.1573 1636 40.4475
54.2735 0 1
54.3896 0 1
54.5057 0 1
54.6217 0 1
54.7377 0 1
54.8537 0 1
54.9695 0 1
55.0853 0 1
55.2011 0 1
55.3168 0 1
55.4324 0 1
57.824 0 1
57.9396 0 1
58.0553 0 1
58.1711 0 1
58.2869 0 1
58.4028 0 1
58.5187 0 1
58.6347 0 1
58.7508 0 1
58.8669 0 1
58.983 1867 43.2088
59.0992 1970 44.3847
59.2155 2009 44.8219
59.3318 2007 44.7996
59.4482 2013 44.8665
59.5646 1991 44.6206
59.681 1934 43.9773
59.7975 1972 44.4072
59.9141 1884 43.4051
60.0306 1830 42.7785
60.1473 1717 41.4367
60.2639 1640 40.4969
60.3807 1472 38.3667
60.4974 1597 39.9625
60.6142 1514 38.9102
60.731 1628 40.3485
60.8479 1758 41.9285
60.9648 1842 42.9185
61.0818 1863 43.1625
61.1987 1929 43.9204
61.3158 1942 44.0681
61.4328 1868 43.2204
61.5499 1930 43.9318
61.667 1835 42.8369
61.7841 1877 43.3244
61.9013 1734 41.6413
62.0185 1659 40.7308
62.1357 1745 41.7732
62.253 1888 43.4511
62.3702 1808 42.5206
62.4875 1889 43.4626
62.6049 1952 44.1814
62.7222 1930 43.9318
62.8396 2045 45.2217
62.9569 2060 45.3872
63.0743 1948 44.1362
63.1918 2007 44.7996
63.3092 1924 43.8634
63.4267 1881 43.3705
63.5441 1886 43.4281
63.6616 1665 40.8044
63.7791 1469 38.3275
63.8966 1441 37.9605
64.0142 1467 38.3014
64.1317 1503 38.7685
64.2492 1603 40.0375
64.3668 1730 41.5933
64.4843 1873 43.2782
64.6019 1985 44.5533
64.7195 1942 44.0681
64.837 1931 43.9431
64.9546 1952 44.1814
65.0722 1878 43.3359
65.1898 1877 43.3244
65.3074 1781 42.2019
65.4249 1748 41.8091
65.5425 1732 41.6173
65.6601 1694 41.1582
65.7777 1768 42.0476
65.8952 1828 42.7551
66.0128 1910 43.7035
66.1304 1969 44.3734
66.2479 2092 45.7384
66.3655 2028 45.0333
66.483 2041 45.1774
66.6005 1992 44.6318
66.718 2065 45.4423
66.8355 2004 44.7661
66.953 2007 44.7996
67.0705 1879 43.3474
67.1879 1755 41.8927
67.3054 1589 39.8623
67.4228 1580 39.7492
67.5402 1404 37.47
67.6576 1538 39.2173
67.7749 1506 38.8072
67.8923 1752 41.8569
68.0096 1852 43.0349
68.1269 1976 44.4522
68.2442 2062 45.4093
68.3614 2051 45.288
68.4787 2008 44.8107
68.5958 2092 45.7384
68.713 2066 45.4533
68.8302 2043 45.1996
68.9473 1994 44.6542
69.0643 1969 44.3734
69.1814 1912 43.7264
69.2984 1878 43.3359
69.4154 1995 44.6654
69.5323 2146 46.3249
69.6492 2205 46.9574
69.7661 2164 46.5188
69.8829 2291 47.8644
69.9997 2313 48.0937
70.1165 2390 48.8876
70.2332 2371 48.6929
70.3499 2292 47.8748
70.4665 2384 48.8262
70.5831 2358 48.5592
70.6996 2298 47.9375
70.8161 2015 44.8888
70.9326 1988 44.587
71.049 1794 42.3556
71.1653 1547 39.3319
71.2817 1536 39.1918
71.3979 1627 40.3361
71.5141 1736 41.6653
71.6303 1834 42.8252
71.7464 1847 42.9767
71.8624 0 1
71.9784 0 1
72.0944 0 1
72.2102 0 1
72.3261 0 1
72.4418 0 1
72.5575 0 1
72.6732 0 1
75.1054 0 1
75.2209 0 1
75.3365 0 1
75.4521 0 1
75.5678 0 1
75.6835 0 1
75.7993 0 1
75.9151 0 1
76.031 0 1
76.147 2155 46.422
76.263 2178 46.669
76.3791 2048 45.2548
76.4952 1837 42.8602
76.6113 1718 41.4488
76.7276 1818 42.638
76.8438 2044 45.2106
76.9601 2248 47.4131
77.0765 2432 49.3153
77.1929 2534 50.3389
77.3093 2711 52.0673
77.4258 2658 51.5558
77.5423 2710 52.0577
77.6589 2653 51.5073
77.7755 2652 51.4976
77.8921 2586 50.8527
78.0088 2423 49.224
78.1256 2407 49.0612
78.2423 2367 48.6518
78.3591 2293 47.8853
78.4759 2425 49.2443
78.5928 2534 50.3389
78.7097 2648 51.4587
78.8266 2771 52.6403
78.9436 2719 52.144
79.0606 2905 53.8981
79.1776 2924 54.074
79.2946 2815 53.0566
79.4117 2774 52.6688
79.5288 2780 52.7257
79.6459 2850 53.3854
79.7631 2668 51.6527
79.8802 2507 50.07
79.9974 2421 49.2037
80.1147 2120 46.0435
80.2319 1902 43.6119
80.3491 1924 43.8634
80.4664 2228 47.2017
80.5837 2475 49.7494
80.701 2708 52.0384
80.8183 2858 53.4603
80.9357 2796 52.8772
81.053 2907 53.9166
81.1704 2874 53.6097
81.2877 2981 54.5985
81.4051 2810 53.0094
81.5225 2842 53.3104
81.6399 2645 51.4296
81.7573 2657 51.5461
81.8747 2572 50.7149
81.9922 2433 49.3254
82.1096 2530 50.2991
82.227 2671 51.6817
82.3444 2787 52.792
82.4619 2868 53.5537
82.5793 2964 54.4426
82.6967 3027 55.0182
82.8142 2969 54.4885
82.9316 2971 54.5069
83.049 3070 55.4076
83.1664 2931 54.1387
83.2838 2810 53.0094
83.4012 2821 53.1131
83.5186 2603 51.0196
83.636 2456 49.558
83.7534 2208 46.9894
83.8708 2001 44.7325
83.9881 2024 44.9889
84.1055 2244 47.3709
84.2228 2377 48.7545
84.3401 2686 51.8266
84.4575 2953 54.3415
84.5747 3033 55.0727
84.692 3082 55.5158
84.8093 3068 55.3895
84.9265 3125 55.9017
85.0437 3041 55.1453
85.1609 3142 56.0535
85.2781 2939 54.2125
85.3952 2857 53.4509
85.5123 2816 53.066
85.6294 2894 53.7959
85.7465 2928 54.111
85.8636 3038 55.1181
85.9806 3268 57.1664
86.0976 3414 58.4294
86.2145 3580 59.8331
86.3315 3557 59.6406
86.4484 3739 61.1474
86.5652 3722 61.0082
86.682 3697 60.803
86.7988 3713 60.9344
86.9156 3564 59.6992
87.0323 3446 58.7026
87.149 3331 57.7148
87.2657 3005 54.8179
87.3823 2771 52.6403
87.4988 2648 51.4587
87.6154 2885 53.7122
87.7318 3112 55.7853
87.8483 3500 59.1608
87.9647 3878 62.2736
88.081 3970 63.0079
88.1973 4145 64.3817
88.3136 4177 64.6297
88.4298 4031 63.4902
88.546 4189 64.7225
88.6621 4163 64.5213
88.7781 4052 63.6553
88.8942 0 1
89.0101 0 1
89.126 0 1
89.2419 0 1
89.3577 0 1
89.4734 0 1
89.5891 0 1
89.7047 0 1
89.8203 0 1
89.9358 0 1
92.3269 0 1
92.4424 0 1
92.558 0 1
92.6736 0 1
92.7893 0 1
92.905 0 1
93.0208 0 1
93.1366 0 1
93.2525 0 1
93.3685 0 1
93.4845 0 1
93.6005 4643 68.1396
93.7167 4708 68.6149
93.8328 4675 68.374
93.949 4828 69.4838
94.0653 4656 68.2349
94.1816 4674 68.3667
94.2979 4583 67.6979
94.4143 4445 66.6708
94.5307 4225 65
94.6472 4255 65.2304
94.7637 4198 64.792
94.8803 4314 65.681
94.9969 4555 67.4907
95.1135 4710 68.6294
95.2302 4788 69.1954
95.3469 5027 70.9013
95.4637 5085 71.3092
95.5805 5125 71.5891
95.6973 5213 72.2011
95.8142 5135 71.6589
95.9311 5078 71.2601
96.048 5108 71.4703
96.1649 4844 69.5989
96.2819 4618 67.9559
96.3989 4258 65.2534
96.516 4008 63.3088
96.633 3671 60.5888
96.7501 3578 59.8164
96.8673 3921 62.6179
96.9844 4286 65.4675
97.1016 4785 69.1737
97.2188 5111 71.4913
97.336 5355 73.1779
97.4532 5407 73.5323
97.5704 5391 73.4234
97.6877 5453 73.8444
97.805 5424 73.6478
97.9223 5433 73.7089
98.0396 5141 71.7008
98.1569 4982 70.5833
98.2743 4848 69.6276
98.3916 4706 68.6003
98.509 4868 69.7711
98.6264 4965 70.4628
98.7438 5122 71.5681
98.8612 5444 73.7835
98.9786 5578 74.686
99.096 5677 75.3459
99.2134 5734 75.7232
99.3308 5932 77.0195
99.4482 5900 76.8115
99.5656 5743 75.7826
99.6831 5667 75.2795
99.8005 5426 73.6614
99.9179 5307 72.8492
100.035 5164 71.861
100.153 4546 67.424
100.27 4181 64.6607
100.388 4249 65.1844
100.505 4825 69.4622
100.622 5317 72.9178
100.74 5783 76.046
100.857 5863 76.5702
100.975 6099 78.0961
101.092 6213 78.8226
101.209 6050 77.7817
101.327 6155 78.4538
101.444 6137 78.339
101.561 5914 76.9025
101.679 5686 75.4056
101.796 5676 75.3392
101.913 5506 74.2024
102.03 5410 73.5527
102.148 5473 73.9797
102.265 6005 77.4919
102.382 5634 75.06
102.499 6026 77.6273
102.616 6320 79.4984
102.733 6563 81.0123
102.851 6561 81
102.968 6453 80.3306
103.085 6693 81.8108
103.202 6401 80.0062
103.319 6187 78.6575
103.436 5924 76.9675
103.552 5724 75.6571
103.669 5183 71.9931
103.786 4789 69.2026
103.903 4718 68.6877
104.02 5042 71.007
104.137 5850 76.4853
104.253 6568 81.0432
104.37 6578 81.1049
104.487 6967 83.4686
104.603 6917 83.1685
104.72 6782 82.3529
104.836 6844 82.7285
104.953 6784 82.365
105.069 6752 82.1706
105.186 6547 80.9135
105.302 6320 79.4984
105.418 6123 78.2496
105.535 6067 77.8909
105.651 6439 80.2434
105.767 6646 81.523
105.883 6869 82.8794
105.999 6793 82.4197
106.115 0 1
106.231 0 1
106.347 0 1
106.463 0 1
106.579 0 1
106.694 0 1
106.81 0 1
106.926 0 1
107.041 0 1
107.157 0 1
109.576 0 1
109.692 0 1
109.807 0 1
109.923 0 1
110.039 0 1
110.155 0 1
110.27 0 1
110.386 0 1
110.502 0 1
110.618 5774 75.9868
110.735 5880 76.6812
110.851 6071 77.9166
110.967 6250 79.0569
111.083 6465 80.4052
111.199 6510 80.6846
111.316 6605 81.2712
111.432 6518 80.7341
111.549 6510 80.6846
111.665 6531 80.8146
111.782 6117 78.2113
111.898 5902 76.8245
112.015 5462 73.9053
112.132 5026 70.8943
112.248 4437 66.6108
112.365 4450 66.7083
112.482 4882 69.8713
112.599 5158 71.8192
112.716 5762 75.9078
112.832 6024 77.6144
112.949 6039 77.711
113.066 6008 77.5113
113.183 5962 77.214
113.3 5890 76.7463
113.417 5804 76.184
113.534 5840 76.4199
113.652 5488 74.081
113.769 5390 73.4166
113.886 5059 71.1266
114.003 5010 70.7814
114.12 5058 71.1196
114.238 5092 71.3583
114.355 5334 73.0342
114.472 5276 72.6361
114.589 5327 72.9863
114.707 5476 74
114.824 5500 74.162
114.942 5672 75.3127
115.059 5675 75.3326
115.176 5445 73.7902
115.294 5361 73.2189
115.411 5176 71.9444
115.529 5031 70.9295
115.646 4805 69.3181
115.764 4314 65.681
115.881 3944 62.8013
115.999 3978 63.0714
116.116 4363 66.053
116.234 4830 69.4982
116.351 5235 72.3533
116.469 5340 73.0753
116.586 5372 73.2939
116.704 5391 73.4234
116.821 5426 73.6614
116.939 5527 74.3438
117.056 5429 73.6817
117.174 5317 72.9178
117.291 5262 72.5396
117.409 4918 70.1285
117.526 4831 69.5054
117.644 4727 68.7532
117.761 4962 70.4415
117.879 5016 70.8237
117.996 5062 71.1477
118.114 5136 71.6659
118.231 5316 72.9109
118.349 5371 73.2871
118.466 5400 73.4847
118.584 5528 74.3505
118.701 5315 72.904
118.819 5342 73.089
118.936 5278 72.6498
119.053 4987 70.6187
119.171 4964 70.4557
119.288 4515 67.1937
119.405 4034 63.5138
119.523 3774 61.4329
119.64 3859 62.1208
119.757 4177 64.6297
119.875 4591 67.7569
119.992 4912 70.0857
120.109 5208 72.1665
120.226 5171 71.9097
120.343 5137 71.6729
120.46 5209 72.1734
120.578 5224 72.2772
120.695 5258 72.5121
120.812 5281 72.6705
120.929 5079 71.2671
121.046 4768 69.0507
121.163 4717 68.6804
121.279 4584 67.7052
121.396 4756 68.9638
121.513 4728 68.7605
121.63 4744 68.8767
121.747 4915 70.1071
121.863 4807 69.3325
121.98 5008 70.7672
122.097 5024 70.8802
122.213 5112 71.4983
122.33 5097 71.3933
122.446 5031 70.9295
122.563 5121 71.5612
122.679 4901 70.0071
122.795 4682 68.4251
122.912 4612 67.9117
123.028 4212 64.8999
123.144 3771 61.4085
123.26 3671 60.5888
123.377 0 1
123.493 0 1
123.609 0 1
123.725 0 1
123.84 0 1
123.956 0 1
124.072 0 1
124.188 0 1
124.303 0 1
124.419 0 1
126.852 0 1
126.968 0 1
127.083 0 1
127.199 0 1
127.315 0 1
127.431 0 1
127.547 0 1
127.663 0 1
127.779 0 1
127.895 0 1
128.011 0 1
128.127 0 1
128.243 0 1
128.359 4120 64.1872
128.476 3865 62.1691
128.592 3800 61.6441
128.708 4329 65.7951
128.825 4585 67.7126
128.941 5049 71.0563
129.058 5195 72.0763
129.174 5332 73.0205
129.291 5368 73.2666
129.408 5433 73.7089
129.524 5394 73.4439
129.641 5265 72.5603
129.758 5262 72.5396
129.875 5195 72.0763
129.992 4952 70.3704
130.108 4876 69.8284
130.225 4914 70.0999
130.342 4921 70.1498
130.459 4836 69.5414
130.576 4809 69.347
130.693 4926 70.1855
130.81 5005 70.746
130.928 5034 70.9507
131.045 5090 71.3442
131.162 5003 70.7319
131.279 5147 71.7426
131.396 5102 71.4283
131.513 4922 70.157
131.631 4852 69.6563
131.748 4617 67.9485
131.865 4386 66.2269
131.983 3932 62.7057
132.1 3640 60.3324
132.217 3967 62.9841
132.335 4421 66.4906
132.452 4638 68.1029
132.57 4870 69.7854
132.687 4770 69.0652
132.804 5122 71.5681
132.922 4946 70.3278
133.039 4990 70.6399
133.157 5004 70.739
133.274 5010 70.7814
133.392 4777 69.1158
133.509 4626 68.0147
133.627 4610 67.897
133.744 4503 67.1044
133.862 4407 66.3852
133.979 4482 66.9477
134.097 4600 67.8233
134.214 4683 68.4324
134.332 4697 68.5347
134.449 4794 69.2387
134.567 4699 68.5493
134.684 4561 67.5352
134.802 4670 68.3374
134.919 4855 69.6778
135.037 4750 68.9202
135.154 4923 70.1641
135.272 4676 68.3813
135.389 4276 65.3911
135.507 3900 62.45
135.624 3476 58.9576
135.742 3635 60.291
135.859 3923 62.6339
135.977 4390 66.2571
136.094 4537 67.3573
136.211 4789 69.2026
136.329 4943 70.3065
136.446 4858 69.6994
136.564 4859 69.7065
136.681 4915 70.1071
136.798 4729 68.7677
136.915 4709 68.6222
137.033 4635 68.0808
137.15 4516 67.2012
137.267 4327 65.7799
137.384 4371 66.1135
137.502 4439 66.6258
137.619 4414 66.4379
137.736 4548 67.4389
137.853 4483 66.9552
137.97 4380 66.1816
138.087 4656 68.2349
138.204 4592 67.7643
138.321 4618 67.9559
138.438 4791 69.217
138.555 4750 68.9202
138.672 4633 68.0661
138.788 4603 67.8454
138.905 4496 67.0522
139.022 4274 65.3758
139.139 3921 62.6179
139.255 3662 60.5145
139.372 3627 60.2246
139.488 3771 61.4085
139.605 4171 64.5833
139.721 4333 65.8255
139.838 4727 68.7532
139.954 4734 68.8041
140.071 4603 67.8454
140.187 4690 68.4836
140.303 4540 67.3795
140.419 4627 68.0221
140.535 4464 66.8132
140.652 4337 65.8559
140.768 0 1
140.884 0 1
141 0 1
141.115 0 1
141.231 0 1
141.347 0 1
141.463 0 1
141.578 0 1
141.694 0 1
144.104 0 1
144.219 0 1
144.335 0 1
144.45 0 1
144.566 0 1
144.682 0 1
144.798 0 1
144.914 0 1
145.03 0 1
145.146 3972 63.0238
145.262 3976 63.0555
145.378 3965 62.9682
145.494 3923 62.6339
145.61 3807 61.7009
145.726 3854 62.0806
145.842 3671 60.5888
145.959 3634 60.2827
146.075 3577 59.808
146.192 3506 59.2115
146.308 3590 59.9166
146.425 3712 60.9262
146.541 3692 60.7618
146.658 3708 60.8933
146.774 3804 61.6766
146.891 3763 61.3433
147.008 3673 60.6053
147.125 3751 61.2454
147.241 3843 61.9919
147.358 3626 60.2163
147.475 3549 59.5735
147.592 3361 57.9741
147.709 3174 56.3383
147.826 2937 54.1941
147.943 2896 53.8145
148.06 2983 54.6168
148.177 3259 57.0877
148.294 3559 59.6574
148.411 3680 60.663
148.528 3799 61.636
148.645 3592 59.9333
148.762 3671 60.5888
148.88 3656 60.4649
148.997 3580 59.8331
149.114 3689 60.7371
149.231 3648 60.3987
149.349 3618 60.1498
149.466 3504 59.1946
149.583 3361 57.9741
149.701 3233 56.8595
149.818 3307 57.5065
149.935 3336 57.7581
150.053 3418 58.4637
150.17 3322 57.6368
150.287 3406 58.3609
150.405 3323 57.6455
150.522 3474 58.9406
150.64 3378 58.1206
150.757 3571 59.7578
150.875 3436 58.6174
150.992 3528 59.397
151.11 3335 57.7495
151.227 3190 56.4801
151.344 3049 55.2178
151.462 2742 52.3641
151.579 2721 52.1632
151.697 2918 54.0185
151.814 3087 55.5608
151.932 3303 57.4717
152.049 3439 58.643
152.167 3578 59.8164
152.284 3614 60.1166
152.402 3534 59.4475
152.519 3482 59.0085
152.636 3525 59.3717
152.754 3653 60.4401
152.871 3458 58.8048
152.989 3408 58.3781
153.106 3300 57.4456
153.223 3214 56.6922
153.341 3225 56.7891
153.458 3234 56.8683
153.575 3369 58.0431
153.693 3283 57.2975
153.81 3319 57.6108
153.927 3341 57.8014
154.044 3341 57.8014
154.162 3468 58.8897
154.279 3390 58.2237
154.396 3510 59.2453
154.513 3444 58.6856
154.63 3604 60.0333
154.747 3424 58.515
154.864 3345 57.836
154.981 3193 56.5066
155.098 2957 54.3783
155.215 2871 53.5817
155.332 3049 55.2178
155.449 3195 56.5243
155.566 3387 58.1979
155.683 3482 59.0085
155.8 3438 58.6345
155.917 3541 59.5063
156.033 3484 59.0254
156.15 0 1
156.267 0 1
156.383 0 1
156.5 0 1
156.617 0 1
156.733 0 1
156.85 0 1
156.966 0 1
157.082 0 1
157.199 0 1
157.315 0 1
157.431 0 1
157.547 0 1
157.664 0 1
157.78 0 1
157.896 0 1
158.012 0 1
158.128 0 1
158.244 0 1
158.359 0 1
158.475 0 1
158.591 0 1
158.706 0 1
