
6.15755 0 1
6.2731 0 1
6.3887 0 1
6.50437 0 1
6.62009 0 1
6.73587 0 1
6.8517 0 1
6.96759 0 1
7.08353 0 1
7.19952 0 1
7.31557 0 1
7.43166 0 1
7.54781 0 1
7.664 0 1
7.78024 0 1
7.89653 0 1
8.01286 0 1
8.12924 0 1
8.24567 0 1
8.36213 0 1
8.47864 0 1
8.59519 0 1
8.71178 0 1
8.82841 0 1
8.94508 0 1
9.06179 0 1
9.17853 0 1
9.29531 0 1
9.41212 0 1
9.52897 0 1
9.64584 0 1
9.76276 0 1
9.8797 0 1
9.99667 0 1
10.1137 0 1
10.2307 0 1
10.3478 0 1
10.4648 0 1
10.5819 0 1
10.6991 0 1
10.8162 0 1
10.9334 0 1
11.0506 0 1
11.1678 0 1
11.285 0 1
11.4023 0 1
11.5196 0 1
11.6369 0 1
11.7542 0 1
11.8715 0 1
11.9888 0 1
12.1062 0 1
12.2235 0 1
12.3409 0 1
12.4582 0 1
12.5756 0 1
12.693 0 1
12.8104 0 1
12.9278 0 1
13.0452 0 1
13.1626 0 1
13.28 0 1
13.3974 0 1
13.5149 0 1
13.6323 0 1
13.7497 0 1
13.8671 0 1
13.9845 0 1
14.1019 0 1
14.2193 0 1
14.3367 0 1
14.4541 0 1
14.5714 0 1
14.6888 0 1
14.8062 0 1
14.9235 0 1
15.0408 2144 46.3033
15.1581 2210 47.0106
15.2755 2192 46.8188
15.3927 2337 48.3425
15.51 2436 49.3559
15.6273 2370 48.6826
15.7445 2348 48.4562
15.8617 2155 46.422
15.9789 2177 46.6583
16.0961 2078 45.5851
16.2132 1982 44.5197
16.3304 2020 44.9444
16.4475 2041 45.1774
16.5646 2009 44.8219
16.6816 2081 45.618
16.7986 2127 46.1194
16.9156 2033 45.0888
17.0326 2089 45.7056
17.1496 2053 45.31
17.2665 1934 43.9773
17.3833 1969 44.3734
17.5002 1935 43.9886
17.617 2054 45.3211
17.7338 2031 45.0666
17.8505 1961 44.2832
17.9672 2031 45.0666
18.0839 2103 45.8585
18.2005 2161 46.4866
18.3171 2148 46.3465
18.4337 2246 47.392
18.5502 2291 47.8644
18.6666 2348 48.4562
18.7831 2251 47.4447
18.8994 2147 46.3357
19.0158 2225 47.1699
19.1321 2035 45.111
19.2483 1934 43.9773
19.3645 1823 42.6966
19.4806 1742 41.7373
19.5967 1581 39.7618
19.7128 1421 37.6962
19.8288 1335 36.5377
19.9447 1225 35
20.0606 0 1
20.1764 0 1
20.2922 0 1
20.4079 0 1
20.5236 0 1
20.6392 0 1
20.7548 0 1
20.8702 0 1
23.3078 0 1
23.4233 0 1
23.539 0 1
23.6547 0 1
23.7704 0 1
23.8862 0 1
24.0021 0 1
24.118 0 1
24.234 0 1
24.35 0 1
24.4661 952 30.8545
24.5822 1019 31.9218
24.6984 1113 33.3617
24.8146 1136 33.7046
24.9309 1294 35.9722
25.0472 1360 36.8782
25.1636 1425 37.7492
25.28 1592 39.8999
25.3965 1749 41.821
25.513 1912 43.7264
25.6296 1960 44.2719
25.7462 2088 45.6946
25.8628 2153 46.4004
25.9795 2248 47.4131
26.0962 2189 46.7868
26.213 2132 46.1736
26.3298 2205 46.9574
26.4466 2021 44.9555
26.5635 2061 45.3982
26.6804 1970 44.3847
26.7973 2054 45.3211
26.9143 2000 44.7214
27.0313 2099 45.8148
27.1483 2095 45.7712
27.2653 2083 45.6399
27.3824 2174 46.6262
27.4996 2119 46.0326
27.6167 2134 46.1952
27.7339 2099 45.8148
27.8511 2039 45.1553
27.9683 1966 44.3396
28.0855 1837 42.8602
28.2028 1856 43.0813
28.3201 1737 41.6773
28.4374 1628 40.3485
28.5547 1631 40.3856
28.6721 1729 41.5812
28.7894 1790 42.3084
28.9068 1891 43.4856
29.0242 2001 44.7325
29.1416 1981 44.5084
29.259 2006 44.7884
29.3764 1976 44.4522
29.4939 2037 45.1331
29.6113 2020 44.9444
29.7288 1995 44.6654
29.8463 2049 45.2659
29.9638 1979 44.486
30.0812 1917 43.7836
30.1987 2007 44.7996
30.3162 1961 44.2832
30.4337 2027 45.0222
30.5512 2162 46.4973
30.6687 1973 44.4185
30.7862 2072 45.5192
30.9037 2130 46.1519
31.0212 2068 45.4753
31.1387 2085 45.6618
31.2562 2031 45.0666
31.3737 1917 43.7836
31.4912 1973 44.4185
31.6087 1881 43.3705
31.7262 1828 42.7551
31.8436 1764 42
31.9611 1631 40.3856
32.0785 1654 40.6694
32.1959 1625 40.3113
32.3134 1781 42.2019
32.4308 1811 42.5558
32.5482 1922 43.8406
32.6655 1977 44.4635
32.7829 1927 43.8976
32.9002 1926 43.8862
33.0176 1978 44.4747
33.1349 1913 43.7379
33.2522 2047 45.2438
33.3694 1936 44
33.4867 1937 44.0114
33.6039 1895 43.5316
33.7211 1943 44.0795
33.8383 1949 44.1475
33.9554 1909 43.6921
34.0725 1957 44.238
34.1896 1955 44.2154
34.3067 2029 45.0444
34.4237 2066 45.4533
34.5407 2083 45.6399
34.6577 2085 45.6618
34.7746 2080 45.607
34.8915 2074 45.5412
35.0084 2012 44.8553
35.1252 1917 43.7836
35.242 1891 43.4856
35.3587 1836 42.8486
35.4755 1685 41.0488
35.5921 1614 40.1746
35.7088 1501 38.7427
35.8254 1498 38.704
35.9419 1593 39.9124
36.0584 1667 40.8289
36.1749 1712 41.3763
36.2913 1734 41.6413
36.4077 1740 41.7133
36.524 1741 41.7253
36.6403 1735 41.6533
36.7565 1616 40.1995
36.8727 1615 40.1871
36.9889 1528 39.0896
37.1049 1539 39.2301
37.221 0 1
37.3369 0 1
37.4529 0 1
37.5687 0 1
37.6845 0 1
37.8003 0 1
37.916 0 1
38.0316 0 1
38.1472 0 1
40.5851 0 1
40.7008 0 1
40.8164 0 1
40.9322 0 1
41.048 0 1
41.1639 0 1
41.2798 0 1
41.3958 0 1
41.5118 0 1
41.6279 0 1
41.744 895 29.9166
41.8602 982 31.3369
41.9765 1096 33.1059
42.0928 1155 33.9853
42.2091 1323 36.3731
42.3255 1309 36.1801
42.4419 1277 35.7351
42.5584 1355 36.8103
42.675 1467 38.3014
42.7915 1670 40.8656
42.9081 1687 41.0731
43.0248 1746 41.7852
43.1415 1838 42.8719
43.2582 1839 42.8836
43.375 1908 43.6807
43.4918 1877 43.3244
43.6087 1961 44.2832
43.7256 1817 42.6263
43.8425 1818 42.638
43.9595 1867 43.2088
44.0765 1849 43
44.1935 1758 41.9285
44.3106 1678 40.9634
44.4277 1503 38.7685
44.5448 1473 38.3797
44.6619 1492 38.6264
44.7791 1536 39.1918
44.8963 1601 40.0125
45.0136 1750 41.833
45.1308 1741 41.7253
45.2481 1771 42.0833
45.3654 1813 42.5793
45.4827 1729 41.5812
45.6001 1842 42.9185
45.7174 1883 43.3935
45.8348 1911 43.715
45.9522 1789 42.2966
46.0697 1755 41.8927
46.1871 1872 43.2666
46.3046 1873 43.2782
46.422 1916 43.7721
46.5395 1952 44.1814
46.657 2052 45.299
46.7745 2031 45.0666
46.892 2039 45.1553
47.0096 2103 45.8585
47.1271 2110 45.9347
47.2446 2026 45.0111
47.3622 2078 45.5851
47.4797 2066 45.4533
47.5973 2044 45.2106
47.7149 1873 43.2782
47.8324 1877 43.3244
47.95 1781 42.2019
48.0675 1645 40.5586
48.1851 1692 41.1339
48.3027 1702 41.2553
48.4202 1699 41.2189
48.5378 1908 43.6807
48.6554 1934 43.9773
48.7729 2023 44.9778
48.8904 1932 43.9545
49.008 1932 43.9545
49.1255 1889 43.4626
49.243 1941 44.0568
49.3605 1925 43.8748
49.478 1984 44.5421
49.5955 1930 43.9318
49.713 1970 44.3847
49.8304 1994 44.6542
49.9479 2057 45.3542
50.0653 2092 45.7384
50.1827 2186 46.7547
50.3001 2213 47.0425
50.4175 2333 48.3011
50.5348 2285 47.8017
50.6521 2313 48.0937
50.7694 2267 47.613
50.8867 2429 49.2849
51.004 2218 47.0956
51.1212 2133 46.1844
51.2384 2079 45.5961
51.3556 2052 45.299
51.4727 1905 43.6463
51.5899 1754 41.8808
51.707 1755 41.8927
51.824 1837 42.8602
51.9411 2010 44.833
52.0581 2100 45.8258
52.175 2246 47.392
52.2919 2130 46.1519
52.4088 2239 47.3181
52.5257 2289 47.8435
52.6425 2193 46.8295
52.7593 2203 46.9361
52.876 2320 48.1664
52.9927 2273 47.676
53.1094 2161 46.4866
53.226 2166 46.5403
53.3426 2177 46.6583
53.4591 2133 46.1844
53.5756 2194 46.8402
53.692 2217 47.085
53.8084 2168 46.5618
53.9248 2096 45.7821
54.0411 2008 44.8107
54.1573 1992 44.6318
54.2735 0 1
54.3896 0 1
54.5057 0 1
54.6217 0 1
54.7377 0 1
54.8537 0 1
54.9695 0 1
55.0853 0 1
55.2011 0 1
55.3168 0 1
55.4324 0 1
57.824 0 1
57.9396 0 1
58.0553 0 1
58.1711 0 1
58.2869 0 1
58.4028 0 1
58.5187 0 1
58.6347 0 1
58.7508 0 1
58.8669 0 1
58.983 1837 42.8602
59.0992 2008 44.8107
59.2155 2301 47.9687
59.3318 2596 50.951
59.4482 2754 52.4786
59.5646 3004 54.8088
59.681 3085 55.5428
59.7975 3198 56.5509
59.9141 3241 56.9298
60.0306 3086 55.5518
60.1473 3117 55.8301
60.2639 3022 54.9727
60.3807 2803 52.9434
60.4974 2853 53.4135
60.6142 3056 55.2811
60.731 3305 57.4891
60.8479 3462 58.8388
60.9648 3696 60.7947
61.0818 3739 61.1474
61.1987 3834 61.9193
61.3158 3759 61.3107
61.4328 3825 61.8466
61.5499 3734 61.1065
61.667 3795 61.6036
61.7841 3776 61.4492
61.9013 3741 61.1637
62.0185 3826 61.8547
62.1357 3755 61.2781
62.253 3872 62.2254
62.3702 4060 63.7181
62.4875 4150 64.4205
62.6049 4129 64.2573
62.7222 4311 65.6582
62.8396 4207 64.8614
62.9569 4400 66.3325
63.0743 4368 66.0908
63.1918 4234 65.0692
63.3092 4107 64.0859
63.4267 3983 63.111
63.5441 3719 60.9836
63.6616 3467 58.8812
63.7791 3195 56.5243
63.8966 3023 54.9818
64.0142 3231 56.8419
64.1317 3340 57.7927
64.2492 3569 59.7411
64.3668 3884 62.3217
64.4843 3968 62.9921
64.6019 4026 63.4508
64.7195 4097 64.0078
64.837 4183 64.6761
64.9546 4132 64.2806
65.0722 4071 63.8044
65.1898 4120 64.1872
65.3074 4100 64.0312
65.4249 4084 63.9062
65.5425 4097 64.0078
65.6601 3939 62.7615
65.7777 3990 63.1664
65.8952 4301 65.582
66.0128 4222 64.9769
66.1304 4319 65.7191
66.2479 4395 66.2948
66.3655 4568 67.587
66.483 4502 67.0969
66.6005 4630 68.0441
66.718 4631 68.0515
66.8355 4374 66.1362
66.953 4120 64.1872
67.0705 4132 64.2806
67.1879 3856 62.0967
67.3054 3431 58.5747
67.4228 3043 55.1634
67.5402 2958 54.3875
67.6576 3060 55.3173
67.7749 3467 58.8812
67.8923 3719 60.9836
68.0096 4135 64.304
68.1269 4076 63.8436
68.2442 4182 64.6684
68.3614 4249 65.1844
68.4787 4248 65.1767
68.5958 4231 65.0461
68.713 4176 64.622
68.8302 4219 64.9538
68.9473 4009 63.3167
69.0643 4026 63.4508
69.1814 3981 63.0952
69.2984 4003 63.2693
69.4154 3987 63.1427
69.5323 4040 63.561
69.6492 4174 64.6065
69.7661 4194 64.7611
69.8829 4275 65.3835
69.9997 4245 65.1537
70.1165 4265 65.307
70.2332 4169 64.5678
70.3499 4046 63.6082
70.4665 3893 62.3939
70.5831 3577 59.808
70.6996 3383 58.1636
70.8161 3102 55.6956
70.9326 2596 50.951
71.049 2142 46.2817
71.1653 1762 41.9762
71.2817 1626 40.3237
71.3979 1586 39.8246
71.5141 1580 39.7492
71.6303 1585 39.8121
71.7464 1432 37.8418
71.8624 0 1
71.9784 0 1
72.0944 0 1
72.2102 0 1
72.3261 0 1
72.4418 0 1
72.5575 0 1
72.6732 0 1
75.1054 0 1
75.2209 0 1
75.3365 0 1
75.4521 0 1
75.5678 0 1
75.6835 0 1
75.7993 0 1
75.9151 0 1
76.031 0 1
76.147 2138 46.2385
76.263 2209 47
76.3791 2187 46.7654
76.4952 2262 47.5605
76.6113 2343 48.4045
76.7276 2593 50.9215
76.8438 3011 54.8726
76.9601 3334 57.7408
77.0765 3500 59.1608
77.1929 3615 60.1249
77.3093 3723 61.0164
77.4258 3761 61.327
77.5423 3611 60.0916
77.6589 3718 60.9754
77.7755 3732 61.0901
77.8921 3709 60.9016
78.0088 3616 60.1332
78.1256 3604 60.0333
78.2423 3584 59.8665
78.3591 3519 59.3212
78.4759 3439 58.643
78.5928 3712 60.9262
78.7097 3778 61.4654
78.8266 3717 60.9672
78.9436 4025 63.4429
79.0606 4047 63.616
79.1776 4149 64.4127
79.2946 4102 64.0469
79.4117 4114 64.1405
79.5288 4056 63.6867
79.6459 3852 62.0645
79.7631 3498 59.1439
79.8802 3220 56.745
79.9974 2936 54.1849
80.1147 2633 51.3128
80.2319 2612 51.1077
80.3491 2929 54.1202
80.4664 3214 56.6922
80.5837 3496 59.127
80.701 3721 61
80.8183 3808 61.709
80.9357 3838 61.9516
81.053 3927 62.6658
81.1704 3912 62.546
81.2877 3981 63.0952
81.4051 3999 63.2376
81.5225 3915 62.57
81.6399 3741 61.1637
81.7573 3805 61.6847
81.8747 3615 60.1249
81.9922 3680 60.663
82.1096 3788 61.5467
82.227 3826 61.8547
82.3444 3853 62.0725
82.4619 4054 63.671
82.5793 4112 64.1249
82.6967 4278 65.4064
82.8142 4219 64.9538
82.9316 4377 66.1589
83.049 4366 66.0757
83.1664 4143 64.3661
83.2838 3955 62.8888
83.4012 3841 61.9758
83.5186 3461 58.8303
83.636 3082 55.5158
83.7534 2761 52.5452
83.8708 2651 51.4879
83.9881 2859 53.4696
84.1055 3132 55.9643
84.2228 3521 59.338
84.3401 3725 61.0328
84.4575 3973 63.0317
84.5747 4092 63.9687
84.692 4020 63.4035
84.8093 4109 64.1015
84.9265 3991 63.1744
85.0437 3900 62.45
85.1609 3852 62.0645
85.2781 3812 61.7414
85.3952 3664 60.531
85.5123 3677 60.6383
85.6294 3840 61.9677
85.7465 3896 62.4179
85.8636 3979 63.0793
85.9806 4070 63.7966
86.0976 4314 65.681
86.2145 4253 65.215
86.3315 4366 66.0757
86.4484 4227 65.0154
86.5652 4267 65.3223
86.682 4237 65.0922
86.7988 4136 64.3117
86.9156 3931 62.6977
87.0323 3634 60.2827
87.149 3328 57.6888
87.2657 2885 53.7122
87.3823 2700 51.9615
87.4988 2763 52.5642
87.6154 2990 54.6809
87.7318 3198 56.5509
87.8483 3451 58.7452
87.9647 3519 59.3212
88.081 3503 59.1861
88.1973 3430 58.5662
88.3136 3385 58.1808
88.4298 2973 54.5252
88.546 2620 51.1859
88.6621 2259 47.5289
88.7781 1911 43.715
88.8942 0 1
89.0101 0 1
89.126 0 1
89.2419 0 1
89.3577 0 1
89.4734 0 1
89.5891 0 1
89.7047 0 1
89.8203 0 1
89.9358 0 1
92.3269 0 1
92.4424 0 1
92.558 0 1
92.6736 0 1
92.7893 0 1
92.905 0 1
93.0208 0 1
93.1366 0 1
93.2525 0 1
93.3685 0 1
93.4845 0 1
93.6005 2752 52.4595
93.7167 3086 55.5518
93.8328 3363 57.9914
93.949 3513 59.2706
94.0653 3813 61.7495
94.1816 3897 62.426
94.2979 3911 62.538
94.4143 3914 62.562
94.5307 4091 63.9609
94.6472 3955 62.8888
94.7637 4014 63.3561
94.8803 4139 64.3351
94.9969 4094 63.9844
95.1135 4444 66.6633
95.2302 4270 65.3452
95.3469 4464 66.8132
95.4637 4485 66.9701
95.5805 4535 67.3424
95.6973 4585 67.7126
95.8142 4435 66.5958
95.9311 4200 64.8074
96.048 3953 62.8729
96.1649 3819 61.7981
96.2819 3546 59.5483
96.3989 3210 56.6569
96.516 3124 55.8928
96.633 3174 56.3383
96.7501 3285 57.3149
96.8673 3634 60.2827
96.9844 3878 62.2736
97.1016 4011 63.3325
97.2188 4241 65.123
97.336 4259 65.261
97.4532 4279 65.4141
97.5704 4182 64.6684
97.6877 4056 63.6867
97.805 4216 64.9307
97.9223 3947 62.8252
98.0396 4027 63.4586
98.1569 3929 62.6817
98.2743 3937 62.7455
98.3916 4009 63.3167
98.509 4102 64.0469
98.6264 4210 64.8845
98.7438 4473 66.8805
98.8612 4498 67.0671
98.9786 4659 68.2569
99.096 4715 68.6659
99.2134 4567 67.5796
99.3308 4592 67.7643
99.4482 4509 67.1491
99.5656 4220 64.9615
99.6831 4074 63.8279
99.8005 3897 62.426
99.9179 3505 59.203
100.035 3421 58.4893
100.153 3358 57.9483
100.27 3531 59.4222
100.388 3782 61.498
100.505 4138 64.3273
100.622 4130 64.2651
100.74 4228 65.0231
100.857 4193 64.7534
100.975 4460 66.7832
101.092 4280 65.4217
101.209 4140 64.3428
101.327 4141 64.3506
101.444 4064 63.7495
101.561 3989 63.1585
101.679 4094 63.9844
101.796 3996 63.2139
101.913 4033 63.5059
102.03 4276 65.3911
102.148 4317 65.7039
102.265 4562 67.5426
102.382 4498 67.0671
102.499 4699 68.5493
102.616 4648 68.1762
102.733 4733 68.7968
102.851 4608 67.8823
102.968 4655 68.2276
103.085 4260 65.2687
103.202 4104 64.0625
103.319 3933 62.7136
103.436 3619 60.1581
103.552 3388 58.2065
103.669 3336 57.7581
103.786 3606 60.05
103.903 3879 62.2816
104.02 4005 63.2851
104.137 4217 64.9384
104.253 4321 65.7343
104.37 4227 65.0154
104.487 4381 66.1891
104.603 4200 64.8074
104.72 4131 64.2729
104.836 3986 63.1348
104.953 3919 62.6019
105.069 3655 60.4566
105.186 3605 60.0417
105.302 3439 58.643
105.418 3303 57.4717
105.535 3323 57.6455
105.651 3200 56.5685
105.767 3089 55.5788
105.883 2834 53.2353
105.999 2515 50.1498
106.115 0 1
106.231 0 1
106.347 0 1
106.463 0 1
106.579 0 1
106.694 0 1
106.81 0 1
106.926 0 1
107.041 0 1
107.157 0 1
109.576 0 1
109.692 0 1
109.807 0 1
109.923 0 1
110.039 0 1
110.155 0 1
110.27 0 1
110.386 0 1
110.502 0 1
110.618 2017 44.911
110.735 2417 49.163
110.851 2735 52.2972
110.967 3035 55.0908
111.083 3355 57.9224
111.199 3647 60.3904
111.316 3805 61.6847
111.432 3921 62.6179
111.549 4043 63.5846
111.665 4198 64.792
111.782 3881 62.2977
111.898 3871 62.2174
112.015 3618 60.1498
112.132 3338 57.7754
112.248 3063 55.3444
112.365 3075 55.4527
112.482 3290 57.3585
112.599 3597 59.975
112.716 3761 61.327
112.832 3938 62.7535
112.949 3901 62.458
113.066 3897 62.426
113.183 3819 61.7981
113.3 3905 62.49
113.417 3954 62.8808
113.534 3773 61.4248
113.652 3561 59.6741
113.769 3460 58.8218
113.886 3446 58.7026
114.003 3451 58.7452
114.12 3633 60.2744
114.238 3797 61.6198
114.355 3899 62.442
114.472 4009 63.3167
114.589 4091 63.9609
114.707 4089 63.9453
114.824 4222 64.9769
114.942 4247 65.169
115.059 4156 64.467
115.176 4063 63.7417
115.294 3924 62.6418
115.411 3724 61.0246
115.529 3577 59.808
115.646 3280 57.2713
115.764 3071 55.4166
115.881 3022 54.9727
115.999 3335 57.7495
116.116 3428 58.5491
116.234 3589 59.9083
116.351 3666 60.5475
116.469 3749 61.2291
116.586 3772 61.4166
116.704 3791 61.5711
116.821 3703 60.8523
116.939 3548 59.5651
117.056 3610 60.0833
117.174 3377 58.112
117.291 3496 59.127
117.409 3299 57.4369
117.526 3437 58.6259
117.644 3481 59
117.761 3662 60.5145
117.879 3740 61.1555
117.996 3737 61.131
118.114 3996 63.2139
118.231 3867 62.1852
118.349 4021 63.4114
118.466 3873 62.2334
118.584 3976 63.0555
118.701 4037 63.5374
118.819 3781 61.4898
118.936 3580 59.8331
119.053 3452 58.7537
119.171 3303 57.4717
119.288 3086 55.5518
119.405 2995 54.7266
119.523 3027 55.0182
119.64 3053 55.254
119.757 3396 58.2752
119.875 3448 58.7197
119.992 3353 57.9051
120.109 3594 59.95
120.226 3536 59.4643
120.343 3432 58.5833
120.46 3590 59.9166
120.578 3448 58.7197
120.695 3414 58.4294
120.812 3302 57.463
120.929 3138 56.0179
121.046 3220 56.745
121.163 3175 56.3471
121.279 3143 56.0625
121.396 3201 56.5774
121.513 3341 57.8014
121.63 3313 57.5587
121.747 3224 56.7803
121.863 3419 58.4722
121.98 3358 57.9483
122.097 3355 57.9224
122.213 3281 57.28
122.33 3126 55.9106
122.446 2925 54.0833
122.563 2700 51.9615
122.679 2512 50.1199
122.795 2196 46.8615
122.912 1844 42.9418
123.028 1658 40.7185
123.144 1566 39.5727
123.26 1494 38.6523
123.377 0 1
123.493 0 1
123.609 0 1
123.725 0 1
123.84 0 1
123.956 0 1
124.072 0 1
124.188 0 1
124.303 0 1
124.419 0 1
126.852 0 1
126.968 0 1
127.083 0 1
127.199 0 1
127.315 0 1
127.431 0 1
127.547 0 1
127.663 0 1
127.779 0 1
127.895 0 1
128.011 0 1
128.127 0 1
128.243 0 1
128.359 3335 57.7495
128.476 3205 56.6127
128.592 3343 57.8187
128.708 3375 58.0948
128.825 3562 59.6825
128.941 3893 62.3939
129.058 3843 61.9919
129.174 3906 62.498
129.291 3751 61.2454
129.408 3854 62.0806
129.524 3841 61.9758
129.641 3947 62.8252
129.758 3711 60.918
129.875 3558 59.649
129.992 3485 59.0339
130.108 3459 58.8133
130.225 3388 58.2065
130.342 3530 59.4138
130.459 3732 61.0901
130.576 3987 63.1427
130.693 4061 63.726
130.81 4025 63.4429
130.928 3948 62.8331
131.045 4075 63.8357
131.162 4005 63.2851
131.279 4052 63.6553
131.396 4079 63.867
131.513 4019 63.3956
131.631 4008 63.3088
131.748 3757 61.2944
131.865 3590 59.9166
131.983 3384 58.1722
132.1 3345 57.836
132.217 3520 59.3296
132.335 3641 60.3407
132.452 3906 62.498
132.57 3937 62.7455
132.687 3811 61.7333
132.804 3830 61.887
132.922 3939 62.7615
133.039 3835 61.9274
133.157 3845 62.0081
133.274 3691 60.7536
133.392 3641 60.3407
133.509 3592 59.9333
133.627 3423 58.5064
133.744 3438 58.6345
133.862 3453 58.7622
133.979 3691 60.7536
134.097 3872 62.2254
134.214 4052 63.6553
134.332 4050 63.6396
134.449 4131 64.2729
134.567 3940 62.7694
134.684 3923 62.6339
134.802 3978 63.0714
134.919 4023 63.4271
135.037 3951 62.857
135.154 3860 62.1289
135.272 3893 62.3939
135.389 3717 60.9672
135.507 3418 58.4637
135.624 3418 58.4637
135.742 3484 59.0254
135.859 3707 60.8851
135.977 3860 62.1289
136.094 3948 62.8331
136.211 3928 62.6738
136.329 3836 61.9355
136.446 3822 61.8223
136.564 3850 62.0484
136.681 3776 61.4492
136.798 3776 61.4492
136.915 3671 60.5888
137.033 3418 58.4637
137.15 3331 57.7148
137.267 3482 59.0085
137.384 3391 58.2323
137.502 3448 58.7197
137.619 3726 61.041
137.736 3971 63.0159
137.853 3819 61.7981
137.97 3880 62.2896
138.087 3822 61.8223
138.204 3757 61.2944
138.321 3855 62.0886
138.438 3771 61.4085
138.555 3806 61.6928
138.672 3866 62.1772
138.788 3609 60.075
138.905 3392 58.2409
139.022 3273 57.2101
139.139 3019 54.9454
139.255 2857 53.4509
139.372 2866 53.535
139.488 2889 53.7494
139.605 2944 54.2586
139.721 2782 52.7447
139.838 2719 52.144
139.954 2490 49.8999
140.071 2190 46.7974
140.187 2102 45.8476
140.303 1935 43.9886
140.419 1925 43.8748
140.535 1748 41.8091
140.652 1609 40.1123
140.768 0 1
140.884 0 1
141 0 1
141.115 0 1
141.231 0 1
141.347 0 1
141.463 0 1
141.578 0 1
141.694 0 1
144.104 0 1
144.219 0 1
144.335 0 1
144.45 0 1
144.566 0 1
144.682 0 1
144.798 0 1
144.914 0 1
145.03 0 1
145.146 2722 52.1728
145.262 2834 53.2353
145.378 2793 52.8488
145.494 2806 52.9717
145.61 2815 53.0566
145.726 2787 52.792
145.842 2668 51.6527
145.959 2628 51.264
146.075 2670 51.672
146.192 2644 51.4198
146.308 2647 51.449
146.425 2920 54.037
146.541 2838 53.2729
146.658 2877 53.6377
146.774 2955 54.3599
146.891 2944 54.2586
147.008 2883 53.6936
147.125 2848 53.3667
147.241 2945 54.2679
147.358 2952 54.3323
147.475 2944 54.2586
147.592 2978 54.5711
147.709 2814 53.0471
147.826 2810 53.0094
147.943 2679 51.7591
148.06 2564 50.636
148.177 2614 51.1273
148.294 2797 52.8867
148.411 2838 53.2729
148.528 2942 54.2402
148.645 2948 54.2955
148.762 2900 53.8516
148.88 2945 54.2679
148.997 2899 53.8424
149.114 2876 53.6284
149.231 2890 53.7587
149.349 2807 52.9811
149.466 2647 51.449
149.583 2585 50.8429
149.701 2497 49.97
149.818 2533 50.3289
149.935 2490 49.8999
150.053 2690 51.8652
150.17 2767 52.6023
150.287 2828 53.1789
150.405 2845 53.3385
150.522 2866 53.535
150.64 2833 53.2259
150.757 2920 54.037
150.875 2872 53.591
150.992 2970 54.4977
151.11 3010 54.8635
151.227 2817 53.0754
151.344 2770 52.6308
151.462 2776 52.6878
151.579 2588 50.8724
151.697 2467 49.6689
151.814 2586 50.8527
151.932 2745 52.3927
152.049 2787 52.792
152.167 2767 52.6023
152.284 2861 53.4883
152.402 2787 52.792
152.519 2851 53.3948
152.636 2755 52.4881
152.754 2730 52.2494
152.871 2760 52.5357
152.989 2564 50.636
153.106 2549 50.4876
153.223 2466 49.6588
153.341 2485 49.8498
153.458 2408 49.0714
153.575 2404 49.0306
153.693 2539 50.3885
153.81 2607 51.0588
153.927 2680 51.7687
154.044 2577 50.7642
154.162 2609 51.0784
154.279 2654 51.517
154.396 2790 52.8205
154.513 2838 53.2729
154.63 2639 51.3712
154.747 2793 52.8488
154.864 2718 52.1344
154.981 2647 51.449
155.098 2497 49.97
155.215 2392 48.9081
155.332 2467 49.6689
155.449 2366 48.6415
155.566 2538 50.3786
155.683 2572 50.7149
155.8 2504 50.04
155.917 2489 49.8899
156.033 2391 48.8979
156.15 0 1
156.267 0 1
156.383 0 1
156.5 0 1
156.617 0 1
156.733 0 1
156.85 0 1
156.966 0 1
157.082 0 1
157.199 0 1
157.315 0 1
157.431 0 1
157.547 0 1
157.664 0 1
157.78 0 1
157.896 0 1
158.012 0 1
158.128 0 1
158.244 0 1
158.359 0 1
158.475 0 1
158.591 0 1
158.706 0 1
