
6.15755 0 1
6.2731 0 1
6.3887 0 1
6.50437 0 1
6.62009 0 1
6.73587 0 1
6.8517 0 1
6.96759 0 1
7.08353 0 1
7.19952 0 1
7.31557 0 1
7.43166 0 1
7.54781 0 1
7.664 0 1
7.78024 0 1
7.89653 0 1
8.01286 0 1
8.12924 0 1
8.24567 0 1
8.36213 0 1
8.47864 0 1
8.59519 0 1
8.71178 0 1
8.82841 0 1
8.94508 0 1
9.06179 0 1
9.17853 0 1
9.29531 0 1
9.41212 0 1
9.52897 0 1
9.64584 0 1
9.76276 0 1
9.8797 0 1
9.99667 0 1
10.1137 0 1
10.2307 0 1
10.3478 0 1
10.4648 0 1
10.5819 0 1
10.6991 0 1
10.8162 0 1
10.9334 0 1
11.0506 0 1
11.1678 0 1
11.285 0 1
11.4023 0 1
11.5196 0 1
11.6369 0 1
11.7542 0 1
11.8715 0 1
11.9888 0 1
12.1062 0 1
12.2235 0 1
12.3409 0 1
12.4582 0 1
12.5756 0 1
12.693 0 1
12.8104 0 1
12.9278 0 1
13.0452 0 1
13.1626 0 1
13.28 0 1
13.3974 0 1
13.5149 0 1
13.6323 0 1
13.7497 0 1
13.8671 0 1
13.9845 0 1
14.1019 0 1
14.2193 0 1
14.3367 0 1
14.4541 0 1
14.5714 0 1
14.6888 0 1
14.8062 0 1
14.9235 0 1
15.0408 1451 38.092
15.1581 1503 38.7685
15.2755 1577 39.7115
15.3927 1616 40.1995
15.51 1660 40.7431
15.6273 1621 40.2616
15.7445 1694 41.1582
15.8617 1703 41.2674
15.9789 1664 40.7922
16.0961 1573 39.6611
16.2132 1656 40.694
16.3304 1544 39.2938
16.4475 1685 41.0488
16.5646 1720 41.4729
16.6816 1873 43.2782
16.7986 1907 43.6692
16.9156 1950 44.1588
17.0326 1870 43.2435
17.1496 1899 43.5775
17.2665 1912 43.7264
17.3833 1987 44.5758
17.5002 1884 43.4051
17.617 1789 42.2966
17.7338 1682 41.0122
17.8505 1645 40.5586
17.9672 1684 41.0366
18.0839 1709 41.3401
18.2005 1712 41.3763
18.3171 1730 41.5933
18.4337 1812 42.5676
18.5502 1826 42.7317
18.6666 1880 43.359
18.7831 1885 43.4166
18.8994 1801 42.4382
19.0158 1849 43
19.1321 1769 42.0595
19.2483 1713 41.3884
19.3645 1639 40.4846
19.4806 1483 38.5097
19.5967 1436 37.8946
19.7128 1347 36.7015
19.8288 1218 34.8999
19.9447 1223 34.9714
20.0606 0 1
20.1764 0 1
20.2922 0 1
20.4079 0 1
20.5236 0 1
20.6392 0 1
20.7548 0 1
20.8702 0 1
23.3078 0 1
23.4233 0 1
23.539 0 1
23.6547 0 1
23.7704 0 1
23.8862 0 1
24.0021 0 1
24.118 0 1
24.234 0 1
24.35 0 1
24.4661 835 28.8964
24.5822 871 29.5127
24.6984 1056 32.4962
24.8146 1190 34.4964
24.9309 1234 35.1283
25.0472 1359 36.8646
25.1636 1505 38.7943
25.28 1540 39.2428
25.3965 1775 42.1307
25.513 1777 42.1545
25.6296 1919 43.8064
25.7462 2008 44.8107
25.8628 1994 44.6542
25.9795 2054 45.3211
26.0962 1922 43.8406
26.213 1930 43.9318
26.3298 1833 42.8135
26.4466 1884 43.4051
26.5635 1736 41.6653
26.6804 1697 41.1947
26.7973 1776 42.1426
26.9143 1718 41.4488
27.0313 1863 43.1625
27.1483 1873 43.2782
27.2653 1849 43
27.3824 1940 44.0454
27.4996 1846 42.9651
27.6167 1953 44.1928
27.7339 1907 43.6692
27.8511 1831 42.7902
27.9683 1695 41.1704
28.0855 1761 41.9643
28.2028 1657 40.7063
28.3201 1670 40.8656
28.4374 1682 41.0122
28.5547 1604 40.05
28.6721 1705 41.2916
28.7894 1856 43.0813
28.9068 1922 43.8406
29.0242 1829 42.7668
29.1416 1937 44.0114
29.259 2029 45.0444
29.3764 2013 44.8665
29.4939 1972 44.4072
29.6113 1924 43.8634
29.7288 1834 42.8252
29.8463 1782 42.2137
29.9638 1735 41.6533
30.0812 1613 40.1622
30.1987 1652 40.6448
30.3162 1680 40.9878
30.4337 1733 41.6293
30.5512 1841 42.9069
30.6687 1871 43.2551
30.7862 1855 43.0697
30.9037 1833 42.8135
31.0212 1858 43.1045
31.1387 1839 42.8836
31.2562 1730 41.5933
31.3737 1764 42
31.4912 1711 41.3642
31.6087 1740 41.7133
31.7262 1667 40.8289
31.8436 1608 40.0999
31.9611 1612 40.1497
32.0785 1606 40.0749
32.1959 1641 40.5093
32.3134 1705 41.2916
32.4308 1818 42.638
32.5482 1849 43
32.6655 1875 43.3013
32.7829 1828 42.7551
32.9002 1899 43.5775
33.0176 1929 43.9204
33.1349 1842 42.9185
33.2522 1850 43.0116
33.3694 1715 41.4126
33.4867 1615 40.1871
33.6039 1590 39.8748
33.7211 1548 39.3446
33.8383 1532 39.1408
33.9554 1593 39.9124
34.0725 1660 40.7431
34.1896 1661 40.7554
34.3067 1687 41.0731
34.4237 1817 42.6263
34.5407 1719 41.4608
34.6577 1782 42.2137
34.7746 1752 41.8569
34.8915 1768 42.0476
35.0084 1732 41.6173
35.1252 1644 40.5463
35.242 1625 40.3113
35.3587 1644 40.5463
35.4755 1534 39.1663
35.5921 1565 39.5601
35.7088 1538 39.2173
35.8254 1473 38.3797
35.9419 1621 40.2616
36.0584 1510 38.8587
36.1749 1607 40.0874
36.2913 1586 39.8246
36.4077 1693 41.1461
36.524 1645 40.5586
36.6403 1535 39.1791
36.7565 1542 39.2683
36.8727 1375 37.081
36.9889 1318 36.3043
37.1049 1276 35.7211
37.221 0 1
37.3369 0 1
37.4529 0 1
37.5687 0 1
37.6845 0 1
37.8003 0 1
37.916 0 1
38.0316 0 1
38.1472 0 1
40.5851 0 1
40.7008 0 1
40.8164 0 1
40.9322 0 1
41.048 0 1
41.1639 0 1
41.2798 0 1
41.3958 0 1
41.5118 0 1
41.6279 0 1
41.744 876 29.5973
41.8602 999 31.607
41.9765 1028 32.0624
42.0928 1120 33.4664
42.2091 1081 32.8786
42.3255 1010 31.7805
42.4419 1006 31.7175
42.5584 1109 33.3017
42.675 1142 33.7935
42.7915 1227 35.0286
42.9081 1310 36.1939
43.0248 1324 36.3868
43.1415 1416 37.6298
43.2582 1423 37.7227
43.375 1450 38.0789
43.4918 1427 37.7757
43.6087 1462 38.2361
43.7256 1402 37.4433
43.8425 1370 37.0135
43.9595 1347 36.7015
44.0765 1323 36.3731
44.1935 1349 36.7287
44.3106 1278 35.7491
44.4277 1312 36.2215
44.5448 1202 34.6699
44.6619 1290 35.9166
44.7791 1409 37.5366
44.8963 1390 37.2827
45.0136 1411 37.5633
45.1308 1481 38.4838
45.2481 1541 39.2556
45.3654 1550 39.37
45.4827 1500 38.7298
45.6001 1506 38.8072
45.7174 1432 37.8418
45.8348 1354 36.7967
45.9522 1306 36.1386
46.0697 1267 35.5949
46.1871 1154 33.9706
46.3046 1214 34.8425
46.422 1281 35.7911
46.5395 1385 37.2156
46.657 1370 37.0135
46.7745 1394 37.3363
46.892 1467 38.3014
47.0096 1533 39.1535
47.1271 1528 39.0896
47.2446 1474 38.3927
47.3622 1440 37.9473
47.4797 1464 38.2623
47.5973 1416 37.6298
47.7149 1449 38.0657
47.8324 1402 37.4433
47.95 1291 35.9305
48.0675 1241 35.2278
48.1851 1303 36.0971
48.3027 1320 36.3318
48.4202 1326 36.4143
48.5378 1531 39.128
48.6554 1524 39.0384
48.7729 1574 39.6737
48.8904 1458 38.1838
49.008 1517 38.9487
49.1255 1503 38.7685
49.243 1480 38.4708
49.3605 1324 36.3868
49.478 1250 35.3553
49.5955 1186 34.4384
49.713 1126 33.5559
49.8304 1273 35.6791
49.9479 1282 35.805
50.0653 1336 36.5513
50.1827 1458 38.1838
50.3001 1414 37.6032
50.4175 1460 38.2099
50.5348 1478 38.4448
50.6521 1539 39.2301
50.7694 1617 40.2119
50.8867 1576 39.6989
51.004 1565 39.5601
51.1212 1519 38.9744
51.2384 1514 38.9102
51.3556 1450 38.0789
51.4727 1400 37.4166
51.5899 1347 36.7015
51.707 1332 36.4966
51.824 1501 38.7427
51.9411 1574 39.6737
52.0581 1640 40.4969
52.175 1788 42.2847
52.2919 1844 42.9418
52.4088 1786 42.2611
52.5257 1822 42.6849
52.6425 1886 43.4281
52.7593 1953 44.1928
52.876 1868 43.2204
52.9927 1713 41.3884
53.1094 1645 40.5586
53.226 1599 39.9875
53.3426 1605 40.0625
53.4591 1483 38.5097
53.5756 1574 39.6737
53.692 1538 39.2173
53.8084 1627 40.3361
53.9248 1525 39.0512
54.0411 1384 37.2022
54.1573 1335 36.5377
54.2735 0 1
54.3896 0 1
54.5057 0 1
54.6217 0 1
54.7377 0 1
54.8537 0 1
54.9695 0 1
55.0853 0 1
55.2011 0 1
55.3168 0 1
55.4324 0 1
57.824 0 1
57.9396 0 1
58.0553 0 1
58.1711 0 1
58.2869 0 1
58.4028 0 1
58.5187 0 1
58.6347 0 1
58.7508 0 1
58.8669 0 1
58.983 1199 34.6266
59.0992 1407 37.51
59.2155 1380 37.1484
59.3318 1559 39.4842
59.4482 1637 40.4599
59.5646 1689 41.0974
59.681 1678 40.9634
59.7975 1652 40.6448
59.9141 1688 41.0853
60.0306 1669 40.8534
60.1473 1661 40.7554
60.2639 1550 39.37
60.3807 1559 39.4842
60.4974 1652 40.6448
60.6142 1789 42.2966
60.731 1777 42.1545
60.8479 1921 43.8292
60.9648 1940 44.0454
61.0818 1917 43.7836
61.1987 1932 43.9545
61.3158 1956 44.2267
61.4328 1789 42.2966
61.5499 1657 40.7063
61.667 1641 40.5093
61.7841 1441 37.9605
61.9013 1374 37.0675
62.0185 1447 38.0395
62.1357 1530 39.1152
62.253 1659 40.7308
62.3702 1704 41.2795
62.4875 1716 41.4246
62.6049 1858 43.1045
62.7222 1825 42.72
62.8396 1795 42.3674
62.9569 1907 43.6692
63.0743 1875 43.3013
63.1918 1904 43.6348
63.3092 1781 42.2019
63.4267 1710 41.3521
63.5441 1687 41.0731
63.6616 1600 40
63.7791 1567 39.5854
63.8966 1513 38.8973
64.0142 1508 38.833
64.1317 1575 39.6863
64.2492 1749 41.821
64.3668 1774 42.1189
64.4843 1865 43.1856
64.6019 1939 44.0341
64.7195 1894 43.5201
64.837 1837 42.8602
64.9546 1838 42.8719
65.0722 1776 42.1426
65.1898 1682 41.0122
65.3074 1470 38.3406
65.4249 1370 37.0135
65.5425 1396 37.3631
65.6601 1462 38.2361
65.7777 1457 38.1707
65.8952 1557 39.4588
66.0128 1693 41.1461
66.1304 1716 41.4246
66.2479 1710 41.3521
66.3655 1745 41.7732
66.483 1751 41.845
66.6005 1838 42.8719
66.718 1798 42.4028
66.8355 1836 42.8486
66.953 1770 42.0714
67.0705 1723 41.509
67.1879 1649 40.6079
67.3054 1575 39.6863
67.4228 1441 37.9605
67.5402 1373 37.054
67.6576 1412 37.5766
67.7749 1459 38.1969
67.8923 1732 41.6173
68.0096 1723 41.509
68.1269 1806 42.4971
68.2442 1795 42.3674
68.3614 1818 42.638
68.4787 1689 41.0974
68.5958 1720 41.4729
68.713 1783 42.2256
68.8302 1568 39.598
68.9473 1487 38.5616
69.0643 1370 37.0135
69.1814 1264 35.5528
69.2984 1320 36.3318
69.4154 1493 38.6394
69.5323 1523 39.0256
69.6492 1599 39.9875
69.7661 1676 40.939
69.8829 1734 41.6413
69.9997 1722 41.497
70.1165 1636 40.4475
70.2332 1539 39.2301
70.3499 1521 39
70.4665 1509 38.8458
70.5831 1405 37.4833
70.6996 1353 36.7831
70.8161 1196 34.5832
70.9326 1107 33.2716
71.049 1015 31.8591
71.1653 831 28.8271
71.2817 746 27.313
71.3979 703 26.5141
71.5141 653 25.5539
71.6303 606 24.6171
71.7464 601 24.5153
71.8624 0 1
71.9784 0 1
72.0944 0 1
72.2102 0 1
72.3261 0 1
72.4418 0 1
72.5575 0 1
72.6732 0 1
75.1054 0 1
75.2209 0 1
75.3365 0 1
75.4521 0 1
75.5678 0 1
75.6835 0 1
75.7993 0 1
75.9151 0 1
76.031 0 1
76.147 1103 33.2114
76.263 1087 32.9697
76.3791 1166 34.1467
76.4952 1185 34.4238
76.6113 1214 34.8425
76.7276 1243 35.2562
76.8438 1412 37.5766
76.9601 1492 38.6264
77.0765 1526 39.064
77.1929 1621 40.2616
77.3093 1594 39.9249
77.4258 1531 39.128
77.5423 1558 39.4715
77.6589 1457 38.1707
77.7755 1308 36.1663
77.8921 1212 34.8138
78.0088 1096 33.1059
78.1256 1084 32.9242
78.2423 1035 32.1714
78.3591 1166 34.1467
78.4759 1288 35.8887
78.5928 1307 36.1525
78.7097 1399 37.4032
78.8266 1424 37.7359
78.9436 1565 39.5601
79.0606 1510 38.8587
79.1776 1567 39.5854
79.2946 1606 40.0749
79.4117 1536 39.1918
79.5288 1469 38.3275
79.6459 1494 38.6523
79.7631 1464 38.2623
79.8802 1434 37.8682
79.9974 1322 36.3593
80.1147 1283 35.819
80.2319 1316 36.2767
80.3491 1312 36.2215
80.4664 1388 37.2559
80.5837 1521 39
80.701 1475 38.4057
80.8183 1638 40.4722
80.9357 1608 40.0999
81.053 1642 40.5216
81.1704 1609 40.1123
81.2877 1663 40.7799
81.4051 1566 39.5727
81.5225 1345 36.6742
81.6399 1280 35.7771
81.7573 1180 34.3511
81.8747 1080 32.8634
81.9922 1174 34.2637
82.1096 1213 34.8281
82.227 1343 36.647
82.3444 1398 37.3898
82.4619 1500 38.7298
82.5793 1523 39.0256
82.6967 1587 39.8372
82.8142 1560 39.4968
82.9316 1621 40.2616
83.049 1657 40.7063
83.1664 1604 40.05
83.2838 1627 40.3361
83.4012 1502 38.7556
83.5186 1540 39.2428
83.636 1493 38.6394
83.7534 1345 36.6742
83.8708 1341 36.6197
83.9881 1249 35.3412
84.1055 1354 36.7967
84.2228 1475 38.4057
84.3401 1615 40.1871
84.4575 1616 40.1995
84.5747 1625 40.3113
84.692 1627 40.3361
84.8093 1578 39.724
84.9265 1546 39.3192
85.0437 1480 38.4708
85.1609 1359 36.8646
85.2781 1207 34.7419
85.3952 1156 34
85.5123 1144 33.8231
85.6294 1183 34.3948
85.7465 1362 36.9053
85.8636 1354 36.7967
85.9806 1447 38.0395
86.0976 1547 39.3319
86.2145 1644 40.5463
86.3315 1575 39.6863
86.4484 1683 41.0244
86.5652 1568 39.598
86.682 1662 40.7676
86.7988 1662 40.7676
86.9156 1601 40.0125
87.0323 1553 39.4081
87.149 1501 38.7427
87.2657 1424 37.7359
87.3823 1256 35.4401
87.4988 1177 34.3074
87.6154 1083 32.909
87.7318 1138 33.7343
87.8483 1239 35.1994
87.9647 1271 35.6511
88.081 1294 35.9722
88.1973 1252 35.3836
88.3136 1189 34.4819
88.4298 1191 34.5109
88.546 1051 32.4191
88.6621 951 30.8383
88.7781 760 27.5681
88.8942 0 1
89.0101 0 1
89.126 0 1
89.2419 0 1
89.3577 0 1
89.4734 0 1
89.5891 0 1
89.7047 0 1
89.8203 0 1
89.9358 0 1
92.3269 0 1
92.4424 0 1
92.558 0 1
92.6736 0 1
92.7893 0 1
92.905 0 1
93.0208 0 1
93.1366 0 1
93.2525 0 1
93.3685 0 1
93.4845 0 1
93.6005 1234 35.1283
93.7167 1330 36.4692
93.8328 1343 36.647
93.949 1405 37.4833
94.0653 1469 38.3275
94.1816 1370 37.0135
94.2979 1310 36.1939
94.4143 1235 35.1426
94.5307 1180 34.3511
94.6472 1120 33.4664
94.7637 1209 34.7707
94.8803 1253 35.3977
94.9969 1350 36.7423
95.1135 1441 37.9605
95.2302 1539 39.2301
95.3469 1574 39.6737
95.4637 1634 40.4228
95.5805 1641 40.5093
95.6973 1588 39.8497
95.8142 1663 40.7799
95.9311 1652 40.6448
96.048 1701 41.2432
96.1649 1669 40.8534
96.2819 1594 39.9249
96.3989 1485 38.5357
96.516 1461 38.223
96.633 1339 36.5923
96.7501 1319 36.318
96.8673 1351 36.756
96.9844 1381 37.1618
97.1016 1535 39.1791
97.2188 1692 41.1339
97.336 1717 41.4367
97.4532 1788 42.2847
97.5704 1652 40.6448
97.6877 1698 41.2068
97.805 1629 40.3609
97.9223 1490 38.6005
98.0396 1280 35.7771
98.1569 1215 34.8569
98.2743 1248 35.327
98.3916 1217 34.8855
98.509 1308 36.1663
98.6264 1467 38.3014
98.7438 1492 38.6264
98.8612 1630 40.3733
98.9786 1630 40.3733
99.096 1642 40.5216
99.2134 1725 41.5331
99.3308 1763 41.9881
99.4482 1716 41.4246
99.5656 1702 41.2553
99.6831 1720 41.4729
99.8005 1660 40.7431
99.9179 1662 40.7676
100.035 1594 39.9249
100.153 1527 39.0768
100.27 1415 37.6165
100.388 1487 38.5616
100.505 1480 38.4708
100.622 1585 39.8121
100.74 1722 41.497
100.857 1863 43.1625
100.975 1653 40.6571
101.092 1759 41.9404
101.209 1836 42.8486
101.327 1775 42.1307
101.444 1656 40.694
101.561 1515 38.923
101.679 1382 37.1753
101.796 1300 36.0555
101.913 1186 34.4384
102.03 1323 36.3731
102.148 1445 38.0132
102.265 1549 39.3573
102.382 1678 40.9634
102.499 1723 41.509
102.616 1800 42.4264
102.733 1816 42.6146
102.851 1829 42.7668
102.968 1755 41.8927
103.085 1804 42.4735
103.202 1817 42.6263
103.319 1854 43.0581
103.436 1724 41.5211
103.552 1679 40.9756
103.669 1610 40.1248
103.786 1551 39.3827
103.903 1536 39.1918
104.02 1475 38.4057
104.137 1652 40.6448
104.253 1826 42.7317
104.37 1918 43.795
104.487 1873 43.2782
104.603 1908 43.6807
104.72 1803 42.4617
104.836 1805 42.4853
104.953 1651 40.6325
105.069 1417 37.6431
105.186 1363 36.9188
105.302 1216 34.8712
105.418 1092 33.0454
105.535 1114 33.3766
105.651 1136 33.7046
105.767 1195 34.5688
105.883 1185 34.4238
105.999 1153 33.9559
106.115 0 1
106.231 0 1
106.347 0 1
106.463 0 1
106.579 0 1
106.694 0 1
106.81 0 1
106.926 0 1
107.041 0 1
107.157 0 1
109.576 0 1
109.692 0 1
109.807 0 1
109.923 0 1
110.039 0 1
110.155 0 1
110.27 0 1
110.386 0 1
110.502 0 1
110.618 770 27.7489
110.735 982 31.3369
110.851 1177 34.3074
110.967 1273 35.6791
111.083 1382 37.1753
111.199 1512 38.8844
111.316 1604 40.05
111.432 1649 40.6079
111.549 1738 41.6893
111.665 1742 41.7373
111.782 1741 41.7253
111.898 1711 41.3642
112.015 1719 41.4608
112.132 1575 39.6863
112.248 1491 38.6135
112.365 1485 38.5357
112.482 1488 38.5746
112.599 1530 39.1152
112.716 1621 40.2616
112.832 1712 41.3763
112.949 1819 42.6497
113.066 1652 40.6448
113.183 1734 41.6413
113.3 1744 41.7612
113.417 1740 41.7133
113.534 1592 39.8999
113.652 1430 37.8153
113.769 1310 36.1939
113.886 1280 35.7771
114.003 1258 35.4683
114.12 1246 35.2987
114.238 1442 37.9737
114.355 1494 38.6523
114.472 1497 38.6911
114.589 1686 41.0609
114.707 1644 40.5463
114.824 1704 41.2795
114.942 1684 41.0366
115.059 1810 42.5441
115.176 1841 42.9069
115.294 1782 42.2137
115.411 1746 41.7852
115.529 1669 40.8534
115.646 1638 40.4722
115.764 1599 39.9875
115.881 1442 37.9737
115.999 1423 37.7227
116.116 1510 38.8587
116.234 1542 39.2683
116.351 1689 41.0974
116.469 1706 41.3038
116.586 1740 41.7133
116.704 1800 42.4264
116.821 1729 41.5812
116.939 1754 41.8808
117.056 1736 41.6653
117.174 1598 39.975
117.291 1486 38.5487
117.409 1332 36.4966
117.526 1222 34.9571
117.644 1223 34.9714
117.761 1354 36.7967
117.879 1537 39.2046
117.996 1518 38.9615
118.114 1629 40.3609
118.231 1629 40.3609
118.349 1657 40.7063
118.466 1687 41.0731
118.584 1709 41.3401
118.701 1666 40.8167
118.819 1674 40.9145
118.936 1764 42
119.053 1616 40.1995
119.171 1605 40.0625
119.288 1562 39.5221
119.405 1416 37.6298
119.523 1431 37.8286
119.64 1346 36.6879
119.757 1359 36.8646
119.875 1527 39.0768
119.992 1516 38.9358
120.109 1627 40.3361
120.226 1616 40.1995
120.343 1587 39.8372
120.46 1646 40.5709
120.578 1634 40.4228
120.695 1612 40.1497
120.812 1518 38.9615
120.929 1318 36.3043
121.046 1278 35.7491
121.163 1171 34.2199
121.279 1121 33.4813
121.396 1161 34.0735
121.513 1263 35.5387
121.63 1284 35.8329
121.747 1256 35.4401
121.863 1329 36.4555
121.98 1320 36.3318
122.097 1339 36.5923
122.213 1306 36.1386
122.33 1250 35.3553
122.446 1228 35.0428
122.563 1193 34.5398
122.679 1125 33.541
122.795 1032 32.1248
122.912 900 30
123.028 880 29.6648
123.144 721 26.8514
123.26 649 25.4755
123.377 0 1
123.493 0 1
123.609 0 1
123.725 0 1
123.84 0 1
123.956 0 1
124.072 0 1
124.188 0 1
124.303 0 1
124.419 0 1
126.852 0 1
126.968 0 1
127.083 0 1
127.199 0 1
127.315 0 1
127.431 0 1
127.547 0 1
127.663 0 1
127.779 0 1
127.895 0 1
128.011 0 1
128.127 0 1
128.243 0 1
128.359 1517 38.9487
128.476 1527 39.0768
128.592 1453 38.1182
128.708 1433 37.855
128.825 1504 38.7814
128.941 1611 40.1373
129.058 1659 40.7308
129.174 1772 42.0951
129.291 1772 42.0951
129.408 1771 42.0833
129.524 1781 42.2019
129.641 1763 41.9881
129.758 1704 41.2795
129.875 1592 39.8999
129.992 1459 38.1969
130.108 1362 36.9053
130.225 1300 36.0555
130.342 1312 36.2215
130.459 1330 36.4692
130.576 1574 39.6737
130.693 1651 40.6325
130.81 1614 40.1746
130.928 1658 40.7185
131.045 1702 41.2553
131.162 1805 42.4853
131.279 1673 40.9023
131.396 1741 41.7253
131.513 1729 41.5812
131.631 1714 41.4005
131.748 1660 40.7431
131.865 1633 40.4104
131.983 1668 40.8412
132.1 1481 38.4838
132.217 1577 39.7115
132.335 1558 39.4715
132.452 1687 41.0731
132.57 1685 41.0488
132.687 1853 43.0465
132.804 1787 42.2729
132.922 1813 42.5793
133.039 1850 43.0116
133.157 1812 42.5676
133.274 1767 42.0357
133.392 1691 41.1218
133.509 1525 39.0512
133.627 1460 38.2099
133.744 1388 37.2559
133.862 1286 35.8608
133.979 1376 37.0945
134.097 1437 37.9078
134.214 1607 40.0874
134.332 1606 40.0749
134.449 1659 40.7308
134.567 1770 42.0714
134.684 1734 41.6413
134.802 1782 42.2137
134.919 1772 42.0951
135.037 1774 42.1189
135.154 1777 42.1545
135.272 1761 41.9643
135.389 1672 40.8901
135.507 1754 41.8808
135.624 1654 40.6694
135.742 1607 40.0874
135.859 1550 39.37
135.977 1572 39.6485
136.094 1648 40.5956
136.211 1733 41.6293
136.329 1701 41.2432
136.446 1801 42.4382
136.564 1812 42.5676
136.681 1783 42.2256
136.798 1834 42.8252
136.915 1731 41.6053
137.033 1659 40.7308
137.15 1627 40.3361
137.267 1419 37.6696
137.384 1367 36.973
137.502 1288 35.8887
137.619 1343 36.647
137.736 1469 38.3275
137.853 1537 39.2046
137.97 1633 40.4104
138.087 1618 40.2244
138.204 1745 41.7732
138.321 1696 41.1825
138.438 1830 42.7785
138.555 1765 42.0119
138.672 1777 42.1545
138.788 1688 41.0853
138.905 1589 39.8623
139.022 1574 39.6737
139.139 1494 38.6523
139.255 1399 37.4032
139.372 1238 35.1852
139.488 1276 35.7211
139.605 1145 33.8378
139.721 1188 34.4674
139.838 1182 34.3802
139.954 1173 34.2491
140.071 1191 34.5109
140.187 1064 32.619
140.303 989 31.4484
140.419 975 31.225
140.535 913 30.2159
140.652 807 28.4077
140.768 0 1
140.884 0 1
141 0 1
141.115 0 1
141.231 0 1
141.347 0 1
141.463 0 1
141.578 0 1
141.694 0 1
144.104 0 1
144.219 0 1
144.335 0 1
144.45 0 1
144.566 0 1
144.682 0 1
144.798 0 1
144.914 0 1
145.03 0 1
145.146 1251 35.3695
145.262 1428 37.7889
145.378 1465 38.2753
145.494 1385 37.2156
145.61 1395 37.3497
145.726 1354 36.7967
145.842 1288 35.8887
145.959 1239 35.1994
146.075 1175 34.2783
146.192 1088 32.9848
146.308 1098 33.1361
146.425 1151 33.9264
146.541 1172 34.2345
146.658 1237 35.171
146.774 1197 34.5977
146.891 1282 35.805
147.008 1347 36.7015
147.125 1371 37.027
147.241 1320 36.3318
147.358 1333 36.5103
147.475 1440 37.9473
147.592 1386 37.229
147.709 1363 36.9188
147.826 1288 35.8887
147.943 1335 36.5377
148.06 1275 35.7071
148.177 1212 34.8138
148.294 1254 35.4119
148.411 1228 35.0428
148.528 1322 36.3593
148.645 1358 36.8511
148.762 1412 37.5766
148.88 1406 37.4967
148.997 1464 38.2623
149.114 1387 37.2424
149.231 1449 38.0657
149.349 1384 37.2022
149.466 1366 36.9594
149.583 1261 35.5106
149.701 1190 34.4964
149.818 1092 33.0454
149.935 1125 33.541
150.053 1114 33.3766
150.17 1128 33.5857
150.287 1131 33.6303
150.405 1196 34.5832
150.522 1284 35.8329
150.64 1273 35.6791
150.757 1248 35.327
150.875 1330 36.4692
150.992 1289 35.9026
151.11 1400 37.4166
151.227 1269 35.623
151.344 1334 36.524
151.462 1216 34.8712
151.579 1161 34.0735
151.697 1206 34.7275
151.814 1217 34.8855
151.932 1227 35.0286
152.049 1204 34.6987
152.167 1287 35.8748
152.284 1359 36.8646
152.402 1351 36.756
152.519 1284 35.8329
152.636 1388 37.2559
152.754 1326 36.4143
152.871 1346 36.6879
152.989 1323 36.3731
153.106 1282 35.805
153.223 1228 35.0428
153.341 1144 33.8231
153.458 1036 32.187
153.575 964 31.0483
153.693 1079 32.8481
153.81 1119 33.4515
153.927 1096 33.1059
154.044 1168 34.176
154.162 1235 35.1426
154.279 1249 35.3412
154.396 1244 35.2704
154.513 1273 35.6791
154.63 1247 35.3129
154.747 1265 35.5668
154.864 1219 34.9142
154.981 1175 34.2783
155.098 1176 34.2929
155.215 1060 32.5576
155.332 1166 34.1467
155.449 1141 33.7787
155.566 1113 33.3617
155.683 1130 33.6155
155.8 1140 33.7639
155.917 1180 34.3511
156.033 1122 33.4963
156.15 0 1
156.267 0 1
156.383 0 1
156.5 0 1
156.617 0 1
156.733 0 1
156.85 0 1
156.966 0 1
157.082 0 1
157.199 0 1
157.315 0 1
157.431 0 1
157.547 0 1
157.664 0 1
157.78 0 1
157.896 0 1
158.012 0 1
158.128 0 1
158.244 0 1
158.359 0 1
158.475 0 1
158.591 0 1
158.706 0 1
