
6.15755 0 1
6.2731 0 1
6.3887 0 1
6.50437 0 1
6.62009 0 1
6.73587 0 1
6.8517 0 1
6.96759 0 1
7.08353 0 1
7.19952 0 1
7.31557 0 1
7.43166 0 1
7.54781 0 1
7.664 0 1
7.78024 0 1
7.89653 0 1
8.01286 0 1
8.12924 0 1
8.24567 0 1
8.36213 0 1
8.47864 0 1
8.59519 0 1
8.71178 0 1
8.82841 0 1
8.94508 0 1
9.06179 0 1
9.17853 0 1
9.29531 0 1
9.41212 0 1
9.52897 0 1
9.64584 0 1
9.76276 0 1
9.8797 0 1
9.99667 0 1
10.1137 0 1
10.2307 0 1
10.3478 0 1
10.4648 0 1
10.5819 0 1
10.6991 0 1
10.8162 0 1
10.9334 0 1
11.0506 0 1
11.1678 0 1
11.285 0 1
11.4023 0 1
11.5196 0 1
11.6369 0 1
11.7542 0 1
11.8715 0 1
11.9888 0 1
12.1062 0 1
12.2235 0 1
12.3409 0 1
12.4582 0 1
12.5756 0 1
12.693 0 1
12.8104 0 1
12.9278 0 1
13.0452 0 1
13.1626 0 1
13.28 0 1
13.3974 0 1
13.5149 0 1
13.6323 0 1
13.7497 0 1
13.8671 0 1
13.9845 0 1
14.1019 0 1
14.2193 0 1
14.3367 0 1
14.4541 0 1
14.5714 0 1
14.6888 0 1
14.8062 0 1
14.9235 0 1
15.0408 0 0
15.1581 0 0
15.2755 0 0
15.3927 0 0
15.51 0 0
15.6273 0 0
15.7445 0 0
15.8617 0 0
15.9789 0 0
16.0961 0 0
16.2132 0 0
16.3304 0 0
16.4475 0 0
16.5646 0 0
16.6816 0 0
16.7986 0 0
16.9156 0 0
17.0326 0 0
17.1496 0 0
17.2665 0 0
17.3833 0 0
17.5002 0 0
17.617 0 0
17.7338 0 0
17.8505 0 0
17.9672 0 0
18.0839 0 0
18.2005 0 0
18.3171 0 0
18.4337 0 0
18.5502 0 0
18.6666 0 0
18.7831 0 0
18.8994 0 0
19.0158 0 0
19.1321 0 0
19.2483 0 0
19.3645 0 0
19.4806 0 0
19.5967 0 0
19.7128 0 0
19.8288 0 0
19.9447 0 0
20.0606 0 1
20.1764 0 1
20.2922 0 1
20.4079 0 1
20.5236 0 1
20.6392 0 1
20.7548 0 1
20.8702 0 1
23.3078 0 1
23.4233 0 1
23.539 0 1
23.6547 0 1
23.7704 0 1
23.8862 0 1
24.0021 0 1
24.118 0 1
24.234 0 1
24.35 0 1
24.4661 5425 73.6546
24.5822 5401 73.4915
24.6984 5492 74.108
24.8146 5535 74.3976
24.9309 5663 75.2529
25.0472 5837 76.4003
25.1636 6044 77.7432
25.28 6007 77.5048
25.3965 6080 77.9744
25.513 6036 77.6917
25.6296 6055 77.8139
25.7462 6268 79.1707
25.8628 6046 77.756
25.9795 6020 77.5887
26.0962 6001 77.4661
26.213 6014 77.55
26.3298 5950 77.1362
26.4466 5980 77.3305
26.5635 5751 75.8353
26.6804 5738 75.7496
26.7973 5495 74.1283
26.9143 5367 73.2598
27.0313 5314 72.8972
27.1483 5244 72.4155
27.2653 5389 73.4098
27.3824 5435 73.7225
27.4996 5301 72.808
27.6167 5214 72.208
27.7339 4985 70.6045
27.8511 4741 68.8549
27.9683 4559 67.5204
28.0855 4687 68.4617
28.2028 4746 68.8912
28.3201 4709 68.6222
28.4374 4803 69.3037
28.5547 4881 69.8642
28.6721 5013 70.8025
28.7894 5220 72.2496
28.9068 5163 71.854
29.0242 5108 71.4703
29.1416 5247 72.4362
29.259 5242 72.4017
29.3764 5206 72.1526
29.4939 5085 71.3092
29.6113 5145 71.7287
29.7288 5004 70.739
29.8463 4992 70.6541
29.9638 5046 71.0352
30.0812 4983 70.5904
30.1987 4754 68.9493
30.3162 4694 68.5128
30.4337 4654 68.2202
30.5512 4439 66.6258
30.6687 4407 66.3852
30.7862 4512 67.1714
30.9037 4574 67.6314
31.0212 4506 67.1267
31.1387 4546 67.424
31.2562 4526 67.2756
31.3737 4166 64.5446
31.4912 4079 63.867
31.6087 4052 63.6553
31.7262 4196 64.7765
31.8436 4260 65.2687
31.9611 4232 65.0538
32.0785 4484 66.9627
32.1959 4648 68.1762
32.3134 4714 68.6586
32.4308 4643 68.1396
32.5482 4711 68.6367
32.6655 4692 68.4982
32.7829 4591 67.7569
32.9002 4530 67.3053
33.0176 4617 67.9485
33.1349 4753 68.942
33.2522 4588 67.7348
33.3694 4659 68.2569
33.4867 4530 67.3053
33.6039 4468 66.8431
33.7211 4600 67.8233
33.8383 4511 67.164
33.9554 4314 65.681
34.0725 4241 65.123
34.1896 4146 64.3894
34.3067 3928 62.6738
34.4237 4062 63.7338
34.5407 3990 63.1664
34.6577 4116 64.1561
34.7746 3980 63.0872
34.8915 3930 62.6897
35.0084 3901 62.458
35.1252 3635 60.291
35.242 3701 60.8358
35.3587 3811 61.7333
35.4755 3852 62.0645
35.5921 3829 61.8789
35.7088 4072 63.8122
35.8254 4209 64.8768
35.9419 4240 65.1153
36.0584 4252 65.2074
36.1749 4299 65.5668
36.2913 4224 64.9923
36.4077 4326 65.7723
36.524 4275 65.3835
36.6403 4232 65.0538
36.7565 4248 65.1767
36.8727 4280 65.4217
36.9889 4231 65.0461
37.1049 4095 63.9922
37.221 0 1
37.3369 0 1
37.4529 0 1
37.5687 0 1
37.6845 0 1
37.8003 0 1
37.916 0 1
38.0316 0 1
38.1472 0 1
40.5851 0 1
40.7008 0 1
40.8164 0 1
40.9322 0 1
41.048 0 1
41.1639 0 1
41.2798 0 1
41.3958 0 1
41.5118 0 1
41.6279 0 1
41.744 3223 56.7715
41.8602 3274 57.2189
41.9765 3279 57.2626
42.0928 3240 56.921
42.2091 3354 57.9137
42.3255 3204 56.6039
42.4419 3234 56.8683
42.5584 3243 56.9473
42.675 3261 57.1052
42.7915 3187 56.4535
42.9081 3098 55.6597
43.0248 2992 54.6992
43.1415 2960 54.4059
43.2582 2830 53.1977
43.375 2897 53.8238
43.4918 2889 53.7494
43.6087 2876 53.6284
43.7256 2771 52.6403
43.8425 2627 51.2543
43.9595 2496 49.96
44.0765 2512 50.1199
44.1935 2559 50.5866
44.3106 2584 50.8331
44.4277 2738 52.3259
44.5448 2692 51.8845
44.6619 2744 52.3832
44.7791 2806 52.9717
44.8963 2747 52.4118
45.0136 2674 51.7107
45.1308 2671 51.6817
45.2481 2651 51.4879
45.3654 2641 51.3907
45.4827 2664 51.614
45.6001 2491 49.9099
45.7174 2578 50.774
45.8348 2561 50.6063
45.9522 2565 50.6458
46.0697 2515 50.1498
46.1871 2485 49.8498
46.3046 2421 49.2037
46.422 2338 48.3529
46.5395 2371 48.6929
46.657 2316 48.1248
46.7745 2290 47.8539
46.892 2266 47.6025
47.0096 2226 47.1805
47.1271 2263 47.571
47.2446 2204 46.9468
47.3622 2110 45.9347
47.4797 2039 45.1553
47.5973 1947 44.1248
47.7149 1935 43.9886
47.8324 1985 44.5533
47.95 2007 44.7996
48.0675 2062 45.4093
48.1851 2127 46.1194
48.3027 2220 47.1169
48.4202 2070 45.4973
48.5378 2085 45.6618
48.6554 2135 46.2061
48.7729 2021 44.9555
48.8904 2128 46.1303
49.008 2100 45.8258
49.1255 2165 46.5296
49.243 2161 46.4866
49.3605 2146 46.3249
49.478 2192 46.8188
49.5955 2218 47.0956
49.713 2205 46.9574
49.8304 2108 45.913
49.9479 2162 46.4973
50.0653 2083 45.6399
50.1827 2095 45.7712
50.3001 2124 46.0869
50.4175 1985 44.5533
50.5348 1984 44.5421
50.6521 2255 47.4868
50.7694 2208 46.9894
50.8867 2111 45.9456
51.004 2170 46.5833
51.1212 2136 46.2169
51.2384 2186 46.7547
51.3556 2362 48.6004
51.4727 2575 50.7445
51.5899 2710 52.0577
51.707 2731 52.259
51.824 2827 53.1695
51.9411 2708 52.0384
52.0581 2871 53.5817
52.175 2889 53.7494
52.2919 2905 53.8981
52.4088 2878 53.647
52.5257 2948 54.2955
52.6425 3100 55.6776
52.7593 2982 54.6077
52.876 2972 54.5161
52.9927 3121 55.8659
53.1094 3116 55.8211
53.226 3123 55.8838
53.3426 3094 55.6237
53.4591 3212 56.6745
53.5756 3273 57.2101
53.692 3118 55.8391
53.8084 2994 54.7175
53.9248 3042 55.1543
54.0411 2960 54.4059
54.1573 2997 54.7449
54.2735 0 1
54.3896 0 1
54.5057 0 1
54.6217 0 1
54.7377 0 1
54.8537 0 1
54.9695 0 1
55.0853 0 1
55.2011 0 1
55.3168 0 1
55.4324 0 1
57.824 0 1
57.9396 0 1
58.0553 0 1
58.1711 0 1
58.2869 0 1
58.4028 0 1
58.5187 0 1
58.6347 0 1
58.7508 0 1
58.8669 0 1
58.983 3693 60.7701
59.0992 3558 59.649
59.2155 3485 59.0339
59.3318 3414 58.4294
59.4482 3453 58.7622
59.5646 3358 57.9483
59.681 3352 57.8965
59.7975 3431 58.5747
59.9141 3365 58.0086
60.0306 3597 59.975
60.1473 3730 61.0737
60.2639 3753 61.2617
60.3807 3734 61.1065
60.4974 3713 60.9344
60.6142 3640 60.3324
60.731 3626 60.2163
60.8479 3705 60.8687
60.9648 3587 59.8916
61.0818 3612 60.0999
61.1987 3565 59.7076
61.3158 3541 59.5063
61.4328 3510 59.2453
61.5499 3523 59.3549
61.667 3558 59.649
61.7841 3589 59.9083
61.9013 3601 60.0083
62.0185 3479 58.983
62.1357 3474 58.9406
62.253 3535 59.4559
62.3702 3332 57.7235
62.4875 3371 58.0603
62.6049 3209 56.648
62.7222 3198 56.5509
62.8396 3237 56.8946
62.9569 3120 55.857
63.0743 3014 54.8999
63.1918 3025 55
63.3092 3022 54.9727
63.4267 3267 57.1577
63.5441 3494 59.1101
63.6616 3290 57.3585
63.7791 3376 58.1034
63.8966 3338 57.7754
64.0142 3257 57.0701
64.1317 3256 57.0614
64.2492 3240 56.921
64.3668 3248 56.9912
64.4843 3204 56.6039
64.6019 3306 57.4978
64.7195 3205 56.6127
64.837 3255 57.0526
64.9546 3191 56.4889
65.0722 3226 56.7979
65.1898 3187 56.4535
65.3074 3268 57.1664
65.4249 3182 56.4092
65.5425 3237 56.8946
65.6601 3211 56.6657
65.7777 3167 56.2761
65.8952 3135 55.9911
66.0128 3148 56.107
66.1304 3027 55.0182
66.2479 2858 53.4603
66.3655 2904 53.8888
66.483 2780 52.7257
66.6005 2897 53.8238
66.718 2812 53.0283
66.8355 2816 53.066
66.953 2871 53.5817
67.0705 2917 54.0093
67.1879 3137 56.0089
67.3054 3143 56.0625
67.4228 3053 55.254
67.5402 3112 55.7853
67.6576 3114 55.8032
67.7749 3154 56.1605
67.8923 3139 56.0268
68.0096 3060 55.3173
68.1269 3106 55.7315
68.2442 3040 55.1362
68.3614 3227 56.8067
68.4787 3188 56.4624
68.5958 3114 55.8032
68.713 3216 56.7098
68.8302 3279 57.2626
68.9473 3167 56.2761
69.0643 3077 55.4707
69.1814 3259 57.0877
69.2984 3181 56.4004
69.4154 3186 56.4447
69.5323 3221 56.7539
69.6492 3131 55.9553
69.7661 3216 56.7098
69.8829 3045 55.1815
69.9997 2969 54.4885
70.1165 2904 53.8888
70.2332 3133 55.9732
70.3499 2871 53.5817
70.4665 2818 53.0848
70.5831 2971 54.5069
70.6996 3092 55.6058
70.8161 3167 56.2761
70.9326 3231 56.8419
71.049 3127 55.9196
71.1653 3201 56.5774
71.2817 3188 56.4624
71.3979 3197 56.542
71.5141 3073 55.4346
71.6303 2976 54.5527
71.7464 2775 52.6783
71.8624 0 1
71.9784 0 1
72.0944 0 1
72.2102 0 1
72.3261 0 1
72.4418 0 1
72.5575 0 1
72.6732 0 1
75.1054 0 1
75.2209 0 1
75.3365 0 1
75.4521 0 1
75.5678 0 1
75.6835 0 1
75.7993 0 1
75.9151 0 1
76.031 0 1
76.147 2811 53.0189
76.263 2920 54.037
76.3791 2962 54.4243
76.4952 3093 55.6147
76.6113 2980 54.5894
76.7276 3112 55.7853
76.8438 3032 55.0636
76.9601 3181 56.4004
77.0765 3038 55.1181
77.1929 2970 54.4977
77.3093 3030 55.0454
77.4258 3016 54.9181
77.5423 3024 54.9909
77.6589 3000 54.7723
77.7755 3038 55.1181
77.8921 2988 54.6626
78.0088 2984 54.626
78.1256 2999 54.7631
78.2423 2880 53.6656
78.3591 2951 54.3231
78.4759 3043 55.1634
78.5928 2990 54.6809
78.7097 2954 54.3507
78.8266 2888 53.7401
78.9436 2820 53.1037
79.0606 2640 51.3809
79.1776 2366 48.6415
79.2946 2368 48.6621
79.4117 2442 49.4166
79.5288 2625 51.2348
79.6459 2689 51.8556
79.7631 2832 53.2165
79.8802 2764 52.5738
79.9974 2677 51.7397
80.1147 2726 52.2111
80.2319 2784 52.7636
80.3491 2739 52.3355
80.4664 2697 51.9326
80.5837 2668 51.6527
80.701 2589 50.8822
80.8183 2540 50.3984
80.9357 2691 51.8748
81.053 2699 51.9519
81.1704 2574 50.7346
81.2877 2562 50.6162
81.4051 2586 50.8527
81.5225 2560 50.5964
81.6399 2472 49.7192
81.7573 2557 50.5668
81.8747 2474 49.7393
81.9922 2473 49.7293
82.1096 2566 50.6557
82.227 2477 49.7695
82.3444 2501 50.01
82.4619 2456 49.558
82.5793 2368 48.6621
82.6967 2363 48.6107
82.8142 2134 46.1952
82.9316 1898 43.566
83.049 1861 43.1393
83.1664 2095 45.7712
83.2838 2311 48.0729
83.4012 2254 47.4763
83.5186 2247 47.4025
83.636 2299 47.9479
83.7534 2261 47.55
83.8708 2267 47.613
83.9881 2205 46.9574
84.1055 2181 46.7012
84.2228 2073 45.5302
84.3401 2153 46.4004
84.4575 2111 45.9456
84.5747 2188 46.7761
84.692 2169 46.5725
84.8093 2151 46.3789
84.9265 2247 47.4025
85.0437 2232 47.244
85.1609 2046 45.2327
85.2781 2136 46.2169
85.3952 2128 46.1303
85.5123 2151 46.3789
85.6294 2089 45.7056
85.7465 2182 46.7119
85.8636 2175 46.6369
85.9806 2091 45.7275
86.0976 2166 46.5403
86.2145 2163 46.5081
86.3315 2159 46.465
86.4484 1944 44.0908
86.5652 1817 42.6263
86.682 1899 43.5775
86.7988 2234 47.2652
86.9156 2186 46.7547
87.0323 2038 45.1442
87.149 2163 46.5081
87.2657 2068 45.4753
87.3823 2073 45.5302
87.4988 2136 46.2169
87.6154 2022 44.9667
87.7318 2029 45.0444
87.8483 2038 45.1442
87.9647 2018 44.9222
88.081 2103 45.8585
88.1973 2173 46.6154
88.3136 2095 45.7712
88.4298 2027 45.0222
88.546 2124 46.0869
88.6621 2107 45.9021
88.7781 2004 44.7661
88.8942 0 1
89.0101 0 1
89.126 0 1
89.2419 0 1
89.3577 0 1
89.4734 0 1
89.5891 0 1
89.7047 0 1
89.8203 0 1
89.9358 0 1
92.3269 0 1
92.4424 0 1
92.558 0 1
92.6736 0 1
92.7893 0 1
92.905 0 1
93.0208 0 1
93.1366 0 1
93.2525 0 1
93.3685 0 1
93.4845 0 1
93.6005 1960 44.2719
93.7167 2083 45.6399
93.8328 1985 44.5533
93.949 2185 46.744
94.0653 2068 45.4753
94.1816 2073 45.5302
94.2979 2128 46.1303
94.4143 2120 46.0435
94.5307 2072 45.5192
94.6472 2185 46.744
94.7637 2136 46.2169
94.8803 2135 46.2061
94.9969 2185 46.744
95.1135 2139 46.2493
95.2302 2276 47.7074
95.3469 2175 46.6369
95.4637 2237 47.2969
95.5805 2056 45.3431
95.6973 1885 43.4166
95.8142 1965 44.3283
95.9311 2158 46.4543
96.048 2244 47.3709
96.1649 2259 47.5289
96.2819 2337 48.3425
96.3989 2228 47.2017
96.516 2345 48.4252
96.633 2287 47.8226
96.7501 2294 47.8957
96.8673 2367 48.6518
96.9844 2197 46.8722
97.1016 2309 48.0521
97.2188 2384 48.8262
97.336 2381 48.7955
97.4532 2342 48.3942
97.5704 2246 47.392
97.6877 2231 47.2335
97.805 2221 47.1275
97.9223 2156 46.4327
98.0396 2114 45.9783
98.1569 2236 47.2864
98.2743 2136 46.2169
98.3916 2155 46.422
98.509 2196 46.8615
98.6264 2153 46.4004
98.7438 2200 46.9042
98.8612 2204 46.9468
98.9786 2191 46.8081
99.096 2057 45.3542
99.2134 2021 44.9555
99.3308 1942 44.0681
99.4482 1900 43.589
99.5656 2134 46.1952
99.6831 2192 46.8188
99.8005 2155 46.422
99.9179 2190 46.7974
100.035 2132 46.1736
100.153 2187 46.7654
100.27 2200 46.9042
100.388 2118 46.0217
100.505 2115 45.9891
100.622 2154 46.4112
100.74 2149 46.3573
100.857 2112 45.9565
100.975 2198 46.8828
101.092 2205 46.9574
101.209 2260 47.5395
101.327 2223 47.1487
101.444 2207 46.9787
101.561 2184 46.7333
101.679 2266 47.6025
101.796 2251 47.4447
101.913 2152 46.3897
102.03 2233 47.2546
102.148 2191 46.8081
102.265 2397 48.9592
102.382 2190 46.7974
102.499 2303 47.9896
102.616 2242 47.3498
102.733 2048 45.2548
102.851 2029 45.0444
102.968 2095 45.7712
103.085 2137 46.2277
103.202 2240 47.3286
103.319 2236 47.2864
103.436 2250 47.4342
103.552 2221 47.1275
103.669 2140 46.2601
103.786 2115 45.9891
103.903 2042 45.1885
104.02 2091 45.7275
104.137 2034 45.0999
104.253 2047 45.2438
104.37 2008 44.8107
104.487 2058 45.3652
104.603 2038 45.1442
104.72 1919 43.8064
104.836 1974 44.4297
104.953 1966 44.3396
105.069 1902 43.6119
105.186 1927 43.8976
105.302 1844 42.9418
105.418 1932 43.9545
105.535 1904 43.6348
105.651 1883 43.3935
105.767 1814 42.5911
105.883 1748 41.8091
105.999 1791 42.3202
106.115 0 1
106.231 0 1
106.347 0 1
106.463 0 1
106.579 0 1
106.694 0 1
106.81 0 1
106.926 0 1
107.041 0 1
107.157 0 1
109.576 0 1
109.692 0 1
109.807 0 1
109.923 0 1
110.039 0 1
110.155 0 1
110.27 0 1
110.386 0 1
110.502 0 1
110.618 1098 33.1361
110.735 1138 33.7343
110.851 1131 33.6303
110.967 1135 33.6898
111.083 1156 34
111.199 1158 34.0294
111.316 1102 33.1964
111.432 1077 32.8177
111.549 1091 33.0303
111.665 999 31.607
111.782 1044 32.311
111.898 1074 32.7719
112.015 1076 32.8024
112.132 1125 33.541
112.248 1056 32.4962
112.365 976 31.241
112.482 1051 32.4191
112.599 1012 31.8119
112.716 1027 32.0468
112.832 1019 31.9218
112.949 1034 32.1559
113.066 1004 31.686
113.183 1017 31.8904
113.3 992 31.496
113.417 1008 31.749
113.534 1060 32.5576
113.652 999 31.607
113.769 1051 32.4191
113.886 999 31.607
114.003 1082 32.8938
114.12 1039 32.2335
114.238 1066 32.6497
114.355 1023 31.9844
114.472 951 30.8383
114.589 829 28.7924
114.707 863 29.3769
114.824 1032 32.1248
114.942 1162 34.0881
115.059 1121 33.4813
115.176 1061 32.573
115.294 1057 32.5115
115.411 1039 32.2335
115.529 1166 34.1467
115.646 1134 33.6749
115.764 1141 33.7787
115.881 1128 33.5857
115.999 1108 33.2866
116.116 1125 33.541
116.234 1105 33.2415
116.351 1130 33.6155
116.469 1180 34.3511
116.586 1204 34.6987
116.704 1193 34.5398
116.821 1165 34.1321
116.939 1257 35.4542
117.056 1167 34.1614
117.174 1287 35.8748
117.291 1314 36.2491
117.409 1218 34.8999
117.526 1304 36.1109
117.644 1363 36.9188
117.761 1357 36.8375
117.879 1321 36.3456
117.996 1321 36.3456
118.114 1244 35.2704
118.231 1087 32.9697
118.349 1121 33.4813
118.466 1277 35.7351
118.584 1435 37.8814
118.701 1463 38.2492
118.819 1558 39.4715
118.936 1545 39.3065
119.053 1397 37.3765
119.171 1423 37.7227
119.288 1490 38.6005
119.405 1504 38.7814
119.523 1472 38.3667
119.64 1552 39.3954
119.757 1481 38.4838
119.875 1580 39.7492
119.992 1531 39.128
120.109 1558 39.4715
120.226 1548 39.3446
120.343 1539 39.2301
120.46 1617 40.2119
120.578 1642 40.5216
120.695 1518 38.9615
120.812 1591 39.8873
120.929 1674 40.9145
121.046 1733 41.6293
121.163 1718 41.4488
121.279 1756 41.9047
121.396 1754 41.8808
121.513 1760 41.9524
121.63 1682 41.0122
121.747 1570 39.6232
121.863 1452 38.1051
121.98 1372 37.0405
122.097 1336 36.5513
122.213 1440 37.9473
122.33 1669 40.8534
122.446 1813 42.5793
122.563 1928 43.909
122.679 1862 43.1509
122.795 1768 42.0476
122.912 1827 42.7434
123.028 1921 43.8292
123.144 1806 42.4971
123.26 1895 43.5316
123.377 0 1
123.493 0 1
123.609 0 1
123.725 0 1
123.84 0 1
123.956 0 1
124.072 0 1
124.188 0 1
124.303 0 1
124.419 0 1
126.852 0 1
126.968 0 1
127.083 0 1
127.199 0 1
127.315 0 1
127.431 0 1
127.547 0 1
127.663 0 1
127.779 0 1
127.895 0 1
128.011 0 1
128.127 0 1
128.243 0 1
128.359 2354 48.518
128.476 2409 49.0816
128.592 2466 49.6588
128.708 2473 49.7293
128.825 2515 50.1498
128.941 2413 49.1223
129.058 2476 49.7594
129.174 2453 49.5278
129.291 2460 49.5984
129.408 2387 48.8569
129.524 2511 50.1099
129.641 2516 50.1597
129.758 2503 50.03
129.875 2488 49.8799
129.992 2629 51.2738
130.108 2504 50.04
130.225 2490 49.8999
130.342 2542 50.4183
130.459 2310 48.0625
130.576 2265 47.592
130.693 2202 46.9255
130.81 1973 44.4185
130.928 2005 44.7772
131.045 2043 45.1996
131.162 2190 46.7974
131.279 2345 48.4252
131.396 2437 49.366
131.513 2712 52.0769
131.631 2597 50.9608
131.748 2658 51.5558
131.865 2617 51.1566
131.983 2642 51.4004
132.1 2623 51.2152
132.217 2678 51.7494
132.335 2603 51.0196
132.452 2689 51.8556
132.57 2737 52.3163
132.687 2525 50.2494
132.804 2539 50.3885
132.922 2634 51.3225
133.039 2661 51.5849
133.157 2567 50.6656
133.274 2545 50.448
133.392 2630 51.2835
133.509 2523 50.2295
133.627 2734 52.2877
133.744 2677 51.7397
133.862 2618 51.1664
133.979 2619 51.1762
134.097 2442 49.4166
134.214 2383 48.816
134.332 2195 46.8508
134.449 2150 46.3681
134.567 2247 47.4025
134.684 2374 48.7237
134.802 2493 49.93
134.919 2554 50.5371
135.037 2748 52.4214
135.154 2778 52.7067
135.272 2763 52.5642
135.389 2835 53.2447
135.507 2843 53.3198
135.624 2799 52.9056
135.742 2775 52.6783
135.859 2729 52.2398
135.977 2800 52.915
136.094 2807 52.9811
136.211 2705 52.0096
136.329 2840 53.2917
136.446 2804 52.9528
136.564 2762 52.5547
136.681 2795 52.8678
136.798 2786 52.7826
136.915 2959 54.3967
137.033 2824 53.1413
137.15 2979 54.5802
137.267 2840 53.2917
137.384 2764 52.5738
137.502 2817 53.0754
137.619 2668 51.6527
137.736 2537 50.3686
137.853 2381 48.7955
137.97 2262 47.5605
138.087 2374 48.7237
138.204 2443 49.4267
138.321 2517 50.1697
138.438 2746 52.4023
138.555 2657 51.5461
138.672 2750 52.4404
138.788 2940 54.2218
138.905 2918 54.0185
139.022 2946 54.2771
139.139 2978 54.5711
139.255 2902 53.8702
139.372 2887 53.7308
139.488 3105 55.7225
139.605 3026 55.0091
139.721 2935 54.1756
139.838 2925 54.0833
139.954 3027 55.0182
140.071 2852 53.4041
140.187 2994 54.7175
140.303 2962 54.4243
140.419 2942 54.2402
140.535 2947 54.2863
140.652 2884 53.7029
140.768 0 1
140.884 0 1
141 0 1
141.115 0 1
141.231 0 1
141.347 0 1
141.463 0 1
141.578 0 1
141.694 0 1
144.104 0 1
144.219 0 1
144.335 0 1
144.45 0 1
144.566 0 1
144.682 0 1
144.798 0 1
144.914 0 1
145.03 0 1
145.146 2637 51.3517
145.262 2851 53.3948
145.378 2708 52.0384
145.494 2800 52.915
145.61 2780 52.7257
145.726 2767 52.6023
145.842 2837 53.2635
145.959 2660 51.5752
146.075 2630 51.2835
146.192 2632 51.303
146.308 2461 49.6085
146.425 2378 48.7647
146.541 2220 47.1169
146.658 2178 46.669
146.774 2230 47.2229
146.891 2322 48.1871
147.008 2406 49.051
147.125 2538 50.3786
147.241 2611 51.0979
147.358 2484 49.8397
147.475 2545 50.448
147.592 2598 50.9706
147.709 2716 52.1153
147.826 2747 52.4118
147.943 2678 51.7494
148.06 2818 53.0848
148.177 2705 52.0096
148.294 2770 52.6308
148.411 2690 51.8652
148.528 2709 52.0481
148.645 2567 50.6656
148.762 2670 51.672
148.88 2659 51.5655
148.997 2518 50.1797
149.114 2632 51.303
149.231 2664 51.614
149.349 2581 50.8035
149.466 2488 49.8799
149.583 2443 49.4267
149.701 2379 48.775
149.818 2401 49
149.935 2224 47.1593
150.053 2169 46.5725
150.17 2288 47.833
150.287 2198 46.8828
150.405 2222 47.1381
150.522 2293 47.8853
150.64 2457 49.5681
150.757 2569 50.6853
150.875 2422 49.2138
150.992 2429 49.2849
151.11 2417 49.163
151.227 2552 50.5173
151.344 2583 50.8232
151.462 2670 51.672
151.579 2657 51.5461
151.697 2658 51.5558
151.814 2651 51.4879
151.932 2604 51.0294
152.049 2667 51.643
152.167 2607 51.0588
152.284 2616 51.1468
152.402 2753 52.469
152.519 2650 51.4782
152.636 2795 52.8678
152.754 2506 50.06
152.871 2596 50.951
152.989 2670 51.672
153.106 2686 51.8266
153.223 2577 50.7642
153.341 2429 49.2849
153.458 2419 49.1833
153.575 2216 47.0744
153.693 2326 48.2286
153.81 2211 47.0213
153.927 2272 47.6655
154.044 2246 47.392
154.162 2427 49.2646
154.279 2513 50.1298
154.396 2522 50.2195
154.513 2637 51.3517
154.63 2690 51.8652
154.747 2574 50.7346
154.864 2577 50.7642
154.981 2698 51.9423
155.098 2757 52.5071
155.215 2672 51.6914
155.332 2779 52.7162
155.449 2695 51.9134
155.566 2776 52.6878
155.683 2750 52.4404
155.8 2823 53.1319
155.917 2800 52.915
156.033 2773 52.6593
156.15 0 1
156.267 0 1
156.383 0 1
156.5 0 1
156.617 0 1
156.733 0 1
156.85 0 1
156.966 0 1
157.082 0 1
157.199 0 1
157.315 0 1
157.431 0 1
157.547 0 1
157.664 0 1
157.78 0 1
157.896 0 1
158.012 0 1
158.128 0 1
158.244 0 1
158.359 0 1
158.475 0 1
158.591 0 1
158.706 0 1
