
6.15755 0 1
6.2731 0 1
6.3887 0 1
6.50437 0 1
6.62009 0 1
6.73587 0 1
6.8517 0 1
6.96759 0 1
7.08353 0 1
7.19952 0 1
7.31557 0 1
7.43166 0 1
7.54781 0 1
7.664 0 1
7.78024 0 1
7.89653 0 1
8.01286 0 1
8.12924 0 1
8.24567 0 1
8.36213 0 1
8.47864 0 1
8.59519 0 1
8.71178 0 1
8.82841 0 1
8.94508 0 1
9.06179 0 1
9.17853 0 1
9.29531 0 1
9.41212 0 1
9.52897 0 1
9.64584 0 1
9.76276 0 1
9.8797 0 1
9.99667 0 1
10.1137 0 1
10.2307 0 1
10.3478 0 1
10.4648 0 1
10.5819 0 1
10.6991 0 1
10.8162 0 1
10.9334 0 1
11.0506 0 1
11.1678 0 1
11.285 0 1
11.4023 0 1
11.5196 0 1
11.6369 0 1
11.7542 0 1
11.8715 0 1
11.9888 0 1
12.1062 0 1
12.2235 0 1
12.3409 0 1
12.4582 0 1
12.5756 0 1
12.693 0 1
12.8104 0 1
12.9278 0 1
13.0452 0 1
13.1626 0 1
13.28 0 1
13.3974 0 1
13.5149 0 1
13.6323 0 1
13.7497 0 1
13.8671 0 1
13.9845 0 1
14.1019 0 1
14.2193 0 1
14.3367 0 1
14.4541 0 1
14.5714 0 1
14.6888 0 1
14.8062 0 1
14.9235 0 1
15.0408 4009 63.3167
15.1581 4117 64.1639
15.2755 4154 64.4515
15.3927 4134 64.2962
15.51 4296 65.5439
15.6273 4158 64.4826
15.7445 4084 63.9062
15.8617 4056 63.6867
15.9789 3788 61.5467
16.0961 3799 61.636
16.2132 3732 61.0901
16.3304 3807 61.7009
16.4475 3781 61.4898
16.5646 3754 61.2699
16.6816 3609 60.075
16.7986 3659 60.4897
16.9156 3516 59.2959
17.0326 3500 59.1608
17.1496 3527 59.3886
17.2665 3489 59.0678
17.3833 3631 60.2578
17.5002 3531 59.4222
17.617 3597 59.975
17.7338 3576 59.7997
17.8505 3497 59.1354
17.9672 3549 59.5735
18.0839 3418 58.4637
18.2005 3453 58.7622
18.3171 3391 58.2323
18.4337 3591 59.925
18.5502 3621 60.1747
18.6666 3604 60.0333
18.7831 3567 59.7244
18.8994 3475 58.9491
19.0158 3380 58.1378
19.1321 3215 56.701
19.2483 3134 55.9821
19.3645 2885 53.7122
19.4806 2777 52.6972
19.5967 2578 50.774
19.7128 2605 51.0392
19.8288 2567 50.6656
19.9447 2402 49.0102
20.0606 0 1
20.1764 0 1
20.2922 0 1
20.4079 0 1
20.5236 0 1
20.6392 0 1
20.7548 0 1
20.8702 0 1
23.3078 0 1
23.4233 0 1
23.539 0 1
23.6547 0 1
23.7704 0 1
23.8862 0 1
24.0021 0 1
24.118 0 1
24.234 0 1
24.35 0 1
24.4661 1424 37.7359
24.5822 1762 41.9762
24.6984 1969 44.3734
24.8146 2390 48.8876
24.9309 2608 51.0686
25.0472 2954 54.3507
25.1636 3094 55.6237
25.28 3437 58.6259
25.3965 3670 60.5805
25.513 3793 61.5873
25.6296 3866 62.1772
25.7462 4100 64.0312
25.8628 3998 63.2297
25.9795 3935 62.7296
26.0962 3959 62.9206
26.213 3753 61.2617
26.3298 3503 59.1861
26.4466 3403 58.3352
26.5635 3354 57.9137
26.6804 3178 56.3738
26.7973 3129 55.9375
26.9143 3020 54.9545
27.0313 3052 55.2449
27.1483 3274 57.2189
27.2653 3403 58.3352
27.3824 3281 57.28
27.4996 3529 59.4054
27.6167 3432 58.5833
27.7339 3296 57.4108
27.8511 3156 56.1783
27.9683 3150 56.1249
28.0855 3152 56.1427
28.2028 3213 56.6833
28.3201 3285 57.3149
28.4374 3390 58.2237
28.5547 3459 58.8133
28.6721 3535 59.4559
28.7894 3510 59.2453
28.9068 3473 58.9322
29.0242 3418 58.4637
29.1416 3388 58.2065
29.259 3420 58.4808
29.3764 3434 58.6003
29.4939 3254 57.0438
29.6113 3233 56.8595
29.7288 3275 57.2276
29.8463 3061 55.3263
29.9638 2955 54.3599
30.0812 3032 55.0636
30.1987 2859 53.4696
30.3162 2966 54.461
30.4337 2939 54.2125
30.5512 3100 55.6776
30.6687 3184 56.4269
30.7862 3326 57.6715
30.9037 3416 58.4466
31.0212 3493 59.1016
31.1387 3447 58.7112
31.2562 3360 57.9655
31.3737 3259 57.0877
31.4912 3166 56.2672
31.6087 3224 56.7803
31.7262 3156 56.1783
31.8436 3223 56.7715
31.9611 3280 57.2713
32.0785 3311 57.5413
32.1959 3340 57.7927
32.3134 3271 57.1927
32.4308 3156 56.1783
32.5482 3089 55.5788
32.6655 2981 54.5985
32.7829 3021 54.9636
32.9002 3015 54.909
33.0176 2949 54.3047
33.1349 2942 54.2402
33.2522 2949 54.3047
33.3694 2802 52.9339
33.4867 2896 53.8145
33.6039 2970 54.4977
33.7211 2810 53.0094
33.8383 2802 52.9339
33.9554 2794 52.8583
34.0725 2776 52.6878
34.1896 2916 54
34.3067 2957 54.3783
34.4237 3132 55.9643
34.5407 3121 55.8659
34.6577 3274 57.2189
34.7746 3220 56.745
34.8915 2946 54.2771
35.0084 2642 51.4004
35.1252 2628 51.264
35.242 2697 51.9326
35.3587 2710 52.0577
35.4755 2918 54.0185
35.5921 2879 53.6563
35.7088 2996 54.7357
35.8254 2972 54.5161
35.9419 2951 54.3231
36.0584 2969 54.4885
36.1749 2893 53.7866
36.2913 2794 52.8583
36.4077 2687 51.8363
36.524 2603 51.0196
36.6403 2538 50.3786
36.7565 2462 49.6185
36.8727 2418 49.1732
36.9889 2115 45.9891
37.1049 2011 44.8442
37.221 0 1
37.3369 0 1
37.4529 0 1
37.5687 0 1
37.6845 0 1
37.8003 0 1
37.916 0 1
38.0316 0 1
38.1472 0 1
40.5851 0 1
40.7008 0 1
40.8164 0 1
40.9322 0 1
41.048 0 1
41.1639 0 1
41.2798 0 1
41.3958 0 1
41.5118 0 1
41.6279 0 1
41.744 1364 36.9324
41.8602 1509 38.8458
41.9765 1706 41.3038
42.0928 1726 41.5452
42.2091 1870 43.2435
42.3255 2016 44.8999
42.4419 2063 45.4203
42.5584 2312 48.0833
42.675 2172 46.6047
42.7915 2143 46.2925
42.9081 2215 47.0638
43.0248 2204 46.9468
43.1415 2268 47.6235
43.2582 2274 47.6865
43.375 2339 48.3632
43.4918 2376 48.7442
43.6087 2297 47.927
43.7256 2287 47.8226
43.8425 2160 46.4758
43.9595 1972 44.4072
44.0765 1983 44.5309
44.1935 2122 46.0652
44.3106 2171 46.594
44.4277 2264 47.5815
44.5448 2348 48.4562
44.6619 2291 47.8644
44.7791 2336 48.3322
44.8963 2337 48.3425
45.0136 2358 48.5592
45.1308 2324 48.2079
45.2481 2365 48.6313
45.3654 2370 48.6826
45.4827 2322 48.1871
45.6001 2399 48.9796
45.7174 2225 47.1699
45.8348 2375 48.734
45.9522 2256 47.4974
46.0697 2277 47.7179
46.1871 2190 46.7974
46.3046 2078 45.5851
46.422 2086 45.6727
46.5395 2157 46.4435
46.657 2168 46.5618
46.7745 2267 47.613
46.892 2370 48.6826
47.0096 2264 47.5815
47.1271 2337 48.3425
47.2446 2316 48.1248
47.3622 2283 47.7807
47.4797 2075 45.5522
47.5973 1994 44.6542
47.7149 2130 46.1519
47.8324 2191 46.8081
47.95 2166 46.5403
48.0675 2254 47.4763
48.1851 2318 48.1456
48.3027 2295 47.9062
48.4202 2245 47.3814
48.5378 2366 48.6415
48.6554 2321 48.1768
48.7729 2227 47.1911
48.8904 2376 48.7442
49.008 2343 48.4045
49.1255 2204 46.9468
49.243 2261 47.55
49.3605 2235 47.2758
49.478 2169 46.5725
49.5955 2084 45.6508
49.713 2088 45.6946
49.8304 1984 44.5421
49.9479 2017 44.911
50.0653 1947 44.1248
50.1827 2080 45.607
50.3001 2087 45.6837
50.4175 2148 46.3465
50.5348 2224 47.1593
50.6521 2302 47.9792
50.7694 2195 46.8508
50.8867 2156 46.4327
51.004 1981 44.5084
51.1212 1993 44.643
51.2384 1992 44.6318
51.3556 2183 46.7226
51.4727 2287 47.8226
51.5899 2264 47.5815
51.707 2352 48.4974
51.824 2233 47.2546
51.9411 2320 48.1664
52.0581 2198 46.8828
52.175 2257 47.5079
52.2919 2255 47.4868
52.4088 2155 46.422
52.5257 2181 46.7012
52.6425 2301 47.9687
52.7593 2209 47
52.876 2213 47.0425
52.9927 2162 46.4973
53.1094 2171 46.594
53.226 2109 45.9239
53.3426 2006 44.7884
53.4591 1920 43.8178
53.5756 1915 43.7607
53.692 1895 43.5316
53.8084 1820 42.6615
53.9248 1739 41.7013
54.0411 1592 39.8999
54.1573 1473 38.3797
54.2735 0 1
54.3896 0 1
54.5057 0 1
54.6217 0 1
54.7377 0 1
54.8537 0 1
54.9695 0 1
55.0853 0 1
55.2011 0 1
55.3168 0 1
55.4324 0 1
57.824 0 1
57.9396 0 1
58.0553 0 1
58.1711 0 1
58.2869 0 1
58.4028 0 1
58.5187 0 1
58.6347 0 1
58.7508 0 1
58.8669 0 1
58.983 2544 50.4381
59.0992 3100 55.6776
59.2155 3738 61.1392
59.3318 4233 65.0615
59.4482 4616 67.9412
59.5646 4794 69.2387
59.681 4951 70.3633
59.7975 4817 69.4046
59.9141 5038 70.9789
60.0306 5132 71.638
60.1473 5445 73.7902
60.2639 5494 74.1215
60.3807 5658 75.2197
60.4974 5665 75.2662
60.6142 5753 75.8485
60.731 5721 75.6373
60.8479 5503 74.1822
60.9648 5618 74.9533
61.0818 5390 73.4166
61.1987 5393 73.437
61.3158 5146 71.7356
61.4328 4947 70.3349
61.5499 4613 67.9191
61.667 4405 66.3702
61.7841 4040 63.561
61.9013 3741 61.1637
62.0185 3629 60.2412
62.1357 3583 59.8582
62.253 3722 61.0082
62.3702 3842 61.9839
62.4875 3670 60.5805
62.6049 3699 60.8194
62.7222 3655 60.4566
62.8396 3528 59.397
62.9569 3590 59.9166
63.0743 3400 58.3095
63.1918 3181 56.4004
63.3092 3161 56.2228
63.4267 2990 54.6809
63.5441 2890 53.7587
63.6616 2956 54.3691
63.7791 2901 53.8609
63.8966 2883 53.6936
64.0142 2831 53.2071
64.1317 2781 52.7352
64.2492 2741 52.3546
64.3668 2700 51.9615
64.4843 2669 51.6624
64.6019 2618 51.1664
64.7195 2534 50.3389
64.837 2562 50.6162
64.9546 2623 51.2152
65.0722 2446 49.4571
65.1898 2512 50.1199
65.3074 2459 49.5883
65.4249 2368 48.6621
65.5425 2443 49.4267
65.6601 2359 48.5695
65.7777 2357 48.5489
65.8952 2320 48.1664
66.0128 2326 48.2286
66.1304 2315 48.1144
66.2479 2383 48.816
66.3655 2413 49.1223
66.483 2583 50.8232
66.6005 2543 50.4282
66.718 2437 49.366
66.8355 2556 50.5569
66.953 2348 48.4562
67.0705 2407 49.0612
67.1879 2412 49.1121
67.3054 2516 50.1597
67.4228 2523 50.2295
67.5402 2637 51.3517
67.6576 2470 49.6991
67.7749 2614 51.1273
67.8923 2478 49.7795
68.0096 2535 50.3488
68.1269 2434 49.3356
68.2442 2417 49.163
68.3614 2442 49.4166
68.4787 2463 49.6286
68.5958 2568 50.6754
68.713 2327 48.239
68.8302 2469 49.689
68.9473 2373 48.7134
69.0643 2328 48.2494
69.1814 2325 48.2183
69.2984 2293 47.8853
69.4154 2244 47.3709
69.5323 2214 47.0532
69.6492 2199 46.8935
69.7661 2312 48.0833
69.8829 2374 48.7237
69.9997 2386 48.8467
70.1165 2370 48.6826
70.2332 2307 48.0312
70.3499 2235 47.2758
70.4665 2163 46.5081
70.5831 1985 44.5533
70.6996 1859 43.1161
70.8161 1639 40.4846
70.9326 1586 39.8246
71.049 1555 39.4335
71.1653 1478 38.4448
71.2817 1388 37.2559
71.3979 1265 35.5668
71.5141 1210 34.7851
71.6303 1133 33.6601
71.7464 910 30.1662
71.8624 0 1
71.9784 0 1
72.0944 0 1
72.2102 0 1
72.3261 0 1
72.4418 0 1
72.5575 0 1
72.6732 0 1
75.1054 0 1
75.2209 0 1
75.3365 0 1
75.4521 0 1
75.5678 0 1
75.6835 0 1
75.7993 0 1
75.9151 0 1
76.031 0 1
76.147 1438 37.921
76.263 1692 41.1339
76.3791 1787 42.2729
76.4952 1910 43.7035
76.6113 1981 44.5084
76.7276 2079 45.5961
76.8438 2107 45.9021
76.9601 2121 46.0543
77.0765 2040 45.1664
77.1929 1993 44.643
77.3093 2044 45.2106
77.4258 2083 45.6399
77.5423 1961 44.2832
77.6589 2042 45.1885
77.7755 2044 45.2106
77.8921 2092 45.7384
78.0088 2106 45.8912
78.1256 2038 45.1442
78.2423 2010 44.833
78.3591 1909 43.6921
78.4759 1820 42.6615
78.5928 1869 43.2319
78.7097 1824 42.7083
78.8266 1867 43.2088
78.9436 1938 44.0227
79.0606 2016 44.8999
79.1776 2035 45.111
79.2946 2167 46.551
79.4117 2219 47.1063
79.5288 2162 46.4973
79.6459 2121 46.0543
79.7631 2113 45.9674
79.8802 2040 45.1664
79.9974 2040 45.1664
80.1147 2110 45.9347
80.2319 2097 45.793
80.3491 2213 47.0425
80.4664 2243 47.3603
80.5837 2168 46.5618
80.701 2298 47.9375
80.8183 2071 45.5082
80.9357 2118 46.0217
81.053 2033 45.0888
81.1704 2198 46.8828
81.2877 2105 45.8803
81.4051 2183 46.7226
81.5225 2245 47.3814
81.6399 2193 46.8295
81.7573 2252 47.4552
81.8747 2085 45.6618
81.9922 2037 45.1331
82.1096 1997 44.6878
82.227 1961 44.2832
82.3444 1920 43.8178
82.4619 1877 43.3244
82.5793 2035 45.111
82.6967 2087 45.6837
82.8142 2117 46.0109
82.9316 2132 46.1736
83.049 2291 47.8644
83.1664 2279 47.7389
83.2838 2193 46.8295
83.4012 2187 46.7654
83.5186 2140 46.2601
83.636 2084 45.6508
83.7534 2124 46.0869
83.8708 2196 46.8615
83.9881 2275 47.697
84.1055 2345 48.4252
84.2228 2301 47.9687
84.3401 2265 47.592
84.4575 2162 46.4973
84.5747 2185 46.744
84.692 2245 47.3814
84.8093 2251 47.4447
84.9265 2327 48.239
85.0437 2219 47.1063
85.1609 2316 48.1248
85.2781 2220 47.1169
85.3952 2184 46.7333
85.5123 2124 46.0869
85.6294 2008 44.8107
85.7465 2072 45.5192
85.8636 2056 45.3431
85.9806 2080 45.607
86.0976 2094 45.7602
86.2145 2150 46.3681
86.3315 2242 47.3498
86.4484 2169 46.5725
86.5652 2327 48.239
86.682 2304 48
86.7988 2418 49.1732
86.9156 2282 47.7703
87.0323 2235 47.2758
87.149 2172 46.6047
87.2657 2146 46.3249
87.3823 2152 46.3897
87.4988 2185 46.744
87.6154 2019 44.9333
87.7318 2121 46.0543
87.8483 1935 43.9886
87.9647 1790 42.3084
88.081 1644 40.5463
88.1973 1562 39.5221
88.3136 1587 39.8372
88.4298 1400 37.4166
88.546 1304 36.1109
88.6621 1231 35.0856
88.7781 1272 35.6651
88.8942 0 1
89.0101 0 1
89.126 0 1
89.2419 0 1
89.3577 0 1
89.4734 0 1
89.5891 0 1
89.7047 0 1
89.8203 0 1
89.9358 0 1
92.3269 0 1
92.4424 0 1
92.558 0 1
92.6736 0 1
92.7893 0 1
92.905 0 1
93.0208 0 1
93.1366 0 1
93.2525 0 1
93.3685 0 1
93.4845 0 1
93.6005 1819 42.6497
93.7167 1967 44.3509
93.8328 2064 45.4313
93.949 2190 46.7974
94.0653 2286 47.8121
94.1816 2262 47.5605
94.2979 2333 48.3011
94.4143 2244 47.3709
94.5307 2167 46.551
94.6472 2169 46.5725
94.7637 2115 45.9891
94.8803 2101 45.8367
94.9969 2112 45.9565
95.1135 2149 46.3573
95.2302 2103 45.8585
95.3469 2199 46.8935
95.4637 2201 46.9148
95.5805 2302 47.9792
95.6973 2224 47.1593
95.8142 2339 48.3632
95.9311 2386 48.8467
96.048 2268 47.6235
96.1649 2324 48.2079
96.2819 2331 48.2804
96.3989 2236 47.2864
96.516 2313 48.0937
96.633 2389 48.8774
96.7501 2497 49.97
96.8673 2435 49.3457
96.9844 2413 49.1223
97.1016 2387 48.8569
97.2188 2316 48.1248
97.336 2258 47.5184
97.4532 2263 47.571
97.5704 2312 48.0833
97.6877 2259 47.5289
97.805 2382 48.8057
97.9223 2486 49.8598
98.0396 2361 48.5901
98.1569 2369 48.6724
98.2743 2236 47.2864
98.3916 2244 47.3709
98.509 2236 47.2864
98.6264 2277 47.7179
98.7438 2216 47.0744
98.8612 2270 47.6445
98.9786 2318 48.1456
99.096 2480 49.7996
99.2134 2541 50.4083
99.3308 2520 50.1996
99.4482 2628 51.264
99.5656 2532 50.319
99.6831 2471 49.7092
99.8005 2560 50.5964
99.9179 2397 48.9592
100.035 2406 49.051
100.153 2531 50.309
100.27 2544 50.4381
100.388 2537 50.3686
100.505 2455 49.548
100.622 2511 50.1099
100.74 2421 49.2037
100.857 2407 49.0612
100.975 2500 50
101.092 2426 49.2544
101.209 2520 50.1996
101.327 2541 50.4083
101.444 2544 50.4381
101.561 2504 50.04
101.679 2535 50.3488
101.796 2503 50.03
101.913 2426 49.2544
102.03 2347 48.4458
102.148 2425 49.2443
102.265 2473 49.7293
102.382 2413 49.1223
102.499 2455 49.548
102.616 2542 50.4183
102.733 2654 51.517
102.851 2719 52.144
102.968 2620 51.1859
103.085 2769 52.6213
103.202 2695 51.9134
103.319 2662 51.5946
103.436 2625 51.2348
103.552 2595 50.9411
103.669 2575 50.7445
103.786 2665 51.6236
103.903 2855 53.4322
104.02 2763 52.5642
104.137 2703 51.9904
104.253 2640 51.3809
104.37 2551 50.5074
104.487 2564 50.636
104.603 2544 50.4381
104.72 2500 50
104.836 2622 51.2055
104.953 2519 50.1896
105.069 2476 49.7594
105.186 2304 48
105.302 2152 46.3897
105.418 1972 44.4072
105.535 1774 42.1189
105.651 1646 40.5709
105.767 1572 39.6485
105.883 1477 38.4318
105.999 1352 36.7696
106.115 0 1
106.231 0 1
106.347 0 1
106.463 0 1
106.579 0 1
106.694 0 1
106.81 0 1
106.926 0 1
107.041 0 1
107.157 0 1
109.576 0 1
109.692 0 1
109.807 0 1
109.923 0 1
110.039 0 1
110.155 0 1
110.27 0 1
110.386 0 1
110.502 0 1
110.618 1311 36.2077
110.735 1581 39.7618
110.851 1736 41.6653
110.967 1908 43.6807
111.083 2111 45.9456
111.199 2115 45.9891
111.316 2280 47.7493
111.432 2496 49.96
111.549 2517 50.1697
111.665 2463 49.6286
111.782 2481 49.8096
111.898 2630 51.2835
112.015 2473 49.7293
112.132 2413 49.1223
112.248 2397 48.9592
112.365 2411 49.1019
112.482 2422 49.2138
112.599 2452 49.5177
112.716 2503 50.03
112.832 2468 49.679
112.949 2305 48.0104
113.066 2272 47.6655
113.183 2328 48.2494
113.3 2311 48.0729
113.417 2278 47.7284
113.534 2233 47.2546
113.652 2261 47.55
113.769 2241 47.3392
113.886 2275 47.697
114.003 2204 46.9468
114.12 2180 46.6905
114.238 2266 47.6025
114.355 2294 47.8957
114.472 2091 45.7275
114.589 2212 47.0319
114.707 2167 46.551
114.824 2159 46.465
114.942 2336 48.3322
115.059 2367 48.6518
115.176 2399 48.9796
115.294 2255 47.4868
115.411 2349 48.4665
115.529 2152 46.3897
115.646 2338 48.3529
115.764 2295 47.9062
115.881 2240 47.3286
115.999 2336 48.3322
116.116 2245 47.3814
116.234 2333 48.3011
116.351 2274 47.6865
116.469 2242 47.3498
116.586 2129 46.1411
116.704 2151 46.3789
116.821 2174 46.6262
116.939 2190 46.7974
117.056 2129 46.1411
117.174 2145 46.3141
117.291 2192 46.8188
117.409 2081 45.618
117.526 2100 45.8258
117.644 2097 45.793
117.761 2147 46.3357
117.879 2092 45.7384
117.996 2114 45.9783
118.114 2066 45.4533
118.231 1982 44.5197
118.349 2006 44.7884
118.466 2097 45.793
118.584 2240 47.3286
118.701 2191 46.8081
118.819 2116 46
118.936 2052 45.299
119.053 2115 45.9891
119.171 2194 46.8402
119.288 2082 45.6289
119.405 1983 44.5309
119.523 2077 45.5741
119.64 2121 46.0543
119.757 2150 46.3681
119.875 2075 45.5522
119.992 1990 44.6094
120.109 2050 45.2769
120.226 2029 45.0444
120.343 1987 44.5758
120.46 2022 44.9667
120.578 2026 45.0111
120.695 2032 45.0777
120.812 1968 44.3621
120.929 1885 43.4166
121.046 1941 44.0568
121.163 1889 43.4626
121.279 1894 43.5201
121.396 1910 43.7035
121.513 2018 44.9222
121.63 1982 44.5197
121.747 1777 42.1545
121.863 1636 40.4475
121.98 1761 41.9643
122.097 1674 40.9145
122.213 1765 42.0119
122.33 1564 39.5474
122.446 1540 39.2428
122.563 1483 38.5097
122.679 1461 38.223
122.795 1363 36.9188
122.912 1298 36.0278
123.028 1224 34.9857
123.144 1174 34.2637
123.26 1126 33.5559
123.377 0 1
123.493 0 1
123.609 0 1
123.725 0 1
123.84 0 1
123.956 0 1
124.072 0 1
124.188 0 1
124.303 0 1
124.419 0 1
126.852 0 1
126.968 0 1
127.083 0 1
127.199 0 1
127.315 0 1
127.431 0 1
127.547 0 1
127.663 0 1
127.779 0 1
127.895 0 1
128.011 0 1
128.127 0 1
128.243 0 1
128.359 2107 45.9021
128.476 2139 46.2493
128.592 2322 48.1871
128.708 2250 47.4342
128.825 2313 48.0937
128.941 2352 48.4974
129.058 2427 49.2646
129.174 2342 48.3942
129.291 2306 48.0208
129.408 2279 47.7389
129.524 2247 47.4025
129.641 2185 46.744
129.758 2277 47.7179
129.875 2197 46.8722
129.992 2215 47.0638
130.108 2321 48.1768
130.225 2230 47.2229
130.342 2423 49.224
130.459 2507 50.07
130.576 2780 52.7257
130.693 2805 52.9623
130.81 2702 51.9808
130.928 2685 51.817
131.045 2906 53.9073
131.162 3209 56.648
131.279 3485 59.0339
131.396 3450 58.7367
131.513 3667 60.5558
131.631 4086 63.9218
131.748 4111 64.1171
131.865 4302 65.5896
131.983 4446 66.6783
132.1 4608 67.8823
132.217 4879 69.8498
132.335 5140 71.6938
132.452 5378 73.3348
132.57 5617 74.9466
132.687 5961 77.2075
132.804 6191 78.6829
132.922 6277 79.2275
133.039 6439 80.2434
133.157 6999 83.66
133.274 7059 84.0179
133.392 7336 85.6505
133.509 7565 86.977
133.627 7934 89.073
133.744 8518 92.293
133.862 9039 95.0737
133.979 9690 98.4378
134.097 10472 102.333
134.214 10872 104.269
134.332 11265 106.137
134.449 11360 106.583
134.567 12020 109.636
134.684 12853 113.371
134.802 13877 117.801
134.919 13461 116.022
135.037 11375 106.654
135.154 11779 108.531
135.272 15090 122.841
135.389 17074 130.668
135.507 17883 133.727
135.624 19110 138.239
135.742 19825 140.801
135.859 20600 143.527
135.977 21299 145.942
136.094 21999 148.321
136.211 22530 150.1
136.329 23455 153.15
136.446 24089 155.206
136.564 24642 156.978
136.681 25797 160.614
136.798 26276 162.099
136.915 26483 162.736
137.033 26993 164.295
137.15 27796 166.721
137.267 28547 168.959
137.384 28515 168.864
137.502 28792 169.682
137.619 29215 170.924
137.736 29949 173.058
137.853 29690 172.308
137.97 30607 174.949
138.087 30199 173.779
138.204 30120 173.551
138.321 30081 173.439
138.438 30354 174.224
138.555 29982 173.153
138.672 25384 159.324
138.788 18622 136.462
138.905 20297 142.468
139.022 26684 163.352
139.139 30035 173.306
139.255 30320 174.126
139.372 30668 175.123
139.488 30441 174.473
139.605 28275 168.152
139.721 23090 151.954
139.838 19761 140.574
139.954 18454 135.846
140.071 17266 131.4
140.187 16152 127.091
140.303 15089 122.837
140.419 14324 119.683
140.535 13850 117.686
140.652 12639 112.423
140.768 0 1
140.884 0 1
141 0 1
141.115 0 1
141.231 0 1
141.347 0 1
141.463 0 1
141.578 0 1
141.694 0 1
144.104 0 1
144.219 0 1
144.335 0 1
144.45 0 1
144.566 0 1
144.682 0 1
144.798 0 1
144.914 0 1
145.03 0 1
145.146 12863 113.415
145.262 13027 114.136
145.378 12934 113.728
145.494 12588 112.196
145.61 11649 107.931
145.726 10193 100.96
145.842 9117 95.483
145.959 8783 93.7177
146.075 8941 94.5569
146.192 9003 94.8841
146.308 9286 96.3639
146.425 9509 97.5141
146.541 9144 95.6243
146.658 8968 94.6995
146.774 9086 95.3205
146.891 9053 95.1473
147.008 9036 95.0579
147.125 8669 93.1075
147.241 8733 93.4505
147.358 9460 97.2625
147.475 9230 96.0729
147.592 8775 93.675
147.709 7995 89.4148
147.826 7971 89.2805
147.943 8306 91.1373
148.06 8725 93.4077
148.177 8970 94.7101
148.294 8819 93.9095
148.411 8968 94.6995
148.528 9028 95.0158
148.645 8960 94.6573
148.762 8909 94.3875
148.88 8965 94.6837
148.997 9033 95.0421
149.114 8464 92
149.231 8566 92.5527
149.349 8783 93.7177
149.466 8497 92.1792
149.583 8436 91.8477
149.701 8363 91.4494
149.818 7923 89.0112
149.935 7508 86.6487
150.053 6641 81.4923
150.17 6394 79.9625
150.287 6545 80.9012
150.405 7354 85.7555
150.522 7688 87.6812
150.64 7931 89.0562
150.757 7716 87.8408
150.875 8055 89.7497
150.992 8282 91.0055
151.11 8177 90.4268
151.227 7890 88.8257
151.344 7186 84.7703
151.462 7004 83.6899
151.579 7220 84.9706
151.697 7702 87.761
151.814 7969 89.2693
151.932 8059 89.7719
152.049 8215 90.6366
152.167 8002 89.4539
152.284 8063 89.7942
152.402 8116 90.0888
152.519 8044 89.6883
152.636 7984 89.3532
152.754 8072 89.8443
152.871 7768 88.1363
152.989 7698 87.7382
153.106 7565 86.977
153.223 7407 86.0639
153.341 7101 84.2674
153.458 6546 80.9074
153.575 6201 78.7464
153.693 5757 75.8749
153.81 5785 76.0592
153.927 6020 77.5887
154.044 6373 79.8311
154.162 6417 80.1062
154.279 6391 79.9437
154.396 6254 79.0822
154.513 6324 79.5236
154.63 6297 79.3536
154.747 6324 79.5236
154.864 5782 76.0395
154.981 5290 72.7324
155.098 5368 73.2666
155.215 5663 75.2529
155.332 5889 76.7398
155.449 6059 77.8396
155.566 6044 77.7432
155.683 5946 77.1103
155.8 5831 76.361
155.917 5582 74.7128
156.033 5585 74.7329
156.15 0 1
156.267 0 1
156.383 0 1
156.5 0 1
156.617 0 1
156.733 0 1
156.85 0 1
156.966 0 1
157.082 0 1
157.199 0 1
157.315 0 1
157.431 0 1
157.547 0 1
157.664 0 1
157.78 0 1
157.896 0 1
158.012 0 1
158.128 0 1
158.244 0 1
158.359 0 1
158.475 0 1
158.591 0 1
158.706 0 1
