
6.15755 0 1
6.2731 0 1
6.3887 0 1
6.50437 0 1
6.62009 0 1
6.73587 0 1
6.8517 0 1
6.96759 0 1
7.08353 0 1
7.19952 0 1
7.31557 0 1
7.43166 0 1
7.54781 0 1
7.664 0 1
7.78024 0 1
7.89653 0 1
8.01286 0 1
8.12924 0 1
8.24567 0 1
8.36213 0 1
8.47864 0 1
8.59519 0 1
8.71178 0 1
8.82841 0 1
8.94508 0 1
9.06179 0 1
9.17853 0 1
9.29531 0 1
9.41212 0 1
9.52897 0 1
9.64584 0 1
9.76276 0 1
9.8797 0 1
9.99667 0 1
10.1137 0 1
10.2307 0 1
10.3478 0 1
10.4648 0 1
10.5819 0 1
10.6991 0 1
10.8162 0 1
10.9334 0 1
11.0506 0 1
11.1678 0 1
11.285 0 1
11.4023 0 1
11.5196 0 1
11.6369 0 1
11.7542 0 1
11.8715 0 1
11.9888 0 1
12.1062 0 1
12.2235 0 1
12.3409 0 1
12.4582 0 1
12.5756 0 1
12.693 0 1
12.8104 0 1
12.9278 0 1
13.0452 0 1
13.1626 0 1
13.28 0 1
13.3974 0 1
13.5149 0 1
13.6323 0 1
13.7497 0 1
13.8671 0 1
13.9845 0 1
14.1019 0 1
14.2193 0 1
14.3367 0 1
14.4541 0 1
14.5714 0 1
14.6888 0 1
14.8062 0 1
14.9235 0 1
15.0408 1026 32.0312
15.1581 1019 31.9218
15.2755 1126 33.5559
15.3927 1046 32.3419
15.51 1071 32.7261
15.6273 1080 32.8634
15.7445 991 31.4802
15.8617 1016 31.8748
15.9789 1069 32.6956
16.0961 1056 32.4962
16.2132 1065 32.6343
16.3304 1009 31.7648
16.4475 961 31
16.5646 867 29.4449
16.6816 878 29.6311
16.7986 842 29.0172
16.9156 887 29.7825
17.0326 931 30.5123
17.1496 846 29.0861
17.2665 858 29.2916
17.3833 860 29.3258
17.5002 883 29.7153
17.617 881 29.6816
17.7338 835 28.8964
17.8505 947 30.7734
17.9672 874 29.5635
18.0839 923 30.3809
18.2005 921 30.348
18.3171 855 29.2404
18.4337 864 29.3939
18.5502 867 29.4449
18.6666 855 29.2404
18.7831 862 29.3598
18.8994 855 29.2404
19.0158 822 28.6705
19.1321 794 28.178
19.2483 782 27.9643
19.3645 786 28.0357
19.4806 755 27.4773
19.5967 750 27.3861
19.7128 657 25.632
19.8288 632 25.1396
19.9447 629 25.0799
20.0606 0 1
20.1764 0 1
20.2922 0 1
20.4079 0 1
20.5236 0 1
20.6392 0 1
20.7548 0 1
20.8702 0 1
23.3078 0 1
23.4233 0 1
23.539 0 1
23.6547 0 1
23.7704 0 1
23.8862 0 1
24.0021 0 1
24.118 0 1
24.234 0 1
24.35 0 1
24.4661 471 21.7025
24.5822 456 21.3542
24.6984 530 23.0217
24.8146 619 24.8797
24.9309 758 27.5318
25.0472 775 27.8388
25.1636 859 29.3087
25.28 918 30.2985
25.3965 949 30.8058
25.513 943 30.7083
25.6296 1012 31.8119
25.7462 944 30.7246
25.8628 1001 31.6386
25.9795 970 31.1448
26.0962 918 30.2985
26.213 905 30.0832
26.3298 810 28.4605
26.4466 873 29.5466
26.5635 898 29.9666
26.6804 787 28.0535
26.7973 842 29.0172
26.9143 789 28.0891
27.0313 733 27.074
27.1483 753 27.4408
27.2653 802 28.3196
27.3824 828 28.775
27.4996 825 28.7228
27.6167 862 29.3598
27.7339 756 27.4955
27.8511 855 29.2404
27.9683 850 29.1548
28.0855 835 28.8964
28.2028 861 29.3428
28.3201 890 29.8329
28.4374 868 29.4618
28.5547 923 30.3809
28.6721 893 29.8831
28.7894 907 30.1164
28.9068 922 30.3645
29.0242 901 30.0167
29.1416 862 29.3598
29.259 856 29.2575
29.3764 838 28.9482
29.4939 763 27.6225
29.6113 773 27.8029
29.7288 750 27.3861
29.8463 756 27.4955
29.9638 805 28.3725
30.0812 813 28.5132
30.1987 778 27.8927
30.3162 791 28.1247
30.4337 805 28.3725
30.5512 786 28.0357
30.6687 799 28.2666
30.7862 802 28.3196
30.9037 827 28.7576
31.0212 850 29.1548
31.1387 829 28.7924
31.2562 810 28.4605
31.3737 807 28.4077
31.4912 860 29.3258
31.6087 850 29.1548
31.7262 826 28.7402
31.8436 916 30.2655
31.9611 857 29.2746
32.0785 854 29.2233
32.1959 820 28.6356
32.3134 834 28.8791
32.4308 822 28.6705
32.5482 787 28.0535
32.6655 736 27.1293
32.7829 814 28.5307
32.9002 739 27.1846
33.0176 715 26.7395
33.1349 652 25.5343
33.2522 697 26.4008
33.3694 660 25.6905
33.4867 635 25.1992
33.6039 706 26.5707
33.7211 766 27.6767
33.8383 779 27.9106
33.9554 778 27.8927
34.0725 779 27.9106
34.1896 834 28.8791
34.3067 786 28.0357
34.4237 735 27.1109
34.5407 740 27.2029
34.6577 832 28.8444
34.7746 819 28.6182
34.8915 776 27.8568
35.0084 754 27.4591
35.1252 682 26.1151
35.242 737 27.1477
35.3587 776 27.8568
35.4755 794 28.178
35.5921 785 28.0179
35.7088 794 28.178
35.8254 759 27.55
35.9419 748 27.3496
36.0584 766 27.6767
36.1749 721 26.8514
36.2913 680 26.0768
36.4077 677 26.0192
36.524 646 25.4165
36.6403 606 24.6171
36.7565 605 24.5967
36.8727 547 23.388
36.9889 477 21.8403
37.1049 411 20.2731
37.221 0 1
37.3369 0 1
37.4529 0 1
37.5687 0 1
37.6845 0 1
37.8003 0 1
37.916 0 1
38.0316 0 1
38.1472 0 1
40.5851 0 1
40.7008 0 1
40.8164 0 1
40.9322 0 1
41.048 0 1
41.1639 0 1
41.2798 0 1
41.3958 0 1
41.5118 0 1
41.6279 0 1
41.744 340 18.4391
41.8602 396 19.8997
41.9765 382 19.5448
42.0928 449 21.1896
42.2091 485 22.0227
42.3255 535 23.1301
42.4419 548 23.4094
42.5584 614 24.779
42.675 593 24.3516
42.7915 587 24.2281
42.9081 610 24.6982
43.0248 613 24.7588
43.1415 564 23.7487
43.2582 614 24.779
43.375 546 23.3666
43.4918 600 24.4949
43.6087 578 24.0416
43.7256 571 23.8956
43.8425 523 22.8692
43.9595 542 23.2809
44.0765 540 23.2379
44.1935 586 24.2074
44.3106 585 24.1868
44.4277 615 24.7992
44.5448 585 24.1868
44.6619 567 23.8118
44.7791 616 24.8193
44.8963 611 24.7184
45.0136 572 23.9165
45.1308 605 24.5967
45.2481 595 24.3926
45.3654 604 24.5764
45.4827 584 24.1661
45.6001 618 24.8596
45.7174 568 23.8328
45.8348 570 23.8747
45.9522 571 23.8956
46.0697 561 23.6854
46.1871 548 23.4094
46.3046 558 23.622
46.422 560 23.6643
46.5395 593 24.3516
46.657 584 24.1661
46.7745 549 23.4307
46.892 621 24.9199
47.0096 568 23.8328
47.1271 578 24.0416
47.2446 596 24.4131
47.3622 583 24.1454
47.4797 543 23.3024
47.5973 547 23.388
47.7149 561 23.6854
47.8324 588 24.2487
47.95 570 23.8747
48.0675 640 25.2982
48.1851 644 25.3772
48.3027 607 24.6374
48.4202 630 25.0998
48.5378 588 24.2487
48.6554 565 23.7697
48.7729 625 25
48.8904 559 23.6432
49.008 640 25.2982
49.1255 562 23.7065
49.243 507 22.5167
49.3605 542 23.2809
49.478 523 22.8692
49.5955 476 21.8174
49.713 536 23.1517
49.8304 568 23.8328
49.9479 535 23.1301
50.0653 559 23.6432
50.1827 545 23.3452
50.3001 519 22.7816
50.4175 560 23.6643
50.5348 583 24.1454
50.6521 622 24.9399
50.7694 554 23.5372
50.8867 545 23.3452
51.004 549 23.4307
51.1212 512 22.6274
51.2384 598 24.454
51.3556 607 24.6374
51.4727 621 24.9199
51.5899 589 24.2693
51.707 620 24.8998
51.824 659 25.671
51.9411 588 24.2487
52.0581 599 24.4745
52.175 668 25.8457
52.2919 626 25.02
52.4088 635 25.1992
52.5257 676 26
52.6425 606 24.6171
52.7593 595 24.3926
52.876 593 24.3516
52.9927 561 23.6854
53.1094 582 24.1247
53.226 558 23.622
53.3426 637 25.2389
53.4591 660 25.6905
53.5756 691 26.2869
53.692 800 28.2843
53.8084 859 29.3087
53.9248 914 30.2324
54.0411 890 29.8329
54.1573 852 29.189
54.2735 0 1
54.3896 0 1
54.5057 0 1
54.6217 0 1
54.7377 0 1
54.8537 0 1
54.9695 0 1
55.0853 0 1
55.2011 0 1
55.3168 0 1
55.4324 0 1
57.824 0 1
57.9396 0 1
58.0553 0 1
58.1711 0 1
58.2869 0 1
58.4028 0 1
58.5187 0 1
58.6347 0 1
58.7508 0 1
58.8669 0 1
58.983 61995 248.988
59.0992 71705 267.778
59.2155 80763 284.188
59.3318 88641 297.726
59.4482 93899 306.429
59.5646 96535 310.701
59.681 95342 308.775
59.7975 92090 303.463
59.9141 89774 299.623
60.0306 88778 297.956
60.1473 89194 298.654
60.2639 88480 297.456
60.3807 85202 291.894
60.4974 82319 286.913
60.6142 77423 278.25
60.731 72223 268.743
60.8479 66479 257.835
60.9648 60073 245.098
61.0818 53135 230.51
61.1987 46056 214.607
61.3158 38191 195.425
61.4328 30860 175.67
61.5499 25042 158.247
61.667 20323 142.559
61.7841 16800 129.615
61.9013 14954 122.287
62.0185 14135 118.891
62.1357 13450 115.974
62.253 12411 111.405
62.3702 11242 106.028
62.4875 9790 98.9444
62.6049 8585 92.6553
62.7222 7446 86.2902
62.8396 6220 78.867
62.9569 5044 71.0211
63.0743 4047 63.616
63.1918 3183 56.4181
63.3092 2592 50.9117
63.4267 2143 46.2925
63.5441 1815 42.6028
63.6616 1513 38.8973
63.7791 1263 35.5387
63.8966 1117 33.4215
64.0142 963 31.0322
64.1317 963 31.0322
64.2492 847 29.1033
64.3668 799 28.2666
64.4843 756 27.4955
64.6019 717 26.7769
64.7195 680 26.0768
64.837 737 27.1477
64.9546 687 26.2107
65.0722 689 26.2488
65.1898 622 24.9399
65.3074 631 25.1197
65.4249 643 25.3574
65.5425 635 25.1992
65.6601 662 25.7294
65.7777 668 25.8457
65.8952 615 24.7992
66.0128 677 26.0192
66.1304 638 25.2587
66.2479 673 25.9422
66.3655 699 26.4386
66.483 676 26
66.6005 692 26.3059
66.718 600 24.4949
66.8355 634 25.1794
66.953 618 24.8596
67.0705 696 26.3818
67.1879 647 25.4362
67.3054 627 25.04
67.4228 659 25.671
67.5402 705 26.5518
67.6576 679 26.0576
67.7749 674 25.9615
67.8923 627 25.04
68.0096 665 25.7876
68.1269 690 26.2679
68.2442 630 25.0998
68.3614 649 25.4755
68.4787 640 25.2982
68.5958 638 25.2587
68.713 604 24.5764
68.8302 599 24.4745
68.9473 566 23.7908
69.0643 575 23.9792
69.1814 516 22.7156
69.2984 566 23.7908
69.4154 577 24.0208
69.5323 609 24.6779
69.6492 635 25.1992
69.7661 600 24.4949
69.8829 650 25.4951
69.9997 640 25.2982
70.1165 568 23.8328
70.2332 637 25.2389
70.3499 625 25
70.4665 622 24.9399
70.5831 553 23.516
70.6996 538 23.1948
70.8161 486 22.0454
70.9326 438 20.9284
71.049 424 20.5913
71.1653 432 20.7846
71.2817 385 19.6214
71.3979 387 19.6723
71.5141 337 18.3576
71.6303 340 18.4391
71.7464 274 16.5529
71.8624 0 1
71.9784 0 1
72.0944 0 1
72.2102 0 1
72.3261 0 1
72.4418 0 1
72.5575 0 1
72.6732 0 1
75.1054 0 1
75.2209 0 1
75.3365 0 1
75.4521 0 1
75.5678 0 1
75.6835 0 1
75.7993 0 1
75.9151 0 1
76.031 0 1
76.147 367 19.1572
76.263 426 20.6398
76.3791 500 22.3607
76.4952 466 21.587
76.6113 526 22.9347
76.7276 562 23.7065
76.8438 552 23.4947
76.9601 519 22.7816
77.0765 543 23.3024
77.1929 529 23
77.3093 537 23.1733
77.4258 518 22.7596
77.5423 550 23.4521
77.6589 554 23.5372
77.7755 570 23.8747
77.8921 518 22.7596
78.0088 497 22.2935
78.1256 473 21.7486
78.2423 452 21.2603
78.3591 539 23.2164
78.4759 505 22.4722
78.5928 528 22.9783
78.7097 560 23.6643
78.8266 490 22.1359
78.9436 536 23.1517
79.0606 497 22.2935
79.1776 542 23.2809
79.2946 557 23.6008
79.4117 531 23.0434
79.5288 587 24.2281
79.6459 525 22.9129
79.7631 545 23.3452
79.8802 546 23.3666
79.9974 563 23.7276
80.1147 540 23.2379
80.2319 557 23.6008
80.3491 644 25.3772
80.4664 564 23.7487
80.5837 582 24.1247
80.701 515 22.6936
80.8183 573 23.9374
80.9357 540 23.2379
81.053 574 23.9583
81.1704 632 25.1396
81.2877 599 24.4745
81.4051 560 23.6643
81.5225 538 23.1948
81.6399 542 23.2809
81.7573 476 21.8174
81.8747 501 22.383
81.9922 513 22.6495
82.1096 540 23.2379
82.227 469 21.6564
82.3444 511 22.6053
82.4619 519 22.7816
82.5793 553 23.516
82.6967 536 23.1517
82.8142 544 23.3238
82.9316 596 24.4131
83.049 557 23.6008
83.1664 574 23.9583
83.2838 592 24.3311
83.4012 548 23.4094
83.5186 559 23.6432
83.636 512 22.6274
83.7534 542 23.2809
83.8708 580 24.0832
83.9881 575 23.9792
84.1055 562 23.7065
84.2228 542 23.2809
84.3401 567 23.8118
84.4575 571 23.8956
84.5747 641 25.318
84.692 601 24.5153
84.8093 550 23.4521
84.9265 585 24.1868
85.0437 578 24.0416
85.1609 537 23.1733
85.2781 554 23.5372
85.3952 548 23.4094
85.5123 496 22.2711
85.6294 512 22.6274
85.7465 550 23.4521
85.8636 529 23
85.9806 544 23.3238
86.0976 502 22.4054
86.2145 557 23.6008
86.3315 574 23.9583
86.4484 610 24.6982
86.5652 644 25.3772
86.682 573 23.9374
86.7988 570 23.8747
86.9156 543 23.3024
87.0323 584 24.1661
87.149 567 23.8118
87.2657 559 23.6432
87.3823 582 24.1247
87.4988 571 23.8956
87.6154 586 24.2074
87.7318 562 23.7065
87.8483 502 22.4054
87.9647 475 21.7945
88.081 448 21.166
88.1973 452 21.2603
88.3136 364 19.0788
88.4298 377 19.4165
88.546 348 18.6548
88.6621 313 17.6918
88.7781 326 18.0555
88.8942 0 1
89.0101 0 1
89.126 0 1
89.2419 0 1
89.3577 0 1
89.4734 0 1
89.5891 0 1
89.7047 0 1
89.8203 0 1
89.9358 0 1
92.3269 0 1
92.4424 0 1
92.558 0 1
92.6736 0 1
92.7893 0 1
92.905 0 1
93.0208 0 1
93.1366 0 1
93.2525 0 1
93.3685 0 1
93.4845 0 1
93.6005 454 21.3073
93.7167 458 21.4009
93.8328 547 23.388
93.949 537 23.1733
94.0653 544 23.3238
94.1816 555 23.5584
94.2979 580 24.0832
94.4143 555 23.5584
94.5307 574 23.9583
94.6472 511 22.6053
94.7637 528 22.9783
94.8803 521 22.8254
94.9969 480 21.9089
95.1135 557 23.6008
95.2302 530 23.0217
95.3469 563 23.7276
95.4637 553 23.516
95.5805 575 23.9792
95.6973 584 24.1661
95.8142 630 25.0998
95.9311 587 24.2281
96.048 593 24.3516
96.1649 592 24.3311
96.2819 571 23.8956
96.3989 528 22.9783
96.516 546 23.3666
96.633 538 23.1948
96.7501 570 23.8747
96.8673 581 24.1039
96.9844 541 23.2594
97.1016 581 24.1039
97.2188 610 24.6982
97.336 572 23.9165
97.4532 542 23.2809
97.5704 597 24.4336
97.6877 579 24.0624
97.805 596 24.4131
97.9223 580 24.0832
98.0396 641 25.318
98.1569 570 23.8747
98.2743 532 23.0651
98.3916 574 23.9583
98.509 542 23.2809
98.6264 530 23.0217
98.7438 557 23.6008
98.8612 569 23.8537
98.9786 547 23.388
99.096 628 25.0599
99.2134 611 24.7184
99.3308 646 25.4165
99.4482 588 24.2487
99.5656 606 24.6171
99.6831 632 25.1396
99.8005 628 25.0599
99.9179 596 24.4131
100.035 571 23.8956
100.153 575 23.9792
100.27 597 24.4336
100.388 637 25.2389
100.505 593 24.3516
100.622 610 24.6982
100.74 580 24.0832
100.857 637 25.2389
100.975 623 24.96
101.092 591 24.3105
101.209 615 24.7992
101.327 573 23.9374
101.444 640 25.2982
101.561 630 25.0998
101.679 608 24.6577
101.796 631 25.1197
101.913 583 24.1454
102.03 573 23.9374
102.148 584 24.1661
102.265 583 24.1454
102.382 567 23.8118
102.499 615 24.7992
102.616 659 25.671
102.733 611 24.7184
102.851 632 25.1396
102.968 637 25.2389
103.085 620 24.8998
103.202 625 25
103.319 643 25.3574
103.436 614 24.779
103.552 578 24.0416
103.669 603 24.5561
103.786 610 24.6982
103.903 623 24.96
104.02 637 25.2389
104.137 615 24.7992
104.253 608 24.6577
104.37 632 25.1396
104.487 622 24.9399
104.603 555 23.5584
104.72 609 24.6779
104.836 631 25.1197
104.953 625 25
105.069 573 23.9374
105.186 553 23.516
105.302 510 22.5832
105.418 504 22.4499
105.535 467 21.6102
105.651 426 20.6398
105.767 362 19.0263
105.883 337 18.3576
105.999 322 17.9444
106.115 0 1
106.231 0 1
106.347 0 1
106.463 0 1
106.579 0 1
106.694 0 1
106.81 0 1
106.926 0 1
107.041 0 1
107.157 0 1
109.576 0 1
109.692 0 1
109.807 0 1
109.923 0 1
110.039 0 1
110.155 0 1
110.27 0 1
110.386 0 1
110.502 0 1
110.618 319 17.8606
110.735 316 17.7764
110.851 367 19.1572
110.967 402 20.0499
111.083 440 20.9762
111.199 504 22.4499
111.316 558 23.622
111.432 574 23.9583
111.549 585 24.1868
111.665 607 24.6374
111.782 569 23.8537
111.898 568 23.8328
112.015 544 23.3238
112.132 536 23.1517
112.248 589 24.2693
112.365 553 23.516
112.482 592 24.3311
112.599 550 23.4521
112.716 562 23.7065
112.832 574 23.9583
112.949 601 24.5153
113.066 571 23.8956
113.183 541 23.2594
113.3 534 23.1084
113.417 575 23.9792
113.534 566 23.7908
113.652 568 23.8328
113.769 567 23.8118
113.886 600 24.4949
114.003 560 23.6643
114.12 539 23.2164
114.238 539 23.2164
114.355 473 21.7486
114.472 462 21.4942
114.589 467 21.6102
114.707 515 22.6936
114.824 554 23.5372
114.942 557 23.6008
115.059 554 23.5372
115.176 550 23.4521
115.294 554 23.5372
115.411 557 23.6008
115.529 546 23.3666
115.646 542 23.2809
115.764 507 22.5167
115.881 523 22.8692
115.999 556 23.5797
116.116 528 22.9783
116.234 548 23.4094
116.351 544 23.3238
116.469 481 21.9317
116.586 501 22.383
116.704 553 23.516
116.821 496 22.2711
116.939 527 22.9565
117.056 532 23.0651
117.174 526 22.9347
117.291 578 24.0416
117.409 546 23.3666
117.526 544 23.3238
117.644 539 23.2164
117.761 564 23.7487
117.879 482 21.9545
117.996 467 21.6102
118.114 423 20.567
118.231 488 22.0907
118.349 503 22.4277
118.466 564 23.7487
118.584 554 23.5372
118.701 551 23.4734
118.819 556 23.5797
118.936 492 22.1811
119.053 507 22.5167
119.171 523 22.8692
119.288 544 23.3238
119.405 496 22.2711
119.523 488 22.0907
119.64 520 22.8035
119.757 470 21.6795
119.875 523 22.8692
119.992 519 22.7816
120.109 501 22.383
120.226 520 22.8035
120.343 484 22
120.46 478 21.8632
120.578 486 22.0454
120.695 489 22.1133
120.812 468 21.6333
120.929 498 22.3159
121.046 531 23.0434
121.163 542 23.2809
121.279 491 22.1585
121.396 503 22.4277
121.513 455 21.3307
121.63 393 19.8242
121.747 404 20.0998
121.863 458 21.4009
121.98 400 20
122.097 418 20.445
122.213 418 20.445
122.33 396 19.8997
122.446 425 20.6155
122.563 374 19.3391
122.679 395 19.8746
122.795 326 18.0555
122.912 295 17.1756
123.028 309 17.5784
123.144 253 15.906
123.26 261 16.1555
123.377 0 1
123.493 0 1
123.609 0 1
123.725 0 1
123.84 0 1
123.956 0 1
124.072 0 1
124.188 0 1
124.303 0 1
124.419 0 1
126.852 0 1
126.968 0 1
127.083 0 1
127.199 0 1
127.315 0 1
127.431 0 1
127.547 0 1
127.663 0 1
127.779 0 1
127.895 0 1
128.011 0 1
128.127 0 1
128.243 0 1
128.359 560 23.6643
128.476 577 24.0208
128.592 546 23.3666
128.708 549 23.4307
128.825 557 23.6008
128.941 585 24.1868
129.058 586 24.2074
129.174 611 24.7184
129.291 553 23.516
129.408 582 24.1247
129.524 551 23.4734
129.641 593 24.3516
129.758 616 24.8193
129.875 675 25.9808
129.992 669 25.865
130.108 647 25.4362
130.225 697 26.4008
130.342 695 26.3629
130.459 681 26.096
130.576 667 25.8263
130.693 632 25.1396
130.81 724 26.9072
130.928 819 28.6182
131.045 879 29.6479
131.162 1001 31.6386
131.279 1179 34.3366
131.396 1344 36.6606
131.513 1496 38.6782
131.631 1743 41.7493
131.748 1790 42.3084
131.865 1964 44.317
131.983 2072 45.5192
132.1 2070 45.4973
132.217 2150 46.3681
132.335 2208 46.9894
132.452 2320 48.1664
132.57 2364 48.621
132.687 2373 48.7134
132.804 2338 48.3529
132.922 2245 47.3814
133.039 2374 48.7237
133.157 2295 47.9062
133.274 2332 48.2908
133.392 2268 47.6235
133.509 2366 48.6415
133.627 2212 47.0319
133.744 2278 47.7284
133.862 2134 46.1952
133.979 1863 43.1625
134.097 1561 39.5095
134.214 1324 36.3868
134.332 1401 37.4299
134.449 1503 38.7685
134.567 1805 42.4853
134.684 1819 42.6497
134.802 1781 42.2019
134.919 1766 42.0238
135.037 1756 41.9047
135.154 1671 40.8779
135.272 1620 40.2492
135.389 1596 39.95
135.507 1570 39.6232
135.624 1597 39.9625
135.742 1529 39.1024
135.859 1556 39.4462
135.977 1507 38.8201
136.094 1551 39.3827
136.211 1563 39.5348
136.329 1595 39.9375
136.446 1491 38.6135
136.564 1537 39.2046
136.681 1529 39.1024
136.798 1539 39.2301
136.915 1453 38.1182
137.033 1563 39.5348
137.15 1465 38.2753
137.267 1496 38.6782
137.384 1443 37.9868
137.502 1501 38.7427
137.619 1385 37.2156
137.736 1262 35.5246
137.853 1186 34.4384
137.97 1146 33.8526
138.087 1275 35.7071
138.204 1222 34.9571
138.321 1324 36.3868
138.438 1358 36.8511
138.555 1423 37.7227
138.672 1358 36.8511
138.788 1294 35.9722
138.905 1226 35.0143
139.022 1174 34.2637
139.139 1167 34.1614
139.255 1115 33.3916
139.372 1095 33.0908
139.488 1017 31.8904
139.605 1019 31.9218
139.721 1015 31.8591
139.838 916 30.2655
139.954 925 30.4138
140.071 786 28.0357
140.187 799 28.2666
140.303 782 27.9643
140.419 733 27.074
140.535 667 25.8263
140.652 631 25.1197
140.768 0 1
140.884 0 1
141 0 1
141.115 0 1
141.231 0 1
141.347 0 1
141.463 0 1
141.578 0 1
141.694 0 1
144.104 0 1
144.219 0 1
144.335 0 1
144.45 0 1
144.566 0 1
144.682 0 1
144.798 0 1
144.914 0 1
145.03 0 1
145.146 1327 36.428
145.262 1401 37.4299
145.378 1450 38.0789
145.494 1470 38.3406
145.61 1558 39.4715
145.726 1551 39.3827
145.842 1684 41.0366
145.959 1723 41.509
146.075 1715 41.4126
146.192 1629 40.3609
146.308 1596 39.95
146.425 1593 39.9124
146.541 1509 38.8458
146.658 1520 38.9872
146.774 1640 40.4969
146.891 1714 41.4005
147.008 1828 42.7551
147.125 1747 41.7971
147.241 1834 42.8252
147.358 1917 43.7836
147.475 2028 45.0333
147.592 1854 43.0581
147.709 1837 42.8602
147.826 1857 43.0929
147.943 1850 43.0116
148.06 1875 43.3013
148.177 1899 43.5775
148.294 1837 42.8602
148.411 1892 43.4971
148.528 1932 43.9545
148.645 1971 44.3959
148.762 1931 43.9431
148.88 1976 44.4522
148.997 2080 45.607
149.114 2035 45.111
149.231 1935 43.9886
149.349 2012 44.8553
149.466 2025 45
149.583 2099 45.8148
149.701 2022 44.9667
149.818 2007 44.7996
149.935 2014 44.8776
150.053 2019 44.9333
150.17 1910 43.7035
150.287 1892 43.4971
150.405 1905 43.6463
150.522 1874 43.2897
150.64 1821 42.6732
150.757 1925 43.8748
150.875 1841 42.9069
150.992 1994 44.6542
151.11 1958 44.2493
151.227 1973 44.4185
151.344 1948 44.1362
151.462 1861 43.1393
151.579 1918 43.795
151.697 1913 43.7379
151.814 1904 43.6348
151.932 2034 45.0999
152.049 2163 46.5081
152.167 2110 45.9347
152.284 2101 45.8367
152.402 2173 46.6154
152.519 2180 46.6905
152.636 2171 46.594
152.754 2225 47.1699
152.871 2222 47.1381
152.989 2191 46.8081
153.106 2228 47.2017
153.223 2192 46.8188
153.341 2214 47.0532
153.458 2188 46.7761
153.575 2113 45.9674
153.693 2086 45.6727
153.81 2001 44.7325
153.927 2045 45.2217
154.044 2213 47.0425
154.162 2195 46.8508
154.279 2211 47.0213
154.396 2218 47.0956
154.513 2234 47.2652
154.63 2133 46.1844
154.747 2211 47.0213
154.864 2109 45.9239
154.981 1920 43.8178
155.098 2038 45.1442
155.215 2098 45.8039
155.332 2271 47.655
155.449 2296 47.9166
155.566 2290 47.8539
155.683 2334 48.3115
155.8 2572 50.7149
155.917 2548 50.4777
156.033 2289 47.8435
156.15 0 1
156.267 0 1
156.383 0 1
156.5 0 1
156.617 0 1
156.733 0 1
156.85 0 1
156.966 0 1
157.082 0 1
157.199 0 1
157.315 0 1
157.431 0 1
157.547 0 1
157.664 0 1
157.78 0 1
157.896 0 1
158.012 0 1
158.128 0 1
158.244 0 1
158.359 0 1
158.475 0 1
158.591 0 1
158.706 0 1
