
6.15755 0 1
6.2731 0 1
6.3887 0 1
6.50437 0 1
6.62009 0 1
6.73587 0 1
6.8517 0 1
6.96759 0 1
7.08353 0 1
7.19952 0 1
7.31557 0 1
7.43166 0 1
7.54781 0 1
7.664 0 1
7.78024 0 1
7.89653 0 1
8.01286 0 1
8.12924 0 1
8.24567 0 1
8.36213 0 1
8.47864 0 1
8.59519 0 1
8.71178 0 1
8.82841 0 1
8.94508 0 1
9.06179 0 1
9.17853 0 1
9.29531 0 1
9.41212 0 1
9.52897 0 1
9.64584 0 1
9.76276 0 1
9.8797 0 1
9.99667 0 1
10.1137 0 1
10.2307 0 1
10.3478 0 1
10.4648 0 1
10.5819 0 1
10.6991 0 1
10.8162 0 1
10.9334 0 1
11.0506 0 1
11.1678 0 1
11.285 0 1
11.4023 0 1
11.5196 0 1
11.6369 0 1
11.7542 0 1
11.8715 0 1
11.9888 0 1
12.1062 0 1
12.2235 0 1
12.3409 0 1
12.4582 0 1
12.5756 0 1
12.693 0 1
12.8104 0 1
12.9278 0 1
13.0452 0 1
13.1626 0 1
13.28 0 1
13.3974 0 1
13.5149 0 1
13.6323 0 1
13.7497 0 1
13.8671 0 1
13.9845 0 1
14.1019 0 1
14.2193 0 1
14.3367 0 1
14.4541 0 1
14.5714 0 1
14.6888 0 1
14.8062 0 1
14.9235 0 1
15.0408 1305 36.1248
15.1581 1358 36.8511
15.2755 1404 37.47
15.3927 1391 37.2961
15.51 1344 36.6606
15.6273 1401 37.4299
15.7445 1262 35.5246
15.8617 1355 36.8103
15.9789 1277 35.7351
16.0961 1273 35.6791
16.2132 1291 35.9305
16.3304 1171 34.2199
16.4475 1195 34.5688
16.5646 1172 34.2345
16.6816 1240 35.2136
16.7986 1222 34.9571
16.9156 1166 34.1467
17.0326 1196 34.5832
17.1496 1166 34.1467
17.2665 1154 33.9706
17.3833 1187 34.4529
17.5002 1202 34.6699
17.617 1199 34.6266
17.7338 1174 34.2637
17.8505 1180 34.3511
17.9672 1152 33.9411
18.0839 1183 34.3948
18.2005 1158 34.0294
18.3171 1190 34.4964
18.4337 1137 33.7194
18.5502 1146 33.8526
18.6666 1162 34.0881
18.7831 1132 33.6452
18.8994 1122 33.4963
19.0158 1099 33.1512
19.1321 1027 32.0468
19.2483 982 31.3369
19.3645 1027 32.0468
19.4806 1012 31.8119
19.5967 981 31.3209
19.7128 916 30.2655
19.8288 776 27.8568
19.9447 702 26.4953
20.0606 0 1
20.1764 0 1
20.2922 0 1
20.4079 0 1
20.5236 0 1
20.6392 0 1
20.7548 0 1
20.8702 0 1
23.3078 0 1
23.4233 0 1
23.539 0 1
23.6547 0 1
23.7704 0 1
23.8862 0 1
24.0021 0 1
24.118 0 1
24.234 0 1
24.35 0 1
24.4661 471 21.7025
24.5822 482 21.9545
24.6984 631 25.1197
24.8146 685 26.1725
24.9309 789 28.0891
25.0472 882 29.6985
25.1636 983 31.3528
25.28 1035 32.1714
25.3965 1113 33.3617
25.513 1166 34.1467
25.6296 1219 34.9142
25.7462 1297 36.0139
25.8628 1241 35.2278
25.9795 1297 36.0139
26.0962 1249 35.3412
26.213 1245 35.2846
26.3298 1184 34.4093
26.4466 1168 34.176
26.5635 1073 32.7567
26.6804 1158 34.0294
26.7973 1161 34.0735
26.9143 1020 31.9374
27.0313 1010 31.7805
27.1483 1040 32.249
27.2653 1021 31.9531
27.3824 1040 32.249
27.4996 1138 33.7343
27.6167 1025 32.0156
27.7339 1039 32.2335
27.8511 983 31.3528
27.9683 989 31.4484
28.0855 1112 33.3467
28.2028 1159 34.0441
28.3201 1080 32.8634
28.4374 1086 32.9545
28.5547 1009 31.7648
28.6721 1004 31.686
28.7894 1024 32
28.9068 1078 32.8329
29.0242 1108 33.2866
29.1416 1072 32.7414
29.259 1159 34.0441
29.3764 1073 32.7567
29.4939 1033 32.1403
29.6113 1055 32.4808
29.7288 1100 33.1662
29.8463 1046 32.3419
29.9638 984 31.3688
30.0812 973 31.1929
30.1987 969 31.1288
30.3162 981 31.3209
30.4337 1039 32.2335
30.5512 990 31.4643
30.6687 962 31.0161
30.7862 1011 31.7962
30.9037 1057 32.5115
31.0212 1095 33.0908
31.1387 1034 32.1559
31.2562 1047 32.3574
31.3737 1046 32.3419
31.4912 1095 33.0908
31.6087 1140 33.7639
31.7262 1084 32.9242
31.8436 1046 32.3419
31.9611 1018 31.9061
32.0785 1012 31.8119
32.1959 971 31.1609
32.3134 907 30.1164
32.4308 968 31.1127
32.5482 973 31.1929
32.6655 992 31.496
32.7829 889 29.8161
32.9002 981 31.3209
33.0176 908 30.133
33.1349 955 30.9031
33.2522 959 30.9677
33.3694 917 30.282
33.4867 952 30.8545
33.6039 964 31.0483
33.7211 973 31.1929
33.8383 957 30.9354
33.9554 979 31.289
34.0725 957 30.9354
34.1896 905 30.0832
34.3067 945 30.7409
34.4237 922 30.3645
34.5407 1009 31.7648
34.6577 989 31.4484
34.7746 1028 32.0624
34.8915 944 30.7246
35.0084 960 30.9839
35.1252 952 30.8545
35.242 1010 31.7805
35.3587 1048 32.3728
35.4755 992 31.496
35.5921 925 30.4138
35.7088 938 30.6268
35.8254 854 29.2233
35.9419 918 30.2985
36.0584 923 30.3809
36.1749 906 30.0998
36.2913 925 30.4138
36.4077 976 31.241
36.524 931 30.5123
36.6403 888 29.7993
36.7565 871 29.5127
36.8727 769 27.7308
36.9889 779 27.9106
37.1049 675 25.9808
37.221 0 1
37.3369 0 1
37.4529 0 1
37.5687 0 1
37.6845 0 1
37.8003 0 1
37.916 0 1
38.0316 0 1
38.1472 0 1
40.5851 0 1
40.7008 0 1
40.8164 0 1
40.9322 0 1
41.048 0 1
41.1639 0 1
41.2798 0 1
41.3958 0 1
41.5118 0 1
41.6279 0 1
41.744 382 19.5448
41.8602 490 22.1359
41.9765 552 23.4947
42.0928 585 24.1868
42.2091 662 25.7294
42.3255 750 27.3861
42.4419 734 27.0924
42.5584 771 27.7669
42.675 743 27.258
42.7915 716 26.7582
42.9081 696 26.3818
43.0248 699 26.4386
43.1415 659 25.671
43.2582 646 25.4165
43.375 768 27.7128
43.4918 804 28.3549
43.6087 771 27.7669
43.7256 777 27.8747
43.8425 727 26.9629
43.9595 759 27.55
44.0765 733 27.074
44.1935 749 27.3679
44.3106 713 26.7021
44.4277 737 27.1477
44.5448 651 25.5147
44.6619 693 26.3249
44.7791 639 25.2784
44.8963 719 26.8142
45.0136 737 27.1477
45.1308 755 27.4773
45.2481 818 28.6007
45.3654 769 27.7308
45.4827 783 27.9821
45.6001 796 28.2135
45.7174 769 27.7308
45.8348 805 28.3725
45.9522 766 27.6767
46.0697 802 28.3196
46.1871 833 28.8617
46.3046 790 28.1069
46.422 729 27
46.5395 694 26.3439
46.657 641 25.318
46.7745 684 26.1534
46.892 703 26.5141
47.0096 719 26.8142
47.1271 757 27.5136
47.2446 739 27.1846
47.3622 694 26.3439
47.4797 748 27.3496
47.5973 692 26.3059
47.7149 665 25.7876
47.8324 700 26.4575
47.95 678 26.0384
48.0675 688 26.2298
48.1851 642 25.3377
48.3027 636 25.219
48.4202 633 25.1595
48.5378 668 25.8457
48.6554 754 27.4591
48.7729 767 27.6948
48.8904 721 26.8514
49.008 733 27.074
49.1255 717 26.7769
49.243 720 26.8328
49.3605 731 27.037
49.478 770 27.7489
49.5955 674 25.9615
49.713 677 26.0192
49.8304 698 26.4197
49.9479 664 25.7682
50.0653 644 25.3772
50.1827 569 23.8537
50.3001 579 24.0624
50.4175 618 24.8596
50.5348 635 25.1992
50.6521 666 25.807
50.7694 707 26.5895
50.8867 720 26.8328
51.004 732 27.0555
51.1212 646 25.4165
51.2384 654 25.5734
51.3556 648 25.4558
51.4727 692 26.3059
51.5899 630 25.0998
51.707 568 23.8328
51.824 571 23.8956
51.9411 597 24.4336
52.0581 640 25.2982
52.175 705 26.5518
52.2919 667 25.8263
52.4088 652 25.5343
52.5257 706 26.5707
52.6425 714 26.7208
52.7593 690 26.2679
52.876 727 26.9629
52.9927 695 26.3629
53.1094 700 26.4575
53.226 711 26.6646
53.3426 657 25.632
53.4591 666 25.807
53.5756 565 23.7697
53.692 560 23.6643
53.8084 518 22.7596
53.9248 488 22.0907
54.0411 459 21.4243
54.1573 432 20.7846
54.2735 0 1
54.3896 0 1
54.5057 0 1
54.6217 0 1
54.7377 0 1
54.8537 0 1
54.9695 0 1
55.0853 0 1
55.2011 0 1
55.3168 0 1
55.4324 0 1
57.824 0 1
57.9396 0 1
58.0553 0 1
58.1711 0 1
58.2869 0 1
58.4028 0 1
58.5187 0 1
58.6347 0 1
58.7508 0 1
58.8669 0 1
58.983 723 26.8887
59.0992 914 30.2324
59.2155 1123 33.5112
59.3318 1296 36
59.4482 1428 37.7889
59.5646 1591 39.8873
59.681 1616 40.1995
59.7975 1815 42.6028
59.9141 1792 42.332
60.0306 1850 43.0116
60.1473 1936 44
60.2639 1841 42.9069
60.3807 1631 40.3856
60.4974 1574 39.6737
60.6142 1870 43.2435
60.731 2176 46.6476
60.8479 2993 54.7083
60.9648 3988 63.1506
61.0818 4855 69.6778
61.1987 5601 74.8398
61.3158 6474 80.4612
61.4328 7178 84.7231
61.5499 7665 87.55
61.667 8191 90.5041
61.7841 8443 91.8858
61.9013 8302 91.1153
62.0185 7803 88.3346
62.1357 6803 82.4803
62.253 5614 74.9266
62.3702 4487 66.9851
62.4875 3640 60.3324
62.6049 3207 56.6304
62.7222 2961 54.4151
62.8396 2743 52.3737
62.9569 2414 49.1325
63.0743 2259 47.5289
63.1918 2082 45.6289
63.3092 1807 42.5088
63.4267 1705 41.2916
63.5441 1566 39.5727
63.6616 1453 38.1182
63.7791 1318 36.3043
63.8966 1109 33.3017
64.0142 1035 32.1714
64.1317 907 30.1164
64.2492 930 30.4959
64.3668 834 28.8791
64.4843 939 30.6431
64.6019 981 31.3209
64.7195 899 29.9833
64.837 864 29.3939
64.9546 868 29.4618
65.0722 918 30.2985
65.1898 907 30.1164
65.3074 933 30.545
65.4249 891 29.8496
65.5425 928 30.4631
65.6601 856 29.2575
65.7777 807 28.4077
65.8952 842 29.0172
66.0128 791 28.1247
66.1304 817 28.5832
66.2479 828 28.775
66.3655 775 27.8388
66.483 843 29.0345
66.6005 880 29.6648
66.718 916 30.2655
66.8355 945 30.7409
66.953 888 29.7993
67.0705 885 29.7489
67.1879 815 28.5482
67.3054 819 28.6182
67.4228 790 28.1069
67.5402 736 27.1293
67.6576 776 27.8568
67.7749 755 27.4773
67.8923 764 27.6405
68.0096 804 28.3549
68.1269 823 28.688
68.2442 800 28.2843
68.3614 843 29.0345
68.4787 805 28.3725
68.5958 877 29.6142
68.713 864 29.3939
68.8302 881 29.6816
68.9473 876 29.5973
69.0643 870 29.4958
69.1814 846 29.0861
69.2984 800 28.2843
69.4154 770 27.7489
69.5323 736 27.1293
69.6492 750 27.3861
69.7661 736 27.1293
69.8829 807 28.4077
69.9997 811 28.4781
70.1165 854 29.2233
70.2332 812 28.4956
70.3499 799 28.2666
70.4665 784 28
70.5831 710 26.6458
70.6996 652 25.5343
70.8161 606 24.6171
70.9326 512 22.6274
71.049 473 21.7486
71.1653 418 20.445
71.2817 400 20
71.3979 323 17.9722
71.5141 383 19.5704
71.6303 326 18.0555
71.7464 315 17.7482
71.8624 0 1
71.9784 0 1
72.0944 0 1
72.2102 0 1
72.3261 0 1
72.4418 0 1
72.5575 0 1
72.6732 0 1
75.1054 0 1
75.2209 0 1
75.3365 0 1
75.4521 0 1
75.5678 0 1
75.6835 0 1
75.7993 0 1
75.9151 0 1
76.031 0 1
76.147 500 22.3607
76.263 547 23.388
76.3791 542 23.2809
76.4952 530 23.0217
76.6113 579 24.0624
76.7276 587 24.2281
76.8438 624 24.98
76.9601 674 25.9615
77.0765 651 25.5147
77.1929 690 26.2679
77.3093 699 26.4386
77.4258 701 26.4764
77.5423 702 26.4953
77.6589 710 26.6458
77.7755 693 26.3249
77.8921 777 27.8747
78.0088 674 25.9615
78.1256 749 27.3679
78.2423 626 25.02
78.3591 635 25.1992
78.4759 618 24.8596
78.5928 595 24.3926
78.7097 578 24.0416
78.8266 582 24.1247
78.9436 700 26.4575
79.0606 650 25.4951
79.1776 653 25.5539
79.2946 743 27.258
79.4117 718 26.7955
79.5288 735 27.1109
79.6459 688 26.2298
79.7631 691 26.2869
79.8802 685 26.1725
79.9974 680 26.0768
80.1147 614 24.779
80.2319 573 23.9374
80.3491 656 25.6125
80.4664 675 25.9808
80.5837 694 26.3439
80.701 729 27
80.8183 663 25.7488
80.9357 699 26.4386
81.053 695 26.3629
81.1704 724 26.9072
81.2877 764 27.6405
81.4051 715 26.7395
81.5225 716 26.7582
81.6399 713 26.7021
81.7573 774 27.8209
81.8747 680 26.0768
81.9922 717 26.7769
82.1096 662 25.7294
82.227 636 25.219
82.3444 675 25.9808
82.4619 667 25.8263
82.5793 705 26.5518
82.6967 727 26.9629
82.8142 771 27.7669
82.9316 755 27.4773
83.049 746 27.313
83.1664 666 25.807
83.2838 734 27.0924
83.4012 743 27.258
83.5186 750 27.3861
83.636 698 26.4197
83.7534 713 26.7021
83.8708 624 24.98
83.9881 697 26.4008
84.1055 738 27.1662
84.2228 765 27.6586
84.3401 791 28.1247
84.4575 715 26.7395
84.5747 701 26.4764
84.692 685 26.1725
84.8093 771 27.7669
84.9265 743 27.258
85.0437 764 27.6405
85.1609 761 27.5862
85.2781 773 27.8029
85.3952 716 26.7582
85.5123 716 26.7582
85.6294 612 24.7386
85.7465 659 25.671
85.8636 632 25.1396
85.9806 672 25.923
86.0976 672 25.923
86.2145 705 26.5518
86.3315 765 27.6586
86.4484 728 26.9815
86.5652 716 26.7582
86.682 724 26.9072
86.7988 722 26.8701
86.9156 793 28.1603
87.0323 738 27.1662
87.149 701 26.4764
87.2657 660 25.6905
87.3823 618 24.8596
87.4988 641 25.318
87.6154 643 25.3574
87.7318 663 25.7488
87.8483 675 25.9808
87.9647 596 24.4131
88.081 554 23.5372
88.1973 580 24.0832
88.3136 518 22.7596
88.4298 474 21.7715
88.546 475 21.7945
88.6621 437 20.9045
88.7781 378 19.4422
88.8942 0 1
89.0101 0 1
89.126 0 1
89.2419 0 1
89.3577 0 1
89.4734 0 1
89.5891 0 1
89.7047 0 1
89.8203 0 1
89.9358 0 1
92.3269 0 1
92.4424 0 1
92.558 0 1
92.6736 0 1
92.7893 0 1
92.905 0 1
93.0208 0 1
93.1366 0 1
93.2525 0 1
93.3685 0 1
93.4845 0 1
93.6005 582 24.1247
93.7167 555 23.5584
93.8328 600 24.4949
93.949 634 25.1794
94.0653 651 25.5147
94.1816 714 26.7208
94.2979 734 27.0924
94.4143 713 26.7021
94.5307 755 27.4773
94.6472 701 26.4764
94.7637 684 26.1534
94.8803 732 27.0555
94.9969 614 24.779
95.1135 662 25.7294
95.2302 695 26.3629
95.3469 740 27.2029
95.4637 719 26.8142
95.5805 716 26.7582
95.6973 734 27.0924
95.8142 710 26.6458
95.9311 712 26.6833
96.048 719 26.8142
96.1649 682 26.1151
96.2819 718 26.7955
96.3989 662 25.7294
96.516 701 26.4764
96.633 699 26.4386
96.7501 689 26.2488
96.8673 726 26.9444
96.9844 775 27.8388
97.1016 720 26.8328
97.2188 725 26.9258
97.336 676 26
97.4532 716 26.7582
97.5704 785 28.0179
97.6877 755 27.4773
97.805 749 27.3679
97.9223 754 27.4591
98.0396 745 27.2947
98.1569 751 27.4044
98.2743 706 26.5707
98.3916 723 26.8887
98.509 703 26.5141
98.6264 687 26.2107
98.7438 697 26.4008
98.8612 726 26.9444
98.9786 773 27.8029
99.096 783 27.9821
99.2134 816 28.5657
99.3308 820 28.6356
99.4482 741 27.2213
99.5656 779 27.9106
99.6831 752 27.4226
99.8005 730 27.0185
99.9179 712 26.6833
100.035 711 26.6646
100.153 703 26.5141
100.27 786 28.0357
100.388 727 26.9629
100.505 796 28.2135
100.622 761 27.5862
100.74 769 27.7308
100.857 742 27.2397
100.975 751 27.4044
101.092 791 28.1247
101.209 740 27.2029
101.327 762 27.6043
101.444 814 28.5307
101.561 771 27.7669
101.679 730 27.0185
101.796 720 26.8328
101.913 694 26.3439
102.03 710 26.6458
102.148 725 26.9258
102.265 775 27.8388
102.382 764 27.6405
102.499 810 28.4605
102.616 827 28.7576
102.733 771 27.7669
102.851 785 28.0179
102.968 800 28.2843
103.085 886 29.7658
103.202 778 27.8927
103.319 792 28.1425
103.436 795 28.1957
103.552 783 27.9821
103.669 786 28.0357
103.786 812 28.4956
103.903 824 28.7054
104.02 835 28.8964
104.137 800 28.2843
104.253 768 27.7128
104.37 775 27.8388
104.487 800 28.2843
104.603 788 28.0713
104.72 750 27.3861
104.836 783 27.9821
104.953 772 27.7849
105.069 705 26.5518
105.186 676 26
105.302 697 26.4008
105.418 587 24.2281
105.535 573 23.9374
105.651 517 22.7376
105.767 493 22.2036
105.883 487 22.0681
105.999 385 19.6214
106.115 0 1
106.231 0 1
106.347 0 1
106.463 0 1
106.579 0 1
106.694 0 1
106.81 0 1
106.926 0 1
107.041 0 1
107.157 0 1
109.576 0 1
109.692 0 1
109.807 0 1
109.923 0 1
110.039 0 1
110.155 0 1
110.27 0 1
110.386 0 1
110.502 0 1
110.618 386 19.6469
110.735 462 21.4942
110.851 483 21.9773
110.967 534 23.1084
111.083 663 25.7488
111.199 687 26.2107
111.316 787 28.0535
111.432 752 27.4226
111.549 772 27.7849
111.665 747 27.3313
111.782 733 27.074
111.898 680 26.0768
112.015 723 26.8887
112.132 707 26.5895
112.248 706 26.5707
112.365 720 26.8328
112.482 733 27.074
112.599 757 27.5136
112.716 668 25.8457
112.832 713 26.7021
112.949 717 26.7769
113.066 693 26.3249
113.183 696 26.3818
113.3 689 26.2488
113.417 711 26.6646
113.534 634 25.1794
113.652 660 25.6905
113.769 627 25.04
113.886 651 25.5147
114.003 606 24.6171
114.12 598 24.454
114.238 593 24.3516
114.355 645 25.3969
114.472 678 26.0384
114.589 642 25.3377
114.707 677 26.0192
114.824 679 26.0576
114.942 706 26.5707
115.059 705 26.5518
115.176 658 25.6515
115.294 619 24.8797
115.411 601 24.5153
115.529 651 25.5147
115.646 637 25.2389
115.764 608 24.6577
115.881 689 26.2488
115.999 640 25.2982
116.116 676 26
116.234 640 25.2982
116.351 656 25.6125
116.469 651 25.5147
116.586 653 25.5539
116.704 634 25.1794
116.821 614 24.779
116.939 669 25.865
117.056 651 25.5147
117.174 606 24.6171
117.291 641 25.318
117.409 631 25.1197
117.526 601 24.5153
117.644 605 24.5967
117.761 655 25.593
117.879 554 23.5372
117.996 569 23.8537
118.114 602 24.5357
118.231 619 24.8797
118.349 681 26.096
118.466 653 25.5539
118.584 670 25.8844
118.701 653 25.5539
118.819 623 24.96
118.936 561 23.6854
119.053 568 23.8328
119.171 616 24.8193
119.288 549 23.4307
119.405 630 25.0998
119.523 645 25.3969
119.64 621 24.9199
119.757 644 25.3772
119.875 611 24.7184
119.992 596 24.4131
120.109 594 24.3721
120.226 571 23.8956
120.343 575 23.9792
120.46 553 23.516
120.578 562 23.7065
120.695 560 23.6643
120.812 567 23.8118
120.929 606 24.6171
121.046 578 24.0416
121.163 568 23.8328
121.279 542 23.2809
121.396 490 22.1359
121.513 526 22.9347
121.63 519 22.7816
121.747 506 22.4944
121.863 539 23.2164
121.98 522 22.8473
122.097 544 23.3238
122.213 522 22.8473
122.33 515 22.6936
122.446 508 22.5389
122.563 423 20.567
122.679 365 19.105
122.795 372 19.2873
122.912 370 19.2354
123.028 326 18.0555
123.144 327 18.0831
123.26 342 18.4932
123.377 0 1
123.493 0 1
123.609 0 1
123.725 0 1
123.84 0 1
123.956 0 1
124.072 0 1
124.188 0 1
124.303 0 1
124.419 0 1
126.852 0 1
126.968 0 1
127.083 0 1
127.199 0 1
127.315 0 1
127.431 0 1
127.547 0 1
127.663 0 1
127.779 0 1
127.895 0 1
128.011 0 1
128.127 0 1
128.243 0 1
128.359 586 24.2074
128.476 639 25.2784
128.592 662 25.7294
128.708 648 25.4558
128.825 657 25.632
128.941 675 25.9808
129.058 750 27.3861
129.174 739 27.1846
129.291 753 27.4408
129.408 890 29.8329
129.524 999 31.607
129.641 1130 33.6155
129.758 1443 37.9868
129.875 1729 41.5812
129.992 2146 46.3249
130.108 2740 52.345
130.225 3472 58.9237
130.342 4228 65.0231
130.459 5139 71.6868
130.576 6195 78.7083
130.693 7253 85.1645
130.81 8916 94.4246
130.928 10616 103.034
131.045 12694 112.668
131.162 15368 123.968
131.279 17981 134.093
131.396 20009 141.453
131.513 22554 150.18
131.631 26047 161.391
131.748 30468 174.551
131.865 36011 189.766
131.983 41982 204.895
132.1 48442 220.095
132.217 55129 234.796
132.335 61107 247.198
132.452 66095 257.089
132.57 70439 265.403
132.687 72986 270.159
132.804 76881 277.274
132.922 77860 279.034
133.039 77967 279.226
133.157 78627 280.405
133.274 76688 276.926
133.392 74232 272.456
133.509 71657 267.688
133.627 67139 259.112
133.744 64963 254.878
133.862 63325 251.645
133.979 63618 252.226
134.097 63592 252.175
134.214 63694 252.377
134.332 62962 250.922
134.449 60163 245.281
134.567 55559 235.71
134.684 52095 228.243
134.802 50850 225.499
134.919 51320 226.539
135.037 50405 224.511
135.154 49119 221.628
135.272 47689 218.378
135.389 45291 212.817
135.507 44300 210.476
135.624 43306 208.101
135.742 41917 204.736
135.859 39929 199.822
135.977 38485 196.176
136.094 36673 191.502
136.211 35022 187.142
136.329 33086 181.896
136.446 30684 175.168
136.564 28390 168.493
136.681 26592 163.071
136.798 24240 155.692
136.915 22902 151.334
137.033 21058 145.114
137.15 19936 141.195
137.267 18054 134.365
137.384 16192 127.248
137.502 14439 120.162
137.619 12548 112.018
137.736 11402 106.78
137.853 10425 102.103
137.97 10052 100.26
138.087 9820 99.0959
138.204 9058 95.1735
138.321 8065 89.8053
138.438 7597 87.1608
138.555 7863 88.6736
138.672 7969 89.2693
138.788 7709 87.8009
138.905 7149 84.5518
139.022 6588 81.1665
139.139 5944 77.0973
139.255 5876 76.6551
139.372 5427 73.6682
139.488 4820 69.4262
139.605 4387 66.2344
139.721 4131 64.2729
139.838 3719 60.9836
139.954 3445 58.6941
140.071 3192 56.4978
140.187 2929 54.1202
140.303 2864 53.5164
140.419 2585 50.8429
140.535 2405 49.0408
140.652 2409 49.0816
140.768 0 1
140.884 0 1
141 0 1
141.115 0 1
141.231 0 1
141.347 0 1
141.463 0 1
141.578 0 1
141.694 0 1
144.104 0 1
144.219 0 1
144.335 0 1
144.45 0 1
144.566 0 1
144.682 0 1
144.798 0 1
144.914 0 1
145.03 0 1
145.146 1924 43.8634
145.262 2029 45.0444
145.378 1999 44.7102
145.494 2082 45.6289
145.61 2054 45.3211
145.726 2193 46.8295
145.842 1983 44.5309
145.959 2116 46
146.075 2183 46.7226
146.192 2077 45.5741
146.308 2028 45.0333
146.425 2061 45.3982
146.541 2159 46.465
146.658 2022 44.9667
146.774 2004 44.7661
146.891 2064 45.4313
147.008 2145 46.3141
147.125 2198 46.8828
147.241 2355 48.5283
147.358 2486 49.8598
147.475 2431 49.3052
147.592 2366 48.6415
147.709 2219 47.1063
147.826 2073 45.5302
147.943 2011 44.8442
148.06 2086 45.6727
148.177 2183 46.7226
148.294 2261 47.55
148.411 2425 49.2443
148.528 2423 49.224
148.645 2386 48.8467
148.762 2535 50.3488
148.88 2513 50.1298
148.997 2673 51.7011
149.114 2358 48.5592
149.231 2462 49.6185
149.349 2557 50.5668
149.466 2527 50.2693
149.583 2479 49.7896
149.701 2519 50.1896
149.818 2437 49.366
149.935 2420 49.1935
150.053 2430 49.295
150.17 2352 48.4974
150.287 2242 47.3498
150.405 2332 48.2908
150.522 2213 47.0425
150.64 2203 46.9361
150.757 2248 47.4131
150.875 2279 47.7389
150.992 2348 48.4562
151.11 2255 47.4868
151.227 2150 46.3681
151.344 2151 46.3789
151.462 1951 44.1701
151.579 1881 43.3705
151.697 1924 43.8634
151.814 2093 45.7493
151.932 2257 47.5079
152.049 2218 47.0956
152.167 2375 48.734
152.284 2410 49.0918
152.402 2270 47.6445
152.519 2290 47.8539
152.636 2233 47.2546
152.754 2245 47.3814
152.871 2275 47.697
152.989 2201 46.9148
153.106 2172 46.6047
153.223 2214 47.0532
153.341 2219 47.1063
153.458 2076 45.5631
153.575 2001 44.7325
153.693 1973 44.4185
153.81 1906 43.6578
153.927 1942 44.0681
154.044 1845 42.9535
154.162 1849 43
154.279 1960 44.2719
154.396 1963 44.3058
154.513 2092 45.7384
154.63 2010 44.833
154.747 2030 45.0555
154.864 2027 45.0222
154.981 1906 43.6578
155.098 1869 43.2319
155.215 1732 41.6173
155.332 1817 42.6263
155.449 1874 43.2897
155.566 1898 43.566
155.683 1958 44.2493
155.8 2004 44.7661
155.917 1930 43.9318
156.033 1900 43.589
156.15 0 1
156.267 0 1
156.383 0 1
156.5 0 1
156.617 0 1
156.733 0 1
156.85 0 1
156.966 0 1
157.082 0 1
157.199 0 1
157.315 0 1
157.431 0 1
157.547 0 1
157.664 0 1
157.78 0 1
157.896 0 1
158.012 0 1
158.128 0 1
158.244 0 1
158.359 0 1
158.475 0 1
158.591 0 1
158.706 0 1
