
6.15755 0 1
6.2731 0 1
6.3887 0 1
6.50437 0 1
6.62009 0 1
6.73587 0 1
6.8517 0 1
6.96759 0 1
7.08353 0 1
7.19952 0 1
7.31557 0 1
7.43166 0 1
7.54781 0 1
7.664 0 1
7.78024 0 1
7.89653 0 1
8.01286 0 1
8.12924 0 1
8.24567 0 1
8.36213 0 1
8.47864 0 1
8.59519 0 1
8.71178 0 1
8.82841 0 1
8.94508 0 1
9.06179 0 1
9.17853 0 1
9.29531 0 1
9.41212 0 1
9.52897 0 1
9.64584 0 1
9.76276 0 1
9.8797 0 1
9.99667 0 1
10.1137 0 1
10.2307 0 1
10.3478 0 1
10.4648 0 1
10.5819 0 1
10.6991 0 1
10.8162 0 1
10.9334 0 1
11.0506 0 1
11.1678 0 1
11.285 0 1
11.4023 0 1
11.5196 0 1
11.6369 0 1
11.7542 0 1
11.8715 0 1
11.9888 0 1
12.1062 0 1
12.2235 0 1
12.3409 0 1
12.4582 0 1
12.5756 0 1
12.693 0 1
12.8104 0 1
12.9278 0 1
13.0452 0 1
13.1626 0 1
13.28 0 1
13.3974 0 1
13.5149 0 1
13.6323 0 1
13.7497 0 1
13.8671 0 1
13.9845 0 1
14.1019 0 1
14.2193 0 1
14.3367 0 1
14.4541 0 1
14.5714 0 1
14.6888 0 1
14.8062 0 1
14.9235 0 1
15.0408 1717 41.4367
15.1581 1877 43.3244
15.2755 1895 43.5316
15.3927 1869 43.2319
15.51 1879 43.3474
15.6273 1963 44.3058
15.7445 1957 44.238
15.8617 1893 43.5086
15.9789 1918 43.795
16.0961 1936 44
16.2132 1908 43.6807
16.3304 1959 44.2606
16.4475 1935 43.9886
16.5646 1989 44.5982
16.6816 2101 45.8367
16.7986 2127 46.1194
16.9156 2305 48.0104
17.0326 2195 46.8508
17.1496 2203 46.9361
17.2665 2208 46.9894
17.3833 2267 47.613
17.5002 2192 46.8188
17.617 2141 46.2709
17.7338 2013 44.8665
17.8505 1913 43.7379
17.9672 1961 44.2832
18.0839 1994 44.6542
18.2005 2050 45.2769
18.3171 2064 45.4313
18.4337 2142 46.2817
18.5502 2157 46.4435
18.6666 2227 47.1911
18.7831 2126 46.1086
18.8994 2213 47.0425
19.0158 2239 47.3181
19.1321 2121 46.0543
19.2483 2042 45.1885
19.3645 1898 43.566
19.4806 1779 42.1782
19.5967 1716 41.4246
19.7128 1570 39.6232
19.8288 1473 38.3797
19.9447 1378 37.1214
20.0606 0 1
20.1764 0 1
20.2922 0 1
20.4079 0 1
20.5236 0 1
20.6392 0 1
20.7548 0 1
20.8702 0 1
23.3078 0 1
23.4233 0 1
23.539 0 1
23.6547 0 1
23.7704 0 1
23.8862 0 1
24.0021 0 1
24.118 0 1
24.234 0 1
24.35 0 1
24.4661 861 29.3428
24.5822 1069 32.6956
24.6984 1171 34.2199
24.8146 1354 36.7967
24.9309 1460 38.2099
25.0472 1571 39.6358
25.1636 1800 42.4264
25.28 1947 44.1248
25.3965 2062 45.4093
25.513 2134 46.1952
25.6296 2439 49.3862
25.7462 2312 48.0833
25.8628 2357 48.5489
25.9795 2421 49.2037
26.0962 2357 48.5489
26.213 2317 48.1352
26.3298 2178 46.669
26.4466 2058 45.3652
26.5635 2044 45.2106
26.6804 2096 45.7821
26.7973 2124 46.0869
26.9143 2154 46.4112
27.0313 2169 46.5725
27.1483 2223 47.1487
27.2653 2366 48.6415
27.3824 2285 47.8017
27.4996 2246 47.392
27.6167 2263 47.571
27.7339 2187 46.7654
27.8511 2164 46.5188
27.9683 2156 46.4327
28.0855 2086 45.6727
28.2028 2097 45.793
28.3201 1985 44.5533
28.4374 1844 42.9418
28.5547 2143 46.2925
28.6721 2008 44.8107
28.7894 2146 46.3249
28.9068 2147 46.3357
29.0242 2264 47.5815
29.1416 2344 48.4149
29.259 2422 49.2138
29.3764 2299 47.9479
29.4939 2287 47.8226
29.6113 2348 48.4562
29.7288 2256 47.4974
29.8463 2097 45.793
29.9638 1959 44.2606
30.0812 1994 44.6542
30.1987 2025 45
30.3162 1956 44.2267
30.4337 2036 45.1221
30.5512 2181 46.7012
30.6687 2197 46.8722
30.7862 2135 46.2061
30.9037 2198 46.8828
31.0212 2210 47.0106
31.1387 2260 47.5395
31.2562 2188 46.7761
31.3737 2214 47.0532
31.4912 2145 46.3141
31.6087 2007 44.7996
31.7262 1962 44.2945
31.8436 1948 44.1362
31.9611 1880 43.359
32.0785 1838 42.8719
32.1959 1984 44.5421
32.3134 2007 44.7996
32.4308 2130 46.1519
32.5482 2227 47.1911
32.6655 2337 48.3425
32.7829 2268 47.6235
32.9002 2210 47.0106
33.0176 2240 47.3286
33.1349 2290 47.8539
33.2522 2107 45.9021
33.3694 2059 45.3762
33.4867 1952 44.1814
33.6039 1940 44.0454
33.7211 1899 43.5775
33.8383 1838 42.8719
33.9554 1871 43.2551
34.0725 1930 43.9318
34.1896 2002 44.7437
34.3067 2071 45.5082
34.4237 1977 44.4635
34.5407 2065 45.4423
34.6577 2114 45.9783
34.7746 2129 46.1411
34.8915 2049 45.2659
35.0084 1978 44.4747
35.1252 2030 45.0555
35.242 1942 44.0681
35.3587 1946 44.1135
35.4755 1864 43.1741
35.5921 1791 42.3202
35.7088 1729 41.5812
35.8254 1797 42.391
35.9419 1927 43.8976
36.0584 1941 44.0568
36.1749 1893 43.5086
36.2913 1960 44.2719
36.4077 1941 44.0568
36.524 1921 43.8292
36.6403 1919 43.8064
36.7565 1746 41.7852
36.8727 1694 41.1582
36.9889 1528 39.0896
37.1049 1423 37.7227
37.221 0 1
37.3369 0 1
37.4529 0 1
37.5687 0 1
37.6845 0 1
37.8003 0 1
37.916 0 1
38.0316 0 1
38.1472 0 1
40.5851 0 1
40.7008 0 1
40.8164 0 1
40.9322 0 1
41.048 0 1
41.1639 0 1
41.2798 0 1
41.3958 0 1
41.5118 0 1
41.6279 0 1
41.744 989 31.4484
41.8602 1152 33.9411
41.9765 1209 34.7707
42.0928 1344 36.6606
42.2091 1239 35.1994
42.3255 1243 35.2562
42.4419 1198 34.6121
42.5584 1253 35.3977
42.675 1416 37.6298
42.7915 1524 39.0384
42.9081 1602 40.025
43.0248 1617 40.2119
43.1415 1657 40.7063
43.2582 1752 41.8569
43.375 1767 42.0357
43.4918 1855 43.0697
43.6087 1706 41.3038
43.7256 1760 41.9524
43.8425 1684 41.0366
43.9595 1762 41.9762
44.0765 1731 41.6053
44.1935 1631 40.3856
44.3106 1508 38.833
44.4277 1492 38.6264
44.5448 1427 37.7757
44.6619 1489 38.5876
44.7791 1633 40.4104
44.8963 1614 40.1746
45.0136 1839 42.8836
45.1308 1883 43.3935
45.2481 1734 41.6413
45.3654 1815 42.6028
45.4827 1842 42.9185
45.6001 1753 41.8688
45.7174 1656 40.694
45.8348 1588 39.8497
45.9522 1533 39.1535
46.0697 1454 38.1314
46.1871 1532 39.1408
46.3046 1520 38.9872
46.422 1612 40.1497
46.5395 1714 41.4005
46.657 1757 41.9166
46.7745 1723 41.509
46.892 1833 42.8135
47.0096 1909 43.6921
47.1271 1867 43.2088
47.2446 1889 43.4626
47.3622 1839 42.8836
47.4797 1857 43.0929
47.5973 1696 41.1825
47.7149 1730 41.5933
47.8324 1672 40.8901
47.95 1634 40.4228
48.0675 1560 39.4968
48.1851 1455 38.1445
48.3027 1574 39.6737
48.4202 1703 41.2674
48.5378 1771 42.0833
48.6554 1867 43.2088
48.7729 1852 43.0349
48.8904 1814 42.5911
49.008 1817 42.6263
49.1255 1845 42.9535
49.243 1737 41.6773
49.3605 1554 39.4208
49.478 1542 39.2683
49.5955 1422 37.7094
49.713 1441 37.9605
49.8304 1467 38.3014
49.9479 1517 38.9487
50.0653 1620 40.2492
50.1827 1648 40.5956
50.3001 1761 41.9643
50.4175 1777 42.1545
50.5348 1797 42.391
50.6521 1890 43.4741
50.7694 1881 43.3705
50.8867 1926 43.8862
51.004 1790 42.3084
51.1212 1848 42.9884
51.2384 1785 42.2493
51.3556 1817 42.6263
51.4727 1711 41.3642
51.5899 1662 40.7676
51.707 1709 41.3401
51.824 1731 41.6053
51.9411 1827 42.7434
52.0581 1996 44.6766
52.175 2223 47.1487
52.2919 2182 46.7119
52.4088 2218 47.0956
52.5257 2225 47.1699
52.6425 2271 47.655
52.7593 2256 47.4974
52.876 2205 46.9574
52.9927 2119 46.0326
53.1094 1910 43.7035
53.226 1887 43.4396
53.3426 1821 42.6732
53.4591 1835 42.8369
53.5756 1834 42.8252
53.692 1842 42.9185
53.8084 1851 43.0232
53.9248 1814 42.5911
54.0411 1680 40.9878
54.1573 1512 38.8844
54.2735 0 1
54.3896 0 1
54.5057 0 1
54.6217 0 1
54.7377 0 1
54.8537 0 1
54.9695 0 1
55.0853 0 1
55.2011 0 1
55.3168 0 1
55.4324 0 1
57.824 0 1
57.9396 0 1
58.0553 0 1
58.1711 0 1
58.2869 0 1
58.4028 0 1
58.5187 0 1
58.6347 0 1
58.7508 0 1
58.8669 0 1
58.983 1368 36.9865
59.0992 1535 39.1791
59.2155 1762 41.9762
59.3318 1901 43.6005
59.4482 1955 44.2154
59.5646 2015 44.8888
59.681 2104 45.8694
59.7975 2078 45.5851
59.9141 2145 46.3141
60.0306 2041 45.1774
60.1473 2027 45.0222
60.2639 1938 44.0227
60.3807 1979 44.486
60.4974 2030 45.0555
60.6142 2047 45.2438
60.731 2224 47.1593
60.8479 2303 47.9896
60.9648 2324 48.2079
61.0818 2319 48.156
61.1987 2248 47.4131
61.3158 2233 47.2546
61.4328 2183 46.7226
61.5499 2038 45.1442
61.667 1889 43.4626
61.7841 1809 42.5323
61.9013 1758 41.9285
62.0185 1763 41.9881
62.1357 1923 43.852
62.253 2039 45.1553
62.3702 2056 45.3431
62.4875 2163 46.5081
62.6049 2198 46.8828
62.7222 2213 47.0425
62.8396 2291 47.8644
62.9569 2240 47.3286
63.0743 2288 47.833
63.1918 2256 47.4974
63.3092 2093 45.7493
63.4267 2174 46.6262
63.5441 2111 45.9456
63.6616 2005 44.7772
63.7791 1930 43.9318
63.8966 1919 43.8064
64.0142 1950 44.1588
64.1317 1949 44.1475
64.2492 2158 46.4543
64.3668 2251 47.4447
64.4843 2297 47.927
64.6019 2246 47.392
64.7195 2245 47.3814
64.837 2204 46.9468
64.9546 2197 46.8722
65.0722 2017 44.911
65.1898 1938 44.0227
65.3074 1778 42.1663
65.4249 1617 40.2119
65.5425 1663 40.7799
65.6601 1704 41.2795
65.7777 1798 42.4028
65.8952 1861 43.1393
66.0128 1971 44.3959
66.1304 2146 46.3249
66.2479 2179 46.6798
66.3655 2143 46.2925
66.483 2167 46.551
66.6005 2135 46.2061
66.718 2213 47.0425
66.8355 2243 47.3603
66.953 2168 46.5618
67.0705 2039 45.1553
67.1879 2057 45.3542
67.3054 1995 44.6654
67.4228 1837 42.8602
67.5402 1767 42.0357
67.6576 1818 42.638
67.7749 1897 43.5546
67.8923 1963 44.3058
68.0096 2025 45
68.1269 2192 46.8188
68.2442 2101 45.8367
68.3614 2166 46.5403
68.4787 2176 46.6476
68.5958 2127 46.1194
68.713 2095 45.7712
68.8302 1918 43.795
68.9473 1703 41.2674
69.0643 1660 40.7431
69.1814 1535 39.1791
69.2984 1712 41.3763
69.4154 1768 42.0476
69.5323 1798 42.4028
69.6492 1894 43.5201
69.7661 2127 46.1194
69.8829 2087 45.6837
69.9997 2038 45.1442
70.1165 1997 44.6878
70.2332 1868 43.2204
70.3499 1843 42.9302
70.4665 1749 41.821
70.5831 1706 41.3038
70.6996 1561 39.5095
70.8161 1466 38.2884
70.9326 1338 36.5787
71.049 1176 34.2929
71.1653 984 31.3688
71.2817 915 30.249
71.3979 872 29.5296
71.5141 808 28.4253
71.6303 750 27.3861
71.7464 725 26.9258
71.8624 0 1
71.9784 0 1
72.0944 0 1
72.2102 0 1
72.3261 0 1
72.4418 0 1
72.5575 0 1
72.6732 0 1
75.1054 0 1
75.2209 0 1
75.3365 0 1
75.4521 0 1
75.5678 0 1
75.6835 0 1
75.7993 0 1
75.9151 0 1
76.031 0 1
76.147 1335 36.5377
76.263 1359 36.8646
76.3791 1390 37.2827
76.4952 1359 36.8646
76.6113 1411 37.5633
76.7276 1500 38.7298
76.8438 1636 40.4475
76.9601 1817 42.6263
77.0765 1784 42.2374
77.1929 1918 43.795
77.3093 1905 43.6463
77.4258 1865 43.1856
77.5423 1889 43.4626
77.6589 1776 42.1426
77.7755 1530 39.1152
77.8921 1562 39.5221
78.0088 1426 37.7624
78.1256 1303 36.0971
78.2423 1311 36.2077
78.3591 1424 37.7359
78.4759 1541 39.2556
78.5928 1673 40.9023
78.7097 1774 42.1189
78.8266 1820 42.6615
78.9436 1879 43.3474
79.0606 1866 43.1972
79.1776 1960 44.2719
79.2946 1995 44.6654
79.4117 1856 43.0813
79.5288 1890 43.4741
79.6459 1893 43.5086
79.7631 1841 42.9069
79.8802 1730 41.5933
79.9974 1680 40.9878
80.1147 1633 40.4104
80.2319 1472 38.3667
80.3491 1603 40.0375
80.4664 1751 41.845
80.5837 1803 42.4617
80.701 1939 44.0341
80.8183 1994 44.6542
80.9357 1880 43.359
81.053 2008 44.8107
81.1704 1958 44.2493
81.2877 1922 43.8406
81.4051 1912 43.7264
81.5225 1660 40.7431
81.6399 1634 40.4228
81.7573 1442 37.9737
81.8747 1376 37.0945
81.9922 1450 38.0789
82.1096 1476 38.4187
82.227 1653 40.6571
82.3444 1792 42.332
82.4619 1846 42.9651
82.5793 1828 42.7551
82.6967 1987 44.5758
82.8142 1969 44.3734
82.9316 1948 44.1362
83.049 2044 45.2106
83.1664 1932 43.9545
83.2838 1942 44.0681
83.4012 1907 43.6692
83.5186 1845 42.9535
83.636 1720 41.4729
83.7534 1618 40.2244
83.8708 1541 39.2556
83.9881 1517 38.9487
84.1055 1621 40.2616
84.2228 1729 41.5812
84.3401 1916 43.7721
84.4575 2041 45.1774
84.5747 1948 44.1362
84.692 2039 45.1553
84.8093 2001 44.7325
84.9265 1977 44.4635
85.0437 1796 42.3792
85.1609 1698 41.2068
85.2781 1530 39.1152
85.3952 1419 37.6696
85.5123 1421 37.6962
85.6294 1368 36.9865
85.7465 1643 40.5339
85.8636 1672 40.8901
85.9806 1825 42.72
86.0976 1893 43.5086
86.2145 1996 44.6766
86.3315 1949 44.1475
86.4484 1990 44.6094
86.5652 1962 44.2945
86.682 1957 44.238
86.7988 2061 45.3982
86.9156 1944 44.0908
87.0323 2022 44.9667
87.149 1890 43.4741
87.2657 1742 41.7373
87.3823 1503 38.7685
87.4988 1431 37.8286
87.6154 1347 36.7015
87.7318 1436 37.8946
87.8483 1470 38.3406
87.9647 1527 39.0768
88.081 1552 39.3954
88.1973 1525 39.0512
88.3136 1489 38.5876
88.4298 1393 37.3229
88.546 1296 36
88.6621 1144 33.8231
88.7781 864 29.3939
88.8942 0 1
89.0101 0 1
89.126 0 1
89.2419 0 1
89.3577 0 1
89.4734 0 1
89.5891 0 1
89.7047 0 1
89.8203 0 1
89.9358 0 1
92.3269 0 1
92.4424 0 1
92.558 0 1
92.6736 0 1
92.7893 0 1
92.905 0 1
93.0208 0 1
93.1366 0 1
93.2525 0 1
93.3685 0 1
93.4845 0 1
93.6005 1492 38.6264
93.7167 1619 40.2368
93.8328 1565 39.5601
93.949 1757 41.9166
94.0653 1716 41.4246
94.1816 1677 40.9512
94.2979 1620 40.2492
94.4143 1570 39.6232
94.5307 1439 37.9342
94.6472 1416 37.6298
94.7637 1452 38.1051
94.8803 1694 41.1582
94.9969 1714 41.4005
95.1135 1779 42.1782
95.2302 1872 43.2666
95.3469 1961 44.2832
95.4637 2048 45.2548
95.5805 1983 44.5309
95.6973 2031 45.0666
95.8142 2110 45.9347
95.9311 2064 45.4313
96.048 2005 44.7772
96.1649 1961 44.2832
96.2819 1958 44.2493
96.3989 1813 42.5793
96.516 1824 42.7083
96.633 1632 40.398
96.7501 1669 40.8534
96.8673 1678 40.9634
96.9844 1782 42.2137
97.1016 1824 42.7083
97.2188 1974 44.4297
97.336 2044 45.2106
97.4532 2113 45.9674
97.5704 2049 45.2659
97.6877 2149 46.3573
97.805 2006 44.7884
97.9223 1745 41.7732
98.0396 1747 41.7971
98.1569 1570 39.6232
98.2743 1377 37.108
98.3916 1510 38.8587
98.509 1628 40.3485
98.6264 1805 42.4853
98.7438 1926 43.8862
98.8612 2012 44.8553
98.9786 2119 46.0326
99.096 2023 44.9778
99.2134 2131 46.1628
99.3308 2163 46.5081
99.4482 2127 46.1194
99.5656 2082 45.6289
99.6831 2036 45.1221
99.8005 2082 45.6289
99.9179 2101 45.8367
100.035 2059 45.3762
100.153 1838 42.8719
100.27 1753 41.8688
100.388 1770 42.0714
100.505 1829 42.7668
100.622 2012 44.8553
100.74 2088 45.6946
100.857 2137 46.2277
100.975 2185 46.744
101.092 2197 46.8722
101.209 2199 46.8935
101.327 2198 46.8828
101.444 2008 44.8107
101.561 1948 44.1362
101.679 1714 41.4005
101.796 1597 39.9625
101.913 1439 37.9342
102.03 1505 38.7943
102.148 1773 42.107
102.265 1805 42.4853
102.382 1970 44.3847
102.499 2114 45.9783
102.616 2209 47
102.733 2275 47.697
102.851 2272 47.6655
102.968 2264 47.5815
103.085 2274 47.6865
103.202 2178 46.669
103.319 2154 46.4112
103.436 2171 46.594
103.552 2122 46.0652
103.669 2012 44.8553
103.786 1857 43.0929
103.903 1887 43.4396
104.02 1986 44.5646
104.137 2019 44.9333
104.253 2084 45.6508
104.37 2331 48.2804
104.487 2334 48.3115
104.603 2320 48.1664
104.72 2294 47.8957
104.836 2083 45.6399
104.953 1951 44.1701
105.069 1796 42.3792
105.186 1573 39.6611
105.302 1400 37.4166
105.418 1343 36.647
105.535 1368 36.9865
105.651 1418 37.6563
105.767 1393 37.3229
105.883 1351 36.756
105.999 1273 35.6791
106.115 0 1
106.231 0 1
106.347 0 1
106.463 0 1
106.579 0 1
106.694 0 1
106.81 0 1
106.926 0 1
107.041 0 1
107.157 0 1
109.576 0 1
109.692 0 1
109.807 0 1
109.923 0 1
110.039 0 1
110.155 0 1
110.27 0 1
110.386 0 1
110.502 0 1
110.618 936 30.5941
110.735 1226 35.0143
110.851 1452 38.1051
110.967 1586 39.8246
111.083 1705 41.2916
111.199 1826 42.7317
111.316 1986 44.5646
111.432 2046 45.2327
111.549 2125 46.0977
111.665 2090 45.7165
111.782 2072 45.5192
111.898 2149 46.3573
112.015 1915 43.7607
112.132 1925 43.8748
112.248 1888 43.4511
112.365 1790 42.3084
112.482 1738 41.6893
112.599 1865 43.1856
112.716 1967 44.3509
112.832 2116 46
112.949 2118 46.0217
113.066 2161 46.4866
113.183 2208 46.9894
113.3 2039 45.1553
113.417 2150 46.3681
113.534 1885 43.4166
113.652 1740 41.7133
113.769 1644 40.5463
113.886 1494 38.6523
114.003 1502 38.7556
114.12 1568 39.598
114.238 1718 41.4488
114.355 1950 44.1588
114.472 1867 43.2088
114.589 2065 45.4423
114.707 2124 46.0869
114.824 2119 46.0326
114.942 2123 46.076
115.059 2074 45.5412
115.176 2168 46.5618
115.294 2108 45.913
115.411 2088 45.6946
115.529 2067 45.4643
115.646 2034 45.0999
115.764 1898 43.566
115.881 1777 42.1545
115.999 1780 42.19
116.116 1752 41.8569
116.234 1878 43.3359
116.351 2014 44.8776
116.469 2147 46.3357
116.586 2186 46.7547
116.704 2120 46.0435
116.821 2155 46.422
116.939 2139 46.2493
117.056 2155 46.422
117.174 2015 44.8888
117.291 1739 41.7013
117.409 1568 39.598
117.526 1496 38.6782
117.644 1424 37.7359
117.761 1606 40.0749
117.879 1733 41.6293
117.996 1825 42.72
118.114 1926 43.8862
118.231 2093 45.7493
118.349 2008 44.8107
118.466 2131 46.1628
118.584 1983 44.5309
118.701 2051 45.288
118.819 2061 45.3982
118.936 2053 45.31
119.053 1955 44.2154
119.171 2025 45
119.288 1909 43.6921
119.405 1851 43.0232
119.523 1728 41.5692
119.64 1751 41.845
119.757 1728 41.5692
119.875 1810 42.5441
119.992 1884 43.4051
120.109 2023 44.9778
120.226 1988 44.587
120.343 1869 43.2319
120.46 1978 44.4747
120.578 2042 45.1885
120.695 1907 43.6692
120.812 1864 43.1741
120.929 1661 40.7554
121.046 1464 38.2623
121.163 1444 38
121.279 1418 37.6563
121.396 1471 38.3536
121.513 1553 39.4081
121.63 1546 39.3192
121.747 1557 39.4588
121.863 1558 39.4715
121.98 1590 39.8748
122.097 1566 39.5727
122.213 1576 39.6989
122.33 1594 39.9249
122.446 1506 38.8072
122.563 1384 37.2022
122.679 1281 35.7911
122.795 1263 35.5387
122.912 1118 33.4365
123.028 987 31.4166
123.144 871 29.5127
123.26 800 28.2843
123.377 0 1
123.493 0 1
123.609 0 1
123.725 0 1
123.84 0 1
123.956 0 1
124.072 0 1
124.188 0 1
124.303 0 1
124.419 0 1
126.852 0 1
126.968 0 1
127.083 0 1
127.199 0 1
127.315 0 1
127.431 0 1
127.547 0 1
127.663 0 1
127.779 0 1
127.895 0 1
128.011 0 1
128.127 0 1
128.243 0 1
128.359 1804 42.4735
128.476 1939 44.0341
128.592 1854 43.0581
128.708 1901 43.6005
128.825 1936 44
128.941 2033 45.0888
129.058 2118 46.0217
129.174 2290 47.8539
129.291 2162 46.4973
129.408 2090 45.7165
129.524 2176 46.6476
129.641 2148 46.3465
129.758 2056 45.3431
129.875 2005 44.7772
129.992 1839 42.8836
130.108 1707 41.3159
130.225 1599 39.9875
130.342 1669 40.8534
130.459 1643 40.5339
130.576 1835 42.8369
130.693 1854 43.0581
130.81 2063 45.4203
130.928 2021 44.9555
131.045 2018 44.9222
131.162 2199 46.8935
131.279 2071 45.5082
131.396 2165 46.5296
131.513 2235 47.2758
131.631 2166 46.5403
131.748 2204 46.9468
131.865 2096 45.7821
131.983 2005 44.7772
132.1 1970 44.3847
132.217 1931 43.9431
132.335 1957 44.238
132.452 2075 45.5522
132.57 2086 45.6727
132.687 2204 46.9468
132.804 2167 46.551
132.922 2237 47.2969
133.039 2227 47.1911
133.157 2265 47.592
133.274 2194 46.8402
133.392 2037 45.1331
133.509 1874 43.2897
133.627 1808 42.5206
133.744 1719 41.4608
133.862 1622 40.2741
133.979 1679 40.9756
134.097 1795 42.3674
134.214 1948 44.1362
134.332 1967 44.3509
134.449 2095 45.7712
134.567 2130 46.1519
134.684 2171 46.594
134.802 2250 47.4342
134.919 2222 47.1381
135.037 2154 46.4112
135.154 2124 46.0869
135.272 2178 46.669
135.389 2140 46.2601
135.507 2016 44.8999
135.624 2025 45
135.742 1899 43.5775
135.859 1927 43.8976
135.977 1900 43.589
136.094 2012 44.8553
136.211 2155 46.422
136.329 2123 46.076
136.446 2218 47.0956
136.564 2235 47.2758
136.681 2235 47.2758
136.798 2212 47.0319
136.915 2179 46.6798
137.033 2083 45.6399
137.15 1960 44.2719
137.267 1758 41.9285
137.384 1641 40.5093
137.502 1611 40.1373
137.619 1726 41.5452
137.736 1699 41.2189
137.853 1768 42.0476
137.97 1987 44.5758
138.087 2079 45.5961
138.204 2076 45.5631
138.321 2096 45.7821
138.438 2201 46.9148
138.555 2124 46.0869
138.672 2102 45.8476
138.788 2144 46.3033
138.905 1893 43.5086
139.022 1914 43.7493
139.139 1809 42.5323
139.255 1672 40.8901
139.372 1534 39.1663
139.488 1467 38.3014
139.605 1464 38.2623
139.721 1464 38.2623
139.838 1376 37.0945
139.954 1449 38.0657
140.071 1336 36.5513
140.187 1208 34.7563
140.303 1150 33.9116
140.419 1099 33.1512
140.535 1068 32.6803
140.652 928 30.4631
140.768 0 1
140.884 0 1
141 0 1
141.115 0 1
141.231 0 1
141.347 0 1
141.463 0 1
141.578 0 1
141.694 0 1
144.104 0 1
144.219 0 1
144.335 0 1
144.45 0 1
144.566 0 1
144.682 0 1
144.798 0 1
144.914 0 1
145.03 0 1
145.146 1576 39.6989
145.262 1627 40.3361
145.378 1699 41.2189
145.494 1746 41.7852
145.61 1667 40.8289
145.726 1664 40.7922
145.842 1680 40.9878
145.959 1540 39.2428
146.075 1398 37.3898
146.192 1283 35.819
146.308 1426 37.7624
146.425 1355 36.8103
146.541 1467 38.3014
146.658 1486 38.5487
146.774 1525 39.0512
146.891 1613 40.1622
147.008 1675 40.9268
147.125 1630 40.3733
147.241 1712 41.3763
147.358 1770 42.0714
147.475 1600 40
147.592 1694 41.1582
147.709 1658 40.7185
147.826 1641 40.5093
147.943 1534 39.1663
148.06 1602 40.025
148.177 1484 38.5227
148.294 1574 39.6737
148.411 1524 39.0384
148.528 1558 39.4715
148.645 1634 40.4228
148.762 1658 40.7185
148.88 1716 41.4246
148.997 1779 42.1782
149.114 1754 41.8808
149.231 1719 41.4608
149.349 1759 41.9404
149.466 1626 40.3237
149.583 1521 39
149.701 1427 37.7757
149.818 1403 37.4566
149.935 1329 36.4555
150.053 1355 36.8103
150.17 1379 37.1349
150.287 1472 38.3667
150.405 1532 39.1408
150.522 1496 38.6782
150.64 1572 39.6485
150.757 1628 40.3485
150.875 1594 39.9249
150.992 1681 41
151.11 1613 40.1622
151.227 1623 40.2865
151.344 1608 40.0999
151.462 1570 39.6232
151.579 1543 39.281
151.697 1498 38.704
151.814 1478 38.4448
151.932 1428 37.7889
152.049 1430 37.8153
152.167 1637 40.4599
152.284 1647 40.5832
152.402 1557 39.4588
152.519 1684 41.0366
152.636 1645 40.5586
152.754 1657 40.7063
152.871 1676 40.939
152.989 1511 38.8716
153.106 1582 39.7744
153.223 1420 37.6829
153.341 1356 36.8239
153.458 1395 37.3497
153.575 1217 34.8855
153.693 1326 36.4143
153.81 1419 37.6696
153.927 1459 38.1969
154.044 1499 38.7169
154.162 1530 39.1152
154.279 1485 38.5357
154.396 1467 38.3014
154.513 1578 39.724
154.63 1525 39.0512
154.747 1589 39.8623
154.864 1545 39.3065
154.981 1486 38.5487
155.098 1502 38.7556
155.215 1492 38.6264
155.332 1357 36.8375
155.449 1293 35.9583
155.566 1383 37.1887
155.683 1432 37.8418
155.8 1385 37.2156
155.917 1427 37.7757
156.033 1409 37.5366
156.15 0 1
156.267 0 1
156.383 0 1
156.5 0 1
156.617 0 1
156.733 0 1
156.85 0 1
156.966 0 1
157.082 0 1
157.199 0 1
157.315 0 1
157.431 0 1
157.547 0 1
157.664 0 1
157.78 0 1
157.896 0 1
158.012 0 1
158.128 0 1
158.244 0 1
158.359 0 1
158.475 0 1
158.591 0 1
158.706 0 1
