
6.15755 0 1
6.2731 0 1
6.3887 0 1
6.50437 0 1
6.62009 0 1
6.73587 0 1
6.8517 0 1
6.96759 0 1
7.08353 0 1
7.19952 0 1
7.31557 0 1
7.43166 0 1
7.54781 0 1
7.664 0 1
7.78024 0 1
7.89653 0 1
8.01286 0 1
8.12924 0 1
8.24567 0 1
8.36213 0 1
8.47864 0 1
8.59519 0 1
8.71178 0 1
8.82841 0 1
8.94508 0 1
9.06179 0 1
9.17853 0 1
9.29531 0 1
9.41212 0 1
9.52897 0 1
9.64584 0 1
9.76276 0 1
9.8797 0 1
9.99667 0 1
10.1137 0 1
10.2307 0 1
10.3478 0 1
10.4648 0 1
10.5819 0 1
10.6991 0 1
10.8162 0 1
10.9334 0 1
11.0506 0 1
11.1678 0 1
11.285 0 1
11.4023 0 1
11.5196 0 1
11.6369 0 1
11.7542 0 1
11.8715 0 1
11.9888 0 1
12.1062 0 1
12.2235 0 1
12.3409 0 1
12.4582 0 1
12.5756 0 1
12.693 0 1
12.8104 0 1
12.9278 0 1
13.0452 0 1
13.1626 0 1
13.28 0 1
13.3974 0 1
13.5149 0 1
13.6323 0 1
13.7497 0 1
13.8671 0 1
13.9845 0 1
14.1019 0 1
14.2193 0 1
14.3367 0 1
14.4541 0 1
14.5714 0 1
14.6888 0 1
14.8062 0 1
14.9235 0 1
15.0408 896 29.9333
15.1581 898 29.9666
15.2755 968 31.1127
15.3927 965 31.0644
15.51 980 31.305
15.6273 1000 31.6228
15.7445 939 30.6431
15.8617 971 31.1609
15.9789 969 31.1288
16.0961 914 30.2324
16.2132 973 31.1929
16.3304 983 31.3528
16.4475 1018 31.9061
16.5646 1077 32.8177
16.6816 1013 31.8277
16.7986 1130 33.6155
16.9156 1146 33.8526
17.0326 1177 34.3074
17.1496 1119 33.4515
17.2665 1160 34.0588
17.3833 1141 33.7787
17.5002 1136 33.7046
17.617 1066 32.6497
17.7338 1011 31.7962
17.8505 963 31.0322
17.9672 1011 31.7962
18.0839 1000 31.6228
18.2005 1073 32.7567
18.3171 1056 32.4962
18.4337 1051 32.4191
18.5502 1119 33.4515
18.6666 1067 32.665
18.7831 1076 32.8024
18.8994 1139 33.7491
19.0158 1090 33.0151
19.1321 1083 32.909
19.2483 987 31.4166
19.3645 962 31.0161
19.4806 907 30.1164
19.5967 853 29.2062
19.7128 795 28.1957
19.8288 715 26.7395
19.9447 687 26.2107
20.0606 0 1
20.1764 0 1
20.2922 0 1
20.4079 0 1
20.5236 0 1
20.6392 0 1
20.7548 0 1
20.8702 0 1
23.3078 0 1
23.4233 0 1
23.539 0 1
23.6547 0 1
23.7704 0 1
23.8862 0 1
24.0021 0 1
24.118 0 1
24.234 0 1
24.35 0 1
24.4661 532 23.0651
24.5822 520 22.8035
24.6984 639 25.2784
24.8146 634 25.1794
24.9309 767 27.6948
25.0472 785 28.0179
25.1636 865 29.4109
25.28 949 30.8058
25.3965 984 31.3688
25.513 1099 33.1512
25.6296 1174 34.2637
25.7462 1164 34.1174
25.8628 1184 34.4093
25.9795 1179 34.3366
26.0962 1229 35.0571
26.213 1139 33.7491
26.3298 1110 33.3167
26.4466 1065 32.6343
26.5635 1101 33.1813
26.6804 1060 32.5576
26.7973 1077 32.8177
26.9143 1088 32.9848
27.0313 1103 33.2114
27.1483 1110 33.3167
27.2653 1129 33.6006
27.3824 1217 34.8855
27.4996 1165 34.1321
27.6167 1166 34.1467
27.7339 1151 33.9264
27.8511 1091 33.0303
27.9683 1073 32.7567
28.0855 1082 32.8938
28.2028 1025 32.0156
28.3201 1025 32.0156
28.4374 925 30.4138
28.5547 990 31.4643
28.6721 974 31.209
28.7894 1057 32.5115
28.9068 1077 32.8177
29.0242 1115 33.3916
29.1416 1189 34.4819
29.259 1161 34.0735
29.3764 1167 34.1614
29.4939 1167 34.1614
29.6113 1203 34.6843
29.7288 1073 32.7567
29.8463 1030 32.0936
29.9638 1050 32.4037
30.0812 992 31.496
30.1987 991 31.4802
30.3162 981 31.3209
30.4337 1147 33.8674
30.5512 1076 32.8024
30.6687 1041 32.2645
30.7862 1080 32.8634
30.9037 1108 33.2866
31.0212 1170 34.2053
31.1387 1137 33.7194
31.2562 1094 33.0757
31.3737 1081 32.8786
31.4912 1050 32.4037
31.6087 1019 31.9218
31.7262 938 30.6268
31.8436 924 30.3974
31.9611 946 30.7571
32.0785 982 31.3369
32.1959 970 31.1448
32.3134 998 31.5911
32.4308 1063 32.6037
32.5482 1071 32.7261
32.6655 1041 32.2645
32.7829 1136 33.7046
32.9002 1078 32.8329
33.0176 1189 34.4819
33.1349 1129 33.6006
33.2522 1144 33.8231
33.3694 1056 32.4962
33.4867 1057 32.5115
33.6039 1005 31.7017
33.7211 934 30.5614
33.8383 923 30.3809
33.9554 965 31.0644
34.0725 928 30.4631
34.1896 1019 31.9218
34.3067 1032 32.1248
34.4237 1030 32.0936
34.5407 1024 32
34.6577 1121 33.4813
34.7746 1064 32.619
34.8915 1094 33.0757
35.0084 1050 32.4037
35.1252 1039 32.2335
35.242 960 30.9839
35.3587 919 30.315
35.4755 910 30.1662
35.5921 918 30.2985
35.7088 895 29.9166
35.8254 914 30.2324
35.9419 902 30.0333
36.0584 974 31.209
36.1749 944 30.7246
36.2913 1015 31.8591
36.4077 1028 32.0624
36.524 915 30.249
36.6403 901 30.0167
36.7565 923 30.3809
36.8727 856 29.2575
36.9889 860 29.3258
37.1049 737 27.1477
37.221 0 1
37.3369 0 1
37.4529 0 1
37.5687 0 1
37.6845 0 1
37.8003 0 1
37.916 0 1
38.0316 0 1
38.1472 0 1
40.5851 0 1
40.7008 0 1
40.8164 0 1
40.9322 0 1
41.048 0 1
41.1639 0 1
41.2798 0 1
41.3958 0 1
41.5118 0 1
41.6279 0 1
41.744 508 22.5389
41.8602 544 23.3238
41.9765 588 24.2487
42.0928 611 24.7184
42.2091 615 24.7992
42.3255 599 24.4745
42.4419 620 24.8998
42.5584 598 24.454
42.675 644 25.3772
42.7915 675 25.9808
42.9081 802 28.3196
43.0248 826 28.7402
43.1415 857 29.2746
43.2582 799 28.2666
43.375 864 29.3939
43.4918 948 30.7896
43.6087 891 29.8496
43.7256 893 29.8831
43.8425 833 28.8617
43.9595 858 29.2916
44.0765 868 29.4618
44.1935 782 27.9643
44.3106 740 27.2029
44.4277 717 26.7769
44.5448 703 26.5141
44.6619 744 27.2764
44.7791 815 28.5482
44.8963 811 28.4781
45.0136 869 29.4788
45.1308 934 30.5614
45.2481 921 30.348
45.3654 887 29.7825
45.4827 884 29.7321
45.6001 938 30.6268
45.7174 810 28.4605
45.8348 850 29.1548
45.9522 762 27.6043
46.0697 746 27.313
46.1871 744 27.2764
46.3046 727 26.9629
46.422 791 28.1247
46.5395 866 29.4279
46.657 852 29.189
46.7745 889 29.8161
46.892 913 30.2159
47.0096 858 29.2916
47.1271 903 30.05
47.2446 915 30.249
47.3622 903 30.05
47.4797 902 30.0333
47.5973 864 29.3939
47.7149 852 29.189
47.8324 793 28.1603
47.95 778 27.8927
48.0675 746 27.313
48.1851 686 26.1916
48.3027 803 28.3373
48.4202 790 28.1069
48.5378 828 28.775
48.6554 911 30.1828
48.7729 906 30.0998
48.8904 859 29.3087
49.008 943 30.7083
49.1255 894 29.8998
49.243 880 29.6648
49.3605 813 28.5132
49.478 794 28.178
49.5955 762 27.6043
49.713 668 25.8457
49.8304 692 26.3059
49.9479 775 27.8388
50.0653 785 28.0179
50.1827 835 28.8964
50.3001 854 29.2233
50.4175 837 28.931
50.5348 940 30.6594
50.6521 933 30.545
50.7694 1006 31.7175
50.8867 986 31.4006
51.004 947 30.7734
51.1212 954 30.8869
51.2384 883 29.7153
51.3556 896 29.9333
51.4727 892 29.8664
51.5899 804 28.3549
51.707 859 29.3087
51.824 909 30.1496
51.9411 1023 31.9844
52.0581 1090 33.0151
52.175 1238 35.1852
52.2919 1147 33.8674
52.4088 1250 35.3553
52.5257 1216 34.8712
52.6425 1338 36.5787
52.7593 1281 35.7911
52.876 1311 36.2077
52.9927 1248 35.327
53.1094 1271 35.6511
53.226 1138 33.7343
53.3426 1134 33.6749
53.4591 1080 32.8634
53.5756 1146 33.8526
53.692 1113 33.3617
53.8084 1082 32.8938
53.9248 1103 33.2114
54.0411 1012 31.8119
54.1573 976 31.241
54.2735 0 1
54.3896 0 1
54.5057 0 1
54.6217 0 1
54.7377 0 1
54.8537 0 1
54.9695 0 1
55.0853 0 1
55.2011 0 1
55.3168 0 1
55.4324 0 1
57.824 0 1
57.9396 0 1
58.0553 0 1
58.1711 0 1
58.2869 0 1
58.4028 0 1
58.5187 0 1
58.6347 0 1
58.7508 0 1
58.8669 0 1
58.983 623 24.96
59.0992 757 27.5136
59.2155 833 28.8617
59.3318 926 30.4302
59.4482 944 30.7246
59.5646 972 31.1769
59.681 994 31.5278
59.7975 1039 32.2335
59.9141 1007 31.7333
60.0306 1026 32.0312
60.1473 926 30.4302
60.2639 905 30.0832
60.3807 962 31.0161
60.4974 944 30.7246
60.6142 975 31.225
60.731 990 31.4643
60.8479 1100 33.1662
60.9648 1064 32.619
61.0818 1096 33.1059
61.1987 1058 32.5269
61.3158 1065 32.6343
61.4328 1083 32.909
61.5499 1045 32.3265
61.667 944 30.7246
61.7841 852 29.189
61.9013 903 30.05
62.0185 853 29.2062
62.1357 966 31.0805
62.253 963 31.0322
62.3702 977 31.257
62.4875 1077 32.8177
62.6049 1097 33.121
62.7222 1080 32.8634
62.8396 1141 33.7787
62.9569 1136 33.7046
63.0743 1097 33.121
63.1918 1095 33.0908
63.3092 1084 32.9242
63.4267 1094 33.0757
63.5441 1049 32.3883
63.6616 1042 32.28
63.7791 920 30.3315
63.8966 874 29.5635
64.0142 933 30.545
64.1317 930 30.4959
64.2492 1004 31.686
64.3668 1083 32.909
64.4843 1070 32.7109
64.6019 1067 32.665
64.7195 1155 33.9853
64.837 1134 33.6749
64.9546 1062 32.5883
65.0722 1054 32.4654
65.1898 1066 32.6497
65.3074 874 29.5635
65.4249 876 29.5973
65.5425 841 29
65.6601 791 28.1247
65.7777 896 29.9333
65.8952 976 31.241
66.0128 1049 32.3883
66.1304 1088 32.9848
66.2479 1038 32.218
66.3655 1069 32.6956
66.483 1100 33.1662
66.6005 1049 32.3883
66.718 1107 33.2716
66.8355 1118 33.4365
66.953 1005 31.7017
67.0705 1018 31.9061
67.1879 1036 32.187
67.3054 986 31.4006
67.4228 913 30.2159
67.5402 827 28.7576
67.6576 839 28.9655
67.7749 906 30.0998
67.8923 993 31.5119
68.0096 1067 32.665
68.1269 1108 33.2866
68.2442 1027 32.0468
68.3614 1068 32.6803
68.4787 1089 33
68.5958 1088 32.9848
68.713 1006 31.7175
68.8302 1068 32.6803
68.9473 880 29.6648
69.0643 838 28.9482
69.1814 833 28.8617
69.2984 808 28.4253
69.4154 873 29.5466
69.5323 921 30.348
69.6492 927 30.4467
69.7661 958 30.9516
69.8829 1013 31.8277
69.9997 1037 32.2025
70.1165 1009 31.7648
70.2332 994 31.5278
70.3499 866 29.4279
70.4665 870 29.4958
70.5831 859 29.3087
70.6996 747 27.3313
70.8161 743 27.258
70.9326 630 25.0998
71.049 628 25.0599
71.1653 490 22.1359
71.2817 463 21.5174
71.3979 382 19.5448
71.5141 399 19.975
71.6303 377 19.4165
71.7464 344 18.5472
71.8624 0 1
71.9784 0 1
72.0944 0 1
72.2102 0 1
72.3261 0 1
72.4418 0 1
72.5575 0 1
72.6732 0 1
75.1054 0 1
75.2209 0 1
75.3365 0 1
75.4521 0 1
75.5678 0 1
75.6835 0 1
75.7993 0 1
75.9151 0 1
76.031 0 1
76.147 624 24.98
76.263 668 25.8457
76.3791 721 26.8514
76.4952 660 25.6905
76.6113 674 25.9615
76.7276 741 27.2213
76.8438 748 27.3496
76.9601 835 28.8964
77.0765 879 29.6479
77.1929 862 29.3598
77.3093 916 30.2655
77.4258 896 29.9333
77.5423 871 29.5127
77.6589 912 30.1993
77.7755 801 28.3019
77.8921 750 27.3861
78.0088 745 27.2947
78.1256 700 26.4575
78.2423 673 25.9422
78.3591 697 26.4008
78.4759 777 27.8747
78.5928 831 28.8271
78.7097 864 29.3939
78.8266 866 29.4279
78.9436 919 30.315
79.0606 900 30
79.1776 914 30.2324
79.2946 957 30.9354
79.4117 949 30.8058
79.5288 886 29.7658
79.6459 877 29.6142
79.7631 836 28.9137
79.8802 844 29.0517
79.9974 850 29.1548
80.1147 774 27.8209
80.2319 703 26.5141
80.3491 739 27.1846
80.4664 794 28.178
80.5837 876 29.5973
80.701 900 30
80.8183 964 31.0483
80.9357 930 30.4959
81.053 961 31
81.1704 991 31.4802
81.2877 990 31.4643
81.4051 935 30.5778
81.5225 868 29.4618
81.6399 798 28.2489
81.7573 785 28.0179
81.8747 740 27.2029
81.9922 655 25.593
82.1096 756 27.4955
82.227 817 28.5832
82.3444 856 29.2575
82.4619 889 29.8161
82.5793 957 30.9354
82.6967 959 30.9677
82.8142 946 30.7571
82.9316 1020 31.9374
83.049 995 31.5436
83.1664 997 31.5753
83.2838 934 30.5614
83.4012 953 30.8707
83.5186 902 30.0333
83.636 865 29.4109
83.7534 831 28.8271
83.8708 752 27.4226
83.9881 701 26.4764
84.1055 827 28.7576
84.2228 844 29.0517
84.3401 912 30.1993
84.4575 978 31.273
84.5747 957 30.9354
84.692 934 30.5614
84.8093 1022 31.9687
84.9265 1037 32.2025
85.0437 948 30.7896
85.1609 818 28.6007
85.2781 753 27.4408
85.3952 724 26.9072
85.5123 716 26.7582
85.6294 671 25.9037
85.7465 806 28.3901
85.8636 824 28.7054
85.9806 886 29.7658
86.0976 958 30.9516
86.2145 848 29.1204
86.3315 974 31.209
86.4484 1005 31.7017
86.5652 950 30.8221
86.682 980 31.305
86.7988 1003 31.6702
86.9156 989 31.4484
87.0323 958 30.9516
87.149 902 30.0333
87.2657 896 29.9333
87.3823 791 28.1247
87.4988 748 27.3496
87.6154 692 26.3059
87.7318 656 25.6125
87.8483 708 26.6083
87.9647 724 26.9072
88.081 748 27.3496
88.1973 802 28.3196
88.3136 791 28.1247
88.4298 740 27.2029
88.546 677 26.0192
88.6621 573 23.9374
88.7781 474 21.7715
88.8942 0 1
89.0101 0 1
89.126 0 1
89.2419 0 1
89.3577 0 1
89.4734 0 1
89.5891 0 1
89.7047 0 1
89.8203 0 1
89.9358 0 1
92.3269 0 1
92.4424 0 1
92.558 0 1
92.6736 0 1
92.7893 0 1
92.905 0 1
93.0208 0 1
93.1366 0 1
93.2525 0 1
93.3685 0 1
93.4845 0 1
93.6005 727 26.9629
93.7167 821 28.6531
93.8328 814 28.5307
93.949 878 29.6311
94.0653 899 29.9833
94.1816 870 29.4958
94.2979 849 29.1376
94.4143 806 28.3901
94.5307 770 27.7489
94.6472 717 26.7769
94.7637 770 27.7489
94.8803 782 27.9643
94.9969 850 29.1548
95.1135 886 29.7658
95.2302 980 31.305
95.3469 932 30.5287
95.4637 968 31.1127
95.5805 1025 32.0156
95.6973 964 31.0483
95.8142 1045 32.3265
95.9311 1000 31.6228
96.048 1015 31.8591
96.1649 983 31.3528
96.2819 948 30.7896
96.3989 909 30.1496
96.516 891 29.8496
96.633 856 29.2575
96.7501 784 28
96.8673 829 28.7924
96.9844 811 28.4781
97.1016 883 29.7153
97.2188 915 30.249
97.336 1003 31.6702
97.4532 1013 31.8277
97.5704 1027 32.0468
97.6877 969 31.1288
97.805 1015 31.8591
97.9223 899 29.9833
98.0396 906 30.0998
98.1569 783 27.9821
98.2743 752 27.4226
98.3916 735 27.1109
98.509 733 27.074
98.6264 857 29.2746
98.7438 910 30.1662
98.8612 949 30.8058
98.9786 969 31.1288
99.096 1046 32.3419
99.2134 1030 32.0936
99.3308 1016 31.8748
99.4482 1071 32.7261
99.5656 1060 32.5576
99.6831 1046 32.3419
99.8005 1027 32.0468
99.9179 1057 32.5115
100.035 998 31.5911
100.153 916 30.2655
100.27 864 29.3939
100.388 835 28.8964
100.505 898 29.9666
100.622 982 31.3369
100.74 992 31.496
100.857 1049 32.3883
100.975 1092 33.0454
101.092 1119 33.4515
101.209 1120 33.4664
101.327 1067 32.665
101.444 1014 31.8434
101.561 990 31.4643
101.679 857 29.2746
101.796 748 27.3496
101.913 769 27.7308
102.03 827 28.7576
102.148 891 29.8496
102.265 955 30.9031
102.382 996 31.5595
102.499 1016 31.8748
102.616 1074 32.7719
102.733 1073 32.7567
102.851 1097 33.121
102.968 1118 33.4365
103.085 1154 33.9706
103.202 1153 33.9559
103.319 1065 32.6343
103.436 1113 33.3617
103.552 1106 33.2566
103.669 990 31.4643
103.786 937 30.6105
103.903 943 30.7083
104.02 855 29.2404
104.137 979 31.289
104.253 1072 32.7414
104.37 1160 34.0588
104.487 1163 34.1028
104.603 1139 33.7491
104.72 1143 33.8083
104.836 1096 33.1059
104.953 937 30.6105
105.069 873 29.5466
105.186 759 27.55
105.302 765 27.6586
105.418 677 26.0192
105.535 674 25.9615
105.651 721 26.8514
105.767 764 27.6405
105.883 730 27.0185
105.999 646 25.4165
106.115 0 1
106.231 0 1
106.347 0 1
106.463 0 1
106.579 0 1
106.694 0 1
106.81 0 1
106.926 0 1
107.041 0 1
107.157 0 1
109.576 0 1
109.692 0 1
109.807 0 1
109.923 0 1
110.039 0 1
110.155 0 1
110.27 0 1
110.386 0 1
110.502 0 1
110.618 404 20.0998
110.735 634 25.1794
110.851 660 25.6905
110.967 817 28.5832
111.083 879 29.6479
111.199 875 29.5804
111.316 960 30.9839
111.432 1013 31.8277
111.549 1031 32.1092
111.665 1081 32.8786
111.782 1019 31.9218
111.898 984 31.3688
112.015 992 31.496
112.132 977 31.257
112.248 940 30.6594
112.365 816 28.5657
112.482 845 29.0689
112.599 922 30.3645
112.716 992 31.496
112.832 1071 32.7261
112.949 1046 32.3419
113.066 1044 32.311
113.183 1034 32.1559
113.3 1052 32.4345
113.417 1105 33.2415
113.534 1044 32.311
113.652 927 30.4467
113.769 879 29.6479
113.886 795 28.1957
114.003 786 28.0357
114.12 788 28.0713
114.238 867 29.4449
114.355 1000 31.6228
114.472 962 31.0161
114.589 1156 34
114.707 1060 32.5576
114.824 1112 33.3467
114.942 1114 33.3766
115.059 1100 33.1662
115.176 1109 33.3017
115.294 1104 33.2265
115.411 1082 32.8938
115.529 1081 32.8786
115.646 1054 32.4654
115.764 1036 32.187
115.881 974 31.209
115.999 899 29.9833
116.116 896 29.9333
116.234 984 31.3688
116.351 1038 32.218
116.469 1079 32.8481
116.586 1146 33.8526
116.704 1140 33.7639
116.821 1092 33.0454
116.939 1078 32.8329
117.056 1099 33.1512
117.174 995 31.5436
117.291 885 29.7489
117.409 891 29.8496
117.526 798 28.2489
117.644 799 28.2666
117.761 879 29.6479
117.879 901 30.0167
117.996 973 31.1929
118.114 988 31.4325
118.231 1035 32.1714
118.349 1034 32.1559
118.466 1043 32.2955
118.584 1049 32.3883
118.701 1077 32.8177
118.819 1048 32.3728
118.936 996 31.5595
119.053 978 31.273
119.171 998 31.5911
119.288 918 30.2985
119.405 895 29.9166
119.523 851 29.1719
119.64 824 28.7054
119.757 865 29.4109
119.875 889 29.8161
119.992 934 30.5614
120.109 955 30.9031
120.226 956 30.9192
120.343 979 31.289
120.46 974 31.209
120.578 987 31.4166
120.695 995 31.5436
120.812 909 30.1496
120.929 917 30.282
121.046 778 27.8927
121.163 740 27.2029
121.279 692 26.3059
121.396 694 26.3439
121.513 739 27.1846
121.63 763 27.6225
121.747 815 28.5482
121.863 811 28.4781
121.98 810 28.4605
122.097 819 28.6182
122.213 782 27.9643
122.33 772 27.7849
122.446 737 27.1477
122.563 700 26.4575
122.679 702 26.4953
122.795 627 25.04
122.912 619 24.8797
123.028 475 21.7945
123.144 414 20.347
123.26 362 19.0263
123.377 0 1
123.493 0 1
123.609 0 1
123.725 0 1
123.84 0 1
123.956 0 1
124.072 0 1
124.188 0 1
124.303 0 1
124.419 0 1
126.852 0 1
126.968 0 1
127.083 0 1
127.199 0 1
127.315 0 1
127.431 0 1
127.547 0 1
127.663 0 1
127.779 0 1
127.895 0 1
128.011 0 1
128.127 0 1
128.243 0 1
128.359 1014 31.8434
128.476 961 31
128.592 914 30.2324
128.708 915 30.249
128.825 890 29.8329
128.941 952 30.8545
129.058 1003 31.6702
129.174 1042 32.28
129.291 1082 32.8938
129.408 1087 32.9697
129.524 1062 32.5883
129.641 1108 33.2866
129.758 1045 32.3265
129.875 1017 31.8904
129.992 875 29.5804
130.108 889 29.8161
130.225 823 28.688
130.342 794 28.178
130.459 803 28.3373
130.576 922 30.3645
130.693 918 30.2985
130.81 962 31.0161
130.928 1020 31.9374
131.045 983 31.3528
131.162 1098 33.1361
131.279 1072 32.7414
131.396 1044 32.311
131.513 1029 32.078
131.631 1025 32.0156
131.748 1098 33.1361
131.865 993 31.5119
131.983 955 30.9031
132.1 988 31.4325
132.217 888 29.7993
132.335 905 30.0832
132.452 908 30.133
132.57 988 31.4325
132.687 1063 32.6037
132.804 1102 33.1964
132.922 1046 32.3419
133.039 1067 32.665
133.157 1131 33.6303
133.274 1103 33.2114
133.392 1007 31.7333
133.509 973 31.1929
133.627 959 30.9677
133.744 842 29.0172
133.862 796 28.2135
133.979 839 28.9655
134.097 907 30.1164
134.214 976 31.241
134.332 964 31.0483
134.449 1049 32.3883
134.567 1029 32.078
134.684 1021 31.9531
134.802 1092 33.0454
134.919 1048 32.3728
135.037 1109 33.3017
135.154 1148 33.8821
135.272 1047 32.3574
135.389 1063 32.6037
135.507 998 31.5911
135.624 959 30.9677
135.742 934 30.5614
135.859 880 29.6648
135.977 977 31.257
136.094 953 30.8707
136.211 1042 32.28
136.329 1075 32.7872
136.446 1174 34.2637
136.564 1114 33.3766
136.681 1157 34.0147
136.798 1062 32.5883
136.915 1068 32.6803
137.033 1040 32.249
137.15 972 31.1769
137.267 936 30.5941
137.384 844 29.0517
137.502 855 29.2404
137.619 816 28.5657
137.736 923 30.3809
137.853 977 31.257
137.97 1001 31.6386
138.087 995 31.5436
138.204 1011 31.7962
138.321 1046 32.3419
138.438 1082 32.8938
138.555 1111 33.3317
138.672 1066 32.6497
138.788 997 31.5753
138.905 1004 31.686
139.022 928 30.4631
139.139 911 30.1828
139.255 850 29.1548
139.372 755 27.4773
139.488 726 26.9444
139.605 720 26.8328
139.721 736 27.1293
139.838 700 26.4575
139.954 704 26.533
140.071 683 26.1343
140.187 659 25.671
140.303 604 24.5764
140.419 576 24
140.535 522 22.8473
140.652 501 22.383
140.768 0 1
140.884 0 1
141 0 1
141.115 0 1
141.231 0 1
141.347 0 1
141.463 0 1
141.578 0 1
141.694 0 1
144.104 0 1
144.219 0 1
144.335 0 1
144.45 0 1
144.566 0 1
144.682 0 1
144.798 0 1
144.914 0 1
145.03 0 1
145.146 761 27.5862
145.262 820 28.6356
145.378 863 29.3769
145.494 880 29.6648
145.61 814 28.5307
145.726 853 29.2062
145.842 894 29.8998
145.959 822 28.6705
146.075 742 27.2397
146.192 687 26.2107
146.308 660 25.6905
146.425 658 25.6515
146.541 740 27.2029
146.658 757 27.5136
146.774 746 27.313
146.891 770 27.7489
147.008 768 27.7128
147.125 884 29.7321
147.241 869 29.4788
147.358 888 29.7993
147.475 819 28.6182
147.592 862 29.3598
147.709 825 28.7228
147.826 817 28.5832
147.943 782 27.9643
148.06 766 27.6767
148.177 702 26.4953
148.294 723 26.8887
148.411 721 26.8514
148.528 772 27.7849
148.645 828 28.775
148.762 796 28.2135
148.88 840 28.9828
148.997 906 30.0998
149.114 888 29.7993
149.231 856 29.2575
149.349 856 29.2575
149.466 867 29.4449
149.583 825 28.7228
149.701 718 26.7955
149.818 663 25.7488
149.935 659 25.671
150.053 666 25.807
150.17 704 26.533
150.287 712 26.6833
150.405 711 26.6646
150.522 819 28.6182
150.64 759 27.55
150.757 776 27.8568
150.875 788 28.0713
150.992 788 28.0713
151.11 779 27.9106
151.227 785 28.0179
151.344 785 28.0179
151.462 763 27.6225
151.579 785 28.0179
151.697 730 27.0185
151.814 733 27.074
151.932 691 26.2869
152.049 691 26.2869
152.167 717 26.7769
152.284 796 28.2135
152.402 776 27.8568
152.519 796 28.2135
152.636 770 27.7489
152.754 814 28.5307
152.871 813 28.5132
152.989 778 27.8927
153.106 724 26.9072
153.223 732 27.0555
153.341 675 25.9808
153.458 624 24.98
153.575 623 24.96
153.693 623 24.96
153.81 662 25.7294
153.927 656 25.6125
154.044 686 26.1916
154.162 736 27.1293
154.279 688 26.2298
154.396 701 26.4764
154.513 746 27.313
154.63 730 27.0185
154.747 765 27.6586
154.864 750 27.3861
154.981 722 26.8701
155.098 708 26.6083
155.215 719 26.8142
155.332 688 26.2298
155.449 667 25.8263
155.566 643 25.3574
155.683 629 25.0799
155.8 673 25.9422
155.917 691 26.2869
156.033 706 26.5707
156.15 0 1
156.267 0 1
156.383 0 1
156.5 0 1
156.617 0 1
156.733 0 1
156.85 0 1
156.966 0 1
157.082 0 1
157.199 0 1
157.315 0 1
157.431 0 1
157.547 0 1
157.664 0 1
157.78 0 1
157.896 0 1
158.012 0 1
158.128 0 1
158.244 0 1
158.359 0 1
158.475 0 1
158.591 0 1
158.706 0 1
