
6.15755 0 1
6.2731 0 1
6.3887 0 1
6.50437 0 1
6.62009 0 1
6.73587 0 1
6.8517 0 1
6.96759 0 1
7.08353 0 1
7.19952 0 1
7.31557 0 1
7.43166 0 1
7.54781 0 1
7.664 0 1
7.78024 0 1
7.89653 0 1
8.01286 0 1
8.12924 0 1
8.24567 0 1
8.36213 0 1
8.47864 0 1
8.59519 0 1
8.71178 0 1
8.82841 0 1
8.94508 0 1
9.06179 0 1
9.17853 0 1
9.29531 0 1
9.41212 0 1
9.52897 0 1
9.64584 0 1
9.76276 0 1
9.8797 0 1
9.99667 0 1
10.1137 0 1
10.2307 0 1
10.3478 0 1
10.4648 0 1
10.5819 0 1
10.6991 0 1
10.8162 0 1
10.9334 0 1
11.0506 0 1
11.1678 0 1
11.285 0 1
11.4023 0 1
11.5196 0 1
11.6369 0 1
11.7542 0 1
11.8715 0 1
11.9888 0 1
12.1062 0 1
12.2235 0 1
12.3409 0 1
12.4582 0 1
12.5756 0 1
12.693 0 1
12.8104 0 1
12.9278 0 1
13.0452 0 1
13.1626 0 1
13.28 0 1
13.3974 0 1
13.5149 0 1
13.6323 0 1
13.7497 0 1
13.8671 0 1
13.9845 0 1
14.1019 0 1
14.2193 0 1
14.3367 0 1
14.4541 0 1
14.5714 0 1
14.6888 0 1
14.8062 0 1
14.9235 0 1
15.0408 0 0
15.1581 0 0
15.2755 0 0
15.3927 0 0
15.51 0 0
15.6273 0 0
15.7445 0 0
15.8617 0 0
15.9789 0 0
16.0961 0 0
16.2132 0 0
16.3304 0 0
16.4475 0 0
16.5646 0 0
16.6816 0 0
16.7986 0 0
16.9156 0 0
17.0326 0 0
17.1496 0 0
17.2665 0 0
17.3833 0 0
17.5002 0 0
17.617 0 0
17.7338 0 0
17.8505 0 0
17.9672 0 0
18.0839 0 0
18.2005 0 0
18.3171 0 0
18.4337 0 0
18.5502 0 0
18.6666 0 0
18.7831 0 0
18.8994 0 0
19.0158 0 0
19.1321 0 0
19.2483 0 0
19.3645 0 0
19.4806 0 0
19.5967 0 0
19.7128 0 0
19.8288 0 0
19.9447 0 0
20.0606 0 1
20.1764 0 1
20.2922 0 1
20.4079 0 1
20.5236 0 1
20.6392 0 1
20.7548 0 1
20.8702 0 1
23.3078 0 1
23.4233 0 1
23.539 0 1
23.6547 0 1
23.7704 0 1
23.8862 0 1
24.0021 0 1
24.118 0 1
24.234 0 1
24.35 0 1
24.4661 1466 38.2884
24.5822 1426 37.7624
24.6984 1427 37.7757
24.8146 1464 38.2623
24.9309 1449 38.0657
25.0472 1490 38.6005
25.1636 1491 38.6135
25.28 1466 38.2884
25.3965 1397 37.3765
25.513 1423 37.7227
25.6296 1540 39.2428
25.7462 1503 38.7685
25.8628 1429 37.8021
25.9795 1562 39.5221
26.0962 1545 39.3065
26.213 1553 39.4081
26.3298 1484 38.5227
26.4466 1409 37.5366
26.5635 1396 37.3631
26.6804 1377 37.108
26.7973 1288 35.8887
26.9143 1382 37.1753
27.0313 1408 37.5233
27.1483 1403 37.4566
27.2653 1398 37.3898
27.3824 1453 38.1182
27.4996 1526 39.064
27.6167 1535 39.1791
27.7339 1458 38.1838
27.8511 1536 39.1918
27.9683 1466 38.2884
28.0855 1475 38.4057
28.2028 1424 37.7359
28.3201 1368 36.9865
28.4374 1454 38.1314
28.5547 1372 37.0405
28.6721 1409 37.5366
28.7894 1420 37.6829
28.9068 1401 37.4299
29.0242 1387 37.2424
29.1416 1379 37.1349
29.259 1326 36.4143
29.3764 1345 36.6742
29.4939 1372 37.0405
29.6113 1425 37.7492
29.7288 1347 36.7015
29.8463 1374 37.0675
29.9638 1365 36.9459
30.0812 1263 35.5387
30.1987 1220 34.9285
30.3162 1198 34.6121
30.4337 1169 34.1906
30.5512 1311 36.2077
30.6687 1278 35.7491
30.7862 1336 36.5513
30.9037 1389 37.2693
31.0212 1468 38.3145
31.1387 1436 37.8946
31.2562 1487 38.5616
31.3737 1402 37.4433
31.4912 1391 37.2961
31.6087 1485 38.5357
31.7262 1409 37.5366
31.8436 1327 36.428
31.9611 1343 36.647
32.0785 1366 36.9594
32.1959 1352 36.7696
32.3134 1317 36.2905
32.4308 1335 36.5377
32.5482 1314 36.2491
32.6655 1342 36.6333
32.7829 1270 35.6371
32.9002 1363 36.9188
33.0176 1324 36.3868
33.1349 1356 36.8239
33.2522 1414 37.6032
33.3694 1397 37.3765
33.4867 1379 37.1349
33.6039 1313 36.2353
33.7211 1269 35.623
33.8383 1172 34.2345
33.9554 1165 34.1321
34.0725 1165 34.1321
34.1896 1151 33.9264
34.3067 1250 35.3553
34.4237 1265 35.5668
34.5407 1361 36.8917
34.6577 1379 37.1349
34.7746 1393 37.3229
34.8915 1351 36.756
35.0084 1335 36.5377
35.1252 1402 37.4433
35.242 1410 37.55
35.3587 1412 37.5766
35.4755 1367 36.973
35.5921 1375 37.081
35.7088 1265 35.5668
35.8254 1295 35.9861
35.9419 1267 35.5949
36.0584 1306 36.1386
36.1749 1271 35.6511
36.2913 1280 35.7771
36.4077 1260 35.4965
36.524 1314 36.2491
36.6403 1261 35.5106
36.7565 1304 36.1109
36.8727 1297 36.0139
36.9889 1341 36.6197
37.1049 1303 36.0971
37.221 0 1
37.3369 0 1
37.4529 0 1
37.5687 0 1
37.6845 0 1
37.8003 0 1
37.916 0 1
38.0316 0 1
38.1472 0 1
40.5851 0 1
40.7008 0 1
40.8164 0 1
40.9322 0 1
41.048 0 1
41.1639 0 1
41.2798 0 1
41.3958 0 1
41.5118 0 1
41.6279 0 1
41.744 954 30.8869
41.8602 1088 32.9848
41.9765 1027 32.0468
42.0928 1030 32.0936
42.2091 1093 33.0606
42.3255 1123 33.5112
42.4419 1042 32.28
42.5584 909 30.1496
42.675 901 30.0167
42.7915 872 29.5296
42.9081 871 29.5127
43.0248 896 29.9333
43.1415 957 30.9354
43.2582 940 30.6594
43.375 975 31.225
43.4918 1007 31.7333
43.6087 1022 31.9687
43.7256 998 31.5911
43.8425 1040 32.249
43.9595 971 31.1609
44.0765 972 31.1769
44.1935 943 30.7083
44.3106 958 30.9516
44.4277 903 30.05
44.5448 861 29.3428
44.6619 875 29.5804
44.7791 815 28.5482
44.8963 756 27.4955
45.0136 743 27.258
45.1308 803 28.3373
45.2481 832 28.8444
45.3654 772 27.7849
45.4827 720 26.8328
45.6001 753 27.4408
45.7174 804 28.3549
45.8348 762 27.6043
45.9522 808 28.4253
46.0697 705 26.5518
46.1871 654 25.5734
46.3046 619 24.8797
46.422 618 24.8596
46.5395 663 25.7488
46.657 639 25.2784
46.7745 678 26.0384
46.892 729 27
47.0096 767 27.6948
47.1271 737 27.1477
47.2446 781 27.9464
47.3622 713 26.7021
47.4797 678 26.0384
47.5973 676 26
47.7149 753 27.4408
47.8324 675 25.9808
47.95 670 25.8844
48.0675 631 25.1197
48.1851 566 23.7908
48.3027 588 24.2487
48.4202 534 23.1084
48.5378 551 23.4734
48.6554 538 23.1948
48.7729 536 23.1517
48.8904 552 23.4947
49.008 601 24.5153
49.1255 585 24.1868
49.243 566 23.7908
49.3605 608 24.6577
49.478 566 23.7908
49.5955 514 22.6716
49.713 492 22.1811
49.8304 439 20.9523
49.9479 434 20.8327
50.0653 493 22.2036
50.1827 594 24.3721
50.3001 639 25.2784
50.4175 663 25.7488
50.5348 687 26.2107
50.6521 756 27.4955
50.7694 701 26.4764
50.8867 740 27.2029
51.004 753 27.4408
51.1212 761 27.5862
51.2384 767 27.6948
51.3556 791 28.1247
51.4727 815 28.5482
51.5899 798 28.2489
51.707 715 26.7395
51.824 725 26.9258
51.9411 776 27.8568
52.0581 786 28.0357
52.175 784 28
52.2919 827 28.7576
52.4088 836 28.9137
52.5257 873 29.5466
52.6425 935 30.5778
52.7593 1000 31.6228
52.876 917 30.282
52.9927 955 30.9031
53.1094 886 29.7658
53.226 822 28.6705
53.3426 777 27.8747
53.4591 734 27.0924
53.5756 751 27.4044
53.692 877 29.6142
53.8084 1065 32.6343
53.9248 1078 32.8329
54.0411 1148 33.8821
54.1573 1148 33.8821
54.2735 0 1
54.3896 0 1
54.5057 0 1
54.6217 0 1
54.7377 0 1
54.8537 0 1
54.9695 0 1
55.0853 0 1
55.2011 0 1
55.3168 0 1
55.4324 0 1
57.824 0 1
57.9396 0 1
58.0553 0 1
58.1711 0 1
58.2869 0 1
58.4028 0 1
58.5187 0 1
58.6347 0 1
58.7508 0 1
58.8669 0 1
58.983 1182 34.3802
59.0992 1319 36.318
59.2155 1332 36.4966
59.3318 1382 37.1753
59.4482 1312 36.2215
59.5646 1362 36.9053
59.681 1359 36.8646
59.7975 1334 36.524
59.9141 1343 36.647
60.0306 1234 35.1283
60.1473 1220 34.9285
60.2639 1237 35.171
60.3807 1057 32.5115
60.4974 1104 33.2265
60.6142 1092 33.0454
60.731 1056 32.4962
60.8479 1138 33.7343
60.9648 1130 33.6155
61.0818 1136 33.7046
61.1987 1167 34.1614
61.3158 1106 33.2566
61.4328 1040 32.249
61.5499 1015 31.8591
61.667 1063 32.6037
61.7841 943 30.7083
61.9013 859 29.3087
62.0185 881 29.6816
62.1357 948 30.7896
62.253 991 31.4802
62.3702 1089 33
62.4875 1152 33.9411
62.6049 1211 34.7994
62.7222 1271 35.6511
62.8396 1254 35.4119
62.9569 1343 36.647
63.0743 1330 36.4692
63.1918 1373 37.054
63.3092 1310 36.1939
63.4267 1237 35.171
63.5441 1207 34.7419
63.6616 1204 34.6987
63.7791 1192 34.5254
63.8966 1155 33.9853
64.0142 1138 33.7343
64.1317 1053 32.45
64.2492 1181 34.3657
64.3668 1126 33.5559
64.4843 1131 33.6303
64.6019 1213 34.8281
64.7195 1176 34.2929
64.837 1248 35.327
64.9546 1210 34.7851
65.0722 1184 34.4093
65.1898 1063 32.6037
65.3074 974 31.209
65.4249 910 30.1662
65.5425 822 28.6705
65.6601 841 29
65.7777 946 30.7571
65.8952 1142 33.7935
66.0128 1138 33.7343
66.1304 1234 35.1283
66.2479 1297 36.0139
66.3655 1360 36.8782
66.483 1439 37.9342
66.6005 1294 35.9722
66.718 1262 35.5246
66.8355 1344 36.6606
66.953 1309 36.1801
67.0705 1295 35.9861
67.1879 1223 34.9714
67.3054 1147 33.8674
67.4228 1117 33.4215
67.5402 1094 33.0757
67.6576 1018 31.9061
67.7749 1038 32.218
67.8923 1032 32.1248
68.0096 1077 32.8177
68.1269 1104 33.2265
68.2442 1104 33.2265
68.3614 1118 33.4365
68.4787 1088 32.9848
68.5958 1121 33.4813
68.713 1091 33.0303
68.8302 1007 31.7333
68.9473 901 30.0167
69.0643 811 28.4781
69.1814 764 27.6405
69.2984 768 27.7128
69.4154 910 30.1662
69.5323 1070 32.7109
69.6492 1136 33.7046
69.7661 1214 34.8425
69.8829 1226 35.0143
69.9997 1225 35
70.1165 1248 35.327
70.2332 1227 35.0286
70.3499 1302 36.0832
70.4665 1305 36.1248
70.5831 1260 35.4965
70.6996 1158 34.0294
70.8161 1160 34.0588
70.9326 1142 33.7935
71.049 1060 32.5576
71.1653 1059 32.5423
71.2817 1067 32.665
71.3979 1021 31.9531
71.5141 954 30.8869
71.6303 944 30.7246
71.7464 989 31.4484
71.8624 0 1
71.9784 0 1
72.0944 0 1
72.2102 0 1
72.3261 0 1
72.4418 0 1
72.5575 0 1
72.6732 0 1
75.1054 0 1
75.2209 0 1
75.3365 0 1
75.4521 0 1
75.5678 0 1
75.6835 0 1
75.7993 0 1
75.9151 0 1
76.031 0 1
76.147 1049 32.3883
76.263 1103 33.2114
76.3791 1098 33.1361
76.4952 1066 32.6497
76.6113 1032 32.1248
76.7276 1005 31.7017
76.8438 961 31
76.9601 937 30.6105
77.0765 998 31.5911
77.1929 1050 32.4037
77.3093 1074 32.7719
77.4258 1158 34.0294
77.5423 1131 33.6303
77.6589 1181 34.3657
77.7755 1017 31.8904
77.8921 886 29.7658
78.0088 795 28.1957
78.1256 689 26.2488
78.2423 728 26.9815
78.3591 697 26.4008
78.4759 876 29.5973
78.5928 974 31.209
78.7097 1101 33.1813
78.8266 1119 33.4515
78.9436 1286 35.8608
79.0606 1197 34.5977
79.1776 1214 34.8425
79.2946 1246 35.2987
79.4117 1208 34.7563
79.5288 1220 34.9285
79.6459 1131 33.6303
79.7631 1127 33.5708
79.8802 1032 32.1248
79.9974 970 31.1448
80.1147 962 31.0161
80.2319 930 30.4959
80.3491 914 30.2324
80.4664 944 30.7246
80.5837 881 29.6816
80.701 944 30.7246
80.8183 947 30.7734
80.9357 1036 32.187
81.053 990 31.4643
81.1704 979 31.289
81.2877 961 31
81.4051 910 30.1662
81.5225 797 28.2312
81.6399 736 27.1293
81.7573 618 24.8596
81.8747 585 24.1868
81.9922 638 25.2587
82.1096 798 28.2489
82.227 938 30.6268
82.3444 970 31.1448
82.4619 1039 32.2335
82.5793 1064 32.619
82.6967 1016 31.8748
82.8142 1040 32.249
82.9316 1040 32.249
83.049 1035 32.1714
83.1664 1014 31.8434
83.2838 1037 32.2025
83.4012 961 31
83.5186 896 29.9333
83.636 827 28.7576
83.7534 834 28.8791
83.8708 738 27.1662
83.9881 746 27.313
84.1055 766 27.6767
84.2228 785 28.0179
84.3401 823 28.688
84.4575 893 29.8831
84.5747 831 28.8271
84.692 906 30.0998
84.8093 873 29.5466
84.9265 910 30.1662
85.0437 815 28.5482
85.1609 652 25.5343
85.2781 650 25.4951
85.3952 592 24.3311
85.5123 611 24.7184
85.6294 714 26.7208
85.7465 852 29.189
85.8636 922 30.3645
85.9806 994 31.5278
86.0976 1039 32.2335
86.2145 1041 32.2645
86.3315 1255 35.426
86.4484 1106 33.2566
86.5652 1140 33.7639
86.682 1151 33.9264
86.7988 1163 34.1028
86.9156 1100 33.1662
87.0323 1068 32.6803
87.149 1042 32.28
87.2657 1008 31.749
87.3823 987 31.4166
87.4988 925 30.4138
87.6154 929 30.4795
87.7318 908 30.133
87.8483 1014 31.8434
87.9647 1023 31.9844
88.081 1090 33.0151
88.1973 1117 33.4215
88.3136 1161 34.0735
88.4298 1135 33.6898
88.546 986 31.4006
88.6621 899 29.9833
88.7781 810 28.4605
88.8942 0 1
89.0101 0 1
89.126 0 1
89.2419 0 1
89.3577 0 1
89.4734 0 1
89.5891 0 1
89.7047 0 1
89.8203 0 1
89.9358 0 1
92.3269 0 1
92.4424 0 1
92.558 0 1
92.6736 0 1
92.7893 0 1
92.905 0 1
93.0208 0 1
93.1366 0 1
93.2525 0 1
93.3685 0 1
93.4845 0 1
93.6005 1070 32.7109
93.7167 1078 32.8329
93.8328 1037 32.2025
93.949 1099 33.1512
94.0653 1039 32.2335
94.1816 900 30
94.2979 862 29.3598
94.4143 779 27.9106
94.5307 753 27.4408
94.6472 837 28.931
94.7637 889 29.8161
94.8803 1073 32.7567
94.9969 1085 32.9393
95.1135 1172 34.2345
95.2302 1283 35.819
95.3469 1245 35.2846
95.4637 1247 35.3129
95.5805 1299 36.0416
95.6973 1375 37.081
95.8142 1326 36.4143
95.9311 1274 35.6931
96.048 1205 34.7131
96.1649 1111 33.3317
96.2819 1102 33.1964
96.3989 1106 33.2566
96.516 1046 32.3419
96.633 1039 32.2335
96.7501 1007 31.7333
96.8673 1035 32.1714
96.9844 1121 33.4813
97.1016 1134 33.6749
97.2188 1108 33.2866
97.336 1127 33.5708
97.4532 1214 34.8425
97.5704 1137 33.7194
97.6877 1048 32.3728
97.805 960 30.9839
97.9223 882 29.6985
98.0396 858 29.2916
98.1569 796 28.2135
98.2743 792 28.1425
98.3916 865 29.4109
98.509 1004 31.686
98.6264 1117 33.4215
98.7438 1187 34.4529
98.8612 1224 34.9857
98.9786 1266 35.5809
99.096 1343 36.647
99.2134 1332 36.4966
99.3308 1307 36.1525
99.4482 1287 35.8748
99.5656 1310 36.1939
99.6831 1275 35.7071
99.8005 1130 33.6155
99.9179 1207 34.7419
100.035 1069 32.6956
100.153 1042 32.28
100.27 1006 31.7175
100.388 1031 32.1092
100.505 1075 32.7872
100.622 1185 34.4238
100.74 1105 33.2415
100.857 1200 34.641
100.975 1200 34.641
101.092 1161 34.0735
101.209 1150 33.9116
101.327 1116 33.4066
101.444 902 30.0333
101.561 866 29.4279
101.679 840 28.9828
101.796 857 29.2746
101.913 903 30.05
102.03 1018 31.9061
102.148 1065 32.6343
102.265 1213 34.8281
102.382 1394 37.3363
102.499 1324 36.3868
102.616 1393 37.3229
102.733 1382 37.1753
102.851 1381 37.1618
102.968 1424 37.7359
103.085 1399 37.4032
103.202 1328 36.4417
103.319 1251 35.3695
103.436 1261 35.5106
103.552 1224 34.9857
103.669 1117 33.4215
103.786 1145 33.8378
103.903 1110 33.3167
104.02 1102 33.1964
104.137 1145 33.8378
104.253 1260 35.4965
104.37 1329 36.4555
104.487 1345 36.6742
104.603 1270 35.6371
104.72 1257 35.4542
104.836 1147 33.8674
104.953 1023 31.9844
105.069 953 30.8707
105.186 891 29.8496
105.302 916 30.2655
105.418 1046 32.3419
105.535 1198 34.6121
105.651 1363 36.9188
105.767 1414 37.6032
105.883 1491 38.6135
105.999 1530 39.1152
106.115 0 1
106.231 0 1
106.347 0 1
106.463 0 1
106.579 0 1
106.694 0 1
106.81 0 1
106.926 0 1
107.041 0 1
107.157 0 1
109.576 0 1
109.692 0 1
109.807 0 1
109.923 0 1
110.039 0 1
110.155 0 1
110.27 0 1
110.386 0 1
110.502 0 1
110.618 1037 32.2025
110.735 1257 35.4542
110.851 1374 37.0675
110.967 1445 38.0132
111.083 1430 37.8153
111.199 1452 38.1051
111.316 1490 38.6005
111.432 1548 39.3446
111.549 1482 38.4968
111.665 1500 38.7298
111.782 1382 37.1753
111.898 1295 35.9861
112.015 1209 34.7707
112.132 1218 34.8999
112.248 1102 33.1964
112.365 1117 33.4215
112.482 1065 32.6343
112.599 1159 34.0441
112.716 1172 34.2345
112.832 1237 35.171
112.949 1216 34.8712
113.066 1228 35.0428
113.183 1128 33.5857
113.3 1181 34.3657
113.417 1037 32.2025
113.534 985 31.3847
113.652 887 29.7825
113.769 882 29.6985
113.886 838 28.9482
114.003 923 30.3809
114.12 1088 32.9848
114.238 1245 35.2846
114.355 1270 35.6371
114.472 1327 36.428
114.589 1304 36.1109
114.707 1428 37.7889
114.824 1413 37.5899
114.942 1446 38.0263
115.059 1417 37.6431
115.176 1400 37.4166
115.294 1405 37.4833
115.411 1240 35.2136
115.529 1231 35.0856
115.646 1178 34.322
115.764 1174 34.2637
115.881 1172 34.2345
115.999 1113 33.3617
116.116 1113 33.3617
116.234 1208 34.7563
116.351 1251 35.3695
116.469 1231 35.0856
116.586 1283 35.819
116.704 1258 35.4683
116.821 1237 35.171
116.939 1168 34.176
117.056 1095 33.0908
117.174 1001 31.6386
117.291 1035 32.1714
117.409 942 30.692
117.526 1013 31.8277
117.644 1098 33.1361
117.761 1211 34.7994
117.879 1355 36.8103
117.996 1372 37.0405
118.114 1434 37.8682
118.231 1469 38.3275
118.349 1494 38.6523
118.466 1429 37.8021
118.584 1468 38.3145
118.701 1472 38.3667
118.819 1504 38.7814
118.936 1407 37.51
119.053 1377 37.108
119.171 1294 35.9722
119.288 1235 35.1426
119.405 1237 35.171
119.523 1142 33.7935
119.64 1160 34.0588
119.757 1189 34.4819
119.875 1252 35.3836
119.992 1248 35.327
120.109 1284 35.8329
120.226 1251 35.3695
120.343 1288 35.8887
120.46 1223 34.9714
120.578 1164 34.1174
120.695 1166 34.1467
120.812 1090 33.0151
120.929 1019 31.9218
121.046 1001 31.6386
121.163 1022 31.9687
121.279 1088 32.9848
121.396 1176 34.2929
121.513 1312 36.2215
121.63 1347 36.7015
121.747 1391 37.2961
121.863 1418 37.6563
121.98 1393 37.3229
122.097 1473 38.3797
122.213 1490 38.6005
122.33 1484 38.5227
122.446 1370 37.0135
122.563 1331 36.4829
122.679 1346 36.6879
122.795 1292 35.9444
122.912 1323 36.3731
123.028 1298 36.0278
123.144 1164 34.1174
123.26 1067 32.665
123.377 0 1
123.493 0 1
123.609 0 1
123.725 0 1
123.84 0 1
123.956 0 1
124.072 0 1
124.188 0 1
124.303 0 1
124.419 0 1
126.852 0 1
126.968 0 1
127.083 0 1
127.199 0 1
127.315 0 1
127.431 0 1
127.547 0 1
127.663 0 1
127.779 0 1
127.895 0 1
128.011 0 1
128.127 0 1
128.243 0 1
128.359 1357 36.8375
128.476 1291 35.9305
128.592 1262 35.5246
128.708 1324 36.3868
128.825 1365 36.9459
128.941 1366 36.9594
129.058 1463 38.2492
129.174 1420 37.6829
129.291 1374 37.0675
129.408 1366 36.9594
129.524 1307 36.1525
129.641 1277 35.7351
129.758 1258 35.4683
129.875 1150 33.9116
129.992 1214 34.8425
130.108 1107 33.2716
130.225 1198 34.6121
130.342 1207 34.7419
130.459 1299 36.0416
130.576 1497 38.6911
130.693 1468 38.3145
130.81 1431 37.8286
130.928 1458 38.1838
131.045 1538 39.2173
131.162 1535 39.1791
131.279 1545 39.3065
131.396 1529 39.1024
131.513 1467 38.3014
131.631 1402 37.4433
131.748 1452 38.1051
131.865 1396 37.3631
131.983 1304 36.1109
132.1 1278 35.7491
132.217 1356 36.8239
132.335 1394 37.3363
132.452 1421 37.6962
132.57 1434 37.8682
132.687 1419 37.6696
132.804 1411 37.5633
132.922 1424 37.7359
133.039 1392 37.3095
133.157 1325 36.4005
133.274 1267 35.5949
133.392 1243 35.2562
133.509 1196 34.5832
133.627 1194 34.5543
133.744 1184 34.4093
133.862 1181 34.3657
133.979 1351 36.756
134.097 1427 37.7757
134.214 1402 37.4433
134.332 1506 38.8072
134.449 1484 38.5227
134.567 1457 38.1707
134.684 1577 39.7115
134.802 1541 39.2556
134.919 1490 38.6005
135.037 1569 39.6106
135.154 1510 38.8587
135.272 1460 38.2099
135.389 1414 37.6032
135.507 1340 36.606
135.624 1417 37.6431
135.742 1258 35.4683
135.859 1343 36.647
135.977 1432 37.8418
136.094 1415 37.6165
136.211 1469 38.3275
136.329 1385 37.2156
136.446 1399 37.4032
136.564 1400 37.4166
136.681 1349 36.7287
136.798 1341 36.6197
136.915 1377 37.108
137.033 1231 35.0856
137.15 1269 35.623
137.267 1184 34.4093
137.384 1181 34.3657
137.502 1263 35.5387
137.619 1309 36.1801
137.736 1399 37.4032
137.853 1365 36.9459
137.97 1494 38.6523
138.087 1451 38.092
138.204 1439 37.9342
138.321 1516 38.9358
138.438 1532 39.1408
138.555 1449 38.0657
138.672 1528 39.0896
138.788 1532 39.1408
138.905 1435 37.8814
139.022 1427 37.7757
139.139 1395 37.3497
139.255 1315 36.2629
139.372 1341 36.6197
139.488 1355 36.8103
139.605 1412 37.5766
139.721 1426 37.7624
139.838 1415 37.6165
139.954 1391 37.2961
140.071 1438 37.921
140.187 1421 37.6962
140.303 1368 36.9865
140.419 1350 36.7423
140.535 1265 35.5668
140.652 1306 36.1386
140.768 0 1
140.884 0 1
141 0 1
141.115 0 1
141.231 0 1
141.347 0 1
141.463 0 1
141.578 0 1
141.694 0 1
144.104 0 1
144.219 0 1
144.335 0 1
144.45 0 1
144.566 0 1
144.682 0 1
144.798 0 1
144.914 0 1
145.03 0 1
145.146 968 31.1127
145.262 1064 32.619
145.378 1085 32.9393
145.494 1084 32.9242
145.61 1065 32.6343
145.726 1023 31.9844
145.842 1006 31.7175
145.959 958 30.9516
146.075 995 31.5436
146.192 906 30.0998
146.308 1004 31.686
146.425 944 30.7246
146.541 979 31.289
146.658 1076 32.8024
146.774 1112 33.3467
146.891 1089 33
147.008 1181 34.3657
147.125 1156 34
147.241 1141 33.7787
147.358 1198 34.6121
147.475 1171 34.2199
147.592 1150 33.9116
147.709 1119 33.4515
147.826 1147 33.8674
147.943 1116 33.4066
148.06 983 31.3528
148.177 1060 32.5576
148.294 1101 33.1813
148.411 1058 32.5269
148.528 1101 33.1813
148.645 1051 32.4191
148.762 1135 33.6898
148.88 1120 33.4664
148.997 1100 33.1662
149.114 1122 33.4963
149.231 1154 33.9706
149.349 1074 32.7719
149.466 1106 33.2566
149.583 1122 33.4963
149.701 1050 32.4037
149.818 1038 32.218
149.935 986 31.4006
150.053 927 30.4467
150.17 1027 32.0468
150.287 1000 31.6228
150.405 1072 32.7414
150.522 1083 32.909
150.64 1155 33.9853
150.757 1136 33.7046
150.875 1176 34.2929
150.992 1241 35.2278
151.11 1204 34.6987
151.227 1258 35.4683
151.344 1217 34.8855
151.462 1135 33.6898
151.579 1146 33.8526
151.697 1145 33.8378
151.814 1120 33.4664
151.932 1008 31.749
152.049 1084 32.9242
152.167 1062 32.5883
152.284 1173 34.2491
152.402 1195 34.5688
152.519 1146 33.8526
152.636 1208 34.7563
152.754 1152 33.9411
152.871 1176 34.2929
152.989 1191 34.5109
153.106 1137 33.7194
153.223 1172 34.2345
153.341 1104 33.2265
153.458 1141 33.7787
153.575 1130 33.6155
153.693 1033 32.1403
153.81 1118 33.4365
153.927 1083 32.909
154.044 1172 34.2345
154.162 1215 34.8569
154.279 1228 35.0428
154.396 1298 36.0278
154.513 1241 35.2278
154.63 1321 36.3456
154.747 1365 36.9459
154.864 1323 36.3731
154.981 1333 36.5103
155.098 1395 37.3497
155.215 1252 35.3836
155.332 1288 35.8887
155.449 1151 33.9264
155.566 1173 34.2491
155.683 1236 35.1568
155.8 1300 36.0555
155.917 1338 36.5787
156.033 1286 35.8608
156.15 0 1
156.267 0 1
156.383 0 1
156.5 0 1
156.617 0 1
156.733 0 1
156.85 0 1
156.966 0 1
157.082 0 1
157.199 0 1
157.315 0 1
157.431 0 1
157.547 0 1
157.664 0 1
157.78 0 1
157.896 0 1
158.012 0 1
158.128 0 1
158.244 0 1
158.359 0 1
158.475 0 1
158.591 0 1
158.706 0 1
