
6.15755 0 1
6.2731 0 1
6.3887 0 1
6.50437 0 1
6.62009 0 1
6.73587 0 1
6.8517 0 1
6.96759 0 1
7.08353 0 1
7.19952 0 1
7.31557 0 1
7.43166 0 1
7.54781 0 1
7.664 0 1
7.78024 0 1
7.89653 0 1
8.01286 0 1
8.12924 0 1
8.24567 0 1
8.36213 0 1
8.47864 0 1
8.59519 0 1
8.71178 0 1
8.82841 0 1
8.94508 0 1
9.06179 0 1
9.17853 0 1
9.29531 0 1
9.41212 0 1
9.52897 0 1
9.64584 0 1
9.76276 0 1
9.8797 0 1
9.99667 0 1
10.1137 0 1
10.2307 0 1
10.3478 0 1
10.4648 0 1
10.5819 0 1
10.6991 0 1
10.8162 0 1
10.9334 0 1
11.0506 0 1
11.1678 0 1
11.285 0 1
11.4023 0 1
11.5196 0 1
11.6369 0 1
11.7542 0 1
11.8715 0 1
11.9888 0 1
12.1062 0 1
12.2235 0 1
12.3409 0 1
12.4582 0 1
12.5756 0 1
12.693 0 1
12.8104 0 1
12.9278 0 1
13.0452 0 1
13.1626 0 1
13.28 0 1
13.3974 0 1
13.5149 0 1
13.6323 0 1
13.7497 0 1
13.8671 0 1
13.9845 0 1
14.1019 0 1
14.2193 0 1
14.3367 0 1
14.4541 0 1
14.5714 0 1
14.6888 0 1
14.8062 0 1
14.9235 0 1
15.0408 1695 41.1704
15.1581 1757 41.9166
15.2755 1684 41.0366
15.3927 1705 41.2916
15.51 1741 41.7253
15.6273 1684 41.0366
15.7445 1662 40.7676
15.8617 1674 40.9145
15.9789 1674 40.9145
16.0961 1640 40.4969
16.2132 1663 40.7799
16.3304 1709 41.3401
16.4475 1618 40.2244
16.5646 1710 41.3521
16.6816 1668 40.8412
16.7986 1612 40.1497
16.9156 1675 40.9268
17.0326 1661 40.7554
17.1496 1620 40.2492
17.2665 1727 41.5572
17.3833 1598 39.975
17.5002 1667 40.8289
17.617 1566 39.5727
17.7338 1478 38.4448
17.8505 1469 38.3275
17.9672 1573 39.6611
18.0839 1537 39.2046
18.2005 1806 42.4971
18.3171 1783 42.2256
18.4337 1779 42.1782
18.5502 1875 43.3013
18.6666 1817 42.6263
18.7831 1862 43.1509
18.8994 1762 41.9762
19.0158 1789 42.2966
19.1321 1710 41.3521
19.2483 1779 42.1782
19.3645 1636 40.4475
19.4806 1663 40.7799
19.5967 1658 40.7185
19.7128 1557 39.4588
19.8288 1176 34.2929
19.9447 530 23.0217
20.0606 0 1
20.1764 0 1
20.2922 0 1
20.4079 0 1
20.5236 0 1
20.6392 0 1
20.7548 0 1
20.8702 0 1
23.3078 0 1
23.4233 0 1
23.539 0 1
23.6547 0 1
23.7704 0 1
23.8862 0 1
24.0021 0 1
24.118 0 1
24.234 0 1
24.35 0 1
24.4661 1739 41.7013
24.5822 1695 41.1704
24.6984 1652 40.6448
24.8146 1753 41.8688
24.9309 1672 40.8901
25.0472 1703 41.2674
25.1636 1694 41.1582
25.28 1710 41.3521
25.3965 1731 41.6053
25.513 1691 41.1218
25.6296 1786 42.2611
25.7462 1782 42.2137
25.8628 1794 42.3556
25.9795 1837 42.8602
26.0962 1904 43.6348
26.213 1879 43.3474
26.3298 1760 41.9524
26.4466 1710 41.3521
26.5635 1588 39.8497
26.6804 1438 37.921
26.7973 1415 37.6165
26.9143 1475 38.4057
27.0313 1610 40.1248
27.1483 1734 41.6413
27.2653 1773 42.107
27.3824 1822 42.6849
27.4996 1841 42.9069
27.6167 1774 42.1189
27.7339 1748 41.8091
27.8511 1723 41.509
27.9683 1694 41.1582
28.0855 1788 42.2847
28.2028 1768 42.0476
28.3201 1657 40.7063
28.4374 1717 41.4367
28.5547 1717 41.4367
28.6721 1583 39.7869
28.7894 1670 40.8656
28.9068 1659 40.7308
29.0242 1717 41.4367
29.1416 1665 40.8044
29.259 1659 40.7308
29.3764 1747 41.7971
29.4939 1793 42.3438
29.6113 1719 41.4608
29.7288 1727 41.5572
29.8463 1686 41.0609
29.9638 1672 40.8901
30.0812 1477 38.4318
30.1987 1372 37.0405
30.3162 1400 37.4166
30.4337 1413 37.5899
30.5512 1584 39.7995
30.6687 1568 39.598
30.7862 1704 41.2795
30.9037 1734 41.6413
31.0212 1741 41.7253
31.1387 1707 41.3159
31.2562 1638 40.4722
31.3737 1645 40.5586
31.4912 1664 40.7922
31.6087 1615 40.1871
31.7262 1730 41.5933
31.8436 1670 40.8656
31.9611 1670 40.8656
32.0785 1615 40.1871
32.1959 1651 40.6325
32.3134 1623 40.2865
32.4308 1619 40.2368
32.5482 1643 40.5339
32.6655 1552 39.3954
32.7829 1692 41.1339
32.9002 1655 40.6817
33.0176 1677 40.9512
33.1349 1738 41.6893
33.2522 1651 40.6325
33.3694 1697 41.1947
33.4867 1699 41.2189
33.6039 1638 40.4722
33.7211 1449 38.0657
33.8383 1325 36.4005
33.9554 1349 36.7287
34.0725 1387 37.2424
34.1896 1461 38.223
34.3067 1478 38.4448
34.4237 1575 39.6863
34.5407 1748 41.8091
34.6577 1717 41.4367
34.7746 1658 40.7185
34.8915 1644 40.5463
35.0084 1766 42.0238
35.1252 1680 40.9878
35.242 1638 40.4722
35.3587 1649 40.6079
35.4755 1613 40.1622
35.5921 1538 39.2173
35.7088 1710 41.3521
35.8254 1560 39.4968
35.9419 1592 39.8999
36.0584 1562 39.5221
36.1749 1559 39.4842
36.2913 1577 39.7115
36.4077 1495 38.6652
36.524 1637 40.4599
36.6403 1627 40.3361
36.7565 1575 39.6863
36.8727 1673 40.9023
36.9889 1693 41.1461
37.1049 1660 40.7431
37.221 0 1
37.3369 0 1
37.4529 0 1
37.5687 0 1
37.6845 0 1
37.8003 0 1
37.916 0 1
38.0316 0 1
38.1472 0 1
40.5851 0 1
40.7008 0 1
40.8164 0 1
40.9322 0 1
41.048 0 1
41.1639 0 1
41.2798 0 1
41.3958 0 1
41.5118 0 1
41.6279 0 1
41.744 1267 35.5949
41.8602 1261 35.5106
41.9765 1301 36.0694
42.0928 1311 36.2077
42.2091 1341 36.6197
42.3255 1371 37.027
42.4419 1344 36.6606
42.5584 1192 34.5254
42.675 1060 32.5576
42.7915 1019 31.9218
42.9081 1077 32.8177
43.0248 1227 35.0286
43.1415 1152 33.9411
43.2582 1244 35.2704
43.375 1230 35.0714
43.4918 1248 35.327
43.6087 1314 36.2491
43.7256 1240 35.2136
43.8425 1274 35.6931
43.9595 1236 35.1568
44.0765 1166 34.1467
44.1935 1118 33.4365
44.3106 1124 33.5261
44.4277 1168 34.176
44.5448 1067 32.665
44.6619 1059 32.5423
44.7791 1042 32.28
44.8963 1079 32.8481
45.0136 1072 32.7414
45.1308 1038 32.218
45.2481 1022 31.9687
45.3654 962 31.0161
45.4827 980 31.305
45.6001 1004 31.686
45.7174 961 31
45.8348 1019 31.9218
45.9522 957 30.9354
46.0697 889 29.8161
46.1871 789 28.0891
46.3046 752 27.4226
46.422 760 27.5681
46.5395 780 27.9285
46.657 844 29.0517
46.7745 884 29.7321
46.892 952 30.8545
47.0096 910 30.1662
47.1271 933 30.545
47.2446 914 30.2324
47.3622 833 28.8617
47.4797 830 28.8097
47.5973 879 29.6479
47.7149 813 28.5132
47.8324 880 29.6648
47.95 813 28.5132
48.0675 766 27.6767
48.1851 755 27.4773
48.3027 736 27.1293
48.4202 745 27.2947
48.5378 694 26.3439
48.6554 701 26.4764
48.7729 701 26.4764
48.8904 708 26.6083
49.008 675 25.9808
49.1255 739 27.1846
49.243 763 27.6225
49.3605 743 27.258
49.478 654 25.5734
49.5955 644 25.3772
49.713 612 24.7386
49.8304 606 24.6171
49.9479 620 24.8998
50.0653 694 26.3439
50.1827 762 27.6043
50.3001 774 27.8209
50.4175 753 27.4408
50.5348 854 29.2233
50.6521 857 29.2746
50.7694 906 30.0998
50.8867 949 30.8058
51.004 902 30.0333
51.1212 971 31.1609
51.2384 1019 31.9218
51.3556 1010 31.7805
51.4727 963 31.0322
51.5899 965 31.0644
51.707 1014 31.8434
51.824 1045 32.3265
51.9411 1021 31.9531
52.0581 1118 33.4365
52.175 1061 32.573
52.2919 1104 33.2265
52.4088 1159 34.0441
52.5257 1190 34.4964
52.6425 1156 34
52.7593 1163 34.1028
52.876 1243 35.2562
52.9927 1158 34.0294
53.1094 1154 33.9706
53.226 1047 32.3574
53.3426 974 31.209
53.4591 961 31
53.5756 946 30.7571
53.692 1197 34.5977
53.8084 1297 36.0139
53.9248 1306 36.1386
54.0411 1415 37.6165
54.1573 1415 37.6165
54.2735 0 1
54.3896 0 1
54.5057 0 1
54.6217 0 1
54.7377 0 1
54.8537 0 1
54.9695 0 1
55.0853 0 1
55.2011 0 1
55.3168 0 1
55.4324 0 1
57.824 0 1
57.9396 0 1
58.0553 0 1
58.1711 0 1
58.2869 0 1
58.4028 0 1
58.5187 0 1
58.6347 0 1
58.7508 0 1
58.8669 0 1
58.983 1467 38.3014
59.0992 1557 39.4588
59.2155 1605 40.0625
59.3318 1602 40.025
59.4482 1681 41
59.5646 1708 41.328
59.681 1715 41.4126
59.7975 1677 40.9512
59.9141 1588 39.8497
60.0306 1580 39.7492
60.1473 1529 39.1024
60.2639 1447 38.0395
60.3807 1406 37.4967
60.4974 1366 36.9594
60.6142 1463 38.2492
60.731 1438 37.921
60.8479 1444 38
60.9648 1516 38.9358
61.0818 1463 38.2492
61.1987 1474 38.3927
61.3158 1479 38.4578
61.4328 1454 38.1314
61.5499 1410 37.55
61.667 1225 35
61.7841 1309 36.1801
61.9013 1107 33.2716
62.0185 1134 33.6749
62.1357 1151 33.9264
62.253 1318 36.3043
62.3702 1396 37.3631
62.4875 1492 38.6264
62.6049 1465 38.2753
62.7222 1626 40.3237
62.8396 1616 40.1995
62.9569 1645 40.5586
63.0743 1760 41.9524
63.1918 1620 40.2492
63.3092 1659 40.7308
63.4267 1617 40.2119
63.5441 1636 40.4475
63.6616 1536 39.1918
63.7791 1558 39.4715
63.8966 1633 40.4104
64.0142 1505 38.7943
64.1317 1442 37.9737
64.2492 1511 38.8716
64.3668 1499 38.7169
64.4843 1479 38.4578
64.6019 1490 38.6005
64.7195 1575 39.6863
64.837 1497 38.6911
64.9546 1548 39.3446
65.0722 1573 39.6611
65.1898 1403 37.4566
65.3074 1267 35.5949
65.4249 1206 34.7275
65.5425 1132 33.6452
65.6601 1114 33.3766
65.7777 1199 34.6266
65.8952 1277 35.7351
66.0128 1451 38.092
66.1304 1492 38.6264
66.2479 1625 40.3113
66.3655 1582 39.7744
66.483 1634 40.4228
66.6005 1681 41
66.718 1652 40.6448
66.8355 1630 40.3733
66.953 1624 40.2989
67.0705 1605 40.0625
67.1879 1482 38.4968
67.3054 1407 37.51
67.4228 1417 37.6431
67.5402 1394 37.3363
67.6576 1397 37.3765
67.7749 1340 36.606
67.8923 1332 36.4966
68.0096 1345 36.6742
68.1269 1394 37.3363
68.2442 1343 36.647
68.3614 1386 37.229
68.4787 1479 38.4578
68.5958 1469 38.3275
68.713 1396 37.3631
68.8302 1282 35.805
68.9473 1190 34.4964
69.0643 1117 33.4215
69.1814 1028 32.0624
69.2984 1070 32.7109
69.4154 1145 33.8378
69.5323 1257 35.4542
69.6492 1286 35.8608
69.7661 1429 37.8021
69.8829 1562 39.5221
69.9997 1558 39.4715
70.1165 1490 38.6005
70.2332 1612 40.1497
70.3499 1598 39.975
70.4665 1541 39.2556
70.5831 1516 38.9358
70.6996 1465 38.2753
70.8161 1456 38.1576
70.9326 1444 38
71.049 1327 36.428
71.1653 1367 36.973
71.2817 1362 36.9053
71.3979 1256 35.4401
71.5141 1346 36.6879
71.6303 1256 35.4401
71.7464 1247 35.3129
71.8624 0 1
71.9784 0 1
72.0944 0 1
72.2102 0 1
72.3261 0 1
72.4418 0 1
72.5575 0 1
72.6732 0 1
75.1054 0 1
75.2209 0 1
75.3365 0 1
75.4521 0 1
75.5678 0 1
75.6835 0 1
75.7993 0 1
75.9151 0 1
76.031 0 1
76.147 1390 37.2827
76.263 1431 37.8286
76.3791 1392 37.3095
76.4952 1362 36.9053
76.6113 1440 37.9473
76.7276 1353 36.7831
76.8438 1425 37.7492
76.9601 1453 38.1182
77.0765 1448 38.0526
77.1929 1429 37.8021
77.3093 1519 38.9744
77.4258 1483 38.5097
77.5423 1473 38.3797
77.6589 1461 38.223
77.7755 1384 37.2022
77.8921 1244 35.2704
78.0088 1098 33.1361
78.1256 1082 32.8938
78.2423 1011 31.7962
78.3591 969 31.1288
78.4759 1114 33.3766
78.5928 1284 35.8329
78.7097 1342 36.6333
78.8266 1425 37.7492
78.9436 1536 39.1918
79.0606 1521 39
79.1776 1553 39.4081
79.2946 1573 39.6611
79.4117 1590 39.8748
79.5288 1565 39.5601
79.6459 1492 38.6264
79.7631 1422 37.7094
79.8802 1380 37.1484
79.9974 1312 36.2215
80.1147 1280 35.7771
80.2319 1231 35.0856
80.3491 1237 35.171
80.4664 1218 34.8999
80.5837 1207 34.7419
80.701 1255 35.426
80.8183 1333 36.5103
80.9357 1272 35.6651
81.053 1317 36.2905
81.1704 1322 36.3593
81.2877 1265 35.5668
81.4051 1311 36.2077
81.5225 1184 34.4093
81.6399 1071 32.7261
81.7573 962 31.0161
81.8747 865 29.4109
81.9922 888 29.7993
82.1096 997 31.5753
82.227 1046 32.3419
82.3444 1200 34.641
82.4619 1293 35.9583
82.5793 1381 37.1618
82.6967 1268 35.609
82.8142 1315 36.2629
82.9316 1333 36.5103
83.049 1387 37.2424
83.1664 1339 36.5923
83.2838 1268 35.609
83.4012 1168 34.176
83.5186 1189 34.4819
83.636 1153 33.9559
83.7534 1104 33.2265
83.8708 1049 32.3883
83.9881 1074 32.7719
84.1055 1069 32.6956
84.2228 1110 33.3167
84.3401 1095 33.0908
84.4575 1080 32.8634
84.5747 1157 34.0147
84.692 1253 35.3977
84.8093 1251 35.3695
84.9265 1145 33.8378
85.0437 1086 32.9545
85.1609 1034 32.1559
85.2781 976 31.241
85.3952 846 29.0861
85.5123 852 29.189
85.6294 917 30.282
85.7465 1014 31.8434
85.8636 1123 33.5112
85.9806 1290 35.9166
86.0976 1321 36.3456
86.2145 1435 37.8814
86.3315 1489 38.5876
86.4484 1381 37.1618
86.5652 1469 38.3275
86.682 1487 38.5616
86.7988 1397 37.3765
86.9156 1480 38.4708
87.0323 1412 37.5766
87.149 1370 37.0135
87.2657 1317 36.2905
87.3823 1262 35.5246
87.4988 1314 36.2491
87.6154 1287 35.8748
87.7318 1363 36.9188
87.8483 1387 37.2424
87.9647 1365 36.9459
88.081 1321 36.3456
88.1973 1479 38.4578
88.3136 1517 38.9487
88.4298 1466 38.2884
88.546 1379 37.1349
88.6621 1266 35.5809
88.7781 1135 33.6898
88.8942 0 1
89.0101 0 1
89.126 0 1
89.2419 0 1
89.3577 0 1
89.4734 0 1
89.5891 0 1
89.7047 0 1
89.8203 0 1
89.9358 0 1
92.3269 0 1
92.4424 0 1
92.558 0 1
92.6736 0 1
92.7893 0 1
92.905 0 1
93.0208 0 1
93.1366 0 1
93.2525 0 1
93.3685 0 1
93.4845 0 1
93.6005 1466 38.2884
93.7167 1419 37.6696
93.8328 1404 37.47
93.949 1417 37.6431
94.0653 1364 36.9324
94.1816 1224 34.9857
94.2979 1127 33.5708
94.4143 1124 33.5261
94.5307 1025 32.0156
94.6472 1094 33.0757
94.7637 1130 33.6155
94.8803 1285 35.8469
94.9969 1384 37.2022
95.1135 1467 38.3014
95.2302 1540 39.2428
95.3469 1631 40.3856
95.4637 1683 41.0244
95.5805 1651 40.6325
95.6973 1678 40.9634
95.8142 1659 40.7308
95.9311 1600 40
96.048 1517 38.9487
96.1649 1549 39.3573
96.2819 1441 37.9605
96.3989 1411 37.5633
96.516 1401 37.4299
96.633 1387 37.2424
96.7501 1374 37.0675
96.8673 1378 37.1214
96.9844 1395 37.3497
97.1016 1384 37.2022
97.2188 1466 38.2884
97.336 1534 39.1663
97.4532 1568 39.598
97.5704 1517 38.9487
97.6877 1435 37.8814
97.805 1239 35.1994
97.9223 1230 35.0714
98.0396 1151 33.9264
98.1569 1069 32.6956
98.2743 1082 32.8938
98.3916 1125 33.541
98.509 1231 35.0856
98.6264 1359 36.8646
98.7438 1520 38.9872
98.8612 1513 38.8973
98.9786 1662 40.7676
99.096 1654 40.6694
99.2134 1591 39.8873
99.3308 1638 40.4722
99.4482 1660 40.7431
99.5656 1636 40.4475
99.6831 1602 40.025
99.8005 1558 39.4715
99.9179 1525 39.0512
100.035 1476 38.4187
100.153 1346 36.6879
100.27 1361 36.8917
100.388 1388 37.2559
100.505 1376 37.0945
100.622 1406 37.4967
100.74 1494 38.6523
100.857 1552 39.3954
100.975 1521 39
101.092 1566 39.5727
101.209 1478 38.4448
101.327 1431 37.8286
101.444 1314 36.2491
101.561 1218 34.8999
101.679 1085 32.9393
101.796 1071 32.7261
101.913 1107 33.2716
102.03 1263 35.5387
102.148 1362 36.9053
102.265 1502 38.7556
102.382 1550 39.37
102.499 1704 41.2795
102.616 1763 41.9881
102.733 1729 41.5812
102.851 1785 42.2493
102.968 1702 41.2553
103.085 1670 40.8656
103.202 1681 41
103.319 1759 41.9404
103.436 1588 39.8497
103.552 1563 39.5348
103.669 1467 38.3014
103.786 1466 38.2884
103.903 1441 37.9605
104.02 1445 38.0132
104.137 1612 40.1497
104.253 1513 38.8973
104.37 1686 41.0609
104.487 1741 41.7253
104.603 1601 40.0125
104.72 1631 40.3856
104.836 1451 38.092
104.953 1357 36.8375
105.069 1291 35.9305
105.186 1197 34.5977
105.302 1194 34.5543
105.418 1256 35.4401
105.535 1435 37.8814
105.651 1537 39.2046
105.767 1747 41.7971
105.883 1836 42.8486
105.999 1842 42.9185
106.115 0 1
106.231 0 1
106.347 0 1
106.463 0 1
106.579 0 1
106.694 0 1
106.81 0 1
106.926 0 1
107.041 0 1
107.157 0 1
109.576 0 1
109.692 0 1
109.807 0 1
109.923 0 1
110.039 0 1
110.155 0 1
110.27 0 1
110.386 0 1
110.502 0 1
110.618 1440 37.9473
110.735 1551 39.3827
110.851 1686 41.0609
110.967 1713 41.3884
111.083 1743 41.7493
111.199 1769 42.0595
111.316 1817 42.6263
111.432 1822 42.6849
111.549 1857 43.0929
111.665 1733 41.6293
111.782 1698 41.2068
111.898 1728 41.5692
112.015 1610 40.1248
112.132 1561 39.5095
112.248 1511 38.8716
112.365 1453 38.1182
112.482 1368 36.9865
112.599 1555 39.4335
112.716 1527 39.0768
112.832 1523 39.0256
112.949 1595 39.9375
113.066 1545 39.3065
113.183 1506 38.8072
113.3 1431 37.8286
113.417 1433 37.855
113.534 1286 35.8608
113.652 1208 34.7563
113.769 1168 34.176
113.886 1105 33.2415
114.003 1209 34.7707
114.12 1272 35.6651
114.238 1460 38.2099
114.355 1610 40.1248
114.472 1662 40.7676
114.589 1690 41.1096
114.707 1682 41.0122
114.824 1750 41.833
114.942 1783 42.2256
115.059 1819 42.6497
115.176 1648 40.5956
115.294 1729 41.5812
115.411 1689 41.0974
115.529 1596 39.95
115.646 1528 39.0896
115.764 1527 39.0768
115.881 1464 38.2623
115.999 1493 38.6394
116.116 1430 37.8153
116.234 1588 39.8497
116.351 1517 38.9487
116.469 1612 40.1497
116.586 1605 40.0625
116.704 1570 39.6232
116.821 1613 40.1622
116.939 1475 38.4057
117.056 1454 38.1314
117.174 1297 36.0139
117.291 1280 35.7771
117.409 1196 34.5832
117.526 1202 34.6699
117.644 1305 36.1248
117.761 1509 38.8458
117.879 1607 40.0874
117.996 1738 41.6893
118.114 1657 40.7063
118.231 1719 41.4608
118.349 1793 42.3438
118.466 1792 42.332
118.584 1805 42.4853
118.701 1835 42.8369
118.819 1750 41.833
118.936 1702 41.2553
119.053 1724 41.5211
119.171 1740 41.7133
119.288 1654 40.6694
119.405 1462 38.2361
119.523 1495 38.6652
119.64 1487 38.5616
119.757 1460 38.2099
119.875 1562 39.5221
119.992 1578 39.724
120.109 1542 39.2683
120.226 1580 39.7492
120.343 1500 38.7298
120.46 1538 39.2173
120.578 1484 38.5227
120.695 1382 37.1753
120.812 1348 36.7151
120.929 1243 35.2562
121.046 1276 35.7211
121.163 1234 35.1283
121.279 1298 36.0278
121.396 1448 38.0526
121.513 1549 39.3573
121.63 1657 40.7063
121.747 1624 40.2989
121.863 1756 41.9047
121.98 1719 41.4608
122.097 1851 43.0232
122.213 1770 42.0714
122.33 1724 41.5211
122.446 1776 42.1426
122.563 1614 40.1746
122.679 1649 40.6079
122.795 1578 39.724
122.912 1649 40.6079
123.028 1492 38.6264
123.144 1489 38.5876
123.26 1354 36.7967
123.377 0 1
123.493 0 1
123.609 0 1
123.725 0 1
123.84 0 1
123.956 0 1
124.072 0 1
124.188 0 1
124.303 0 1
124.419 0 1
126.852 0 1
126.968 0 1
127.083 0 1
127.199 0 1
127.315 0 1
127.431 0 1
127.547 0 1
127.663 0 1
127.779 0 1
127.895 0 1
128.011 0 1
128.127 0 1
128.243 0 1
128.359 1661 40.7554
128.476 1595 39.9375
128.592 1586 39.8246
128.708 1644 40.5463
128.825 1633 40.4104
128.941 1727 41.5572
129.058 1715 41.4126
129.174 1756 41.9047
129.291 1712 41.3763
129.408 1697 41.1947
129.524 1651 40.6325
129.641 1514 38.9102
129.758 1465 38.2753
129.875 1428 37.7889
129.992 1327 36.428
130.108 1331 36.4829
130.225 1526 39.064
130.342 1675 40.9268
130.459 1683 41.0244
130.576 1864 43.1741
130.693 1835 42.8369
130.81 1890 43.4741
130.928 1845 42.9535
131.045 1829 42.7668
131.162 1936 44
131.279 1914 43.7493
131.396 1921 43.8292
131.513 1826 42.7317
131.631 1810 42.5441
131.748 1805 42.4853
131.865 1765 42.0119
131.983 1691 41.1218
132.1 1555 39.4335
132.217 1633 40.4104
132.335 1754 41.8808
132.452 1794 42.3556
132.57 1867 43.2088
132.687 1769 42.0595
132.804 1870 43.2435
132.922 1717 41.4367
133.039 1759 41.9404
133.157 1620 40.2492
133.274 1506 38.8072
133.392 1472 38.3667
133.509 1448 38.0526
133.627 1437 37.9078
133.744 1500 38.7298
133.862 1593 39.9124
133.979 1594 39.9249
134.097 1797 42.391
134.214 1736 41.6653
134.332 1920 43.8178
134.449 1827 42.7434
134.567 1803 42.4617
134.684 1918 43.795
134.802 1909 43.6921
134.919 1892 43.4971
135.037 1816 42.6146
135.154 1879 43.3474
135.272 1889 43.4626
135.389 1691 41.1218
135.507 1682 41.0122
135.624 1679 40.9756
135.742 1662 40.7676
135.859 1737 41.6773
135.977 1752 41.8569
136.094 1823 42.6966
136.211 1799 42.4146
136.329 1762 41.9762
136.446 1822 42.6849
136.564 1782 42.2137
136.681 1684 41.0366
136.798 1718 41.4488
136.915 1471 38.3536
137.033 1461 38.223
137.15 1461 38.223
137.267 1494 38.6523
137.384 1456 38.1576
137.502 1591 39.8873
137.619 1708 41.328
137.736 1732 41.6173
137.853 1750 41.833
137.97 1785 42.2493
138.087 1771 42.0833
138.204 1932 43.9545
138.321 1842 42.9185
138.438 1952 44.1814
138.555 1882 43.382
138.672 1914 43.7493
138.788 1908 43.6807
138.905 1849 43
139.022 1888 43.4511
139.139 1733 41.6293
139.255 1637 40.4599
139.372 1651 40.6325
139.488 1822 42.6849
139.605 1796 42.3792
139.721 1759 41.9404
139.838 1805 42.4853
139.954 1855 43.0697
140.071 1750 41.833
140.187 1758 41.9285
140.303 1728 41.5692
140.419 1520 38.9872
140.535 1581 39.7618
140.652 1502 38.7556
140.768 0 1
140.884 0 1
141 0 1
141.115 0 1
141.231 0 1
141.347 0 1
141.463 0 1
141.578 0 1
141.694 0 1
144.104 0 1
144.219 0 1
144.335 0 1
144.45 0 1
144.566 0 1
144.682 0 1
144.798 0 1
144.914 0 1
145.03 0 1
145.146 1311 36.2077
145.262 1451 38.092
145.378 1361 36.8917
145.494 1248 35.327
145.61 1275 35.7071
145.726 1195 34.5688
145.842 1203 34.6843
145.959 1158 34.0294
146.075 1197 34.5977
146.192 1220 34.9285
146.308 1270 35.6371
146.425 1296 36
146.541 1410 37.55
146.658 1392 37.3095
146.774 1425 37.7492
146.891 1408 37.5233
147.008 1571 39.6358
147.125 1465 38.2753
147.241 1420 37.6829
147.358 1498 38.704
147.475 1545 39.3065
147.592 1539 39.2301
147.709 1447 38.0395
147.826 1518 38.9615
147.943 1412 37.5766
148.06 1268 35.609
148.177 1320 36.3318
148.294 1331 36.4829
148.411 1394 37.3363
148.528 1450 38.0789
148.645 1450 38.0789
148.762 1491 38.6135
148.88 1512 38.8844
148.997 1429 37.8021
149.114 1480 38.4708
149.231 1378 37.1214
149.349 1339 36.5923
149.466 1322 36.3593
149.583 1343 36.647
149.701 1227 35.0286
149.818 1292 35.9444
149.935 1223 34.9714
150.053 1248 35.327
150.17 1311 36.2077
150.287 1373 37.054
150.405 1451 38.092
150.522 1403 37.4566
150.64 1455 38.1445
150.757 1468 38.3145
150.875 1550 39.37
150.992 1533 39.1535
151.11 1507 38.8201
151.227 1526 39.064
151.344 1540 39.2428
151.462 1507 38.8201
151.579 1541 39.2556
151.697 1458 38.1838
151.814 1286 35.8608
151.932 1343 36.647
152.049 1392 37.3095
152.167 1482 38.4968
152.284 1476 38.4187
152.402 1491 38.6135
152.519 1533 39.1535
152.636 1575 39.6863
152.754 1510 38.8587
152.871 1402 37.4433
152.989 1381 37.1618
153.106 1356 36.8239
153.223 1316 36.2767
153.341 1332 36.4966
153.458 1255 35.426
153.575 1253 35.3977
153.693 1356 36.8239
153.81 1437 37.9078
153.927 1476 38.4187
154.044 1575 39.6863
154.162 1516 38.9358
154.279 1504 38.7814
154.396 1542 39.2683
154.513 1570 39.6232
154.63 1604 40.05
154.747 1727 41.5572
154.864 1616 40.1995
154.981 1665 40.8044
155.098 1579 39.7366
155.215 1600 40
155.332 1561 39.5095
155.449 1462 38.2361
155.566 1514 38.9102
155.683 1521 39
155.8 1594 39.9249
155.917 1570 39.6232
156.033 1579 39.7366
156.15 0 1
156.267 0 1
156.383 0 1
156.5 0 1
156.617 0 1
156.733 0 1
156.85 0 1
156.966 0 1
157.082 0 1
157.199 0 1
157.315 0 1
157.431 0 1
157.547 0 1
157.664 0 1
157.78 0 1
157.896 0 1
158.012 0 1
158.128 0 1
158.244 0 1
158.359 0 1
158.475 0 1
158.591 0 1
158.706 0 1
