
6.15755 0 1
6.2731 0 1
6.3887 0 1
6.50437 0 1
6.62009 0 1
6.73587 0 1
6.8517 0 1
6.96759 0 1
7.08353 0 1
7.19952 0 1
7.31557 0 1
7.43166 0 1
7.54781 0 1
7.664 0 1
7.78024 0 1
7.89653 0 1
8.01286 0 1
8.12924 0 1
8.24567 0 1
8.36213 0 1
8.47864 0 1
8.59519 0 1
8.71178 0 1
8.82841 0 1
8.94508 0 1
9.06179 0 1
9.17853 0 1
9.29531 0 1
9.41212 0 1
9.52897 0 1
9.64584 0 1
9.76276 0 1
9.8797 0 1
9.99667 0 1
10.1137 0 1
10.2307 0 1
10.3478 0 1
10.4648 0 1
10.5819 0 1
10.6991 0 1
10.8162 0 1
10.9334 0 1
11.0506 0 1
11.1678 0 1
11.285 0 1
11.4023 0 1
11.5196 0 1
11.6369 0 1
11.7542 0 1
11.8715 0 1
11.9888 0 1
12.1062 0 1
12.2235 0 1
12.3409 0 1
12.4582 0 1
12.5756 0 1
12.693 0 1
12.8104 0 1
12.9278 0 1
13.0452 0 1
13.1626 0 1
13.28 0 1
13.3974 0 1
13.5149 0 1
13.6323 0 1
13.7497 0 1
13.8671 0 1
13.9845 0 1
14.1019 0 1
14.2193 0 1
14.3367 0 1
14.4541 0 1
14.5714 0 1
14.6888 0 1
14.8062 0 1
14.9235 0 1
15.0408 1030 32.0936
15.1581 1148 33.8821
15.2755 1111 33.3317
15.3927 1163 34.1028
15.51 1159 34.0441
15.6273 1123 33.5112
15.7445 1104 33.2265
15.8617 1085 32.9393
15.9789 1007 31.7333
16.0961 1085 32.9393
16.2132 1038 32.218
16.3304 1027 32.0468
16.4475 1021 31.9531
16.5646 992 31.496
16.6816 1019 31.9218
16.7986 1084 32.9242
16.9156 1031 32.1092
17.0326 1060 32.5576
17.1496 1061 32.573
17.2665 1120 33.4664
17.3833 1163 34.1028
17.5002 1084 32.9242
17.617 1123 33.5112
17.7338 1138 33.7343
17.8505 1244 35.2704
17.9672 1333 36.5103
18.0839 1301 36.0694
18.2005 1336 36.5513
18.3171 1323 36.3731
18.4337 1421 37.6962
18.5502 1429 37.8021
18.6666 1363 36.9188
18.7831 1375 37.081
18.8994 1324 36.3868
19.0158 1220 34.9285
19.1321 1223 34.9714
19.2483 1188 34.4674
19.3645 1132 33.6452
19.4806 1195 34.5688
19.5967 1119 33.4515
19.7128 1103 33.2114
19.8288 1098 33.1361
19.9447 961 31
20.0606 0 1
20.1764 0 1
20.2922 0 1
20.4079 0 1
20.5236 0 1
20.6392 0 1
20.7548 0 1
20.8702 0 1
23.3078 0 1
23.4233 0 1
23.539 0 1
23.6547 0 1
23.7704 0 1
23.8862 0 1
24.0021 0 1
24.118 0 1
24.234 0 1
24.35 0 1
24.4661 1080 32.8634
24.5822 1079 32.8481
24.6984 1095 33.0908
24.8146 1092 33.0454
24.9309 1059 32.5423
25.0472 1051 32.4191
25.1636 1043 32.2955
25.28 1106 33.2566
25.3965 1092 33.0454
25.513 1078 32.8329
25.6296 1182 34.3802
25.7462 1130 33.6155
25.8628 1208 34.7563
25.9795 1149 33.8969
26.0962 1201 34.6554
26.213 1262 35.5246
26.3298 1249 35.3412
26.4466 1249 35.3412
26.5635 1238 35.1852
26.6804 1389 37.2693
26.7973 1346 36.6879
26.9143 1305 36.1248
27.0313 1292 35.9444
27.1483 1298 36.0278
27.2653 1320 36.3318
27.3824 1287 35.8748
27.4996 1198 34.6121
27.6167 1229 35.0571
27.7339 1109 33.3017
27.8511 1176 34.2929
27.9683 1081 32.8786
28.0855 1117 33.4215
28.2028 1073 32.7567
28.3201 1048 32.3728
28.4374 1088 32.9848
28.5547 1064 32.619
28.6721 1046 32.3419
28.7894 1041 32.2645
28.9068 1062 32.5883
29.0242 1048 32.3728
29.1416 1029 32.078
29.259 1068 32.6803
29.3764 1030 32.0936
29.4939 1127 33.5708
29.6113 1121 33.4813
29.7288 1142 33.7935
29.8463 1180 34.3511
29.9638 1220 34.9285
30.0812 1184 34.4093
30.1987 1263 35.5387
30.3162 1294 35.9722
30.4337 1270 35.6371
30.5512 1233 35.1141
30.6687 1304 36.1109
30.7862 1217 34.8855
30.9037 1193 34.5398
31.0212 1177 34.3074
31.1387 1127 33.5708
31.2562 1131 33.6303
31.3737 1051 32.4191
31.4912 1082 32.8938
31.6087 1014 31.8434
31.7262 980 31.305
31.8436 997 31.5753
31.9611 984 31.3688
32.0785 974 31.209
32.1959 1056 32.4962
32.3134 1054 32.4654
32.4308 1054 32.4654
32.5482 1123 33.5112
32.6655 1053 32.45
32.7829 1052 32.4345
32.9002 1047 32.3574
33.0176 1049 32.3883
33.1349 1077 32.8177
33.2522 1119 33.4515
33.3694 1121 33.4813
33.4867 1130 33.6155
33.6039 1155 33.9853
33.7211 1182 34.3802
33.8383 1164 34.1174
33.9554 1165 34.1321
34.0725 1187 34.4529
34.1896 1181 34.3657
34.3067 1138 33.7343
34.4237 1122 33.4963
34.5407 1172 34.2345
34.6577 1134 33.6749
34.7746 1090 33.0151
34.8915 1067 32.665
35.0084 1020 31.9374
35.1252 933 30.545
35.242 934 30.5614
35.3587 956 30.9192
35.4755 923 30.3809
35.5921 968 31.1127
35.7088 971 31.1609
35.8254 1032 32.1248
35.9419 1053 32.45
36.0584 957 30.9354
36.1749 1034 32.1559
36.2913 1021 31.9531
36.4077 1002 31.6544
36.524 1054 32.4654
36.6403 1061 32.573
36.7565 1063 32.6037
36.8727 974 31.209
36.9889 977 31.257
37.1049 1019 31.9218
37.221 0 1
37.3369 0 1
37.4529 0 1
37.5687 0 1
37.6845 0 1
37.8003 0 1
37.916 0 1
38.0316 0 1
38.1472 0 1
40.5851 0 1
40.7008 0 1
40.8164 0 1
40.9322 0 1
41.048 0 1
41.1639 0 1
41.2798 0 1
41.3958 0 1
41.5118 0 1
41.6279 0 1
41.744 802 28.3196
41.8602 864 29.3939
41.9765 854 29.2233
42.0928 882 29.6985
42.2091 887 29.7825
42.3255 871 29.5127
42.4419 896 29.9333
42.5584 940 30.6594
42.675 915 30.249
42.7915 924 30.3974
42.9081 968 31.1127
43.0248 1031 32.1092
43.1415 1006 31.7175
43.2582 920 30.3315
43.375 1037 32.2025
43.4918 980 31.305
43.6087 945 30.7409
43.7256 957 30.9354
43.8425 927 30.4467
43.9595 887 29.7825
44.0765 891 29.8496
44.1935 954 30.8869
44.3106 960 30.9839
44.4277 837 28.931
44.5448 883 29.7153
44.6619 867 29.4449
44.7791 849 29.1376
44.8963 839 28.9655
45.0136 884 29.7321
45.1308 822 28.6705
45.2481 867 29.4449
45.3654 838 28.9482
45.4827 826 28.7402
45.6001 778 27.8927
45.7174 767 27.6948
45.8348 753 27.4408
45.9522 729 27
46.0697 735 27.1109
46.1871 736 27.1293
46.3046 758 27.5318
46.422 731 27.037
46.5395 709 26.6271
46.657 723 26.8887
46.7745 682 26.1151
46.892 651 25.5147
47.0096 692 26.3059
47.1271 658 25.6515
47.2446 652 25.5343
47.3622 710 26.6458
47.4797 660 25.6905
47.5973 633 25.1595
47.7149 661 25.7099
47.8324 616 24.8193
47.95 623 24.96
48.0675 629 25.0799
48.1851 627 25.04
48.3027 560 23.6643
48.4202 555 23.5584
48.5378 603 24.5561
48.6554 556 23.5797
48.7729 583 24.1454
48.8904 553 23.516
49.008 583 24.1454
49.1255 581 24.1039
49.243 529 23
49.3605 551 23.4734
49.478 513 22.6495
49.5955 516 22.7156
49.713 515 22.6936
49.8304 518 22.7596
49.9479 575 23.9792
50.0653 589 24.2693
50.1827 634 25.1794
50.3001 641 25.318
50.4175 616 24.8193
50.5348 593 24.3516
50.6521 631 25.1197
50.7694 649 25.4755
50.8867 678 26.0384
51.004 664 25.7682
51.1212 690 26.2679
51.2384 734 27.0924
51.3556 728 26.9815
51.4727 786 28.0357
51.5899 726 26.9444
51.707 769 27.7308
51.824 765 27.6586
51.9411 721 26.8514
52.0581 695 26.3629
52.175 728 26.9815
52.2919 736 27.1293
52.4088 726 26.9444
52.5257 703 26.5141
52.6425 686 26.1916
52.7593 676 26
52.876 700 26.4575
52.9927 779 27.9106
53.1094 733 27.074
53.226 731 27.037
53.3426 735 27.1109
53.4591 793 28.1603
53.5756 811 28.4781
53.692 856 29.2575
53.8084 898 29.9666
53.9248 874 29.5635
54.0411 851 29.1719
54.1573 931 30.5123
54.2735 0 1
54.3896 0 1
54.5057 0 1
54.6217 0 1
54.7377 0 1
54.8537 0 1
54.9695 0 1
55.0853 0 1
55.2011 0 1
55.3168 0 1
55.4324 0 1
57.824 0 1
57.9396 0 1
58.0553 0 1
58.1711 0 1
58.2869 0 1
58.4028 0 1
58.5187 0 1
58.6347 0 1
58.7508 0 1
58.8669 0 1
58.983 972 31.1769
59.0992 1000 31.6228
59.2155 1045 32.3265
59.3318 1074 32.7719
59.4482 1047 32.3574
59.5646 1114 33.3766
59.681 1148 33.8821
59.7975 1175 34.2783
59.9141 1210 34.7851
60.0306 1145 33.8378
60.1473 1141 33.7787
60.2639 1131 33.6303
60.3807 1090 33.0151
60.4974 1034 32.1559
60.6142 981 31.3209
60.731 961 31
60.8479 899 29.9833
60.9648 878 29.6311
61.0818 866 29.4279
61.1987 865 29.4109
61.3158 870 29.4958
61.4328 859 29.3087
61.5499 904 30.0666
61.667 918 30.2985
61.7841 937 30.6105
61.9013 920 30.3315
62.0185 878 29.6311
62.1357 934 30.5614
62.253 980 31.305
62.3702 950 30.8221
62.4875 1021 31.9531
62.6049 957 30.9354
62.7222 971 31.1609
62.8396 982 31.3369
62.9569 1019 31.9218
63.0743 1136 33.7046
63.1918 1089 33
63.3092 1132 33.6452
63.4267 1059 32.5423
63.5441 1081 32.8786
63.6616 1131 33.6303
63.7791 1010 31.7805
63.8966 1006 31.7175
64.0142 956 30.9192
64.1317 892 29.8664
64.2492 840 28.9828
64.3668 803 28.3373
64.4843 790 28.1069
64.6019 796 28.2135
64.7195 815 28.5482
64.837 850 29.1548
64.9546 820 28.6356
65.0722 806 28.3901
65.1898 849 29.1376
65.3074 858 29.2916
65.4249 863 29.3769
65.5425 822 28.6705
65.6601 886 29.7658
65.7777 857 29.2746
65.8952 911 30.1828
66.0128 879 29.6479
66.1304 962 31.0161
66.2479 1012 31.8119
66.3655 986 31.4006
66.483 1085 32.9393
66.6005 1045 32.3265
66.718 1141 33.7787
66.8355 1038 32.218
66.953 1126 33.5559
67.0705 1049 32.3883
67.1879 1036 32.187
67.3054 1056 32.4962
67.4228 998 31.5911
67.5402 906 30.0998
67.6576 852 29.189
67.7749 782 27.9643
67.8923 787 28.0535
68.0096 805 28.3725
68.1269 716 26.7582
68.2442 751 27.4044
68.3614 792 28.1425
68.4787 827 28.7576
68.5958 833 28.8617
68.713 902 30.0333
68.8302 868 29.4618
68.9473 858 29.2916
69.0643 873 29.5466
69.1814 859 29.3087
69.2984 925 30.4138
69.4154 930 30.4959
69.5323 925 30.4138
69.6492 986 31.4006
69.7661 1003 31.6702
69.8829 1014 31.8434
69.9997 1044 32.311
70.1165 1088 32.9848
70.2332 1197 34.5977
70.3499 1126 33.5559
70.4665 1166 34.1467
70.5831 1194 34.5543
70.6996 1128 33.5857
70.8161 1161 34.0735
70.9326 1043 32.2955
71.049 984 31.3688
71.1653 904 30.0666
71.2817 815 28.5482
71.3979 801 28.3019
71.5141 774 27.8209
71.6303 762 27.6043
71.7464 735 27.1109
71.8624 0 1
71.9784 0 1
72.0944 0 1
72.2102 0 1
72.3261 0 1
72.4418 0 1
72.5575 0 1
72.6732 0 1
75.1054 0 1
75.2209 0 1
75.3365 0 1
75.4521 0 1
75.5678 0 1
75.6835 0 1
75.7993 0 1
75.9151 0 1
76.031 0 1
76.147 977 31.257
76.263 972 31.1769
76.3791 905 30.0832
76.4952 852 29.189
76.6113 842 29.0172
76.7276 862 29.3598
76.8438 857 29.2746
76.9601 787 28.0535
77.0765 808 28.4253
77.1929 799 28.2666
77.3093 834 28.8791
77.4258 844 29.0517
77.5423 866 29.4279
77.6589 909 30.1496
77.7755 871 29.5127
77.8921 879 29.6479
78.0088 902 30.0333
78.1256 881 29.6816
78.2423 954 30.8869
78.3591 899 29.9833
78.4759 950 30.8221
78.5928 1022 31.9687
78.7097 1053 32.45
78.8266 1076 32.8024
78.9436 1141 33.7787
79.0606 1088 32.9848
79.1776 1059 32.5423
79.2946 1144 33.8231
79.4117 1147 33.8674
79.5288 1157 34.0147
79.6459 1189 34.4819
79.7631 1092 33.0454
79.8802 1054 32.4654
79.9974 940 30.6594
80.1147 857 29.2746
80.2319 850 29.1548
80.3491 804 28.3549
80.4664 835 28.8964
80.5837 801 28.3019
80.701 884 29.7321
80.8183 848 29.1204
80.9357 757 27.5136
81.053 823 28.688
81.1704 881 29.6816
81.2877 976 31.241
81.4051 919 30.315
81.5225 879 29.6479
81.6399 921 30.348
81.7573 928 30.4631
81.8747 899 29.9833
81.9922 867 29.4449
82.1096 927 30.4467
82.227 1048 32.3728
82.3444 1062 32.5883
82.4619 1148 33.8821
82.5793 1201 34.6554
82.6967 1128 33.5857
82.8142 1160 34.0588
82.9316 1166 34.1467
83.049 1184 34.4093
83.1664 1190 34.4964
83.2838 1124 33.5261
83.4012 1080 32.8634
83.5186 1001 31.6386
83.636 895 29.9166
83.7534 904 30.0666
83.8708 855 29.2404
83.9881 874 29.5635
84.1055 902 30.0333
84.2228 851 29.1719
84.3401 864 29.3939
84.4575 885 29.7489
84.5747 865 29.4109
84.692 892 29.8664
84.8093 988 31.4325
84.9265 936 30.5941
85.0437 963 31.0322
85.1609 911 30.1828
85.2781 946 30.7571
85.3952 925 30.4138
85.5123 952 30.8545
85.6294 972 31.1769
85.7465 1042 32.28
85.8636 1120 33.4664
85.9806 1212 34.8138
86.0976 1132 33.6452
86.2145 1215 34.8569
86.3315 1238 35.1852
86.4484 1253 35.3977
86.5652 1322 36.3593
86.682 1318 36.3043
86.7988 1276 35.7211
86.9156 1201 34.6554
87.0323 1115 33.3916
87.149 1038 32.218
87.2657 1036 32.187
87.3823 999 31.607
87.4988 971 31.1609
87.6154 999 31.607
87.7318 947 30.7734
87.8483 950 30.8221
87.9647 943 30.7083
88.081 953 30.8707
88.1973 1008 31.749
88.3136 1036 32.187
88.4298 1015 31.8591
88.546 1018 31.9061
88.6621 988 31.4325
88.7781 926 30.4302
88.8942 0 1
89.0101 0 1
89.126 0 1
89.2419 0 1
89.3577 0 1
89.4734 0 1
89.5891 0 1
89.7047 0 1
89.8203 0 1
89.9358 0 1
92.3269 0 1
92.4424 0 1
92.558 0 1
92.6736 0 1
92.7893 0 1
92.905 0 1
93.0208 0 1
93.1366 0 1
93.2525 0 1
93.3685 0 1
93.4845 0 1
93.6005 962 31.0161
93.7167 968 31.1127
93.8328 980 31.305
93.949 981 31.3209
94.0653 951 30.8383
94.1816 924 30.3974
94.2979 899 29.9833
94.4143 968 31.1127
94.5307 1014 31.8434
94.6472 1046 32.3419
94.7637 1157 34.0147
94.8803 1152 33.9411
94.9969 1184 34.4093
95.1135 1201 34.6554
95.2302 1188 34.4674
95.3469 1194 34.5543
95.4637 1167 34.1614
95.5805 1161 34.0735
95.6973 1200 34.641
95.8142 1248 35.327
95.9311 1142 33.7935
96.048 1062 32.5883
96.1649 1015 31.8591
96.2819 1019 31.9218
96.3989 1001 31.6386
96.516 931 30.5123
96.633 939 30.6431
96.7501 930 30.4959
96.8673 947 30.7734
96.9844 897 29.95
97.1016 913 30.2159
97.2188 945 30.7409
97.336 973 31.1929
97.4532 963 31.0322
97.5704 907 30.1164
97.6877 877 29.6142
97.805 905 30.0832
97.9223 911 30.1828
98.0396 940 30.6594
98.1569 1009 31.7648
98.2743 946 30.7571
98.3916 988 31.4325
98.509 1081 32.8786
98.6264 1158 34.0294
98.7438 1189 34.4819
98.8612 1150 33.9116
98.9786 1225 35
99.096 1167 34.1614
99.2134 1254 35.4119
99.3308 1192 34.5254
99.4482 1251 35.3695
99.5656 1120 33.4664
99.6831 1095 33.0908
99.8005 1000 31.6228
99.9179 929 30.4795
100.035 979 31.289
100.153 919 30.315
100.27 904 30.0666
100.388 865 29.4109
100.505 891 29.8496
100.622 863 29.3769
100.74 866 29.4279
100.857 898 29.9666
100.975 920 30.3315
101.092 922 30.3645
101.209 887 29.7825
101.327 887 29.7825
101.444 866 29.4279
101.561 971 31.1609
101.679 898 29.9666
101.796 944 30.7246
101.913 1018 31.9061
102.03 1060 32.5576
102.148 1156 34
102.265 1079 32.8481
102.382 1287 35.8748
102.499 1214 34.8425
102.616 1165 34.1321
102.733 1202 34.6699
102.851 1189 34.4819
102.968 1237 35.171
103.085 1126 33.5559
103.202 1166 34.1467
103.319 1128 33.5857
103.436 1079 32.8481
103.552 1027 32.0468
103.669 979 31.289
103.786 1022 31.9687
103.903 964 31.0483
104.02 1013 31.8277
104.137 1002 31.6544
104.253 939 30.6431
104.37 1006 31.7175
104.487 963 31.0322
104.603 964 31.0483
104.72 960 30.9839
104.836 954 30.8869
104.953 963 31.0322
105.069 926 30.4302
105.186 966 31.0805
105.302 1094 33.0757
105.418 1136 33.7046
105.535 1161 34.0735
105.651 1184 34.4093
105.767 1235 35.1426
105.883 1100 33.1662
105.999 1198 34.6121
106.115 0 1
106.231 0 1
106.347 0 1
106.463 0 1
106.579 0 1
106.694 0 1
106.81 0 1
106.926 0 1
107.041 0 1
107.157 0 1
109.576 0 1
109.692 0 1
109.807 0 1
109.923 0 1
110.039 0 1
110.155 0 1
110.27 0 1
110.386 0 1
110.502 0 1
110.618 1025 32.0156
110.735 1068 32.6803
110.851 1071 32.7261
110.967 1024 32
111.083 998 31.5911
111.199 1098 33.1361
111.316 1053 32.45
111.432 1198 34.6121
111.549 1134 33.6749
111.665 1078 32.8329
111.782 1072 32.7414
111.898 1003 31.6702
112.015 1016 31.8748
112.132 943 30.7083
112.248 904 30.0666
112.365 915 30.249
112.482 950 30.8221
112.599 769 27.7308
112.716 810 28.4605
112.832 863 29.3769
112.949 796 28.2135
113.066 787 28.0535
113.183 743 27.258
113.3 732 27.0555
113.417 744 27.2764
113.534 734 27.0924
113.652 787 28.0535
113.769 815 28.5482
113.886 781 27.9464
114.003 828 28.775
114.12 888 29.7993
114.238 914 30.2324
114.355 864 29.3939
114.472 848 29.1204
114.589 798 28.2489
114.707 840 28.9828
114.824 830 28.8097
114.942 883 29.7153
115.059 941 30.6757
115.176 875 29.5804
115.294 866 29.4279
115.411 824 28.7054
115.529 794 28.178
115.646 749 27.3679
115.764 729 27
115.881 730 27.0185
115.999 678 26.0384
116.116 681 26.096
116.234 650 25.4951
116.351 629 25.0799
116.469 656 25.6125
116.586 616 24.8193
116.704 579 24.0624
116.821 553 23.516
116.939 608 24.6577
117.056 583 24.1454
117.174 656 25.6125
117.291 652 25.5343
117.409 667 25.8263
117.526 681 26.096
117.644 650 25.4951
117.761 739 27.1846
117.879 696 26.3818
117.996 710 26.6458
118.114 645 25.3969
118.231 666 25.807
118.349 722 26.8701
118.466 706 26.5707
118.584 743 27.258
118.701 775 27.8388
118.819 823 28.688
118.936 713 26.7021
119.053 779 27.9106
119.171 719 26.8142
119.288 756 27.4955
119.405 718 26.7955
119.523 666 25.807
119.64 692 26.3059
119.757 676 26
119.875 675 25.9808
119.992 667 25.8263
120.109 656 25.6125
120.226 608 24.6577
120.343 629 25.0799
120.46 601 24.5153
120.578 685 26.1725
120.695 696 26.3818
120.812 661 25.7099
120.929 739 27.1846
121.046 724 26.9072
121.163 708 26.6083
121.279 744 27.2764
121.396 758 27.5318
121.513 779 27.9106
121.63 718 26.7955
121.747 743 27.258
121.863 651 25.5147
121.98 685 26.1725
122.097 796 28.2135
122.213 850 29.1548
122.33 880 29.6648
122.446 886 29.7658
122.563 912 30.1993
122.679 822 28.6705
122.795 888 29.7993
122.912 824 28.7054
123.028 922 30.3645
123.144 847 29.1033
123.26 860 29.3258
123.377 0 1
123.493 0 1
123.609 0 1
123.725 0 1
123.84 0 1
123.956 0 1
124.072 0 1
124.188 0 1
124.303 0 1
124.419 0 1
126.852 0 1
126.968 0 1
127.083 0 1
127.199 0 1
127.315 0 1
127.431 0 1
127.547 0 1
127.663 0 1
127.779 0 1
127.895 0 1
128.011 0 1
128.127 0 1
128.243 0 1
128.359 966 31.0805
128.476 956 30.9192
128.592 900 30
128.708 904 30.0666
128.825 921 30.348
128.941 884 29.7321
129.058 855 29.2404
129.174 832 28.8444
129.291 841 29
129.408 849 29.1376
129.524 852 29.189
129.641 838 28.9482
129.758 839 28.9655
129.875 875 29.5804
129.992 821 28.6531
130.108 806 28.3901
130.225 844 29.0517
130.342 846 29.0861
130.459 860 29.3258
130.576 847 29.1033
130.693 705 26.5518
130.81 621 24.9199
130.928 655 25.593
131.045 751 27.4044
131.162 828 28.775
131.279 911 30.1828
131.396 863 29.3769
131.513 887 29.7825
131.631 937 30.6105
131.748 916 30.2655
131.865 900 30
131.983 837 28.931
132.1 859 29.3087
132.217 845 29.0689
132.335 765 27.6586
132.452 818 28.6007
132.57 783 27.9821
132.687 727 26.9629
132.804 788 28.0713
132.922 683 26.1343
133.039 758 27.5318
133.157 738 27.1662
133.274 720 26.8328
133.392 745 27.2947
133.509 711 26.6646
133.627 711 26.6646
133.744 708 26.6083
133.862 706 26.5707
133.979 736 27.1293
134.097 687 26.2107
134.214 604 24.5764
134.332 480 21.9089
134.449 502 22.4054
134.567 611 24.7184
134.684 697 26.4008
134.802 711 26.6646
134.919 726 26.9444
135.037 706 26.5707
135.154 685 26.1725
135.272 726 26.9444
135.389 712 26.6833
135.507 678 26.0384
135.624 716 26.7582
135.742 666 25.807
135.859 632 25.1396
135.977 662 25.7294
136.094 613 24.7588
136.211 594 24.3721
136.329 586 24.2074
136.446 598 24.454
136.564 583 24.1454
136.681 573 23.9374
136.798 604 24.5764
136.915 576 24
137.033 633 25.1595
137.15 567 23.8118
137.267 568 23.8328
137.384 614 24.779
137.502 590 24.2899
137.619 564 23.7487
137.736 517 22.7376
137.853 453 21.2838
137.97 398 19.9499
138.087 481 21.9317
138.204 521 22.8254
138.321 610 24.6982
138.438 582 24.1247
138.555 624 24.98
138.672 585 24.1868
138.788 665 25.7876
138.905 648 25.4558
139.022 640 25.2982
139.139 618 24.8596
139.255 623 24.96
139.372 640 25.2982
139.488 642 25.3377
139.605 687 26.2107
139.721 677 26.0192
139.838 638 25.2587
139.954 676 26
140.071 627 25.04
140.187 644 25.3772
140.303 576 24
140.419 601 24.5153
140.535 611 24.7184
140.652 631 25.1197
140.768 0 1
140.884 0 1
141 0 1
141.115 0 1
141.231 0 1
141.347 0 1
141.463 0 1
141.578 0 1
141.694 0 1
144.104 0 1
144.219 0 1
144.335 0 1
144.45 0 1
144.566 0 1
144.682 0 1
144.798 0 1
144.914 0 1
145.03 0 1
145.146 505 22.4722
145.262 554 23.5372
145.378 564 23.7487
145.494 526 22.9347
145.61 501 22.383
145.726 510 22.5832
145.842 467 21.6102
145.959 498 22.3159
146.075 495 22.2486
146.192 497 22.2935
146.308 464 21.5407
146.425 452 21.2603
146.541 436 20.8806
146.658 428 20.6882
146.774 414 20.347
146.891 403 20.0749
147.008 441 21
147.125 434 20.8327
147.241 452 21.2603
147.358 485 22.0227
147.475 441 21
147.592 383 19.5704
147.709 444 21.0713
147.826 426 20.6398
147.943 408 20.199
148.06 419 20.4695
148.177 405 20.1246
148.294 440 20.9762
148.411 395 19.8746
148.528 401 20.025
148.645 406 20.1494
148.762 395 19.8746
148.88 382 19.5448
148.997 385 19.6214
149.114 371 19.2614
149.231 349 18.6815
149.349 330 18.1659
149.466 383 19.5704
149.583 350 18.7083
149.701 317 17.8045
149.818 355 18.8414
149.935 311 17.6352
150.053 327 18.0831
150.17 340 18.4391
150.287 335 18.303
150.405 321 17.9165
150.522 340 18.4391
150.64 349 18.6815
150.757 378 19.4422
150.875 382 19.5448
150.992 376 19.3907
151.11 363 19.0526
151.227 414 20.347
151.344 359 18.9473
151.462 367 19.1572
151.579 366 19.1311
151.697 343 18.5203
151.814 401 20.025
151.932 364 19.0788
152.049 371 19.2614
152.167 394 19.8494
152.284 358 18.9209
152.402 381 19.5192
152.519 348 18.6548
152.636 348 18.6548
152.754 366 19.1311
152.871 361 19
152.989 381 19.5192
153.106 360 18.9737
153.223 393 19.8242
153.341 357 18.8944
153.458 385 19.6214
153.575 380 19.4936
153.693 387 19.6723
153.81 408 20.199
153.927 408 20.199
154.044 420 20.4939
154.162 423 20.567
154.279 458 21.4009
154.396 493 22.2036
154.513 492 22.1811
154.63 438 20.9284
154.747 503 22.4277
154.864 504 22.4499
154.981 471 21.7025
155.098 538 23.1948
155.215 504 22.4499
155.332 445 21.095
155.449 493 22.2036
155.566 483 21.9773
155.683 497 22.2935
155.8 458 21.4009
155.917 444 21.0713
156.033 476 21.8174
156.15 0 1
156.267 0 1
156.383 0 1
156.5 0 1
156.617 0 1
156.733 0 1
156.85 0 1
156.966 0 1
157.082 0 1
157.199 0 1
157.315 0 1
157.431 0 1
157.547 0 1
157.664 0 1
157.78 0 1
157.896 0 1
158.012 0 1
158.128 0 1
158.244 0 1
158.359 0 1
158.475 0 1
158.591 0 1
158.706 0 1
