
6.15755 0 1
6.2731 0 1
6.3887 0 1
6.50437 0 1
6.62009 0 1
6.73587 0 1
6.8517 0 1
6.96759 0 1
7.08353 0 1
7.19952 0 1
7.31557 0 1
7.43166 0 1
7.54781 0 1
7.664 0 1
7.78024 0 1
7.89653 0 1
8.01286 0 1
8.12924 0 1
8.24567 0 1
8.36213 0 1
8.47864 0 1
8.59519 0 1
8.71178 0 1
8.82841 0 1
8.94508 0 1
9.06179 0 1
9.17853 0 1
9.29531 0 1
9.41212 0 1
9.52897 0 1
9.64584 0 1
9.76276 0 1
9.8797 0 1
9.99667 0 1
10.1137 0 1
10.2307 0 1
10.3478 0 1
10.4648 0 1
10.5819 0 1
10.6991 0 1
10.8162 0 1
10.9334 0 1
11.0506 0 1
11.1678 0 1
11.285 0 1
11.4023 0 1
11.5196 0 1
11.6369 0 1
11.7542 0 1
11.8715 0 1
11.9888 0 1
12.1062 0 1
12.2235 0 1
12.3409 0 1
12.4582 0 1
12.5756 0 1
12.693 0 1
12.8104 0 1
12.9278 0 1
13.0452 0 1
13.1626 0 1
13.28 0 1
13.3974 0 1
13.5149 0 1
13.6323 0 1
13.7497 0 1
13.8671 0 1
13.9845 0 1
14.1019 0 1
14.2193 0 1
14.3367 0 1
14.4541 0 1
14.5714 0 1
14.6888 0 1
14.8062 0 1
14.9235 0 1
15.0408 0 0
15.1581 0 0
15.2755 0 0
15.3927 0 0
15.51 0 0
15.6273 0 0
15.7445 0 0
15.8617 0 0
15.9789 0 0
16.0961 0 0
16.2132 0 0
16.3304 0 0
16.4475 0 0
16.5646 0 0
16.6816 0 0
16.7986 0 0
16.9156 0 0
17.0326 0 0
17.1496 0 0
17.2665 0 0
17.3833 0 0
17.5002 0 0
17.617 0 0
17.7338 0 0
17.8505 0 0
17.9672 0 0
18.0839 0 0
18.2005 0 0
18.3171 0 0
18.4337 0 0
18.5502 0 0
18.6666 0 0
18.7831 0 0
18.8994 0 0
19.0158 0 0
19.1321 0 0
19.2483 0 0
19.3645 0 0
19.4806 0 0
19.5967 0 0
19.7128 0 0
19.8288 0 0
19.9447 0 0
20.0606 0 1
20.1764 0 1
20.2922 0 1
20.4079 0 1
20.5236 0 1
20.6392 0 1
20.7548 0 1
20.8702 0 1
23.3078 0 1
23.4233 0 1
23.539 0 1
23.6547 0 1
23.7704 0 1
23.8862 0 1
24.0021 0 1
24.118 0 1
24.234 0 1
24.35 0 1
24.4661 1172 34.2345
24.5822 1150 33.9116
24.6984 1163 34.1028
24.8146 1090 33.0151
24.9309 1066 32.6497
25.0472 1052 32.4345
25.1636 1101 33.1813
25.28 1066 32.6497
25.3965 1091 33.0303
25.513 1218 34.8999
25.6296 1201 34.6554
25.7462 1279 35.7631
25.8628 1254 35.4119
25.9795 1280 35.7771
26.0962 1278 35.7491
26.213 1303 36.0971
26.3298 1221 34.9428
26.4466 1237 35.171
26.5635 1210 34.7851
26.6804 1159 34.0441
26.7973 1154 33.9706
26.9143 1171 34.2199
27.0313 1162 34.0881
27.1483 1212 34.8138
27.2653 1240 35.2136
27.3824 1275 35.7071
27.4996 1225 35
27.6167 1263 35.5387
27.7339 1332 36.4966
27.8511 1213 34.8281
27.9683 1263 35.5387
28.0855 1117 33.4215
28.2028 1159 34.0441
28.3201 1154 33.9706
28.4374 1090 33.0151
28.5547 1060 32.5576
28.6721 1037 32.2025
28.7894 990 31.4643
28.9068 1124 33.5261
29.0242 1059 32.5423
29.1416 1146 33.8526
29.259 1115 33.3916
29.3764 1158 34.0294
29.4939 1132 33.6452
29.6113 1172 34.2345
29.7288 1149 33.8969
29.8463 1101 33.1813
29.9638 1104 33.2265
30.0812 1095 33.0908
30.1987 1046 32.3419
30.3162 1060 32.5576
30.4337 1121 33.4813
30.5512 1107 33.2716
30.6687 1218 34.8999
30.7862 1212 34.8138
30.9037 1233 35.1141
31.0212 1276 35.7211
31.1387 1227 35.0286
31.2562 1237 35.171
31.3737 1231 35.0856
31.4912 1210 34.7851
31.6087 1122 33.4963
31.7262 1086 32.9545
31.8436 1113 33.3617
31.9611 1032 32.1248
32.0785 992 31.496
32.1959 1004 31.686
32.3134 1013 31.8277
32.4308 996 31.5595
32.5482 1017 31.8904
32.6655 989 31.4484
32.7829 1042 32.28
32.9002 1074 32.7719
33.0176 1145 33.8378
33.1349 1177 34.3074
33.2522 1065 32.6343
33.3694 1157 34.0147
33.4867 1154 33.9706
33.6039 1128 33.5857
33.7211 1074 32.7719
33.8383 1023 31.9844
33.9554 1039 32.2335
34.0725 1039 32.2335
34.1896 1083 32.909
34.3067 1108 33.2866
34.4237 1076 32.8024
34.5407 1133 33.6601
34.6577 1191 34.5109
34.7746 1154 33.9706
34.8915 1214 34.8425
35.0084 1157 34.0147
35.1252 1189 34.4819
35.242 1127 33.5708
35.3587 1065 32.6343
35.4755 1110 33.3167
35.5921 1023 31.9844
35.7088 944 30.7246
35.8254 934 30.5614
35.9419 953 30.8707
36.0584 899 29.9833
36.1749 928 30.4631
36.2913 968 31.1127
36.4077 988 31.4325
36.524 1011 31.7962
36.6403 1096 33.1059
36.7565 1087 32.9697
36.8727 1084 32.9242
36.9889 1116 33.4066
37.1049 1096 33.1059
37.221 0 1
37.3369 0 1
37.4529 0 1
37.5687 0 1
37.6845 0 1
37.8003 0 1
37.916 0 1
38.0316 0 1
38.1472 0 1
40.5851 0 1
40.7008 0 1
40.8164 0 1
40.9322 0 1
41.048 0 1
41.1639 0 1
41.2798 0 1
41.3958 0 1
41.5118 0 1
41.6279 0 1
41.744 720 26.8328
41.8602 818 28.6007
41.9765 898 29.9666
42.0928 840 28.9828
42.2091 907 30.1164
42.3255 853 29.2062
42.4419 804 28.3549
42.5584 791 28.1247
42.675 797 28.2312
42.7915 729 27
42.9081 749 27.3679
43.0248 809 28.4429
43.1415 855 29.2404
43.2582 858 29.2916
43.375 848 29.1204
43.4918 839 28.9655
43.6087 826 28.7402
43.7256 861 29.3428
43.8425 804 28.3549
43.9595 841 29
44.0765 841 29
44.1935 788 28.0713
44.3106 799 28.2666
44.4277 737 27.1477
44.5448 654 25.5734
44.6619 600 24.4949
44.7791 607 24.6374
44.8963 585 24.1868
45.0136 589 24.2693
45.1308 578 24.0416
45.2481 582 24.1247
45.3654 628 25.0599
45.4827 660 25.6905
45.6001 673 25.9422
45.7174 672 25.923
45.8348 645 25.3969
45.9522 655 25.593
46.0697 573 23.9374
46.1871 598 24.454
46.3046 571 23.8956
46.422 547 23.388
46.5395 559 23.6432
46.657 606 24.6171
46.7745 596 24.4131
46.892 601 24.5153
47.0096 622 24.9399
47.1271 599 24.4745
47.2446 635 25.1992
47.3622 565 23.7697
47.4797 623 24.96
47.5973 586 24.2074
47.7149 571 23.8956
47.8324 539 23.2164
47.95 569 23.8537
48.0675 472 21.7256
48.1851 461 21.4709
48.3027 456 21.3542
48.4202 460 21.4476
48.5378 429 20.7123
48.6554 459 21.4243
48.7729 464 21.5407
48.8904 485 22.0227
49.008 509 22.561
49.1255 499 22.3383
49.243 487 22.0681
49.3605 519 22.7816
49.478 488 22.0907
49.5955 457 21.3776
49.713 406 20.1494
49.8304 416 20.3961
49.9479 436 20.8806
50.0653 463 21.5174
50.1827 493 22.2036
50.3001 510 22.5832
50.4175 540 23.2379
50.5348 608 24.6577
50.6521 592 24.3311
50.7694 635 25.1992
50.8867 649 25.4755
51.004 637 25.2389
51.1212 602 24.5357
51.2384 628 25.0599
51.3556 634 25.1794
51.4727 619 24.8797
51.5899 614 24.779
51.707 562 23.7065
51.824 560 23.6643
51.9411 598 24.454
52.0581 620 24.8998
52.175 618 24.8596
52.2919 729 27
52.4088 713 26.7021
52.5257 735 27.1109
52.6425 775 27.8388
52.7593 789 28.0891
52.876 802 28.3196
52.9927 799 28.2666
53.1094 734 27.0924
53.226 761 27.5862
53.3426 662 25.7294
53.4591 762 27.6043
53.5756 694 26.3439
53.692 783 27.9821
53.8084 840 28.9828
53.9248 880 29.6648
54.0411 894 29.8998
54.1573 983 31.3528
54.2735 0 1
54.3896 0 1
54.5057 0 1
54.6217 0 1
54.7377 0 1
54.8537 0 1
54.9695 0 1
55.0853 0 1
55.2011 0 1
55.3168 0 1
55.4324 0 1
57.824 0 1
57.9396 0 1
58.0553 0 1
58.1711 0 1
58.2869 0 1
58.4028 0 1
58.5187 0 1
58.6347 0 1
58.7508 0 1
58.8669 0 1
58.983 941 30.6757
59.0992 1006 31.7175
59.2155 1028 32.0624
59.3318 1040 32.249
59.4482 1107 33.2716
59.5646 1157 34.0147
59.681 1149 33.8969
59.7975 1086 32.9545
59.9141 1111 33.3317
60.0306 1028 32.0624
60.1473 1021 31.9531
60.2639 953 30.8707
60.3807 870 29.4958
60.4974 855 29.2404
60.6142 828 28.775
60.731 844 29.0517
60.8479 851 29.1719
60.9648 876 29.5973
61.0818 943 30.7083
61.1987 993 31.5119
61.3158 910 30.1662
61.4328 895 29.9166
61.5499 909 30.1496
61.667 851 29.1719
61.7841 830 28.8097
61.9013 773 27.8029
62.0185 810 28.4605
62.1357 872 29.5296
62.253 822 28.6705
62.3702 948 30.7896
62.4875 1035 32.1714
62.6049 1078 32.8329
62.7222 1105 33.2415
62.8396 1093 33.0606
62.9569 1159 34.0441
63.0743 1083 32.909
63.1918 1121 33.4813
63.3092 1070 32.7109
63.4267 1144 33.8231
63.5441 1076 32.8024
63.6616 1043 32.2955
63.7791 920 30.3315
63.8966 943 30.7083
64.0142 870 29.4958
64.1317 868 29.4618
64.2492 863 29.3769
64.3668 883 29.7153
64.4843 950 30.8221
64.6019 998 31.5911
64.7195 1029 32.078
64.837 1040 32.249
64.9546 1014 31.8434
65.0722 983 31.3528
65.1898 922 30.3645
65.3074 898 29.9666
65.4249 809 28.4429
65.5425 819 28.6182
65.6601 809 28.4429
65.7777 888 29.7993
65.8952 960 30.9839
66.0128 1078 32.8329
66.1304 1065 32.6343
66.2479 1101 33.1813
66.3655 1053 32.45
66.483 1177 34.3074
66.6005 1079 32.8481
66.718 1070 32.7109
66.8355 1187 34.4529
66.953 1071 32.7261
67.0705 1031 32.1092
67.1879 1003 31.6702
67.3054 937 30.6105
67.4228 911 30.1828
67.5402 840 28.9828
67.6576 798 28.2489
67.7749 754 27.4591
67.8923 870 29.4958
68.0096 839 28.9655
68.1269 895 29.9166
68.2442 884 29.7321
68.3614 895 29.9166
68.4787 973 31.1929
68.5958 893 29.8831
68.713 857 29.2746
68.8302 856 29.2575
68.9473 803 28.3373
69.0643 722 26.8701
69.1814 691 26.2869
69.2984 710 26.6458
69.4154 807 28.4077
69.5323 863 29.3769
69.6492 892 29.8664
69.7661 958 30.9516
69.8829 958 30.9516
69.9997 1050 32.4037
70.1165 1062 32.5883
70.2332 1030 32.0936
70.3499 1057 32.5115
70.4665 1059 32.5423
70.5831 1118 33.4365
70.6996 982 31.3369
70.8161 981 31.3209
70.9326 914 30.2324
71.049 875 29.5804
71.1653 810 28.4605
71.2817 764 27.6405
71.3979 782 27.9643
71.5141 708 26.6083
71.6303 770 27.7489
71.7464 738 27.1662
71.8624 0 1
71.9784 0 1
72.0944 0 1
72.2102 0 1
72.3261 0 1
72.4418 0 1
72.5575 0 1
72.6732 0 1
75.1054 0 1
75.2209 0 1
75.3365 0 1
75.4521 0 1
75.5678 0 1
75.6835 0 1
75.7993 0 1
75.9151 0 1
76.031 0 1
76.147 842 29.0172
76.263 920 30.3315
76.3791 900 30
76.4952 781 27.9464
76.6113 771 27.7669
76.7276 783 27.9821
76.8438 736 27.1293
76.9601 784 28
77.0765 850 29.1548
77.1929 936 30.5941
77.3093 942 30.692
77.4258 955 30.9031
77.5423 954 30.8869
77.6589 879 29.6479
77.7755 857 29.2746
77.8921 777 27.8747
78.0088 739 27.1846
78.1256 688 26.2298
78.2423 677 26.0192
78.3591 748 27.3496
78.4759 758 27.5318
78.5928 810 28.4605
78.7097 901 30.0167
78.8266 937 30.6105
78.9436 1029 32.078
79.0606 998 31.5911
79.1776 1004 31.686
79.2946 1051 32.4191
79.4117 971 31.1609
79.5288 992 31.496
79.6459 1031 32.1092
79.7631 960 30.9839
79.8802 917 30.282
79.9974 836 28.9137
80.1147 769 27.7308
80.2319 726 26.9444
80.3491 711 26.6646
80.4664 711 26.6646
80.5837 713 26.7021
80.701 761 27.5862
80.8183 799 28.2666
80.9357 823 28.688
81.053 861 29.3428
81.1704 838 28.9482
81.2877 826 28.7402
81.4051 806 28.3901
81.5225 709 26.6271
81.6399 690 26.2679
81.7573 588 24.2487
81.8747 595 24.3926
81.9922 597 24.4336
82.1096 669 25.865
82.227 790 28.1069
82.3444 723 26.8887
82.4619 800 28.2843
82.5793 831 28.8271
82.6967 895 29.9166
82.8142 922 30.3645
82.9316 864 29.3939
83.049 878 29.6311
83.1664 851 29.1719
83.2838 838 28.9482
83.4012 801 28.3019
83.5186 716 26.7582
83.636 725 26.9258
83.7534 679 26.0576
83.8708 619 24.8797
83.9881 590 24.2899
84.1055 637 25.2389
84.2228 593 24.3516
84.3401 647 25.4362
84.4575 713 26.7021
84.5747 750 27.3861
84.692 789 28.0891
84.8093 718 26.7955
84.9265 697 26.4008
85.0437 680 26.0768
85.1609 583 24.1454
85.2781 546 23.3666
85.3952 568 23.8328
85.5123 552 23.4947
85.6294 605 24.5967
85.7465 737 27.1477
85.8636 780 27.9285
85.9806 849 29.1376
86.0976 886 29.7658
86.2145 921 30.348
86.3315 945 30.7409
86.4484 944 30.7246
86.5652 951 30.8383
86.682 1017 31.8904
86.7988 933 30.545
86.9156 969 31.1288
87.0323 878 29.6311
87.149 809 28.4429
87.2657 802 28.3196
87.3823 757 27.5136
87.4988 748 27.3496
87.6154 787 28.0535
87.7318 811 28.4781
87.8483 844 29.0517
87.9647 906 30.0998
88.081 873 29.5466
88.1973 968 31.1127
88.3136 937 30.6105
88.4298 915 30.249
88.546 885 29.7489
88.6621 760 27.5681
88.7781 658 25.6515
88.8942 0 1
89.0101 0 1
89.126 0 1
89.2419 0 1
89.3577 0 1
89.4734 0 1
89.5891 0 1
89.7047 0 1
89.8203 0 1
89.9358 0 1
92.3269 0 1
92.4424 0 1
92.558 0 1
92.6736 0 1
92.7893 0 1
92.905 0 1
93.0208 0 1
93.1366 0 1
93.2525 0 1
93.3685 0 1
93.4845 0 1
93.6005 913 30.2159
93.7167 951 30.8383
93.8328 924 30.3974
93.949 922 30.3645
94.0653 859 29.3087
94.1816 778 27.8927
94.2979 698 26.4197
94.4143 661 25.7099
94.5307 689 26.2488
94.6472 703 26.5141
94.7637 807 28.4077
94.8803 906 30.0998
94.9969 861 29.3428
95.1135 939 30.6431
95.2302 1033 32.1403
95.3469 1066 32.6497
95.4637 1036 32.187
95.5805 1113 33.3617
95.6973 1057 32.5115
95.8142 1069 32.6956
95.9311 962 31.0161
96.048 992 31.496
96.1649 979 31.289
96.2819 909 30.1496
96.3989 886 29.7658
96.516 925 30.4138
96.633 857 29.2746
96.7501 806 28.3901
96.8673 815 28.5482
96.9844 796 28.2135
97.1016 847 29.1033
97.2188 958 30.9516
97.336 974 31.209
97.4532 988 31.4325
97.5704 928 30.4631
97.6877 879 29.6479
97.805 824 28.7054
97.9223 720 26.8328
98.0396 725 26.9258
98.1569 691 26.2869
98.2743 673 25.9422
98.3916 786 28.0357
98.509 804 28.3549
98.6264 921 30.348
98.7438 1004 31.686
98.8612 1064 32.619
98.9786 1051 32.4191
99.096 1064 32.619
99.2134 1095 33.0908
99.3308 1090 33.0151
99.4482 1107 33.2716
99.5656 1057 32.5115
99.6831 1027 32.0468
99.8005 1047 32.3574
99.9179 979 31.289
100.035 940 30.6594
100.153 913 30.2159
100.27 825 28.7228
100.388 842 29.0172
100.505 832 28.8444
100.622 966 31.0805
100.74 945 30.7409
100.857 955 30.9031
100.975 1030 32.0936
101.092 1046 32.3419
101.209 944 30.7246
101.327 883 29.7153
101.444 774 27.8209
101.561 811 28.4781
101.679 709 26.6271
101.796 726 26.9444
101.913 764 27.6405
102.03 862 29.3598
102.148 967 31.0966
102.265 1036 32.187
102.382 1131 33.6303
102.499 1079 32.8481
102.616 1125 33.541
102.733 1174 34.2637
102.851 1280 35.7771
102.968 1093 33.0606
103.085 1115 33.3916
103.202 1137 33.7194
103.319 1128 33.5857
103.436 1055 32.4808
103.552 1016 31.8748
103.669 938 30.6268
103.786 943 30.7083
103.903 888 29.7993
104.02 1004 31.686
104.137 1071 32.7261
104.253 1023 31.9844
104.37 1081 32.8786
104.487 1128 33.5857
104.603 1092 33.0454
104.72 993 31.5119
104.836 980 31.305
104.953 870 29.4958
105.069 893 29.8831
105.186 779 27.9106
105.302 809 28.4429
105.418 850 29.1548
105.535 1003 31.6702
105.651 1078 32.8329
105.767 1224 34.9857
105.883 1245 35.2846
105.999 1254 35.4119
106.115 0 1
106.231 0 1
106.347 0 1
106.463 0 1
106.579 0 1
106.694 0 1
106.81 0 1
106.926 0 1
107.041 0 1
107.157 0 1
109.576 0 1
109.692 0 1
109.807 0 1
109.923 0 1
110.039 0 1
110.155 0 1
110.27 0 1
110.386 0 1
110.502 0 1
110.618 929 30.4795
110.735 1038 32.218
110.851 1152 33.9411
110.967 1168 34.176
111.083 1203 34.6843
111.199 1266 35.5809
111.316 1265 35.5668
111.432 1187 34.4529
111.549 1198 34.6121
111.665 1226 35.0143
111.782 1143 33.8083
111.898 1112 33.3467
112.015 1114 33.3766
112.132 1000 31.6228
112.248 880 29.6648
112.365 1008 31.749
112.482 915 30.249
112.599 1006 31.7175
112.716 1044 32.311
112.832 1003 31.6702
112.949 1039 32.2335
113.066 1026 32.0312
113.183 1026 32.0312
113.3 900 30
113.417 909 30.1496
113.534 773 27.8029
113.652 791 28.1247
113.769 755 27.4773
113.886 782 27.9643
114.003 764 27.6405
114.12 899 29.9833
114.238 1050 32.4037
114.355 1069 32.6956
114.472 1138 33.7343
114.589 1190 34.4964
114.707 1175 34.2783
114.824 1117 33.4215
114.942 1228 35.0428
115.059 1176 34.2929
115.176 1231 35.0856
115.294 1170 34.2053
115.411 1176 34.2929
115.529 1067 32.665
115.646 1093 33.0606
115.764 989 31.4484
115.881 962 31.0161
115.999 977 31.257
116.116 1020 31.9374
116.234 1018 31.9061
116.351 993 31.5119
116.469 1043 32.2955
116.586 1134 33.6749
116.704 1068 32.6803
116.821 1026 32.0312
116.939 1045 32.3265
117.056 896 29.9333
117.174 836 28.9137
117.291 776 27.8568
117.409 846 29.0861
117.526 781 27.9464
117.644 873 29.5466
117.761 1012 31.8119
117.879 1138 33.7343
117.996 1098 33.1361
118.114 1178 34.322
118.231 1234 35.1283
118.349 1212 34.8138
118.466 1218 34.8999
118.584 1220 34.9285
118.701 1202 34.6699
118.819 1179 34.3366
118.936 1171 34.2199
119.053 1130 33.6155
119.171 1102 33.1964
119.288 1037 32.2025
119.405 1068 32.6803
119.523 1047 32.3574
119.64 1003 31.6702
119.757 1016 31.8748
119.875 1081 32.8786
119.992 1082 32.8938
120.109 1090 33.0151
120.226 1060 32.5576
120.343 1084 32.9242
120.46 1012 31.8119
120.578 978 31.273
120.695 882 29.6985
120.812 869 29.4788
120.929 847 29.1033
121.046 821 28.6531
121.163 812 28.4956
121.279 966 31.0805
121.396 1032 32.1248
121.513 1066 32.6497
121.63 1165 34.1321
121.747 1175 34.2783
121.863 1169 34.1906
121.98 1195 34.5688
122.097 1296 36
122.213 1202 34.6699
122.33 1178 34.322
122.446 1187 34.4529
122.563 1164 34.1174
122.679 1157 34.0147
122.795 1139 33.7491
122.912 1030 32.0936
123.028 1025 32.0156
123.144 918 30.2985
123.26 952 30.8545
123.377 0 1
123.493 0 1
123.609 0 1
123.725 0 1
123.84 0 1
123.956 0 1
124.072 0 1
124.188 0 1
124.303 0 1
124.419 0 1
126.852 0 1
126.968 0 1
127.083 0 1
127.199 0 1
127.315 0 1
127.431 0 1
127.547 0 1
127.663 0 1
127.779 0 1
127.895 0 1
128.011 0 1
128.127 0 1
128.243 0 1
128.359 1122 33.4963
128.476 1086 32.9545
128.592 1078 32.8329
128.708 1162 34.0881
128.825 1145 33.8378
128.941 1181 34.3657
129.058 1148 33.8821
129.174 1145 33.8378
129.291 1074 32.7719
129.408 1105 33.2415
129.524 1085 32.9393
129.641 984 31.3688
129.758 990 31.4643
129.875 941 30.6757
129.992 899 29.9833
130.108 963 31.0322
130.225 941 30.6757
130.342 1085 32.9393
130.459 1129 33.6006
130.576 1196 34.5832
130.693 1224 34.9857
130.81 1284 35.8329
130.928 1218 34.8999
131.045 1158 34.0294
131.162 1210 34.7851
131.279 1230 35.0714
131.396 1251 35.3695
131.513 1295 35.9861
131.631 1231 35.0856
131.748 1112 33.3467
131.865 1184 34.4093
131.983 1121 33.4813
132.1 1144 33.8231
132.217 1160 34.0588
132.335 1191 34.5109
132.452 1210 34.7851
132.57 1218 34.8999
132.687 1129 33.6006
132.804 1193 34.5398
132.922 1155 33.9853
133.039 1053 32.45
133.157 1020 31.9374
133.274 913 30.2159
133.392 925 30.4138
133.509 932 30.5287
133.627 901 30.0167
133.744 962 31.0161
133.862 1070 32.7109
133.979 1118 33.4365
134.097 1129 33.6006
134.214 1211 34.7994
134.332 1189 34.4819
134.449 1187 34.4529
134.567 1265 35.5668
134.684 1243 35.2562
134.802 1251 35.3695
134.919 1255 35.426
135.037 1231 35.0856
135.154 1210 34.7851
135.272 1213 34.8281
135.389 1129 33.6006
135.507 1175 34.2783
135.624 1152 33.9411
135.742 1220 34.9285
135.859 1181 34.3657
135.977 1175 34.2783
136.094 1220 34.9285
136.211 1173 34.2491
136.329 1272 35.6651
136.446 1174 34.2637
136.564 1181 34.3657
136.681 1086 32.9545
136.798 985 31.3847
136.915 967 31.0966
137.033 929 30.4795
137.15 883 29.7153
137.267 922 30.3645
137.384 981 31.3209
137.502 1075 32.7872
137.619 1058 32.5269
137.736 1159 34.0441
137.853 1123 33.5112
137.97 1210 34.7851
138.087 1149 33.8969
138.204 1203 34.6843
138.321 1203 34.6843
138.438 1250 35.3553
138.555 1289 35.9026
138.672 1313 36.2353
138.788 1244 35.2704
138.905 1187 34.4529
139.022 1105 33.2415
139.139 1160 34.0588
139.255 1217 34.8855
139.372 1138 33.7343
139.488 1209 34.7707
139.605 1186 34.4384
139.721 1222 34.9571
139.838 1264 35.5528
139.954 1207 34.7419
140.071 1180 34.3511
140.187 1197 34.5977
140.303 1109 33.3017
140.419 1054 32.4654
140.535 987 31.4166
140.652 903 30.05
140.768 0 1
140.884 0 1
141 0 1
141.115 0 1
141.231 0 1
141.347 0 1
141.463 0 1
141.578 0 1
141.694 0 1
144.104 0 1
144.219 0 1
144.335 0 1
144.45 0 1
144.566 0 1
144.682 0 1
144.798 0 1
144.914 0 1
145.03 0 1
145.146 812 28.4956
145.262 892 29.8664
145.378 886 29.7658
145.494 805 28.3725
145.61 802 28.3196
145.726 766 27.6767
145.842 784 28
145.959 729 27
146.075 683 26.1343
146.192 753 27.4408
146.308 775 27.8388
146.425 798 28.2489
146.541 816 28.5657
146.658 831 28.8271
146.774 867 29.4449
146.891 914 30.2324
147.008 898 29.9666
147.125 991 31.4802
147.241 1005 31.7017
147.358 984 31.3688
147.475 945 30.7409
147.592 1014 31.8434
147.709 942 30.692
147.826 900 30
147.943 943 30.7083
148.06 938 30.6268
148.177 946 30.7571
148.294 918 30.2985
148.411 917 30.282
148.528 1035 32.1714
148.645 980 31.305
148.762 900 30
148.88 923 30.3809
148.997 901 30.0167
149.114 912 30.1993
149.231 892 29.8664
149.349 831 28.8271
149.466 845 29.0689
149.583 812 28.4956
149.701 783 27.9821
149.818 714 26.7208
149.935 719 26.8142
150.053 777 27.8747
150.17 737 27.1477
150.287 868 29.4618
150.405 911 30.1828
150.522 844 29.0517
150.64 915 30.249
150.757 1007 31.7333
150.875 943 30.7083
150.992 986 31.4006
151.11 972 31.1769
151.227 1009 31.7648
151.344 1000 31.6228
151.462 923 30.3809
151.579 953 30.8707
151.697 943 30.7083
151.814 961 31
151.932 969 31.1288
152.049 971 31.1609
152.167 901 30.0167
152.284 959 30.9677
152.402 1008 31.749
152.519 997 31.5753
152.636 955 30.9031
152.754 996 31.5595
152.871 974 31.209
152.989 898 29.9666
153.106 837 28.931
153.223 852 29.189
153.341 815 28.5482
153.458 791 28.1247
153.575 790 28.1069
153.693 842 29.0172
153.81 901 30.0167
153.927 915 30.249
154.044 922 30.3645
154.162 961 31
154.279 1007 31.7333
154.396 992 31.496
154.513 1080 32.8634
154.63 1082 32.8938
154.747 1107 33.2716
154.864 1070 32.7109
154.981 1128 33.5857
155.098 1074 32.7719
155.215 1073 32.7567
155.332 1031 32.1092
155.449 1125 33.541
155.566 1127 33.5708
155.683 1089 33
155.8 1099 33.1512
155.917 1136 33.7046
156.033 1098 33.1361
156.15 0 1
156.267 0 1
156.383 0 1
156.5 0 1
156.617 0 1
156.733 0 1
156.85 0 1
156.966 0 1
157.082 0 1
157.199 0 1
157.315 0 1
157.431 0 1
157.547 0 1
157.664 0 1
157.78 0 1
157.896 0 1
158.012 0 1
158.128 0 1
158.244 0 1
158.359 0 1
158.475 0 1
158.591 0 1
158.706 0 1
