
6.15755 0 1
6.2731 0 1
6.3887 0 1
6.50437 0 1
6.62009 0 1
6.73587 0 1
6.8517 0 1
6.96759 0 1
7.08353 0 1
7.19952 0 1
7.31557 0 1
7.43166 0 1
7.54781 0 1
7.664 0 1
7.78024 0 1
7.89653 0 1
8.01286 0 1
8.12924 0 1
8.24567 0 1
8.36213 0 1
8.47864 0 1
8.59519 0 1
8.71178 0 1
8.82841 0 1
8.94508 0 1
9.06179 0 1
9.17853 0 1
9.29531 0 1
9.41212 0 1
9.52897 0 1
9.64584 0 1
9.76276 0 1
9.8797 0 1
9.99667 0 1
10.1137 0 1
10.2307 0 1
10.3478 0 1
10.4648 0 1
10.5819 0 1
10.6991 0 1
10.8162 0 1
10.9334 0 1
11.0506 0 1
11.1678 0 1
11.285 0 1
11.4023 0 1
11.5196 0 1
11.6369 0 1
11.7542 0 1
11.8715 0 1
11.9888 0 1
12.1062 0 1
12.2235 0 1
12.3409 0 1
12.4582 0 1
12.5756 0 1
12.693 0 1
12.8104 0 1
12.9278 0 1
13.0452 0 1
13.1626 0 1
13.28 0 1
13.3974 0 1
13.5149 0 1
13.6323 0 1
13.7497 0 1
13.8671 0 1
13.9845 0 1
14.1019 0 1
14.2193 0 1
14.3367 0 1
14.4541 0 1
14.5714 0 1
14.6888 0 1
14.8062 0 1
14.9235 0 1
15.0408 0 0
15.1581 0 0
15.2755 0 0
15.3927 0 0
15.51 0 0
15.6273 0 0
15.7445 0 0
15.8617 0 0
15.9789 0 0
16.0961 0 0
16.2132 0 0
16.3304 0 0
16.4475 0 0
16.5646 0 0
16.6816 0 0
16.7986 0 0
16.9156 0 0
17.0326 0 0
17.1496 0 0
17.2665 0 0
17.3833 0 0
17.5002 0 0
17.617 0 0
17.7338 0 0
17.8505 0 0
17.9672 0 0
18.0839 0 0
18.2005 0 0
18.3171 0 0
18.4337 0 0
18.5502 0 0
18.6666 0 0
18.7831 0 0
18.8994 0 0
19.0158 0 0
19.1321 0 0
19.2483 0 0
19.3645 0 0
19.4806 0 0
19.5967 0 0
19.7128 0 0
19.8288 0 0
19.9447 0 0
20.0606 0 1
20.1764 0 1
20.2922 0 1
20.4079 0 1
20.5236 0 1
20.6392 0 1
20.7548 0 1
20.8702 0 1
23.3078 0 1
23.4233 0 1
23.539 0 1
23.6547 0 1
23.7704 0 1
23.8862 0 1
24.0021 0 1
24.118 0 1
24.234 0 1
24.35 0 1
24.4661 20743 144.024
24.5822 20734 143.993
24.6984 20118 141.838
24.8146 20157 141.975
24.9309 19812 140.755
25.0472 20047 141.587
25.1636 20029 141.524
25.28 20499 143.175
25.3965 21220 145.671
25.513 21904 148
25.6296 22868 151.222
25.7462 24002 154.926
25.8628 25200 158.745
25.9795 25603 160.009
26.0962 26181 161.805
26.213 26179 161.799
26.3298 25625 160.078
26.4466 26077 161.484
26.5635 25600 160
26.6804 25355 159.233
26.7973 24662 157.041
26.9143 23981 154.858
27.0313 24304 155.897
27.1483 24716 157.213
27.2653 24914 157.842
27.3824 25488 159.65
27.4996 25767 160.521
27.6167 24857 157.661
27.7339 24373 156.119
27.8511 23792 154.247
27.9683 22807 151.02
28.0855 22305 149.349
28.2028 21329 146.045
28.3201 20717 143.934
28.4374 19968 141.308
28.5547 19814 140.762
28.6721 19281 138.856
28.7894 19521 139.718
28.9068 20204 142.141
29.0242 20864 144.444
29.1416 21491 146.598
29.259 22687 150.622
29.3764 23578 153.551
29.4939 23990 154.887
29.6113 24402 156.211
29.7288 25057 158.294
29.8463 25042 158.247
29.9638 24889 157.762
30.0812 25171 158.654
30.1987 24350 156.045
30.3162 23632 153.727
30.4337 22633 150.443
30.5512 22835 151.113
30.6687 23497 153.287
30.7862 24121 155.309
30.9037 24677 157.089
31.0212 24775 157.401
31.1387 24906 157.816
31.2562 24433 156.311
31.3737 23617 153.678
31.4912 23249 152.476
31.6087 22243 149.141
31.7262 21458 146.485
31.8436 20719 143.941
31.9611 20441 142.972
32.0785 19705 140.374
32.1959 19199 138.56
32.3134 19047 138.011
32.4308 19397 139.273
32.5482 20406 142.85
32.6655 21368 146.178
32.7829 21792 147.621
32.9002 22902 151.334
33.0176 23756 154.13
33.1349 24392 156.179
33.2522 24337 156.003
33.3694 25369 159.276
33.4867 25009 158.142
33.6039 25586 159.956
33.7211 25128 158.518
33.8383 24513 156.566
33.9554 23783 154.217
34.0725 22386 149.62
34.1896 22250 149.164
34.3067 23331 152.745
34.4237 24244 155.705
34.5407 25022 158.183
34.6577 25359 159.245
34.7746 25471 159.596
34.8915 25456 159.549
35.0084 24964 158
35.1252 24704 157.175
35.242 24321 155.952
35.3587 23692 153.922
35.4755 23483 153.242
35.5921 22584 150.28
35.7088 22017 148.381
35.8254 21491 146.598
35.9419 21106 145.279
36.0584 21199 145.599
36.1749 21604 146.983
36.2913 23086 151.941
36.4077 24283 155.83
36.524 25815 160.67
36.6403 27078 164.554
36.7565 28634 169.216
36.8727 29957 173.081
36.9889 30504 174.654
37.1049 30754 175.368
37.221 0 1
37.3369 0 1
37.4529 0 1
37.5687 0 1
37.6845 0 1
37.8003 0 1
37.916 0 1
38.0316 0 1
38.1472 0 1
40.5851 0 1
40.7008 0 1
40.8164 0 1
40.9322 0 1
41.048 0 1
41.1639 0 1
41.2798 0 1
41.3958 0 1
41.5118 0 1
41.6279 0 1
41.744 18972 137.739
41.8602 20325 142.566
41.9765 21070 145.155
42.0928 21506 146.649
42.2091 21821 147.719
42.3255 21775 147.564
42.4419 21386 146.24
42.5584 21335 146.065
42.675 19861 140.929
42.7915 18623 136.466
42.9081 17019 130.457
43.0248 16923 130.088
43.1415 17865 133.66
43.2582 18679 136.671
43.375 18747 136.92
43.4918 18830 137.222
43.6087 18531 136.129
43.7256 18289 135.237
43.8425 17603 132.676
43.9595 17166 131.019
44.0765 16340 127.828
44.1935 15927 126.202
44.3106 15015 122.536
44.4277 14546 120.607
44.5448 13643 116.803
44.6619 12863 113.415
44.7791 12255 110.702
44.8963 12165 110.295
45.0136 12366 111.203
45.1308 12859 113.398
45.2481 13310 115.369
45.3654 13577 116.52
45.4827 14064 118.592
45.6001 14403 120.012
45.7174 14714 121.301
45.8348 14532 120.549
45.9522 14199 119.16
46.0697 14209 119.202
46.1871 13804 117.49
46.3046 13064 114.298
46.422 12062 109.827
46.5395 11286 106.236
46.657 11679 108.069
46.7745 12157 110.259
46.892 12586 112.187
47.0096 12633 112.397
47.1271 12697 112.681
47.2446 12484 111.732
47.3622 12195 110.431
47.4797 11753 108.411
47.5973 11450 107.005
47.7149 11015 104.952
47.8324 10652 103.209
47.95 9752 98.7522
48.0675 9742 98.7016
48.1851 9279 96.3276
48.3027 8841 94.0266
48.4202 8651 93.0108
48.5378 8744 93.5094
48.6554 9139 95.5981
48.7729 9430 97.1082
48.8904 9968 99.8399
49.008 10352 101.745
49.1255 10604 102.976
49.243 10896 104.384
49.3605 10955 104.666
49.478 11035 105.048
49.5955 10954 104.661
49.713 10699 103.436
49.8304 9986 99.93
49.9479 9354 96.7161
50.0653 9063 95.1998
50.1827 9780 98.8939
50.3001 10562 102.772
50.4175 11421 106.869
50.5348 11846 108.839
50.6521 12096 109.982
50.7694 12609 112.29
50.8867 12706 112.721
51.004 12607 112.281
51.1212 12969 113.882
51.2384 12688 112.641
51.3556 12698 112.685
51.4727 12479 111.709
51.5899 12216 110.526
51.707 11925 109.202
51.824 11750 108.397
51.9411 12084 109.927
52.0581 12588 112.196
52.175 13352 115.551
52.2919 14279 119.495
52.4088 15372 123.984
52.5257 16647 129.023
52.6425 17206 131.172
52.7593 17649 132.85
52.876 17850 133.604
52.9927 18041 134.317
53.1094 18528 136.118
53.226 18593 136.356
53.3426 17969 134.048
53.4591 16692 129.198
53.5756 15744 125.475
53.692 15387 124.044
53.8084 16723 129.317
53.9248 17907 133.817
54.0411 19231 138.676
54.1573 19940 141.209
54.2735 0 1
54.3896 0 1
54.5057 0 1
54.6217 0 1
54.7377 0 1
54.8537 0 1
54.9695 0 1
55.0853 0 1
55.2011 0 1
55.3168 0 1
55.4324 0 1
57.824 0 1
57.9396 0 1
58.0553 0 1
58.1711 0 1
58.2869 0 1
58.4028 0 1
58.5187 0 1
58.6347 0 1
58.7508 0 1
58.8669 0 1
58.983 19650 140.178
59.0992 21570 146.867
59.2155 22831 151.099
59.3318 24177 155.49
59.4482 24396 156.192
59.5646 24672 157.073
59.681 24172 155.473
59.7975 24133 155.348
59.9141 23110 152.02
60.0306 22523 150.077
60.1473 21656 147.16
60.2639 20519 143.245
60.3807 19094 138.181
60.4974 18373 135.547
60.6142 18005 134.183
60.731 18169 134.792
60.8479 18466 135.89
60.9648 19337 139.058
61.0818 20700 143.875
61.1987 21331 146.051
61.3158 22143 148.805
61.4328 22097 148.651
61.5499 22467 149.89
61.667 22426 149.753
61.7841 21659 147.17
61.9013 20819 144.288
62.0185 19351 139.108
62.1357 18185 134.852
62.253 18278 135.196
62.3702 18686 136.697
62.4875 19492 139.614
62.6049 20665 143.753
62.7222 21543 146.775
62.8396 21278 145.87
62.9569 21680 147.241
63.0743 21887 147.943
63.1918 21597 146.959
63.3092 21412 146.328
63.4267 20950 144.741
63.5441 20096 141.76
63.6616 19351 139.108
63.7791 18408 135.676
63.8966 17516 132.348
64.0142 16337 127.816
64.1317 15934 126.23
64.2492 16029 126.606
64.3668 16461 128.3
64.4843 17407 131.936
64.6019 18464 135.882
64.7195 19298 138.917
64.837 20072 141.676
64.9546 20158 141.979
65.0722 20205 142.144
65.1898 20287 142.432
65.3074 20495 143.161
65.4249 19056 138.043
65.5425 17833 133.54
65.6601 16730 129.345
65.7777 15894 126.071
65.8952 15955 126.313
66.0128 17147 130.947
66.1304 18178 134.826
66.2479 19152 138.391
66.3655 19587 139.954
66.483 20260 142.338
66.6005 20598 143.52
66.718 20464 143.052
66.8355 20252 142.31
66.953 20077 141.693
67.0705 19695 140.339
67.1879 19126 138.297
67.3054 18292 135.248
67.4228 17541 132.442
67.5402 16319 127.746
67.6576 15500 124.499
67.7749 14928 122.18
67.8923 15441 124.262
68.0096 16201 127.283
68.1269 17175 131.053
68.2442 18323 135.362
68.3614 19403 139.295
68.4787 20324 142.562
68.5958 20392 142.801
68.713 20579 143.454
68.8302 20646 143.687
68.9473 20762 144.09
69.0643 19996 141.407
69.1814 18699 136.744
69.2984 17653 132.865
69.4154 16750 129.422
69.5323 17103 130.778
69.6492 18093 134.51
69.7661 19175 138.474
69.8829 20438 142.962
69.9997 21442 146.431
70.1165 21830 147.75
70.2332 22178 148.923
70.3499 22490 149.967
70.4665 22674 150.579
70.5831 22526 150.087
70.6996 21735 147.428
70.8161 21298 145.938
70.9326 20328 142.576
71.049 19287 138.878
71.1653 18334 135.403
71.2817 16795 129.596
71.3979 15642 125.068
71.5141 15639 125.056
71.6303 15966 126.357
71.7464 14771 121.536
71.8624 0 1
71.9784 0 1
72.0944 0 1
72.2102 0 1
72.3261 0 1
72.4418 0 1
72.5575 0 1
72.6732 0 1
75.1054 0 1
75.2209 0 1
75.3365 0 1
75.4521 0 1
75.5678 0 1
75.6835 0 1
75.7993 0 1
75.9151 0 1
76.031 0 1
76.147 19275 138.834
76.263 20513 143.224
76.3791 20698 143.868
76.4952 19753 140.545
76.6113 18197 134.896
76.7276 16798 129.607
76.8438 16820 129.692
76.9601 16877 129.912
77.0765 17930 133.903
77.1929 19152 138.391
77.3093 20627 143.621
77.4258 21857 147.841
77.5423 21799 147.645
77.6589 22200 148.997
77.7755 22080 148.593
77.8921 22304 149.345
78.0088 21585 146.918
78.1256 20096 141.76
78.2423 18764 136.982
78.3591 17046 130.56
78.4759 16069 126.764
78.5928 16497 128.441
78.7097 17510 132.325
78.8266 18691 136.715
78.9436 20608 143.555
79.0606 21135 145.379
79.1776 21752 147.486
79.2946 22287 149.288
79.4117 21927 148.078
79.5288 22284 149.278
79.6459 22196 148.983
79.7631 21555 146.816
79.8802 21000 144.914
79.9974 20057 141.623
80.1147 18939 137.619
80.2319 17727 133.143
80.3491 16657 129.062
80.4664 16167 127.15
80.5837 16288 127.624
80.701 17372 131.803
80.8183 18449 135.827
80.9357 19308 138.953
81.053 20307 142.503
81.1704 20989 144.876
81.2877 21262 145.815
81.4051 21013 144.959
81.5225 20824 144.305
81.6399 20387 142.783
81.7573 19568 139.886
81.8747 17403 131.92
81.9922 16185 127.22
82.1096 15264 123.548
82.227 15467 124.366
82.3444 16194 127.256
82.4619 17839 133.563
82.5793 18913 137.525
82.6967 19046 138.007
82.8142 19759 140.567
82.9316 19866 140.947
83.049 20031 141.531
83.1664 19945 141.227
83.2838 19920 141.138
83.4012 19295 138.906
83.5186 18731 136.861
83.636 17989 134.123
83.7534 17390 131.871
83.8708 16006 126.515
83.9881 14940 122.229
84.1055 14543 120.594
84.2228 15096 122.866
84.3401 15509 124.535
84.4575 16644 129.012
84.5747 17768 133.297
84.692 18619 136.451
84.8093 19354 139.119
84.9265 19197 138.553
85.0437 19419 139.352
85.1609 19194 138.542
85.2781 18233 135.03
85.3952 17128 130.874
85.5123 15658 125.132
85.6294 14670 121.12
85.7465 14330 119.708
85.8636 15823 125.79
85.9806 17286 131.476
86.0976 18350 135.462
86.2145 19593 139.975
86.3315 20254 142.317
86.4484 21070 145.155
86.5652 21394 146.267
86.682 21675 147.224
86.7988 21663 147.184
86.9156 21377 146.209
87.0323 21304 145.959
87.149 20647 143.691
87.2657 20161 141.989
87.3823 19072 138.101
87.4988 17912 133.836
87.6154 17266 131.4
87.7318 17469 132.17
87.8483 18487 135.967
87.9647 19461 139.503
88.081 20780 144.153
88.1973 22001 148.327
88.3136 22111 148.698
88.4298 22669 150.562
88.546 22581 150.27
88.6621 22178 148.923
88.7781 21899 147.983
88.8942 0 1
89.0101 0 1
89.126 0 1
89.2419 0 1
89.3577 0 1
89.4734 0 1
89.5891 0 1
89.7047 0 1
89.8203 0 1
89.9358 0 1
92.3269 0 1
92.4424 0 1
92.558 0 1
92.6736 0 1
92.7893 0 1
92.905 0 1
93.0208 0 1
93.1366 0 1
93.2525 0 1
93.3685 0 1
93.4845 0 1
93.6005 21511 146.666
93.7167 21958 148.182
93.8328 22244 149.144
93.949 22088 148.62
94.0653 21942 148.128
94.1816 21419 146.352
94.2979 20646 143.687
94.4143 19270 138.816
94.5307 18345 135.444
94.6472 17417 131.973
94.7637 16673 129.124
94.8803 17251 131.343
94.9969 18068 134.417
95.1135 19125 138.293
95.2302 20261 142.341
95.3469 20528 143.276
95.4637 21387 146.243
95.5805 22126 148.748
95.6973 22524 150.08
95.8142 22667 150.556
95.9311 22450 149.833
96.048 22409 149.696
96.1649 22265 149.215
96.2819 21257 145.798
96.3989 21006 144.934
96.516 20116 141.831
96.633 19190 138.528
96.7501 18502 136.022
96.8673 17833 133.54
96.9844 18586 136.33
97.1016 19155 138.402
97.2188 20027 141.517
97.336 21079 145.186
97.4532 21747 147.469
97.5704 21608 146.997
97.6877 21535 146.748
97.805 21232 145.712
97.9223 20411 142.867
98.0396 19329 139.029
98.1569 17976 134.075
98.2743 16977 130.296
98.3916 16119 126.961
98.509 16355 127.887
98.6264 17166 131.019
98.7438 18458 135.86
98.8612 19407 139.309
98.9786 20424 142.913
99.096 21207 145.626
99.2134 21621 147.041
99.3308 22298 149.325
99.4482 22404 149.68
99.5656 22400 149.666
99.6831 22195 148.98
99.8005 21518 146.69
99.9179 21453 146.468
100.035 20631 143.635
100.153 20104 141.789
100.27 18787 137.066
100.388 18470 135.904
100.505 18857 137.321
100.622 19807 140.737
100.74 20485 143.126
100.857 21114 145.307
100.975 22039 148.455
101.092 21989 148.287
101.209 21724 147.391
101.327 22217 149.054
101.444 21533 146.741
101.561 20465 143.056
101.679 19268 138.809
101.796 18039 134.309
101.913 17048 130.568
102.03 16732 129.352
102.148 17890 133.754
102.265 20268 142.366
102.382 18824 137.201
102.499 21204 145.616
102.616 21922 148.061
102.733 22740 150.798
102.851 22937 151.45
102.968 23472 153.206
103.085 23760 154.143
103.202 23316 152.696
103.319 23020 151.723
103.436 22715 150.715
103.552 22167 148.886
103.669 21427 146.38
103.786 20558 143.381
103.903 20209 142.158
104.02 20444 142.983
104.137 21635 147.088
104.253 23125 152.069
104.37 22505 150.017
104.487 23979 154.852
104.603 24121 155.309
104.72 23956 154.777
104.836 24156 155.422
104.953 23480 153.232
105.069 22375 149.583
105.186 21314 145.993
105.302 20050 141.598
105.418 19122 138.282
105.535 19368 139.169
105.651 20676 143.792
105.767 21563 146.843
105.883 23019 151.72
105.999 24107 155.264
106.115 0 1
106.231 0 1
106.347 0 1
106.463 0 1
106.579 0 1
106.694 0 1
106.81 0 1
106.926 0 1
107.041 0 1
107.157 0 1
109.576 0 1
109.692 0 1
109.807 0 1
109.923 0 1
110.039 0 1
110.155 0 1
110.27 0 1
110.386 0 1
110.502 0 1
110.618 19002 137.848
110.735 20654 143.715
110.851 21637 147.095
110.967 22716 150.718
111.083 23296 152.63
111.199 24400 156.205
111.316 24932 157.899
111.432 25371 159.283
111.549 25680 160.25
111.665 25494 159.668
111.782 24921 157.864
111.898 24913 157.839
112.015 24259 155.753
112.132 23414 153.016
112.248 22629 150.429
112.365 22057 148.516
112.482 22458 149.86
112.599 22066 148.546
112.716 23161 152.187
112.832 24006 154.939
112.949 23985 154.871
113.066 24349 156.042
113.183 24588 156.806
113.3 24526 156.608
113.417 24012 154.958
113.534 23190 152.283
113.652 22075 148.577
113.769 20860 144.43
113.886 19779 140.638
114.003 18779 137.036
114.12 19405 139.302
114.238 20271 142.376
114.355 21134 145.375
114.472 22995 151.641
114.589 21912 148.027
114.707 23542 153.434
114.824 24555 156.7
114.942 25045 158.256
115.059 25664 160.2
115.176 25397 159.364
115.294 25746 160.456
115.411 25019 158.174
115.529 25019 158.174
115.646 24580 156.78
115.764 23928 154.687
115.881 23315 152.693
115.999 23364 152.853
116.116 23518 153.356
116.234 24274 155.801
116.351 25417 159.427
116.469 25452 159.537
116.586 25425 159.452
116.704 25808 160.649
116.821 25668 160.212
116.939 25334 159.167
117.056 24722 157.232
117.174 23978 154.848
117.291 22883 151.271
117.409 22036 148.445
117.526 21172 145.506
117.644 20934 144.686
117.761 21639 147.102
117.879 22312 149.372
117.996 22475 149.917
118.114 23525 153.379
118.231 24332 155.987
118.349 25073 158.345
118.466 25889 160.901
118.584 26044 161.382
118.701 26603 163.104
118.819 26063 161.44
118.936 25447 159.521
119.053 24946 157.943
119.171 25282 159.003
119.288 24223 155.637
119.405 24255 155.74
119.523 23738 154.071
119.64 23876 154.519
119.757 23871 154.502
119.875 24554 156.697
119.992 24745 157.305
120.109 25417 159.427
120.226 25241 158.874
120.343 25294 159.041
120.46 25728 160.4
120.578 25401 159.377
120.695 24157 155.425
120.812 23858 154.46
120.929 23012 151.697
121.046 22186 148.95
121.163 21110 145.293
121.279 20632 143.638
121.396 21573 146.877
121.513 22067 148.55
121.63 22367 149.556
121.747 23353 152.817
121.863 23708 153.974
121.98 24207 155.586
122.097 24774 157.398
122.213 24911 157.832
122.33 25571 159.909
122.446 25444 159.512
122.563 25308 159.085
122.679 24708 157.188
122.795 24589 156.809
122.912 24400 156.205
123.028 24061 155.116
123.144 23564 153.506
123.26 23232 152.42
123.377 0 1
123.493 0 1
123.609 0 1
123.725 0 1
123.84 0 1
123.956 0 1
124.072 0 1
124.188 0 1
124.303 0 1
124.419 0 1
126.852 0 1
126.968 0 1
127.083 0 1
127.199 0 1
127.315 0 1
127.431 0 1
127.547 0 1
127.663 0 1
127.779 0 1
127.895 0 1
128.011 0 1
128.127 0 1
128.243 0 1
128.359 26069 161.459
128.476 26048 161.394
128.592 26236 161.975
128.708 26352 162.333
128.825 26972 164.232
128.941 27584 166.084
129.058 27974 167.254
129.174 28008 167.356
129.291 27767 166.634
129.408 27683 166.382
129.524 27335 165.333
129.641 26396 162.468
129.758 25651 160.159
129.875 24902 157.804
129.992 23754 154.123
130.108 23353 152.817
130.225 22714 150.712
130.342 22992 151.631
130.459 23556 153.48
130.576 24533 156.63
130.693 24829 157.572
130.81 25223 158.818
130.928 25669 160.215
131.045 26032 161.344
131.162 26787 163.667
131.279 26760 163.585
131.396 26919 164.07
131.513 26595 163.08
131.631 26301 162.176
131.748 25582 159.944
131.865 25708 160.337
131.983 25518 159.744
132.1 26075 161.478
132.217 26096 161.543
132.335 26783 163.655
132.452 26687 163.362
132.57 26924 164.085
132.687 25932 161.034
132.804 27570 166.042
132.922 26323 162.244
133.039 26209 161.892
133.157 25685 160.265
133.274 24848 157.632
133.392 23934 154.706
133.509 23126 152.072
133.627 22434 149.78
133.744 22242 149.138
133.862 21979 148.253
133.979 22572 150.24
134.097 22849 151.159
134.214 23765 154.159
134.332 23777 154.198
134.449 24214 155.608
134.567 24956 157.975
134.684 25457 159.552
134.802 25824 160.698
134.919 26062 161.437
135.037 25449 159.527
135.154 24899 157.794
135.272 24497 156.515
135.389 24787 157.439
135.507 24774 157.398
135.624 25388 159.336
135.742 25722 160.381
135.859 26280 162.111
135.977 26031 161.341
136.094 26695 163.386
136.211 26563 162.982
136.329 26411 162.515
136.446 26635 163.202
136.564 26395 162.465
136.681 25748 160.462
136.798 24993 158.092
136.915 24450 156.365
137.033 23603 153.633
137.15 22900 151.327
137.267 22430 149.766
137.384 22238 149.124
137.502 22081 148.597
137.619 22578 150.26
137.736 22728 150.758
137.853 22824 151.076
137.97 24033 155.026
138.087 23745 154.094
138.204 24530 156.621
138.321 25098 158.423
138.438 25586 159.956
138.555 26026 161.326
138.672 25584 159.95
138.788 25381 159.314
138.905 25302 159.066
139.022 24784 157.429
139.139 25265 158.95
139.255 25792 160.599
139.372 26190 161.833
139.488 26275 162.096
139.605 26413 162.521
139.721 26771 163.618
139.838 27379 165.466
139.954 27029 164.405
140.071 26720 163.463
140.187 26975 164.241
140.303 26178 161.796
140.419 25553 159.853
140.535 25281 159
140.652 24193 155.541
140.768 0 1
140.884 0 1
141 0 1
141.115 0 1
141.231 0 1
141.347 0 1
141.463 0 1
141.578 0 1
141.694 0 1
144.104 0 1
144.219 0 1
144.335 0 1
144.45 0 1
144.566 0 1
144.682 0 1
144.798 0 1
144.914 0 1
145.03 0 1
145.146 23095 151.97
145.262 22984 151.605
145.378 22619 150.396
145.494 22116 148.714
145.61 21390 146.253
145.726 21098 145.252
145.842 20642 143.673
145.959 20188 142.084
146.075 19911 141.106
146.192 20230 142.232
146.308 20808 144.25
146.425 20844 144.375
146.541 21109 145.289
146.658 21511 146.666
146.774 21734 147.425
146.891 21661 147.177
147.008 22448 149.827
147.125 23054 151.835
147.241 22917 151.384
147.358 22976 151.578
147.475 22152 148.835
147.592 21835 147.767
147.709 22018 148.385
147.826 22335 149.449
147.943 23157 152.174
148.06 23691 153.919
148.177 23996 154.906
148.294 23697 153.938
148.411 23595 153.607
148.528 24037 155.039
148.645 23924 154.674
148.762 23873 154.509
148.88 23245 152.463
148.997 22274 149.245
149.114 22816 151.05
149.231 22003 148.334
149.349 21523 146.707
149.466 20655 143.718
149.583 20464 143.052
149.701 20457 143.028
149.818 20425 142.916
149.935 20170 142.021
150.053 20765 144.101
150.17 21072 145.162
150.287 21330 146.048
150.405 21411 146.325
150.522 22019 148.388
150.64 22386 149.62
150.757 22799 150.993
150.875 22611 150.37
150.992 22311 149.369
151.11 22045 148.476
151.227 21592 146.942
151.344 21874 147.899
151.462 21924 148.068
151.579 23370 152.872
151.697 23664 153.831
151.814 23870 154.499
151.932 23929 154.69
152.049 24176 155.486
152.167 23834 154.383
152.284 23740 154.078
152.402 23562 153.499
152.519 23413 153.013
152.636 23163 152.194
152.754 22425 149.75
152.871 22088 148.62
152.989 21903 147.997
153.106 20842 144.368
153.223 20988 144.872
153.341 21041 145.055
153.458 20951 144.745
153.575 21018 144.976
153.693 21509 146.659
153.81 21775 147.564
153.927 21687 147.265
154.044 22502 150.007
154.162 22799 150.993
154.279 23595 153.607
154.396 24337 156.003
154.513 24670 157.067
154.63 24197 155.554
154.747 24357 156.067
154.864 23620 153.688
154.981 23601 153.626
155.098 24364 156.09
155.215 24863 157.68
155.332 25433 159.477
155.449 25276 158.984
155.566 25218 158.802
155.683 25740 160.437
155.8 25419 159.433
155.917 25449 159.527
156.033 25532 159.787
156.15 0 1
156.267 0 1
156.383 0 1
156.5 0 1
156.617 0 1
156.733 0 1
156.85 0 1
156.966 0 1
157.082 0 1
157.199 0 1
157.315 0 1
157.431 0 1
157.547 0 1
157.664 0 1
157.78 0 1
157.896 0 1
158.012 0 1
158.128 0 1
158.244 0 1
158.359 0 1
158.475 0 1
158.591 0 1
158.706 0 1
