
6.15755 0 1
6.2731 0 1
6.3887 0 1
6.50437 0 1
6.62009 0 1
6.73587 0 1
6.8517 0 1
6.96759 0 1
7.08353 0 1
7.19952 0 1
7.31557 0 1
7.43166 0 1
7.54781 0 1
7.664 0 1
7.78024 0 1
7.89653 0 1
8.01286 0 1
8.12924 0 1
8.24567 0 1
8.36213 0 1
8.47864 0 1
8.59519 0 1
8.71178 0 1
8.82841 0 1
8.94508 0 1
9.06179 0 1
9.17853 0 1
9.29531 0 1
9.41212 0 1
9.52897 0 1
9.64584 0 1
9.76276 0 1
9.8797 0 1
9.99667 0 1
10.1137 0 1
10.2307 0 1
10.3478 0 1
10.4648 0 1
10.5819 0 1
10.6991 0 1
10.8162 0 1
10.9334 0 1
11.0506 0 1
11.1678 0 1
11.285 0 1
11.4023 0 1
11.5196 0 1
11.6369 0 1
11.7542 0 1
11.8715 0 1
11.9888 0 1
12.1062 0 1
12.2235 0 1
12.3409 0 1
12.4582 0 1
12.5756 0 1
12.693 0 1
12.8104 0 1
12.9278 0 1
13.0452 0 1
13.1626 0 1
13.28 0 1
13.3974 0 1
13.5149 0 1
13.6323 0 1
13.7497 0 1
13.8671 0 1
13.9845 0 1
14.1019 0 1
14.2193 0 1
14.3367 0 1
14.4541 0 1
14.5714 0 1
14.6888 0 1
14.8062 0 1
14.9235 0 1
15.0408 888 29.7993
15.1581 931 30.5123
15.2755 936 30.5941
15.3927 903 30.05
15.51 951 30.8383
15.6273 940 30.6594
15.7445 877 29.6142
15.8617 896 29.9333
15.9789 935 30.5778
16.0961 929 30.4795
16.2132 966 31.0805
16.3304 1040 32.249
16.4475 1032 32.1248
16.5646 1022 31.9687
16.6816 1090 33.0151
16.7986 1080 32.8634
16.9156 1034 32.1559
17.0326 1020 31.9374
17.1496 1043 32.2955
17.2665 1037 32.2025
17.3833 995 31.5436
17.5002 1071 32.7261
17.617 1016 31.8748
17.7338 1112 33.3467
17.8505 1071 32.7261
17.9672 1137 33.7194
18.0839 1148 33.8821
18.2005 1175 34.2783
18.3171 1146 33.8526
18.4337 1213 34.8281
18.5502 1280 35.7771
18.6666 1256 35.4401
18.7831 1229 35.0571
18.8994 1236 35.1568
19.0158 1234 35.1283
19.1321 1199 34.6266
19.2483 1131 33.6303
19.3645 1129 33.6006
19.4806 1078 32.8329
19.5967 1136 33.7046
19.7128 1188 34.4674
19.8288 1199 34.6266
19.9447 1088 32.9848
20.0606 0 1
20.1764 0 1
20.2922 0 1
20.4079 0 1
20.5236 0 1
20.6392 0 1
20.7548 0 1
20.8702 0 1
23.3078 0 1
23.4233 0 1
23.539 0 1
23.6547 0 1
23.7704 0 1
23.8862 0 1
24.0021 0 1
24.118 0 1
24.234 0 1
24.35 0 1
24.4661 1135 33.6898
24.5822 1139 33.7491
24.6984 1148 33.8821
24.8146 1177 34.3074
24.9309 1264 35.5528
25.0472 1282 35.805
25.1636 1312 36.2215
25.28 1252 35.3836
25.3965 1319 36.318
25.513 1275 35.7071
25.6296 1291 35.9305
25.7462 1287 35.8748
25.8628 1224 34.9857
25.9795 1242 35.242
26.0962 1324 36.3868
26.213 1248 35.327
26.3298 1321 36.3456
26.4466 1308 36.1663
26.5635 1327 36.428
26.6804 1420 37.6829
26.7973 1410 37.55
26.9143 1445 38.0132
27.0313 1491 38.6135
27.1483 1424 37.7359
27.2653 1432 37.8418
27.3824 1521 39
27.4996 1371 37.027
27.6167 1429 37.8021
27.7339 1387 37.2424
27.8511 1354 36.7967
27.9683 1300 36.0555
28.0855 1308 36.1663
28.2028 1259 35.4824
28.3201 1228 35.0428
28.4374 1261 35.5106
28.5547 1307 36.1525
28.6721 1399 37.4032
28.7894 1409 37.5366
28.9068 1422 37.7094
29.0242 1373 37.054
29.1416 1307 36.1525
29.259 1210 34.7851
29.3764 1233 35.1141
29.4939 1184 34.4093
29.6113 1287 35.8748
29.7288 1259 35.4824
29.8463 1338 36.5787
29.9638 1311 36.2077
30.0812 1394 37.3363
30.1987 1420 37.6829
30.3162 1484 38.5227
30.4337 1451 38.092
30.5512 1495 38.6652
30.6687 1530 39.1152
30.7862 1552 39.3954
30.9037 1468 38.3145
31.0212 1441 37.9605
31.1387 1592 39.8999
31.2562 1393 37.3229
31.3737 1431 37.8286
31.4912 1322 36.3593
31.6087 1399 37.4032
31.7262 1255 35.426
31.8436 1327 36.428
31.9611 1316 36.2767
32.0785 1425 37.7492
32.1959 1403 37.4566
32.3134 1401 37.4299
32.4308 1379 37.1349
32.5482 1429 37.8021
32.6655 1347 36.7015
32.7829 1318 36.3043
32.9002 1293 35.9583
33.0176 1345 36.6742
33.1349 1360 36.8782
33.2522 1308 36.1663
33.3694 1229 35.0571
33.4867 1350 36.7423
33.6039 1332 36.4966
33.7211 1386 37.229
33.8383 1434 37.8682
33.9554 1472 38.3667
34.0725 1432 37.8418
34.1896 1504 38.7814
34.3067 1541 39.2556
34.4237 1497 38.6911
34.5407 1527 39.0768
34.6577 1511 38.8716
34.7746 1498 38.704
34.8915 1470 38.3406
35.0084 1451 38.092
35.1252 1412 37.5766
35.242 1348 36.7151
35.3587 1359 36.8646
35.4755 1362 36.9053
35.5921 1317 36.2905
35.7088 1451 38.092
35.8254 1409 37.5366
35.9419 1409 37.5366
36.0584 1471 38.3536
36.1749 1417 37.6431
36.2913 1449 38.0657
36.4077 1400 37.4166
36.524 1403 37.4566
36.6403 1291 35.9305
36.7565 1300 36.0555
36.8727 1277 35.7351
36.9889 1275 35.7071
37.1049 1348 36.7151
37.221 0 1
37.3369 0 1
37.4529 0 1
37.5687 0 1
37.6845 0 1
37.8003 0 1
37.916 0 1
38.0316 0 1
38.1472 0 1
40.5851 0 1
40.7008 0 1
40.8164 0 1
40.9322 0 1
41.048 0 1
41.1639 0 1
41.2798 0 1
41.3958 0 1
41.5118 0 1
41.6279 0 1
41.744 1088 32.9848
41.8602 1147 33.8674
41.9765 1090 33.0151
42.0928 1104 33.2265
42.2091 1177 34.3074
42.3255 1213 34.8281
42.4419 1230 35.0714
42.5584 1341 36.6197
42.675 1336 36.5513
42.7915 1415 37.6165
42.9081 1395 37.3497
43.0248 1348 36.7151
43.1415 1413 37.5899
43.2582 1411 37.5633
43.375 1473 38.3797
43.4918 1380 37.1484
43.6087 1432 37.8418
43.7256 1436 37.8946
43.8425 1309 36.1801
43.9595 1267 35.5949
44.0765 1277 35.7351
44.1935 1196 34.5832
44.3106 1180 34.3511
44.4277 1133 33.6601
44.5448 1193 34.5398
44.6619 1167 34.1614
44.7791 1246 35.2987
44.8963 1222 34.9571
45.0136 1213 34.8281
45.1308 1097 33.121
45.2481 1077 32.8177
45.3654 1018 31.9061
45.4827 969 31.1288
45.6001 1012 31.8119
45.7174 978 31.273
45.8348 996 31.5595
45.9522 998 31.5911
46.0697 1063 32.6037
46.1871 1080 32.8634
46.3046 1169 34.1906
46.422 1166 34.1467
46.5395 1263 35.5387
46.657 1220 34.9285
46.7745 1264 35.5528
46.892 1232 35.0999
47.0096 1214 34.8425
47.1271 1145 33.8378
47.2446 1169 34.1906
47.3622 1126 33.5559
47.4797 1057 32.5115
47.5973 1047 32.3574
47.7149 1085 32.9393
47.8324 1010 31.7805
47.95 1015 31.8591
48.0675 1000 31.6228
48.1851 1057 32.5115
48.3027 1041 32.2645
48.4202 972 31.1769
48.5378 1038 32.218
48.6554 936 30.5941
48.7729 919 30.315
48.8904 863 29.3769
49.008 807 28.4077
49.1255 823 28.688
49.243 839 28.9655
49.3605 878 29.6311
49.478 910 30.1662
49.5955 920 30.3315
49.713 1019 31.9218
49.8304 1008 31.749
49.9479 1076 32.8024
50.0653 1066 32.6497
50.1827 1099 33.1512
50.3001 1188 34.4674
50.4175 1151 33.9264
50.5348 1183 34.3948
50.6521 1138 33.7343
50.7694 1157 34.0147
50.8867 1074 32.7719
51.004 1101 33.1813
51.1212 1107 33.2716
51.2384 1084 32.9242
51.3556 1119 33.4515
51.4727 1119 33.4515
51.5899 1184 34.4093
51.707 1273 35.6791
51.824 1206 34.7275
51.9411 1302 36.0832
52.0581 1237 35.171
52.175 1298 36.0278
52.2919 1243 35.2562
52.4088 1105 33.2415
52.5257 1106 33.2566
52.6425 1175 34.2783
52.7593 1066 32.6497
52.876 1112 33.3467
52.9927 1215 34.8569
53.1094 1250 35.3553
53.226 1394 37.3363
53.3426 1514 38.9102
53.4591 1554 39.4208
53.5756 1615 40.1871
53.692 1626 40.3237
53.8084 1612 40.1497
53.9248 1695 41.1704
54.0411 1645 40.5586
54.1573 1732 41.6173
54.2735 0 1
54.3896 0 1
54.5057 0 1
54.6217 0 1
54.7377 0 1
54.8537 0 1
54.9695 0 1
55.0853 0 1
55.2011 0 1
55.3168 0 1
55.4324 0 1
57.824 0 1
57.9396 0 1
58.0553 0 1
58.1711 0 1
58.2869 0 1
58.4028 0 1
58.5187 0 1
58.6347 0 1
58.7508 0 1
58.8669 0 1
58.983 1966 44.3396
59.0992 2058 45.3652
59.2155 2064 45.4313
59.3318 2057 45.3542
59.4482 2122 46.0652
59.5646 1956 44.2267
59.681 2025 45
59.7975 1925 43.8748
59.9141 1979 44.486
60.0306 1914 43.7493
60.1473 1909 43.6921
60.2639 1901 43.6005
60.3807 1911 43.715
60.4974 1895 43.5316
60.6142 1808 42.5206
60.731 1875 43.3013
60.8479 1688 41.0853
60.9648 1637 40.4599
61.0818 1531 39.128
61.1987 1585 39.8121
61.3158 1465 38.2753
61.4328 1472 38.3667
61.5499 1581 39.7618
61.667 1617 40.2119
61.7841 1786 42.2611
61.9013 1847 42.9767
62.0185 1933 43.9659
62.1357 1907 43.6692
62.253 1980 44.4972
62.3702 1959 44.2606
62.4875 2035 45.111
62.6049 1993 44.643
62.7222 2053 45.31
62.8396 2041 45.1774
62.9569 1940 44.0454
63.0743 1846 42.9651
63.1918 1944 44.0908
63.3092 1898 43.566
63.4267 1795 42.3674
63.5441 1835 42.8369
63.6616 1833 42.8135
63.7791 1735 41.6533
63.8966 1828 42.7551
64.0142 1832 42.8019
64.1317 1866 43.1972
64.2492 1847 42.9767
64.3668 1757 41.9166
64.4843 1576 39.6989
64.6019 1507 38.8201
64.7195 1518 38.9615
64.837 1336 36.5513
64.9546 1434 37.8682
65.0722 1455 38.1445
65.1898 1488 38.5746
65.3074 1665 40.8044
65.4249 1683 41.0244
65.5425 1746 41.7852
65.6601 1894 43.5201
65.7777 1884 43.4051
65.8952 1927 43.8976
66.0128 1958 44.2493
66.1304 1945 44.1022
66.2479 2024 44.9889
66.3655 2104 45.8694
66.483 2007 44.7996
66.6005 2066 45.4533
66.718 1999 44.7102
66.8355 1956 44.2267
66.953 1947 44.1248
67.0705 1932 43.9545
67.1879 1920 43.8178
67.3054 1940 44.0454
67.4228 1968 44.3621
67.5402 1898 43.566
67.6576 1951 44.1701
67.7749 1988 44.587
67.8923 1951 44.1701
68.0096 1697 41.1947
68.1269 1700 41.2311
68.2442 1600 40
68.3614 1559 39.4842
68.4787 1531 39.128
68.5958 1465 38.2753
68.713 1589 39.8623
68.8302 1627 40.3361
68.9473 1766 42.0238
69.0643 1930 43.9318
69.1814 1990 44.6094
69.2984 2158 46.4543
69.4154 2246 47.392
69.5323 2227 47.1911
69.6492 2264 47.5815
69.7661 2392 48.9081
69.8829 2397 48.9592
69.9997 2411 49.1019
70.1165 2399 48.9796
70.2332 2378 48.7647
70.3499 2409 49.0816
70.4665 2418 49.1732
70.5831 2374 48.7237
70.6996 2249 47.4236
70.8161 2217 47.085
70.9326 2188 46.7761
71.049 2279 47.7389
71.1653 2269 47.634
71.2817 2292 47.8748
71.3979 2328 48.2494
71.5141 2194 46.8402
71.6303 1979 44.486
71.7464 1718 41.4488
71.8624 0 1
71.9784 0 1
72.0944 0 1
72.2102 0 1
72.3261 0 1
72.4418 0 1
72.5575 0 1
72.6732 0 1
75.1054 0 1
75.2209 0 1
75.3365 0 1
75.4521 0 1
75.5678 0 1
75.6835 0 1
75.7993 0 1
75.9151 0 1
76.031 0 1
76.147 2196 46.8615
76.263 2375 48.734
76.3791 2472 49.7192
76.4952 2591 50.9019
76.6113 2612 51.1077
76.7276 2599 50.9804
76.8438 2597 50.9608
76.9601 2408 49.0714
77.0765 2291 47.8644
77.1929 1985 44.5533
77.3093 1925 43.8748
77.4258 1789 42.2966
77.5423 1787 42.2729
77.6589 1836 42.8486
77.7755 1926 43.8862
77.8921 2191 46.8081
78.0088 2319 48.156
78.1256 2551 50.5074
78.2423 2597 50.9608
78.3591 2727 52.2207
78.4759 2805 52.9623
78.5928 2939 54.2125
78.7097 2997 54.7449
78.8266 2810 53.0094
78.9436 2992 54.6992
79.0606 2811 53.0189
79.1776 2772 52.6498
79.2946 2775 52.6783
79.4117 2918 54.0185
79.5288 2787 52.792
79.6459 2740 52.345
79.7631 2693 51.8941
79.8802 2625 51.2348
79.9974 2579 50.7839
80.1147 2676 51.7301
80.2319 2748 52.4214
80.3491 2785 52.7731
80.4664 2774 52.6688
80.5837 2580 50.7937
80.701 2390 48.8876
80.8183 2163 46.5081
80.9357 2109 45.9239
81.053 1831 42.7902
81.1704 1769 42.0595
81.2877 1758 41.9285
81.4051 1912 43.7264
81.5225 2021 44.9555
81.6399 2276 47.7074
81.7573 2507 50.07
81.8747 2580 50.7937
81.9922 2742 52.3641
82.1096 2761 52.5452
82.227 2851 53.3948
82.3444 2844 53.3292
82.4619 2876 53.6284
82.5793 2979 54.5802
82.6967 2753 52.469
82.8142 2842 53.3104
82.9316 2752 52.4595
83.049 2733 52.2781
83.1664 2705 52.0096
83.2838 2683 51.7977
83.4012 2522 50.2195
83.5186 2543 50.4282
83.636 2460 49.5984
83.7534 2568 50.6754
83.8708 2552 50.5173
83.9881 2695 51.9134
84.1055 2613 51.1175
84.2228 2475 49.7494
84.3401 2308 48.0416
84.4575 2200 46.9042
84.5747 2006 44.7884
84.692 1783 42.2256
84.8093 1804 42.4735
84.9265 1721 41.4849
85.0437 1893 43.5086
85.1609 2074 45.5412
85.2781 2321 48.1768
85.3952 2499 49.99
85.5123 2633 51.3128
85.6294 2861 53.4883
85.7465 3087 55.5608
85.8636 3059 55.3082
85.9806 3118 55.8391
86.0976 3184 56.4269
86.2145 3277 57.2451
86.3315 3349 57.8705
86.4484 3172 56.3205
86.5652 3170 56.3028
86.682 3286 57.3236
86.7988 3265 57.1402
86.9156 3231 56.8419
87.0323 3217 56.7186
87.149 3202 56.5862
87.2657 3164 56.2494
87.3823 3420 58.4808
87.4988 3365 58.0086
87.6154 3457 58.7963
87.7318 3420 58.4808
87.8483 3238 56.9034
87.9647 3026 55.0091
88.081 2728 52.2303
88.1973 2493 49.93
88.3136 2299 47.9479
88.4298 2310 48.0625
88.546 2342 48.3942
88.6621 2551 50.5074
88.7781 2820 53.1037
88.8942 0 1
89.0101 0 1
89.126 0 1
89.2419 0 1
89.3577 0 1
89.4734 0 1
89.5891 0 1
89.7047 0 1
89.8203 0 1
89.9358 0 1
92.3269 0 1
92.4424 0 1
92.558 0 1
92.6736 0 1
92.7893 0 1
92.905 0 1
93.0208 0 1
93.1366 0 1
93.2525 0 1
93.3685 0 1
93.4845 0 1
93.6005 2602 51.0098
93.7167 2522 50.2195
93.8328 2471 49.7092
93.949 2649 51.4684
94.0653 2924 54.074
94.1816 3206 56.6216
94.2979 3311 57.5413
94.4143 3666 60.5475
94.5307 3870 62.2093
94.6472 4065 63.7574
94.7637 3972 63.0238
94.8803 4061 63.726
94.9969 4081 63.8827
95.1135 4303 65.5973
95.2302 4201 64.8151
95.3469 4176 64.622
95.4637 4183 64.6761
95.5805 4199 64.7997
95.6973 4203 64.8305
95.8142 4244 65.146
95.9311 4087 63.9296
96.048 4215 64.923
96.1649 4160 64.4981
96.2819 3915 62.57
96.3989 3981 63.0952
96.516 4210 64.8845
96.633 4143 64.3661
96.7501 4070 63.7966
96.8673 4007 63.3009
96.9844 3723 61.0164
97.1016 3459 58.8133
97.2188 3152 56.1427
97.336 2947 54.2863
97.4532 2676 51.7301
97.5704 2672 51.6914
97.6877 2669 51.6624
97.805 2808 52.9906
97.9223 3159 56.205
98.0396 3451 58.7452
98.1569 3602 60.0167
98.2743 3946 62.8172
98.3916 4024 63.435
98.509 4276 65.3911
98.6264 4295 65.5362
98.7438 4308 65.6354
98.8612 4423 66.5056
98.9786 4504 67.1118
99.096 4398 66.3174
99.2134 4299 65.5668
99.3308 4322 65.7419
99.4482 4303 65.5973
99.5656 4478 66.9179
99.6831 4341 65.8863
99.8005 4110 64.1093
99.9179 4138 64.3273
100.035 4184 64.6838
100.153 4259 65.261
100.27 4330 65.8027
100.388 4421 66.4906
100.505 4000 63.2456
100.622 3910 62.53
100.74 3514 59.279
100.857 3109 55.7584
100.975 2859 53.4696
101.092 2804 52.9528
101.209 2705 52.0096
101.327 2864 53.5164
101.444 3069 55.3986
101.561 3437 58.6259
101.679 3693 60.7701
101.796 4009 63.3167
101.913 4142 64.3584
102.03 4432 66.5733
102.148 4438 66.6183
102.265 4424 66.5132
102.382 4717 68.6804
102.499 4549 67.4463
102.616 4681 68.4178
102.733 4534 67.335
102.851 4454 66.7383
102.968 4414 66.4379
103.085 4481 66.9403
103.202 4440 66.6333
103.319 4327 65.7799
103.436 4350 65.9545
103.552 4220 64.9615
103.669 4366 66.0757
103.786 4438 66.6183
103.903 4520 67.2309
104.02 4332 65.8179
104.137 4080 63.8749
104.253 3839 61.9597
104.37 3519 59.3212
104.487 3202 56.5862
104.603 3004 54.8088
104.72 3033 55.0727
104.836 3047 55.1996
104.953 3290 57.3585
105.069 3636 60.2993
105.186 3882 62.3057
105.302 4284 65.4523
105.418 4492 67.0224
105.535 4759 68.9855
105.651 4853 69.6635
105.767 4895 69.9643
105.883 4827 69.4766
105.999 4663 68.2862
106.115 0 1
106.231 0 1
106.347 0 1
106.463 0 1
106.579 0 1
106.694 0 1
106.81 0 1
106.926 0 1
107.041 0 1
107.157 0 1
109.576 0 1
109.692 0 1
109.807 0 1
109.923 0 1
110.039 0 1
110.155 0 1
110.27 0 1
110.386 0 1
110.502 0 1
110.618 4266 65.3146
110.735 4295 65.5362
110.851 4389 66.2495
110.967 4492 67.0224
111.083 4452 66.7233
111.199 4349 65.9469
111.316 4484 66.9627
111.432 4481 66.9403
111.549 4400 66.3325
111.665 4460 66.7832
111.782 4215 64.923
111.898 4118 64.1716
112.015 4193 64.7534
112.132 4323 65.7495
112.248 4171 64.5833
112.365 4426 66.5282
112.482 4087 63.9296
112.599 4048 63.6239
112.716 3610 60.0833
112.832 3398 58.2924
112.949 3050 55.2268
113.066 2789 52.811
113.183 2779 52.7162
113.3 2828 53.1789
113.417 2958 54.3875
113.534 3110 55.7674
113.652 3412 58.4123
113.769 3656 60.4649
113.886 3834 61.9193
114.003 3914 62.562
114.12 4148 64.405
114.238 4126 64.2339
114.355 4086 63.9218
114.472 4208 64.8691
114.589 4112 64.1249
114.707 4004 63.2772
114.824 3938 62.7535
114.942 4087 63.9296
115.059 3967 62.9841
115.176 4166 64.5446
115.294 4161 64.5058
115.411 3976 63.0555
115.529 3925 62.6498
115.646 4028 63.4665
115.764 4065 63.7574
115.881 4215 64.923
115.999 4031 63.4902
116.116 3894 62.4019
116.234 3564 59.6992
116.351 3507 59.2199
116.469 3311 57.5413
116.586 3080 55.4977
116.704 2769 52.6213
116.821 2721 52.1632
116.939 2789 52.811
117.056 2995 54.7266
117.174 3115 55.8122
117.291 3343 57.8187
117.409 3592 59.9333
117.526 3751 61.2454
117.644 3897 62.426
117.761 3963 62.9524
117.879 4093 63.9766
117.996 3951 62.857
118.114 4180 64.6529
118.231 3951 62.857
118.349 3962 62.9444
118.466 3997 63.2218
118.584 3955 62.8888
118.701 4044 63.5925
118.819 3996 63.2139
118.936 3997 63.2218
119.053 3918 62.5939
119.171 3813 61.7495
119.288 3842 61.9839
119.405 3906 62.498
119.523 3899 62.442
119.64 3750 61.2372
119.757 3691 60.7536
119.875 3617 60.1415
119.992 3432 58.5833
120.109 3171 56.3116
120.226 3003 54.7996
120.343 2793 52.8488
120.46 2798 52.8961
120.578 2764 52.5738
120.695 2719 52.144
120.812 2947 54.2863
120.929 2987 54.6535
121.046 3462 58.8388
121.163 3552 59.5987
121.279 3674 60.6135
121.396 3782 61.498
121.513 3814 61.7576
121.63 3944 62.8013
121.747 3860 62.1289
121.863 3912 62.546
121.98 3855 62.0886
122.097 3771 61.4085
122.213 3774 61.4329
122.33 3597 59.975
122.446 3833 61.9112
122.563 3727 61.0492
122.679 3674 60.6135
122.795 3616 60.1332
122.912 3721 61
123.028 3621 60.1747
123.144 3634 60.2827
123.26 3581 59.8415
123.377 0 1
123.493 0 1
123.609 0 1
123.725 0 1
123.84 0 1
123.956 0 1
124.072 0 1
124.188 0 1
124.303 0 1
124.419 0 1
126.852 0 1
126.968 0 1
127.083 0 1
127.199 0 1
127.315 0 1
127.431 0 1
127.547 0 1
127.663 0 1
127.779 0 1
127.895 0 1
128.011 0 1
128.127 0 1
128.243 0 1
128.359 4049 63.6318
128.476 3895 62.4099
128.592 3769 61.3922
128.708 3838 61.9516
128.825 3571 59.7578
128.941 3509 59.2368
129.058 3296 57.4108
129.174 3212 56.6745
129.291 3034 55.0818
129.408 3045 55.1815
129.524 2988 54.6626
129.641 3078 55.4797
129.758 3284 57.3062
129.875 3578 59.8164
129.992 3560 59.6657
130.108 3828 61.8708
130.225 3812 61.7414
130.342 3972 63.0238
130.459 3911 62.538
130.576 3940 62.7694
130.693 3884 62.3217
130.81 3814 61.7576
130.928 3706 60.8769
131.045 3883 62.3137
131.162 3898 62.434
131.279 4076 63.8436
131.396 3982 63.1031
131.513 3769 61.3922
131.631 3876 62.2575
131.748 3904 62.482
131.865 3888 62.3538
131.983 3859 62.1208
132.1 3874 62.2415
132.217 3773 61.4248
132.335 3715 60.9508
132.452 3540 59.4979
132.57 3411 58.4038
132.687 3112 55.7853
132.804 3086 55.5518
132.922 3058 55.2992
133.039 2913 53.9722
133.157 3036 55.0999
133.274 3031 55.0545
133.392 3285 57.3149
133.509 3406 58.3609
133.627 3522 59.3464
133.744 3699 60.8194
133.862 3638 60.3158
133.979 3729 61.0655
134.097 3814 61.7576
134.214 3596 59.9667
134.332 3578 59.8164
134.449 3638 60.3158
134.567 3580 59.8331
134.684 3753 61.2617
134.802 3752 61.2536
134.919 3879 62.2816
135.037 3702 60.8441
135.154 3605 60.0417
135.272 3790 61.563
135.389 3760 61.3188
135.507 3756 61.2862
135.624 3840 61.9677
135.742 3682 60.6795
135.859 3588 59.8999
135.977 3464 58.8558
136.094 3355 57.9224
136.211 3191 56.4889
136.329 3024 54.9909
136.446 3012 54.8817
136.564 2931 54.1387
136.681 2930 54.1295
136.798 2911 53.9537
136.915 3048 55.2087
137.033 3244 56.9561
137.15 3257 57.0701
137.267 3387 58.1979
137.384 3443 58.6771
137.502 3428 58.5491
137.619 3594 59.95
137.736 3674 60.6135
137.853 3464 58.8558
137.97 3464 58.8558
138.087 3308 57.5152
138.204 3407 58.3695
138.321 3564 59.6992
138.438 3665 60.5392
138.555 3659 60.4897
138.672 3520 59.3296
138.788 3563 59.6909
138.905 3655 60.4566
139.022 3663 60.5227
139.139 3687 60.7207
139.255 3524 59.3633
139.372 3745 61.1964
139.488 3595 59.9583
139.605 3523 59.3549
139.721 3462 58.8388
139.838 3264 57.1314
139.954 3075 55.4527
140.071 3015 54.909
140.187 3002 54.7905
140.303 2800 52.915
140.419 2908 53.9259
140.535 2919 54.0278
140.652 2929 54.1202
140.768 0 1
140.884 0 1
141 0 1
141.115 0 1
141.231 0 1
141.347 0 1
141.463 0 1
141.578 0 1
141.694 0 1
144.104 0 1
144.219 0 1
144.335 0 1
144.45 0 1
144.566 0 1
144.682 0 1
144.798 0 1
144.914 0 1
145.03 0 1
145.146 2094 45.7602
145.262 2298 47.9375
145.378 2322 48.1871
145.494 2262 47.5605
145.61 2470 49.6991
145.726 2507 50.07
145.842 2498 49.98
145.959 2542 50.4183
146.075 2774 52.6688
146.192 2682 51.788
146.308 2705 52.0096
146.425 2744 52.3832
146.541 2679 51.7591
146.658 2676 51.7301
146.774 2547 50.4678
146.891 2547 50.4678
147.008 2743 52.3737
147.125 2670 51.672
147.241 2731 52.259
147.358 2758 52.5167
147.475 2764 52.5738
147.592 2779 52.7162
147.709 2741 52.3546
147.826 2820 53.1037
147.943 2817 53.0754
148.06 2785 52.7731
148.177 2851 53.3948
148.294 2867 53.5444
148.411 2701 51.9711
148.528 2680 51.7687
148.645 2591 50.9019
148.762 2570 50.6952
148.88 2469 49.689
148.997 2435 49.3457
149.114 2498 49.98
149.231 2438 49.3761
149.349 2360 48.5798
149.466 2432 49.3153
149.583 2520 50.1996
149.701 2612 51.1077
149.818 2710 52.0577
149.935 2640 51.3809
150.053 2678 51.7494
150.17 2754 52.4786
150.287 2854 53.4228
150.405 2713 52.0865
150.522 2695 51.9134
150.64 2702 51.9808
150.757 2670 51.672
150.875 2757 52.5071
150.992 2792 52.8394
151.11 2743 52.3737
151.227 2836 53.2541
151.344 2818 53.0848
151.462 2800 52.915
151.579 2822 53.1225
151.697 2917 54.0093
151.814 2891 53.768
151.932 2774 52.6688
152.049 2833 53.2259
152.167 2761 52.5452
152.284 2660 51.5752
152.402 2595 50.9411
152.519 2563 50.6261
152.636 2536 50.3587
152.754 2415 49.1426
152.871 2540 50.3984
152.989 2450 49.4975
153.106 2556 50.5569
153.223 2610 51.0882
153.341 2718 52.1344
153.458 2673 51.7011
153.575 2721 52.1632
153.693 2828 53.1789
153.81 2796 52.8772
153.927 2712 52.0769
154.044 2748 52.4214
154.162 2654 51.517
154.279 2669 51.6624
154.396 2652 51.4976
154.513 2855 53.4322
154.63 2827 53.1695
154.747 2893 53.7866
154.864 3002 54.7905
154.981 3002 54.7905
155.098 2828 53.1789
155.215 2943 54.2494
155.332 2896 53.8145
155.449 2913 53.9722
155.566 2912 53.963
155.683 2914 53.9815
155.8 2727 52.2207
155.917 2773 52.6593
156.033 2747 52.4118
156.15 0 1
156.267 0 1
156.383 0 1
156.5 0 1
156.617 0 1
156.733 0 1
156.85 0 1
156.966 0 1
157.082 0 1
157.199 0 1
157.315 0 1
157.431 0 1
157.547 0 1
157.664 0 1
157.78 0 1
157.896 0 1
158.012 0 1
158.128 0 1
158.244 0 1
158.359 0 1
158.475 0 1
158.591 0 1
158.706 0 1
