
6.15755 0 1
6.2731 0 1
6.3887 0 1
6.50437 0 1
6.62009 0 1
6.73587 0 1
6.8517 0 1
6.96759 0 1
7.08353 0 1
7.19952 0 1
7.31557 0 1
7.43166 0 1
7.54781 0 1
7.664 0 1
7.78024 0 1
7.89653 0 1
8.01286 0 1
8.12924 0 1
8.24567 0 1
8.36213 0 1
8.47864 0 1
8.59519 0 1
8.71178 0 1
8.82841 0 1
8.94508 0 1
9.06179 0 1
9.17853 0 1
9.29531 0 1
9.41212 0 1
9.52897 0 1
9.64584 0 1
9.76276 0 1
9.8797 0 1
9.99667 0 1
10.1137 0 1
10.2307 0 1
10.3478 0 1
10.4648 0 1
10.5819 0 1
10.6991 0 1
10.8162 0 1
10.9334 0 1
11.0506 0 1
11.1678 0 1
11.285 0 1
11.4023 0 1
11.5196 0 1
11.6369 0 1
11.7542 0 1
11.8715 0 1
11.9888 0 1
12.1062 0 1
12.2235 0 1
12.3409 0 1
12.4582 0 1
12.5756 0 1
12.693 0 1
12.8104 0 1
12.9278 0 1
13.0452 0 1
13.1626 0 1
13.28 0 1
13.3974 0 1
13.5149 0 1
13.6323 0 1
13.7497 0 1
13.8671 0 1
13.9845 0 1
14.1019 0 1
14.2193 0 1
14.3367 0 1
14.4541 0 1
14.5714 0 1
14.6888 0 1
14.8062 0 1
14.9235 0 1
15.0408 0 0
15.1581 0 0
15.2755 0 0
15.3927 0 0
15.51 0 0
15.6273 0 0
15.7445 0 0
15.8617 0 0
15.9789 0 0
16.0961 0 0
16.2132 0 0
16.3304 0 0
16.4475 0 0
16.5646 0 0
16.6816 0 0
16.7986 0 0
16.9156 0 0
17.0326 0 0
17.1496 0 0
17.2665 0 0
17.3833 0 0
17.5002 0 0
17.617 0 0
17.7338 0 0
17.8505 0 0
17.9672 0 0
18.0839 0 0
18.2005 0 0
18.3171 0 0
18.4337 0 0
18.5502 0 0
18.6666 0 0
18.7831 0 0
18.8994 0 0
19.0158 0 0
19.1321 0 0
19.2483 0 0
19.3645 0 0
19.4806 0 0
19.5967 0 0
19.7128 0 0
19.8288 0 0
19.9447 0 0
20.0606 0 1
20.1764 0 1
20.2922 0 1
20.4079 0 1
20.5236 0 1
20.6392 0 1
20.7548 0 1
20.8702 0 1
23.3078 0 1
23.4233 0 1
23.539 0 1
23.6547 0 1
23.7704 0 1
23.8862 0 1
24.0021 0 1
24.118 0 1
24.234 0 1
24.35 0 1
24.4661 22896 151.314
24.5822 23092 151.961
24.6984 22728 150.758
24.8146 22828 151.089
24.9309 22202 149.003
25.0472 21687 147.265
25.1636 22142 148.802
25.28 22541 150.137
25.3965 23221 152.384
25.513 24025 155
25.6296 24700 157.162
25.7462 25987 161.205
25.8628 26159 161.737
25.9795 26048 161.394
26.0962 25984 161.196
26.213 26257 162.04
26.3298 25086 158.386
26.4466 24085 155.193
26.5635 23326 152.729
26.6804 22710 150.698
26.7973 23155 152.168
26.9143 24189 155.528
27.0313 24404 156.218
27.1483 25100 158.43
27.2653 25993 161.223
27.3824 25835 160.733
27.4996 26108 161.58
27.6167 25715 160.359
27.7339 25602 160.006
27.8511 24930 157.892
27.9683 24804 157.493
28.0855 24199 155.56
28.2028 23500 153.297
28.3201 23307 152.666
28.4374 22484 149.947
28.5547 21714 147.357
28.6721 21203 145.612
28.7894 22112 148.701
28.9068 22136 148.782
29.0242 23023 151.733
29.1416 23439 153.098
29.259 24172 155.473
29.3764 24539 156.649
29.4939 24891 157.769
29.6113 25007 158.136
29.7288 24415 156.253
29.8463 23779 154.204
29.9638 23184 152.263
30.0812 22038 148.452
30.1987 21587 146.925
30.3162 21939 148.118
30.4337 22867 151.218
30.5512 23612 153.662
30.6687 24062 155.119
30.7862 24633 156.949
30.9037 25400 159.374
31.0212 25209 158.773
31.1387 25223 158.818
31.2562 25093 158.408
31.3737 25037 158.231
31.4912 24321 155.952
31.6087 23780 154.208
31.7262 23538 153.421
31.8436 23029 151.753
31.9611 22359 149.529
32.0785 21665 147.19
32.1959 21356 146.137
32.3134 21557 146.823
32.4308 21728 147.404
32.5482 22482 149.94
32.6655 23459 153.163
32.7829 23853 154.444
32.9002 24184 155.512
33.0176 24293 155.862
33.1349 24616 156.895
33.2522 24348 156.038
33.3694 24575 156.764
33.4867 24018 154.977
33.6039 22916 151.38
33.7211 22070 148.56
33.8383 21562 146.84
33.9554 21437 146.414
34.0725 22234 149.111
34.1896 23198 152.309
34.3067 24039 155.045
34.4237 24371 156.112
34.5407 24335 155.997
34.6577 24958 157.981
34.7746 25436 159.487
34.8915 24868 157.696
35.0084 24503 156.534
35.1252 24331 155.984
35.242 23987 154.877
35.3587 23790 154.24
35.4755 23049 151.819
35.5921 22487 149.957
35.7088 21779 147.577
35.8254 21176 145.52
35.9419 20936 144.693
36.0584 20991 144.883
36.1749 21452 146.465
36.2913 21860 147.851
36.4077 22683 150.609
36.524 23203 152.325
36.6403 23553 153.47
36.7565 23800 154.272
36.8727 24442 156.339
36.9889 23854 154.447
37.1049 23544 153.441
37.221 0 1
37.3369 0 1
37.4529 0 1
37.5687 0 1
37.6845 0 1
37.8003 0 1
37.916 0 1
38.0316 0 1
38.1472 0 1
40.5851 0 1
40.7008 0 1
40.8164 0 1
40.9322 0 1
41.048 0 1
41.1639 0 1
41.2798 0 1
41.3958 0 1
41.5118 0 1
41.6279 0 1
41.744 18766 136.989
41.8602 19571 139.896
41.9765 20410 142.864
42.0928 20483 143.119
42.2091 20491 143.147
42.3255 20010 141.457
42.4419 18917 137.539
42.5584 18180 134.833
42.675 18103 134.547
42.7915 18387 135.599
42.9081 18997 137.83
43.0248 19928 141.167
43.1415 20026 141.513
43.2582 20621 143.6
43.375 20701 143.878
43.4918 21155 145.448
43.6087 20964 144.79
43.7256 20741 144.017
43.8425 20131 141.884
43.9595 20096 141.76
44.0765 19601 140.004
44.1935 19181 138.495
44.3106 18540 136.162
44.4277 17996 134.149
44.5448 16978 130.3
44.6619 15956 126.317
44.7791 15922 126.182
44.8963 16083 126.819
45.0136 16506 128.476
45.1308 16937 130.142
45.2481 17132 130.889
45.3654 17686 132.989
45.4827 17845 133.585
45.6001 17496 132.272
45.7174 17414 131.962
45.8348 17252 131.347
45.9522 16376 127.969
46.0697 15701 125.304
46.1871 14911 122.111
46.3046 14498 120.408
46.422 15038 122.63
46.5395 15813 125.75
46.657 16340 127.828
46.7745 16535 128.588
46.892 16691 129.194
47.0096 16456 128.281
47.1271 16635 128.977
47.2446 16482 128.382
47.3622 16261 127.519
47.4797 15909 126.131
47.5973 15486 124.443
47.7149 15139 123.041
47.8324 14425 120.104
47.95 13932 118.034
48.0675 13486 116.129
48.1851 12346 111.113
48.3027 12315 110.973
48.4202 12436 111.517
48.5378 12681 112.61
48.6554 12894 113.552
48.7729 13441 115.935
48.8904 13696 117.03
49.008 14037 118.478
49.1255 13885 117.835
49.243 13879 117.809
49.3605 13562 116.456
49.478 12953 113.811
49.5955 12320 110.995
49.713 12152 110.236
49.8304 12153 110.241
49.9479 12939 113.75
50.0653 13639 116.786
50.1827 14540 120.582
50.3001 15066 122.744
50.4175 15323 123.786
50.5348 15771 125.583
50.6521 16335 127.808
50.7694 16480 128.374
50.8867 16690 129.19
51.004 16867 129.873
51.1212 16993 130.357
51.2384 16839 129.765
51.3556 16987 130.334
51.4727 16658 129.066
51.5899 15915 126.155
51.707 15634 125.036
51.824 15431 124.222
51.9411 16049 126.685
52.0581 16673 129.124
52.175 17602 132.673
52.2919 18348 135.455
52.4088 18894 137.455
52.5257 19392 139.255
52.6425 19807 140.737
52.7593 20203 142.137
52.876 20186 142.077
52.9927 19726 140.449
53.1094 18791 137.08
53.226 18316 135.337
53.3426 17915 133.847
53.4591 18350 135.462
53.5756 19599 139.996
53.692 21103 145.269
53.8084 21631 147.075
53.9248 22498 149.993
54.0411 23328 152.735
54.1573 23829 154.366
54.2735 0 1
54.3896 0 1
54.5057 0 1
54.6217 0 1
54.7377 0 1
54.8537 0 1
54.9695 0 1
55.0853 0 1
55.2011 0 1
55.3168 0 1
55.4324 0 1
57.824 0 1
57.9396 0 1
58.0553 0 1
58.1711 0 1
58.2869 0 1
58.4028 0 1
58.5187 0 1
58.6347 0 1
58.7508 0 1
58.8669 0 1
58.983 25138 158.55
59.0992 26410 162.512
59.2155 27654 166.295
59.3318 28461 168.704
59.4482 28324 168.297
59.5646 28452 168.677
59.681 28392 168.499
59.7975 27671 166.346
59.9141 27267 165.127
60.0306 25931 161.031
60.1473 25003 158.123
60.2639 24305 155.901
60.3807 22510 150.033
60.4974 21889 147.949
60.6142 21837 147.773
60.731 22054 148.506
60.8479 22780 150.93
60.9648 23741 154.081
61.0818 24505 156.541
61.1987 24665 157.051
61.3158 24774 157.398
61.4328 24499 156.522
61.5499 23937 154.716
61.667 22750 150.831
61.7841 21607 146.993
61.9013 20916 144.624
62.0185 20884 144.513
62.1357 21780 147.58
62.253 22893 151.304
62.3702 23938 154.719
62.4875 24777 157.407
62.6049 25206 158.764
62.7222 26071 161.465
62.8396 25853 160.789
62.9569 26367 162.379
63.0743 26220 161.926
63.1918 26137 161.669
63.3092 25640 160.125
63.4267 24585 156.796
63.5441 23935 154.709
63.6616 22731 150.768
63.7791 21617 147.027
63.8966 20228 142.225
64.0142 19635 140.125
64.1317 19362 139.147
64.2492 19686 140.307
64.3668 20724 143.958
64.4843 21344 146.096
64.6019 22024 148.405
64.7195 22366 149.553
64.837 22541 150.137
64.9546 22557 150.19
65.0722 21920 148.054
65.1898 20776 144.139
65.3074 20333 142.594
65.4249 18859 137.328
65.5425 19040 137.986
65.6601 19087 138.156
65.7777 20340 142.618
65.8952 21348 146.11
66.0128 22170 148.896
66.1304 22948 151.486
66.2479 24191 155.535
66.3655 24520 156.589
66.483 24821 157.547
66.6005 24710 157.194
66.718 24943 157.934
66.8355 24683 157.108
66.953 24112 155.28
67.0705 23569 153.522
67.1879 22509 150.03
67.3054 21317 146.003
67.4228 20171 142.025
67.5402 18744 136.909
67.6576 18045 134.332
67.7749 18331 135.392
67.8923 19062 138.065
68.0096 20324 142.562
68.1269 20951 144.745
68.2442 21862 147.858
68.3614 22615 150.383
68.4787 23001 151.661
68.5958 22821 151.066
68.713 22427 149.756
68.8302 21529 146.728
68.9473 20323 142.559
69.0643 19892 141.039
69.1814 19289 138.885
69.2984 19982 141.358
69.4154 21095 145.241
69.5323 22465 149.883
69.6492 23939 154.722
69.7661 24621 156.911
69.8829 25897 160.925
69.9997 26081 161.496
70.1165 26794 163.689
70.2332 27082 164.566
70.3499 26870 163.921
70.4665 26776 163.634
70.5831 26477 162.718
70.6996 25427 159.458
70.8161 24817 157.534
70.9326 23432 153.075
71.049 22117 148.718
71.1653 20917 144.627
71.2817 19297 138.914
71.3979 18711 136.788
71.5141 19312 138.968
71.6303 19601 140.004
71.7464 18954 137.674
71.8624 0 1
71.9784 0 1
72.0944 0 1
72.2102 0 1
72.3261 0 1
72.4418 0 1
72.5575 0 1
72.6732 0 1
75.1054 0 1
75.2209 0 1
75.3365 0 1
75.4521 0 1
75.5678 0 1
75.6835 0 1
75.7993 0 1
75.9151 0 1
76.031 0 1
76.147 22358 149.526
76.263 23675 153.867
76.3791 23231 152.417
76.4952 21886 147.939
76.6113 20209 142.158
76.7276 19813 140.759
76.8438 20405 142.846
76.9601 20998 144.907
77.0765 22481 149.937
77.1929 23641 153.756
77.3093 25118 158.487
77.4258 25040 158.24
77.5423 25126 158.512
77.6589 25012 158.152
77.7755 23785 154.224
77.8921 22483 149.943
78.0088 21098 145.252
78.1256 20394 142.808
78.2423 19395 139.266
78.3591 20026 141.513
78.4759 21498 146.622
78.5928 22913 151.37
78.7097 24259 155.753
78.8266 25189 158.71
78.9436 26066 161.45
79.0606 26186 161.821
79.1776 26296 162.16
79.2946 26810 163.738
79.4117 26629 163.184
79.5288 26033 161.347
79.6459 25906 160.953
79.7631 24461 156.4
79.8802 23718 154.006
79.9974 22711 150.702
80.1147 20898 144.561
80.2319 19182 138.499
80.3491 18209 134.941
80.4664 18540 136.162
80.5837 19293 138.899
80.701 20236 142.253
80.8183 21580 146.901
80.9357 22352 149.506
81.053 22625 150.416
81.1704 22580 150.266
81.2877 22642 150.473
81.4051 21991 148.294
81.5225 20860 144.43
81.6399 19087 138.156
81.7573 18352 135.47
81.8747 17594 132.642
81.9922 17522 132.371
82.1096 19254 138.759
82.227 20448 142.997
82.3444 21566 146.854
82.4619 22490 149.967
82.5793 23497 153.287
82.6967 23231 152.417
82.8142 23540 153.428
82.9316 23773 154.185
83.049 23413 153.013
83.1664 22722 150.738
83.2838 22600 150.333
83.4012 21087 145.214
83.5186 20566 143.409
83.636 19511 139.682
83.7534 18263 135.141
83.8708 16962 130.238
83.9881 16151 127.087
84.1055 16085 126.827
84.2228 16579 128.759
84.3401 17604 132.68
84.4575 19012 137.884
84.5747 20364 142.702
84.692 20845 144.378
84.8093 21110 145.293
84.9265 20638 143.659
85.0437 20022 141.499
85.1609 18705 136.766
85.2781 17750 133.229
85.3952 16843 129.781
85.5123 16825 129.711
85.6294 17634 132.793
85.7465 19253 138.755
85.8636 20902 144.575
85.9806 22201 149
86.0976 23367 152.863
86.2145 23973 154.832
86.3315 24638 156.965
86.4484 25286 159.016
86.5652 25343 159.195
86.682 26145 161.694
86.7988 25818 160.68
86.9156 25260 158.934
87.0323 24641 156.975
87.149 23443 153.111
87.2657 22763 150.874
87.3823 21508 146.656
87.4988 19686 140.307
87.6154 19454 139.478
87.7318 20356 142.674
87.8483 21399 146.284
87.9647 23029 151.753
88.081 24711 157.197
88.1973 25704 160.325
88.3136 26016 161.295
88.4298 25732 160.412
88.546 25231 158.843
88.6621 24188 155.525
88.7781 22503 150.01
88.8942 0 1
89.0101 0 1
89.126 0 1
89.2419 0 1
89.3577 0 1
89.4734 0 1
89.5891 0 1
89.7047 0 1
89.8203 0 1
89.9358 0 1
92.3269 0 1
92.4424 0 1
92.558 0 1
92.6736 0 1
92.7893 0 1
92.905 0 1
93.0208 0 1
93.1366 0 1
93.2525 0 1
93.3685 0 1
93.4845 0 1
93.6005 36711 191.601
93.7167 38648 196.591
93.8328 39366 198.409
93.949 39727 199.316
94.0653 39943 199.857
94.1816 38936 197.322
94.2979 37450 193.52
94.4143 36614 191.348
94.5307 36195 190.25
94.6472 37249 193
94.7637 39819 199.547
94.8803 43235 207.93
94.9969 47064 216.942
95.1135 48793 220.891
95.2302 51525 226.991
95.3469 53238 230.734
95.4637 54861 234.224
95.5805 55918 236.47
95.6973 57544 239.883
95.8142 57928 240.682
95.9311 57327 239.431
96.048 56975 238.694
96.1649 54923 234.357
96.2819 54144 232.689
96.3989 51793 227.581
96.516 49428 222.324
96.633 46087 214.679
96.7501 44841 211.757
96.8673 45676 213.719
96.9844 47913 218.89
97.1016 51266 226.42
97.2188 54633 233.737
97.336 57055 238.862
97.4532 57056 238.864
97.5704 56745 238.212
97.6877 55575 235.744
97.805 52312 228.718
97.9223 48391 219.98
98.0396 44940 211.991
98.1569 43626 208.868
98.2743 42865 207.039
98.3916 44458 210.851
98.509 48149 219.429
98.6264 51078 226.004
98.7438 53208 230.669
98.8612 55321 235.204
98.9786 57026 238.801
99.096 57953 240.734
99.2134 58154 241.151
99.3308 58922 242.739
99.4482 58693 242.266
99.5656 58153 241.149
99.6831 56753 238.229
99.8005 55121 234.779
99.9179 53900 232.164
100.035 50626 225.002
100.153 48076 219.262
100.27 44600 211.187
100.388 44027 209.826
100.505 45699 213.773
100.622 49230 221.878
100.74 52350 228.801
100.857 54100 232.594
100.975 54362 233.157
101.092 54311 233.047
101.209 53571 231.454
101.327 51464 226.857
101.444 48274 219.713
101.561 44595 211.175
101.679 41334 203.308
101.796 39066 197.651
101.913 39019 197.532
102.03 40849 202.111
102.148 43430 208.399
102.265 48502 220.232
102.382 44113 210.031
102.499 47569 218.103
102.616 48091 219.297
102.733 47665 218.323
102.851 46697 216.095
102.968 46082 214.667
103.085 44398 210.708
103.202 42321 205.721
103.319 41033 202.566
103.436 39049 197.608
103.552 36277 190.465
103.669 33626 183.374
103.786 30615 174.971
103.903 28759 169.585
104.02 29040 170.411
104.137 30045 173.335
104.253 32430 180.083
104.37 31795 178.312
104.487 32761 181
104.603 31939 178.715
104.72 31124 176.42
104.836 29490 171.727
104.953 27986 167.29
105.069 25945 161.075
105.186 24952 157.962
105.302 24161 155.438
105.418 24398 156.199
105.535 25638 160.119
105.651 27709 166.46
105.767 29693 172.317
105.883 31124 176.42
105.999 32238 179.549
106.115 0 1
106.231 0 1
106.347 0 1
106.463 0 1
106.579 0 1
106.694 0 1
106.81 0 1
106.926 0 1
107.041 0 1
107.157 0 1
109.576 0 1
109.692 0 1
109.807 0 1
109.923 0 1
110.039 0 1
110.155 0 1
110.27 0 1
110.386 0 1
110.502 0 1
110.618 24154 155.416
110.735 26877 163.942
110.851 28356 168.392
110.967 29714 172.377
111.083 30522 174.705
111.199 31143 176.474
111.316 31752 178.191
111.432 31754 178.197
111.549 31395 177.186
111.665 31447 177.333
111.782 30304 174.08
111.898 29110 170.617
112.015 28328 168.309
112.132 26874 163.933
112.248 25259 158.931
112.365 23550 153.46
112.482 23480 153.232
112.599 23349 152.804
112.716 25147 158.578
112.832 26493 162.767
112.949 27723 166.502
113.066 27697 166.424
113.183 27614 166.175
113.3 27043 164.448
113.417 26240 161.988
113.534 25298 159.053
113.652 23873 154.509
113.769 22961 151.529
113.886 22486 149.953
114.003 22862 151.202
114.12 24426 156.288
114.238 27078 164.554
114.355 28149 167.777
114.472 30843 175.622
114.589 28389 168.49
114.707 30678 175.151
114.824 31269 176.83
114.942 31152 176.499
115.059 31399 177.198
115.176 31283 176.87
115.294 30656 175.089
115.411 29703 172.346
115.529 29078 170.523
115.646 28334 168.327
115.764 26578 163.028
115.881 24772 157.391
115.999 24109 155.271
116.116 24025 155
116.234 25358 159.242
116.351 26689 163.368
116.469 27884 166.985
116.586 28293 168.205
116.704 28265 168.122
116.821 28164 167.821
116.939 27772 166.649
117.056 26568 162.997
117.174 25767 160.521
117.291 24825 157.56
117.409 23837 154.392
117.526 23393 152.948
117.644 24760 157.353
117.761 26594 163.077
117.879 27937 167.144
117.996 29223 170.947
118.114 30265 173.968
118.231 31132 176.443
118.349 31357 177.079
118.466 31681 177.992
118.584 32056 179.042
118.701 32341 179.836
118.819 31536 177.584
118.936 30845 175.627
119.053 29973 173.127
119.171 29077 170.52
119.288 28291 168.199
119.405 26720 163.463
119.523 25026 158.196
119.64 24647 156.994
119.757 24441 156.336
119.875 25168 158.644
119.992 26960 164.195
120.109 27675 166.358
120.226 28515 168.864
120.343 28059 167.508
120.46 28122 167.696
120.578 27832 166.829
120.695 27304 165.239
120.812 26392 162.456
120.929 25306 159.079
121.046 24450 156.365
121.163 24402 156.211
121.279 24612 156.882
121.396 26005 161.261
121.513 27534 165.934
121.63 28758 169.582
121.747 30169 173.692
121.863 30711 175.246
121.98 31208 176.658
122.097 31739 178.154
122.213 31685 178.003
122.33 31556 177.64
122.446 31393 177.181
122.563 30935 175.883
122.679 30223 173.848
122.795 29525 171.828
122.912 28938 170.112
123.028 28163 167.818
123.144 26535 162.896
123.26 24846 157.626
123.377 0 1
123.493 0 1
123.609 0 1
123.725 0 1
123.84 0 1
123.956 0 1
124.072 0 1
124.188 0 1
124.303 0 1
124.419 0 1
126.852 0 1
126.968 0 1
127.083 0 1
127.199 0 1
127.315 0 1
127.431 0 1
127.547 0 1
127.663 0 1
127.779 0 1
127.895 0 1
128.011 0 1
128.127 0 1
128.243 0 1
128.359 29149 170.731
128.476 27736 166.541
128.592 27087 164.581
128.708 27315 165.273
128.825 28129 167.717
128.941 29908 172.939
129.058 31207 176.655
129.174 31450 177.341
129.291 31027 176.145
129.408 31249 176.774
129.524 30455 174.514
129.641 29723 172.404
129.758 28787 169.667
129.875 27686 166.391
129.992 26587 163.055
130.108 26652 163.254
130.225 26439 162.601
130.342 28053 167.49
130.459 29392 171.441
130.576 31455 177.356
130.693 31716 178.09
130.81 32076 179.098
130.928 32695 180.818
131.045 33337 182.584
131.162 33218 182.258
131.279 33560 183.194
131.396 33655 183.453
131.513 32579 180.497
131.631 31974 178.813
131.748 31518 177.533
131.865 30535 174.743
131.983 28772 169.623
132.1 27252 165.082
132.217 27718 166.487
132.335 28136 167.738
132.452 29438 171.575
132.57 30785 175.457
132.687 30119 173.548
132.804 31853 178.474
132.922 30828 175.579
133.039 30886 175.744
133.157 30229 173.865
133.274 28993 170.273
133.392 27849 166.88
133.509 27086 164.578
133.627 26852 163.866
133.744 26799 163.704
133.862 27394 165.511
133.979 28943 170.126
134.097 30238 173.891
134.214 31428 177.279
134.332 31402 177.206
134.449 32254 179.594
134.567 32491 180.253
134.684 32587 180.519
134.802 33291 182.458
134.919 33009 181.684
135.037 32820 181.163
135.154 31935 178.704
135.272 31491 177.457
135.389 30869 175.696
135.507 29706 172.354
135.624 28088 167.595
135.742 27553 165.991
135.859 27691 166.406
135.977 28478 168.754
136.094 29526 171.831
136.211 30639 175.04
136.329 31029 176.151
136.446 31506 177.499
136.564 31096 176.341
136.681 30871 175.701
136.798 30377 174.29
136.915 29386 171.423
137.033 28240 168.048
137.15 27266 165.124
137.267 26600 163.095
137.384 26752 163.56
137.502 27468 165.735
137.619 28591 169.089
137.736 29981 173.15
137.853 29862 172.806
137.97 31502 177.488
138.087 31188 176.601
138.204 32075 179.095
138.321 32660 180.721
138.438 32678 180.771
138.555 33200 182.209
138.672 33134 182.027
138.788 32930 181.466
138.905 32198 179.438
139.022 31389 177.169
139.139 30721 175.274
139.255 29206 170.898
139.372 28387 168.484
139.488 28500 168.819
139.605 29168 170.786
139.721 29949 173.058
139.838 31231 176.723
139.954 31571 177.682
140.071 31448 177.336
140.187 31306 176.935
140.303 30691 175.188
140.419 30325 174.141
140.535 29200 170.88
140.652 27637 166.244
140.768 0 1
140.884 0 1
141 0 1
141.115 0 1
141.231 0 1
141.347 0 1
141.463 0 1
141.578 0 1
141.694 0 1
144.104 0 1
144.219 0 1
144.335 0 1
144.45 0 1
144.566 0 1
144.682 0 1
144.798 0 1
144.914 0 1
145.03 0 1
145.146 28270 168.137
145.262 28993 170.273
145.378 28306 168.244
145.494 27657 166.304
145.61 26851 163.863
145.726 26032 161.344
145.842 25227 158.83
145.959 25407 159.396
146.075 25368 159.273
146.192 26255 162.034
146.308 27353 165.387
146.425 28331 168.318
146.541 28147 167.771
146.658 28960 170.176
146.774 29509 171.782
146.891 29712 172.372
147.008 30118 173.545
147.125 31096 176.341
147.241 30861 175.673
147.358 30778 175.437
147.475 29992 173.182
147.592 29162 170.769
147.709 28639 169.231
147.826 27960 167.212
147.943 26835 163.814
148.06 25953 161.099
148.177 26375 162.404
148.294 27589 166.099
148.411 28689 169.378
148.528 29173 170.801
148.645 29234 170.98
148.762 29248 171.02
148.88 29413 171.502
148.997 28354 168.386
149.114 29121 170.649
149.231 27764 166.625
149.349 27086 164.578
149.466 25956 161.109
149.583 25444 159.512
149.701 25411 159.408
149.818 26339 162.293
149.935 26800 163.707
150.053 27702 166.439
150.17 28518 168.873
150.287 29079 170.526
150.405 29402 171.47
150.522 29769 172.537
150.64 30557 174.806
150.757 31154 176.505
150.875 31022 176.131
150.992 30333 174.164
151.11 30033 173.3
151.227 30057 173.37
151.344 28998 170.288
151.462 27873 166.952
151.579 27361 165.412
151.697 26555 162.957
151.814 27197 164.915
151.932 27862 166.919
152.049 29196 170.868
152.167 29694 172.319
152.284 30216 173.828
152.402 29936 173.02
152.519 29895 172.902
152.636 29356 171.336
152.754 28896 169.988
152.871 27914 167.075
152.989 27132 164.718
153.106 26244 162
153.223 25840 160.748
153.341 26093 161.533
153.458 26772 163.622
153.575 27542 165.958
153.693 28449 168.668
153.81 29102 170.593
153.927 29420 171.523
154.044 30210 173.81
154.162 30884 175.738
154.279 31116 176.397
154.396 31773 178.25
154.513 31896 178.595
154.63 31719 178.098
154.747 31586 177.725
154.864 30805 175.514
154.981 30123 173.56
155.098 29397 171.456
155.215 28284 168.178
155.332 27818 166.787
155.449 28236 168.036
155.566 29146 170.722
155.683 30377 174.29
155.8 30416 174.402
155.917 30358 174.235
156.033 30466 174.545
156.15 0 1
156.267 0 1
156.383 0 1
156.5 0 1
156.617 0 1
156.733 0 1
156.85 0 1
156.966 0 1
157.082 0 1
157.199 0 1
157.315 0 1
157.431 0 1
157.547 0 1
157.664 0 1
157.78 0 1
157.896 0 1
158.012 0 1
158.128 0 1
158.244 0 1
158.359 0 1
158.475 0 1
158.591 0 1
158.706 0 1
