
6.15755 0 1
6.2731 0 1
6.3887 0 1
6.50437 0 1
6.62009 0 1
6.73587 0 1
6.8517 0 1
6.96759 0 1
7.08353 0 1
7.19952 0 1
7.31557 0 1
7.43166 0 1
7.54781 0 1
7.664 0 1
7.78024 0 1
7.89653 0 1
8.01286 0 1
8.12924 0 1
8.24567 0 1
8.36213 0 1
8.47864 0 1
8.59519 0 1
8.71178 0 1
8.82841 0 1
8.94508 0 1
9.06179 0 1
9.17853 0 1
9.29531 0 1
9.41212 0 1
9.52897 0 1
9.64584 0 1
9.76276 0 1
9.8797 0 1
9.99667 0 1
10.1137 0 1
10.2307 0 1
10.3478 0 1
10.4648 0 1
10.5819 0 1
10.6991 0 1
10.8162 0 1
10.9334 0 1
11.0506 0 1
11.1678 0 1
11.285 0 1
11.4023 0 1
11.5196 0 1
11.6369 0 1
11.7542 0 1
11.8715 0 1
11.9888 0 1
12.1062 0 1
12.2235 0 1
12.3409 0 1
12.4582 0 1
12.5756 0 1
12.693 0 1
12.8104 0 1
12.9278 0 1
13.0452 0 1
13.1626 0 1
13.28 0 1
13.3974 0 1
13.5149 0 1
13.6323 0 1
13.7497 0 1
13.8671 0 1
13.9845 0 1
14.1019 0 1
14.2193 0 1
14.3367 0 1
14.4541 0 1
14.5714 0 1
14.6888 0 1
14.8062 0 1
14.9235 0 1
15.0408 1196 34.5832
15.1581 1236 35.1568
15.2755 1252 35.3836
15.3927 1270 35.6371
15.51 1240 35.2136
15.6273 1206 34.7275
15.7445 1200 34.641
15.8617 1207 34.7419
15.9789 1208 34.7563
16.0961 1177 34.3074
16.2132 1205 34.7131
16.3304 1159 34.0441
16.4475 1124 33.5261
16.5646 1204 34.6987
16.6816 1160 34.0588
16.7986 1222 34.9571
16.9156 1198 34.6121
17.0326 1202 34.6699
17.1496 1231 35.0856
17.2665 1277 35.7351
17.3833 1198 34.6121
17.5002 1218 34.8999
17.617 1286 35.8608
17.7338 1286 35.8608
17.8505 1343 36.647
17.9672 1271 35.6511
18.0839 1374 37.0675
18.2005 1464 38.2623
18.3171 1554 39.4208
18.4337 1485 38.5357
18.5502 1548 39.3446
18.6666 1568 39.598
18.7831 1567 39.5854
18.8994 1472 38.3667
19.0158 1454 38.1314
19.1321 1316 36.2767
19.2483 1256 35.4401
19.3645 1208 34.7563
19.4806 1194 34.5543
19.5967 1206 34.7275
19.7128 1243 35.2562
19.8288 1145 33.8378
19.9447 1106 33.2566
20.0606 0 1
20.1764 0 1
20.2922 0 1
20.4079 0 1
20.5236 0 1
20.6392 0 1
20.7548 0 1
20.8702 0 1
23.3078 0 1
23.4233 0 1
23.539 0 1
23.6547 0 1
23.7704 0 1
23.8862 0 1
24.0021 0 1
24.118 0 1
24.234 0 1
24.35 0 1
24.4661 1252 35.3836
24.5822 1133 33.6601
24.6984 1160 34.0588
24.8146 1225 35
24.9309 1168 34.176
25.0472 1207 34.7419
25.1636 1179 34.3366
25.28 1231 35.0856
25.3965 1295 35.9861
25.513 1306 36.1386
25.6296 1297 36.0139
25.7462 1266 35.5809
25.8628 1323 36.3731
25.9795 1322 36.3593
26.0962 1324 36.3868
26.213 1380 37.1484
26.3298 1365 36.9459
26.4466 1339 36.5923
26.5635 1402 37.4433
26.6804 1460 38.2099
26.7973 1472 38.3667
26.9143 1483 38.5097
27.0313 1458 38.1838
27.1483 1470 38.3406
27.2653 1413 37.5899
27.3824 1497 38.6911
27.4996 1402 37.4433
27.6167 1365 36.9459
27.7339 1247 35.3129
27.8511 1295 35.9861
27.9683 1195 34.5688
28.0855 1163 34.1028
28.2028 1201 34.6554
28.3201 1113 33.3617
28.4374 1202 34.6699
28.5547 1168 34.176
28.6721 1121 33.4813
28.7894 1237 35.171
28.9068 1264 35.5528
29.0242 1143 33.8083
29.1416 1218 34.8999
29.259 1225 35
29.3764 1211 34.7994
29.4939 1260 35.4965
29.6113 1322 36.3593
29.7288 1340 36.606
29.8463 1242 35.242
29.9638 1261 35.5106
30.0812 1327 36.428
30.1987 1368 36.9865
30.3162 1432 37.8418
30.4337 1435 37.8814
30.5512 1447 38.0395
30.6687 1393 37.3229
30.7862 1422 37.7094
30.9037 1364 36.9324
31.0212 1390 37.2827
31.1387 1306 36.1386
31.2562 1260 35.4965
31.3737 1222 34.9571
31.4912 1199 34.6266
31.6087 1108 33.2866
31.7262 1106 33.2566
31.8436 1108 33.2866
31.9611 1140 33.7639
32.0785 1058 32.5269
32.1959 1162 34.0881
32.3134 1114 33.3766
32.4308 1213 34.8281
32.5482 1196 34.5832
32.6655 1141 33.7787
32.7829 1277 35.7351
32.9002 1226 35.0143
33.0176 1181 34.3657
33.1349 1179 34.3366
33.2522 1228 35.0428
33.3694 1146 33.8526
33.4867 1237 35.171
33.6039 1304 36.1109
33.7211 1270 35.6371
33.8383 1267 35.5949
33.9554 1328 36.4417
34.0725 1410 37.55
34.1896 1317 36.2905
34.3067 1284 35.8329
34.4237 1287 35.8748
34.5407 1346 36.6879
34.6577 1265 35.5668
34.7746 1221 34.9428
34.8915 1195 34.5688
35.0084 1119 33.4515
35.1252 1058 32.5269
35.242 1118 33.4365
35.3587 1020 31.9374
35.4755 1086 32.9545
35.5921 1082 32.8938
35.7088 1127 33.5708
35.8254 1068 32.6803
35.9419 1103 33.2114
36.0584 1122 33.4963
36.1749 1153 33.9559
36.2913 1168 34.176
36.4077 1172 34.2345
36.524 1158 34.0294
36.6403 1163 34.1028
36.7565 1137 33.7194
36.8727 1154 33.9706
36.9889 1119 33.4515
37.1049 1127 33.5708
37.221 0 1
37.3369 0 1
37.4529 0 1
37.5687 0 1
37.6845 0 1
37.8003 0 1
37.916 0 1
38.0316 0 1
38.1472 0 1
40.5851 0 1
40.7008 0 1
40.8164 0 1
40.9322 0 1
41.048 0 1
41.1639 0 1
41.2798 0 1
41.3958 0 1
41.5118 0 1
41.6279 0 1
41.744 904 30.0666
41.8602 1001 31.6386
41.9765 1004 31.686
42.0928 984 31.3688
42.2091 1065 32.6343
42.3255 1044 32.311
42.4419 1084 32.9242
42.5584 1024 32
42.675 1073 32.7567
42.7915 1047 32.3574
42.9081 1064 32.619
43.0248 1091 33.0303
43.1415 1129 33.6006
43.2582 1083 32.909
43.375 1102 33.1964
43.4918 1061 32.573
43.6087 1102 33.1964
43.7256 1067 32.665
43.8425 1041 32.2645
43.9595 1056 32.4962
44.0765 1032 32.1248
44.1935 944 30.7246
44.3106 1020 31.9374
44.4277 993 31.5119
44.5448 1018 31.9061
44.6619 986 31.4006
44.7791 930 30.4959
44.8963 942 30.692
45.0136 926 30.4302
45.1308 903 30.05
45.2481 905 30.0832
45.3654 860 29.3258
45.4827 869 29.4788
45.6001 835 28.8964
45.7174 806 28.3901
45.8348 826 28.7402
45.9522 761 27.5862
46.0697 735 27.1109
46.1871 705 26.5518
46.3046 733 27.074
46.422 749 27.3679
46.5395 753 27.4408
46.657 718 26.7955
46.7745 787 28.0535
46.892 744 27.2764
47.0096 714 26.7208
47.1271 769 27.7308
47.2446 756 27.4955
47.3622 699 26.4386
47.4797 713 26.7021
47.5973 688 26.2298
47.7149 664 25.7682
47.8324 667 25.8263
47.95 645 25.3969
48.0675 656 25.6125
48.1851 666 25.807
48.3027 624 24.98
48.4202 608 24.6577
48.5378 590 24.2899
48.6554 626 25.02
48.7729 587 24.2281
48.8904 607 24.6374
49.008 615 24.7992
49.1255 626 25.02
49.243 562 23.7065
49.3605 598 24.454
49.478 619 24.8797
49.5955 557 23.6008
49.713 686 26.1916
49.8304 651 25.5147
49.9479 610 24.6982
50.0653 612 24.7386
50.1827 644 25.3772
50.3001 651 25.5147
50.4175 681 26.096
50.5348 604 24.5764
50.6521 691 26.2869
50.7694 679 26.0576
50.8867 692 26.3059
51.004 710 26.6458
51.1212 739 27.1846
51.2384 780 27.9285
51.3556 793 28.1603
51.4727 774 27.8209
51.5899 813 28.5132
51.707 782 27.9643
51.824 782 27.9643
51.9411 764 27.6405
52.0581 812 28.4956
52.175 751 27.4044
52.2919 752 27.4226
52.4088 764 27.6405
52.5257 767 27.6948
52.6425 779 27.9106
52.7593 797 28.2312
52.876 768 27.7128
52.9927 760 27.5681
53.1094 843 29.0345
53.226 876 29.5973
53.3426 853 29.2062
53.4591 828 28.775
53.5756 914 30.2324
53.692 847 29.1033
53.8084 908 30.133
53.9248 934 30.5614
54.0411 991 31.4802
54.1573 1024 32
54.2735 0 1
54.3896 0 1
54.5057 0 1
54.6217 0 1
54.7377 0 1
54.8537 0 1
54.9695 0 1
55.0853 0 1
55.2011 0 1
55.3168 0 1
55.4324 0 1
57.824 0 1
57.9396 0 1
58.0553 0 1
58.1711 0 1
58.2869 0 1
58.4028 0 1
58.5187 0 1
58.6347 0 1
58.7508 0 1
58.8669 0 1
58.983 1049 32.3883
59.0992 1112 33.3467
59.2155 1186 34.4384
59.3318 1212 34.8138
59.4482 1256 35.4401
59.5646 1241 35.2278
59.681 1245 35.2846
59.7975 1339 36.5923
59.9141 1290 35.9166
60.0306 1215 34.8569
60.1473 1206 34.7275
60.2639 1204 34.6987
60.3807 1153 33.9559
60.4974 1142 33.7935
60.6142 1049 32.3883
60.731 1021 31.9531
60.8479 973 31.1929
60.9648 906 30.0998
61.0818 946 30.7571
61.1987 973 31.1929
61.3158 936 30.5941
61.4328 949 30.8058
61.5499 1030 32.0936
61.667 1031 32.1092
61.7841 1020 31.9374
61.9013 1062 32.5883
62.0185 1045 32.3265
62.1357 1073 32.7567
62.253 1037 32.2025
62.3702 1018 31.9061
62.4875 1055 32.4808
62.6049 1007 31.7333
62.7222 1052 32.4345
62.8396 1109 33.3017
62.9569 1205 34.7131
63.0743 1162 34.0881
63.1918 1218 34.8999
63.3092 1198 34.6121
63.4267 1242 35.242
63.5441 1162 34.0881
63.6616 1195 34.5688
63.7791 1086 32.9545
63.8966 1132 33.6452
64.0142 1008 31.749
64.1317 983 31.3528
64.2492 897 29.95
64.3668 854 29.2233
64.4843 827 28.7576
64.6019 851 29.1719
64.7195 851 29.1719
64.837 836 28.9137
64.9546 890 29.8329
65.0722 895 29.9166
65.1898 945 30.7409
65.3074 893 29.8831
65.4249 915 30.249
65.5425 979 31.289
65.6601 1010 31.7805
65.7777 973 31.1929
65.8952 944 30.7246
66.0128 1003 31.6702
66.1304 944 30.7246
66.2479 1051 32.4191
66.3655 1071 32.7261
66.483 1152 33.9411
66.6005 1121 33.4813
66.718 1138 33.7343
66.8355 1157 34.0147
66.953 1153 33.9559
67.0705 1147 33.8674
67.1879 1208 34.7563
67.3054 1112 33.3467
67.4228 1048 32.3728
67.5402 996 31.5595
67.6576 939 30.6431
67.7749 846 29.0861
67.8923 869 29.4788
68.0096 856 29.2575
68.1269 837 28.931
68.2442 816 28.5657
68.3614 861 29.3428
68.4787 860 29.3258
68.5958 930 30.4959
68.713 898 29.9666
68.8302 902 30.0333
68.9473 898 29.9666
69.0643 962 31.0161
69.1814 952 30.8545
69.2984 966 31.0805
69.4154 1024 32
69.5323 1034 32.1559
69.6492 1059 32.5423
69.7661 1079 32.8481
69.8829 1168 34.176
69.9997 1134 33.6749
70.1165 1257 35.4542
70.2332 1220 34.9285
70.3499 1264 35.5528
70.4665 1246 35.2987
70.5831 1283 35.819
70.6996 1224 34.9857
70.8161 1188 34.4674
70.9326 1113 33.3617
71.049 1011 31.7962
71.1653 968 31.1127
71.2817 895 29.9166
71.3979 847 29.1033
71.5141 840 28.9828
71.6303 796 28.2135
71.7464 775 27.8388
71.8624 0 1
71.9784 0 1
72.0944 0 1
72.2102 0 1
72.3261 0 1
72.4418 0 1
72.5575 0 1
72.6732 0 1
75.1054 0 1
75.2209 0 1
75.3365 0 1
75.4521 0 1
75.5678 0 1
75.6835 0 1
75.7993 0 1
75.9151 0 1
76.031 0 1
76.147 1052 32.4345
76.263 1040 32.249
76.3791 1007 31.7333
76.4952 945 30.7409
76.6113 906 30.0998
76.7276 869 29.4788
76.8438 979 31.289
76.9601 872 29.5296
77.0765 939 30.6431
77.1929 901 30.0167
77.3093 915 30.249
77.4258 868 29.4618
77.5423 896 29.9333
77.6589 995 31.5436
77.7755 955 30.9031
77.8921 967 31.0966
78.0088 936 30.5941
78.1256 937 30.6105
78.2423 985 31.3847
78.3591 1009 31.7648
78.4759 1077 32.8177
78.5928 1087 32.9697
78.7097 1081 32.8786
78.8266 1104 33.2265
78.9436 1173 34.2491
79.0606 1210 34.7851
79.1776 1205 34.7131
79.2946 1215 34.8569
79.4117 1257 35.4542
79.5288 1233 35.1141
79.6459 1198 34.6121
79.7631 1093 33.0606
79.8802 1049 32.3883
79.9974 973 31.1929
80.1147 953 30.8707
80.2319 898 29.9666
80.3491 957 30.9354
80.4664 938 30.6268
80.5837 876 29.5973
80.701 912 30.1993
80.8183 896 29.9333
80.9357 912 30.1993
81.053 930 30.4959
81.1704 942 30.692
81.2877 938 30.6268
81.4051 915 30.249
81.5225 952 30.8545
81.6399 974 31.209
81.7573 932 30.5287
81.8747 963 31.0322
81.9922 1067 32.665
82.1096 1049 32.3883
82.227 1108 33.2866
82.3444 1136 33.7046
82.4619 1178 34.322
82.5793 1249 35.3412
82.6967 1216 34.8712
82.8142 1190 34.4964
82.9316 1208 34.7563
83.049 1235 35.1426
83.1664 1299 36.0416
83.2838 1145 33.8378
83.4012 1057 32.5115
83.5186 1049 32.3883
83.636 988 31.4325
83.7534 957 30.9354
83.8708 919 30.315
83.9881 871 29.5127
84.1055 932 30.5287
84.2228 929 30.4795
84.3401 912 30.1993
84.4575 1000 31.6228
84.5747 906 30.0998
84.692 976 31.241
84.8093 1036 32.187
84.9265 1001 31.6386
85.0437 1012 31.8119
85.1609 960 30.9839
85.2781 936 30.5941
85.3952 1026 32.0312
85.5123 1069 32.6956
85.6294 1125 33.541
85.7465 1093 33.0606
85.8636 1223 34.9714
85.9806 1219 34.9142
86.0976 1243 35.2562
86.2145 1366 36.9594
86.3315 1324 36.3868
86.4484 1312 36.2215
86.5652 1370 37.0135
86.682 1285 35.8469
86.7988 1256 35.4401
86.9156 1252 35.3836
87.0323 1196 34.5832
87.149 1099 33.1512
87.2657 1063 32.6037
87.3823 1059 32.5423
87.4988 972 31.1769
87.6154 1055 32.4808
87.7318 1041 32.2645
87.8483 990 31.4643
87.9647 1034 32.1559
88.081 1010 31.7805
88.1973 1065 32.6343
88.3136 1142 33.7935
88.4298 1062 32.5883
88.546 1046 32.3419
88.6621 985 31.3847
88.7781 1013 31.8277
88.8942 0 1
89.0101 0 1
89.126 0 1
89.2419 0 1
89.3577 0 1
89.4734 0 1
89.5891 0 1
89.7047 0 1
89.8203 0 1
89.9358 0 1
92.3269 0 1
92.4424 0 1
92.558 0 1
92.6736 0 1
92.7893 0 1
92.905 0 1
93.0208 0 1
93.1366 0 1
93.2525 0 1
93.3685 0 1
93.4845 0 1
93.6005 1006 31.7175
93.7167 994 31.5278
93.8328 1036 32.187
93.949 959 30.9677
94.0653 975 31.225
94.1816 1037 32.2025
94.2979 1008 31.749
94.4143 1001 31.6386
94.5307 1066 32.6497
94.6472 1153 33.9559
94.7637 1274 35.6931
94.8803 1219 34.9142
94.9969 1247 35.3129
95.1135 1288 35.8887
95.2302 1312 36.2215
95.3469 1294 35.9722
95.4637 1225 35
95.5805 1288 35.8887
95.6973 1241 35.2278
95.8142 1185 34.4238
95.9311 1214 34.8425
96.048 1084 32.9242
96.1649 1056 32.4962
96.2819 1034 32.1559
96.3989 1034 32.1559
96.516 998 31.5911
96.633 977 31.257
96.7501 1025 32.0156
96.8673 1011 31.7962
96.9844 989 31.4484
97.1016 1005 31.7017
97.2188 999 31.607
97.336 1064 32.619
97.4532 989 31.4484
97.5704 975 31.225
97.6877 976 31.241
97.805 914 30.2324
97.9223 946 30.7571
98.0396 978 31.273
98.1569 996 31.5595
98.2743 1037 32.2025
98.3916 1130 33.6155
98.509 1171 34.2199
98.6264 1155 33.9853
98.7438 1224 34.9857
98.8612 1255 35.426
98.9786 1302 36.0832
99.096 1218 34.8999
99.2134 1229 35.0571
99.3308 1265 35.5668
99.4482 1237 35.171
99.5656 1166 34.1467
99.6831 1177 34.3074
99.8005 1082 32.8938
99.9179 965 31.0644
100.035 1000 31.6228
100.153 1039 32.2335
100.27 1023 31.9844
100.388 955 30.9031
100.505 939 30.6431
100.622 919 30.315
100.74 969 31.1288
100.857 944 30.7246
100.975 1005 31.7017
101.092 1007 31.7333
101.209 932 30.5287
101.327 900 30
101.444 903 30.05
101.561 991 31.4802
101.679 964 31.0483
101.796 1006 31.7175
101.913 1087 32.9697
102.03 1080 32.8634
102.148 1219 34.9142
102.265 1268 35.609
102.382 1383 37.1887
102.499 1315 36.2629
102.616 1218 34.8999
102.733 1276 35.7211
102.851 1297 36.0139
102.968 1320 36.3318
103.085 1240 35.2136
103.202 1228 35.0428
103.319 1218 34.8999
103.436 1151 33.9264
103.552 1141 33.7787
103.669 1083 32.909
103.786 1113 33.3617
103.903 1039 32.2335
104.02 1049 32.3883
104.137 1069 32.6956
104.253 1038 32.218
104.37 1071 32.7261
104.487 1056 32.4962
104.603 1035 32.1714
104.72 995 31.5436
104.836 1005 31.7017
104.953 1011 31.7962
105.069 1060 32.5576
105.186 1100 33.1662
105.302 1099 33.1512
105.418 1255 35.426
105.535 1282 35.805
105.651 1355 36.8103
105.767 1337 36.565
105.883 1313 36.2353
105.999 1264 35.5528
106.115 0 1
106.231 0 1
106.347 0 1
106.463 0 1
106.579 0 1
106.694 0 1
106.81 0 1
106.926 0 1
107.041 0 1
107.157 0 1
109.576 0 1
109.692 0 1
109.807 0 1
109.923 0 1
110.039 0 1
110.155 0 1
110.27 0 1
110.386 0 1
110.502 0 1
110.618 1068 32.6803
110.735 1155 33.9853
110.851 1141 33.7787
110.967 1118 33.4365
111.083 1116 33.4066
111.199 1076 32.8024
111.316 1211 34.7994
111.432 1231 35.0856
111.549 1165 34.1321
111.665 1096 33.1059
111.782 1117 33.4215
111.898 1051 32.4191
112.015 1086 32.9545
112.132 994 31.5278
112.248 933 30.545
112.365 948 30.7896
112.482 952 30.8545
112.599 913 30.2159
112.716 920 30.3315
112.832 918 30.2985
112.949 877 29.6142
113.066 844 29.0517
113.183 816 28.5657
113.3 840 28.9828
113.417 772 27.7849
113.534 826 28.7402
113.652 858 29.2916
113.769 854 29.2233
113.886 858 29.2916
114.003 902 30.0333
114.12 916 30.2655
114.238 971 31.1609
114.355 914 30.2324
114.472 944 30.7246
114.589 835 28.8964
114.707 867 29.4449
114.824 885 29.7489
114.942 941 30.6757
115.059 941 30.6757
115.176 928 30.4631
115.294 891 29.8496
115.411 869 29.4788
115.529 827 28.7576
115.646 783 27.9821
115.764 800 28.2843
115.881 799 28.2666
115.999 708 26.6083
116.116 720 26.8328
116.234 720 26.8328
116.351 741 27.2213
116.469 666 25.807
116.586 706 26.5707
116.704 627 25.04
116.821 631 25.1197
116.939 628 25.0599
117.056 690 26.2679
117.174 670 25.8844
117.291 653 25.5539
117.409 711 26.6646
117.526 743 27.258
117.644 790 28.1069
117.761 720 26.8328
117.879 790 28.1069
117.996 728 26.9815
118.114 770 27.7489
118.231 749 27.3679
118.349 761 27.5862
118.466 796 28.2135
118.584 809 28.4429
118.701 750 27.3861
118.819 798 28.2489
118.936 795 28.1957
119.053 839 28.9655
119.171 753 27.4408
119.288 734 27.0924
119.405 791 28.1247
119.523 787 28.0535
119.64 725 26.9258
119.757 715 26.7395
119.875 711 26.6646
119.992 702 26.4953
120.109 685 26.1725
120.226 687 26.2107
120.343 659 25.671
120.46 721 26.8514
120.578 682 26.1151
120.695 713 26.7021
120.812 817 28.5832
120.929 766 27.6767
121.046 805 28.3725
121.163 768 27.7128
121.279 741 27.2213
121.396 851 29.1719
121.513 867 29.4449
121.63 858 29.2916
121.747 799 28.2666
121.863 763 27.6225
121.98 829 28.7924
122.097 827 28.7576
122.213 901 30.0167
122.33 902 30.0333
122.446 950 30.8221
122.563 894 29.8998
122.679 944 30.7246
122.795 931 30.5123
122.912 957 30.9354
123.028 942 30.692
123.144 945 30.7409
123.26 871 29.5127
123.377 0 1
123.493 0 1
123.609 0 1
123.725 0 1
123.84 0 1
123.956 0 1
124.072 0 1
124.188 0 1
124.303 0 1
124.419 0 1
126.852 0 1
126.968 0 1
127.083 0 1
127.199 0 1
127.315 0 1
127.431 0 1
127.547 0 1
127.663 0 1
127.779 0 1
127.895 0 1
128.011 0 1
128.127 0 1
128.243 0 1
128.359 1076 32.8024
128.476 1082 32.8938
128.592 1073 32.7567
128.708 1059 32.5423
128.825 1045 32.3265
128.941 1009 31.7648
129.058 923 30.3809
129.174 900 30
129.291 962 31.0161
129.408 973 31.1929
129.524 940 30.6594
129.641 890 29.8329
129.758 985 31.3847
129.875 938 30.6268
129.992 906 30.0998
130.108 963 31.0322
130.225 1004 31.686
130.342 930 30.4959
130.459 983 31.3528
130.576 925 30.4138
130.693 889 29.8161
130.81 734 27.0924
130.928 701 26.4764
131.045 774 27.8209
131.162 955 30.9031
131.279 1024 32
131.396 988 31.4325
131.513 1022 31.9687
131.631 982 31.3369
131.748 1007 31.7333
131.865 945 30.7409
131.983 943 30.7083
132.1 966 31.0805
132.217 955 30.9031
132.335 934 30.5614
132.452 908 30.133
132.57 871 29.5127
132.687 824 28.7054
132.804 906 30.0998
132.922 811 28.4781
133.039 842 29.0172
133.157 800 28.2843
133.274 836 28.9137
133.392 847 29.1033
133.509 821 28.6531
133.627 852 29.189
133.744 789 28.0891
133.862 783 27.9821
133.979 777 27.8747
134.097 801 28.3019
134.214 723 26.8887
134.332 561 23.6854
134.449 488 22.0907
134.567 622 24.9399
134.684 725 26.9258
134.802 769 27.7308
134.919 784 28
135.037 814 28.5307
135.154 725 26.9258
135.272 731 27.037
135.389 739 27.1846
135.507 725 26.9258
135.624 719 26.8142
135.742 736 27.1293
135.859 684 26.1534
135.977 663 25.7488
136.094 691 26.2869
136.211 653 25.5539
136.329 646 25.4165
136.446 635 25.1992
136.564 620 24.8998
136.681 670 25.8844
136.798 630 25.0998
136.915 556 23.5797
137.033 657 25.632
137.15 655 25.593
137.267 602 24.5357
137.384 630 25.0998
137.502 591 24.3105
137.619 631 25.1197
137.736 576 24
137.853 447 21.1424
137.97 449 21.1896
138.087 444 21.0713
138.204 610 24.6982
138.321 658 25.6515
138.438 644 25.3772
138.555 686 26.1916
138.672 696 26.3818
138.788 685 26.1725
138.905 696 26.3818
139.022 721 26.8514
139.139 663 25.7488
139.255 720 26.8328
139.372 733 27.074
139.488 729 27
139.605 754 27.4591
139.721 718 26.7955
139.838 795 28.1957
139.954 770 27.7489
140.071 705 26.5518
140.187 731 27.037
140.303 746 27.313
140.419 732 27.0555
140.535 728 26.9815
140.652 720 26.8328
140.768 0 1
140.884 0 1
141 0 1
141.115 0 1
141.231 0 1
141.347 0 1
141.463 0 1
141.578 0 1
141.694 0 1
144.104 0 1
144.219 0 1
144.335 0 1
144.45 0 1
144.566 0 1
144.682 0 1
144.798 0 1
144.914 0 1
145.03 0 1
145.146 632 25.1396
145.262 621 24.9199
145.378 606 24.6171
145.494 591 24.3105
145.61 595 24.3926
145.726 537 23.1733
145.842 580 24.0832
145.959 600 24.4949
146.075 555 23.5584
146.192 573 23.9374
146.308 524 22.891
146.425 538 23.1948
146.541 487 22.0681
146.658 451 21.2368
146.774 400 20
146.891 450 21.2132
147.008 432 20.7846
147.125 507 22.5167
147.241 514 22.6716
147.358 551 23.4734
147.475 517 22.7376
147.592 512 22.6274
147.709 485 22.0227
147.826 500 22.3607
147.943 460 21.4476
148.06 471 21.7025
148.177 498 22.3159
148.294 514 22.6716
148.411 469 21.6564
148.528 486 22.0454
148.645 440 20.9762
148.762 421 20.5183
148.88 440 20.9762
148.997 443 21.0476
149.114 380 19.4936
149.231 404 20.0998
149.349 451 21.2368
149.466 438 20.9284
149.583 405 20.1246
149.701 402 20.0499
149.818 413 20.3224
149.935 395 19.8746
150.053 411 20.2731
150.17 368 19.1833
150.287 354 18.8149
150.405 341 18.4662
150.522 376 19.3907
150.64 405 20.1246
150.757 391 19.7737
150.875 405 20.1246
150.992 349 18.6815
151.11 443 21.0476
151.227 409 20.2237
151.344 393 19.8242
151.462 428 20.6882
151.579 412 20.2978
151.697 392 19.799
151.814 394 19.8494
151.932 411 20.2731
152.049 408 20.199
152.167 418 20.445
152.284 381 19.5192
152.402 405 20.1246
152.519 393 19.8242
152.636 392 19.799
152.754 361 19
152.871 367 19.1572
152.989 434 20.8327
153.106 389 19.7231
153.223 399 19.975
153.341 380 19.4936
153.458 406 20.1494
153.575 396 19.8997
153.693 382 19.5448
153.81 369 19.2094
153.927 381 19.5192
154.044 363 19.0526
154.162 406 20.1494
154.279 402 20.0499
154.396 450 21.2132
154.513 463 21.5174
154.63 515 22.6936
154.747 511 22.6053
154.864 444 21.0713
154.981 480 21.9089
155.098 520 22.8035
155.215 525 22.9129
155.332 468 21.6333
155.449 495 22.2486
155.566 454 21.3073
155.683 432 20.7846
155.8 492 22.1811
155.917 475 21.7945
156.033 430 20.7364
156.15 0 1
156.267 0 1
156.383 0 1
156.5 0 1
156.617 0 1
156.733 0 1
156.85 0 1
156.966 0 1
157.082 0 1
157.199 0 1
157.315 0 1
157.431 0 1
157.547 0 1
157.664 0 1
157.78 0 1
157.896 0 1
158.012 0 1
158.128 0 1
158.244 0 1
158.359 0 1
158.475 0 1
158.591 0 1
158.706 0 1
