
6.15755 0 1
6.2731 0 1
6.3887 0 1
6.50437 0 1
6.62009 0 1
6.73587 0 1
6.8517 0 1
6.96759 0 1
7.08353 0 1
7.19952 0 1
7.31557 0 1
7.43166 0 1
7.54781 0 1
7.664 0 1
7.78024 0 1
7.89653 0 1
8.01286 0 1
8.12924 0 1
8.24567 0 1
8.36213 0 1
8.47864 0 1
8.59519 0 1
8.71178 0 1
8.82841 0 1
8.94508 0 1
9.06179 0 1
9.17853 0 1
9.29531 0 1
9.41212 0 1
9.52897 0 1
9.64584 0 1
9.76276 0 1
9.8797 0 1
9.99667 0 1
10.1137 0 1
10.2307 0 1
10.3478 0 1
10.4648 0 1
10.5819 0 1
10.6991 0 1
10.8162 0 1
10.9334 0 1
11.0506 0 1
11.1678 0 1
11.285 0 1
11.4023 0 1
11.5196 0 1
11.6369 0 1
11.7542 0 1
11.8715 0 1
11.9888 0 1
12.1062 0 1
12.2235 0 1
12.3409 0 1
12.4582 0 1
12.5756 0 1
12.693 0 1
12.8104 0 1
12.9278 0 1
13.0452 0 1
13.1626 0 1
13.28 0 1
13.3974 0 1
13.5149 0 1
13.6323 0 1
13.7497 0 1
13.8671 0 1
13.9845 0 1
14.1019 0 1
14.2193 0 1
14.3367 0 1
14.4541 0 1
14.5714 0 1
14.6888 0 1
14.8062 0 1
14.9235 0 1
15.0408 5652 75.1798
15.1581 6073 77.9295
15.2755 6127 78.2752
15.3927 6009 77.5177
15.51 6014 77.55
15.6273 5905 76.844
15.7445 6037 77.6981
15.8617 5940 77.0714
15.9789 6091 78.0449
16.0961 6091 78.0449
16.2132 6093 78.0577
16.3304 6228 78.9177
16.4475 6304 79.3977
16.5646 6492 80.5729
16.6816 6610 81.3019
16.7986 6715 81.9451
16.9156 6894 83.0301
17.0326 6912 83.1384
17.1496 7080 84.1427
17.2665 7026 83.8212
17.3833 7104 84.2852
17.5002 7102 84.2734
17.617 7110 84.3208
17.7338 7129 84.4334
17.8505 6892 83.0181
17.9672 6829 82.6378
18.0839 6697 81.8352
18.2005 6835 82.6741
18.3171 6951 83.3727
18.4337 7117 84.3623
18.5502 7185 84.7644
18.6666 7342 85.6855
18.7831 7412 86.093
18.8994 7369 85.8429
19.0158 6958 83.4146
19.1321 6713 81.9329
19.2483 6688 81.7802
19.3645 6571 81.0617
19.4806 6414 80.0875
19.5967 6329 79.555
19.7128 6042 77.7303
19.8288 5552 74.5117
19.9447 4870 69.7854
20.0606 0 1
20.1764 0 1
20.2922 0 1
20.4079 0 1
20.5236 0 1
20.6392 0 1
20.7548 0 1
20.8702 0 1
23.3078 0 1
23.4233 0 1
23.539 0 1
23.6547 0 1
23.7704 0 1
23.8862 0 1
24.0021 0 1
24.118 0 1
24.234 0 1
24.35 0 1
24.4661 3596 59.9667
24.5822 4321 65.7343
24.6984 5025 70.8872
24.8146 5461 73.8986
24.9309 6229 78.924
25.0472 6582 81.1295
25.1636 6978 83.5344
25.28 7556 86.9253
25.3965 8028 89.5991
25.513 8632 92.9086
25.6296 8847 94.0585
25.7462 9031 95.0316
25.8628 9269 96.2756
25.9795 9576 97.857
26.0962 9423 97.0721
26.213 9578 97.8673
26.3298 9563 97.7906
26.4466 9437 97.1442
26.5635 9403 96.9691
26.6804 9258 96.2185
26.7973 9368 96.7884
26.9143 9474 97.3345
27.0313 9586 97.9081
27.1483 9977 99.8849
27.2653 10218 101.084
27.3824 10376 101.863
27.4996 10408 102.02
27.6167 10065 100.324
27.7339 9918 99.5892
27.8511 9792 98.9545
27.9683 9463 97.278
28.0855 9704 98.5089
28.2028 9670 98.3362
28.3201 9688 98.4276
28.4374 9649 98.2293
28.5547 9736 98.6712
28.6721 9373 96.8143
28.7894 9387 96.8865
28.9068 9447 97.1957
29.0242 9357 96.7316
29.1416 9569 97.8213
29.259 9538 97.6627
29.3764 9726 98.6205
29.4939 9963 99.8148
29.6113 9882 99.4082
29.7288 9800 98.9949
29.8463 9898 99.4887
29.9638 9834 99.1665
30.0812 9799 98.9899
30.1987 9953 99.7647
30.3162 9995 99.975
30.4337 10116 100.578
30.5512 10418 102.069
30.6687 10512 102.528
30.7862 10758 103.721
30.9037 11065 105.19
31.0212 10945 104.618
31.1387 10984 104.805
31.2562 10857 104.197
31.3737 10678 103.334
31.4912 10351 101.74
31.6087 10531 102.621
31.7262 10587 102.893
31.8436 10723 103.552
31.9611 10639 103.146
32.0785 10322 101.597
32.1959 10272 101.351
32.3134 10094 100.469
32.4308 10189 100.941
32.5482 10245 101.218
32.6655 10090 100.449
32.7829 10204 101.015
32.9002 10769 103.774
33.0176 10838 104.106
33.1349 10687 103.378
33.2522 10779 103.822
33.3694 10759 103.726
33.4867 10936 104.575
33.6039 10766 103.759
33.7211 10983 104.8
33.8383 10933 104.561
33.9554 11056 105.148
34.0725 11287 106.24
34.1896 11581 107.615
34.3067 11856 108.885
34.4237 12044 109.745
34.5407 12206 110.481
34.6577 12513 111.862
34.7746 12429 111.485
34.8915 12326 111.023
35.0084 12098 109.991
35.1252 12081 109.914
35.242 11976 109.435
35.3587 11814 108.692
35.4755 12131 110.141
35.5921 12237 110.621
35.7088 12023 109.649
35.8254 11663 107.995
35.9419 11040 105.071
36.0584 10867 104.245
36.1749 10474 102.343
36.2913 10178 100.886
36.4077 10275 101.366
36.524 10051 100.255
36.6403 10082 100.409
36.7565 9779 98.8888
36.8727 9706 98.519
36.9889 9676 98.3667
37.1049 8914 94.414
37.221 0 1
37.3369 0 1
37.4529 0 1
37.5687 0 1
37.6845 0 1
37.8003 0 1
37.916 0 1
38.0316 0 1
38.1472 0 1
40.5851 0 1
40.7008 0 1
40.8164 0 1
40.9322 0 1
41.048 0 1
41.1639 0 1
41.2798 0 1
41.3958 0 1
41.5118 0 1
41.6279 0 1
41.744 6661 81.6149
41.8602 7507 86.6429
41.9765 8352 91.3893
42.0928 9142 95.6138
42.2091 9988 99.94
42.3255 10893 104.37
42.4419 11934 109.243
42.5584 12655 112.494
42.675 12984 113.947
42.7915 13648 116.825
42.9081 14182 119.088
43.0248 15208 123.321
43.1415 16010 126.531
43.2582 16599 128.837
43.375 17196 131.134
43.4918 17314 131.583
43.6087 17499 132.284
43.7256 17719 133.113
43.8425 17334 131.659
43.9595 16962 130.238
44.0765 16815 129.673
44.1935 16985 130.327
44.3106 17639 132.812
44.4277 17476 132.197
44.5448 17103 130.778
44.6619 16445 128.238
44.7791 15514 124.555
44.8963 14406 120.025
45.0136 14238 119.323
45.1308 14132 118.878
45.2481 14183 119.092
45.3654 14234 119.306
45.4827 14733 121.38
45.6001 15519 124.575
45.7174 16101 126.89
45.8348 16865 129.865
45.9522 17641 132.819
46.0697 17949 133.974
46.1871 18417 135.709
46.3046 18584 136.323
46.422 18526 136.11
46.5395 18703 136.759
46.657 19843 140.865
46.7745 20193 142.102
46.892 20570 143.422
47.0096 20757 144.073
47.1271 21118 145.32
47.2446 21081 145.193
47.3622 21111 145.296
47.4797 20621 143.6
47.5973 20231 142.236
47.7149 19976 141.336
47.8324 20065 141.651
47.95 20634 143.645
48.0675 19839 140.851
48.1851 19484 139.585
48.3027 17962 134.022
48.4202 16450 128.258
48.5378 15344 123.871
48.6554 14552 120.632
48.7729 14509 120.453
48.8904 14612 120.88
49.008 14962 122.319
49.1255 15546 124.684
49.243 17124 130.859
49.3605 17878 133.709
49.478 18825 137.204
49.5955 18995 137.822
49.713 19141 138.351
49.8304 19052 138.029
49.9479 19129 138.308
50.0653 19166 138.441
50.1827 19833 140.83
50.3001 20357 142.678
50.4175 20492 143.15
50.5348 20798 144.215
50.6521 20760 144.083
50.7694 20780 144.153
50.8867 20422 142.906
51.004 20331 142.587
51.1212 19326 139.018
51.2384 19399 139.28
51.3556 19473 139.546
51.4727 19831 140.823
51.5899 19398 139.277
51.707 18771 137.007
51.824 17608 132.695
51.9411 15812 125.746
52.0581 14219 119.243
52.175 13720 117.132
52.2919 13248 115.1
52.4088 13202 114.9
52.5257 13312 115.378
52.6425 14047 118.52
52.7593 14747 121.437
52.876 15184 123.223
52.9927 15561 124.744
53.1094 15589 124.856
53.226 15784 125.634
53.3426 15306 123.717
53.4591 14702 121.252
53.5756 14274 119.474
53.692 13608 116.653
53.8084 13105 114.477
53.9248 12759 112.956
54.0411 12267 110.756
54.1573 11677 108.06
54.2735 0 1
54.3896 0 1
54.5057 0 1
54.6217 0 1
54.7377 0 1
54.8537 0 1
54.9695 0 1
55.0853 0 1
55.2011 0 1
55.3168 0 1
55.4324 0 1
57.824 0 1
57.9396 0 1
58.0553 0 1
58.1711 0 1
58.2869 0 1
58.4028 0 1
58.5187 0 1
58.6347 0 1
58.7508 0 1
58.8669 0 1
58.983 10476 102.352
59.0992 12045 109.75
59.2155 13075 114.346
59.3318 13930 118.025
59.4482 14621 120.917
59.5646 15073 122.772
59.681 15311 123.738
59.7975 15634 125.036
59.9141 15869 125.972
60.0306 16031 126.614
60.1473 16612 128.888
60.2639 17049 130.572
60.3807 16578 128.756
60.4974 15829 125.813
60.6142 14289 119.537
60.731 13059 114.276
60.8479 11733 108.319
60.9648 10745 103.658
61.0818 10592 102.917
61.1987 10571 102.815
61.3158 11519 107.327
61.4328 12612 112.303
61.5499 13977 118.224
61.667 15453 124.31
61.7841 15822 125.786
61.9013 16278 127.585
62.0185 16305 127.691
62.1357 15993 126.463
62.253 15946 126.277
62.3702 15892 126.063
62.4875 16284 127.609
62.6049 16257 127.503
62.7222 16760 129.46
62.8396 16539 128.604
62.9569 16696 129.213
63.0743 16588 128.794
63.1918 16356 127.891
63.3092 15867 125.964
63.4267 15543 124.672
63.5441 15404 124.113
63.6616 15726 125.403
63.7791 15615 124.96
63.8966 15053 122.691
64.0142 14474 120.308
64.1317 13098 114.446
64.2492 11504 107.257
64.3668 10221 101.099
64.4843 9530 97.6217
64.6019 8924 94.4669
64.7195 9019 94.9684
64.837 9441 97.1648
64.9546 10637 103.136
65.0722 11804 108.646
65.1898 13229 115.017
65.3074 14258 119.407
65.4249 14506 120.441
65.5425 14779 121.569
65.6601 14712 121.293
65.7777 14203 119.176
65.8952 13942 118.076
66.0128 14170 119.038
66.1304 14378 119.908
66.2479 14745 121.429
66.3655 14754 121.466
66.483 14851 121.865
66.6005 14772 121.54
66.718 14656 121.062
66.8355 14511 120.462
66.953 14133 118.882
67.0705 13968 118.186
67.1879 13611 116.666
67.3054 14026 118.431
67.4228 13859 117.724
67.5402 13688 116.996
67.6576 12739 112.867
67.7749 11657 107.968
67.8923 10320 101.587
68.0096 8997 94.8525
68.1269 8183 90.4599
68.2442 7726 87.8977
68.3614 7739 87.9716
68.4787 8218 90.6532
68.5958 9165 95.734
68.713 10741 103.639
68.8302 11889 109.037
68.9473 13040 114.193
69.0643 13182 114.813
69.1814 13503 116.202
69.2984 13280 115.239
69.4154 12592 112.214
69.5323 11913 109.147
69.6492 11820 108.72
69.7661 11946 109.298
69.8829 11936 109.252
69.9997 11792 108.591
70.1165 11893 109.055
70.2332 11620 107.796
70.3499 11278 106.198
70.4665 10722 103.547
70.5831 10179 100.891
70.6996 9646 98.2141
70.8161 8988 94.8051
70.9326 8658 93.0484
71.049 8225 90.6918
71.1653 7679 87.6299
71.2817 7193 84.8116
71.3979 6373 79.8311
71.5141 5617 74.9466
71.6303 4385 66.2193
71.7464 2957 54.3783
71.8624 0 1
71.9784 0 1
72.0944 0 1
72.2102 0 1
72.3261 0 1
72.4418 0 1
72.5575 0 1
72.6732 0 1
75.1054 0 1
75.2209 0 1
75.3365 0 1
75.4521 0 1
75.5678 0 1
75.6835 0 1
75.7993 0 1
75.9151 0 1
76.031 0 1
76.147 8099 89.9944
76.263 8562 92.5311
76.3791 9125 95.5249
76.4952 9181 95.8175
76.6113 8953 94.6203
76.7276 8537 92.3959
76.8438 8079 89.8833
76.9601 7380 85.9069
77.0765 6692 81.8046
77.1929 6426 80.1623
77.3093 6488 80.5481
77.4258 6742 82.1097
77.5423 7379 85.9011
77.6589 8695 93.247
77.7755 10012 100.06
77.8921 11089 105.304
78.0088 11784 108.554
78.1256 12106 110.027
78.2423 12062 109.827
78.3591 11681 108.079
78.4759 11265 106.137
78.5928 10944 104.614
78.7097 11367 106.616
78.8266 11132 105.508
78.9436 11705 108.19
79.0606 11795 108.605
79.1776 11898 109.078
79.2946 11967 109.394
79.4117 12076 109.891
79.5288 11997 109.531
79.6459 11767 108.476
79.7631 11221 105.929
79.8802 11400 106.771
79.9974 11795 108.605
80.1147 11868 108.94
80.2319 11559 107.513
80.3491 10717 103.523
80.4664 9904 99.5188
80.5837 8922 94.4563
80.701 7563 86.9655
80.8183 6960 83.4266
80.9357 6590 81.1788
81.053 6621 81.3695
81.1704 7105 84.2912
81.2877 8061 89.7831
81.4051 9647 98.2191
81.5225 10723 103.552
81.6399 11570 107.564
81.7573 11865 108.927
81.8747 12132 110.145
81.9922 12049 109.768
82.1096 11503 107.252
82.227 11207 105.863
82.3444 11056 105.148
82.4619 11260 106.113
82.5793 11606 107.731
82.6967 11650 107.935
82.8142 11900 109.087
82.9316 12016 109.618
83.049 11986 109.481
83.1664 11746 108.379
83.2838 11939 109.266
83.4012 11694 108.139
83.5186 11252 106.075
83.636 11507 107.271
83.7534 11450 107.005
83.8708 11162 105.65
83.9881 10613 103.019
84.1055 9865 99.3227
84.2228 9120 95.4987
84.3401 8049 89.7162
84.4575 7216 84.947
84.5747 6876 82.9216
84.692 6944 83.3307
84.8093 7464 86.3944
84.9265 8959 94.652
85.0437 10057 100.285
85.1609 11171 105.693
85.2781 12316 110.977
85.3952 12823 113.239
85.5123 12802 113.146
85.6294 12541 111.987
85.7465 12223 110.558
85.8636 12032 109.69
85.9806 12138 110.173
86.0976 12504 111.821
86.2145 12744 112.889
86.3315 13290 115.282
86.4484 12829 113.265
86.5652 13033 114.162
86.682 12780 113.049
86.7988 12214 110.517
86.9156 12029 109.677
87.0323 11591 107.662
87.149 11637 107.875
87.2657 10909 104.446
87.3823 10952 104.652
87.4988 10551 102.718
87.6154 9681 98.3921
87.7318 8937 94.5357
87.8483 8125 90.1388
87.9647 6942 83.3187
88.081 6196 78.7147
88.1973 5739 75.7562
88.3136 5601 74.8398
88.4298 5724 75.6571
88.546 6301 79.3788
88.6621 7103 84.2793
88.7781 7675 87.6071
88.8942 0 1
89.0101 0 1
89.126 0 1
89.2419 0 1
89.3577 0 1
89.4734 0 1
89.5891 0 1
89.7047 0 1
89.8203 0 1
89.9358 0 1
92.3269 0 1
92.4424 0 1
92.558 0 1
92.6736 0 1
92.7893 0 1
92.905 0 1
93.0208 0 1
93.1366 0 1
93.2525 0 1
93.3685 0 1
93.4845 0 1
93.6005 7725 87.892
93.7167 8467 92.0163
93.8328 9424 97.0773
93.949 11305 106.325
94.0653 12885 113.512
94.1816 14365 119.854
94.2979 16026 126.594
94.4143 17085 130.71
94.5307 18119 134.607
94.6472 19102 138.21
94.7637 19676 140.271
94.8803 19742 140.506
94.9969 19687 140.31
95.1135 19398 139.277
95.2302 19663 140.225
95.3469 19721 140.431
95.4637 20056 141.619
95.5805 20187 142.081
95.6973 20049 141.594
95.8142 19744 140.513
95.9311 19476 139.556
96.048 19122 138.282
96.1649 18469 135.901
96.2819 18104 134.551
96.3989 17954 133.993
96.516 17493 132.261
96.633 16419 128.137
96.7501 15582 124.828
96.8673 14536 120.565
96.9844 13385 115.694
97.1016 12554 112.045
97.2188 11801 108.632
97.336 11285 106.231
97.4532 11807 108.66
97.5704 12850 113.358
97.6877 14621 120.917
97.805 16965 130.25
97.9223 18983 137.779
98.0396 21354 146.13
98.1569 22599 150.33
98.2743 23452 153.14
98.3916 23683 153.893
98.509 24154 155.416
98.6264 24255 155.74
98.7438 24010 154.952
98.8612 23804 154.285
98.9786 23756 154.13
99.096 23713 153.99
99.2134 23847 154.425
99.3308 23113 152.03
99.4482 22528 150.093
99.5656 21587 146.925
99.6831 20906 144.589
99.8005 20326 142.569
99.9179 19813 140.759
100.035 19601 140.004
100.153 19357 139.129
100.27 17934 133.918
100.388 16254 127.491
100.505 14323 119.679
100.622 13283 115.252
100.74 12497 111.79
100.857 11952 109.325
100.975 12040 109.727
101.092 13015 114.083
101.209 14669 121.116
101.327 16719 129.302
101.444 19081 138.134
101.561 21453 146.468
101.679 23250 152.48
101.796 24032 155.023
101.913 24448 156.359
102.03 24495 156.509
102.148 23783 154.217
102.265 23806 154.292
102.382 22684 150.612
102.499 22794 150.977
102.616 22478 149.927
102.733 22407 149.69
102.851 21965 148.206
102.968 21684 147.255
103.085 21102 145.265
103.202 20503 143.189
103.319 19796 140.698
103.436 19487 139.596
103.552 19280 138.852
103.669 19334 139.047
103.786 18610 136.418
103.903 16997 130.373
104.02 15198 123.28
104.137 13379 115.668
104.253 11927 109.211
104.37 11149 105.589
104.487 11418 106.855
104.603 11250 106.066
104.72 11995 109.522
104.836 13271 115.2
104.953 14559 120.661
105.069 14968 122.344
105.186 15280 123.612
105.302 14957 122.299
105.418 14433 120.137
105.535 13661 116.88
105.651 12524 111.911
105.767 11402 106.78
105.883 10277 101.376
105.999 9546 97.7036
106.115 0 1
106.231 0 1
106.347 0 1
106.463 0 1
106.579 0 1
106.694 0 1
106.81 0 1
106.926 0 1
107.041 0 1
107.157 0 1
109.576 0 1
109.692 0 1
109.807 0 1
109.923 0 1
110.039 0 1
110.155 0 1
110.27 0 1
110.386 0 1
110.502 0 1
110.618 11134 105.518
110.735 11971 109.412
110.851 12659 112.512
110.967 13384 115.689
111.083 14859 121.897
111.199 15920 126.174
111.316 16951 130.196
111.432 18035 134.294
111.549 18572 136.279
111.665 18613 136.429
111.782 18750 136.931
111.898 18636 136.514
112.015 18585 136.327
112.132 18393 135.621
112.248 18744 136.909
112.365 18842 137.266
112.482 18062 134.395
112.599 16261 127.519
112.716 14459 120.246
112.832 12565 112.094
112.949 11394 106.743
113.066 10879 104.302
113.183 10872 104.269
113.3 11521 107.336
113.417 12974 113.903
113.534 14775 121.552
113.652 17133 130.893
113.769 18474 135.919
113.886 19487 139.596
114.003 19618 140.064
114.12 19833 140.83
114.238 19086 138.152
114.355 18340 135.425
114.472 18288 135.233
114.589 18151 134.726
114.707 18706 136.77
114.824 18732 136.865
114.942 19605 140.018
115.059 19692 140.328
115.176 19232 138.679
115.294 19634 140.121
115.411 19095 138.185
115.529 18594 136.36
115.646 18643 136.539
115.764 18140 134.685
115.881 18190 134.87
115.999 18306 135.3
116.116 17226 131.248
116.234 15469 124.374
116.351 13813 117.529
116.469 12237 110.621
116.586 11463 107.065
116.704 11098 105.347
116.821 11167 105.674
116.939 11723 108.273
117.056 13036 114.175
117.174 15146 123.069
117.291 17343 131.693
117.409 18409 135.68
117.526 18683 136.686
117.644 19014 137.891
117.761 18838 137.252
117.879 17910 133.828
117.996 17553 132.488
118.114 17158 130.989
118.231 17395 131.89
118.349 18074 134.44
118.466 18256 135.115
118.584 18730 136.858
118.701 18675 136.657
118.819 18407 135.672
118.936 18100 134.536
119.053 17786 133.364
119.171 17528 132.393
119.288 17168 131.027
119.405 17229 131.259
119.523 17141 130.924
119.64 17067 130.641
119.757 16517 128.518
119.875 15294 123.669
119.992 13493 116.159
120.109 12277 110.802
120.226 11377 106.663
120.343 11200 105.83
120.46 11056 105.148
120.578 11021 104.981
120.695 11715 108.236
120.812 12931 113.715
120.929 14607 120.859
121.046 15672 125.188
121.163 16017 126.558
121.279 16342 127.836
121.396 15977 126.4
121.513 15628 125.012
121.63 14997 122.462
121.747 14184 119.097
121.863 13953 118.123
121.98 14126 118.853
122.097 14064 118.592
122.213 13907 117.928
122.33 13499 116.185
122.446 13022 114.114
122.563 12525 111.915
122.679 11775 108.513
122.795 10911 104.456
122.912 10255 101.267
123.028 9466 97.2934
123.144 8833 93.984
123.26 8264 90.9065
123.377 0 1
123.493 0 1
123.609 0 1
123.725 0 1
123.84 0 1
123.956 0 1
124.072 0 1
124.188 0 1
124.303 0 1
124.419 0 1
126.852 0 1
126.968 0 1
127.083 0 1
127.199 0 1
127.315 0 1
127.431 0 1
127.547 0 1
127.663 0 1
127.779 0 1
127.895 0 1
128.011 0 1
128.127 0 1
128.243 0 1
128.359 16396 128.047
128.476 16412 128.109
128.592 17025 130.48
128.708 17455 132.117
128.825 17386 131.856
128.941 16872 129.892
129.058 15532 124.627
129.174 14397 119.987
129.291 13598 116.61
129.408 13455 115.996
129.524 13133 114.599
129.641 13054 114.254
129.758 13402 115.767
129.875 14431 120.129
129.992 15515 124.559
130.108 16787 129.565
130.225 17775 133.323
130.342 18576 136.294
130.459 18159 134.755
130.576 18261 135.133
130.693 17656 132.876
130.81 17273 131.427
130.928 17552 132.484
131.045 18233 135.03
131.162 18359 135.495
131.279 18305 135.296
131.396 18344 135.44
131.513 18561 136.239
131.631 18376 135.558
131.748 17719 133.113
131.865 17621 132.744
131.983 17325 131.624
132.1 17198 131.141
132.217 17011 130.426
132.335 16984 130.323
132.452 16520 128.53
132.57 15657 125.128
132.687 14545 120.603
132.804 14184 119.097
132.922 13375 115.65
133.039 13030 114.149
133.157 12918 113.657
133.274 12874 113.464
133.392 13155 114.695
133.509 14036 118.474
133.627 14744 121.425
133.744 16145 127.063
133.862 16712 129.275
133.979 17364 131.773
134.097 17491 132.254
134.214 17280 131.453
134.332 16709 129.263
134.449 16829 129.727
134.567 17278 131.446
134.684 17657 132.88
134.802 18001 134.168
134.919 18051 134.354
135.037 18009 134.198
135.154 17934 133.918
135.272 17462 132.144
135.389 17327 131.632
135.507 17082 130.698
135.624 16727 129.333
135.742 16884 129.938
135.859 16560 128.686
135.977 16578 128.756
136.094 16470 128.335
136.211 15562 124.748
136.329 14902 122.074
136.446 14416 120.067
136.564 13879 117.809
136.681 13649 116.829
136.798 13251 115.113
136.915 13035 114.171
137.033 13401 115.763
137.15 13894 117.873
137.267 14434 120.142
137.384 15298 123.685
137.502 15775 125.599
137.619 16404 128.078
137.736 16510 128.491
137.853 15942 126.262
137.97 16146 127.067
138.087 15745 125.479
138.204 16228 127.389
138.321 16362 127.914
138.438 16444 128.234
138.555 16061 126.732
138.672 15825 125.797
138.788 15757 125.527
138.905 14918 122.139
139.022 14649 121.033
139.139 13764 117.32
139.255 13092 114.42
139.372 12650 112.472
139.488 11956 109.343
139.605 11586 107.638
139.721 10901 104.408
139.838 10257 101.277
139.954 9445 97.1854
140.071 8510 92.2497
140.187 7754 88.0568
140.303 7094 84.2259
140.419 6472 80.4487
140.535 5964 77.2269
140.652 5408 73.5391
140.768 0 1
140.884 0 1
141 0 1
141.115 0 1
141.231 0 1
141.347 0 1
141.463 0 1
141.578 0 1
141.694 0 1
144.104 0 1
144.219 0 1
144.335 0 1
144.45 0 1
144.566 0 1
144.682 0 1
144.798 0 1
144.914 0 1
145.03 0 1
145.146 10669 103.291
145.262 10969 104.733
145.378 11129 105.494
145.494 11119 105.447
145.61 11016 104.957
145.726 10786 103.856
145.842 10643 103.165
145.959 10973 104.752
146.075 11077 105.247
146.192 11354 106.555
146.308 11722 108.268
146.425 12019 109.631
146.541 12357 111.162
146.658 11943 109.284
146.774 11997 109.531
146.891 12158 110.263
147.008 12749 112.911
147.125 12380 111.265
147.241 12835 113.292
147.358 13110 114.499
147.475 13110 114.499
147.592 13003 114.031
147.709 12768 112.996
147.826 12569 112.112
147.943 12466 111.651
148.06 12250 110.68
148.177 12078 109.9
148.294 12071 109.868
148.411 12429 111.485
148.528 12471 111.674
148.645 12397 111.342
148.762 12623 112.352
148.88 12361 111.18
148.997 12428 111.481
149.114 11969 109.403
149.231 12002 109.554
149.349 11912 109.142
149.466 11396 106.752
149.583 11385 106.701
149.701 11246 106.047
149.818 11379 106.672
149.935 11626 107.824
150.053 11828 108.757
150.17 12205 110.476
150.287 12110 110.045
150.405 12015 109.613
150.522 12102 110.009
150.64 12218 110.535
150.757 12725 112.805
150.875 12852 113.367
150.992 13202 114.9
151.11 13213 114.948
151.227 12936 113.737
151.344 12659 112.512
151.462 12883 113.503
151.579 12378 111.256
151.697 12141 110.186
151.814 12064 109.836
151.932 12084 109.927
152.049 11944 109.289
152.167 12238 110.625
152.284 12157 110.259
152.402 12239 110.63
152.519 12170 110.318
152.636 12223 110.558
152.754 12047 109.759
152.871 11770 108.49
152.989 11580 107.61
153.106 11562 107.527
153.223 11260 106.113
153.341 11120 105.451
153.458 11094 105.328
153.575 11452 107.014
153.693 11607 107.736
153.81 11580 107.61
153.927 11535 107.401
154.044 11445 106.981
154.162 11374 106.649
154.279 11713 108.227
154.396 11893 109.055
154.513 12230 110.589
154.63 12288 110.851
154.747 12396 111.337
154.864 12308 110.941
154.981 11934 109.243
155.098 11881 109
155.215 11479 107.14
155.332 11380 106.677
155.449 11378 106.668
155.566 11309 106.344
155.683 11290 106.254
155.8 11066 105.195
155.917 11176 105.717
156.033 10859 104.207
156.15 0 1
156.267 0 1
156.383 0 1
156.5 0 1
156.617 0 1
156.733 0 1
156.85 0 1
156.966 0 1
157.082 0 1
157.199 0 1
157.315 0 1
157.431 0 1
157.547 0 1
157.664 0 1
157.78 0 1
157.896 0 1
158.012 0 1
158.128 0 1
158.244 0 1
158.359 0 1
158.475 0 1
158.591 0 1
158.706 0 1
