
6.15755 0 1
6.2731 0 1
6.3887 0 1
6.50437 0 1
6.62009 0 1
6.73587 0 1
6.8517 0 1
6.96759 0 1
7.08353 0 1
7.19952 0 1
7.31557 0 1
7.43166 0 1
7.54781 0 1
7.664 0 1
7.78024 0 1
7.89653 0 1
8.01286 0 1
8.12924 0 1
8.24567 0 1
8.36213 0 1
8.47864 0 1
8.59519 0 1
8.71178 0 1
8.82841 0 1
8.94508 0 1
9.06179 0 1
9.17853 0 1
9.29531 0 1
9.41212 0 1
9.52897 0 1
9.64584 0 1
9.76276 0 1
9.8797 0 1
9.99667 0 1
10.1137 0 1
10.2307 0 1
10.3478 0 1
10.4648 0 1
10.5819 0 1
10.6991 0 1
10.8162 0 1
10.9334 0 1
11.0506 0 1
11.1678 0 1
11.285 0 1
11.4023 0 1
11.5196 0 1
11.6369 0 1
11.7542 0 1
11.8715 0 1
11.9888 0 1
12.1062 0 1
12.2235 0 1
12.3409 0 1
12.4582 0 1
12.5756 0 1
12.693 0 1
12.8104 0 1
12.9278 0 1
13.0452 0 1
13.1626 0 1
13.28 0 1
13.3974 0 1
13.5149 0 1
13.6323 0 1
13.7497 0 1
13.8671 0 1
13.9845 0 1
14.1019 0 1
14.2193 0 1
14.3367 0 1
14.4541 0 1
14.5714 0 1
14.6888 0 1
14.8062 0 1
14.9235 0 1
15.0408 1170 34.2053
15.1581 1218 34.8999
15.2755 1243 35.2562
15.3927 1236 35.1568
15.51 1329 36.4555
15.6273 1310 36.1939
15.7445 1212 34.8138
15.8617 1318 36.3043
15.9789 1261 35.5106
16.0961 1315 36.2629
16.2132 1286 35.8608
16.3304 1306 36.1386
16.4475 1348 36.7151
16.5646 1374 37.0675
16.6816 1476 38.4187
16.7986 1494 38.6523
16.9156 1541 39.2556
17.0326 1588 39.8497
17.1496 1456 38.1576
17.2665 1496 38.6782
17.3833 1511 38.8716
17.5002 1488 38.5746
17.617 1441 37.9605
17.7338 1374 37.0675
17.8505 1283 35.819
17.9672 1320 36.3318
18.0839 1291 35.9305
18.2005 1390 37.2827
18.3171 1335 36.5377
18.4337 1401 37.4299
18.5502 1466 38.2884
18.6666 1481 38.4838
18.7831 1495 38.6652
18.8994 1474 38.3927
19.0158 1437 37.9078
19.1321 1421 37.6962
19.2483 1445 38.0132
19.3645 1282 35.805
19.4806 1232 35.0999
19.5967 1167 34.1614
19.7128 1005 31.7017
19.8288 970 31.1448
19.9447 906 30.0998
20.0606 0 1
20.1764 0 1
20.2922 0 1
20.4079 0 1
20.5236 0 1
20.6392 0 1
20.7548 0 1
20.8702 0 1
23.3078 0 1
23.4233 0 1
23.539 0 1
23.6547 0 1
23.7704 0 1
23.8862 0 1
24.0021 0 1
24.118 0 1
24.234 0 1
24.35 0 1
24.4661 608 24.6577
24.5822 711 26.6646
24.6984 825 28.7228
24.8146 874 29.5635
24.9309 977 31.257
25.0472 1055 32.4808
25.1636 1162 34.0881
25.28 1279 35.7631
25.3965 1417 37.6431
25.513 1495 38.6652
25.6296 1519 38.9744
25.7462 1649 40.6079
25.8628 1661 40.7554
25.9795 1664 40.7922
26.0962 1619 40.2368
26.213 1582 39.7744
26.3298 1444 38
26.4466 1388 37.2559
26.5635 1385 37.2156
26.6804 1371 37.027
26.7973 1379 37.1349
26.9143 1432 37.8418
27.0313 1490 38.6005
27.1483 1461 38.223
27.2653 1582 39.7744
27.3824 1568 39.598
27.4996 1475 38.4057
27.6167 1457 38.1707
27.7339 1376 37.0945
27.8511 1459 38.1969
27.9683 1460 38.2099
28.0855 1357 36.8375
28.2028 1358 36.8511
28.3201 1380 37.1484
28.4374 1262 35.5246
28.5547 1290 35.9166
28.6721 1383 37.1887
28.7894 1350 36.7423
28.9068 1438 37.921
29.0242 1544 39.2938
29.1416 1550 39.37
29.259 1551 39.3827
29.3764 1561 39.5095
29.4939 1560 39.4968
29.6113 1539 39.2301
29.7288 1453 38.1182
29.8463 1393 37.3229
29.9638 1396 37.3631
30.0812 1346 36.6879
30.1987 1314 36.2491
30.3162 1297 36.0139
30.4337 1350 36.7423
30.5512 1388 37.2559
30.6687 1459 38.1969
30.7862 1540 39.2428
30.9037 1504 38.7814
31.0212 1500 38.7298
31.1387 1530 39.1152
31.2562 1479 38.4578
31.3737 1444 38
31.4912 1423 37.7227
31.6087 1402 37.4433
31.7262 1333 36.5103
31.8436 1286 35.8608
31.9611 1225 35
32.0785 1236 35.1568
32.1959 1215 34.8569
32.3134 1392 37.3095
32.4308 1400 37.4166
32.5482 1508 38.833
32.6655 1587 39.8372
32.7829 1459 38.1969
32.9002 1487 38.5616
33.0176 1438 37.921
33.1349 1557 39.4588
33.2522 1508 38.833
33.3694 1402 37.4433
33.4867 1346 36.6879
33.6039 1286 35.8608
33.7211 1216 34.8712
33.8383 1206 34.7275
33.9554 1258 35.4683
34.0725 1209 34.7707
34.1896 1330 36.4692
34.3067 1435 37.8814
34.4237 1355 36.8103
34.5407 1394 37.3363
34.6577 1451 38.092
34.7746 1468 38.3145
34.8915 1438 37.921
35.0084 1384 37.2022
35.1252 1342 36.6333
35.242 1405 37.4833
35.3587 1282 35.805
35.4755 1218 34.8999
35.5921 1222 34.9571
35.7088 1198 34.6121
35.8254 1213 34.8281
35.9419 1202 34.6699
36.0584 1312 36.2215
36.1749 1270 35.6371
36.2913 1314 36.2491
36.4077 1295 35.9861
36.524 1270 35.6371
36.6403 1251 35.3695
36.7565 1249 35.3412
36.8727 1140 33.7639
36.9889 1105 33.2415
37.1049 998 31.5911
37.221 0 1
37.3369 0 1
37.4529 0 1
37.5687 0 1
37.6845 0 1
37.8003 0 1
37.916 0 1
38.0316 0 1
38.1472 0 1
40.5851 0 1
40.7008 0 1
40.8164 0 1
40.9322 0 1
41.048 0 1
41.1639 0 1
41.2798 0 1
41.3958 0 1
41.5118 0 1
41.6279 0 1
41.744 704 26.533
41.8602 717 26.7769
41.9765 826 28.7402
42.0928 872 29.5296
42.2091 873 29.5466
42.3255 812 28.4956
42.4419 804 28.3549
42.5584 818 28.6007
42.675 855 29.2404
42.7915 936 30.5941
42.9081 1058 32.5269
43.0248 1126 33.5559
43.1415 1119 33.4515
43.2582 1130 33.6155
43.375 1142 33.7935
43.4918 1207 34.7419
43.6087 1120 33.4664
43.7256 1167 34.1614
43.8425 1178 34.322
43.9595 1089 33
44.0765 1072 32.7414
44.1935 1054 32.4654
44.3106 996 31.5595
44.4277 974 31.209
44.5448 978 31.273
44.6619 940 30.6594
44.7791 1045 32.3265
44.8963 1098 33.1361
45.0136 1160 34.0588
45.1308 1181 34.3657
45.2481 1205 34.7131
45.3654 1214 34.8425
45.4827 1217 34.8855
45.6001 1258 35.4683
45.7174 1158 34.0294
45.8348 1112 33.3467
45.9522 981 31.3209
46.0697 1026 32.0312
46.1871 970 31.1448
46.3046 1011 31.7962
46.422 1109 33.3017
46.5395 1049 32.3883
46.657 1126 33.5559
46.7745 1131 33.6303
46.892 1185 34.4238
47.0096 1184 34.4093
47.1271 1176 34.2929
47.2446 1215 34.8569
47.3622 1136 33.7046
47.4797 1173 34.2491
47.5973 1168 34.176
47.7149 1157 34.0147
47.8324 1100 33.1662
47.95 1028 32.0624
48.0675 1017 31.8904
48.1851 969 31.1288
48.3027 1059 32.5423
48.4202 1072 32.7414
48.5378 1147 33.8674
48.6554 1196 34.5832
48.7729 1172 34.2345
48.8904 1263 35.5387
49.008 1311 36.2077
49.1255 1237 35.171
49.243 1180 34.3511
49.3605 1106 33.2566
49.478 1032 32.1248
49.5955 947 30.7734
49.713 955 30.9031
49.8304 935 30.5778
49.9479 1035 32.1714
50.0653 1103 33.2114
50.1827 1164 34.1174
50.3001 1198 34.6121
50.4175 1162 34.0881
50.5348 1203 34.6843
50.6521 1192 34.5254
50.7694 1256 35.4401
50.8867 1239 35.1994
51.004 1272 35.6651
51.1212 1210 34.7851
51.2384 1175 34.2783
51.3556 1174 34.2637
51.4727 1121 33.4813
51.5899 1066 32.6497
51.707 1052 32.4345
51.824 1097 33.121
51.9411 1301 36.0694
52.0581 1376 37.0945
52.175 1525 39.0512
52.2919 1474 38.3927
52.4088 1659 40.7308
52.5257 1626 40.3237
52.6425 1662 40.7676
52.7593 1669 40.8534
52.876 1714 41.4005
52.9927 1658 40.7185
53.1094 1550 39.37
53.226 1443 37.9868
53.3426 1405 37.4833
53.4591 1407 37.51
53.5756 1477 38.4318
53.692 1451 38.092
53.8084 1381 37.1618
53.9248 1430 37.8153
54.0411 1389 37.2693
54.1573 1324 36.3868
54.2735 0 1
54.3896 0 1
54.5057 0 1
54.6217 0 1
54.7377 0 1
54.8537 0 1
54.9695 0 1
55.0853 0 1
55.2011 0 1
55.3168 0 1
55.4324 0 1
57.824 0 1
57.9396 0 1
58.0553 0 1
58.1711 0 1
58.2869 0 1
58.4028 0 1
58.5187 0 1
58.6347 0 1
58.7508 0 1
58.8669 0 1
58.983 995 31.5436
59.0992 1093 33.0606
59.2155 1114 33.3766
59.3318 1275 35.7071
59.4482 1350 36.7423
59.5646 1351 36.756
59.681 1439 37.9342
59.7975 1402 37.4433
59.9141 1378 37.1214
60.0306 1362 36.9053
60.1473 1283 35.819
60.2639 1386 37.229
60.3807 1304 36.1109
60.4974 1292 35.9444
60.6142 1360 36.8782
60.731 1476 38.4187
60.8479 1514 38.9102
60.9648 1578 39.724
61.0818 1576 39.6989
61.1987 1577 39.7115
61.3158 1527 39.0768
61.4328 1440 37.9473
61.5499 1414 37.6032
61.667 1286 35.8608
61.7841 1254 35.4119
61.9013 1168 34.176
62.0185 1157 34.0147
62.1357 1242 35.242
62.253 1295 35.9861
62.3702 1352 36.7696
62.4875 1426 37.7624
62.6049 1470 38.3406
62.7222 1466 38.2884
62.8396 1500 38.7298
62.9569 1521 39
63.0743 1584 39.7995
63.1918 1458 38.1838
63.3092 1489 38.5876
63.4267 1406 37.4967
63.5441 1421 37.6962
63.6616 1381 37.1618
63.7791 1256 35.4401
63.8966 1227 35.0286
64.0142 1202 34.6699
64.1317 1209 34.7707
64.2492 1351 36.756
64.3668 1420 37.6829
64.4843 1547 39.3319
64.6019 1483 38.5097
64.7195 1505 38.7943
64.837 1555 39.4335
64.9546 1556 39.4462
65.0722 1351 36.756
65.1898 1236 35.1568
65.3074 1161 34.0735
65.4249 1152 33.9411
65.5425 1097 33.121
65.6601 1130 33.6155
65.7777 1217 34.8855
65.8952 1217 34.8855
66.0128 1367 36.973
66.1304 1426 37.7624
66.2479 1376 37.0945
66.3655 1402 37.4433
66.483 1459 38.1969
66.6005 1447 38.0395
66.718 1479 38.4578
66.8355 1408 37.5233
66.953 1460 38.2099
67.0705 1426 37.7624
67.1879 1360 36.8782
67.3054 1243 35.2562
67.4228 1149 33.8969
67.5402 1164 34.1174
67.6576 1187 34.4529
67.7749 1230 35.0714
67.8923 1313 36.2353
68.0096 1365 36.9459
68.1269 1471 38.3536
68.2442 1420 37.6829
68.3614 1457 38.1707
68.4787 1483 38.5097
68.5958 1356 36.8239
68.713 1369 37
68.8302 1307 36.1525
68.9473 1206 34.7275
69.0643 1102 33.1964
69.1814 1033 32.1403
69.2984 1010 31.7805
69.4154 1103 33.2114
69.5323 1283 35.819
69.6492 1242 35.242
69.7661 1319 36.318
69.8829 1388 37.2559
69.9997 1295 35.9861
70.1165 1273 35.6791
70.2332 1233 35.1141
70.3499 1244 35.2704
70.4665 1186 34.4384
70.5831 1174 34.2637
70.6996 1109 33.3017
70.8161 991 31.4802
70.9326 887 29.7825
71.049 819 28.6182
71.1653 645 25.3969
71.2817 571 23.8956
71.3979 571 23.8956
71.5141 519 22.7816
71.6303 513 22.6495
71.7464 459 21.4243
71.8624 0 1
71.9784 0 1
72.0944 0 1
72.2102 0 1
72.3261 0 1
72.4418 0 1
72.5575 0 1
72.6732 0 1
75.1054 0 1
75.2209 0 1
75.3365 0 1
75.4521 0 1
75.5678 0 1
75.6835 0 1
75.7993 0 1
75.9151 0 1
76.031 0 1
76.147 862 29.3598
76.263 894 29.8998
76.3791 924 30.3974
76.4952 951 30.8383
76.6113 945 30.7409
76.7276 985 31.3847
76.8438 1053 32.45
76.9601 1189 34.4819
77.0765 1258 35.4683
77.1929 1307 36.1525
77.3093 1241 35.2278
77.4258 1245 35.2846
77.5423 1227 35.0286
77.6589 1244 35.2704
77.7755 1093 33.0606
77.8921 988 31.4325
78.0088 922 30.3645
78.1256 881 29.6816
78.2423 887 29.7825
78.3591 936 30.5941
78.4759 1052 32.4345
78.5928 1116 33.4066
78.7097 1104 33.2265
78.8266 1175 34.2783
78.9436 1231 35.0856
79.0606 1251 35.3695
79.1776 1284 35.8329
79.2946 1263 35.5387
79.4117 1254 35.4119
79.5288 1318 36.3043
79.6459 1302 36.0832
79.7631 1136 33.7046
79.8802 1196 34.5832
79.9974 1164 34.1174
80.1147 1039 32.2335
80.2319 993 31.5119
80.3491 1019 31.9218
80.4664 1102 33.1964
80.5837 1153 33.9559
80.701 1253 35.3977
80.8183 1310 36.1939
80.9357 1262 35.5246
81.053 1236 35.1568
81.1704 1297 36.0139
81.2877 1302 36.0832
81.4051 1228 35.0428
81.5225 1153 33.9559
81.6399 1088 32.9848
81.7573 949 30.8058
81.8747 949 30.8058
81.9922 888 29.7993
82.1096 982 31.3369
82.227 1133 33.6601
82.3444 1146 33.8526
82.4619 1198 34.6121
82.5793 1284 35.8329
82.6967 1266 35.5809
82.8142 1326 36.4143
82.9316 1299 36.0416
83.049 1346 36.6879
83.1664 1361 36.8917
83.2838 1346 36.6879
83.4012 1245 35.2846
83.5186 1274 35.6931
83.636 1153 33.9559
83.7534 1099 33.1512
83.8708 1009 31.7648
83.9881 931 30.5123
84.1055 1114 33.3766
84.2228 1081 32.8786
84.3401 1159 34.0441
84.4575 1300 36.0555
84.5747 1349 36.7287
84.692 1330 36.4692
84.8093 1369 37
84.9265 1345 36.6742
85.0437 1225 35
85.1609 1107 33.2716
85.2781 1026 32.0312
85.3952 979 31.289
85.5123 923 30.3809
85.6294 996 31.5595
85.7465 1104 33.2265
85.8636 1136 33.7046
85.9806 1219 34.9142
86.0976 1270 35.6371
86.2145 1338 36.5787
86.3315 1263 35.5387
86.4484 1336 36.5513
86.5652 1405 37.4833
86.682 1336 36.5513
86.7988 1397 37.3765
86.9156 1341 36.6197
87.0323 1304 36.1109
87.149 1236 35.1568
87.2657 1133 33.6601
87.3823 1024 32
87.4988 915 30.249
87.6154 904 30.0666
87.7318 918 30.2985
87.8483 965 31.0644
87.9647 1020 31.9374
88.081 1027 32.0468
88.1973 1092 33.0454
88.3136 1027 32.0468
88.4298 985 31.3847
88.546 879 29.6479
88.6621 782 27.9643
88.7781 607 24.6374
88.8942 0 1
89.0101 0 1
89.126 0 1
89.2419 0 1
89.3577 0 1
89.4734 0 1
89.5891 0 1
89.7047 0 1
89.8203 0 1
89.9358 0 1
92.3269 0 1
92.4424 0 1
92.558 0 1
92.6736 0 1
92.7893 0 1
92.905 0 1
93.0208 0 1
93.1366 0 1
93.2525 0 1
93.3685 0 1
93.4845 0 1
93.6005 1023 31.9844
93.7167 1041 32.2645
93.8328 1049 32.3883
93.949 1151 33.9264
94.0653 1150 33.9116
94.1816 1144 33.8231
94.2979 1150 33.9116
94.4143 1035 32.1714
94.5307 991 31.4802
94.6472 936 30.5941
94.7637 942 30.692
94.8803 972 31.1769
94.9969 1185 34.4238
95.1135 1249 35.3412
95.2302 1214 34.8425
95.3469 1332 36.4966
95.4637 1268 35.609
95.5805 1420 37.6829
95.6973 1348 36.7151
95.8142 1360 36.8782
95.9311 1306 36.1386
96.048 1301 36.0694
96.1649 1328 36.4417
96.2819 1234 35.1283
96.3989 1260 35.4965
96.516 1204 34.6987
96.633 1076 32.8024
96.7501 1068 32.6803
96.8673 1084 32.9242
96.9844 1098 33.1361
97.1016 1239 35.1994
97.2188 1324 36.3868
97.336 1336 36.5513
97.4532 1358 36.8511
97.5704 1379 37.1349
97.6877 1433 37.855
97.805 1350 36.7423
97.9223 1252 35.3836
98.0396 1116 33.4066
98.1569 1088 32.9848
98.2743 1038 32.218
98.3916 966 31.0805
98.509 941 30.6757
98.6264 1162 34.0881
98.7438 1238 35.1852
98.8612 1262 35.5246
98.9786 1344 36.6606
99.096 1374 37.0675
99.2134 1360 36.8782
99.3308 1421 37.6962
99.4482 1467 38.3014
99.5656 1360 36.8782
99.6831 1421 37.6962
99.8005 1397 37.3765
99.9179 1351 36.756
100.035 1323 36.3731
100.153 1193 34.5398
100.27 1101 33.1813
100.388 1091 33.0303
100.505 1169 34.1906
100.622 1238 35.1852
100.74 1367 36.973
100.857 1435 37.8814
100.975 1411 37.5633
101.092 1445 38.0132
101.209 1432 37.8418
101.327 1411 37.5633
101.444 1357 36.8375
101.561 1357 36.8375
101.679 1192 34.5254
101.796 1064 32.619
101.913 1061 32.573
102.03 1095 33.0908
102.148 1170 34.2053
102.265 1274 35.6931
102.382 1439 37.9342
102.499 1381 37.1618
102.616 1392 37.3095
102.733 1435 37.8814
102.851 1438 37.921
102.968 1464 38.2623
103.085 1521 39
103.202 1515 38.923
103.319 1505 38.7943
103.436 1428 37.7889
103.552 1403 37.4566
103.669 1294 35.9722
103.786 1267 35.5949
103.903 1174 34.2637
104.02 1203 34.6843
104.137 1275 35.7071
104.253 1406 37.4967
104.37 1567 39.5854
104.487 1551 39.3827
104.603 1492 38.6264
104.72 1513 38.8973
104.836 1396 37.3631
104.953 1376 37.0945
105.069 1223 34.9714
105.186 1093 33.0606
105.302 1038 32.218
105.418 949 30.8058
105.535 966 31.0805
105.651 952 30.8545
105.767 997 31.5753
105.883 971 31.1609
105.999 916 30.2655
106.115 0 1
106.231 0 1
106.347 0 1
106.463 0 1
106.579 0 1
106.694 0 1
106.81 0 1
106.926 0 1
107.041 0 1
107.157 0 1
109.576 0 1
109.692 0 1
109.807 0 1
109.923 0 1
110.039 0 1
110.155 0 1
110.27 0 1
110.386 0 1
110.502 0 1
110.618 613 24.7588
110.735 829 28.7924
110.851 982 31.3369
110.967 1081 32.8786
111.083 1108 33.2866
111.199 1239 35.1994
111.316 1298 36.0278
111.432 1367 36.973
111.549 1386 37.229
111.665 1446 38.0263
111.782 1365 36.9459
111.898 1389 37.2693
112.015 1376 37.0945
112.132 1325 36.4005
112.248 1220 34.9285
112.365 1130 33.6155
112.482 1175 34.2783
112.599 1190 34.4964
112.716 1318 36.3043
112.832 1355 36.8103
112.949 1372 37.0405
113.066 1444 38
113.183 1451 38.092
113.3 1398 37.3898
113.417 1414 37.6032
113.534 1372 37.0405
113.652 1246 35.2987
113.769 1125 33.541
113.886 961 31
114.003 998 31.5911
114.12 1082 32.8938
114.238 1155 33.9853
114.355 1261 35.5106
114.472 1234 35.1283
114.589 1441 37.9605
114.707 1432 37.8418
114.824 1448 38.0526
114.942 1528 39.0896
115.059 1465 38.2753
115.176 1518 38.9615
115.294 1444 38
115.411 1342 36.6333
115.529 1364 36.9324
115.646 1336 36.5513
115.764 1263 35.5387
115.881 1237 35.171
115.999 1219 34.9142
116.116 1227 35.0286
116.234 1300 36.0555
116.351 1360 36.8782
116.469 1426 37.7624
116.586 1422 37.7094
116.704 1524 39.0384
116.821 1412 37.5766
116.939 1484 38.5227
117.056 1430 37.8153
117.174 1294 35.9722
117.291 1201 34.6554
117.409 1148 33.8821
117.526 1026 32.0312
117.644 1024 32
117.761 1127 33.5708
117.879 1169 34.1906
117.996 1344 36.6606
118.114 1337 36.565
118.231 1429 37.8021
118.349 1389 37.2693
118.466 1404 37.47
118.584 1478 38.4448
118.701 1332 36.4966
118.819 1377 37.108
118.936 1391 37.2961
119.053 1391 37.2961
119.171 1433 37.855
119.288 1349 36.7287
119.405 1261 35.5106
119.523 1160 34.0588
119.64 1144 33.8231
119.757 1187 34.4529
119.875 1181 34.3657
119.992 1291 35.9305
120.109 1395 37.3497
120.226 1313 36.2353
120.343 1304 36.1109
120.46 1301 36.0694
120.578 1400 37.4166
120.695 1413 37.5899
120.812 1230 35.0714
120.929 1144 33.8231
121.046 1016 31.8748
121.163 990 31.4643
121.279 998 31.5911
121.396 1031 32.1092
121.513 985 31.3847
121.63 1009 31.7648
121.747 1106 33.2566
121.863 1052 32.4345
121.98 1050 32.4037
122.097 1109 33.3017
122.213 1110 33.3167
122.33 1031 32.1092
122.446 1044 32.311
122.563 989 31.4484
122.679 983 31.3528
122.795 845 29.0689
122.912 784 28
123.028 712 26.6833
123.144 631 25.1197
123.26 523 22.8692
123.377 0 1
123.493 0 1
123.609 0 1
123.725 0 1
123.84 0 1
123.956 0 1
124.072 0 1
124.188 0 1
124.303 0 1
124.419 0 1
126.852 0 1
126.968 0 1
127.083 0 1
127.199 0 1
127.315 0 1
127.431 0 1
127.547 0 1
127.663 0 1
127.779 0 1
127.895 0 1
128.011 0 1
128.127 0 1
128.243 0 1
128.359 1231 35.0856
128.476 1207 34.7419
128.592 1263 35.5387
128.708 1206 34.7275
128.825 1224 34.9857
128.941 1302 36.0832
129.058 1380 37.1484
129.174 1418 37.6563
129.291 1419 37.6696
129.408 1465 38.2753
129.524 1456 38.1576
129.641 1364 36.9324
129.758 1384 37.2022
129.875 1361 36.8917
129.992 1236 35.1568
130.108 1136 33.7046
130.225 1074 32.7719
130.342 1068 32.6803
130.459 1079 32.8481
130.576 1250 35.3553
130.693 1263 35.5387
130.81 1350 36.7423
130.928 1319 36.318
131.045 1352 36.7696
131.162 1436 37.8946
131.279 1429 37.8021
131.396 1461 38.223
131.513 1392 37.3095
131.631 1431 37.8286
131.748 1423 37.7227
131.865 1338 36.5787
131.983 1254 35.4119
132.1 1230 35.0714
132.217 1284 35.8329
132.335 1195 34.5688
132.452 1224 34.9857
132.57 1279 35.7631
132.687 1472 38.3667
132.804 1472 38.3667
132.922 1461 38.223
133.039 1456 38.1576
133.157 1476 38.4187
133.274 1458 38.1838
133.392 1413 37.5899
133.509 1305 36.1248
133.627 1208 34.7563
133.744 1122 33.4963
133.862 1111 33.3317
133.979 1122 33.4963
134.097 1209 34.7707
134.214 1259 35.4824
134.332 1301 36.0694
134.449 1378 37.1214
134.567 1444 38
134.684 1425 37.7492
134.802 1470 38.3406
134.919 1496 38.6782
135.037 1482 38.4968
135.154 1458 38.1838
135.272 1447 38.0395
135.389 1431 37.8286
135.507 1430 37.8153
135.624 1299 36.0416
135.742 1197 34.5977
135.859 1303 36.0971
135.977 1277 35.7351
136.094 1365 36.9459
136.211 1442 37.9737
136.329 1474 38.3927
136.446 1465 38.2753
136.564 1503 38.7685
136.681 1520 38.9872
136.798 1475 38.4057
136.915 1417 37.6431
137.033 1421 37.6962
137.15 1304 36.1109
137.267 1242 35.242
137.384 1181 34.3657
137.502 1048 32.3728
137.619 1081 32.8786
137.736 1152 33.9411
137.853 1200 34.641
137.97 1282 35.805
138.087 1334 36.524
138.204 1395 37.3497
138.321 1441 37.9605
138.438 1413 37.5899
138.555 1442 37.9737
138.672 1429 37.8021
138.788 1421 37.6962
138.905 1338 36.5787
139.022 1253 35.3977
139.139 1216 34.8712
139.255 1068 32.6803
139.372 1146 33.8526
139.488 983 31.3528
139.605 956 30.9192
139.721 935 30.5778
139.838 932 30.5287
139.954 991 31.4802
140.071 1006 31.7175
140.187 890 29.8329
140.303 784 28
140.419 767 27.6948
140.535 702 26.4953
140.652 684 26.1534
140.768 0 1
140.884 0 1
141 0 1
141.115 0 1
141.231 0 1
141.347 0 1
141.463 0 1
141.578 0 1
141.694 0 1
144.104 0 1
144.219 0 1
144.335 0 1
144.45 0 1
144.566 0 1
144.682 0 1
144.798 0 1
144.914 0 1
145.03 0 1
145.146 995 31.5436
145.262 1119 33.4515
145.378 1129 33.6006
145.494 1191 34.5109
145.61 1189 34.4819
145.726 1188 34.4674
145.842 1038 32.218
145.959 1025 32.0156
146.075 975 31.225
146.192 947 30.7734
146.308 951 30.8383
146.425 908 30.133
146.541 960 30.9839
146.658 960 30.9839
146.774 1087 32.9697
146.891 1097 33.121
147.008 1092 33.0454
147.125 1184 34.4093
147.241 1103 33.2114
147.358 1121 33.4813
147.475 1082 32.8938
147.592 1128 33.5857
147.709 1061 32.573
147.826 1125 33.541
147.943 971 31.1609
148.06 988 31.4325
148.177 1044 32.311
148.294 962 31.0161
148.411 1033 32.1403
148.528 1060 32.5576
148.645 1069 32.6956
148.762 1113 33.3617
148.88 1133 33.6601
148.997 1141 33.7787
149.114 1213 34.8281
149.231 1124 33.5261
149.349 1148 33.8821
149.466 1059 32.5423
149.583 1065 32.6343
149.701 1023 31.9844
149.818 933 30.545
149.935 875 29.5804
150.053 839 28.9655
150.17 854 29.2233
150.287 969 31.1288
150.405 1038 32.218
150.522 1044 32.311
150.64 1006 31.7175
150.757 996 31.5595
150.875 1084 32.9242
150.992 1126 33.5559
151.11 1064 32.619
151.227 1025 32.0156
151.344 1039 32.2335
151.462 1060 32.5576
151.579 1012 31.8119
151.697 1012 31.8119
151.814 938 30.6268
151.932 933 30.545
152.049 1001 31.6386
152.167 970 31.1448
152.284 1018 31.9061
152.402 1068 32.6803
152.519 1066 32.6497
152.636 1142 33.7935
152.754 1109 33.3017
152.871 1090 33.0151
152.989 1053 32.45
153.106 1000 31.6228
153.223 967 31.0966
153.341 883 29.7153
153.458 901 30.0167
153.575 867 29.4449
153.693 826 28.7402
153.81 884 29.7321
153.927 911 30.1828
154.044 925 30.4138
154.162 930 30.4959
154.279 982 31.3369
154.396 988 31.4325
154.513 1015 31.8591
154.63 975 31.225
154.747 1033 32.1403
154.864 999 31.607
154.981 988 31.4325
155.098 941 30.6757
155.215 937 30.6105
155.332 911 30.1828
155.449 925 30.4138
155.566 915 30.249
155.683 881 29.6816
155.8 901 30.0167
155.917 910 30.1662
156.033 944 30.7246
156.15 0 1
156.267 0 1
156.383 0 1
156.5 0 1
156.617 0 1
156.733 0 1
156.85 0 1
156.966 0 1
157.082 0 1
157.199 0 1
157.315 0 1
157.431 0 1
157.547 0 1
157.664 0 1
157.78 0 1
157.896 0 1
158.012 0 1
158.128 0 1
158.244 0 1
158.359 0 1
158.475 0 1
158.591 0 1
158.706 0 1
