
6.15755 0 1
6.2731 0 1
6.3887 0 1
6.50437 0 1
6.62009 0 1
6.73587 0 1
6.8517 0 1
6.96759 0 1
7.08353 0 1
7.19952 0 1
7.31557 0 1
7.43166 0 1
7.54781 0 1
7.664 0 1
7.78024 0 1
7.89653 0 1
8.01286 0 1
8.12924 0 1
8.24567 0 1
8.36213 0 1
8.47864 0 1
8.59519 0 1
8.71178 0 1
8.82841 0 1
8.94508 0 1
9.06179 0 1
9.17853 0 1
9.29531 0 1
9.41212 0 1
9.52897 0 1
9.64584 0 1
9.76276 0 1
9.8797 0 1
9.99667 0 1
10.1137 0 1
10.2307 0 1
10.3478 0 1
10.4648 0 1
10.5819 0 1
10.6991 0 1
10.8162 0 1
10.9334 0 1
11.0506 0 1
11.1678 0 1
11.285 0 1
11.4023 0 1
11.5196 0 1
11.6369 0 1
11.7542 0 1
11.8715 0 1
11.9888 0 1
12.1062 0 1
12.2235 0 1
12.3409 0 1
12.4582 0 1
12.5756 0 1
12.693 0 1
12.8104 0 1
12.9278 0 1
13.0452 0 1
13.1626 0 1
13.28 0 1
13.3974 0 1
13.5149 0 1
13.6323 0 1
13.7497 0 1
13.8671 0 1
13.9845 0 1
14.1019 0 1
14.2193 0 1
14.3367 0 1
14.4541 0 1
14.5714 0 1
14.6888 0 1
14.8062 0 1
14.9235 0 1
15.0408 0 0
15.1581 0 0
15.2755 0 0
15.3927 0 0
15.51 0 0
15.6273 0 0
15.7445 0 0
15.8617 0 0
15.9789 0 0
16.0961 0 0
16.2132 0 0
16.3304 0 0
16.4475 0 0
16.5646 0 0
16.6816 0 0
16.7986 0 0
16.9156 0 0
17.0326 0 0
17.1496 0 0
17.2665 0 0
17.3833 0 0
17.5002 0 0
17.617 0 0
17.7338 0 0
17.8505 0 0
17.9672 0 0
18.0839 0 0
18.2005 0 0
18.3171 0 0
18.4337 0 0
18.5502 0 0
18.6666 0 0
18.7831 0 0
18.8994 0 0
19.0158 0 0
19.1321 0 0
19.2483 0 0
19.3645 0 0
19.4806 0 0
19.5967 0 0
19.7128 0 0
19.8288 0 0
19.9447 0 0
20.0606 0 1
20.1764 0 1
20.2922 0 1
20.4079 0 1
20.5236 0 1
20.6392 0 1
20.7548 0 1
20.8702 0 1
23.3078 0 1
23.4233 0 1
23.539 0 1
23.6547 0 1
23.7704 0 1
23.8862 0 1
24.0021 0 1
24.118 0 1
24.234 0 1
24.35 0 1
24.4661 2783 52.7541
24.5822 2803 52.9434
24.6984 2825 53.1507
24.8146 2939 54.2125
24.9309 2975 54.5436
25.0472 2967 54.4702
25.1636 2871 53.5817
25.28 3126 55.9106
25.3965 3016 54.9181
25.513 3004 54.8088
25.6296 2962 54.4243
25.7462 3009 54.8544
25.8628 2866 53.535
25.9795 2958 54.3875
26.0962 2879 53.6563
26.213 2926 54.0925
26.3298 2863 53.507
26.4466 2901 53.8609
26.5635 2829 53.1883
26.6804 2812 53.0283
26.7973 2845 53.3385
26.9143 2642 51.4004
27.0313 2645 51.4296
27.1483 2690 51.8652
27.2653 2546 50.4579
27.3824 2631 51.2933
27.4996 2516 50.1597
27.6167 2464 49.6387
27.7339 2386 48.8467
27.8511 2245 47.3814
27.9683 2301 47.9687
28.0855 2174 46.6262
28.2028 2303 47.9896
28.3201 2404 49.0306
28.4374 2346 48.4355
28.5547 2437 49.366
28.6721 2430 49.295
28.7894 2459 49.5883
28.9068 2463 49.6286
29.0242 2494 49.94
29.1416 2441 49.4065
29.259 2335 48.3218
29.3764 2424 49.2341
29.4939 2464 49.6387
29.6113 2366 48.6415
29.7288 2434 49.3356
29.8463 2402 49.0102
29.9638 2347 48.4458
30.0812 2316 48.1248
30.1987 2333 48.3011
30.3162 2286 47.8121
30.4337 2222 47.1381
30.5512 2158 46.4543
30.6687 2004 44.7661
30.7862 2173 46.6154
30.9037 2044 45.2106
31.0212 2133 46.1844
31.1387 2076 45.5631
31.2562 1993 44.643
31.3737 1933 43.9659
31.4912 1936 44
31.6087 1954 44.2041
31.7262 2002 44.7437
31.8436 2020 44.9444
31.9611 2018 44.9222
32.0785 2070 45.4973
32.1959 2092 45.7384
32.3134 2117 46.0109
32.4308 2048 45.2548
32.5482 2204 46.9468
32.6655 2156 46.4327
32.7829 2011 44.8442
32.9002 2085 45.6618
33.0176 2136 46.2169
33.1349 2052 45.299
33.2522 2122 46.0652
33.3694 2055 45.3321
33.4867 2009 44.8219
33.6039 2035 45.111
33.7211 2124 46.0869
33.8383 2020 44.9444
33.9554 2050 45.2769
34.0725 1987 44.5758
34.1896 1906 43.6578
34.3067 1775 42.1307
34.4237 1808 42.5206
34.5407 1719 41.4608
34.6577 1738 41.6893
34.7746 1821 42.6732
34.8915 1785 42.2493
35.0084 1677 40.9512
35.1252 1686 41.0609
35.242 1627 40.3361
35.3587 1669 40.8534
35.4755 1810 42.5441
35.5921 1843 42.9302
35.7088 1843 42.9302
35.8254 1794 42.3556
35.9419 1857 43.0929
36.0584 1839 42.8836
36.1749 1824 42.7083
36.2913 1782 42.2137
36.4077 1912 43.7264
36.524 1778 42.1663
36.6403 1915 43.7607
36.7565 1825 42.72
36.8727 1773 42.107
36.9889 1799 42.4146
37.1049 1816 42.6146
37.221 0 1
37.3369 0 1
37.4529 0 1
37.5687 0 1
37.6845 0 1
37.8003 0 1
37.916 0 1
38.0316 0 1
38.1472 0 1
40.5851 0 1
40.7008 0 1
40.8164 0 1
40.9322 0 1
41.048 0 1
41.1639 0 1
41.2798 0 1
41.3958 0 1
41.5118 0 1
41.6279 0 1
41.744 1301 36.0694
41.8602 1312 36.2215
41.9765 1340 36.606
42.0928 1349 36.7287
42.2091 1389 37.2693
42.3255 1358 36.8511
42.4419 1418 37.6563
42.5584 1352 36.7696
42.675 1390 37.2827
42.7915 1387 37.2424
42.9081 1339 36.5923
43.0248 1250 35.3553
43.1415 1259 35.4824
43.2582 1197 34.5977
43.375 1260 35.4965
43.4918 1270 35.6371
43.6087 1269 35.623
43.7256 1170 34.2053
43.8425 1158 34.0294
43.9595 1148 33.8821
44.0765 1083 32.909
44.1935 1167 34.1614
44.3106 1104 33.2265
44.4277 1204 34.6987
44.5448 1158 34.0294
44.6619 1162 34.0881
44.7791 1208 34.7563
44.8963 1198 34.6121
45.0136 1093 33.0606
45.1308 1088 32.9848
45.2481 1058 32.5269
45.3654 1080 32.8634
45.4827 1136 33.7046
45.6001 1119 33.4515
45.7174 1045 32.3265
45.8348 1101 33.1813
45.9522 1149 33.8969
46.0697 1096 33.1059
46.1871 1096 33.1059
46.3046 1058 32.5269
46.422 1011 31.7962
46.5395 1010 31.7805
46.657 964 31.0483
46.7745 991 31.4802
46.892 909 30.1496
47.0096 928 30.4631
47.1271 929 30.4795
47.2446 928 30.4631
47.3622 849 29.1376
47.4797 893 29.8831
47.5973 819 28.6182
47.7149 852 29.189
47.8324 859 29.3087
47.95 873 29.5466
48.0675 877 29.6142
48.1851 854 29.2233
48.3027 834 28.8791
48.4202 816 28.5657
48.5378 830 28.8097
48.6554 863 29.3769
48.7729 838 28.9482
48.8904 832 28.8444
49.008 886 29.7658
49.1255 912 30.1993
49.243 828 28.775
49.3605 846 29.0861
49.478 861 29.3428
49.5955 894 29.8998
49.713 924 30.3974
49.8304 917 30.282
49.9479 954 30.8869
50.0653 956 30.9192
50.1827 913 30.2159
50.3001 886 29.7658
50.4175 866 29.4279
50.5348 852 29.189
50.6521 867 29.4449
50.7694 959 30.9677
50.8867 961 31
51.004 973 31.1929
51.1212 1016 31.8748
51.2384 966 31.0805
51.3556 1005 31.7017
51.4727 1101 33.1813
51.5899 1102 33.1964
51.707 1168 34.176
51.824 1159 34.0441
51.9411 1139 33.7491
52.0581 1120 33.4664
52.175 1074 32.7719
52.2919 1149 33.8969
52.4088 1146 33.8526
52.5257 1226 35.0143
52.6425 1225 35
52.7593 1237 35.171
52.876 1249 35.3412
52.9927 1397 37.3765
53.1094 1200 34.641
53.226 1336 36.5513
53.3426 1319 36.318
53.4591 1322 36.3593
53.5756 1382 37.1753
53.692 1307 36.1525
53.8084 1309 36.1801
53.9248 1252 35.3836
54.0411 1245 35.2846
54.1573 1242 35.242
54.2735 0 1
54.3896 0 1
54.5057 0 1
54.6217 0 1
54.7377 0 1
54.8537 0 1
54.9695 0 1
55.0853 0 1
55.2011 0 1
55.3168 0 1
55.4324 0 1
57.824 0 1
57.9396 0 1
58.0553 0 1
58.1711 0 1
58.2869 0 1
58.4028 0 1
58.5187 0 1
58.6347 0 1
58.7508 0 1
58.8669 0 1
58.983 1515 38.923
59.0992 1479 38.4578
59.2155 1495 38.6652
59.3318 1415 37.6165
59.4482 1379 37.1349
59.5646 1366 36.9594
59.681 1401 37.4299
59.7975 1381 37.1618
59.9141 1528 39.0896
60.0306 1549 39.3573
60.1473 1508 38.833
60.2639 1556 39.4462
60.3807 1542 39.2683
60.4974 1569 39.6106
60.6142 1488 38.5746
60.731 1512 38.8844
60.8479 1474 38.3927
60.9648 1428 37.7889
61.0818 1501 38.7427
61.1987 1437 37.9078
61.3158 1449 38.0657
61.4328 1416 37.6298
61.5499 1454 38.1314
61.667 1448 38.0526
61.7841 1478 38.4448
61.9013 1463 38.2492
62.0185 1434 37.8682
62.1357 1382 37.1753
62.253 1353 36.7831
62.3702 1462 38.2361
62.4875 1331 36.4829
62.6049 1386 37.229
62.7222 1348 36.7151
62.8396 1309 36.1801
62.9569 1361 36.8917
63.0743 1325 36.4005
63.1918 1250 35.3553
63.3092 1286 35.8608
63.4267 1344 36.6606
63.5441 1397 37.3765
63.6616 1410 37.55
63.7791 1354 36.7967
63.8966 1376 37.0945
64.0142 1403 37.4566
64.1317 1382 37.1753
64.2492 1332 36.4966
64.3668 1361 36.8917
64.4843 1304 36.1109
64.6019 1312 36.2215
64.7195 1298 36.0278
64.837 1348 36.7151
64.9546 1375 37.081
65.0722 1280 35.7771
65.1898 1299 36.0416
65.3074 1251 35.3695
65.4249 1260 35.4965
65.5425 1309 36.1801
65.6601 1270 35.6371
65.7777 1270 35.6371
65.8952 1312 36.2215
66.0128 1367 36.973
66.1304 1283 35.819
66.2479 1214 34.8425
66.3655 1137 33.7194
66.483 1164 34.1174
66.6005 1107 33.2716
66.718 1146 33.8526
66.8355 1238 35.1852
66.953 1209 34.7707
67.0705 1251 35.3695
67.1879 1276 35.7211
67.3054 1254 35.4119
67.4228 1237 35.171
67.5402 1196 34.5832
67.6576 1226 35.0143
67.7749 1286 35.8608
67.8923 1337 36.565
68.0096 1256 35.4401
68.1269 1222 34.9571
68.2442 1248 35.327
68.3614 1297 36.0139
68.4787 1264 35.5528
68.5958 1305 36.1248
68.713 1311 36.2077
68.8302 1319 36.318
68.9473 1298 36.0278
69.0643 1282 35.805
69.1814 1293 35.9583
69.2984 1291 35.9305
69.4154 1327 36.428
69.5323 1308 36.1663
69.6492 1299 36.0416
69.7661 1384 37.2022
69.8829 1373 37.054
69.9997 1277 35.7351
70.1165 1235 35.1426
70.2332 1198 34.6121
70.3499 1188 34.4674
70.4665 1154 33.9706
70.5831 1280 35.7771
70.6996 1300 36.0555
70.8161 1336 36.5513
70.9326 1287 35.8748
71.049 1282 35.805
71.1653 1289 35.9026
71.2817 1293 35.9583
71.3979 1240 35.2136
71.5141 1294 35.9722
71.6303 1154 33.9706
71.7464 1103 33.2114
71.8624 0 1
71.9784 0 1
72.0944 0 1
72.2102 0 1
72.3261 0 1
72.4418 0 1
72.5575 0 1
72.6732 0 1
75.1054 0 1
75.2209 0 1
75.3365 0 1
75.4521 0 1
75.5678 0 1
75.6835 0 1
75.7993 0 1
75.9151 0 1
76.031 0 1
76.147 1169 34.1906
76.263 1219 34.9142
76.3791 1265 35.5668
76.4952 1229 35.0571
76.6113 1232 35.0999
76.7276 1205 34.7131
76.8438 1238 35.1852
76.9601 1209 34.7707
77.0765 1243 35.2562
77.1929 1258 35.4683
77.3093 1289 35.9026
77.4258 1272 35.6651
77.5423 1291 35.9305
77.6589 1288 35.8887
77.7755 1277 35.7351
77.8921 1245 35.2846
78.0088 1167 34.1614
78.1256 1190 34.4964
78.2423 1149 33.8969
78.3591 1155 33.9853
78.4759 1256 35.4401
78.5928 1228 35.0428
78.7097 1219 34.9142
78.8266 1291 35.9305
78.9436 1161 34.0735
79.0606 1116 33.4066
79.1776 995 31.5436
79.2946 959 30.9677
79.4117 1036 32.187
79.5288 1184 34.4093
79.6459 1180 34.3511
79.7631 1203 34.6843
79.8802 1152 33.9411
79.9974 1133 33.6601
80.1147 1141 33.7787
80.2319 1071 32.7261
80.3491 1049 32.3883
80.4664 1145 33.8378
80.5837 1105 33.2415
80.701 1123 33.5112
80.8183 1089 33
80.9357 1122 33.4963
81.053 1152 33.9411
81.1704 1153 33.9559
81.2877 1149 33.8969
81.4051 1112 33.3467
81.5225 1122 33.4963
81.6399 1030 32.0936
81.7573 1050 32.4037
81.8747 1046 32.3419
81.9922 1087 32.9697
82.1096 989 31.4484
82.227 1011 31.7962
82.3444 1041 32.2645
82.4619 1048 32.3728
82.5793 1116 33.4066
82.6967 1080 32.8634
82.8142 917 30.282
82.9316 832 28.8444
83.049 931 30.5123
83.1664 960 30.9839
83.2838 1013 31.8277
83.4012 973 31.1929
83.5186 978 31.273
83.636 1004 31.686
83.7534 988 31.4325
83.8708 925 30.4138
83.9881 981 31.3209
84.1055 938 30.6268
84.2228 921 30.348
84.3401 968 31.1127
84.4575 950 30.8221
84.5747 915 30.249
84.692 955 30.9031
84.8093 964 31.0483
84.9265 978 31.273
85.0437 952 30.8545
85.1609 984 31.3688
85.2781 978 31.273
85.3952 936 30.5941
85.5123 909 30.1496
85.6294 933 30.545
85.7465 980 31.305
85.8636 943 30.7083
85.9806 950 30.8221
86.0976 1046 32.3419
86.2145 979 31.289
86.3315 1008 31.749
86.4484 958 30.9516
86.5652 896 29.9333
86.682 976 31.241
86.7988 1017 31.8904
86.9156 1079 32.8481
87.0323 1013 31.8277
87.149 973 31.1929
87.2657 1003 31.6702
87.3823 1043 32.2955
87.4988 983 31.3528
87.6154 1041 32.2645
87.7318 1006 31.7175
87.8483 970 31.1448
87.9647 1024 32
88.081 1056 32.4962
88.1973 1083 32.909
88.3136 1087 32.9697
88.4298 1083 32.909
88.546 1023 31.9844
88.6621 992 31.496
88.7781 1018 31.9061
88.8942 0 1
89.0101 0 1
89.126 0 1
89.2419 0 1
89.3577 0 1
89.4734 0 1
89.5891 0 1
89.7047 0 1
89.8203 0 1
89.9358 0 1
92.3269 0 1
92.4424 0 1
92.558 0 1
92.6736 0 1
92.7893 0 1
92.905 0 1
93.0208 0 1
93.1366 0 1
93.2525 0 1
93.3685 0 1
93.4845 0 1
93.6005 1086 32.9545
93.7167 1069 32.6956
93.8328 1115 33.3916
93.949 1127 33.5708
94.0653 1056 32.4962
94.1816 1078 32.8329
94.2979 1121 33.4813
94.4143 1043 32.2955
94.5307 1000 31.6228
94.6472 1084 32.9242
94.7637 1071 32.7261
94.8803 1107 33.2716
94.9969 1116 33.4066
95.1135 1113 33.3617
95.2302 1133 33.6601
95.3469 1127 33.5708
95.4637 1060 32.5576
95.5805 1078 32.8329
95.6973 983 31.3528
95.8142 923 30.3809
95.9311 1077 32.8177
96.048 1143 33.8083
96.1649 1084 32.9242
96.2819 1144 33.8231
96.3989 1095 33.0908
96.516 1060 32.5576
96.633 992 31.496
96.7501 1061 32.573
96.8673 1086 32.9545
96.9844 1094 33.0757
97.1016 1002 31.6544
97.2188 998 31.5911
97.336 1024 32
97.4532 1051 32.4191
97.5704 1039 32.2335
97.6877 1057 32.5115
97.805 1012 31.8119
97.9223 1024 32
98.0396 960 30.9839
98.1569 1035 32.1714
98.2743 980 31.305
98.3916 932 30.5287
98.509 946 30.7571
98.6264 975 31.225
98.7438 1057 32.5115
98.8612 992 31.496
98.9786 995 31.5436
99.096 955 30.9031
99.2134 970 31.1448
99.3308 958 30.9516
99.4482 1031 32.1092
99.5656 948 30.7896
99.6831 972 31.1769
99.8005 946 30.7571
99.9179 989 31.4484
100.035 935 30.5778
100.153 953 30.8707
100.27 989 31.4484
100.388 955 30.9031
100.505 909 30.1496
100.622 955 30.9031
100.74 900 30
100.857 971 31.1609
100.975 1005 31.7017
101.092 979 31.289
101.209 1003 31.6702
101.327 898 29.9666
101.444 911 30.1828
101.561 965 31.0644
101.679 884 29.7321
101.796 862 29.3598
101.913 916 30.2655
102.03 883 29.7153
102.148 925 30.4138
102.265 946 30.7571
102.382 888 29.7993
102.499 981 31.3209
102.616 936 30.5941
102.733 889 29.8161
102.851 836 28.9137
102.968 810 28.4605
103.085 882 29.6985
103.202 829 28.7924
103.319 844 29.0517
103.436 863 29.3769
103.552 812 28.4956
103.669 808 28.4253
103.786 872 29.5296
103.903 785 28.0179
104.02 804 28.3549
104.137 725 26.9258
104.253 720 26.8328
104.37 723 26.8887
104.487 744 27.2764
104.603 717 26.7769
104.72 756 27.4955
104.836 778 27.8927
104.953 723 26.8887
105.069 696 26.3818
105.186 707 26.5895
105.302 696 26.3818
105.418 658 25.6515
105.535 681 26.096
105.651 698 26.4197
105.767 654 25.5734
105.883 683 26.1343
105.999 654 25.5734
106.115 0 1
106.231 0 1
106.347 0 1
106.463 0 1
106.579 0 1
106.694 0 1
106.81 0 1
106.926 0 1
107.041 0 1
107.157 0 1
109.576 0 1
109.692 0 1
109.807 0 1
109.923 0 1
110.039 0 1
110.155 0 1
110.27 0 1
110.386 0 1
110.502 0 1
110.618 425 20.6155
110.735 448 21.166
110.851 427 20.664
110.967 455 21.3307
111.083 477 21.8403
111.199 495 22.2486
111.316 473 21.7486
111.432 492 22.1811
111.549 463 21.5174
111.665 424 20.5913
111.782 389 19.7231
111.898 403 20.0749
112.015 422 20.5426
112.132 441 21
112.248 408 20.199
112.365 376 19.3907
112.482 416 20.3961
112.599 360 18.9737
112.716 387 19.6723
112.832 387 19.6723
112.949 361 19
113.066 372 19.2873
113.183 389 19.7231
113.3 354 18.8149
113.417 366 19.1311
113.534 366 19.1311
113.652 362 19.0263
113.769 390 19.7484
113.886 364 19.0788
114.003 381 19.5192
114.12 379 19.4679
114.238 392 19.799
114.355 404 20.0998
114.472 406 20.1494
114.589 357 18.8944
114.707 351 18.735
114.824 389 19.7231
114.942 428 20.6882
115.059 473 21.7486
115.176 448 21.166
115.294 419 20.4695
115.411 425 20.6155
115.529 443 21.0476
115.646 466 21.587
115.764 437 20.9045
115.881 414 20.347
115.999 449 21.1896
116.116 460 21.4476
116.234 415 20.3715
116.351 444 21.0713
116.469 418 20.445
116.586 427 20.664
116.704 501 22.383
116.821 465 21.5639
116.939 486 22.0454
117.056 492 22.1811
117.174 520 22.8035
117.291 460 21.4476
117.409 513 22.6495
117.526 513 22.6495
117.644 573 23.9374
117.761 545 23.3452
117.879 562 23.7065
117.996 549 23.4307
118.114 497 22.2935
118.231 439 20.9523
118.349 474 21.7715
118.466 488 22.0907
118.584 574 23.9583
118.701 635 25.1992
118.819 624 24.98
118.936 606 24.6171
119.053 603 24.5561
119.171 598 24.454
119.288 591 24.3105
119.405 586 24.2074
119.523 607 24.6374
119.64 586 24.2074
119.757 618 24.8596
119.875 585 24.1868
119.992 586 24.2074
120.109 573 23.9374
120.226 651 25.5147
120.343 586 24.2074
120.46 584 24.1661
120.578 548 23.4094
120.695 616 24.8193
120.812 591 24.3105
120.929 676 26
121.046 706 26.5707
121.163 649 25.4755
121.279 676 26
121.396 627 25.04
121.513 652 25.5343
121.63 733 27.074
121.747 621 24.9199
121.863 607 24.6374
121.98 590 24.2899
122.097 526 22.9347
122.213 575 23.9792
122.33 678 26.0384
122.446 792 28.1425
122.563 738 27.1662
122.679 799 28.2666
122.795 748 27.3496
122.912 761 27.5862
123.028 732 27.0555
123.144 769 27.7308
123.26 725 26.9258
123.377 0 1
123.493 0 1
123.609 0 1
123.725 0 1
123.84 0 1
123.956 0 1
124.072 0 1
124.188 0 1
124.303 0 1
124.419 0 1
126.852 0 1
126.968 0 1
127.083 0 1
127.199 0 1
127.315 0 1
127.431 0 1
127.547 0 1
127.663 0 1
127.779 0 1
127.895 0 1
128.011 0 1
128.127 0 1
128.243 0 1
128.359 995 31.5436
128.476 998 31.5911
128.592 1013 31.8277
128.708 944 30.7246
128.825 969 31.1288
128.941 937 30.6105
129.058 948 30.7896
129.174 945 30.7409
129.291 949 30.8058
129.408 877 29.6142
129.524 919 30.315
129.641 950 30.8221
129.758 973 31.1929
129.875 977 31.257
129.992 1011 31.7962
130.108 944 30.7246
130.225 1003 31.6702
130.342 1059 32.5423
130.459 954 30.8869
130.576 974 31.209
130.693 897 29.95
130.81 829 28.7924
130.928 802 28.3196
131.045 838 28.9482
131.162 918 30.2985
131.279 980 31.305
131.396 1042 32.28
131.513 1016 31.8748
131.631 1064 32.619
131.748 1061 32.573
131.865 1146 33.8526
131.983 1019 31.9218
132.1 1043 32.2955
132.217 1073 32.7567
132.335 1023 31.9844
132.452 992 31.496
132.57 1070 32.7109
132.687 1000 31.6228
132.804 1067 32.665
132.922 964 31.0483
133.039 961 31
133.157 1020 31.9374
133.274 1033 32.1403
133.392 1028 32.0624
133.509 1013 31.8277
133.627 1056 32.4962
133.744 1032 32.1248
133.862 1080 32.8634
133.979 1068 32.6803
134.097 982 31.3369
134.214 982 31.3369
134.332 955 30.9031
134.449 1004 31.686
134.567 944 30.7246
134.684 909 30.1496
134.802 980 31.305
134.919 1112 33.3467
135.037 1108 33.2866
135.154 1122 33.4963
135.272 1181 34.3657
135.389 1112 33.3467
135.507 1119 33.4515
135.624 1177 34.3074
135.742 1175 34.2783
135.859 1096 33.1059
135.977 1134 33.6749
136.094 1138 33.7343
136.211 1081 32.8786
136.329 1041 32.2645
136.446 1115 33.3916
136.564 1091 33.0303
136.681 1087 32.9697
136.798 1121 33.4813
136.915 1070 32.7109
137.033 1168 34.176
137.15 1140 33.7639
137.267 1205 34.7131
137.384 1144 33.8231
137.502 1129 33.6006
137.619 1089 33
137.736 1090 33.0151
137.853 1062 32.5883
137.97 983 31.3528
138.087 1044 32.311
138.204 999 31.607
138.321 1022 31.9687
138.438 1127 33.5708
138.555 1100 33.1662
138.672 1146 33.8526
138.788 1170 34.2053
138.905 1226 35.0143
139.022 1220 34.9285
139.139 1224 34.9857
139.255 1236 35.1568
139.372 1200 34.641
139.488 1197 34.5977
139.605 1223 34.9714
139.721 1189 34.4819
139.838 1199 34.6266
139.954 1198 34.6121
140.071 1132 33.6452
140.187 1130 33.6155
140.303 1107 33.2716
140.419 1111 33.3317
140.535 1147 33.8674
140.652 1104 33.2265
140.768 0 1
140.884 0 1
141 0 1
141.115 0 1
141.231 0 1
141.347 0 1
141.463 0 1
141.578 0 1
141.694 0 1
144.104 0 1
144.219 0 1
144.335 0 1
144.45 0 1
144.566 0 1
144.682 0 1
144.798 0 1
144.914 0 1
145.03 0 1
145.146 1082 32.8938
145.262 1131 33.6303
145.378 1122 33.4963
145.494 1022 31.9687
145.61 1132 33.6452
145.726 1131 33.6303
145.842 1056 32.4962
145.959 1053 32.45
146.075 1069 32.6956
146.192 1082 32.8938
146.308 985 31.3847
146.425 997 31.5753
146.541 974 31.209
146.658 972 31.1769
146.774 962 31.0161
146.891 1006 31.7175
147.008 983 31.3528
147.125 967 31.0966
147.241 991 31.4802
147.358 1022 31.9687
147.475 1063 32.6037
147.592 1090 33.0151
147.709 1104 33.2265
147.826 1064 32.619
147.943 1142 33.7935
148.06 1083 32.909
148.177 1072 32.7414
148.294 1086 32.9545
148.411 1097 33.121
148.528 1067 32.665
148.645 1065 32.6343
148.762 987 31.4166
148.88 1064 32.619
148.997 1025 32.0156
149.114 1020 31.9374
149.231 1054 32.4654
149.349 1080 32.8634
149.466 1037 32.2025
149.583 1109 33.3017
149.701 989 31.4484
149.818 989 31.4484
149.935 949 30.8058
150.053 959 30.9677
150.17 929 30.4795
150.287 921 30.348
150.405 951 30.8383
150.522 947 30.7734
150.64 1000 31.6228
150.757 1001 31.6386
150.875 967 31.0966
150.992 1071 32.7261
151.11 951 30.8383
151.227 1051 32.4191
151.344 1044 32.311
151.462 1128 33.5857
151.579 1112 33.3467
151.697 1111 33.3317
151.814 1045 32.3265
151.932 1049 32.3883
152.049 1085 32.9393
152.167 1091 33.0303
152.284 1041 32.2645
152.402 1021 31.9531
152.519 1062 32.5883
152.636 1147 33.8674
152.754 1066 32.6497
152.871 1061 32.573
152.989 1028 32.0624
153.106 1065 32.6343
153.223 1011 31.7962
153.341 1046 32.3419
153.458 958 30.9516
153.575 996 31.5595
153.693 945 30.7409
153.81 969 31.1288
153.927 918 30.2985
154.044 928 30.4631
154.162 949 30.8058
154.279 1026 32.0312
154.396 990 31.4643
154.513 1093 33.0606
154.63 1055 32.4808
154.747 1043 32.2955
154.864 1068 32.6803
154.981 1070 32.7109
155.098 1100 33.1662
155.215 1110 33.3167
155.332 1145 33.8378
155.449 1178 34.322
155.566 1052 32.4345
155.683 1107 33.2716
155.8 1073 32.7567
155.917 1134 33.6749
156.033 1199 34.6266
156.15 0 1
156.267 0 1
156.383 0 1
156.5 0 1
156.617 0 1
156.733 0 1
156.85 0 1
156.966 0 1
157.082 0 1
157.199 0 1
157.315 0 1
157.431 0 1
157.547 0 1
157.664 0 1
157.78 0 1
157.896 0 1
158.012 0 1
158.128 0 1
158.244 0 1
158.359 0 1
158.475 0 1
158.591 0 1
158.706 0 1
