
6.15755 0 1
6.2731 0 1
6.3887 0 1
6.50437 0 1
6.62009 0 1
6.73587 0 1
6.8517 0 1
6.96759 0 1
7.08353 0 1
7.19952 0 1
7.31557 0 1
7.43166 0 1
7.54781 0 1
7.664 0 1
7.78024 0 1
7.89653 0 1
8.01286 0 1
8.12924 0 1
8.24567 0 1
8.36213 0 1
8.47864 0 1
8.59519 0 1
8.71178 0 1
8.82841 0 1
8.94508 0 1
9.06179 0 1
9.17853 0 1
9.29531 0 1
9.41212 0 1
9.52897 0 1
9.64584 0 1
9.76276 0 1
9.8797 0 1
9.99667 0 1
10.1137 0 1
10.2307 0 1
10.3478 0 1
10.4648 0 1
10.5819 0 1
10.6991 0 1
10.8162 0 1
10.9334 0 1
11.0506 0 1
11.1678 0 1
11.285 0 1
11.4023 0 1
11.5196 0 1
11.6369 0 1
11.7542 0 1
11.8715 0 1
11.9888 0 1
12.1062 0 1
12.2235 0 1
12.3409 0 1
12.4582 0 1
12.5756 0 1
12.693 0 1
12.8104 0 1
12.9278 0 1
13.0452 0 1
13.1626 0 1
13.28 0 1
13.3974 0 1
13.5149 0 1
13.6323 0 1
13.7497 0 1
13.8671 0 1
13.9845 0 1
14.1019 0 1
14.2193 0 1
14.3367 0 1
14.4541 0 1
14.5714 0 1
14.6888 0 1
14.8062 0 1
14.9235 0 1
15.0408 0 0
15.1581 0 0
15.2755 0 0
15.3927 0 0
15.51 0 0
15.6273 0 0
15.7445 0 0
15.8617 0 0
15.9789 0 0
16.0961 0 0
16.2132 0 0
16.3304 0 0
16.4475 0 0
16.5646 0 0
16.6816 0 0
16.7986 0 0
16.9156 0 0
17.0326 0 0
17.1496 0 0
17.2665 0 0
17.3833 0 0
17.5002 0 0
17.617 0 0
17.7338 0 0
17.8505 0 0
17.9672 0 0
18.0839 0 0
18.2005 0 0
18.3171 0 0
18.4337 0 0
18.5502 0 0
18.6666 0 0
18.7831 0 0
18.8994 0 0
19.0158 0 0
19.1321 0 0
19.2483 0 0
19.3645 0 0
19.4806 0 0
19.5967 0 0
19.7128 0 0
19.8288 0 0
19.9447 0 0
20.0606 0 1
20.1764 0 1
20.2922 0 1
20.4079 0 1
20.5236 0 1
20.6392 0 1
20.7548 0 1
20.8702 0 1
23.3078 0 1
23.4233 0 1
23.539 0 1
23.6547 0 1
23.7704 0 1
23.8862 0 1
24.0021 0 1
24.118 0 1
24.234 0 1
24.35 0 1
24.4661 2219 47.1063
24.5822 2299 47.9479
24.6984 2165 46.5296
24.8146 2228 47.2017
24.9309 2113 45.9674
25.0472 2018 44.9222
25.1636 1999 44.7102
25.28 2065 45.4423
25.3965 2259 47.5289
25.513 2361 48.5901
25.6296 2472 49.7192
25.7462 2872 53.591
25.8628 2707 52.0288
25.9795 2822 53.1225
26.0962 2850 53.3854
26.213 2770 52.6308
26.3298 2881 53.6749
26.4466 2760 52.5357
26.5635 2777 52.6972
26.6804 2738 52.3259
26.7973 2896 53.8145
26.9143 2860 53.479
27.0313 2695 51.9134
27.1483 2754 52.4786
27.2653 2757 52.5071
27.3824 2796 52.8772
27.4996 2747 52.4118
27.6167 2737 52.3163
27.7339 2675 51.7204
27.8511 2571 50.705
27.9683 2495 49.95
28.0855 2438 49.3761
28.2028 2362 48.6004
28.3201 2268 47.6235
28.4374 2097 45.793
28.5547 1957 44.238
28.6721 1871 43.2551
28.7894 1936 44
28.9068 2022 44.9667
29.0242 2223 47.1487
29.1416 2274 47.6865
29.259 2604 51.0294
29.3764 2681 51.7784
29.4939 2684 51.8073
29.6113 2611 51.0979
29.7288 2710 52.0577
29.8463 2727 52.2207
29.9638 2781 52.7352
30.0812 2654 51.517
30.1987 2711 52.0673
30.3162 2647 51.449
30.4337 2761 52.5452
30.5512 2695 51.9134
30.6687 2773 52.6593
30.7862 2816 53.066
30.9037 2715 52.1057
31.0212 2679 51.7591
31.1387 2642 51.4004
31.2562 2557 50.5668
31.3737 2495 49.95
31.4912 2482 49.8197
31.6087 2409 49.0816
31.7262 2343 48.4045
31.8436 2117 46.0109
31.9611 2007 44.7996
32.0785 1877 43.3244
32.1959 1747 41.7971
32.3134 1835 42.8369
32.4308 2028 45.0333
32.5482 2082 45.6289
32.6655 2292 47.8748
32.7829 2528 50.2792
32.9002 2572 50.7149
33.0176 2651 51.4879
33.1349 2619 51.1762
33.2522 2647 51.449
33.3694 2538 50.3786
33.4867 2619 51.1762
33.6039 2669 51.6624
33.7211 2601 51
33.8383 2560 50.5964
33.9554 2710 52.0577
34.0725 2593 50.9215
34.1896 2640 51.3809
34.3067 2636 51.342
34.4237 2658 51.5558
34.5407 2634 51.3225
34.6577 2698 51.9423
34.7746 2587 50.8626
34.8915 2529 50.2892
35.0084 2525 50.2494
35.1252 2497 49.97
35.242 2295 47.9062
35.3587 2257 47.5079
35.4755 2207 46.9787
35.5921 2042 45.1885
35.7088 1899 43.5775
35.8254 1798 42.4028
35.9419 1650 40.6202
36.0584 1692 41.1339
36.1749 1901 43.6005
36.2913 2010 44.833
36.4077 2159 46.465
36.524 2351 48.4871
36.6403 2407 49.0612
36.7565 2609 51.0784
36.8727 2451 49.5076
36.9889 2564 50.636
37.1049 2567 50.6656
37.221 0 1
37.3369 0 1
37.4529 0 1
37.5687 0 1
37.6845 0 1
37.8003 0 1
37.916 0 1
38.0316 0 1
38.1472 0 1
40.5851 0 1
40.7008 0 1
40.8164 0 1
40.9322 0 1
41.048 0 1
41.1639 0 1
41.2798 0 1
41.3958 0 1
41.5118 0 1
41.6279 0 1
41.744 1851 43.0232
41.8602 1964 44.317
41.9765 1994 44.6542
42.0928 2135 46.2061
42.2091 2102 45.8476
42.3255 2118 46.0217
42.4419 2166 46.5403
42.5584 2128 46.1303
42.675 2038 45.1442
42.7915 2039 45.1553
42.9081 2102 45.8476
43.0248 2116 46
43.1415 2026 45.0111
43.2582 2030 45.0555
43.375 1965 44.3283
43.4918 2041 45.1774
43.6087 2028 45.0333
43.7256 2075 45.5522
43.8425 1923 43.852
43.9595 1827 42.7434
44.0765 1775 42.1307
44.1935 1753 41.8688
44.3106 1519 38.9744
44.4277 1471 38.3536
44.5448 1350 36.7423
44.6619 1078 32.8329
44.7791 1145 33.8378
44.8963 1090 33.0151
45.0136 1291 35.9305
45.1308 1255 35.426
45.2481 1450 38.0789
45.3654 1554 39.4208
45.4827 1628 40.3485
45.6001 1573 39.6611
45.7174 1598 39.975
45.8348 1543 39.281
45.9522 1521 39
46.0697 1497 38.6911
46.1871 1511 38.8716
46.3046 1493 38.6394
46.422 1485 38.5357
46.5395 1447 38.0395
46.657 1491 38.6135
46.7745 1510 38.8587
46.892 1432 37.8418
47.0096 1367 36.973
47.1271 1393 37.3229
47.2446 1349 36.7287
47.3622 1291 35.9305
47.4797 1243 35.2562
47.5973 1230 35.0714
47.7149 1189 34.4819
47.8324 1121 33.4813
47.95 1037 32.2025
48.0675 936 30.5941
48.1851 935 30.5778
48.3027 808 28.4253
48.4202 820 28.6356
48.5378 922 30.3645
48.6554 912 30.1993
48.7729 1050 32.4037
48.8904 1119 33.4515
49.008 1131 33.6303
49.1255 1162 34.0881
49.243 1204 34.6987
49.3605 1190 34.4964
49.478 1115 33.3916
49.5955 1184 34.4093
49.713 1212 34.8138
49.8304 1192 34.5254
49.9479 1229 35.0571
50.0653 1179 34.3366
50.1827 1262 35.5246
50.3001 1323 36.3731
50.4175 1315 36.2629
50.5348 1389 37.2693
50.6521 1434 37.8682
50.7694 1510 38.8587
50.8867 1467 38.3014
51.004 1425 37.7492
51.1212 1396 37.3631
51.2384 1335 36.5377
51.3556 1350 36.7423
51.4727 1182 34.3802
51.5899 1228 35.0428
51.707 1046 32.3419
51.824 1064 32.619
51.9411 1114 33.3766
52.0581 1098 33.1361
52.175 1397 37.3765
52.2919 1610 40.1248
52.4088 1809 42.5323
52.5257 1818 42.638
52.6425 1853 43.0465
52.7593 1930 43.9318
52.876 1953 44.1928
52.9927 1944 44.0908
53.1094 1928 43.909
53.226 2017 44.911
53.3426 2102 45.8476
53.4591 2033 45.0888
53.5756 2053 45.31
53.692 2041 45.1774
53.8084 2250 47.4342
53.9248 2183 46.7226
54.0411 2204 46.9468
54.1573 2243 47.3603
54.2735 0 1
54.3896 0 1
54.5057 0 1
54.6217 0 1
54.7377 0 1
54.8537 0 1
54.9695 0 1
55.0853 0 1
55.2011 0 1
55.3168 0 1
55.4324 0 1
57.824 0 1
57.9396 0 1
58.0553 0 1
58.1711 0 1
58.2869 0 1
58.4028 0 1
58.5187 0 1
58.6347 0 1
58.7508 0 1
58.8669 0 1
58.983 2495 49.95
59.0992 2601 51
59.2155 2524 50.2394
59.3318 2628 51.264
59.4482 2541 50.4083
59.5646 2628 51.264
59.681 2639 51.3712
59.7975 2462 49.6185
59.9141 2328 48.2494
60.0306 2215 47.0638
60.1473 2112 45.9565
60.2639 1837 42.8602
60.3807 1574 39.6737
60.4974 1475 38.4057
60.6142 1504 38.7814
60.731 1627 40.3361
60.8479 1659 40.7308
60.9648 1945 44.1022
61.0818 2144 46.3033
61.1987 2243 47.3603
61.3158 2296 47.9166
61.4328 2299 47.9479
61.5499 2375 48.734
61.667 2251 47.4447
61.7841 2243 47.3603
61.9013 2252 47.4552
62.0185 2260 47.5395
62.1357 2277 47.7179
62.253 2239 47.3181
62.3702 2259 47.5289
62.4875 2341 48.3839
62.6049 2306 48.0208
62.7222 2339 48.3632
62.8396 2433 49.3254
62.9569 2381 48.7955
63.0743 2328 48.2494
63.1918 2282 47.7703
63.3092 2140 46.2601
63.4267 2188 46.7761
63.5441 1960 44.2719
63.6616 1777 42.1545
63.7791 1554 39.4208
63.8966 1414 37.6032
64.0142 1222 34.9571
64.1317 1288 35.8887
64.2492 1431 37.8286
64.3668 1584 39.7995
64.4843 1704 41.2795
64.6019 1909 43.6921
64.7195 2031 45.0666
64.837 1958 44.2493
64.9546 2004 44.7661
65.0722 2135 46.2061
65.1898 2025 45
65.3074 2015 44.8888
65.4249 2041 45.1774
65.5425 2059 45.3762
65.6601 2067 45.4643
65.7777 2120 46.0435
65.8952 2059 45.3762
66.0128 2154 46.4112
66.1304 2052 45.299
66.2479 2179 46.6798
66.3655 2112 45.9565
66.483 2228 47.2017
66.6005 2184 46.7333
66.718 2124 46.0869
66.8355 2162 46.4973
66.953 2050 45.2769
67.0705 2061 45.3982
67.1879 1886 43.4281
67.3054 1674 40.9145
67.4228 1464 38.2623
67.5402 1243 35.2562
67.6576 1170 34.2053
67.7749 1152 33.9411
67.8923 1275 35.7071
68.0096 1482 38.4968
68.1269 1659 40.7308
68.2442 1889 43.4626
68.3614 1948 44.1362
68.4787 2021 44.9555
68.5958 2082 45.6289
68.713 2068 45.4753
68.8302 2018 44.9222
68.9473 2043 45.1996
69.0643 2207 46.9787
69.1814 2090 45.7165
69.2984 2114 45.9783
69.4154 2237 47.2969
69.5323 2237 47.2969
69.6492 2226 47.1805
69.7661 2239 47.3181
69.8829 2363 48.6107
69.9997 2354 48.518
70.1165 2443 49.4267
70.2332 2421 49.2037
70.3499 2359 48.5695
70.4665 2403 49.0204
70.5831 2301 47.9687
70.6996 2247 47.4025
70.8161 2186 46.7547
70.9326 2006 44.7884
71.049 1722 41.497
71.1653 1532 39.1408
71.2817 1253 35.3977
71.3979 1080 32.8634
71.5141 1202 34.6699
71.6303 1286 35.8608
71.7464 1309 36.1801
71.8624 0 1
71.9784 0 1
72.0944 0 1
72.2102 0 1
72.3261 0 1
72.4418 0 1
72.5575 0 1
72.6732 0 1
75.1054 0 1
75.2209 0 1
75.3365 0 1
75.4521 0 1
75.5678 0 1
75.6835 0 1
75.7993 0 1
75.9151 0 1
76.031 0 1
76.147 1944 44.0908
76.263 1941 44.0568
76.3791 1731 41.6053
76.4952 1602 40.025
76.6113 1379 37.1349
76.7276 1262 35.5246
76.8438 1183 34.3948
76.9601 1341 36.6197
77.0765 1658 40.7185
77.1929 1958 44.2493
77.3093 2116 46
77.4258 2263 47.571
77.5423 2347 48.4458
77.6589 2216 47.0744
77.7755 2215 47.0638
77.8921 2078 45.5851
78.0088 2204 46.9468
78.1256 2265 47.592
78.2423 2187 46.7654
78.3591 2218 47.0956
78.4759 2301 47.9687
78.5928 2197 46.8722
78.7097 2247 47.4025
78.8266 2254 47.4763
78.9436 2448 49.4773
79.0606 2390 48.8876
79.1776 2354 48.518
79.2946 2300 47.9583
79.4117 2315 48.1144
79.5288 2266 47.6025
79.6459 2181 46.7012
79.7631 2051 45.288
79.8802 1968 44.3621
79.9974 1853 43.0465
80.1147 1651 40.6325
80.2319 1375 37.081
80.3491 1091 33.0303
80.4664 1094 33.0757
80.5837 1203 34.6843
80.701 1375 37.081
80.8183 1667 40.8289
80.9357 1955 44.2154
81.053 1935 43.9886
81.1704 1904 43.6348
81.2877 1918 43.795
81.4051 1905 43.6463
81.5225 1957 44.238
81.6399 2060 45.3872
81.7573 1942 44.0681
81.8747 1898 43.566
81.9922 1868 43.2204
82.1096 1980 44.4972
82.227 1946 44.1135
82.3444 1931 43.9431
82.4619 1973 44.4185
82.5793 2113 45.9674
82.6967 1966 44.3396
82.8142 2030 45.0555
82.9316 2003 44.7549
83.049 2029 45.0444
83.1664 1987 44.5758
83.2838 1950 44.1588
83.4012 1891 43.4856
83.5186 1684 41.0366
83.636 1579 39.7366
83.7534 1459 38.1969
83.8708 1217 34.8855
83.9881 915 30.249
84.1055 945 30.7409
84.2228 991 31.4802
84.3401 1137 33.7194
84.4575 1364 36.9324
84.5747 1633 40.4104
84.692 1803 42.4617
84.8093 1813 42.5793
84.9265 1811 42.5558
85.0437 1833 42.8135
85.1609 1737 41.6773
85.2781 1854 43.0581
85.3952 1887 43.4396
85.5123 1855 43.0697
85.6294 1846 42.9651
85.7465 1839 42.8836
85.8636 1975 44.441
85.9806 2016 44.8999
86.0976 2010 44.833
86.2145 2132 46.1736
86.3315 2286 47.8121
86.4484 2068 45.4753
86.5652 2174 46.6262
86.682 2171 46.594
86.7988 2206 46.9681
86.9156 2208 46.9894
87.0323 2069 45.4863
87.149 2008 44.8107
87.2657 1856 43.0813
87.3823 1570 39.6232
87.4988 1275 35.7071
87.6154 1131 33.6303
87.7318 1106 33.2566
87.8483 1389 37.2693
87.9647 1605 40.0625
88.081 1977 44.4635
88.1973 2134 46.1952
88.3136 2230 47.2229
88.4298 2235 47.2758
88.546 2242 47.3498
88.6621 2159 46.465
88.7781 2165 46.5296
88.8942 0 1
89.0101 0 1
89.126 0 1
89.2419 0 1
89.3577 0 1
89.4734 0 1
89.5891 0 1
89.7047 0 1
89.8203 0 1
89.9358 0 1
92.3269 0 1
92.4424 0 1
92.558 0 1
92.6736 0 1
92.7893 0 1
92.905 0 1
93.0208 0 1
93.1366 0 1
93.2525 0 1
93.3685 0 1
93.4845 0 1
93.6005 2061 45.3982
93.7167 2195 46.8508
93.8328 2180 46.6905
93.949 2134 46.1952
94.0653 2142 46.2817
94.1816 2173 46.6154
94.2979 2232 47.244
94.4143 2227 47.1911
94.5307 2158 46.4543
94.6472 2133 46.1844
94.7637 2203 46.9361
94.8803 2232 47.244
94.9969 2376 48.7442
95.1135 2309 48.0521
95.2302 2400 48.9898
95.3469 2349 48.4665
95.4637 2346 48.4355
95.5805 2338 48.3529
95.6973 2514 50.1398
95.8142 2463 49.6286
95.9311 2362 48.6004
96.048 2283 47.7807
96.1649 2240 47.3286
96.2819 2191 46.8081
96.3989 2092 45.7384
96.516 1914 43.7493
96.633 1555 39.4335
96.7501 1316 36.2767
96.8673 1198 34.6121
96.9844 1261 35.5106
97.1016 1429 37.8021
97.2188 1775 42.1307
97.336 2012 44.8553
97.4532 2191 46.8081
97.5704 2089 45.7056
97.6877 2173 46.6154
97.805 2182 46.7119
97.9223 2124 46.0869
98.0396 2141 46.2709
98.1569 2131 46.1628
98.2743 2207 46.9787
98.3916 2235 47.2758
98.509 2099 45.8148
98.6264 2315 48.1144
98.7438 2243 47.3603
98.8612 2294 47.8957
98.9786 2441 49.4065
99.096 2334 48.3115
99.2134 2398 48.9694
99.3308 2366 48.6415
99.4482 2320 48.1664
99.5656 2469 49.689
99.6831 2273 47.676
99.8005 2185 46.744
99.9179 2186 46.7547
100.035 2042 45.1885
100.153 1794 42.3556
100.27 1586 39.8246
100.388 1314 36.2491
100.505 1244 35.2704
100.622 1479 38.4578
100.74 1680 40.9878
100.857 2125 46.0977
100.975 2126 46.1086
101.092 2263 47.571
101.209 2253 47.4658
101.327 2195 46.8508
101.444 2132 46.1736
101.561 2162 46.4973
101.679 2168 46.5618
101.796 2204 46.9468
101.913 2240 47.3286
102.03 2139 46.2493
102.148 2375 48.734
102.265 2220 47.1169
102.382 2470 49.6991
102.499 2398 48.9694
102.616 2432 49.3153
102.733 2462 49.6185
102.851 2596 50.951
102.968 2501 50.01
103.085 2553 50.5272
103.202 2420 49.1935
103.319 2384 48.8262
103.436 2340 48.3735
103.552 2152 46.3897
103.669 1993 44.643
103.786 1721 41.4849
103.903 1330 36.4692
104.02 1440 37.9473
104.137 1608 40.0999
104.253 1875 43.3013
104.37 2230 47.2229
104.487 2341 48.3839
104.603 2449 49.4874
104.72 2393 48.9183
104.836 2478 49.7795
104.953 2387 48.8569
105.069 2449 49.4874
105.186 2385 48.8365
105.302 2488 49.8799
105.418 2406 49.051
105.535 2473 49.7293
105.651 2669 51.6624
105.767 2714 52.0961
105.883 2703 51.9904
105.999 2752 52.4595
106.115 0 1
106.231 0 1
106.347 0 1
106.463 0 1
106.579 0 1
106.694 0 1
106.81 0 1
106.926 0 1
107.041 0 1
107.157 0 1
109.576 0 1
109.692 0 1
109.807 0 1
109.923 0 1
110.039 0 1
110.155 0 1
110.27 0 1
110.386 0 1
110.502 0 1
110.618 2426 49.2544
110.735 2533 50.3289
110.851 2590 50.892
110.967 2571 50.705
111.083 2634 51.3225
111.199 2647 51.449
111.316 2822 53.1225
111.432 2701 51.9711
111.549 2683 51.7977
111.665 2594 50.9313
111.782 2592 50.9117
111.898 2422 49.2138
112.015 2407 49.0612
112.132 2293 47.8853
112.248 2053 45.31
112.365 1714 41.4005
112.482 1437 37.9078
112.599 1592 39.8999
112.716 1717 41.4367
112.832 1951 44.1701
112.949 2363 48.6107
113.066 2368 48.6621
113.183 2429 49.2849
113.3 2392 48.9081
113.417 2475 49.7494
113.534 2377 48.7545
113.652 2365 48.6313
113.769 2415 49.1426
113.886 2508 50.0799
114.003 2448 49.4773
114.12 2484 49.8397
114.238 2654 51.517
114.355 2598 50.9706
114.472 2681 51.7784
114.589 2625 51.2348
114.707 2768 52.6118
114.824 2734 52.2877
114.942 2735 52.2972
115.059 2651 51.4879
115.176 2822 53.1225
115.294 2715 52.1057
115.411 2677 51.7397
115.529 2560 50.5964
115.646 2585 50.8429
115.764 2323 48.1975
115.881 1979 44.486
115.999 1743 41.7493
116.116 1820 42.6615
116.234 1827 42.7434
116.351 2143 46.2925
116.469 2484 49.8397
116.586 2568 50.6754
116.704 2667 51.643
116.821 2571 50.705
116.939 2607 51.0588
117.056 2500 50
117.174 2515 50.1498
117.291 2709 52.0481
117.409 2552 50.5173
117.526 2557 50.5668
117.644 2676 51.7301
117.761 2765 52.5833
117.879 2808 52.9906
117.996 2714 52.0961
118.114 2765 52.5833
118.231 2801 52.9245
118.349 2921 54.0463
118.466 2856 53.4416
118.584 2901 53.8609
118.701 2980 54.5894
118.819 2800 52.915
118.936 2763 52.5642
119.053 2568 50.6754
119.171 2708 52.0384
119.288 2499 49.99
119.405 2362 48.6004
119.523 2002 44.7437
119.64 1818 42.638
119.757 1714 41.4005
119.875 1887 43.4396
119.992 2059 45.3762
120.109 2407 49.0612
120.226 2493 49.93
120.343 2592 50.9117
120.46 2579 50.7839
120.578 2597 50.9608
120.695 2635 51.3323
120.812 2624 51.225
120.929 2670 51.672
121.046 2627 51.2543
121.163 2620 51.1859
121.279 2758 52.5167
121.396 2612 51.1077
121.513 2704 52
121.63 2748 52.4214
121.747 2740 52.345
121.863 2662 51.5946
121.98 2795 52.8678
122.097 2813 53.0377
122.213 2808 52.9906
122.33 2863 53.507
122.446 2870 53.5724
122.563 2689 51.8556
122.679 2664 51.614
122.795 2653 51.5073
122.912 2468 49.679
123.028 2315 48.1144
123.144 2201 46.9148
123.26 1991 44.6206
123.377 0 1
123.493 0 1
123.609 0 1
123.725 0 1
123.84 0 1
123.956 0 1
124.072 0 1
124.188 0 1
124.303 0 1
124.419 0 1
126.852 0 1
126.968 0 1
127.083 0 1
127.199 0 1
127.315 0 1
127.431 0 1
127.547 0 1
127.663 0 1
127.779 0 1
127.895 0 1
128.011 0 1
128.127 0 1
128.243 0 1
128.359 2434 49.3356
128.476 2273 47.676
128.592 2000 44.7214
128.708 2020 44.9444
128.825 2262 47.5605
128.941 2333 48.3011
129.058 2656 51.5364
129.174 2613 51.1175
129.291 2758 52.5167
129.408 2824 53.1413
129.524 2794 52.8583
129.641 2706 52.0192
129.758 2781 52.7352
129.875 2952 54.3323
129.992 2763 52.5642
130.108 2826 53.1601
130.225 2848 53.3667
130.342 2848 53.3667
130.459 2681 51.7784
130.576 2732 52.2685
130.693 2894 53.7959
130.81 2875 53.619
130.928 2937 54.1941
131.045 2903 53.8795
131.162 2961 54.4151
131.279 3034 55.0818
131.396 3122 55.8749
131.513 2962 54.4243
131.631 2866 53.535
131.748 2741 52.3546
131.865 2647 51.449
131.983 2573 50.7247
132.1 2177 46.6583
132.217 2096 45.7821
132.335 2289 47.8435
132.452 2430 49.295
132.57 2668 51.6527
132.687 2778 52.7067
132.804 2905 53.8981
132.922 2872 53.591
133.039 2866 53.535
133.157 2913 53.9722
133.274 2913 53.9722
133.392 2820 53.1037
133.509 2891 53.768
133.627 2802 52.9339
133.744 2815 53.0566
133.862 2824 53.1413
133.979 2828 53.1789
134.097 2709 52.0481
134.214 2941 54.231
134.332 2972 54.5161
134.449 2923 54.0648
134.567 2968 54.4794
134.684 2998 54.754
134.802 2999 54.7631
134.919 3019 54.9454
135.037 2988 54.6626
135.154 2867 53.5444
135.272 2770 52.6308
135.389 2618 51.1664
135.507 2522 50.2195
135.624 2335 48.3218
135.742 2154 46.4112
135.859 2216 47.0744
135.977 2306 48.0208
136.094 2589 50.8822
136.211 2777 52.6972
136.329 2850 53.3854
136.446 2850 53.3854
136.564 2822 53.1225
136.681 2850 53.3854
136.798 2899 53.8424
136.915 2934 54.1664
137.033 2905 53.8981
137.15 2824 53.1413
137.267 2776 52.6878
137.384 2682 51.788
137.502 2769 52.6213
137.619 2738 52.3259
137.736 2791 52.8299
137.853 2716 52.1153
137.97 2795 52.8678
138.087 2830 53.1977
138.204 3010 54.8635
138.321 2964 54.4426
138.438 2901 53.8609
138.555 2952 54.3323
138.672 2948 54.2955
138.788 2904 53.8888
138.905 2763 52.5642
139.022 2552 50.5173
139.139 2648 51.4587
139.255 2363 48.6107
139.372 2283 47.7807
139.488 2334 48.3115
139.605 2411 49.1019
139.721 2573 50.7247
139.838 2847 53.3573
139.954 2909 53.9351
140.071 2889 53.7494
140.187 2881 53.6749
140.303 2868 53.5537
140.419 2773 52.6593
140.535 2880 53.6656
140.652 2857 53.4509
140.768 0 1
140.884 0 1
141 0 1
141.115 0 1
141.231 0 1
141.347 0 1
141.463 0 1
141.578 0 1
141.694 0 1
144.104 0 1
144.219 0 1
144.335 0 1
144.45 0 1
144.566 0 1
144.682 0 1
144.798 0 1
144.914 0 1
145.03 0 1
145.146 2222 47.1381
145.262 2405 49.0408
145.378 2434 49.3356
145.494 2424 49.2341
145.61 2443 49.4267
145.726 2393 48.9183
145.842 2396 48.949
145.959 2410 49.0918
146.075 2279 47.7389
146.192 2288 47.833
146.308 2264 47.5815
146.425 2363 48.6107
146.541 2314 48.1041
146.658 2375 48.734
146.774 2459 49.5883
146.891 2415 49.1426
147.008 2468 49.679
147.125 2396 48.949
147.241 2520 50.1996
147.358 2631 51.2933
147.475 2507 50.07
147.592 2528 50.2792
147.709 2424 49.2341
147.826 2447 49.4672
147.943 2305 48.0104
148.06 2320 48.1664
148.177 2118 46.0217
148.294 2121 46.0543
148.411 2136 46.2169
148.528 2225 47.1699
148.645 2428 49.2747
148.762 2475 49.7494
148.88 2530 50.2991
148.997 2581 50.8035
149.114 2601 51
149.231 2463 49.6286
149.349 2604 51.0294
149.466 2646 51.4393
149.583 2547 50.4678
149.701 2432 49.3153
149.818 2397 48.9592
149.935 2422 49.2138
150.053 2398 48.9694
150.17 2357 48.5489
150.287 2350 48.4768
150.405 2444 49.4368
150.522 2457 49.5681
150.64 2613 51.1175
150.757 2749 52.4309
150.875 2612 51.1077
150.992 2622 51.2055
151.11 2648 51.4587
151.227 2626 51.2445
151.344 2665 51.6236
151.462 2600 50.9902
151.579 2504 50.04
151.697 2423 49.224
151.814 2337 48.3425
151.932 2288 47.833
152.049 2254 47.4763
152.167 2472 49.7192
152.284 2559 50.5866
152.402 2646 51.4393
152.519 2702 51.9808
152.636 2775 52.6783
152.754 2737 52.3163
152.871 2652 51.4976
152.989 2645 51.4296
153.106 2669 51.6624
153.223 2555 50.547
153.341 2532 50.319
153.458 2520 50.1996
153.575 2420 49.1935
153.693 2467 49.6689
153.81 2556 50.5569
153.927 2541 50.4083
154.044 2535 50.3488
154.162 2668 51.6527
154.279 2708 52.0384
154.396 2687 51.8363
154.513 2700 51.9615
154.63 2830 53.1977
154.747 2814 53.0471
154.864 2867 53.5444
154.981 2820 53.1037
155.098 2844 53.3292
155.215 2617 51.1566
155.332 2576 50.7543
155.449 2557 50.5668
155.566 2428 49.2747
155.683 2519 50.1896
155.8 2641 51.3907
155.917 2716 52.1153
156.033 2789 52.811
156.15 0 1
156.267 0 1
156.383 0 1
156.5 0 1
156.617 0 1
156.733 0 1
156.85 0 1
156.966 0 1
157.082 0 1
157.199 0 1
157.315 0 1
157.431 0 1
157.547 0 1
157.664 0 1
157.78 0 1
157.896 0 1
158.012 0 1
158.128 0 1
158.244 0 1
158.359 0 1
158.475 0 1
158.591 0 1
158.706 0 1
