
6.15755 0 1
6.2731 0 1
6.3887 0 1
6.50437 0 1
6.62009 0 1
6.73587 0 1
6.8517 0 1
6.96759 0 1
7.08353 0 1
7.19952 0 1
7.31557 0 1
7.43166 0 1
7.54781 0 1
7.664 0 1
7.78024 0 1
7.89653 0 1
8.01286 0 1
8.12924 0 1
8.24567 0 1
8.36213 0 1
8.47864 0 1
8.59519 0 1
8.71178 0 1
8.82841 0 1
8.94508 0 1
9.06179 0 1
9.17853 0 1
9.29531 0 1
9.41212 0 1
9.52897 0 1
9.64584 0 1
9.76276 0 1
9.8797 0 1
9.99667 0 1
10.1137 0 1
10.2307 0 1
10.3478 0 1
10.4648 0 1
10.5819 0 1
10.6991 0 1
10.8162 0 1
10.9334 0 1
11.0506 0 1
11.1678 0 1
11.285 0 1
11.4023 0 1
11.5196 0 1
11.6369 0 1
11.7542 0 1
11.8715 0 1
11.9888 0 1
12.1062 0 1
12.2235 0 1
12.3409 0 1
12.4582 0 1
12.5756 0 1
12.693 0 1
12.8104 0 1
12.9278 0 1
13.0452 0 1
13.1626 0 1
13.28 0 1
13.3974 0 1
13.5149 0 1
13.6323 0 1
13.7497 0 1
13.8671 0 1
13.9845 0 1
14.1019 0 1
14.2193 0 1
14.3367 0 1
14.4541 0 1
14.5714 0 1
14.6888 0 1
14.8062 0 1
14.9235 0 1
15.0408 0 0
15.1581 0 0
15.2755 0 0
15.3927 0 0
15.51 0 0
15.6273 0 0
15.7445 0 0
15.8617 0 0
15.9789 0 0
16.0961 0 0
16.2132 0 0
16.3304 0 0
16.4475 0 0
16.5646 0 0
16.6816 0 0
16.7986 0 0
16.9156 0 0
17.0326 0 0
17.1496 0 0
17.2665 0 0
17.3833 0 0
17.5002 0 0
17.617 0 0
17.7338 0 0
17.8505 0 0
17.9672 0 0
18.0839 0 0
18.2005 0 0
18.3171 0 0
18.4337 0 0
18.5502 0 0
18.6666 0 0
18.7831 0 0
18.8994 0 0
19.0158 0 0
19.1321 0 0
19.2483 0 0
19.3645 0 0
19.4806 0 0
19.5967 0 0
19.7128 0 0
19.8288 0 0
19.9447 0 0
20.0606 0 1
20.1764 0 1
20.2922 0 1
20.4079 0 1
20.5236 0 1
20.6392 0 1
20.7548 0 1
20.8702 0 1
23.3078 0 1
23.4233 0 1
23.539 0 1
23.6547 0 1
23.7704 0 1
23.8862 0 1
24.0021 0 1
24.118 0 1
24.234 0 1
24.35 0 1
24.4661 1743 41.7493
24.5822 1784 42.2374
24.6984 1664 40.7922
24.8146 1632 40.398
24.9309 1663 40.7799
25.0472 1636 40.4475
25.1636 1627 40.3361
25.28 1649 40.6079
25.3965 1677 40.9512
25.513 1665 40.8044
25.6296 1766 42.0238
25.7462 1760 41.9524
25.8628 1936 44
25.9795 1945 44.1022
26.0962 1929 43.9204
26.213 2098 45.8039
26.3298 1895 43.5316
26.4466 1983 44.5309
26.5635 1908 43.6807
26.6804 1902 43.6119
26.7973 1824 42.7083
26.9143 1660 40.7431
27.0313 1820 42.6615
27.1483 1879 43.3474
27.2653 1916 43.7721
27.3824 1858 43.1045
27.4996 1928 43.909
27.6167 1900 43.589
27.7339 1867 43.2088
27.8511 1765 42.0119
27.9683 1833 42.8135
28.0855 1798 42.4028
28.2028 1732 41.6173
28.3201 1719 41.4608
28.4374 1697 41.1947
28.5547 1729 41.5812
28.6721 1575 39.6863
28.7894 1589 39.8623
28.9068 1658 40.7185
29.0242 1682 41.0122
29.1416 1756 41.9047
29.259 1662 40.7676
29.3764 1831 42.7902
29.4939 1874 43.2897
29.6113 1953 44.1928
29.7288 1951 44.1701
29.8463 1887 43.4396
29.9638 2003 44.7549
30.0812 1883 43.3935
30.1987 1702 41.2553
30.3162 1639 40.4846
30.4337 1668 40.8412
30.5512 1713 41.3884
30.6687 1782 42.2137
30.7862 1808 42.5206
30.9037 1835 42.8369
31.0212 1862 43.1509
31.1387 1894 43.5201
31.2562 1927 43.8976
31.3737 1880 43.359
31.4912 1818 42.638
31.6087 1883 43.3935
31.7262 1873 43.2782
31.8436 1799 42.4146
31.9611 1746 41.7852
32.0785 1683 41.0244
32.1959 1571 39.6358
32.3134 1623 40.2865
32.4308 1565 39.5601
32.5482 1621 40.2616
32.6655 1658 40.7185
32.7829 1780 42.19
32.9002 1776 42.1426
33.0176 1834 42.8252
33.1349 1909 43.6921
33.2522 1977 44.4635
33.3694 1835 42.8369
33.4867 1927 43.8976
33.6039 1989 44.5982
33.7211 1854 43.0581
33.8383 1821 42.6732
33.9554 1681 41
34.0725 1634 40.4228
34.1896 1690 41.1096
34.3067 1807 42.5088
34.4237 1779 42.1782
34.5407 1832 42.8019
34.6577 1889 43.4626
34.7746 1951 44.1701
34.8915 1885 43.4166
35.0084 1887 43.4396
35.1252 1866 43.1972
35.242 1802 42.45
35.3587 1725 41.5331
35.4755 1762 41.9762
35.5921 1817 42.6263
35.7088 1676 40.939
35.8254 1652 40.6448
35.9419 1593 39.9124
36.0584 1545 39.3065
36.1749 1517 38.9487
36.2913 1559 39.4842
36.4077 1604 40.05
36.524 1698 41.2068
36.6403 1699 41.2189
36.7565 1802 42.45
36.8727 1828 42.7551
36.9889 1837 42.8602
37.1049 1819 42.6497
37.221 0 1
37.3369 0 1
37.4529 0 1
37.5687 0 1
37.6845 0 1
37.8003 0 1
37.916 0 1
38.0316 0 1
38.1472 0 1
40.5851 0 1
40.7008 0 1
40.8164 0 1
40.9322 0 1
41.048 0 1
41.1639 0 1
41.2798 0 1
41.3958 0 1
41.5118 0 1
41.6279 0 1
41.744 1323 36.3731
41.8602 1517 38.9487
41.9765 1498 38.704
42.0928 1631 40.3856
42.2091 1551 39.3827
42.3255 1718 41.4488
42.4419 1618 40.2244
42.5584 1535 39.1791
42.675 1477 38.4318
42.7915 1367 36.973
42.9081 1377 37.108
43.0248 1410 37.55
43.1415 1434 37.8682
43.2582 1451 38.092
43.375 1553 39.4081
43.4918 1565 39.5601
43.6087 1666 40.8167
43.7256 1523 39.0256
43.8425 1479 38.4578
43.9595 1446 38.0263
44.0765 1454 38.1314
44.1935 1459 38.1969
44.3106 1413 37.5899
44.4277 1447 38.0395
44.5448 1355 36.8103
44.6619 1342 36.6333
44.7791 1194 34.5543
44.8963 1184 34.4093
45.0136 1215 34.8569
45.1308 1174 34.2637
45.2481 1242 35.242
45.3654 1241 35.2278
45.4827 1329 36.4555
45.6001 1315 36.2629
45.7174 1321 36.3456
45.8348 1352 36.7696
45.9522 1376 37.0945
46.0697 1267 35.5949
46.1871 1222 34.9571
46.3046 1112 33.3467
46.422 1054 32.4654
46.5395 1083 32.909
46.657 1084 32.9242
46.7745 1165 34.1321
46.892 1190 34.4964
47.0096 1168 34.176
47.1271 1205 34.7131
47.2446 1171 34.2199
47.3622 1204 34.6987
47.4797 1081 32.8786
47.5973 1127 33.5708
47.7149 1104 33.2265
47.8324 1099 33.1512
47.95 1014 31.8434
48.0675 1031 32.1092
48.1851 941 30.6757
48.3027 870 29.4958
48.4202 890 29.8329
48.5378 917 30.282
48.6554 900 30
48.7729 883 29.7153
48.8904 1002 31.6544
49.008 1066 32.6497
49.1255 1097 33.121
49.243 1148 33.8821
49.3605 1168 34.176
49.478 1063 32.6037
49.5955 1070 32.7109
49.713 984 31.3688
49.8304 912 30.1993
49.9479 910 30.1662
50.0653 941 30.6757
50.1827 1087 32.9697
50.3001 1049 32.3883
50.4175 1143 33.8083
50.5348 1212 34.8138
50.6521 1224 34.9857
50.7694 1253 35.3977
50.8867 1262 35.5246
51.004 1262 35.5246
51.1212 1216 34.8712
51.2384 1260 35.4965
51.3556 1216 34.8712
51.4727 1266 35.5809
51.5899 1212 34.8138
51.707 1180 34.3511
51.824 1130 33.6155
51.9411 1157 34.0147
52.0581 1168 34.176
52.175 1226 35.0143
52.2919 1277 35.7351
52.4088 1409 37.5366
52.5257 1440 37.9473
52.6425 1519 38.9744
52.7593 1471 38.3536
52.876 1479 38.4578
52.9927 1555 39.4335
53.1094 1500 38.7298
53.226 1491 38.6135
53.3426 1422 37.7094
53.4591 1325 36.4005
53.5756 1311 36.2077
53.692 1342 36.6333
53.8084 1487 38.5616
53.9248 1458 38.1838
54.0411 1548 39.3446
54.1573 1586 39.8246
54.2735 0 1
54.3896 0 1
54.5057 0 1
54.6217 0 1
54.7377 0 1
54.8537 0 1
54.9695 0 1
55.0853 0 1
55.2011 0 1
55.3168 0 1
55.4324 0 1
57.824 0 1
57.9396 0 1
58.0553 0 1
58.1711 0 1
58.2869 0 1
58.4028 0 1
58.5187 0 1
58.6347 0 1
58.7508 0 1
58.8669 0 1
58.983 1686 41.0609
59.0992 1736 41.6653
59.2155 1813 42.5793
59.3318 1878 43.3359
59.4482 1878 43.3359
59.5646 1867 43.2088
59.681 1917 43.7836
59.7975 1876 43.3128
59.9141 1853 43.0465
60.0306 1731 41.6053
60.1473 1763 41.9881
60.2639 1788 42.2847
60.3807 1558 39.4715
60.4974 1597 39.9625
60.6142 1494 38.6523
60.731 1520 38.9872
60.8479 1570 39.6232
60.9648 1606 40.0749
61.0818 1714 41.4005
61.1987 1774 42.1189
61.3158 1767 42.0357
61.4328 1721 41.4849
61.5499 1833 42.8135
61.667 1756 41.9047
61.7841 1622 40.2741
61.9013 1590 39.8748
62.0185 1507 38.8201
62.1357 1444 38
62.253 1490 38.6005
62.3702 1593 39.9124
62.4875 1680 40.9878
62.6049 1710 41.3521
62.7222 1687 41.0731
62.8396 1792 42.332
62.9569 1814 42.5911
63.0743 1775 42.1307
63.1918 1831 42.7902
63.3092 1826 42.7317
63.4267 1694 41.1582
63.5441 1756 41.9047
63.6616 1604 40.05
63.7791 1612 40.1497
63.8966 1442 37.9737
64.0142 1447 38.0395
64.1317 1375 37.081
64.2492 1408 37.5233
64.3668 1504 38.7814
64.4843 1481 38.4838
64.6019 1545 39.3065
64.7195 1599 39.9875
64.837 1633 40.4104
64.9546 1635 40.4351
65.0722 1707 41.3159
65.1898 1585 39.8121
65.3074 1587 39.8372
65.4249 1527 39.0768
65.5425 1362 36.9053
65.6601 1415 37.6165
65.7777 1420 37.6829
65.8952 1464 38.2623
66.0128 1512 38.8844
66.1304 1622 40.2741
66.2479 1645 40.5586
66.3655 1642 40.5216
66.483 1714 41.4005
66.6005 1648 40.5956
66.718 1714 41.4005
66.8355 1639 40.4846
66.953 1702 41.2553
67.0705 1578 39.724
67.1879 1599 39.9875
67.3054 1511 38.8716
67.4228 1459 38.1969
67.5402 1427 37.7757
67.6576 1294 35.9722
67.7749 1305 36.1248
67.8923 1294 35.9722
68.0096 1394 37.3363
68.1269 1459 38.1969
68.2442 1520 38.9872
68.3614 1607 40.0874
68.4787 1574 39.6737
68.5958 1613 40.1622
68.713 1660 40.7431
68.8302 1575 39.6863
68.9473 1605 40.0625
69.0643 1452 38.1051
69.1814 1412 37.5766
69.2984 1340 36.606
69.4154 1374 37.0675
69.5323 1377 37.108
69.6492 1599 39.9875
69.7661 1707 41.3159
69.8829 1746 41.7852
69.9997 1720 41.4729
70.1165 1738 41.6893
70.2332 1850 43.0116
70.3499 1773 42.107
70.4665 1760 41.9524
70.5831 1747 41.7971
70.6996 1621 40.2616
70.8161 1648 40.5956
70.9326 1572 39.6485
71.049 1520 38.9872
71.1653 1505 38.7943
71.2817 1370 37.0135
71.3979 1349 36.7287
71.5141 1269 35.623
71.6303 1287 35.8748
71.7464 1172 34.2345
71.8624 0 1
71.9784 0 1
72.0944 0 1
72.2102 0 1
72.3261 0 1
72.4418 0 1
72.5575 0 1
72.6732 0 1
75.1054 0 1
75.2209 0 1
75.3365 0 1
75.4521 0 1
75.5678 0 1
75.6835 0 1
75.7993 0 1
75.9151 0 1
76.031 0 1
76.147 1472 38.3667
76.263 1577 39.7115
76.3791 1594 39.9249
76.4952 1513 38.8973
76.6113 1401 37.4299
76.7276 1295 35.9861
76.8438 1322 36.3593
76.9601 1312 36.2215
77.0765 1460 38.2099
77.1929 1566 39.5727
77.3093 1571 39.6358
77.4258 1585 39.8121
77.5423 1587 39.8372
77.6589 1567 39.5854
77.7755 1615 40.1871
77.8921 1589 39.8623
78.0088 1590 39.8748
78.1256 1406 37.4967
78.2423 1364 36.9324
78.3591 1245 35.2846
78.4759 1269 35.623
78.5928 1322 36.3593
78.7097 1467 38.3014
78.8266 1512 38.8844
78.9436 1719 41.4608
79.0606 1692 41.1339
79.1776 1698 41.2068
79.2946 1746 41.7852
79.4117 1679 40.9756
79.5288 1765 42.0119
79.6459 1679 40.9756
79.7631 1676 40.939
79.8802 1612 40.1497
79.9974 1532 39.1408
80.1147 1456 38.1576
80.2319 1359 36.8646
80.3491 1261 35.5106
80.4664 1251 35.3695
80.5837 1314 36.2491
80.701 1401 37.4299
80.8183 1477 38.4318
80.9357 1549 39.3573
81.053 1511 38.8716
81.1704 1557 39.4588
81.2877 1559 39.4842
81.4051 1526 39.064
81.5225 1560 39.4968
81.6399 1452 38.1051
81.7573 1372 37.0405
81.8747 1211 34.7994
81.9922 1192 34.5254
82.1096 1193 34.5398
82.227 1290 35.9166
82.3444 1407 37.51
82.4619 1490 38.6005
82.5793 1561 39.5095
82.6967 1532 39.1408
82.8142 1531 39.128
82.9316 1507 38.8201
83.049 1589 39.8623
83.1664 1532 39.1408
83.2838 1473 38.3797
83.4012 1424 37.7359
83.5186 1439 37.9342
83.636 1340 36.606
83.7534 1265 35.5668
83.8708 1181 34.3657
83.9881 1070 32.7109
84.1055 1211 34.7994
84.2228 1148 33.8821
84.3401 1207 34.7419
84.4575 1312 36.2215
84.5747 1413 37.5899
84.692 1429 37.8021
84.8093 1367 36.973
84.9265 1478 38.4448
85.0437 1504 38.7814
85.1609 1379 37.1349
85.2781 1340 36.606
85.3952 1201 34.6554
85.5123 1152 33.9411
85.6294 1098 33.1361
85.7465 1276 35.7211
85.8636 1366 36.9594
85.9806 1453 38.1182
86.0976 1489 38.5876
86.2145 1665 40.8044
86.3315 1661 40.7554
86.4484 1721 41.4849
86.5652 1694 41.1582
86.682 1646 40.5709
86.7988 1698 41.2068
86.9156 1617 40.2119
87.0323 1595 39.9375
87.149 1457 38.1707
87.2657 1415 37.6165
87.3823 1491 38.6135
87.4988 1364 36.9324
87.6154 1236 35.1568
87.7318 1313 36.2353
87.8483 1412 37.5766
87.9647 1505 38.7943
88.081 1693 41.1461
88.1973 1664 40.7922
88.3136 1684 41.0366
88.4298 1782 42.2137
88.546 1627 40.3361
88.6621 1595 39.9375
88.7781 1481 38.4838
88.8942 0 1
89.0101 0 1
89.126 0 1
89.2419 0 1
89.3577 0 1
89.4734 0 1
89.5891 0 1
89.7047 0 1
89.8203 0 1
89.9358 0 1
92.3269 0 1
92.4424 0 1
92.558 0 1
92.6736 0 1
92.7893 0 1
92.905 0 1
93.0208 0 1
93.1366 0 1
93.2525 0 1
93.3685 0 1
93.4845 0 1
93.6005 1584 39.7995
93.7167 1652 40.6448
93.8328 1785 42.2493
93.949 1711 41.3642
94.0653 1608 40.0999
94.1816 1576 39.6989
94.2979 1413 37.5899
94.4143 1407 37.51
94.5307 1374 37.0675
94.6472 1332 36.4966
94.7637 1382 37.1753
94.8803 1549 39.3573
94.9969 1625 40.3113
95.1135 1601 40.0125
95.2302 1739 41.7013
95.3469 1727 41.5572
95.4637 1813 42.5793
95.5805 1828 42.7551
95.6973 1871 43.2551
95.8142 1822 42.6849
95.9311 1872 43.2666
96.048 1814 42.5911
96.1649 1797 42.391
96.2819 1821 42.6732
96.3989 1685 41.0488
96.516 1606 40.0749
96.633 1495 38.6652
96.7501 1498 38.704
96.8673 1455 38.1445
96.9844 1535 39.1791
97.1016 1586 39.8246
97.2188 1720 41.4729
97.336 1800 42.4264
97.4532 1827 42.7434
97.5704 1833 42.8135
97.6877 1853 43.0465
97.805 1711 41.3642
97.9223 1570 39.6232
98.0396 1555 39.4335
98.1569 1443 37.9868
98.2743 1420 37.6829
98.3916 1437 37.9078
98.509 1533 39.1535
98.6264 1686 41.0609
98.7438 1817 42.6263
98.8612 1805 42.4853
98.9786 1996 44.6766
99.096 1959 44.2606
99.2134 1994 44.6542
99.3308 1996 44.6766
99.4482 1932 43.9545
99.5656 1989 44.5982
99.6831 2062 45.4093
99.8005 1930 43.9318
99.9179 1877 43.3244
100.035 1837 42.8602
100.153 1708 41.328
100.27 1598 39.975
100.388 1596 39.95
100.505 1626 40.3237
100.622 1793 42.3438
100.74 1966 44.3396
100.857 2021 44.9555
100.975 1990 44.6094
101.092 2068 45.4753
101.209 2114 45.9783
101.327 1973 44.4185
101.444 1895 43.5316
101.561 1769 42.0595
101.679 1577 39.7115
101.796 1610 40.1248
101.913 1577 39.7115
102.03 1616 40.1995
102.148 1762 41.9762
102.265 2121 46.0543
102.382 1873 43.2782
102.499 2041 45.1774
102.616 2154 46.4112
102.733 2235 47.2758
102.851 2192 46.8188
102.968 2145 46.3141
103.085 2166 46.5403
103.202 2215 47.0638
103.319 2137 46.2277
103.436 2208 46.9894
103.552 1921 43.8292
103.669 1924 43.8634
103.786 1755 41.8927
103.903 1794 42.3556
104.02 1865 43.1856
104.137 1901 43.6005
104.253 2102 45.8476
104.37 2034 45.0999
104.487 2225 47.1699
104.603 2200 46.9042
104.72 2278 47.7284
104.836 2133 46.1844
104.953 2059 45.3762
105.069 1953 44.1928
105.186 1780 42.19
105.302 1684 41.0366
105.418 1735 41.6533
105.535 1948 44.1362
105.651 2015 44.8888
105.767 2137 46.2277
105.883 2144 46.3033
105.999 2268 47.6235
106.115 0 1
106.231 0 1
106.347 0 1
106.463 0 1
106.579 0 1
106.694 0 1
106.81 0 1
106.926 0 1
107.041 0 1
107.157 0 1
109.576 0 1
109.692 0 1
109.807 0 1
109.923 0 1
110.039 0 1
110.155 0 1
110.27 0 1
110.386 0 1
110.502 0 1
110.618 1749 41.821
110.735 1868 43.2204
110.851 2072 45.5192
110.967 2109 45.9239
111.083 2169 46.5725
111.199 2253 47.4658
111.316 2286 47.8121
111.432 2295 47.9062
111.549 2214 47.0532
111.665 2228 47.2017
111.782 2129 46.1411
111.898 2109 45.9239
112.015 2046 45.2327
112.132 1991 44.6206
112.248 1878 43.3359
112.365 1754 41.8808
112.482 1775 42.1307
112.599 1773 42.107
112.716 2005 44.7772
112.832 1990 44.6094
112.949 2112 45.9565
113.066 2156 46.4327
113.183 2105 45.8803
113.3 2081 45.618
113.417 1965 44.3283
113.534 1841 42.9069
113.652 1748 41.8091
113.769 1644 40.5463
113.886 1544 39.2938
114.003 1658 40.7185
114.12 1778 42.1663
114.238 1911 43.715
114.355 2007 44.7996
114.472 2184 46.7333
114.589 1975 44.441
114.707 2072 45.5192
114.824 2124 46.0869
114.942 2036 45.1221
115.059 2194 46.8402
115.176 2170 46.5833
115.294 2131 46.1628
115.411 2073 45.5302
115.529 2033 45.0888
115.646 1886 43.4281
115.764 1864 43.1741
115.881 1688 41.0853
115.999 1735 41.6533
116.116 1747 41.7971
116.234 1878 43.3359
116.351 1998 44.699
116.469 2003 44.7549
116.586 2113 45.9674
116.704 2061 45.3982
116.821 2033 45.0888
116.939 2060 45.3872
117.056 1892 43.4971
117.174 1722 41.497
117.291 1648 40.5956
117.409 1604 40.05
117.526 1577 39.7115
117.644 1554 39.4208
117.761 1722 41.497
117.879 1866 43.1972
117.996 1966 44.3396
118.114 1895 43.5316
118.231 2038 45.1442
118.349 2080 45.607
118.466 2073 45.5302
118.584 1975 44.441
118.701 2086 45.6727
118.819 2032 45.0777
118.936 2034 45.0999
119.053 1936 44
119.171 1965 44.3283
119.288 1801 42.4382
119.405 1774 42.1189
119.523 1703 41.2674
119.64 1589 39.8623
119.757 1730 41.5933
119.875 1822 42.6849
119.992 1877 43.3244
120.109 1877 43.3244
120.226 1881 43.3705
120.343 1899 43.5775
120.46 1882 43.382
120.578 1911 43.715
120.695 1737 41.6773
120.812 1710 41.3521
120.929 1613 40.1622
121.046 1567 39.5854
121.163 1525 39.0512
121.279 1587 39.8372
121.396 1678 40.9634
121.513 1779 42.1782
121.63 1787 42.2729
121.747 1847 42.9767
121.863 1915 43.7607
121.98 1979 44.486
122.097 1920 43.8178
122.213 1953 44.1928
122.33 1979 44.486
122.446 1923 43.852
122.563 1988 44.587
122.679 1843 42.9302
122.795 1788 42.2847
122.912 1826 42.7317
123.028 1679 40.9756
123.144 1602 40.025
123.26 1530 39.1152
123.377 0 1
123.493 0 1
123.609 0 1
123.725 0 1
123.84 0 1
123.956 0 1
124.072 0 1
124.188 0 1
124.303 0 1
124.419 0 1
126.852 0 1
126.968 0 1
127.083 0 1
127.199 0 1
127.315 0 1
127.431 0 1
127.547 0 1
127.663 0 1
127.779 0 1
127.895 0 1
128.011 0 1
128.127 0 1
128.243 0 1
128.359 1680 40.9878
128.476 1758 41.9285
128.592 1644 40.5463
128.708 1685 41.0488
128.825 1727 41.5572
128.941 1970 44.3847
129.058 2058 45.3652
129.174 1969 44.3734
129.291 1989 44.5982
129.408 1927 43.8976
129.524 1913 43.7379
129.641 1824 42.7083
129.758 1693 41.1461
129.875 1657 40.7063
129.992 1552 39.3954
130.108 1551 39.3827
130.225 1670 40.8656
130.342 1611 40.1373
130.459 1714 41.4005
130.576 1871 43.2551
130.693 1922 43.8406
130.81 1950 44.1588
130.928 1861 43.1393
131.045 1945 44.1022
131.162 1950 44.1588
131.279 2014 44.8776
131.396 1989 44.5982
131.513 2048 45.2548
131.631 1953 44.1928
131.748 1917 43.7836
131.865 1824 42.7083
131.983 1610 40.1248
132.1 1655 40.6817
132.217 1747 41.7971
132.335 1745 41.7732
132.452 1926 43.8862
132.57 1986 44.5646
132.687 1897 43.5546
132.804 1995 44.6654
132.922 1865 43.1856
133.039 1915 43.7607
133.157 1807 42.5088
133.274 1672 40.8901
133.392 1597 39.9625
133.509 1571 39.6358
133.627 1549 39.3573
133.744 1524 39.0384
133.862 1744 41.7612
133.979 1761 41.9643
134.097 1815 42.6028
134.214 1864 43.1741
134.332 1846 42.9651
134.449 1866 43.1972
134.567 1923 43.852
134.684 1958 44.2493
134.802 2079 45.5961
134.919 1935 43.9886
135.037 1952 44.1814
135.154 1838 42.8719
135.272 1859 43.1161
135.389 1799 42.4146
135.507 1663 40.7799
135.624 1723 41.509
135.742 1692 41.1339
135.859 1740 41.7133
135.977 1860 43.1277
136.094 1929 43.9204
136.211 2048 45.2548
136.329 1950 44.1588
136.446 1945 44.1022
136.564 1886 43.4281
136.681 1874 43.2897
136.798 1715 41.4126
136.915 1647 40.5832
137.033 1648 40.5956
137.15 1549 39.3573
137.267 1516 38.9358
137.384 1504 38.7814
137.502 1663 40.7799
137.619 1737 41.6773
137.736 1802 42.45
137.853 1698 41.2068
137.97 1875 43.3013
138.087 1856 43.0813
138.204 1789 42.2966
138.321 1982 44.5197
138.438 1991 44.6206
138.555 1938 44.0227
138.672 1976 44.4522
138.788 1918 43.795
138.905 1891 43.4856
139.022 1804 42.4735
139.139 1828 42.7551
139.255 1790 42.3084
139.372 1709 41.3401
139.488 1849 43
139.605 1836 42.8486
139.721 1943 44.0795
139.838 2075 45.5522
139.954 1977 44.4635
140.071 2011 44.8442
140.187 1978 44.4747
140.303 1888 43.4511
140.419 1829 42.7668
140.535 1653 40.6571
140.652 1581 39.7618
140.768 0 1
140.884 0 1
141 0 1
141.115 0 1
141.231 0 1
141.347 0 1
141.463 0 1
141.578 0 1
141.694 0 1
144.104 0 1
144.219 0 1
144.335 0 1
144.45 0 1
144.566 0 1
144.682 0 1
144.798 0 1
144.914 0 1
145.03 0 1
145.146 1617 40.2119
145.262 1647 40.5832
145.378 1627 40.3361
145.494 1534 39.1663
145.61 1446 38.0263
145.726 1441 37.9605
145.842 1429 37.8021
145.959 1342 36.6333
146.075 1364 36.9324
146.192 1429 37.8021
146.308 1556 39.4462
146.425 1600 40
146.541 1543 39.281
146.658 1637 40.4599
146.774 1548 39.3446
146.891 1621 40.2616
147.008 1684 41.0366
147.125 1775 42.1307
147.241 1738 41.6893
147.358 1692 41.1339
147.475 1661 40.7554
147.592 1609 40.1123
147.709 1575 39.6863
147.826 1459 38.1969
147.943 1478 38.4448
148.06 1397 37.3765
148.177 1582 39.7744
148.294 1646 40.5709
148.411 1608 40.0999
148.528 1681 41
148.645 1668 40.8412
148.762 1636 40.4475
148.88 1594 39.9249
148.997 1501 38.7427
149.114 1506 38.8072
149.231 1496 38.6782
149.349 1402 37.4433
149.466 1300 36.0555
149.583 1311 36.2077
149.701 1305 36.1248
149.818 1370 37.0135
149.935 1445 38.0132
150.053 1509 38.8458
150.17 1515 38.923
150.287 1510 38.8587
150.405 1567 39.5854
150.522 1492 38.6264
150.64 1555 39.4335
150.757 1582 39.7744
150.875 1614 40.1746
150.992 1625 40.3113
151.11 1576 39.6989
151.227 1535 39.1791
151.344 1484 38.5227
151.462 1422 37.7094
151.579 1453 38.1182
151.697 1373 37.054
151.814 1554 39.4208
151.932 1572 39.6485
152.049 1653 40.6571
152.167 1630 40.3733
152.284 1615 40.1871
152.402 1499 38.7169
152.519 1488 38.5746
152.636 1587 39.8372
152.754 1446 38.0263
152.871 1391 37.2961
152.989 1320 36.3318
153.106 1297 36.0139
153.223 1348 36.7151
153.341 1376 37.0945
153.458 1425 37.7492
153.575 1482 38.4968
153.693 1497 38.6911
153.81 1504 38.7814
153.927 1543 39.281
154.044 1588 39.8497
154.162 1602 40.025
154.279 1593 39.9124
154.396 1668 40.8412
154.513 1743 41.7493
154.63 1706 41.3038
154.747 1620 40.2492
154.864 1626 40.3237
154.981 1561 39.5095
155.098 1511 38.8716
155.215 1482 38.4968
155.332 1568 39.598
155.449 1574 39.6737
155.566 1653 40.6571
155.683 1660 40.7431
155.8 1644 40.5463
155.917 1667 40.8289
156.033 1781 42.2019
156.15 0 1
156.267 0 1
156.383 0 1
156.5 0 1
156.617 0 1
156.733 0 1
156.85 0 1
156.966 0 1
157.082 0 1
157.199 0 1
157.315 0 1
157.431 0 1
157.547 0 1
157.664 0 1
157.78 0 1
157.896 0 1
158.012 0 1
158.128 0 1
158.244 0 1
158.359 0 1
158.475 0 1
158.591 0 1
158.706 0 1
