
6.15755 0 1
6.2731 0 1
6.3887 0 1
6.50437 0 1
6.62009 0 1
6.73587 0 1
6.8517 0 1
6.96759 0 1
7.08353 0 1
7.19952 0 1
7.31557 0 1
7.43166 0 1
7.54781 0 1
7.664 0 1
7.78024 0 1
7.89653 0 1
8.01286 0 1
8.12924 0 1
8.24567 0 1
8.36213 0 1
8.47864 0 1
8.59519 0 1
8.71178 0 1
8.82841 0 1
8.94508 0 1
9.06179 0 1
9.17853 0 1
9.29531 0 1
9.41212 0 1
9.52897 0 1
9.64584 0 1
9.76276 0 1
9.8797 0 1
9.99667 0 1
10.1137 0 1
10.2307 0 1
10.3478 0 1
10.4648 0 1
10.5819 0 1
10.6991 0 1
10.8162 0 1
10.9334 0 1
11.0506 0 1
11.1678 0 1
11.285 0 1
11.4023 0 1
11.5196 0 1
11.6369 0 1
11.7542 0 1
11.8715 0 1
11.9888 0 1
12.1062 0 1
12.2235 0 1
12.3409 0 1
12.4582 0 1
12.5756 0 1
12.693 0 1
12.8104 0 1
12.9278 0 1
13.0452 0 1
13.1626 0 1
13.28 0 1
13.3974 0 1
13.5149 0 1
13.6323 0 1
13.7497 0 1
13.8671 0 1
13.9845 0 1
14.1019 0 1
14.2193 0 1
14.3367 0 1
14.4541 0 1
14.5714 0 1
14.6888 0 1
14.8062 0 1
14.9235 0 1
15.0408 1047 32.3574
15.1581 1073 32.7567
15.2755 1138 33.7343
15.3927 1182 34.3802
15.51 1232 35.0999
15.6273 1181 34.3657
15.7445 1168 34.176
15.8617 1203 34.6843
15.9789 1196 34.5832
16.0961 1117 33.4215
16.2132 1157 34.0147
16.3304 1163 34.1028
16.4475 1231 35.0856
16.5646 1284 35.8329
16.6816 1346 36.6879
16.7986 1284 35.8329
16.9156 1398 37.3898
17.0326 1321 36.3456
17.1496 1363 36.9188
17.2665 1371 37.027
17.3833 1351 36.756
17.5002 1300 36.0555
17.617 1264 35.5528
17.7338 1216 34.8712
17.8505 1226 35.0143
17.9672 1184 34.4093
18.0839 1206 34.7275
18.2005 1226 35.0143
18.3171 1230 35.0714
18.4337 1270 35.6371
18.5502 1314 36.2491
18.6666 1367 36.973
18.7831 1314 36.2491
18.8994 1323 36.3731
19.0158 1355 36.8103
19.1321 1304 36.1109
19.2483 1235 35.1426
19.3645 1200 34.641
19.4806 1127 33.5708
19.5967 1025 32.0156
19.7128 980 31.305
19.8288 913 30.2159
19.9447 842 29.0172
20.0606 0 1
20.1764 0 1
20.2922 0 1
20.4079 0 1
20.5236 0 1
20.6392 0 1
20.7548 0 1
20.8702 0 1
23.3078 0 1
23.4233 0 1
23.539 0 1
23.6547 0 1
23.7704 0 1
23.8862 0 1
24.0021 0 1
24.118 0 1
24.234 0 1
24.35 0 1
24.4661 548 23.4094
24.5822 683 26.1343
24.6984 744 27.2764
24.8146 819 28.6182
24.9309 913 30.2159
25.0472 996 31.5595
25.1636 1036 32.187
25.28 1206 34.7275
25.3965 1269 35.623
25.513 1320 36.3318
25.6296 1420 37.6829
25.7462 1481 38.4838
25.8628 1511 38.8716
25.9795 1484 38.5227
26.0962 1460 38.2099
26.213 1351 36.756
26.3298 1355 36.8103
26.4466 1288 35.8887
26.5635 1240 35.2136
26.6804 1220 34.9285
26.7973 1291 35.9305
26.9143 1333 36.5103
27.0313 1329 36.4555
27.1483 1433 37.855
27.2653 1359 36.8646
27.3824 1397 37.3765
27.4996 1446 38.0263
27.6167 1396 37.3631
27.7339 1322 36.3593
27.8511 1251 35.3695
27.9683 1233 35.1141
28.0855 1237 35.171
28.2028 1252 35.3836
28.3201 1244 35.2704
28.4374 1145 33.8378
28.5547 1162 34.0881
28.6721 1263 35.5387
28.7894 1258 35.4683
28.9068 1333 36.5103
29.0242 1423 37.7227
29.1416 1396 37.3631
29.259 1353 36.7831
29.3764 1413 37.5899
29.4939 1342 36.6333
29.6113 1340 36.606
29.7288 1379 37.1349
29.8463 1256 35.4401
29.9638 1160 34.0588
30.0812 1172 34.2345
30.1987 1127 33.5708
30.3162 1228 35.0428
30.4337 1233 35.1141
30.5512 1290 35.9166
30.6687 1278 35.7491
30.7862 1269 35.623
30.9037 1354 36.7967
31.0212 1356 36.8239
31.1387 1399 37.4032
31.2562 1317 36.2905
31.3737 1269 35.623
31.4912 1271 35.6511
31.6087 1200 34.641
31.7262 1187 34.4529
31.8436 1156 34
31.9611 1115 33.3916
32.0785 1147 33.8674
32.1959 1192 34.5254
32.3134 1249 35.3412
32.4308 1208 34.7563
32.5482 1292 35.9444
32.6655 1375 37.081
32.7829 1387 37.2424
32.9002 1344 36.6606
33.0176 1350 36.7423
33.1349 1392 37.3095
33.2522 1376 37.0945
33.3694 1316 36.2767
33.4867 1153 33.9559
33.6039 1177 34.3074
33.7211 1038 32.218
33.8383 1074 32.7719
33.9554 1134 33.6749
34.0725 1215 34.8569
34.1896 1218 34.8999
34.3067 1209 34.7707
34.4237 1225 35
34.5407 1262 35.5246
34.6577 1314 36.2491
34.7746 1288 35.8887
34.8915 1277 35.7351
35.0084 1215 34.8569
35.1252 1217 34.8855
35.242 1222 34.9571
35.3587 1160 34.0588
35.4755 1099 33.1512
35.5921 1107 33.2716
35.7088 1114 33.3766
35.8254 1095 33.0908
35.9419 1196 34.5832
36.0584 1143 33.8083
36.1749 1191 34.5109
36.2913 1154 33.9706
36.4077 1249 35.3412
36.524 1120 33.4664
36.6403 1156 34
36.7565 1060 32.5576
36.8727 1069 32.6956
36.9889 966 31.0805
37.1049 898 29.9666
37.221 0 1
37.3369 0 1
37.4529 0 1
37.5687 0 1
37.6845 0 1
37.8003 0 1
37.916 0 1
38.0316 0 1
38.1472 0 1
40.5851 0 1
40.7008 0 1
40.8164 0 1
40.9322 0 1
41.048 0 1
41.1639 0 1
41.2798 0 1
41.3958 0 1
41.5118 0 1
41.6279 0 1
41.744 606 24.6171
41.8602 661 25.7099
41.9765 730 27.0185
42.0928 798 28.2489
42.2091 775 27.8388
42.3255 760 27.5681
42.4419 764 27.6405
42.5584 732 27.0555
42.675 792 28.1425
42.7915 947 30.7734
42.9081 1002 31.6544
43.0248 1008 31.749
43.1415 991 31.4802
43.2582 1048 32.3728
43.375 1003 31.6702
43.4918 1051 32.4191
43.6087 1059 32.5423
43.7256 1064 32.619
43.8425 1010 31.7805
43.9595 940 30.6594
44.0765 983 31.3528
44.1935 966 31.0805
44.3106 951 30.8383
44.4277 881 29.6816
44.5448 877 29.6142
44.6619 898 29.9666
44.7791 945 30.7409
44.8963 957 30.9354
45.0136 1120 33.4664
45.1308 1088 32.9848
45.2481 1098 33.1361
45.3654 1114 33.3766
45.4827 1093 33.0606
45.6001 1080 32.8634
45.7174 1072 32.7414
45.8348 953 30.8707
45.9522 962 31.0161
46.0697 885 29.7489
46.1871 821 28.6531
46.3046 898 29.9666
46.422 908 30.133
46.5395 1028 32.0624
46.657 1008 31.749
46.7745 980 31.305
46.892 1054 32.4654
47.0096 1096 33.1059
47.1271 1218 34.8999
47.2446 1140 33.7639
47.3622 1059 32.5423
47.4797 1057 32.5115
47.5973 1002 31.6544
47.7149 1030 32.0936
47.8324 987 31.4166
47.95 950 30.8221
48.0675 932 30.5287
48.1851 871 29.5127
48.3027 928 30.4631
48.4202 1003 31.6702
48.5378 1016 31.8748
48.6554 1083 32.909
48.7729 1042 32.28
48.8904 1075 32.7872
49.008 1132 33.6452
49.1255 1071 32.7261
49.243 1069 32.6956
49.3605 972 31.1769
49.478 908 30.133
49.5955 860 29.3258
49.713 891 29.8496
49.8304 861 29.3428
49.9479 928 30.4631
50.0653 977 31.257
50.1827 999 31.607
50.3001 997 31.5753
50.4175 1064 32.619
50.5348 1168 34.176
50.6521 1133 33.6601
50.7694 1154 33.9706
50.8867 1147 33.8674
51.004 1097 33.121
51.1212 1121 33.4813
51.2384 1119 33.4515
51.3556 1058 32.5269
51.4727 1056 32.4962
51.5899 936 30.5941
51.707 1015 31.8591
51.824 1033 32.1403
51.9411 1160 34.0588
52.0581 1247 35.3129
52.175 1271 35.6511
52.2919 1334 36.524
52.4088 1304 36.1109
52.5257 1360 36.8782
52.6425 1533 39.1535
52.7593 1498 38.704
52.876 1353 36.7831
52.9927 1335 36.5377
53.1094 1290 35.9166
53.226 1217 34.8855
53.3426 1166 34.1467
53.4591 1116 33.4066
53.5756 1188 34.4674
53.692 1173 34.2491
53.8084 1157 34.0147
53.9248 1137 33.7194
54.0411 1094 33.0757
54.1573 990 31.4643
54.2735 0 1
54.3896 0 1
54.5057 0 1
54.6217 0 1
54.7377 0 1
54.8537 0 1
54.9695 0 1
55.0853 0 1
55.2011 0 1
55.3168 0 1
55.4324 0 1
57.824 0 1
57.9396 0 1
58.0553 0 1
58.1711 0 1
58.2869 0 1
58.4028 0 1
58.5187 0 1
58.6347 0 1
58.7508 0 1
58.8669 0 1
58.983 804 28.3549
59.0992 950 30.8221
59.2155 984 31.3688
59.3318 1082 32.8938
59.4482 1103 33.2114
59.5646 1186 34.4384
59.681 1189 34.4819
59.7975 1220 34.9285
59.9141 1302 36.0832
60.0306 1161 34.0735
60.1473 1116 33.4066
60.2639 1192 34.5254
60.3807 1135 33.6898
60.4974 1176 34.2929
60.6142 1209 34.7707
60.731 1243 35.2562
60.8479 1293 35.9583
60.9648 1334 36.524
61.0818 1346 36.6879
61.1987 1371 37.027
61.3158 1417 37.6431
61.4328 1294 35.9722
61.5499 1214 34.8425
61.667 1139 33.7491
61.7841 1033 32.1403
61.9013 1050 32.4037
62.0185 1020 31.9374
62.1357 1114 33.3766
62.253 1181 34.3657
62.3702 1203 34.6843
62.4875 1267 35.5949
62.6049 1247 35.3129
62.7222 1317 36.2905
62.8396 1382 37.1753
62.9569 1297 36.0139
63.0743 1283 35.819
63.1918 1319 36.318
63.3092 1227 35.0286
63.4267 1247 35.3129
63.5441 1227 35.0286
63.6616 1204 34.6987
63.7791 1128 33.5857
63.8966 1056 32.4962
64.0142 1152 33.9411
64.1317 1173 34.2491
64.2492 1272 35.6651
64.3668 1368 36.9865
64.4843 1305 36.1248
64.6019 1301 36.0694
64.7195 1345 36.6742
64.837 1313 36.2353
64.9546 1284 35.8329
65.0722 1279 35.7631
65.1898 1219 34.9142
65.3074 1057 32.5115
65.4249 1040 32.249
65.5425 921 30.348
65.6601 1031 32.1092
65.7777 1142 33.7935
65.8952 1176 34.2929
66.0128 1174 34.2637
66.1304 1244 35.2704
66.2479 1332 36.4966
66.3655 1293 35.9583
66.483 1293 35.9583
66.6005 1196 34.5832
66.718 1260 35.4965
66.8355 1251 35.3695
66.953 1274 35.6931
67.0705 1248 35.327
67.1879 1194 34.5543
67.3054 1149 33.8969
67.4228 1052 32.4345
67.5402 1013 31.8277
67.6576 1057 32.5115
67.7749 1081 32.8786
67.8923 1214 34.8425
68.0096 1300 36.0555
68.1269 1296 36
68.2442 1283 35.819
68.3614 1281 35.7911
68.4787 1325 36.4005
68.5958 1247 35.3129
68.713 1248 35.327
68.8302 1098 33.1361
68.9473 1021 31.9531
69.0643 980 31.305
69.1814 923 30.3809
69.2984 964 31.0483
69.4154 1038 32.218
69.5323 1130 33.6155
69.6492 1135 33.6898
69.7661 1214 34.8425
69.8829 1166 34.1467
69.9997 1202 34.6699
70.1165 1152 33.9411
70.2332 1153 33.9559
70.3499 1034 32.1559
70.4665 1022 31.9687
70.5831 1016 31.8748
70.6996 849 29.1376
70.8161 857 29.2746
70.9326 830 28.8097
71.049 701 26.4764
71.1653 615 24.7992
71.2817 519 22.7816
71.3979 514 22.6716
71.5141 514 22.6716
71.6303 437 20.9045
71.7464 475 21.7945
71.8624 0 1
71.9784 0 1
72.0944 0 1
72.2102 0 1
72.3261 0 1
72.4418 0 1
72.5575 0 1
72.6732 0 1
75.1054 0 1
75.2209 0 1
75.3365 0 1
75.4521 0 1
75.5678 0 1
75.6835 0 1
75.7993 0 1
75.9151 0 1
76.031 0 1
76.147 766 27.6767
76.263 809 28.4429
76.3791 813 28.5132
76.4952 820 28.6356
76.6113 879 29.6479
76.7276 912 30.1993
76.8438 1018 31.9061
76.9601 1062 32.5883
77.0765 1063 32.6037
77.1929 1091 33.0303
77.3093 1123 33.5112
77.4258 1125 33.541
77.5423 997 31.5753
77.6589 1117 33.4215
77.7755 1051 32.4191
77.8921 871 29.5127
78.0088 845 29.0689
78.1256 722 26.8701
78.2423 753 27.4408
78.3591 845 29.0689
78.4759 909 30.1496
78.5928 981 31.3209
78.7097 981 31.3209
78.8266 947 30.7734
78.9436 1132 33.6452
79.0606 1079 32.8481
79.1776 1045 32.3265
79.2946 1144 33.8231
79.4117 1140 33.7639
79.5288 1124 33.5261
79.6459 1097 33.121
79.7631 1071 32.7261
79.8802 1000 31.6228
79.9974 976 31.241
80.1147 951 30.8383
80.2319 881 29.6816
80.3491 902 30.0333
80.4664 974 31.209
80.5837 1057 32.5115
80.701 1140 33.7639
80.8183 1148 33.8821
80.9357 1093 33.0606
81.053 1146 33.8526
81.1704 1133 33.6601
81.2877 1145 33.8378
81.4051 1142 33.7935
81.5225 944 30.7246
81.6399 1007 31.7333
81.7573 807 28.4077
81.8747 797 28.2312
81.9922 792 28.1425
82.1096 855 29.2404
82.227 936 30.5941
82.3444 998 31.5911
82.4619 1031 32.1092
82.5793 1091 33.0303
82.6967 1127 33.5708
82.8142 1135 33.6898
82.9316 1168 34.176
83.049 1197 34.5977
83.1664 1091 33.0303
83.2838 1145 33.8378
83.4012 1118 33.4365
83.5186 1109 33.3017
83.636 1051 32.4191
83.7534 966 31.0805
83.8708 928 30.4631
83.9881 873 29.5466
84.1055 1028 32.0624
84.2228 1025 32.0156
84.3401 1131 33.6303
84.4575 1114 33.3766
84.5747 1124 33.5261
84.692 1141 33.7787
84.8093 1162 34.0881
84.9265 1148 33.8821
85.0437 1037 32.2025
85.1609 978 31.273
85.2781 901 30.0167
85.3952 812 28.4956
85.5123 825 28.7228
85.6294 844 29.0517
85.7465 914 30.2324
85.8636 1016 31.8748
85.9806 1048 32.3728
86.0976 1015 31.8591
86.2145 1075 32.7872
86.3315 1117 33.4215
86.4484 1211 34.7994
86.5652 1189 34.4819
86.682 1174 34.2637
86.7988 1188 34.4674
86.9156 1156 34
87.0323 1126 33.5559
87.149 1088 32.9848
87.2657 979 31.289
87.3823 1000 31.6228
87.4988 842 29.0172
87.6154 804 28.3549
87.7318 856 29.2575
87.8483 807 28.4077
87.9647 911 30.1828
88.081 943 30.7083
88.1973 913 30.2159
88.3136 878 29.6311
88.4298 807 28.4077
88.546 806 28.3901
88.6621 696 26.3818
88.7781 549 23.4307
88.8942 0 1
89.0101 0 1
89.126 0 1
89.2419 0 1
89.3577 0 1
89.4734 0 1
89.5891 0 1
89.7047 0 1
89.8203 0 1
89.9358 0 1
92.3269 0 1
92.4424 0 1
92.558 0 1
92.6736 0 1
92.7893 0 1
92.905 0 1
93.0208 0 1
93.1366 0 1
93.2525 0 1
93.3685 0 1
93.4845 0 1
93.6005 872 29.5296
93.7167 911 30.1828
93.8328 1002 31.6544
93.949 1050 32.4037
94.0653 995 31.5436
94.1816 1000 31.6228
94.2979 989 31.4484
94.4143 920 30.3315
94.5307 890 29.8329
94.6472 862 29.3598
94.7637 839 28.9655
94.8803 932 30.5287
94.9969 1029 32.078
95.1135 1029 32.078
95.2302 1067 32.665
95.3469 1134 33.6749
95.4637 1128 33.5857
95.5805 1193 34.5398
95.6973 1233 35.1141
95.8142 1201 34.6554
95.9311 1195 34.5688
96.048 1187 34.4529
96.1649 1156 34
96.2819 1155 33.9853
96.3989 1097 33.121
96.516 1064 32.619
96.633 952 30.8545
96.7501 931 30.5123
96.8673 948 30.7896
96.9844 969 31.1288
97.1016 1102 33.1964
97.2188 1175 34.2783
97.336 1107 33.2716
97.4532 1223 34.9714
97.5704 1174 34.2637
97.6877 1182 34.3802
97.805 1104 33.2265
97.9223 1062 32.5883
98.0396 995 31.5436
98.1569 896 29.9333
98.2743 884 29.7321
98.3916 824 28.7054
98.509 939 30.6431
98.6264 972 31.1769
98.7438 1136 33.7046
98.8612 1154 33.9706
98.9786 1165 34.1321
99.096 1188 34.4674
99.2134 1254 35.4119
99.3308 1227 35.0286
99.4482 1210 34.7851
99.5656 1295 35.9861
99.6831 1269 35.623
99.8005 1240 35.2136
99.9179 1211 34.7994
100.035 1199 34.6266
100.153 1110 33.3167
100.27 1085 32.9393
100.388 1094 33.0757
100.505 1092 33.0454
100.622 1131 33.6303
100.74 1247 35.3129
100.857 1301 36.0694
100.975 1237 35.171
101.092 1318 36.3043
101.209 1304 36.1109
101.327 1208 34.7563
101.444 1217 34.8855
101.561 1087 32.9697
101.679 987 31.4166
101.796 906 30.0998
101.913 891 29.8496
102.03 905 30.0832
102.148 1068 32.6803
102.265 1113 33.3617
102.382 1238 35.1852
102.499 1248 35.327
102.616 1211 34.7994
102.733 1276 35.7211
102.851 1318 36.3043
102.968 1357 36.8375
103.085 1375 37.081
103.202 1272 35.6651
103.319 1309 36.1801
103.436 1267 35.5949
103.552 1241 35.2278
103.669 1184 34.4093
103.786 1128 33.5857
103.903 1083 32.909
104.02 1103 33.2114
104.137 1269 35.623
104.253 1221 34.9428
104.37 1341 36.6197
104.487 1360 36.8782
104.603 1389 37.2693
104.72 1298 36.0278
104.836 1332 36.4966
104.953 1150 33.9116
105.069 1049 32.3883
105.186 964 31.0483
105.302 849 29.1376
105.418 848 29.1204
105.535 789 28.0891
105.651 791 28.1247
105.767 844 29.0517
105.883 842 29.0172
105.999 814 28.5307
106.115 0 1
106.231 0 1
106.347 0 1
106.463 0 1
106.579 0 1
106.694 0 1
106.81 0 1
106.926 0 1
107.041 0 1
107.157 0 1
109.576 0 1
109.692 0 1
109.807 0 1
109.923 0 1
110.039 0 1
110.155 0 1
110.27 0 1
110.386 0 1
110.502 0 1
110.618 536 23.1517
110.735 663 25.7488
110.851 878 29.6311
110.967 872 29.5296
111.083 964 31.0483
111.199 1032 32.1248
111.316 1117 33.4215
111.432 1195 34.5688
111.549 1157 34.0147
111.665 1199 34.6266
111.782 1174 34.2637
111.898 1180 34.3511
112.015 1188 34.4674
112.132 1135 33.6898
112.248 1105 33.2415
112.365 1066 32.6497
112.482 1018 31.9061
112.599 1108 33.2866
112.716 1159 34.0441
112.832 1221 34.9428
112.949 1283 35.819
113.066 1260 35.4965
113.183 1241 35.2278
113.3 1244 35.2704
113.417 1279 35.7631
113.534 1160 34.0588
113.652 1030 32.0936
113.769 962 31.0161
113.886 957 30.9354
114.003 899 29.9833
114.12 882 29.6985
114.238 1053 32.45
114.355 1133 33.6601
114.472 1173 34.2491
114.589 1262 35.5246
114.707 1210 34.7851
114.824 1290 35.9166
114.942 1275 35.7071
115.059 1304 36.1109
115.176 1247 35.3129
115.294 1245 35.2846
115.411 1214 34.8425
115.529 1211 34.7994
115.646 1248 35.327
115.764 1130 33.6155
115.881 986 31.4006
115.999 1061 32.573
116.116 1078 32.8329
116.234 1144 33.8231
116.351 1225 35
116.469 1273 35.6791
116.586 1298 36.0278
116.704 1242 35.242
116.821 1261 35.5106
116.939 1209 34.7707
117.056 1224 34.9857
117.174 1114 33.3766
117.291 1072 32.7414
117.409 933 30.545
117.526 904 30.0666
117.644 909 30.1496
117.761 932 30.5287
117.879 1034 32.1559
117.996 1099 33.1512
118.114 1131 33.6303
118.231 1123 33.5112
118.349 1182 34.3802
118.466 1175 34.2783
118.584 1179 34.3366
118.701 1278 35.7491
118.819 1241 35.2278
118.936 1191 34.5109
119.053 1116 33.4066
119.171 1105 33.2415
119.288 1124 33.5261
119.405 1036 32.187
119.523 1024 32
119.64 1006 31.7175
119.757 982 31.3369
119.875 1028 32.0624
119.992 1080 32.8634
120.109 1187 34.4529
120.226 1026 32.0312
120.343 1149 33.8969
120.46 1162 34.0881
120.578 1138 33.7343
120.695 1118 33.4365
120.812 1098 33.1361
120.929 951 30.8383
121.046 914 30.2324
121.163 872 29.5296
121.279 783 27.9821
121.396 790 28.1069
121.513 853 29.2062
121.63 853 29.2062
121.747 902 30.0333
121.863 894 29.8998
121.98 919 30.315
122.097 918 30.2985
122.213 946 30.7571
122.33 893 29.8831
122.446 864 29.3939
122.563 851 29.1719
122.679 760 27.5681
122.795 698 26.4197
122.912 662 25.7294
123.028 583 24.1454
123.144 488 22.0907
123.26 494 22.2261
123.377 0 1
123.493 0 1
123.609 0 1
123.725 0 1
123.84 0 1
123.956 0 1
124.072 0 1
124.188 0 1
124.303 0 1
124.419 0 1
126.852 0 1
126.968 0 1
127.083 0 1
127.199 0 1
127.315 0 1
127.431 0 1
127.547 0 1
127.663 0 1
127.779 0 1
127.895 0 1
128.011 0 1
128.127 0 1
128.243 0 1
128.359 1065 32.6343
128.476 1124 33.5261
128.592 1032 32.1248
128.708 1087 32.9697
128.825 1114 33.3766
128.941 1124 33.5261
129.058 1239 35.1994
129.174 1282 35.805
129.291 1256 35.4401
129.408 1362 36.9053
129.524 1288 35.8887
129.641 1235 35.1426
129.758 1258 35.4683
129.875 1171 34.2199
129.992 1063 32.6037
130.108 995 31.5436
130.225 944 30.7246
130.342 967 31.0966
130.459 960 30.9839
130.576 1080 32.8634
130.693 1125 33.541
130.81 1083 32.909
130.928 1136 33.7046
131.045 1292 35.9444
131.162 1220 34.9285
131.279 1310 36.1939
131.396 1310 36.1939
131.513 1264 35.5528
131.631 1267 35.5949
131.748 1213 34.8281
131.865 1161 34.0735
131.983 1218 34.8999
132.1 1120 33.4664
132.217 1121 33.4813
132.335 1107 33.2716
132.452 1165 34.1321
132.57 1205 34.7131
132.687 1259 35.4824
132.804 1270 35.6371
132.922 1317 36.2905
133.039 1341 36.6197
133.157 1298 36.0278
133.274 1253 35.3977
133.392 1229 35.0571
133.509 1140 33.7639
133.627 1071 32.7261
133.744 972 31.1769
133.862 945 30.7409
133.979 994 31.5278
134.097 1018 31.9061
134.214 1133 33.6601
134.332 1140 33.7639
134.449 1164 34.1174
134.567 1279 35.7631
134.684 1209 34.7707
134.802 1313 36.2353
134.919 1280 35.7771
135.037 1314 36.2491
135.154 1262 35.5246
135.272 1155 33.9853
135.389 1243 35.2562
135.507 1101 33.1813
135.624 1133 33.6601
135.742 1121 33.4813
135.859 1093 33.0606
135.977 1104 33.2265
136.094 1149 33.8969
136.211 1238 35.1852
136.329 1305 36.1248
136.446 1286 35.8608
136.564 1282 35.805
136.681 1320 36.3318
136.798 1398 37.3898
136.915 1262 35.5246
137.033 1233 35.1141
137.15 1142 33.7935
137.267 1112 33.3467
137.384 1001 31.6386
137.502 941 30.6757
137.619 977 31.257
137.736 1094 33.0757
137.853 1132 33.6452
137.97 1105 33.2415
138.087 1113 33.3617
138.204 1168 34.176
138.321 1248 35.327
138.438 1321 36.3456
138.555 1270 35.6371
138.672 1289 35.9026
138.788 1212 34.8138
138.905 1169 34.1906
139.022 1160 34.0588
139.139 1057 32.5115
139.255 985 31.3847
139.372 939 30.6431
139.488 880 29.6648
139.605 837 28.931
139.721 867 29.4449
139.838 898 29.9666
139.954 811 28.4781
140.071 798 28.2489
140.187 738 27.1662
140.303 707 26.5895
140.419 659 25.671
140.535 617 24.8395
140.652 606 24.6171
140.768 0 1
140.884 0 1
141 0 1
141.115 0 1
141.231 0 1
141.347 0 1
141.463 0 1
141.578 0 1
141.694 0 1
144.104 0 1
144.219 0 1
144.335 0 1
144.45 0 1
144.566 0 1
144.682 0 1
144.798 0 1
144.914 0 1
145.03 0 1
145.146 927 30.4467
145.262 978 31.273
145.378 1067 32.665
145.494 1024 32
145.61 1029 32.078
145.726 1037 32.2025
145.842 924 30.3974
145.959 856 29.2575
146.075 854 29.2233
146.192 784 28
146.308 755 27.4773
146.425 848 29.1204
146.541 854 29.2233
146.658 848 29.1204
146.774 897 29.95
146.891 931 30.5123
147.008 953 30.8707
147.125 964 31.0483
147.241 958 30.9516
147.358 935 30.5778
147.475 951 30.8383
147.592 947 30.7734
147.709 925 30.4138
147.826 927 30.4467
147.943 974 31.209
148.06 874 29.5635
148.177 901 30.0167
148.294 890 29.8329
148.411 893 29.8831
148.528 920 30.3315
148.645 959 30.9677
148.762 1014 31.8434
148.88 996 31.5595
148.997 998 31.5911
149.114 943 30.7083
149.231 1024 32
149.349 1064 32.619
149.466 949 30.8058
149.583 825 28.7228
149.701 897 29.95
149.818 798 28.2489
149.935 763 27.6225
150.053 790 28.1069
150.17 818 28.6007
150.287 881 29.6816
150.405 894 29.8998
150.522 885 29.7489
150.64 931 30.5123
150.757 952 30.8545
150.875 943 30.7083
150.992 909 30.1496
151.11 996 31.5595
151.227 953 30.8707
151.344 962 31.0161
151.462 926 30.4302
151.579 934 30.5614
151.697 845 29.0689
151.814 843 29.0345
151.932 847 29.1033
152.049 847 29.1033
152.167 902 30.0333
152.284 933 30.545
152.402 980 31.305
152.519 1036 32.187
152.636 1015 31.8591
152.754 963 31.0322
152.871 916 30.2655
152.989 911 30.1828
153.106 894 29.8998
153.223 888 29.7993
153.341 776 27.8568
153.458 772 27.7849
153.575 804 28.3549
153.693 817 28.5832
153.81 739 27.1846
153.927 804 28.3549
154.044 815 28.5482
154.162 814 28.5307
154.279 876 29.5973
154.396 882 29.6985
154.513 905 30.0832
154.63 978 31.273
154.747 866 29.4279
154.864 883 29.7153
154.981 842 29.0172
155.098 823 28.688
155.215 782 27.9643
155.332 767 27.6948
155.449 809 28.4429
155.566 768 27.7128
155.683 808 28.4253
155.8 842 29.0172
155.917 823 28.688
156.033 845 29.0689
156.15 0 1
156.267 0 1
156.383 0 1
156.5 0 1
156.617 0 1
156.733 0 1
156.85 0 1
156.966 0 1
157.082 0 1
157.199 0 1
157.315 0 1
157.431 0 1
157.547 0 1
157.664 0 1
157.78 0 1
157.896 0 1
158.012 0 1
158.128 0 1
158.244 0 1
158.359 0 1
158.475 0 1
158.591 0 1
158.706 0 1
