
6.15755 0 1
6.2731 0 1
6.3887 0 1
6.50437 0 1
6.62009 0 1
6.73587 0 1
6.8517 0 1
6.96759 0 1
7.08353 0 1
7.19952 0 1
7.31557 0 1
7.43166 0 1
7.54781 0 1
7.664 0 1
7.78024 0 1
7.89653 0 1
8.01286 0 1
8.12924 0 1
8.24567 0 1
8.36213 0 1
8.47864 0 1
8.59519 0 1
8.71178 0 1
8.82841 0 1
8.94508 0 1
9.06179 0 1
9.17853 0 1
9.29531 0 1
9.41212 0 1
9.52897 0 1
9.64584 0 1
9.76276 0 1
9.8797 0 1
9.99667 0 1
10.1137 0 1
10.2307 0 1
10.3478 0 1
10.4648 0 1
10.5819 0 1
10.6991 0 1
10.8162 0 1
10.9334 0 1
11.0506 0 1
11.1678 0 1
11.285 0 1
11.4023 0 1
11.5196 0 1
11.6369 0 1
11.7542 0 1
11.8715 0 1
11.9888 0 1
12.1062 0 1
12.2235 0 1
12.3409 0 1
12.4582 0 1
12.5756 0 1
12.693 0 1
12.8104 0 1
12.9278 0 1
13.0452 0 1
13.1626 0 1
13.28 0 1
13.3974 0 1
13.5149 0 1
13.6323 0 1
13.7497 0 1
13.8671 0 1
13.9845 0 1
14.1019 0 1
14.2193 0 1
14.3367 0 1
14.4541 0 1
14.5714 0 1
14.6888 0 1
14.8062 0 1
14.9235 0 1
15.0408 1692 41.1339
15.1581 1675 40.9268
15.2755 1666 40.8167
15.3927 1643 40.5339
15.51 1643 40.5339
15.6273 1642 40.5216
15.7445 1545 39.3065
15.8617 1638 40.4722
15.9789 1602 40.025
16.0961 1617 40.2119
16.2132 1613 40.1622
16.3304 1595 39.9375
16.4475 1654 40.6694
16.5646 1510 38.8587
16.6816 1531 39.128
16.7986 1509 38.8458
16.9156 1604 40.05
17.0326 1553 39.4081
17.1496 1518 38.9615
17.2665 1600 40
17.3833 1504 38.7814
17.5002 1549 39.3573
17.617 1506 38.8072
17.7338 1394 37.3363
17.8505 1398 37.3898
17.9672 1496 38.6782
18.0839 1547 39.3319
18.2005 1652 40.6448
18.3171 1734 41.6413
18.4337 1829 42.7668
18.5502 1716 41.4246
18.6666 1764 42
18.7831 1713 41.3884
18.8994 1668 40.8412
19.0158 1706 41.3038
19.1321 1709 41.3401
19.2483 1594 39.9249
19.3645 1613 40.1622
19.4806 1530 39.1152
19.5967 1554 39.4208
19.7128 1484 38.5227
19.8288 1039 32.2335
19.9447 479 21.8861
20.0606 0 1
20.1764 0 1
20.2922 0 1
20.4079 0 1
20.5236 0 1
20.6392 0 1
20.7548 0 1
20.8702 0 1
23.3078 0 1
23.4233 0 1
23.539 0 1
23.6547 0 1
23.7704 0 1
23.8862 0 1
24.0021 0 1
24.118 0 1
24.234 0 1
24.35 0 1
24.4661 1658 40.7185
24.5822 1634 40.4228
24.6984 1628 40.3485
24.8146 1554 39.4208
24.9309 1695 41.1704
25.0472 1631 40.3856
25.1636 1587 39.8372
25.28 1615 40.1871
25.3965 1618 40.2244
25.513 1571 39.6358
25.6296 1686 41.0609
25.7462 1685 41.0488
25.8628 1670 40.8656
25.9795 1669 40.8534
26.0962 1680 40.9878
26.213 1722 41.497
26.3298 1682 41.0122
26.4466 1625 40.3113
26.5635 1495 38.6652
26.6804 1406 37.4967
26.7973 1349 36.7287
26.9143 1432 37.8418
27.0313 1571 39.6358
27.1483 1594 39.9249
27.2653 1643 40.5339
27.3824 1723 41.509
27.4996 1691 41.1218
27.6167 1675 40.9268
27.7339 1673 40.9023
27.8511 1659 40.7308
27.9683 1615 40.1871
28.0855 1631 40.3856
28.2028 1618 40.2244
28.3201 1562 39.5221
28.4374 1588 39.8497
28.5547 1554 39.4208
28.6721 1519 38.9744
28.7894 1598 39.975
28.9068 1578 39.724
29.0242 1587 39.8372
29.1416 1593 39.9124
29.259 1668 40.8412
29.3764 1567 39.5854
29.4939 1591 39.8873
29.6113 1597 39.9625
29.7288 1538 39.2173
29.8463 1656 40.694
29.9638 1476 38.4187
30.0812 1409 37.5366
30.1987 1367 36.973
30.3162 1248 35.327
30.4337 1336 36.5513
30.5512 1439 37.9342
30.6687 1593 39.9124
30.7862 1605 40.0625
30.9037 1647 40.5832
31.0212 1679 40.9756
31.1387 1653 40.6571
31.2562 1595 39.9375
31.3737 1668 40.8412
31.4912 1613 40.1622
31.6087 1592 39.8999
31.7262 1623 40.2865
31.8436 1564 39.5474
31.9611 1483 38.5097
32.0785 1519 38.9744
32.1959 1576 39.6989
32.3134 1557 39.4588
32.4308 1517 38.9487
32.5482 1560 39.4968
32.6655 1544 39.2938
32.7829 1480 38.4708
32.9002 1571 39.6358
33.0176 1456 38.1576
33.1349 1579 39.7366
33.2522 1546 39.3192
33.3694 1567 39.5854
33.4867 1591 39.8873
33.6039 1555 39.4335
33.7211 1357 36.8375
33.8383 1267 35.5949
33.9554 1251 35.3695
34.0725 1312 36.2215
34.1896 1397 37.3765
34.3067 1448 38.0526
34.4237 1483 38.5097
34.5407 1499 38.7169
34.6577 1612 40.1497
34.7746 1674 40.9145
34.8915 1553 39.4081
35.0084 1633 40.4104
35.1252 1592 39.8999
35.242 1541 39.2556
35.3587 1504 38.7814
35.4755 1476 38.4187
35.5921 1578 39.724
35.7088 1507 38.8201
35.8254 1513 38.8973
35.9419 1440 37.9473
36.0584 1503 38.7685
36.1749 1469 38.3275
36.2913 1504 38.7814
36.4077 1403 37.4566
36.524 1469 38.3275
36.6403 1494 38.6523
36.7565 1477 38.4318
36.8727 1510 38.8587
36.9889 1494 38.6523
37.1049 1518 38.9615
37.221 0 1
37.3369 0 1
37.4529 0 1
37.5687 0 1
37.6845 0 1
37.8003 0 1
37.916 0 1
38.0316 0 1
38.1472 0 1
40.5851 0 1
40.7008 0 1
40.8164 0 1
40.9322 0 1
41.048 0 1
41.1639 0 1
41.2798 0 1
41.3958 0 1
41.5118 0 1
41.6279 0 1
41.744 1113 33.3617
41.8602 1197 34.5977
41.9765 1230 35.0714
42.0928 1222 34.9571
42.2091 1238 35.1852
42.3255 1244 35.2704
42.4419 1193 34.5398
42.5584 1024 32
42.675 948 30.7896
42.7915 902 30.0333
42.9081 984 31.3688
43.0248 1040 32.249
43.1415 1071 32.7261
43.2582 1204 34.6987
43.375 1169 34.1906
43.4918 1175 34.2783
43.6087 1225 35
43.7256 1192 34.5254
43.8425 1150 33.9116
43.9595 1126 33.5559
44.0765 1115 33.3916
44.1935 1071 32.7261
44.3106 1028 32.0624
44.4277 1014 31.8434
44.5448 989 31.4484
44.6619 981 31.3209
44.7791 1046 32.3419
44.8963 984 31.3688
45.0136 880 29.6648
45.1308 927 30.4467
45.2481 894 29.8998
45.3654 891 29.8496
45.4827 904 30.0666
45.6001 873 29.5466
45.7174 925 30.4138
45.8348 905 30.0832
45.9522 866 29.4279
46.0697 817 28.5832
46.1871 709 26.6271
46.3046 669 25.865
46.422 695 26.3629
46.5395 714 26.7208
46.657 829 28.7924
46.7745 816 28.5657
46.892 848 29.1204
47.0096 850 29.1548
47.1271 819 28.6182
47.2446 794 28.178
47.3622 829 28.7924
47.4797 751 27.4044
47.5973 777 27.8747
47.7149 765 27.6586
47.8324 672 25.923
47.95 730 27.0185
48.0675 686 26.1916
48.1851 735 27.1109
48.3027 677 26.0192
48.4202 638 25.2587
48.5378 642 25.3377
48.6554 680 26.0768
48.7729 673 25.9422
48.8904 626 25.02
49.008 676 26
49.1255 649 25.4755
49.243 645 25.3969
49.3605 661 25.7099
49.478 632 25.1396
49.5955 598 24.454
49.713 535 23.1301
49.8304 532 23.0651
49.9479 549 23.4307
50.0653 627 25.04
50.1827 675 25.9808
50.3001 669 25.865
50.4175 744 27.2764
50.5348 804 28.3549
50.6521 784 28
50.7694 882 29.6985
50.8867 851 29.1719
51.004 837 28.931
51.1212 884 29.7321
51.2384 837 28.931
51.3556 954 30.8869
51.4727 883 29.7153
51.5899 875 29.5804
51.707 944 30.7246
51.824 884 29.7321
51.9411 956 30.9192
52.0581 970 31.1448
52.175 982 31.3369
52.2919 978 31.273
52.4088 1032 32.1248
52.5257 1083 32.909
52.6425 1076 32.8024
52.7593 1095 33.0908
52.876 1118 33.4365
52.9927 1109 33.3017
53.1094 1032 32.1248
53.226 957 30.9354
53.3426 904 30.0666
53.4591 857 29.2746
53.5756 951 30.8383
53.692 1009 31.7648
53.8084 1114 33.3766
53.9248 1226 35.0143
54.0411 1235 35.1426
54.1573 1256 35.4401
54.2735 0 1
54.3896 0 1
54.5057 0 1
54.6217 0 1
54.7377 0 1
54.8537 0 1
54.9695 0 1
55.0853 0 1
55.2011 0 1
55.3168 0 1
55.4324 0 1
57.824 0 1
57.9396 0 1
58.0553 0 1
58.1711 0 1
58.2869 0 1
58.4028 0 1
58.5187 0 1
58.6347 0 1
58.7508 0 1
58.8669 0 1
58.983 1393 37.3229
59.0992 1470 38.3406
59.2155 1498 38.704
59.3318 1461 38.223
59.4482 1434 37.8682
59.5646 1512 38.8844
59.681 1548 39.3446
59.7975 1530 39.1152
59.9141 1495 38.6652
60.0306 1498 38.704
60.1473 1319 36.318
60.2639 1336 36.5513
60.3807 1351 36.756
60.4974 1328 36.4417
60.6142 1353 36.7831
60.731 1384 37.2022
60.8479 1266 35.5809
60.9648 1283 35.819
61.0818 1312 36.2215
61.1987 1344 36.6606
61.3158 1319 36.318
61.4328 1283 35.819
61.5499 1292 35.9444
61.667 1203 34.6843
61.7841 1168 34.176
61.9013 1023 31.9844
62.0185 1044 32.311
62.1357 1028 32.0624
62.253 1201 34.6554
62.3702 1243 35.2562
62.4875 1347 36.7015
62.6049 1364 36.9324
62.7222 1465 38.2753
62.8396 1537 39.2046
62.9569 1473 38.3797
63.0743 1515 38.923
63.1918 1523 39.0256
63.3092 1418 37.6563
63.4267 1506 38.8072
63.5441 1503 38.7685
63.6616 1456 38.1576
63.7791 1420 37.6829
63.8966 1395 37.3497
64.0142 1380 37.1484
64.1317 1439 37.9342
64.2492 1312 36.2215
64.3668 1460 38.2099
64.4843 1451 38.092
64.6019 1412 37.5766
64.7195 1421 37.6962
64.837 1439 37.9342
64.9546 1484 38.5227
65.0722 1451 38.092
65.1898 1354 36.7967
65.3074 1201 34.6554
65.4249 1120 33.4664
65.5425 1103 33.2114
65.6601 1087 32.9697
65.7777 1160 34.0588
65.8952 1317 36.2905
66.0128 1356 36.8239
66.1304 1437 37.9078
66.2479 1535 39.1791
66.3655 1423 37.7227
66.483 1511 38.8716
66.6005 1462 38.2361
66.718 1486 38.5487
66.8355 1451 38.092
66.953 1506 38.8072
67.0705 1422 37.7094
67.1879 1401 37.4299
67.3054 1429 37.8021
67.4228 1340 36.606
67.5402 1279 35.7631
67.6576 1226 35.0143
67.7749 1284 35.8329
67.8923 1256 35.4401
68.0096 1268 35.609
68.1269 1301 36.0694
68.2442 1209 34.7707
68.3614 1254 35.4119
68.4787 1326 36.4143
68.5958 1336 36.5513
68.713 1331 36.4829
68.8302 1200 34.641
68.9473 1150 33.9116
69.0643 1032 32.1248
69.1814 972 31.1769
69.2984 944 30.7246
69.4154 1062 32.5883
69.5323 1159 34.0441
69.6492 1257 35.4542
69.7661 1349 36.7287
69.8829 1476 38.4187
69.9997 1416 37.6298
70.1165 1476 38.4187
70.2332 1398 37.3898
70.3499 1458 38.1838
70.4665 1462 38.2361
70.5831 1391 37.2961
70.6996 1395 37.3497
70.8161 1356 36.8239
70.9326 1393 37.3229
71.049 1241 35.2278
71.1653 1169 34.1906
71.2817 1228 35.0428
71.3979 1163 34.1028
71.5141 1286 35.8608
71.6303 1220 34.9285
71.7464 1150 33.9116
71.8624 0 1
71.9784 0 1
72.0944 0 1
72.2102 0 1
72.3261 0 1
72.4418 0 1
72.5575 0 1
72.6732 0 1
75.1054 0 1
75.2209 0 1
75.3365 0 1
75.4521 0 1
75.5678 0 1
75.6835 0 1
75.7993 0 1
75.9151 0 1
76.031 0 1
76.147 1380 37.1484
76.263 1348 36.7151
76.3791 1318 36.3043
76.4952 1250 35.3553
76.6113 1167 34.1614
76.7276 1262 35.5246
76.8438 1206 34.7275
76.9601 1343 36.647
77.0765 1323 36.3731
77.1929 1269 35.623
77.3093 1321 36.3456
77.4258 1364 36.9324
77.5423 1395 37.3497
77.6589 1317 36.2905
77.7755 1240 35.2136
77.8921 1140 33.7639
78.0088 995 31.5436
78.1256 938 30.6268
78.2423 865 29.4109
78.3591 864 29.3939
78.4759 1070 32.7109
78.5928 1166 34.1467
78.7097 1253 35.3977
78.8266 1362 36.9053
78.9436 1402 37.4433
79.0606 1388 37.2559
79.1776 1384 37.2022
79.2946 1416 37.6298
79.4117 1427 37.7757
79.5288 1421 37.6962
79.6459 1396 37.3631
79.7631 1281 35.7911
79.8802 1270 35.6371
79.9974 1167 34.1614
80.1147 1134 33.6749
80.2319 1161 34.0735
80.3491 1120 33.4664
80.4664 1110 33.3167
80.5837 1193 34.5398
80.701 1147 33.8674
80.8183 1114 33.3766
80.9357 1162 34.0881
81.053 1270 35.6371
81.1704 1215 34.8569
81.2877 1274 35.6931
81.4051 1145 33.8378
81.5225 1051 32.4191
81.6399 905 30.0832
81.7573 882 29.6985
81.8747 826 28.7402
81.9922 780 27.9285
82.1096 979 31.289
82.227 1008 31.749
82.3444 1096 33.1059
82.4619 1136 33.7046
82.5793 1187 34.4529
82.6967 1187 34.4529
82.8142 1247 35.3129
82.9316 1210 34.7851
83.049 1176 34.2929
83.1664 1209 34.7707
83.2838 1180 34.3511
83.4012 1064 32.619
83.5186 1076 32.8024
83.636 1062 32.5883
83.7534 1017 31.8904
83.8708 972 31.1769
83.9881 987 31.4166
84.1055 986 31.4006
84.2228 960 30.9839
84.3401 1010 31.7805
84.4575 1003 31.6702
84.5747 1040 32.249
84.692 1080 32.8634
84.8093 1118 33.4365
84.9265 1050 32.4037
85.0437 960 30.9839
85.1609 908 30.133
85.2781 842 29.0172
85.3952 768 27.7128
85.5123 735 27.1109
85.6294 855 29.2404
85.7465 921 30.348
85.8636 1045 32.3265
85.9806 1155 33.9853
86.0976 1166 34.1467
86.2145 1266 35.5809
86.3315 1345 36.6742
86.4484 1377 37.108
86.5652 1381 37.1618
86.682 1347 36.7015
86.7988 1405 37.4833
86.9156 1304 36.1109
87.0323 1269 35.623
87.149 1200 34.641
87.2657 1242 35.242
87.3823 1162 34.0881
87.4988 1140 33.7639
87.6154 1169 34.1906
87.7318 1185 34.4238
87.8483 1256 35.4401
87.9647 1217 34.8855
88.081 1305 36.1248
88.1973 1407 37.51
88.3136 1338 36.5787
88.4298 1420 37.6829
88.546 1310 36.1939
88.6621 1136 33.7046
88.7781 1034 32.1559
88.8942 0 1
89.0101 0 1
89.126 0 1
89.2419 0 1
89.3577 0 1
89.4734 0 1
89.5891 0 1
89.7047 0 1
89.8203 0 1
89.9358 0 1
92.3269 0 1
92.4424 0 1
92.558 0 1
92.6736 0 1
92.7893 0 1
92.905 0 1
93.0208 0 1
93.1366 0 1
93.2525 0 1
93.3685 0 1
93.4845 0 1
93.6005 1346 36.6879
93.7167 1386 37.229
93.8328 1366 36.9594
93.949 1341 36.6197
94.0653 1220 34.9285
94.1816 1151 33.9264
94.2979 1070 32.7109
94.4143 1027 32.0468
94.5307 937 30.6105
94.6472 923 30.3809
94.7637 1083 32.909
94.8803 1157 34.0147
94.9969 1268 35.609
95.1135 1278 35.7491
95.2302 1387 37.2424
95.3469 1457 38.1707
95.4637 1565 39.5601
95.5805 1527 39.0768
95.6973 1557 39.4588
95.8142 1540 39.2428
95.9311 1522 39.0128
96.048 1411 37.5633
96.1649 1348 36.7151
96.2819 1331 36.4829
96.3989 1344 36.6606
96.516 1378 37.1214
96.633 1236 35.1568
96.7501 1289 35.9026
96.8673 1338 36.5787
96.9844 1266 35.5809
97.1016 1332 36.4966
97.2188 1308 36.1663
97.336 1342 36.6333
97.4532 1459 38.1969
97.5704 1330 36.4692
97.6877 1256 35.4401
97.805 1161 34.0735
97.9223 1074 32.7719
98.0396 996 31.5595
98.1569 928 30.4631
98.2743 953 30.8707
98.3916 1023 31.9844
98.509 1123 33.5112
98.6264 1236 35.1568
98.7438 1249 35.3412
98.8612 1379 37.1349
98.9786 1491 38.6135
99.096 1494 38.6523
99.2134 1521 39
99.3308 1595 39.9375
99.4482 1483 38.5097
99.5656 1561 39.5095
99.6831 1514 38.9102
99.8005 1433 37.855
99.9179 1381 37.1618
100.035 1378 37.1214
100.153 1353 36.7831
100.27 1294 35.9722
100.388 1274 35.6931
100.505 1292 35.9444
100.622 1338 36.5787
100.74 1407 37.51
100.857 1334 36.524
100.975 1440 37.9473
101.092 1371 37.027
101.209 1411 37.5633
101.327 1320 36.3318
101.444 1133 33.6601
101.561 1046 32.3419
101.679 1063 32.6037
101.796 986 31.4006
101.913 1055 32.4808
102.03 1191 34.5109
102.148 1332 36.4966
102.265 1384 37.2022
102.382 1411 37.5633
102.499 1502 38.7556
102.616 1653 40.6571
102.733 1668 40.8412
102.851 1665 40.8044
102.968 1573 39.6611
103.085 1639 40.4846
103.202 1494 38.6523
103.319 1517 38.9487
103.436 1469 38.3275
103.552 1458 38.1838
103.669 1401 37.4299
103.786 1373 37.054
103.903 1350 36.7423
104.02 1408 37.5233
104.137 1455 38.1445
104.253 1425 37.7492
104.37 1561 39.5095
104.487 1516 38.9358
104.603 1571 39.6358
104.72 1477 38.4318
104.836 1339 36.5923
104.953 1271 35.6511
105.069 1190 34.4964
105.186 1089 33
105.302 1060 32.5576
105.418 1230 35.0714
105.535 1375 37.081
105.651 1443 37.9868
105.767 1539 39.2301
105.883 1583 39.7869
105.999 1628 40.3485
106.115 0 1
106.231 0 1
106.347 0 1
106.463 0 1
106.579 0 1
106.694 0 1
106.81 0 1
106.926 0 1
107.041 0 1
107.157 0 1
109.576 0 1
109.692 0 1
109.807 0 1
109.923 0 1
110.039 0 1
110.155 0 1
110.27 0 1
110.386 0 1
110.502 0 1
110.618 1276 35.7211
110.735 1366 36.9594
110.851 1543 39.281
110.967 1594 39.9249
111.083 1579 39.7366
111.199 1686 41.0609
111.316 1706 41.3038
111.432 1652 40.6448
111.549 1679 40.9756
111.665 1604 40.05
111.782 1606 40.0749
111.898 1522 39.0128
112.015 1482 38.4968
112.132 1406 37.4967
112.248 1431 37.8286
112.365 1346 36.6879
112.482 1332 36.4966
112.599 1351 36.756
112.716 1431 37.8286
112.832 1438 37.921
112.949 1480 38.4708
113.066 1397 37.3765
113.183 1429 37.8021
113.3 1358 36.8511
113.417 1275 35.7071
113.534 1117 33.4215
113.652 1027 32.0468
113.769 1080 32.8634
113.886 1115 33.3916
114.003 1086 32.9545
114.12 1243 35.2562
114.238 1357 36.8375
114.355 1430 37.8153
114.472 1484 38.5227
114.589 1544 39.2938
114.707 1523 39.0256
114.824 1556 39.4462
114.942 1624 40.2989
115.059 1625 40.3113
115.176 1579 39.7366
115.294 1588 39.8497
115.411 1492 38.6264
115.529 1477 38.4318
115.646 1431 37.8286
115.764 1463 38.2492
115.881 1399 37.4032
115.999 1309 36.1801
116.116 1359 36.8646
116.234 1431 37.8286
116.351 1492 38.6264
116.469 1523 39.0256
116.586 1486 38.5487
116.704 1464 38.2623
116.821 1418 37.6563
116.939 1351 36.756
117.056 1304 36.1109
117.174 1184 34.4093
117.291 1086 32.9545
117.409 1134 33.6749
117.526 1159 34.0441
117.644 1252 35.3836
117.761 1343 36.647
117.879 1432 37.8418
117.996 1574 39.6737
118.114 1538 39.2173
118.231 1621 40.2616
118.349 1597 39.9625
118.466 1664 40.7922
118.584 1656 40.694
118.701 1691 41.1218
118.819 1631 40.3856
118.936 1582 39.7744
119.053 1542 39.2683
119.171 1464 38.2623
119.288 1532 39.1408
119.405 1357 36.8375
119.523 1346 36.6879
119.64 1408 37.5233
119.757 1414 37.6032
119.875 1372 37.0405
119.992 1397 37.3765
120.109 1483 38.5097
120.226 1386 37.229
120.343 1523 39.0256
120.46 1395 37.3497
120.578 1354 36.7967
120.695 1217 34.8855
120.812 1220 34.9285
120.929 1179 34.3366
121.046 1162 34.0881
121.163 1172 34.2345
121.279 1186 34.4384
121.396 1382 37.1753
121.513 1465 38.2753
121.63 1573 39.6611
121.747 1581 39.7618
121.863 1624 40.2989
121.98 1612 40.1497
122.097 1608 40.0999
122.213 1588 39.8497
122.33 1611 40.1373
122.446 1627 40.3361
122.563 1569 39.6106
122.679 1582 39.7744
122.795 1502 38.7556
122.912 1464 38.2623
123.028 1385 37.2156
123.144 1330 36.4692
123.26 1364 36.9324
123.377 0 1
123.493 0 1
123.609 0 1
123.725 0 1
123.84 0 1
123.956 0 1
124.072 0 1
124.188 0 1
124.303 0 1
124.419 0 1
126.852 0 1
126.968 0 1
127.083 0 1
127.199 0 1
127.315 0 1
127.431 0 1
127.547 0 1
127.663 0 1
127.779 0 1
127.895 0 1
128.011 0 1
128.127 0 1
128.243 0 1
128.359 1486 38.5487
128.476 1479 38.4578
128.592 1503 38.7685
128.708 1417 37.6431
128.825 1513 38.8973
128.941 1667 40.8289
129.058 1589 39.8623
129.174 1617 40.2119
129.291 1573 39.6611
129.408 1591 39.8873
129.524 1549 39.3573
129.641 1388 37.2559
129.758 1386 37.229
129.875 1276 35.7211
129.992 1305 36.1248
130.108 1277 35.7351
130.225 1398 37.3898
130.342 1484 38.5227
130.459 1559 39.4842
130.576 1678 40.9634
130.693 1792 42.332
130.81 1680 40.9878
130.928 1701 41.2432
131.045 1691 41.1218
131.162 1766 42.0238
131.279 1758 41.9285
131.396 1794 42.3556
131.513 1713 41.3884
131.631 1659 40.7308
131.748 1669 40.8534
131.865 1656 40.694
131.983 1440 37.9473
132.1 1496 38.6782
132.217 1478 38.4448
132.335 1553 39.4081
132.452 1623 40.2865
132.57 1673 40.9023
132.687 1673 40.9023
132.804 1713 41.3884
132.922 1656 40.694
133.039 1647 40.5832
133.157 1463 38.2492
133.274 1474 38.3927
133.392 1334 36.524
133.509 1339 36.5923
133.627 1325 36.4005
133.744 1361 36.8917
133.862 1467 38.3014
133.979 1614 40.1746
134.097 1605 40.0625
134.214 1670 40.8656
134.332 1708 41.328
134.449 1705 41.2916
134.567 1801 42.4382
134.684 1733 41.6293
134.802 1811 42.5558
134.919 1788 42.2847
135.037 1717 41.4367
135.154 1702 41.2553
135.272 1766 42.0238
135.389 1721 41.4849
135.507 1619 40.2368
135.624 1518 38.9615
135.742 1495 38.6652
135.859 1562 39.5221
135.977 1620 40.2492
136.094 1744 41.7612
136.211 1615 40.1871
136.329 1646 40.5709
136.446 1622 40.2741
136.564 1613 40.1622
136.681 1554 39.4208
136.798 1498 38.704
136.915 1425 37.7492
137.033 1326 36.4143
137.15 1349 36.7287
137.267 1332 36.4966
137.384 1439 37.9342
137.502 1480 38.4708
137.619 1535 39.1791
137.736 1652 40.6448
137.853 1567 39.5854
137.97 1683 41.0244
138.087 1658 40.7185
138.204 1732 41.6173
138.321 1680 40.9878
138.438 1719 41.4608
138.555 1746 41.7852
138.672 1715 41.4126
138.788 1767 42.0357
138.905 1700 41.2311
139.022 1628 40.3485
139.139 1686 41.0609
139.255 1484 38.5227
139.372 1515 38.923
139.488 1602 40.025
139.605 1649 40.6079
139.721 1688 41.0853
139.838 1666 40.8167
139.954 1659 40.7308
140.071 1618 40.2244
140.187 1681 41
140.303 1485 38.5357
140.419 1454 38.1314
140.535 1398 37.3898
140.652 1380 37.1484
140.768 0 1
140.884 0 1
141 0 1
141.115 0 1
141.231 0 1
141.347 0 1
141.463 0 1
141.578 0 1
141.694 0 1
144.104 0 1
144.219 0 1
144.335 0 1
144.45 0 1
144.566 0 1
144.682 0 1
144.798 0 1
144.914 0 1
145.03 0 1
145.146 1179 34.3366
145.262 1272 35.6651
145.378 1200 34.641
145.494 1188 34.4674
145.61 1144 33.8231
145.726 1074 32.7719
145.842 1111 33.3317
145.959 978 31.273
146.075 1058 32.5269
146.192 1066 32.6497
146.308 1106 33.2566
146.425 1254 35.4119
146.541 1234 35.1283
146.658 1315 36.2629
146.774 1319 36.318
146.891 1274 35.6931
147.008 1343 36.647
147.125 1367 36.973
147.241 1302 36.0832
147.358 1310 36.1939
147.475 1399 37.4032
147.592 1394 37.3363
147.709 1362 36.9053
147.826 1427 37.7757
147.943 1275 35.7071
148.06 1221 34.9428
148.177 1135 33.6898
148.294 1222 34.9571
148.411 1303 36.0971
148.528 1395 37.3497
148.645 1301 36.0694
148.762 1367 36.973
148.88 1288 35.8887
148.997 1276 35.7211
149.114 1335 36.5377
149.231 1286 35.8608
149.349 1215 34.8569
149.466 1235 35.1426
149.583 1194 34.5543
149.701 1099 33.1512
149.818 1055 32.4808
149.935 1142 33.7935
150.053 1192 34.5254
150.17 1255 35.426
150.287 1206 34.7275
150.405 1277 35.7351
150.522 1270 35.6371
150.64 1381 37.1618
150.757 1325 36.4005
150.875 1379 37.1349
150.992 1430 37.8153
151.11 1353 36.7831
151.227 1395 37.3497
151.344 1415 37.6165
151.462 1274 35.6931
151.579 1341 36.6197
151.697 1273 35.6791
151.814 1251 35.3695
151.932 1196 34.5832
152.049 1221 34.9428
152.167 1269 35.623
152.284 1380 37.1484
152.402 1479 38.4578
152.519 1347 36.7015
152.636 1394 37.3363
152.754 1366 36.9594
152.871 1332 36.4966
152.989 1272 35.6651
153.106 1244 35.2704
153.223 1241 35.2278
153.341 1226 35.0143
153.458 1155 33.9853
153.575 1173 34.2491
153.693 1313 36.2353
153.81 1348 36.7151
153.927 1379 37.1349
154.044 1430 37.8153
154.162 1480 38.4708
154.279 1396 37.3631
154.396 1406 37.4967
154.513 1488 38.5746
154.63 1484 38.5227
154.747 1494 38.6523
154.864 1483 38.5097
154.981 1485 38.5357
155.098 1427 37.7757
155.215 1461 38.223
155.332 1397 37.3765
155.449 1305 36.1248
155.566 1362 36.9053
155.683 1449 38.0657
155.8 1518 38.9615
155.917 1533 39.1535
156.033 1474 38.3927
156.15 0 1
156.267 0 1
156.383 0 1
156.5 0 1
156.617 0 1
156.733 0 1
156.85 0 1
156.966 0 1
157.082 0 1
157.199 0 1
157.315 0 1
157.431 0 1
157.547 0 1
157.664 0 1
157.78 0 1
157.896 0 1
158.012 0 1
158.128 0 1
158.244 0 1
158.359 0 1
158.475 0 1
158.591 0 1
158.706 0 1
