
6.15755 0 1
6.2731 0 1
6.3887 0 1
6.50437 0 1
6.62009 0 1
6.73587 0 1
6.8517 0 1
6.96759 0 1
7.08353 0 1
7.19952 0 1
7.31557 0 1
7.43166 0 1
7.54781 0 1
7.664 0 1
7.78024 0 1
7.89653 0 1
8.01286 0 1
8.12924 0 1
8.24567 0 1
8.36213 0 1
8.47864 0 1
8.59519 0 1
8.71178 0 1
8.82841 0 1
8.94508 0 1
9.06179 0 1
9.17853 0 1
9.29531 0 1
9.41212 0 1
9.52897 0 1
9.64584 0 1
9.76276 0 1
9.8797 0 1
9.99667 0 1
10.1137 0 1
10.2307 0 1
10.3478 0 1
10.4648 0 1
10.5819 0 1
10.6991 0 1
10.8162 0 1
10.9334 0 1
11.0506 0 1
11.1678 0 1
11.285 0 1
11.4023 0 1
11.5196 0 1
11.6369 0 1
11.7542 0 1
11.8715 0 1
11.9888 0 1
12.1062 0 1
12.2235 0 1
12.3409 0 1
12.4582 0 1
12.5756 0 1
12.693 0 1
12.8104 0 1
12.9278 0 1
13.0452 0 1
13.1626 0 1
13.28 0 1
13.3974 0 1
13.5149 0 1
13.6323 0 1
13.7497 0 1
13.8671 0 1
13.9845 0 1
14.1019 0 1
14.2193 0 1
14.3367 0 1
14.4541 0 1
14.5714 0 1
14.6888 0 1
14.8062 0 1
14.9235 0 1
15.0408 0 0
15.1581 0 0
15.2755 0 0
15.3927 0 0
15.51 0 0
15.6273 0 0
15.7445 0 0
15.8617 0 0
15.9789 0 0
16.0961 0 0
16.2132 0 0
16.3304 0 0
16.4475 0 0
16.5646 0 0
16.6816 0 0
16.7986 0 0
16.9156 0 0
17.0326 0 0
17.1496 0 0
17.2665 0 0
17.3833 0 0
17.5002 0 0
17.617 0 0
17.7338 0 0
17.8505 0 0
17.9672 0 0
18.0839 0 0
18.2005 0 0
18.3171 0 0
18.4337 0 0
18.5502 0 0
18.6666 0 0
18.7831 0 0
18.8994 0 0
19.0158 0 0
19.1321 0 0
19.2483 0 0
19.3645 0 0
19.4806 0 0
19.5967 0 0
19.7128 0 0
19.8288 0 0
19.9447 0 0
20.0606 0 1
20.1764 0 1
20.2922 0 1
20.4079 0 1
20.5236 0 1
20.6392 0 1
20.7548 0 1
20.8702 0 1
23.3078 0 1
23.4233 0 1
23.539 0 1
23.6547 0 1
23.7704 0 1
23.8862 0 1
24.0021 0 1
24.118 0 1
24.234 0 1
24.35 0 1
24.4661 12643 112.441
24.5822 12606 112.276
24.6984 12666 112.543
24.8146 12286 110.842
24.9309 12321 111
25.0472 11897 109.073
25.1636 12320 110.995
25.28 12333 111.054
25.3965 12260 110.725
25.513 12640 112.428
25.6296 12986 113.956
25.7462 13172 114.769
25.8628 13202 114.9
25.9795 13283 115.252
26.0962 13457 116.004
26.213 13222 114.987
26.3298 13128 114.577
26.4466 12629 112.379
26.5635 12394 111.328
26.6804 12181 110.368
26.7973 12348 111.122
26.9143 12841 113.318
27.0313 13068 114.315
27.1483 13218 114.97
27.2653 13486 116.129
27.3824 13542 116.37
27.4996 13575 116.512
27.6167 13617 116.692
27.7339 13278 115.23
27.8511 12784 113.066
27.9683 12798 113.128
28.0855 12438 111.526
28.2028 12339 111.081
28.3201 11728 108.296
28.4374 11790 108.582
28.5547 11484 107.163
28.6721 11261 106.118
28.7894 11216 105.906
28.9068 11398 106.761
29.0242 11385 106.701
29.1416 11474 107.117
29.259 11705 108.19
29.3764 11764 108.462
29.4939 11848 108.849
29.6113 12147 110.213
29.7288 12032 109.69
29.8463 11694 108.139
29.9638 11589 107.652
30.0812 11251 106.071
30.1987 11380 106.677
30.3162 11455 107.028
30.4337 11843 108.826
30.5512 12076 109.891
30.6687 12434 111.508
30.7862 12675 112.583
30.9037 12756 112.942
31.0212 12775 113.027
31.1387 12966 113.868
31.2562 12881 113.494
31.3737 12779 113.044
31.4912 12314 110.968
31.6087 12424 111.463
31.7262 11858 108.894
31.8436 11747 108.384
31.9611 11529 107.373
32.0785 11184 105.754
32.1959 11123 105.466
32.3134 10964 104.709
32.4308 10956 104.671
32.5482 11294 106.273
32.6655 11417 106.85
32.7829 11464 107.07
32.9002 11453 107.019
33.0176 11597 107.689
33.1349 11622 107.805
33.2522 11555 107.494
33.3694 11776 108.517
33.4867 11380 106.677
33.6039 11335 106.466
33.7211 11199 105.825
33.8383 11208 105.868
33.9554 11086 105.29
34.0725 11583 107.624
34.1896 11772 108.499
34.3067 12280 110.815
34.4237 12534 111.955
34.5407 12607 112.281
34.6577 12952 113.807
34.7746 12821 113.23
34.8915 12664 112.534
35.0084 12630 112.383
35.1252 12583 112.174
35.242 12344 111.104
35.3587 12134 110.154
35.4755 12093 109.968
35.5921 11659 107.977
35.7088 11358 106.574
35.8254 10954 104.661
35.9419 10913 104.465
36.0584 10805 103.947
36.1749 10805 103.947
36.2913 10710 103.489
36.4077 10708 103.479
36.524 11275 106.184
36.6403 11160 105.641
36.7565 11312 106.358
36.8727 11370 106.63
36.9889 11235 105.995
37.1049 11378 106.668
37.221 0 1
37.3369 0 1
37.4529 0 1
37.5687 0 1
37.6845 0 1
37.8003 0 1
37.916 0 1
38.0316 0 1
38.1472 0 1
40.5851 0 1
40.7008 0 1
40.8164 0 1
40.9322 0 1
41.048 0 1
41.1639 0 1
41.2798 0 1
41.3958 0 1
41.5118 0 1
41.6279 0 1
41.744 9217 96.0052
41.8602 9480 97.3653
41.9765 9660 98.2853
42.0928 9851 99.2522
42.2091 10000 100
42.3255 9739 98.6864
42.4419 9511 97.5244
42.5584 9621 98.0867
42.675 9494 97.4372
42.7915 9464 97.2831
42.9081 10140 100.698
43.0248 10662 103.257
43.1415 10671 103.301
43.2582 10727 103.571
43.375 10991 104.838
43.4918 11093 105.323
43.6087 11112 105.413
43.7256 10909 104.446
43.8425 10835 104.091
43.9595 10546 102.694
44.0765 10501 102.474
44.1935 10283 101.405
44.3106 10169 100.841
44.4277 9687 98.4226
44.5448 9163 95.7236
44.6619 8714 93.3488
44.7791 8551 92.4716
44.8963 8491 92.1466
45.0136 8423 91.7769
45.1308 8366 91.4658
45.2481 8535 92.3851
45.3654 8616 92.8224
45.4827 8742 93.4987
45.6001 8536 92.3905
45.7174 8725 93.4077
45.8348 8563 92.5365
45.9522 8442 91.8804
46.0697 8262 90.8955
46.1871 8033 89.627
46.3046 8127 90.1499
46.422 8467 92.0163
46.5395 8796 93.787
46.657 9029 95.0211
46.7745 8929 94.4934
46.892 9242 96.1353
47.0096 9234 96.0937
47.1271 9287 96.3691
47.2446 9097 95.3782
47.3622 8976 94.7418
47.4797 8831 93.9734
47.5973 8712 93.3381
47.7149 8546 92.4446
47.8324 8238 90.7634
47.95 8048 89.7106
48.0675 7406 86.0581
48.1851 7181 84.7408
48.3027 6850 82.7647
48.4202 7003 83.6839
48.5378 6784 82.365
48.6554 7028 83.8332
48.7729 7157 84.5991
48.8904 7192 84.8057
49.008 7426 86.1742
49.1255 7405 86.0523
49.243 7575 87.0345
49.3605 7344 85.6971
49.478 7147 84.5399
49.5955 7252 85.1587
49.713 7324 85.5804
49.8304 7328 85.6037
49.9479 7734 87.9432
50.0653 8311 91.1647
50.1827 8592 92.693
50.3001 9092 95.352
50.4175 9402 96.9639
50.5348 9631 98.1377
50.6521 10224 101.114
50.7694 10238 101.183
50.8867 10397 101.966
51.004 10490 102.421
51.1212 10784 103.846
51.2384 10797 103.909
51.3556 10692 103.402
51.4727 10278 101.38
51.5899 10141 100.703
51.707 9463 97.278
51.824 9154 95.6765
51.9411 9317 96.5246
52.0581 9403 96.9691
52.175 9705 98.514
52.2919 9799 98.9899
52.4088 9723 98.6053
52.5257 9926 99.6293
52.6425 9951 99.7547
52.7593 10254 101.262
52.876 10515 102.543
52.9927 10475 102.347
53.1094 10328 101.627
53.226 10192 100.955
53.3426 10305 101.514
53.4591 10540 102.665
53.5756 11236 106
53.692 12058 109.809
53.8084 12295 110.883
53.9248 12789 113.088
54.0411 13271 115.2
54.1573 13494 116.164
54.2735 0 1
54.3896 0 1
54.5057 0 1
54.6217 0 1
54.7377 0 1
54.8537 0 1
54.9695 0 1
55.0853 0 1
55.2011 0 1
55.3168 0 1
55.4324 0 1
57.824 0 1
57.9396 0 1
58.0553 0 1
58.1711 0 1
58.2869 0 1
58.4028 0 1
58.5187 0 1
58.6347 0 1
58.7508 0 1
58.8669 0 1
58.983 14649 121.033
59.0992 15257 123.519
59.2155 15629 125.016
59.3318 16186 127.224
59.4482 16510 128.491
59.5646 16619 128.915
59.681 16399 128.059
59.7975 16037 126.637
59.9141 15514 124.555
60.0306 15072 122.768
60.1473 14319 119.662
60.2639 13443 115.944
60.3807 12507 111.835
60.4974 12129 110.132
60.6142 11927 109.211
60.731 11789 108.577
60.8479 11813 108.688
60.9648 12143 110.195
61.0818 12370 111.221
61.1987 12735 112.849
61.3158 12721 112.787
61.4328 12593 112.219
61.5499 12519 111.888
61.667 12007 109.576
61.7841 11715 108.236
61.9013 12005 109.567
62.0185 12182 110.372
62.1357 12604 112.268
62.253 13518 116.267
62.3702 13867 117.758
62.4875 14411 120.046
62.6049 14937 122.217
62.7222 15405 124.117
62.8396 15467 124.366
62.9569 15627 125.008
63.0743 15629 125.016
63.1918 15441 124.262
63.3092 15136 123.028
63.4267 14543 120.594
63.5441 13851 117.69
63.6616 13136 114.612
63.7791 12414 111.418
63.8966 11503 107.252
64.0142 11053 105.133
64.1317 11016 104.957
64.2492 10857 104.197
64.3668 10734 103.605
64.4843 11213 105.891
64.6019 11478 107.135
64.7195 11585 107.634
64.837 11822 108.729
64.9546 11629 107.838
65.0722 11615 107.773
65.1898 11406 106.799
65.3074 11287 106.24
65.4249 11119 105.447
65.5425 10921 104.504
65.6601 11354 106.555
65.7777 12438 111.526
65.8952 12917 113.653
66.0128 13360 115.585
66.1304 13802 117.482
66.2479 14568 120.698
66.3655 14796 121.639
66.483 15201 123.292
66.6005 15403 124.109
66.718 15068 122.752
66.8355 14925 122.168
66.953 14766 121.515
67.0705 14391 119.962
67.1879 13456 116
67.3054 12572 112.125
67.4228 11749 108.393
67.5402 10786 103.856
67.6576 10342 101.696
67.7749 10285 101.415
67.8923 10604 102.976
68.0096 10461 102.279
68.1269 10954 104.661
68.2442 11326 106.424
68.3614 11714 108.231
68.4787 12065 109.841
68.5958 12244 110.653
68.713 12140 110.182
68.8302 11532 107.387
68.9473 11346 106.518
69.0643 11115 105.428
69.1814 11159 105.636
69.2984 11664 108
69.4154 12635 112.406
69.5323 13177 114.791
69.6492 14345 119.771
69.7661 14979 122.389
69.8829 15474 124.395
69.9997 15927 126.202
70.1165 16243 127.448
70.2332 16228 127.389
70.3499 16354 127.883
70.4665 15893 126.067
70.5831 15737 125.447
70.6996 15188 123.24
70.8161 14341 119.754
70.9326 13307 115.356
71.049 12536 111.964
71.1653 11487 107.177
71.2817 11027 105.01
71.3979 10908 104.441
71.5141 10605 102.981
71.6303 10563 102.776
71.7464 10431 102.132
71.8624 0 1
71.9784 0 1
72.0944 0 1
72.2102 0 1
72.3261 0 1
72.4418 0 1
72.5575 0 1
72.6732 0 1
75.1054 0 1
75.2209 0 1
75.3365 0 1
75.4521 0 1
75.5678 0 1
75.6835 0 1
75.7993 0 1
75.9151 0 1
76.031 0 1
76.147 13934 118.042
76.263 14059 118.571
76.3791 13514 116.25
76.4952 12451 111.584
76.6113 11807 108.66
76.7276 11747 108.384
76.8438 11434 106.93
76.9601 11854 108.876
77.0765 12409 111.396
77.1929 12843 113.327
77.3093 13298 115.317
77.4258 13603 116.632
77.5423 13724 117.149
77.6589 13449 115.97
77.7755 13319 115.408
77.8921 12697 112.681
78.0088 12141 110.186
78.1256 11913 109.147
78.2423 12118 110.082
78.3591 12407 111.387
78.4759 13367 115.616
78.5928 14444 120.183
78.7097 15469 124.374
78.8266 16599 128.837
78.9436 15938 126.246
79.0606 16903 130.012
79.1776 16828 129.723
79.2946 16603 128.853
79.4117 16808 129.646
79.5288 16667 129.101
79.6459 16123 126.976
79.7631 15219 123.365
79.8802 14553 120.636
79.9974 13566 116.473
80.1147 12541 111.987
80.2319 11561 107.522
80.3491 10904 104.422
80.4664 10821 104.024
80.5837 11013 104.943
80.701 11371 106.635
80.8183 11498 107.229
80.9357 12162 110.281
81.053 12225 110.567
81.1704 12499 111.799
81.2877 12467 111.656
81.4051 12265 110.747
81.5225 11885 109.018
81.6399 11202 105.84
81.7573 10903 104.417
81.8747 10773 103.793
81.9922 10838 104.106
82.1096 11844 108.83
82.227 12978 113.921
82.3444 13486 116.129
82.4619 14532 120.549
82.5793 14464 120.266
82.6967 15516 124.563
82.8142 15126 122.988
82.9316 15358 123.927
83.049 15142 123.053
83.1664 14639 120.992
83.2838 14177 119.067
83.4012 13559 116.443
83.5186 12493 111.772
83.636 11901 109.092
83.7534 10867 104.245
83.8708 10190 100.946
83.9881 9687 98.4226
84.1055 9648 98.2242
84.2228 9830 99.1464
84.3401 10314 101.558
84.4575 10853 104.178
84.5747 11572 107.573
84.692 12088 109.945
84.8093 11898 109.078
84.9265 11700 108.167
85.0437 11284 106.226
85.1609 10960 104.69
85.2781 10502 102.479
85.3952 10293 101.454
85.5123 10437 102.162
85.6294 10992 104.843
85.7465 11934 109.243
85.8636 13056 114.263
85.9806 13973 118.207
86.0976 14990 122.434
86.2145 15475 124.399
86.3315 15426 124.201
86.4484 16201 127.283
86.5652 16040 126.649
86.682 16262 127.523
86.7988 15847 125.885
86.9156 15354 123.911
87.0323 14346 119.775
87.149 13825 117.58
87.2657 12938 113.745
87.3823 12179 110.359
87.4988 11107 105.39
87.6154 11044 105.09
87.7318 11258 106.104
87.8483 11636 107.87
87.9647 12464 111.642
88.081 13036 114.175
88.1973 13663 116.889
88.3136 13944 118.085
88.4298 13693 117.017
88.546 13193 114.861
88.6621 12435 111.512
88.7781 11652 107.944
88.8942 0 1
89.0101 0 1
89.126 0 1
89.2419 0 1
89.3577 0 1
89.4734 0 1
89.5891 0 1
89.7047 0 1
89.8203 0 1
89.9358 0 1
92.3269 0 1
92.4424 0 1
92.558 0 1
92.6736 0 1
92.7893 0 1
92.905 0 1
93.0208 0 1
93.1366 0 1
93.2525 0 1
93.3685 0 1
93.4845 0 1
93.6005 15777 125.607
93.7167 16767 129.487
93.8328 17395 131.89
93.949 17707 133.068
94.0653 17957 134.004
94.1816 17936 133.925
94.2979 17793 133.39
94.4143 17957 134.004
94.5307 18263 135.141
94.6472 19248 138.737
94.7637 20626 143.618
94.8803 23265 152.529
94.9969 25128 158.518
95.1135 27220 164.985
95.2302 28790 169.676
95.3469 30384 174.31
95.4637 31305 176.932
95.5805 32933 181.475
95.6973 34004 184.402
95.8142 34784 186.505
95.9311 35263 187.784
96.048 35202 187.622
96.1649 34899 186.813
96.2819 33985 184.35
96.3989 32711 180.862
96.516 31593 177.744
96.633 29751 172.485
96.7501 28912 170.035
96.8673 29178 170.816
96.9844 30796 175.488
97.1016 33259 182.371
97.2188 35318 187.931
97.336 38021 194.99
97.4532 38445 196.074
97.5704 38809 197
97.6877 38018 194.982
97.805 36887 192.06
97.9223 34477 185.68
98.0396 32258 179.605
98.1569 30882 175.733
98.2743 29905 172.931
98.3916 31049 176.207
98.509 33067 181.843
98.6264 35955 189.618
98.7438 37905 194.692
98.8612 39303 198.25
98.9786 41303 203.231
99.096 41425 203.531
99.2134 42432 205.99
99.3308 42315 205.706
99.4482 42356 205.806
99.5656 41972 204.871
99.6831 41119 202.778
99.8005 39763 199.407
99.9179 38795 196.964
100.035 37182 192.826
100.153 34774 186.478
100.27 32006 178.902
100.388 31131 176.44
100.505 32186 179.405
100.622 33937 184.22
100.74 36205 190.276
100.857 37890 194.654
100.975 39046 197.601
101.092 38793 196.959
101.209 38574 196.403
101.327 37433 193.476
101.444 35411 188.178
101.561 33050 181.797
101.679 30943 175.906
101.796 29835 172.728
101.913 29552 171.907
102.03 30682 175.163
102.148 33703 183.584
102.265 37735 194.255
102.382 35755 189.09
102.499 38348 195.826
102.616 38825 197.041
102.733 39171 197.917
102.851 38709 196.746
102.968 38530 196.291
103.085 37698 194.16
103.202 35861 189.37
103.319 34784 186.505
103.436 32251 179.586
103.552 30553 174.794
103.669 27744 166.565
103.786 25237 158.862
103.903 23380 152.905
104.02 22926 151.413
104.137 23535 153.411
104.253 24832 157.582
104.37 23768 154.169
104.487 24412 156.243
104.603 23514 153.343
104.72 22733 150.775
104.836 21203 145.612
104.953 19387 139.237
105.069 17818 133.484
105.186 16785 129.557
105.302 16079 126.803
105.418 16456 128.281
105.535 17193 131.122
105.651 18367 135.525
105.767 19555 139.839
105.883 20044 141.577
105.999 20466 143.059
106.115 0 1
106.231 0 1
106.347 0 1
106.463 0 1
106.579 0 1
106.694 0 1
106.81 0 1
106.926 0 1
107.041 0 1
107.157 0 1
109.576 0 1
109.692 0 1
109.807 0 1
109.923 0 1
110.039 0 1
110.155 0 1
110.27 0 1
110.386 0 1
110.502 0 1
110.618 14010 118.364
110.735 15748 125.491
110.851 16795 129.596
110.967 17530 132.401
111.083 18226 135.004
111.199 18349 135.458
111.316 18521 136.092
111.432 18543 136.173
111.549 18233 135.03
111.665 17841 133.57
111.782 17112 130.813
111.898 16360 127.906
112.015 15727 125.407
112.132 14529 120.536
112.248 13593 116.589
112.365 12991 113.978
112.482 12747 112.903
112.599 12650 112.472
112.716 13006 114.044
112.832 13475 116.082
112.949 13523 116.288
113.066 13897 117.886
113.183 13557 116.435
113.3 13170 114.761
113.417 12912 113.631
113.534 12613 112.308
113.652 12261 110.729
113.769 12443 111.548
113.886 12250 110.68
114.003 12874 113.464
114.12 13809 117.512
114.238 15019 122.552
114.355 16054 126.704
114.472 16927 130.104
114.589 17175 131.053
114.707 17474 132.189
114.824 17609 132.699
114.942 17942 133.948
115.059 17865 133.66
115.176 17765 133.285
115.294 17523 132.374
115.411 16887 129.95
115.529 16478 128.367
115.646 15646 125.084
115.764 14705 121.264
115.881 13739 117.213
115.999 13422 115.853
116.116 13194 114.865
116.234 13649 116.829
116.351 13975 118.216
116.469 14214 119.222
116.586 14296 119.566
116.704 14365 119.854
116.821 14052 118.541
116.939 14096 118.727
117.056 13753 117.273
117.174 13342 115.508
117.291 13318 115.404
117.409 13455 115.996
117.526 13431 115.892
117.644 14531 120.545
117.761 15934 126.23
117.879 16875 129.904
117.996 17426 132.008
118.114 18143 134.696
118.231 18902 137.485
118.349 19126 138.297
118.466 18977 137.757
118.584 18927 137.575
118.701 19214 138.615
118.819 18923 137.561
118.936 18188 134.863
119.053 17816 133.477
119.171 17169 131.031
119.288 16112 126.933
119.405 15478 124.411
119.523 14535 120.561
119.64 14229 119.285
119.757 14234 119.306
119.875 14118 118.819
119.992 14277 119.486
120.109 14515 120.478
120.226 14816 121.721
120.343 14625 120.934
120.46 14414 120.058
120.578 14326 119.691
120.695 13940 118.068
120.812 13657 116.863
120.929 13812 117.524
121.046 13770 117.346
121.163 13988 118.271
121.279 14437 120.154
121.396 15396 124.081
121.513 16425 128.16
121.63 17356 131.742
121.747 18065 134.406
121.863 18624 136.47
121.98 18940 137.623
122.097 18725 136.839
122.213 18997 137.83
122.33 19117 138.264
122.446 18860 137.332
122.563 18304 135.292
122.679 17835 133.548
122.795 17695 133.023
122.912 17205 131.168
123.028 16331 127.793
123.144 15520 124.579
123.26 14639 120.992
123.377 0 1
123.493 0 1
123.609 0 1
123.725 0 1
123.84 0 1
123.956 0 1
124.072 0 1
124.188 0 1
124.303 0 1
124.419 0 1
126.852 0 1
126.968 0 1
127.083 0 1
127.199 0 1
127.315 0 1
127.431 0 1
127.547 0 1
127.663 0 1
127.779 0 1
127.895 0 1
128.011 0 1
128.127 0 1
128.243 0 1
128.359 18048 134.343
128.476 16705 129.248
128.592 16264 127.53
128.708 16383 127.996
128.825 16401 128.066
128.941 16790 129.576
129.058 16406 128.086
129.174 16629 128.953
129.291 16234 127.413
129.408 16149 127.079
129.524 16061 126.732
129.641 15722 125.387
129.758 15559 124.736
129.875 15426 124.201
129.992 15332 123.822
130.108 15376 124
130.225 15576 124.804
130.342 16916 130.062
130.459 17321 131.609
130.576 18468 135.897
130.693 18573 136.283
130.81 18909 137.51
130.928 19133 138.322
131.045 19187 138.517
131.162 19034 137.964
131.279 19046 138.007
131.396 19193 138.539
131.513 18675 136.657
131.631 18554 136.213
131.748 17697 133.03
131.865 17217 131.214
131.983 16243 127.448
132.1 15697 125.288
132.217 15491 124.463
132.335 15678 125.212
132.452 15717 125.367
132.57 16049 126.685
132.687 15618 124.972
132.804 16400 128.062
132.922 15774 125.595
133.039 15486 124.443
133.157 15572 124.788
133.274 15240 123.45
133.392 15352 123.903
133.509 14951 122.274
133.627 15088 122.833
133.744 15524 124.595
133.862 16143 127.055
133.979 16834 129.746
134.097 17864 133.656
134.214 18346 135.447
134.332 18313 135.326
134.449 18321 135.355
134.567 18801 137.117
134.684 19026 137.935
134.802 19100 138.203
134.919 19314 138.975
135.037 18997 137.83
135.154 18778 137.033
135.272 18080 134.462
135.389 17747 133.218
135.507 17403 131.92
135.624 16550 128.647
135.742 15836 125.841
135.859 16006 126.515
135.977 16284 127.609
136.094 16672 129.12
136.211 16586 128.787
136.329 16475 128.355
136.446 16264 127.53
136.564 16401 128.066
136.681 16126 126.988
136.798 15715 125.359
136.915 15677 125.208
137.033 15803 125.71
137.15 15615 124.96
137.267 15696 125.284
137.384 15909 126.131
137.502 16483 128.386
137.619 17118 130.836
137.736 17894 133.768
137.853 18095 134.518
137.97 18396 135.632
138.087 19043 137.996
138.204 19047 138.011
138.321 19135 138.329
138.438 19481 139.574
138.555 19303 138.935
138.672 19437 139.417
138.788 19320 138.996
138.905 19025 137.931
139.022 18552 136.206
139.139 17888 133.746
139.255 17333 131.655
139.372 16743 129.395
139.488 16608 128.872
139.605 16685 129.17
139.721 16796 129.599
139.838 17037 130.526
139.954 17114 130.82
140.071 16465 128.316
140.187 16684 129.167
140.303 16311 127.715
140.419 15946 126.277
140.535 15547 124.688
140.652 15155 123.106
140.768 0 1
140.884 0 1
141 0 1
141.115 0 1
141.231 0 1
141.347 0 1
141.463 0 1
141.578 0 1
141.694 0 1
144.104 0 1
144.219 0 1
144.335 0 1
144.45 0 1
144.566 0 1
144.682 0 1
144.798 0 1
144.914 0 1
145.03 0 1
145.146 15832 125.825
145.262 15912 126.143
145.378 15772 125.587
145.494 15677 125.208
145.61 15199 123.284
145.726 15622 124.988
145.842 15371 123.98
145.959 15309 123.73
146.075 15581 124.824
146.192 16221 127.362
146.308 16607 128.868
146.425 16964 130.246
146.541 17391 131.875
146.658 17496 132.272
146.774 17959 134.011
146.891 17989 134.123
147.008 18153 134.733
147.125 18281 135.207
147.241 18596 136.367
147.358 18233 135.03
147.475 18038 134.306
147.592 17486 132.235
147.709 17212 131.195
147.826 16622 128.926
147.943 15989 126.448
148.06 15546 124.684
148.177 15718 125.371
148.294 16114 126.941
148.411 16493 128.425
148.528 16599 128.837
148.645 16176 127.185
148.762 15927 126.202
148.88 16060 126.728
148.997 15387 124.044
149.114 16420 128.141
149.231 15517 124.567
149.349 15340 123.855
149.466 15119 122.959
149.583 15014 122.532
149.701 15263 123.544
149.818 16046 126.673
149.935 16504 128.468
150.053 16990 130.346
150.17 17222 131.233
150.287 17346 131.704
150.405 17896 133.776
150.522 18495 135.996
150.64 18347 135.451
150.757 18646 136.55
150.875 18566 136.257
150.992 18638 136.521
151.11 18462 135.875
151.227 18355 135.481
151.344 17952 133.985
151.462 17241 131.305
151.579 17125 130.863
151.697 17003 130.396
151.814 17053 130.587
151.932 17506 132.31
152.049 17722 133.124
152.167 18041 134.317
152.284 17926 133.888
152.402 17743 133.203
152.519 17350 131.719
152.636 17354 131.735
152.754 17134 130.897
152.871 17109 130.801
152.989 16671 129.116
153.106 16529 128.565
153.223 16543 128.62
153.341 16883 129.935
153.458 17676 132.951
153.575 17871 133.682
153.693 18187 134.859
153.81 19024 137.928
153.927 19135 138.329
154.044 19670 140.25
154.162 20280 142.408
154.279 20397 142.818
154.396 20685 143.823
154.513 20950 144.741
154.63 20511 143.217
154.747 20411 142.867
154.864 19809 140.744
154.981 19461 139.503
155.098 19228 138.665
155.215 18444 135.809
155.332 18398 135.639
155.449 18323 135.362
155.566 18774 137.018
155.683 18893 137.452
155.8 18747 136.92
155.917 18697 136.737
156.033 18388 135.602
156.15 0 1
156.267 0 1
156.383 0 1
156.5 0 1
156.617 0 1
156.733 0 1
156.85 0 1
156.966 0 1
157.082 0 1
157.199 0 1
157.315 0 1
157.431 0 1
157.547 0 1
157.664 0 1
157.78 0 1
157.896 0 1
158.012 0 1
158.128 0 1
158.244 0 1
158.359 0 1
158.475 0 1
158.591 0 1
158.706 0 1
