
6.15755 0 1
6.2731 0 1
6.3887 0 1
6.50437 0 1
6.62009 0 1
6.73587 0 1
6.8517 0 1
6.96759 0 1
7.08353 0 1
7.19952 0 1
7.31557 0 1
7.43166 0 1
7.54781 0 1
7.664 0 1
7.78024 0 1
7.89653 0 1
8.01286 0 1
8.12924 0 1
8.24567 0 1
8.36213 0 1
8.47864 0 1
8.59519 0 1
8.71178 0 1
8.82841 0 1
8.94508 0 1
9.06179 0 1
9.17853 0 1
9.29531 0 1
9.41212 0 1
9.52897 0 1
9.64584 0 1
9.76276 0 1
9.8797 0 1
9.99667 0 1
10.1137 0 1
10.2307 0 1
10.3478 0 1
10.4648 0 1
10.5819 0 1
10.6991 0 1
10.8162 0 1
10.9334 0 1
11.0506 0 1
11.1678 0 1
11.285 0 1
11.4023 0 1
11.5196 0 1
11.6369 0 1
11.7542 0 1
11.8715 0 1
11.9888 0 1
12.1062 0 1
12.2235 0 1
12.3409 0 1
12.4582 0 1
12.5756 0 1
12.693 0 1
12.8104 0 1
12.9278 0 1
13.0452 0 1
13.1626 0 1
13.28 0 1
13.3974 0 1
13.5149 0 1
13.6323 0 1
13.7497 0 1
13.8671 0 1
13.9845 0 1
14.1019 0 1
14.2193 0 1
14.3367 0 1
14.4541 0 1
14.5714 0 1
14.6888 0 1
14.8062 0 1
14.9235 0 1
15.0408 0 0
15.1581 0 0
15.2755 0 0
15.3927 0 0
15.51 0 0
15.6273 0 0
15.7445 0 0
15.8617 0 0
15.9789 0 0
16.0961 0 0
16.2132 0 0
16.3304 0 0
16.4475 0 0
16.5646 0 0
16.6816 0 0
16.7986 0 0
16.9156 0 0
17.0326 0 0
17.1496 0 0
17.2665 0 0
17.3833 0 0
17.5002 0 0
17.617 0 0
17.7338 0 0
17.8505 0 0
17.9672 0 0
18.0839 0 0
18.2005 0 0
18.3171 0 0
18.4337 0 0
18.5502 0 0
18.6666 0 0
18.7831 0 0
18.8994 0 0
19.0158 0 0
19.1321 0 0
19.2483 0 0
19.3645 0 0
19.4806 0 0
19.5967 0 0
19.7128 0 0
19.8288 0 0
19.9447 0 0
20.0606 0 1
20.1764 0 1
20.2922 0 1
20.4079 0 1
20.5236 0 1
20.6392 0 1
20.7548 0 1
20.8702 0 1
23.3078 0 1
23.4233 0 1
23.539 0 1
23.6547 0 1
23.7704 0 1
23.8862 0 1
24.0021 0 1
24.118 0 1
24.234 0 1
24.35 0 1
24.4661 5356 73.1847
24.5822 6078 77.9615
24.6984 6706 81.8902
24.8146 7704 87.7724
24.9309 8639 92.9462
25.0472 9710 98.5393
25.1636 10328 101.627
25.28 11336 106.471
25.3965 12063 109.832
25.513 12937 113.741
25.6296 13188 114.839
25.7462 13704 117.064
25.8628 13750 117.26
25.9795 13575 116.512
26.0962 13692 117.013
26.213 13152 114.682
26.3298 12593 112.219
26.4466 12042 109.736
26.5635 11643 107.903
26.6804 11372 106.64
26.7973 11396 106.752
26.9143 11705 108.19
27.0313 11459 107.047
27.1483 11783 108.55
27.2653 11823 108.734
27.3824 12065 109.841
27.4996 12151 110.232
27.6167 11712 108.222
27.7339 11492 107.201
27.8511 11077 105.247
27.9683 10746 103.663
28.0855 10595 102.932
28.2028 10370 101.833
28.3201 10392 101.941
28.4374 10703 103.455
28.5547 11172 105.698
28.6721 11643 107.903
28.7894 12007 109.576
28.9068 12328 111.032
29.0242 12134 110.154
29.1416 12190 110.408
29.259 11953 109.33
29.3764 12108 110.036
29.4939 12015 109.613
29.6113 12066 109.845
29.7288 11899 109.083
29.8463 11502 107.247
29.9638 11166 105.669
30.0812 10927 104.532
30.1987 10736 103.615
30.3162 11034 105.043
30.4337 11098 105.347
30.5512 11103 105.371
30.6687 11460 107.051
30.7862 11614 107.768
30.9037 11600 107.703
31.0212 11700 108.167
31.1387 11774 108.508
31.2562 11149 105.589
31.3737 10908 104.441
31.4912 10636 103.131
31.6087 10278 101.38
31.7262 10213 101.059
31.8436 10262 101.302
31.9611 10466 102.303
32.0785 11071 105.219
32.1959 11483 107.159
32.3134 11593 107.671
32.4308 11750 108.397
32.5482 11522 107.341
32.6655 11770 108.49
32.7829 11751 108.402
32.9002 11612 107.759
33.0176 11941 109.275
33.1349 11912 109.142
33.2522 11592 107.666
33.3694 11464 107.07
33.4867 11176 105.717
33.6039 10855 104.187
33.7211 10488 102.411
33.8383 10440 102.176
33.9554 10616 103.034
34.0725 10773 103.793
34.1896 10895 104.379
34.3067 10872 104.269
34.4237 11176 105.717
34.5407 11488 107.182
34.6577 11470 107.098
34.7746 11362 106.593
34.8915 11081 105.266
35.0084 10683 103.359
35.1252 10318 101.578
35.242 10148 100.737
35.3587 9921 99.6042
35.4755 9972 99.8599
35.5921 10065 100.324
35.7088 10722 103.547
35.8254 10962 104.7
35.9419 11567 107.55
36.0584 11774 108.508
36.1749 11606 107.731
36.2913 11423 106.878
36.4077 11113 105.418
36.524 10935 104.571
36.6403 10401 101.985
36.7565 9990 99.95
36.8727 9439 97.1545
36.9889 8763 93.6109
37.1049 7966 89.2525
37.221 0 1
37.3369 0 1
37.4529 0 1
37.5687 0 1
37.6845 0 1
37.8003 0 1
37.916 0 1
38.0316 0 1
38.1472 0 1
40.5851 0 1
40.7008 0 1
40.8164 0 1
40.9322 0 1
41.048 0 1
41.1639 0 1
41.2798 0 1
41.3958 0 1
41.5118 0 1
41.6279 0 1
41.744 6349 79.6806
41.8602 7211 84.9176
41.9765 7775 88.176
42.0928 8286 91.0275
42.2091 8437 91.8531
42.3255 8508 92.2388
42.4419 8326 91.2469
42.5584 8301 91.1098
42.675 8445 91.8967
42.7915 8754 93.5628
42.9081 9163 95.7236
43.0248 9315 96.5142
43.1415 9560 97.7753
43.2582 9645 98.209
43.375 9972 99.8599
43.4918 10106 100.529
43.6087 10027 100.135
43.7256 9831 99.1514
43.8425 9687 98.4226
43.9595 9651 98.2395
44.0765 9704 98.5089
44.1935 9461 97.2677
44.3106 9372 96.8091
44.4277 9532 97.632
44.5448 9928 99.6393
44.6619 10406 102.01
44.7791 11023 104.99
44.8963 11065 105.19
45.0136 11413 106.832
45.1308 11401 106.775
45.2481 11384 106.696
45.3654 11301 106.306
45.4827 11408 106.808
45.6001 11483 107.159
45.7174 10919 104.494
45.8348 10654 103.218
45.9522 10270 101.341
46.0697 9654 98.2548
46.1871 9477 97.3499
46.3046 9527 97.6064
46.422 9793 98.9596
46.5395 9801 99
46.657 10484 102.391
46.7745 10794 103.894
46.892 11168 105.679
47.0096 11206 105.858
47.1271 11482 107.154
47.2446 11539 107.42
47.3622 11554 107.49
47.4797 11429 106.907
47.5973 11313 106.363
47.7149 11303 106.316
47.8324 10927 104.532
47.95 10769 103.774
48.0675 11247 106.052
48.1851 11730 108.305
48.3027 12425 111.467
48.4202 12774 113.022
48.5378 12792 113.102
48.6554 13069 114.32
48.7729 13063 114.293
48.8904 13039 114.188
49.008 13168 114.752
49.1255 12861 113.406
49.243 12131 110.141
49.3605 11708 108.204
49.478 11208 105.868
49.5955 10667 103.281
49.713 10193 100.96
49.8304 10346 101.715
49.9479 10731 103.591
50.0653 11094 105.328
50.1827 11876 108.977
50.3001 12058 109.809
50.4175 12576 112.143
50.5348 12713 112.752
50.6521 13168 114.752
50.7694 13454 115.991
50.8867 13143 114.643
51.004 13597 116.606
51.1212 13444 115.948
51.2384 13414 115.819
51.3556 13019 114.101
51.4727 12563 112.085
51.5899 13225 115
51.707 13717 117.12
51.824 14434 120.142
51.9411 14953 122.282
52.0581 15155 123.106
52.175 15476 124.403
52.2919 15242 123.458
52.4088 15246 123.475
52.5257 15664 125.156
52.6425 15848 125.889
52.7593 15527 124.607
52.876 15040 122.638
52.9927 14336 119.733
53.1094 13843 117.656
53.226 12812 113.19
53.3426 12554 112.045
53.4591 12164 110.291
53.5756 12410 111.4
53.692 12445 111.557
53.8084 12237 110.621
53.9248 11824 108.738
54.0411 11549 107.466
54.1573 10893 104.37
54.2735 0 1
54.3896 0 1
54.5057 0 1
54.6217 0 1
54.7377 0 1
54.8537 0 1
54.9695 0 1
55.0853 0 1
55.2011 0 1
55.3168 0 1
55.4324 0 1
57.824 0 1
57.9396 0 1
58.0553 0 1
58.1711 0 1
58.2869 0 1
58.4028 0 1
58.5187 0 1
58.6347 0 1
58.7508 0 1
58.8669 0 1
58.983 14373 119.887
59.0992 16748 129.414
59.2155 18788 137.069
59.3318 20999 144.91
59.4482 22516 150.053
59.5646 24280 155.82
59.681 25525 159.765
59.7975 25867 160.832
59.9141 26033 161.347
60.0306 25982 161.189
60.1473 25676 160.237
60.2639 25598 159.994
60.3807 26021 161.31
60.4974 26869 163.918
60.6142 28251 168.08
60.731 29248 171.02
60.8479 29295 171.158
60.9648 29099 170.584
61.0818 29652 172.198
61.1987 29163 170.772
61.3158 29314 171.213
61.4328 28681 169.355
61.5499 27537 165.943
61.667 26305 162.188
61.7841 25086 158.386
61.9013 23809 154.302
62.0185 23435 153.085
62.1357 24156 155.422
62.253 25199 158.742
62.3702 26758 163.579
62.4875 28020 167.392
62.6049 28949 170.144
62.7222 29941 173.035
62.8396 30890 175.756
62.9569 32185 179.402
63.0743 32542 180.394
63.1918 32379 179.942
63.3092 32168 179.354
63.4267 31792 178.303
63.5441 31045 176.196
63.6616 29336 171.278
63.7791 28824 169.776
63.8966 29194 170.863
64.0142 30124 173.563
64.1317 31781 178.272
64.2492 32510 180.305
64.3668 32896 181.373
64.4843 32911 181.414
64.6019 32777 181.044
64.7195 32702 180.837
64.837 32818 181.157
64.9546 32335 179.819
65.0722 31530 177.567
65.1898 30091 173.468
65.3074 27699 166.43
65.4249 26450 162.635
65.5425 25269 158.962
65.6601 25202 158.751
65.7777 26531 162.883
65.8952 27815 166.778
66.0128 29464 171.651
66.1304 30772 175.419
66.2479 31510 177.511
66.3655 32986 181.62
66.483 34259 185.092
66.6005 34646 186.134
66.718 34971 187.005
66.8355 34504 185.753
66.953 34036 184.488
67.0705 33636 183.401
67.1879 32495 180.264
67.3054 30784 175.454
67.4228 29831 172.717
67.5402 29824 172.696
67.6576 30675 175.143
67.7749 31577 177.699
67.8923 33288 182.45
68.0096 33826 183.918
68.1269 33717 183.622
68.2442 33900 184.12
68.3614 33670 183.494
68.4787 33760 183.739
68.5958 33286 182.445
68.713 32762 181.003
68.8302 30819 175.553
68.9473 28494 168.802
69.0643 26499 162.785
69.1814 25035 158.225
69.2984 25117 158.483
69.4154 26385 162.435
69.5323 28290 168.196
69.6492 29545 171.887
69.7661 31297 176.91
69.8829 32062 179.059
69.9997 32332 179.811
70.1165 32322 179.783
70.2332 31615 177.806
70.3499 30458 174.522
70.4665 28928 170.082
70.5831 27463 165.72
70.6996 25829 160.714
70.8161 23920 154.661
70.9326 21290 145.911
71.049 18742 136.901
71.1653 16601 128.845
71.2817 15997 126.479
71.3979 15393 124.069
71.5141 15051 122.683
71.6303 14585 120.768
71.7464 12739 112.867
71.8624 0 1
71.9784 0 1
72.0944 0 1
72.2102 0 1
72.3261 0 1
72.4418 0 1
72.5575 0 1
72.6732 0 1
75.1054 0 1
75.2209 0 1
75.3365 0 1
75.4521 0 1
75.5678 0 1
75.6835 0 1
75.7993 0 1
75.9151 0 1
76.031 0 1
76.147 23000 151.658
76.263 24538 156.646
76.3791 24577 156.771
76.4952 24694 157.143
76.6113 24717 157.216
76.7276 25490 159.656
76.8438 27204 164.936
76.9601 28715 169.455
77.0765 29125 170.66
77.1929 29631 172.137
77.3093 29713 172.375
77.4258 29644 172.174
77.5423 29629 172.131
77.6589 29201 170.883
77.7755 27807 166.754
77.8921 25389 159.339
78.0088 23479 153.229
78.1256 21736 147.431
78.2423 20096 141.76
78.3591 20506 143.199
78.4759 21898 147.98
78.5928 23856 154.454
78.7097 25861 160.814
78.8266 27577 166.063
78.9436 28061 167.514
79.0606 29474 171.68
79.1776 30392 174.333
79.2946 30654 175.083
79.4117 31068 176.261
79.5288 31038 176.176
79.6459 31024 176.136
79.7631 30175 173.71
79.8802 28913 170.038
79.9974 27557 166.003
80.1147 25884 160.885
80.2319 25580 159.937
80.3491 26192 161.839
80.4664 27261 165.109
80.5837 28612 169.151
80.701 29721 172.398
80.8183 30218 173.833
80.9357 30362 174.247
81.053 30558 174.808
81.1704 30366 174.258
81.2877 30507 174.663
81.4051 29845 172.757
81.5225 28727 169.49
81.6399 26021 161.31
81.7573 23060 151.855
81.8747 21698 147.302
81.9922 20605 143.544
82.1096 21548 146.792
82.227 23750 154.11
82.3444 25491 159.659
82.4619 28116 167.678
82.5793 29225 170.953
82.6967 30700 175.214
82.8142 31552 177.629
82.9316 32226 179.516
83.049 32197 179.435
83.1664 32054 179.036
83.2838 31547 177.615
83.4012 31086 176.312
83.5186 30350 174.213
83.636 28938 170.112
83.7534 27727 166.514
83.8708 26529 162.877
83.9881 26243 161.997
84.1055 26644 163.23
84.2228 28752 169.564
84.3401 29611 172.078
84.4575 30670 175.129
84.5747 31617 177.812
84.692 31173 176.559
84.8093 31031 176.156
84.9265 30747 175.348
85.0437 30266 173.971
85.1609 27817 166.784
85.2781 25086 158.386
85.3952 22905 151.344
85.5123 20800 144.222
85.6294 20884 144.513
85.7465 22866 151.215
85.8636 25256 158.921
85.9806 27296 165.215
86.0976 28858 169.876
86.2145 30494 174.625
86.3315 31117 176.4
86.4484 32641 180.668
86.5652 32631 180.641
86.682 32801 181.11
86.7988 32797 181.099
86.9156 32442 180.117
87.0323 31720 178.101
87.149 30820 175.556
87.2657 28998 170.288
87.3823 26586 163.052
87.4988 24184 155.512
87.6154 23315 152.693
87.7318 23299 152.64
87.8483 23627 153.711
87.9647 24018 154.977
88.081 24262 155.763
88.1973 23614 153.668
88.3136 22639 150.463
88.4298 21636 147.092
88.546 20243 142.278
88.6621 18048 134.343
88.7781 14733 121.38
88.8942 0 1
89.0101 0 1
89.126 0 1
89.2419 0 1
89.3577 0 1
89.4734 0 1
89.5891 0 1
89.7047 0 1
89.8203 0 1
89.9358 0 1
92.3269 0 1
92.4424 0 1
92.558 0 1
92.6736 0 1
92.7893 0 1
92.905 0 1
93.0208 0 1
93.1366 0 1
93.2525 0 1
93.3685 0 1
93.4845 0 1
93.6005 26369 162.385
93.7167 27009 164.344
93.8328 28336 168.333
93.949 29126 170.663
94.0653 29925 172.988
94.1816 30110 173.522
94.2979 29858 172.795
94.4143 28299 168.223
94.5307 25502 159.693
94.6472 23223 152.391
94.7637 21370 146.185
94.8803 21990 148.29
94.9969 24412 156.243
95.1135 26732 163.499
95.2302 28988 170.259
95.3469 31198 176.63
95.4637 32474 180.205
95.5805 33280 182.428
95.6973 34150 184.797
95.8142 33742 183.69
95.9311 33456 182.91
96.048 32968 181.571
96.1649 32974 181.587
96.2819 32362 179.894
96.3989 31895 178.592
96.516 30627 175.006
96.633 29018 170.347
96.7501 27561 166.015
96.8673 27483 165.78
96.9844 28124 167.702
97.1016 29005 170.309
97.2188 30619 174.983
97.336 32041 179
97.4532 32561 180.447
97.5704 33043 181.777
97.6877 32738 180.936
97.805 33325 182.551
97.9223 32272 179.644
98.0396 30000 173.205
98.1569 26480 162.727
98.2743 23246 152.466
98.3916 21179 145.53
98.509 21184 145.547
98.6264 23426 153.056
98.7438 26833 163.808
98.8612 29974 173.13
98.9786 32254 179.594
99.096 33669 183.491
99.2134 34879 186.759
99.3308 35454 188.292
99.4482 35937 189.571
99.5656 35750 189.077
99.6831 35946 189.594
99.8005 35389 188.12
99.9179 34092 184.64
100.035 33688 183.543
100.153 32388 179.967
100.27 30490 174.614
100.388 29222 170.944
100.505 29392 171.441
100.622 30723 175.28
100.74 32436 180.1
100.857 33376 182.691
100.975 33974 184.32
101.092 34767 186.459
101.209 35155 187.497
101.327 34663 186.18
101.444 34816 186.59
101.561 33354 182.631
101.679 30573 174.851
101.796 26817 163.759
101.913 23988 154.881
102.03 22382 149.606
102.148 23921 154.664
102.265 26822 163.774
102.382 31716 178.09
102.499 33592 183.281
102.616 35701 188.947
102.733 36414 190.825
102.851 37443 193.502
102.968 37419 193.44
103.085 37798 194.417
103.202 37423 193.45
103.319 37073 192.544
103.436 36070 189.921
103.552 35339 187.987
103.669 33297 182.475
103.786 31311 176.949
103.903 29947 173.052
104.02 30392 174.333
104.137 31828 178.404
104.253 33153 182.08
104.37 34766 186.456
104.487 35968 189.652
104.603 36035 189.829
104.72 36265 190.434
104.836 34839 186.652
104.953 32403 180.008
105.069 29533 171.852
105.186 26100 161.555
105.302 22817 151.053
105.418 19963 141.29
105.535 18528 136.118
105.651 18706 136.77
105.767 20116 141.831
105.883 21402 146.294
105.999 21701 147.313
106.115 0 1
106.231 0 1
106.347 0 1
106.463 0 1
106.579 0 1
106.694 0 1
106.81 0 1
106.926 0 1
107.041 0 1
107.157 0 1
109.576 0 1
109.692 0 1
109.807 0 1
109.923 0 1
110.039 0 1
110.155 0 1
110.27 0 1
110.386 0 1
110.502 0 1
110.618 10803 103.937
110.735 13513 116.245
110.851 18298 135.27
110.967 22386 149.62
111.083 25814 160.667
111.199 28539 168.935
111.316 30230 173.868
111.432 31247 176.768
111.549 31885 178.564
111.665 32576 180.488
111.782 32349 179.858
111.898 31906 178.623
112.015 31385 177.158
112.132 30415 174.399
112.248 29143 170.713
112.365 27389 165.496
112.482 26009 161.273
112.599 26488 162.751
112.716 26754 163.567
112.832 28196 167.917
112.949 29453 171.619
113.066 30006 173.222
113.183 30226 173.856
113.3 30483 174.594
113.417 30673 175.137
113.534 30234 173.879
113.652 30017 173.254
113.769 28351 168.378
113.886 25686 160.269
114.003 21981 148.26
114.12 19212 138.607
114.238 18309 135.311
114.355 21277 145.866
114.472 25970 161.152
114.589 27131 164.715
114.707 29881 172.861
114.824 30708 175.237
114.942 31491 177.457
115.059 31724 178.112
115.176 31632 177.854
115.294 31341 177.034
115.411 30863 175.679
115.529 30347 174.204
115.646 29112 170.622
115.764 28132 167.726
115.881 26597 163.086
115.999 25215 158.792
116.116 24854 157.652
116.234 25309 159.088
116.351 26250 162.019
116.469 27237 165.036
116.586 28063 167.52
116.704 28961 170.179
116.821 29019 170.35
116.939 28622 169.18
117.056 28429 168.609
117.174 28371 168.437
117.291 28081 167.574
117.409 26195 161.849
117.526 22995 151.641
117.644 19947 141.234
117.761 17856 133.626
117.879 18784 137.055
117.996 21992 148.297
118.114 25383 159.32
118.231 27369 165.436
118.349 28455 168.686
118.466 28870 169.912
118.584 29064 170.482
118.701 29128 170.669
118.819 28955 170.162
118.936 28831 169.797
119.053 28467 168.722
119.171 28003 167.341
119.288 26540 162.911
119.405 25545 159.828
119.523 24414 156.25
119.64 23277 152.568
119.757 23321 152.712
119.875 23796 154.26
119.992 24806 157.499
120.109 25543 159.822
120.226 26037 161.36
120.343 26885 163.966
120.46 26535 162.896
120.578 27010 164.347
120.695 26679 163.337
120.812 26645 163.233
120.929 26671 163.313
121.046 25532 159.787
121.163 22959 151.522
121.279 19714 140.407
121.396 17523 132.374
121.513 16947 130.181
121.63 18397 135.636
121.747 20927 144.662
121.863 21899 147.983
121.98 22927 151.417
122.097 22955 151.509
122.213 22540 150.133
122.33 22288 149.292
122.446 21904 148
122.563 21183 145.544
122.679 20447 142.993
122.795 19207 138.589
122.912 17601 132.669
123.028 16181 127.205
123.144 14478 120.325
123.26 13168 114.752
123.377 0 1
123.493 0 1
123.609 0 1
123.725 0 1
123.84 0 1
123.956 0 1
124.072 0 1
124.188 0 1
124.303 0 1
124.419 0 1
126.852 0 1
126.968 0 1
127.083 0 1
127.199 0 1
127.315 0 1
127.431 0 1
127.547 0 1
127.663 0 1
127.779 0 1
127.895 0 1
128.011 0 1
128.127 0 1
128.243 0 1
128.359 27501 165.834
128.476 27976 167.26
128.592 27825 166.808
128.708 27147 164.763
128.825 27031 164.411
128.941 27253 165.085
129.058 27966 167.23
129.174 28322 168.291
129.291 29406 171.482
129.408 30029 173.289
129.524 30414 174.396
129.641 30273 173.991
129.758 30654 175.083
129.875 30340 174.184
129.992 30174 173.707
130.108 29637 172.154
130.225 26889 163.979
130.342 23901 154.599
130.459 21007 144.938
130.576 19493 139.617
130.693 21668 147.201
130.81 25224 158.821
130.928 27435 165.635
131.045 28718 169.464
131.162 29582 171.994
131.279 30371 174.273
131.396 30533 174.737
131.513 30652 175.077
131.631 30401 174.359
131.748 29970 173.118
131.865 29656 172.209
131.983 29277 171.105
132.1 27981 167.275
132.217 27187 164.885
132.335 26797 163.698
132.452 27329 165.315
132.57 28083 167.58
132.687 28950 170.147
132.804 29171 170.795
132.922 29947 173.052
133.039 30024 173.274
133.157 30502 174.648
133.274 30594 174.911
133.392 30661 175.103
133.509 30466 174.545
133.627 30507 174.663
133.744 28719 169.467
133.862 25669 160.215
133.979 22761 150.867
134.097 20812 144.264
134.214 21521 146.7
134.332 24378 156.135
134.449 26910 164.043
134.567 28122 167.696
134.684 29010 170.323
134.802 29581 171.991
134.919 29950 173.061
135.037 30236 173.885
135.154 29506 171.773
135.272 29895 172.902
135.389 29545 171.887
135.507 28716 169.458
135.624 28253 168.086
135.742 27636 166.241
135.859 27358 165.403
135.977 27490 165.801
136.094 28002 167.338
136.211 28717 169.461
136.329 29244 171.009
136.446 30209 173.807
136.564 30047 173.341
136.681 29889 172.884
136.798 30476 174.574
136.915 30483 174.594
137.033 30634 175.026
137.15 30464 174.539
137.267 29960 173.09
137.384 27889 167
137.502 24790 157.448
137.619 22013 148.368
137.736 20301 142.482
137.853 20414 142.878
137.97 23020 151.723
138.087 26682 163.346
138.204 27506 165.849
138.321 28258 168.101
138.438 28799 169.703
138.555 29763 172.52
138.672 29598 172.041
138.788 29467 171.66
138.905 27873 166.952
139.022 26404 162.493
139.139 24599 156.841
139.255 23349 152.804
139.372 22710 150.698
139.488 21372 146.192
139.605 20694 143.854
139.721 20380 142.759
139.838 20349 142.65
139.954 20269 142.369
140.071 20139 141.912
140.187 18854 137.31
140.303 17919 133.862
140.419 17519 132.359
140.535 16736 129.368
140.652 16025 126.59
140.768 0 1
140.884 0 1
141 0 1
141.115 0 1
141.231 0 1
141.347 0 1
141.463 0 1
141.578 0 1
141.694 0 1
144.104 0 1
144.219 0 1
144.335 0 1
144.45 0 1
144.566 0 1
144.682 0 1
144.798 0 1
144.914 0 1
145.03 0 1
145.146 21287 145.901
145.262 22254 149.178
145.378 22504 150.013
145.494 23096 151.974
145.61 23132 152.092
145.726 23167 152.207
145.842 23249 152.476
145.959 23473 153.209
146.075 22724 150.745
146.192 21750 147.479
146.308 19437 139.417
146.425 17837 133.555
146.541 16295 127.652
146.658 16154 127.098
146.774 17808 133.447
146.891 19343 139.079
147.008 20572 143.429
147.125 20868 144.458
147.241 21585 146.918
147.358 22079 148.59
147.475 22196 148.983
147.592 22039 148.455
147.709 21911 148.024
147.826 21412 146.328
147.943 21111 145.296
148.06 20949 144.738
148.177 20713 143.92
148.294 20695 143.858
148.411 20879 144.496
148.528 21335 146.065
148.645 21495 146.612
148.762 21964 148.203
148.88 22353 149.509
148.997 23014 151.704
149.114 21998 148.317
149.231 22548 150.16
149.349 22558 150.193
149.466 22599 150.33
149.583 22514 150.047
149.701 22231 149.101
149.818 21620 147.037
149.935 20252 142.31
150.053 18108 134.566
150.17 16695 129.209
150.287 16147 127.071
150.405 16992 130.353
150.522 18500 136.015
150.64 19575 139.911
150.757 20278 142.401
150.875 20829 144.323
150.992 21643 147.116
151.11 21194 145.582
151.227 21491 146.598
151.344 21325 146.031
151.462 20670 143.771
151.579 20680 143.805
151.697 20612 143.569
151.814 20047 141.587
151.932 20130 141.88
152.049 20252 142.31
152.167 20589 143.489
152.284 20673 143.781
152.402 21056 145.107
152.519 21397 146.277
152.636 21325 146.031
152.754 21140 145.396
152.871 20934 144.686
152.989 20971 144.814
153.106 21031 145.021
153.223 21201 145.606
153.341 20832 144.333
153.458 19556 139.843
153.575 17827 133.518
153.693 16269 127.55
153.81 15428 124.21
153.927 16082 126.815
154.044 16909 130.035
154.162 17798 133.409
154.279 18936 137.608
154.396 19467 139.524
154.513 20006 141.443
154.63 20136 141.901
154.747 20092 141.746
154.864 20038 141.556
154.981 19484 139.585
155.098 19233 138.683
155.215 19288 138.881
155.332 18694 136.726
155.449 18548 136.191
155.566 18535 136.143
155.683 18634 136.506
155.8 18899 137.474
155.917 19080 138.13
156.033 18809 137.146
156.15 0 1
156.267 0 1
156.383 0 1
156.5 0 1
156.617 0 1
156.733 0 1
156.85 0 1
156.966 0 1
157.082 0 1
157.199 0 1
157.315 0 1
157.431 0 1
157.547 0 1
157.664 0 1
157.78 0 1
157.896 0 1
158.012 0 1
158.128 0 1
158.244 0 1
158.359 0 1
158.475 0 1
158.591 0 1
158.706 0 1
