
6.15755 0 1
6.2731 0 1
6.3887 0 1
6.50437 0 1
6.62009 0 1
6.73587 0 1
6.8517 0 1
6.96759 0 1
7.08353 0 1
7.19952 0 1
7.31557 0 1
7.43166 0 1
7.54781 0 1
7.664 0 1
7.78024 0 1
7.89653 0 1
8.01286 0 1
8.12924 0 1
8.24567 0 1
8.36213 0 1
8.47864 0 1
8.59519 0 1
8.71178 0 1
8.82841 0 1
8.94508 0 1
9.06179 0 1
9.17853 0 1
9.29531 0 1
9.41212 0 1
9.52897 0 1
9.64584 0 1
9.76276 0 1
9.8797 0 1
9.99667 0 1
10.1137 0 1
10.2307 0 1
10.3478 0 1
10.4648 0 1
10.5819 0 1
10.6991 0 1
10.8162 0 1
10.9334 0 1
11.0506 0 1
11.1678 0 1
11.285 0 1
11.4023 0 1
11.5196 0 1
11.6369 0 1
11.7542 0 1
11.8715 0 1
11.9888 0 1
12.1062 0 1
12.2235 0 1
12.3409 0 1
12.4582 0 1
12.5756 0 1
12.693 0 1
12.8104 0 1
12.9278 0 1
13.0452 0 1
13.1626 0 1
13.28 0 1
13.3974 0 1
13.5149 0 1
13.6323 0 1
13.7497 0 1
13.8671 0 1
13.9845 0 1
14.1019 0 1
14.2193 0 1
14.3367 0 1
14.4541 0 1
14.5714 0 1
14.6888 0 1
14.8062 0 1
14.9235 0 1
15.0408 0 0
15.1581 0 0
15.2755 0 0
15.3927 0 0
15.51 0 0
15.6273 0 0
15.7445 0 0
15.8617 0 0
15.9789 0 0
16.0961 0 0
16.2132 0 0
16.3304 0 0
16.4475 0 0
16.5646 0 0
16.6816 0 0
16.7986 0 0
16.9156 0 0
17.0326 0 0
17.1496 0 0
17.2665 0 0
17.3833 0 0
17.5002 0 0
17.617 0 0
17.7338 0 0
17.8505 0 0
17.9672 0 0
18.0839 0 0
18.2005 0 0
18.3171 0 0
18.4337 0 0
18.5502 0 0
18.6666 0 0
18.7831 0 0
18.8994 0 0
19.0158 0 0
19.1321 0 0
19.2483 0 0
19.3645 0 0
19.4806 0 0
19.5967 0 0
19.7128 0 0
19.8288 0 0
19.9447 0 0
20.0606 0 1
20.1764 0 1
20.2922 0 1
20.4079 0 1
20.5236 0 1
20.6392 0 1
20.7548 0 1
20.8702 0 1
23.3078 0 1
23.4233 0 1
23.539 0 1
23.6547 0 1
23.7704 0 1
23.8862 0 1
24.0021 0 1
24.118 0 1
24.234 0 1
24.35 0 1
24.4661 1347 36.7015
24.5822 1288 35.8887
24.6984 1313 36.2353
24.8146 1217 34.8855
24.9309 1217 34.8855
25.0472 1273 35.6791
25.1636 1243 35.2562
25.28 1253 35.3977
25.3965 1366 36.9594
25.513 1389 37.2693
25.6296 1469 38.3275
25.7462 1502 38.7556
25.8628 1516 38.9358
25.9795 1503 38.7685
26.0962 1481 38.4838
26.213 1402 37.4433
26.3298 1449 38.0657
26.4466 1401 37.4299
26.5635 1418 37.6563
26.6804 1446 38.0263
26.7973 1389 37.2693
26.9143 1369 37
27.0313 1399 37.4032
27.1483 1400 37.4166
27.2653 1492 38.6264
27.3824 1556 39.4462
27.4996 1498 38.704
27.6167 1421 37.6962
27.7339 1465 38.2753
27.8511 1378 37.1214
27.9683 1367 36.973
28.0855 1336 36.5513
28.2028 1292 35.9444
28.3201 1305 36.1248
28.4374 1167 34.1614
28.5547 1250 35.3553
28.6721 1209 34.7707
28.7894 1227 35.0286
28.9068 1245 35.2846
29.0242 1309 36.1801
29.1416 1405 37.4833
29.259 1444 38
29.3764 1390 37.2827
29.4939 1500 38.7298
29.6113 1355 36.8103
29.7288 1390 37.2827
29.8463 1467 38.3014
29.9638 1431 37.8286
30.0812 1345 36.6742
30.1987 1368 36.9865
30.3162 1366 36.9594
30.4337 1359 36.8646
30.5512 1339 36.5923
30.6687 1359 36.8646
30.7862 1493 38.6394
30.9037 1447 38.0395
31.0212 1445 38.0132
31.1387 1439 37.9342
31.2562 1469 38.3275
31.3737 1398 37.3898
31.4912 1423 37.7227
31.6087 1314 36.2491
31.7262 1324 36.3868
31.8436 1236 35.1568
31.9611 1274 35.6931
32.0785 1227 35.0286
32.1959 1255 35.426
32.3134 1240 35.2136
32.4308 1376 37.0945
32.5482 1322 36.3593
32.6655 1342 36.6333
32.7829 1380 37.1484
32.9002 1450 38.0789
33.0176 1502 38.7556
33.1349 1442 37.9737
33.2522 1439 37.9342
33.3694 1523 39.0256
33.4867 1442 37.9737
33.6039 1504 38.7814
33.7211 1467 38.3014
33.8383 1393 37.3229
33.9554 1409 37.5366
34.0725 1237 35.171
34.1896 1375 37.081
34.3067 1387 37.2424
34.4237 1490 38.6005
34.5407 1445 38.0132
34.6577 1511 38.8716
34.7746 1492 38.6264
34.8915 1539 39.2301
35.0084 1438 37.921
35.1252 1436 37.8946
35.242 1363 36.9188
35.3587 1351 36.756
35.4755 1367 36.973
35.5921 1317 36.2905
35.7088 1162 34.0881
35.8254 1191 34.5109
35.9419 1199 34.6266
36.0584 1241 35.2278
36.1749 1323 36.3731
36.2913 1393 37.3229
36.4077 1347 36.7015
36.524 1449 38.0657
36.6403 1388 37.2559
36.7565 1449 38.0657
36.8727 1471 38.3536
36.9889 1459 38.1969
37.1049 1423 37.7227
37.221 0 1
37.3369 0 1
37.4529 0 1
37.5687 0 1
37.6845 0 1
37.8003 0 1
37.916 0 1
38.0316 0 1
38.1472 0 1
40.5851 0 1
40.7008 0 1
40.8164 0 1
40.9322 0 1
41.048 0 1
41.1639 0 1
41.2798 0 1
41.3958 0 1
41.5118 0 1
41.6279 0 1
41.744 1186 34.4384
41.8602 1308 36.1663
41.9765 1381 37.1618
42.0928 1317 36.2905
42.2091 1345 36.6742
42.3255 1244 35.2704
42.4419 1279 35.7631
42.5584 1270 35.6371
42.675 1187 34.4529
42.7915 1187 34.4529
42.9081 1226 35.0143
43.0248 1288 35.8887
43.1415 1230 35.0714
43.2582 1322 36.3593
43.375 1272 35.6651
43.4918 1305 36.1248
43.6087 1293 35.9583
43.7256 1390 37.2827
43.8425 1241 35.2278
43.9595 1210 34.7851
44.0765 1278 35.7491
44.1935 1154 33.9706
44.3106 1121 33.4813
44.4277 1084 32.9242
44.5448 1026 32.0312
44.6619 890 29.8329
44.7791 978 31.273
44.8963 1050 32.4037
45.0136 1067 32.665
45.1308 1127 33.5708
45.2481 1149 33.8969
45.3654 1188 34.4674
45.4827 1160 34.0588
45.6001 1143 33.8083
45.7174 1189 34.4819
45.8348 1181 34.3657
45.9522 1112 33.3467
46.0697 1139 33.7491
46.1871 1038 32.218
46.3046 994 31.5278
46.422 954 30.8869
46.5395 1037 32.2025
46.657 1076 32.8024
46.7745 1085 32.9393
46.892 1124 33.5261
47.0096 1094 33.0757
47.1271 1048 32.3728
47.2446 1018 31.9061
47.3622 1008 31.749
47.4797 1029 32.078
47.5973 987 31.4166
47.7149 893 29.8831
47.8324 883 29.7153
47.95 830 28.8097
48.0675 816 28.5657
48.1851 739 27.1846
48.3027 749 27.3679
48.4202 740 27.2029
48.5378 776 27.8568
48.6554 856 29.2575
48.7729 886 29.7658
48.8904 957 30.9354
49.008 961 31
49.1255 967 31.0966
49.243 991 31.4802
49.3605 986 31.4006
49.478 929 30.4795
49.5955 901 30.0167
49.713 894 29.8998
49.8304 870 29.4958
49.9479 943 30.7083
50.0653 1002 31.6544
50.1827 1033 32.1403
50.3001 1071 32.7261
50.4175 1138 33.7343
50.5348 1082 32.8938
50.6521 1109 33.3017
50.7694 1192 34.5254
50.8867 1160 34.0588
51.004 1173 34.2491
51.1212 1187 34.4529
51.2384 1145 33.8378
51.3556 1159 34.0441
51.4727 1117 33.4215
51.5899 1016 31.8748
51.707 945 30.7409
51.824 988 31.4325
51.9411 1119 33.4515
52.0581 1144 33.8231
52.175 1195 34.5688
52.2919 1308 36.1663
52.4088 1382 37.1753
52.5257 1368 36.9865
52.6425 1413 37.5899
52.7593 1388 37.2559
52.876 1420 37.6829
52.9927 1451 38.092
53.1094 1397 37.3765
53.226 1416 37.6298
53.3426 1384 37.2022
53.4591 1362 36.9053
53.5756 1456 38.1576
53.692 1484 38.5227
53.8084 1513 38.8973
53.9248 1473 38.3797
54.0411 1567 39.5854
54.1573 1567 39.5854
54.2735 0 1
54.3896 0 1
54.5057 0 1
54.6217 0 1
54.7377 0 1
54.8537 0 1
54.9695 0 1
55.0853 0 1
55.2011 0 1
55.3168 0 1
55.4324 0 1
57.824 0 1
57.9396 0 1
58.0553 0 1
58.1711 0 1
58.2869 0 1
58.4028 0 1
58.5187 0 1
58.6347 0 1
58.7508 0 1
58.8669 0 1
58.983 1882 43.382
59.0992 1987 44.5758
59.2155 2019 44.9333
59.3318 1992 44.6318
59.4482 2118 46.0217
59.5646 2001 44.7325
59.681 2095 45.7712
59.7975 1984 44.5421
59.9141 1859 43.1161
60.0306 1761 41.9643
60.1473 1651 40.6325
60.2639 1502 38.7556
60.3807 1512 38.8844
60.4974 1453 38.1182
60.6142 1506 38.8072
60.731 1513 38.8973
60.8479 1735 41.6533
60.9648 1779 42.1782
61.0818 1862 43.1509
61.1987 1939 44.0341
61.3158 1989 44.5982
61.4328 1921 43.8292
61.5499 1934 43.9773
61.667 1961 44.2832
61.7841 1917 43.7836
61.9013 1833 42.8135
62.0185 1877 43.3244
62.1357 1866 43.1972
62.253 1877 43.3244
62.3702 1956 44.2267
62.4875 2022 44.9667
62.6049 2003 44.7549
62.7222 2015 44.8888
62.8396 2050 45.2769
62.9569 2113 45.9674
63.0743 2008 44.8107
63.1918 1968 44.3621
63.3092 1974 44.4297
63.4267 1894 43.5201
63.5441 1792 42.332
63.6616 1668 40.8412
63.7791 1501 38.7427
63.8966 1393 37.3229
64.0142 1441 37.9605
64.1317 1529 39.1024
64.2492 1590 39.8748
64.3668 1785 42.2493
64.4843 1964 44.317
64.6019 1937 44.0114
64.7195 2020 44.9444
64.837 2030 45.0555
64.9546 2059 45.3762
65.0722 2061 45.3982
65.1898 1933 43.9659
65.3074 1945 44.1022
65.4249 1806 42.4971
65.5425 1909 43.6921
65.6601 1846 42.9651
65.7777 1968 44.3621
65.8952 2137 46.2277
66.0128 2115 45.9891
66.1304 2060 45.3872
66.2479 2195 46.8508
66.3655 2047 45.2438
66.483 2085 45.6618
66.6005 2192 46.8188
66.718 2155 46.422
66.8355 2071 45.5082
66.953 2044 45.2106
67.0705 2035 45.111
67.1879 1875 43.3013
67.3054 1777 42.1545
67.4228 1641 40.5093
67.5402 1458 38.1838
67.6576 1397 37.3765
67.7749 1498 38.704
67.8923 1704 41.2795
68.0096 1853 43.0465
68.1269 1949 44.1475
68.2442 2098 45.8039
68.3614 2178 46.669
68.4787 2225 47.1699
68.5958 2235 47.2758
68.713 2262 47.5605
68.8302 2316 48.1248
68.9473 2264 47.5815
69.0643 2197 46.8722
69.1814 2113 45.9674
69.2984 2028 45.0333
69.4154 2181 46.7012
69.5323 2269 47.634
69.6492 2280 47.7493
69.7661 2443 49.4267
69.8829 2327 48.239
69.9997 2436 49.3559
70.1165 2472 49.7192
70.2332 2397 48.9592
70.3499 2397 48.9592
70.4665 2413 49.1223
70.5831 2322 48.1871
70.6996 2295 47.9062
70.8161 2169 46.5725
70.9326 2081 45.618
71.049 1762 41.9762
71.1653 1640 40.4969
71.2817 1432 37.8418
71.3979 1541 39.2556
71.5141 1709 41.3401
71.6303 1838 42.8719
71.7464 1812 42.5676
71.8624 0 1
71.9784 0 1
72.0944 0 1
72.2102 0 1
72.3261 0 1
72.4418 0 1
72.5575 0 1
72.6732 0 1
75.1054 0 1
75.2209 0 1
75.3365 0 1
75.4521 0 1
75.5678 0 1
75.6835 0 1
75.7993 0 1
75.9151 0 1
76.031 0 1
76.147 2101 45.8367
76.263 2231 47.2335
76.3791 2000 44.7214
76.4952 1784 42.2374
76.6113 1678 40.9634
76.7276 1757 41.9166
76.8438 1930 43.9318
76.9601 2156 46.4327
77.0765 2373 48.7134
77.1929 2583 50.8232
77.3093 2735 52.2972
77.4258 2700 51.9615
77.5423 2728 52.2303
77.6589 2661 51.5849
77.7755 2762 52.5547
77.8921 2628 51.264
78.0088 2662 51.5946
78.1256 2695 51.9134
78.2423 2649 51.4684
78.3591 2654 51.517
78.4759 2622 51.2055
78.5928 2639 51.3712
78.7097 2831 53.2071
78.8266 3024 54.9909
78.9436 2804 52.9528
79.0606 2911 53.9537
79.1776 3012 54.8817
79.2946 2821 53.1131
79.4117 2968 54.4794
79.5288 2837 53.2635
79.6459 2811 53.0189
79.7631 2721 52.1632
79.8802 2603 51.0196
79.9974 2369 48.6724
80.1147 2082 45.6289
80.2319 1836 42.8486
80.3491 1820 42.6615
80.4664 2019 44.9333
80.5837 2368 48.6621
80.701 2658 51.5558
80.8183 2861 53.4883
80.9357 2943 54.2494
81.053 3015 54.909
81.1704 2996 54.7357
81.2877 2885 53.7122
81.4051 2897 53.8238
81.5225 2981 54.5985
81.6399 2835 53.2447
81.7573 2819 53.0943
81.8747 2661 51.5849
81.9922 2787 52.792
82.1096 2872 53.591
82.227 2757 52.5071
82.3444 2994 54.7175
82.4619 2992 54.6992
82.5793 3012 54.8817
82.6967 3140 56.0357
82.8142 2966 54.461
82.9316 3188 56.4624
83.049 3023 54.9818
83.1664 3001 54.7814
83.2838 2868 53.5537
83.4012 2844 53.3292
83.5186 2648 51.4587
83.636 2434 49.3356
83.7534 2249 47.4236
83.8708 1890 43.4741
83.9881 1864 43.1741
84.1055 2051 45.288
84.2228 2190 46.7974
84.3401 2685 51.817
84.4575 2941 54.231
84.5747 3094 55.6237
84.692 3171 56.3116
84.8093 3157 56.1872
84.9265 3157 56.1872
85.0437 3195 56.5243
85.1609 3124 55.8928
85.2781 3078 55.4797
85.3952 3023 54.9818
85.5123 3052 55.2449
85.6294 3177 56.3649
85.7465 3229 56.8243
85.8636 3130 55.9464
85.9806 3365 58.0086
86.0976 3431 58.5747
86.2145 3484 59.0254
86.3315 3354 57.9137
86.4484 3631 60.2578
86.5652 3464 58.8558
86.682 3578 59.8164
86.7988 3551 59.5903
86.9156 3432 58.5833
87.0323 3278 57.2538
87.149 3085 55.5428
87.2657 2814 53.0471
87.3823 2459 49.5883
87.4988 2261 47.55
87.6154 2432 49.3153
87.7318 2737 52.3163
87.8483 3244 56.9561
87.9647 3681 60.6712
88.081 3830 61.887
88.1973 3760 61.3188
88.3136 3900 62.45
88.4298 3910 62.53
88.546 3915 62.57
88.6621 3797 61.6198
88.7781 3763 61.3433
88.8942 0 1
89.0101 0 1
89.126 0 1
89.2419 0 1
89.3577 0 1
89.4734 0 1
89.5891 0 1
89.7047 0 1
89.8203 0 1
89.9358 0 1
92.3269 0 1
92.4424 0 1
92.558 0 1
92.6736 0 1
92.7893 0 1
92.905 0 1
93.0208 0 1
93.1366 0 1
93.2525 0 1
93.3685 0 1
93.4845 0 1
93.6005 3987 63.1427
93.7167 4164 64.5291
93.8328 4188 64.7148
93.949 4130 64.2651
94.0653 4173 64.5988
94.1816 4180 64.6529
94.2979 4196 64.7765
94.4143 4039 63.5531
94.5307 3987 63.1427
94.6472 4021 63.4114
94.7637 3886 62.3378
94.8803 4056 63.6867
94.9969 4059 63.7103
95.1135 4093 63.9766
95.2302 4371 66.1135
95.3469 4414 66.4379
95.4637 4509 67.1491
95.5805 4302 65.5896
95.6973 4484 66.9627
95.8142 4467 66.8356
95.9311 4465 66.8207
96.048 4278 65.4064
96.1649 4048 63.6239
96.2819 3940 62.7694
96.3989 3594 59.95
96.516 3338 57.7754
96.633 2836 53.2541
96.7501 2737 52.3163
96.8673 2906 53.9073
96.9844 3464 58.8558
97.1016 3939 62.7615
97.2188 4337 65.8559
97.336 4556 67.4981
97.4532 4702 68.5711
97.5704 4660 68.2642
97.6877 4631 68.0515
97.805 4788 69.1954
97.9223 4541 67.3869
98.0396 4599 67.8159
98.1569 4519 67.2235
98.2743 4489 67
98.3916 4491 67.0149
98.509 4428 66.5432
98.6264 4439 66.6258
98.7438 4537 67.3573
98.8612 4587 67.7274
98.9786 4815 69.3902
99.096 4905 70.0357
99.2134 4849 69.6348
99.3308 4864 69.7424
99.4482 4970 70.4982
99.5656 4903 70.0214
99.6831 4827 69.4766
99.8005 4660 68.2642
99.9179 4320 65.7267
100.035 3963 62.9524
100.153 3456 58.7878
100.27 3248 56.9912
100.388 3210 56.6569
100.505 3639 60.3241
100.622 4254 65.2227
100.74 4672 68.352
100.857 4952 70.3704
100.975 5100 71.4143
101.092 5011 70.7884
101.209 4963 70.4486
101.327 5032 70.9366
101.444 5089 71.3372
101.561 4973 70.5195
101.679 4999 70.7036
101.796 4987 70.6187
101.913 4893 69.95
102.03 4764 69.0217
102.148 4880 69.857
102.265 5094 71.3723
102.382 4800 69.282
102.499 5060 71.1337
102.616 5261 72.5328
102.733 5376 73.3212
102.851 5390 73.4166
102.968 5256 72.4983
103.085 5288 72.7186
103.202 5309 72.8629
103.319 5097 71.3933
103.436 4812 69.3686
103.552 4394 66.2873
103.669 3771 61.4085
103.786 3393 58.2495
103.903 3438 58.6345
104.02 3920 62.6099
104.137 4544 67.4092
104.253 5302 72.8148
104.37 5377 73.328
104.487 5500 74.162
104.603 5520 74.2967
104.72 5584 74.7262
104.836 5566 74.6056
104.953 5570 74.6324
105.069 5367 73.2598
105.186 5363 73.2325
105.302 5402 73.4983
105.418 5194 72.0694
105.535 5167 71.8818
105.651 5248 72.4431
105.767 5183 71.9931
105.883 5512 74.2428
105.999 5688 75.4188
106.115 0 1
106.231 0 1
106.347 0 1
106.463 0 1
106.579 0 1
106.694 0 1
106.81 0 1
106.926 0 1
107.041 0 1
107.157 0 1
109.576 0 1
109.692 0 1
109.807 0 1
109.923 0 1
110.039 0 1
110.155 0 1
110.27 0 1
110.386 0 1
110.502 0 1
110.618 4850 69.6419
110.735 4996 70.6824
110.851 5080 71.2741
110.967 5236 72.3602
111.083 5255 72.4914
111.199 5313 72.8903
111.316 5423 73.641
111.432 5316 72.9109
111.549 5383 73.3689
111.665 5303 72.8217
111.782 5220 72.2496
111.898 4677 68.3886
112.015 4281 65.4294
112.132 3690 60.7454
112.248 3238 56.9034
112.365 3218 56.7274
112.482 3475 58.9491
112.599 4016 63.3719
112.716 4611 67.9043
112.832 4890 69.9285
112.949 4895 69.9643
113.066 4958 70.4131
113.183 4915 70.1071
113.3 4816 69.3974
113.417 4707 68.6076
113.534 4733 68.7968
113.652 4822 69.4406
113.769 4665 68.3008
113.886 4514 67.1863
114.003 4393 66.2797
114.12 4346 65.9242
114.238 4448 66.6933
114.355 4388 66.242
114.472 4444 66.6633
114.589 4705 68.593
114.707 4688 68.469
114.824 4601 67.8307
114.942 4773 69.0869
115.059 4615 67.9338
115.176 4587 67.7274
115.294 4582 67.6905
115.411 4353 65.9773
115.529 4052 63.6553
115.646 3777 61.4573
115.764 3146 56.0892
115.881 2916 54
115.999 3082 55.5158
116.116 3517 59.3043
116.234 3970 63.0079
116.351 4277 65.3988
116.469 4633 68.0661
116.586 4619 67.9632
116.704 4558 67.513
116.821 4597 67.8012
116.939 4607 67.8749
117.056 4575 67.6387
117.174 4557 67.5056
117.291 4575 67.6387
117.409 4541 67.3869
117.526 4399 66.325
117.644 4455 66.7458
117.761 4403 66.3551
117.879 4445 66.6708
117.996 4325 65.7647
118.114 4411 66.4154
118.231 4621 67.9779
118.349 4506 67.1267
118.466 4595 67.7864
118.584 4628 68.0294
118.701 4604 67.8528
118.819 4644 68.1469
118.936 4458 66.7683
119.053 4118 64.1716
119.171 3842 61.9839
119.288 3636 60.2993
119.405 3349 57.8705
119.523 2927 54.1018
119.64 3036 55.0999
119.757 3411 58.4038
119.875 3862 62.145
119.992 4045 63.6003
120.109 4411 66.4154
120.226 4433 66.5808
120.343 4395 66.2948
120.46 4380 66.1816
120.578 4469 66.8506
120.695 4399 66.325
120.812 4506 67.1267
120.929 4295 65.5362
121.046 4212 64.8999
121.163 4265 65.307
121.279 4215 64.923
121.396 4275 65.3835
121.513 4096 64
121.63 4149 64.4127
121.747 4123 64.2106
121.863 4180 64.6529
121.98 4277 65.3988
122.097 4431 66.5658
122.213 4371 66.1135
122.33 4310 65.6506
122.446 4257 65.2457
122.563 4312 65.6658
122.679 4175 64.6142
122.795 4113 64.1327
122.912 3894 62.4019
123.028 3395 58.2666
123.144 2990 54.6809
123.26 2731 52.259
123.377 0 1
123.493 0 1
123.609 0 1
123.725 0 1
123.84 0 1
123.956 0 1
124.072 0 1
124.188 0 1
124.303 0 1
124.419 0 1
126.852 0 1
126.968 0 1
127.083 0 1
127.199 0 1
127.315 0 1
127.431 0 1
127.547 0 1
127.663 0 1
127.779 0 1
127.895 0 1
128.011 0 1
128.127 0 1
128.243 0 1
128.359 3290 57.3585
128.476 3000 54.7723
128.592 3093 55.6147
128.708 3535 59.4559
128.825 3996 63.2139
128.941 4353 65.9773
129.058 4584 67.7052
129.174 4531 67.3127
129.291 4651 68.1982
129.408 4646 68.1616
129.524 4530 67.3053
129.641 4613 67.9191
129.758 4528 67.2904
129.875 4545 67.4166
129.992 4502 67.0969
130.108 4520 67.2309
130.225 4414 66.4379
130.342 4380 66.1816
130.459 4281 65.4294
130.576 4415 66.4455
130.693 4399 66.325
130.81 4408 66.3928
130.928 4492 67.0224
131.045 4509 67.1491
131.162 4607 67.8749
131.279 4614 67.9264
131.396 4502 67.0969
131.513 4478 66.9179
131.631 4279 65.4141
131.748 4008 63.3088
131.865 3458 58.8048
131.983 3090 55.5878
132.1 3079 55.4887
132.217 3307 57.5065
132.335 3797 61.6198
132.452 4092 63.9687
132.57 4470 66.8581
132.687 4315 65.6887
132.804 4454 66.7383
132.922 4428 66.5432
133.039 4395 66.2948
133.157 4396 66.3023
133.274 4396 66.3023
133.392 4366 66.0757
133.509 4226 65.0077
133.627 4343 65.9014
133.744 4279 65.4141
133.862 4109 64.1015
133.979 4186 64.6993
134.097 4119 64.1794
134.214 4258 65.2534
134.332 4043 63.5846
134.449 4209 64.8768
134.567 4167 64.5523
134.684 4328 65.7875
134.802 4341 65.8863
134.919 4370 66.106
135.037 4272 65.3605
135.154 4093 63.9766
135.272 3948 62.8331
135.389 3671 60.5888
135.507 3302 57.463
135.624 2988 54.6626
135.742 3042 55.1543
135.859 3431 58.5747
135.977 3771 61.4085
136.094 4056 63.6867
136.211 4215 64.923
136.329 4236 65.0846
136.446 4304 65.6049
136.564 4282 65.437
136.681 4403 66.3551
136.798 4168 64.56
136.915 4240 65.1153
137.033 4123 64.2106
137.15 4001 63.2535
137.267 4114 64.1405
137.384 4062 63.7338
137.502 3979 63.0793
137.619 4146 64.3894
137.736 3945 62.8092
137.853 4028 63.4665
137.97 3881 62.2977
138.087 4101 64.0391
138.204 3929 62.6817
138.321 4040 63.561
138.438 4280 65.4217
138.555 4210 64.8845
138.672 4240 65.1153
138.788 4045 63.6003
138.905 3838 61.9516
139.022 3588 59.8999
139.139 3400 58.3095
139.255 3009 54.8544
139.372 3094 55.6237
139.488 3200 56.5685
139.605 3676 60.63
139.721 3951 62.857
139.838 4054 63.671
139.954 4253 65.215
140.071 4052 63.6553
140.187 4173 64.5988
140.303 4065 63.7574
140.419 4163 64.5213
140.535 3978 63.0714
140.652 3869 62.2013
140.768 0 1
140.884 0 1
141 0 1
141.115 0 1
141.231 0 1
141.347 0 1
141.463 0 1
141.578 0 1
141.694 0 1
144.104 0 1
144.219 0 1
144.335 0 1
144.45 0 1
144.566 0 1
144.682 0 1
144.798 0 1
144.914 0 1
145.03 0 1
145.146 3486 59.0424
145.262 3558 59.649
145.378 3513 59.2706
145.494 3521 59.338
145.61 3535 59.4559
145.726 3466 58.8727
145.842 3412 58.4123
145.959 3339 57.7841
146.075 3397 58.2838
146.192 3381 58.1464
146.308 3365 58.0086
146.425 3414 58.4294
146.541 3280 57.2713
146.658 3294 57.3934
146.774 3392 58.2409
146.891 3424 58.515
147.008 3403 58.3352
147.125 3432 58.5833
147.241 3316 57.5847
147.358 3309 57.5239
147.475 3202 56.5862
147.592 3027 55.0182
147.709 2868 53.5537
147.826 2610 51.0882
147.943 2528 50.2792
148.06 2687 51.8363
148.177 2987 54.6535
148.294 3178 56.3738
148.411 3375 58.0948
148.528 3271 57.1927
148.645 3367 58.0259
148.762 3198 56.5509
148.88 3252 57.0263
148.997 3068 55.3895
149.114 3249 57
149.231 3140 56.0357
149.349 3117 55.8301
149.466 3015 54.909
149.583 2972 54.5161
149.701 3087 55.5608
149.818 3088 55.5698
149.935 3100 55.6776
150.053 3193 56.5066
150.17 3180 56.3915
150.287 3165 56.2583
150.405 3172 56.3205
150.522 3074 55.4437
150.64 3125 55.9017
150.757 3084 55.5338
150.875 3116 55.8211
150.992 3107 55.7405
151.11 2896 53.8145
151.227 2812 53.0283
151.344 2600 50.9902
151.462 2425 49.2443
151.579 2433 49.3254
151.697 2466 49.6588
151.814 2768 52.6118
151.932 3055 55.2721
152.049 3218 56.7274
152.167 3178 56.3738
152.284 3187 56.4535
152.402 3162 56.2317
152.519 3234 56.8683
152.636 3129 55.9375
152.754 3140 56.0357
152.871 3056 55.2811
152.989 3087 55.5608
153.106 2978 54.5711
153.223 3057 55.2901
153.341 3026 55.0091
153.458 3044 55.1725
153.575 2968 54.4794
153.693 3105 55.7225
153.81 3183 56.4181
153.927 3132 55.9643
154.044 3075 55.4527
154.162 3121 55.8659
154.279 3091 55.5968
154.396 3255 57.0526
154.513 3201 56.5774
154.63 3239 56.9122
154.747 3083 55.5248
154.864 3006 54.827
154.981 2850 53.3854
155.098 2653 51.5073
155.215 2612 51.1077
155.332 2758 52.5167
155.449 3023 54.9818
155.566 3149 56.116
155.683 3276 57.2364
155.8 3299 57.4369
155.917 3180 56.3915
156.033 3122 55.8749
156.15 0 1
156.267 0 1
156.383 0 1
156.5 0 1
156.617 0 1
156.733 0 1
156.85 0 1
156.966 0 1
157.082 0 1
157.199 0 1
157.315 0 1
157.431 0 1
157.547 0 1
157.664 0 1
157.78 0 1
157.896 0 1
158.012 0 1
158.128 0 1
158.244 0 1
158.359 0 1
158.475 0 1
158.591 0 1
158.706 0 1
