
6.15755 0 1
6.2731 0 1
6.3887 0 1
6.50437 0 1
6.62009 0 1
6.73587 0 1
6.8517 0 1
6.96759 0 1
7.08353 0 1
7.19952 0 1
7.31557 0 1
7.43166 0 1
7.54781 0 1
7.664 0 1
7.78024 0 1
7.89653 0 1
8.01286 0 1
8.12924 0 1
8.24567 0 1
8.36213 0 1
8.47864 0 1
8.59519 0 1
8.71178 0 1
8.82841 0 1
8.94508 0 1
9.06179 0 1
9.17853 0 1
9.29531 0 1
9.41212 0 1
9.52897 0 1
9.64584 0 1
9.76276 0 1
9.8797 0 1
9.99667 0 1
10.1137 0 1
10.2307 0 1
10.3478 0 1
10.4648 0 1
10.5819 0 1
10.6991 0 1
10.8162 0 1
10.9334 0 1
11.0506 0 1
11.1678 0 1
11.285 0 1
11.4023 0 1
11.5196 0 1
11.6369 0 1
11.7542 0 1
11.8715 0 1
11.9888 0 1
12.1062 0 1
12.2235 0 1
12.3409 0 1
12.4582 0 1
12.5756 0 1
12.693 0 1
12.8104 0 1
12.9278 0 1
13.0452 0 1
13.1626 0 1
13.28 0 1
13.3974 0 1
13.5149 0 1
13.6323 0 1
13.7497 0 1
13.8671 0 1
13.9845 0 1
14.1019 0 1
14.2193 0 1
14.3367 0 1
14.4541 0 1
14.5714 0 1
14.6888 0 1
14.8062 0 1
14.9235 0 1
15.0408 1140 33.7639
15.1581 1256 35.4401
15.2755 1296 36
15.3927 1276 35.7211
15.51 1182 34.3802
15.6273 1238 35.1852
15.7445 1140 33.7639
15.8617 1207 34.7419
15.9789 1164 34.1174
16.0961 1118 33.4365
16.2132 1080 32.8634
16.3304 1137 33.7194
16.4475 1212 34.8138
16.5646 1219 34.9142
16.6816 1114 33.3766
16.7986 1216 34.8712
16.9156 1206 34.7275
17.0326 1159 34.0441
17.1496 1206 34.7275
17.2665 1254 35.4119
17.3833 1230 35.0714
17.5002 1235 35.1426
17.617 1250 35.3553
17.7338 1309 36.1801
17.8505 1359 36.8646
17.9672 1397 37.3765
18.0839 1428 37.7889
18.2005 1486 38.5487
18.3171 1485 38.5357
18.4337 1519 38.9744
18.5502 1591 39.8873
18.6666 1517 38.9487
18.7831 1509 38.8458
18.8994 1531 39.128
19.0158 1363 36.9188
19.1321 1373 37.054
19.2483 1296 36
19.3645 1201 34.6554
19.4806 1240 35.2136
19.5967 1217 34.8855
19.7128 1179 34.3366
19.8288 1207 34.7419
19.9447 1079 32.8481
20.0606 0 1
20.1764 0 1
20.2922 0 1
20.4079 0 1
20.5236 0 1
20.6392 0 1
20.7548 0 1
20.8702 0 1
23.3078 0 1
23.4233 0 1
23.539 0 1
23.6547 0 1
23.7704 0 1
23.8862 0 1
24.0021 0 1
24.118 0 1
24.234 0 1
24.35 0 1
24.4661 1149 33.8969
24.5822 1208 34.7563
24.6984 1191 34.5109
24.8146 1126 33.5559
24.9309 1167 34.1614
25.0472 1175 34.2783
25.1636 1212 34.8138
25.28 1217 34.8855
25.3965 1206 34.7275
25.513 1241 35.2278
25.6296 1332 36.4966
25.7462 1304 36.1109
25.8628 1390 37.2827
25.9795 1314 36.2491
26.0962 1328 36.4417
26.213 1387 37.2424
26.3298 1476 38.4187
26.4466 1349 36.7287
26.5635 1379 37.1349
26.6804 1419 37.6696
26.7973 1428 37.7889
26.9143 1440 37.9473
27.0313 1445 38.0132
27.1483 1449 38.0657
27.2653 1421 37.6962
27.3824 1440 37.9473
27.4996 1405 37.4833
27.6167 1384 37.2022
27.7339 1290 35.9166
27.8511 1269 35.623
27.9683 1235 35.1426
28.0855 1200 34.641
28.2028 1162 34.0881
28.3201 1103 33.2114
28.4374 1162 34.0881
28.5547 1167 34.1614
28.6721 1115 33.3916
28.7894 1209 34.7707
28.9068 1157 34.0147
29.0242 1191 34.5109
29.1416 1217 34.8855
29.259 1253 35.3977
29.3764 1214 34.8425
29.4939 1237 35.171
29.6113 1241 35.2278
29.7288 1267 35.5949
29.8463 1241 35.2278
29.9638 1302 36.0832
30.0812 1252 35.3836
30.1987 1340 36.606
30.3162 1351 36.756
30.4337 1342 36.6333
30.5512 1382 37.1753
30.6687 1391 37.2961
30.7862 1376 37.0945
30.9037 1376 37.0945
31.0212 1370 37.0135
31.1387 1260 35.4965
31.2562 1157 34.0147
31.3737 1205 34.7131
31.4912 1059 32.5423
31.6087 1097 33.121
31.7262 1109 33.3017
31.8436 1109 33.3017
31.9611 1113 33.3617
32.0785 1109 33.3017
32.1959 1117 33.4215
32.3134 1148 33.8821
32.4308 1155 33.9853
32.5482 1211 34.7994
32.6655 1188 34.4674
32.7829 1176 34.2929
32.9002 1196 34.5832
33.0176 1191 34.5109
33.1349 1183 34.3948
33.2522 1160 34.0588
33.3694 1256 35.4401
33.4867 1202 34.6699
33.6039 1196 34.5832
33.7211 1232 35.0999
33.8383 1364 36.9324
33.9554 1288 35.8887
34.0725 1272 35.6651
34.1896 1268 35.609
34.3067 1305 36.1248
34.4237 1272 35.6651
34.5407 1214 34.8425
34.6577 1215 34.8569
34.7746 1221 34.9428
34.8915 1166 34.1467
35.0084 1123 33.5112
35.1252 1072 32.7414
35.242 1079 32.8481
35.3587 1088 32.9848
35.4755 1007 31.7333
35.5921 1063 32.6037
35.7088 1005 31.7017
35.8254 1060 32.5576
35.9419 1087 32.9697
36.0584 1085 32.9393
36.1749 1106 33.2566
36.2913 1180 34.3511
36.4077 1167 34.1614
36.524 1102 33.1964
36.6403 1043 32.2955
36.7565 1112 33.3467
36.8727 1089 33
36.9889 1115 33.3916
37.1049 1056 32.4962
37.221 0 1
37.3369 0 1
37.4529 0 1
37.5687 0 1
37.6845 0 1
37.8003 0 1
37.916 0 1
38.0316 0 1
38.1472 0 1
40.5851 0 1
40.7008 0 1
40.8164 0 1
40.9322 0 1
41.048 0 1
41.1639 0 1
41.2798 0 1
41.3958 0 1
41.5118 0 1
41.6279 0 1
41.744 878 29.6311
41.8602 958 30.9516
41.9765 922 30.3645
42.0928 946 30.7571
42.2091 1027 32.0468
42.3255 995 31.5436
42.4419 964 31.0483
42.5584 1045 32.3265
42.675 1033 32.1403
42.7915 1042 32.28
42.9081 1109 33.3017
43.0248 1056 32.4962
43.1415 1042 32.28
43.2582 1100 33.1662
43.375 1090 33.0151
43.4918 1132 33.6452
43.6087 1125 33.541
43.7256 1072 32.7414
43.8425 1043 32.2955
43.9595 967 31.0966
44.0765 953 30.8707
44.1935 1003 31.6702
44.3106 999 31.607
44.4277 966 31.0805
44.5448 883 29.7153
44.6619 937 30.6105
44.7791 836 28.9137
44.8963 841 29
45.0136 899 29.9833
45.1308 870 29.4958
45.2481 858 29.2916
45.3654 826 28.7402
45.4827 877 29.6142
45.6001 805 28.3725
45.7174 837 28.931
45.8348 790 28.1069
45.9522 772 27.7849
46.0697 733 27.074
46.1871 736 27.1293
46.3046 728 26.9815
46.422 716 26.7582
46.5395 716 26.7582
46.657 737 27.1477
46.7745 738 27.1662
46.892 700 26.4575
47.0096 715 26.7395
47.1271 732 27.0555
47.2446 711 26.6646
47.3622 704 26.533
47.4797 662 25.7294
47.5973 665 25.7876
47.7149 645 25.3969
47.8324 643 25.3574
47.95 619 24.8797
48.0675 617 24.8395
48.1851 616 24.8193
48.3027 577 24.0208
48.4202 565 23.7697
48.5378 569 23.8537
48.6554 575 23.9792
48.7729 563 23.7276
48.8904 561 23.6854
49.008 576 24
49.1255 613 24.7588
49.243 562 23.7065
49.3605 528 22.9783
49.478 560 23.6643
49.5955 598 24.454
49.713 561 23.6854
49.8304 607 24.6374
49.9479 570 23.8747
50.0653 607 24.6374
50.1827 609 24.6779
50.3001 678 26.0384
50.4175 653 25.5539
50.5348 592 24.3311
50.6521 638 25.2587
50.7694 677 26.0192
50.8867 637 25.2389
51.004 738 27.1662
51.1212 697 26.4008
51.2384 781 27.9464
51.3556 769 27.7308
51.4727 830 28.8097
51.5899 747 27.3313
51.707 766 27.6767
51.824 736 27.1293
51.9411 741 27.2213
52.0581 738 27.1662
52.175 763 27.6225
52.2919 799 28.2666
52.4088 760 27.5681
52.5257 724 26.9072
52.6425 729 27
52.7593 801 28.3019
52.876 809 28.4429
52.9927 765 27.6586
53.1094 817 28.5832
53.226 776 27.8568
53.3426 736 27.1293
53.4591 856 29.2575
53.5756 826 28.7402
53.692 800 28.2843
53.8084 915 30.249
53.9248 878 29.6311
54.0411 964 31.0483
54.1573 975 31.225
54.2735 0 1
54.3896 0 1
54.5057 0 1
54.6217 0 1
54.7377 0 1
54.8537 0 1
54.9695 0 1
55.0853 0 1
55.2011 0 1
55.3168 0 1
55.4324 0 1
57.824 0 1
57.9396 0 1
58.0553 0 1
58.1711 0 1
58.2869 0 1
58.4028 0 1
58.5187 0 1
58.6347 0 1
58.7508 0 1
58.8669 0 1
58.983 1000 31.6228
59.0992 1066 32.6497
59.2155 1119 33.4515
59.3318 1149 33.8969
59.4482 1216 34.8712
59.5646 1178 34.322
59.681 1228 35.0428
59.7975 1241 35.2278
59.9141 1268 35.609
60.0306 1226 35.0143
60.1473 1103 33.2114
60.2639 1092 33.0454
60.3807 1146 33.8526
60.4974 1070 32.7109
60.6142 1078 32.8329
60.731 1012 31.8119
60.8479 919 30.315
60.9648 924 30.3974
61.0818 880 29.6648
61.1987 845 29.0689
61.3158 922 30.3645
61.4328 969 31.1288
61.5499 990 31.4643
61.667 958 30.9516
61.7841 966 31.0805
61.9013 993 31.5119
62.0185 914 30.2324
62.1357 993 31.5119
62.253 1017 31.8904
62.3702 1026 32.0312
62.4875 1015 31.8591
62.6049 1043 32.2955
62.7222 1048 32.3728
62.8396 1111 33.3317
62.9569 1097 33.121
63.0743 1122 33.4963
63.1918 1176 34.2929
63.3092 1168 34.176
63.4267 1155 33.9853
63.5441 1137 33.7194
63.6616 1114 33.3766
63.7791 1019 31.9218
63.8966 963 31.0322
64.0142 1001 31.6386
64.1317 977 31.257
64.2492 924 30.3974
64.3668 829 28.7924
64.4843 829 28.7924
64.6019 855 29.2404
64.7195 850 29.1548
64.837 782 27.9643
64.9546 831 28.8271
65.0722 848 29.1204
65.1898 862 29.3598
65.3074 931 30.5123
65.4249 945 30.7409
65.5425 880 29.6648
65.6601 931 30.5123
65.7777 954 30.8869
65.8952 965 31.0644
66.0128 965 31.0644
66.1304 977 31.257
66.2479 1041 32.2645
66.3655 1080 32.8634
66.483 1113 33.3617
66.6005 1129 33.6006
66.718 1159 34.0441
66.8355 1128 33.5857
66.953 1112 33.3467
67.0705 1137 33.7194
67.1879 1093 33.0606
67.3054 1106 33.2566
67.4228 995 31.5436
67.5402 936 30.5941
67.6576 831 28.8271
67.7749 789 28.0891
67.8923 805 28.3725
68.0096 826 28.7402
68.1269 834 28.8791
68.2442 809 28.4429
68.3614 772 27.7849
68.4787 844 29.0517
68.5958 911 30.1828
68.713 926 30.4302
68.8302 921 30.348
68.9473 949 30.8058
69.0643 929 30.4795
69.1814 914 30.2324
69.2984 991 31.4802
69.4154 1008 31.749
69.5323 974 31.209
69.6492 996 31.5595
69.7661 1028 32.0624
69.8829 1075 32.7872
69.9997 1095 33.0908
70.1165 1174 34.2637
70.2332 1169 34.1906
70.3499 1168 34.176
70.4665 1191 34.5109
70.5831 1211 34.7994
70.6996 1230 35.0714
70.8161 1104 33.2265
70.9326 1115 33.3916
71.049 1012 31.8119
71.1653 911 30.1828
71.2817 910 30.1662
71.3979 812 28.4956
71.5141 813 28.5132
71.6303 771 27.7669
71.7464 732 27.0555
71.8624 0 1
71.9784 0 1
72.0944 0 1
72.2102 0 1
72.3261 0 1
72.4418 0 1
72.5575 0 1
72.6732 0 1
75.1054 0 1
75.2209 0 1
75.3365 0 1
75.4521 0 1
75.5678 0 1
75.6835 0 1
75.7993 0 1
75.9151 0 1
76.031 0 1
76.147 993 31.5119
76.263 1030 32.0936
76.3791 939 30.6431
76.4952 936 30.5941
76.6113 862 29.3598
76.7276 879 29.6479
76.8438 896 29.9333
76.9601 859 29.3087
77.0765 863 29.3769
77.1929 850 29.1548
77.3093 907 30.1164
77.4258 878 29.6311
77.5423 874 29.5635
77.6589 958 30.9516
77.7755 952 30.8545
77.8921 942 30.692
78.0088 903 30.05
78.1256 935 30.5778
78.2423 941 30.6757
78.3591 994 31.5278
78.4759 1008 31.749
78.5928 952 30.8545
78.7097 1117 33.4215
78.8266 1076 32.8024
78.9436 1256 35.4401
79.0606 1195 34.5688
79.1776 1119 33.4515
79.2946 1205 34.7131
79.4117 1182 34.3802
79.5288 1202 34.6699
79.6459 1184 34.4093
79.7631 1060 32.5576
79.8802 1021 31.9531
79.9974 994 31.5278
80.1147 897 29.95
80.2319 894 29.8998
80.3491 863 29.3769
80.4664 844 29.0517
80.5837 838 28.9482
80.701 833 28.8617
80.8183 845 29.0689
80.9357 850 29.1548
81.053 827 28.7576
81.1704 904 30.0666
81.2877 935 30.5778
81.4051 820 28.6356
81.5225 975 31.225
81.6399 855 29.2404
81.7573 913 30.2159
81.8747 900 30
81.9922 945 30.7409
82.1096 998 31.5911
82.227 1108 33.2866
82.3444 1098 33.1361
82.4619 1217 34.8855
82.5793 1190 34.4964
82.6967 1177 34.3074
82.8142 1166 34.1467
82.9316 1193 34.5398
83.049 1139 33.7491
83.1664 1134 33.6749
83.2838 1055 32.4808
83.4012 1071 32.7261
83.5186 922 30.3645
83.636 921 30.348
83.7534 886 29.7658
83.8708 875 29.5804
83.9881 908 30.133
84.1055 916 30.2655
84.2228 904 30.0666
84.3401 853 29.2062
84.4575 894 29.8998
84.5747 857 29.2746
84.692 974 31.209
84.8093 965 31.0644
84.9265 984 31.3688
85.0437 973 31.1929
85.1609 961 31
85.2781 955 30.9031
85.3952 924 30.3974
85.5123 984 31.3688
85.6294 951 30.8383
85.7465 1119 33.4515
85.8636 1155 33.9853
85.9806 1191 34.5109
86.0976 1268 35.609
86.2145 1274 35.6931
86.3315 1216 34.8712
86.4484 1317 36.2905
86.5652 1292 35.9444
86.682 1284 35.8329
86.7988 1206 34.7275
86.9156 1187 34.4529
87.0323 1208 34.7563
87.149 1041 32.2645
87.2657 1047 32.3574
87.3823 969 31.1288
87.4988 986 31.4006
87.6154 956 30.9192
87.7318 1000 31.6228
87.8483 1015 31.8591
87.9647 895 29.9166
88.081 960 30.9839
88.1973 980 31.305
88.3136 1034 32.1559
88.4298 1088 32.9848
88.546 987 31.4166
88.6621 954 30.8869
88.7781 961 31
88.8942 0 1
89.0101 0 1
89.126 0 1
89.2419 0 1
89.3577 0 1
89.4734 0 1
89.5891 0 1
89.7047 0 1
89.8203 0 1
89.9358 0 1
92.3269 0 1
92.4424 0 1
92.558 0 1
92.6736 0 1
92.7893 0 1
92.905 0 1
93.0208 0 1
93.1366 0 1
93.2525 0 1
93.3685 0 1
93.4845 0 1
93.6005 912 30.1993
93.7167 979 31.289
93.8328 986 31.4006
93.949 962 31.0161
94.0653 964 31.0483
94.1816 923 30.3809
94.2979 988 31.4325
94.4143 1036 32.187
94.5307 1037 32.2025
94.6472 1141 33.7787
94.7637 1042 32.28
94.8803 1164 34.1174
94.9969 1233 35.1141
95.1135 1246 35.2987
95.2302 1233 35.1141
95.3469 1240 35.2136
95.4637 1154 33.9706
95.5805 1291 35.9305
95.6973 1196 34.5832
95.8142 1193 34.5398
95.9311 1112 33.3467
96.048 1087 32.9697
96.1649 1055 32.4808
96.2819 1012 31.8119
96.3989 1003 31.6702
96.516 952 30.8545
96.633 949 30.8058
96.7501 928 30.4631
96.8673 954 30.8869
96.9844 965 31.0644
97.1016 958 30.9516
97.2188 948 30.7896
97.336 996 31.5595
97.4532 1017 31.8904
97.5704 929 30.4795
97.6877 907 30.1164
97.805 939 30.6431
97.9223 904 30.0666
98.0396 904 30.0666
98.1569 947 30.7734
98.2743 995 31.5436
98.3916 999 31.607
98.509 1161 34.0735
98.6264 1145 33.8378
98.7438 1247 35.3129
98.8612 1198 34.6121
98.9786 1174 34.2637
99.096 1133 33.6601
99.2134 1186 34.4384
99.3308 1141 33.7787
99.4482 1144 33.8231
99.5656 1163 34.1028
99.6831 1137 33.7194
99.8005 1008 31.749
99.9179 956 30.9192
100.035 917 30.282
100.153 934 30.5614
100.27 946 30.7571
100.388 923 30.3809
100.505 915 30.249
100.622 894 29.8998
100.74 926 30.4302
100.857 897 29.95
100.975 915 30.249
101.092 894 29.8998
101.209 889 29.8161
101.327 887 29.7825
101.444 947 30.7734
101.561 961 31
101.679 942 30.692
101.796 995 31.5436
101.913 962 31.0161
102.03 1079 32.8481
102.148 1206 34.7275
102.265 1125 33.541
102.382 1323 36.3731
102.499 1175 34.2783
102.616 1209 34.7707
102.733 1240 35.2136
102.851 1228 35.0428
102.968 1275 35.7071
103.085 1256 35.4401
103.202 1218 34.8999
103.319 1101 33.1813
103.436 1098 33.1361
103.552 1038 32.218
103.669 1075 32.7872
103.786 995 31.5436
103.903 1039 32.2335
104.02 981 31.3209
104.137 980 31.305
104.253 988 31.4325
104.37 1015 31.8591
104.487 1010 31.7805
104.603 1008 31.749
104.72 922 30.3645
104.836 952 30.8545
104.953 1023 31.9844
105.069 1019 31.9218
105.186 989 31.4484
105.302 1081 32.8786
105.418 1169 34.1906
105.535 1248 35.327
105.651 1221 34.9428
105.767 1229 35.0571
105.883 1254 35.4119
105.999 1249 35.3412
106.115 0 1
106.231 0 1
106.347 0 1
106.463 0 1
106.579 0 1
106.694 0 1
106.81 0 1
106.926 0 1
107.041 0 1
107.157 0 1
109.576 0 1
109.692 0 1
109.807 0 1
109.923 0 1
110.039 0 1
110.155 0 1
110.27 0 1
110.386 0 1
110.502 0 1
110.618 1028 32.0624
110.735 1099 33.1512
110.851 1111 33.3317
110.967 1149 33.8969
111.083 1132 33.6452
111.199 1045 32.3265
111.316 1134 33.6749
111.432 1162 34.0881
111.549 1165 34.1321
111.665 1142 33.7935
111.782 1041 32.2645
111.898 986 31.4006
112.015 987 31.4166
112.132 980 31.305
112.248 961 31
112.365 876 29.5973
112.482 942 30.692
112.599 864 29.3939
112.716 799 28.2666
112.832 836 28.9137
112.949 839 28.9655
113.066 848 29.1204
113.183 800 28.2843
113.3 782 27.9643
113.417 746 27.313
113.534 779 27.9106
113.652 761 27.5862
113.769 818 28.6007
113.886 850 29.1548
114.003 861 29.3428
114.12 912 30.1993
114.238 914 30.2324
114.355 919 30.315
114.472 951 30.8383
114.589 831 28.8271
114.707 812 28.4956
114.824 860 29.3258
114.942 931 30.5123
115.059 979 31.289
115.176 881 29.6816
115.294 870 29.4958
115.411 894 29.8998
115.529 739 27.1846
115.646 790 28.1069
115.764 792 28.1425
115.881 703 26.5141
115.999 700 26.4575
116.116 684 26.1534
116.234 686 26.1916
116.351 637 25.2389
116.469 662 25.7294
116.586 632 25.1396
116.704 640 25.2982
116.821 567 23.8118
116.939 560 23.6643
117.056 601 24.5153
117.174 667 25.8263
117.291 659 25.671
117.409 695 26.3629
117.526 716 26.7582
117.644 641 25.318
117.761 793 28.1603
117.879 733 27.074
117.996 743 27.258
118.114 726 26.9444
118.231 704 26.533
118.349 753 27.4408
118.466 720 26.8328
118.584 794 28.178
118.701 838 28.9482
118.819 746 27.313
118.936 784 28
119.053 760 27.5681
119.171 759 27.55
119.288 739 27.1846
119.405 803 28.3373
119.523 730 27.0185
119.64 700 26.4575
119.757 678 26.0384
119.875 696 26.3818
119.992 701 26.4764
120.109 665 25.7876
120.226 636 25.219
120.343 693 26.3249
120.46 622 24.9399
120.578 661 25.7099
120.695 697 26.4008
120.812 723 26.8887
120.929 737 27.1477
121.046 739 27.1846
121.163 803 28.3373
121.279 707 26.5895
121.396 800 28.2843
121.513 830 28.8097
121.63 818 28.6007
121.747 815 28.5482
121.863 779 27.9106
121.98 702 26.4953
122.097 853 29.2062
122.213 850 29.1548
122.33 934 30.5614
122.446 917 30.282
122.563 964 31.0483
122.679 925 30.4138
122.795 852 29.189
122.912 914 30.2324
123.028 870 29.4958
123.144 893 29.8831
123.26 812 28.4956
123.377 0 1
123.493 0 1
123.609 0 1
123.725 0 1
123.84 0 1
123.956 0 1
124.072 0 1
124.188 0 1
124.303 0 1
124.419 0 1
126.852 0 1
126.968 0 1
127.083 0 1
127.199 0 1
127.315 0 1
127.431 0 1
127.547 0 1
127.663 0 1
127.779 0 1
127.895 0 1
128.011 0 1
128.127 0 1
128.243 0 1
128.359 1025 32.0156
128.476 1066 32.6497
128.592 1012 31.8119
128.708 1017 31.8904
128.825 998 31.5911
128.941 1019 31.9218
129.058 913 30.2159
129.174 923 30.3809
129.291 844 29.0517
129.408 941 30.6757
129.524 885 29.7489
129.641 953 30.8707
129.758 897 29.95
129.875 889 29.8161
129.992 945 30.7409
130.108 933 30.545
130.225 904 30.0666
130.342 931 30.5123
130.459 942 30.692
130.576 922 30.3645
130.693 857 29.2746
130.81 725 26.9258
130.928 672 25.923
131.045 846 29.0861
131.162 933 30.545
131.279 917 30.282
131.396 982 31.3369
131.513 910 30.1662
131.631 863 29.3769
131.748 935 30.5778
131.865 901 30.0167
131.983 886 29.7658
132.1 856 29.2575
132.217 879 29.6479
132.335 912 30.1993
132.452 836 28.9137
132.57 836 28.9137
132.687 770 27.7489
132.804 871 29.5127
132.922 826 28.7402
133.039 818 28.6007
133.157 731 27.037
133.274 798 28.2489
133.392 798 28.2489
133.509 729 27
133.627 749 27.3679
133.744 724 26.9072
133.862 803 28.3373
133.979 799 28.2666
134.097 729 27
134.214 703 26.5141
134.332 567 23.8118
134.449 495 22.2486
134.567 584 24.1661
134.684 684 26.1534
134.802 720 26.8328
134.919 706 26.5707
135.037 701 26.4764
135.154 781 27.9464
135.272 706 26.5707
135.389 723 26.8887
135.507 685 26.1725
135.624 717 26.7769
135.742 697 26.4008
135.859 684 26.1534
135.977 660 25.6905
136.094 638 25.2587
136.211 608 24.6577
136.329 654 25.5734
136.446 631 25.1197
136.564 579 24.0624
136.681 569 23.8537
136.798 638 25.2587
136.915 577 24.0208
137.033 632 25.1396
137.15 625 25
137.267 584 24.1661
137.384 630 25.0998
137.502 600 24.4949
137.619 628 25.0599
137.736 546 23.3666
137.853 466 21.587
137.97 389 19.7231
138.087 464 21.5407
138.204 545 23.3452
138.321 635 25.1992
138.438 657 25.632
138.555 644 25.3772
138.672 649 25.4755
138.788 622 24.9399
138.905 710 26.6458
139.022 736 27.1293
139.139 704 26.533
139.255 655 25.593
139.372 673 25.9422
139.488 674 25.9615
139.605 698 26.4197
139.721 681 26.096
139.838 708 26.6083
139.954 740 27.2029
140.071 669 25.865
140.187 738 27.1662
140.303 723 26.8887
140.419 702 26.4953
140.535 690 26.2679
140.652 718 26.7955
140.768 0 1
140.884 0 1
141 0 1
141.115 0 1
141.231 0 1
141.347 0 1
141.463 0 1
141.578 0 1
141.694 0 1
144.104 0 1
144.219 0 1
144.335 0 1
144.45 0 1
144.566 0 1
144.682 0 1
144.798 0 1
144.914 0 1
145.03 0 1
145.146 636 25.219
145.262 583 24.1454
145.378 591 24.3105
145.494 553 23.516
145.61 546 23.3666
145.726 560 23.6643
145.842 564 23.7487
145.959 570 23.8747
146.075 578 24.0416
146.192 500 22.3607
146.308 565 23.7697
146.425 506 22.4944
146.541 450 21.2132
146.658 408 20.199
146.774 414 20.347
146.891 379 19.4679
147.008 477 21.8403
147.125 478 21.8632
147.241 491 22.1585
147.358 490 22.1359
147.475 487 22.0681
147.592 477 21.8403
147.709 440 20.9762
147.826 452 21.2603
147.943 458 21.4009
148.06 469 21.6564
148.177 436 20.8806
148.294 411 20.2731
148.411 435 20.8567
148.528 421 20.5183
148.645 435 20.8567
148.762 415 20.3715
148.88 430 20.7364
148.997 432 20.7846
149.114 408 20.199
149.231 402 20.0499
149.349 397 19.9249
149.466 408 20.199
149.583 389 19.7231
149.701 359 18.9473
149.818 368 19.1833
149.935 400 20
150.053 374 19.3391
150.17 341 18.4662
150.287 303 17.4069
150.405 364 19.0788
150.522 366 19.1311
150.64 378 19.4422
150.757 380 19.4936
150.875 401 20.025
150.992 443 21.0476
151.11 388 19.6977
151.227 370 19.2354
151.344 398 19.9499
151.462 389 19.7231
151.579 376 19.3907
151.697 396 19.8997
151.814 407 20.1742
151.932 366 19.1311
152.049 378 19.4422
152.167 338 18.3848
152.284 372 19.2873
152.402 380 19.4936
152.519 360 18.9737
152.636 349 18.6815
152.754 367 19.1572
152.871 394 19.8494
152.989 356 18.868
153.106 352 18.7617
153.223 403 20.0749
153.341 376 19.3907
153.458 396 19.8997
153.575 394 19.8494
153.693 380 19.4936
153.81 333 18.2483
153.927 350 18.7083
154.044 371 19.2614
154.162 384 19.5959
154.279 391 19.7737
154.396 458 21.4009
154.513 447 21.1424
154.63 471 21.7025
154.747 487 22.0681
154.864 472 21.7256
154.981 480 21.9089
155.098 495 22.2486
155.215 487 22.0681
155.332 471 21.7025
155.449 489 22.1133
155.566 441 21
155.683 451 21.2368
155.8 412 20.2978
155.917 400 20
156.033 394 19.8494
156.15 0 1
156.267 0 1
156.383 0 1
156.5 0 1
156.617 0 1
156.733 0 1
156.85 0 1
156.966 0 1
157.082 0 1
157.199 0 1
157.315 0 1
157.431 0 1
157.547 0 1
157.664 0 1
157.78 0 1
157.896 0 1
158.012 0 1
158.128 0 1
158.244 0 1
158.359 0 1
158.475 0 1
158.591 0 1
158.706 0 1
