
6.15755 0 1
6.2731 0 1
6.3887 0 1
6.50437 0 1
6.62009 0 1
6.73587 0 1
6.8517 0 1
6.96759 0 1
7.08353 0 1
7.19952 0 1
7.31557 0 1
7.43166 0 1
7.54781 0 1
7.664 0 1
7.78024 0 1
7.89653 0 1
8.01286 0 1
8.12924 0 1
8.24567 0 1
8.36213 0 1
8.47864 0 1
8.59519 0 1
8.71178 0 1
8.82841 0 1
8.94508 0 1
9.06179 0 1
9.17853 0 1
9.29531 0 1
9.41212 0 1
9.52897 0 1
9.64584 0 1
9.76276 0 1
9.8797 0 1
9.99667 0 1
10.1137 0 1
10.2307 0 1
10.3478 0 1
10.4648 0 1
10.5819 0 1
10.6991 0 1
10.8162 0 1
10.9334 0 1
11.0506 0 1
11.1678 0 1
11.285 0 1
11.4023 0 1
11.5196 0 1
11.6369 0 1
11.7542 0 1
11.8715 0 1
11.9888 0 1
12.1062 0 1
12.2235 0 1
12.3409 0 1
12.4582 0 1
12.5756 0 1
12.693 0 1
12.8104 0 1
12.9278 0 1
13.0452 0 1
13.1626 0 1
13.28 0 1
13.3974 0 1
13.5149 0 1
13.6323 0 1
13.7497 0 1
13.8671 0 1
13.9845 0 1
14.1019 0 1
14.2193 0 1
14.3367 0 1
14.4541 0 1
14.5714 0 1
14.6888 0 1
14.8062 0 1
14.9235 0 1
15.0408 0 0
15.1581 0 0
15.2755 0 0
15.3927 0 0
15.51 0 0
15.6273 0 0
15.7445 0 0
15.8617 0 0
15.9789 0 0
16.0961 0 0
16.2132 0 0
16.3304 0 0
16.4475 0 0
16.5646 0 0
16.6816 0 0
16.7986 0 0
16.9156 0 0
17.0326 0 0
17.1496 0 0
17.2665 0 0
17.3833 0 0
17.5002 0 0
17.617 0 0
17.7338 0 0
17.8505 0 0
17.9672 0 0
18.0839 0 0
18.2005 0 0
18.3171 0 0
18.4337 0 0
18.5502 0 0
18.6666 0 0
18.7831 0 0
18.8994 0 0
19.0158 0 0
19.1321 0 0
19.2483 0 0
19.3645 0 0
19.4806 0 0
19.5967 0 0
19.7128 0 0
19.8288 0 0
19.9447 0 0
20.0606 0 1
20.1764 0 1
20.2922 0 1
20.4079 0 1
20.5236 0 1
20.6392 0 1
20.7548 0 1
20.8702 0 1
23.3078 0 1
23.4233 0 1
23.539 0 1
23.6547 0 1
23.7704 0 1
23.8862 0 1
24.0021 0 1
24.118 0 1
24.234 0 1
24.35 0 1
24.4661 8408 91.6951
24.5822 8290 91.0494
24.6984 8232 90.7304
24.8146 8368 91.4768
24.9309 8294 91.0714
25.0472 8535 92.3851
25.1636 8483 92.1032
25.28 8670 93.1128
25.3965 8519 92.2984
25.513 8620 92.844
25.6296 8743 93.504
25.7462 8789 93.7497
25.8628 8691 93.2255
25.9795 8863 94.1435
26.0962 8886 94.2656
26.213 8680 93.1665
26.3298 8640 92.9516
26.4466 8375 91.515
26.5635 7947 89.1459
26.6804 7515 86.6891
26.7973 6895 83.0361
26.9143 7250 85.1469
27.0313 7492 86.5563
27.1483 7968 89.2637
27.2653 8356 91.4112
27.3824 8597 92.72
27.4996 8635 92.9247
27.6167 8572 92.5851
27.7339 8371 91.4932
27.8511 8386 91.5751
27.9683 8332 91.2798
28.0855 8417 91.7442
28.2028 8269 90.934
28.3201 7936 89.0842
28.4374 8218 90.6532
28.5547 8157 90.3161
28.6721 8205 90.5815
28.7894 8301 91.1098
28.9068 8401 91.657
29.0242 8161 90.3383
29.1416 8416 91.7388
29.259 8452 91.9348
29.3764 8451 91.9293
29.4939 8373 91.5041
29.6113 8586 92.6607
29.7288 8343 91.34
29.8463 8439 91.864
29.9638 8063 89.7942
30.0812 7493 86.5621
30.1987 7023 83.8033
30.3162 6544 80.895
30.4337 6720 81.9756
30.5512 7269 85.2584
30.6687 7589 87.1149
30.7862 8245 90.802
30.9037 8093 89.9611
31.0212 8378 91.5314
31.1387 8502 92.2063
31.2562 8451 91.9293
31.3737 8263 90.901
31.4912 8176 90.4212
31.6087 8254 90.8515
31.7262 8192 90.5097
31.8436 8346 91.3564
31.9611 8209 90.6035
32.0785 8198 90.5428
32.1959 8447 91.9076
32.3134 8486 92.1195
32.4308 8288 91.0385
32.5482 8494 92.1629
32.6655 8364 91.4549
32.7829 8501 92.2009
32.9002 8423 91.7769
33.0176 8449 91.9184
33.1349 8432 91.8259
33.2522 8584 92.6499
33.3694 8519 92.2984
33.4867 8450 91.9239
33.6039 8288 91.0385
33.7211 7720 87.8635
33.8383 7108 84.309
33.9554 6800 82.4621
34.0725 6683 81.7496
34.1896 7289 85.3756
34.3067 7808 88.3629
34.4237 8123 90.1277
34.5407 8389 91.5915
34.6577 8694 93.2416
34.7746 8497 92.1792
34.8915 8626 92.8763
35.0084 8420 91.7606
35.1252 8465 92.0054
35.242 8403 91.6679
35.3587 8470 92.0326
35.4755 8319 91.2086
35.5921 8345 91.351
35.7088 8332 91.2798
35.8254 8413 91.7224
35.9419 8491 92.1466
36.0584 8405 91.6788
36.1749 8449 91.9184
36.2913 8437 91.8531
36.4077 8636 92.9301
36.524 8617 92.8278
36.6403 8413 91.7224
36.7565 8509 92.2442
36.8727 8692 93.2309
36.9889 8535 92.3851
37.1049 8346 91.3564
37.221 0 1
37.3369 0 1
37.4529 0 1
37.5687 0 1
37.6845 0 1
37.8003 0 1
37.916 0 1
38.0316 0 1
38.1472 0 1
40.5851 0 1
40.7008 0 1
40.8164 0 1
40.9322 0 1
41.048 0 1
41.1639 0 1
41.2798 0 1
41.3958 0 1
41.5118 0 1
41.6279 0 1
41.744 7154 84.5813
41.8602 7299 85.4342
41.9765 7345 85.703
42.0928 7528 86.764
42.2091 7351 85.738
42.3255 7450 86.3134
42.4419 7060 84.0238
42.5584 6710 81.9146
42.675 5923 76.961
42.7915 5732 75.71
42.9081 5972 77.2787
43.0248 6551 80.9382
43.1415 6902 83.0783
43.2582 7175 84.7054
43.375 7373 85.8662
43.4918 7714 87.8294
43.6087 7655 87.4929
43.7256 7444 86.2786
43.8425 7472 86.4407
43.9595 7111 84.3267
44.0765 6990 83.6062
44.1935 7050 83.9643
44.3106 6798 82.45
44.4277 6708 81.9024
44.5448 6686 81.768
44.6619 6613 81.3204
44.7791 6737 82.0792
44.8963 6720 81.9756
45.0136 6641 81.4923
45.1308 6828 82.6317
45.2481 6953 83.3847
45.3654 6823 82.6015
45.4827 6969 83.4805
45.6001 6630 81.4248
45.7174 6754 82.1827
45.8348 6612 81.3142
45.9522 6458 80.3617
46.0697 6071 77.9166
46.1871 5606 74.8732
46.3046 5060 71.1337
46.422 5028 70.9084
46.5395 5508 74.2159
46.657 5679 75.3591
46.7745 6148 78.4092
46.892 6293 79.3284
47.0096 6395 79.9687
47.1271 6318 79.4858
47.2446 6432 80.1998
47.3622 6283 79.2654
47.4797 6254 79.0822
47.5973 6081 77.9808
47.7149 5938 77.0584
47.8324 5531 74.3707
47.95 5522 74.3102
48.0675 5523 74.3169
48.1851 5423 73.641
48.3027 5460 73.8918
48.4202 5663 75.2529
48.5378 5787 76.0723
48.6554 5895 76.7789
48.7729 5824 76.3151
48.8904 5923 76.961
49.008 6001 77.4661
49.1255 6167 78.5302
49.243 6116 78.2049
49.3605 6047 77.7625
49.478 5923 76.961
49.5955 5616 74.94
49.713 5128 71.6101
49.8304 4812 69.3686
49.9479 4707 68.6076
50.0653 5092 71.3583
50.1827 6032 77.666
50.3001 6539 80.8641
50.4175 6913 83.1445
50.5348 7334 85.6388
50.6521 7530 86.7756
50.7694 7669 87.5728
50.8867 7794 88.2836
51.004 7891 88.8313
51.1212 7823 88.4477
51.2384 7924 89.0169
51.3556 7820 88.4308
51.4727 7906 88.9157
51.5899 7933 89.0674
51.707 8109 90.05
51.824 8210 90.6091
51.9411 8484 92.1086
52.0581 8661 93.0645
52.175 8931 94.504
52.2919 8948 94.5939
52.4088 9331 96.5971
52.5257 9333 96.6075
52.6425 9529 97.6166
52.7593 9806 99.0252
52.876 9839 99.1917
52.9927 10015 100.075
53.1094 9852 99.2572
53.226 8991 94.8209
53.3426 8269 90.934
53.4591 7826 88.4647
53.5756 7806 88.3516
53.692 8697 93.2577
53.8084 9692 98.448
53.9248 10265 101.316
54.0411 10744 103.653
54.1573 11095 105.333
54.2735 0 1
54.3896 0 1
54.5057 0 1
54.6217 0 1
54.7377 0 1
54.8537 0 1
54.9695 0 1
55.0853 0 1
55.2011 0 1
55.3168 0 1
55.4324 0 1
57.824 0 1
57.9396 0 1
58.0553 0 1
58.1711 0 1
58.2869 0 1
58.4028 0 1
58.5187 0 1
58.6347 0 1
58.7508 0 1
58.8669 0 1
58.983 13451 115.978
59.0992 14553 120.636
59.2155 14922 122.156
59.3318 15395 124.077
59.4482 15904 126.111
59.5646 15749 125.495
59.681 15503 124.511
59.7975 15249 123.487
59.9141 15133 123.016
60.0306 14558 120.657
60.1473 14356 119.817
60.2639 14219 119.243
60.3807 13978 118.229
60.4974 14100 118.743
60.6142 14634 120.971
60.731 14934 122.205
60.8479 15461 124.342
60.9648 15747 125.487
61.0818 15893 126.067
61.1987 15639 125.056
61.3158 15912 126.143
61.4328 15898 126.087
61.5499 15637 125.048
61.667 14993 122.446
61.7841 14052 118.541
61.9013 13092 114.42
62.0185 12371 111.225
62.1357 12254 110.698
62.253 13176 114.787
62.3702 14668 121.112
62.4875 15538 124.652
62.6049 16367 127.934
62.7222 16732 129.352
62.8396 16989 130.342
62.9569 17091 130.733
63.0743 17059 130.61
63.1918 16998 130.376
63.3092 16646 129.019
63.4267 16437 128.207
63.5441 15776 125.603
63.6616 15525 124.599
63.7791 15175 123.187
63.8966 14997 122.462
64.0142 15180 123.207
64.1317 15810 125.738
64.2492 16241 127.44
64.3668 16380 127.984
64.4843 17062 130.622
64.6019 17000 130.384
64.7195 17275 131.434
64.837 17325 131.624
64.9546 17640 132.816
65.0722 17486 132.235
65.1898 16814 129.669
65.3074 16165 127.142
65.4249 14526 120.524
65.5425 13458 116.009
65.6601 12893 113.547
65.7777 13351 115.547
65.8952 15057 122.707
66.0128 16403 128.074
66.1304 17496 132.272
66.2479 18070 134.425
66.3655 18779 137.036
66.483 18776 137.026
66.6005 18936 137.608
66.718 18851 137.299
66.8355 18674 136.653
66.953 18267 135.155
67.0705 17943 133.951
67.1879 17262 131.385
67.3054 17005 130.403
67.4228 16270 127.554
67.5402 16502 128.46
67.6576 16845 129.788
67.7749 17086 130.713
67.8923 18410 135.683
68.0096 18707 136.774
68.1269 19250 138.744
68.2442 19640 140.143
68.3614 19791 140.68
68.4787 20182 142.063
68.5958 20318 142.541
68.713 19956 141.266
68.8302 19544 139.8
68.9473 18737 136.883
69.0643 17289 131.488
69.1814 15957 126.321
69.2984 14946 122.254
69.4154 15478 124.411
69.5323 17029 130.495
69.6492 19182 138.499
69.7661 20183 142.067
69.8829 21320 146.014
69.9997 21741 147.448
70.1165 22254 149.178
70.2332 22567 150.223
70.3499 22317 149.389
70.4665 21857 147.841
70.5831 21867 147.875
70.6996 21211 145.64
70.8161 20565 143.405
70.9326 20156 141.972
71.049 18976 137.753
71.1653 18726 136.843
71.2817 18327 135.377
71.3979 18782 137.047
71.5141 19697 140.346
71.6303 19724 140.442
71.7464 18539 136.158
71.8624 0 1
71.9784 0 1
72.0944 0 1
72.2102 0 1
72.3261 0 1
72.4418 0 1
72.5575 0 1
72.6732 0 1
75.1054 0 1
75.2209 0 1
75.3365 0 1
75.4521 0 1
75.5678 0 1
75.6835 0 1
75.7993 0 1
75.9151 0 1
76.031 0 1
76.147 19612 140.043
76.263 20669 143.767
76.3791 20169 142.018
76.4952 19651 140.182
76.6113 19551 139.825
76.7276 20240 142.267
76.8438 21038 145.045
76.9601 22257 149.188
77.0765 23045 151.806
77.1929 23856 154.454
77.3093 23946 154.745
77.4258 24160 155.435
77.5423 24079 155.174
77.6589 23927 154.684
77.7755 23656 153.805
77.8921 22063 148.536
78.0088 20677 143.795
78.1256 18988 137.797
78.2423 16991 130.35
78.3591 16592 128.81
78.4759 17028 130.491
78.5928 18753 136.942
78.7097 20999 144.91
78.8266 23530 153.395
78.9436 22494 149.98
79.0606 24107 155.264
79.1776 23757 154.133
79.2946 23988 154.881
79.4117 23753 154.12
79.5288 23476 153.219
79.6459 23368 152.866
79.7631 22741 150.801
79.8802 21787 147.604
79.9974 20585 143.475
80.1147 19849 140.886
80.2319 19088 138.159
80.3491 19389 139.244
80.4664 20456 143.024
80.5837 21530 146.731
80.701 22494 149.98
80.8183 22840 151.129
80.9357 23182 152.256
81.053 23234 152.427
81.1704 23179 152.247
81.2877 23159 152.181
81.4051 22831 151.099
81.5225 22766 150.884
81.6399 20582 143.464
81.7573 19343 139.079
81.8747 17493 132.261
81.9922 16439 128.215
82.1096 16718 129.298
82.227 17721 133.12
82.3444 19248 138.737
82.4619 21280 145.877
82.5793 21521 146.7
82.6967 22972 151.565
82.8142 22650 150.499
82.9316 22820 151.063
83.049 22659 150.529
83.1664 21805 147.665
83.2838 21849 147.814
83.4012 20835 144.343
83.5186 20227 142.222
83.636 19396 139.27
83.7534 18141 134.689
83.8708 17608 132.695
83.9881 17817 133.48
84.1055 18422 135.728
84.2228 19145 138.365
84.3401 20529 143.279
84.4575 21323 146.024
84.5747 21959 148.186
84.692 22128 148.755
84.8093 22478 149.927
84.9265 22495 149.983
85.0437 22184 148.943
85.1609 21347 146.106
85.2781 19498 139.635
85.3952 18087 134.488
85.5123 17013 130.434
85.6294 16634 128.973
85.7465 17550 132.476
85.8636 19056 138.043
85.9806 20582 143.464
86.0976 22162 148.869
86.2145 23224 152.394
86.3315 23411 153.007
86.4484 25122 158.499
86.5652 24860 157.671
86.682 24868 157.696
86.7988 24331 155.984
86.9156 24349 156.042
87.0323 23109 152.016
87.149 22838 151.122
87.2657 21654 147.153
87.3823 20455 143.021
87.4988 20211 142.165
87.6154 20794 144.201
87.7318 22039 148.455
87.8483 23472 153.206
87.9647 24996 158.101
88.081 25566 159.894
88.1973 25893 160.913
88.3136 26396 162.468
88.4298 26166 161.759
88.546 26037 161.36
88.6621 25234 158.852
88.7781 23733 154.055
88.8942 0 1
89.0101 0 1
89.126 0 1
89.2419 0 1
89.3577 0 1
89.4734 0 1
89.5891 0 1
89.7047 0 1
89.8203 0 1
89.9358 0 1
92.3269 0 1
92.4424 0 1
92.558 0 1
92.6736 0 1
92.7893 0 1
92.905 0 1
93.0208 0 1
93.1366 0 1
93.2525 0 1
93.3685 0 1
93.4845 0 1
93.6005 25461 159.565
93.7167 25519 159.747
93.8328 25962 161.127
93.949 25654 160.169
94.0653 25218 158.802
94.1816 24520 156.589
94.2979 23602 153.629
94.4143 21798 147.641
94.5307 20528 143.276
94.6472 19976 141.336
94.7637 19805 140.73
94.8803 21149 145.427
94.9969 22687 150.622
95.1135 23198 152.309
95.2302 24640 156.971
95.3469 25388 159.336
95.4637 26336 162.284
95.5805 27002 164.323
95.6973 27129 164.709
95.8142 27205 164.939
95.9311 26635 163.202
96.048 26069 161.459
96.1649 25935 161.043
96.2819 24805 157.496
96.3989 23632 153.727
96.516 22505 150.017
96.633 21258 145.801
96.7501 21229 145.702
96.8673 21962 148.196
96.9844 23059 151.852
97.1016 25250 158.902
97.2188 25910 160.966
97.336 27371 165.442
97.4532 27354 165.39
97.5704 27366 165.427
97.6877 26834 163.811
97.805 26525 162.865
97.9223 25573 159.916
98.0396 24016 154.971
98.1569 22846 151.149
98.2743 21424 146.369
98.3916 20717 143.934
98.509 21521 146.7
98.6264 22613 150.376
98.7438 24083 155.187
98.8612 24793 157.458
98.9786 26475 162.711
99.096 27581 166.075
99.2134 27735 166.538
99.3308 28003 167.341
99.4482 28146 167.768
99.5656 27856 166.901
99.6831 27750 166.583
99.8005 26963 164.204
99.9179 25886 160.891
100.035 24978 158.044
100.153 23007 151.681
100.27 21667 147.197
100.388 22094 148.641
100.505 23635 153.737
100.622 25874 160.854
100.74 27006 164.335
100.857 27971 167.245
100.975 28255 168.092
101.092 28196 167.917
101.209 28469 168.728
101.327 28585 169.071
101.444 27675 166.358
101.561 27119 164.678
101.679 25012 158.152
101.796 23326 152.729
101.913 22390 149.633
102.03 22365 149.549
102.148 23526 153.382
102.265 26655 163.264
102.382 25434 159.48
102.499 27274 165.148
102.616 28381 168.467
102.733 29231 170.971
102.851 29757 172.502
102.968 29937 173.023
103.085 29718 172.389
103.202 29609 172.073
103.319 28873 169.921
103.436 28138 167.744
103.552 27036 164.426
103.669 24819 157.54
103.786 23150 152.151
103.903 23259 152.509
104.02 25155 158.603
104.137 27148 164.767
104.253 29968 173.113
104.37 29267 171.076
104.487 30474 174.568
104.603 30643 175.051
104.72 30594 174.911
104.836 30743 175.337
104.953 30113 173.531
105.069 28831 169.797
105.186 26810 163.738
105.302 25369 159.276
105.418 24217 155.618
105.535 24772 157.391
105.651 26616 163.144
105.767 28086 167.589
105.883 28681 169.355
105.999 29951 173.064
106.115 0 1
106.231 0 1
106.347 0 1
106.463 0 1
106.579 0 1
106.694 0 1
106.81 0 1
106.926 0 1
107.041 0 1
107.157 0 1
109.576 0 1
109.692 0 1
109.807 0 1
109.923 0 1
110.039 0 1
110.155 0 1
110.27 0 1
110.386 0 1
110.502 0 1
110.618 23385 152.922
110.735 25534 159.794
110.851 27167 164.824
110.967 27771 166.646
111.083 28104 167.642
111.199 28844 169.835
111.316 29543 171.881
111.432 30014 173.245
111.549 29911 172.948
111.665 29356 171.336
111.782 28687 169.372
111.898 27561 166.015
112.015 25786 160.58
112.132 24079 155.174
112.248 21980 148.257
112.365 21563 146.843
112.482 22861 151.199
112.599 24354 156.058
112.716 26662 163.285
112.832 27829 166.82
112.949 27620 166.193
113.066 27906 167.051
113.183 27462 165.717
113.3 27306 165.245
113.417 27021 164.381
113.534 26164 161.753
113.652 25214 158.789
113.769 23915 154.645
113.886 22301 149.335
114.003 21472 146.533
114.12 21567 146.857
114.238 22581 150.27
114.355 23583 153.568
114.472 24306 155.904
114.589 24806 157.499
114.707 25177 158.673
114.824 25395 159.358
114.942 26177 161.793
115.059 26539 162.908
115.176 26492 162.764
115.294 26175 161.787
115.411 25613 160.041
115.529 24579 156.777
115.646 22921 151.397
115.764 21070 145.155
115.881 19835 140.837
115.999 20257 142.327
116.116 21908 148.014
116.234 24134 155.351
116.351 25602 160.006
116.469 25918 160.991
116.586 26407 162.502
116.704 26416 162.53
116.821 26153 161.719
116.939 26597 163.086
117.056 26097 161.546
117.174 25254 158.915
117.291 24590 156.812
117.409 23574 153.538
117.526 22428 149.76
117.644 21651 147.143
117.761 22224 149.077
117.879 23522 153.369
117.996 24249 155.721
118.114 25069 158.332
118.231 25633 160.103
118.349 25693 160.29
118.466 26413 162.521
118.584 26795 163.692
118.701 26926 164.091
118.819 26985 164.271
118.936 26443 162.613
119.053 25929 161.025
119.171 24979 158.047
119.288 22955 151.509
119.405 21283 145.887
119.523 19741 140.503
119.64 20315 142.531
119.757 21835 147.767
119.875 23623 153.698
119.992 25340 159.185
120.109 25730 160.406
120.226 26260 162.049
120.343 26428 162.567
120.46 26615 163.141
120.578 26329 162.262
120.695 26254 162.031
120.812 25925 161.012
120.929 25304 159.072
121.046 24041 155.052
121.163 23371 152.876
121.279 22436 149.787
121.396 21939 148.118
121.513 22477 149.923
121.63 23443 153.111
121.747 24003 154.929
121.863 24833 157.585
121.98 25091 158.401
122.097 25398 159.367
122.213 25645 160.141
122.33 25995 161.23
122.446 26325 162.25
122.563 26206 161.883
122.679 25702 160.318
122.795 25512 159.725
122.912 24305 155.901
123.028 22570 150.233
123.144 20685 143.823
123.26 18984 137.782
123.377 0 1
123.493 0 1
123.609 0 1
123.725 0 1
123.84 0 1
123.956 0 1
124.072 0 1
124.188 0 1
124.303 0 1
124.419 0 1
126.852 0 1
126.968 0 1
127.083 0 1
127.199 0 1
127.315 0 1
127.431 0 1
127.547 0 1
127.663 0 1
127.779 0 1
127.895 0 1
128.011 0 1
128.127 0 1
128.243 0 1
128.359 22586 150.286
128.476 21447 146.448
128.592 21784 147.594
128.708 24326 155.968
128.825 26715 163.447
128.941 28369 168.431
129.058 29334 171.272
129.174 29483 171.706
129.291 29303 171.181
129.408 29428 171.546
129.524 29139 170.701
129.641 29129 170.672
129.758 28793 169.685
129.875 28129 167.717
129.992 27330 165.318
130.108 26202 161.87
130.225 25459 159.559
130.342 25167 158.641
130.459 24376 156.128
130.576 26355 162.342
130.693 27277 165.158
130.81 27851 166.886
130.928 27808 166.757
131.045 27625 166.208
131.162 28076 167.559
131.279 28650 169.263
131.396 28942 170.123
131.513 28422 168.588
131.631 28012 167.368
131.748 26296 162.16
131.865 23645 153.769
131.983 21334 146.062
132.1 21272 145.849
132.217 22937 151.45
132.335 25126 158.512
132.452 26994 164.299
132.57 28215 167.973
132.687 27422 165.596
132.804 29247 171.018
132.922 28300 168.226
133.039 28129 167.717
133.157 27950 167.183
133.274 27934 167.135
133.392 27696 166.421
133.509 26830 163.799
133.627 26212 161.901
133.744 25446 159.518
133.862 24542 156.659
133.979 24763 157.363
134.097 24829 157.572
134.214 25633 160.103
134.332 26097 161.546
134.449 26919 164.07
134.567 27454 165.692
134.684 27201 164.927
134.802 27611 166.166
134.919 27707 166.454
135.037 27583 166.081
135.154 27455 165.696
135.272 26611 163.129
135.389 24547 156.675
135.507 22034 148.439
135.624 20491 143.147
135.742 21228 145.698
135.859 23186 152.269
135.977 25170 158.651
136.094 27030 164.408
136.211 27427 165.611
136.329 27680 166.373
136.446 27704 166.445
136.564 27698 166.427
136.681 28328 168.309
136.798 27465 165.726
136.915 27829 166.82
137.033 27187 164.885
137.15 26892 163.988
137.267 26253 162.028
137.384 25360 159.248
137.502 24887 157.756
137.619 24389 156.17
137.736 24799 157.477
137.853 24614 156.888
137.97 25256 158.921
138.087 26802 163.713
138.204 26695 163.386
138.321 27009 164.344
138.438 27465 165.726
138.555 27458 165.705
138.672 27509 165.858
138.788 27499 165.828
138.905 26428 162.567
139.022 25100 158.43
139.139 22539 150.13
139.255 21078 145.183
139.372 21416 146.342
139.488 23139 152.115
139.605 25141 158.559
139.721 26823 163.777
139.838 27112 164.657
139.954 27743 166.562
140.071 27329 165.315
140.187 27972 167.248
140.303 27595 166.117
140.419 27408 165.554
140.535 27001 164.32
140.652 26752 163.56
140.768 0 1
140.884 0 1
141 0 1
141.115 0 1
141.231 0 1
141.347 0 1
141.463 0 1
141.578 0 1
141.694 0 1
144.104 0 1
144.219 0 1
144.335 0 1
144.45 0 1
144.566 0 1
144.682 0 1
144.798 0 1
144.914 0 1
145.03 0 1
145.146 24038 155.042
145.262 24207 155.586
145.378 24125 155.322
145.494 23776 154.195
145.61 23916 154.648
145.726 23603 153.633
145.842 23498 153.291
145.959 23055 151.839
146.075 22498 149.993
146.192 21836 147.77
146.308 21663 147.184
146.425 21524 146.711
146.541 21676 147.228
146.658 22035 148.442
146.774 22480 149.933
146.891 23122 152.059
147.008 22909 151.357
147.125 23141 152.122
147.241 22683 150.609
147.358 22439 149.797
147.475 21803 147.658
147.592 20747 144.038
147.709 19291 138.892
147.826 17281 131.457
147.943 17610 132.703
148.06 18628 136.484
148.177 20374 142.738
148.294 21537 146.755
148.411 22803 151.007
148.528 22646 150.486
148.645 22313 149.375
148.762 22692 150.639
148.88 22603 150.343
148.997 21351 146.12
149.114 22845 151.146
149.231 22380 149.599
149.349 22078 148.587
149.466 21537 146.755
149.583 21101 145.262
149.701 20646 143.687
149.818 20750 144.049
149.935 20294 142.457
150.053 19891 141.035
150.17 20087 141.729
150.287 20285 142.425
150.405 20711 143.913
150.522 21422 146.363
150.64 21536 146.751
150.757 21458 146.485
150.875 21410 146.322
150.992 21166 145.485
151.11 20178 142.049
151.227 19458 139.492
151.344 17861 133.645
151.462 16428 128.172
151.579 16637 128.984
151.697 17755 133.248
151.814 19782 140.648
151.932 20786 144.174
152.049 21741 147.448
152.167 21803 147.658
152.284 22105 148.678
152.402 21986 148.277
152.519 21723 147.387
152.636 21862 147.858
152.754 21906 148.007
152.871 21654 147.153
152.989 21441 146.427
153.106 21206 145.623
153.223 21015 144.966
153.341 20641 143.67
153.458 20557 143.377
153.575 20337 142.608
153.693 20004 141.435
153.81 20397 142.818
153.927 20601 143.53
154.044 20670 143.771
154.162 21466 146.513
154.279 21912 148.027
154.396 21521 146.7
154.513 21949 148.152
154.63 21448 146.451
154.747 20963 144.786
154.864 20211 142.165
154.981 19064 138.072
155.098 18209 134.941
155.215 17665 132.91
155.332 18735 136.876
155.449 20319 142.545
155.566 21573 146.877
155.683 21656 147.16
155.8 21803 147.658
155.917 22012 148.364
156.033 22154 148.842
156.15 0 1
156.267 0 1
156.383 0 1
156.5 0 1
156.617 0 1
156.733 0 1
156.85 0 1
156.966 0 1
157.082 0 1
157.199 0 1
157.315 0 1
157.431 0 1
157.547 0 1
157.664 0 1
157.78 0 1
157.896 0 1
158.012 0 1
158.128 0 1
158.244 0 1
158.359 0 1
158.475 0 1
158.591 0 1
158.706 0 1
