
6.15755 0 1
6.2731 0 1
6.3887 0 1
6.50437 0 1
6.62009 0 1
6.73587 0 1
6.8517 0 1
6.96759 0 1
7.08353 0 1
7.19952 0 1
7.31557 0 1
7.43166 0 1
7.54781 0 1
7.664 0 1
7.78024 0 1
7.89653 0 1
8.01286 0 1
8.12924 0 1
8.24567 0 1
8.36213 0 1
8.47864 0 1
8.59519 0 1
8.71178 0 1
8.82841 0 1
8.94508 0 1
9.06179 0 1
9.17853 0 1
9.29531 0 1
9.41212 0 1
9.52897 0 1
9.64584 0 1
9.76276 0 1
9.8797 0 1
9.99667 0 1
10.1137 0 1
10.2307 0 1
10.3478 0 1
10.4648 0 1
10.5819 0 1
10.6991 0 1
10.8162 0 1
10.9334 0 1
11.0506 0 1
11.1678 0 1
11.285 0 1
11.4023 0 1
11.5196 0 1
11.6369 0 1
11.7542 0 1
11.8715 0 1
11.9888 0 1
12.1062 0 1
12.2235 0 1
12.3409 0 1
12.4582 0 1
12.5756 0 1
12.693 0 1
12.8104 0 1
12.9278 0 1
13.0452 0 1
13.1626 0 1
13.28 0 1
13.3974 0 1
13.5149 0 1
13.6323 0 1
13.7497 0 1
13.8671 0 1
13.9845 0 1
14.1019 0 1
14.2193 0 1
14.3367 0 1
14.4541 0 1
14.5714 0 1
14.6888 0 1
14.8062 0 1
14.9235 0 1
15.0408 10174 100.866
15.1581 10645 103.175
15.2755 10817 104.005
15.3927 10917 104.484
15.51 10667 103.281
15.6273 10393 101.946
15.7445 10304 101.509
15.8617 10182 100.906
15.9789 10012 100.06
16.0961 10039 100.195
16.2132 10096 100.479
16.3304 10310 101.538
16.4475 10109 100.544
16.5646 10397 101.966
16.6816 10477 102.357
16.7986 10576 102.84
16.9156 10650 103.199
17.0326 10571 102.815
17.1496 10710 103.489
17.2665 10920 104.499
17.3833 10818 104.01
17.5002 11050 105.119
17.617 11209 105.873
17.7338 11323 106.41
17.8505 11528 107.369
17.9672 11972 109.417
18.0839 12258 110.716
18.2005 12894 113.552
18.3171 13341 115.503
18.4337 13437 115.918
18.5502 13593 116.589
18.6666 13647 116.82
18.7831 13326 115.438
18.8994 13248 115.1
19.0158 12747 112.903
19.1321 12111 110.05
19.2483 11568 107.555
19.3645 11192 105.792
19.4806 10936 104.575
19.5967 10753 103.697
19.7128 10478 102.362
19.8288 10281 101.395
19.9447 9100 95.3939
20.0606 0 1
20.1764 0 1
20.2922 0 1
20.4079 0 1
20.5236 0 1
20.6392 0 1
20.7548 0 1
20.8702 0 1
23.3078 0 1
23.4233 0 1
23.539 0 1
23.6547 0 1
23.7704 0 1
23.8862 0 1
24.0021 0 1
24.118 0 1
24.234 0 1
24.35 0 1
24.4661 10581 102.864
24.5822 10264 101.311
24.6984 10492 102.43
24.8146 10552 102.723
24.9309 10386 101.912
25.0472 10612 103.015
25.1636 10629 103.097
25.28 10645 103.175
25.3965 10846 104.144
25.513 11254 106.085
25.6296 11504 107.257
25.7462 11646 107.917
25.8628 11615 107.773
25.9795 12119 110.086
26.0962 11758 108.434
26.213 11895 109.064
26.3298 12128 110.127
26.4466 12201 110.458
26.5635 12196 110.436
26.6804 12547 112.013
26.7973 12769 113
26.9143 12823 113.239
27.0313 12829 113.265
27.1483 13153 114.687
27.2653 12861 113.406
27.3824 12876 113.472
27.4996 12757 112.947
27.6167 12150 110.227
27.7339 11388 106.715
27.8511 11218 105.915
27.9683 10569 102.806
28.0855 10448 102.215
28.2028 10174 100.866
28.3201 10099 100.494
28.4374 10091 100.454
28.5547 10199 100.99
28.6721 10542 102.674
28.7894 10491 102.426
28.9068 10542 102.674
29.0242 10513 102.533
29.1416 10676 103.325
29.259 10585 102.883
29.3764 10739 103.629
29.4939 10828 104.058
29.6113 10748 103.673
29.7288 11171 105.693
29.8463 11076 105.243
29.9638 11446 106.986
30.0812 11695 108.143
30.1987 11825 108.743
30.3162 12188 110.399
30.4337 12398 111.346
30.5512 12232 110.598
30.6687 12106 110.027
30.7862 12148 110.218
30.9037 11899 109.083
31.0212 11815 108.697
31.1387 11420 106.864
31.2562 11022 104.986
31.3737 10457 102.259
31.4912 10237 101.178
31.6087 9873 99.363
31.7262 9726 98.6205
31.8436 9664 98.3056
31.9611 9668 98.326
32.0785 9670 98.3362
32.1959 9917 99.5841
32.3134 9971 99.8549
32.4308 10258 101.282
32.5482 10339 101.681
32.6655 10611 103.01
32.7829 10225 101.119
32.9002 10340 101.686
33.0176 10464 102.294
33.1349 10459 102.269
33.2522 10432 102.137
33.3694 10611 103.01
33.4867 10652 103.209
33.6039 10894 104.374
33.7211 11202 105.84
33.8383 11280 106.207
33.9554 11466 107.079
34.0725 11490 107.191
34.1896 11041 105.076
34.3067 11184 105.754
34.4237 11132 105.508
34.5407 11202 105.84
34.6577 11038 105.062
34.7746 10640 103.15
34.8915 10335 101.661
35.0084 9884 99.4183
35.1252 9634 98.1529
35.242 9400 96.9536
35.3587 9096 95.373
35.4755 9072 95.247
35.5921 9422 97.067
35.7088 9324 96.5609
35.8254 9681 98.3921
35.9419 9807 99.0303
36.0584 9888 99.4384
36.1749 10237 101.178
36.2913 9832 99.1564
36.4077 10101 100.504
36.524 9805 99.0202
36.6403 9665 98.3107
36.7565 9781 98.8989
36.8727 9822 99.106
36.9889 9759 98.7877
37.1049 9789 98.9394
37.221 0 1
37.3369 0 1
37.4529 0 1
37.5687 0 1
37.6845 0 1
37.8003 0 1
37.916 0 1
38.0316 0 1
38.1472 0 1
40.5851 0 1
40.7008 0 1
40.8164 0 1
40.9322 0 1
41.048 0 1
41.1639 0 1
41.2798 0 1
41.3958 0 1
41.5118 0 1
41.6279 0 1
41.744 7546 86.8677
41.8602 8202 90.5649
41.9765 8393 91.6133
42.0928 8459 91.9728
42.2091 8459 91.9728
42.3255 8642 92.9624
42.4419 8844 94.0425
42.5584 9004 94.8894
42.675 8939 94.5463
42.7915 9129 95.5458
42.9081 9316 96.5194
43.0248 9113 95.462
43.1415 9446 97.1905
43.2582 9250 96.1769
43.375 9374 96.8194
43.4918 9403 96.9691
43.6087 9521 97.5756
43.7256 9171 95.7653
43.8425 9029 95.0211
43.9595 8827 93.9521
44.0765 8663 93.0752
44.1935 8298 91.0934
44.3106 8281 91
44.4277 8278 90.9835
44.5448 8183 90.4599
44.6619 8252 90.8405
44.7791 8113 90.0722
44.8963 7991 89.3924
45.0136 7663 87.5386
45.1308 7651 87.47
45.2481 7611 87.241
45.3654 7482 86.4986
45.4827 7366 85.8254
45.6001 7058 84.0119
45.7174 7029 83.8391
45.8348 6838 82.6922
45.9522 6702 81.8657
46.0697 6619 81.3572
46.1871 6523 80.7651
46.3046 6503 80.6412
46.422 6423 80.1436
46.5395 6323 79.5173
46.657 6308 79.4229
46.7745 6281 79.2528
46.892 6211 78.8099
47.0096 6488 80.5481
47.1271 6239 78.9873
47.2446 6168 78.5366
47.3622 5740 75.7628
47.4797 5666 75.2728
47.5973 5785 76.0592
47.7149 5669 75.2928
47.8324 5534 74.3909
47.95 5527 74.3438
48.0675 5325 72.9726
48.1851 5339 73.0685
48.3027 5258 72.5121
48.4202 5118 71.5402
48.5378 5083 71.2952
48.6554 5078 71.2601
48.7729 4946 70.3278
48.8904 5185 72.0069
49.008 4986 70.6116
49.1255 4920 70.1427
49.243 4893 69.95
49.3605 5016 70.8237
49.478 5023 70.8731
49.5955 5035 70.9577
49.713 5037 70.9718
49.8304 5165 71.8679
49.9479 5274 72.6223
50.0653 5265 72.5603
50.1827 5253 72.4776
50.3001 5543 74.4513
50.4175 5741 75.7694
50.5348 5631 75.04
50.6521 5839 76.4133
50.7694 5857 76.531
50.8867 6101 78.1089
51.004 6085 78.0064
51.1212 6253 79.0759
51.2384 6431 80.1935
51.3556 6461 80.3803
51.4727 6529 80.8022
51.5899 6568 81.0432
51.707 6622 81.3757
51.824 6530 80.8084
51.9411 6588 81.1665
52.0581 6424 80.1499
52.175 6653 81.5659
52.2919 6541 80.8764
52.4088 6576 81.0925
52.5257 6414 80.0875
52.6425 6406 80.0375
52.7593 6532 80.8208
52.876 6534 80.8332
52.9927 6659 81.6027
53.1094 6890 83.006
53.226 7086 84.1784
53.3426 7101 84.2674
53.4591 7387 85.9477
53.5756 7448 86.3018
53.692 7586 87.0976
53.8084 7876 88.7468
53.9248 7978 89.3197
54.0411 8065 89.8053
54.1573 8141 90.2275
54.2735 0 1
54.3896 0 1
54.5057 0 1
54.6217 0 1
54.7377 0 1
54.8537 0 1
54.9695 0 1
55.0853 0 1
55.2011 0 1
55.3168 0 1
55.4324 0 1
57.824 0 1
57.9396 0 1
58.0553 0 1
58.1711 0 1
58.2869 0 1
58.4028 0 1
58.5187 0 1
58.6347 0 1
58.7508 0 1
58.8669 0 1
58.983 8985 94.7892
59.0992 9524 97.591
59.2155 9799 98.9899
59.3318 10032 100.16
59.4482 10226 101.124
59.5646 10574 102.83
59.681 10806 103.952
59.7975 10707 103.475
59.9141 10684 103.363
60.0306 10365 101.809
60.1473 10418 102.069
60.2639 10080 100.399
60.3807 9723 98.6053
60.4974 9384 96.871
60.6142 9118 95.4882
60.731 8685 93.1933
60.8479 8203 90.5704
60.9648 7946 89.1403
61.0818 8042 89.6772
61.1987 7756 88.0682
61.3158 7869 88.7074
61.4328 8126 90.1443
61.5499 8249 90.824
61.667 8461 91.9837
61.7841 8456 91.9565
61.9013 8556 92.4986
62.0185 8698 93.2631
62.1357 8858 94.1169
62.253 8833 93.984
62.3702 8907 94.3769
62.4875 8903 94.3557
62.6049 8812 93.8723
62.7222 9226 96.0521
62.8396 9491 97.4218
62.9569 10044 100.22
63.0743 10091 100.454
63.1918 10272 101.351
63.3092 10184 100.916
63.4267 9955 99.7747
63.5441 10058 100.29
63.6616 9685 98.4124
63.7791 9283 96.3483
63.8966 8920 94.4458
64.0142 8516 92.2822
64.1317 8169 90.3825
64.2492 7789 88.2553
64.3668 7409 86.0755
64.4843 7307 85.481
64.6019 7049 83.9583
64.7195 7048 83.9524
64.837 7132 84.4512
64.9546 7356 85.7671
65.0722 7597 87.1608
65.1898 7640 87.4071
65.3074 8019 89.5489
65.4249 7926 89.0281
65.5425 7910 88.9382
65.6601 8196 90.5318
65.7777 8196 90.5318
65.8952 8293 91.0659
66.0128 8446 91.9021
66.1304 8616 92.8224
66.2479 8860 94.1276
66.3655 9185 95.8384
66.483 9687 98.4226
66.6005 9662 98.2955
66.718 9838 99.1867
66.8355 9690 98.4378
66.953 9961 99.8048
67.0705 9554 97.7446
67.1879 9439 97.1545
67.3054 9432 97.1185
67.4228 8814 93.8829
67.5402 7970 89.2749
67.6576 7700 87.7496
67.7749 7123 84.3979
67.8923 7100 84.2615
68.0096 7222 84.9824
68.1269 6945 83.3367
68.2442 6952 83.3787
68.3614 7026 83.8212
68.4787 7090 84.2021
68.5958 7531 86.7813
68.713 7865 88.6848
68.8302 7848 88.5889
68.9473 8025 89.5824
69.0643 7930 89.0505
69.1814 8041 89.6716
69.2984 8404 91.6733
69.4154 8420 91.7606
69.5323 8555 92.4932
69.6492 8886 94.2656
69.7661 9200 95.9166
69.8829 9373 96.8143
69.9997 9772 98.8534
70.1165 10409 102.025
70.2332 10472 102.333
70.3499 10591 102.913
70.4665 10357 101.769
70.5831 10347 101.72
70.6996 10229 101.139
70.8161 10088 100.439
70.9326 9566 97.8059
71.049 8861 94.1329
71.1653 8187 90.482
71.2817 7779 88.1986
71.3979 7356 85.7671
71.5141 7038 83.8928
71.6303 7064 84.0476
71.7464 6543 80.8888
71.8624 0 1
71.9784 0 1
72.0944 0 1
72.2102 0 1
72.3261 0 1
72.4418 0 1
72.5575 0 1
72.6732 0 1
75.1054 0 1
75.2209 0 1
75.3365 0 1
75.4521 0 1
75.5678 0 1
75.6835 0 1
75.7993 0 1
75.9151 0 1
76.031 0 1
76.147 8768 93.6376
76.263 8784 93.723
76.3791 8412 91.717
76.4952 7891 88.8313
76.6113 7748 88.0227
76.7276 7536 86.8101
76.8438 7563 86.9655
76.9601 7520 86.7179
77.0765 7528 86.764
77.1929 7448 86.3018
77.3093 7242 85.0999
77.4258 7493 86.5621
77.5423 7857 88.6397
77.6589 7807 88.3572
77.7755 8064 89.7998
77.8921 7940 89.1067
78.0088 8092 89.9555
78.1256 8099 89.9944
78.2423 8207 90.5925
78.3591 8446 91.9021
78.4759 8582 92.6391
78.5928 8904 94.361
78.7097 9207 95.9531
78.8266 9620 98.0816
78.9436 10133 100.663
79.0606 10059 100.295
79.1776 10008 100.04
79.2946 10249 101.237
79.4117 10313 101.553
79.5288 10193 100.96
79.6459 9798 98.9848
79.7631 9440 97.1597
79.8802 8930 94.4987
79.9974 8382 91.5533
80.1147 8037 89.6493
80.2319 7565 86.977
80.3491 7579 87.0575
80.4664 7561 86.954
80.5837 7268 85.2526
80.701 7470 86.4292
80.8183 7277 85.3053
80.9357 7237 85.0706
81.053 7350 85.7321
81.1704 7637 87.3899
81.2877 7911 88.9438
81.4051 7776 88.1816
81.5225 7622 87.3041
81.6399 7756 88.0682
81.7573 8012 89.5098
81.8747 7866 88.6905
81.9922 8213 90.6256
82.1096 8589 92.6769
82.227 9184 95.8332
82.3444 9328 96.5816
82.4619 9955 99.7747
82.5793 10309 101.533
82.6967 10118 100.588
82.8142 10092 100.459
82.9316 10269 101.336
83.049 10239 101.188
83.1664 10217 101.079
83.2838 9704 98.5089
83.4012 9152 95.6661
83.5186 8479 92.0815
83.636 8135 90.1942
83.7534 7801 88.3233
83.8708 7549 86.885
83.9881 7595 87.1493
84.1055 7342 85.6855
84.2228 7689 87.6869
84.3401 7463 86.3887
84.4575 7459 86.3655
84.5747 7549 86.885
84.692 7801 88.3233
84.8093 8138 90.2109
84.9265 8106 90.0333
85.0437 8218 90.6532
85.1609 8092 89.9555
85.2781 8070 89.8332
85.3952 8250 90.8295
85.5123 8573 92.5905
85.6294 8834 93.9894
85.7465 9153 95.6713
85.8636 9832 99.1564
85.9806 10130 100.648
86.0976 10797 103.909
86.2145 10792 103.885
86.3315 10802 103.933
86.4484 10970 104.738
86.5652 10976 104.766
86.682 11199 105.825
86.7988 10998 104.871
86.9156 10321 101.592
87.0323 9843 99.2119
87.149 8960 94.6573
87.2657 8817 93.8989
87.3823 8628 92.887
87.4988 8387 91.5806
87.6154 8290 91.0494
87.7318 8128 90.1554
87.8483 8228 90.7083
87.9647 8187 90.482
88.081 8252 90.8405
88.1973 8443 91.8858
88.3136 8603 92.7524
88.4298 8831 93.9734
88.546 8672 93.1236
88.6621 8544 92.4338
88.7781 8419 91.7551
88.8942 0 1
89.0101 0 1
89.126 0 1
89.2419 0 1
89.3577 0 1
89.4734 0 1
89.5891 0 1
89.7047 0 1
89.8203 0 1
89.9358 0 1
92.3269 0 1
92.4424 0 1
92.558 0 1
92.6736 0 1
92.7893 0 1
92.905 0 1
93.0208 0 1
93.1366 0 1
93.2525 0 1
93.3685 0 1
93.4845 0 1
93.6005 8102 90.0111
93.7167 8188 90.4876
93.8328 8146 90.2552
93.949 8239 90.7689
94.0653 8254 90.8515
94.1816 8250 90.8295
94.2979 8504 92.2171
94.4143 8648 92.9946
94.5307 9093 95.3572
94.6472 9422 97.067
94.7637 9752 98.7522
94.8803 10126 100.628
94.9969 10382 101.892
95.1135 10845 104.139
95.2302 10588 102.898
95.3469 10491 102.426
95.4637 10595 102.932
95.5805 10392 101.941
95.6973 10519 102.562
95.8142 10316 101.568
95.9311 9933 99.6644
96.048 9377 96.8349
96.1649 9042 95.0894
96.2819 8954 94.6256
96.3989 8665 93.086
96.516 8343 91.34
96.633 8336 91.3017
96.7501 8216 90.6422
96.8673 8202 90.5649
96.9844 8053 89.7385
97.1016 8051 89.7274
97.2188 7933 89.0674
97.336 8309 91.1537
97.4532 8307 91.1427
97.5704 7905 88.9101
97.6877 8063 89.7942
97.805 7979 89.3252
97.9223 7896 88.8594
98.0396 8198 90.5428
98.1569 8357 91.4166
98.2743 8660 93.0591
98.3916 9003 94.8841
98.509 9513 97.5346
98.6264 9655 98.2599
98.7438 10045 100.225
98.8612 10223 101.109
98.9786 10130 100.648
99.096 10352 101.745
99.2134 10363 101.799
99.3308 10334 101.656
99.4482 10028 100.14
99.5656 9838 99.1867
99.6831 9426 97.0876
99.8005 8978 94.7523
99.9179 8740 93.488
100.035 8356 91.4112
100.153 8043 89.6828
100.27 8017 89.5377
100.388 7761 88.0965
100.505 7761 88.0965
100.622 7600 87.178
100.74 7676 87.6128
100.857 7698 87.7382
100.975 7822 88.4421
101.092 7982 89.342
101.209 7676 87.6128
101.327 7640 87.4071
101.444 7769 88.1419
101.561 7800 88.3176
101.679 8167 90.3715
101.796 8414 91.7279
101.913 8936 94.5304
102.03 9498 97.4577
102.148 9978 99.8899
102.265 9767 98.8281
102.382 11577 107.596
102.499 10684 103.363
102.616 10514 102.538
102.733 10860 104.211
102.851 10760 103.73
102.968 10879 104.302
103.085 10636 103.131
103.202 10273 101.356
103.319 9602 97.9898
103.436 9312 96.4987
103.552 9124 95.5196
103.669 8954 94.6256
103.786 9053 95.1473
103.903 8622 92.8547
104.02 8594 92.7038
104.137 8535 92.3851
104.253 8384 91.5642
104.37 8560 92.5203
104.487 8679 93.1612
104.603 8623 92.8601
104.72 8170 90.3881
104.836 8396 91.6297
104.953 8545 92.4392
105.069 8609 92.7847
105.186 9055 95.1578
105.302 9399 96.9484
105.418 10159 100.792
105.535 10546 102.694
105.651 11063 105.181
105.767 11114 105.423
105.883 10931 104.551
105.999 10670 103.296
106.115 0 1
106.231 0 1
106.347 0 1
106.463 0 1
106.579 0 1
106.694 0 1
106.81 0 1
106.926 0 1
107.041 0 1
107.157 0 1
109.576 0 1
109.692 0 1
109.807 0 1
109.923 0 1
110.039 0 1
110.155 0 1
110.27 0 1
110.386 0 1
110.502 0 1
110.618 8793 93.771
110.735 9649 98.2293
110.851 9717 98.5748
110.967 9618 98.0714
111.083 9228 96.0625
111.199 9315 96.5142
111.316 9710 98.5393
111.432 9953 99.7647
111.549 9730 98.6408
111.665 9509 97.5141
111.782 9397 96.9381
111.898 8753 93.5575
112.015 8418 91.7497
112.132 8188 90.4876
112.248 8002 89.4539
112.365 7829 88.4816
112.482 7754 88.0568
112.599 6998 83.654
112.716 7088 84.1903
112.832 6894 83.0301
112.949 6996 83.6421
113.066 6619 81.3572
113.183 6586 81.1542
113.3 6576 81.0925
113.417 6594 81.2034
113.534 6492 80.5729
113.652 6686 81.768
113.769 6941 83.3127
113.886 7130 84.4393
114.003 7593 87.1378
114.12 7618 87.2812
114.238 7922 89.0056
114.355 8117 90.0944
114.472 7839 88.5381
114.589 7420 86.1394
114.707 7524 86.741
114.824 7606 87.2124
114.942 8009 89.493
115.059 7883 88.7863
115.176 7572 87.0172
115.294 7485 86.5159
115.411 7063 84.0417
115.529 6883 82.9638
115.646 6663 81.6272
115.764 6454 80.3368
115.881 6127 78.2752
115.999 5961 77.2075
116.116 5608 74.8866
116.234 5585 74.7329
116.351 5331 73.0137
116.469 5370 73.2803
116.586 5175 71.9375
116.704 5101 71.4213
116.821 5088 71.3302
116.939 5064 71.1618
117.056 5402 73.4983
117.174 5548 74.4849
117.291 5791 76.0986
117.409 5872 76.629
117.526 5799 76.1512
117.644 5930 77.0065
117.761 6188 78.6638
117.879 6396 79.975
117.996 6406 80.0375
118.114 6294 79.3347
118.231 6126 78.2688
118.349 6251 79.0633
118.466 6576 81.0925
118.584 6844 82.7285
118.701 6785 82.3711
118.819 6720 81.9756
118.936 6596 81.2158
119.053 6504 80.6474
119.171 6504 80.6474
119.288 6278 79.2338
119.405 6241 79
119.523 6193 78.6956
119.64 5928 76.9935
119.757 5885 76.7138
119.875 5709 75.5579
119.992 5671 75.306
120.109 5377 73.328
120.226 5368 73.2666
120.343 5407 73.5323
120.46 5405 73.5187
120.578 5536 74.4043
120.695 6026 77.6273
120.812 6393 79.9562
120.929 6416 80.0999
121.046 6534 80.8332
121.163 6791 82.4075
121.279 6828 82.6317
121.396 6894 83.0301
121.513 7246 85.1234
121.63 7287 85.3639
121.747 6952 83.3787
121.863 6568 81.0432
121.98 6634 81.4494
122.097 6934 83.2706
122.213 7561 86.954
122.33 7821 88.4364
122.446 8040 89.666
122.563 8015 89.5265
122.679 7999 89.4371
122.795 7723 87.8806
122.912 7817 88.4138
123.028 7470 86.4292
123.144 7464 86.3944
123.26 7211 84.9176
123.377 0 1
123.493 0 1
123.609 0 1
123.725 0 1
123.84 0 1
123.956 0 1
124.072 0 1
124.188 0 1
124.303 0 1
124.419 0 1
126.852 0 1
126.968 0 1
127.083 0 1
127.199 0 1
127.315 0 1
127.431 0 1
127.547 0 1
127.663 0 1
127.779 0 1
127.895 0 1
128.011 0 1
128.127 0 1
128.243 0 1
128.359 9232 96.0833
128.476 8858 94.1169
128.592 8660 93.0591
128.708 8586 92.6607
128.825 8384 91.5642
128.941 8040 89.666
129.058 8044 89.6883
129.174 7742 87.9886
129.291 7751 88.0398
129.408 7513 86.6776
129.524 7670 87.5785
129.641 7685 87.6641
129.758 7770 88.1476
129.875 7705 87.7781
129.992 7854 88.6228
130.108 7943 89.1235
130.225 7976 89.3085
130.342 8231 90.7249
130.459 8206 90.587
130.576 8046 89.6995
130.693 7515 86.6891
130.81 6680 81.7313
130.928 6150 78.4219
131.045 6980 83.5464
131.162 7792 88.2723
131.279 8247 90.813
131.396 8417 91.7442
131.513 8137 90.2053
131.631 8137 90.2053
131.748 8159 90.3272
131.865 8073 89.8499
131.983 7780 88.2043
132.1 7835 88.5155
132.217 7660 87.5214
132.335 7479 86.4812
132.452 7165 84.6463
132.57 7046 83.9405
132.687 6810 82.5227
132.804 7107 84.303
132.922 6838 82.6922
133.039 6726 82.0122
133.157 6742 82.1097
133.274 6656 81.5843
133.392 6530 80.8084
133.509 6621 81.3695
133.627 6579 81.111
133.744 6462 80.3866
133.862 6780 82.3408
133.979 6624 81.388
134.097 6379 79.8686
134.214 6085 78.0064
134.332 5079 71.2671
134.449 4750 68.9202
134.567 5460 73.8918
134.684 6129 78.2879
134.802 6295 79.341
134.919 6349 79.6806
135.037 6306 79.4103
135.154 6254 79.0822
135.272 6155 78.4538
135.389 6185 78.6448
135.507 6307 79.4166
135.624 5885 76.7138
135.742 5911 76.883
135.859 5589 74.7596
135.977 5592 74.7797
136.094 5542 74.4446
136.211 5315 72.904
136.329 5315 72.904
136.446 5165 71.8679
136.564 5144 71.7217
136.681 4961 70.4344
136.798 4999 70.7036
136.915 4982 70.5833
137.033 5070 71.2039
137.15 5015 70.8167
137.267 5238 72.374
137.384 5235 72.3533
137.502 5291 72.7393
137.619 5237 72.3671
137.736 5124 71.5821
137.853 4239 65.1076
137.97 3685 60.7042
138.087 4049 63.6318
138.204 4964 70.4557
138.321 5396 73.4575
138.438 5600 74.8331
138.555 5742 75.776
138.672 5679 75.3591
138.788 5823 76.3086
138.905 5830 76.3544
139.022 5917 76.922
139.139 6012 77.5371
139.255 5956 77.1751
139.372 6058 77.8332
139.488 6016 77.5629
139.605 6214 78.8289
139.721 6190 78.6766
139.838 6164 78.5111
139.954 6246 79.0316
140.071 6030 77.6531
140.187 6228 78.9177
140.303 5963 77.2205
140.419 6059 77.8396
140.535 6056 77.8203
140.652 6102 78.1153
140.768 0 1
140.884 0 1
141 0 1
141.115 0 1
141.231 0 1
141.347 0 1
141.463 0 1
141.578 0 1
141.694 0 1
144.104 0 1
144.219 0 1
144.335 0 1
144.45 0 1
144.566 0 1
144.682 0 1
144.798 0 1
144.914 0 1
145.03 0 1
145.146 5075 71.239
145.262 5002 70.7248
145.378 4857 69.6922
145.494 4960 70.4273
145.61 4750 68.9202
145.726 4810 69.3542
145.842 4675 68.374
145.959 4733 68.7968
146.075 4578 67.6609
146.192 4769 69.0579
146.308 4698 68.542
146.425 4454 66.7383
146.541 4063 63.7417
146.658 3777 61.4573
146.774 3484 59.0254
146.891 3884 62.3217
147.008 4123 64.2106
147.125 4290 65.4981
147.241 4234 65.0692
147.358 4329 65.7951
147.475 4262 65.284
147.592 4138 64.3273
147.709 4107 64.0859
147.826 4040 63.561
147.943 3913 62.554
148.06 4038 63.5453
148.177 3917 62.5859
148.294 3900 62.45
148.411 3788 61.5467
148.528 3806 61.6928
148.645 3646 60.3821
148.762 3685 60.7042
148.88 3415 58.438
148.997 3635 60.291
149.114 3173 56.3294
149.231 3309 57.5239
149.349 3331 57.7148
149.466 3379 58.1292
149.583 3397 58.2838
149.701 3413 58.4209
149.818 3320 57.6194
149.935 3230 56.8331
150.053 3173 56.3294
150.17 3014 54.8999
150.287 2923 54.0648
150.405 3006 54.827
150.522 3240 56.921
150.64 3350 57.8792
150.757 3391 58.2323
150.875 3443 58.6771
150.992 3481 59
151.11 3462 58.8388
151.227 3369 58.0431
151.344 3408 58.3781
151.462 3330 57.7062
151.579 3355 57.9224
151.697 3388 58.2065
151.814 3390 58.2237
151.932 3330 57.7062
152.049 3290 57.3585
152.167 3153 56.1516
152.284 3248 56.9912
152.402 3088 55.5698
152.519 3129 55.9375
152.636 3155 56.1694
152.754 3085 55.5428
152.871 3247 56.9825
152.989 3273 57.2101
153.106 3296 57.4108
153.223 3294 57.3934
153.341 3320 57.6194
153.458 3372 58.0689
153.575 3282 57.2887
153.693 3335 57.7495
153.81 3248 56.9912
153.927 3246 56.9737
154.044 3451 58.7452
154.162 3623 60.1914
154.279 3781 61.4898
154.396 3933 62.7136
154.513 3937 62.7455
154.63 4064 63.7495
154.747 4078 63.8592
154.864 4088 63.9375
154.981 4120 64.1872
155.098 4069 63.7887
155.215 4007 63.3009
155.332 4025 63.4429
155.449 3888 62.3538
155.566 4048 63.6239
155.683 3885 62.3298
155.8 3767 61.3759
155.917 3645 60.3738
156.033 3601 60.0083
156.15 0 1
156.267 0 1
156.383 0 1
156.5 0 1
156.617 0 1
156.733 0 1
156.85 0 1
156.966 0 1
157.082 0 1
157.199 0 1
157.315 0 1
157.431 0 1
157.547 0 1
157.664 0 1
157.78 0 1
157.896 0 1
158.012 0 1
158.128 0 1
158.244 0 1
158.359 0 1
158.475 0 1
158.591 0 1
158.706 0 1
