
6.15755 0 1
6.2731 0 1
6.3887 0 1
6.50437 0 1
6.62009 0 1
6.73587 0 1
6.8517 0 1
6.96759 0 1
7.08353 0 1
7.19952 0 1
7.31557 0 1
7.43166 0 1
7.54781 0 1
7.664 0 1
7.78024 0 1
7.89653 0 1
8.01286 0 1
8.12924 0 1
8.24567 0 1
8.36213 0 1
8.47864 0 1
8.59519 0 1
8.71178 0 1
8.82841 0 1
8.94508 0 1
9.06179 0 1
9.17853 0 1
9.29531 0 1
9.41212 0 1
9.52897 0 1
9.64584 0 1
9.76276 0 1
9.8797 0 1
9.99667 0 1
10.1137 0 1
10.2307 0 1
10.3478 0 1
10.4648 0 1
10.5819 0 1
10.6991 0 1
10.8162 0 1
10.9334 0 1
11.0506 0 1
11.1678 0 1
11.285 0 1
11.4023 0 1
11.5196 0 1
11.6369 0 1
11.7542 0 1
11.8715 0 1
11.9888 0 1
12.1062 0 1
12.2235 0 1
12.3409 0 1
12.4582 0 1
12.5756 0 1
12.693 0 1
12.8104 0 1
12.9278 0 1
13.0452 0 1
13.1626 0 1
13.28 0 1
13.3974 0 1
13.5149 0 1
13.6323 0 1
13.7497 0 1
13.8671 0 1
13.9845 0 1
14.1019 0 1
14.2193 0 1
14.3367 0 1
14.4541 0 1
14.5714 0 1
14.6888 0 1
14.8062 0 1
14.9235 0 1
15.0408 0 0
15.1581 0 0
15.2755 0 0
15.3927 0 0
15.51 0 0
15.6273 0 0
15.7445 0 0
15.8617 0 0
15.9789 0 0
16.0961 0 0
16.2132 0 0
16.3304 0 0
16.4475 0 0
16.5646 0 0
16.6816 0 0
16.7986 0 0
16.9156 0 0
17.0326 0 0
17.1496 0 0
17.2665 0 0
17.3833 0 0
17.5002 0 0
17.617 0 0
17.7338 0 0
17.8505 0 0
17.9672 0 0
18.0839 0 0
18.2005 0 0
18.3171 0 0
18.4337 0 0
18.5502 0 0
18.6666 0 0
18.7831 0 0
18.8994 0 0
19.0158 0 0
19.1321 0 0
19.2483 0 0
19.3645 0 0
19.4806 0 0
19.5967 0 0
19.7128 0 0
19.8288 0 0
19.9447 0 0
20.0606 0 1
20.1764 0 1
20.2922 0 1
20.4079 0 1
20.5236 0 1
20.6392 0 1
20.7548 0 1
20.8702 0 1
23.3078 0 1
23.4233 0 1
23.539 0 1
23.6547 0 1
23.7704 0 1
23.8862 0 1
24.0021 0 1
24.118 0 1
24.234 0 1
24.35 0 1
24.4661 1699 41.2189
24.5822 1613 40.1622
24.6984 1627 40.3361
24.8146 1530 39.1152
24.9309 1462 38.2361
25.0472 1497 38.6911
25.1636 1549 39.3573
25.28 1612 40.1497
25.3965 1710 41.3521
25.513 1753 41.8688
25.6296 1823 42.6966
25.7462 1886 43.4281
25.8628 1957 44.238
25.9795 1870 43.2435
26.0962 1872 43.2666
26.213 1954 44.2041
26.3298 1720 41.4729
26.4466 1788 42.2847
26.5635 1738 41.6893
26.6804 1618 40.2244
26.7973 1654 40.6694
26.9143 1675 40.9268
27.0313 1700 41.2311
27.1483 1786 42.2611
27.2653 1883 43.3935
27.3824 1920 43.8178
27.4996 1876 43.3128
27.6167 1884 43.4051
27.7339 1818 42.638
27.8511 1805 42.4853
27.9683 1747 41.7971
28.0855 1740 41.7133
28.2028 1723 41.509
28.3201 1557 39.4588
28.4374 1570 39.6232
28.5547 1571 39.6358
28.6721 1579 39.7366
28.7894 1501 38.7427
28.9068 1675 40.9268
29.0242 1659 40.7308
29.1416 1702 41.2553
29.259 1763 41.9881
29.3764 1834 42.8252
29.4939 1801 42.4382
29.6113 1752 41.8569
29.7288 1715 41.4126
29.8463 1714 41.4005
29.9638 1734 41.6413
30.0812 1715 41.4126
30.1987 1622 40.2741
30.3162 1495 38.6652
30.4337 1657 40.7063
30.5512 1686 41.0609
30.6687 1717 41.4367
30.7862 1806 42.4971
30.9037 1758 41.9285
31.0212 1823 42.6966
31.1387 1830 42.7785
31.2562 1852 43.0349
31.3737 1733 41.6293
31.4912 1699 41.2189
31.6087 1676 40.939
31.7262 1653 40.6571
31.8436 1613 40.1622
31.9611 1495 38.6652
32.0785 1512 38.8844
32.1959 1472 38.3667
32.3134 1499 38.7169
32.4308 1614 40.1746
32.5482 1601 40.0125
32.6655 1758 41.9285
32.7829 1766 42.0238
32.9002 1920 43.8178
33.0176 1732 41.6173
33.1349 1810 42.5441
33.2522 1757 41.9166
33.3694 1787 42.2729
33.4867 1667 40.8289
33.6039 1667 40.8289
33.7211 1704 41.2795
33.8383 1604 40.05
33.9554 1593 39.9124
34.0725 1645 40.5586
34.1896 1750 41.833
34.3067 1781 42.2019
34.4237 1802 42.45
34.5407 1826 42.7317
34.6577 1878 43.3359
34.7746 1842 42.9185
34.8915 1824 42.7083
35.0084 1767 42.0357
35.1252 1715 41.4126
35.242 1702 41.2553
35.3587 1753 41.8688
35.4755 1668 40.8412
35.5921 1506 38.8072
35.7088 1509 38.8458
35.8254 1425 37.7492
35.9419 1496 38.6782
36.0584 1539 39.2301
36.1749 1609 40.1123
36.2913 1728 41.5692
36.4077 1753 41.8688
36.524 1749 41.821
36.6403 1816 42.6146
36.7565 1834 42.8252
36.8727 1789 42.2966
36.9889 1736 41.6653
37.1049 1779 42.1782
37.221 0 1
37.3369 0 1
37.4529 0 1
37.5687 0 1
37.6845 0 1
37.8003 0 1
37.916 0 1
38.0316 0 1
38.1472 0 1
40.5851 0 1
40.7008 0 1
40.8164 0 1
40.9322 0 1
41.048 0 1
41.1639 0 1
41.2798 0 1
41.3958 0 1
41.5118 0 1
41.6279 0 1
41.744 1507 38.8201
41.8602 1563 39.5348
41.9765 1541 39.2556
42.0928 1538 39.2173
42.2091 1568 39.598
42.3255 1515 38.923
42.4419 1462 38.2361
42.5584 1497 38.6911
42.675 1379 37.1349
42.7915 1414 37.6032
42.9081 1455 38.1445
43.0248 1475 38.4057
43.1415 1524 39.0384
43.2582 1539 39.2301
43.375 1532 39.1408
43.4918 1605 40.0625
43.6087 1517 38.9487
43.7256 1485 38.5357
43.8425 1521 39
43.9595 1407 37.51
44.0765 1373 37.054
44.1935 1420 37.6829
44.3106 1367 36.973
44.4277 1233 35.1141
44.5448 1175 34.2783
44.6619 1122 33.4963
44.7791 1112 33.3467
44.8963 1186 34.4384
45.0136 1228 35.0428
45.1308 1305 36.1248
45.2481 1328 36.4417
45.3654 1356 36.8239
45.4827 1325 36.4005
45.6001 1239 35.1994
45.7174 1315 36.2629
45.8348 1245 35.2846
45.9522 1338 36.5787
46.0697 1197 34.5977
46.1871 1181 34.3657
46.3046 1112 33.3467
46.422 1127 33.5708
46.5395 1191 34.5109
46.657 1170 34.2053
46.7745 1245 35.2846
46.892 1240 35.2136
47.0096 1259 35.4824
47.1271 1255 35.426
47.2446 1331 36.4829
47.3622 1210 34.7851
47.4797 1200 34.641
47.5973 1182 34.3802
47.7149 1059 32.5423
47.8324 1050 32.4037
47.95 1020 31.9374
48.0675 943 30.7083
48.1851 948 30.7896
48.3027 903 30.05
48.4202 939 30.6431
48.5378 986 31.4006
48.6554 1021 31.9531
48.7729 1120 33.4664
48.8904 1089 33
49.008 1145 33.8378
49.1255 1159 34.0441
49.243 1181 34.3657
49.3605 1097 33.121
49.478 1052 32.4345
49.5955 1025 32.0156
49.713 1009 31.7648
49.8304 995 31.5436
49.9479 1029 32.078
50.0653 1086 32.9545
50.1827 1190 34.4964
50.3001 1219 34.9142
50.4175 1250 35.3553
50.5348 1312 36.2215
50.6521 1295 35.9861
50.7694 1332 36.4966
50.8867 1315 36.2629
51.004 1395 37.3497
51.1212 1395 37.3497
51.2384 1379 37.1349
51.3556 1312 36.2215
51.4727 1253 35.3977
51.5899 1217 34.8855
51.707 1208 34.7563
51.824 1203 34.6843
51.9411 1210 34.7851
52.0581 1385 37.2156
52.175 1534 39.1663
52.2919 1554 39.4208
52.4088 1588 39.8497
52.5257 1611 40.1373
52.6425 1669 40.8534
52.7593 1520 38.9872
52.876 1649 40.6079
52.9927 1799 42.4146
53.1094 1666 40.8167
53.226 1575 39.6863
53.3426 1517 38.9487
53.4591 1601 40.0125
53.5756 1676 40.939
53.692 1699 41.2189
53.8084 1756 41.9047
53.9248 1868 43.2204
54.0411 1914 43.7493
54.1573 1912 43.7264
54.2735 0 1
54.3896 0 1
54.5057 0 1
54.6217 0 1
54.7377 0 1
54.8537 0 1
54.9695 0 1
55.0853 0 1
55.2011 0 1
55.3168 0 1
55.4324 0 1
57.824 0 1
57.9396 0 1
58.0553 0 1
58.1711 0 1
58.2869 0 1
58.4028 0 1
58.5187 0 1
58.6347 0 1
58.7508 0 1
58.8669 0 1
58.983 2219 47.1063
59.0992 2338 48.3529
59.2155 2404 49.0306
59.3318 2393 48.9183
59.4482 2355 48.5283
59.5646 2381 48.7955
59.681 2309 48.0521
59.7975 2384 48.8262
59.9141 2188 46.7761
60.0306 2048 45.2548
60.1473 1979 44.486
60.2639 1865 43.1856
60.3807 1845 42.9535
60.4974 1744 41.7612
60.6142 1845 42.9535
60.731 1863 43.1625
60.8479 2019 44.9333
60.9648 2170 46.5833
61.0818 2197 46.8722
61.1987 2146 46.3249
61.3158 2221 47.1275
61.4328 2269 47.634
61.5499 2242 47.3498
61.667 2108 45.913
61.7841 2068 45.4753
61.9013 1998 44.699
62.0185 1933 43.9659
62.1357 2043 45.1996
62.253 2077 45.5741
62.3702 2119 46.0326
62.4875 2188 46.7761
62.6049 2261 47.55
62.7222 2270 47.6445
62.8396 2325 48.2183
62.9569 2235 47.2758
63.0743 2352 48.4974
63.1918 2371 48.6929
63.3092 2213 47.0425
63.4267 2125 46.0977
63.5441 2010 44.833
63.6616 1914 43.7493
63.7791 1791 42.3202
63.8966 1615 40.1871
64.0142 1748 41.8091
64.1317 1804 42.4735
64.2492 1882 43.382
64.3668 1904 43.6348
64.4843 2114 45.9783
64.6019 2196 46.8615
64.7195 2297 47.927
64.837 2216 47.0744
64.9546 2265 47.592
65.0722 2203 46.9361
65.1898 2140 46.2601
65.3074 2125 46.0977
65.4249 2037 45.1331
65.5425 1965 44.3283
65.6601 1931 43.9431
65.7777 2051 45.288
65.8952 2117 46.0109
66.0128 2290 47.8539
66.1304 2275 47.697
66.2479 2301 47.9687
66.3655 2334 48.3115
66.483 2371 48.6929
66.6005 2407 49.0612
66.718 2410 49.0918
66.8355 2328 48.2494
66.953 2291 47.8644
67.0705 2276 47.7074
67.1879 2151 46.3789
67.3054 1973 44.4185
67.4228 1764 42
67.5402 1734 41.6413
67.6576 1660 40.7431
67.7749 1787 42.2729
67.8923 1949 44.1475
68.0096 2134 46.1952
68.1269 2177 46.6583
68.2442 2337 48.3425
68.3614 2331 48.2804
68.4787 2393 48.9183
68.5958 2335 48.3218
68.713 2406 49.051
68.8302 2421 49.2037
68.9473 2196 46.8615
69.0643 2201 46.9148
69.1814 2218 47.0956
69.2984 2186 46.7547
69.4154 2330 48.2701
69.5323 2289 47.8435
69.6492 2484 49.8397
69.7661 2560 50.5964
69.8829 2583 50.8232
69.9997 2690 51.8652
70.1165 2748 52.4214
70.2332 2819 53.0943
70.3499 2629 51.2738
70.4665 2656 51.5364
70.5831 2523 50.2295
70.6996 2469 49.689
70.8161 2468 49.679
70.9326 2314 48.1041
71.049 2134 46.1952
71.1653 1885 43.4166
71.2817 1785 42.2493
71.3979 1751 41.845
71.5141 1871 43.2551
71.6303 2075 45.5522
71.7464 2124 46.0869
71.8624 0 1
71.9784 0 1
72.0944 0 1
72.2102 0 1
72.3261 0 1
72.4418 0 1
72.5575 0 1
72.6732 0 1
75.1054 0 1
75.2209 0 1
75.3365 0 1
75.4521 0 1
75.5678 0 1
75.6835 0 1
75.7993 0 1
75.9151 0 1
76.031 0 1
76.147 2482 49.8197
76.263 2414 49.1325
76.3791 2355 48.5283
76.4952 1974 44.4297
76.6113 1918 43.795
76.7276 2070 45.4973
76.8438 2220 47.1169
76.9601 2530 50.2991
77.0765 2705 52.0096
77.1929 2908 53.9259
77.3093 2927 54.1018
77.4258 2979 54.5802
77.5423 3027 55.0182
77.6589 3184 56.4269
77.7755 2980 54.5894
77.8921 2864 53.5164
78.0088 2811 53.0189
78.1256 2677 51.7397
78.2423 2596 50.951
78.3591 2607 51.0588
78.4759 2703 51.9904
78.5928 2894 53.7959
78.7097 2928 54.111
78.8266 3200 56.5685
78.9436 3123 55.8838
79.0606 3215 56.701
79.1776 3177 56.3649
79.2946 3253 57.0351
79.4117 3163 56.2406
79.5288 3213 56.6833
79.6459 3077 55.4707
79.7631 3042 55.1543
79.8802 2804 52.9528
79.9974 2615 51.1371
80.1147 2252 47.4552
80.2319 2165 46.5296
80.3491 2127 46.1194
80.4664 2384 48.8262
80.5837 2683 51.7977
80.701 2905 53.8981
80.8183 3195 56.5243
80.9357 3164 56.2494
81.053 3223 56.7715
81.1704 3226 56.7979
81.2877 3143 56.0625
81.4051 3250 57.0088
81.5225 3205 56.6127
81.6399 2949 54.3047
81.7573 2922 54.0555
81.8747 2833 53.2259
81.9922 2861 53.4883
82.1096 2814 53.0471
82.227 2944 54.2586
82.3444 3011 54.8726
82.4619 3291 57.3672
82.5793 3164 56.2494
82.6967 3354 57.9137
82.8142 3394 58.258
82.9316 3329 57.6975
83.049 3323 57.6455
83.1664 3196 56.5332
83.2838 3183 56.4181
83.4012 3078 55.4797
83.5186 2939 54.2125
83.636 2739 52.3355
83.7534 2446 49.4571
83.8708 2140 46.2601
83.9881 2197 46.8722
84.1055 2395 48.9387
84.2228 2704 52
84.3401 2928 54.111
84.4575 3203 56.5951
84.5747 3326 57.6715
84.692 3423 58.5064
84.8093 3367 58.0259
84.9265 3413 58.4209
85.0437 3489 59.0678
85.1609 3384 58.1722
85.2781 3264 57.1314
85.3952 3174 56.3383
85.5123 3183 56.4181
85.6294 3214 56.6922
85.7465 3195 56.5243
85.8636 3408 58.3781
85.9806 3531 59.4222
86.0976 3773 61.4248
86.2145 3874 62.2415
86.3315 3716 60.959
86.4484 4054 63.671
86.5652 4142 64.3584
86.682 4110 64.1093
86.7988 4013 63.3482
86.9156 4025 63.4429
87.0323 3836 61.9355
87.149 3782 61.498
87.2657 3346 57.8446
87.3823 3032 55.0636
87.4988 2858 53.4603
87.6154 2874 53.6097
87.7318 3308 57.5152
87.8483 3781 61.4898
87.9647 4139 64.3351
88.081 4484 66.9627
88.1973 4438 66.6183
88.3136 4662 68.2788
88.4298 4648 68.1762
88.546 4611 67.9043
88.6621 4463 66.8057
88.7781 4370 66.106
88.8942 0 1
89.0101 0 1
89.126 0 1
89.2419 0 1
89.3577 0 1
89.4734 0 1
89.5891 0 1
89.7047 0 1
89.8203 0 1
89.9358 0 1
92.3269 0 1
92.4424 0 1
92.558 0 1
92.6736 0 1
92.7893 0 1
92.905 0 1
93.0208 0 1
93.1366 0 1
93.2525 0 1
93.3685 0 1
93.4845 0 1
93.6005 4951 70.3633
93.7167 5028 70.9084
93.8328 4934 70.2424
93.949 5016 70.8237
94.0653 4960 70.4273
94.1816 4939 70.278
94.2979 4780 69.1375
94.4143 4614 67.9264
94.5307 4665 68.3008
94.6472 4498 67.0671
94.7637 4441 66.6408
94.8803 4851 69.6491
94.9969 4777 69.1158
95.1135 5210 72.1803
95.2302 5228 72.3049
95.3469 5341 73.0821
95.4637 5458 73.8783
95.5805 5417 73.6003
95.6973 5579 74.6927
95.8142 5590 74.7663
95.9311 5424 73.6478
96.048 5316 72.9109
96.1649 5206 72.1526
96.2819 5045 71.0282
96.3989 4678 68.3959
96.516 4324 65.7571
96.633 3831 61.8951
96.7501 3796 61.6117
96.8673 4055 63.6789
96.9844 4499 67.0746
97.1016 5040 70.993
97.2188 5426 73.6614
97.336 5693 75.452
97.4532 5781 76.0329
97.5704 5768 75.9474
97.6877 5824 76.3151
97.805 5845 76.4526
97.9223 5528 74.3505
98.0396 5556 74.5386
98.1569 5419 73.6139
98.2743 5154 71.7914
98.3916 5084 71.3022
98.509 5202 72.1249
98.6264 5330 73.0068
98.7438 5467 73.9392
98.8612 5823 76.3086
98.9786 5988 77.3822
99.096 5959 77.1946
99.2134 6249 79.0506
99.3308 6121 78.2368
99.4482 6178 78.6003
99.5656 6268 79.1707
99.6831 6139 78.3518
99.8005 5861 76.5572
99.9179 5639 75.0933
100.035 5288 72.7186
100.153 4790 69.2098
100.27 4417 66.4605
100.388 4456 66.7533
100.505 4853 69.6635
100.622 5434 73.7157
100.74 6020 77.5887
100.857 6342 79.6367
100.975 6354 79.712
101.092 6500 80.6226
101.209 6548 80.9197
101.327 6420 80.1249
101.444 6381 79.8812
101.561 6172 78.5621
101.679 6218 78.8543
101.796 5996 77.4338
101.913 5877 76.6616
102.03 5707 75.5447
102.148 5976 77.3046
102.265 6318 79.4858
102.382 6109 78.1601
102.499 6389 79.9312
102.616 6858 82.813
102.733 6820 82.5833
102.851 6789 82.3954
102.968 6932 83.2586
103.085 7081 84.1487
103.202 6913 83.1445
103.319 6606 81.2773
103.436 6465 80.4052
103.552 6058 77.8332
103.669 5419 73.6139
103.786 4987 70.6187
103.903 4983 70.5904
104.02 5291 72.7393
104.137 5828 76.3413
104.253 6772 82.2922
104.37 6966 83.4626
104.487 7210 84.9117
104.603 7407 86.0639
104.72 7193 84.8116
104.836 7124 84.4038
104.953 6987 83.5883
105.069 6988 83.5943
105.186 6715 81.9451
105.302 6630 81.4248
105.418 6449 80.3057
105.535 6469 80.4301
105.651 6604 81.265
105.767 6782 82.3529
105.883 7064 84.0476
105.999 7451 86.3192
106.115 0 1
106.231 0 1
106.347 0 1
106.463 0 1
106.579 0 1
106.694 0 1
106.81 0 1
106.926 0 1
107.041 0 1
107.157 0 1
109.576 0 1
109.692 0 1
109.807 0 1
109.923 0 1
110.039 0 1
110.155 0 1
110.27 0 1
110.386 0 1
110.502 0 1
110.618 5820 76.2889
110.735 6287 79.2906
110.851 6416 80.0999
110.967 6720 81.9756
111.083 6786 82.3772
111.199 6897 83.0482
111.316 6871 82.8915
111.432 6787 82.3833
111.549 6725 82.0061
111.665 6675 81.7007
111.782 6353 79.7057
111.898 6117 78.2113
112.015 5682 75.379
112.132 5327 72.9863
112.248 4844 69.5989
112.365 4669 68.3301
112.482 4859 69.7065
112.599 5350 73.1437
112.716 5777 76.0066
112.832 6204 78.7655
112.949 6339 79.6178
113.066 6147 78.4028
113.183 6208 78.7909
113.3 6214 78.8289
113.417 5987 77.3757
113.534 6016 77.5629
113.652 5723 75.6505
113.769 5650 75.1665
113.886 5451 73.8309
114.003 5334 73.0342
114.12 5285 72.698
114.238 5451 73.8309
114.355 5567 74.6123
114.472 5609 74.8933
114.589 5567 74.6123
114.707 5610 74.8999
114.824 5739 75.7562
114.942 5784 76.0526
115.059 5952 77.1492
115.176 5844 76.4461
115.294 5668 75.2861
115.411 5560 74.5654
115.529 5297 72.7805
115.646 4994 70.6682
115.764 4472 66.873
115.881 4199 64.7997
115.999 4170 64.5755
116.116 4555 67.4907
116.234 4988 70.6258
116.351 5426 73.6614
116.469 5565 74.5989
116.586 5577 74.6793
116.704 5708 75.5513
116.821 5740 75.7628
116.939 5838 76.4068
117.056 5597 74.8131
117.174 5528 74.3505
117.291 5410 73.5527
117.409 5329 73
117.526 5273 72.6154
117.644 5153 71.7844
117.761 5191 72.0486
117.879 5345 73.1095
117.996 5435 73.7225
118.114 5442 73.7699
118.231 5555 74.5319
118.349 5595 74.7997
118.466 5778 76.0132
118.584 5774 75.9868
118.701 5660 75.233
118.819 5794 76.1183
118.936 5454 73.8512
119.053 5371 73.2871
119.171 5069 71.1969
119.288 4772 69.0797
119.405 4283 65.4446
119.523 3973 63.0317
119.64 4009 63.3167
119.757 4412 66.4229
119.875 4712 68.644
119.992 5244 72.4155
120.109 5387 73.3962
120.226 5424 73.6478
120.343 5543 74.4513
120.46 5335 73.0411
120.578 5372 73.2939
120.695 5425 73.6546
120.812 5333 73.0274
120.929 5217 72.2288
121.046 5176 71.9444
121.163 4929 70.2068
121.279 4745 68.884
121.396 4824 69.455
121.513 5033 70.9436
121.63 5239 72.3809
121.747 5159 71.8262
121.863 5317 72.9178
121.98 5211 72.1873
122.097 5343 73.0958
122.213 5374 73.3076
122.33 5445 73.7902
122.446 5318 72.9246
122.563 5370 73.2803
122.679 5033 70.9436
122.795 4840 69.5701
122.912 4837 69.5485
123.028 4434 66.5883
123.144 4197 64.7843
123.26 3817 61.7819
123.377 0 1
123.493 0 1
123.609 0 1
123.725 0 1
123.84 0 1
123.956 0 1
124.072 0 1
124.188 0 1
124.303 0 1
124.419 0 1
126.852 0 1
126.968 0 1
127.083 0 1
127.199 0 1
127.315 0 1
127.431 0 1
127.547 0 1
127.663 0 1
127.779 0 1
127.895 0 1
128.011 0 1
128.127 0 1
128.243 0 1
128.359 4591 67.7569
128.476 4012 63.3404
128.592 4106 64.0781
128.708 4493 67.0298
128.825 5007 70.7602
128.941 5351 73.1505
129.058 5675 75.3326
129.174 5820 76.2889
129.291 5713 75.5844
129.408 5805 76.1906
129.524 5790 76.092
129.641 5696 75.4718
129.758 5598 74.8198
129.875 5329 73
129.992 5196 72.0833
130.108 5231 72.3257
130.225 5148 71.7496
130.342 5077 71.2531
130.459 5139 71.6868
130.576 5292 72.7461
130.693 5357 73.1915
130.81 5354 73.171
130.928 5465 73.9256
131.045 5330 73.0068
131.162 5409 73.5459
131.279 5649 75.1598
131.396 5426 73.6614
131.513 5551 74.505
131.631 5288 72.7186
131.748 5202 72.1249
131.865 4535 67.3424
131.983 4191 64.7379
132.1 4137 64.3195
132.217 4149 64.4127
132.335 4644 68.1469
132.452 5006 70.7531
132.57 5321 72.9452
132.687 5120 71.5542
132.804 5531 74.3707
132.922 5323 72.9589
133.039 5466 73.9324
133.157 5191 72.0486
133.274 5302 72.8148
133.392 5321 72.9452
133.509 5006 70.7531
133.627 5008 70.7672
133.744 4905 70.0357
133.862 4661 68.2715
133.979 5019 70.8449
134.097 5045 71.0282
134.214 5226 72.2911
134.332 5079 71.2671
134.449 5186 72.0139
134.567 5233 72.3395
134.684 5161 71.8401
134.802 5230 72.3187
134.919 5224 72.2772
135.037 5235 72.3533
135.154 4952 70.3704
135.272 4902 70.0143
135.389 4543 67.4018
135.507 4167 64.5523
135.624 3910 62.53
135.742 3969 63
135.859 4136 64.3117
135.977 4455 66.7458
136.094 5007 70.7602
136.211 4951 70.3633
136.329 5116 71.5262
136.446 5130 71.624
136.564 5247 72.4362
136.681 5252 72.4707
136.798 5152 71.7774
136.915 5182 71.9861
137.033 5010 70.7814
137.15 4889 69.9214
137.267 4730 68.775
137.384 4657 68.2422
137.502 4776 69.1086
137.619 4723 68.7241
137.736 4999 70.7036
137.853 4858 69.6994
137.97 4771 69.0724
138.087 4962 70.4415
138.204 4911 70.0785
138.321 4892 69.9428
138.438 5100 71.4143
138.555 5201 72.118
138.672 4892 69.9428
138.788 5063 71.1548
138.905 4906 70.0428
139.022 4695 68.5201
139.139 4344 65.909
139.255 3877 62.2656
139.372 3805 61.6847
139.488 4057 63.6946
139.605 4349 65.9469
139.721 4778 69.1231
139.838 5029 70.9154
139.954 5054 71.0915
140.071 5127 71.6031
140.187 5051 71.0704
140.303 5042 71.007
140.419 4967 70.4769
140.535 4927 70.1926
140.652 4809 69.347
140.768 0 1
140.884 0 1
141 0 1
141.115 0 1
141.231 0 1
141.347 0 1
141.463 0 1
141.578 0 1
141.694 0 1
144.104 0 1
144.219 0 1
144.335 0 1
144.45 0 1
144.566 0 1
144.682 0 1
144.798 0 1
144.914 0 1
145.03 0 1
145.146 4351 65.9621
145.262 4331 65.8103
145.378 4277 65.3988
145.494 4399 66.325
145.61 4313 65.6734
145.726 4051 63.6475
145.842 4130 64.2651
145.959 4019 63.3956
146.075 3952 62.8649
146.192 4057 63.6946
146.308 3962 62.9444
146.425 4126 64.2339
146.541 4066 63.7652
146.658 3965 62.9682
146.774 4095 63.9922
146.891 4126 64.2339
147.008 4269 65.3376
147.125 4147 64.3972
147.241 4144 64.3739
147.358 4122 64.2028
147.475 3885 62.3298
147.592 3798 61.6279
147.709 3644 60.3656
147.826 3318 57.6021
147.943 3258 57.0789
148.06 3230 56.8331
148.177 3562 59.6825
148.294 3911 62.538
148.411 4010 63.3246
148.528 4151 64.4283
148.645 4080 63.8749
148.762 3947 62.8252
148.88 4183 64.6761
148.997 3882 62.3057
149.114 4131 64.2729
149.231 3920 62.6099
149.349 3851 62.0564
149.466 3767 61.3759
149.583 3749 61.2291
149.701 3608 60.0666
149.818 3503 59.1861
149.935 3752 61.2536
150.053 3710 60.9098
150.17 3782 61.498
150.287 3765 61.3596
150.405 3936 62.7375
150.522 3850 62.0484
150.64 3868 62.1932
150.757 3856 62.0967
150.875 3870 62.2093
150.992 3802 61.6604
151.11 3715 60.9508
151.227 3619 60.1581
151.344 3358 57.9483
151.462 3153 56.1516
151.579 2997 54.7449
151.697 3179 56.3826
151.814 3396 58.2752
151.932 3741 61.1637
152.049 3921 62.6179
152.167 3953 62.8729
152.284 3821 61.8142
152.402 3939 62.7615
152.519 4063 63.7417
152.636 3928 62.6738
152.754 4017 63.3798
152.871 3835 61.9274
152.989 3820 61.8061
153.106 3742 61.1719
153.223 3654 60.4483
153.341 3466 58.8727
153.458 3681 60.6712
153.575 3683 60.6877
153.693 3711 60.918
153.81 3694 60.7783
153.927 3679 60.6548
154.044 3782 61.498
154.162 3753 61.2617
154.279 3926 62.6578
154.396 3852 62.0645
154.513 3943 62.7933
154.63 3944 62.8013
154.747 3776 61.4492
154.864 3678 60.6465
154.981 3521 59.338
155.098 3338 57.7754
155.215 3224 56.7803
155.332 3308 57.5152
155.449 3584 59.8665
155.566 3798 61.6279
155.683 3884 62.3217
155.8 4047 63.616
155.917 4016 63.3719
156.033 3998 63.2297
156.15 0 1
156.267 0 1
156.383 0 1
156.5 0 1
156.617 0 1
156.733 0 1
156.85 0 1
156.966 0 1
157.082 0 1
157.199 0 1
157.315 0 1
157.431 0 1
157.547 0 1
157.664 0 1
157.78 0 1
157.896 0 1
158.012 0 1
158.128 0 1
158.244 0 1
158.359 0 1
158.475 0 1
158.591 0 1
158.706 0 1
