
6.15755 0 1
6.2731 0 1
6.3887 0 1
6.50437 0 1
6.62009 0 1
6.73587 0 1
6.8517 0 1
6.96759 0 1
7.08353 0 1
7.19952 0 1
7.31557 0 1
7.43166 0 1
7.54781 0 1
7.664 0 1
7.78024 0 1
7.89653 0 1
8.01286 0 1
8.12924 0 1
8.24567 0 1
8.36213 0 1
8.47864 0 1
8.59519 0 1
8.71178 0 1
8.82841 0 1
8.94508 0 1
9.06179 0 1
9.17853 0 1
9.29531 0 1
9.41212 0 1
9.52897 0 1
9.64584 0 1
9.76276 0 1
9.8797 0 1
9.99667 0 1
10.1137 0 1
10.2307 0 1
10.3478 0 1
10.4648 0 1
10.5819 0 1
10.6991 0 1
10.8162 0 1
10.9334 0 1
11.0506 0 1
11.1678 0 1
11.285 0 1
11.4023 0 1
11.5196 0 1
11.6369 0 1
11.7542 0 1
11.8715 0 1
11.9888 0 1
12.1062 0 1
12.2235 0 1
12.3409 0 1
12.4582 0 1
12.5756 0 1
12.693 0 1
12.8104 0 1
12.9278 0 1
13.0452 0 1
13.1626 0 1
13.28 0 1
13.3974 0 1
13.5149 0 1
13.6323 0 1
13.7497 0 1
13.8671 0 1
13.9845 0 1
14.1019 0 1
14.2193 0 1
14.3367 0 1
14.4541 0 1
14.5714 0 1
14.6888 0 1
14.8062 0 1
14.9235 0 1
15.0408 0 0
15.1581 0 0
15.2755 0 0
15.3927 0 0
15.51 0 0
15.6273 0 0
15.7445 0 0
15.8617 0 0
15.9789 0 0
16.0961 0 0
16.2132 0 0
16.3304 0 0
16.4475 0 0
16.5646 0 0
16.6816 0 0
16.7986 0 0
16.9156 0 0
17.0326 0 0
17.1496 0 0
17.2665 0 0
17.3833 0 0
17.5002 0 0
17.617 0 0
17.7338 0 0
17.8505 0 0
17.9672 0 0
18.0839 0 0
18.2005 0 0
18.3171 0 0
18.4337 0 0
18.5502 0 0
18.6666 0 0
18.7831 0 0
18.8994 0 0
19.0158 0 0
19.1321 0 0
19.2483 0 0
19.3645 0 0
19.4806 0 0
19.5967 0 0
19.7128 0 0
19.8288 0 0
19.9447 0 0
20.0606 0 1
20.1764 0 1
20.2922 0 1
20.4079 0 1
20.5236 0 1
20.6392 0 1
20.7548 0 1
20.8702 0 1
23.3078 0 1
23.4233 0 1
23.539 0 1
23.6547 0 1
23.7704 0 1
23.8862 0 1
24.0021 0 1
24.118 0 1
24.234 0 1
24.35 0 1
24.4661 1524 39.0384
24.5822 1528 39.0896
24.6984 1525 39.0512
24.8146 1476 38.4187
24.9309 1433 37.855
25.0472 1515 38.923
25.1636 1481 38.4838
25.28 1544 39.2938
25.3965 1587 39.8372
25.513 1615 40.1871
25.6296 1682 41.0122
25.7462 1696 41.1825
25.8628 1752 41.8569
25.9795 1783 42.2256
26.0962 1696 41.1825
26.213 1761 41.9643
26.3298 1737 41.6773
26.4466 1766 42.0238
26.5635 1693 41.1461
26.6804 1633 40.4104
26.7973 1571 39.6358
26.9143 1557 39.4588
27.0313 1648 40.5956
27.1483 1697 41.1947
27.2653 1709 41.3401
27.3824 1740 41.7133
27.4996 1722 41.497
27.6167 1706 41.3038
27.7339 1682 41.0122
27.8511 1655 40.6817
27.9683 1657 40.7063
28.0855 1583 39.7869
28.2028 1532 39.1408
28.3201 1503 38.7685
28.4374 1414 37.6032
28.5547 1334 36.524
28.6721 1425 37.7492
28.7894 1475 38.4057
28.9068 1456 38.1576
29.0242 1530 39.1152
29.1416 1638 40.4722
29.259 1713 41.3884
29.3764 1742 41.7373
29.4939 1771 42.0833
29.6113 1638 40.4722
29.7288 1655 40.6817
29.8463 1716 41.4246
29.9638 1695 41.1704
30.0812 1708 41.328
30.1987 1527 39.0768
30.3162 1611 40.1373
30.4337 1540 39.2428
30.5512 1628 40.3485
30.6687 1691 41.1218
30.7862 1720 41.4729
30.9037 1761 41.9643
31.0212 1793 42.3438
31.1387 1833 42.8135
31.2562 1730 41.5933
31.3737 1720 41.4729
31.4912 1640 40.4969
31.6087 1647 40.5832
31.7262 1540 39.2428
31.8436 1514 38.9102
31.9611 1447 38.0395
32.0785 1473 38.3797
32.1959 1444 38
32.3134 1492 38.6264
32.4308 1516 38.9358
32.5482 1629 40.3609
32.6655 1662 40.7676
32.7829 1705 41.2916
32.9002 1784 42.2374
33.0176 1701 41.2432
33.1349 1696 41.1825
33.2522 1811 42.5558
33.3694 1765 42.0119
33.4867 1737 41.6773
33.6039 1721 41.4849
33.7211 1753 41.8688
33.8383 1638 40.4722
33.9554 1629 40.3609
34.0725 1618 40.2244
34.1896 1646 40.5709
34.3067 1682 41.0122
34.4237 1695 41.1704
34.5407 1752 41.8569
34.6577 1727 41.5572
34.7746 1759 41.9404
34.8915 1831 42.7902
35.0084 1736 41.6653
35.1252 1698 41.2068
35.242 1610 40.1248
35.3587 1632 40.398
35.4755 1546 39.3192
35.5921 1481 38.4838
35.7088 1409 37.5366
35.8254 1414 37.6032
35.9419 1390 37.2827
36.0584 1374 37.0675
36.1749 1545 39.3065
36.2913 1601 40.0125
36.4077 1600 40
36.524 1725 41.5331
36.6403 1702 41.2553
36.7565 1725 41.5331
36.8727 1648 40.5956
36.9889 1650 40.6202
37.1049 1708 41.328
37.221 0 1
37.3369 0 1
37.4529 0 1
37.5687 0 1
37.6845 0 1
37.8003 0 1
37.916 0 1
38.0316 0 1
38.1472 0 1
40.5851 0 1
40.7008 0 1
40.8164 0 1
40.9322 0 1
41.048 0 1
41.1639 0 1
41.2798 0 1
41.3958 0 1
41.5118 0 1
41.6279 0 1
41.744 1479 38.4578
41.8602 1572 39.6485
41.9765 1550 39.37
42.0928 1686 41.0609
42.2091 1540 39.2428
42.3255 1600 40
42.4419 1537 39.2046
42.5584 1496 38.6782
42.675 1500 38.7298
42.7915 1454 38.1314
42.9081 1515 38.923
43.0248 1600 40
43.1415 1610 40.1248
43.2582 1607 40.0874
43.375 1551 39.3827
43.4918 1679 40.9756
43.6087 1598 39.975
43.7256 1711 41.3642
43.8425 1588 39.8497
43.9595 1534 39.1663
44.0765 1524 39.0384
44.1935 1415 37.6165
44.3106 1353 36.7831
44.4277 1284 35.8329
44.5448 1158 34.0294
44.6619 1188 34.4674
44.7791 1182 34.3802
44.8963 1274 35.6931
45.0136 1234 35.1283
45.1308 1331 36.4829
45.2481 1436 37.8946
45.3654 1353 36.7831
45.4827 1427 37.7757
45.6001 1394 37.3363
45.7174 1385 37.2156
45.8348 1331 36.4829
45.9522 1386 37.229
46.0697 1299 36.0416
46.1871 1238 35.1852
46.3046 1192 34.5254
46.422 1257 35.4542
46.5395 1303 36.0971
46.657 1329 36.4555
46.7745 1265 35.5668
46.892 1280 35.7771
47.0096 1260 35.4965
47.1271 1294 35.9722
47.2446 1299 36.0416
47.3622 1327 36.428
47.4797 1313 36.2353
47.5973 1227 35.0286
47.7149 1148 33.8821
47.8324 1141 33.7787
47.95 976 31.241
48.0675 940 30.6594
48.1851 861 29.3428
48.3027 897 29.95
48.4202 958 30.9516
48.5378 996 31.5595
48.6554 1017 31.8904
48.7729 1079 32.8481
48.8904 1096 33.1059
49.008 1130 33.6155
49.1255 1127 33.5708
49.243 1227 35.0286
49.3605 1158 34.0294
49.478 1180 34.3511
49.5955 1064 32.619
49.713 1134 33.6749
49.8304 1117 33.4215
49.9479 1157 34.0147
50.0653 1160 34.0588
50.1827 1297 36.0139
50.3001 1265 35.5668
50.4175 1295 35.9861
50.5348 1298 36.0278
50.6521 1374 37.0675
50.7694 1372 37.0405
50.8867 1429 37.8021
51.004 1435 37.8814
51.1212 1446 38.0263
51.2384 1493 38.6394
51.3556 1439 37.9342
51.4727 1413 37.5899
51.5899 1310 36.1939
51.707 1188 34.4674
51.824 1243 35.2562
51.9411 1351 36.756
52.0581 1326 36.4143
52.175 1455 38.1445
52.2919 1596 39.95
52.4088 1641 40.5093
52.5257 1682 41.0122
52.6425 1725 41.5331
52.7593 1691 41.1218
52.876 1654 40.6694
52.9927 1725 41.5331
53.1094 1716 41.4246
53.226 1680 40.9878
53.3426 1617 40.2119
53.4591 1679 40.9756
53.5756 1678 40.9634
53.692 1763 41.9881
53.8084 1855 43.0697
53.9248 1846 42.9651
54.0411 1962 44.2945
54.1573 1982 44.5197
54.2735 0 1
54.3896 0 1
54.5057 0 1
54.6217 0 1
54.7377 0 1
54.8537 0 1
54.9695 0 1
55.0853 0 1
55.2011 0 1
55.3168 0 1
55.4324 0 1
57.824 0 1
57.9396 0 1
58.0553 0 1
58.1711 0 1
58.2869 0 1
58.4028 0 1
58.5187 0 1
58.6347 0 1
58.7508 0 1
58.8669 0 1
58.983 2264 47.5815
59.0992 2379 48.775
59.2155 2362 48.6004
59.3318 2459 49.5883
59.4482 2344 48.4149
59.5646 2429 49.2849
59.681 2324 48.2079
59.7975 2350 48.4768
59.9141 2298 47.9375
60.0306 2100 45.8258
60.1473 1969 44.3734
60.2639 1890 43.4741
60.3807 1724 41.5211
60.4974 1728 41.5692
60.6142 1790 42.3084
60.731 1823 42.6966
60.8479 2006 44.7884
60.9648 2197 46.8722
61.0818 2233 47.2546
61.1987 2238 47.3075
61.3158 2329 48.2597
61.4328 2258 47.5184
61.5499 2331 48.2804
61.667 2204 46.9468
61.7841 2274 47.6865
61.9013 2159 46.465
62.0185 2144 46.3033
62.1357 2191 46.8081
62.253 2198 46.8828
62.3702 2344 48.4149
62.4875 2309 48.0521
62.6049 2358 48.5592
62.7222 2469 49.689
62.8396 2437 49.366
62.9569 2394 48.9285
63.0743 2451 49.5076
63.1918 2365 48.6313
63.3092 2306 48.0208
63.4267 2251 47.4447
63.5441 2127 46.1194
63.6616 1923 43.852
63.7791 1792 42.332
63.8966 1682 41.0122
64.0142 1649 40.6079
64.1317 1718 41.4488
64.2492 1928 43.909
64.3668 2036 45.1221
64.4843 2243 47.3603
64.6019 2245 47.3814
64.7195 2342 48.3942
64.837 2351 48.4871
64.9546 2360 48.5798
65.0722 2274 47.6865
65.1898 2238 47.3075
65.3074 2364 48.621
65.4249 2188 46.7761
65.5425 2115 45.9891
65.6601 2304 48
65.7777 2305 48.0104
65.8952 2386 48.8467
66.0128 2333 48.3011
66.1304 2454 49.5379
66.2479 2535 50.3488
66.3655 2487 49.8698
66.483 2518 50.1797
66.6005 2507 50.07
66.718 2452 49.5177
66.8355 2444 49.4368
66.953 2378 48.7647
67.0705 2332 48.2908
67.1879 2240 47.3286
67.3054 2031 45.0666
67.4228 1740 41.7133
67.5402 1663 40.7799
67.6576 1758 41.9285
67.7749 1783 42.2256
67.8923 1922 43.8406
68.0096 2169 46.5725
68.1269 2280 47.7493
68.2442 2509 50.0899
68.3614 2543 50.4282
68.4787 2509 50.0899
68.5958 2445 49.4469
68.713 2508 50.0799
68.8302 2492 49.9199
68.9473 2479 49.7896
69.0643 2454 49.5379
69.1814 2388 48.8672
69.2984 2389 48.8774
69.4154 2523 50.2295
69.5323 2567 50.6656
69.6492 2600 50.9902
69.7661 2724 52.192
69.8829 2710 52.0577
69.9997 2864 53.5164
70.1165 2878 53.647
70.2332 2802 52.9339
70.3499 2867 53.5444
70.4665 2666 51.6333
70.5831 2614 51.1273
70.6996 2635 51.3323
70.8161 2502 50.02
70.9326 2307 48.0312
71.049 2094 45.7602
71.1653 1833 42.8135
71.2817 1600 40
71.3979 1705 41.2916
71.5141 1876 43.3128
71.6303 1944 44.0908
71.7464 2116 46
71.8624 0 1
71.9784 0 1
72.0944 0 1
72.2102 0 1
72.3261 0 1
72.4418 0 1
72.5575 0 1
72.6732 0 1
75.1054 0 1
75.2209 0 1
75.3365 0 1
75.4521 0 1
75.5678 0 1
75.6835 0 1
75.7993 0 1
75.9151 0 1
76.031 0 1
76.147 2446 49.4571
76.263 2433 49.3254
76.3791 2307 48.0312
76.4952 2106 45.8912
76.6113 1897 43.5546
76.7276 1951 44.1701
76.8438 2068 45.4753
76.9601 2414 49.1325
77.0765 2757 52.5071
77.1929 2926 54.0925
77.3093 3089 55.5788
77.4258 3012 54.8817
77.5423 3074 55.4437
77.6589 3133 55.9732
77.7755 3044 55.1725
77.8921 2944 54.2586
78.0088 3013 54.8908
78.1256 2863 53.507
78.2423 2835 53.2447
78.3591 2943 54.2494
78.4759 3014 54.8999
78.5928 3070 55.4076
78.7097 3248 56.9912
78.8266 3379 58.1292
78.9436 3258 57.0789
79.0606 3310 57.5326
79.1776 3322 57.6368
79.2946 3275 57.2276
79.4117 3326 57.6715
79.5288 3276 57.2364
79.6459 3180 56.3915
79.7631 2997 54.7449
79.8802 2928 54.111
79.9974 2672 51.6914
80.1147 2358 48.5592
80.2319 2069 45.4863
80.3491 1997 44.6878
80.4664 2293 47.8853
80.5837 2555 50.547
80.701 3022 54.9727
80.8183 3048 55.2087
80.9357 3280 57.2713
81.053 3231 56.8419
81.1704 3334 57.7408
81.2877 3361 57.9741
81.4051 3314 57.5674
81.5225 3317 57.5934
81.6399 3202 56.5862
81.7573 3135 55.9911
81.8747 2973 54.5252
81.9922 2985 54.6352
82.1096 3189 56.4712
82.227 3226 56.7979
82.3444 3325 57.6628
82.4619 3448 58.7197
82.5793 3400 58.3095
82.6967 3519 59.3212
82.8142 3440 58.6515
82.9316 3500 59.1608
83.049 3426 58.532
83.1664 3383 58.1636
83.2838 3228 56.8155
83.4012 3102 55.6956
83.5186 2978 54.5711
83.636 2708 52.0384
83.7534 2343 48.4045
83.8708 2059 45.3762
83.9881 1985 44.5533
84.1055 2205 46.9574
84.2228 2411 49.1019
84.3401 2739 52.3355
84.4575 3185 56.4358
84.5747 3393 58.2495
84.692 3523 59.3549
84.8093 3627 60.2246
84.9265 3522 59.3464
85.0437 3409 58.3866
85.1609 3366 58.0172
85.2781 3460 58.8218
85.3952 3319 57.6108
85.5123 3253 57.0351
85.6294 3283 57.2975
85.7465 3424 58.515
85.8636 3537 59.4727
85.9806 3560 59.6657
86.0976 3777 61.4573
86.2145 3884 62.3217
86.3315 3872 62.2254
86.4484 4033 63.5059
86.5652 4002 63.2614
86.682 3981 63.0952
86.7988 4002 63.2614
86.9156 3749 61.2291
87.0323 3672 60.597
87.149 3447 58.7112
87.2657 3202 56.5862
87.3823 2763 52.5642
87.4988 2477 49.7695
87.6154 2653 51.5073
87.7318 2919 54.0278
87.8483 3469 58.8982
87.9647 3820 61.8061
88.081 3996 63.2139
88.1973 4174 64.6065
88.3136 4253 65.215
88.4298 4252 65.2074
88.546 4187 64.707
88.6621 4169 64.5678
88.7781 4089 63.9453
88.8942 0 1
89.0101 0 1
89.126 0 1
89.2419 0 1
89.3577 0 1
89.4734 0 1
89.5891 0 1
89.7047 0 1
89.8203 0 1
89.9358 0 1
92.3269 0 1
92.4424 0 1
92.558 0 1
92.6736 0 1
92.7893 0 1
92.905 0 1
93.0208 0 1
93.1366 0 1
93.2525 0 1
93.3685 0 1
93.4845 0 1
93.6005 4180 64.6529
93.7167 4463 66.8057
93.8328 4516 67.2012
93.949 4437 66.6108
94.0653 4350 65.9545
94.1816 4335 65.8407
94.2979 4445 66.6708
94.4143 4388 66.242
94.5307 4349 65.9469
94.6472 4132 64.2806
94.7637 4341 65.8863
94.8803 4257 65.2457
94.9969 4286 65.4675
95.1135 4556 67.4981
95.2302 4610 67.897
95.3469 4571 67.6092
95.4637 4715 68.6659
95.5805 4857 69.6922
95.6973 4877 69.8355
95.8142 4799 69.2748
95.9311 4785 69.1737
96.048 4622 67.9853
96.1649 4482 66.9477
96.2819 4284 65.4523
96.3989 3945 62.8092
96.516 3519 59.3212
96.633 3047 55.1996
96.7501 2822 53.1225
96.8673 3141 56.0446
96.9844 3493 59.1016
97.1016 4137 64.3195
97.2188 4635 68.0808
97.336 4975 70.5337
97.4532 4882 69.8713
97.5704 5103 71.4353
97.6877 5034 70.9507
97.805 4983 70.5904
97.9223 4962 70.4415
98.0396 4972 70.5124
98.1569 4852 69.6563
98.2743 4818 69.4118
98.3916 4719 68.695
98.509 4667 68.3154
98.6264 4787 69.1881
98.7438 4856 69.685
98.8612 4923 70.1641
98.9786 5125 71.5891
99.096 5143 71.7147
99.2134 5339 73.0685
99.3308 5263 72.5465
99.4482 5237 72.3671
99.5656 5247 72.4362
99.6831 5061 71.1407
99.8005 4893 69.95
99.9179 4665 68.3008
100.035 4307 65.6277
100.153 3627 60.2246
100.27 3256 57.0614
100.388 3344 57.8273
100.505 3748 61.2209
100.622 4430 66.5582
100.74 4892 69.9428
100.857 5200 72.111
100.975 5288 72.7186
101.092 5371 73.2871
101.209 5371 73.2871
101.327 5316 72.9109
101.444 5291 72.7393
101.561 5245 72.4224
101.679 5281 72.6705
101.796 5186 72.0139
101.913 5233 72.3395
102.03 5121 71.5612
102.148 5044 71.0211
102.265 5404 73.5119
102.382 4940 70.2851
102.499 5440 73.7564
102.616 5586 74.7395
102.733 5674 75.326
102.851 5754 75.8551
102.968 5621 74.9733
103.085 5785 76.0592
103.202 5617 74.9466
103.319 5399 73.4779
103.436 4990 70.6399
103.552 4671 68.3447
103.669 4007 63.3009
103.786 3492 59.0931
103.903 3554 59.6154
104.02 4129 64.2573
104.137 4677 68.3886
104.253 5418 73.6071
104.37 5474 73.9865
104.487 5692 75.4453
104.603 5783 76.046
104.72 5918 76.9285
104.836 5836 76.3937
104.953 5746 75.8024
105.069 5594 74.793
105.186 5702 75.5116
105.302 5510 74.2294
105.418 5532 74.3774
105.535 5537 74.411
105.651 5554 74.5252
105.767 5642 75.1132
105.883 5763 75.9144
105.999 5898 76.7984
106.115 0 1
106.231 0 1
106.347 0 1
106.463 0 1
106.579 0 1
106.694 0 1
106.81 0 1
106.926 0 1
107.041 0 1
107.157 0 1
109.576 0 1
109.692 0 1
109.807 0 1
109.923 0 1
110.039 0 1
110.155 0 1
110.27 0 1
110.386 0 1
110.502 0 1
110.618 5122 71.5681
110.735 5267 72.5741
110.851 5396 73.4575
110.967 5525 74.3303
111.083 5529 74.3572
111.199 5661 75.2396
111.316 5646 75.1399
111.432 5681 75.3724
111.549 5564 74.5922
111.665 5462 73.9053
111.782 5367 73.2598
111.898 4902 70.0143
112.015 4493 67.0298
112.132 3916 62.578
112.248 3496 59.127
112.365 3330 57.7062
112.482 3560 59.6657
112.599 4018 63.3877
112.716 4758 68.9783
112.832 5171 71.9097
112.949 5143 71.7147
113.066 5194 72.0694
113.183 5199 72.1041
113.3 4961 70.4344
113.417 5249 72.45
113.534 5014 70.8096
113.652 4943 70.3065
113.769 4827 69.4766
113.886 4808 69.3397
114.003 4776 69.1086
114.12 4728 68.7605
114.238 4601 67.8307
114.355 4654 68.2202
114.472 4698 68.542
114.589 4916 70.1142
114.707 4888 69.9142
114.824 4887 69.9071
114.942 4977 70.5479
115.059 4891 69.9357
115.176 5054 71.0915
115.294 4673 68.3593
115.411 4663 68.2862
115.529 4237 65.0922
115.646 3930 62.6897
115.764 3454 58.7707
115.881 3146 56.0892
115.999 3234 56.8683
116.116 3723 61.0164
116.234 4086 63.9218
116.351 4562 67.5426
116.469 4765 69.029
116.586 4803 69.3037
116.704 4782 69.152
116.821 4940 70.2851
116.939 4769 69.0579
117.056 4903 70.0214
117.174 4614 67.9264
117.291 4717 68.6804
117.409 4749 68.913
117.526 4790 69.2098
117.644 4657 68.2422
117.761 4641 68.1249
117.879 4609 67.8896
117.996 4452 66.7233
118.114 4719 68.695
118.231 4987 70.6187
118.349 4781 69.1448
118.466 4879 69.8498
118.584 4966 70.4699
118.701 4988 70.6258
118.819 4979 70.562
118.936 4716 68.6731
119.053 4558 67.513
119.171 4228 65.0231
119.288 3820 61.8061
119.405 3401 58.3181
119.523 3109 55.7584
119.64 3175 56.3471
119.757 3539 59.4895
119.875 4035 63.5216
119.992 4407 66.3852
120.109 4668 68.3228
120.226 4749 68.913
120.343 4713 68.6513
120.46 4688 68.469
120.578 4655 68.2276
120.695 4700 68.5565
120.812 4705 68.593
120.929 4571 67.6092
121.046 4660 68.2642
121.163 4543 67.4018
121.279 4496 67.0522
121.396 4525 67.2681
121.513 4681 68.4178
121.63 4309 65.643
121.747 4589 67.7422
121.863 4594 67.7791
121.98 4643 68.1396
122.097 4660 68.2642
122.213 4801 69.2892
122.33 4726 68.7459
122.446 4715 68.6659
122.563 4649 68.1836
122.679 4567 67.5796
122.795 4395 66.2948
122.912 4155 64.4593
123.028 3570 59.7495
123.144 3171 56.3116
123.26 2902 53.8702
123.377 0 1
123.493 0 1
123.609 0 1
123.725 0 1
123.84 0 1
123.956 0 1
124.072 0 1
124.188 0 1
124.303 0 1
124.419 0 1
126.852 0 1
126.968 0 1
127.083 0 1
127.199 0 1
127.315 0 1
127.431 0 1
127.547 0 1
127.663 0 1
127.779 0 1
127.895 0 1
128.011 0 1
128.127 0 1
128.243 0 1
128.359 3562 59.6825
128.476 3305 57.4891
128.592 3422 58.4979
128.708 3915 62.57
128.825 4333 65.8255
128.941 4525 67.2681
129.058 4849 69.6348
129.174 4920 70.1427
129.291 4833 69.5198
129.408 4900 70
129.524 4809 69.347
129.641 4807 69.3325
129.758 4840 69.5701
129.875 4747 68.8985
129.992 4746 68.8912
130.108 4721 68.7095
130.225 4697 68.5347
130.342 4714 68.6586
130.459 4483 66.9552
130.576 4755 68.9565
130.693 4733 68.7968
130.81 4744 68.8767
130.928 4778 69.1231
131.045 4911 70.0785
131.162 4765 69.029
131.279 4829 69.491
131.396 4953 70.3776
131.513 4756 68.9638
131.631 4514 67.1863
131.748 4329 65.7951
131.865 3875 62.2495
131.983 3269 57.1752
132.1 3326 57.6715
132.217 3607 60.0583
132.335 3981 63.0952
132.452 4295 65.5362
132.57 4727 68.7532
132.687 4556 67.4981
132.804 4917 70.1213
132.922 4665 68.3008
133.039 4707 68.6076
133.157 4842 69.5845
133.274 4588 67.7348
133.392 4491 67.0149
133.509 4573 67.624
133.627 4603 67.8454
133.744 4714 68.6586
133.862 4593 67.7717
133.979 4453 66.7308
134.097 4542 67.3944
134.214 4577 67.6535
134.332 4607 67.8749
134.449 4599 67.8159
134.567 4535 67.3424
134.684 4798 69.2676
134.802 4707 68.6076
134.919 4711 68.6367
135.037 4684 68.4398
135.154 4528 67.2904
135.272 4380 66.1816
135.389 3952 62.8649
135.507 3554 59.6154
135.624 3251 57.0175
135.742 3196 56.5332
135.859 3612 60.0999
135.977 4079 63.867
136.094 4375 66.1438
136.211 4567 67.5796
136.329 4569 67.5944
136.446 4625 68.0074
136.564 4587 67.7274
136.681 4587 67.7274
136.798 4547 67.4314
136.915 4556 67.4981
137.033 4418 66.468
137.15 4541 67.3869
137.267 4427 66.5357
137.384 4389 66.2495
137.502 4315 65.6887
137.619 4328 65.7875
137.736 4474 66.888
137.853 4342 65.8939
137.97 4281 65.4294
138.087 4450 66.7083
138.204 4572 67.6166
138.321 4477 66.9104
138.438 4512 67.1714
138.555 4597 67.8012
138.672 4476 66.9029
138.788 4355 65.9924
138.905 4265 65.307
139.022 4034 63.5138
139.139 3626 60.2163
139.255 3294 57.3934
139.372 3320 57.6194
139.488 3603 60.025
139.605 3943 62.7933
139.721 4162 64.5136
139.838 4499 67.0746
139.954 4556 67.4981
140.071 4417 66.4605
140.187 4398 66.3174
140.303 4354 65.9848
140.419 4377 66.1589
140.535 4328 65.7875
140.652 4280 65.4217
140.768 0 1
140.884 0 1
141 0 1
141.115 0 1
141.231 0 1
141.347 0 1
141.463 0 1
141.578 0 1
141.694 0 1
144.104 0 1
144.219 0 1
144.335 0 1
144.45 0 1
144.566 0 1
144.682 0 1
144.798 0 1
144.914 0 1
145.03 0 1
145.146 3853 62.0725
145.262 4014 63.3561
145.378 3923 62.6339
145.494 3964 62.9603
145.61 3713 60.9344
145.726 3723 61.0164
145.842 3719 60.9836
145.959 3662 60.5145
146.075 3769 61.3922
146.192 3814 61.7576
146.308 3929 62.6817
146.425 3697 60.803
146.541 3639 60.3241
146.658 3767 61.3759
146.774 3691 60.7536
146.891 3708 60.8933
147.008 3691 60.7536
147.125 3744 61.1882
147.241 3727 61.0492
147.358 3680 60.663
147.475 3665 60.5392
147.592 3332 57.7235
147.709 3139 56.0268
147.826 2886 53.7215
147.943 2728 52.2303
148.06 2981 54.5985
148.177 3259 57.0877
148.294 3519 59.3212
148.411 3643 60.3573
148.528 3715 60.9508
148.645 3586 59.8832
148.762 3575 59.7913
148.88 3498 59.1439
148.997 3478 58.9746
149.114 3656 60.4649
149.231 3534 59.4475
149.349 3447 58.7112
149.466 3504 59.1946
149.583 3375 58.0948
149.701 3399 58.3009
149.818 3536 59.4643
149.935 3547 59.5567
150.053 3573 59.7746
150.17 3430 58.5662
150.287 3474 58.9406
150.405 3515 59.2874
150.522 3512 59.2621
150.64 3541 59.5063
150.757 3543 59.5231
150.875 3518 59.3127
150.992 3510 59.2453
151.11 3301 57.4543
151.227 3139 56.0268
151.344 3043 55.1634
151.462 2745 52.3927
151.579 2686 51.8266
151.697 2808 52.9906
151.814 3076 55.4617
151.932 3332 57.7235
152.049 3500 59.1608
152.167 3638 60.3158
152.284 3494 59.1101
152.402 3533 59.439
152.519 3474 58.9406
152.636 3497 59.1354
152.754 3582 59.8498
152.871 3419 58.4722
152.989 3313 57.5587
153.106 3468 58.8897
153.223 3393 58.2495
153.341 3447 58.7112
153.458 3368 58.0345
153.575 3419 58.4722
153.693 3462 58.8388
153.81 3477 58.9661
153.927 3427 58.5406
154.044 3362 57.9828
154.162 3505 59.203
154.279 3558 59.649
154.396 3540 59.4979
154.513 3614 60.1166
154.63 3615 60.1249
154.747 3472 58.9237
154.864 3526 59.3801
154.981 3172 56.3205
155.098 3021 54.9636
155.215 2930 54.1295
155.332 3018 54.9363
155.449 3257 57.0701
155.566 3538 59.4811
155.683 3523 59.3549
155.8 3648 60.3987
155.917 3550 59.5819
156.033 3620 60.1664
156.15 0 1
156.267 0 1
156.383 0 1
156.5 0 1
156.617 0 1
156.733 0 1
156.85 0 1
156.966 0 1
157.082 0 1
157.199 0 1
157.315 0 1
157.431 0 1
157.547 0 1
157.664 0 1
157.78 0 1
157.896 0 1
158.012 0 1
158.128 0 1
158.244 0 1
158.359 0 1
158.475 0 1
158.591 0 1
158.706 0 1
