
6.15755 0 1
6.2731 0 1
6.3887 0 1
6.50437 0 1
6.62009 0 1
6.73587 0 1
6.8517 0 1
6.96759 0 1
7.08353 0 1
7.19952 0 1
7.31557 0 1
7.43166 0 1
7.54781 0 1
7.664 0 1
7.78024 0 1
7.89653 0 1
8.01286 0 1
8.12924 0 1
8.24567 0 1
8.36213 0 1
8.47864 0 1
8.59519 0 1
8.71178 0 1
8.82841 0 1
8.94508 0 1
9.06179 0 1
9.17853 0 1
9.29531 0 1
9.41212 0 1
9.52897 0 1
9.64584 0 1
9.76276 0 1
9.8797 0 1
9.99667 0 1
10.1137 0 1
10.2307 0 1
10.3478 0 1
10.4648 0 1
10.5819 0 1
10.6991 0 1
10.8162 0 1
10.9334 0 1
11.0506 0 1
11.1678 0 1
11.285 0 1
11.4023 0 1
11.5196 0 1
11.6369 0 1
11.7542 0 1
11.8715 0 1
11.9888 0 1
12.1062 0 1
12.2235 0 1
12.3409 0 1
12.4582 0 1
12.5756 0 1
12.693 0 1
12.8104 0 1
12.9278 0 1
13.0452 0 1
13.1626 0 1
13.28 0 1
13.3974 0 1
13.5149 0 1
13.6323 0 1
13.7497 0 1
13.8671 0 1
13.9845 0 1
14.1019 0 1
14.2193 0 1
14.3367 0 1
14.4541 0 1
14.5714 0 1
14.6888 0 1
14.8062 0 1
14.9235 0 1
15.0408 0 0
15.1581 0 0
15.2755 0 0
15.3927 0 0
15.51 0 0
15.6273 0 0
15.7445 0 0
15.8617 0 0
15.9789 0 0
16.0961 0 0
16.2132 0 0
16.3304 0 0
16.4475 0 0
16.5646 0 0
16.6816 0 0
16.7986 0 0
16.9156 0 0
17.0326 0 0
17.1496 0 0
17.2665 0 0
17.3833 0 0
17.5002 0 0
17.617 0 0
17.7338 0 0
17.8505 0 0
17.9672 0 0
18.0839 0 0
18.2005 0 0
18.3171 0 0
18.4337 0 0
18.5502 0 0
18.6666 0 0
18.7831 0 0
18.8994 0 0
19.0158 0 0
19.1321 0 0
19.2483 0 0
19.3645 0 0
19.4806 0 0
19.5967 0 0
19.7128 0 0
19.8288 0 0
19.9447 0 0
20.0606 0 1
20.1764 0 1
20.2922 0 1
20.4079 0 1
20.5236 0 1
20.6392 0 1
20.7548 0 1
20.8702 0 1
23.3078 0 1
23.4233 0 1
23.539 0 1
23.6547 0 1
23.7704 0 1
23.8862 0 1
24.0021 0 1
24.118 0 1
24.234 0 1
24.35 0 1
24.4661 52706 229.578
24.5822 60496 245.959
24.6984 64821 254.6
24.8146 65891 256.692
24.9309 67470 259.75
25.0472 67425 259.663
25.1636 67320 259.461
25.28 67705 260.202
25.3965 68084 260.929
25.513 66895 258.641
25.6296 67016 258.874
25.7462 67293 259.409
25.8628 65664 256.25
25.9795 64639 254.242
26.0962 63014 251.026
26.213 62062 249.122
26.3298 59517 243.961
26.4466 58339 241.535
26.5635 56982 238.709
26.6804 54769 234.028
26.7973 52751 229.676
26.9143 52714 229.595
27.0313 52726 229.621
27.1483 53467 231.229
27.2653 53804 231.957
27.3824 53950 232.271
27.4996 53448 231.188
27.6167 50222 224.103
27.7339 43924 209.581
27.8511 40362 200.903
27.9683 42541 206.255
28.0855 46622 215.921
28.2028 51549 227.044
28.3201 54325 233.077
28.4374 57522 239.837
28.5547 58422 241.706
28.6721 60024 244.998
28.7894 60179 245.314
28.9068 60518 246.004
29.0242 60920 246.82
29.1416 60908 246.795
29.259 61071 247.125
29.3764 61067 247.117
29.4939 61068 247.119
29.6113 60560 246.089
29.7288 60806 246.589
29.8463 60055 245.061
29.9638 59298 243.512
30.0812 57545 239.885
30.1987 56951 238.644
30.3162 56660 238.034
30.4337 57290 239.353
30.5512 57297 239.368
30.6687 56179 237.021
30.7862 56236 237.141
30.9037 55260 235.074
31.0212 54563 233.587
31.1387 50617 224.982
31.2562 44868 211.821
31.3737 43293 208.07
31.4912 43421 208.377
31.6087 43680 208.998
31.7262 44267 210.397
31.8436 47039 216.885
31.9611 48861 221.045
32.0785 48635 220.533
32.1959 49305 222.047
32.3134 49218 221.851
32.4308 48274 219.713
32.5482 48413 220.03
32.6655 47638 218.261
32.7829 47468 217.872
32.9002 46990 216.772
33.0176 46492 215.62
33.1349 46177 214.888
33.2522 45787 213.979
33.3694 45743 213.876
33.4867 44307 210.492
33.6039 42578 206.344
33.7211 41160 202.879
33.8383 40788 201.96
33.9554 40752 201.871
34.0725 40959 202.383
34.1896 41338 203.317
34.3067 40314 200.783
34.4237 39474 198.681
34.5407 38897 197.223
34.6577 38632 196.55
34.7746 38058 195.085
34.8915 36984 192.312
35.0084 34150 184.797
35.1252 31518 177.533
35.242 29044 170.423
35.3587 27943 167.162
35.4755 28498 168.814
35.5921 30598 174.923
35.7088 32410 180.028
35.8254 33775 183.78
35.9419 34497 185.734
36.0584 34083 184.616
36.1749 34092 184.64
36.2913 34524 185.806
36.4077 34442 185.586
36.524 34573 185.938
36.6403 35368 188.064
36.7565 35541 188.523
36.8727 35663 188.846
36.9889 35119 187.401
37.1049 34180 184.878
37.221 0 1
37.3369 0 1
37.4529 0 1
37.5687 0 1
37.6845 0 1
37.8003 0 1
37.916 0 1
38.0316 0 1
38.1472 0 1
40.5851 0 1
40.7008 0 1
40.8164 0 1
40.9322 0 1
41.048 0 1
41.1639 0 1
41.2798 0 1
41.3958 0 1
41.5118 0 1
41.6279 0 1
41.744 41550 203.838
41.8602 43363 208.238
41.9765 43934 209.604
42.0928 43898 209.518
42.2091 43402 208.331
42.3255 43369 208.252
42.4419 43800 209.284
42.5584 44774 211.599
42.675 46194 214.928
42.7915 47535 218.025
42.9081 47169 217.184
43.0248 47342 217.582
43.1415 46937 216.649
43.2582 47031 216.866
43.375 45308 212.857
43.4918 45645 213.647
43.6087 47182 217.214
43.7256 48159 219.452
43.8425 48719 220.724
43.9595 48543 220.325
44.0765 46296 215.165
44.1935 42763 206.792
44.3106 41268 203.145
44.4277 42083 205.141
44.5448 44553 211.076
44.6619 45652 213.663
44.7791 46609 215.891
44.8963 46389 215.381
45.0136 45729 213.843
45.1308 45774 213.949
45.2481 45294 212.824
45.3654 45151 212.488
45.4827 44701 211.426
45.6001 44012 209.79
45.7174 43092 207.586
45.8348 42252 205.553
45.9522 42487 206.124
46.0697 42419 205.959
46.1871 43084 207.567
46.3046 43271 208.017
46.422 42508 206.175
46.5395 41696 204.196
46.657 41502 203.72
46.7745 40399 200.995
46.892 38310 195.729
47.0096 38025 195
47.1271 39807 199.517
47.2446 40794 201.975
47.3622 41106 202.746
47.4797 40887 202.205
47.5973 41279 203.172
47.7149 39416 198.535
47.8324 37161 192.772
47.95 35996 189.726
48.0675 36698 191.567
48.1851 38355 195.844
48.3027 39147 197.856
48.4202 39697 199.241
48.5378 39871 199.677
48.6554 40073 200.182
48.7729 40491 201.224
48.8904 40649 201.616
49.008 40662 201.648
49.1255 40261 200.651
49.243 40499 201.244
49.3605 40506 201.261
49.478 41714 204.24
49.5955 42039 205.034
49.713 43467 208.487
49.8304 44025 209.821
49.9479 44205 210.25
50.0653 44630 211.258
50.1827 44041 209.859
50.3001 41893 204.678
50.4175 40129 200.322
50.5348 41970 204.866
50.6521 46771 216.266
50.7694 49397 222.254
50.8867 52279 228.646
51.004 54440 233.324
51.1212 55606 235.809
51.2384 56642 237.996
51.3556 54790 234.073
51.4727 53418 231.123
51.5899 54913 234.335
51.707 57027 238.803
51.824 59697 244.33
51.9411 60985 246.951
52.0581 62068 249.135
52.175 63253 251.501
52.2919 63093 251.183
52.4088 64537 254.041
52.5257 64212 253.401
52.6425 63529 252.05
52.7593 63528 252.048
52.876 64271 253.517
52.9927 65313 255.564
53.1094 65832 256.577
53.226 67997 260.762
53.3426 68190 261.132
53.4591 68579 261.876
53.5756 67023 258.888
53.692 65884 256.679
53.8084 63339 251.672
53.9248 60393 245.75
54.0411 59454 243.832
54.1573 63162 251.321
54.2735 0 1
54.3896 0 1
54.5057 0 1
54.6217 0 1
54.7377 0 1
54.8537 0 1
54.9695 0 1
55.0853 0 1
55.2011 0 1
55.3168 0 1
55.4324 0 1
57.824 0 1
57.9396 0 1
58.0553 0 1
58.1711 0 1
58.2869 0 1
58.4028 0 1
58.5187 0 1
58.6347 0 1
58.7508 0 1
58.8669 0 1
58.983 68990 262.659
59.0992 68467 261.662
59.2155 71712 267.791
59.3318 75203 274.232
59.4482 78753 280.63
59.5646 81451 285.396
59.681 82741 287.647
59.7975 82633 287.46
59.9141 82049 286.442
60.0306 80337 283.438
60.1473 78726 280.582
60.2639 78034 279.346
60.3807 76752 277.042
60.4974 76801 277.13
60.6142 75467 274.713
60.731 75392 274.576
60.8479 75754 275.234
60.9648 74441 272.839
61.0818 74367 272.703
61.1987 72709 269.646
61.3158 74163 272.329
61.4328 73272 270.688
61.5499 72781 269.78
61.667 73481 271.074
61.7841 73122 270.411
61.9013 72538 269.329
62.0185 70081 264.728
62.1357 66954 258.755
62.253 64137 253.253
62.3702 61708 248.411
62.4875 61275 247.538
62.6049 63703 252.395
62.7222 68379 261.494
62.8396 70387 265.305
62.9569 72697 269.624
63.0743 74008 272.044
63.1918 74994 273.85
63.3092 73934 271.908
63.4267 73065 270.305
63.5441 72319 268.922
63.6616 71673 267.718
63.7791 70363 265.26
63.8966 70118 264.798
64.0142 69036 262.747
64.1317 68264 261.274
64.2492 67522 259.85
64.3668 66783 258.424
64.4843 66136 257.169
64.6019 66057 257.016
64.7195 66233 257.358
64.837 66546 257.965
64.9546 66904 258.658
65.0722 66192 257.278
65.1898 66394 257.67
65.3074 67524 259.854
65.4249 65133 255.212
65.5425 63844 252.674
65.6601 60897 246.773
65.7777 57849 240.518
65.8952 55097 234.728
66.0128 54142 232.684
66.1304 56806 238.34
66.2479 61761 248.518
66.3655 64740 254.441
66.483 67993 260.755
66.6005 70535 265.584
66.718 70822 266.124
66.8355 71181 266.798
66.953 71247 266.921
67.0705 70696 265.887
67.1879 69258 263.169
67.3054 67770 260.327
67.4228 67020 258.882
67.5402 66359 257.602
67.6576 66821 258.498
67.7749 64650 254.264
67.8923 65962 256.831
68.0096 64492 253.953
68.1269 64094 253.168
68.2442 64857 254.67
68.3614 65759 256.435
68.4787 66550 257.973
68.5958 67317 259.455
68.713 67402 259.619
68.8302 67968 260.707
68.9473 68490 261.706
69.0643 66411 257.703
69.1814 64073 253.126
69.2984 61379 247.748
69.4154 59183 243.276
69.5323 56321 237.32
69.6492 56848 238.428
69.7661 61412 247.814
69.8829 65627 256.178
69.9997 68875 262.44
70.1165 71152 266.743
70.2332 73608 271.308
70.3499 75245 274.308
70.4665 75357 274.512
70.5831 75653 275.051
70.6996 74298 272.577
70.8161 72809 269.831
70.9326 71634 267.645
71.049 70404 265.338
71.1653 69570 263.761
71.2817 67500 259.808
71.3979 66031 256.965
71.5141 64486 253.941
71.6303 62327 249.654
71.7464 57156 239.073
71.8624 0 1
71.9784 0 1
72.0944 0 1
72.2102 0 1
72.3261 0 1
72.4418 0 1
72.5575 0 1
72.6732 0 1
75.1054 0 1
75.2209 0 1
75.3365 0 1
75.4521 0 1
75.5678 0 1
75.6835 0 1
75.7993 0 1
75.9151 0 1
76.031 0 1
76.147 65376 255.687
76.263 69208 263.074
76.3791 69889 264.365
76.4952 68244 261.236
76.6113 67961 260.693
76.7276 67145 259.124
76.8438 65279 255.498
76.9601 64874 254.704
77.0765 64238 253.452
77.1929 64624 254.213
77.3093 65684 256.289
77.4258 66355 257.595
77.5423 66959 258.764
77.6589 66532 257.938
77.7755 67086 259.01
77.8921 65761 256.439
78.0088 64607 254.179
78.1256 61105 247.194
78.2423 57452 239.691
78.3591 53360 230.998
78.4759 50190 224.031
78.5928 49959 223.515
78.7097 53635 231.592
78.8266 61222 247.431
78.9436 59500 243.926
79.0606 64354 253.681
79.1776 67091 259.019
79.2946 70620 265.744
79.4117 71615 267.61
79.5288 72092 268.5
79.6459 71767 267.894
79.7631 71246 266.919
79.8802 69326 263.298
79.9974 68390 261.515
80.1147 66309 257.505
80.2319 65533 255.994
80.3491 64271 253.517
80.4664 62912 250.823
80.5837 62020 249.038
80.701 60849 246.676
80.8183 60510 245.988
80.9357 61654 248.302
81.053 62362 249.724
81.1704 62898 250.795
81.2877 63212 251.42
81.4051 63031 251.06
81.5225 63089 251.175
81.6399 59559 244.047
81.7573 57918 240.662
81.8747 53131 230.502
81.9922 49683 222.897
82.1096 47406 217.729
82.227 47680 218.358
82.3444 50962 225.748
82.4619 56282 237.238
82.5793 57860 240.541
82.6967 61291 247.57
82.8142 62997 250.992
82.9316 65697 256.314
83.049 66154 257.204
83.1664 66266 257.422
83.2838 65505 255.939
83.4012 64489 253.947
83.5186 63777 252.541
83.636 63216 251.428
83.7534 61793 248.582
83.8708 60516 246
83.9881 58728 242.339
84.1055 57318 239.412
84.2228 55362 235.291
84.3401 55564 235.72
84.4575 56188 237.04
84.5747 57203 239.171
84.692 58169 241.183
84.8093 58976 242.85
84.9265 58418 241.698
85.0437 58499 241.866
85.1609 57440 239.666
85.2781 54605 233.677
85.3952 51598 227.152
85.5123 48627 220.515
85.6294 46412 215.434
85.7465 46622 215.921
85.8636 50293 224.261
85.9806 55569 235.731
86.0976 59381 243.682
86.2145 61472 247.935
86.3315 63717 252.422
86.4484 70701 265.897
86.5652 70965 266.393
86.682 71818 267.989
86.7988 71319 267.056
86.9156 71726 267.817
87.0323 70693 265.882
87.149 70674 265.846
87.2657 69990 264.556
87.3823 68944 262.572
87.4988 67996 260.76
87.6154 65628 256.18
87.7318 64525 254.018
87.8483 63416 251.825
87.9647 64085 253.15
88.081 65230 255.402
88.1973 67590 259.981
88.3136 67171 259.174
88.4298 66710 258.283
88.546 66080 257.06
88.6621 64692 254.346
88.7781 61809 248.614
88.8942 0 1
89.0101 0 1
89.126 0 1
89.2419 0 1
89.3577 0 1
89.4734 0 1
89.5891 0 1
89.7047 0 1
89.8203 0 1
89.9358 0 1
92.3269 0 1
92.4424 0 1
92.558 0 1
92.6736 0 1
92.7893 0 1
92.905 0 1
93.0208 0 1
93.1366 0 1
93.2525 0 1
93.3685 0 1
93.4845 0 1
93.6005 63634 252.258
93.7167 65080 255.108
93.8328 64979 254.91
93.949 64798 254.555
94.0653 63253 251.501
94.1816 61510 248.012
94.2979 59963 244.873
94.4143 56606 237.92
94.5307 53355 230.987
94.6472 51503 226.943
94.7637 50591 224.924
94.8803 53434 231.158
94.9969 57286 239.345
95.1135 61903 248.803
95.2302 64537 254.041
95.3469 66497 257.87
95.4637 69568 263.757
95.5805 73225 270.601
95.6973 75951 275.592
95.8142 77787 278.903
95.9311 77313 278.052
96.048 76219 276.078
96.1649 75974 275.634
96.2819 75836 275.383
96.3989 74713 273.337
96.516 73906 271.857
96.633 72640 269.518
96.7501 71841 268.032
96.8673 69522 263.67
96.9844 66988 258.82
97.1016 66896 258.643
97.2188 66429 257.738
97.336 68146 261.048
97.4532 68581 261.88
97.5704 68242 261.232
97.6877 67149 259.131
97.805 65743 256.404
97.9223 63849 252.684
98.0396 60679 246.331
98.1569 56602 237.912
98.2743 53130 230.499
98.3916 52562 229.264
98.509 55208 234.964
98.6264 58802 242.491
98.7438 64478 253.925
98.8612 68279 261.303
98.9786 71144 266.728
99.096 74240 272.47
99.2134 79129 281.299
99.3308 80971 284.554
99.4482 81590 285.64
99.5656 82345 286.958
99.6831 82184 286.678
99.8005 80802 284.257
99.9179 79845 282.569
100.035 79390 281.762
100.153 78475 280.134
100.27 77843 279.004
100.388 76524 276.63
100.505 74203 272.402
100.622 72251 268.795
100.74 71170 266.777
100.857 71394 267.197
100.975 73256 270.658
101.092 73892 271.831
101.209 73579 271.254
101.327 72327 268.937
101.444 71088 266.623
101.561 67772 260.331
101.679 63753 252.494
101.796 58857 242.605
101.913 55986 236.614
102.03 56800 238.328
102.148 60985 246.951
102.265 71002 266.462
102.382 68346 261.431
102.499 75084 274.015
102.616 78510 280.196
102.733 83781 289.449
102.851 87201 295.298
102.968 88019 296.68
103.085 87456 295.73
103.202 86771 294.569
103.319 86359 293.869
103.436 85379 292.197
103.552 84033 289.884
103.669 82768 287.694
103.786 81751 285.921
103.903 81243 285.032
104.02 78926 280.938
104.137 75777 275.276
104.253 76270 276.17
104.37 73648 271.382
104.487 77083 277.638
104.603 77537 278.455
104.72 77190 277.831
104.836 75967 275.621
104.953 74656 273.233
105.069 70835 266.148
105.186 65147 255.239
105.302 60244 245.447
105.418 58608 242.091
105.535 61978 248.954
105.651 67722 260.235
105.767 73811 271.682
105.883 77019 277.523
105.999 81191 284.94
106.115 0 1
106.231 0 1
106.347 0 1
106.463 0 1
106.579 0 1
106.694 0 1
106.81 0 1
106.926 0 1
107.041 0 1
107.157 0 1
109.576 0 1
109.692 0 1
109.807 0 1
109.923 0 1
110.039 0 1
110.155 0 1
110.27 0 1
110.386 0 1
110.502 0 1
110.618 55778 236.174
110.735 62461 249.922
110.851 67176 259.183
110.967 69402 263.443
111.083 72465 269.193
111.199 77218 277.881
111.316 79665 282.25
111.432 80403 283.554
111.549 79820 282.524
111.665 79396 281.773
111.782 78285 279.795
111.898 76349 276.313
112.015 74167 272.336
112.132 72226 268.749
112.248 70761 266.009
112.365 70964 266.391
112.482 69985 264.547
112.599 65784 256.484
112.716 64139 253.257
112.832 62214 249.427
112.949 61007 246.996
113.066 62155 249.309
113.183 62498 249.996
113.3 61770 248.536
113.417 60708 246.39
113.534 58765 242.415
113.652 56453 237.598
113.769 52621 229.393
113.886 47758 218.536
114.003 45620 213.588
114.12 48079 219.269
114.238 52042 228.127
114.355 55719 236.049
114.472 57871 240.564
114.589 60626 246.223
114.707 64649 254.262
114.824 67512 259.831
114.942 69015 262.707
115.059 69520 263.666
115.176 69075 262.821
115.294 69284 263.219
115.411 68446 261.622
115.529 66900 258.65
115.646 65448 255.828
115.764 64366 253.705
115.881 63815 252.616
115.999 63628 252.246
116.116 63652 252.293
116.234 61726 248.447
116.351 59635 244.203
116.469 58873 242.638
116.586 58810 242.508
116.704 59365 243.649
116.821 59685 244.305
116.939 60243 245.444
117.056 59074 243.051
117.174 56684 238.084
117.291 54434 233.311
117.409 50306 224.29
117.526 46971 216.728
117.644 46677 216.049
117.761 50160 223.964
117.879 54617 233.703
117.996 57146 239.052
118.114 60031 245.012
118.231 63935 252.854
118.349 67123 259.081
118.466 70070 264.707
118.584 71161 266.76
118.701 71701 267.77
118.819 72063 268.446
118.936 70660 265.819
119.053 70238 265.025
119.171 68229 261.207
119.288 66439 257.758
119.405 64132 253.243
119.523 64023 253.028
119.64 65770 256.457
119.757 65280 255.5
119.875 64803 254.564
119.992 63000 250.998
120.109 61323 247.635
120.226 60954 246.889
120.343 60362 245.687
120.46 61485 247.962
120.578 61333 247.655
120.695 61338 247.665
120.812 59652 244.238
120.929 56724 238.168
121.046 53268 230.799
121.163 49115 221.619
121.279 47252 217.375
121.396 48172 219.481
121.513 51781 227.554
121.63 55394 235.359
121.747 57082 238.918
121.863 61021 247.024
121.98 65655 256.232
122.097 68604 261.924
122.213 70292 265.126
122.33 71032 266.518
122.446 71104 266.653
122.563 70934 266.334
122.679 70478 265.477
122.795 69458 263.549
122.912 68067 260.897
123.028 65155 255.255
123.144 63346 251.686
123.26 63092 251.181
123.377 0 1
123.493 0 1
123.609 0 1
123.725 0 1
123.84 0 1
123.956 0 1
124.072 0 1
124.188 0 1
124.303 0 1
124.419 0 1
126.852 0 1
126.968 0 1
127.083 0 1
127.199 0 1
127.315 0 1
127.431 0 1
127.547 0 1
127.663 0 1
127.779 0 1
127.895 0 1
128.011 0 1
128.127 0 1
128.243 0 1
128.359 68233 261.214
128.476 67389 259.594
128.592 68805 262.307
128.708 70711 265.915
128.825 71546 267.481
128.941 70671 265.84
129.058 69194 263.048
129.174 67682 260.158
129.291 66261 257.412
129.408 65952 256.811
129.524 65661 256.244
129.641 65974 256.854
129.758 66245 257.381
129.875 63111 251.219
129.992 58959 242.815
130.108 54712 233.906
130.225 52161 228.388
130.342 51485 226.903
130.459 51397 226.709
130.576 57870 240.562
130.693 59264 243.442
130.81 64548 254.063
130.928 69560 263.742
131.045 72587 269.42
131.162 73442 271.002
131.279 74108 272.228
131.396 73637 271.361
131.513 72828 269.867
131.631 71571 267.528
131.748 69483 263.596
131.865 65769 256.455
131.983 63950 252.883
132.1 65258 255.456
132.217 67338 259.496
132.335 68014 260.795
132.452 66154 257.204
132.57 65064 255.076
132.687 61955 248.908
132.804 64002 252.986
132.922 61576 248.145
133.039 61121 247.227
133.157 61214 247.415
133.274 61421 247.833
133.392 61195 247.376
133.509 57809 240.435
133.627 54045 232.476
133.744 51317 226.533
133.862 48776 220.853
133.979 48347 219.88
134.097 49626 222.769
134.214 53709 231.752
134.332 55530 235.648
134.449 61743 248.481
134.567 65189 255.321
134.684 67390 259.596
134.802 67274 259.372
134.919 67846 260.473
135.037 67412 259.638
135.154 66678 258.221
135.272 64607 254.179
135.389 61026 247.034
135.507 59089 243.082
135.624 59853 244.649
135.742 61660 248.314
135.859 62822 250.643
135.977 62598 250.196
136.094 61635 248.264
136.211 59832 244.606
136.329 59591 244.113
136.446 58218 241.284
136.564 57491 239.773
136.681 57363 239.506
136.798 55794 236.208
136.915 56873 238.481
137.033 56992 238.73
137.15 55676 235.958
137.267 51812 227.622
137.384 49932 223.455
137.502 48020 219.135
137.619 45658 213.677
137.736 45274 212.777
137.853 46847 216.442
137.97 50277 224.225
138.087 58116 241.073
138.204 60668 246.309
138.321 62519 250.038
138.438 63677 252.343
138.555 62813 250.625
138.672 63309 251.613
138.788 61323 247.635
138.905 59366 243.651
139.022 56585 237.876
139.139 55494 235.572
139.255 55906 236.444
139.372 57259 239.289
139.488 58468 241.802
139.605 58850 242.59
139.721 57087 238.929
139.838 55794 236.208
139.954 54608 233.684
140.071 53644 231.612
140.187 54014 232.409
140.303 52958 230.126
140.419 51576 227.104
140.535 50880 225.566
140.652 50779 225.342
140.768 0 1
140.884 0 1
141 0 1
141.115 0 1
141.231 0 1
141.347 0 1
141.463 0 1
141.578 0 1
141.694 0 1
144.104 0 1
144.219 0 1
144.335 0 1
144.45 0 1
144.566 0 1
144.682 0 1
144.798 0 1
144.914 0 1
145.03 0 1
145.146 42811 206.908
145.262 43498 208.562
145.378 43290 208.062
145.494 42425 205.973
145.61 41798 204.446
145.726 41431 203.546
145.842 42094 205.168
145.959 41619 204.007
146.075 40944 202.346
146.192 39782 199.454
146.308 36951 192.226
146.425 33962 184.288
146.541 34194 184.916
146.658 38237 195.543
146.774 42980 207.316
146.891 45621 213.591
147.008 46226 215.002
147.125 46260 215.081
147.241 45466 213.228
147.358 44501 210.953
147.475 42324 205.728
147.592 40597 201.487
147.709 39490 198.721
147.826 40436 201.087
147.943 41712 204.235
148.06 42293 205.653
148.177 42760 206.785
148.294 41674 204.142
148.411 41098 202.726
148.528 40219 200.547
148.645 39110 197.762
148.762 39294 198.227
148.88 39345 198.356
148.997 37939 194.779
149.114 39845 199.612
149.231 37806 194.438
149.349 37015 192.393
149.466 36692 191.552
149.583 37263 193.036
149.701 37215 192.912
149.818 36900 192.094
149.935 34243 185.049
150.053 31323 176.983
150.17 30733 175.308
150.287 34437 185.572
150.405 39133 197.821
150.522 41257 203.118
150.64 42014 204.973
150.757 41252 203.106
150.875 40970 202.41
150.992 40495 201.234
151.11 37718 194.211
151.227 37057 192.502
151.344 36830 191.911
151.462 37666 194.077
151.579 39414 198.53
151.697 40356 200.888
151.814 39738 199.344
151.932 38666 196.637
152.049 38124 195.254
152.167 37532 193.732
152.284 37054 192.494
152.402 36791 191.81
152.519 36963 192.258
152.636 37216 192.914
152.754 37242 192.982
152.871 36114 190.037
152.989 35407 188.167
153.106 35391 188.125
153.223 35712 188.976
153.341 35912 189.505
153.458 34944 186.933
153.575 32147 179.296
153.693 30354 174.224
153.81 30253 173.934
153.927 34001 184.394
154.044 38037 195.031
154.162 40785 201.953
154.279 41532 203.794
154.396 40980 202.435
154.513 40400 200.998
154.63 39259 198.139
154.747 38198 195.443
154.864 37768 194.34
154.981 37674 194.098
155.098 38614 196.504
155.215 39437 198.588
155.332 39086 197.702
155.449 37942 194.787
155.566 37647 194.028
155.683 37298 193.127
155.8 36940 192.198
155.917 37479 193.595
156.033 37300 193.132
156.15 0 1
156.267 0 1
156.383 0 1
156.5 0 1
156.617 0 1
156.733 0 1
156.85 0 1
156.966 0 1
157.082 0 1
157.199 0 1
157.315 0 1
157.431 0 1
157.547 0 1
157.664 0 1
157.78 0 1
157.896 0 1
158.012 0 1
158.128 0 1
158.244 0 1
158.359 0 1
158.475 0 1
158.591 0 1
158.706 0 1
