
6.15755 0 1
6.2731 0 1
6.3887 0 1
6.50437 0 1
6.62009 0 1
6.73587 0 1
6.8517 0 1
6.96759 0 1
7.08353 0 1
7.19952 0 1
7.31557 0 1
7.43166 0 1
7.54781 0 1
7.664 0 1
7.78024 0 1
7.89653 0 1
8.01286 0 1
8.12924 0 1
8.24567 0 1
8.36213 0 1
8.47864 0 1
8.59519 0 1
8.71178 0 1
8.82841 0 1
8.94508 0 1
9.06179 0 1
9.17853 0 1
9.29531 0 1
9.41212 0 1
9.52897 0 1
9.64584 0 1
9.76276 0 1
9.8797 0 1
9.99667 0 1
10.1137 0 1
10.2307 0 1
10.3478 0 1
10.4648 0 1
10.5819 0 1
10.6991 0 1
10.8162 0 1
10.9334 0 1
11.0506 0 1
11.1678 0 1
11.285 0 1
11.4023 0 1
11.5196 0 1
11.6369 0 1
11.7542 0 1
11.8715 0 1
11.9888 0 1
12.1062 0 1
12.2235 0 1
12.3409 0 1
12.4582 0 1
12.5756 0 1
12.693 0 1
12.8104 0 1
12.9278 0 1
13.0452 0 1
13.1626 0 1
13.28 0 1
13.3974 0 1
13.5149 0 1
13.6323 0 1
13.7497 0 1
13.8671 0 1
13.9845 0 1
14.1019 0 1
14.2193 0 1
14.3367 0 1
14.4541 0 1
14.5714 0 1
14.6888 0 1
14.8062 0 1
14.9235 0 1
15.0408 0 0
15.1581 0 0
15.2755 0 0
15.3927 0 0
15.51 0 0
15.6273 0 0
15.7445 0 0
15.8617 0 0
15.9789 0 0
16.0961 0 0
16.2132 0 0
16.3304 0 0
16.4475 0 0
16.5646 0 0
16.6816 0 0
16.7986 0 0
16.9156 0 0
17.0326 0 0
17.1496 0 0
17.2665 0 0
17.3833 0 0
17.5002 0 0
17.617 0 0
17.7338 0 0
17.8505 0 0
17.9672 0 0
18.0839 0 0
18.2005 0 0
18.3171 0 0
18.4337 0 0
18.5502 0 0
18.6666 0 0
18.7831 0 0
18.8994 0 0
19.0158 0 0
19.1321 0 0
19.2483 0 0
19.3645 0 0
19.4806 0 0
19.5967 0 0
19.7128 0 0
19.8288 0 0
19.9447 0 0
20.0606 0 1
20.1764 0 1
20.2922 0 1
20.4079 0 1
20.5236 0 1
20.6392 0 1
20.7548 0 1
20.8702 0 1
23.3078 0 1
23.4233 0 1
23.539 0 1
23.6547 0 1
23.7704 0 1
23.8862 0 1
24.0021 0 1
24.118 0 1
24.234 0 1
24.35 0 1
24.4661 1166 34.1467
24.5822 1159 34.0441
24.6984 1186 34.4384
24.8146 1187 34.4529
24.9309 1074 32.7719
25.0472 1074 32.7719
25.1636 1159 34.0441
25.28 1113 33.3617
25.3965 1128 33.5857
25.513 1185 34.4238
25.6296 1208 34.7563
25.7462 1263 35.5387
25.8628 1266 35.5809
25.9795 1310 36.1939
26.0962 1185 34.4238
26.213 1274 35.6931
26.3298 1292 35.9444
26.4466 1294 35.9722
26.5635 1215 34.8569
26.6804 1208 34.7563
26.7973 1135 33.6898
26.9143 1221 34.9428
27.0313 1279 35.7631
27.1483 1312 36.2215
27.2653 1356 36.8239
27.3824 1308 36.1663
27.4996 1353 36.7831
27.6167 1330 36.4692
27.7339 1263 35.5387
27.8511 1240 35.2136
27.9683 1223 34.9714
28.0855 1164 34.1174
28.2028 1211 34.7994
28.3201 1135 33.6898
28.4374 1136 33.7046
28.5547 1140 33.7639
28.6721 972 31.1769
28.7894 1046 32.3419
28.9068 1035 32.1714
29.0242 1102 33.1964
29.1416 1082 32.8938
29.259 1128 33.5857
29.3764 1124 33.5261
29.4939 1180 34.3511
29.6113 1124 33.5261
29.7288 1189 34.4819
29.8463 1136 33.7046
29.9638 1214 34.8425
30.0812 1174 34.2637
30.1987 1110 33.3167
30.3162 1087 32.9697
30.4337 1170 34.2053
30.5512 1201 34.6554
30.6687 1238 35.1852
30.7862 1274 35.6931
30.9037 1239 35.1994
31.0212 1304 36.1109
31.1387 1287 35.8748
31.2562 1264 35.5528
31.3737 1222 34.9571
31.4912 1226 35.0143
31.6087 1186 34.4384
31.7262 1167 34.1614
31.8436 1146 33.8526
31.9611 1132 33.6452
32.0785 1096 33.1059
32.1959 1062 32.5883
32.3134 1047 32.3574
32.4308 1024 32
32.5482 1011 31.7962
32.6655 1000 31.6228
32.7829 1065 32.6343
32.9002 1095 33.0908
33.0176 1127 33.5708
33.1349 1139 33.7491
33.2522 1099 33.1512
33.3694 1186 34.4384
33.4867 1151 33.9264
33.6039 1208 34.7563
33.7211 1065 32.6343
33.8383 1119 33.4515
33.9554 1109 33.3017
34.0725 1111 33.3317
34.1896 1169 34.1906
34.3067 1147 33.8674
34.4237 1320 36.3318
34.5407 1223 34.9714
34.6577 1190 34.4964
34.7746 1184 34.4093
34.8915 1266 35.5809
35.0084 1252 35.3836
35.1252 1146 33.8526
35.242 1165 34.1321
35.3587 1175 34.2783
35.4755 1102 33.1964
35.5921 1137 33.7194
35.7088 1055 32.4808
35.8254 975 31.225
35.9419 1037 32.2025
36.0584 946 30.7571
36.1749 1035 32.1714
36.2913 956 30.9192
36.4077 986 31.4006
36.524 1029 32.078
36.6403 1035 32.1714
36.7565 1113 33.3617
36.8727 1131 33.6303
36.9889 1135 33.6898
37.1049 1068 32.6803
37.221 0 1
37.3369 0 1
37.4529 0 1
37.5687 0 1
37.6845 0 1
37.8003 0 1
37.916 0 1
38.0316 0 1
38.1472 0 1
40.5851 0 1
40.7008 0 1
40.8164 0 1
40.9322 0 1
41.048 0 1
41.1639 0 1
41.2798 0 1
41.3958 0 1
41.5118 0 1
41.6279 0 1
41.744 804 28.3549
41.8602 830 28.8097
41.9765 835 28.8964
42.0928 870 29.4958
42.2091 914 30.2324
42.3255 876 29.5973
42.4419 876 29.5973
42.5584 829 28.7924
42.675 836 28.9137
42.7915 805 28.3725
42.9081 853 29.2062
43.0248 875 29.5804
43.1415 854 29.2233
43.2582 977 31.257
43.375 939 30.6431
43.4918 902 30.0333
43.6087 969 31.1288
43.7256 908 30.133
43.8425 842 29.0172
43.9595 852 29.189
44.0765 901 30.0167
44.1935 784 28
44.3106 783 27.9821
44.4277 734 27.0924
44.5448 719 26.8142
44.6619 710 26.6458
44.7791 599 24.4745
44.8963 615 24.7992
45.0136 583 24.1454
45.1308 604 24.5764
45.2481 597 24.4336
45.3654 640 25.2982
45.4827 651 25.5147
45.6001 657 25.632
45.7174 658 25.6515
45.8348 700 26.4575
45.9522 630 25.0998
46.0697 664 25.7682
46.1871 637 25.2389
46.3046 656 25.6125
46.422 604 24.5764
46.5395 671 25.9037
46.657 631 25.1197
46.7745 658 25.6515
46.892 649 25.4755
47.0096 616 24.8193
47.1271 656 25.6125
47.2446 646 25.4165
47.3622 656 25.6125
47.4797 605 24.5967
47.5973 587 24.2281
47.7149 569 23.8537
47.8324 606 24.6171
47.95 542 23.2809
48.0675 526 22.9347
48.1851 482 21.9545
48.3027 449 21.1896
48.4202 416 20.3961
48.5378 430 20.7364
48.6554 425 20.6155
48.7729 432 20.7846
48.8904 446 21.1187
49.008 461 21.4709
49.1255 549 23.4307
49.243 507 22.5167
49.3605 500 22.3607
49.478 517 22.7376
49.5955 453 21.2838
49.713 529 23
49.8304 510 22.5832
49.9479 547 23.388
50.0653 530 23.0217
50.1827 546 23.3666
50.3001 593 24.3516
50.4175 587 24.2281
50.5348 700 26.4575
50.6521 683 26.1343
50.7694 635 25.1992
50.8867 667 25.8263
51.004 683 26.1343
51.1212 627 25.04
51.2384 660 25.6905
51.3556 644 25.3772
51.4727 649 25.4755
51.5899 671 25.9037
51.707 572 23.9165
51.824 633 25.1595
51.9411 578 24.0416
52.0581 637 25.2389
52.175 638 25.2587
52.2919 644 25.3772
52.4088 712 26.6833
52.5257 748 27.3496
52.6425 775 27.8388
52.7593 766 27.6767
52.876 806 28.3901
52.9927 901 30.0167
53.1094 817 28.5832
53.226 839 28.9655
53.3426 823 28.688
53.4591 903 30.05
53.5756 866 29.4279
53.692 859 29.3087
53.8084 968 31.1127
53.9248 1019 31.9218
54.0411 1068 32.6803
54.1573 1017 31.8904
54.2735 0 1
54.3896 0 1
54.5057 0 1
54.6217 0 1
54.7377 0 1
54.8537 0 1
54.9695 0 1
55.0853 0 1
55.2011 0 1
55.3168 0 1
55.4324 0 1
57.824 0 1
57.9396 0 1
58.0553 0 1
58.1711 0 1
58.2869 0 1
58.4028 0 1
58.5187 0 1
58.6347 0 1
58.7508 0 1
58.8669 0 1
58.983 1014 31.8434
59.0992 1153 33.9559
59.2155 1134 33.6749
59.3318 1205 34.7131
59.4482 1212 34.8138
59.5646 1236 35.1568
59.681 1204 34.6987
59.7975 1216 34.8712
59.9141 1066 32.6497
60.0306 1130 33.6155
60.1473 1063 32.6037
60.2639 1028 32.0624
60.3807 906 30.0998
60.4974 861 29.3428
60.6142 853 29.2062
60.731 832 28.8444
60.8479 873 29.5466
60.9648 842 29.0172
61.0818 906 30.0998
61.1987 981 31.3209
61.3158 1000 31.6228
61.4328 963 31.0322
61.5499 1037 32.2025
61.667 973 31.1929
61.7841 1047 32.3574
61.9013 971 31.1609
62.0185 987 31.4166
62.1357 999 31.607
62.253 1032 32.1248
62.3702 1094 33.0757
62.4875 1142 33.7935
62.6049 1122 33.4963
62.7222 1205 34.7131
62.8396 1126 33.5559
62.9569 1211 34.7994
63.0743 1152 33.9411
63.1918 1135 33.6898
63.3092 1116 33.4066
63.4267 1073 32.7567
63.5441 1064 32.619
63.6616 1054 32.4654
63.7791 1013 31.8277
63.8966 855 29.2404
64.0142 855 29.2404
64.1317 787 28.0535
64.2492 772 27.7849
64.3668 873 29.5466
64.4843 869 29.4788
64.6019 955 30.9031
64.7195 985 31.3847
64.837 1021 31.9531
64.9546 1029 32.078
65.0722 1006 31.7175
65.1898 973 31.1929
65.3074 1026 32.0312
65.4249 947 30.7734
65.5425 993 31.5119
65.6601 939 30.6431
65.7777 937 30.6105
65.8952 937 30.6105
66.0128 1022 31.9687
66.1304 1133 33.6601
66.2479 1106 33.2566
66.3655 1167 34.1614
66.483 1128 33.5857
66.6005 1198 34.6121
66.718 1120 33.4664
66.8355 1172 34.2345
66.953 1124 33.5261
67.0705 1057 32.5115
67.1879 993 31.5119
67.3054 955 30.9031
67.4228 881 29.6816
67.5402 800 28.2843
67.6576 705 26.5518
67.7749 707 26.5895
67.8923 754 27.4591
68.0096 739 27.1846
68.1269 835 28.8964
68.2442 886 29.7658
68.3614 946 30.7571
68.4787 922 30.3645
68.5958 935 30.5778
68.713 1005 31.7017
68.8302 910 30.1662
68.9473 939 30.6431
69.0643 927 30.4467
69.1814 922 30.3645
69.2984 918 30.2985
69.4154 836 28.9137
69.5323 966 31.0805
69.6492 1025 32.0156
69.7661 1068 32.6803
69.8829 1140 33.7639
69.9997 1121 33.4813
70.1165 1146 33.8526
70.2332 1204 34.6987
70.3499 1196 34.5832
70.4665 1149 33.8969
70.5831 1105 33.2415
70.6996 1058 32.5269
70.8161 1032 32.1248
70.9326 942 30.692
71.049 828 28.775
71.1653 850 29.1548
71.2817 780 27.9285
71.3979 694 26.3439
71.5141 649 25.4755
71.6303 744 27.2764
71.7464 668 25.8457
71.8624 0 1
71.9784 0 1
72.0944 0 1
72.2102 0 1
72.3261 0 1
72.4418 0 1
72.5575 0 1
72.6732 0 1
75.1054 0 1
75.2209 0 1
75.3365 0 1
75.4521 0 1
75.5678 0 1
75.6835 0 1
75.7993 0 1
75.9151 0 1
76.031 0 1
76.147 893 29.8831
76.263 936 30.5941
76.3791 916 30.2655
76.4952 840 28.9828
76.6113 755 27.4773
76.7276 722 26.8701
76.8438 701 26.4764
76.9601 834 28.8791
77.0765 850 29.1548
77.1929 862 29.3598
77.3093 982 31.3369
77.4258 1014 31.8434
77.5423 1021 31.9531
77.6589 1065 32.6343
77.7755 1065 32.6343
77.8921 1007 31.7333
78.0088 989 31.4484
78.1256 966 31.0805
78.2423 952 30.8545
78.3591 941 30.6757
78.4759 965 31.0644
78.5928 907 30.1164
78.7097 999 31.607
78.8266 1013 31.8277
78.9436 1217 34.8855
79.0606 1199 34.6266
79.1776 1155 33.9853
79.2946 1107 33.2716
79.4117 1153 33.9559
79.5288 1170 34.2053
79.6459 1106 33.2566
79.7631 1025 32.0156
79.8802 954 30.8869
79.9974 919 30.315
80.1147 839 28.9655
80.2319 736 27.1293
80.3491 688 26.2298
80.4664 668 25.8457
80.5837 693 26.3249
80.701 714 26.7208
80.8183 789 28.0891
80.9357 842 29.0172
81.053 890 29.8329
81.1704 899 29.9833
81.2877 903 30.05
81.4051 857 29.2746
81.5225 840 28.9828
81.6399 860 29.3258
81.7573 866 29.4279
81.8747 740 27.2029
81.9922 746 27.313
82.1096 772 27.7849
82.227 876 29.5973
82.3444 918 30.2985
82.4619 915 30.249
82.5793 971 31.1609
82.6967 982 31.3369
82.8142 986 31.4006
82.9316 1004 31.686
83.049 961 31
83.1664 969 31.1288
83.2838 922 30.3645
83.4012 837 28.931
83.5186 766 27.6767
83.636 745 27.2947
83.7534 678 26.0384
83.8708 572 23.9165
83.9881 555 23.5584
84.1055 549 23.4307
84.2228 619 24.8797
84.3401 673 25.9422
84.4575 696 26.3818
84.5747 776 27.8568
84.692 838 28.9482
84.8093 810 28.4605
84.9265 819 28.6182
85.0437 776 27.8568
85.1609 749 27.3679
85.2781 751 27.4044
85.3952 774 27.8209
85.5123 729 27
85.6294 764 27.6405
85.7465 807 28.4077
85.8636 941 30.6757
85.9806 894 29.8998
86.0976 999 31.607
86.2145 1013 31.8277
86.3315 1146 33.8526
86.4484 1055 32.4808
86.5652 1088 32.9848
86.682 1067 32.665
86.7988 1067 32.665
86.9156 972 31.1769
87.0323 932 30.5287
87.149 895 29.9166
87.2657 822 28.6705
87.3823 713 26.7021
87.4988 676 26
87.6154 703 26.5141
87.7318 749 27.3679
87.8483 783 27.9821
87.9647 870 29.4958
88.081 936 30.5941
88.1973 1010 31.7805
88.3136 1026 32.0312
88.4298 981 31.3209
88.546 958 30.9516
88.6621 871 29.5127
88.7781 883 29.7153
88.8942 0 1
89.0101 0 1
89.126 0 1
89.2419 0 1
89.3577 0 1
89.4734 0 1
89.5891 0 1
89.7047 0 1
89.8203 0 1
89.9358 0 1
92.3269 0 1
92.4424 0 1
92.558 0 1
92.6736 0 1
92.7893 0 1
92.905 0 1
93.0208 0 1
93.1366 0 1
93.2525 0 1
93.3685 0 1
93.4845 0 1
93.6005 935 30.5778
93.7167 1020 31.9374
93.8328 993 31.5119
93.949 936 30.5941
94.0653 915 30.249
94.1816 905 30.0832
94.2979 886 29.7658
94.4143 873 29.5466
94.5307 903 30.05
94.6472 854 29.2233
94.7637 900 30
94.8803 1020 31.9374
94.9969 1098 33.1361
95.1135 1137 33.7194
95.2302 1209 34.7707
95.3469 1210 34.7851
95.4637 1173 34.2491
95.5805 1138 33.7343
95.6973 1259 35.4824
95.8142 1233 35.1141
95.9311 1167 34.1614
96.048 1143 33.8083
96.1649 1023 31.9844
96.2819 1005 31.7017
96.3989 929 30.4795
96.516 913 30.2159
96.633 787 28.0535
96.7501 763 27.6225
96.8673 772 27.7849
96.9844 811 28.4781
97.1016 899 29.9833
97.2188 990 31.4643
97.336 1011 31.7962
97.4532 1073 32.7567
97.5704 1080 32.8634
97.6877 990 31.4643
97.805 924 30.3974
97.9223 953 30.8707
98.0396 915 30.249
98.1569 906 30.0998
98.2743 855 29.2404
98.3916 961 31
98.509 967 31.0966
98.6264 1071 32.7261
98.7438 1091 33.0303
98.8612 1132 33.6452
98.9786 1165 34.1321
99.096 1128 33.5857
99.2134 1256 35.4401
99.3308 1193 34.5398
99.4482 1212 34.8138
99.5656 1157 34.0147
99.6831 1138 33.7343
99.8005 1042 32.28
99.9179 1026 32.0312
100.035 951 30.8383
100.153 793 28.1603
100.27 791 28.1247
100.388 783 27.9821
100.505 859 29.3087
100.622 891 29.8496
100.74 917 30.282
100.857 988 31.4325
100.975 1042 32.28
101.092 1003 31.6702
101.209 1010 31.7805
101.327 1000 31.6228
101.444 961 31
101.561 914 30.2324
101.679 933 30.545
101.796 920 30.3315
101.913 972 31.1769
102.03 1006 31.7175
102.148 1039 32.2335
102.265 1182 34.3802
102.382 1249 35.3412
102.499 1235 35.1426
102.616 1297 36.0139
102.733 1248 35.327
102.851 1276 35.7211
102.968 1274 35.6931
103.085 1197 34.5977
103.202 1211 34.7994
103.319 1130 33.6155
103.436 1054 32.4654
103.552 979 31.289
103.669 886 29.7658
103.786 861 29.3428
103.903 825 28.7228
104.02 838 28.9482
104.137 976 31.241
104.253 1016 31.8748
104.37 1128 33.5857
104.487 1146 33.8526
104.603 1138 33.7343
104.72 1077 32.8177
104.836 996 31.5595
104.953 984 31.3688
105.069 960 30.9839
105.186 965 31.0644
105.302 1038 32.218
105.418 1070 32.7109
105.535 1134 33.6749
105.651 1266 35.5809
105.767 1380 37.1484
105.883 1395 37.3497
105.999 1429 37.8021
106.115 0 1
106.231 0 1
106.347 0 1
106.463 0 1
106.579 0 1
106.694 0 1
106.81 0 1
106.926 0 1
107.041 0 1
107.157 0 1
109.576 0 1
109.692 0 1
109.807 0 1
109.923 0 1
110.039 0 1
110.155 0 1
110.27 0 1
110.386 0 1
110.502 0 1
110.618 1112 33.3467
110.735 1239 35.1994
110.851 1326 36.4143
110.967 1287 35.8748
111.083 1292 35.9444
111.199 1355 36.8103
111.316 1286 35.8608
111.432 1379 37.1349
111.549 1379 37.1349
111.665 1214 34.8425
111.782 1244 35.2704
111.898 1177 34.3074
112.015 1098 33.1361
112.132 1034 32.1559
112.248 891 29.8496
112.365 885 29.7489
112.482 820 28.6356
112.599 1017 31.8904
112.716 1054 32.4654
112.832 948 30.7896
112.949 1069 32.6956
113.066 1121 33.4813
113.183 1055 32.4808
113.3 979 31.289
113.417 888 29.7993
113.534 949 30.8058
113.652 936 30.5941
113.769 984 31.3688
113.886 976 31.241
114.003 975 31.225
114.12 1093 33.0606
114.238 1165 34.1321
114.355 1163 34.1028
114.472 1232 35.0999
114.589 1255 35.426
114.707 1261 35.5106
114.824 1283 35.819
114.942 1269 35.623
115.059 1371 37.027
115.176 1233 35.1141
115.294 1248 35.327
115.411 1176 34.2929
115.529 1126 33.5559
115.646 1047 32.3574
115.764 1021 31.9531
115.881 904 30.0666
115.999 921 30.348
116.116 976 31.241
116.234 1068 32.6803
116.351 1046 32.3419
116.469 1071 32.7261
116.586 1151 33.9264
116.704 1100 33.1662
116.821 1136 33.7046
116.939 1035 32.1714
117.056 952 30.8545
117.174 968 31.1127
117.291 1001 31.6386
117.409 1004 31.686
117.526 1100 33.1662
117.644 1139 33.7491
117.761 1211 34.7994
117.879 1332 36.4966
117.996 1330 36.4692
118.114 1390 37.2827
118.231 1372 37.0405
118.349 1343 36.647
118.466 1413 37.5899
118.584 1406 37.4967
118.701 1345 36.6742
118.819 1305 36.1248
118.936 1309 36.1801
119.053 1231 35.0856
119.171 1178 34.322
119.288 1066 32.6497
119.405 997 31.5753
119.523 925 30.4138
119.64 981 31.3209
119.757 1001 31.6386
119.875 1049 32.3883
119.992 1047 32.3574
120.109 1133 33.6601
120.226 1076 32.8024
120.343 1000 31.6228
120.46 1127 33.5708
120.578 977 31.257
120.695 963 31.0322
120.812 1001 31.6386
120.929 1027 32.0468
121.046 1007 31.7333
121.163 1070 32.7109
121.279 1076 32.8024
121.396 1183 34.3948
121.513 1250 35.3553
121.63 1344 36.6606
121.747 1287 35.8748
121.863 1363 36.9188
121.98 1354 36.7967
122.097 1446 38.0263
122.213 1372 37.0405
122.33 1347 36.7015
122.446 1292 35.9444
122.563 1269 35.623
122.679 1191 34.5109
122.795 1213 34.8281
122.912 1220 34.9285
123.028 1072 32.7414
123.144 999 31.607
123.26 957 30.9354
123.377 0 1
123.493 0 1
123.609 0 1
123.725 0 1
123.84 0 1
123.956 0 1
124.072 0 1
124.188 0 1
124.303 0 1
124.419 0 1
126.852 0 1
126.968 0 1
127.083 0 1
127.199 0 1
127.315 0 1
127.431 0 1
127.547 0 1
127.663 0 1
127.779 0 1
127.895 0 1
128.011 0 1
128.127 0 1
128.243 0 1
128.359 1222 34.9571
128.476 1042 32.28
128.592 1080 32.8634
128.708 1104 33.2265
128.825 1197 34.5977
128.941 1221 34.9428
129.058 1186 34.4384
129.174 1244 35.2704
129.291 1203 34.6843
129.408 1163 34.1028
129.524 1162 34.0881
129.641 1104 33.2265
129.758 1143 33.8083
129.875 1104 33.2265
129.992 1092 33.0454
130.108 1155 33.9853
130.225 1249 35.3412
130.342 1365 36.9459
130.459 1286 35.8608
130.576 1421 37.6962
130.693 1417 37.6431
130.81 1478 38.4448
130.928 1484 38.5227
131.045 1452 38.1051
131.162 1455 38.1445
131.279 1414 37.6032
131.396 1377 37.108
131.513 1328 36.4417
131.631 1306 36.1386
131.748 1258 35.4683
131.865 1206 34.7275
131.983 1114 33.3766
132.1 1110 33.3167
132.217 1149 33.8969
132.335 1159 34.0441
132.452 1263 35.5387
132.57 1239 35.1994
132.687 1180 34.3511
132.804 1217 34.8855
132.922 1130 33.6155
133.039 1150 33.9116
133.157 1147 33.8674
133.274 1193 34.5398
133.392 1131 33.6303
133.509 1085 32.9393
133.627 1146 33.8526
133.744 1237 35.171
133.862 1245 35.2846
133.979 1401 37.4299
134.097 1329 36.4555
134.214 1379 37.1349
134.332 1397 37.3765
134.449 1394 37.3363
134.567 1373 37.054
134.684 1487 38.5616
134.802 1440 37.9473
134.919 1348 36.7151
135.037 1412 37.5766
135.154 1299 36.0416
135.272 1309 36.1801
135.389 1215 34.8569
135.507 1165 34.1321
135.624 1179 34.3366
135.742 1133 33.6601
135.859 1163 34.1028
135.977 1186 34.4384
136.094 1251 35.3695
136.211 1286 35.8608
136.329 1214 34.8425
136.446 1260 35.4965
136.564 1230 35.0714
136.681 1222 34.9571
136.798 1166 34.1467
136.915 1165 34.1321
137.033 1162 34.0881
137.15 1177 34.3074
137.267 1244 35.2704
137.384 1207 34.7419
137.502 1201 34.6554
137.619 1363 36.9188
137.736 1341 36.6197
137.853 1337 36.565
137.97 1397 37.3765
138.087 1445 38.0132
138.204 1391 37.2961
138.321 1436 37.8946
138.438 1386 37.229
138.555 1354 36.7967
138.672 1324 36.3868
138.788 1362 36.9053
138.905 1262 35.5246
139.022 1200 34.641
139.139 1172 34.2345
139.255 1234 35.1283
139.372 1180 34.3511
139.488 1140 33.7639
139.605 1221 34.9428
139.721 1258 35.4683
139.838 1285 35.8469
139.954 1284 35.8329
140.071 1212 34.8138
140.187 1244 35.2704
140.303 1203 34.6843
140.419 1109 33.3017
140.535 1112 33.3467
140.652 1122 33.4963
140.768 0 1
140.884 0 1
141 0 1
141.115 0 1
141.231 0 1
141.347 0 1
141.463 0 1
141.578 0 1
141.694 0 1
144.104 0 1
144.219 0 1
144.335 0 1
144.45 0 1
144.566 0 1
144.682 0 1
144.798 0 1
144.914 0 1
145.03 0 1
145.146 847 29.1033
145.262 998 31.5911
145.378 942 30.692
145.494 906 30.0998
145.61 946 30.7571
145.726 945 30.7409
145.842 888 29.7993
145.959 957 30.9354
146.075 883 29.7153
146.192 946 30.7571
146.308 1004 31.686
146.425 1015 31.8591
146.541 1027 32.0468
146.658 1039 32.2335
146.774 1047 32.3574
146.891 1098 33.1361
147.008 1122 33.4963
147.125 1082 32.8938
147.241 1121 33.4813
147.358 1081 32.8786
147.475 1115 33.3916
147.592 1083 32.909
147.709 1108 33.2866
147.826 1070 32.7109
147.943 1044 32.311
148.06 973 31.1929
148.177 1005 31.7017
148.294 984 31.3688
148.411 1035 32.1714
148.528 1066 32.6497
148.645 1048 32.3728
148.762 1024 32
148.88 1053 32.45
148.997 1030 32.0936
149.114 1032 32.1248
149.231 995 31.5436
149.349 969 31.1288
149.466 946 30.7571
149.583 905 30.0832
149.701 1001 31.6386
149.818 958 30.9516
149.935 954 30.8869
150.053 1018 31.9061
150.17 1029 32.078
150.287 1031 32.1092
150.405 1054 32.4654
150.522 1061 32.573
150.64 1105 33.2415
150.757 1177 34.3074
150.875 1114 33.3766
150.992 1167 34.1614
151.11 1197 34.5977
151.227 1181 34.3657
151.344 1081 32.8786
151.462 1120 33.4664
151.579 1136 33.7046
151.697 1081 32.8786
151.814 977 31.257
151.932 1009 31.7648
152.049 1046 32.3419
152.167 1050 32.4037
152.284 1102 33.1964
152.402 1125 33.541
152.519 1111 33.3317
152.636 1050 32.4037
152.754 1048 32.3728
152.871 1103 33.2114
152.989 1047 32.3574
153.106 1034 32.1559
153.223 1043 32.2955
153.341 1047 32.3574
153.458 1059 32.5423
153.575 1050 32.4037
153.693 1073 32.7567
153.81 1120 33.4664
153.927 1214 34.8425
154.044 1185 34.4238
154.162 1164 34.1174
154.279 1196 34.5832
154.396 1213 34.8281
154.513 1268 35.609
154.63 1279 35.7631
154.747 1296 36
154.864 1249 35.3412
154.981 1304 36.1109
155.098 1278 35.7491
155.215 1189 34.4819
155.332 1159 34.0441
155.449 1104 33.2265
155.566 1214 34.8425
155.683 1172 34.2345
155.8 1238 35.1852
155.917 1200 34.641
156.033 1207 34.7419
156.15 0 1
156.267 0 1
156.383 0 1
156.5 0 1
156.617 0 1
156.733 0 1
156.85 0 1
156.966 0 1
157.082 0 1
157.199 0 1
157.315 0 1
157.431 0 1
157.547 0 1
157.664 0 1
157.78 0 1
157.896 0 1
158.012 0 1
158.128 0 1
158.244 0 1
158.359 0 1
158.475 0 1
158.591 0 1
158.706 0 1
