
6.15755 0 1
6.2731 0 1
6.3887 0 1
6.50437 0 1
6.62009 0 1
6.73587 0 1
6.8517 0 1
6.96759 0 1
7.08353 0 1
7.19952 0 1
7.31557 0 1
7.43166 0 1
7.54781 0 1
7.664 0 1
7.78024 0 1
7.89653 0 1
8.01286 0 1
8.12924 0 1
8.24567 0 1
8.36213 0 1
8.47864 0 1
8.59519 0 1
8.71178 0 1
8.82841 0 1
8.94508 0 1
9.06179 0 1
9.17853 0 1
9.29531 0 1
9.41212 0 1
9.52897 0 1
9.64584 0 1
9.76276 0 1
9.8797 0 1
9.99667 0 1
10.1137 0 1
10.2307 0 1
10.3478 0 1
10.4648 0 1
10.5819 0 1
10.6991 0 1
10.8162 0 1
10.9334 0 1
11.0506 0 1
11.1678 0 1
11.285 0 1
11.4023 0 1
11.5196 0 1
11.6369 0 1
11.7542 0 1
11.8715 0 1
11.9888 0 1
12.1062 0 1
12.2235 0 1
12.3409 0 1
12.4582 0 1
12.5756 0 1
12.693 0 1
12.8104 0 1
12.9278 0 1
13.0452 0 1
13.1626 0 1
13.28 0 1
13.3974 0 1
13.5149 0 1
13.6323 0 1
13.7497 0 1
13.8671 0 1
13.9845 0 1
14.1019 0 1
14.2193 0 1
14.3367 0 1
14.4541 0 1
14.5714 0 1
14.6888 0 1
14.8062 0 1
14.9235 0 1
15.0408 1129 33.6006
15.1581 1207 34.7419
15.2755 1214 34.8425
15.3927 1243 35.2562
15.51 1207 34.7419
15.6273 1182 34.3802
15.7445 1204 34.6987
15.8617 1163 34.1028
15.9789 1082 32.8938
16.0961 1150 33.9116
16.2132 1035 32.1714
16.3304 1085 32.9393
16.4475 1156 34
16.5646 1140 33.7639
16.6816 1147 33.8674
16.7986 1154 33.9706
16.9156 1124 33.5261
17.0326 1148 33.8821
17.1496 1159 34.0441
17.2665 1188 34.4674
17.3833 1168 34.176
17.5002 1190 34.4964
17.617 1243 35.2562
17.7338 1260 35.4965
17.8505 1316 36.2767
17.9672 1341 36.6197
18.0839 1378 37.1214
18.2005 1383 37.1887
18.3171 1420 37.6829
18.4337 1458 38.1838
18.5502 1452 38.1051
18.6666 1479 38.4578
18.7831 1467 38.3014
18.8994 1486 38.5487
19.0158 1397 37.3765
19.1321 1310 36.1939
19.2483 1325 36.4005
19.3645 1207 34.7419
19.4806 1172 34.2345
19.5967 1186 34.4384
19.7128 1165 34.1321
19.8288 1036 32.187
19.9447 1024 32
20.0606 0 1
20.1764 0 1
20.2922 0 1
20.4079 0 1
20.5236 0 1
20.6392 0 1
20.7548 0 1
20.8702 0 1
23.3078 0 1
23.4233 0 1
23.539 0 1
23.6547 0 1
23.7704 0 1
23.8862 0 1
24.0021 0 1
24.118 0 1
24.234 0 1
24.35 0 1
24.4661 1143 33.8083
24.5822 1101 33.1813
24.6984 1201 34.6554
24.8146 1144 33.8231
24.9309 1145 33.8378
25.0472 1143 33.8083
25.1636 1174 34.2637
25.28 1158 34.0294
25.3965 1205 34.7131
25.513 1178 34.322
25.6296 1206 34.7275
25.7462 1217 34.8855
25.8628 1269 35.623
25.9795 1246 35.2987
26.0962 1270 35.6371
26.213 1303 36.0971
26.3298 1347 36.7015
26.4466 1363 36.9188
26.5635 1369 37
26.6804 1439 37.9342
26.7973 1387 37.2424
26.9143 1431 37.8286
27.0313 1408 37.5233
27.1483 1459 38.1969
27.2653 1379 37.1349
27.3824 1347 36.7015
27.4996 1296 36
27.6167 1255 35.426
27.7339 1235 35.1426
27.8511 1170 34.2053
27.9683 1185 34.4238
28.0855 1123 33.5112
28.2028 1112 33.3467
28.3201 1090 33.0151
28.4374 1096 33.1059
28.5547 1090 33.0151
28.6721 1118 33.4365
28.7894 1068 32.6803
28.9068 1065 32.6343
29.0242 1125 33.541
29.1416 1181 34.3657
29.259 1215 34.8569
29.3764 1189 34.4819
29.4939 1192 34.5254
29.6113 1179 34.3366
29.7288 1155 33.9853
29.8463 1242 35.242
29.9638 1169 34.1906
30.0812 1232 35.0999
30.1987 1261 35.5106
30.3162 1325 36.4005
30.4337 1293 35.9583
30.5512 1343 36.647
30.6687 1256 35.4401
30.7862 1324 36.3868
30.9037 1299 36.0416
31.0212 1281 35.7911
31.1387 1221 34.9428
31.2562 1139 33.7491
31.3737 1090 33.0151
31.4912 1057 32.5115
31.6087 997 31.5753
31.7262 1059 32.5423
31.8436 1050 32.4037
31.9611 1148 33.8821
32.0785 1114 33.3766
32.1959 1055 32.4808
32.3134 1118 33.4365
32.4308 1102 33.1964
32.5482 1107 33.2716
32.6655 1109 33.3017
32.7829 1105 33.2415
32.9002 1170 34.2053
33.0176 1148 33.8821
33.1349 1097 33.121
33.2522 1070 32.7109
33.3694 1112 33.3467
33.4867 1188 34.4674
33.6039 1248 35.327
33.7211 1245 35.2846
33.8383 1223 34.9714
33.9554 1219 34.9142
34.0725 1254 35.4119
34.1896 1243 35.2562
34.3067 1313 36.2353
34.4237 1212 34.8138
34.5407 1212 34.8138
34.6577 1169 34.1906
34.7746 1077 32.8177
34.8915 1103 33.2114
35.0084 1102 33.1964
35.1252 1037 32.2025
35.242 1024 32
35.3587 973 31.1929
35.4755 992 31.496
35.5921 998 31.5911
35.7088 1005 31.7017
35.8254 973 31.1929
35.9419 1002 31.6544
36.0584 1003 31.6702
36.1749 1114 33.3766
36.2913 1120 33.4664
36.4077 1069 32.6956
36.524 1045 32.3265
36.6403 1085 32.9393
36.7565 1006 31.7175
36.8727 1028 32.0624
36.9889 1074 32.7719
37.1049 1092 33.0454
37.221 0 1
37.3369 0 1
37.4529 0 1
37.5687 0 1
37.6845 0 1
37.8003 0 1
37.916 0 1
38.0316 0 1
38.1472 0 1
40.5851 0 1
40.7008 0 1
40.8164 0 1
40.9322 0 1
41.048 0 1
41.1639 0 1
41.2798 0 1
41.3958 0 1
41.5118 0 1
41.6279 0 1
41.744 828 28.775
41.8602 883 29.7153
41.9765 934 30.5614
42.0928 946 30.7571
42.2091 969 31.1288
42.3255 942 30.692
42.4419 977 31.257
42.5584 1008 31.749
42.675 1035 32.1714
42.7915 981 31.3209
42.9081 1019 31.9218
43.0248 1003 31.6702
43.1415 1007 31.7333
43.2582 1090 33.0151
43.375 1043 32.2955
43.4918 1015 31.8591
43.6087 1045 32.3265
43.7256 1036 32.187
43.8425 1005 31.7017
43.9595 962 31.0161
44.0765 944 30.7246
44.1935 921 30.348
44.3106 905 30.0832
44.4277 950 30.8221
44.5448 931 30.5123
44.6619 890 29.8329
44.7791 867 29.4449
44.8963 891 29.8496
45.0136 890 29.8329
45.1308 839 28.9655
45.2481 837 28.931
45.3654 837 28.931
45.4827 781 27.9464
45.6001 772 27.7849
45.7174 819 28.6182
45.8348 730 27.0185
45.9522 764 27.6405
46.0697 742 27.2397
46.1871 772 27.7849
46.3046 668 25.8457
46.422 708 26.6083
46.5395 672 25.923
46.657 683 26.1343
46.7745 692 26.3059
46.892 686 26.1916
47.0096 625 25
47.1271 669 25.865
47.2446 706 26.5707
47.3622 649 25.4755
47.4797 649 25.4755
47.5973 612 24.7386
47.7149 609 24.6779
47.8324 583 24.1454
47.95 581 24.1039
48.0675 636 25.219
48.1851 632 25.1396
48.3027 575 23.9792
48.4202 550 23.4521
48.5378 595 24.3926
48.6554 570 23.8747
48.7729 532 23.0651
48.8904 575 23.9792
49.008 542 23.2809
49.1255 598 24.454
49.243 536 23.1517
49.3605 542 23.2809
49.478 572 23.9165
49.5955 572 23.9165
49.713 557 23.6008
49.8304 546 23.3666
49.9479 518 22.7596
50.0653 550 23.4521
50.1827 580 24.0832
50.3001 635 25.1992
50.4175 602 24.5357
50.5348 623 24.96
50.6521 632 25.1396
50.7694 677 26.0192
50.8867 662 25.7294
51.004 660 25.6905
51.1212 703 26.5141
51.2384 689 26.2488
51.3556 719 26.8142
51.4727 639 25.2784
51.5899 683 26.1343
51.707 705 26.5518
51.824 685 26.1725
51.9411 692 26.3059
52.0581 695 26.3629
52.175 773 27.8029
52.2919 692 26.3059
52.4088 685 26.1725
52.5257 700 26.4575
52.6425 735 27.1109
52.7593 753 27.4408
52.876 731 27.037
52.9927 737 27.1477
53.1094 769 27.7308
53.226 813 28.5132
53.3426 816 28.5657
53.4591 791 28.1247
53.5756 783 27.9821
53.692 817 28.5832
53.8084 868 29.4618
53.9248 843 29.0345
54.0411 846 29.0861
54.1573 871 29.5127
54.2735 0 1
54.3896 0 1
54.5057 0 1
54.6217 0 1
54.7377 0 1
54.8537 0 1
54.9695 0 1
55.0853 0 1
55.2011 0 1
55.3168 0 1
55.4324 0 1
57.824 0 1
57.9396 0 1
58.0553 0 1
58.1711 0 1
58.2869 0 1
58.4028 0 1
58.5187 0 1
58.6347 0 1
58.7508 0 1
58.8669 0 1
58.983 994 31.5278
59.0992 1056 32.4962
59.2155 1078 32.8329
59.3318 1106 33.2566
59.4482 1093 33.0606
59.5646 1095 33.0908
59.681 1183 34.3948
59.7975 1179 34.3366
59.9141 1191 34.5109
60.0306 1205 34.7131
60.1473 1116 33.4066
60.2639 1047 32.3574
60.3807 1035 32.1714
60.4974 1036 32.187
60.6142 973 31.1929
60.731 959 30.9677
60.8479 900 30
60.9648 872 29.5296
61.0818 890 29.8329
61.1987 902 30.0333
61.3158 886 29.7658
61.4328 854 29.2233
61.5499 874 29.5635
61.667 956 30.9192
61.7841 932 30.5287
61.9013 917 30.282
62.0185 944 30.7246
62.1357 1005 31.7017
62.253 979 31.289
62.3702 1003 31.6702
62.4875 976 31.241
62.6049 1046 32.3419
62.7222 949 30.8058
62.8396 1003 31.6702
62.9569 1089 33
63.0743 1110 33.3167
63.1918 1118 33.4365
63.3092 1140 33.7639
63.4267 1121 33.4813
63.5441 1034 32.1559
63.6616 1030 32.0936
63.7791 1045 32.3265
63.8966 1032 32.1248
64.0142 951 30.8383
64.1317 920 30.3315
64.2492 812 28.4956
64.3668 821 28.6531
64.4843 748 27.3496
64.6019 748 27.3496
64.7195 749 27.3679
64.837 754 27.4591
64.9546 785 28.0179
65.0722 834 28.8791
65.1898 929 30.4795
65.3074 854 29.2233
65.4249 832 28.8444
65.5425 870 29.4958
65.6601 833 28.8617
65.7777 914 30.2324
65.8952 861 29.3428
66.0128 906 30.0998
66.1304 934 30.5614
66.2479 961 31
66.3655 998 31.5911
66.483 1083 32.909
66.6005 1066 32.6497
66.718 1117 33.4215
66.8355 1092 33.0454
66.953 1112 33.3467
67.0705 1049 32.3883
67.1879 1029 32.078
67.3054 1080 32.8634
67.4228 989 31.4484
67.5402 886 29.7658
67.6576 828 28.775
67.7749 722 26.8701
67.8923 707 26.5895
68.0096 791 28.1247
68.1269 768 27.7128
68.2442 799 28.2666
68.3614 776 27.8568
68.4787 794 28.178
68.5958 811 28.4781
68.713 855 29.2404
68.8302 888 29.7993
68.9473 860 29.3258
69.0643 916 30.2655
69.1814 955 30.9031
69.2984 958 30.9516
69.4154 941 30.6757
69.5323 980 31.305
69.6492 991 31.4802
69.7661 992 31.496
69.8829 1079 32.8481
69.9997 1153 33.9559
70.1165 1118 33.4365
70.2332 1116 33.4066
70.3499 1158 34.0294
70.4665 1170 34.2053
70.5831 1136 33.7046
70.6996 1159 34.0441
70.8161 1065 32.6343
70.9326 1046 32.3419
71.049 909 30.1496
71.1653 905 30.0832
71.2817 863 29.3769
71.3979 782 27.9643
71.5141 763 27.6225
71.6303 750 27.3861
71.7464 719 26.8142
71.8624 0 1
71.9784 0 1
72.0944 0 1
72.2102 0 1
72.3261 0 1
72.4418 0 1
72.5575 0 1
72.6732 0 1
75.1054 0 1
75.2209 0 1
75.3365 0 1
75.4521 0 1
75.5678 0 1
75.6835 0 1
75.7993 0 1
75.9151 0 1
76.031 0 1
76.147 951 30.8383
76.263 959 30.9677
76.3791 908 30.133
76.4952 791 28.1247
76.6113 791 28.1247
76.7276 789 28.0891
76.8438 840 28.9828
76.9601 825 28.7228
77.0765 830 28.8097
77.1929 794 28.178
77.3093 842 29.0172
77.4258 854 29.2233
77.5423 886 29.7658
77.6589 874 29.5635
77.7755 873 29.5466
77.8921 921 30.348
78.0088 851 29.1719
78.1256 837 28.931
78.2423 981 31.3209
78.3591 985 31.3847
78.4759 909 30.1496
78.5928 966 31.0805
78.7097 1054 32.4654
78.8266 1073 32.7567
78.9436 1140 33.7639
79.0606 1120 33.4664
79.1776 1114 33.3766
79.2946 1070 32.7109
79.4117 1199 34.6266
79.5288 1194 34.5543
79.6459 1099 33.1512
79.7631 1053 32.45
79.8802 1068 32.6803
79.9974 883 29.7153
80.1147 905 30.0832
80.2319 788 28.0713
80.3491 777 27.8747
80.4664 831 28.8271
80.5837 864 29.3939
80.701 778 27.8927
80.8183 795 28.1957
80.9357 808 28.4253
81.053 772 27.7849
81.1704 791 28.1247
81.2877 883 29.7153
81.4051 868 29.4618
81.5225 880 29.6648
81.6399 858 29.2916
81.7573 898 29.9666
81.8747 890 29.8329
81.9922 918 30.2985
82.1096 934 30.5614
82.227 997 31.5753
82.3444 1021 31.9531
82.4619 1163 34.1028
82.5793 1206 34.7275
82.6967 1154 33.9706
82.8142 1103 33.2114
82.9316 1120 33.4664
83.049 1122 33.4963
83.1664 1151 33.9264
83.2838 1051 32.4191
83.4012 1055 32.4808
83.5186 994 31.5278
83.636 887 29.7825
83.7534 843 29.0345
83.8708 827 28.7576
83.9881 819 28.6182
84.1055 840 28.9828
84.2228 819 28.6182
84.3401 837 28.931
84.4575 887 29.7825
84.5747 845 29.0689
84.692 845 29.0689
84.8093 905 30.0832
84.9265 893 29.8831
85.0437 976 31.241
85.1609 864 29.3939
85.2781 887 29.7825
85.3952 850 29.1548
85.5123 989 31.4484
85.6294 979 31.289
85.7465 1034 32.1559
85.8636 1066 32.6497
85.9806 1134 33.6749
86.0976 1139 33.7491
86.2145 1142 33.7935
86.3315 1165 34.1321
86.4484 1221 34.9428
86.5652 1146 33.8526
86.682 1279 35.7631
86.7988 1224 34.9857
86.9156 1181 34.3657
87.0323 1044 32.311
87.149 966 31.0805
87.2657 983 31.3528
87.3823 971 31.1609
87.4988 981 31.3209
87.6154 920 30.3315
87.7318 917 30.282
87.8483 921 30.348
87.9647 942 30.692
88.081 963 31.0322
88.1973 912 30.1993
88.3136 993 31.5119
88.4298 1023 31.9844
88.546 963 31.0322
88.6621 919 30.315
88.7781 900 30
88.8942 0 1
89.0101 0 1
89.126 0 1
89.2419 0 1
89.3577 0 1
89.4734 0 1
89.5891 0 1
89.7047 0 1
89.8203 0 1
89.9358 0 1
92.3269 0 1
92.4424 0 1
92.558 0 1
92.6736 0 1
92.7893 0 1
92.905 0 1
93.0208 0 1
93.1366 0 1
93.2525 0 1
93.3685 0 1
93.4845 0 1
93.6005 975 31.225
93.7167 946 30.7571
93.8328 850 29.1548
93.949 919 30.315
94.0653 917 30.282
94.1816 890 29.8329
94.2979 942 30.692
94.4143 934 30.5614
94.5307 1037 32.2025
94.6472 1080 32.8634
94.7637 1146 33.8526
94.8803 1141 33.7787
94.9969 1199 34.6266
95.1135 1166 34.1467
95.2302 1194 34.5543
95.3469 1186 34.4384
95.4637 1245 35.2846
95.5805 1191 34.5109
95.6973 1166 34.1467
95.8142 1149 33.8969
95.9311 1130 33.6155
96.048 1075 32.7872
96.1649 1023 31.9844
96.2819 958 30.9516
96.3989 1000 31.6228
96.516 963 31.0322
96.633 896 29.9333
96.7501 921 30.348
96.8673 939 30.6431
96.9844 947 30.7734
97.1016 901 30.0167
97.2188 952 30.8545
97.336 962 31.0161
97.4532 942 30.692
97.5704 881 29.6816
97.6877 882 29.6985
97.805 870 29.4958
97.9223 914 30.2324
98.0396 894 29.8998
98.1569 936 30.5941
98.2743 942 30.692
98.3916 991 31.4802
98.509 1089 33
98.6264 1069 32.6956
98.7438 1123 33.5112
98.8612 1153 33.9559
98.9786 1167 34.1614
99.096 1107 33.2716
99.2134 1126 33.5559
99.3308 1169 34.1906
99.4482 1076 32.8024
99.5656 1053 32.45
99.6831 1024 32
99.8005 929 30.4795
99.9179 974 31.209
100.035 906 30.0998
100.153 859 29.3087
100.27 870 29.4958
100.388 858 29.2916
100.505 856 29.2575
100.622 813 28.5132
100.74 816 28.5657
100.857 904 30.0666
100.975 893 29.8831
101.092 862 29.3598
101.209 861 29.3428
101.327 851 29.1719
101.444 849 29.1376
101.561 913 30.2159
101.679 971 31.1609
101.796 1005 31.7017
101.913 1043 32.2955
102.03 1073 32.7567
102.148 1136 33.7046
102.265 1146 33.8526
102.382 1276 35.7211
102.499 1208 34.7563
102.616 1232 35.0999
102.733 1197 34.5977
102.851 1212 34.8138
102.968 1271 35.6511
103.085 1225 35
103.202 1165 34.1321
103.319 1082 32.8938
103.436 1083 32.909
103.552 1007 31.7333
103.669 990 31.4643
103.786 941 30.6757
103.903 1087 32.9697
104.02 982 31.3369
104.137 933 30.545
104.253 909 30.1496
104.37 992 31.496
104.487 1019 31.9218
104.603 959 30.9677
104.72 947 30.7734
104.836 949 30.8058
104.953 1022 31.9687
105.069 965 31.0644
105.186 1030 32.0936
105.302 1070 32.7109
105.418 1131 33.6303
105.535 1188 34.4674
105.651 1298 36.0278
105.767 1259 35.4824
105.883 1250 35.3553
105.999 1244 35.2704
106.115 0 1
106.231 0 1
106.347 0 1
106.463 0 1
106.579 0 1
106.694 0 1
106.81 0 1
106.926 0 1
107.041 0 1
107.157 0 1
109.576 0 1
109.692 0 1
109.807 0 1
109.923 0 1
110.039 0 1
110.155 0 1
110.27 0 1
110.386 0 1
110.502 0 1
110.618 1004 31.686
110.735 1089 33
110.851 1132 33.6452
110.967 1112 33.3467
111.083 1101 33.1813
111.199 1118 33.4365
111.316 1144 33.8231
111.432 1135 33.6898
111.549 1100 33.1662
111.665 1062 32.5883
111.782 1039 32.2335
111.898 1051 32.4191
112.015 992 31.496
112.132 927 30.4467
112.248 891 29.8496
112.365 906 30.0998
112.482 907 30.1164
112.599 810 28.4605
112.716 796 28.2135
112.832 802 28.3196
112.949 783 27.9821
113.066 762 27.6043
113.183 748 27.3496
113.3 761 27.5862
113.417 677 26.0192
113.534 775 27.8388
113.652 773 27.8029
113.769 810 28.4605
113.886 842 29.0172
114.003 870 29.4958
114.12 873 29.5466
114.238 902 30.0333
114.355 867 29.4449
114.472 914 30.2324
114.589 817 28.5832
114.707 903 30.05
114.824 862 29.3598
114.942 920 30.3315
115.059 892 29.8664
115.176 865 29.4109
115.294 869 29.4788
115.411 826 28.7402
115.529 795 28.1957
115.646 787 28.0535
115.764 691 26.2869
115.881 719 26.8142
115.999 710 26.6458
116.116 683 26.1343
116.234 631 25.1197
116.351 619 24.8797
116.469 602 24.5357
116.586 618 24.8596
116.704 572 23.9165
116.821 567 23.8118
116.939 590 24.2899
117.056 594 24.3721
117.174 630 25.0998
117.291 620 24.8998
117.409 649 25.4755
117.526 710 26.6458
117.644 701 26.4764
117.761 716 26.7582
117.879 764 27.6405
117.996 741 27.2213
118.114 756 27.4955
118.231 734 27.0924
118.349 721 26.8514
118.466 747 27.3313
118.584 761 27.5862
118.701 781 27.9464
118.819 771 27.7669
118.936 760 27.5681
119.053 743 27.258
119.171 746 27.313
119.288 704 26.533
119.405 690 26.2679
119.523 691 26.2869
119.64 719 26.8142
119.757 677 26.0192
119.875 687 26.2107
119.992 689 26.2488
120.109 667 25.8263
120.226 604 24.5764
120.343 618 24.8596
120.46 648 25.4558
120.578 604 24.5764
120.695 681 26.096
120.812 700 26.4575
120.929 714 26.7208
121.046 803 28.3373
121.163 752 27.4226
121.279 798 28.2489
121.396 779 27.9106
121.513 864 29.3939
121.63 848 29.1204
121.747 791 28.1247
121.863 786 28.0357
121.98 823 28.688
122.097 886 29.7658
122.213 874 29.5635
122.33 923 30.3809
122.446 900 30
122.563 898 29.9666
122.679 916 30.2655
122.795 917 30.282
122.912 927 30.4467
123.028 880 29.6648
123.144 824 28.7054
123.26 842 29.0172
123.377 0 1
123.493 0 1
123.609 0 1
123.725 0 1
123.84 0 1
123.956 0 1
124.072 0 1
124.188 0 1
124.303 0 1
124.419 0 1
126.852 0 1
126.968 0 1
127.083 0 1
127.199 0 1
127.315 0 1
127.431 0 1
127.547 0 1
127.663 0 1
127.779 0 1
127.895 0 1
128.011 0 1
128.127 0 1
128.243 0 1
128.359 1156 34
128.476 1044 32.311
128.592 1046 32.3419
128.708 1025 32.0156
128.825 955 30.9031
128.941 911 30.1828
129.058 936 30.5941
129.174 926 30.4302
129.291 887 29.7825
129.408 904 30.0666
129.524 855 29.2404
129.641 897 29.95
129.758 890 29.8329
129.875 892 29.8664
129.992 937 30.6105
130.108 932 30.5287
130.225 933 30.545
130.342 958 30.9516
130.459 993 31.5119
130.576 919 30.315
130.693 884 29.7321
130.81 771 27.7669
130.928 718 26.7955
131.045 753 27.4408
131.162 985 31.3847
131.279 996 31.5595
131.396 1009 31.7648
131.513 942 30.692
131.631 937 30.6105
131.748 953 30.8707
131.865 935 30.5778
131.983 904 30.0666
132.1 908 30.133
132.217 898 29.9666
132.335 860 29.3258
132.452 867 29.4449
132.57 857 29.2746
132.687 808 28.4253
132.804 873 29.5466
132.922 814 28.5307
133.039 773 27.8029
133.157 772 27.7849
133.274 772 27.7849
133.392 748 27.3496
133.509 747 27.3313
133.627 806 28.3901
133.744 727 26.9629
133.862 852 29.189
133.979 775 27.8388
134.097 779 27.9106
134.214 736 27.1293
134.332 606 24.6171
134.449 558 23.622
134.567 631 25.1197
134.684 819 28.6182
134.802 764 27.6405
134.919 776 27.8568
135.037 721 26.8514
135.154 720 26.8328
135.272 710 26.6458
135.389 745 27.2947
135.507 789 28.0891
135.624 734 27.0924
135.742 701 26.4764
135.859 668 25.8457
135.977 692 26.3059
136.094 681 26.096
136.211 655 25.593
136.329 638 25.2587
136.446 626 25.02
136.564 610 24.6982
136.681 573 23.9374
136.798 593 24.3516
136.915 593 24.3516
137.033 615 24.7992
137.15 577 24.0208
137.267 597 24.4336
137.384 625 25
137.502 662 25.7294
137.619 658 25.6515
137.736 611 24.7184
137.853 499 22.3383
137.97 419 20.4695
138.087 470 21.6795
138.204 593 24.3516
138.321 638 25.2587
138.438 680 26.0768
138.555 710 26.6458
138.672 696 26.3818
138.788 723 26.8887
138.905 686 26.1916
139.022 738 27.1662
139.139 700 26.4575
139.255 749 27.3679
139.372 705 26.5518
139.488 721 26.8514
139.605 728 26.9815
139.721 751 27.4044
139.838 773 27.8029
139.954 757 27.5136
140.071 728 26.9815
140.187 720 26.8328
140.303 724 26.9072
140.419 760 27.5681
140.535 722 26.8701
140.652 720 26.8328
140.768 0 1
140.884 0 1
141 0 1
141.115 0 1
141.231 0 1
141.347 0 1
141.463 0 1
141.578 0 1
141.694 0 1
144.104 0 1
144.219 0 1
144.335 0 1
144.45 0 1
144.566 0 1
144.682 0 1
144.798 0 1
144.914 0 1
145.03 0 1
145.146 642 25.3377
145.262 636 25.219
145.378 591 24.3105
145.494 603 24.5561
145.61 573 23.9374
145.726 573 23.9374
145.842 579 24.0624
145.959 564 23.7487
146.075 551 23.4734
146.192 551 23.4734
146.308 498 22.3159
146.425 553 23.516
146.541 517 22.7376
146.658 470 21.6795
146.774 433 20.8087
146.891 482 21.9545
147.008 495 22.2486
147.125 540 23.2379
147.241 549 23.4307
147.358 558 23.622
147.475 523 22.8692
147.592 529 23
147.709 527 22.9565
147.826 483 21.9773
147.943 511 22.6053
148.06 467 21.6102
148.177 501 22.383
148.294 480 21.9089
148.411 487 22.0681
148.528 442 21.0238
148.645 457 21.3776
148.762 457 21.3776
148.88 413 20.3224
148.997 441 21
149.114 377 19.4165
149.231 402 20.0499
149.349 447 21.1424
149.466 429 20.7123
149.583 419 20.4695
149.701 406 20.1494
149.818 386 19.6469
149.935 376 19.3907
150.053 357 18.8944
150.17 363 19.0526
150.287 372 19.2873
150.405 351 18.735
150.522 375 19.3649
150.64 374 19.3391
150.757 415 20.3715
150.875 426 20.6398
150.992 442 21.0238
151.11 456 21.3542
151.227 453 21.2838
151.344 405 20.1246
151.462 449 21.1896
151.579 438 20.9284
151.697 457 21.3776
151.814 410 20.2485
151.932 422 20.5426
152.049 388 19.6977
152.167 411 20.2731
152.284 384 19.5959
152.402 397 19.9249
152.519 340 18.4391
152.636 373 19.3132
152.754 382 19.5448
152.871 383 19.5704
152.989 397 19.9249
153.106 383 19.5704
153.223 377 19.4165
153.341 400 20
153.458 437 20.9045
153.575 401 20.025
153.693 393 19.8242
153.81 373 19.3132
153.927 391 19.7737
154.044 427 20.664
154.162 446 21.1187
154.279 451 21.2368
154.396 484 22
154.513 487 22.0681
154.63 524 22.891
154.747 514 22.6716
154.864 496 22.2711
154.981 508 22.5389
155.098 508 22.5389
155.215 524 22.891
155.332 497 22.2935
155.449 478 21.8632
155.566 522 22.8473
155.683 515 22.6936
155.8 487 22.0681
155.917 482 21.9545
156.033 452 21.2603
156.15 0 1
156.267 0 1
156.383 0 1
156.5 0 1
156.617 0 1
156.733 0 1
156.85 0 1
156.966 0 1
157.082 0 1
157.199 0 1
157.315 0 1
157.431 0 1
157.547 0 1
157.664 0 1
157.78 0 1
157.896 0 1
158.012 0 1
158.128 0 1
158.244 0 1
158.359 0 1
158.475 0 1
158.591 0 1
158.706 0 1
