
6.15755 0 1
6.2731 0 1
6.3887 0 1
6.50437 0 1
6.62009 0 1
6.73587 0 1
6.8517 0 1
6.96759 0 1
7.08353 0 1
7.19952 0 1
7.31557 0 1
7.43166 0 1
7.54781 0 1
7.664 0 1
7.78024 0 1
7.89653 0 1
8.01286 0 1
8.12924 0 1
8.24567 0 1
8.36213 0 1
8.47864 0 1
8.59519 0 1
8.71178 0 1
8.82841 0 1
8.94508 0 1
9.06179 0 1
9.17853 0 1
9.29531 0 1
9.41212 0 1
9.52897 0 1
9.64584 0 1
9.76276 0 1
9.8797 0 1
9.99667 0 1
10.1137 0 1
10.2307 0 1
10.3478 0 1
10.4648 0 1
10.5819 0 1
10.6991 0 1
10.8162 0 1
10.9334 0 1
11.0506 0 1
11.1678 0 1
11.285 0 1
11.4023 0 1
11.5196 0 1
11.6369 0 1
11.7542 0 1
11.8715 0 1
11.9888 0 1
12.1062 0 1
12.2235 0 1
12.3409 0 1
12.4582 0 1
12.5756 0 1
12.693 0 1
12.8104 0 1
12.9278 0 1
13.0452 0 1
13.1626 0 1
13.28 0 1
13.3974 0 1
13.5149 0 1
13.6323 0 1
13.7497 0 1
13.8671 0 1
13.9845 0 1
14.1019 0 1
14.2193 0 1
14.3367 0 1
14.4541 0 1
14.5714 0 1
14.6888 0 1
14.8062 0 1
14.9235 0 1
15.0408 0 0
15.1581 0 0
15.2755 0 0
15.3927 0 0
15.51 0 0
15.6273 0 0
15.7445 0 0
15.8617 0 0
15.9789 0 0
16.0961 0 0
16.2132 0 0
16.3304 0 0
16.4475 0 0
16.5646 0 0
16.6816 0 0
16.7986 0 0
16.9156 0 0
17.0326 0 0
17.1496 0 0
17.2665 0 0
17.3833 0 0
17.5002 0 0
17.617 0 0
17.7338 0 0
17.8505 0 0
17.9672 0 0
18.0839 0 0
18.2005 0 0
18.3171 0 0
18.4337 0 0
18.5502 0 0
18.6666 0 0
18.7831 0 0
18.8994 0 0
19.0158 0 0
19.1321 0 0
19.2483 0 0
19.3645 0 0
19.4806 0 0
19.5967 0 0
19.7128 0 0
19.8288 0 0
19.9447 0 0
20.0606 0 1
20.1764 0 1
20.2922 0 1
20.4079 0 1
20.5236 0 1
20.6392 0 1
20.7548 0 1
20.8702 0 1
23.3078 0 1
23.4233 0 1
23.539 0 1
23.6547 0 1
23.7704 0 1
23.8862 0 1
24.0021 0 1
24.118 0 1
24.234 0 1
24.35 0 1
24.4661 1609 40.1123
24.5822 1599 39.9875
24.6984 1580 39.7492
24.8146 1595 39.9375
24.9309 1642 40.5216
25.0472 1612 40.1497
25.1636 1630 40.3733
25.28 1600 40
25.3965 1680 40.9878
25.513 1710 41.3521
25.6296 1715 41.4126
25.7462 1690 41.1096
25.8628 1712 41.3763
25.9795 1740 41.7133
26.0962 1764 42
26.213 1703 41.2674
26.3298 1635 40.4351
26.4466 1698 41.2068
26.5635 1536 39.1918
26.6804 1566 39.5727
26.7973 1357 36.8375
26.9143 1348 36.7151
27.0313 1472 38.3667
27.1483 1611 40.1373
27.2653 1613 40.1622
27.3824 1620 40.2492
27.4996 1663 40.7799
27.6167 1689 41.0974
27.7339 1672 40.8901
27.8511 1553 39.4081
27.9683 1648 40.5956
28.0855 1582 39.7744
28.2028 1582 39.7744
28.3201 1616 40.1995
28.4374 1645 40.5586
28.5547 1539 39.2301
28.6721 1578 39.724
28.7894 1662 40.7676
28.9068 1625 40.3113
29.0242 1643 40.5339
29.1416 1594 39.9249
29.259 1622 40.2741
29.3764 1583 39.7869
29.4939 1605 40.0625
29.6113 1645 40.5586
29.7288 1608 40.0999
29.8463 1561 39.5095
29.9638 1508 38.833
30.0812 1432 37.8418
30.1987 1284 35.8329
30.3162 1281 35.7911
30.4337 1270 35.6371
30.5512 1442 37.9737
30.6687 1466 38.2884
30.7862 1615 40.1871
30.9037 1618 40.2244
31.0212 1605 40.0625
31.1387 1644 40.5463
31.2562 1686 41.0609
31.3737 1572 39.6485
31.4912 1545 39.3065
31.6087 1572 39.6485
31.7262 1530 39.1152
31.8436 1603 40.0375
31.9611 1608 40.0999
32.0785 1545 39.3065
32.1959 1633 40.4104
32.3134 1662 40.7676
32.4308 1585 39.8121
32.5482 1693 41.1461
32.6655 1685 41.0488
32.7829 1592 39.8999
32.9002 1559 39.4842
33.0176 1586 39.8246
33.1349 1596 39.95
33.2522 1597 39.9625
33.3694 1600 40
33.4867 1638 40.4722
33.6039 1602 40.025
33.7211 1398 37.3898
33.8383 1316 36.2767
33.9554 1244 35.2704
34.0725 1267 35.5949
34.1896 1397 37.3765
34.3067 1470 38.3406
34.4237 1584 39.7995
34.5407 1606 40.0749
34.6577 1712 41.3763
34.7746 1624 40.2989
34.8915 1775 42.1307
35.0084 1660 40.7431
35.1252 1671 40.8779
35.242 1583 39.7869
35.3587 1636 40.4475
35.4755 1598 39.975
35.5921 1590 39.8748
35.7088 1686 41.0609
35.8254 1616 40.1995
35.9419 1542 39.2683
36.0584 1719 41.4608
36.1749 1624 40.2989
36.2913 1677 40.9512
36.4077 1589 39.8623
36.524 1701 41.2432
36.6403 1696 41.1825
36.7565 1719 41.4608
36.8727 1719 41.4608
36.9889 1684 41.0366
37.1049 1649 40.6079
37.221 0 1
37.3369 0 1
37.4529 0 1
37.5687 0 1
37.6845 0 1
37.8003 0 1
37.916 0 1
38.0316 0 1
38.1472 0 1
40.5851 0 1
40.7008 0 1
40.8164 0 1
40.9322 0 1
41.048 0 1
41.1639 0 1
41.2798 0 1
41.3958 0 1
41.5118 0 1
41.6279 0 1
41.744 1380 37.1484
41.8602 1394 37.3363
41.9765 1412 37.5766
42.0928 1440 37.9473
42.2091 1426 37.7624
42.3255 1410 37.55
42.4419 1346 36.6879
42.5584 1185 34.4238
42.675 1133 33.6601
42.7915 1123 33.5112
42.9081 1121 33.4813
43.0248 1237 35.171
43.1415 1390 37.2827
43.2582 1369 37
43.375 1402 37.4433
43.4918 1449 38.0657
43.6087 1440 37.9473
43.7256 1487 38.5616
43.8425 1453 38.1182
43.9595 1357 36.8375
44.0765 1321 36.3456
44.1935 1324 36.3868
44.3106 1251 35.3695
44.4277 1261 35.5106
44.5448 1271 35.6511
44.6619 1274 35.6931
44.7791 1332 36.4966
44.8963 1321 36.3456
45.0136 1297 36.0139
45.1308 1255 35.426
45.2481 1339 36.5923
45.3654 1267 35.5949
45.4827 1332 36.4966
45.6001 1306 36.1386
45.7174 1200 34.641
45.8348 1284 35.8329
45.9522 1224 34.9857
46.0697 1178 34.322
46.1871 1031 32.1092
46.3046 973 31.1929
46.422 863 29.3769
46.5395 960 30.9839
46.657 1119 33.4515
46.7745 1122 33.4963
46.892 1191 34.5109
47.0096 1235 35.1426
47.1271 1223 34.9714
47.2446 1158 34.0294
47.3622 1160 34.0588
47.4797 1189 34.4819
47.5973 1123 33.5112
47.7149 1087 32.9697
47.8324 1064 32.619
47.95 1097 33.121
48.0675 999 31.607
48.1851 1015 31.8591
48.3027 1110 33.3167
48.4202 1030 32.0936
48.5378 1084 32.9242
48.6554 1102 33.1964
48.7729 1127 33.5708
48.8904 1132 33.6452
49.008 1106 33.2566
49.1255 1145 33.8378
49.243 1183 34.3948
49.3605 1134 33.6749
49.478 1132 33.6452
49.5955 1050 32.4037
49.713 912 30.1993
49.8304 933 30.545
49.9479 909 30.1496
50.0653 944 30.7246
50.1827 1164 34.1174
50.3001 1200 34.641
50.4175 1334 36.524
50.5348 1268 35.609
50.6521 1458 38.1838
50.7694 1502 38.7556
50.8867 1425 37.7492
51.004 1486 38.5487
51.1212 1525 39.0512
51.2384 1552 39.3954
51.3556 1542 39.2683
51.4727 1494 38.6523
51.5899 1552 39.3954
51.707 1516 38.9358
51.824 1563 39.5348
51.9411 1695 41.1704
52.0581 1696 41.1825
52.175 1791 42.3202
52.2919 1759 41.9404
52.4088 1814 42.5911
52.5257 1889 43.4626
52.6425 1872 43.2666
52.7593 1844 42.9418
52.876 1914 43.7493
52.9927 1992 44.6318
53.1094 1917 43.7836
53.226 1746 41.7852
53.3426 1539 39.2301
53.4591 1471 38.3536
53.5756 1474 38.3927
53.692 1626 40.3237
53.8084 1873 43.2782
53.9248 1984 44.5421
54.0411 2124 46.0869
54.1573 2243 47.3603
54.2735 0 1
54.3896 0 1
54.5057 0 1
54.6217 0 1
54.7377 0 1
54.8537 0 1
54.9695 0 1
55.0853 0 1
55.2011 0 1
55.3168 0 1
55.4324 0 1
57.824 0 1
57.9396 0 1
58.0553 0 1
58.1711 0 1
58.2869 0 1
58.4028 0 1
58.5187 0 1
58.6347 0 1
58.7508 0 1
58.8669 0 1
58.983 2655 51.5267
59.0992 2831 53.2071
59.2155 2951 54.3231
59.3318 3043 55.1634
59.4482 2998 54.754
59.5646 2985 54.6352
59.681 3017 54.9272
59.7975 3073 55.4346
59.9141 2946 54.2771
60.0306 2798 52.8961
60.1473 2872 53.591
60.2639 2767 52.6023
60.3807 2764 52.5738
60.4974 2973 54.5252
60.6142 2980 54.5894
60.731 3018 54.9363
60.8479 3079 55.4887
60.9648 3177 56.3649
61.0818 3162 56.2317
61.1987 3145 56.0803
61.3158 3146 56.0892
61.4328 3212 56.6745
61.5499 3101 55.6866
61.667 2962 54.4243
61.7841 2816 53.066
61.9013 2653 51.5073
62.0185 2438 49.3761
62.1357 2413 49.1223
62.253 2618 51.1664
62.3702 2889 53.7494
62.4875 3171 56.3116
62.6049 3227 56.8067
62.7222 3412 58.4123
62.8396 3475 58.9491
62.9569 3413 58.4209
63.0743 3415 58.438
63.1918 3491 59.0847
63.3092 3324 57.6541
63.4267 3210 56.6569
63.5441 3040 55.1362
63.6616 3054 55.263
63.7791 3034 55.0818
63.8966 3036 55.0999
64.0142 3138 56.0179
64.1317 3135 55.9911
64.2492 3355 57.9224
64.3668 3389 58.2151
64.4843 3334 57.7408
64.6019 3615 60.1249
64.7195 3513 59.2706
64.837 3457 58.7963
64.9546 3506 59.2115
65.0722 3526 59.3801
65.1898 3301 57.4543
65.3074 3299 57.4369
65.4249 2891 53.768
65.5425 2700 51.9615
65.6601 2592 50.9117
65.7777 2706 52.0192
65.8952 3016 54.9181
66.0128 3299 57.4369
66.1304 3502 59.1777
66.2479 3591 59.925
66.3655 3750 61.2372
66.483 3671 60.5888
66.6005 3762 61.3351
66.718 3794 61.5955
66.8355 3743 61.1801
66.953 3783 61.5061
67.0705 3587 59.8916
67.1879 3480 58.9915
67.3054 3316 57.5847
67.4228 3407 58.3695
67.5402 3408 58.3781
67.6576 3494 59.1101
67.7749 3564 59.6992
67.8923 3733 61.0983
68.0096 3798 61.6279
68.1269 3958 62.9126
68.2442 3913 62.554
68.3614 3993 63.1902
68.4787 4042 63.5767
68.5958 4105 64.0703
68.713 4186 64.6993
68.8302 3961 62.9365
68.9473 3745 61.1964
69.0643 3458 58.8048
69.1814 3079 55.4887
69.2984 3008 54.8452
69.4154 3068 55.3895
69.5323 3486 59.0424
69.6492 3853 62.0725
69.7661 4133 64.2884
69.8829 4255 65.2304
69.9997 4513 67.1789
70.1165 4587 67.7274
70.2332 4447 66.6858
70.3499 4534 67.335
70.4665 4429 66.5507
70.5831 4308 65.6354
70.6996 4294 65.5286
70.8161 4202 64.8228
70.9326 4130 64.2651
71.049 3860 62.1289
71.1653 3820 61.8061
71.2817 3858 62.1128
71.3979 3817 61.7819
71.5141 4058 63.7024
71.6303 4121 64.195
71.7464 3832 61.9032
71.8624 0 1
71.9784 0 1
72.0944 0 1
72.2102 0 1
72.3261 0 1
72.4418 0 1
72.5575 0 1
72.6732 0 1
75.1054 0 1
75.2209 0 1
75.3365 0 1
75.4521 0 1
75.5678 0 1
75.6835 0 1
75.7993 0 1
75.9151 0 1
76.031 0 1
76.147 3912 62.546
76.263 4196 64.7765
76.3791 4046 63.6082
76.4952 4067 63.773
76.6113 4092 63.9687
76.7276 4298 65.5591
76.8438 4301 65.582
76.9601 4496 67.0522
77.0765 4803 69.3037
77.1929 5044 71.0211
77.3093 4853 69.6635
77.4258 4969 70.4911
77.5423 4874 69.814
77.6589 4869 69.7782
77.7755 4811 69.3614
77.8921 4474 66.888
78.0088 4261 65.2763
78.1256 3772 61.4166
78.2423 3445 58.6941
78.3591 3359 57.9569
78.4759 3370 58.0517
78.5928 3998 63.2297
78.7097 4370 66.106
78.8266 4874 69.814
78.9436 4531 67.3127
79.0606 4799 69.2748
79.1776 4959 70.4202
79.2946 4977 70.5479
79.4117 4910 70.0714
79.5288 4733 68.7968
79.6459 4768 69.0507
79.7631 4581 67.6831
79.8802 4497 67.0597
79.9974 4167 64.5523
80.1147 4016 63.3719
80.2319 3916 62.578
80.3491 3833 61.9112
80.4664 4321 65.7343
80.5837 4463 66.8057
80.701 4509 67.1491
80.8183 4690 68.4836
80.9357 4660 68.2642
81.053 4787 69.1881
81.1704 4774 69.0941
81.2877 4718 68.6877
81.4051 4627 68.0221
81.5225 4597 67.8012
81.6399 4223 64.9846
81.7573 4103 64.0547
81.8747 3635 60.291
81.9922 3444 58.6856
82.1096 3385 58.1808
82.227 3671 60.5888
82.3444 4111 64.1171
82.4619 4341 65.8863
82.5793 4401 66.34
82.6967 4890 69.9285
82.8142 4647 68.1689
82.9316 4755 68.9565
83.049 4515 67.1937
83.1664 4495 67.0448
83.2838 4456 66.7533
83.4012 4383 66.2042
83.5186 4084 63.9062
83.636 3967 62.9841
83.7534 3858 62.1128
83.8708 3506 59.2115
83.9881 3696 60.7947
84.1055 3803 61.6685
84.2228 3978 63.0714
84.3401 4272 65.3605
84.4575 4517 67.2086
84.5747 4574 67.6314
84.692 4417 66.4605
84.8093 4628 68.0294
84.9265 4571 67.6092
85.0437 4592 67.7643
85.1609 4160 64.4981
85.2781 3956 62.8967
85.3952 3622 60.1831
85.5123 3471 58.9152
85.6294 3491 59.0847
85.7465 3595 59.9583
85.8636 3946 62.8172
85.9806 4296 65.5439
86.0976 4529 67.2978
86.2145 4666 68.3081
86.3315 4775 69.1014
86.4484 5090 71.3442
86.5652 4889 69.9214
86.682 4908 70.0571
86.7988 4957 70.406
86.9156 4857 69.6922
87.0323 4752 68.9348
87.149 4656 68.2349
87.2657 4376 66.1513
87.3823 4284 65.4523
87.4988 4059 63.7103
87.6154 4308 65.6354
87.7318 4564 67.5574
87.8483 4897 69.9786
87.9647 5111 71.4913
88.081 5301 72.808
88.1973 5276 72.6361
88.3136 5434 73.7157
88.4298 5435 73.7225
88.546 5296 72.7736
88.6621 5159 71.8262
88.7781 4784 69.1665
88.8942 0 1
89.0101 0 1
89.126 0 1
89.2419 0 1
89.3577 0 1
89.4734 0 1
89.5891 0 1
89.7047 0 1
89.8203 0 1
89.9358 0 1
92.3269 0 1
92.4424 0 1
92.558 0 1
92.6736 0 1
92.7893 0 1
92.905 0 1
93.0208 0 1
93.1366 0 1
93.2525 0 1
93.3685 0 1
93.4845 0 1
93.6005 5226 72.2911
93.7167 5274 72.6223
93.8328 5253 72.4776
93.949 5367 73.2598
94.0653 5131 71.631
94.1816 5096 71.3863
94.2979 4833 69.5198
94.4143 4534 67.335
94.5307 4308 65.6354
94.6472 4166 64.5446
94.7637 4022 63.4192
94.8803 4385 66.2193
94.9969 4549 67.4463
95.1135 4885 69.8928
95.2302 4946 70.3278
95.3469 5162 71.8471
95.4637 5314 72.8972
95.5805 5530 74.364
95.6973 5606 74.8732
95.8142 5484 74.054
95.9311 5608 74.8866
96.048 5355 73.1779
96.1649 5273 72.6154
96.2819 5104 71.4423
96.3989 4944 70.3136
96.516 4632 68.0588
96.633 4452 66.7233
96.7501 4444 66.6633
96.8673 4514 67.1863
96.9844 4838 69.5557
97.1016 5053 71.0845
97.2188 5438 73.7428
97.336 5490 74.0945
97.4532 5536 74.4043
97.5704 5639 75.0933
97.6877 5503 74.1822
97.805 5466 73.9324
97.9223 5307 72.8492
98.0396 5216 72.2219
98.1569 4731 68.7823
98.2743 4401 66.34
98.3916 4332 65.8179
98.509 4453 66.7308
98.6264 4624 68
98.7438 4945 70.3207
98.8612 5110 71.4843
98.9786 5389 73.4098
99.096 5418 73.6071
99.2134 5739 75.7562
99.3308 5822 76.302
99.4482 5757 75.8749
99.5656 5735 75.7298
99.6831 5591 74.773
99.8005 5515 74.263
99.9179 5307 72.8492
100.035 5182 71.9861
100.153 4788 69.1954
100.27 4473 66.8805
100.388 4483 66.9552
100.505 4864 69.7424
100.622 5224 72.2772
100.74 5576 74.6726
100.857 5757 75.8749
100.975 5882 76.6942
101.092 5845 76.4526
101.209 5815 76.2561
101.327 5876 76.6551
101.444 5661 75.2396
101.561 5624 74.9933
101.679 5142 71.7077
101.796 4803 69.3037
101.913 4552 67.4685
102.03 4560 67.5278
102.148 4833 69.5198
102.265 5517 74.2765
102.382 5092 71.3583
102.499 5506 74.2024
102.616 5828 76.3413
102.733 6099 78.0961
102.851 6193 78.6956
102.968 6335 79.5927
103.085 6081 77.9808
103.202 6068 77.8974
103.319 6034 77.6788
103.436 5867 76.5963
103.552 5480 74.027
103.669 5121 71.5612
103.786 4695 68.5201
103.903 4664 68.2935
104.02 5236 72.3602
104.137 5591 74.773
104.253 6209 78.7972
104.37 6026 77.6273
104.487 6275 79.2149
104.603 6461 80.3803
104.72 6476 80.4736
104.836 6337 79.6053
104.953 6100 78.1025
105.069 5931 77.013
105.186 5667 75.2795
105.302 5269 72.5879
105.418 5013 70.8025
105.535 5089 71.3372
105.651 5432 73.7021
105.767 5791 76.0986
105.883 5967 77.2464
105.999 6157 78.4666
106.115 0 1
106.231 0 1
106.347 0 1
106.463 0 1
106.579 0 1
106.694 0 1
106.81 0 1
106.926 0 1
107.041 0 1
107.157 0 1
109.576 0 1
109.692 0 1
109.807 0 1
109.923 0 1
110.039 0 1
110.155 0 1
110.27 0 1
110.386 0 1
110.502 0 1
110.618 4829 69.491
110.735 5361 73.2189
110.851 5634 75.06
110.967 5686 75.4056
111.083 5893 76.7659
111.199 6041 77.7239
111.316 6122 78.2432
111.432 6181 78.6193
111.549 6149 78.4156
111.665 6180 78.613
111.782 5850 76.4853
111.898 5610 74.8999
112.015 5494 74.1215
112.132 4858 69.6994
112.248 4486 66.9776
112.365 4440 66.6333
112.482 4622 67.9853
112.599 5053 71.0845
112.716 5506 74.2024
112.832 5797 76.138
112.949 5720 75.6307
113.066 5821 76.2955
113.183 5704 75.5248
113.3 5719 75.6241
113.417 5667 75.2795
113.534 5347 73.1232
113.652 5275 72.6292
113.769 5058 71.1196
113.886 4638 68.1029
114.003 4549 67.4463
114.12 4410 66.4078
114.238 4547 67.4314
114.355 4853 69.6635
114.472 4966 70.4699
114.589 4978 70.5549
114.707 5153 71.7844
114.824 5350 73.1437
114.942 5419 73.6139
115.059 5458 73.8783
115.176 5555 74.5319
115.294 5469 73.9527
115.411 5196 72.0833
115.529 4914 70.0999
115.646 4859 69.7065
115.764 4373 66.1287
115.881 4057 63.6946
115.999 4234 65.0692
116.116 4581 67.6831
116.234 4937 70.2638
116.351 5344 73.1027
116.469 5407 73.5323
116.586 5518 74.2832
116.704 5452 73.8377
116.821 5460 73.8918
116.939 5375 73.3144
117.056 5679 75.3591
117.174 5272 72.6085
117.291 5106 71.4563
117.409 4963 70.4486
117.526 4608 67.8823
117.644 4652 68.2056
117.761 4572 67.6166
117.879 4811 69.3614
117.996 4970 70.4982
118.114 5101 71.4213
118.231 5174 71.9305
118.349 5247 72.4362
118.466 5402 73.4983
118.584 5524 74.3236
118.701 5602 74.8465
118.819 5540 74.4312
118.936 5385 73.3826
119.053 5315 72.904
119.171 5010 70.7814
119.288 4678 68.3959
119.405 4265 65.307
119.523 4079 63.867
119.64 4385 66.2193
119.757 4528 67.2904
119.875 4924 70.1712
119.992 5189 72.0347
120.109 5330 73.0068
120.226 5358 73.1984
120.343 5423 73.641
120.46 5459 73.885
120.578 5579 74.6927
120.695 5288 72.7186
120.812 5392 73.4302
120.929 5234 72.3464
121.046 4943 70.3065
121.163 4797 69.2604
121.279 4814 69.383
121.396 4579 67.6683
121.513 4615 67.9338
121.63 4850 69.6419
121.747 4949 70.3491
121.863 5065 71.1688
121.98 5183 71.9931
122.097 5278 72.6498
122.213 5214 72.208
122.33 5322 72.952
122.446 5330 73.0068
122.563 5331 73.0137
122.679 5224 72.2772
122.795 5335 73.0411
122.912 5074 71.232
123.028 4680 68.4105
123.144 4217 64.9384
123.26 4015 63.364
123.377 0 1
123.493 0 1
123.609 0 1
123.725 0 1
123.84 0 1
123.956 0 1
124.072 0 1
124.188 0 1
124.303 0 1
124.419 0 1
126.852 0 1
126.968 0 1
127.083 0 1
127.199 0 1
127.315 0 1
127.431 0 1
127.547 0 1
127.663 0 1
127.779 0 1
127.895 0 1
128.011 0 1
128.127 0 1
128.243 0 1
128.359 4672 68.352
128.476 4295 65.5362
128.592 4479 66.9253
128.708 4987 70.6187
128.825 5489 74.0878
128.941 5828 76.3413
129.058 5882 76.6942
129.174 5872 76.629
129.291 6192 78.6893
129.408 6016 77.5629
129.524 5984 77.3563
129.641 6061 77.8524
129.758 6015 77.5564
129.875 5684 75.3923
129.992 5680 75.3658
130.108 5411 73.5595
130.225 5250 72.4569
130.342 5221 72.2565
130.459 4848 69.6276
130.576 5225 72.2842
130.693 5539 74.4245
130.81 5600 74.8331
130.928 5627 75.0133
131.045 5641 75.1066
131.162 5830 76.3544
131.279 5842 76.433
131.396 5837 76.4003
131.513 5734 75.7232
131.631 5730 75.6968
131.748 5404 73.5119
131.865 4864 69.7424
131.983 4422 66.4981
132.1 4453 66.7308
132.217 4633 68.0661
132.335 5155 71.7983
132.452 5637 75.08
132.57 5824 76.3151
132.687 5606 74.8732
132.804 6024 77.6144
132.922 5675 75.3326
133.039 5815 76.2561
133.157 5730 75.6968
133.274 5752 75.8419
133.392 5519 74.29
133.509 5579 74.6927
133.627 5357 73.1915
133.744 5208 72.1665
133.862 5101 71.4213
133.979 5064 71.1618
134.097 4980 70.5691
134.214 5262 72.5396
134.332 5171 71.9097
134.449 5453 73.8444
134.567 5497 74.1418
134.684 5567 74.6123
134.802 5629 75.0267
134.919 5752 75.8419
135.037 5692 75.4453
135.154 5385 73.3826
135.272 5515 74.263
135.389 4822 69.4406
135.507 4455 66.7458
135.624 4384 66.2118
135.742 4342 65.8939
135.859 4636 68.0882
135.977 5131 71.631
136.094 5484 74.054
136.211 5683 75.3857
136.329 5714 75.591
136.446 5554 74.5252
136.564 5707 75.5447
136.681 5758 75.8815
136.798 5583 74.7195
136.915 5683 75.3857
137.033 5488 74.081
137.15 5449 73.8173
137.267 5600 74.8331
137.384 5203 72.1318
137.502 5209 72.1734
137.619 5055 71.0985
137.736 5095 71.3793
137.853 4963 70.4486
137.97 5083 71.2952
138.087 5449 73.8173
138.204 5236 72.3602
138.321 5519 74.29
138.438 5543 74.4513
138.555 5585 74.7329
138.672 5641 75.1066
138.788 5423 73.641
138.905 5297 72.7805
139.022 4988 70.6258
139.139 4555 67.4907
139.255 4221 64.9692
139.372 4372 66.1211
139.488 4602 67.838
139.605 5096 71.3863
139.721 5491 74.1013
139.838 5576 74.6726
139.954 5756 75.8683
140.071 5674 75.326
140.187 5679 75.3591
140.303 5643 75.1199
140.419 5665 75.2662
140.535 5641 75.1066
140.652 5519 74.29
140.768 0 1
140.884 0 1
141 0 1
141.115 0 1
141.231 0 1
141.347 0 1
141.463 0 1
141.578 0 1
141.694 0 1
144.104 0 1
144.219 0 1
144.335 0 1
144.45 0 1
144.566 0 1
144.682 0 1
144.798 0 1
144.914 0 1
145.03 0 1
145.146 4834 69.527
145.262 4753 68.942
145.378 4923 70.1641
145.494 4789 69.2026
145.61 4890 69.9285
145.726 4912 70.0857
145.842 4696 68.5274
145.959 4534 67.335
146.075 4432 66.5733
146.192 4413 66.4304
146.308 4299 65.5668
146.425 4291 65.5057
146.541 4290 65.4981
146.658 4425 66.5207
146.774 4579 67.6683
146.891 4637 68.0955
147.008 4633 68.0661
147.125 4561 67.5352
147.241 4663 68.2862
147.358 4587 67.7274
147.475 4320 65.7267
147.592 4087 63.9296
147.709 3875 62.2495
147.826 3529 59.4054
147.943 3431 58.5747
148.06 3751 61.2454
148.177 4041 63.5689
148.294 4514 67.1863
148.411 4638 68.1029
148.528 4541 67.3869
148.645 4682 68.4251
148.762 4553 67.4759
148.88 4436 66.6033
148.997 4304 65.6049
149.114 4608 67.8823
149.231 4527 67.283
149.349 4548 67.4389
149.466 4379 66.174
149.583 4276 65.3911
149.701 4305 65.6125
149.818 4145 64.3817
149.935 4002 63.2614
150.053 4100 64.0312
150.17 3945 62.8092
150.287 4156 64.467
150.405 4220 64.9615
150.522 4281 65.4294
150.64 4291 65.5057
150.757 4324 65.7571
150.875 4278 65.4064
150.992 4222 64.9769
151.11 3969 63
151.227 3786 61.5305
151.344 3620 60.1664
151.462 3302 57.463
151.579 3225 56.7891
151.697 3539 59.4895
151.814 3952 62.8649
151.932 4113 64.1327
152.049 4225 65
152.167 4387 66.2344
152.284 4414 66.4379
152.402 4262 65.284
152.519 4345 65.9166
152.636 4444 66.6633
152.754 4400 66.3325
152.871 4271 65.3529
152.989 4431 66.5658
153.106 4532 67.3201
153.223 4334 65.8331
153.341 4165 64.5368
153.458 4069 63.7887
153.575 4105 64.0703
153.693 3916 62.578
153.81 4043 63.5846
153.927 4175 64.6142
154.044 4206 64.8537
154.162 4446 66.6783
154.279 4400 66.3325
154.396 4160 64.4981
154.513 4384 66.2118
154.63 4373 66.1287
154.747 4135 64.304
154.864 4075 63.8357
154.981 3812 61.7414
155.098 3689 60.7371
155.215 3410 58.3952
155.332 3774 61.4329
155.449 4212 64.8999
155.566 4422 66.4981
155.683 4380 66.1816
155.8 4457 66.7608
155.917 4499 67.0746
156.033 4377 66.1589
156.15 0 1
156.267 0 1
156.383 0 1
156.5 0 1
156.617 0 1
156.733 0 1
156.85 0 1
156.966 0 1
157.082 0 1
157.199 0 1
157.315 0 1
157.431 0 1
157.547 0 1
157.664 0 1
157.78 0 1
157.896 0 1
158.012 0 1
158.128 0 1
158.244 0 1
158.359 0 1
158.475 0 1
158.591 0 1
158.706 0 1
