
6.15755 0 1
6.2731 0 1
6.3887 0 1
6.50437 0 1
6.62009 0 1
6.73587 0 1
6.8517 0 1
6.96759 0 1
7.08353 0 1
7.19952 0 1
7.31557 0 1
7.43166 0 1
7.54781 0 1
7.664 0 1
7.78024 0 1
7.89653 0 1
8.01286 0 1
8.12924 0 1
8.24567 0 1
8.36213 0 1
8.47864 0 1
8.59519 0 1
8.71178 0 1
8.82841 0 1
8.94508 0 1
9.06179 0 1
9.17853 0 1
9.29531 0 1
9.41212 0 1
9.52897 0 1
9.64584 0 1
9.76276 0 1
9.8797 0 1
9.99667 0 1
10.1137 0 1
10.2307 0 1
10.3478 0 1
10.4648 0 1
10.5819 0 1
10.6991 0 1
10.8162 0 1
10.9334 0 1
11.0506 0 1
11.1678 0 1
11.285 0 1
11.4023 0 1
11.5196 0 1
11.6369 0 1
11.7542 0 1
11.8715 0 1
11.9888 0 1
12.1062 0 1
12.2235 0 1
12.3409 0 1
12.4582 0 1
12.5756 0 1
12.693 0 1
12.8104 0 1
12.9278 0 1
13.0452 0 1
13.1626 0 1
13.28 0 1
13.3974 0 1
13.5149 0 1
13.6323 0 1
13.7497 0 1
13.8671 0 1
13.9845 0 1
14.1019 0 1
14.2193 0 1
14.3367 0 1
14.4541 0 1
14.5714 0 1
14.6888 0 1
14.8062 0 1
14.9235 0 1
15.0408 1545 39.3065
15.1581 1679 40.9756
15.2755 1641 40.5093
15.3927 1726 41.5452
15.51 1722 41.497
15.6273 1721 41.4849
15.7445 1742 41.7373
15.8617 1658 40.7185
15.9789 1733 41.6293
16.0961 1680 40.9878
16.2132 1658 40.7185
16.3304 1772 42.0951
16.4475 1805 42.4853
16.5646 1919 43.8064
16.6816 1896 43.5431
16.7986 1983 44.5309
16.9156 2035 45.111
17.0326 2105 45.8803
17.1496 1970 44.3847
17.2665 2007 44.7996
17.3833 2073 45.5302
17.5002 1915 43.7607
17.617 1958 44.2493
17.7338 1856 43.0813
17.8505 1799 42.4146
17.9672 1748 41.8091
18.0839 1812 42.5676
18.2005 1885 43.4166
18.3171 1861 43.1393
18.4337 1869 43.2319
18.5502 1895 43.5316
18.6666 2019 44.9333
18.7831 1886 43.4281
18.8994 1972 44.4072
19.0158 1963 44.3058
19.1321 1898 43.566
19.2483 1882 43.382
19.3645 1832 42.8019
19.4806 1675 40.9268
19.5967 1528 39.0896
19.7128 1416 37.6298
19.8288 1352 36.7696
19.9447 1204 34.6987
20.0606 0 1
20.1764 0 1
20.2922 0 1
20.4079 0 1
20.5236 0 1
20.6392 0 1
20.7548 0 1
20.8702 0 1
23.3078 0 1
23.4233 0 1
23.539 0 1
23.6547 0 1
23.7704 0 1
23.8862 0 1
24.0021 0 1
24.118 0 1
24.234 0 1
24.35 0 1
24.4661 842 29.0172
24.5822 963 31.0322
24.6984 1118 33.4365
24.8146 1242 35.242
24.9309 1331 36.4829
25.0472 1427 37.7757
25.1636 1572 39.6485
25.28 1687 41.0731
25.3965 1878 43.3359
25.513 2018 44.9222
25.6296 2016 44.8999
25.7462 2142 46.2817
25.8628 2192 46.8188
25.9795 2225 47.1699
26.0962 2167 46.551
26.213 2050 45.2769
26.3298 1938 44.0227
26.4466 1892 43.4971
26.5635 1906 43.6578
26.6804 1895 43.5316
26.7973 1892 43.4971
26.9143 1961 44.2832
27.0313 1998 44.699
27.1483 1982 44.5197
27.2653 2108 45.913
27.3824 2106 45.8912
27.4996 2094 45.7602
27.6167 2041 45.1774
27.7339 1978 44.4747
27.8511 1944 44.0908
27.9683 1864 43.1741
28.0855 1892 43.4971
28.2028 1835 42.8369
28.3201 1716 41.4246
28.4374 1749 41.821
28.5547 1769 42.0595
28.6721 1739 41.7013
28.7894 1819 42.6497
28.9068 2033 45.0888
29.0242 2127 46.1194
29.1416 2169 46.5725
29.259 2196 46.8615
29.3764 2048 45.2548
29.4939 2070 45.4973
29.6113 2095 45.7712
29.7288 2018 44.9222
29.8463 1882 43.382
29.9638 1868 43.2204
30.0812 1862 43.1509
30.1987 1753 41.8688
30.3162 1747 41.7971
30.4337 1726 41.5452
30.5512 1956 44.2267
30.6687 1896 43.5431
30.7862 1909 43.6921
30.9037 1953 44.1928
31.0212 2022 44.9667
31.1387 1943 44.0795
31.2562 2032 45.0777
31.3737 1951 44.1701
31.4912 1900 43.589
31.6087 1911 43.715
31.7262 1763 41.9881
31.8436 1730 41.5933
31.9611 1639 40.4846
32.0785 1722 41.497
32.1959 1790 42.3084
32.3134 1864 43.1741
32.4308 1855 43.0697
32.5482 1948 44.1362
32.6655 2040 45.1664
32.7829 1991 44.6206
32.9002 2034 45.0999
33.0176 2082 45.6289
33.1349 2023 44.9778
33.2522 1930 43.9318
33.3694 1884 43.4051
33.4867 1768 42.0476
33.6039 1656 40.694
33.7211 1611 40.1373
33.8383 1695 41.1704
33.9554 1692 41.1339
34.0725 1775 42.1307
34.1896 1776 42.1426
34.3067 1806 42.4971
34.4237 1837 42.8602
34.5407 1898 43.566
34.6577 1909 43.6921
34.7746 1886 43.4281
34.8915 1931 43.9431
35.0084 1913 43.7379
35.1252 1855 43.0697
35.242 1696 41.1825
35.3587 1726 41.5452
35.4755 1704 41.2795
35.5921 1562 39.5221
35.7088 1647 40.5832
35.8254 1620 40.2492
35.9419 1643 40.5339
36.0584 1714 41.4005
36.1749 1734 41.6413
36.2913 1734 41.6413
36.4077 1658 40.7185
36.524 1798 42.4028
36.6403 1708 41.328
36.7565 1656 40.694
36.8727 1570 39.6232
36.9889 1475 38.4057
37.1049 1289 35.9026
37.221 0 1
37.3369 0 1
37.4529 0 1
37.5687 0 1
37.6845 0 1
37.8003 0 1
37.916 0 1
38.0316 0 1
38.1472 0 1
40.5851 0 1
40.7008 0 1
40.8164 0 1
40.9322 0 1
41.048 0 1
41.1639 0 1
41.2798 0 1
41.3958 0 1
41.5118 0 1
41.6279 0 1
41.744 905 30.0832
41.8602 1070 32.7109
41.9765 1135 33.6898
42.0928 1189 34.4819
42.2091 1152 33.9411
42.3255 1128 33.5857
42.4419 1140 33.7639
42.5584 1117 33.4215
42.675 1189 34.4819
42.7915 1358 36.8511
42.9081 1418 37.6563
43.0248 1429 37.8021
43.1415 1434 37.8682
43.2582 1541 39.2556
43.375 1549 39.3573
43.4918 1561 39.5095
43.6087 1575 39.6863
43.7256 1533 39.1535
43.8425 1480 38.4708
43.9595 1449 38.0657
44.0765 1524 39.0384
44.1935 1403 37.4566
44.3106 1340 36.606
44.4277 1357 36.8375
44.5448 1279 35.7631
44.6619 1320 36.3318
44.7791 1325 36.4005
44.8963 1505 38.7943
45.0136 1575 39.6863
45.1308 1593 39.9124
45.2481 1592 39.8999
45.3654 1631 40.3856
45.4827 1564 39.5474
45.6001 1603 40.0375
45.7174 1586 39.8246
45.8348 1487 38.5616
45.9522 1400 37.4166
46.0697 1296 36
46.1871 1262 35.5246
46.3046 1325 36.4005
46.422 1388 37.2559
46.5395 1496 38.6782
46.657 1469 38.3275
46.7745 1543 39.281
46.892 1565 39.5601
47.0096 1642 40.5216
47.1271 1624 40.2989
47.2446 1618 40.2244
47.3622 1656 40.694
47.4797 1562 39.5221
47.5973 1519 38.9744
47.7149 1555 39.4335
47.8324 1459 38.1969
47.95 1378 37.1214
48.0675 1343 36.647
48.1851 1316 36.2767
48.3027 1416 37.6298
48.4202 1439 37.9342
48.5378 1528 39.0896
48.6554 1649 40.6079
48.7729 1612 40.1497
48.8904 1569 39.6106
49.008 1605 40.0625
49.1255 1640 40.4969
49.243 1514 38.9102
49.3605 1449 38.0657
49.478 1380 37.1484
49.5955 1242 35.242
49.713 1147 33.8674
49.8304 1324 36.3868
49.9479 1326 36.4143
50.0653 1370 37.0135
50.1827 1450 38.0789
50.3001 1476 38.4187
50.4175 1495 38.6652
50.5348 1605 40.0625
50.6521 1552 39.3954
50.7694 1568 39.598
50.8867 1610 40.1248
51.004 1639 40.4846
51.1212 1578 39.724
51.2384 1577 39.7115
51.3556 1556 39.4462
51.4727 1463 38.2492
51.5899 1417 37.6431
51.707 1405 37.4833
51.824 1455 38.1445
51.9411 1602 40.025
52.0581 1753 41.8688
52.175 1832 42.8019
52.2919 1933 43.9659
52.4088 1912 43.7264
52.5257 1912 43.7264
52.6425 1982 44.5197
52.7593 2006 44.7884
52.876 1913 43.7379
52.9927 1869 43.2319
53.1094 1794 42.3556
53.226 1636 40.4475
53.3426 1617 40.2119
53.4591 1599 39.9875
53.5756 1675 40.9268
53.692 1691 41.1218
53.8084 1692 41.1339
53.9248 1653 40.6571
54.0411 1568 39.598
54.1573 1557 39.4588
54.2735 0 1
54.3896 0 1
54.5057 0 1
54.6217 0 1
54.7377 0 1
54.8537 0 1
54.9695 0 1
55.0853 0 1
55.2011 0 1
55.3168 0 1
55.4324 0 1
57.824 0 1
57.9396 0 1
58.0553 0 1
58.1711 0 1
58.2869 0 1
58.4028 0 1
58.5187 0 1
58.6347 0 1
58.7508 0 1
58.8669 0 1
58.983 1287 35.8748
59.0992 1411 37.5633
59.2155 1560 39.4968
59.3318 1636 40.4475
59.4482 1756 41.9047
59.5646 1842 42.9185
59.681 1903 43.6234
59.7975 1833 42.8135
59.9141 1913 43.7379
60.0306 1811 42.5558
60.1473 1839 42.8836
60.2639 1747 41.7971
60.3807 1623 40.2865
60.4974 1700 41.2311
60.6142 1799 42.4146
60.731 1868 43.2204
60.8479 1963 44.3058
60.9648 2024 44.9889
61.0818 2054 45.3211
61.1987 2043 45.1996
61.3158 1975 44.441
61.4328 1961 44.2832
61.5499 1818 42.638
61.667 1688 41.0853
61.7841 1559 39.4842
61.9013 1475 38.4057
62.0185 1533 39.1535
62.1357 1607 40.0874
62.253 1691 41.1218
62.3702 1832 42.8019
62.4875 1764 42
62.6049 1946 44.1135
62.7222 1990 44.6094
62.8396 2053 45.31
62.9569 1978 44.4747
63.0743 1898 43.566
63.1918 1961 44.2832
63.3092 1846 42.9651
63.4267 1881 43.3705
63.5441 1825 42.72
63.6616 1710 41.3521
63.7791 1680 40.9878
63.8966 1586 39.8246
64.0142 1634 40.4228
64.1317 1665 40.8044
64.2492 1793 42.3438
64.3668 1919 43.8064
64.4843 1926 43.8862
64.6019 2000 44.7214
64.7195 2013 44.8665
64.837 1969 44.3734
64.9546 1989 44.5982
65.0722 1966 44.3396
65.1898 1740 41.7133
65.3074 1602 40.025
65.4249 1480 38.4708
65.5425 1440 37.9473
65.6601 1496 38.6782
65.7777 1469 38.3275
65.8952 1675 40.9268
66.0128 1774 42.1189
66.1304 1825 42.72
66.2479 1875 43.3013
66.3655 1912 43.7264
66.483 1972 44.4072
66.6005 1920 43.8178
66.718 1864 43.1741
66.8355 1934 43.9773
66.953 1830 42.7785
67.0705 1862 43.1509
67.1879 1733 41.6293
67.3054 1637 40.4599
67.4228 1548 39.3446
67.5402 1567 39.5854
67.6576 1536 39.1918
67.7749 1492 38.6264
67.8923 1667 40.8289
68.0096 1847 42.9767
68.1269 1901 43.6005
68.2442 1831 42.7902
68.3614 1985 44.5533
68.4787 1901 43.6005
68.5958 1977 44.4635
68.713 1866 43.1972
68.8302 1741 41.7253
68.9473 1594 39.9249
69.0643 1467 38.3014
69.1814 1388 37.2559
69.2984 1380 37.1484
69.4154 1479 38.4578
69.5323 1522 39.0128
69.6492 1679 40.9756
69.7661 1716 41.4246
69.8829 1776 42.1426
69.9997 1796 42.3792
70.1165 1697 41.1947
70.2332 1666 40.8167
70.3499 1593 39.9124
70.4665 1537 39.2046
70.5831 1530 39.1152
70.6996 1421 37.6962
70.8161 1307 36.1525
70.9326 1177 34.3074
71.049 1068 32.6803
71.1653 895 29.9166
71.2817 816 28.5657
71.3979 723 26.8887
71.5141 723 26.8887
71.6303 719 26.8142
71.7464 620 24.8998
71.8624 0 1
71.9784 0 1
72.0944 0 1
72.2102 0 1
72.3261 0 1
72.4418 0 1
72.5575 0 1
72.6732 0 1
75.1054 0 1
75.2209 0 1
75.3365 0 1
75.4521 0 1
75.5678 0 1
75.6835 0 1
75.7993 0 1
75.9151 0 1
76.031 0 1
76.147 1137 33.7194
76.263 1164 34.1174
76.3791 1172 34.2345
76.4952 1204 34.6987
76.6113 1233 35.1141
76.7276 1335 36.5377
76.8438 1435 37.8814
76.9601 1489 38.5876
77.0765 1588 39.8497
77.1929 1571 39.6358
77.3093 1675 40.9268
77.4258 1615 40.1871
77.5423 1632 40.398
77.6589 1582 39.7744
77.7755 1414 37.6032
77.8921 1352 36.7696
78.0088 1227 35.0286
78.1256 1196 34.5832
78.2423 1114 33.3766
78.3591 1195 34.5688
78.4759 1404 37.47
78.5928 1381 37.1618
78.7097 1431 37.8286
78.8266 1496 38.6782
78.9436 1535 39.1791
79.0606 1572 39.6485
79.1776 1632 40.398
79.2946 1625 40.3113
79.4117 1646 40.5709
79.5288 1712 41.3763
79.6459 1571 39.6358
79.7631 1555 39.4335
79.8802 1508 38.833
79.9974 1481 38.4838
80.1147 1301 36.0694
80.2319 1286 35.8608
80.3491 1339 36.5923
80.4664 1458 38.1838
80.5837 1516 38.9358
80.701 1583 39.7869
80.8183 1632 40.398
80.9357 1728 41.5692
81.053 1725 41.5331
81.1704 1702 41.2553
81.2877 1712 41.3763
81.4051 1677 40.9512
81.5225 1491 38.6135
81.6399 1359 36.8646
81.7573 1263 35.5387
81.8747 1195 34.5688
81.9922 1285 35.8469
82.1096 1367 36.973
82.227 1386 37.229
82.3444 1463 38.2492
82.4619 1569 39.6106
82.5793 1721 41.4849
82.6967 1658 40.7185
82.8142 1693 41.1461
82.9316 1692 41.1339
83.049 1757 41.9166
83.1664 1657 40.7063
83.2838 1662 40.7676
83.4012 1681 41
83.5186 1627 40.3361
83.636 1481 38.4838
83.7534 1479 38.4578
83.8708 1343 36.647
83.9881 1388 37.2559
84.1055 1392 37.3095
84.2228 1520 38.9872
84.3401 1633 40.4104
84.4575 1640 40.4969
84.5747 1748 41.8091
84.692 1715 41.4126
84.8093 1702 41.2553
84.9265 1716 41.4246
85.0437 1570 39.6232
85.1609 1474 38.3927
85.2781 1340 36.606
85.3952 1200 34.641
85.5123 1140 33.7639
85.6294 1231 35.0856
85.7465 1271 35.6511
85.8636 1542 39.2683
85.9806 1501 38.7427
86.0976 1632 40.398
86.2145 1649 40.6079
86.3315 1697 41.1947
86.4484 1799 42.4146
86.5652 1746 41.7852
86.682 1737 41.6773
86.7988 1720 41.4729
86.9156 1634 40.4228
87.0323 1692 41.1339
87.149 1593 39.9124
87.2657 1489 38.5876
87.3823 1392 37.3095
87.4988 1275 35.7071
87.6154 1170 34.2053
87.7318 1200 34.641
87.8483 1238 35.1852
87.9647 1325 36.4005
88.081 1357 36.8375
88.1973 1379 37.1349
88.3136 1288 35.8887
88.4298 1254 35.4119
88.546 1127 33.5708
88.6621 1000 31.6228
88.7781 817 28.5832
88.8942 0 1
89.0101 0 1
89.126 0 1
89.2419 0 1
89.3577 0 1
89.4734 0 1
89.5891 0 1
89.7047 0 1
89.8203 0 1
89.9358 0 1
92.3269 0 1
92.4424 0 1
92.558 0 1
92.6736 0 1
92.7893 0 1
92.905 0 1
93.0208 0 1
93.1366 0 1
93.2525 0 1
93.3685 0 1
93.4845 0 1
93.6005 1360 36.8782
93.7167 1319 36.318
93.8328 1392 37.3095
93.949 1447 38.0395
94.0653 1535 39.1791
94.1816 1468 38.3145
94.2979 1466 38.2884
94.4143 1374 37.0675
94.5307 1318 36.3043
94.6472 1198 34.6121
94.7637 1268 35.609
94.8803 1332 36.4966
94.9969 1504 38.7814
95.1135 1570 39.6232
95.2302 1569 39.6106
95.3469 1765 42.0119
95.4637 1730 41.5933
95.5805 1744 41.7612
95.6973 1722 41.497
95.8142 1802 42.45
95.9311 1711 41.3642
96.048 1717 41.4367
96.1649 1697 41.1947
96.2819 1627 40.3361
96.3989 1636 40.4475
96.516 1486 38.5487
96.633 1436 37.8946
96.7501 1349 36.7287
96.8673 1379 37.1349
96.9844 1466 38.2884
97.1016 1575 39.6863
97.2188 1659 40.7308
97.336 1761 41.9643
97.4532 1778 42.1663
97.5704 1785 42.2493
97.6877 1758 41.9285
97.805 1713 41.3884
97.9223 1618 40.2244
98.0396 1457 38.1707
98.1569 1334 36.524
98.2743 1283 35.819
98.3916 1298 36.0278
98.509 1343 36.647
98.6264 1441 37.9605
98.7438 1568 39.598
98.8612 1668 40.8412
98.9786 1644 40.5463
99.096 1868 43.2204
99.2134 1821 42.6732
99.3308 1786 42.2611
99.4482 1835 42.8369
99.5656 1778 42.1663
99.6831 1806 42.4971
99.8005 1803 42.4617
99.9179 1745 41.7732
100.035 1710 41.3521
100.153 1646 40.5709
100.27 1527 39.0768
100.388 1570 39.6232
100.505 1580 39.7492
100.622 1715 41.4126
100.74 1785 42.2493
100.857 1860 43.1277
100.975 1899 43.5775
101.092 1897 43.5546
101.209 1889 43.4626
101.327 1881 43.3705
101.444 1761 41.9643
101.561 1691 41.1218
101.679 1454 38.1314
101.796 1378 37.1214
101.913 1352 36.7696
102.03 1301 36.0694
102.148 1490 38.6005
102.265 1562 39.5221
102.382 1782 42.2137
102.499 1706 41.3038
102.616 1843 42.9302
102.733 1937 44.0114
102.851 1935 43.9886
102.968 1890 43.4741
103.085 1872 43.2666
103.202 1884 43.4051
103.319 1824 42.7083
103.436 1782 42.2137
103.552 1795 42.3674
103.669 1658 40.7185
103.786 1602 40.025
103.903 1560 39.4968
104.02 1664 40.7922
104.137 1745 41.7732
104.253 1853 43.0465
104.37 1966 44.3396
104.487 1953 44.1928
104.603 1999 44.7102
104.72 2045 45.2217
104.836 1875 43.3013
104.953 1761 41.9643
105.069 1631 40.3856
105.186 1406 37.4967
105.302 1260 35.4965
105.418 1200 34.641
105.535 1197 34.5977
105.651 1202 34.6699
105.767 1267 35.5949
105.883 1230 35.0714
105.999 1195 34.5688
106.115 0 1
106.231 0 1
106.347 0 1
106.463 0 1
106.579 0 1
106.694 0 1
106.81 0 1
106.926 0 1
107.041 0 1
107.157 0 1
109.576 0 1
109.692 0 1
109.807 0 1
109.923 0 1
110.039 0 1
110.155 0 1
110.27 0 1
110.386 0 1
110.502 0 1
110.618 788 28.0713
110.735 1060 32.5576
110.851 1157 34.0147
110.967 1313 36.2353
111.083 1442 37.9737
111.199 1628 40.3485
111.316 1682 41.0122
111.432 1706 41.3038
111.549 1782 42.2137
111.665 1724 41.5211
111.782 1755 41.8927
111.898 1823 42.6966
112.015 1770 42.0714
112.132 1679 40.9756
112.248 1493 38.6394
112.365 1453 38.1182
112.482 1411 37.5633
112.599 1563 39.5348
112.716 1613 40.1622
112.832 1785 42.2493
112.949 1827 42.7434
113.066 1816 42.6146
113.183 1880 43.359
113.3 1829 42.7668
113.417 1712 41.3763
113.534 1693 41.1461
113.652 1522 39.0128
113.769 1401 37.4299
113.886 1271 35.6511
114.003 1271 35.6511
114.12 1388 37.2559
114.238 1457 38.1707
114.355 1630 40.3733
114.472 1602 40.025
114.589 1814 42.5911
114.707 1787 42.2729
114.824 1810 42.5441
114.942 1869 43.2319
115.059 1819 42.6497
115.176 1908 43.6807
115.294 1868 43.2204
115.411 1742 41.7373
115.529 1813 42.5793
115.646 1773 42.107
115.764 1639 40.4846
115.881 1523 39.0256
115.999 1471 38.3536
116.116 1504 38.7814
116.234 1664 40.7922
116.351 1715 41.4126
116.469 1829 42.7668
116.586 1778 42.1663
116.704 1879 43.3474
116.821 1792 42.332
116.939 1863 43.1625
117.056 1864 43.1741
117.174 1660 40.7431
117.291 1463 38.2492
117.409 1372 37.0405
117.526 1301 36.0694
117.644 1224 34.9857
117.761 1360 36.8782
117.879 1470 38.3406
117.996 1569 39.6106
118.114 1678 40.9634
118.231 1621 40.2616
118.349 1756 41.9047
118.466 1740 41.7133
118.584 1833 42.8135
118.701 1807 42.5088
118.819 1753 41.8688
118.936 1711 41.3642
119.053 1748 41.8091
119.171 1655 40.6817
119.288 1688 41.0853
119.405 1532 39.1408
119.523 1404 37.47
119.64 1546 39.3192
119.757 1405 37.4833
119.875 1481 38.4838
119.992 1608 40.0999
120.109 1706 41.3038
120.226 1724 41.5211
120.343 1749 41.821
120.46 1708 41.328
120.578 1737 41.6773
120.695 1679 40.9756
120.812 1609 40.1123
120.929 1451 38.092
121.046 1361 36.8917
121.163 1231 35.0856
121.279 1183 34.3948
121.396 1194 34.5543
121.513 1320 36.3318
121.63 1400 37.4166
121.747 1355 36.8103
121.863 1399 37.4032
121.98 1340 36.606
122.097 1334 36.524
122.213 1323 36.3731
122.33 1328 36.4417
122.446 1301 36.0694
122.563 1238 35.1852
122.679 1166 34.1467
122.795 1153 33.9559
122.912 992 31.496
123.028 899 29.9833
123.144 813 28.5132
123.26 686 26.1916
123.377 0 1
123.493 0 1
123.609 0 1
123.725 0 1
123.84 0 1
123.956 0 1
124.072 0 1
124.188 0 1
124.303 0 1
124.419 0 1
126.852 0 1
126.968 0 1
127.083 0 1
127.199 0 1
127.315 0 1
127.431 0 1
127.547 0 1
127.663 0 1
127.779 0 1
127.895 0 1
128.011 0 1
128.127 0 1
128.243 0 1
128.359 1583 39.7869
128.476 1655 40.6817
128.592 1573 39.6611
128.708 1547 39.3319
128.825 1550 39.37
128.941 1685 41.0488
129.058 1844 42.9418
129.174 1892 43.4971
129.291 1851 43.0232
129.408 1875 43.3013
129.524 1846 42.9651
129.641 1819 42.6497
129.758 1752 41.8569
129.875 1649 40.6079
129.992 1566 39.5727
130.108 1538 39.2173
130.225 1355 36.8103
130.342 1364 36.9324
130.459 1384 37.2022
130.576 1555 39.4335
130.693 1527 39.0768
130.81 1754 41.8808
130.928 1717 41.4367
131.045 1830 42.7785
131.162 1834 42.8252
131.279 1821 42.6732
131.396 1872 43.2666
131.513 1845 42.9535
131.631 1862 43.1509
131.748 1783 42.2256
131.865 1788 42.2847
131.983 1697 41.1947
132.1 1646 40.5709
132.217 1693 41.1461
132.335 1542 39.2683
132.452 1709 41.3401
132.57 1739 41.7013
132.687 1932 43.9545
132.804 1907 43.6692
132.922 1848 42.9884
133.039 1877 43.3244
133.157 1919 43.8064
133.274 1897 43.5546
133.392 1845 42.9535
133.509 1699 41.2189
133.627 1594 39.9249
133.744 1411 37.5633
133.862 1360 36.8782
133.979 1405 37.4833
134.097 1492 38.6264
134.214 1667 40.8289
134.332 1663 40.7799
134.449 1762 41.9762
134.567 1767 42.0357
134.684 1823 42.6966
134.802 1839 42.8836
134.919 1882 43.382
135.037 1855 43.0697
135.154 1825 42.72
135.272 1838 42.8719
135.389 1758 41.9285
135.507 1708 41.328
135.624 1731 41.6053
135.742 1628 40.3485
135.859 1643 40.5339
135.977 1651 40.6325
136.094 1671 40.8779
136.211 1805 42.4853
136.329 1877 43.3244
136.446 1852 43.0349
136.564 1891 43.4856
136.681 2016 44.8999
136.798 1994 44.6542
136.915 1912 43.7264
137.033 1817 42.6263
137.15 1713 41.3884
137.267 1540 39.2428
137.384 1484 38.5227
137.502 1341 36.6197
137.619 1365 36.9459
137.736 1490 38.6005
137.853 1537 39.2046
137.97 1674 40.9145
138.087 1677 40.9512
138.204 1819 42.6497
138.321 1851 43.0232
138.438 1855 43.0697
138.555 1854 43.0581
138.672 1814 42.5911
138.788 1715 41.4126
138.905 1716 41.4246
139.022 1646 40.5709
139.139 1544 39.2938
139.255 1470 38.3406
139.372 1379 37.1349
139.488 1256 35.4401
139.605 1241 35.2278
139.721 1293 35.9583
139.838 1267 35.5949
139.954 1283 35.819
140.071 1227 35.0286
140.187 1174 34.2637
140.303 1059 32.5423
140.419 1006 31.7175
140.535 943 30.7083
140.652 887 29.7825
140.768 0 1
140.884 0 1
141 0 1
141.115 0 1
141.231 0 1
141.347 0 1
141.463 0 1
141.578 0 1
141.694 0 1
144.104 0 1
144.219 0 1
144.335 0 1
144.45 0 1
144.566 0 1
144.682 0 1
144.798 0 1
144.914 0 1
145.03 0 1
145.146 1255 35.426
145.262 1377 37.108
145.378 1512 38.8844
145.494 1526 39.064
145.61 1414 37.6032
145.726 1452 38.1051
145.842 1286 35.8608
145.959 1270 35.6371
146.075 1169 34.1906
146.192 1089 33
146.308 1108 33.2866
146.425 1169 34.1906
146.541 1182 34.3802
146.658 1184 34.4093
146.774 1303 36.0971
146.891 1377 37.108
147.008 1388 37.2559
147.125 1379 37.1349
147.241 1425 37.7492
147.358 1434 37.8682
147.475 1431 37.8286
147.592 1336 36.5513
147.709 1369 37
147.826 1370 37.0135
147.943 1295 35.9861
148.06 1281 35.7911
148.177 1254 35.4119
148.294 1298 36.0278
148.411 1311 36.2077
148.528 1302 36.0832
148.645 1348 36.7151
148.762 1488 38.5746
148.88 1445 38.0132
148.997 1426 37.7624
149.114 1413 37.5899
149.231 1422 37.7094
149.349 1535 39.1791
149.466 1469 38.3275
149.583 1306 36.1386
149.701 1256 35.4401
149.818 1189 34.4819
149.935 1123 33.5112
150.053 1108 33.2866
150.17 1182 34.3802
150.287 1292 35.9444
150.405 1264 35.5528
150.522 1343 36.647
150.64 1331 36.4829
150.757 1347 36.7015
150.875 1346 36.6879
150.992 1438 37.921
151.11 1396 37.3631
151.227 1310 36.1939
151.344 1324 36.3868
151.462 1349 36.7287
151.579 1380 37.1484
151.697 1230 35.0714
151.814 1281 35.7911
151.932 1221 34.9428
152.049 1188 34.4674
152.167 1208 34.7563
152.284 1420 37.6829
152.402 1360 36.8782
152.519 1395 37.3497
152.636 1396 37.3631
152.754 1452 38.1051
152.871 1341 36.6197
152.989 1400 37.4166
153.106 1327 36.428
153.223 1220 34.9285
153.341 1113 33.3617
153.458 1114 33.3766
153.575 1149 33.8969
153.693 1082 32.8938
153.81 1148 33.8821
153.927 1123 33.5112
154.044 1178 34.322
154.162 1201 34.6554
154.279 1298 36.0278
154.396 1218 34.8999
154.513 1300 36.0555
154.63 1288 35.8887
154.747 1263 35.5387
154.864 1300 36.0555
154.981 1197 34.5977
155.098 1212 34.8138
155.215 1159 34.0441
155.332 1154 33.9706
155.449 1155 33.9853
155.566 1124 33.5261
155.683 1149 33.8969
155.8 1196 34.5832
155.917 1139 33.7491
156.033 1188 34.4674
156.15 0 1
156.267 0 1
156.383 0 1
156.5 0 1
156.617 0 1
156.733 0 1
156.85 0 1
156.966 0 1
157.082 0 1
157.199 0 1
157.315 0 1
157.431 0 1
157.547 0 1
157.664 0 1
157.78 0 1
157.896 0 1
158.012 0 1
158.128 0 1
158.244 0 1
158.359 0 1
158.475 0 1
158.591 0 1
158.706 0 1
