
6.15755 0 1
6.2731 0 1
6.3887 0 1
6.50437 0 1
6.62009 0 1
6.73587 0 1
6.8517 0 1
6.96759 0 1
7.08353 0 1
7.19952 0 1
7.31557 0 1
7.43166 0 1
7.54781 0 1
7.664 0 1
7.78024 0 1
7.89653 0 1
8.01286 0 1
8.12924 0 1
8.24567 0 1
8.36213 0 1
8.47864 0 1
8.59519 0 1
8.71178 0 1
8.82841 0 1
8.94508 0 1
9.06179 0 1
9.17853 0 1
9.29531 0 1
9.41212 0 1
9.52897 0 1
9.64584 0 1
9.76276 0 1
9.8797 0 1
9.99667 0 1
10.1137 0 1
10.2307 0 1
10.3478 0 1
10.4648 0 1
10.5819 0 1
10.6991 0 1
10.8162 0 1
10.9334 0 1
11.0506 0 1
11.1678 0 1
11.285 0 1
11.4023 0 1
11.5196 0 1
11.6369 0 1
11.7542 0 1
11.8715 0 1
11.9888 0 1
12.1062 0 1
12.2235 0 1
12.3409 0 1
12.4582 0 1
12.5756 0 1
12.693 0 1
12.8104 0 1
12.9278 0 1
13.0452 0 1
13.1626 0 1
13.28 0 1
13.3974 0 1
13.5149 0 1
13.6323 0 1
13.7497 0 1
13.8671 0 1
13.9845 0 1
14.1019 0 1
14.2193 0 1
14.3367 0 1
14.4541 0 1
14.5714 0 1
14.6888 0 1
14.8062 0 1
14.9235 0 1
15.0408 23812 154.311
15.1581 24196 155.551
15.2755 24558 156.71
15.3927 25026 158.196
15.51 24778 157.41
15.6273 24717 157.216
15.7445 24458 156.391
15.8617 23997 154.91
15.9789 23233 152.424
16.0961 23435 153.085
16.2132 22569 150.23
16.3304 22830 151.096
16.4475 23123 152.062
16.5646 23639 153.75
16.6816 23567 153.515
16.7986 23849 154.431
16.9156 24251 155.727
17.0326 23826 154.357
17.1496 24046 155.068
17.2665 24676 157.086
17.3833 24950 157.956
17.5002 24725 157.242
17.617 25487 159.646
17.7338 25865 160.826
17.8505 26678 163.334
17.9672 27994 167.314
18.0839 28893 169.979
18.2005 30516 174.688
18.3171 30888 175.75
18.4337 31232 176.726
18.5502 31269 176.83
18.6666 30814 175.539
18.7831 30715 175.257
18.8994 30028 173.286
19.0158 28880 169.941
19.1321 27899 167.03
19.2483 27196 164.912
19.3645 26302 162.179
19.4806 26005 161.261
19.5967 25194 158.726
19.7128 24686 157.118
19.8288 23804 154.285
19.9447 21414 146.335
20.0606 0 1
20.1764 0 1
20.2922 0 1
20.4079 0 1
20.5236 0 1
20.6392 0 1
20.7548 0 1
20.8702 0 1
23.3078 0 1
23.4233 0 1
23.539 0 1
23.6547 0 1
23.7704 0 1
23.8862 0 1
24.0021 0 1
24.118 0 1
24.234 0 1
24.35 0 1
24.4661 24898 157.791
24.5822 24918 157.854
24.6984 24679 157.096
24.8146 24552 156.691
24.9309 24816 157.531
25.0472 24377 156.131
25.1636 24253 155.734
25.28 24213 155.605
25.3965 24786 157.436
25.513 25390 159.342
25.6296 26274 162.093
25.7462 26425 162.558
25.8628 26876 163.939
25.9795 27109 164.648
26.0962 27031 164.411
26.213 27224 164.997
26.3298 27763 166.622
26.4466 28124 167.702
26.5635 28636 169.222
26.6804 29288 171.137
26.7973 29518 171.808
26.9143 29653 172.2
27.0313 29593 172.026
27.1483 29862 172.806
27.2653 29197 170.871
27.3824 28771 169.62
27.4996 29012 170.329
27.6167 27310 165.257
27.7339 26718 163.456
27.8511 25755 160.484
27.9683 25095 158.414
28.0855 24673 157.076
28.2028 24424 156.282
28.3201 23792 154.247
28.4374 24574 156.761
28.5547 24122 155.313
28.6721 24081 155.181
28.7894 23932 154.7
28.9068 24082 155.184
29.0242 24253 155.734
29.1416 24197 155.554
29.259 24347 156.035
29.3764 24407 156.227
29.4939 24861 157.674
29.6113 24972 158.025
29.7288 25542 159.819
29.8463 25831 160.72
29.9638 26287 162.133
30.0812 26943 164.143
30.1987 27797 166.724
30.3162 27969 167.239
30.4337 28031 167.425
30.5512 28258 168.101
30.6687 27667 166.334
30.7862 28120 167.69
30.9037 27443 165.659
31.0212 26727 163.484
31.1387 26106 161.574
31.2562 25199 158.742
31.3737 24719 157.223
31.4912 23999 154.916
31.6087 23586 153.577
31.7262 23161 152.187
31.8436 22773 150.907
31.9611 23049 151.819
32.0785 23327 152.732
32.1959 23250 152.48
32.3134 23569 153.522
32.4308 23741 154.081
32.5482 23705 153.964
32.6655 23839 154.399
32.7829 23622 153.695
32.9002 23450 153.134
33.0176 23530 153.395
33.1349 24135 155.354
33.2522 24204 155.576
33.3694 24458 156.391
33.4867 25094 158.411
33.6039 25581 159.941
33.7211 26108 161.58
33.8383 26573 163.012
33.9554 27038 164.432
34.0725 26620 163.156
34.1896 26666 163.297
34.3067 26226 161.944
34.4237 26439 162.601
34.5407 25304 159.072
34.6577 25363 159.258
34.7746 24199 155.56
34.8915 23768 154.169
35.0084 23040 151.789
35.1252 22367 149.556
35.242 22119 148.725
35.3587 21675 147.224
35.4755 22004 148.337
35.5921 21954 148.169
35.7088 22392 149.64
35.8254 23034 151.77
35.9419 23483 153.242
36.0584 23274 152.558
36.1749 23571 153.528
36.2913 23555 153.476
36.4077 22887 151.285
36.524 22689 150.629
36.6403 22389 149.63
36.7565 22431 149.77
36.8727 22285 149.282
36.9889 22880 151.261
37.1049 22664 150.546
37.221 0 1
37.3369 0 1
37.4529 0 1
37.5687 0 1
37.6845 0 1
37.8003 0 1
37.916 0 1
38.0316 0 1
38.1472 0 1
40.5851 0 1
40.7008 0 1
40.8164 0 1
40.9322 0 1
41.048 0 1
41.1639 0 1
41.2798 0 1
41.3958 0 1
41.5118 0 1
41.6279 0 1
41.744 17493 132.261
41.8602 18915 137.532
41.9765 19055 138.04
42.0928 19500 139.642
42.2091 19577 139.918
42.3255 20027 141.517
42.4419 20052 141.605
42.5584 20396 142.815
42.675 21145 145.413
42.7915 21117 145.317
42.9081 21556 146.82
43.0248 21654 147.153
43.1415 21763 147.523
43.2582 21647 147.129
43.375 21580 146.901
43.4918 21821 147.719
43.6087 21405 146.304
43.7256 21356 146.137
43.8425 21044 145.066
43.9595 20509 143.21
44.0765 20444 142.983
44.1935 20227 142.222
44.3106 20122 141.852
44.4277 20022 141.499
44.5448 19775 140.624
44.6619 19381 139.216
44.7791 19167 138.445
44.8963 18826 137.208
45.0136 18644 136.543
45.1308 18485 135.96
45.2481 18372 135.543
45.3654 17937 133.929
45.4827 17434 132.038
45.6001 17308 131.56
45.7174 16963 130.242
45.8348 16795 129.596
45.9522 16332 127.797
46.0697 16145 127.063
46.1871 15684 125.236
46.3046 16060 126.728
46.422 15839 125.853
46.5395 15715 125.359
46.657 15735 125.439
46.7745 15614 124.956
46.892 15591 124.864
47.0096 15434 124.234
47.1271 15193 123.26
47.2446 15088 122.833
47.3622 14794 121.631
47.4797 14498 120.408
47.5973 14303 119.595
47.7149 14264 119.432
47.8324 14306 119.608
47.95 13969 118.191
48.0675 13538 116.353
48.1851 13352 115.551
48.3027 12942 113.763
48.4202 12769 113
48.5378 12705 112.716
48.6554 12392 111.319
48.7729 12527 111.924
48.8904 12292 110.869
49.008 12450 111.58
49.1255 12142 110.191
49.243 12059 109.813
49.3605 12168 110.309
49.478 12247 110.666
49.5955 12065 109.841
49.713 12358 111.167
49.8304 12709 112.734
49.9479 12884 113.508
50.0653 13008 114.053
50.1827 13357 115.572
50.3001 13710 117.09
50.4175 13792 117.439
50.5348 13853 117.699
50.6521 14273 119.47
50.7694 14345 119.771
50.8867 14655 121.058
51.004 15435 124.238
51.1212 15736 125.443
51.2384 16401 128.066
51.3556 16496 128.437
51.4727 16598 128.833
51.5899 16506 128.476
51.707 16551 128.651
51.824 16471 128.339
51.9411 16511 128.495
52.0581 16132 127.012
52.175 16131 127.008
52.2919 16319 127.746
52.4088 16290 127.632
52.5257 16233 127.409
52.6425 15943 126.266
52.7593 16024 126.586
52.876 16257 127.503
52.9927 16037 126.637
53.1094 16682 129.159
53.226 16649 129.031
53.3426 17329 131.64
53.4591 18047 134.339
53.5756 18290 135.241
53.692 18674 136.653
53.8084 19177 138.481
53.9248 19583 139.939
54.0411 19757 140.56
54.1573 20003 141.432
54.2735 0 1
54.3896 0 1
54.5057 0 1
54.6217 0 1
54.7377 0 1
54.8537 0 1
54.9695 0 1
55.0853 0 1
55.2011 0 1
55.3168 0 1
55.4324 0 1
57.824 0 1
57.9396 0 1
58.0553 0 1
58.1711 0 1
58.2869 0 1
58.4028 0 1
58.5187 0 1
58.6347 0 1
58.7508 0 1
58.8669 0 1
58.983 22010 148.358
59.0992 23330 152.742
59.2155 23656 153.805
59.3318 24241 155.695
59.4482 24854 157.652
59.5646 25332 159.16
59.681 25981 161.186
59.7975 26524 162.862
59.9141 26479 162.724
60.0306 26068 161.456
60.1473 25774 160.543
60.2639 24674 157.08
60.3807 23928 154.687
60.4974 22959 151.522
60.6142 22406 149.686
60.731 21442 146.431
60.8479 20529 143.279
60.9648 19422 139.363
61.0818 19313 138.971
61.1987 19214 138.615
61.3158 19435 139.409
61.4328 20185 142.074
61.5499 20205 142.144
61.667 20332 142.59
61.7841 20511 143.217
61.9013 20631 143.635
62.0185 20764 144.097
62.1357 21096 145.245
62.253 21404 146.301
62.3702 21534 146.745
62.4875 21634 147.085
62.6049 22277 149.255
62.7222 21946 148.142
62.8396 23084 151.934
62.9569 23898 154.59
63.0743 24464 156.41
63.1918 25009 158.142
63.3092 24902 157.804
63.4267 24838 157.601
63.5441 24489 156.49
63.6616 24020 154.984
63.7791 23280 152.578
63.8966 22470 149.9
64.0142 21271 145.846
64.1317 20316 142.534
64.2492 19115 138.257
64.3668 18367 135.525
64.4843 17962 134.022
64.6019 17607 132.691
64.7195 17386 131.856
64.837 17702 133.049
64.9546 18512 136.059
65.0722 18843 137.27
65.1898 18647 136.554
65.3074 19234 138.687
65.4249 18934 137.601
65.5425 19687 140.31
65.6601 19841 140.858
65.7777 20129 141.877
65.8952 20620 143.597
66.0128 20518 143.241
66.1304 20572 143.429
66.2479 21010 144.948
66.3655 21715 147.36
66.483 22900 151.327
66.6005 23874 154.512
66.718 24182 155.506
66.8355 24335 155.997
66.953 24172 155.473
67.0705 23948 154.751
67.1879 23818 154.331
67.3054 23182 152.256
67.4228 22196 148.983
67.5402 20519 143.245
67.6576 18899 137.474
67.7749 17792 133.387
67.8923 18044 134.328
68.0096 17500 132.288
68.1269 17386 131.856
68.2442 17420 131.985
68.3614 17343 131.693
68.4787 17643 132.827
68.5958 18459 135.864
68.713 19401 139.287
68.8302 19308 138.953
68.9473 19052 138.029
69.0643 19131 138.315
69.1814 19629 140.104
69.2984 20148 141.944
69.4154 20634 143.645
69.5323 20824 144.305
69.6492 21156 145.451
69.7661 22317 149.389
69.8829 23002 151.664
69.9997 23963 154.8
70.1165 24405 156.221
70.2332 25113 158.471
70.3499 25477 159.615
70.4665 25802 160.63
70.5831 25764 160.512
70.6996 25634 160.106
70.8161 24983 158.06
70.9326 23601 153.626
71.049 21687 147.265
71.1653 20020 141.492
71.2817 19045 138.004
71.3979 18193 134.881
71.5141 17573 132.563
71.6303 16976 130.292
71.7464 16305 127.691
71.8624 0 1
71.9784 0 1
72.0944 0 1
72.2102 0 1
72.3261 0 1
72.4418 0 1
72.5575 0 1
72.6732 0 1
75.1054 0 1
75.2209 0 1
75.3365 0 1
75.4521 0 1
75.5678 0 1
75.6835 0 1
75.7993 0 1
75.9151 0 1
76.031 0 1
76.147 21848 147.811
76.263 22299 149.328
76.3791 20943 144.717
76.4952 19686 140.307
76.6113 19068 138.087
76.7276 19025 137.931
76.8438 18774 137.018
76.9601 18638 136.521
77.0765 18541 136.165
77.1929 18410 135.683
77.3093 18262 135.137
77.4258 18490 135.978
77.5423 19942 141.216
77.6589 20257 142.327
77.7755 19654 140.193
77.8921 19436 139.413
78.0088 19636 140.129
78.1256 19910 141.103
78.2423 20653 143.712
78.3591 20715 143.927
78.4759 21239 145.736
78.5928 22199 148.993
78.7097 22793 150.974
78.8266 23102 151.993
78.9436 24602 156.85
79.0606 24205 155.58
79.1776 24860 157.671
79.2946 25297 159.05
79.4117 25878 160.866
79.5288 25836 160.736
79.6459 24909 157.826
79.7631 24243 155.702
79.8802 23013 151.7
79.9974 21594 146.949
80.1147 20416 142.885
80.2319 19410 139.32
80.3491 19269 138.813
80.4664 18713 136.795
80.5837 18429 135.753
80.701 18440 135.794
80.8183 18390 135.61
80.9357 18353 135.473
81.053 18452 135.838
81.1704 19777 140.631
81.2877 20166 142.007
81.4051 19882 141.004
81.5225 19603 140.011
81.6399 19180 138.492
81.7573 19750 140.535
81.8747 20010 141.457
81.9922 20617 143.586
82.1096 21279 145.873
82.227 22673 150.576
82.3444 23350 152.807
82.4619 24995 158.098
82.5793 25110 158.461
82.6967 24690 157.131
82.8142 25220 158.808
82.9316 26094 161.536
83.049 26392 162.456
83.1664 25678 160.244
83.2838 24648 156.997
83.4012 23711 153.984
83.5186 22111 148.698
83.636 20795 144.205
83.7534 20105 141.792
83.8708 19592 139.971
83.9881 19368 139.169
84.1055 19097 138.192
84.2228 19435 139.409
84.3401 19268 138.809
84.4575 18958 137.688
84.5747 19120 138.275
84.692 20022 141.499
84.8093 21162 145.472
84.9265 21257 145.798
85.0437 20889 144.53
85.1609 20488 143.136
85.2781 20541 143.321
85.3952 20562 143.395
85.5123 21550 146.799
85.6294 22320 149.399
85.7465 23444 153.114
85.8636 24741 157.293
85.9806 25457 159.552
86.0976 25979 161.18
86.2145 26292 162.148
86.3315 26783 163.655
86.4484 27511 165.864
86.5652 28439 168.639
86.682 28453 168.68
86.7988 28152 167.786
86.9156 26415 162.527
87.0323 25133 158.534
87.149 23290 152.611
87.2657 22563 150.21
87.3823 21871 147.888
87.4988 21761 147.516
87.6154 20902 144.575
87.7318 21036 145.038
87.8483 20807 144.246
87.9647 20755 144.066
88.081 20660 143.736
88.1973 21368 146.178
88.3136 22144 148.809
88.4298 22614 150.38
88.546 21890 147.953
88.6621 21147 145.42
88.7781 20707 143.899
88.8942 0 1
89.0101 0 1
89.126 0 1
89.2419 0 1
89.3577 0 1
89.4734 0 1
89.5891 0 1
89.7047 0 1
89.8203 0 1
89.9358 0 1
92.3269 0 1
92.4424 0 1
92.558 0 1
92.6736 0 1
92.7893 0 1
92.905 0 1
93.0208 0 1
93.1366 0 1
93.2525 0 1
93.3685 0 1
93.4845 0 1
93.6005 20610 143.562
93.7167 20713 143.92
93.8328 20846 144.381
93.949 20366 142.709
94.0653 20358 142.681
94.1816 20530 143.283
94.2979 20973 144.821
94.4143 21671 147.211
94.5307 22605 150.35
94.6472 23155 152.168
94.7637 24533 156.63
94.8803 25214 158.789
94.9969 26135 161.663
95.1135 26083 161.502
95.2302 25989 161.211
95.3469 26278 162.105
95.4637 26333 162.274
95.5805 26699 163.398
95.6973 26750 163.554
95.8142 26120 161.617
95.9311 24790 157.448
96.048 23986 154.874
96.1649 23437 153.091
96.2819 22382 149.606
96.3989 21798 147.641
96.516 21374 146.198
96.633 20528 143.276
96.7501 20297 142.468
96.8673 20271 142.376
96.9844 20229 142.229
97.1016 20284 142.422
97.2188 20489 143.14
97.336 21178 145.527
97.4532 21020 144.983
97.5704 20673 143.781
97.6877 19881 141
97.805 19671 140.253
97.9223 20189 142.088
98.0396 20507 143.203
98.1569 21067 145.145
98.2743 21558 146.826
98.3916 22520 150.067
98.509 23510 153.33
98.6264 24198 155.557
98.7438 24751 157.325
98.8612 25156 158.606
98.9786 25044 158.253
99.096 25362 159.255
99.2134 26132 161.654
99.3308 26074 161.474
99.4482 25897 160.925
99.5656 24956 157.975
99.6831 23589 153.587
99.8005 22510 150.033
99.9179 22055 148.509
100.035 20598 143.52
100.153 20316 142.534
100.27 19965 141.298
100.388 19557 139.846
100.505 19446 139.449
100.622 19355 139.122
100.74 19479 139.567
100.857 19912 141.11
100.975 20399 142.825
101.092 20077 141.693
101.209 19828 140.812
101.327 19455 139.481
101.444 19692 140.328
101.561 19784 140.656
101.679 20678 143.798
101.796 21261 145.812
101.913 22302 149.339
102.03 23280 152.578
102.148 25078 158.36
102.265 24120 155.306
102.382 28102 167.637
102.499 25745 160.452
102.616 25866 160.829
102.733 26819 163.765
102.851 27355 165.393
102.968 27731 166.526
103.085 26693 163.38
103.202 25483 159.634
103.319 25030 158.209
103.436 23308 152.67
103.552 22895 151.311
103.669 22291 149.302
103.786 22000 148.324
103.903 21549 146.796
104.02 21277 145.866
104.137 21055 145.103
104.253 21079 145.186
104.37 21658 147.167
104.487 22117 148.718
104.603 21577 146.891
104.72 21035 145.034
104.836 20897 144.558
104.953 20967 144.8
105.069 21414 146.335
105.186 22279 149.262
105.302 23087 151.944
105.418 24600 156.844
105.535 26341 162.299
105.651 27080 164.56
105.767 26738 163.518
105.883 26200 161.864
105.999 26004 161.258
106.115 0 1
106.231 0 1
106.347 0 1
106.463 0 1
106.579 0 1
106.694 0 1
106.81 0 1
106.926 0 1
107.041 0 1
107.157 0 1
109.576 0 1
109.692 0 1
109.807 0 1
109.923 0 1
110.039 0 1
110.155 0 1
110.27 0 1
110.386 0 1
110.502 0 1
110.618 22058 148.519
110.735 23352 152.814
110.851 23720 154.013
110.967 23190 152.283
111.083 22562 150.207
111.199 23425 153.052
111.316 24173 155.477
111.432 24564 156.729
111.549 24760 157.353
111.665 23921 154.664
111.782 22833 151.106
111.898 22086 148.614
112.015 21240 145.739
112.132 20735 143.997
112.248 20195 142.109
112.365 19257 138.77
112.482 19067 138.083
112.599 18015 134.22
112.716 17800 133.417
112.832 17781 133.345
112.949 17315 131.586
113.066 16923 130.088
113.183 16514 128.507
113.3 16163 127.134
113.417 16224 127.373
113.534 16705 129.248
113.652 17009 130.419
113.769 17569 132.548
113.886 18205 134.926
114.003 18764 136.982
114.12 19260 138.78
114.238 19530 139.75
114.355 19697 140.346
114.472 19165 138.438
114.589 18007 134.19
114.707 18398 135.639
114.824 19582 139.936
114.942 20270 142.373
115.059 20126 141.866
115.176 19464 139.513
115.294 18467 135.893
115.411 18077 134.451
115.529 17312 131.575
115.646 16739 129.379
115.764 16330 127.789
115.881 15734 125.435
115.999 15115 122.943
116.116 14805 121.676
116.234 14141 118.916
116.351 13803 117.486
116.469 13431 115.892
116.586 13385 115.694
116.704 13081 114.372
116.821 12735 112.849
116.939 12785 113.071
117.056 13455 115.996
117.174 13594 116.593
117.291 14274 119.474
117.409 14741 121.413
117.526 14633 120.967
117.644 15287 123.641
117.761 15659 125.136
117.879 15914 126.151
117.996 15727 125.407
118.114 15068 122.752
118.231 14609 120.868
118.349 15296 123.677
118.466 16595 128.822
118.584 17194 131.126
118.701 17050 130.576
118.819 16782 129.545
118.936 16727 129.333
119.053 16176 127.185
119.171 16178 127.193
119.288 15844 125.873
119.405 15572 124.788
119.523 15259 123.527
119.64 14771 121.536
119.757 14548 120.615
119.875 14275 119.478
119.992 13933 118.038
120.109 13470 116.06
120.226 13597 116.606
120.343 13526 116.301
120.46 13675 116.94
120.578 14297 119.57
120.695 14741 121.413
120.812 15287 123.641
120.929 15567 124.768
121.046 16276 127.577
121.163 16461 128.3
121.279 17088 130.721
121.396 17200 131.149
121.513 17682 132.974
121.63 17296 131.514
121.747 16582 128.771
121.863 15164 123.142
121.98 16211 127.322
122.097 17655 132.872
122.213 19267 138.806
122.33 19837 140.844
122.446 19534 139.764
122.563 19528 139.743
122.679 19298 138.917
122.795 18808 137.142
122.912 19110 138.239
123.028 18783 137.051
123.144 18163 134.77
123.26 17713 133.09
123.377 0 1
123.493 0 1
123.609 0 1
123.725 0 1
123.84 0 1
123.956 0 1
124.072 0 1
124.188 0 1
124.303 0 1
124.419 0 1
126.852 0 1
126.968 0 1
127.083 0 1
127.199 0 1
127.315 0 1
127.431 0 1
127.547 0 1
127.663 0 1
127.779 0 1
127.895 0 1
128.011 0 1
128.127 0 1
128.243 0 1
128.359 21693 147.285
128.476 21353 146.127
128.592 20833 144.336
128.708 20065 141.651
128.825 19611 140.039
128.941 19408 139.313
129.058 18870 137.368
129.174 18198 134.9
129.291 18268 135.159
129.408 18260 135.13
129.524 18239 135.052
129.641 18328 135.381
129.758 18335 135.407
129.875 18494 135.993
129.992 18766 136.989
130.108 18801 137.117
130.225 18675 136.657
130.342 19151 138.387
130.459 19311 138.964
130.576 18808 137.142
130.693 16760 129.46
130.81 14352 119.8
130.928 14472 120.3
131.045 17430 132.023
131.162 18889 137.437
131.279 19405 139.302
131.396 19476 139.556
131.513 19500 139.642
131.631 19479 139.567
131.748 19205 138.582
131.865 18879 137.401
131.983 18815 137.168
132.1 18329 135.385
132.217 18255 135.111
132.335 17685 132.985
132.452 17104 130.782
132.57 16674 129.128
132.687 15920 126.174
132.804 16859 129.842
132.922 16287 127.621
133.039 15803 125.71
133.157 15820 125.778
133.274 15814 125.754
133.392 16139 127.039
133.509 15916 126.159
133.627 16120 126.965
133.744 16076 126.791
133.862 16046 126.673
133.979 16026 126.594
134.097 15642 125.068
134.214 13900 117.898
134.332 11569 107.559
134.449 11451 107.009
134.567 13859 117.724
134.684 15401 124.101
134.802 15648 125.092
134.919 15404 124.113
135.037 15622 124.988
135.154 15279 123.608
135.272 15144 123.061
135.389 15455 124.318
135.507 15185 123.227
135.624 14695 121.223
135.742 14802 121.663
135.859 14444 120.183
135.977 13974 118.212
136.094 13738 117.209
136.211 13370 115.629
136.329 13104 114.473
136.446 12956 113.824
136.564 12834 113.287
136.681 12689 112.645
136.798 12577 112.147
136.915 12685 112.628
137.033 12673 112.574
137.15 12697 112.681
137.267 12512 111.857
137.384 12608 112.285
137.502 12850 113.358
137.619 12586 112.187
137.736 12112 110.055
137.853 10380 101.882
137.97 9511 97.5244
138.087 10296 101.469
138.204 11741 108.356
138.321 13030 114.149
138.438 13245 115.087
138.555 13605 116.64
138.672 13762 117.312
138.788 13809 117.512
138.905 13918 117.975
139.022 14100 118.743
139.139 13976 118.22
139.255 14199 119.16
139.372 14017 118.393
139.488 14400 120
139.605 14120 118.828
139.721 13981 118.241
139.838 14319 119.662
139.954 14225 119.269
140.071 13749 117.256
140.187 14205 119.185
140.303 14051 118.537
140.419 13754 117.277
140.535 13845 117.665
140.652 13788 117.422
140.768 0 1
140.884 0 1
141 0 1
141.115 0 1
141.231 0 1
141.347 0 1
141.463 0 1
141.578 0 1
141.694 0 1
144.104 0 1
144.219 0 1
144.335 0 1
144.45 0 1
144.566 0 1
144.682 0 1
144.798 0 1
144.914 0 1
145.03 0 1
145.146 11659 107.977
145.262 11673 108.042
145.378 11457 107.037
145.494 11319 106.391
145.61 10979 104.781
145.726 10808 103.962
145.842 10756 103.711
145.959 10720 103.537
146.075 10751 103.687
146.192 11004 104.9
146.308 10454 102.245
146.425 10238 101.183
146.541 9331 96.5971
146.658 8975 94.7365
146.774 9057 95.1683
146.891 9454 97.2317
147.008 9619 98.0765
147.125 9939 99.6945
147.241 9992 99.96
147.358 10103 100.514
147.475 9766 98.8231
147.592 9912 99.559
147.709 9713 98.5546
147.826 9237 96.1093
147.943 9314 96.5091
148.06 9073 95.2523
148.177 9014 94.9421
148.294 9167 95.7445
148.411 8889 94.2815
148.528 8866 94.1594
148.645 8616 92.8224
148.762 8454 91.9456
148.88 8121 90.1166
148.997 8531 92.3634
149.114 7515 86.6891
149.231 7941 89.1123
149.349 7803 88.3346
149.466 8100 90
149.583 7934 89.073
149.701 7745 88.0057
149.818 7821 88.4364
149.935 7629 87.3441
150.053 7779 88.1986
150.17 7652 87.4757
150.287 7712 87.818
150.405 7686 87.6698
150.522 8128 90.1554
150.64 8109 90.05
150.757 8248 90.8185
150.875 8203 90.5704
150.992 8422 91.7715
151.11 8780 93.7017
151.227 8452 91.9348
151.344 8495 92.1683
151.462 8509 92.2442
151.579 8307 91.1427
151.697 8289 91.0439
151.814 8439 91.864
151.932 8492 92.152
152.049 8525 92.3309
152.167 8525 92.3309
152.284 8438 91.8586
152.402 8158 90.3216
152.519 8180 90.4434
152.636 8053 89.7385
152.754 8146 90.2552
152.871 8358 91.4221
152.989 8598 92.7254
153.106 8549 92.4608
153.223 8497 92.1792
153.341 8333 91.2853
153.458 8247 90.813
153.575 8284 91.0165
153.693 8397 91.6351
153.81 8616 92.8224
153.927 9167 95.7445
154.044 9367 96.7833
154.162 9880 99.3982
154.279 10187 100.931
154.396 10577 102.845
154.513 10693 103.407
154.63 10843 104.13
154.747 11054 105.138
154.864 11004 104.9
154.981 10884 104.326
155.098 10984 104.805
155.215 10879 104.302
155.332 11173 105.702
155.449 10882 104.317
155.566 10644 103.17
155.683 10531 102.621
155.8 10319 101.582
155.917 10266 101.321
156.033 9969 99.8449
156.15 0 1
156.267 0 1
156.383 0 1
156.5 0 1
156.617 0 1
156.733 0 1
156.85 0 1
156.966 0 1
157.082 0 1
157.199 0 1
157.315 0 1
157.431 0 1
157.547 0 1
157.664 0 1
157.78 0 1
157.896 0 1
158.012 0 1
158.128 0 1
158.244 0 1
158.359 0 1
158.475 0 1
158.591 0 1
158.706 0 1
