
6.15755 0 1
6.2731 0 1
6.3887 0 1
6.50437 0 1
6.62009 0 1
6.73587 0 1
6.8517 0 1
6.96759 0 1
7.08353 0 1
7.19952 0 1
7.31557 0 1
7.43166 0 1
7.54781 0 1
7.664 0 1
7.78024 0 1
7.89653 0 1
8.01286 0 1
8.12924 0 1
8.24567 0 1
8.36213 0 1
8.47864 0 1
8.59519 0 1
8.71178 0 1
8.82841 0 1
8.94508 0 1
9.06179 0 1
9.17853 0 1
9.29531 0 1
9.41212 0 1
9.52897 0 1
9.64584 0 1
9.76276 0 1
9.8797 0 1
9.99667 0 1
10.1137 0 1
10.2307 0 1
10.3478 0 1
10.4648 0 1
10.5819 0 1
10.6991 0 1
10.8162 0 1
10.9334 0 1
11.0506 0 1
11.1678 0 1
11.285 0 1
11.4023 0 1
11.5196 0 1
11.6369 0 1
11.7542 0 1
11.8715 0 1
11.9888 0 1
12.1062 0 1
12.2235 0 1
12.3409 0 1
12.4582 0 1
12.5756 0 1
12.693 0 1
12.8104 0 1
12.9278 0 1
13.0452 0 1
13.1626 0 1
13.28 0 1
13.3974 0 1
13.5149 0 1
13.6323 0 1
13.7497 0 1
13.8671 0 1
13.9845 0 1
14.1019 0 1
14.2193 0 1
14.3367 0 1
14.4541 0 1
14.5714 0 1
14.6888 0 1
14.8062 0 1
14.9235 0 1
15.0408 805 28.3725
15.1581 860 29.3258
15.2755 844 29.0517
15.3927 922 30.3645
15.51 894 29.8998
15.6273 845 29.0689
15.7445 899 29.9833
15.8617 881 29.6816
15.9789 859 29.3087
16.0961 810 28.4605
16.2132 780 27.9285
16.3304 771 27.7669
16.4475 836 28.9137
16.5646 830 28.8097
16.6816 773 27.8029
16.7986 769 27.7308
16.9156 772 27.7849
17.0326 778 27.8927
17.1496 751 27.4044
17.2665 781 27.9464
17.3833 838 28.9482
17.5002 823 28.688
17.617 791 28.1247
17.7338 850 29.1548
17.8505 859 29.3087
17.9672 854 29.2233
18.0839 842 29.0172
18.2005 743 27.258
18.3171 749 27.3679
18.4337 783 27.9821
18.5502 773 27.8029
18.6666 801 28.3019
18.7831 843 29.0345
18.8994 848 29.1204
19.0158 796 28.2135
19.1321 804 28.3549
19.2483 812 28.4956
19.3645 747 27.3313
19.4806 665 25.7876
19.5967 608 24.6577
19.7128 562 23.7065
19.8288 520 22.8035
19.9447 451 21.2368
20.0606 0 1
20.1764 0 1
20.2922 0 1
20.4079 0 1
20.5236 0 1
20.6392 0 1
20.7548 0 1
20.8702 0 1
23.3078 0 1
23.4233 0 1
23.539 0 1
23.6547 0 1
23.7704 0 1
23.8862 0 1
24.0021 0 1
24.118 0 1
24.234 0 1
24.35 0 1
24.4661 351 18.735
24.5822 379 19.4679
24.6984 408 20.199
24.8146 511 22.6053
24.9309 565 23.7697
25.0472 650 25.4951
25.1636 710 26.6458
25.28 727 26.9629
25.3965 793 28.1603
25.513 803 28.3373
25.6296 825 28.7228
25.7462 877 29.6142
25.8628 886 29.7658
25.9795 857 29.2746
26.0962 843 29.0345
26.213 816 28.5657
26.3298 889 29.8161
26.4466 781 27.9464
26.5635 781 27.9464
26.6804 724 26.9072
26.7973 638 25.2587
26.9143 637 25.2389
27.0313 629 25.0799
27.1483 669 25.865
27.2653 737 27.1477
27.3824 776 27.8568
27.4996 800 28.2843
27.6167 771 27.7669
27.7339 723 26.8887
27.8511 792 28.1425
27.9683 784 28
28.0855 792 28.1425
28.2028 725 26.9258
28.3201 730 27.0185
28.4374 696 26.3818
28.5547 683 26.1343
28.6721 783 27.9821
28.7894 711 26.6646
28.9068 821 28.6531
29.0242 754 27.4591
29.1416 731 27.037
29.259 807 28.4077
29.3764 762 27.6043
29.4939 729 27
29.6113 789 28.0891
29.7288 733 27.074
29.8463 726 26.9444
29.9638 688 26.2298
30.0812 700 26.4575
30.1987 680 26.0768
30.3162 699 26.4386
30.4337 624 24.98
30.5512 658 25.6515
30.6687 658 25.6515
30.7862 680 26.0768
30.9037 735 27.1109
31.0212 779 27.9106
31.1387 820 28.6356
31.2562 783 27.9821
31.3737 749 27.3679
31.4912 786 28.0357
31.6087 761 27.5862
31.7262 669 25.865
31.8436 760 27.5681
31.9611 677 26.0192
32.0785 626 25.02
32.1959 627 25.04
32.3134 722 26.8701
32.4308 691 26.2869
32.5482 666 25.807
32.6655 700 26.4575
32.7829 683 26.1343
32.9002 676 26
33.0176 680 26.0768
33.1349 611 24.7184
33.2522 710 26.6458
33.3694 642 25.3377
33.4867 668 25.8457
33.6039 672 25.923
33.7211 698 26.4197
33.8383 615 24.7992
33.9554 644 25.3772
34.0725 644 25.3772
34.1896 593 24.3516
34.3067 597 24.4336
34.4237 640 25.2982
34.5407 688 26.2298
34.6577 717 26.7769
34.7746 658 25.6515
34.8915 655 25.593
35.0084 654 25.5734
35.1252 693 26.3249
35.242 643 25.3574
35.3587 618 24.8596
35.4755 617 24.8395
35.5921 563 23.7276
35.7088 593 24.3516
35.8254 618 24.8596
35.9419 617 24.8395
36.0584 656 25.6125
36.1749 657 25.632
36.2913 635 25.1992
36.4077 600 24.4949
36.524 562 23.7065
36.6403 501 22.383
36.7565 517 22.7376
36.8727 504 22.4499
36.9889 462 21.4942
37.1049 441 21
37.221 0 1
37.3369 0 1
37.4529 0 1
37.5687 0 1
37.6845 0 1
37.8003 0 1
37.916 0 1
38.0316 0 1
38.1472 0 1
40.5851 0 1
40.7008 0 1
40.8164 0 1
40.9322 0 1
41.048 0 1
41.1639 0 1
41.2798 0 1
41.3958 0 1
41.5118 0 1
41.6279 0 1
41.744 280 16.7332
41.8602 315 17.7482
41.9765 406 20.1494
42.0928 388 19.6977
42.2091 452 21.2603
42.3255 457 21.3776
42.4419 482 21.9545
42.5584 479 21.8861
42.675 486 22.0454
42.7915 429 20.7123
42.9081 452 21.2603
43.0248 478 21.8632
43.1415 483 21.9773
43.2582 456 21.3542
43.375 495 22.2486
43.4918 530 23.0217
43.6087 495 22.2486
43.7256 509 22.561
43.8425 479 21.8861
43.9595 487 22.0681
44.0765 480 21.9089
44.1935 448 21.166
44.3106 433 20.8087
44.4277 463 21.5174
44.5448 399 19.975
44.6619 448 21.166
44.7791 492 22.1811
44.8963 497 22.2935
45.0136 489 22.1133
45.1308 552 23.4947
45.2481 512 22.6274
45.3654 529 23
45.4827 585 24.1868
45.6001 526 22.9347
45.7174 558 23.622
45.8348 530 23.0217
45.9522 493 22.2036
46.0697 526 22.9347
46.1871 477 21.8403
46.3046 464 21.5407
46.422 426 20.6398
46.5395 448 21.166
46.657 476 21.8174
46.7745 429 20.7123
46.892 501 22.383
47.0096 511 22.6053
47.1271 504 22.4499
47.2446 507 22.5167
47.3622 506 22.4944
47.4797 498 22.3159
47.5973 447 21.1424
47.7149 425 20.6155
47.8324 455 21.3307
47.95 437 20.9045
48.0675 435 20.8567
48.1851 485 22.0227
48.3027 466 21.587
48.4202 489 22.1133
48.5378 492 22.1811
48.6554 454 21.3073
48.7729 469 21.6564
48.8904 510 22.5832
49.008 481 21.9317
49.1255 526 22.9347
49.243 519 22.7816
49.3605 497 22.2935
49.478 461 21.4709
49.5955 410 20.2485
49.713 413 20.3224
49.8304 405 20.1246
49.9479 414 20.347
50.0653 421 20.5183
50.1827 405 20.1246
50.3001 460 21.4476
50.4175 450 21.2132
50.5348 460 21.4476
50.6521 528 22.9783
50.7694 434 20.8327
50.8867 456 21.3542
51.004 462 21.4942
51.1212 434 20.8327
51.2384 428 20.6882
51.3556 476 21.8174
51.4727 459 21.4243
51.5899 433 20.8087
51.707 455 21.3307
51.824 519 22.7816
51.9411 472 21.7256
52.0581 454 21.3073
52.175 503 22.4277
52.2919 461 21.4709
52.4088 461 21.4709
52.5257 467 21.6102
52.6425 444 21.0713
52.7593 469 21.6564
52.876 472 21.7256
52.9927 453 21.2838
53.1094 447 21.1424
53.226 404 20.0998
53.3426 444 21.0713
53.4591 367 19.1572
53.5756 367 19.1572
53.692 367 19.1572
53.8084 402 20.0499
53.9248 348 18.6548
54.0411 354 18.8149
54.1573 326 18.0555
54.2735 0 1
54.3896 0 1
54.5057 0 1
54.6217 0 1
54.7377 0 1
54.8537 0 1
54.9695 0 1
55.0853 0 1
55.2011 0 1
55.3168 0 1
55.4324 0 1
57.824 0 1
57.9396 0 1
58.0553 0 1
58.1711 0 1
58.2869 0 1
58.4028 0 1
58.5187 0 1
58.6347 0 1
58.7508 0 1
58.8669 0 1
58.983 459 21.4243
59.0992 645 25.3969
59.2155 734 27.0924
59.3318 776 27.8568
59.4482 835 28.8964
59.5646 931 30.5123
59.681 886 29.7658
59.7975 920 30.3315
59.9141 861 29.3428
60.0306 944 30.7246
60.1473 926 30.4302
60.2639 879 29.6479
60.3807 935 30.5778
60.4974 933 30.545
60.6142 942 30.692
60.731 958 30.9516
60.8479 913 30.2159
60.9648 868 29.4618
61.0818 827 28.7576
61.1987 857 29.2746
61.3158 791 28.1247
61.4328 789 28.0891
61.5499 785 28.0179
61.667 819 28.6182
61.7841 740 27.2029
61.9013 653 25.5539
62.0185 629 25.0799
62.1357 617 24.8395
62.253 646 25.4165
62.3702 642 25.3377
62.4875 668 25.8457
62.6049 662 25.7294
62.7222 633 25.1595
62.8396 668 25.8457
62.9569 676 26
63.0743 621 24.9199
63.1918 613 24.7588
63.3092 589 24.2693
63.4267 566 23.7908
63.5441 580 24.0832
63.6616 581 24.1039
63.7791 552 23.4947
63.8966 559 23.6432
64.0142 559 23.6432
64.1317 576 24
64.2492 566 23.7908
64.3668 519 22.7816
64.4843 526 22.9347
64.6019 576 24
64.7195 567 23.8118
64.837 535 23.1301
64.9546 556 23.5797
65.0722 545 23.3452
65.1898 517 22.7376
65.3074 492 22.1811
65.4249 516 22.7156
65.5425 485 22.0227
65.6601 482 21.9545
65.7777 500 22.3607
65.8952 462 21.4942
66.0128 472 21.7256
66.1304 523 22.8692
66.2479 513 22.6495
66.3655 554 23.5372
66.483 481 21.9317
66.6005 498 22.3159
66.718 506 22.4944
66.8355 524 22.891
66.953 528 22.9783
67.0705 499 22.3383
67.1879 507 22.5167
67.3054 534 23.1084
67.4228 530 23.0217
67.5402 492 22.1811
67.6576 532 23.0651
67.7749 489 22.1133
67.8923 530 23.0217
68.0096 522 22.8473
68.1269 542 23.2809
68.2442 480 21.9089
68.3614 498 22.3159
68.4787 510 22.5832
68.5958 519 22.7816
68.713 527 22.9565
68.8302 513 22.6495
68.9473 492 22.1811
69.0643 468 21.6333
69.1814 477 21.8403
69.2984 495 22.2486
69.4154 442 21.0238
69.5323 441 21
69.6492 504 22.4499
69.7661 529 23
69.8829 505 22.4722
69.9997 566 23.7908
70.1165 518 22.7596
70.2332 525 22.9129
70.3499 451 21.2368
70.4665 438 20.9284
70.5831 395 19.8746
70.6996 388 19.6977
70.8161 351 18.735
70.9326 357 18.8944
71.049 341 18.4662
71.1653 308 17.5499
71.2817 292 17.088
71.3979 271 16.4621
71.5141 255 15.9687
71.6303 212 14.5602
71.7464 207 14.3875
71.8624 0 1
71.9784 0 1
72.0944 0 1
72.2102 0 1
72.3261 0 1
72.4418 0 1
72.5575 0 1
72.6732 0 1
75.1054 0 1
75.2209 0 1
75.3365 0 1
75.4521 0 1
75.5678 0 1
75.6835 0 1
75.7993 0 1
75.9151 0 1
76.031 0 1
76.147 288 16.9706
76.263 353 18.7883
76.3791 373 19.3132
76.4952 457 21.3776
76.6113 467 21.6102
76.7276 439 20.9523
76.8438 490 22.1359
76.9601 465 21.5639
77.0765 480 21.9089
77.1929 431 20.7605
77.3093 439 20.9523
77.4258 462 21.4942
77.5423 427 20.664
77.6589 469 21.6564
77.7755 481 21.9317
77.8921 450 21.2132
78.0088 436 20.8806
78.1256 449 21.1896
78.2423 424 20.5913
78.3591 399 19.975
78.4759 414 20.347
78.5928 372 19.2873
78.7097 411 20.2731
78.8266 470 21.6795
78.9436 486 22.0454
79.0606 485 22.0227
79.1776 466 21.587
79.2946 451 21.2368
79.4117 454 21.3073
79.5288 482 21.9545
79.6459 407 20.1742
79.7631 421 20.5183
79.8802 445 21.095
79.9974 463 21.5174
80.1147 507 22.5167
80.2319 472 21.7256
80.3491 470 21.6795
80.4664 492 22.1811
80.5837 487 22.0681
80.701 525 22.9129
80.8183 453 21.2838
80.9357 481 21.9317
81.053 450 21.2132
81.1704 476 21.8174
81.2877 513 22.6495
81.4051 483 21.9773
81.5225 475 21.7945
81.6399 461 21.4709
81.7573 498 22.3159
81.8747 461 21.4709
81.9922 439 20.9523
82.1096 463 21.5174
82.227 422 20.5426
82.3444 447 21.1424
82.4619 488 22.0907
82.5793 462 21.4942
82.6967 469 21.6564
82.8142 477 21.8403
82.9316 449 21.1896
83.049 513 22.6495
83.1664 484 22
83.2838 468 21.6333
83.4012 477 21.8403
83.5186 460 21.4476
83.636 474 21.7715
83.7534 509 22.561
83.8708 481 21.9317
83.9881 462 21.4942
84.1055 545 23.3452
84.2228 515 22.6936
84.3401 578 24.0416
84.4575 469 21.6564
84.5747 449 21.1896
84.692 473 21.7486
84.8093 493 22.2036
84.9265 488 22.0907
85.0437 504 22.4499
85.1609 483 21.9773
85.2781 495 22.2486
85.3952 508 22.5389
85.5123 488 22.0907
85.6294 464 21.5407
85.7465 488 22.0907
85.8636 458 21.4009
85.9806 467 21.6102
86.0976 487 22.0681
86.2145 462 21.4942
86.3315 526 22.9347
86.4484 487 22.0681
86.5652 530 23.0217
86.682 512 22.6274
86.7988 466 21.587
86.9156 498 22.3159
87.0323 504 22.4499
87.149 497 22.2935
87.2657 521 22.8254
87.3823 530 23.0217
87.4988 535 23.1301
87.6154 512 22.6274
87.7318 460 21.4476
87.8483 485 22.0227
87.9647 411 20.2731
88.081 359 18.9473
88.1973 359 18.9473
88.3136 340 18.4391
88.4298 328 18.1108
88.546 308 17.5499
88.6621 307 17.5214
88.7781 241 15.5242
88.8942 0 1
89.0101 0 1
89.126 0 1
89.2419 0 1
89.3577 0 1
89.4734 0 1
89.5891 0 1
89.7047 0 1
89.8203 0 1
89.9358 0 1
92.3269 0 1
92.4424 0 1
92.558 0 1
92.6736 0 1
92.7893 0 1
92.905 0 1
93.0208 0 1
93.1366 0 1
93.2525 0 1
93.3685 0 1
93.4845 0 1
93.6005 389 19.7231
93.7167 440 20.9762
93.8328 492 22.1811
93.949 470 21.6795
94.0653 509 22.561
94.1816 487 22.0681
94.2979 510 22.5832
94.4143 532 23.0651
94.5307 534 23.1084
94.6472 492 22.1811
94.7637 438 20.9284
94.8803 452 21.2603
94.9969 471 21.7025
95.1135 527 22.9565
95.2302 502 22.4054
95.3469 471 21.7025
95.4637 568 23.8328
95.5805 500 22.3607
95.6973 518 22.7596
95.8142 523 22.8692
95.9311 520 22.8035
96.048 491 22.1585
96.1649 474 21.7715
96.2819 545 23.3452
96.3989 530 23.0217
96.516 570 23.8747
96.633 557 23.6008
96.7501 571 23.8956
96.8673 542 23.2809
96.9844 522 22.8473
97.1016 561 23.6854
97.2188 540 23.2379
97.336 534 23.1084
97.4532 539 23.2164
97.5704 516 22.7156
97.6877 487 22.0681
97.805 546 23.3666
97.9223 522 22.8473
98.0396 512 22.6274
98.1569 510 22.5832
98.2743 521 22.8254
98.3916 500 22.3607
98.509 505 22.4722
98.6264 515 22.6936
98.7438 490 22.1359
98.8612 495 22.2486
98.9786 476 21.8174
99.096 524 22.891
99.2134 571 23.8956
99.3308 566 23.7908
99.4482 569 23.8537
99.5656 613 24.7588
99.6831 548 23.4094
99.8005 545 23.3452
99.9179 557 23.6008
100.035 511 22.6053
100.153 565 23.7697
100.27 565 23.7697
100.388 553 23.516
100.505 543 23.3024
100.622 539 23.2164
100.74 496 22.2711
100.857 524 22.891
100.975 510 22.5832
101.092 511 22.6053
101.209 544 23.3238
101.327 579 24.0624
101.444 584 24.1661
101.561 582 24.1247
101.679 557 23.6008
101.796 570 23.8747
101.913 501 22.383
102.03 510 22.5832
102.148 555 23.5584
102.265 520 22.8035
102.382 513 22.6495
102.499 533 23.0868
102.616 539 23.2164
102.733 553 23.516
102.851 594 24.3721
102.968 588 24.2487
103.085 578 24.0416
103.202 604 24.5764
103.319 577 24.0208
103.436 584 24.1661
103.552 616 24.8193
103.669 570 23.8747
103.786 581 24.1039
103.903 664 25.7682
104.02 582 24.1247
104.137 577 24.0208
104.253 590 24.2899
104.37 596 24.4131
104.487 611 24.7184
104.603 560 23.6643
104.72 562 23.7065
104.836 543 23.3024
104.953 530 23.0217
105.069 488 22.0907
105.186 474 21.7715
105.302 485 22.0227
105.418 441 21
105.535 399 19.975
105.651 351 18.735
105.767 338 18.3848
105.883 287 16.9411
105.999 285 16.8819
106.115 0 1
106.231 0 1
106.347 0 1
106.463 0 1
106.579 0 1
106.694 0 1
106.81 0 1
106.926 0 1
107.041 0 1
107.157 0 1
109.576 0 1
109.692 0 1
109.807 0 1
109.923 0 1
110.039 0 1
110.155 0 1
110.27 0 1
110.386 0 1
110.502 0 1
110.618 279 16.7033
110.735 318 17.8326
110.851 365 19.105
110.967 408 20.199
111.083 422 20.5426
111.199 462 21.4942
111.316 525 22.9129
111.432 509 22.561
111.549 539 23.2164
111.665 484 22
111.782 537 23.1733
111.898 553 23.516
112.015 499 22.3383
112.132 522 22.8473
112.248 497 22.2935
112.365 524 22.891
112.482 512 22.6274
112.599 517 22.7376
112.716 519 22.7816
112.832 499 22.3383
112.949 548 23.4094
113.066 442 21.0238
113.183 473 21.7486
113.3 458 21.4009
113.417 486 22.0454
113.534 478 21.8632
113.652 537 23.1733
113.769 489 22.1133
113.886 485 22.0227
114.003 450 21.2132
114.12 491 22.1585
114.238 447 21.1424
114.355 408 20.199
114.472 465 21.5639
114.589 452 21.2603
114.707 482 21.9545
114.824 481 21.9317
114.942 486 22.0454
115.059 488 22.0907
115.176 502 22.4054
115.294 485 22.0227
115.411 556 23.5797
115.529 471 21.7025
115.646 481 21.9317
115.764 487 22.0681
115.881 470 21.6795
115.999 464 21.5407
116.116 455 21.3307
116.234 501 22.383
116.351 480 21.9089
116.469 482 21.9545
116.586 424 20.5913
116.704 484 22
116.821 444 21.0713
116.939 423 20.567
117.056 453 21.2838
117.174 486 22.0454
117.291 473 21.7486
117.409 433 20.8087
117.526 412 20.2978
117.644 403 20.0749
117.761 459 21.4243
117.879 396 19.8997
117.996 423 20.567
118.114 423 20.567
118.231 444 21.0713
118.349 425 20.6155
118.466 434 20.8327
118.584 467 21.6102
118.701 416 20.3961
118.819 465 21.5639
118.936 480 21.9089
119.053 422 20.5426
119.171 446 21.1187
119.288 439 20.9523
119.405 413 20.3224
119.523 425 20.6155
119.64 418 20.445
119.757 455 21.3307
119.875 441 21
119.992 443 21.0476
120.109 445 21.095
120.226 433 20.8087
120.343 419 20.4695
120.46 410 20.2485
120.578 445 21.095
120.695 413 20.3224
120.812 385 19.6214
120.929 429 20.7123
121.046 386 19.6469
121.163 435 20.8567
121.279 418 20.445
121.396 361 19
121.513 407 20.1742
121.63 381 19.5192
121.747 374 19.3391
121.863 369 19.2094
121.98 375 19.3649
122.097 333 18.2483
122.213 319 17.8606
122.33 340 18.4391
122.446 342 18.4932
122.563 273 16.5227
122.679 314 17.72
122.795 269 16.4012
122.912 260 16.1245
123.028 247 15.7162
123.144 220 14.8324
123.26 192 13.8564
123.377 0 1
123.493 0 1
123.609 0 1
123.725 0 1
123.84 0 1
123.956 0 1
124.072 0 1
124.188 0 1
124.303 0 1
124.419 0 1
126.852 0 1
126.968 0 1
127.083 0 1
127.199 0 1
127.315 0 1
127.431 0 1
127.547 0 1
127.663 0 1
127.779 0 1
127.895 0 1
128.011 0 1
128.127 0 1
128.243 0 1
128.359 408 20.199
128.476 438 20.9284
128.592 426 20.6398
128.708 462 21.4942
128.825 493 22.2036
128.941 483 21.9773
129.058 476 21.8174
129.174 455 21.3307
129.291 473 21.7486
129.408 457 21.3776
129.524 501 22.383
129.641 532 23.0651
129.758 555 23.5584
129.875 669 25.865
129.992 790 28.1069
130.108 822 28.6705
130.225 867 29.4449
130.342 907 30.1164
130.459 934 30.5614
130.576 998 31.5911
130.693 1091 33.0303
130.81 1327 36.428
130.928 1807 42.5088
131.045 2449 49.4874
131.162 3093 55.6147
131.279 3896 62.4179
131.396 5014 70.8096
131.513 6045 77.7496
131.631 7417 86.122
131.748 8651 93.0108
131.865 10058 100.29
131.983 11446 106.986
132.1 13181 114.809
132.217 14977 122.381
132.335 16801 129.619
132.452 18527 136.114
132.57 20516 143.234
132.687 21787 147.604
132.804 24230 155.66
132.922 25736 160.424
133.039 27330 165.318
133.157 29300 171.172
133.274 31899 178.603
133.392 34358 185.359
133.509 37115 192.653
133.627 38484 196.173
133.744 37847 194.543
133.862 35287 187.848
133.979 29569 171.956
134.097 26565 162.988
134.214 29701 172.34
134.332 38125 195.256
134.449 46381 215.362
134.567 51551 227.048
134.684 54151 232.704
134.802 56095 236.844
134.919 58325 241.506
135.037 60089 245.131
135.154 61063 247.109
135.272 60788 246.552
135.389 60284 245.528
135.507 59571 244.072
135.624 58571 242.014
135.742 56971 238.686
135.859 55576 235.746
135.977 55136 234.811
136.094 54229 232.871
136.211 53397 231.078
136.329 51726 227.434
136.446 50152 223.946
136.564 47969 219.018
136.681 47080 216.979
136.798 44904 211.906
136.915 43166 207.764
137.033 38511 196.242
137.15 33050 181.797
137.267 28990 170.265
137.384 24755 157.337
137.502 21861 147.855
137.619 23359 152.837
137.736 27518 165.886
137.853 29080 170.529
137.97 31824 178.393
138.087 30496 174.631
138.204 29359 171.345
138.321 26461 162.668
138.438 24043 155.058
138.555 24062 155.119
138.672 23055 151.839
138.788 21325 146.031
138.905 18532 136.132
139.022 16543 128.62
139.139 15215 123.349
139.255 13982 118.246
139.372 12796 113.119
139.488 11580 107.61
139.605 10228 101.134
139.721 9432 97.1185
139.838 8689 93.2148
139.954 7768 88.1363
140.071 7089 84.1962
140.187 6711 81.9207
140.303 5867 76.5963
140.419 5597 74.8131
140.535 4968 70.484
140.652 4351 65.9621
140.768 0 1
140.884 0 1
141 0 1
141.115 0 1
141.231 0 1
141.347 0 1
141.463 0 1
141.578 0 1
141.694 0 1
144.104 0 1
144.219 0 1
144.335 0 1
144.45 0 1
144.566 0 1
144.682 0 1
144.798 0 1
144.914 0 1
145.03 0 1
145.146 3699 60.8194
145.262 3891 62.3779
145.378 3782 61.498
145.494 3895 62.4099
145.61 3799 61.636
145.726 3750 61.2372
145.842 3384 58.1722
145.959 3227 56.8067
146.075 3184 56.4269
146.192 3175 56.3471
146.308 3388 58.2065
146.425 3449 58.7282
146.541 3653 60.4401
146.658 3300 57.4456
146.774 2877 53.6377
146.891 2501 50.01
147.008 2420 49.1935
147.125 2949 54.3047
147.241 3368 58.0345
147.358 3481 59
147.475 3634 60.2827
147.592 3732 61.0901
147.709 3880 62.2896
147.826 4155 64.4593
147.943 4452 66.7233
148.06 4887 69.9071
148.177 4959 70.4202
148.294 5264 72.5534
148.411 5562 74.5788
148.528 5664 75.2596
148.645 5930 77.0065
148.762 6114 78.1921
148.88 6275 79.2149
148.997 6657 81.5904
149.114 6461 80.3803
149.231 6555 80.963
149.349 6494 80.5854
149.466 6589 81.1727
149.583 6549 80.9259
149.701 6520 80.7465
149.818 6420 80.1249
149.935 6438 80.2371
150.053 6442 80.2621
150.17 6331 79.5676
150.287 5405 73.5187
150.405 3765 61.3596
150.522 2385 48.8365
150.64 2934 54.1664
150.757 4453 66.7308
150.875 4997 70.6895
150.992 5026 70.8943
151.11 4841 69.5773
151.227 4852 69.6563
151.344 4482 66.9477
151.462 4303 65.5973
151.579 3824 61.8385
151.697 3718 60.9754
151.814 3410 58.3952
151.932 3399 58.3009
152.049 3203 56.5951
152.167 3108 55.7494
152.284 3019 54.9454
152.402 2781 52.7352
152.519 2644 51.4198
152.636 2640 51.3809
152.754 2578 50.774
152.871 2522 50.2195
152.989 2439 49.3862
153.106 2432 49.3153
153.223 2343 48.4045
153.341 2442 49.4166
153.458 2353 48.5077
153.575 2248 47.4131
153.693 2231 47.2335
153.81 2050 45.2769
153.927 1995 44.6654
154.044 1608 40.0999
154.162 1339 36.5923
154.279 1711 41.3642
154.396 1967 44.3509
154.513 2037 45.1331
154.63 1974 44.4297
154.747 2035 45.111
154.864 1996 44.6766
154.981 1930 43.9318
155.098 1895 43.5316
155.215 1959 44.2606
155.332 1948 44.1362
155.449 1891 43.4856
155.566 1943 44.0795
155.683 1947 44.1248
155.8 1931 43.9431
155.917 2057 45.3542
156.033 1927 43.8976
156.15 0 1
156.267 0 1
156.383 0 1
156.5 0 1
156.617 0 1
156.733 0 1
156.85 0 1
156.966 0 1
157.082 0 1
157.199 0 1
157.315 0 1
157.431 0 1
157.547 0 1
157.664 0 1
157.78 0 1
157.896 0 1
158.012 0 1
158.128 0 1
158.244 0 1
158.359 0 1
158.475 0 1
158.591 0 1
158.706 0 1
