
6.15755 0 1
6.2731 0 1
6.3887 0 1
6.50437 0 1
6.62009 0 1
6.73587 0 1
6.8517 0 1
6.96759 0 1
7.08353 0 1
7.19952 0 1
7.31557 0 1
7.43166 0 1
7.54781 0 1
7.664 0 1
7.78024 0 1
7.89653 0 1
8.01286 0 1
8.12924 0 1
8.24567 0 1
8.36213 0 1
8.47864 0 1
8.59519 0 1
8.71178 0 1
8.82841 0 1
8.94508 0 1
9.06179 0 1
9.17853 0 1
9.29531 0 1
9.41212 0 1
9.52897 0 1
9.64584 0 1
9.76276 0 1
9.8797 0 1
9.99667 0 1
10.1137 0 1
10.2307 0 1
10.3478 0 1
10.4648 0 1
10.5819 0 1
10.6991 0 1
10.8162 0 1
10.9334 0 1
11.0506 0 1
11.1678 0 1
11.285 0 1
11.4023 0 1
11.5196 0 1
11.6369 0 1
11.7542 0 1
11.8715 0 1
11.9888 0 1
12.1062 0 1
12.2235 0 1
12.3409 0 1
12.4582 0 1
12.5756 0 1
12.693 0 1
12.8104 0 1
12.9278 0 1
13.0452 0 1
13.1626 0 1
13.28 0 1
13.3974 0 1
13.5149 0 1
13.6323 0 1
13.7497 0 1
13.8671 0 1
13.9845 0 1
14.1019 0 1
14.2193 0 1
14.3367 0 1
14.4541 0 1
14.5714 0 1
14.6888 0 1
14.8062 0 1
14.9235 0 1
15.0408 0 0
15.1581 0 0
15.2755 0 0
15.3927 0 0
15.51 0 0
15.6273 0 0
15.7445 0 0
15.8617 0 0
15.9789 0 0
16.0961 0 0
16.2132 0 0
16.3304 0 0
16.4475 0 0
16.5646 0 0
16.6816 0 0
16.7986 0 0
16.9156 0 0
17.0326 0 0
17.1496 0 0
17.2665 0 0
17.3833 0 0
17.5002 0 0
17.617 0 0
17.7338 0 0
17.8505 0 0
17.9672 0 0
18.0839 0 0
18.2005 0 0
18.3171 0 0
18.4337 0 0
18.5502 0 0
18.6666 0 0
18.7831 0 0
18.8994 0 0
19.0158 0 0
19.1321 0 0
19.2483 0 0
19.3645 0 0
19.4806 0 0
19.5967 0 0
19.7128 0 0
19.8288 0 0
19.9447 0 0
20.0606 0 1
20.1764 0 1
20.2922 0 1
20.4079 0 1
20.5236 0 1
20.6392 0 1
20.7548 0 1
20.8702 0 1
23.3078 0 1
23.4233 0 1
23.539 0 1
23.6547 0 1
23.7704 0 1
23.8862 0 1
24.0021 0 1
24.118 0 1
24.234 0 1
24.35 0 1
24.4661 9273 96.2964
24.5822 9131 95.5563
24.6984 9241 96.1301
24.8146 8910 94.3928
24.9309 8669 93.1075
25.0472 8501 92.2009
25.1636 8658 93.0484
25.28 8784 93.723
25.3965 9052 95.142
25.513 9067 95.2208
25.6296 9869 99.3428
25.7462 9897 99.4837
25.8628 10084 100.419
25.9795 9867 99.3328
26.0962 9797 98.9798
26.213 9861 99.3026
26.3298 9452 97.2214
26.4466 9017 94.9579
26.5635 8590 92.6823
26.6804 8518 92.293
26.7973 8240 90.7744
26.9143 8802 93.819
27.0313 8992 94.8262
27.1483 9114 95.4673
27.2653 9345 96.6695
27.3824 9439 97.1545
27.4996 9197 95.901
27.6167 9267 96.2653
27.7339 9113 95.462
27.8511 8743 93.504
27.9683 8736 93.4666
28.0855 8330 91.2688
28.2028 8488 92.1303
28.3201 7759 88.0852
28.4374 7897 88.8651
28.5547 7504 86.6256
28.6721 7528 86.764
28.7894 7659 87.5157
28.9068 7894 88.8482
29.0242 7973 89.2917
29.1416 8059 89.7719
29.259 8277 90.978
29.3764 8510 92.2497
29.4939 8354 91.4002
29.6113 8384 91.5642
29.7288 8358 91.4221
29.8463 7963 89.2356
29.9638 7807 88.3572
30.0812 7395 85.9942
30.1987 7618 87.2812
30.3162 7392 85.9767
30.4337 7687 87.6755
30.5512 7754 88.0568
30.6687 8159 90.3272
30.7862 8267 90.923
30.9037 8402 91.6624
31.0212 8450 91.9239
31.1387 8241 90.78
31.2562 8096 89.9778
31.3737 8313 91.1757
31.4912 8068 89.822
31.6087 7638 87.3957
31.7262 7809 88.3685
31.8436 7571 87.0115
31.9611 7355 85.7613
32.0785 7000 83.666
32.1959 7173 84.6936
32.3134 7148 84.5458
32.4308 7153 84.5754
32.5482 7355 85.7613
32.6655 7715 87.8351
32.7829 7840 88.5438
32.9002 7828 88.476
33.0176 7772 88.1589
33.1349 7923 89.0112
33.2522 7865 88.6848
33.3694 7934 89.073
33.4867 7480 86.487
33.6039 7448 86.3018
33.7211 6985 83.5763
33.8383 7130 84.4393
33.9554 7156 84.5931
34.0725 7196 84.8292
34.1896 7614 87.2582
34.3067 7956 89.1964
34.4237 7855 88.6284
34.5407 8101 90.0056
34.6577 8034 89.6326
34.7746 8153 90.294
34.8915 8118 90.0999
35.0084 7891 88.8313
35.1252 7904 88.9044
35.242 7574 87.0287
35.3587 7621 87.2983
35.4755 7356 85.7671
35.5921 7169 84.6699
35.7088 6880 82.9458
35.8254 6771 82.2861
35.9419 6634 81.4494
36.0584 6626 81.4002
36.1749 6851 82.7708
36.2913 6931 83.2526
36.4077 7271 85.2702
36.524 7418 86.1278
36.6403 7400 86.0233
36.7565 7280 85.3229
36.8727 7366 85.8254
36.9889 7280 85.3229
37.1049 7184 84.7585
37.221 0 1
37.3369 0 1
37.4529 0 1
37.5687 0 1
37.6845 0 1
37.8003 0 1
37.916 0 1
38.0316 0 1
38.1472 0 1
40.5851 0 1
40.7008 0 1
40.8164 0 1
40.9322 0 1
41.048 0 1
41.1639 0 1
41.2798 0 1
41.3958 0 1
41.5118 0 1
41.6279 0 1
41.744 5638 75.0866
41.8602 6048 77.7689
41.9765 6105 78.1345
42.0928 6071 77.9166
42.2091 5907 76.857
42.3255 5784 76.0526
42.4419 5554 74.5252
42.5584 5231 72.3257
42.675 5282 72.6774
42.7915 5316 72.9109
42.9081 5690 75.4321
43.0248 5681 75.3724
43.1415 6015 77.5564
43.2582 5939 77.0649
43.375 6006 77.4984
43.4918 6169 78.543
43.6087 6007 77.5048
43.7256 5921 76.948
43.8425 5657 75.213
43.9595 5592 74.7797
44.0765 5551 74.505
44.1935 5422 73.6342
44.3106 5337 73.0548
44.4277 5174 71.9305
44.5448 4660 68.2642
44.6619 4448 66.6933
44.7791 4465 66.8207
44.8963 4636 68.0882
45.0136 4652 68.2056
45.1308 4735 68.8113
45.2481 4873 69.8069
45.3654 4824 69.455
45.4827 4901 70.0071
45.6001 4933 70.2353
45.7174 4942 70.2994
45.8348 4627 68.0221
45.9522 4487 66.9851
46.0697 4256 65.238
46.1871 4208 64.8691
46.3046 4004 63.2772
46.422 4277 65.3988
46.5395 4299 65.5668
46.657 4535 67.3424
46.7745 4521 67.2384
46.892 4541 67.3869
47.0096 4480 66.9328
47.1271 4717 68.6804
47.2446 4545 67.4166
47.3622 4360 66.0303
47.4797 4391 66.2646
47.5973 4338 65.8635
47.7149 4162 64.5136
47.8324 3977 63.0635
47.95 3805 61.6847
48.0675 3714 60.9426
48.1851 3377 58.112
48.3027 3392 58.2409
48.4202 3439 58.643
48.5378 3538 59.4811
48.6554 3652 60.4318
48.7729 3754 61.2699
48.8904 3813 61.7495
49.008 3951 62.857
49.1255 3898 62.434
49.243 3928 62.6738
49.3605 3728 61.0574
49.478 3585 59.8749
49.5955 3441 58.66
49.713 3308 57.5152
49.8304 3406 58.3609
49.9479 3661 60.5062
50.0653 4001 63.2535
50.1827 4243 65.1383
50.3001 4294 65.5286
50.4175 4540 67.3795
50.5348 4407 66.3852
50.6521 4830 69.4982
50.7694 4825 69.4622
50.8867 4980 70.5691
51.004 5050 71.0634
51.1212 5095 71.3793
51.2384 5193 72.0625
51.3556 5015 70.8167
51.4727 4823 69.4478
51.5899 4530 67.3053
51.707 4465 66.8207
51.824 4447 66.6858
51.9411 4620 67.9706
52.0581 4831 69.5054
52.175 5113 71.5052
52.2919 5243 72.4086
52.4088 5239 72.3809
52.5257 5341 73.0821
52.6425 5469 73.9527
52.7593 5401 73.4915
52.876 5429 73.6817
52.9927 5499 74.1552
53.1094 5064 71.1618
53.226 4965 70.4628
53.3426 4769 69.0579
53.4591 4948 70.342
53.5756 5333 73.0274
53.692 5700 75.4983
53.8084 5915 76.909
53.9248 6129 78.2879
54.0411 6205 78.7718
54.1573 6429 80.181
54.2735 0 1
54.3896 0 1
54.5057 0 1
54.6217 0 1
54.7377 0 1
54.8537 0 1
54.9695 0 1
55.0853 0 1
55.2011 0 1
55.3168 0 1
55.4324 0 1
57.824 0 1
57.9396 0 1
58.0553 0 1
58.1711 0 1
58.2869 0 1
58.4028 0 1
58.5187 0 1
58.6347 0 1
58.7508 0 1
58.8669 0 1
58.983 7069 84.0773
59.0992 7381 85.9127
59.2155 7666 87.5557
59.3318 7915 88.9663
59.4482 8036 89.6437
59.5646 8091 89.95
59.681 7964 89.2412
59.7975 7746 88.0114
59.9141 7379 85.9011
60.0306 7044 83.9285
60.1473 6802 82.4742
60.2639 6490 80.5605
60.3807 6119 78.224
60.4974 6084 78
60.6142 6002 77.4726
60.731 6129 78.2879
60.8479 6537 80.8517
60.9648 6470 80.4363
61.0818 6773 82.2982
61.1987 6902 83.0783
61.3158 6712 81.9268
61.4328 6788 82.3893
61.5499 6420 80.1249
61.667 6022 77.6015
61.7841 5931 77.013
61.9013 5776 76
62.0185 5820 76.2889
62.1357 6013 77.5435
62.253 6607 81.2835
62.3702 6612 81.3142
62.4875 6986 83.5823
62.6049 7013 83.7437
62.7222 7306 85.4751
62.8396 7465 86.4002
62.9569 7484 86.5101
63.0743 7248 85.1352
63.1918 7310 85.4985
63.3092 7201 84.8587
63.4267 6962 83.4386
63.5441 6662 81.6211
63.6616 6261 79.1265
63.7791 5951 77.1427
63.8966 5542 74.4446
64.0142 5412 73.5663
64.1317 5450 73.8241
64.2492 5690 75.4321
64.3668 5938 77.0584
64.4843 5968 77.2528
64.6019 6106 78.1409
64.7195 6220 78.867
64.837 6237 78.9747
64.9546 6148 78.4092
65.0722 5881 76.6877
65.1898 5632 75.0467
65.3074 5359 73.2052
65.4249 5287 72.7118
65.5425 5338 73.0616
65.6601 5331 73.0137
65.7777 5913 76.896
65.8952 6049 77.7753
66.0128 6356 79.7245
66.1304 6744 82.1219
66.2479 6882 82.9578
66.3655 7191 84.7998
66.483 7051 83.9702
66.6005 7099 84.2556
66.718 6909 83.1204
66.8355 7013 83.7437
66.953 6929 83.2406
67.0705 6835 82.6741
67.1879 6207 78.7845
67.3054 5725 75.6637
67.4228 5458 73.8783
67.5402 5131 71.631
67.6576 5158 71.8192
67.7749 5206 72.1526
67.8923 5494 74.1215
68.0096 5875 76.6485
68.1269 5826 76.3282
68.2442 6182 78.6257
68.3614 6359 79.7433
68.4787 6450 80.3119
68.5958 6392 79.95
68.713 6024 77.6144
68.8302 5811 76.2299
68.9473 5674 75.326
69.0643 5462 73.9053
69.1814 5465 73.9256
69.2984 5663 75.2529
69.4154 6132 78.3071
69.5323 6429 80.181
69.6492 6760 82.2192
69.7661 7102 84.2734
69.8829 7489 86.539
69.9997 7543 86.8504
70.1165 7682 87.647
70.2332 7848 88.5889
70.3499 7986 89.3644
70.4665 7740 87.9773
70.5831 7476 86.4639
70.6996 7293 85.3991
70.8161 6970 83.4865
70.9326 6610 81.3019
71.049 6162 78.4984
71.1653 5713 75.5844
71.2817 5688 75.4188
71.3979 5635 75.0666
71.5141 5786 76.0658
71.6303 6075 77.9423
71.7464 5903 76.831
71.8624 0 1
71.9784 0 1
72.0944 0 1
72.2102 0 1
72.3261 0 1
72.4418 0 1
72.5575 0 1
72.6732 0 1
75.1054 0 1
75.2209 0 1
75.3365 0 1
75.4521 0 1
75.5678 0 1
75.6835 0 1
75.7993 0 1
75.9151 0 1
76.031 0 1
76.147 7181 84.7408
76.263 7434 86.2206
76.3791 7041 83.9107
76.4952 6577 81.0987
76.6113 6342 79.6367
76.7276 6422 80.1374
76.8438 6448 80.2994
76.9601 6938 83.2947
77.0765 7147 84.5399
77.1929 7364 85.8138
77.3093 7483 86.5043
77.4258 7494 86.5679
77.5423 7583 87.0804
77.6589 7488 86.5332
77.7755 7198 84.841
77.8921 6738 82.0853
78.0088 6555 80.963
78.1256 6222 78.8797
78.2423 6211 78.8099
78.3591 6624 81.388
78.4759 7197 84.8351
78.5928 7502 86.6141
78.7097 8012 89.5098
78.8266 8681 93.1719
78.9436 8062 89.7886
79.0606 8478 92.0761
79.1776 8437 91.8531
79.2946 8468 92.0217
79.4117 8385 91.5696
79.5288 8313 91.1757
79.6459 7858 88.6454
79.7631 7731 87.9261
79.8802 7218 84.9588
79.9974 6723 81.9939
80.1147 5850 76.4853
80.2319 5462 73.9053
80.3491 5317 72.9178
80.4664 5518 74.2832
80.5837 5874 76.642
80.701 6122 78.2432
80.8183 6185 78.6448
80.9357 6465 80.4052
81.053 6521 80.7527
81.1704 6326 79.5362
81.2877 6344 79.6492
81.4051 6060 77.846
81.5225 5849 76.4788
81.6399 5232 72.3326
81.7573 5170 71.9027
81.8747 4999 70.7036
81.9922 5198 72.0972
82.1096 5687 75.4122
82.227 6109 78.1601
82.3444 6290 79.3095
82.4619 6529 80.8022
82.5793 6622 81.3757
82.6967 6869 82.8794
82.8142 6839 82.6982
82.9316 6835 82.6741
83.049 6762 82.2314
83.1664 6580 81.1172
83.2838 6435 80.2185
83.4012 6086 78.0128
83.5186 5830 76.3544
83.636 5299 72.7942
83.7534 4984 70.5975
83.8708 4534 67.335
83.9881 4598 67.8086
84.1055 4746 68.8912
84.2228 5005 70.746
84.3401 5328 72.9932
84.4575 5654 75.1931
84.5747 5886 76.7203
84.692 6145 78.3901
84.8093 6174 78.5748
84.9265 5744 75.7892
85.0437 5393 73.437
85.1609 5003 70.7319
85.2781 4942 70.2994
85.3952 5013 70.8025
85.5123 4914 70.0999
85.6294 5324 72.9657
85.7465 5934 77.0325
85.8636 6169 78.543
85.9806 6650 81.5475
86.0976 6919 83.1805
86.2145 7262 85.2174
86.3315 6923 83.2046
86.4484 7603 87.1952
86.5652 7693 87.7097
86.682 7510 86.6603
86.7988 7545 86.862
86.9156 7281 85.3288
87.0323 6988 83.5943
87.149 6575 81.0864
87.2657 6248 79.0443
87.3823 5829 76.3479
87.4988 5605 74.8665
87.6154 5797 76.138
87.7318 6164 78.5111
87.8483 6667 81.6517
87.9647 7140 84.4985
88.081 7123 84.3979
88.1973 7404 86.0465
88.3136 7528 86.764
88.4298 7266 85.2408
88.546 6882 82.9578
88.6621 6356 79.7245
88.7781 6068 77.8974
88.8942 0 1
89.0101 0 1
89.126 0 1
89.2419 0 1
89.3577 0 1
89.4734 0 1
89.5891 0 1
89.7047 0 1
89.8203 0 1
89.9358 0 1
92.3269 0 1
92.4424 0 1
92.558 0 1
92.6736 0 1
92.7893 0 1
92.905 0 1
93.0208 0 1
93.1366 0 1
93.2525 0 1
93.3685 0 1
93.4845 0 1
93.6005 11682 108.083
93.7167 12498 111.794
93.8328 13012 114.07
93.949 13507 116.22
94.0653 13551 116.409
94.1816 13367 115.616
94.2979 13842 117.652
94.4143 14000 118.322
94.5307 14493 120.387
94.6472 15659 125.136
94.7637 17047 130.564
94.8803 19266 138.802
94.9969 20943 144.717
95.1135 22661 150.536
95.2302 23371 152.876
95.3469 24978 158.044
95.4637 26310 162.204
95.5805 27749 166.58
95.6973 28474 168.742
95.8142 29822 172.69
95.9311 30230 173.868
96.048 30204 173.793
96.1649 30106 173.511
96.2819 29394 171.447
96.3989 28601 169.118
96.516 27258 165.1
96.633 25580 159.937
96.7501 25632 160.1
96.8673 27550 165.982
96.9844 30225 173.853
97.1016 32756 180.986
97.2188 35094 187.334
97.336 35684 188.902
97.4532 36121 190.055
97.5704 35724 189.008
97.6877 34624 186.075
97.805 32138 179.271
97.9223 29903 172.925
98.0396 27937 167.144
98.1569 27274 165.148
98.2743 27065 164.514
98.3916 27946 167.171
98.509 30906 175.801
98.6264 32049 179.022
98.7438 33815 183.889
98.8612 34923 186.877
98.9786 35645 188.799
99.096 35670 188.865
99.2134 36648 191.437
99.3308 36561 191.209
99.4482 36570 191.233
99.5656 36562 191.212
99.6831 35935 189.565
99.8005 35002 187.088
99.9179 33266 182.39
100.035 31789 178.295
100.153 29416 171.511
100.27 27634 166.235
100.388 28538 168.932
100.505 30495 174.628
100.622 33248 182.34
100.74 34734 186.371
100.857 35642 188.791
100.975 35243 187.731
101.092 35605 188.693
101.209 34506 185.758
101.327 32836 181.207
101.444 30440 174.471
101.561 27892 167.009
101.679 26098 161.549
101.796 25014 158.158
101.913 25338 159.179
102.03 27422 165.596
102.148 29103 170.596
102.265 31782 178.275
102.382 29310 171.202
102.499 31256 176.794
102.616 31036 176.17
102.733 31214 176.675
102.851 30708 175.237
102.968 30161 173.669
103.085 29228 170.962
103.202 27776 166.661
103.319 26586 163.052
103.436 24528 156.614
103.552 22527 150.09
103.669 19972 141.322
103.786 18310 135.314
103.903 17623 132.752
104.02 18064 134.402
104.137 18632 136.499
104.253 18891 137.445
104.37 17551 132.48
104.487 16970 130.269
104.603 16560 128.686
104.72 14997 122.462
104.836 13362 115.594
104.953 12024 109.654
105.069 10574 102.83
105.186 9594 97.949
105.302 9297 96.421
105.418 9233 96.0885
105.535 9777 98.8787
105.651 10182 100.906
105.767 10447 102.211
105.883 10416 102.059
105.999 10165 100.822
106.115 0 1
106.231 0 1
106.347 0 1
106.463 0 1
106.579 0 1
106.694 0 1
106.81 0 1
106.926 0 1
107.041 0 1
107.157 0 1
109.576 0 1
109.692 0 1
109.807 0 1
109.923 0 1
110.039 0 1
110.155 0 1
110.27 0 1
110.386 0 1
110.502 0 1
110.618 6703 81.8719
110.735 7505 86.6314
110.851 7876 88.7468
110.967 8264 90.9065
111.083 8430 91.815
111.199 8583 92.6445
111.316 8600 92.7362
111.432 8549 92.4608
111.549 8433 91.8314
111.665 8292 91.0604
111.782 7960 89.2188
111.898 7716 87.8408
112.015 7115 84.3505
112.132 6596 81.2158
112.248 6027 77.6338
112.365 5991 77.4016
112.482 6356 79.7245
112.599 6336 79.599
112.716 6733 82.0549
112.832 6813 82.5409
112.949 6605 81.2712
113.066 6835 82.6741
113.183 6924 83.2106
113.3 6419 80.1187
113.417 6221 78.8733
113.534 5826 76.3282
113.652 5717 75.6108
113.769 5543 74.4513
113.886 5612 74.9133
114.003 5986 77.3692
114.12 6347 79.6681
114.238 6871 82.8915
114.355 7489 86.539
114.472 7582 87.0747
114.589 7852 88.6115
114.707 7923 89.0112
114.824 8049 89.7162
114.942 8115 90.0833
115.059 8265 90.912
115.176 8241 90.78
115.294 8236 90.7524
115.411 7821 88.4364
115.529 7540 86.8332
115.646 7184 84.7585
115.764 6807 82.5045
115.881 6377 79.8561
115.999 6465 80.4052
116.116 6839 82.6982
116.234 7072 84.0952
116.351 7500 86.6025
116.469 7323 85.5745
116.586 7445 86.2844
116.704 7503 86.6199
116.821 7339 85.668
116.939 6903 83.0843
117.056 6945 83.3367
117.174 6758 82.2071
117.291 6628 81.4125
117.409 6837 82.6862
117.526 6926 83.2226
117.644 7591 87.1263
117.761 8356 91.4112
117.879 8620 92.844
117.996 8802 93.819
118.114 9175 95.7862
118.231 9409 97
118.349 9555 97.7497
118.466 9525 97.5961
118.584 9790 98.9444
118.701 9759 98.7877
118.819 9714 98.5596
118.936 9275 96.3068
119.053 8948 94.5939
119.171 8599 92.7308
119.288 8124 90.1332
119.405 7785 88.2326
119.523 7246 85.1234
119.64 7393 85.9826
119.757 7520 86.7179
119.875 7905 88.9101
119.992 7790 88.261
120.109 7747 88.017
120.226 7686 87.6698
120.343 7684 87.6584
120.46 7743 87.9943
120.578 7286 85.3581
120.695 7316 85.5336
120.812 7126 84.4156
120.929 7009 83.7198
121.046 6832 82.6559
121.163 7144 84.5222
121.279 7541 86.8389
121.396 7975 89.3029
121.513 8390 91.5969
121.63 8957 94.6414
121.747 9079 95.2838
121.863 9266 96.2601
121.98 9389 96.8969
122.097 9478 97.355
122.213 9569 97.8213
122.33 9517 97.5551
122.446 9283 96.3483
122.563 9154 95.6765
122.679 9016 94.9526
122.795 8755 93.5682
122.912 8556 92.4986
123.028 8244 90.7965
123.144 7681 87.6413
123.26 7323 85.5745
123.377 0 1
123.493 0 1
123.609 0 1
123.725 0 1
123.84 0 1
123.956 0 1
124.072 0 1
124.188 0 1
124.303 0 1
124.419 0 1
126.852 0 1
126.968 0 1
127.083 0 1
127.199 0 1
127.315 0 1
127.431 0 1
127.547 0 1
127.663 0 1
127.779 0 1
127.895 0 1
128.011 0 1
128.127 0 1
128.243 0 1
128.359 9111 95.4516
128.476 8412 91.717
128.592 8434 91.8368
128.708 8631 92.9032
128.825 8827 93.9521
128.941 9065 95.2103
129.058 8942 94.5621
129.174 8955 94.6309
129.291 8650 93.0054
129.408 8735 93.4612
129.524 8276 90.9725
129.641 8115 90.0833
129.758 7889 88.82
129.875 7647 87.4471
129.992 7773 88.1646
130.108 7829 88.4816
130.225 8069 89.8276
130.342 8485 92.1141
130.459 8469 92.0272
130.576 9330 96.5919
130.693 9175 95.7862
130.81 9055 95.1578
130.928 9123 95.5144
131.045 9135 95.5772
131.162 9135 95.5772
131.279 8923 94.4616
131.396 8948 94.5939
131.513 8422 91.7715
131.631 8445 91.8967
131.748 8096 89.9778
131.865 7582 87.0747
131.983 7256 85.1822
132.1 6941 83.3127
132.217 7151 84.5636
132.335 7346 85.7088
132.452 7479 86.4812
132.57 7664 87.5443
132.687 7252 85.1587
132.804 7473 86.4465
132.922 7192 84.8057
133.039 7049 83.9583
133.157 6979 83.5404
133.274 6587 81.1603
133.392 6488 80.5481
133.509 6399 79.9937
133.627 6330 79.5613
133.744 6510 80.6846
133.862 6747 82.1401
133.979 6952 83.3787
134.097 7097 84.2437
134.214 7425 86.1684
134.332 7311 85.5044
134.449 7597 87.1608
134.567 7423 86.1568
134.684 7571 87.0115
134.802 7731 87.9261
134.919 7729 87.9147
135.037 7744 88
135.154 7636 87.3842
135.272 7306 85.4751
135.389 7181 84.7408
135.507 6779 82.3347
135.624 6739 82.0914
135.742 6771 82.2861
135.859 6890 83.006
135.977 6998 83.654
136.094 7386 85.9418
136.211 7307 85.481
136.329 7481 86.4928
136.446 7242 85.0999
136.564 7297 85.4225
136.681 7241 85.0941
136.798 6927 83.2286
136.915 6711 81.9207
137.033 6491 80.5667
137.15 6462 80.3866
137.267 6605 81.2712
137.384 6407 80.0437
137.502 6859 82.8191
137.619 7074 84.1071
137.736 7080 84.1427
137.853 7334 85.6388
137.97 7385 85.936
138.087 7697 87.7325
138.204 7541 86.8389
138.321 7685 87.6641
138.438 7788 88.2496
138.555 7911 88.9438
138.672 7832 88.4986
138.788 7741 87.983
138.905 7625 87.3212
139.022 7286 85.3581
139.139 7011 83.7317
139.255 6934 83.2706
139.372 6966 83.4626
139.488 6944 83.3307
139.605 7274 85.2877
139.721 7642 87.4185
139.838 7427 86.18
139.954 7489 86.539
140.071 7117 84.3623
140.187 7381 85.9127
140.303 7244 85.1117
140.419 6902 83.0783
140.535 6674 81.6946
140.652 6546 80.9074
140.768 0 1
140.884 0 1
141 0 1
141.115 0 1
141.231 0 1
141.347 0 1
141.463 0 1
141.578 0 1
141.694 0 1
144.104 0 1
144.219 0 1
144.335 0 1
144.45 0 1
144.566 0 1
144.682 0 1
144.798 0 1
144.914 0 1
145.03 0 1
145.146 6645 81.5169
145.262 6606 81.2773
145.378 6281 79.2528
145.494 6339 79.6178
145.61 6085 78.0064
145.726 6038 77.7046
145.842 6051 77.7882
145.959 5811 76.2299
146.075 5898 76.7984
146.192 6091 78.0449
146.308 6336 79.599
146.425 6570 81.0555
146.541 6574 81.0802
146.658 6637 81.4678
146.774 6628 81.4125
146.891 6693 81.8108
147.008 6861 82.8312
147.125 6775 82.3104
147.241 6860 82.8251
147.358 6665 81.6395
147.475 6674 81.6946
147.592 6461 80.3803
147.709 6270 79.1833
147.826 5899 76.8049
147.943 6015 77.5564
148.06 5923 76.961
148.177 6229 78.924
148.294 6327 79.5424
148.411 6421 80.1311
148.528 6437 80.2309
148.645 6357 79.7308
148.762 6336 79.599
148.88 6218 78.8543
148.997 5818 76.2758
149.114 6214 78.8289
149.231 5718 75.6175
149.349 5740 75.7628
149.466 5544 74.458
149.583 5299 72.7942
149.701 5591 74.773
149.818 5770 75.9605
149.935 5886 76.7203
150.053 5912 76.8895
150.17 6000 77.4597
150.287 6160 78.4857
150.405 6282 79.2591
150.522 6388 79.925
150.64 6339 79.6178
150.757 6521 80.7527
150.875 6358 79.7371
150.992 6312 79.4481
151.11 6147 78.4028
151.227 6187 78.6575
151.344 6068 77.8974
151.462 5798 76.1446
151.579 5663 75.2529
151.697 5837 76.4003
151.814 6182 78.6257
151.932 6154 78.4474
152.049 6249 79.0506
152.167 6648 81.5353
152.284 6417 80.1062
152.402 6569 81.0494
152.519 6420 80.1249
152.636 6335 79.5927
152.754 6060 77.846
152.871 6105 78.1345
152.989 5931 77.013
153.106 5880 76.6812
153.223 6008 77.5113
153.341 6392 79.95
153.458 6462 80.3866
153.575 6597 81.2219
153.693 6904 83.0903
153.81 7000 83.666
153.927 7337 85.6563
154.044 7519 86.7122
154.162 7645 87.4357
154.279 7993 89.4036
154.396 7958 89.2076
154.513 8294 91.0714
154.63 8488 92.1303
154.747 8177 90.4268
154.864 8147 90.2607
154.981 8092 89.9555
155.098 7908 88.9269
155.215 7855 88.6284
155.332 7990 89.3868
155.449 8119 90.1055
155.566 8352 91.3893
155.683 8354 91.4002
155.8 8384 91.5642
155.917 8491 92.1466
156.033 8422 91.7715
156.15 0 1
156.267 0 1
156.383 0 1
156.5 0 1
156.617 0 1
156.733 0 1
156.85 0 1
156.966 0 1
157.082 0 1
157.199 0 1
157.315 0 1
157.431 0 1
157.547 0 1
157.664 0 1
157.78 0 1
157.896 0 1
158.012 0 1
158.128 0 1
158.244 0 1
158.359 0 1
158.475 0 1
158.591 0 1
158.706 0 1
