
6.15755 0 1
6.2731 0 1
6.3887 0 1
6.50437 0 1
6.62009 0 1
6.73587 0 1
6.8517 0 1
6.96759 0 1
7.08353 0 1
7.19952 0 1
7.31557 0 1
7.43166 0 1
7.54781 0 1
7.664 0 1
7.78024 0 1
7.89653 0 1
8.01286 0 1
8.12924 0 1
8.24567 0 1
8.36213 0 1
8.47864 0 1
8.59519 0 1
8.71178 0 1
8.82841 0 1
8.94508 0 1
9.06179 0 1
9.17853 0 1
9.29531 0 1
9.41212 0 1
9.52897 0 1
9.64584 0 1
9.76276 0 1
9.8797 0 1
9.99667 0 1
10.1137 0 1
10.2307 0 1
10.3478 0 1
10.4648 0 1
10.5819 0 1
10.6991 0 1
10.8162 0 1
10.9334 0 1
11.0506 0 1
11.1678 0 1
11.285 0 1
11.4023 0 1
11.5196 0 1
11.6369 0 1
11.7542 0 1
11.8715 0 1
11.9888 0 1
12.1062 0 1
12.2235 0 1
12.3409 0 1
12.4582 0 1
12.5756 0 1
12.693 0 1
12.8104 0 1
12.9278 0 1
13.0452 0 1
13.1626 0 1
13.28 0 1
13.3974 0 1
13.5149 0 1
13.6323 0 1
13.7497 0 1
13.8671 0 1
13.9845 0 1
14.1019 0 1
14.2193 0 1
14.3367 0 1
14.4541 0 1
14.5714 0 1
14.6888 0 1
14.8062 0 1
14.9235 0 1
15.0408 0 0
15.1581 0 0
15.2755 0 0
15.3927 0 0
15.51 0 0
15.6273 0 0
15.7445 0 0
15.8617 0 0
15.9789 0 0
16.0961 0 0
16.2132 0 0
16.3304 0 0
16.4475 0 0
16.5646 0 0
16.6816 0 0
16.7986 0 0
16.9156 0 0
17.0326 0 0
17.1496 0 0
17.2665 0 0
17.3833 0 0
17.5002 0 0
17.617 0 0
17.7338 0 0
17.8505 0 0
17.9672 0 0
18.0839 0 0
18.2005 0 0
18.3171 0 0
18.4337 0 0
18.5502 0 0
18.6666 0 0
18.7831 0 0
18.8994 0 0
19.0158 0 0
19.1321 0 0
19.2483 0 0
19.3645 0 0
19.4806 0 0
19.5967 0 0
19.7128 0 0
19.8288 0 0
19.9447 0 0
20.0606 0 1
20.1764 0 1
20.2922 0 1
20.4079 0 1
20.5236 0 1
20.6392 0 1
20.7548 0 1
20.8702 0 1
23.3078 0 1
23.4233 0 1
23.539 0 1
23.6547 0 1
23.7704 0 1
23.8862 0 1
24.0021 0 1
24.118 0 1
24.234 0 1
24.35 0 1
24.4661 1317 36.2905
24.5822 1371 37.027
24.6984 1334 36.524
24.8146 1295 35.9861
24.9309 1256 35.4401
25.0472 1256 35.4401
25.1636 1356 36.8239
25.28 1316 36.2767
25.3965 1380 37.1484
25.513 1487 38.5616
25.6296 1508 38.833
25.7462 1521 39
25.8628 1599 39.9875
25.9795 1530 39.1152
26.0962 1509 38.8458
26.213 1610 40.1248
26.3298 1495 38.6652
26.4466 1553 39.4081
26.5635 1466 38.2884
26.6804 1419 37.6696
26.7973 1454 38.1314
26.9143 1418 37.6563
27.0313 1372 37.0405
27.1483 1539 39.2301
27.2653 1520 38.9872
27.3824 1462 38.2361
27.4996 1540 39.2428
27.6167 1529 39.1024
27.7339 1610 40.1248
27.8511 1446 38.0263
27.9683 1452 38.1051
28.0855 1357 36.8375
28.2028 1377 37.108
28.3201 1272 35.6651
28.4374 1225 35
28.5547 1187 34.4529
28.6721 1204 34.6987
28.7894 1270 35.6371
28.9068 1355 36.8103
29.0242 1420 37.6829
29.1416 1404 37.47
29.259 1451 38.092
29.3764 1559 39.4842
29.4939 1493 38.6394
29.6113 1450 38.0789
29.7288 1505 38.7943
29.8463 1524 39.0384
29.9638 1518 38.9615
30.0812 1460 38.2099
30.1987 1387 37.2424
30.3162 1421 37.6962
30.4337 1356 36.8239
30.5512 1490 38.6005
30.6687 1487 38.5616
30.7862 1516 38.9358
30.9037 1472 38.3667
31.0212 1564 39.5474
31.1387 1559 39.4842
31.2562 1536 39.1918
31.3737 1542 39.2683
31.4912 1453 38.1182
31.6087 1410 37.55
31.7262 1360 36.8782
31.8436 1334 36.524
31.9611 1277 35.7351
32.0785 1240 35.2136
32.1959 1327 36.428
32.3134 1302 36.0832
32.4308 1372 37.0405
32.5482 1387 37.2424
32.6655 1512 38.8844
32.7829 1502 38.7556
32.9002 1521 39
33.0176 1493 38.6394
33.1349 1525 39.0512
33.2522 1443 37.9868
33.3694 1552 39.3954
33.4867 1562 39.5221
33.6039 1513 38.8973
33.7211 1435 37.8814
33.8383 1482 38.4968
33.9554 1404 37.47
34.0725 1361 36.8917
34.1896 1479 38.4578
34.3067 1540 39.2428
34.4237 1538 39.2173
34.5407 1608 40.0999
34.6577 1512 38.8844
34.7746 1555 39.4335
34.8915 1583 39.7869
35.0084 1552 39.3954
35.1252 1442 37.9737
35.242 1481 38.4838
35.3587 1421 37.6962
35.4755 1403 37.4566
35.5921 1307 36.1525
35.7088 1231 35.0856
35.8254 1189 34.4819
35.9419 1195 34.5688
36.0584 1318 36.3043
36.1749 1255 35.426
36.2913 1350 36.7423
36.4077 1419 37.6696
36.524 1564 39.5474
36.6403 1473 38.3797
36.7565 1506 38.8072
36.8727 1464 38.2623
36.9889 1494 38.6523
37.1049 1488 38.5746
37.221 0 1
37.3369 0 1
37.4529 0 1
37.5687 0 1
37.6845 0 1
37.8003 0 1
37.916 0 1
38.0316 0 1
38.1472 0 1
40.5851 0 1
40.7008 0 1
40.8164 0 1
40.9322 0 1
41.048 0 1
41.1639 0 1
41.2798 0 1
41.3958 0 1
41.5118 0 1
41.6279 0 1
41.744 1292 35.9444
41.8602 1360 36.8782
41.9765 1387 37.2424
42.0928 1390 37.2827
42.2091 1426 37.7624
42.3255 1348 36.7151
42.4419 1332 36.4966
42.5584 1294 35.9722
42.675 1242 35.242
42.7915 1298 36.0278
42.9081 1301 36.0694
43.0248 1383 37.1887
43.1415 1386 37.229
43.2582 1340 36.606
43.375 1401 37.4299
43.4918 1380 37.1484
43.6087 1388 37.2559
43.7256 1356 36.8239
43.8425 1330 36.4692
43.9595 1303 36.0971
44.0765 1330 36.4692
44.1935 1274 35.6931
44.3106 1189 34.4819
44.4277 1093 33.0606
44.5448 1050 32.4037
44.6619 1013 31.8277
44.7791 969 31.1288
44.8963 1054 32.4654
45.0136 1107 33.2716
45.1308 1183 34.3948
45.2481 1244 35.2704
45.3654 1234 35.1283
45.4827 1269 35.623
45.6001 1218 34.8999
45.7174 1154 33.9706
45.8348 1229 35.0571
45.9522 1203 34.6843
46.0697 1107 33.2716
46.1871 1077 32.8177
46.3046 1064 32.619
46.422 971 31.1609
46.5395 1041 32.2645
46.657 1119 33.4515
46.7745 1156 34
46.892 1172 34.2345
47.0096 1083 32.909
47.1271 1107 33.2716
47.2446 1108 33.2866
47.3622 1053 32.45
47.4797 1048 32.3728
47.5973 1036 32.187
47.7149 1036 32.187
47.8324 933 30.545
47.95 868 29.4618
48.0675 825 28.7228
48.1851 827 28.7576
48.3027 861 29.3428
48.4202 847 29.1033
48.5378 865 29.4109
48.6554 939 30.6431
48.7729 908 30.133
48.8904 977 31.257
49.008 1034 32.1559
49.1255 985 31.3847
49.243 1006 31.7175
49.3605 1013 31.8277
49.478 1018 31.9061
49.5955 965 31.0644
49.713 966 31.0805
49.8304 951 30.8383
49.9479 928 30.4631
50.0653 1079 32.8481
50.1827 1149 33.8969
50.3001 1152 33.9411
50.4175 1101 33.1813
50.5348 1182 34.3802
50.6521 1201 34.6554
50.7694 1214 34.8425
50.8867 1271 35.6511
51.004 1264 35.5528
51.1212 1300 36.0555
51.2384 1217 34.8855
51.3556 1259 35.4824
51.4727 1192 34.5254
51.5899 1089 33
51.707 999 31.607
51.824 1044 32.311
51.9411 1083 32.909
52.0581 1158 34.0294
52.175 1346 36.6879
52.2919 1379 37.1349
52.4088 1436 37.8946
52.5257 1448 38.0526
52.6425 1422 37.7094
52.7593 1549 39.3573
52.876 1464 38.2623
52.9927 1499 38.7169
53.1094 1431 37.8286
53.226 1481 38.4838
53.3426 1413 37.5899
53.4591 1534 39.1663
53.5756 1554 39.4208
53.692 1578 39.724
53.8084 1626 40.3237
53.9248 1688 41.0853
54.0411 1688 41.0853
54.1573 1630 40.3733
54.2735 0 1
54.3896 0 1
54.5057 0 1
54.6217 0 1
54.7377 0 1
54.8537 0 1
54.9695 0 1
55.0853 0 1
55.2011 0 1
55.3168 0 1
55.4324 0 1
57.824 0 1
57.9396 0 1
58.0553 0 1
58.1711 0 1
58.2869 0 1
58.4028 0 1
58.5187 0 1
58.6347 0 1
58.7508 0 1
58.8669 0 1
58.983 2017 44.911
59.0992 2031 45.0666
59.2155 2052 45.299
59.3318 2160 46.4758
59.4482 2079 45.5961
59.5646 2186 46.7547
59.681 2049 45.2659
59.7975 2027 45.0222
59.9141 1915 43.7607
60.0306 1818 42.638
60.1473 1733 41.6293
60.2639 1651 40.6325
60.3807 1527 39.0768
60.4974 1603 40.0375
60.6142 1530 39.1152
60.731 1676 40.939
60.8479 1767 42.0357
60.9648 1929 43.9204
61.0818 1972 44.4072
61.1987 2082 45.6289
61.3158 2093 45.7493
61.4328 1993 44.643
61.5499 2026 45.0111
61.667 1995 44.6654
61.7841 2012 44.8553
61.9013 2027 45.0222
62.0185 1934 43.9773
62.1357 1998 44.699
62.253 2057 45.3542
62.3702 2115 45.9891
62.4875 2147 46.3357
62.6049 2146 46.3249
62.7222 2106 45.8912
62.8396 2122 46.0652
62.9569 2235 47.2758
63.0743 2122 46.0652
63.1918 2111 45.9456
63.3092 2029 45.0444
63.4267 1862 43.1509
63.5441 1911 43.715
63.6616 1724 41.5211
63.7791 1495 38.6652
63.8966 1537 39.2046
64.0142 1507 38.8201
64.1317 1597 39.9625
64.2492 1577 39.7115
64.3668 1856 43.0813
64.4843 1833 42.8135
64.6019 2064 45.4313
64.7195 2091 45.7275
64.837 2140 46.2601
64.9546 2066 45.4533
65.0722 2040 45.1664
65.1898 2057 45.3542
65.3074 2098 45.8039
65.4249 1993 44.643
65.5425 1921 43.8292
65.6601 1968 44.3621
65.7777 1976 44.4522
65.8952 2031 45.0666
66.0128 2155 46.422
66.1304 2125 46.0977
66.2479 2176 46.6476
66.3655 2258 47.5184
66.483 2329 48.2597
66.6005 2244 47.3709
66.718 2242 47.3498
66.8355 2151 46.3789
66.953 2131 46.1628
67.0705 2023 44.9778
67.1879 1889 43.4626
67.3054 1832 42.8019
67.4228 1588 39.8497
67.5402 1430 37.8153
67.6576 1590 39.8748
67.7749 1565 39.5601
67.8923 1796 42.3792
68.0096 1868 43.2204
68.1269 2197 46.8722
68.2442 2252 47.4552
68.3614 2251 47.4447
68.4787 2266 47.6025
68.5958 2300 47.9583
68.713 2288 47.833
68.8302 2410 49.0918
68.9473 2268 47.6235
69.0643 2168 46.5618
69.1814 2087 45.6837
69.2984 2127 46.1194
69.4154 2341 48.3839
69.5323 2297 47.927
69.6492 2336 48.3322
69.7661 2527 50.2693
69.8829 2430 49.295
69.9997 2489 49.8899
70.1165 2554 50.5371
70.2332 2541 50.4083
70.3499 2465 49.6488
70.4665 2474 49.7393
70.5831 2505 50.05
70.6996 2360 48.5798
70.8161 2228 47.2017
70.9326 2144 46.3033
71.049 1892 43.4971
71.1653 1683 41.0244
71.2817 1479 38.4578
71.3979 1574 39.6737
71.5141 1703 41.2674
71.6303 1843 42.9302
71.7464 1877 43.3244
71.8624 0 1
71.9784 0 1
72.0944 0 1
72.2102 0 1
72.3261 0 1
72.4418 0 1
72.5575 0 1
72.6732 0 1
75.1054 0 1
75.2209 0 1
75.3365 0 1
75.4521 0 1
75.5678 0 1
75.6835 0 1
75.7993 0 1
75.9151 0 1
76.031 0 1
76.147 2174 46.6262
76.263 2262 47.5605
76.3791 2147 46.3357
76.4952 1856 43.0813
76.6113 1700 41.2311
76.7276 1765 42.0119
76.8438 1993 44.643
76.9601 2155 46.422
77.0765 2489 49.8899
77.1929 2716 52.1153
77.3093 2772 52.6498
77.4258 2815 53.0566
77.5423 2819 53.0943
77.6589 2820 53.1037
77.7755 2828 53.1789
77.8921 2733 52.2781
78.0088 2812 53.0283
78.1256 2672 51.6914
78.2423 2588 50.8724
78.3591 2694 51.9038
78.4759 2703 51.9904
78.5928 2791 52.8299
78.7097 2860 53.479
78.8266 3019 54.9454
78.9436 2939 54.2125
79.0606 2989 54.6717
79.1776 3115 55.8122
79.2946 3119 55.848
79.4117 3048 55.2087
79.5288 3071 55.4166
79.6459 2908 53.9259
79.7631 2772 52.6498
79.8802 2644 51.4198
79.9974 2381 48.7955
80.1147 2106 45.8912
80.2319 1912 43.7264
80.3491 1897 43.5546
80.4664 2110 45.9347
80.5837 2389 48.8774
80.701 2645 51.4296
80.8183 2854 53.4228
80.9357 2953 54.3415
81.053 3015 54.909
81.1704 3070 55.4076
81.2877 2979 54.5802
81.4051 3179 56.3826
81.5225 2938 54.2033
81.6399 2970 54.4977
81.7573 2827 53.1695
81.8747 2722 52.1728
81.9922 2796 52.8772
82.1096 2884 53.7029
82.227 2916 54
82.3444 2991 54.69
82.4619 3230 56.8331
82.5793 3082 55.5158
82.6967 3178 56.3738
82.8142 3139 56.0268
82.9316 3113 55.7943
83.049 3128 55.9285
83.1664 3109 55.7584
83.2838 2980 54.5894
83.4012 2890 53.7587
83.5186 2777 52.6972
83.636 2577 50.7642
83.7534 2155 46.422
83.8708 1909 43.6921
83.9881 1925 43.8748
84.1055 2018 44.9222
84.2228 2379 48.775
84.3401 2754 52.4786
84.4575 2924 54.074
84.5747 3160 56.2139
84.692 3206 56.6216
84.8093 3166 56.2672
84.9265 3244 56.9561
85.0437 3235 56.8771
85.1609 3281 57.28
85.2781 3195 56.5243
85.3952 3104 55.7136
85.5123 3125 55.9017
85.6294 3100 55.6776
85.7465 3200 56.5685
85.8636 3365 58.0086
85.9806 3417 58.4551
86.0976 3510 59.2453
86.2145 3524 59.3633
86.3315 3525 59.3717
86.4484 3707 60.8851
86.5652 3796 61.6117
86.682 3584 59.8665
86.7988 3629 60.2412
86.9156 3578 59.8164
87.0323 3396 58.2752
87.149 3203 56.5951
87.2657 2908 53.9259
87.3823 2474 49.7393
87.4988 2402 49.0102
87.6154 2457 49.5681
87.7318 2791 52.8299
87.8483 3243 56.9473
87.9647 3540 59.4979
88.081 3869 62.2013
88.1973 3965 62.9682
88.3136 3992 63.1823
88.4298 3969 63
88.546 4061 63.726
88.6621 3819 61.7981
88.7781 3793 61.5873
88.8942 0 1
89.0101 0 1
89.126 0 1
89.2419 0 1
89.3577 0 1
89.4734 0 1
89.5891 0 1
89.7047 0 1
89.8203 0 1
89.9358 0 1
92.3269 0 1
92.4424 0 1
92.558 0 1
92.6736 0 1
92.7893 0 1
92.905 0 1
93.0208 0 1
93.1366 0 1
93.2525 0 1
93.3685 0 1
93.4845 0 1
93.6005 4068 63.7809
93.7167 4246 65.1613
93.8328 4224 64.9923
93.949 4100 64.0312
94.0653 4179 64.6452
94.1816 4198 64.792
94.2979 4235 65.0769
94.4143 4106 64.0781
94.5307 4141 64.3506
94.6472 4020 63.4035
94.7637 3948 62.8331
94.8803 3990 63.1664
94.9969 4196 64.7765
95.1135 4246 65.1613
95.2302 4369 66.0984
95.3469 4587 67.7274
95.4637 4439 66.6258
95.5805 4614 67.9264
95.6973 4493 67.0298
95.8142 4641 68.1249
95.9311 4468 66.8431
96.048 4368 66.0908
96.1649 4243 65.1383
96.2819 3901 62.458
96.3989 3710 60.9098
96.516 3180 56.3915
96.633 2934 54.1664
96.7501 2790 52.8205
96.8673 2913 53.9722
96.9844 3464 58.8558
97.1016 4092 63.9687
97.2188 4414 66.4379
97.336 4610 67.897
97.4532 4764 69.0217
97.5704 4811 69.3614
97.6877 4748 68.9057
97.805 4703 68.5784
97.9223 4693 68.5055
98.0396 4677 68.3886
98.1569 4651 68.1982
98.2743 4533 67.3276
98.3916 4454 66.7383
98.509 4544 67.4092
98.6264 4678 68.3959
98.7438 4514 67.1863
98.8612 4679 68.4032
98.9786 4971 70.5053
99.096 4869 69.7782
99.2134 4945 70.3207
99.3308 4938 70.2709
99.4482 4868 69.7711
99.5656 4882 69.8713
99.6831 4752 68.9348
99.8005 4640 68.1175
99.9179 4332 65.8179
100.035 4119 64.1794
100.153 3376 58.1034
100.27 3175 56.3471
100.388 3154 56.1605
100.505 3542 59.5147
100.622 4198 64.792
100.74 4694 68.5128
100.857 4935 70.2496
100.975 5064 71.1618
101.092 5081 71.2811
101.209 5102 71.4283
101.327 5157 71.8123
101.444 5047 71.0422
101.561 5070 71.2039
101.679 5190 72.0417
101.796 5046 71.0352
101.913 4886 69.8999
102.03 4842 69.5845
102.148 4891 69.9357
102.265 5261 72.5328
102.382 4815 69.3902
102.499 5274 72.6223
102.616 5295 72.7668
102.733 5503 74.1822
102.851 5403 73.5051
102.968 5473 73.9797
103.085 5363 73.2325
103.202 5228 72.3049
103.319 5199 72.1041
103.436 4879 69.8498
103.552 4450 66.7083
103.669 3887 62.3458
103.786 3476 58.9576
103.903 3472 58.9237
104.02 3963 62.9524
104.137 4565 67.5648
104.253 5266 72.5672
104.37 5404 73.5119
104.487 5536 74.4043
104.603 5547 74.4782
104.72 5529 74.3572
104.836 5536 74.4043
104.953 5540 74.4312
105.069 5509 74.2226
105.186 5462 73.9053
105.302 5519 74.29
105.418 5287 72.7118
105.535 5288 72.7186
105.651 5291 72.7393
105.767 5594 74.793
105.883 5467 73.9392
105.999 5461 73.8986
106.115 0 1
106.231 0 1
106.347 0 1
106.463 0 1
106.579 0 1
106.694 0 1
106.81 0 1
106.926 0 1
107.041 0 1
107.157 0 1
109.576 0 1
109.692 0 1
109.807 0 1
109.923 0 1
110.039 0 1
110.155 0 1
110.27 0 1
110.386 0 1
110.502 0 1
110.618 4731 68.7823
110.735 5135 71.6589
110.851 5182 71.9861
110.967 5202 72.1249
111.083 5446 73.797
111.199 5367 73.2598
111.316 5411 73.5595
111.432 5511 74.2361
111.549 5468 73.9459
111.665 5256 72.4983
111.782 5136 71.6659
111.898 4830 69.4982
112.015 4413 66.4304
112.132 3674 60.6135
112.248 3334 57.7408
112.365 3356 57.931
112.482 3551 59.5903
112.599 4157 64.4748
112.716 4661 68.2715
112.832 4944 70.3136
112.949 5041 71
113.066 4951 70.3633
113.183 5081 71.2811
113.3 4926 70.1855
113.417 4976 70.5408
113.534 4801 69.2892
113.652 4773 69.0869
113.769 4689 68.4763
113.886 4585 67.7126
114.003 4636 68.0882
114.12 4362 66.0454
114.238 4391 66.2646
114.355 4542 67.3944
114.472 4545 67.4166
114.589 4643 68.1396
114.707 4681 68.4178
114.824 4686 68.4544
114.942 4741 68.8549
115.059 4753 68.942
115.176 4597 67.8012
115.294 4579 67.6683
115.411 4430 66.5582
115.529 3952 62.8649
115.646 3700 60.8276
115.764 3133 55.9732
115.881 3075 55.4527
115.999 3227 56.8067
116.116 3511 59.2537
116.234 4120 64.1872
116.351 4394 66.2873
116.469 4560 67.5278
116.586 4689 68.4763
116.704 4563 67.55
116.821 4642 68.1322
116.939 4732 68.7895
117.056 4563 67.55
117.174 4704 68.5857
117.291 4513 67.1789
117.409 4617 67.9485
117.526 4419 66.4756
117.644 4530 67.3053
117.761 4313 65.6734
117.879 4472 66.873
117.996 4395 66.2948
118.114 4544 67.4092
118.231 4565 67.5648
118.349 4676 68.3813
118.466 4720 68.7023
118.584 4771 69.0724
118.701 4848 69.6276
118.819 4649 68.1836
118.936 4590 67.7495
119.053 4374 66.1362
119.171 4052 63.6553
119.288 3680 60.663
119.405 3155 56.1694
119.523 2957 54.3783
119.64 3216 56.7098
119.757 3391 58.2323
119.875 3862 62.145
119.992 4267 65.3223
120.109 4313 65.6734
120.226 4492 67.0224
120.343 4489 67
120.46 4466 66.8281
120.578 4457 66.7608
120.695 4447 66.6858
120.812 4376 66.1513
120.929 4371 66.1135
121.046 4457 66.7608
121.163 4332 65.8179
121.279 4361 66.0379
121.396 4109 64.1015
121.513 4132 64.2806
121.63 4318 65.7115
121.747 4187 64.707
121.863 4229 65.0308
121.98 4374 66.1362
122.097 4307 65.6277
122.213 4460 66.7832
122.33 4368 66.0908
122.446 4412 66.4229
122.563 4454 66.7383
122.679 4328 65.7875
122.795 4010 63.3246
122.912 3768 61.384
123.028 3488 59.0593
123.144 3084 55.5338
123.26 2797 52.8867
123.377 0 1
123.493 0 1
123.609 0 1
123.725 0 1
123.84 0 1
123.956 0 1
124.072 0 1
124.188 0 1
124.303 0 1
124.419 0 1
126.852 0 1
126.968 0 1
127.083 0 1
127.199 0 1
127.315 0 1
127.431 0 1
127.547 0 1
127.663 0 1
127.779 0 1
127.895 0 1
128.011 0 1
128.127 0 1
128.243 0 1
128.359 3265 57.1402
128.476 3021 54.9636
128.592 3207 56.6304
128.708 3725 61.0328
128.825 4031 63.4902
128.941 4488 66.9925
129.058 4542 67.3944
129.174 4669 68.3301
129.291 4700 68.5565
129.408 4735 68.8113
129.524 4660 68.2642
129.641 4580 67.6757
129.758 4629 68.0368
129.875 4638 68.1029
129.992 4510 67.1565
130.108 4591 67.7569
130.225 4529 67.2978
130.342 4587 67.7274
130.459 4315 65.6887
130.576 4549 67.4463
130.693 4412 66.4229
130.81 4404 66.3626
130.928 4420 66.4831
131.045 4551 67.4611
131.162 4619 67.9632
131.279 4649 68.1836
131.396 4588 67.7348
131.513 4508 67.1416
131.631 4295 65.5362
131.748 4031 63.4902
131.865 3497 59.1354
131.983 3163 56.2406
132.1 3049 55.2178
132.217 3353 57.9051
132.335 3828 61.8708
132.452 4247 65.169
132.57 4433 66.5808
132.687 4294 65.5286
132.804 4577 67.6535
132.922 4430 66.5582
133.039 4502 67.0969
133.157 4437 66.6108
133.274 4532 67.3201
133.392 4302 65.5896
133.509 4360 66.0303
133.627 4344 65.909
133.744 4356 66
133.862 4371 66.1135
133.979 4254 65.2227
134.097 4275 65.3835
134.214 4388 66.242
134.332 4205 64.846
134.449 4221 64.9692
134.567 4325 65.7647
134.684 4448 66.6933
134.802 4530 67.3053
134.919 4477 66.9104
135.037 4349 65.9469
135.154 4236 65.0846
135.272 4138 64.3273
135.389 3748 61.2209
135.507 3389 58.2151
135.624 3047 55.1996
135.742 3085 55.5428
135.859 3503 59.1861
135.977 3854 62.0806
136.094 4257 65.2457
136.211 4384 66.2118
136.329 4295 65.5362
136.446 4462 66.7982
136.564 4380 66.1816
136.681 4314 65.681
136.798 4325 65.7647
136.915 4255 65.2304
137.033 4225 65
137.15 4336 65.8483
137.267 4120 64.1872
137.384 4163 64.5213
137.502 4120 64.1872
137.619 4179 64.6452
137.736 4143 64.3661
137.853 3989 63.1585
137.97 4096 64
138.087 4200 64.8074
138.204 4084 63.9062
138.321 4209 64.8768
138.438 4354 65.9848
138.555 4306 65.6201
138.672 4203 64.8305
138.788 4205 64.846
138.905 3940 62.7694
139.022 3749 61.2291
139.139 3378 58.1206
139.255 3110 55.7674
139.372 3029 55.0364
139.488 3358 57.9483
139.605 3673 60.6053
139.721 3981 63.0952
139.838 4061 63.726
139.954 4215 64.923
140.071 4222 64.9769
140.187 4195 64.7688
140.303 4155 64.4593
140.419 4228 65.0231
140.535 4132 64.2806
140.652 4062 63.7338
140.768 0 1
140.884 0 1
141 0 1
141.115 0 1
141.231 0 1
141.347 0 1
141.463 0 1
141.578 0 1
141.694 0 1
144.104 0 1
144.219 0 1
144.335 0 1
144.45 0 1
144.566 0 1
144.682 0 1
144.798 0 1
144.914 0 1
145.03 0 1
145.146 3597 59.975
145.262 3687 60.7207
145.378 3640 60.3324
145.494 3646 60.3821
145.61 3638 60.3158
145.726 3503 59.1861
145.842 3477 58.9661
145.959 3514 59.279
146.075 3419 58.4722
146.192 3401 58.3181
146.308 3454 58.7707
146.425 3368 58.0345
146.541 3416 58.4466
146.658 3453 58.7622
146.774 3518 59.3127
146.891 3338 57.7754
147.008 3398 58.2924
147.125 3380 58.1378
147.241 3391 58.2323
147.358 3406 58.3609
147.475 3338 57.7754
147.592 3036 55.0999
147.709 2832 53.2165
147.826 2580 50.7937
147.943 2515 50.1498
148.06 2679 51.7591
148.177 3033 55.0727
148.294 3175 56.3471
148.411 3370 58.0517
148.528 3467 58.8812
148.645 3400 58.3095
148.762 3262 57.1139
148.88 3371 58.0603
148.997 3266 57.1489
149.114 3314 57.5674
149.231 3157 56.1872
149.349 3205 56.6127
149.466 3161 56.2228
149.583 3007 54.8361
149.701 3147 56.0981
149.818 3154 56.1605
149.935 3197 56.542
150.053 3290 57.3585
150.17 3293 57.3847
150.287 3223 56.7715
150.405 3134 55.9821
150.522 3238 56.9034
150.64 3187 56.4535
150.757 3177 56.3649
150.875 3179 56.3826
150.992 3183 56.4181
151.11 3076 55.4617
151.227 2964 54.4426
151.344 2610 51.0882
151.462 2472 49.7192
151.579 2523 50.2295
151.697 2590 50.892
151.814 2894 53.7959
151.932 3056 55.2811
152.049 3309 57.5239
152.167 3332 57.7235
152.284 3324 57.6541
152.402 3267 57.1577
152.519 3318 57.6021
152.636 3332 57.7235
152.754 3242 56.9386
152.871 3313 57.5587
152.989 3152 56.1427
153.106 3172 56.3205
153.223 3136 56
153.341 2999 54.7631
153.458 3265 57.1402
153.575 3200 56.5685
153.693 3282 57.2887
153.81 3204 56.6039
153.927 3222 56.7627
154.044 3207 56.6304
154.162 3288 57.3411
154.279 3339 57.7841
154.396 3264 57.1314
154.513 3326 57.6715
154.63 3275 57.2276
154.747 3307 57.5065
154.864 3138 56.0179
154.981 2919 54.0278
155.098 2750 52.4404
155.215 2757 52.5071
155.332 2832 53.2165
155.449 3004 54.8088
155.566 3190 56.4801
155.683 3266 57.1489
155.8 3302 57.463
155.917 3349 57.8705
156.033 3374 58.0861
156.15 0 1
156.267 0 1
156.383 0 1
156.5 0 1
156.617 0 1
156.733 0 1
156.85 0 1
156.966 0 1
157.082 0 1
157.199 0 1
157.315 0 1
157.431 0 1
157.547 0 1
157.664 0 1
157.78 0 1
157.896 0 1
158.012 0 1
158.128 0 1
158.244 0 1
158.359 0 1
158.475 0 1
158.591 0 1
158.706 0 1
