
6.15755 0 1
6.2731 0 1
6.3887 0 1
6.50437 0 1
6.62009 0 1
6.73587 0 1
6.8517 0 1
6.96759 0 1
7.08353 0 1
7.19952 0 1
7.31557 0 1
7.43166 0 1
7.54781 0 1
7.664 0 1
7.78024 0 1
7.89653 0 1
8.01286 0 1
8.12924 0 1
8.24567 0 1
8.36213 0 1
8.47864 0 1
8.59519 0 1
8.71178 0 1
8.82841 0 1
8.94508 0 1
9.06179 0 1
9.17853 0 1
9.29531 0 1
9.41212 0 1
9.52897 0 1
9.64584 0 1
9.76276 0 1
9.8797 0 1
9.99667 0 1
10.1137 0 1
10.2307 0 1
10.3478 0 1
10.4648 0 1
10.5819 0 1
10.6991 0 1
10.8162 0 1
10.9334 0 1
11.0506 0 1
11.1678 0 1
11.285 0 1
11.4023 0 1
11.5196 0 1
11.6369 0 1
11.7542 0 1
11.8715 0 1
11.9888 0 1
12.1062 0 1
12.2235 0 1
12.3409 0 1
12.4582 0 1
12.5756 0 1
12.693 0 1
12.8104 0 1
12.9278 0 1
13.0452 0 1
13.1626 0 1
13.28 0 1
13.3974 0 1
13.5149 0 1
13.6323 0 1
13.7497 0 1
13.8671 0 1
13.9845 0 1
14.1019 0 1
14.2193 0 1
14.3367 0 1
14.4541 0 1
14.5714 0 1
14.6888 0 1
14.8062 0 1
14.9235 0 1
15.0408 2153 46.4004
15.1581 2170 46.5833
15.2755 2227 47.1911
15.3927 2186 46.7547
15.51 2202 46.9255
15.6273 2212 47.0319
15.7445 2182 46.7119
15.8617 2154 46.4112
15.9789 2115 45.9891
16.0961 2220 47.1169
16.2132 2302 47.9792
16.3304 2454 49.5379
16.4475 2591 50.9019
16.5646 2546 50.4579
16.6816 2619 51.1762
16.7986 2562 50.6162
16.9156 2536 50.3587
17.0326 2551 50.5074
17.1496 2601 51
17.2665 2526 50.2593
17.3833 2566 50.6557
17.5002 2475 49.7494
17.617 2551 50.5074
17.7338 2628 51.264
17.8505 2696 51.923
17.9672 2757 52.5071
18.0839 2772 52.6498
18.2005 2839 53.2823
18.3171 2903 53.8795
18.4337 2898 53.8331
18.5502 2987 54.6535
18.6666 3102 55.6956
18.7831 2956 54.3691
18.8994 2962 54.4243
19.0158 2948 54.2955
19.1321 2832 53.2165
19.2483 2744 52.3832
19.3645 2717 52.1249
19.4806 2706 52.0192
19.5967 2620 51.1859
19.7128 2709 52.0481
19.8288 2770 52.6308
19.9447 2654 51.517
20.0606 0 1
20.1764 0 1
20.2922 0 1
20.4079 0 1
20.5236 0 1
20.6392 0 1
20.7548 0 1
20.8702 0 1
23.3078 0 1
23.4233 0 1
23.539 0 1
23.6547 0 1
23.7704 0 1
23.8862 0 1
24.0021 0 1
24.118 0 1
24.234 0 1
24.35 0 1
24.4661 2747 52.4118
24.5822 2911 53.9537
24.6984 2870 53.5724
24.8146 2798 52.8961
24.9309 2980 54.5894
25.0472 3096 55.6417
25.1636 3127 55.9196
25.28 3252 57.0263
25.3965 3296 57.4108
25.513 3342 57.81
25.6296 3237 56.8946
25.7462 3221 56.7539
25.8628 3165 56.2583
25.9795 3085 55.5428
26.0962 3121 55.8659
26.213 3130 55.9464
26.3298 3260 57.0964
26.4466 3320 57.6194
26.5635 3474 58.9406
26.6804 3550 59.5819
26.7973 3589 59.9083
26.9143 3561 59.6741
27.0313 3730 61.0737
27.1483 3631 60.2578
27.2653 3672 60.597
27.3824 3722 61.0082
27.4996 3794 61.5955
27.6167 3739 61.1474
27.7339 3571 59.7578
27.8511 3361 57.9741
27.9683 3345 57.836
28.0855 3306 57.4978
28.2028 3041 55.1453
28.3201 3066 55.3715
28.4374 3148 56.107
28.5547 3172 56.3205
28.6721 3267 57.1577
28.7894 3346 57.8446
28.9068 3499 59.1523
29.0242 3344 57.8273
29.1416 3294 57.3934
29.259 3275 57.2276
29.3764 3093 55.6147
29.4939 3141 56.0446
29.6113 3145 56.0803
29.7288 3115 55.8122
29.8463 3137 56.0089
29.9638 3363 57.9914
30.0812 3429 58.5577
30.1987 3318 57.6021
30.3162 3668 60.564
30.4337 3686 60.7124
30.5512 3780 61.4817
30.6687 3763 61.3433
30.7862 3964 62.9603
30.9037 3740 61.1555
31.0212 3901 62.458
31.1387 3848 62.0322
31.2562 3757 61.2944
31.3737 3618 60.1498
31.4912 3335 57.7495
31.6087 3389 58.2151
31.7262 3372 58.0689
31.8436 3274 57.2189
31.9611 3205 56.6127
32.0785 3383 58.1636
32.1959 3465 58.8643
32.3134 3600 60
32.4308 3638 60.3158
32.5482 3573 59.7746
32.6655 3496 59.127
32.7829 3452 58.7537
32.9002 3288 57.3411
33.0176 3275 57.2276
33.1349 3362 57.9828
33.2522 3287 57.3324
33.3694 3243 56.9473
33.4867 3436 58.6174
33.6039 3598 59.9833
33.7211 3611 60.0916
33.8383 3749 61.2291
33.9554 3874 62.2415
34.0725 3853 62.0725
34.1896 3905 62.49
34.3067 3948 62.8331
34.4237 4073 63.8201
34.5407 4039 63.5531
34.6577 4023 63.4271
34.7746 4045 63.6003
34.8915 3877 62.2656
35.0084 3907 62.506
35.1252 3669 60.5723
35.242 3601 60.0083
35.3587 3552 59.5987
35.4755 3477 58.9661
35.5921 3364 58
35.7088 3455 58.7792
35.8254 3622 60.1831
35.9419 3581 59.8415
36.0584 3720 60.9918
36.1749 3808 61.709
36.2913 3769 61.3922
36.4077 3687 60.7207
36.524 3385 58.1808
36.6403 3532 59.4306
36.7565 3358 57.9483
36.8727 3405 58.3524
36.9889 3349 57.8705
37.1049 3291 57.3672
37.221 0 1
37.3369 0 1
37.4529 0 1
37.5687 0 1
37.6845 0 1
37.8003 0 1
37.916 0 1
38.0316 0 1
38.1472 0 1
40.5851 0 1
40.7008 0 1
40.8164 0 1
40.9322 0 1
41.048 0 1
41.1639 0 1
41.2798 0 1
41.3958 0 1
41.5118 0 1
41.6279 0 1
41.744 2882 53.6843
41.8602 2923 54.0648
41.9765 2932 54.1479
42.0928 2941 54.231
42.2091 3017 54.9272
42.3255 3085 55.5428
42.4419 3229 56.8243
42.5584 3318 57.6021
42.675 3528 59.397
42.7915 3458 58.8048
42.9081 3612 60.0999
43.0248 3652 60.4318
43.1415 3798 61.6279
43.2582 3776 61.4492
43.375 3718 60.9754
43.4918 3699 60.8194
43.6087 3713 60.9344
43.7256 3622 60.1831
43.8425 3526 59.3801
43.9595 3333 57.7321
44.0765 3316 57.5847
44.1935 3219 56.7362
44.3106 3010 54.8635
44.4277 2955 54.3599
44.5448 3094 55.6237
44.6619 3107 55.7405
44.7791 3112 55.7853
44.8963 3177 56.3649
45.0136 3025 55
45.1308 2918 54.0185
45.2481 2922 54.0555
45.3654 2772 52.6498
45.4827 2582 50.8134
45.6001 2588 50.8724
45.7174 2575 50.7445
45.8348 2632 51.303
45.9522 2740 52.345
46.0697 2743 52.3737
46.1871 2895 53.8052
46.3046 2989 54.6717
46.422 3114 55.8032
46.5395 3185 56.4358
46.657 3185 56.4358
46.7745 3341 57.8014
46.892 3221 56.7539
47.0096 3271 57.1927
47.1271 3123 55.8838
47.2446 3193 56.5066
47.3622 3113 55.7943
47.4797 2996 54.7357
47.5973 2796 52.8772
47.7149 2802 52.9339
47.8324 2739 52.3355
47.95 2678 51.7494
48.0675 2609 51.0784
48.1851 2621 51.1957
48.3027 2691 51.8748
48.4202 2666 51.6333
48.5378 2671 51.6817
48.6554 2590 50.892
48.7729 2539 50.3885
48.8904 2367 48.6518
49.008 2302 47.9792
49.1255 2162 46.4973
49.243 2223 47.1487
49.3605 2186 46.7547
49.478 2359 48.5695
49.5955 2526 50.2593
49.713 2660 51.5752
49.8304 2708 52.0384
49.9479 2827 53.1695
50.0653 3044 55.1725
50.1827 2981 54.5985
50.3001 3056 55.2811
50.4175 3100 55.6776
50.5348 3092 55.6058
50.6521 3121 55.8659
50.7694 3222 56.7627
50.8867 3122 55.8749
51.004 2984 54.626
51.1212 2959 54.3967
51.2384 3006 54.827
51.3556 2951 54.3231
51.4727 2935 54.1756
51.5899 2941 54.231
51.707 3066 55.3715
51.824 3298 57.4282
51.9411 3315 57.576
52.0581 3351 57.8878
52.175 3304 57.4804
52.2919 3288 57.3411
52.4088 3038 55.1181
52.5257 3067 55.3805
52.6425 3052 55.2449
52.7593 3018 54.9363
52.876 3038 55.1181
52.9927 3169 56.2939
53.1094 3554 59.6154
53.226 3750 61.2372
53.3426 3884 62.3217
53.4591 4271 65.3529
53.5756 4381 66.1891
53.692 4552 67.4685
53.8084 4463 66.8057
53.9248 4627 68.0221
54.0411 4769 69.0579
54.1573 4697 68.5347
54.2735 0 1
54.3896 0 1
54.5057 0 1
54.6217 0 1
54.7377 0 1
54.8537 0 1
54.9695 0 1
55.0853 0 1
55.2011 0 1
55.3168 0 1
55.4324 0 1
57.824 0 1
57.9396 0 1
58.0553 0 1
58.1711 0 1
58.2869 0 1
58.4028 0 1
58.5187 0 1
58.6347 0 1
58.7508 0 1
58.8669 0 1
58.983 5343 73.0958
59.0992 5705 75.5315
59.2155 5896 76.7854
59.3318 5723 75.6505
59.4482 5804 76.184
59.5646 5723 75.6505
59.681 5636 75.0733
59.7975 5565 74.5989
59.9141 5510 74.2294
60.0306 5368 73.2666
60.1473 5287 72.7118
60.2639 5299 72.7942
60.3807 5201 72.118
60.4974 5310 72.8697
60.6142 5308 72.856
60.731 5209 72.1734
60.8479 4806 69.3253
60.9648 4759 68.9855
61.0818 4479 66.9253
61.1987 4275 65.3835
61.3158 4156 64.467
61.4328 4126 64.2339
61.5499 4264 65.2993
61.667 4529 67.2978
61.7841 4710 68.6294
61.9013 5077 71.2531
62.0185 5134 71.6519
62.1357 5403 73.5051
62.253 5577 74.6793
62.3702 5661 75.2396
62.4875 5748 75.8156
62.6049 5873 76.6355
62.7222 5699 75.4917
62.8396 5781 76.0329
62.9569 5628 75.02
63.0743 5468 73.9459
63.1918 5521 74.3034
63.3092 5395 73.4507
63.4267 5200 72.111
63.5441 5251 72.4638
63.6616 5096 71.3863
63.7791 5124 71.5821
63.8966 5101 71.4213
64.0142 5189 72.0347
64.1317 5196 72.0833
64.2492 5073 71.225
64.3668 4828 69.4838
64.4843 4509 67.1491
64.6019 4401 66.34
64.7195 4186 64.6993
64.837 4027 63.4586
64.9546 3999 63.2376
65.0722 4001 63.2535
65.1898 4228 65.0231
65.3074 4690 68.4836
65.4249 4945 70.3207
65.5425 5044 71.0211
65.6601 5438 73.7428
65.7777 5462 73.9053
65.8952 5571 74.6391
66.0128 5675 75.3326
66.1304 5672 75.3127
66.2479 5904 76.8375
66.3655 5939 77.0649
66.483 5929 77
66.6005 5857 76.531
66.718 5779 76.0197
66.8355 5612 74.9133
66.953 5665 75.2662
67.0705 5507 74.2092
67.1879 5567 74.6123
67.3054 5426 73.6614
67.4228 5548 74.4849
67.5402 5478 74.0135
67.6576 5636 75.0733
67.7749 5394 73.4439
67.8923 5469 73.9527
68.0096 5291 72.7393
68.1269 4885 69.8928
68.2442 4727 68.7532
68.3614 4532 67.3201
68.4787 4349 65.9469
68.5958 4439 66.6258
68.713 4570 67.6018
68.8302 4820 69.4262
68.9473 5062 71.1477
69.0643 5488 74.081
69.1814 5804 76.184
69.2984 6311 79.4418
69.4154 6592 81.1911
69.5323 6609 81.2958
69.6492 6759 82.2131
69.7661 6923 83.2046
69.8829 7074 84.1071
69.9997 7005 83.6959
70.1165 7253 85.1645
70.2332 7284 85.3464
70.3499 7019 83.7795
70.4665 6993 83.6242
70.5831 6987 83.5883
70.6996 6929 83.2406
70.8161 6991 83.6122
70.9326 6768 82.2679
71.049 6722 81.9878
71.1653 6989 83.6002
71.2817 6705 81.8841
71.3979 6879 82.9397
71.5141 6611 81.3081
71.6303 5897 76.7919
71.7464 5117 71.5332
71.8624 0 1
71.9784 0 1
72.0944 0 1
72.2102 0 1
72.3261 0 1
72.4418 0 1
72.5575 0 1
72.6732 0 1
75.1054 0 1
75.2209 0 1
75.3365 0 1
75.4521 0 1
75.5678 0 1
75.6835 0 1
75.7993 0 1
75.9151 0 1
76.031 0 1
76.147 6869 82.8794
76.263 7204 84.8764
76.3791 7481 86.4928
76.4952 7780 88.2043
76.6113 7982 89.342
76.7276 8266 90.9175
76.8438 8074 89.8554
76.9601 7652 87.4757
77.0765 7106 84.2971
77.1929 6641 81.4923
77.3093 5770 75.9605
77.4258 5504 74.1889
77.5423 5444 73.7835
77.6589 5535 74.3976
77.7755 5857 76.531
77.8921 6426 80.1623
78.0088 6980 83.5464
78.1256 7627 87.3327
78.2423 8183 90.4599
78.3591 8561 92.5257
78.4759 8686 93.1987
78.5928 8940 94.5516
78.7097 8972 94.7206
78.8266 8869 94.1754
78.9436 9739 98.6864
79.0606 8972 94.7206
79.1776 8900 94.3398
79.2946 8785 93.7283
79.4117 8907 94.3769
79.5288 8787 93.739
79.6459 8752 93.5521
79.7631 8526 92.3363
79.8802 8248 90.8185
79.9974 8218 90.6532
80.1147 8324 91.236
80.2319 8357 91.4166
80.3491 8637 92.9355
80.4664 8715 93.3542
80.5837 8314 91.1811
80.701 7772 88.1589
80.8183 7019 83.7795
80.9357 6269 79.177
81.053 5818 76.2758
81.1704 5529 74.3572
81.2877 5469 73.9527
81.4051 5771 75.9671
81.5225 6084 78
81.6399 6913 83.1445
81.7573 7683 87.6527
81.8747 8101 90.0056
81.9922 8576 92.6067
82.1096 8752 93.5521
82.227 9217 96.0052
82.3444 8956 94.6361
82.4619 9099 95.3887
82.5793 9167 95.7445
82.6967 8979 94.7576
82.8142 8967 94.6942
82.9316 8774 93.6696
83.049 8748 93.5307
83.1664 8530 92.358
83.2838 8464 92
83.4012 8291 91.0549
83.5186 8211 90.6146
83.636 7951 89.1684
83.7534 8009 89.493
83.8708 8281 91
83.9881 8529 92.3526
84.1055 8363 91.4494
84.2228 8095 89.9722
84.3401 7497 86.5852
84.4575 6859 82.8191
84.5747 6320 79.4984
84.692 5756 75.8683
84.8093 5496 74.135
84.9265 5476 74
85.0437 5795 76.1249
85.1609 6457 80.3555
85.2781 7282 85.3346
85.3952 7900 88.8819
85.5123 8651 93.0108
85.6294 9311 96.4935
85.7465 9620 98.0816
85.8636 9985 99.925
85.9806 10276 101.371
86.0976 10499 102.465
86.2145 10469 102.318
86.3315 11028 105.014
86.4484 10446 102.206
86.5652 10720 103.537
86.682 10895 104.379
86.7988 10796 103.904
86.9156 10756 103.711
87.0323 10763 103.745
87.149 10584 102.879
87.2657 10827 104.053
87.3823 10911 104.456
87.4988 11227 105.958
87.6154 11584 107.629
87.7318 11233 105.986
87.8483 10728 103.576
87.9647 9891 99.4535
88.081 8924 94.4669
88.1973 8247 90.813
88.3136 7709 87.8009
88.4298 7478 86.4754
88.546 7551 86.8965
88.6621 8280 90.9945
88.7781 9151 95.6609
88.8942 0 1
89.0101 0 1
89.126 0 1
89.2419 0 1
89.3577 0 1
89.4734 0 1
89.5891 0 1
89.7047 0 1
89.8203 0 1
89.9358 0 1
92.3269 0 1
92.4424 0 1
92.558 0 1
92.6736 0 1
92.7893 0 1
92.905 0 1
93.0208 0 1
93.1366 0 1
93.2525 0 1
93.3685 0 1
93.4845 0 1
93.6005 8730 93.4345
93.7167 8518 92.293
93.8328 8652 93.0161
93.949 8702 93.2845
94.0653 9125 95.5249
94.1816 10236 101.173
94.2979 11125 105.475
94.4143 12054 109.791
94.5307 12891 113.539
94.6472 13489 116.142
94.7637 13712 117.098
94.8803 14135 118.891
94.9969 14648 121.029
95.1135 14448 120.2
95.2302 14559 120.661
95.3469 14561 120.669
95.4637 14402 120.008
95.5805 14650 121.037
95.6973 14357 119.821
95.8142 14336 119.733
95.9311 14324 119.683
96.048 14079 118.655
96.1649 13958 118.144
96.2819 13994 118.296
96.3989 13965 118.174
96.516 14360 119.833
96.633 13856 117.712
96.7501 14388 119.95
96.8673 14058 118.566
96.9844 13112 114.508
97.1016 11987 109.485
97.2188 10961 104.695
97.336 10171 100.851
97.4532 9226 96.0521
97.5704 8858 94.1169
97.6877 8989 94.8103
97.805 9528 97.6115
97.9223 10699 103.436
98.0396 11685 108.097
98.1569 12449 111.575
98.2743 13302 115.334
98.3916 14050 118.533
98.509 14680 121.161
98.6264 14715 121.305
98.7438 15118 122.955
98.8612 15190 123.248
98.9786 15019 122.552
99.096 15147 123.073
99.2134 14937 122.217
99.3308 15148 123.077
99.4482 14929 122.184
99.5656 14846 121.844
99.6831 14818 121.729
99.8005 14433 120.137
99.9179 14122 118.836
100.035 14672 121.128
100.153 14801 121.659
100.27 14883 121.996
100.388 14667 121.107
100.505 14314 119.641
100.622 13267 115.182
100.74 12183 110.377
100.857 11282 106.217
100.975 10259 101.287
101.092 9478 97.355
101.209 9143 95.619
101.327 9729 98.6357
101.444 10336 101.666
101.561 11617 107.782
101.679 12511 111.853
101.796 13804 117.49
101.913 14676 121.145
102.03 15300 123.693
102.148 15410 124.137
102.265 15191 123.252
102.382 16050 126.689
102.499 15600 124.9
102.616 15586 124.844
102.733 15444 124.274
102.851 15418 124.169
102.968 15504 124.515
103.085 15676 125.204
103.202 15273 123.584
103.319 15144 123.061
103.436 15035 122.617
103.552 15222 123.377
103.669 15377 124.004
103.786 15799 125.694
103.903 15818 125.77
104.02 15150 123.085
104.137 14437 120.154
104.253 13197 114.878
104.37 12083 109.923
104.487 11180 105.736
104.603 10297 101.474
104.72 10023 100.115
104.836 10170 100.846
104.953 11232 105.981
105.069 12120 110.091
105.186 13503 116.202
105.302 14582 120.756
105.418 15483 124.431
105.535 16284 127.609
105.651 16399 128.059
105.767 16794 129.592
105.883 16715 129.287
105.999 16621 128.922
106.115 0 1
106.231 0 1
106.347 0 1
106.463 0 1
106.579 0 1
106.694 0 1
106.81 0 1
106.926 0 1
107.041 0 1
107.157 0 1
109.576 0 1
109.692 0 1
109.807 0 1
109.923 0 1
110.039 0 1
110.155 0 1
110.27 0 1
110.386 0 1
110.502 0 1
110.618 14614 120.888
110.735 15032 122.605
110.851 15438 124.25
110.967 15459 124.334
111.083 15133 123.016
111.199 15173 123.179
111.316 15221 123.373
111.432 15320 123.774
111.549 15172 123.175
111.665 14878 121.975
111.782 14697 121.231
111.898 14578 120.739
112.015 14635 120.975
112.132 14845 121.84
112.248 14857 121.889
112.365 14874 121.959
112.482 13823 117.571
112.599 13675 116.94
112.716 12610 112.294
112.832 11668 108.019
112.949 10635 103.126
113.066 9595 97.9541
113.183 9210 95.9687
113.3 9464 97.2831
113.417 9415 97.0309
113.534 10338 101.676
113.652 11368 106.621
113.769 12388 111.301
113.886 13089 114.407
114.003 13567 116.477
114.12 13945 118.089
114.238 14003 118.334
114.355 14040 118.491
114.472 14102 118.752
114.589 14116 118.811
114.707 13707 117.077
114.824 13482 116.112
114.942 13908 117.932
115.059 14137 118.899
115.176 13934 118.042
115.294 13952 118.119
115.411 13422 115.853
115.529 13560 116.447
115.646 13700 117.047
115.764 14098 118.735
115.881 14010 118.364
115.999 13909 117.936
116.116 13292 115.291
116.234 12760 112.96
116.351 11873 108.963
116.469 11072 105.224
116.586 10071 100.354
116.704 9453 97.2265
116.821 9209 95.9635
116.939 9309 96.4832
117.056 9499 97.4628
117.174 10193 100.96
117.291 11194 105.802
117.409 11960 109.362
117.526 12799 113.133
117.644 13349 115.538
117.761 13429 115.884
117.879 13594 116.593
117.996 13766 117.329
118.114 13270 115.195
118.231 13202 114.9
118.349 13143 114.643
118.466 13303 115.339
118.584 13652 116.842
118.701 13604 116.636
118.819 13604 116.636
118.936 13228 115.013
119.053 12926 113.693
119.171 12778 113.04
119.288 13318 115.404
119.405 13082 114.377
119.523 13414 115.819
119.64 13177 114.791
119.757 12732 112.836
119.875 12116 110.073
119.992 11515 107.308
120.109 10764 103.75
120.226 10056 100.28
120.343 9355 96.7212
120.46 8992 94.8262
120.578 8960 94.6573
120.695 9178 95.8019
120.812 9509 97.5141
120.929 10259 101.287
121.046 10972 104.747
121.163 11747 108.384
121.279 12104 110.018
121.396 12780 113.049
121.513 12749 112.911
121.63 13002 114.026
121.747 13006 114.044
121.863 12807 113.168
121.98 12421 111.45
122.097 12380 111.265
122.213 12325 111.018
122.33 12388 111.301
122.446 12679 112.601
122.563 12513 111.862
122.679 12356 111.158
122.795 11959 109.357
122.912 12169 110.313
123.028 12156 110.254
123.144 12377 111.252
123.26 12177 110.349
123.377 0 1
123.493 0 1
123.609 0 1
123.725 0 1
123.84 0 1
123.956 0 1
124.072 0 1
124.188 0 1
124.303 0 1
124.419 0 1
126.852 0 1
126.968 0 1
127.083 0 1
127.199 0 1
127.315 0 1
127.431 0 1
127.547 0 1
127.663 0 1
127.779 0 1
127.895 0 1
128.011 0 1
128.127 0 1
128.243 0 1
128.359 12909 113.618
128.476 13006 114.044
128.592 12679 112.601
128.708 12456 111.606
128.825 12128 110.127
128.941 11527 107.364
129.058 10649 103.194
129.174 10082 100.409
129.291 9803 99.0101
129.408 9665 98.3107
129.524 9684 98.4073
129.641 9876 99.3781
129.758 10452 102.235
129.875 10894 104.374
129.992 11500 107.238
130.108 11986 109.481
130.225 12435 111.512
130.342 12448 111.571
130.459 12204 110.472
130.576 12633 112.397
130.693 12219 110.54
130.81 12037 109.713
130.928 11829 108.761
131.045 12308 110.941
131.162 12493 111.772
131.279 12767 112.991
131.396 12662 112.526
131.513 12430 111.49
131.631 12507 111.835
131.748 12666 112.543
131.865 12627 112.37
131.983 12669 112.557
132.1 12654 112.49
132.217 12068 109.854
132.335 11708 108.204
132.452 11114 105.423
132.57 10664 103.267
132.687 9825 99.1211
132.804 9773 98.8585
132.922 9454 97.2317
133.039 9193 95.8801
133.157 9444 97.1802
133.274 9806 99.0252
133.392 10327 101.622
133.509 11009 104.924
133.627 11250 106.066
133.744 11595 107.68
133.862 12049 109.768
133.979 11909 109.128
134.097 11762 108.453
134.214 11438 106.949
134.332 11320 106.395
134.449 11224 105.943
134.567 11385 106.701
134.684 11905 109.11
134.802 11863 108.917
134.919 11966 109.389
135.037 11797 108.614
135.154 11918 109.17
135.272 11946 109.298
135.389 11828 108.757
135.507 11966 109.389
135.624 11845 108.835
135.742 11731 108.31
135.859 11400 106.771
135.977 11223 105.939
136.094 10706 103.47
136.211 10158 100.787
136.329 9709 98.5343
136.446 9438 97.1494
136.564 9184 95.8332
136.681 9088 95.331
136.798 9221 96.026
136.915 9649 98.2293
137.033 9964 99.8198
137.15 10335 101.661
137.267 10522 102.577
137.384 10817 104.005
137.502 11109 105.399
137.619 11034 105.043
137.736 11091 105.314
137.853 10674 103.315
137.97 10581 102.864
138.087 10610 103.005
138.204 10673 103.31
138.321 11109 105.399
138.438 11228 105.962
138.555 11489 107.187
138.672 11508 107.275
138.788 11427 106.897
138.905 11349 106.532
139.022 11652 107.944
139.139 11481 107.149
139.255 11468 107.089
139.372 11367 106.616
139.488 11146 105.575
139.605 10917 104.484
139.721 10343 101.701
139.838 10059 100.295
139.954 9544 97.6934
140.071 9302 96.4469
140.187 9185 95.8384
140.303 8902 94.3504
140.419 8907 94.3769
140.535 9130 95.551
140.652 9260 96.2289
140.768 0 1
140.884 0 1
141 0 1
141.115 0 1
141.231 0 1
141.347 0 1
141.463 0 1
141.578 0 1
141.694 0 1
144.104 0 1
144.219 0 1
144.335 0 1
144.45 0 1
144.566 0 1
144.682 0 1
144.798 0 1
144.914 0 1
145.03 0 1
145.146 6137 78.339
145.262 6639 81.4801
145.378 6878 82.9337
145.494 7105 84.2912
145.61 7248 85.1352
145.726 7094 84.2259
145.842 7525 86.7468
145.959 7715 87.8351
146.075 8006 89.4763
146.192 7829 88.4816
146.308 7954 89.1852
146.425 7972 89.2861
146.541 7869 88.7074
146.658 7765 88.1192
146.774 7672 87.59
146.891 7683 87.6527
147.008 7805 88.3459
147.125 7958 89.2076
147.241 8209 90.6035
147.358 8266 90.9175
147.475 8270 90.9395
147.592 8482 92.0978
147.709 8488 92.1303
147.826 8571 92.5797
147.943 8478 92.0761
148.06 8351 91.3838
148.177 8237 90.7579
148.294 8344 91.3455
148.411 8134 90.1887
148.528 7848 88.5889
148.645 7677 87.6185
148.762 7739 87.9716
148.88 7194 84.8175
148.997 7046 83.9405
149.114 7379 85.9011
149.231 7011 83.7317
149.349 7242 85.0999
149.466 7567 86.9885
149.583 7443 86.2728
149.701 7807 88.3572
149.818 7879 88.7637
149.935 7896 88.8594
150.053 8075 89.861
150.17 7813 88.3912
150.287 7889 88.82
150.405 7751 88.0398
150.522 7653 87.4814
150.64 7789 88.2553
150.757 7831 88.4929
150.875 8049 89.7162
150.992 8181 90.4489
151.11 8490 92.1412
151.227 8346 91.3564
151.344 8474 92.0543
151.462 8544 92.4338
151.579 8707 93.3113
151.697 8559 92.5149
151.814 8380 91.5423
151.932 8297 91.0879
152.049 8200 90.5539
152.167 7968 89.2637
152.284 7819 88.4251
152.402 7692 87.704
152.519 7451 86.3192
152.636 7321 85.5628
152.754 7158 84.605
152.871 7332 85.6271
152.989 7296 85.4166
153.106 7455 86.3423
153.223 7691 87.6983
153.341 7813 88.3912
153.458 7935 89.0786
153.575 8035 89.6382
153.693 8080 89.8888
153.81 8091 89.95
153.927 7680 87.6356
154.044 7897 88.8651
154.162 7516 86.6949
154.279 7884 88.7919
154.396 7968 89.2637
154.513 8289 91.0439
154.63 8519 92.2984
154.747 8588 92.6715
154.864 8786 93.7337
154.981 8723 93.397
155.098 8873 94.1966
155.215 8760 93.5949
155.332 8673 93.1289
155.449 8514 92.2713
155.566 8557 92.5041
155.683 8064 89.7998
155.8 8120 90.111
155.917 8013 89.5154
156.033 8042 89.6772
156.15 0 1
156.267 0 1
156.383 0 1
156.5 0 1
156.617 0 1
156.733 0 1
156.85 0 1
156.966 0 1
157.082 0 1
157.199 0 1
157.315 0 1
157.431 0 1
157.547 0 1
157.664 0 1
157.78 0 1
157.896 0 1
158.012 0 1
158.128 0 1
158.244 0 1
158.359 0 1
158.475 0 1
158.591 0 1
158.706 0 1
