
6.15755 0 1
6.2731 0 1
6.3887 0 1
6.50437 0 1
6.62009 0 1
6.73587 0 1
6.8517 0 1
6.96759 0 1
7.08353 0 1
7.19952 0 1
7.31557 0 1
7.43166 0 1
7.54781 0 1
7.664 0 1
7.78024 0 1
7.89653 0 1
8.01286 0 1
8.12924 0 1
8.24567 0 1
8.36213 0 1
8.47864 0 1
8.59519 0 1
8.71178 0 1
8.82841 0 1
8.94508 0 1
9.06179 0 1
9.17853 0 1
9.29531 0 1
9.41212 0 1
9.52897 0 1
9.64584 0 1
9.76276 0 1
9.8797 0 1
9.99667 0 1
10.1137 0 1
10.2307 0 1
10.3478 0 1
10.4648 0 1
10.5819 0 1
10.6991 0 1
10.8162 0 1
10.9334 0 1
11.0506 0 1
11.1678 0 1
11.285 0 1
11.4023 0 1
11.5196 0 1
11.6369 0 1
11.7542 0 1
11.8715 0 1
11.9888 0 1
12.1062 0 1
12.2235 0 1
12.3409 0 1
12.4582 0 1
12.5756 0 1
12.693 0 1
12.8104 0 1
12.9278 0 1
13.0452 0 1
13.1626 0 1
13.28 0 1
13.3974 0 1
13.5149 0 1
13.6323 0 1
13.7497 0 1
13.8671 0 1
13.9845 0 1
14.1019 0 1
14.2193 0 1
14.3367 0 1
14.4541 0 1
14.5714 0 1
14.6888 0 1
14.8062 0 1
14.9235 0 1
15.0408 0 0
15.1581 0 0
15.2755 0 0
15.3927 0 0
15.51 0 0
15.6273 0 0
15.7445 0 0
15.8617 0 0
15.9789 0 0
16.0961 0 0
16.2132 0 0
16.3304 0 0
16.4475 0 0
16.5646 0 0
16.6816 0 0
16.7986 0 0
16.9156 0 0
17.0326 0 0
17.1496 0 0
17.2665 0 0
17.3833 0 0
17.5002 0 0
17.617 0 0
17.7338 0 0
17.8505 0 0
17.9672 0 0
18.0839 0 0
18.2005 0 0
18.3171 0 0
18.4337 0 0
18.5502 0 0
18.6666 0 0
18.7831 0 0
18.8994 0 0
19.0158 0 0
19.1321 0 0
19.2483 0 0
19.3645 0 0
19.4806 0 0
19.5967 0 0
19.7128 0 0
19.8288 0 0
19.9447 0 0
20.0606 0 1
20.1764 0 1
20.2922 0 1
20.4079 0 1
20.5236 0 1
20.6392 0 1
20.7548 0 1
20.8702 0 1
23.3078 0 1
23.4233 0 1
23.539 0 1
23.6547 0 1
23.7704 0 1
23.8862 0 1
24.0021 0 1
24.118 0 1
24.234 0 1
24.35 0 1
24.4661 7529 86.7698
24.5822 7787 88.244
24.6984 8374 91.5096
24.8146 8682 93.1773
24.9309 9420 97.0567
25.0472 9878 99.3881
25.1636 10153 100.762
25.28 10678 103.334
25.3965 11276 106.189
25.513 11600 107.703
25.6296 12354 111.149
25.7462 12730 112.827
25.8628 13272 115.204
25.9795 13111 114.503
26.0962 13161 114.721
26.213 13202 114.9
26.3298 13124 114.56
26.4466 13042 114.202
26.5635 13295 115.304
26.6804 13658 116.867
26.7973 13925 118.004
26.9143 14022 118.415
27.0313 14025 118.427
27.1483 14329 119.704
27.2653 14546 120.607
27.3824 14569 120.702
27.4996 14659 121.074
27.6167 14270 119.457
27.7339 14137 118.899
27.8511 14188 119.113
27.9683 13501 116.194
28.0855 13469 116.056
28.2028 13088 114.403
28.3201 12719 112.779
28.4374 12439 111.53
28.5547 12129 110.132
28.6721 12310 110.95
28.7894 12434 111.508
28.9068 12315 110.973
29.0242 12214 110.517
29.1416 11940 109.27
29.259 11840 108.812
29.3764 11808 108.665
29.4939 12022 109.645
29.6113 12152 110.236
29.7288 12417 111.432
29.8463 12675 112.583
29.9638 12794 113.111
30.0812 13048 114.228
30.1987 13308 115.36
30.3162 13824 117.576
30.4337 14000 118.322
30.5512 14025 118.427
30.6687 14334 119.725
30.7862 14466 120.275
30.9037 14628 120.946
31.0212 14568 120.698
31.1387 14425 120.104
31.2562 14177 119.067
31.3737 14096 118.727
31.4912 13688 116.996
31.6087 13290 115.282
31.7262 13157 114.704
31.8436 12576 112.143
31.9611 12340 111.086
32.0785 12199 110.449
32.1959 12130 110.136
32.3134 12272 110.779
32.4308 11862 108.913
32.5482 12139 110.177
32.6655 11954 109.334
32.7829 11604 107.722
32.9002 11663 107.995
33.0176 11786 108.563
33.1349 11860 108.904
33.2522 12113 110.059
33.3694 12082 109.918
33.4867 12731 112.832
33.6039 12715 112.761
33.7211 13196 114.874
33.8383 13709 117.085
33.9554 13973 118.207
34.0725 14160 118.996
34.1896 14399 119.996
34.3067 14533 120.553
34.4237 14529 120.536
34.5407 14532 120.549
34.6577 14612 120.88
34.7746 14291 119.545
34.8915 14276 119.482
35.0084 14006 118.347
35.1252 13703 117.06
35.242 13484 116.121
35.3587 13185 114.826
35.4755 12835 113.292
35.5921 12384 111.283
35.7088 11937 109.257
35.8254 11865 108.927
35.9419 11619 107.791
36.0584 11324 106.414
36.1749 11030 105.024
36.2913 10686 103.373
36.4077 10471 102.328
36.524 9929 99.6444
36.6403 9756 98.7725
36.7565 9431 97.1133
36.8727 9100 95.3939
36.9889 9174 95.781
37.1049 8976 94.7418
37.221 0 1
37.3369 0 1
37.4529 0 1
37.5687 0 1
37.6845 0 1
37.8003 0 1
37.916 0 1
38.0316 0 1
38.1472 0 1
40.5851 0 1
40.7008 0 1
40.8164 0 1
40.9322 0 1
41.048 0 1
41.1639 0 1
41.2798 0 1
41.3958 0 1
41.5118 0 1
41.6279 0 1
41.744 6683 81.7496
41.8602 7114 84.3445
41.9765 7441 86.2612
42.0928 7752 88.0454
42.2091 8292 91.0604
42.3255 8674 93.1343
42.4419 8801 93.8136
42.5584 9496 97.4474
42.675 9739 98.6864
42.7915 10549 102.708
42.9081 11127 105.485
43.0248 11456 107.033
43.1415 11992 109.508
43.2582 12406 111.382
43.375 12428 111.481
43.4918 12774 113.022
43.6087 13019 114.101
43.7256 13005 114.039
43.8425 13114 114.516
43.9595 13189 114.843
44.0765 13091 114.416
44.1935 12872 113.455
44.3106 12711 112.743
44.4277 12255 110.702
44.5448 12043 109.741
44.6619 11657 107.968
44.7791 11789 108.577
44.8963 11466 107.079
45.0136 11331 106.447
45.1308 11268 106.151
45.2481 10928 104.537
45.3654 10754 103.701
45.4827 10705 103.465
45.6001 10419 102.074
45.7174 10602 102.966
45.8348 10795 103.899
45.9522 11150 105.594
46.0697 11430 106.911
46.1871 11843 108.826
46.3046 12540 111.982
46.422 13086 114.394
46.5395 13441 115.935
46.657 13897 117.886
46.7745 14298 119.574
46.892 14720 121.326
47.0096 14909 122.102
47.1271 15059 122.715
47.2446 14810 121.696
47.3622 15196 123.272
47.4797 14745 121.429
47.5973 14959 122.307
47.7149 14649 121.033
47.8324 14412 120.05
47.95 13711 117.094
48.0675 13418 115.836
48.1851 13009 114.057
48.3027 12521 111.897
48.4202 12370 111.221
48.5378 12264 110.743
48.6554 11929 109.22
48.7729 11963 109.375
48.8904 11654 107.954
49.008 11297 106.287
49.1255 10989 104.828
49.243 10536 102.645
49.3605 10911 104.456
49.478 11299 106.297
49.5955 11642 107.898
49.713 12209 110.494
49.8304 12676 112.588
49.9479 13562 116.456
50.0653 14278 119.491
50.1827 15099 122.878
50.3001 15612 124.948
50.4175 16216 127.342
50.5348 16339 127.824
50.6521 16500 128.452
50.7694 16108 126.917
50.8867 16317 127.738
51.004 16675 129.132
51.1212 16624 128.934
51.2384 16118 126.957
51.3556 15571 124.784
51.4727 15156 123.11
51.5899 14117 118.815
51.707 13542 116.37
51.824 12970 113.886
51.9411 12708 112.73
52.0581 12217 110.531
52.175 12014 109.608
52.2919 11426 106.892
52.4088 11105 105.38
52.5257 10409 102.025
52.6425 9633 98.1478
52.7593 9393 96.9175
52.876 9195 95.8906
52.9927 9472 97.3242
53.1094 9514 97.5397
53.226 9787 98.9293
53.3426 10131 100.653
53.4591 10761 103.735
53.5756 11327 106.428
53.692 11976 109.435
53.8084 12695 112.672
53.9248 12756 112.942
54.0411 12717 112.77
54.1573 12011 109.595
54.2735 0 1
54.3896 0 1
54.5057 0 1
54.6217 0 1
54.7377 0 1
54.8537 0 1
54.9695 0 1
55.0853 0 1
55.2011 0 1
55.3168 0 1
55.4324 0 1
57.824 0 1
57.9396 0 1
58.0553 0 1
58.1711 0 1
58.2869 0 1
58.4028 0 1
58.5187 0 1
58.6347 0 1
58.7508 0 1
58.8669 0 1
58.983 10876 104.288
59.0992 11962 109.371
59.2155 12628 112.374
59.3318 13403 115.771
59.4482 14845 121.84
59.5646 15654 125.116
59.681 16193 127.252
59.7975 16715 129.287
59.9141 16313 127.722
60.0306 16129 127
60.1473 15610 124.94
60.2639 15207 123.317
60.3807 14915 122.127
60.4974 14455 120.229
60.6142 14276 119.482
60.731 14017 118.393
60.8479 13776 117.371
60.9648 14002 118.33
61.0818 14095 118.722
61.1987 13984 118.254
61.3158 13659 116.872
61.4328 13036 114.175
61.5499 12665 112.539
61.667 12873 113.459
61.7841 13546 116.387
61.9013 13929 118.021
62.0185 14745 121.429
62.1357 15816 125.762
62.253 16849 129.804
62.3702 17890 133.754
62.4875 19243 138.719
62.6049 20991 144.883
62.7222 21441 146.427
62.8396 22152 148.835
62.9569 22940 151.46
63.0743 23324 152.722
63.1918 23389 152.935
63.3092 22923 151.403
63.4267 21884 147.932
63.5441 20768 144.111
63.6616 19821 140.787
63.7791 18670 136.638
63.8966 17732 133.162
64.0142 16763 129.472
64.1317 15842 125.865
64.2492 14984 122.409
64.3668 13999 118.317
64.4843 13779 117.384
64.6019 13746 117.243
64.7195 13778 117.38
64.837 13394 115.732
64.9546 12506 111.83
65.0722 12504 111.821
65.1898 12593 112.219
65.3074 12906 113.605
65.4249 13386 115.698
65.5425 14004 118.338
65.6601 14723 121.338
65.7777 15987 126.44
65.8952 17335 131.662
66.0128 18697 136.737
66.1304 20493 143.154
66.2479 21343 146.092
66.3655 22374 149.579
66.483 23288 152.604
66.6005 23125 152.069
66.718 23460 153.167
66.8355 23137 152.109
66.953 22483 149.943
67.0705 21736 147.431
67.1879 20250 142.302
67.3054 19063 138.069
67.4228 17509 132.322
67.5402 16143 127.055
67.6576 14858 121.893
67.7749 13785 117.41
67.8923 13215 114.957
68.0096 13032 114.158
68.1269 13308 115.36
68.2442 14337 119.737
68.3614 14427 120.112
68.4787 14028 118.44
68.5958 13085 114.39
68.713 12421 111.45
68.8302 12463 111.638
68.9473 12321 111
69.0643 12147 110.213
69.1814 12153 110.241
69.2984 12484 111.732
69.4154 13114 114.516
69.5323 13887 117.843
69.6492 14884 122
69.7661 16690 129.19
69.8829 18143 134.696
69.9997 18703 136.759
70.1165 18747 136.92
70.2332 18416 135.706
70.3499 18390 135.61
70.4665 17698 133.034
70.5831 16875 129.904
70.6996 16098 126.878
70.8161 15344 123.871
70.9326 14602 120.839
71.049 13070 114.324
71.1653 11873 108.963
71.2817 11107 105.39
71.3979 10051 100.255
71.5141 9359 96.7419
71.6303 9001 94.8736
71.7464 8371 91.4932
71.8624 0 1
71.9784 0 1
72.0944 0 1
72.2102 0 1
72.3261 0 1
72.4418 0 1
72.5575 0 1
72.6732 0 1
75.1054 0 1
75.2209 0 1
75.3365 0 1
75.4521 0 1
75.5678 0 1
75.6835 0 1
75.7993 0 1
75.9151 0 1
76.031 0 1
76.147 11077 105.247
76.263 10902 104.413
76.3791 10347 101.72
76.4952 9435 97.1339
76.6113 8700 93.2738
76.7276 8482 92.0978
76.8438 8298 91.0934
76.9601 8560 92.5203
77.0765 8884 94.255
77.1929 10241 101.198
77.3093 11530 107.378
77.4258 12126 110.118
77.5423 11917 109.165
77.6589 11513 107.299
77.7755 11527 107.364
77.8921 11327 106.428
78.0088 11203 105.844
78.1256 11679 108.069
78.2423 11938 109.261
78.3591 12566 112.098
78.4759 13522 116.284
78.5928 14674 121.136
78.7097 16743 129.395
78.8266 19015 137.895
78.9436 19810 140.748
79.0606 20502 143.185
79.1776 20951 144.745
79.2946 21124 145.341
79.4117 21678 147.235
79.5288 21107 145.282
79.6459 20480 143.108
79.7631 19044 138
79.8802 17272 131.423
79.9974 15683 125.232
80.1147 14462 120.258
80.2319 13585 116.555
80.3491 12626 112.365
80.4664 12316 110.977
80.5837 12030 109.681
80.701 11769 108.485
80.8183 12328 111.032
80.9357 13300 115.326
81.053 14355 119.812
81.1704 14049 118.528
81.2877 13337 115.486
81.4051 12748 112.907
81.5225 12357 111.162
81.6399 11917 109.165
81.7573 11938 109.261
81.8747 12638 112.419
81.9922 12783 113.062
82.1096 14168 119.029
82.227 15439 124.254
82.3444 17940 133.94
82.4619 20036 141.549
82.5793 21419 146.352
82.6967 21774 147.56
82.8142 22279 149.262
82.9316 22680 150.599
83.049 22273 149.241
83.1664 22422 149.74
83.2838 21023 144.993
83.4012 18929 137.583
83.5186 17496 132.272
83.636 16196 127.264
83.7534 15252 123.499
83.8708 14141 118.916
83.9881 13371 115.633
84.1055 12696 112.677
84.2228 12318 110.986
84.3401 12046 109.754
84.4575 13186 114.83
84.5747 14882 121.992
84.692 16381 127.988
84.8093 16043 126.661
84.9265 14876 121.967
85.0437 13439 115.927
85.1609 12771 113.009
85.2781 12570 112.116
85.3952 12523 111.906
85.5123 12786 113.075
85.6294 13174 114.778
85.7465 14035 118.469
85.8636 15418 124.169
85.9806 17038 130.53
86.0976 18933 137.597
86.2145 20666 143.757
86.3315 20764 144.097
86.4484 20787 144.177
86.5652 20646 143.687
86.682 20355 142.671
86.7988 20080 141.704
86.9156 19189 138.524
87.0323 17764 133.282
87.149 16505 128.472
87.2657 15865 125.956
87.3823 14654 121.054
87.4988 13600 116.619
87.6154 12743 112.885
87.7318 12228 110.58
87.8483 11745 108.374
87.9647 11729 108.301
88.081 11957 109.348
88.1973 12568 112.107
88.3136 12468 111.66
88.4298 11042 105.081
88.546 9047 95.1157
88.6621 7522 86.7295
88.7781 6550 80.9321
88.8942 0 1
89.0101 0 1
89.126 0 1
89.2419 0 1
89.3577 0 1
89.4734 0 1
89.5891 0 1
89.7047 0 1
89.8203 0 1
89.9358 0 1
92.3269 0 1
92.4424 0 1
92.558 0 1
92.6736 0 1
92.7893 0 1
92.905 0 1
93.0208 0 1
93.1366 0 1
93.2525 0 1
93.3685 0 1
93.4845 0 1
93.6005 8035 89.6382
93.7167 10319 101.582
93.8328 12119 110.086
93.949 13168 114.752
94.0653 13225 115
94.1816 13345 115.521
94.2979 13073 114.337
94.4143 13047 114.223
94.5307 13156 114.7
94.6472 13429 115.884
94.7637 13920 117.983
94.8803 15048 122.67
94.9969 16187 127.228
95.1135 17570 132.552
95.2302 19564 139.871
95.3469 20923 144.648
95.4637 22867 151.218
95.5805 23564 153.506
95.6973 23985 154.871
95.8142 23721 154.016
95.9311 23485 153.248
96.048 23058 151.849
96.1649 21606 146.99
96.2819 19441 139.431
96.3989 17999 134.16
96.516 16512 128.499
96.633 15613 124.952
96.7501 14504 120.433
96.8673 13558 116.439
96.9844 12628 112.374
97.1016 12438 111.526
97.2188 12656 112.499
97.336 13785 117.41
97.4532 16146 127.067
97.5704 17726 133.139
97.6877 17688 132.996
97.805 16341 127.832
97.9223 15158 123.118
98.0396 14159 118.992
98.1569 14190 119.122
98.2743 13812 117.524
98.3916 14399 119.996
98.509 15563 124.752
98.6264 16443 128.23
98.7438 17954 133.993
98.8612 19581 139.932
98.9786 21738 147.438
99.096 23820 154.337
99.2134 24318 155.942
99.3308 24959 157.984
99.4482 25319 159.119
99.5656 25803 160.633
99.6831 25506 159.706
99.8005 23851 154.438
99.9179 21274 145.856
100.035 19345 139.086
100.153 18063 134.399
100.27 17221 131.229
100.388 15437 124.246
100.505 14072 118.625
100.622 12951 113.802
100.74 13153 114.687
100.857 13589 116.572
100.975 15648 125.092
101.092 17681 132.97
101.209 18495 135.996
101.327 17725 133.135
101.444 16329 127.785
101.561 15766 125.563
101.679 15761 125.543
101.796 15577 124.808
101.913 15694 125.276
102.03 16319 127.746
102.148 17803 133.428
102.265 19119 138.271
102.382 21582 146.908
102.499 23065 151.872
102.616 24533 156.63
102.733 24993 158.092
102.851 25727 160.396
102.968 25865 160.826
103.085 26329 162.262
103.202 26661 163.282
103.319 24637 156.962
103.436 22197 148.987
103.552 20122 141.852
103.669 18724 136.836
103.786 17302 131.537
103.903 15264 123.548
104.02 13992 118.288
104.137 13504 116.207
104.253 13203 114.904
104.37 13326 115.438
104.487 14664 121.095
104.603 15957 126.321
104.72 15586 124.844
104.836 14251 119.378
104.953 12333 111.054
105.069 11580 107.61
105.186 11155 105.617
105.302 10958 104.68
105.418 11007 104.914
105.535 10753 103.697
105.651 10781 103.832
105.767 11272 106.17
105.883 11956 109.343
105.999 12489 111.754
106.115 0 1
106.231 0 1
106.347 0 1
106.463 0 1
106.579 0 1
106.694 0 1
106.81 0 1
106.926 0 1
107.041 0 1
107.157 0 1
109.576 0 1
109.692 0 1
109.807 0 1
109.923 0 1
110.039 0 1
110.155 0 1
110.27 0 1
110.386 0 1
110.502 0 1
110.618 10638 103.141
110.735 12251 110.684
110.851 13382 115.681
110.967 14454 120.225
111.083 15686 125.244
111.199 16846 129.792
111.316 18016 134.224
111.432 18628 136.484
111.549 19319 138.993
111.665 19992 141.393
111.782 20102 141.782
111.898 19342 139.076
112.015 17685 132.985
112.132 16554 128.662
112.248 15685 125.24
112.365 14575 120.727
112.482 14091 118.706
112.599 13186 114.83
112.716 12714 112.756
112.832 12376 111.247
112.949 11983 109.467
113.066 13099 114.451
113.183 14725 121.347
113.3 15700 125.3
113.417 15386 124.04
113.534 14870 121.943
113.652 14748 121.441
113.769 15048 122.67
113.886 14881 121.988
114.003 15369 123.972
114.12 15425 124.197
114.238 16764 129.476
114.355 18130 134.648
114.472 20259 142.334
114.589 20609 143.558
114.707 22846 151.149
114.824 24062 155.119
114.942 24154 155.416
115.059 24532 156.627
115.176 24480 156.461
115.294 24328 155.974
115.411 23500 153.297
115.529 22112 148.701
115.646 19662 140.221
115.764 17977 134.078
115.881 16573 128.736
115.999 15431 124.222
116.116 14444 120.183
116.234 13487 116.134
116.351 13065 114.302
116.469 12533 111.951
116.586 12596 112.232
116.704 14100 118.743
116.821 15187 123.236
116.939 15487 124.447
117.056 15049 122.674
117.174 15074 122.776
117.291 15069 122.756
117.409 15267 123.56
117.526 15308 123.726
117.644 15713 125.352
117.761 16636 128.981
117.879 17944 133.955
117.996 18929 137.583
118.114 20778 144.146
118.231 22245 149.148
118.349 23017 151.714
118.466 23362 152.846
118.584 23557 153.483
118.701 23550 153.46
118.819 23692 153.922
118.936 23167 152.207
119.053 22585 150.283
119.171 20642 143.673
119.288 18812 137.157
119.405 17820 133.492
119.523 16466 128.32
119.64 15446 124.282
119.757 14334 119.725
119.875 13594 116.593
119.992 12778 113.04
120.109 12743 112.885
120.226 12353 111.144
120.343 13163 114.73
120.46 14261 119.419
120.578 14567 120.694
120.695 14184 119.097
120.812 14311 119.629
120.929 13731 117.179
121.046 14151 118.958
121.163 14036 118.474
121.279 14547 120.611
121.396 14916 122.131
121.513 15800 125.698
121.63 16771 129.503
121.747 17969 134.048
121.863 18190 134.87
121.98 19137 138.337
122.097 19453 139.474
122.213 18952 137.666
122.33 18801 137.117
122.446 18369 135.532
122.563 17877 133.705
122.679 17123 130.855
122.795 15733 125.431
122.912 14504 120.433
123.028 13058 114.272
123.144 11628 107.833
123.26 10705 103.465
123.377 0 1
123.493 0 1
123.609 0 1
123.725 0 1
123.84 0 1
123.956 0 1
124.072 0 1
124.188 0 1
124.303 0 1
124.419 0 1
126.852 0 1
126.968 0 1
127.083 0 1
127.199 0 1
127.315 0 1
127.431 0 1
127.547 0 1
127.663 0 1
127.779 0 1
127.895 0 1
128.011 0 1
128.127 0 1
128.243 0 1
128.359 18806 137.135
128.476 18528 136.118
128.592 17939 133.937
128.708 17456 132.121
128.825 16997 130.373
128.941 16295 127.652
129.058 15845 125.877
129.174 15646 125.084
129.291 15275 123.592
129.408 15719 125.375
129.524 17016 130.445
129.641 17761 133.27
129.758 18270 135.167
129.875 18330 135.388
129.992 19224 138.651
130.108 19830 140.819
130.225 20088 141.732
130.342 20783 144.163
130.459 21539 146.762
130.576 22120 148.728
130.693 23383 152.915
130.81 24455 156.381
130.928 25321 159.126
131.045 25949 161.087
131.162 26046 161.388
131.279 26319 162.231
131.396 26139 161.676
131.513 25972 161.158
131.631 25688 160.275
131.748 25124 158.506
131.865 24311 155.92
131.983 23388 152.931
132.1 22263 149.208
132.217 21438 146.417
132.335 20764 144.097
132.452 19565 139.875
132.57 18662 136.609
132.687 18572 136.279
132.804 17449 132.095
132.922 17147 130.947
133.039 18160 134.759
133.157 18943 137.634
133.274 19463 139.51
133.392 20204 142.141
133.509 20904 144.582
133.627 21565 146.85
133.744 21738 147.438
133.862 21707 147.333
133.979 22534 150.113
134.097 23270 152.545
134.214 24233 155.67
134.332 24873 157.712
134.449 25691 160.284
134.567 25613 160.041
134.684 25843 160.758
134.802 26121 161.62
134.919 26085 161.509
135.037 26114 161.598
135.154 25726 160.393
135.272 25608 160.025
135.389 25092 158.405
135.507 24545 156.668
135.624 23603 153.633
135.742 22762 150.871
135.859 22026 148.412
135.977 21251 145.777
136.094 20399 142.825
136.211 19524 139.728
136.329 19240 138.708
136.446 18691 136.715
136.564 19007 137.866
136.681 19501 139.646
136.798 20090 141.739
136.915 20539 143.314
137.033 21117 145.317
137.15 21881 147.922
137.267 21983 148.267
137.384 22244 149.144
137.502 22394 149.646
137.619 22934 151.44
137.736 23245 152.463
137.853 23090 151.954
137.97 23870 154.499
138.087 25017 158.168
138.204 24339 156.01
138.321 24427 156.291
138.438 23785 154.224
138.555 23705 153.964
138.672 23042 151.796
138.788 22960 151.526
138.905 22458 149.86
139.022 21227 145.695
139.139 20308 142.506
139.255 19743 140.51
139.372 18857 137.321
139.488 17684 132.981
139.605 16405 128.082
139.721 15246 123.475
139.838 14462 120.258
139.954 13929 118.021
140.071 12946 113.78
140.187 11933 109.238
140.303 11297 106.287
140.419 10798 103.913
140.535 10355 101.76
140.652 10190 100.946
140.768 0 1
140.884 0 1
141 0 1
141.115 0 1
141.231 0 1
141.347 0 1
141.463 0 1
141.578 0 1
141.694 0 1
144.104 0 1
144.219 0 1
144.335 0 1
144.45 0 1
144.566 0 1
144.682 0 1
144.798 0 1
144.914 0 1
145.03 0 1
145.146 14213 119.218
145.262 14547 120.611
145.378 14979 122.389
145.494 15785 125.638
145.61 16565 128.705
145.726 17279 131.45
145.842 17724 133.132
145.959 18367 135.525
146.075 18137 134.674
146.192 18196 134.893
146.308 18427 135.746
146.425 18472 135.912
146.541 18986 137.79
146.658 19376 139.198
146.774 19794 140.691
146.891 20752 144.056
147.008 20647 143.691
147.125 20789 144.184
147.241 20845 144.378
147.358 21386 146.24
147.475 21279 145.873
147.592 21365 146.168
147.709 20941 144.71
147.826 20574 143.436
147.943 20207 142.151
148.06 20158 141.979
148.177 19425 139.374
148.294 19411 139.323
148.411 18713 136.795
148.528 18195 134.889
148.645 17902 133.798
148.762 17615 132.722
148.88 17479 132.208
148.997 17593 132.639
149.114 17105 130.786
149.231 17345 131.7
149.349 17785 133.36
149.466 18223 134.993
149.583 18736 136.88
149.701 18659 136.598
149.818 18161 134.763
149.935 18515 136.07
150.053 18495 135.996
150.17 18807 137.139
150.287 19493 139.617
150.405 19912 141.11
150.522 20327 142.573
150.64 20543 143.328
150.757 20987 144.869
150.875 20878 144.492
150.992 20972 144.817
151.11 20954 144.755
151.227 20758 144.076
151.344 21055 145.103
151.462 20212 142.169
151.579 20309 142.51
151.697 19951 141.248
151.814 19419 139.352
151.932 19143 138.358
152.049 18722 136.828
152.167 18053 134.361
152.284 17722 133.124
152.402 17668 132.921
152.519 17146 130.943
152.636 17137 130.908
152.754 17144 130.935
152.871 17044 130.553
152.989 17456 132.121
153.106 17568 132.544
153.223 17819 133.488
153.341 17665 132.91
153.458 17534 132.416
153.575 17671 132.932
153.693 17661 132.895
153.81 18102 134.544
153.927 18526 136.11
154.044 19240 138.708
154.162 19480 139.571
154.279 19841 140.858
154.396 19964 141.294
154.513 20265 142.355
154.63 20399 142.825
154.747 20308 142.506
154.864 20364 142.702
154.981 19814 140.762
155.098 19533 139.761
155.215 19280 138.852
155.332 18568 136.264
155.449 18241 135.059
155.566 17611 132.706
155.683 17038 130.53
155.8 16287 127.621
155.917 15677 125.208
156.033 15016 122.54
156.15 0 1
156.267 0 1
156.383 0 1
156.5 0 1
156.617 0 1
156.733 0 1
156.85 0 1
156.966 0 1
157.082 0 1
157.199 0 1
157.315 0 1
157.431 0 1
157.547 0 1
157.664 0 1
157.78 0 1
157.896 0 1
158.012 0 1
158.128 0 1
158.244 0 1
158.359 0 1
158.475 0 1
158.591 0 1
158.706 0 1
