
6.15755 0 1
6.2731 0 1
6.3887 0 1
6.50437 0 1
6.62009 0 1
6.73587 0 1
6.8517 0 1
6.96759 0 1
7.08353 0 1
7.19952 0 1
7.31557 0 1
7.43166 0 1
7.54781 0 1
7.664 0 1
7.78024 0 1
7.89653 0 1
8.01286 0 1
8.12924 0 1
8.24567 0 1
8.36213 0 1
8.47864 0 1
8.59519 0 1
8.71178 0 1
8.82841 0 1
8.94508 0 1
9.06179 0 1
9.17853 0 1
9.29531 0 1
9.41212 0 1
9.52897 0 1
9.64584 0 1
9.76276 0 1
9.8797 0 1
9.99667 0 1
10.1137 0 1
10.2307 0 1
10.3478 0 1
10.4648 0 1
10.5819 0 1
10.6991 0 1
10.8162 0 1
10.9334 0 1
11.0506 0 1
11.1678 0 1
11.285 0 1
11.4023 0 1
11.5196 0 1
11.6369 0 1
11.7542 0 1
11.8715 0 1
11.9888 0 1
12.1062 0 1
12.2235 0 1
12.3409 0 1
12.4582 0 1
12.5756 0 1
12.693 0 1
12.8104 0 1
12.9278 0 1
13.0452 0 1
13.1626 0 1
13.28 0 1
13.3974 0 1
13.5149 0 1
13.6323 0 1
13.7497 0 1
13.8671 0 1
13.9845 0 1
14.1019 0 1
14.2193 0 1
14.3367 0 1
14.4541 0 1
14.5714 0 1
14.6888 0 1
14.8062 0 1
14.9235 0 1
15.0408 0 0
15.1581 0 0
15.2755 0 0
15.3927 0 0
15.51 0 0
15.6273 0 0
15.7445 0 0
15.8617 0 0
15.9789 0 0
16.0961 0 0
16.2132 0 0
16.3304 0 0
16.4475 0 0
16.5646 0 0
16.6816 0 0
16.7986 0 0
16.9156 0 0
17.0326 0 0
17.1496 0 0
17.2665 0 0
17.3833 0 0
17.5002 0 0
17.617 0 0
17.7338 0 0
17.8505 0 0
17.9672 0 0
18.0839 0 0
18.2005 0 0
18.3171 0 0
18.4337 0 0
18.5502 0 0
18.6666 0 0
18.7831 0 0
18.8994 0 0
19.0158 0 0
19.1321 0 0
19.2483 0 0
19.3645 0 0
19.4806 0 0
19.5967 0 0
19.7128 0 0
19.8288 0 0
19.9447 0 0
20.0606 0 1
20.1764 0 1
20.2922 0 1
20.4079 0 1
20.5236 0 1
20.6392 0 1
20.7548 0 1
20.8702 0 1
23.3078 0 1
23.4233 0 1
23.539 0 1
23.6547 0 1
23.7704 0 1
23.8862 0 1
24.0021 0 1
24.118 0 1
24.234 0 1
24.35 0 1
24.4661 2521 50.2096
24.5822 2601 51
24.6984 2640 51.3809
24.8146 2856 53.4416
24.9309 3103 55.7046
25.0472 3626 60.2163
25.1636 4230 65.0385
25.28 4855 69.6778
25.3965 5470 73.9594
25.513 5777 76.0066
25.6296 6195 78.7083
25.7462 6649 81.5414
25.8628 7036 83.8809
25.9795 7080 84.1427
26.0962 7201 84.8587
26.213 6971 83.4925
26.3298 6841 82.7103
26.4466 6868 82.8734
26.5635 6818 82.5712
26.6804 6735 82.067
26.7973 6902 83.0783
26.9143 6605 81.2712
27.0313 6808 82.5106
27.1483 6955 83.3966
27.2653 6927 83.2286
27.3824 6973 83.5045
27.4996 7007 83.7078
27.6167 6862 82.8372
27.7339 6536 80.8455
27.8511 6551 80.9382
27.9683 6333 79.5801
28.0855 5895 76.7789
28.2028 5259 72.519
28.3201 4685 68.4471
28.4374 4627 68.0221
28.5547 4793 69.2315
28.6721 5325 72.9726
28.7894 6052 77.7946
28.9068 6497 80.604
29.0242 6870 82.8855
29.1416 6831 82.6499
29.259 6757 82.201
29.3764 6712 81.9268
29.4939 6544 80.895
29.6113 6588 81.1665
29.7288 6668 81.6578
29.8463 6635 81.4555
29.9638 6637 81.4678
30.0812 6673 81.6884
30.1987 6710 81.9146
30.3162 6496 80.5978
30.4337 6538 80.8579
30.5512 6520 80.7465
30.6687 6705 81.8841
30.7862 6715 81.9451
30.9037 6860 82.8251
31.0212 6706 81.8902
31.1387 6741 82.1036
31.2562 6457 80.3555
31.3737 6306 79.4103
31.4912 6286 79.2843
31.6087 5813 76.243
31.7262 5382 73.3621
31.8436 4826 69.4694
31.9611 4485 66.9701
32.0785 4894 69.9571
32.1959 5490 74.0945
32.3134 6133 78.3135
32.4308 6276 79.2212
32.5482 6355 79.7183
32.6655 6351 79.6932
32.7829 6461 80.3803
32.9002 6309 79.4292
33.0176 6474 80.4612
33.1349 6495 80.5916
33.2522 6467 80.4177
33.3694 6529 80.8022
33.4867 6386 79.9125
33.6039 6624 81.388
33.7211 6452 80.3243
33.8383 6317 79.4796
33.9554 6385 79.9062
34.0725 6377 79.8561
34.1896 6358 79.7371
34.3067 6384 79.8999
34.4237 6494 80.5854
34.5407 6581 81.1234
34.6577 6521 80.7527
34.7746 6468 80.4239
34.8915 6351 79.6932
35.0084 6175 78.5812
35.1252 6067 77.8909
35.242 5890 76.7463
35.3587 5529 74.3572
35.4755 4911 70.0785
35.5921 4498 67.0671
35.7088 4368 66.0908
35.8254 4799 69.2748
35.9419 5153 71.7844
36.0584 5767 75.9408
36.1749 6099 78.0961
36.2913 6150 78.4219
36.4077 6245 79.0253
36.524 5993 77.4145
36.6403 5682 75.379
36.7565 5736 75.7364
36.8727 5341 73.0821
36.9889 5347 73.1232
37.1049 4981 70.5762
37.221 0 1
37.3369 0 1
37.4529 0 1
37.5687 0 1
37.6845 0 1
37.8003 0 1
37.916 0 1
38.0316 0 1
38.1472 0 1
40.5851 0 1
40.7008 0 1
40.8164 0 1
40.9322 0 1
41.048 0 1
41.1639 0 1
41.2798 0 1
41.3958 0 1
41.5118 0 1
41.6279 0 1
41.744 2624 51.225
41.8602 2829 53.1883
41.9765 3264 57.1314
42.0928 3538 59.4811
42.2091 3820 61.8061
42.3255 4034 63.5138
42.4419 4262 65.284
42.5584 4497 67.0597
42.675 4837 69.5485
42.7915 5221 72.2565
42.9081 5297 72.7805
43.0248 5289 72.7255
43.1415 5461 73.8986
43.2582 5373 73.3008
43.375 5577 74.6793
43.4918 5728 75.6836
43.6087 5902 76.8245
43.7256 5585 74.7329
43.8425 5628 75.02
43.9595 5427 73.6682
44.0765 5390 73.4166
44.1935 5037 70.9718
44.3106 4560 67.5278
44.4277 4081 63.8827
44.5448 4157 64.4748
44.6619 4294 65.5286
44.7791 4758 68.9783
44.8963 5193 72.0625
45.0136 5506 74.2024
45.1308 5606 74.8732
45.2481 5296 72.7736
45.3654 5436 73.7292
45.4827 5484 74.054
45.6001 5294 72.7599
45.7174 5358 73.1984
45.8348 5545 74.4648
45.9522 5409 73.5459
46.0697 5537 74.411
46.1871 5378 73.3348
46.3046 5403 73.5051
46.422 5450 73.8241
46.5395 5361 73.2189
46.657 5620 74.9667
46.7745 5690 75.4321
46.892 5791 76.0986
47.0096 5856 76.5245
47.1271 6011 77.5306
47.2446 5952 77.1492
47.3622 5897 76.7919
47.4797 5797 76.138
47.5973 5783 76.046
47.7149 5594 74.793
47.8324 5207 72.1595
47.95 4609 67.8896
48.0675 4287 65.4752
48.1851 4377 66.1589
48.3027 4667 68.3154
48.4202 5092 71.3583
48.5378 5473 73.9797
48.6554 5621 74.9733
48.7729 5663 75.2529
48.8904 5632 75.0467
49.008 5450 73.8241
49.1255 5555 74.5319
49.243 5502 74.1755
49.3605 5461 73.8986
49.478 5338 73.0616
49.5955 5436 73.7292
49.713 5282 72.6774
49.8304 5374 73.3076
49.9479 5412 73.5663
50.0653 5424 73.6478
50.1827 5490 74.0945
50.3001 5654 75.1931
50.4175 5835 76.3872
50.5348 5872 76.629
50.6521 6036 77.6917
50.7694 5817 76.2693
50.8867 5872 76.629
51.004 5936 77.0454
51.1212 5835 76.3872
51.2384 5559 74.5587
51.3556 5098 71.4003
51.4727 4723 68.7241
51.5899 4331 65.8103
51.707 4415 66.4455
51.824 4888 69.9142
51.9411 5332 73.0205
52.0581 5453 73.8444
52.175 5514 74.2563
52.2919 5489 74.0878
52.4088 5556 74.5386
52.5257 5475 73.9932
52.6425 5369 73.2735
52.7593 5339 73.0685
52.876 5328 72.9932
52.9927 5230 72.3187
53.1094 5338 73.0616
53.226 5257 72.5052
53.3426 5114 71.5122
53.4591 5133 71.645
53.5756 4919 70.1356
53.692 5131 71.631
53.8084 4940 70.2851
53.9248 4874 69.814
54.0411 4858 69.6994
54.1573 4445 66.6708
54.2735 0 1
54.3896 0 1
54.5057 0 1
54.6217 0 1
54.7377 0 1
54.8537 0 1
54.9695 0 1
55.0853 0 1
55.2011 0 1
55.3168 0 1
55.4324 0 1
57.824 0 1
57.9396 0 1
58.0553 0 1
58.1711 0 1
58.2869 0 1
58.4028 0 1
58.5187 0 1
58.6347 0 1
58.7508 0 1
58.8669 0 1
58.983 3579 59.8247
59.0992 4065 63.7574
59.2155 4699 68.5493
59.3318 5032 70.9366
59.4482 5610 74.8999
59.5646 5851 76.4918
59.681 6233 78.9494
59.7975 6238 78.981
59.9141 6102 78.1153
60.0306 5985 77.3628
60.1473 5887 76.7268
60.2639 5592 74.7797
60.3807 5582 74.7128
60.4974 5492 74.108
60.6142 5977 77.3111
60.731 6341 79.6304
60.8479 6578 81.1049
60.9648 6656 81.5843
61.0818 6698 81.8413
61.1987 6812 82.5348
61.3158 6663 81.6272
61.4328 6472 80.4487
61.5499 6370 79.8123
61.667 6564 81.0185
61.7841 6409 80.0562
61.9013 6387 79.9187
62.0185 6305 79.404
62.1357 6249 79.0506
62.253 6671 81.6762
62.3702 6810 82.5227
62.4875 6894 83.0301
62.6049 7257 85.188
62.7222 7415 86.1104
62.8396 7454 86.3366
62.9569 7588 87.1091
63.0743 7504 86.6256
63.1918 7536 86.8101
63.3092 7268 85.2526
63.4267 7145 84.5281
63.5441 6787 82.3833
63.6616 6393 79.9562
63.7791 6064 77.8717
63.8966 5836 76.3937
64.0142 5645 75.1332
64.1317 5813 76.243
64.2492 6054 77.8075
64.3668 6320 79.4984
64.4843 6470 80.4363
64.6019 6548 80.9197
64.7195 6552 80.9444
64.837 6398 79.9875
64.9546 6366 79.7872
65.0722 6256 79.0949
65.1898 6226 78.905
65.3074 6164 78.5111
65.4249 6249 79.0506
65.5425 6051 77.7882
65.6601 6166 78.5239
65.7777 6151 78.4283
65.8952 6416 80.0999
66.0128 6627 81.4064
66.1304 6903 83.0843
66.2479 6975 83.5165
66.3655 7273 85.2819
66.483 7466 86.406
66.6005 7615 87.264
66.718 7430 86.1974
66.8355 7353 85.7496
66.953 7047 83.9464
67.0705 6827 82.6257
67.1879 6554 80.9568
67.3054 6037 77.6981
67.4228 5687 75.4122
67.5402 5477 74.0068
67.6576 5375 73.3144
67.7749 5491 74.1013
67.8923 5643 75.1199
68.0096 6024 77.6144
68.1269 6078 77.9615
68.2442 6288 79.2969
68.3614 6281 79.2528
68.4787 6546 80.9074
68.5958 6187 78.6575
68.713 6018 77.5758
68.8302 5958 77.1881
68.9473 5922 76.9545
69.0643 5796 76.1315
69.1814 5674 75.326
69.2984 5484 74.054
69.4154 5707 75.5447
69.5323 5775 75.9934
69.6492 5900 76.8115
69.7661 6255 79.0886
69.8829 6650 81.5475
69.9997 6652 81.5598
70.1165 6629 81.4187
70.2332 6594 81.2034
70.3499 6433 80.206
70.4665 6099 78.0961
70.5831 5733 75.7166
70.6996 5369 73.2735
70.8161 4790 69.2098
70.9326 4435 66.5958
71.049 4036 63.5295
71.1653 3477 58.9661
71.2817 3033 55.0727
71.3979 2849 53.376
71.5141 2566 50.6557
71.6303 2547 50.4678
71.7464 2341 48.3839
71.8624 0 1
71.9784 0 1
72.0944 0 1
72.2102 0 1
72.3261 0 1
72.4418 0 1
72.5575 0 1
72.6732 0 1
75.1054 0 1
75.2209 0 1
75.3365 0 1
75.4521 0 1
75.5678 0 1
75.6835 0 1
75.7993 0 1
75.9151 0 1
76.031 0 1
76.147 3475 58.9491
76.263 3830 61.887
76.3791 3845 62.0081
76.4952 3861 62.1369
76.6113 3919 62.6019
76.7276 4033 63.5059
76.8438 4227 65.0154
76.9601 4545 67.4166
77.0765 4835 69.5342
77.1929 5275 72.6292
77.3093 5358 73.1984
77.4258 5307 72.8492
77.5423 5453 73.8444
77.6589 5200 72.111
77.7755 5391 73.4234
77.8921 5146 71.7356
78.0088 5020 70.852
78.1256 4922 70.157
78.2423 4775 69.1014
78.3591 4963 70.4486
78.4759 4964 70.4557
78.5928 5135 71.6589
78.7097 5707 75.5447
78.8266 5971 77.2722
78.9436 6051 77.7882
79.0606 6303 79.3914
79.1776 6203 78.7591
79.2946 6375 79.8436
79.4117 6401 80.0062
79.5288 6308 79.4229
79.6459 6098 78.0897
79.7631 5955 77.1686
79.8802 5529 74.3572
79.9974 5177 71.9514
80.1147 4991 70.647
80.2319 4503 67.1044
80.3491 4682 68.4251
80.4664 4729 68.7677
80.5837 4766 69.0362
80.701 5102 71.4283
80.8183 5173 71.9236
80.9357 5517 74.2765
81.053 5624 74.9933
81.1704 5779 76.0197
81.2877 5514 74.2563
81.4051 5402 73.4983
81.5225 5384 73.3757
81.6399 5148 71.7496
81.7573 5091 71.3512
81.8747 5043 71.0141
81.9922 4927 70.1926
82.1096 4956 70.3989
82.227 5187 72.0208
82.3444 5633 75.0533
82.4619 6032 77.666
82.5793 6317 79.4796
82.6967 6403 80.0187
82.8142 6518 80.7341
82.9316 6582 81.1295
83.049 6526 80.7837
83.1664 6432 80.1998
83.2838 6279 79.2401
83.4012 5884 76.7072
83.5186 5489 74.0878
83.636 5198 72.0972
83.7534 5148 71.7496
83.8708 4916 70.1142
83.9881 4678 68.3959
84.1055 4630 68.0441
84.2228 4870 69.7854
84.3401 5116 71.5262
84.4575 5238 72.374
84.5747 5723 75.6505
84.692 5978 77.3175
84.8093 5912 76.8895
84.9265 5717 75.6108
85.0437 5584 74.7262
85.1609 5546 74.4715
85.2781 5269 72.5879
85.3952 5061 71.1407
85.5123 4917 70.1213
85.6294 4715 68.6659
85.7465 5030 70.9225
85.8636 5303 72.8217
85.9806 5504 74.1889
86.0976 6086 78.0128
86.2145 6253 79.0759
86.3315 6444 80.2745
86.4484 6521 80.7527
86.5652 6417 80.1062
86.682 6402 80.0125
86.7988 6216 78.8416
86.9156 6121 78.2368
87.0323 5699 75.4917
87.149 5477 74.0068
87.2657 5429 73.6817
87.3823 5058 71.1196
87.4988 4687 68.4617
87.6154 4411 66.4154
87.7318 4306 65.6201
87.8483 4389 66.2495
87.9647 4405 66.3702
88.081 4514 67.1863
88.1973 4575 67.6387
88.3136 4310 65.6506
88.4298 4003 63.2693
88.546 3613 60.1082
88.6621 3128 55.9285
88.7781 2691 51.8748
88.8942 0 1
89.0101 0 1
89.126 0 1
89.2419 0 1
89.3577 0 1
89.4734 0 1
89.5891 0 1
89.7047 0 1
89.8203 0 1
89.9358 0 1
92.3269 0 1
92.4424 0 1
92.558 0 1
92.6736 0 1
92.7893 0 1
92.905 0 1
93.0208 0 1
93.1366 0 1
93.2525 0 1
93.3685 0 1
93.4845 0 1
93.6005 3666 60.5475
93.7167 4217 64.9384
93.8328 4545 67.4166
93.949 4922 70.157
94.0653 5047 71.0422
94.1816 5503 74.1822
94.2979 5490 74.0945
94.4143 5376 73.3212
94.5307 5186 72.0139
94.6472 5217 72.2288
94.7637 4955 70.3918
94.8803 4942 70.2994
94.9969 5280 72.6636
95.1135 5589 74.7596
95.2302 5977 77.3111
95.3469 6355 79.7183
95.4637 6717 81.9573
95.5805 6840 82.7043
95.6973 6800 82.4621
95.8142 6804 82.4864
95.9311 6768 82.2679
96.048 6592 81.1911
96.1649 6199 78.7337
96.2819 6054 77.8075
96.3989 5748 75.8156
96.516 5576 74.6726
96.633 5139 71.6868
96.7501 5032 70.9366
96.8673 4923 70.1641
96.9844 4838 69.5557
97.1016 4969 70.4911
97.2188 5207 72.1595
97.336 5622 74.98
97.4532 5966 77.2399
97.5704 6214 78.8289
97.6877 6141 78.3645
97.805 6064 77.8717
97.9223 5774 75.9868
98.0396 5555 74.5319
98.1569 5407 73.5323
98.2743 5050 71.0634
98.3916 4955 70.3918
98.509 4793 69.2315
98.6264 5183 71.9931
98.7438 5557 74.5453
98.8612 6174 78.5748
98.9786 6294 79.3347
99.096 6740 82.0975
99.2134 6829 82.6378
99.3308 6972 83.4985
99.4482 6902 83.0783
99.5656 6897 83.0482
99.6831 6900 83.0662
99.8005 6546 80.9074
99.9179 6333 79.5801
100.035 6085 78.0064
100.153 5707 75.5447
100.27 5503 74.1822
100.388 5177 71.9514
100.505 5074 71.232
100.622 5212 72.1942
100.74 5316 72.9109
100.857 5611 74.9066
100.975 5925 76.974
101.092 6339 79.6178
101.209 6212 78.8162
101.327 6222 78.8797
101.444 6046 77.756
101.561 5843 76.4395
101.679 5702 75.5116
101.796 5424 73.6478
101.913 5017 70.8308
102.03 5146 71.7356
102.148 5314 72.8972
102.265 5629 75.0267
102.382 6390 79.9375
102.499 6626 81.4002
102.616 6885 82.9759
102.733 6957 83.4086
102.851 7147 84.5399
102.968 7059 84.0179
103.085 7196 84.8292
103.202 7041 83.9107
103.319 7005 83.6959
103.436 6668 81.6578
103.552 6159 78.4793
103.669 5896 76.7854
103.786 5580 74.6994
103.903 5426 73.6614
104.02 5342 73.089
104.137 5267 72.5741
104.253 5435 73.7225
104.37 5643 75.1199
104.487 5911 76.883
104.603 6055 77.8139
104.72 6130 78.2943
104.836 5693 75.452
104.953 5317 72.9178
105.069 5166 71.8749
105.186 4645 68.1542
105.302 4314 65.681
105.418 4081 63.8827
105.535 3841 61.9758
105.651 3806 61.6928
105.767 3803 61.6685
105.883 3740 61.1555
105.999 3633 60.2744
106.115 0 1
106.231 0 1
106.347 0 1
106.463 0 1
106.579 0 1
106.694 0 1
106.81 0 1
106.926 0 1
107.041 0 1
107.157 0 1
109.576 0 1
109.692 0 1
109.807 0 1
109.923 0 1
110.039 0 1
110.155 0 1
110.27 0 1
110.386 0 1
110.502 0 1
110.618 2550 50.4975
110.735 2991 54.69
110.851 3526 59.3801
110.967 4104 64.0625
111.083 4564 67.5574
111.199 4833 69.5198
111.316 5088 71.3302
111.432 5387 73.3962
111.549 5574 74.6592
111.665 5766 75.9342
111.782 5757 75.8749
111.898 5722 75.6439
112.015 5466 73.9324
112.132 5232 72.3326
112.248 5066 71.1758
112.365 4790 69.2098
112.482 4646 68.1616
112.599 4523 67.2533
112.716 4550 67.4537
112.832 4791 69.217
112.949 4781 69.1448
113.066 4935 70.2496
113.183 5218 72.2357
113.3 5266 72.5672
113.417 5203 72.1318
113.534 5183 71.9931
113.652 5219 72.2426
113.769 5008 70.7672
113.886 4721 68.7095
114.003 4467 66.8356
114.12 4344 65.909
114.238 4501 67.0895
114.355 4827 69.4766
114.472 5586 74.7395
114.589 5572 74.6458
114.707 6084 78
114.824 6283 79.2654
114.942 6307 79.4166
115.059 6265 79.1518
115.176 6405 80.0312
115.294 6242 79.0063
115.411 6229 78.924
115.529 5868 76.6029
115.646 5507 74.2092
115.764 5292 72.7461
115.881 5054 71.0915
115.999 4875 69.8212
116.116 4767 69.0435
116.234 4774 69.0941
116.351 4822 69.4406
116.469 4506 67.1267
116.586 4708 68.6149
116.704 4989 70.6329
116.821 5220 72.2496
116.939 5137 71.6729
117.056 5160 71.8331
117.174 5201 72.118
117.291 5194 72.0694
117.409 4940 70.2851
117.526 4679 68.4032
117.644 4445 66.6708
117.761 4425 66.5207
117.879 4609 67.8896
117.996 5284 72.6911
118.114 5583 74.7195
118.231 5992 77.408
118.349 6111 78.1729
118.466 6242 79.0063
118.584 6244 79.019
118.701 6241 79
118.819 6086 78.0128
118.936 6147 78.4028
119.053 5997 77.4403
119.171 5600 74.8331
119.288 5401 73.4915
119.405 4942 70.2994
119.523 4851 69.6491
119.64 4685 68.4471
119.757 4580 67.6757
119.875 4446 66.6783
119.992 4467 66.8356
120.109 4555 67.4907
120.226 4447 66.6858
120.343 4807 69.3325
120.46 4803 69.3037
120.578 4787 69.1881
120.695 4842 69.5845
120.812 4803 69.3037
120.929 4988 70.6258
121.046 4698 68.542
121.163 4310 65.6506
121.279 4041 63.5689
121.396 3979 63.0793
121.513 3999 63.2376
121.63 4393 66.2797
121.747 4504 67.1118
121.863 4789 69.2026
121.98 4776 69.1086
122.097 4871 69.7925
122.213 4607 67.8749
122.33 4443 66.6558
122.446 4352 65.9697
122.563 4206 64.8537
122.679 3920 62.6099
122.795 3657 60.4731
122.912 3324 57.6541
123.028 3101 55.6866
123.144 2776 52.6878
123.26 2543 50.4282
123.377 0 1
123.493 0 1
123.609 0 1
123.725 0 1
123.84 0 1
123.956 0 1
124.072 0 1
124.188 0 1
124.303 0 1
124.419 0 1
126.852 0 1
126.968 0 1
127.083 0 1
127.199 0 1
127.315 0 1
127.431 0 1
127.547 0 1
127.663 0 1
127.779 0 1
127.895 0 1
128.011 0 1
128.127 0 1
128.243 0 1
128.359 5251 72.4638
128.476 5131 71.631
128.592 5180 71.9722
128.708 5002 70.7248
128.825 4959 70.4202
128.941 4764 69.0217
129.058 4709 68.6222
129.174 4733 68.7968
129.291 4710 68.6294
129.408 4943 70.3065
129.524 5195 72.0763
129.641 5213 72.2011
129.758 5264 72.5534
129.875 5321 72.9452
129.992 5382 73.3621
130.108 5214 72.208
130.225 4844 69.5989
130.342 4662 68.2788
130.459 4438 66.6183
130.576 4640 68.1175
130.693 4963 70.4486
130.81 5365 73.2462
130.928 5571 74.6391
131.045 5792 76.1052
131.162 5762 75.9078
131.279 5838 76.4068
131.396 5943 77.0909
131.513 5853 76.5049
131.631 5788 76.0789
131.748 5708 75.5513
131.865 5650 75.1665
131.983 5312 72.8835
132.1 5072 71.218
132.217 5131 71.631
132.335 5002 70.7248
132.452 4817 69.4046
132.57 4749 68.913
132.687 4748 68.9057
132.804 4702 68.5711
132.922 4746 68.8912
133.039 4829 69.491
133.157 5031 70.9295
133.274 5063 71.1548
133.392 5125 71.5891
133.509 5200 72.111
133.627 5130 71.624
133.744 4710 68.6294
133.862 4675 68.374
133.979 4364 66.0606
134.097 4393 66.2797
134.214 4686 68.4544
134.332 5030 70.9225
134.449 5281 72.6705
134.567 5437 73.736
134.684 5655 75.1997
134.802 5722 75.6439
134.919 5550 74.4983
135.037 5691 75.4387
135.154 5530 74.364
135.272 5482 74.0405
135.389 5433 73.7089
135.507 5362 73.2257
135.624 5232 72.3326
135.742 5224 72.2772
135.859 5036 70.9648
135.977 4778 69.1231
136.094 4728 68.7605
136.211 4745 68.884
136.329 4793 69.2315
136.446 4743 68.8694
136.564 4748 68.9057
136.681 4838 69.5557
136.798 4987 70.6187
136.915 5126 71.5961
137.033 5036 70.9648
137.15 5078 71.2601
137.267 5049 71.0563
137.384 4573 67.624
137.502 4492 67.0224
137.619 4304 65.6049
137.736 4221 64.9692
137.853 4349 65.9469
137.97 4540 67.3795
138.087 5157 71.8123
138.204 5128 71.6101
138.321 5109 71.4773
138.438 5124 71.5821
138.555 5201 72.118
138.672 5172 71.9166
138.788 4970 70.4982
138.905 4941 70.2922
139.022 4591 67.7569
139.139 4245 65.1537
139.255 4074 63.8279
139.372 3964 62.9603
139.488 3664 60.531
139.605 3474 58.9406
139.721 3241 56.9298
139.838 2921 54.0463
139.954 2879 53.6563
140.071 2796 52.8772
140.187 2513 50.1298
140.303 2513 50.1298
140.419 2327 48.239
140.535 2144 46.3033
140.652 2132 46.1736
140.768 0 1
140.884 0 1
141 0 1
141.115 0 1
141.231 0 1
141.347 0 1
141.463 0 1
141.578 0 1
141.694 0 1
144.104 0 1
144.219 0 1
144.335 0 1
144.45 0 1
144.566 0 1
144.682 0 1
144.798 0 1
144.914 0 1
145.03 0 1
145.146 3252 57.0263
145.262 3544 59.5315
145.378 3554 59.6154
145.494 3637 60.3075
145.61 3800 61.6441
145.726 3849 62.0403
145.842 3795 61.6036
145.959 3990 63.1664
146.075 3795 61.6036
146.192 3728 61.0574
146.308 3461 58.8303
146.425 3228 56.8155
146.541 3269 57.1752
146.658 3394 58.258
146.774 3702 60.8441
146.891 3873 62.2334
147.008 4026 63.4508
147.125 4059 63.7103
147.241 4346 65.9242
147.358 4151 64.4283
147.475 4216 64.9307
147.592 4177 64.6297
147.709 4219 64.9538
147.826 4160 64.4981
147.943 3971 63.0159
148.06 4042 63.5767
148.177 3990 63.1664
148.294 4021 63.4114
148.411 3781 61.4898
148.528 3670 60.5805
148.645 3736 61.1228
148.762 3664 60.531
148.88 3751 61.2454
148.997 3866 62.1772
149.114 3782 61.498
149.231 3826 61.8547
149.349 3925 62.6498
149.466 3896 62.4179
149.583 3886 62.3378
149.701 3968 62.9921
149.818 3762 61.3351
149.935 3442 58.6686
150.053 3237 56.8946
150.17 3174 56.3383
150.287 3431 58.5747
150.405 3660 60.4979
150.522 3831 61.8951
150.64 4089 63.9453
150.757 4156 64.467
150.875 4306 65.6201
150.992 4149 64.4127
151.11 4311 65.6582
151.227 4309 65.643
151.344 4191 64.7379
151.462 4249 65.1844
151.579 4208 64.8691
151.697 4249 65.1844
151.814 4160 64.4981
151.932 4109 64.1015
152.049 3945 62.8092
152.167 3899 62.442
152.284 3924 62.6418
152.402 3782 61.498
152.519 3790 61.563
152.636 3777 61.4573
152.754 3867 62.1852
152.871 3854 62.0806
152.989 3950 62.849
153.106 3998 63.2297
153.223 4065 63.7574
153.341 3964 62.9603
153.458 3657 60.4731
153.575 3473 58.9322
153.693 3230 56.8331
153.81 3387 58.1979
153.927 3573 59.7746
154.044 4042 63.5767
154.162 4051 63.6475
154.279 4198 64.792
154.396 4355 65.9924
154.513 4442 66.6483
154.63 4491 67.0149
154.747 4358 66.0151
154.864 4385 66.2193
154.981 4266 65.3146
155.098 4332 65.8179
155.215 4348 65.9394
155.332 4003 63.2693
155.449 4101 64.0391
155.566 3939 62.7615
155.683 3723 61.0164
155.8 3802 61.6604
155.917 3687 60.7207
156.033 3447 58.7112
156.15 0 1
156.267 0 1
156.383 0 1
156.5 0 1
156.617 0 1
156.733 0 1
156.85 0 1
156.966 0 1
157.082 0 1
157.199 0 1
157.315 0 1
157.431 0 1
157.547 0 1
157.664 0 1
157.78 0 1
157.896 0 1
158.012 0 1
158.128 0 1
158.244 0 1
158.359 0 1
158.475 0 1
158.591 0 1
158.706 0 1
