
6.15755 0 1
6.2731 0 1
6.3887 0 1
6.50437 0 1
6.62009 0 1
6.73587 0 1
6.8517 0 1
6.96759 0 1
7.08353 0 1
7.19952 0 1
7.31557 0 1
7.43166 0 1
7.54781 0 1
7.664 0 1
7.78024 0 1
7.89653 0 1
8.01286 0 1
8.12924 0 1
8.24567 0 1
8.36213 0 1
8.47864 0 1
8.59519 0 1
8.71178 0 1
8.82841 0 1
8.94508 0 1
9.06179 0 1
9.17853 0 1
9.29531 0 1
9.41212 0 1
9.52897 0 1
9.64584 0 1
9.76276 0 1
9.8797 0 1
9.99667 0 1
10.1137 0 1
10.2307 0 1
10.3478 0 1
10.4648 0 1
10.5819 0 1
10.6991 0 1
10.8162 0 1
10.9334 0 1
11.0506 0 1
11.1678 0 1
11.285 0 1
11.4023 0 1
11.5196 0 1
11.6369 0 1
11.7542 0 1
11.8715 0 1
11.9888 0 1
12.1062 0 1
12.2235 0 1
12.3409 0 1
12.4582 0 1
12.5756 0 1
12.693 0 1
12.8104 0 1
12.9278 0 1
13.0452 0 1
13.1626 0 1
13.28 0 1
13.3974 0 1
13.5149 0 1
13.6323 0 1
13.7497 0 1
13.8671 0 1
13.9845 0 1
14.1019 0 1
14.2193 0 1
14.3367 0 1
14.4541 0 1
14.5714 0 1
14.6888 0 1
14.8062 0 1
14.9235 0 1
15.0408 0 0
15.1581 0 0
15.2755 0 0
15.3927 0 0
15.51 0 0
15.6273 0 0
15.7445 0 0
15.8617 0 0
15.9789 0 0
16.0961 0 0
16.2132 0 0
16.3304 0 0
16.4475 0 0
16.5646 0 0
16.6816 0 0
16.7986 0 0
16.9156 0 0
17.0326 0 0
17.1496 0 0
17.2665 0 0
17.3833 0 0
17.5002 0 0
17.617 0 0
17.7338 0 0
17.8505 0 0
17.9672 0 0
18.0839 0 0
18.2005 0 0
18.3171 0 0
18.4337 0 0
18.5502 0 0
18.6666 0 0
18.7831 0 0
18.8994 0 0
19.0158 0 0
19.1321 0 0
19.2483 0 0
19.3645 0 0
19.4806 0 0
19.5967 0 0
19.7128 0 0
19.8288 0 0
19.9447 0 0
20.0606 0 1
20.1764 0 1
20.2922 0 1
20.4079 0 1
20.5236 0 1
20.6392 0 1
20.7548 0 1
20.8702 0 1
23.3078 0 1
23.4233 0 1
23.539 0 1
23.6547 0 1
23.7704 0 1
23.8862 0 1
24.0021 0 1
24.118 0 1
24.234 0 1
24.35 0 1
24.4661 1890 43.4741
24.5822 1870 43.2435
24.6984 1874 43.2897
24.8146 1785 42.2493
24.9309 1724 41.5211
25.0472 1628 40.3485
25.1636 1634 40.4228
25.28 1643 40.5339
25.3965 1819 42.6497
25.513 1938 44.0227
25.6296 2197 46.8722
25.7462 2302 47.9792
25.8628 2227 47.1911
25.9795 2317 48.1352
26.0962 2372 48.7032
26.213 2260 47.5395
26.3298 2325 48.2183
26.4466 2382 48.8057
26.5635 2352 48.4974
26.6804 2253 47.4658
26.7973 2369 48.6724
26.9143 2282 47.7703
27.0313 2311 48.0729
27.1483 2294 47.8957
27.2653 2437 49.366
27.3824 2378 48.7647
27.4996 2394 48.9285
27.6167 2344 48.4149
27.7339 2174 46.6262
27.8511 2004 44.7661
27.9683 1996 44.6766
28.0855 1982 44.5197
28.2028 1976 44.4522
28.3201 1806 42.4971
28.4374 1685 41.0488
28.5547 1486 38.5487
28.6721 1507 38.8201
28.7894 1540 39.2428
28.9068 1710 41.3521
29.0242 1764 42
29.1416 1871 43.2551
29.259 2081 45.618
29.3764 2223 47.1487
29.4939 2200 46.9042
29.6113 2243 47.3603
29.7288 2193 46.8295
29.8463 2277 47.7179
29.9638 2264 47.5815
30.0812 2222 47.1381
30.1987 2173 46.6154
30.3162 2265 47.592
30.4337 2217 47.085
30.5512 2226 47.1805
30.6687 2198 46.8828
30.7862 2232 47.244
30.9037 2184 46.7333
31.0212 2217 47.085
31.1387 2138 46.2385
31.2562 2192 46.8188
31.3737 2042 45.1885
31.4912 1986 44.5646
31.6087 1899 43.5775
31.7262 1835 42.8369
31.8436 1726 41.5452
31.9611 1646 40.5709
32.0785 1452 38.1051
32.1959 1361 36.8917
32.3134 1387 37.2424
32.4308 1530 39.1152
32.5482 1670 40.8656
32.6655 1855 43.0697
32.7829 2033 45.0888
32.9002 2160 46.4758
33.0176 2123 46.076
33.1349 2133 46.1844
33.2522 2171 46.594
33.3694 2141 46.2709
33.4867 2143 46.2925
33.6039 2119 46.0326
33.7211 2239 47.3181
33.8383 2166 46.5403
33.9554 2094 45.7602
34.0725 2189 46.7868
34.1896 2097 45.793
34.3067 2135 46.2061
34.4237 2151 46.3789
34.5407 2074 45.5412
34.6577 2131 46.1628
34.7746 2064 45.4313
34.8915 2104 45.8694
35.0084 1971 44.3959
35.1252 1912 43.7264
35.242 1910 43.7035
35.3587 1812 42.5676
35.4755 1671 40.8779
35.5921 1604 40.05
35.7088 1463 38.2492
35.8254 1305 36.1248
35.9419 1255 35.426
36.0584 1373 37.054
36.1749 1450 38.0789
36.2913 1582 39.7744
36.4077 1724 41.5211
36.524 1852 43.0349
36.6403 2083 45.6399
36.7565 2070 45.4973
36.8727 2191 46.8081
36.9889 2043 45.1996
37.1049 2064 45.4313
37.221 0 1
37.3369 0 1
37.4529 0 1
37.5687 0 1
37.6845 0 1
37.8003 0 1
37.916 0 1
38.0316 0 1
38.1472 0 1
40.5851 0 1
40.7008 0 1
40.8164 0 1
40.9322 0 1
41.048 0 1
41.1639 0 1
41.2798 0 1
41.3958 0 1
41.5118 0 1
41.6279 0 1
41.744 1428 37.7889
41.8602 1545 39.3065
41.9765 1601 40.0125
42.0928 1664 40.7922
42.2091 1711 41.3642
42.3255 1684 41.0366
42.4419 1695 41.1704
42.5584 1655 40.6817
42.675 1629 40.3609
42.7915 1634 40.4228
42.9081 1600 40
43.0248 1617 40.2119
43.1415 1632 40.398
43.2582 1564 39.5474
43.375 1596 39.95
43.4918 1525 39.0512
43.6087 1544 39.2938
43.7256 1453 38.1182
43.8425 1440 37.9473
43.9595 1354 36.7967
44.0765 1301 36.0694
44.1935 1229 35.0571
44.3106 1201 34.6554
44.4277 1024 32
44.5448 931 30.5123
44.6619 833 28.8617
44.7791 778 27.8927
44.8963 836 28.9137
45.0136 941 30.6757
45.1308 962 31.0161
45.2481 1112 33.3467
45.3654 1228 35.0428
45.4827 1187 34.4529
45.6001 1226 35.0143
45.7174 1224 34.9857
45.8348 1211 34.7994
45.9522 1135 33.6898
46.0697 1140 33.7639
46.1871 1095 33.0908
46.3046 1075 32.7872
46.422 1076 32.8024
46.5395 1041 32.2645
46.657 1046 32.3419
46.7745 1020 31.9374
46.892 1009 31.7648
47.0096 1010 31.7805
47.1271 958 30.9516
47.2446 919 30.315
47.3622 924 30.3974
47.4797 913 30.2159
47.5973 870 29.4958
47.7149 792 28.1425
47.8324 747 27.3313
47.95 701 26.4764
48.0675 673 25.9422
48.1851 594 24.3721
48.3027 505 22.4722
48.4202 584 24.1661
48.5378 584 24.1661
48.6554 694 26.3439
48.7729 723 26.8887
48.8904 786 28.0357
49.008 821 28.6531
49.1255 824 28.7054
49.243 844 29.0517
49.3605 795 28.1957
49.478 866 29.4279
49.5955 861 29.3428
49.713 852 29.189
49.8304 824 28.7054
49.9479 831 28.8271
50.0653 884 29.7321
50.1827 879 29.6479
50.3001 896 29.9333
50.4175 945 30.7409
50.5348 892 29.8664
50.6521 982 31.3369
50.7694 991 31.4802
50.8867 1023 31.9844
51.004 995 31.5436
51.1212 1002 31.6544
51.2384 901 30.0167
51.3556 907 30.1164
51.4727 900 30
51.5899 808 28.4253
51.707 698 26.4197
51.824 694 26.3439
51.9411 726 26.9444
52.0581 873 29.5466
52.175 1012 31.8119
52.2919 1223 34.9714
52.4088 1356 36.8239
52.5257 1363 36.9188
52.6425 1412 37.5766
52.7593 1425 37.7492
52.876 1433 37.855
52.9927 1465 38.2753
53.1094 1466 38.2884
53.226 1544 39.2938
53.3426 1562 39.5221
53.4591 1488 38.5746
53.5756 1608 40.0999
53.692 1598 39.975
53.8084 1580 39.7492
53.9248 1551 39.3827
54.0411 1626 40.3237
54.1573 1605 40.0625
54.2735 0 1
54.3896 0 1
54.5057 0 1
54.6217 0 1
54.7377 0 1
54.8537 0 1
54.9695 0 1
55.0853 0 1
55.2011 0 1
55.3168 0 1
55.4324 0 1
57.824 0 1
57.9396 0 1
58.0553 0 1
58.1711 0 1
58.2869 0 1
58.4028 0 1
58.5187 0 1
58.6347 0 1
58.7508 0 1
58.8669 0 1
58.983 1917 43.7836
59.0992 1939 44.0341
59.2155 2023 44.9778
59.3318 2026 45.0111
59.4482 1969 44.3734
59.5646 1987 44.5758
59.681 1952 44.1814
59.7975 1925 43.8748
59.9141 1743 41.7493
60.0306 1649 40.6079
60.1473 1583 39.7869
60.2639 1275 35.7071
60.3807 1170 34.2053
60.4974 1051 32.4191
60.6142 1135 33.6898
60.731 1158 34.0294
60.8479 1419 37.6696
60.9648 1600 40
61.0818 1656 40.694
61.1987 1762 41.9762
61.3158 1810 42.5441
61.4328 1807 42.5088
61.5499 1735 41.6533
61.667 1766 42.0238
61.7841 1881 43.3705
61.9013 1779 42.1782
62.0185 1790 42.3084
62.1357 1799 42.4146
62.253 1716 41.4246
62.3702 1708 41.328
62.4875 1707 41.3159
62.6049 1688 41.0853
62.7222 1758 41.9285
62.8396 1802 42.45
62.9569 1754 41.8808
63.0743 1728 41.5692
63.1918 1665 40.8044
63.3092 1591 39.8873
63.4267 1554 39.4208
63.5441 1484 38.5227
63.6616 1273 35.6791
63.7791 1115 33.3916
63.8966 954 30.8869
64.0142 879 29.6479
64.1317 874 29.5635
64.2492 975 31.225
64.3668 1158 34.0294
64.4843 1344 36.6606
64.6019 1498 38.704
64.7195 1501 38.7427
64.837 1603 40.0375
64.9546 1589 39.8623
65.0722 1556 39.4462
65.1898 1552 39.3954
65.3074 1617 40.2119
65.4249 1576 39.6989
65.5425 1544 39.2938
65.6601 1537 39.2046
65.7777 1655 40.6817
65.8952 1549 39.3573
66.0128 1633 40.4104
66.1304 1685 41.0488
66.2479 1584 39.7995
66.3655 1608 40.0999
66.483 1670 40.8656
66.6005 1718 41.4488
66.718 1671 40.8779
66.8355 1626 40.3237
66.953 1545 39.3065
67.0705 1541 39.2556
67.1879 1389 37.2693
67.3054 1231 35.0856
67.4228 1043 32.2955
67.5402 912 30.1993
67.6576 800 28.2843
67.7749 842 29.0172
67.8923 948 30.7896
68.0096 1114 33.3766
68.1269 1280 35.7771
68.2442 1530 39.1152
68.3614 1559 39.4842
68.4787 1631 40.3856
68.5958 1600 40
68.713 1605 40.0625
68.8302 1608 40.0999
68.9473 1636 40.4475
69.0643 1637 40.4599
69.1814 1602 40.025
69.2984 1686 41.0609
69.4154 1658 40.7185
69.5323 1709 41.3401
69.6492 1718 41.4488
69.7661 1760 41.9524
69.8829 1731 41.6053
69.9997 1777 42.1545
70.1165 1828 42.7551
70.2332 1784 42.2374
70.3499 1786 42.2611
70.4665 1804 42.4735
70.5831 1756 41.9047
70.6996 1671 40.8779
70.8161 1636 40.4475
70.9326 1463 38.2492
71.049 1246 35.2987
71.1653 1025 32.0156
71.2817 874 29.5635
71.3979 760 27.5681
71.5141 852 29.189
71.6303 982 31.3369
71.7464 988 31.4325
71.8624 0 1
71.9784 0 1
72.0944 0 1
72.2102 0 1
72.3261 0 1
72.4418 0 1
72.5575 0 1
72.6732 0 1
75.1054 0 1
75.2209 0 1
75.3365 0 1
75.4521 0 1
75.5678 0 1
75.6835 0 1
75.7993 0 1
75.9151 0 1
76.031 0 1
76.147 1441 37.9605
76.263 1523 39.0256
76.3791 1319 36.318
76.4952 1160 34.0588
76.6113 897 29.95
76.7276 751 27.4044
76.8438 882 29.6985
76.9601 994 31.5278
77.0765 1261 35.5106
77.1929 1491 38.6135
77.3093 1701 41.2432
77.4258 1679 40.9756
77.5423 1702 41.2553
77.6589 1690 41.1096
77.7755 1747 41.7971
77.8921 1730 41.5933
78.0088 1617 40.2119
78.1256 1664 40.7922
78.2423 1768 42.0476
78.3591 1712 41.3763
78.4759 1659 40.7308
78.5928 1611 40.1373
78.7097 1703 41.2674
78.8266 1733 41.6293
78.9436 1862 43.1509
79.0606 1714 41.4005
79.1776 1665 40.8044
79.2946 1719 41.4608
79.4117 1706 41.3038
79.5288 1641 40.5093
79.6459 1668 40.8412
79.7631 1635 40.4351
79.8802 1438 37.921
79.9974 1324 36.3868
80.1147 1190 34.4964
80.2319 864 29.3939
80.3491 738 27.1662
80.4664 760 27.5681
80.5837 921 30.348
80.701 1118 33.4365
80.8183 1321 36.3456
80.9357 1415 37.6165
81.053 1569 39.6106
81.1704 1517 38.9487
81.2877 1613 40.1622
81.4051 1471 38.3536
81.5225 1513 38.8973
81.6399 1530 39.1152
81.7573 1483 38.5097
81.8747 1482 38.4968
81.9922 1447 38.0395
82.1096 1450 38.0789
82.227 1407 37.51
82.3444 1444 38
82.4619 1558 39.4715
82.5793 1608 40.0999
82.6967 1485 38.5357
82.8142 1494 38.6523
82.9316 1506 38.8072
83.049 1470 38.3406
83.1664 1459 38.1969
83.2838 1400 37.4166
83.4012 1371 37.027
83.5186 1285 35.8469
83.636 1175 34.2783
83.7534 971 31.1609
83.8708 761 27.5862
83.9881 590 24.2899
84.1055 669 25.865
84.2228 715 26.7395
84.3401 857 29.2746
84.4575 1011 31.7962
84.5747 1332 36.4966
84.692 1371 37.027
84.8093 1344 36.6606
84.9265 1400 37.4166
85.0437 1353 36.7831
85.1609 1412 37.5766
85.2781 1329 36.4555
85.3952 1347 36.7015
85.5123 1446 38.0263
85.6294 1443 37.9868
85.7465 1372 37.0405
85.8636 1464 38.2623
85.9806 1534 39.1663
86.0976 1517 38.9487
86.2145 1497 38.6911
86.3315 1664 40.7922
86.4484 1558 39.4715
86.5652 1670 40.8656
86.682 1617 40.2119
86.7988 1631 40.3856
86.9156 1556 39.4462
87.0323 1542 39.2683
87.149 1413 37.5899
87.2657 1246 35.2987
87.3823 1154 33.9706
87.4988 931 30.5123
87.6154 730 27.0185
87.7318 849 29.1376
87.8483 1027 32.0468
87.9647 1384 37.2022
88.081 1567 39.5854
88.1973 1622 40.2741
88.3136 1657 40.7063
88.4298 1688 41.0853
88.546 1651 40.6325
88.6621 1637 40.4599
88.7781 1648 40.5956
88.8942 0 1
89.0101 0 1
89.126 0 1
89.2419 0 1
89.3577 0 1
89.4734 0 1
89.5891 0 1
89.7047 0 1
89.8203 0 1
89.9358 0 1
92.3269 0 1
92.4424 0 1
92.558 0 1
92.6736 0 1
92.7893 0 1
92.905 0 1
93.0208 0 1
93.1366 0 1
93.2525 0 1
93.3685 0 1
93.4845 0 1
93.6005 1615 40.1871
93.7167 1718 41.4488
93.8328 1719 41.4608
93.949 1737 41.6773
94.0653 1730 41.5933
94.1816 1750 41.833
94.2979 1676 40.939
94.4143 1658 40.7185
94.5307 1647 40.5832
94.6472 1692 41.1339
94.7637 1715 41.4126
94.8803 1736 41.6653
94.9969 1794 42.3556
95.1135 1668 40.8412
95.2302 1705 41.2916
95.3469 1715 41.4126
95.4637 1705 41.2916
95.5805 1785 42.2493
95.6973 1806 42.4971
95.8142 1817 42.6263
95.9311 1767 42.0357
96.048 1677 40.9512
96.1649 1686 41.0609
96.2819 1641 40.5093
96.3989 1452 38.1051
96.516 1372 37.0405
96.633 1084 32.9242
96.7501 901 30.0167
96.8673 801 28.3019
96.9844 915 30.249
97.1016 1064 32.619
97.2188 1367 36.973
97.336 1533 39.1535
97.4532 1587 39.8372
97.5704 1666 40.8167
97.6877 1694 41.1582
97.805 1636 40.4475
97.9223 1642 40.5216
98.0396 1617 40.2119
98.1569 1581 39.7618
98.2743 1602 40.025
98.3916 1611 40.1373
98.509 1583 39.7869
98.6264 1705 41.2916
98.7438 1675 40.9268
98.8612 1725 41.5331
98.9786 1754 41.8808
99.096 1653 40.6571
99.2134 1648 40.5956
99.3308 1731 41.6053
99.4482 1791 42.3202
99.5656 1641 40.5093
99.6831 1687 41.0731
99.8005 1632 40.398
99.9179 1468 38.3145
100.035 1532 39.1408
100.153 1307 36.1525
100.27 1038 32.218
100.388 924 30.3974
100.505 887 29.7825
100.622 1122 33.4963
100.74 1358 36.8511
100.857 1553 39.4081
100.975 1711 41.3642
101.092 1728 41.5692
101.209 1642 40.5216
101.327 1648 40.5956
101.444 1688 41.0853
101.561 1676 40.939
101.679 1645 40.5586
101.796 1719 41.4608
101.913 1640 40.4969
102.03 1685 41.0488
102.148 1776 42.1426
102.265 1638 40.4722
102.382 1836 42.8486
102.499 1781 42.2019
102.616 1838 42.8719
102.733 1807 42.5088
102.851 1870 43.2435
102.968 1853 43.0465
103.085 1785 42.2493
103.202 1865 43.1856
103.319 1759 41.9404
103.436 1766 42.0238
103.552 1573 39.6611
103.669 1442 37.9737
103.786 1129 33.6006
103.903 1067 32.665
104.02 1064 32.619
104.137 1145 33.8378
104.253 1459 38.1969
104.37 1696 41.1825
104.487 1758 41.9285
104.603 1751 41.845
104.72 1919 43.8064
104.836 1877 43.3244
104.953 1869 43.2319
105.069 1904 43.6348
105.186 1876 43.3128
105.302 1869 43.2319
105.418 1994 44.6542
105.535 1922 43.8406
105.651 1923 43.852
105.767 1932 43.9545
105.883 2016 44.8999
105.999 2020 44.9444
106.115 0 1
106.231 0 1
106.347 0 1
106.463 0 1
106.579 0 1
106.694 0 1
106.81 0 1
106.926 0 1
107.041 0 1
107.157 0 1
109.576 0 1
109.692 0 1
109.807 0 1
109.923 0 1
110.039 0 1
110.155 0 1
110.27 0 1
110.386 0 1
110.502 0 1
110.618 1924 43.8634
110.735 2024 44.9889
110.851 2001 44.7325
110.967 1939 44.0341
111.083 1954 44.2041
111.199 2003 44.7549
111.316 2053 45.31
111.432 2014 44.8776
111.549 2045 45.2217
111.665 1969 44.3734
111.782 1899 43.5775
111.898 1860 43.1277
112.015 1777 42.1545
112.132 1640 40.4969
112.248 1466 38.2884
112.365 1272 35.6651
112.482 1104 33.2265
112.599 1046 32.3419
112.716 1248 35.327
112.832 1543 39.281
112.949 1725 41.5331
113.066 1802 42.45
113.183 1829 42.7668
113.3 1826 42.7317
113.417 1748 41.8091
113.534 1827 42.7434
113.652 1793 42.3438
113.769 1851 43.0232
113.886 1847 42.9767
114.003 1923 43.852
114.12 1908 43.6807
114.238 1889 43.4626
114.355 1904 43.6348
114.472 1967 44.3509
114.589 1947 44.1248
114.707 1997 44.6878
114.824 1926 43.8862
114.942 2035 45.111
115.059 2122 46.0652
115.176 2148 46.3465
115.294 2097 45.793
115.411 2036 45.1221
115.529 1923 43.852
115.646 1878 43.3359
115.764 1823 42.6966
115.881 1466 38.2884
115.999 1261 35.5106
116.116 1298 36.0278
116.234 1361 36.8917
116.351 1696 41.1825
116.469 1870 43.2435
116.586 2136 46.2169
116.704 2074 45.5412
116.821 2119 46.0326
116.939 2082 45.6289
117.056 2102 45.8476
117.174 2168 46.5618
117.291 2104 45.8694
117.409 2159 46.465
117.526 2144 46.3033
117.644 2036 45.1221
117.761 2134 46.1952
117.879 2168 46.5618
117.996 2087 45.6837
118.114 2179 46.6798
118.231 2228 47.2017
118.349 2278 47.7284
118.466 2304 48
118.584 2301 47.9687
118.701 2302 47.9792
118.819 2304 48
118.936 2144 46.3033
119.053 2095 45.7712
119.171 1967 44.3509
119.288 2029 45.0444
119.405 1754 41.8808
119.523 1599 39.9875
119.64 1324 36.3868
119.757 1393 37.3229
119.875 1402 37.4433
119.992 1630 40.3733
120.109 1897 43.5546
120.226 2034 45.0999
120.343 2061 45.3982
120.46 2079 45.5961
120.578 2110 45.9347
120.695 2128 46.1303
120.812 2103 45.8585
120.929 2039 45.1553
121.046 2196 46.8615
121.163 2136 46.2169
121.279 2073 45.5302
121.396 2089 45.7056
121.513 2074 45.5412
121.63 2162 46.4973
121.747 2107 45.9021
121.863 2089 45.7056
121.98 2202 46.9255
122.097 2173 46.6154
122.213 2234 47.2652
122.33 2202 46.9255
122.446 2219 47.1063
122.563 2107 45.9021
122.679 2058 45.3652
122.795 2031 45.0666
122.912 2039 45.1553
123.028 1797 42.391
123.144 1769 42.0595
123.26 1564 39.5474
123.377 0 1
123.493 0 1
123.609 0 1
123.725 0 1
123.84 0 1
123.956 0 1
124.072 0 1
124.188 0 1
124.303 0 1
124.419 0 1
126.852 0 1
126.968 0 1
127.083 0 1
127.199 0 1
127.315 0 1
127.431 0 1
127.547 0 1
127.663 0 1
127.779 0 1
127.895 0 1
128.011 0 1
128.127 0 1
128.243 0 1
128.359 1846 42.9651
128.476 1761 41.9643
128.592 1553 39.4081
128.708 1558 39.4715
128.825 1734 41.6413
128.941 1871 43.2551
129.058 1988 44.587
129.174 2249 47.4236
129.291 2205 46.9574
129.408 2275 47.697
129.524 2253 47.4658
129.641 2220 47.1169
129.758 2266 47.6025
129.875 2308 48.0416
129.992 2234 47.2652
130.108 2240 47.3286
130.225 2180 46.6905
130.342 2184 46.7333
130.459 2093 45.7493
130.576 2299 47.9479
130.693 2269 47.634
130.81 2195 46.8508
130.928 2250 47.4342
131.045 2351 48.4871
131.162 2433 49.3254
131.279 2436 49.3559
131.396 2361 48.5901
131.513 2280 47.7493
131.631 2255 47.4868
131.748 2127 46.1194
131.865 1987 44.5758
131.983 1954 44.2041
132.1 1652 40.6448
132.217 1618 40.2244
132.335 1652 40.6448
132.452 1859 43.1161
132.57 2252 47.4552
132.687 2255 47.4868
132.804 2332 48.2908
132.922 2360 48.5798
133.039 2348 48.4562
133.157 2221 47.1275
133.274 2330 48.2701
133.392 2337 48.3425
133.509 2306 48.0208
133.627 2257 47.5079
133.744 2135 46.2061
133.862 2191 46.8081
133.979 2113 45.9674
134.097 2134 46.1952
134.214 2139 46.2493
134.332 2262 47.5605
134.449 2160 46.4758
134.567 2250 47.4342
134.684 2256 47.4974
134.802 2313 48.0937
134.919 2300 47.9583
135.037 2300 47.9583
135.154 2131 46.1628
135.272 2129 46.1411
135.389 2060 45.3872
135.507 1918 43.795
135.624 1764 42
135.742 1542 39.2683
135.859 1654 40.6694
135.977 1753 41.8688
136.094 1983 44.5309
136.211 2204 46.9468
136.329 2221 47.1275
136.446 2308 48.0416
136.564 2251 47.4447
136.681 2261 47.55
136.798 2322 48.1871
136.915 2318 48.1456
137.033 2182 46.7119
137.15 2186 46.7547
137.267 2167 46.551
137.384 2060 45.3872
137.502 2070 45.4973
137.619 2024 44.9889
137.736 2096 45.7821
137.853 2093 45.7493
137.97 2180 46.6905
138.087 2197 46.8722
138.204 2244 47.3709
138.321 2187 46.7654
138.438 2264 47.5815
138.555 2187 46.7654
138.672 2289 47.8435
138.788 2156 46.4327
138.905 2100 45.8258
139.022 2021 44.9555
139.139 1979 44.486
139.255 1784 42.2374
139.372 1622 40.2741
139.488 1670 40.8656
139.605 1805 42.4853
139.721 1946 44.1135
139.838 2220 47.1169
139.954 2201 46.9148
140.071 2225 47.1699
140.187 2319 48.156
140.303 2193 46.8295
140.419 2252 47.4552
140.535 2254 47.4763
140.652 2145 46.3141
140.768 0 1
140.884 0 1
141 0 1
141.115 0 1
141.231 0 1
141.347 0 1
141.463 0 1
141.578 0 1
141.694 0 1
144.104 0 1
144.219 0 1
144.335 0 1
144.45 0 1
144.566 0 1
144.682 0 1
144.798 0 1
144.914 0 1
145.03 0 1
145.146 1627 40.3361
145.262 1726 41.5452
145.378 1775 42.1307
145.494 1766 42.0238
145.61 1788 42.2847
145.726 1819 42.6497
145.842 1815 42.6028
145.959 1718 41.4488
146.075 1733 41.6293
146.192 1645 40.5586
146.308 1709 41.3401
146.425 1700 41.2311
146.541 1733 41.6293
146.658 1746 41.7852
146.774 1794 42.3556
146.891 1878 43.3359
147.008 1870 43.2435
147.125 1950 44.1588
147.241 1901 43.6005
147.358 1917 43.7836
147.475 1885 43.4166
147.592 1892 43.4971
147.709 1840 42.8952
147.826 1958 44.2493
147.943 1805 42.4853
148.06 1668 40.8412
148.177 1579 39.7366
148.294 1572 39.6485
148.411 1654 40.6694
148.528 1748 41.8091
148.645 1814 42.5911
148.762 1972 44.4072
148.88 2045 45.2217
148.997 1894 43.5201
149.114 2090 45.7165
149.231 2006 44.7884
149.349 1998 44.699
149.466 2020 44.9444
149.583 1934 43.9773
149.701 1908 43.6807
149.818 1886 43.4281
149.935 1790 42.3084
150.053 1738 41.6893
150.17 1856 43.0813
150.287 1867 43.2088
150.405 1857 43.0929
150.522 1926 43.8862
150.64 1912 43.7264
150.757 1972 44.4072
150.875 2003 44.7549
150.992 1974 44.4297
151.11 1992 44.6318
151.227 2012 44.8553
151.344 1997 44.6878
151.462 1824 42.7083
151.579 1843 42.9302
151.697 1745 41.7732
151.814 1723 41.509
151.932 1578 39.724
152.049 1620 40.2492
152.167 1740 41.7133
152.284 1917 43.7836
152.402 1980 44.4972
152.519 2033 45.0888
152.636 2008 44.8107
152.754 2018 44.9222
152.871 2127 46.1194
152.989 1970 44.3847
153.106 1976 44.4522
153.223 1937 44.0114
153.341 1944 44.0908
153.458 1805 42.4853
153.575 1870 43.2435
153.693 1772 42.0951
153.81 1825 42.72
153.927 1790 42.3084
154.044 1845 42.9535
154.162 1895 43.5316
154.279 1961 44.2832
154.396 2037 45.1331
154.513 2123 46.076
154.63 2068 45.4753
154.747 2020 44.9444
154.864 2075 45.5522
154.981 2025 45
155.098 2079 45.5961
155.215 1899 43.5775
155.332 1903 43.6234
155.449 1870 43.2435
155.566 1883 43.3935
155.683 1924 43.8634
155.8 2059 45.3762
155.917 2055 45.3321
156.033 2133 46.1844
156.15 0 1
156.267 0 1
156.383 0 1
156.5 0 1
156.617 0 1
156.733 0 1
156.85 0 1
156.966 0 1
157.082 0 1
157.199 0 1
157.315 0 1
157.431 0 1
157.547 0 1
157.664 0 1
157.78 0 1
157.896 0 1
158.012 0 1
158.128 0 1
158.244 0 1
158.359 0 1
158.475 0 1
158.591 0 1
158.706 0 1
