
6.15755 0 1
6.2731 0 1
6.3887 0 1
6.50437 0 1
6.62009 0 1
6.73587 0 1
6.8517 0 1
6.96759 0 1
7.08353 0 1
7.19952 0 1
7.31557 0 1
7.43166 0 1
7.54781 0 1
7.664 0 1
7.78024 0 1
7.89653 0 1
8.01286 0 1
8.12924 0 1
8.24567 0 1
8.36213 0 1
8.47864 0 1
8.59519 0 1
8.71178 0 1
8.82841 0 1
8.94508 0 1
9.06179 0 1
9.17853 0 1
9.29531 0 1
9.41212 0 1
9.52897 0 1
9.64584 0 1
9.76276 0 1
9.8797 0 1
9.99667 0 1
10.1137 0 1
10.2307 0 1
10.3478 0 1
10.4648 0 1
10.5819 0 1
10.6991 0 1
10.8162 0 1
10.9334 0 1
11.0506 0 1
11.1678 0 1
11.285 0 1
11.4023 0 1
11.5196 0 1
11.6369 0 1
11.7542 0 1
11.8715 0 1
11.9888 0 1
12.1062 0 1
12.2235 0 1
12.3409 0 1
12.4582 0 1
12.5756 0 1
12.693 0 1
12.8104 0 1
12.9278 0 1
13.0452 0 1
13.1626 0 1
13.28 0 1
13.3974 0 1
13.5149 0 1
13.6323 0 1
13.7497 0 1
13.8671 0 1
13.9845 0 1
14.1019 0 1
14.2193 0 1
14.3367 0 1
14.4541 0 1
14.5714 0 1
14.6888 0 1
14.8062 0 1
14.9235 0 1
15.0408 0 0
15.1581 0 0
15.2755 0 0
15.3927 0 0
15.51 0 0
15.6273 0 0
15.7445 0 0
15.8617 0 0
15.9789 0 0
16.0961 0 0
16.2132 0 0
16.3304 0 0
16.4475 0 0
16.5646 0 0
16.6816 0 0
16.7986 0 0
16.9156 0 0
17.0326 0 0
17.1496 0 0
17.2665 0 0
17.3833 0 0
17.5002 0 0
17.617 0 0
17.7338 0 0
17.8505 0 0
17.9672 0 0
18.0839 0 0
18.2005 0 0
18.3171 0 0
18.4337 0 0
18.5502 0 0
18.6666 0 0
18.7831 0 0
18.8994 0 0
19.0158 0 0
19.1321 0 0
19.2483 0 0
19.3645 0 0
19.4806 0 0
19.5967 0 0
19.7128 0 0
19.8288 0 0
19.9447 0 0
20.0606 0 1
20.1764 0 1
20.2922 0 1
20.4079 0 1
20.5236 0 1
20.6392 0 1
20.7548 0 1
20.8702 0 1
23.3078 0 1
23.4233 0 1
23.539 0 1
23.6547 0 1
23.7704 0 1
23.8862 0 1
24.0021 0 1
24.118 0 1
24.234 0 1
24.35 0 1
24.4661 1167 34.1614
24.5822 1162 34.0881
24.6984 1082 32.8938
24.8146 1130 33.6155
24.9309 1143 33.8083
25.0472 1146 33.8526
25.1636 1096 33.1059
25.28 1122 33.4963
25.3965 1120 33.4664
25.513 1157 34.0147
25.6296 1166 34.1467
25.7462 1251 35.3695
25.8628 1353 36.7831
25.9795 1306 36.1386
26.0962 1345 36.6742
26.213 1358 36.8511
26.3298 1263 35.5387
26.4466 1361 36.8917
26.5635 1223 34.9714
26.6804 1206 34.7275
26.7973 1160 34.0588
26.9143 1185 34.4238
27.0313 1328 36.4417
27.1483 1255 35.426
27.2653 1375 37.081
27.3824 1356 36.8239
27.4996 1314 36.2491
27.6167 1307 36.1525
27.7339 1259 35.4824
27.8511 1213 34.8281
27.9683 1253 35.3977
28.0855 1199 34.6266
28.2028 1159 34.0441
28.3201 1115 33.3916
28.4374 1085 32.9393
28.5547 1091 33.0303
28.6721 1079 32.8481
28.7894 1016 31.8748
28.9068 1071 32.7261
29.0242 1068 32.6803
29.1416 1068 32.6803
29.259 1162 34.0881
29.3764 1222 34.9571
29.4939 1187 34.4529
29.6113 1204 34.6987
29.7288 1154 33.9706
29.8463 1148 33.8821
29.9638 1148 33.8821
30.0812 1134 33.6749
30.1987 1131 33.6303
30.3162 1082 32.8938
30.4337 1118 33.4365
30.5512 1133 33.6601
30.6687 1193 34.5398
30.7862 1253 35.3977
30.9037 1170 34.2053
31.0212 1169 34.1906
31.1387 1249 35.3412
31.2562 1244 35.2704
31.3737 1223 34.9714
31.4912 1272 35.6651
31.6087 1123 33.5112
31.7262 1113 33.3617
31.8436 1130 33.6155
31.9611 1096 33.1059
32.0785 1031 32.1092
32.1959 1011 31.7962
32.3134 1022 31.9687
32.4308 1053 32.45
32.5482 1052 32.4345
32.6655 1060 32.5576
32.7829 1168 34.176
32.9002 1103 33.2114
33.0176 1168 34.176
33.1349 1180 34.3511
33.2522 1179 34.3366
33.3694 1168 34.176
33.4867 1172 34.2345
33.6039 1146 33.8526
33.7211 1098 33.1361
33.8383 1053 32.45
33.9554 1000 31.6228
34.0725 1052 32.4345
34.1896 1105 33.2415
34.3067 1163 34.1028
34.4237 1192 34.5254
34.5407 1198 34.6121
34.6577 1173 34.2491
34.7746 1203 34.6843
34.8915 1246 35.2987
35.0084 1198 34.6121
35.1252 1174 34.2637
35.242 1151 33.9264
35.3587 1144 33.8231
35.4755 1054 32.4654
35.5921 1029 32.078
35.7088 1037 32.2025
35.8254 1007 31.7333
35.9419 1005 31.7017
36.0584 946 30.7571
36.1749 1041 32.2645
36.2913 951 30.8383
36.4077 972 31.1769
36.524 1108 33.2866
36.6403 1095 33.0908
36.7565 1130 33.6155
36.8727 1119 33.4515
36.9889 1097 33.121
37.1049 1147 33.8674
37.221 0 1
37.3369 0 1
37.4529 0 1
37.5687 0 1
37.6845 0 1
37.8003 0 1
37.916 0 1
38.0316 0 1
38.1472 0 1
40.5851 0 1
40.7008 0 1
40.8164 0 1
40.9322 0 1
41.048 0 1
41.1639 0 1
41.2798 0 1
41.3958 0 1
41.5118 0 1
41.6279 0 1
41.744 830 28.8097
41.8602 872 29.5296
41.9765 890 29.8329
42.0928 902 30.0333
42.2091 930 30.4959
42.3255 896 29.9333
42.4419 922 30.3645
42.5584 847 29.1033
42.675 794 28.178
42.7915 855 29.2404
42.9081 803 28.3373
43.0248 826 28.7402
43.1415 779 27.9106
43.2582 931 30.5123
43.375 871 29.5127
43.4918 844 29.0517
43.6087 891 29.8496
43.7256 906 30.0998
43.8425 868 29.4618
43.9595 899 29.9833
44.0765 853 29.2062
44.1935 795 28.1957
44.3106 777 27.8747
44.4277 754 27.4591
44.5448 679 26.0576
44.6619 675 25.9808
44.7791 616 24.8193
44.8963 606 24.6171
45.0136 646 25.4165
45.1308 670 25.8844
45.2481 649 25.4755
45.3654 689 26.2488
45.4827 688 26.2298
45.6001 684 26.1534
45.7174 711 26.6646
45.8348 664 25.7682
45.9522 693 26.3249
46.0697 646 25.4165
46.1871 611 24.7184
46.3046 553 23.516
46.422 565 23.7697
46.5395 607 24.6374
46.657 604 24.5764
46.7745 637 25.2389
46.892 683 26.1343
47.0096 664 25.7682
47.1271 652 25.5343
47.2446 696 26.3818
47.3622 656 25.6125
47.4797 634 25.1794
47.5973 645 25.3969
47.7149 607 24.6374
47.8324 591 24.3105
47.95 579 24.0624
48.0675 560 23.6643
48.1851 503 22.4277
48.3027 483 21.9773
48.4202 438 20.9284
48.5378 502 22.4054
48.6554 494 22.2261
48.7729 469 21.6564
48.8904 513 22.6495
49.008 542 23.2809
49.1255 557 23.6008
49.243 558 23.622
49.3605 577 24.0208
49.478 487 22.0681
49.5955 506 22.4944
49.713 448 21.166
49.8304 456 21.3542
49.9479 480 21.9089
50.0653 530 23.0217
50.1827 489 22.1133
50.3001 546 23.3666
50.4175 616 24.8193
50.5348 591 24.3105
50.6521 601 24.5153
50.7694 613 24.7588
50.8867 638 25.2587
51.004 661 25.7099
51.1212 639 25.2784
51.2384 713 26.7021
51.3556 660 25.6905
51.4727 677 26.0192
51.5899 644 25.3772
51.707 629 25.0799
51.824 586 24.2074
51.9411 626 25.02
52.0581 631 25.1197
52.175 719 26.8142
52.2919 719 26.8142
52.4088 765 27.6586
52.5257 822 28.6705
52.6425 811 28.4781
52.7593 829 28.7924
52.876 861 29.3428
52.9927 827 28.7576
53.1094 798 28.2489
53.226 753 27.4408
53.3426 747 27.3313
53.4591 726 26.9444
53.5756 794 28.178
53.692 852 29.189
53.8084 946 30.7571
53.9248 981 31.3209
54.0411 979 31.289
54.1573 1011 31.7962
54.2735 0 1
54.3896 0 1
54.5057 0 1
54.6217 0 1
54.7377 0 1
54.8537 0 1
54.9695 0 1
55.0853 0 1
55.2011 0 1
55.3168 0 1
55.4324 0 1
57.824 0 1
57.9396 0 1
58.0553 0 1
58.1711 0 1
58.2869 0 1
58.4028 0 1
58.5187 0 1
58.6347 0 1
58.7508 0 1
58.8669 0 1
58.983 1065 32.6343
59.0992 1088 32.9848
59.2155 1154 33.9706
59.3318 1197 34.5977
59.4482 1205 34.7131
59.5646 1259 35.4824
59.681 1217 34.8855
59.7975 1163 34.1028
59.9141 1154 33.9706
60.0306 1110 33.3167
60.1473 1038 32.218
60.2639 1001 31.6386
60.3807 905 30.0832
60.4974 887 29.7825
60.6142 878 29.6311
60.731 929 30.4795
60.8479 895 29.9166
60.9648 982 31.3369
61.0818 942 30.692
61.1987 1031 32.1092
61.3158 1041 32.2645
61.4328 1037 32.2025
61.5499 1019 31.9218
61.667 1007 31.7333
61.7841 904 30.0666
61.9013 872 29.5296
62.0185 870 29.4958
62.1357 950 30.8221
62.253 979 31.289
62.3702 1059 32.5423
62.4875 1056 32.4962
62.6049 1137 33.7194
62.7222 1228 35.0428
62.8396 1167 34.1614
62.9569 1199 34.6266
63.0743 1175 34.2783
63.1918 1151 33.9264
63.3092 1162 34.0881
63.4267 1173 34.2491
63.5441 1147 33.8674
63.6616 1090 33.0151
63.7791 1014 31.8434
63.8966 984 31.3688
64.0142 927 30.4467
64.1317 935 30.5778
64.2492 947 30.7734
64.3668 992 31.496
64.4843 1042 32.28
64.6019 1034 32.1559
64.7195 985 31.3847
64.837 1068 32.6803
64.9546 1082 32.8938
65.0722 1097 33.121
65.1898 1019 31.9218
65.3074 943 30.7083
65.4249 888 29.7993
65.5425 909 30.1496
65.6601 892 29.8664
65.7777 858 29.2916
65.8952 1031 32.1092
66.0128 1057 32.5115
66.1304 1094 33.0757
66.2479 1097 33.121
66.3655 1128 33.5857
66.483 1120 33.4664
66.6005 1120 33.4664
66.718 1148 33.8821
66.8355 1105 33.2415
66.953 1143 33.8083
67.0705 1093 33.0606
67.1879 1043 32.2955
67.3054 946 30.7571
67.4228 880 29.6648
67.5402 835 28.8964
67.6576 776 27.8568
67.7749 817 28.5832
67.8923 861 29.3428
68.0096 884 29.7321
68.1269 886 29.7658
68.2442 944 30.7246
68.3614 958 30.9516
68.4787 980 31.305
68.5958 977 31.257
68.713 957 30.9354
68.8302 854 29.2233
68.9473 818 28.6007
69.0643 797 28.2312
69.1814 748 27.3496
69.2984 779 27.9106
69.4154 839 28.9655
69.5323 957 30.9354
69.6492 954 30.8869
69.7661 1065 32.6343
69.8829 1063 32.6037
69.9997 1047 32.3574
70.1165 1068 32.6803
70.2332 1121 33.4813
70.3499 1200 34.641
70.4665 1133 33.6601
70.5831 1158 34.0294
70.6996 1029 32.078
70.8161 1023 31.9844
70.9326 988 31.4325
71.049 895 29.9166
71.1653 876 29.5973
71.2817 785 28.0179
71.3979 770 27.7489
71.5141 781 27.9464
71.6303 829 28.7924
71.7464 853 29.2062
71.8624 0 1
71.9784 0 1
72.0944 0 1
72.2102 0 1
72.3261 0 1
72.4418 0 1
72.5575 0 1
72.6732 0 1
75.1054 0 1
75.2209 0 1
75.3365 0 1
75.4521 0 1
75.5678 0 1
75.6835 0 1
75.7993 0 1
75.9151 0 1
76.031 0 1
76.147 925 30.4138
76.263 983 31.3528
76.3791 1011 31.7962
76.4952 889 29.8161
76.6113 826 28.7402
76.7276 763 27.6225
76.8438 834 28.8791
76.9601 839 28.9655
77.0765 907 30.1164
77.1929 1010 31.7805
77.3093 964 31.0483
77.4258 1027 32.0468
77.5423 966 31.0805
77.6589 1021 31.9531
77.7755 895 29.9166
77.8921 861 29.3428
78.0088 791 28.1247
78.1256 742 27.2397
78.2423 744 27.2764
78.3591 740 27.2029
78.4759 826 28.7402
78.5928 965 31.0644
78.7097 1054 32.4654
78.8266 1011 31.7962
78.9436 1069 32.6956
79.0606 1091 33.0303
79.1776 1058 32.5269
79.2946 1063 32.6037
79.4117 1069 32.6956
79.5288 1137 33.7194
79.6459 1055 32.4808
79.7631 1036 32.187
79.8802 930 30.4959
79.9974 884 29.7321
80.1147 811 28.4781
80.2319 767 27.6948
80.3491 728 26.9815
80.4664 793 28.1603
80.5837 776 27.8568
80.701 848 29.1204
80.8183 892 29.8664
80.9357 891 29.8496
81.053 846 29.0861
81.1704 888 29.7993
81.2877 883 29.7153
81.4051 841 29
81.5225 719 26.8142
81.6399 675 25.9808
81.7573 672 25.923
81.8747 611 24.7184
81.9922 685 26.1725
82.1096 747 27.3313
82.227 884 29.7321
82.3444 845 29.0689
82.4619 946 30.7571
82.5793 994 31.5278
82.6967 948 30.7896
82.8142 960 30.9839
82.9316 949 30.8058
83.049 909 30.1496
83.1664 872 29.5296
83.2838 904 30.0666
83.4012 851 29.1719
83.5186 856 29.2575
83.636 749 27.3679
83.7534 755 27.4773
83.8708 704 26.533
83.9881 695 26.3629
84.1055 662 25.7294
84.2228 671 25.9037
84.3401 727 26.9629
84.4575 772 27.7849
84.5747 784 28
84.692 811 28.4781
84.8093 816 28.5657
84.9265 781 27.9464
85.0437 763 27.6225
85.1609 640 25.2982
85.2781 640 25.2982
85.3952 593 24.3516
85.5123 647 25.4362
85.6294 707 26.5895
85.7465 775 27.8388
85.8636 838 28.9482
85.9806 903 30.05
86.0976 994 31.5278
86.2145 975 31.225
86.3315 1018 31.9061
86.4484 1035 32.1714
86.5652 1042 32.28
86.682 1020 31.9374
86.7988 1046 32.3419
86.9156 930 30.4959
87.0323 919 30.315
87.149 957 30.9354
87.2657 923 30.3809
87.3823 829 28.7924
87.4988 780 27.9285
87.6154 798 28.2489
87.7318 787 28.0535
87.8483 839 28.9655
87.9647 932 30.5287
88.081 1007 31.7333
88.1973 1057 32.5115
88.3136 1035 32.1714
88.4298 991 31.4802
88.546 938 30.6268
88.6621 883 29.7153
88.7781 753 27.4408
88.8942 0 1
89.0101 0 1
89.126 0 1
89.2419 0 1
89.3577 0 1
89.4734 0 1
89.5891 0 1
89.7047 0 1
89.8203 0 1
89.9358 0 1
92.3269 0 1
92.4424 0 1
92.558 0 1
92.6736 0 1
92.7893 0 1
92.905 0 1
93.0208 0 1
93.1366 0 1
93.2525 0 1
93.3685 0 1
93.4845 0 1
93.6005 977 31.257
93.7167 1019 31.9218
93.8328 982 31.3369
93.949 995 31.5436
94.0653 888 29.7993
94.1816 910 30.1662
94.2979 779 27.9106
94.4143 751 27.4044
94.5307 743 27.258
94.6472 795 28.1957
94.7637 822 28.6705
94.8803 948 30.7896
94.9969 962 31.0161
95.1135 1089 33
95.2302 1110 33.3167
95.3469 1164 34.1174
95.4637 1120 33.4664
95.5805 1195 34.5688
95.6973 1200 34.641
95.8142 1195 34.5688
95.9311 1214 34.8425
96.048 1156 34
96.1649 1057 32.5115
96.2819 1042 32.28
96.3989 1013 31.8277
96.516 922 30.3645
96.633 867 29.4449
96.7501 858 29.2916
96.8673 919 30.315
96.9844 917 30.282
97.1016 973 31.1929
97.2188 1026 32.0312
97.336 1105 33.2415
97.4532 1081 32.8786
97.5704 1094 33.0757
97.6877 935 30.5778
97.805 955 30.9031
97.9223 756 27.4955
98.0396 812 28.4956
98.1569 709 26.6271
98.2743 788 28.0713
98.3916 762 27.6043
98.509 916 30.2655
98.6264 1010 31.7805
98.7438 1053 32.45
98.8612 1176 34.2929
98.9786 1152 33.9411
99.096 1150 33.9116
99.2134 1142 33.7935
99.3308 1185 34.4238
99.4482 1198 34.6121
99.5656 1204 34.6987
99.6831 1110 33.3167
99.8005 1048 32.3728
99.9179 1031 32.1092
100.035 984 31.3688
100.153 958 30.9516
100.27 912 30.1993
100.388 902 30.0333
100.505 912 30.1993
100.622 1000 31.6228
100.74 1015 31.8591
100.857 1153 33.9559
100.975 1073 32.7567
101.092 1015 31.8591
101.209 1049 32.3883
101.327 988 31.4325
101.444 890 29.8329
101.561 817 28.5832
101.679 811 28.4781
101.796 761 27.5862
101.913 853 29.2062
102.03 902 30.0333
102.148 970 31.1448
102.265 1044 32.311
102.382 1228 35.0428
102.499 1180 34.3511
102.616 1251 35.3695
102.733 1259 35.4824
102.851 1244 35.2704
102.968 1272 35.6651
103.085 1288 35.8887
103.202 1240 35.2136
103.319 1137 33.7194
103.436 1101 33.1813
103.552 1102 33.1964
103.669 1017 31.8904
103.786 959 30.9677
103.903 962 31.0161
104.02 980 31.305
104.137 1014 31.8434
104.253 1127 33.5708
104.37 1139 33.7491
104.487 1128 33.5857
104.603 1074 32.7719
104.72 1096 33.1059
104.836 997 31.5753
104.953 918 30.2985
105.069 851 29.1719
105.186 861 29.3428
105.302 850 29.1548
105.418 943 30.7083
105.535 1015 31.8591
105.651 1209 34.7707
105.767 1246 35.2987
105.883 1342 36.6333
105.999 1336 36.5513
106.115 0 1
106.231 0 1
106.347 0 1
106.463 0 1
106.579 0 1
106.694 0 1
106.81 0 1
106.926 0 1
107.041 0 1
107.157 0 1
109.576 0 1
109.692 0 1
109.807 0 1
109.923 0 1
110.039 0 1
110.155 0 1
110.27 0 1
110.386 0 1
110.502 0 1
110.618 1014 31.8434
110.735 1085 32.9393
110.851 1253 35.3977
110.967 1229 35.0571
111.083 1271 35.6511
111.199 1302 36.0832
111.316 1312 36.2215
111.432 1346 36.6879
111.549 1306 36.1386
111.665 1251 35.3695
111.782 1203 34.6843
111.898 1183 34.3948
112.015 1117 33.4215
112.132 1086 32.9545
112.248 1071 32.7261
112.365 983 31.3528
112.482 959 30.9677
112.599 1060 32.5576
112.716 1091 33.0303
112.832 1105 33.2415
112.949 1067 32.665
113.066 1056 32.4962
113.183 1095 33.0908
113.3 990 31.4643
113.417 957 30.9354
113.534 888 29.7993
113.652 802 28.3196
113.769 777 27.8747
113.886 794 28.178
114.003 845 29.0689
114.12 994 31.5278
114.238 1060 32.5576
114.355 1168 34.176
114.472 1149 33.8969
114.589 1202 34.6699
114.707 1195 34.5688
114.824 1317 36.2905
114.942 1255 35.426
115.059 1295 35.9861
115.176 1249 35.3412
115.294 1238 35.1852
115.411 1142 33.7935
115.529 1137 33.7194
115.646 1106 33.2566
115.764 1065 32.6343
115.881 999 31.607
115.999 1015 31.8591
116.116 1061 32.573
116.234 1062 32.5883
116.351 1127 33.5708
116.469 1123 33.5112
116.586 1159 34.0441
116.704 1155 33.9853
116.821 1111 33.3317
116.939 1033 32.1403
117.056 921 30.348
117.174 895 29.9166
117.291 838 28.9482
117.409 840 28.9828
117.526 861 29.3428
117.644 1032 32.1248
117.761 1084 32.9242
117.879 1242 35.242
117.996 1234 35.1283
118.114 1298 36.0278
118.231 1281 35.7911
118.349 1297 36.0139
118.466 1356 36.8239
118.584 1392 37.3095
118.701 1339 36.5923
118.819 1289 35.9026
118.936 1234 35.1283
119.053 1238 35.1852
119.171 1126 33.5559
119.288 1142 33.7935
119.405 1085 32.9393
119.523 1078 32.8329
119.64 1108 33.2866
119.757 1078 32.8329
119.875 1180 34.3511
119.992 1137 33.7194
120.109 1130 33.6155
120.226 1129 33.6006
120.343 1119 33.4515
120.46 1063 32.6037
120.578 1000 31.6228
120.695 981 31.3209
120.812 905 30.0832
120.929 899 29.9833
121.046 913 30.2159
121.163 863 29.3769
121.279 1001 31.6386
121.396 1052 32.4345
121.513 1190 34.4964
121.63 1309 36.1801
121.747 1204 34.6987
121.863 1283 35.819
121.98 1287 35.8748
122.097 1280 35.7771
122.213 1372 37.0405
122.33 1260 35.4965
122.446 1343 36.647
122.563 1207 34.7419
122.679 1186 34.4384
122.795 1210 34.7851
122.912 1153 33.9559
123.028 1125 33.541
123.144 1049 32.3883
123.26 1048 32.3728
123.377 0 1
123.493 0 1
123.609 0 1
123.725 0 1
123.84 0 1
123.956 0 1
124.072 0 1
124.188 0 1
124.303 0 1
124.419 0 1
126.852 0 1
126.968 0 1
127.083 0 1
127.199 0 1
127.315 0 1
127.431 0 1
127.547 0 1
127.663 0 1
127.779 0 1
127.895 0 1
128.011 0 1
128.127 0 1
128.243 0 1
128.359 1211 34.7994
128.476 1204 34.6987
128.592 1228 35.0428
128.708 1259 35.4824
128.825 1316 36.2767
128.941 1245 35.2846
129.058 1214 34.8425
129.174 1231 35.0856
129.291 1217 34.8855
129.408 1227 35.0286
129.524 1139 33.7491
129.641 1071 32.7261
129.758 1000 31.6228
129.875 991 31.4802
129.992 970 31.1448
130.108 979 31.289
130.225 989 31.4484
130.342 1157 34.0147
130.459 1139 33.7491
130.576 1302 36.0832
130.693 1324 36.3868
130.81 1294 35.9722
130.928 1345 36.6742
131.045 1332 36.4966
131.162 1411 37.5633
131.279 1349 36.7287
131.396 1414 37.6032
131.513 1426 37.7624
131.631 1305 36.1248
131.748 1229 35.0571
131.865 1236 35.1568
131.983 1258 35.4683
132.1 1272 35.6651
132.217 1249 35.3412
132.335 1327 36.428
132.452 1278 35.7491
132.57 1280 35.7771
132.687 1225 35
132.804 1316 36.2767
132.922 1220 34.9285
133.039 1261 35.5106
133.157 1080 32.8634
133.274 1081 32.8786
133.392 988 31.4325
133.509 1056 32.4962
133.627 965 31.0644
133.744 1033 32.1403
133.862 1097 33.121
133.979 1216 34.8712
134.097 1224 34.9857
134.214 1242 35.242
134.332 1283 35.819
134.449 1326 36.4143
134.567 1388 37.2559
134.684 1264 35.5528
134.802 1437 37.9078
134.919 1367 36.973
135.037 1377 37.108
135.154 1360 36.8782
135.272 1335 36.5377
135.389 1264 35.5528
135.507 1296 36
135.624 1289 35.9026
135.742 1251 35.3695
135.859 1315 36.2629
135.977 1274 35.6931
136.094 1310 36.1939
136.211 1332 36.4966
136.329 1274 35.6931
136.446 1340 36.606
136.564 1251 35.3695
136.681 1168 34.176
136.798 1155 33.9853
136.915 1063 32.6037
137.033 1001 31.6386
137.15 998 31.5911
137.267 1003 31.6702
137.384 1053 32.45
137.502 1102 33.1964
137.619 1177 34.3074
137.736 1229 35.0571
137.853 1260 35.4965
137.97 1341 36.6197
138.087 1321 36.3456
138.204 1298 36.0278
138.321 1392 37.3095
138.438 1433 37.855
138.555 1329 36.4555
138.672 1413 37.5899
138.788 1311 36.2077
138.905 1318 36.3043
139.022 1270 35.6371
139.139 1298 36.0278
139.255 1304 36.1109
139.372 1313 36.2353
139.488 1317 36.2905
139.605 1352 36.7696
139.721 1320 36.3318
139.838 1309 36.1801
139.954 1276 35.7211
140.071 1250 35.3553
140.187 1167 34.1614
140.303 1196 34.5832
140.419 1086 32.9545
140.535 1064 32.619
140.652 969 31.1288
140.768 0 1
140.884 0 1
141 0 1
141.115 0 1
141.231 0 1
141.347 0 1
141.463 0 1
141.578 0 1
141.694 0 1
144.104 0 1
144.219 0 1
144.335 0 1
144.45 0 1
144.566 0 1
144.682 0 1
144.798 0 1
144.914 0 1
145.03 0 1
145.146 874 29.5635
145.262 937 30.6105
145.378 960 30.9839
145.494 895 29.9166
145.61 900 30
145.726 876 29.5973
145.842 797 28.2312
145.959 755 27.4773
146.075 835 28.8964
146.192 794 28.178
146.308 840 28.9828
146.425 906 30.0998
146.541 938 30.6268
146.658 967 31.0966
146.774 1039 32.2335
146.891 1005 31.7017
147.008 1050 32.4037
147.125 1087 32.9697
147.241 1081 32.8786
147.358 1049 32.3883
147.475 1091 33.0303
147.592 1088 32.9848
147.709 1077 32.8177
147.826 1036 32.187
147.943 1030 32.0936
148.06 1022 31.9687
148.177 987 31.4166
148.294 1097 33.121
148.411 1037 32.2025
148.528 1069 32.6956
148.645 991 31.4802
148.762 1071 32.7261
148.88 1064 32.619
148.997 1031 32.1092
149.114 984 31.3688
149.231 956 30.9192
149.349 915 30.249
149.466 925 30.4138
149.583 895 29.9166
149.701 876 29.5973
149.818 824 28.7054
149.935 795 28.1957
150.053 900 30
150.17 920 30.3315
150.287 913 30.2159
150.405 992 31.496
150.522 984 31.3688
150.64 1029 32.078
150.757 976 31.241
150.875 1052 32.4345
150.992 1091 33.0303
151.11 1108 33.2866
151.227 1091 33.0303
151.344 1126 33.5559
151.462 1061 32.573
151.579 1046 32.3419
151.697 1001 31.6386
151.814 1011 31.7962
151.932 1069 32.6956
152.049 1073 32.7567
152.167 1077 32.8177
152.284 1002 31.6544
152.402 1061 32.573
152.519 1040 32.249
152.636 1062 32.5883
152.754 1017 31.8904
152.871 1021 31.9531
152.989 988 31.4325
153.106 950 30.8221
153.223 919 30.315
153.341 891 29.8496
153.458 901 30.0167
153.575 860 29.3258
153.693 946 30.7571
153.81 972 31.1769
153.927 1018 31.9061
154.044 1044 32.311
154.162 1041 32.2645
154.279 1101 33.1813
154.396 1146 33.8526
154.513 1170 34.2053
154.63 1169 34.1906
154.747 1245 35.2846
154.864 1122 33.4963
154.981 1197 34.5977
155.098 1122 33.4963
155.215 1127 33.5708
155.332 1082 32.8938
155.449 1179 34.3366
155.566 1059 32.5423
155.683 1173 34.2491
155.8 1192 34.5254
155.917 1203 34.6843
156.033 1172 34.2345
156.15 0 1
156.267 0 1
156.383 0 1
156.5 0 1
156.617 0 1
156.733 0 1
156.85 0 1
156.966 0 1
157.082 0 1
157.199 0 1
157.315 0 1
157.431 0 1
157.547 0 1
157.664 0 1
157.78 0 1
157.896 0 1
158.012 0 1
158.128 0 1
158.244 0 1
158.359 0 1
158.475 0 1
158.591 0 1
158.706 0 1
