
6.15755 0 1
6.2731 0 1
6.3887 0 1
6.50437 0 1
6.62009 0 1
6.73587 0 1
6.8517 0 1
6.96759 0 1
7.08353 0 1
7.19952 0 1
7.31557 0 1
7.43166 0 1
7.54781 0 1
7.664 0 1
7.78024 0 1
7.89653 0 1
8.01286 0 1
8.12924 0 1
8.24567 0 1
8.36213 0 1
8.47864 0 1
8.59519 0 1
8.71178 0 1
8.82841 0 1
8.94508 0 1
9.06179 0 1
9.17853 0 1
9.29531 0 1
9.41212 0 1
9.52897 0 1
9.64584 0 1
9.76276 0 1
9.8797 0 1
9.99667 0 1
10.1137 0 1
10.2307 0 1
10.3478 0 1
10.4648 0 1
10.5819 0 1
10.6991 0 1
10.8162 0 1
10.9334 0 1
11.0506 0 1
11.1678 0 1
11.285 0 1
11.4023 0 1
11.5196 0 1
11.6369 0 1
11.7542 0 1
11.8715 0 1
11.9888 0 1
12.1062 0 1
12.2235 0 1
12.3409 0 1
12.4582 0 1
12.5756 0 1
12.693 0 1
12.8104 0 1
12.9278 0 1
13.0452 0 1
13.1626 0 1
13.28 0 1
13.3974 0 1
13.5149 0 1
13.6323 0 1
13.7497 0 1
13.8671 0 1
13.9845 0 1
14.1019 0 1
14.2193 0 1
14.3367 0 1
14.4541 0 1
14.5714 0 1
14.6888 0 1
14.8062 0 1
14.9235 0 1
15.0408 1493 38.6394
15.1581 1574 39.6737
15.2755 1676 40.939
15.3927 1705 41.2916
15.51 1654 40.6694
15.6273 1758 41.9285
15.7445 1694 41.1582
15.8617 1719 41.4608
15.9789 1663 40.7799
16.0961 1734 41.6413
16.2132 1723 41.509
16.3304 1675 40.9268
16.4475 1795 42.3674
16.5646 1838 42.8719
16.6816 1839 42.8836
16.7986 1978 44.4747
16.9156 1992 44.6318
17.0326 2027 45.0222
17.1496 2014 44.8776
17.2665 2040 45.1664
17.3833 1972 44.4072
17.5002 1897 43.5546
17.617 1824 42.7083
17.7338 1752 41.8569
17.8505 1724 41.5211
17.9672 1722 41.497
18.0839 1763 41.9881
18.2005 1724 41.5211
18.3171 1817 42.6263
18.4337 1819 42.6497
18.5502 1946 44.1135
18.6666 1930 43.9318
18.7831 1990 44.6094
18.8994 1927 43.8976
19.0158 1946 44.1135
19.1321 1857 43.0929
19.2483 1883 43.3935
19.3645 1784 42.2374
19.4806 1590 39.8748
19.5967 1500 38.7298
19.7128 1382 37.1753
19.8288 1299 36.0416
19.9447 1201 34.6554
20.0606 0 1
20.1764 0 1
20.2922 0 1
20.4079 0 1
20.5236 0 1
20.6392 0 1
20.7548 0 1
20.8702 0 1
23.3078 0 1
23.4233 0 1
23.539 0 1
23.6547 0 1
23.7704 0 1
23.8862 0 1
24.0021 0 1
24.118 0 1
24.234 0 1
24.35 0 1
24.4661 810 28.4605
24.5822 934 30.5614
24.6984 1091 33.0303
24.8146 1158 34.0294
24.9309 1285 35.8469
25.0472 1475 38.4057
25.1636 1640 40.4969
25.28 1640 40.4969
25.3965 1789 42.2966
25.513 1835 42.8369
25.6296 2090 45.7165
25.7462 2048 45.2548
25.8628 2096 45.7821
25.9795 2119 46.0326
26.0962 2052 45.299
26.213 2024 44.9889
26.3298 1914 43.7493
26.4466 1816 42.6146
26.5635 1767 42.0357
26.6804 1827 42.7434
26.7973 1830 42.7785
26.9143 1945 44.1022
27.0313 1868 43.2204
27.1483 1944 44.0908
27.2653 1956 44.2267
27.3824 2029 45.0444
27.4996 2011 44.8442
27.6167 1978 44.4747
27.7339 1798 42.4028
27.8511 1903 43.6234
27.9683 1878 43.3359
28.0855 1846 42.9651
28.2028 1772 42.0951
28.3201 1732 41.6173
28.4374 1736 41.6653
28.5547 1724 41.5211
28.6721 1826 42.7317
28.7894 1860 43.1277
28.9068 1940 44.0454
29.0242 2002 44.7437
29.1416 2006 44.7884
29.259 2042 45.1885
29.3764 2040 45.1664
29.4939 2046 45.2327
29.6113 1923 43.852
29.7288 1924 43.8634
29.8463 1893 43.5086
29.9638 1770 42.0714
30.0812 1690 41.1096
30.1987 1648 40.5956
30.3162 1836 42.8486
30.4337 1735 41.6533
30.5512 1804 42.4735
30.6687 1877 43.3244
30.7862 1883 43.3935
30.9037 1986 44.5646
31.0212 1979 44.486
31.1387 1915 43.7607
31.2562 1921 43.8292
31.3737 1901 43.6005
31.4912 1856 43.0813
31.6087 1767 42.0357
31.7262 1747 41.7971
31.8436 1563 39.5348
31.9611 1666 40.8167
32.0785 1636 40.4475
32.1959 1708 41.328
32.3134 1819 42.6497
32.4308 1837 42.8602
32.5482 1900 43.589
32.6655 2029 45.0444
32.7829 1993 44.643
32.9002 2021 44.9555
33.0176 1969 44.3734
33.1349 1902 43.6119
33.2522 1878 43.3359
33.3694 1831 42.7902
33.4867 1785 42.2493
33.6039 1683 41.0244
33.7211 1641 40.5093
33.8383 1577 39.7115
33.9554 1648 40.5956
34.0725 1653 40.6571
34.1896 1690 41.1096
34.3067 1850 43.0116
34.4237 1777 42.1545
34.5407 1819 42.6497
34.6577 1868 43.2204
34.7746 1832 42.8019
34.8915 1855 43.0697
35.0084 1752 41.8569
35.1252 1762 41.9762
35.242 1734 41.6413
35.3587 1703 41.2674
35.4755 1708 41.328
35.5921 1554 39.4208
35.7088 1547 39.3319
35.8254 1642 40.5216
35.9419 1649 40.6079
36.0584 1715 41.4126
36.1749 1740 41.7133
36.2913 1714 41.4005
36.4077 1720 41.4729
36.524 1756 41.9047
36.6403 1633 40.4104
36.7565 1563 39.5348
36.8727 1521 39
36.9889 1413 37.5899
37.1049 1232 35.0999
37.221 0 1
37.3369 0 1
37.4529 0 1
37.5687 0 1
37.6845 0 1
37.8003 0 1
37.916 0 1
38.0316 0 1
38.1472 0 1
40.5851 0 1
40.7008 0 1
40.8164 0 1
40.9322 0 1
41.048 0 1
41.1639 0 1
41.2798 0 1
41.3958 0 1
41.5118 0 1
41.6279 0 1
41.744 884 29.7321
41.8602 994 31.5278
41.9765 1084 32.9242
42.0928 1118 33.4365
42.2091 1176 34.2929
42.3255 1103 33.2114
42.4419 1102 33.1964
42.5584 1098 33.1361
42.675 1193 34.5398
42.7915 1307 36.1525
42.9081 1316 36.2767
43.0248 1437 37.9078
43.1415 1466 38.2884
43.2582 1492 38.6264
43.375 1469 38.3275
43.4918 1496 38.6782
43.6087 1497 38.6911
43.7256 1526 39.064
43.8425 1421 37.6962
43.9595 1478 38.4448
44.0765 1350 36.7423
44.1935 1414 37.6032
44.3106 1423 37.7227
44.4277 1271 35.6511
44.5448 1271 35.6511
44.6619 1289 35.9026
44.7791 1420 37.6829
44.8963 1376 37.0945
45.0136 1547 39.3319
45.1308 1532 39.1408
45.2481 1553 39.4081
45.3654 1581 39.7618
45.4827 1569 39.6106
45.6001 1517 38.9487
45.7174 1471 38.3536
45.8348 1414 37.6032
45.9522 1359 36.8646
46.0697 1261 35.5106
46.1871 1241 35.2278
46.3046 1267 35.5949
46.422 1425 37.7492
46.5395 1420 37.6829
46.657 1464 38.2623
46.7745 1538 39.2173
46.892 1503 38.7685
47.0096 1532 39.1408
47.1271 1527 39.0768
47.2446 1533 39.1535
47.3622 1505 38.7943
47.4797 1526 39.064
47.5973 1470 38.3406
47.7149 1424 37.7359
47.8324 1402 37.4433
47.95 1384 37.2022
48.0675 1390 37.2827
48.1851 1271 35.6511
48.3027 1359 36.8646
48.4202 1375 37.081
48.5378 1514 38.9102
48.6554 1532 39.1408
48.7729 1495 38.6652
48.8904 1629 40.3609
49.008 1579 39.7366
49.1255 1567 39.5854
49.243 1483 38.5097
49.3605 1383 37.1887
49.478 1289 35.9026
49.5955 1212 34.8138
49.713 1120 33.4664
49.8304 1274 35.6931
49.9479 1280 35.7771
50.0653 1379 37.1349
50.1827 1488 38.5746
50.3001 1454 38.1314
50.4175 1493 38.6394
50.5348 1588 39.8497
50.6521 1539 39.2301
50.7694 1559 39.4842
50.8867 1605 40.0625
51.004 1557 39.4588
51.1212 1582 39.7744
51.2384 1498 38.704
51.3556 1469 38.3275
51.4727 1464 38.2623
51.5899 1352 36.7696
51.707 1345 36.6742
51.824 1434 37.8682
51.9411 1623 40.2865
52.0581 1650 40.6202
52.175 1869 43.2319
52.2919 1859 43.1161
52.4088 1800 42.4264
52.5257 1971 44.3959
52.6425 2008 44.8107
52.7593 1991 44.6206
52.876 1850 43.0116
52.9927 1861 43.1393
53.1094 1729 41.5812
53.226 1645 40.5586
53.3426 1569 39.6106
53.4591 1601 40.0125
53.5756 1668 40.8412
53.692 1637 40.4599
53.8084 1589 39.8623
53.9248 1609 40.1123
54.0411 1480 38.4708
54.1573 1426 37.7624
54.2735 0 1
54.3896 0 1
54.5057 0 1
54.6217 0 1
54.7377 0 1
54.8537 0 1
54.9695 0 1
55.0853 0 1
55.2011 0 1
55.3168 0 1
55.4324 0 1
57.824 0 1
57.9396 0 1
58.0553 0 1
58.1711 0 1
58.2869 0 1
58.4028 0 1
58.5187 0 1
58.6347 0 1
58.7508 0 1
58.8669 0 1
58.983 1175 34.2783
59.0992 1411 37.5633
59.2155 1536 39.1918
59.3318 1712 41.3763
59.4482 1694 41.1582
59.5646 1722 41.497
59.681 1844 42.9418
59.7975 1781 42.2019
59.9141 1793 42.3438
60.0306 1782 42.2137
60.1473 1709 41.3401
60.2639 1654 40.6694
60.3807 1679 40.9756
60.4974 1702 41.2553
60.6142 1765 42.0119
60.731 1905 43.6463
60.8479 1974 44.4297
60.9648 2000 44.7214
61.0818 1966 44.3396
61.1987 1978 44.4747
61.3158 1902 43.6119
61.4328 1840 42.8952
61.5499 1738 41.6893
61.667 1672 40.8901
61.7841 1584 39.7995
61.9013 1511 38.8716
62.0185 1529 39.1024
62.1357 1594 39.9249
62.253 1661 40.7554
62.3702 1704 41.2795
62.4875 1777 42.1545
62.6049 1836 42.8486
62.7222 1923 43.852
62.8396 1867 43.2088
62.9569 2008 44.8107
63.0743 1912 43.7264
63.1918 1936 44
63.3092 1915 43.7607
63.4267 1855 43.0697
63.5441 1784 42.2374
63.6616 1741 41.7253
63.7791 1586 39.8246
63.8966 1528 39.0896
64.0142 1536 39.1918
64.1317 1658 40.7185
64.2492 1785 42.2493
64.3668 1898 43.566
64.4843 1974 44.4297
64.6019 1933 43.9659
64.7195 1976 44.4522
64.837 1941 44.0568
64.9546 1949 44.1475
65.0722 1823 42.6966
65.1898 1743 41.7493
65.3074 1531 39.128
65.4249 1442 37.9737
65.5425 1422 37.7094
65.6601 1452 38.1051
65.7777 1642 40.5216
65.8952 1706 41.3038
66.0128 1793 42.3438
66.1304 1766 42.0238
66.2479 1765 42.0119
66.3655 1790 42.3084
66.483 1872 43.2666
66.6005 1964 44.317
66.718 1879 43.3474
66.8355 1805 42.4853
66.953 1806 42.4971
67.0705 1673 40.9023
67.1879 1744 41.7612
67.3054 1581 39.7618
67.4228 1561 39.5095
67.5402 1483 38.5097
67.6576 1502 38.7556
67.7749 1553 39.4081
67.8923 1670 40.8656
68.0096 1756 41.9047
68.1269 1746 41.7852
68.2442 1886 43.4281
68.3614 1935 43.9886
68.4787 1859 43.1161
68.5958 1843 42.9302
68.713 1705 41.2916
68.8302 1738 41.6893
68.9473 1483 38.5097
69.0643 1510 38.8587
69.1814 1355 36.8103
69.2984 1354 36.7967
69.4154 1476 38.4187
69.5323 1549 39.3573
69.6492 1710 41.3521
69.7661 1738 41.6893
69.8829 1841 42.9069
69.9997 1682 41.0122
70.1165 1661 40.7554
70.2332 1638 40.4722
70.3499 1528 39.0896
70.4665 1528 39.0896
70.5831 1418 37.6563
70.6996 1349 36.7287
70.8161 1257 35.4542
70.9326 1144 33.8231
71.049 1101 33.1813
71.1653 846 29.0861
71.2817 795 28.1957
71.3979 726 26.9444
71.5141 647 25.4362
71.6303 711 26.6646
71.7464 650 25.4951
71.8624 0 1
71.9784 0 1
72.0944 0 1
72.2102 0 1
72.3261 0 1
72.4418 0 1
72.5575 0 1
72.6732 0 1
75.1054 0 1
75.2209 0 1
75.3365 0 1
75.4521 0 1
75.5678 0 1
75.6835 0 1
75.7993 0 1
75.9151 0 1
76.031 0 1
76.147 1141 33.7787
76.263 1184 34.4093
76.3791 1175 34.2783
76.4952 1132 33.6452
76.6113 1180 34.3511
76.7276 1333 36.5103
76.8438 1371 37.027
76.9601 1526 39.064
77.0765 1506 38.8072
77.1929 1587 39.8372
77.3093 1622 40.2741
77.4258 1580 39.7492
77.5423 1558 39.4715
77.6589 1500 38.7298
77.7755 1453 38.1182
77.8921 1261 35.5106
78.0088 1181 34.3657
78.1256 1135 33.6898
78.2423 1147 33.8674
78.3591 1187 34.4529
78.4759 1288 35.8887
78.5928 1379 37.1349
78.7097 1390 37.2827
78.8266 1512 38.8844
78.9436 1535 39.1791
79.0606 1490 38.6005
79.1776 1627 40.3361
79.2946 1566 39.5727
79.4117 1600 40
79.5288 1508 38.833
79.6459 1552 39.3954
79.7631 1529 39.1024
79.8802 1419 37.6696
79.9974 1382 37.1753
80.1147 1260 35.4965
80.2319 1262 35.5246
80.3491 1262 35.5246
80.4664 1340 36.606
80.5837 1501 38.7427
80.701 1564 39.5474
80.8183 1681 41
80.9357 1684 41.0366
81.053 1542 39.2683
81.1704 1675 40.9268
81.2877 1593 39.9124
81.4051 1642 40.5216
81.5225 1429 37.8021
81.6399 1356 36.8239
81.7573 1242 35.242
81.8747 1190 34.4964
81.9922 1130 33.6155
82.1096 1229 35.0571
82.227 1370 37.0135
82.3444 1460 38.2099
82.4619 1492 38.6264
82.5793 1616 40.1995
82.6967 1681 41
82.8142 1615 40.1871
82.9316 1722 41.497
83.049 1729 41.5812
83.1664 1594 39.9249
83.2838 1622 40.2741
83.4012 1560 39.4968
83.5186 1526 39.064
83.636 1499 38.7169
83.7534 1413 37.5899
83.8708 1343 36.647
83.9881 1250 35.3553
84.1055 1382 37.1753
84.2228 1464 38.2623
84.3401 1539 39.2301
84.4575 1723 41.509
84.5747 1650 40.6202
84.692 1650 40.6202
84.8093 1727 41.5572
84.9265 1700 41.2311
85.0437 1565 39.5601
85.1609 1483 38.5097
85.2781 1299 36.0416
85.3952 1206 34.7275
85.5123 1152 33.9411
85.6294 1186 34.4384
85.7465 1299 36.0416
85.8636 1413 37.5899
85.9806 1510 38.8587
86.0976 1619 40.2368
86.2145 1581 39.7618
86.3315 1625 40.3113
86.4484 1717 41.4367
86.5652 1664 40.7922
86.682 1665 40.8044
86.7988 1627 40.3361
86.9156 1593 39.9124
87.0323 1688 41.0853
87.149 1504 38.7814
87.2657 1466 38.2884
87.3823 1368 36.9865
87.4988 1145 33.8378
87.6154 1127 33.5708
87.7318 1199 34.6266
87.8483 1298 36.0278
87.9647 1348 36.7151
88.081 1309 36.1801
88.1973 1307 36.1525
88.3136 1207 34.7419
88.4298 1225 35
88.546 1127 33.5708
88.6621 979 31.289
88.7781 804 28.3549
88.8942 0 1
89.0101 0 1
89.126 0 1
89.2419 0 1
89.3577 0 1
89.4734 0 1
89.5891 0 1
89.7047 0 1
89.8203 0 1
89.9358 0 1
92.3269 0 1
92.4424 0 1
92.558 0 1
92.6736 0 1
92.7893 0 1
92.905 0 1
93.0208 0 1
93.1366 0 1
93.2525 0 1
93.3685 0 1
93.4845 0 1
93.6005 1316 36.2767
93.7167 1352 36.7696
93.8328 1434 37.8682
93.949 1438 37.921
94.0653 1506 38.8072
94.1816 1532 39.1408
94.2979 1361 36.8917
94.4143 1239 35.1994
94.5307 1291 35.9305
94.6472 1270 35.6371
94.7637 1234 35.1283
94.8803 1303 36.0971
94.9969 1454 38.1314
95.1135 1541 39.2556
95.2302 1569 39.6106
95.3469 1568 39.598
95.4637 1630 40.3733
95.5805 1658 40.7185
95.6973 1758 41.9285
95.8142 1677 40.9512
95.9311 1722 41.497
96.048 1615 40.1871
96.1649 1627 40.3361
96.2819 1652 40.6448
96.3989 1522 39.0128
96.516 1428 37.7889
96.633 1404 37.47
96.7501 1308 36.1663
96.8673 1355 36.8103
96.9844 1439 37.9342
97.1016 1519 38.9744
97.2188 1688 41.0853
97.336 1710 41.3521
97.4532 1723 41.509
97.5704 1765 42.0119
97.6877 1738 41.6893
97.805 1732 41.6173
97.9223 1473 38.3797
98.0396 1424 37.7359
98.1569 1268 35.609
98.2743 1216 34.8712
98.3916 1219 34.9142
98.509 1292 35.9444
98.6264 1485 38.5357
98.7438 1484 38.5227
98.8612 1594 39.9249
98.9786 1679 40.9756
99.096 1683 41.0244
99.2134 1721 41.4849
99.3308 1759 41.9404
99.4482 1804 42.4735
99.5656 1707 41.3159
99.6831 1795 42.3674
99.8005 1730 41.5933
99.9179 1692 41.1339
100.035 1645 40.5586
100.153 1561 39.5095
100.27 1521 39
100.388 1379 37.1349
100.505 1512 38.8844
100.622 1639 40.4846
100.74 1807 42.5088
100.857 1876 43.3128
100.975 1846 42.9651
101.092 1862 43.1509
101.209 1880 43.359
101.327 1861 43.1393
101.444 1696 41.1825
101.561 1623 40.2865
101.679 1446 38.0263
101.796 1299 36.0416
101.913 1304 36.1109
102.03 1337 36.565
102.148 1488 38.5746
102.265 1622 40.2741
102.382 1753 41.8688
102.499 1770 42.0714
102.616 1837 42.8602
102.733 1843 42.9302
102.851 1836 42.8486
102.968 1894 43.5201
103.085 1926 43.8862
103.202 1931 43.9431
103.319 1812 42.5676
103.436 1843 42.9302
103.552 1731 41.6053
103.669 1737 41.6773
103.786 1604 40.05
103.903 1542 39.2683
104.02 1640 40.4969
104.137 1654 40.6694
104.253 1739 41.7013
104.37 1938 44.0227
104.487 1948 44.1362
104.603 1954 44.2041
104.72 1969 44.3734
104.836 1840 42.8952
104.953 1734 41.6413
105.069 1518 38.9615
105.186 1328 36.4417
105.302 1178 34.322
105.418 1211 34.7994
105.535 1094 33.0757
105.651 1188 34.4674
105.767 1214 34.8425
105.883 1181 34.3657
105.999 1157 34.0147
106.115 0 1
106.231 0 1
106.347 0 1
106.463 0 1
106.579 0 1
106.694 0 1
106.81 0 1
106.926 0 1
107.041 0 1
107.157 0 1
109.576 0 1
109.692 0 1
109.807 0 1
109.923 0 1
110.039 0 1
110.155 0 1
110.27 0 1
110.386 0 1
110.502 0 1
110.618 735 27.1109
110.735 1064 32.619
110.851 1129 33.6006
110.967 1355 36.8103
111.083 1402 37.4433
111.199 1543 39.281
111.316 1661 40.7554
111.432 1726 41.5452
111.549 1711 41.3642
111.665 1857 43.0929
111.782 1748 41.8091
111.898 1756 41.9047
112.015 1664 40.7922
112.132 1574 39.6737
112.248 1503 38.7685
112.365 1465 38.2753
112.482 1493 38.6394
112.599 1609 40.1123
112.716 1575 39.6863
112.832 1777 42.1545
112.949 1728 41.5692
113.066 1815 42.6028
113.183 1793 42.3438
113.3 1757 41.9166
113.417 1683 41.0244
113.534 1588 39.8497
113.652 1498 38.704
113.769 1420 37.6829
113.886 1228 35.0428
114.003 1175 34.2783
114.12 1294 35.9722
114.238 1507 38.8201
114.355 1566 39.5727
114.472 1561 39.5095
114.589 1679 40.9756
114.707 1665 40.8044
114.824 1773 42.107
114.942 1766 42.0238
115.059 1739 41.7013
115.176 1858 43.1045
115.294 1769 42.0595
115.411 1729 41.5812
115.529 1636 40.4475
115.646 1681 41
115.764 1542 39.2683
115.881 1480 38.4708
115.999 1525 39.0512
116.116 1559 39.4842
116.234 1569 39.6106
116.351 1704 41.2795
116.469 1809 42.5323
116.586 1858 43.1045
116.704 1757 41.9166
116.821 1833 42.8135
116.939 1751 41.845
117.056 1679 40.9756
117.174 1574 39.6737
117.291 1432 37.8418
117.409 1318 36.3043
117.526 1284 35.8329
117.644 1274 35.6931
117.761 1312 36.2215
117.879 1467 38.3014
117.996 1603 40.0375
118.114 1653 40.6571
118.231 1624 40.2989
118.349 1668 40.8412
118.466 1688 41.0853
118.584 1759 41.9404
118.701 1712 41.3763
118.819 1735 41.6533
118.936 1716 41.4246
119.053 1710 41.3521
119.171 1642 40.5216
119.288 1586 39.8246
119.405 1462 38.2361
119.523 1368 36.9865
119.64 1463 38.2492
119.757 1485 38.5357
119.875 1513 38.8973
119.992 1607 40.0874
120.109 1577 39.7115
120.226 1605 40.0625
120.343 1648 40.5956
120.46 1692 41.1339
120.578 1726 41.5452
120.695 1571 39.6358
120.812 1581 39.7618
120.929 1383 37.1887
121.046 1249 35.3412
121.163 1210 34.7851
121.279 1135 33.6898
121.396 1185 34.4238
121.513 1233 35.1141
121.63 1360 36.8782
121.747 1366 36.9594
121.863 1235 35.1426
121.98 1340 36.606
122.097 1383 37.1887
122.213 1399 37.4032
122.33 1336 36.5513
122.446 1306 36.1386
122.563 1227 35.0286
122.679 1101 33.1813
122.795 1056 32.4962
122.912 913 30.2159
123.028 879 29.6479
123.144 766 27.6767
123.26 666 25.807
123.377 0 1
123.493 0 1
123.609 0 1
123.725 0 1
123.84 0 1
123.956 0 1
124.072 0 1
124.188 0 1
124.303 0 1
124.419 0 1
126.852 0 1
126.968 0 1
127.083 0 1
127.199 0 1
127.315 0 1
127.431 0 1
127.547 0 1
127.663 0 1
127.779 0 1
127.895 0 1
128.011 0 1
128.127 0 1
128.243 0 1
128.359 1562 39.5221
128.476 1554 39.4208
128.592 1572 39.6485
128.708 1567 39.5854
128.825 1516 38.9358
128.941 1571 39.6358
129.058 1797 42.391
129.174 1741 41.7253
129.291 1865 43.1856
129.408 1817 42.6263
129.524 1837 42.8602
129.641 1869 43.2319
129.758 1730 41.5933
129.875 1700 41.2311
129.992 1493 38.6394
130.108 1400 37.4166
130.225 1347 36.7015
130.342 1362 36.9053
130.459 1347 36.7015
130.576 1411 37.5633
130.693 1561 39.5095
130.81 1682 41.0122
130.928 1707 41.3159
131.045 1739 41.7013
131.162 1781 42.2019
131.279 1737 41.6773
131.396 1733 41.6293
131.513 1713 41.3884
131.631 1737 41.6773
131.748 1693 41.1461
131.865 1754 41.8808
131.983 1660 40.7431
132.1 1610 40.1248
132.217 1548 39.3446
132.335 1635 40.4351
132.452 1629 40.3609
132.57 1702 41.2553
132.687 1850 43.0116
132.804 1813 42.5793
132.922 1841 42.9069
133.039 1860 43.1277
133.157 1845 42.9535
133.274 1789 42.2966
133.392 1728 41.5692
133.509 1554 39.4208
133.627 1518 38.9615
133.744 1510 38.8587
133.862 1306 36.1386
133.979 1345 36.6742
134.097 1506 38.8072
134.214 1630 40.3733
134.332 1622 40.2741
134.449 1741 41.7253
134.567 1720 41.4729
134.684 1816 42.6146
134.802 1787 42.2729
134.919 1886 43.4281
135.037 1723 41.509
135.154 1778 42.1663
135.272 1759 41.9404
135.389 1758 41.9285
135.507 1699 41.2189
135.624 1707 41.3159
135.742 1536 39.1918
135.859 1578 39.724
135.977 1642 40.5216
136.094 1673 40.9023
136.211 1691 41.1218
136.329 1789 42.2966
136.446 1926 43.8862
136.564 1809 42.5323
136.681 1840 42.8952
136.798 1827 42.7434
136.915 1843 42.9302
137.033 1800 42.4264
137.15 1584 39.7995
137.267 1465 38.2753
137.384 1441 37.9605
137.502 1405 37.4833
137.619 1374 37.0675
137.736 1492 38.6264
137.853 1561 39.5095
137.97 1577 39.7115
138.087 1671 40.8779
138.204 1736 41.6653
138.321 1764 42
138.438 1694 41.1582
138.555 1820 42.6615
138.672 1860 43.1277
138.788 1763 41.9881
138.905 1631 40.3856
139.022 1580 39.7492
139.139 1545 39.3065
139.255 1392 37.3095
139.372 1391 37.2961
139.488 1233 35.1141
139.605 1206 34.7275
139.721 1175 34.2783
139.838 1207 34.7419
139.954 1209 34.7707
140.071 1231 35.0856
140.187 1076 32.8024
140.303 1093 33.0606
140.419 967 31.0966
140.535 1023 31.9844
140.652 871 29.5127
140.768 0 1
140.884 0 1
141 0 1
141.115 0 1
141.231 0 1
141.347 0 1
141.463 0 1
141.578 0 1
141.694 0 1
144.104 0 1
144.219 0 1
144.335 0 1
144.45 0 1
144.566 0 1
144.682 0 1
144.798 0 1
144.914 0 1
145.03 0 1
145.146 1286 35.8608
145.262 1333 36.5103
145.378 1363 36.9188
145.494 1462 38.2361
145.61 1488 38.5746
145.726 1410 37.55
145.842 1305 36.1248
145.959 1267 35.5949
146.075 1234 35.1283
146.192 1137 33.7194
146.308 1101 33.1813
146.425 1055 32.4808
146.541 1217 34.8855
146.658 1189 34.4819
146.774 1257 35.4542
146.891 1323 36.3731
147.008 1270 35.6371
147.125 1339 36.5923
147.241 1344 36.6606
147.358 1398 37.3898
147.475 1427 37.7757
147.592 1313 36.2353
147.709 1398 37.3898
147.826 1368 36.9865
147.943 1246 35.2987
148.06 1241 35.2278
148.177 1167 34.1614
148.294 1279 35.7631
148.411 1323 36.3731
148.528 1276 35.7211
148.645 1379 37.1349
148.762 1327 36.428
148.88 1439 37.9342
148.997 1446 38.0263
149.114 1425 37.7492
149.231 1425 37.7492
149.349 1387 37.2424
149.466 1410 37.55
149.583 1290 35.9166
149.701 1229 35.0571
149.818 1094 33.0757
149.935 1082 32.8938
150.053 1107 33.2716
150.17 1135 33.6898
150.287 1245 35.2846
150.405 1236 35.1568
150.522 1143 33.8083
150.64 1289 35.9026
150.757 1278 35.7491
150.875 1309 36.1801
150.992 1349 36.7287
151.11 1401 37.4299
151.227 1285 35.8469
151.344 1337 36.565
151.462 1277 35.7351
151.579 1268 35.609
151.697 1227 35.0286
151.814 1147 33.8674
151.932 1205 34.7131
152.049 1164 34.1174
152.167 1240 35.2136
152.284 1373 37.054
152.402 1316 36.2767
152.519 1320 36.3318
152.636 1441 37.9605
152.754 1425 37.7492
152.871 1329 36.4555
152.989 1389 37.2693
153.106 1289 35.9026
153.223 1176 34.2929
153.341 1121 33.4813
153.458 1053 32.45
153.575 1042 32.28
153.693 1075 32.7872
153.81 1154 33.9706
153.927 1153 33.9559
154.044 1190 34.4964
154.162 1174 34.2637
154.279 1249 35.3412
154.396 1226 35.0143
154.513 1213 34.8281
154.63 1195 34.5688
154.747 1225 35
154.864 1289 35.9026
154.981 1257 35.4542
155.098 1180 34.3511
155.215 1128 33.5857
155.332 1178 34.322
155.449 1105 33.2415
155.566 1106 33.2566
155.683 1125 33.541
155.8 1134 33.6749
155.917 1163 34.1028
156.033 1190 34.4964
156.15 0 1
156.267 0 1
156.383 0 1
156.5 0 1
156.617 0 1
156.733 0 1
156.85 0 1
156.966 0 1
157.082 0 1
157.199 0 1
157.315 0 1
157.431 0 1
157.547 0 1
157.664 0 1
157.78 0 1
157.896 0 1
158.012 0 1
158.128 0 1
158.244 0 1
158.359 0 1
158.475 0 1
158.591 0 1
158.706 0 1
