
6.15755 0 1
6.2731 0 1
6.3887 0 1
6.50437 0 1
6.62009 0 1
6.73587 0 1
6.8517 0 1
6.96759 0 1
7.08353 0 1
7.19952 0 1
7.31557 0 1
7.43166 0 1
7.54781 0 1
7.664 0 1
7.78024 0 1
7.89653 0 1
8.01286 0 1
8.12924 0 1
8.24567 0 1
8.36213 0 1
8.47864 0 1
8.59519 0 1
8.71178 0 1
8.82841 0 1
8.94508 0 1
9.06179 0 1
9.17853 0 1
9.29531 0 1
9.41212 0 1
9.52897 0 1
9.64584 0 1
9.76276 0 1
9.8797 0 1
9.99667 0 1
10.1137 0 1
10.2307 0 1
10.3478 0 1
10.4648 0 1
10.5819 0 1
10.6991 0 1
10.8162 0 1
10.9334 0 1
11.0506 0 1
11.1678 0 1
11.285 0 1
11.4023 0 1
11.5196 0 1
11.6369 0 1
11.7542 0 1
11.8715 0 1
11.9888 0 1
12.1062 0 1
12.2235 0 1
12.3409 0 1
12.4582 0 1
12.5756 0 1
12.693 0 1
12.8104 0 1
12.9278 0 1
13.0452 0 1
13.1626 0 1
13.28 0 1
13.3974 0 1
13.5149 0 1
13.6323 0 1
13.7497 0 1
13.8671 0 1
13.9845 0 1
14.1019 0 1
14.2193 0 1
14.3367 0 1
14.4541 0 1
14.5714 0 1
14.6888 0 1
14.8062 0 1
14.9235 0 1
15.0408 3411 58.4038
15.1581 3579 59.8247
15.2755 3794 61.5955
15.3927 3737 61.131
15.51 3797 61.6198
15.6273 3780 61.4817
15.7445 3918 62.5939
15.8617 3898 62.434
15.9789 3829 61.8789
16.0961 3857 62.1048
16.2132 3831 61.8951
16.3304 3950 62.849
16.4475 3729 61.0655
16.5646 3821 61.8142
16.6816 3792 61.5792
16.7986 4014 63.3561
16.9156 4001 63.2535
17.0326 3920 62.6099
17.1496 4143 64.3661
17.2665 4139 64.3351
17.3833 4149 64.4127
17.5002 4215 64.923
17.617 4010 63.3246
17.7338 3917 62.5859
17.8505 3903 62.474
17.9672 3771 61.4085
18.0839 3520 59.3296
18.2005 3487 59.0508
18.3171 3613 60.1082
18.4337 3820 61.8061
18.5502 4171 64.5833
18.6666 4337 65.8559
18.7831 4345 65.9166
18.8994 4579 67.6683
19.0158 4483 66.9552
19.1321 4621 67.9779
19.2483 4507 67.1342
19.3645 4566 67.5722
19.4806 4613 67.9191
19.5967 4521 67.2384
19.7128 4546 67.424
19.8288 4429 66.5507
19.9447 3917 62.5859
20.0606 0 1
20.1764 0 1
20.2922 0 1
20.4079 0 1
20.5236 0 1
20.6392 0 1
20.7548 0 1
20.8702 0 1
23.3078 0 1
23.4233 0 1
23.539 0 1
23.6547 0 1
23.7704 0 1
23.8862 0 1
24.0021 0 1
24.118 0 1
24.234 0 1
24.35 0 1
24.4661 4897 69.9786
24.5822 4873 69.8069
24.6984 4856 69.685
24.8146 4882 69.8713
24.9309 5010 70.7814
25.0472 4919 70.1356
25.1636 4830 69.4982
25.28 4744 68.8767
25.3965 4697 68.5347
25.513 4872 69.7997
25.6296 4994 70.6682
25.7462 5118 71.5402
25.8628 5110 71.4843
25.9795 5201 72.118
26.0962 5278 72.6498
26.213 5249 72.45
26.3298 5321 72.9452
26.4466 5141 71.7008
26.5635 5037 70.9718
26.6804 4852 69.6563
26.7973 4735 68.8113
26.9143 4444 66.6633
27.0313 4322 65.7419
27.1483 4368 66.0908
27.2653 4504 67.1118
27.3824 4756 68.9638
27.4996 5012 70.7955
27.6167 5041 71
27.7339 5058 71.1196
27.8511 5034 70.9507
27.9683 5087 71.3232
28.0855 5052 71.0774
28.2028 5082 71.2881
28.3201 5027 70.9013
28.4374 5099 71.4073
28.5547 5052 71.0774
28.6721 5048 71.0493
28.7894 4795 69.2459
28.9068 4868 69.7711
29.0242 4921 70.1498
29.1416 4924 70.1712
29.259 5000 70.7107
29.3764 5075 71.239
29.4939 5051 71.0704
29.6113 5211 72.1873
29.7288 5204 72.1388
29.8463 5257 72.5052
29.9638 5108 71.4703
30.0812 5134 71.6519
30.1987 4826 69.4694
30.3162 4792 69.2243
30.4337 4383 66.2042
30.5512 4177 64.6297
30.6687 4209 64.8768
30.7862 4451 66.7158
30.9037 4528 67.2904
31.0212 4857 69.6922
31.1387 5004 70.739
31.2562 5117 71.5332
31.3737 5084 71.3022
31.4912 5047 71.0422
31.6087 4976 70.5408
31.7262 5057 71.1126
31.8436 5150 71.7635
31.9611 5106 71.4563
32.0785 4995 70.6753
32.1959 4905 70.0357
32.3134 4844 69.5989
32.4308 4899 69.9929
32.5482 4744 68.8767
32.6655 4975 70.5337
32.7829 5097 71.3933
32.9002 5166 71.8749
33.0176 5254 72.4845
33.1349 5143 71.7147
33.2522 5297 72.7805
33.3694 5103 71.4353
33.4867 5153 71.7844
33.6039 5198 72.0972
33.7211 5072 71.218
33.8383 5017 70.8308
33.9554 4818 69.4118
34.0725 4563 67.55
34.1896 4420 66.4831
34.3067 4375 66.1438
34.4237 4351 65.9621
34.5407 4545 67.4166
34.6577 4702 68.5711
34.7746 4755 68.9565
34.8915 4790 69.2098
35.0084 4815 69.3902
35.1252 4900 70
35.242 4947 70.3349
35.3587 5006 70.7531
35.4755 5160 71.8331
35.5921 4946 70.3278
35.7088 4919 70.1356
35.8254 4745 68.884
35.9419 4671 68.3447
36.0584 4690 68.4836
36.1749 4755 68.9565
36.2913 4846 69.6132
36.4077 4734 68.8041
36.524 4851 69.6491
36.6403 5131 71.631
36.7565 5122 71.5681
36.8727 5031 70.9295
36.9889 4926 70.1855
37.1049 4949 70.3491
37.221 0 1
37.3369 0 1
37.4529 0 1
37.5687 0 1
37.6845 0 1
37.8003 0 1
37.916 0 1
38.0316 0 1
38.1472 0 1
40.5851 0 1
40.7008 0 1
40.8164 0 1
40.9322 0 1
41.048 0 1
41.1639 0 1
41.2798 0 1
41.3958 0 1
41.5118 0 1
41.6279 0 1
41.744 3993 63.1902
41.8602 4192 64.7457
41.9765 4264 65.2993
42.0928 4276 65.3911
42.2091 4297 65.5515
42.3255 4258 65.2534
42.4419 4210 64.8845
42.5584 4361 66.0379
42.675 4077 63.8514
42.7915 4130 64.2651
42.9081 3845 62.0081
43.0248 3762 61.3351
43.1415 3812 61.7414
43.2582 3692 60.7618
43.375 3873 62.2334
43.4918 3795 61.6036
43.6087 3968 62.9921
43.7256 3789 61.5549
43.8425 3733 61.0983
43.9595 3858 62.1128
44.0765 3825 61.8466
44.1935 3796 61.6117
44.3106 3845 62.0081
44.4277 3861 62.1369
44.5448 3590 59.9166
44.6619 3529 59.4054
44.7791 3485 59.0339
44.8963 3343 57.8187
45.0136 3303 57.4717
45.1308 3406 58.3609
45.2481 3430 58.5662
45.3654 3568 59.7327
45.4827 3441 58.66
45.6001 3443 58.6771
45.7174 3351 57.8878
45.8348 3410 58.3952
45.9522 3492 59.0931
46.0697 3300 57.4456
46.1871 3289 57.3498
46.3046 3228 56.8155
46.422 3106 55.7315
46.5395 2962 54.4243
46.657 2937 54.1941
46.7745 2867 53.5444
46.892 2804 52.9528
47.0096 2974 54.5344
47.1271 2912 53.963
47.2446 2962 54.4243
47.3622 2916 54
47.4797 2773 52.6593
47.5973 2794 52.8583
47.7149 2794 52.8583
47.8324 2831 53.2071
47.95 2787 52.792
48.0675 2681 51.7784
48.1851 2733 52.2781
48.3027 2645 51.4296
48.4202 2683 51.7977
48.5378 2621 51.1957
48.6554 2634 51.3225
48.7729 2743 52.3737
48.8904 2834 53.2353
49.008 2814 53.0471
49.1255 2856 53.4416
49.243 2886 53.7215
49.3605 2710 52.0577
49.478 2942 54.2402
49.5955 2842 53.3104
49.713 2829 53.1883
49.8304 2767 52.6023
49.9479 2798 52.8961
50.0653 2760 52.5357
50.1827 2666 51.6333
50.3001 2612 51.1077
50.4175 2722 52.1728
50.5348 2622 51.2055
50.6521 2767 52.6023
50.7694 2763 52.5642
50.8867 2827 53.1695
51.004 2860 53.479
51.1212 3070 55.4076
51.2384 3173 56.3294
51.3556 3219 56.7362
51.4727 3208 56.6392
51.5899 3260 57.0964
51.707 3202 56.5862
51.824 3222 56.7627
51.9411 3336 57.7581
52.0581 3403 58.3352
52.175 3566 59.716
52.2919 3713 60.9344
52.4088 3656 60.4649
52.5257 3885 62.3298
52.6425 3911 62.538
52.7593 4009 63.3167
52.876 3954 62.8808
52.9927 3960 62.9285
53.1094 3962 62.9444
53.226 4015 63.364
53.3426 3982 63.1031
53.4591 3954 62.8808
53.5756 4013 63.3482
53.692 3854 62.0806
53.8084 3831 61.8951
53.9248 3742 61.1719
54.0411 3749 61.2291
54.1573 3763 61.3433
54.2735 0 1
54.3896 0 1
54.5057 0 1
54.6217 0 1
54.7377 0 1
54.8537 0 1
54.9695 0 1
55.0853 0 1
55.2011 0 1
55.3168 0 1
55.4324 0 1
57.824 0 1
57.9396 0 1
58.0553 0 1
58.1711 0 1
58.2869 0 1
58.4028 0 1
58.5187 0 1
58.6347 0 1
58.7508 0 1
58.8669 0 1
58.983 4387 66.2344
59.0992 4527 67.283
59.2155 4398 66.3174
59.3318 4502 67.0969
59.4482 4416 66.453
59.5646 4414 66.4379
59.681 4445 66.6708
59.7975 4387 66.2344
59.9141 4635 68.0808
60.0306 4507 67.1342
60.1473 4423 66.5056
60.2639 4520 67.2309
60.3807 4488 66.9925
60.4974 4343 65.9014
60.6142 4538 67.3647
60.731 4563 67.55
60.8479 4625 68.0074
60.9648 4612 67.9117
61.0818 4714 68.6586
61.1987 4698 68.542
61.3158 4612 67.9117
61.4328 4684 68.4398
61.5499 4481 66.9403
61.667 4526 67.2756
61.7841 4493 67.0298
61.9013 4518 67.2161
62.0185 4321 65.7343
62.1357 4427 66.5357
62.253 4385 66.2193
62.3702 4218 64.9461
62.4875 4259 65.261
62.6049 4215 64.923
62.7222 4217 64.9384
62.8396 4163 64.5213
62.9569 4298 65.5591
63.0743 4183 64.6761
63.1918 4000 63.2456
63.3092 4042 63.5767
63.4267 4155 64.4593
63.5441 4157 64.4748
63.6616 3997 63.2218
63.7791 4146 64.3894
63.8966 4065 63.7574
64.0142 4105 64.0703
64.1317 4048 63.6239
64.2492 4068 63.7809
64.3668 4183 64.6761
64.4843 4283 65.4446
64.6019 4365 66.0681
64.7195 4267 65.3223
64.837 4351 65.9621
64.9546 4217 64.9384
65.0722 4272 65.3605
65.1898 4138 64.3273
65.3074 4289 65.4905
65.4249 4209 64.8768
65.5425 4114 64.1405
65.6601 4195 64.7688
65.7777 4231 65.0461
65.8952 4113 64.1327
66.0128 4087 63.9296
66.1304 4034 63.5138
66.2479 3979 63.0793
66.3655 4051 63.6475
66.483 4072 63.8122
66.6005 4026 63.4508
66.718 3845 62.0081
66.8355 3852 62.0645
66.953 3761 61.327
67.0705 3804 61.6766
67.1879 3766 61.3677
67.3054 3869 62.2013
67.4228 3827 61.8628
67.5402 3892 62.3859
67.6576 3947 62.8252
67.7749 3997 63.2218
67.8923 4094 63.9844
68.0096 4102 64.0469
68.1269 4281 65.4294
68.2442 4152 64.436
68.3614 4358 66.0151
68.4787 4267 65.3223
68.5958 4320 65.7267
68.713 4340 65.8787
68.8302 4228 65.0231
68.9473 4269 65.3376
69.0643 4223 64.9846
69.1814 4265 65.307
69.2984 4312 65.6658
69.4154 4349 65.9469
69.5323 4292 65.5134
69.6492 4184 64.6838
69.7661 4273 65.3682
69.8829 4456 66.7533
69.9997 4281 65.4294
70.1165 4255 65.2304
70.2332 4327 65.7799
70.3499 4181 64.6607
70.4665 3930 62.6897
70.5831 3886 62.3378
70.6996 3782 61.498
70.8161 3792 61.5792
70.9326 3900 62.45
71.049 3842 61.9839
71.1653 3765 61.3596
71.2817 3932 62.7057
71.3979 3967 62.9841
71.5141 4125 64.2262
71.6303 4021 63.4114
71.7464 3753 61.2617
71.8624 0 1
71.9784 0 1
72.0944 0 1
72.2102 0 1
72.3261 0 1
72.4418 0 1
72.5575 0 1
72.6732 0 1
75.1054 0 1
75.2209 0 1
75.3365 0 1
75.4521 0 1
75.5678 0 1
75.6835 0 1
75.7993 0 1
75.9151 0 1
76.031 0 1
76.147 3296 57.4108
76.263 3629 60.2412
76.3791 3792 61.5792
76.4952 3827 61.8628
76.6113 3942 62.7853
76.7276 3883 62.3137
76.8438 4053 63.6632
76.9601 4286 65.4675
77.0765 4246 65.1613
77.1929 4234 65.0692
77.3093 4354 65.9848
77.4258 4446 66.6783
77.5423 4394 66.2873
77.6589 4390 66.2571
77.7755 4357 66.0076
77.8921 4267 65.3223
78.0088 4254 65.2227
78.1256 4250 65.192
78.2423 4055 63.6789
78.3591 4177 64.6297
78.4759 4286 65.4675
78.5928 4284 65.4523
78.7097 4226 65.0077
78.8266 4111 64.1171
78.9436 4297 65.5515
79.0606 4114 64.1405
79.1776 4135 64.304
79.2946 4191 64.7379
79.4117 4070 63.7966
79.5288 3790 61.563
79.6459 3586 59.8832
79.7631 3444 58.6856
79.8802 3575 59.7913
79.9974 3487 59.0508
80.1147 3641 60.3407
80.2319 3665 60.5392
80.3491 3895 62.4099
80.4664 3944 62.8013
80.5837 4092 63.9687
80.701 4029 63.4744
80.8183 3995 63.206
80.9357 4055 63.6789
81.053 4033 63.5059
81.1704 4133 64.2884
81.2877 3894 62.4019
81.4051 4020 63.4035
81.5225 3881 62.2977
81.6399 3906 62.498
81.7573 3912 62.546
81.8747 3808 61.709
81.9922 3864 62.1611
82.1096 3964 62.9603
82.227 3984 63.1189
82.3444 3909 62.522
82.4619 3876 62.2575
82.5793 4081 63.8827
82.6967 3899 62.442
82.8142 3744 61.1882
82.9316 3828 61.8708
83.049 3661 60.5062
83.1664 3508 59.2284
83.2838 3084 55.5338
83.4012 3012 54.8817
83.5186 2860 53.479
83.636 2847 53.3573
83.7534 3254 57.0438
83.8708 3311 57.5413
83.9881 3313 57.5587
84.1055 3556 59.6322
84.2228 3696 60.7947
84.3401 3738 61.1392
84.4575 3852 62.0645
84.5747 3811 61.7333
84.692 3808 61.709
84.8093 3802 61.6604
84.9265 3776 61.4492
85.0437 3848 62.0322
85.1609 3768 61.384
85.2781 3718 60.9754
85.3952 3741 61.1637
85.5123 3854 62.0806
85.6294 3848 62.0322
85.7465 3803 61.6685
85.8636 3929 62.6817
85.9806 4037 63.5374
86.0976 4134 64.2962
86.2145 4139 64.3351
86.3315 4136 64.3117
86.4484 3962 62.9444
86.5652 4057 63.6946
86.682 3994 63.1981
86.7988 3841 61.9758
86.9156 3597 59.975
87.0323 3281 57.28
87.149 3178 56.3738
87.2657 3319 57.6108
87.3823 3499 59.1523
87.4988 3663 60.5227
87.6154 3927 62.6658
87.7318 4034 63.5138
87.8483 4262 65.284
87.9647 4227 65.0154
88.081 4270 65.3452
88.1973 4344 65.909
88.3136 4328 65.7875
88.4298 4151 64.4283
88.546 4299 65.5668
88.6621 4340 65.8787
88.7781 4231 65.0461
88.8942 0 1
89.0101 0 1
89.126 0 1
89.2419 0 1
89.3577 0 1
89.4734 0 1
89.5891 0 1
89.7047 0 1
89.8203 0 1
89.9358 0 1
92.3269 0 1
92.4424 0 1
92.558 0 1
92.6736 0 1
92.7893 0 1
92.905 0 1
93.0208 0 1
93.1366 0 1
93.2525 0 1
93.3685 0 1
93.4845 0 1
93.6005 4214 64.9153
93.7167 4199 64.7997
93.8328 4193 64.7534
93.949 4126 64.2339
94.0653 4200 64.8074
94.1816 4212 64.8999
94.2979 4198 64.792
94.4143 3957 62.9047
94.5307 4109 64.1015
94.6472 4292 65.5134
94.7637 4382 66.1967
94.8803 4255 65.2304
94.9969 4414 66.4379
95.1135 4319 65.7191
95.2302 4460 66.7832
95.3469 4427 66.5357
95.4637 4439 66.6258
95.5805 4341 65.8863
95.6973 4284 65.4523
95.8142 4254 65.2227
95.9311 4033 63.5059
96.048 3776 61.4492
96.1649 3317 57.5934
96.2819 3126 55.9106
96.3989 3127 55.9196
96.516 3379 58.1292
96.633 3677 60.6383
96.7501 3993 63.1902
96.8673 4216 64.9307
96.9844 4368 66.0908
97.1016 4522 67.2458
97.2188 4393 66.2797
97.336 4573 67.624
97.4532 4595 67.7864
97.5704 4346 65.9242
97.6877 4286 65.4675
97.805 4360 66.0303
97.9223 4333 65.8255
98.0396 4264 65.2993
98.1569 4251 65.1997
98.2743 4329 65.7951
98.3916 4452 66.7233
98.509 4461 66.7907
98.6264 4454 66.7383
98.7438 4541 67.3869
98.8612 4628 68.0294
98.9786 4439 66.6258
99.096 4554 67.4833
99.2134 4444 66.6633
99.3308 4462 66.7982
99.4482 4442 66.6483
99.5656 4314 65.681
99.6831 3847 62.0242
99.8005 3602 60.0167
99.9179 3353 57.9051
100.035 3342 57.81
100.153 3597 59.975
100.27 3901 62.458
100.388 4159 64.4903
100.505 4507 67.1342
100.622 4425 66.5207
100.74 4435 66.5958
100.857 4557 67.5056
100.975 4553 67.4759
101.092 4525 67.2681
101.209 4439 66.6258
101.327 4424 66.5132
101.444 4425 66.5207
101.561 4354 65.9848
101.679 4412 66.4229
101.796 4435 66.5958
101.913 4556 67.4981
102.03 4457 66.7608
102.148 4631 68.0515
102.265 4539 67.3721
102.382 4900 70
102.499 4681 68.4178
102.616 4759 68.9855
102.733 4845 69.606
102.851 4728 68.7605
102.968 4603 67.8454
103.085 4536 67.3498
103.202 4261 65.2763
103.319 3788 61.5467
103.436 3487 59.0508
103.552 3202 56.5862
103.669 3517 59.3043
103.786 4030 63.4823
103.903 4380 66.1816
104.02 4540 67.3795
104.137 4752 68.9348
104.253 4758 68.9783
104.37 4860 69.7137
104.487 4722 68.7168
104.603 4893 69.95
104.72 4756 68.9638
104.836 4700 68.5565
104.953 4623 67.9926
105.069 4779 69.1303
105.186 4687 68.4617
105.302 4846 69.6132
105.418 4805 69.3181
105.535 4934 70.2424
105.651 5057 71.1126
105.767 5024 70.8802
105.883 4989 70.6329
105.999 5087 71.3232
106.115 0 1
106.231 0 1
106.347 0 1
106.463 0 1
106.579 0 1
106.694 0 1
106.81 0 1
106.926 0 1
107.041 0 1
107.157 0 1
109.576 0 1
109.692 0 1
109.807 0 1
109.923 0 1
110.039 0 1
110.155 0 1
110.27 0 1
110.386 0 1
110.502 0 1
110.618 4564 67.5574
110.735 4677 68.3886
110.851 4895 69.9643
110.967 4825 69.4622
111.083 4834 69.527
111.199 4869 69.7782
111.316 4884 69.8856
111.432 4930 70.214
111.549 4828 69.4838
111.665 4553 67.4759
111.782 4242 65.1306
111.898 3770 61.4003
112.015 3187 56.4535
112.132 2901 53.8609
112.248 3066 55.3715
112.365 3748 61.2209
112.482 4284 65.4523
112.599 4617 67.9485
112.716 4550 67.4537
112.832 4580 67.6757
112.949 4590 67.7495
113.066 4600 67.8233
113.183 4536 67.3498
113.3 4548 67.4389
113.417 4446 66.6783
113.534 4341 65.8863
113.652 4313 65.6734
113.769 4388 66.242
113.886 4310 65.6506
114.003 4396 66.3023
114.12 4474 66.888
114.238 4467 66.8356
114.355 4583 67.6979
114.472 4425 66.5207
114.589 4593 67.7717
114.707 4554 67.4833
114.824 4572 67.6166
114.942 4486 66.9776
115.059 4567 67.5796
115.176 4431 66.5658
115.294 4335 65.8407
115.411 3756 61.2862
115.529 3321 57.6281
115.646 2731 52.259
115.764 2729 52.2398
115.881 3220 56.745
115.999 3714 60.9426
116.116 4229 65.0308
116.234 4266 65.3146
116.351 4354 65.9848
116.469 4384 66.2118
116.586 4305 65.6125
116.704 4272 65.3605
116.821 4071 63.8044
116.939 4151 64.4283
117.056 4075 63.8357
117.174 4064 63.7495
117.291 3994 63.1981
117.409 4080 63.8749
117.526 4160 64.4981
117.644 4212 64.8999
117.761 4226 65.0077
117.879 4281 65.4294
117.996 4198 64.792
118.114 4347 65.9318
118.231 4153 64.4438
118.349 4368 66.0908
118.466 4392 66.2722
118.584 4308 65.6354
118.701 4192 64.7457
118.819 4220 64.9615
118.936 3876 62.2575
119.053 3634 60.2827
119.171 3031 55.0545
119.288 2550 50.4975
119.405 2469 49.689
119.523 2941 54.231
119.64 3490 59.0762
119.757 3781 61.4898
119.875 3930 62.6897
119.992 3997 63.2218
120.109 3987 63.1427
120.226 3991 63.1744
120.343 3935 62.7296
120.46 3790 61.563
120.578 3948 62.8331
120.695 3808 61.709
120.812 3672 60.597
120.929 3786 61.5305
121.046 3833 61.9112
121.163 3998 63.2297
121.279 3962 62.9444
121.396 4034 63.5138
121.513 3996 63.2139
121.63 4095 63.9922
121.747 3976 63.0555
121.863 3953 62.8729
121.98 4102 64.0469
122.097 4091 63.9609
122.213 3877 62.2656
122.33 4128 64.2495
122.446 4034 63.5138
122.563 3810 61.7252
122.679 3834 61.9193
122.795 3290 57.3585
122.912 2814 53.0471
123.028 2306 48.0208
123.144 2220 47.1169
123.26 2573 50.7247
123.377 0 1
123.493 0 1
123.609 0 1
123.725 0 1
123.84 0 1
123.956 0 1
124.072 0 1
124.188 0 1
124.303 0 1
124.419 0 1
126.852 0 1
126.968 0 1
127.083 0 1
127.199 0 1
127.315 0 1
127.431 0 1
127.547 0 1
127.663 0 1
127.779 0 1
127.895 0 1
128.011 0 1
128.127 0 1
128.243 0 1
128.359 2185 46.744
128.476 2526 50.2593
128.592 3134 55.9821
128.708 3773 61.4248
128.825 3923 62.6339
128.941 3966 62.9762
129.058 4043 63.5846
129.174 3980 63.0872
129.291 4127 64.2417
129.408 3899 62.442
129.524 3834 61.9193
129.641 3821 61.8142
129.758 3816 61.7738
129.875 3882 62.3057
129.992 3751 61.2454
130.108 3695 60.7865
130.225 3903 62.474
130.342 3897 62.426
130.459 3984 63.1189
130.576 4012 63.3404
130.693 3920 62.6099
130.81 3927 62.6658
130.928 3991 63.1744
131.045 3848 62.0322
131.162 3813 61.7495
131.279 3833 61.9112
131.396 3875 62.2495
131.513 3670 60.5805
131.631 3500 59.1608
131.748 2863 53.507
131.865 2136 46.2169
131.983 2164 46.5188
132.1 2811 53.0189
132.217 3430 58.5662
132.335 3746 61.2046
132.452 3673 60.6053
132.57 3715 60.9508
132.687 3646 60.3821
132.804 3777 61.4573
132.922 3717 60.9672
133.039 3701 60.8358
133.157 3562 59.6825
133.274 3464 58.8558
133.392 3589 59.9083
133.509 3563 59.6909
133.627 3503 59.1861
133.744 3629 60.2412
133.862 3619 60.1581
133.979 3672 60.597
134.097 3745 61.1964
134.214 3581 59.8415
134.332 3677 60.6383
134.449 3681 60.6712
134.567 3694 60.7783
134.684 3626 60.2163
134.802 3710 60.9098
134.919 3611 60.0916
135.037 3662 60.5145
135.154 3537 59.4727
135.272 2940 54.2218
135.389 2210 47.0106
135.507 1898 43.566
135.624 2156 46.4327
135.742 2771 52.6403
135.859 3311 57.5413
135.977 3478 58.9746
136.094 3471 58.9152
136.211 3579 59.8247
136.329 3565 59.7076
136.446 3654 60.4483
136.564 3515 59.2874
136.681 3463 58.8473
136.798 3376 58.1034
136.915 3334 57.7408
137.033 3360 57.9655
137.15 3291 57.3672
137.267 3389 58.2151
137.384 3412 58.4123
137.502 3382 58.155
137.619 3340 57.7927
137.736 3482 59.0085
137.853 3387 58.1979
137.97 3501 59.1692
138.087 3309 57.5239
138.204 3466 58.8727
138.321 3458 58.8048
138.438 3479 58.983
138.555 3560 59.6657
138.672 3481 59
138.788 3416 58.4466
138.905 2957 54.3783
139.022 2380 48.7852
139.139 1850 43.0116
139.255 2024 44.9889
139.372 2685 51.817
139.488 3239 56.9122
139.605 3410 58.3952
139.721 3490 59.0762
139.838 3504 59.1946
139.954 3496 59.127
140.071 3374 58.0861
140.187 3452 58.7537
140.303 3339 57.7841
140.419 3256 57.0614
140.535 3319 57.6108
140.652 3232 56.8507
140.768 0 1
140.884 0 1
141 0 1
141.115 0 1
141.231 0 1
141.347 0 1
141.463 0 1
141.578 0 1
141.694 0 1
144.104 0 1
144.219 0 1
144.335 0 1
144.45 0 1
144.566 0 1
144.682 0 1
144.798 0 1
144.914 0 1
145.03 0 1
145.146 2278 47.7284
145.262 2466 49.6588
145.378 2445 49.4469
145.494 2432 49.3153
145.61 2359 48.5695
145.726 2431 49.3052
145.842 2471 49.7092
145.959 2387 48.8569
146.075 2394 48.9285
146.192 2370 48.6826
146.308 2482 49.8197
146.425 2467 49.6689
146.541 2551 50.5074
146.658 2425 49.2443
146.774 2522 50.2195
146.891 2401 49
147.008 2578 50.774
147.125 2542 50.4183
147.241 2507 50.07
147.358 2524 50.2394
147.475 2688 51.8459
147.592 2498 49.98
147.709 2370 48.6826
147.826 2118 46.0217
147.943 1682 41.0122
148.06 1389 37.2693
148.177 1451 38.092
148.294 1901 43.6005
148.411 2313 48.0937
148.528 2464 49.6387
148.645 2500 50
148.762 2524 50.2394
148.88 2421 49.2037
148.997 2343 48.4045
149.114 2582 50.8134
149.231 2435 49.3457
149.349 2326 48.2286
149.466 2475 49.7494
149.583 2315 48.1144
149.701 2275 47.697
149.818 2226 47.1805
149.935 2340 48.3735
150.053 2453 49.5278
150.17 2400 48.9898
150.287 2429 49.2849
150.405 2492 49.9199
150.522 2466 49.6588
150.64 2508 50.0799
150.757 2444 49.4368
150.875 2592 50.9117
150.992 2501 50.01
151.11 2587 50.8626
151.227 2595 50.9411
151.344 2487 49.8698
151.462 2417 49.163
151.579 2096 45.7821
151.697 1624 40.2989
151.814 1355 36.8103
151.932 1611 40.1373
152.049 2090 45.7165
152.167 2432 49.3153
152.284 2559 50.5866
152.402 2693 51.8941
152.519 2631 51.2933
152.636 2616 51.1468
152.754 2638 51.3615
152.871 2522 50.2195
152.989 2682 51.788
153.106 2515 50.1498
153.223 2547 50.4678
153.341 2406 49.051
153.458 2548 50.4777
153.575 2594 50.9313
153.693 2605 51.0392
153.81 2732 52.2685
153.927 2674 51.7107
154.044 2712 52.0769
154.162 2768 52.6118
154.279 2874 53.6097
154.396 2826 53.1601
154.513 2864 53.5164
154.63 2906 53.9073
154.747 2922 54.0555
154.864 2909 53.9351
154.981 2983 54.6168
155.098 2770 52.6308
155.215 2343 48.4045
155.332 1933 43.9659
155.449 2036 45.1221
155.566 2596 50.951
155.683 2941 54.231
155.8 3026 55.0091
155.917 3044 55.1725
156.033 3104 55.7136
156.15 0 1
156.267 0 1
156.383 0 1
156.5 0 1
156.617 0 1
156.733 0 1
156.85 0 1
156.966 0 1
157.082 0 1
157.199 0 1
157.315 0 1
157.431 0 1
157.547 0 1
157.664 0 1
157.78 0 1
157.896 0 1
158.012 0 1
158.128 0 1
158.244 0 1
158.359 0 1
158.475 0 1
158.591 0 1
158.706 0 1
