
6.15755 0 1
6.2731 0 1
6.3887 0 1
6.50437 0 1
6.62009 0 1
6.73587 0 1
6.8517 0 1
6.96759 0 1
7.08353 0 1
7.19952 0 1
7.31557 0 1
7.43166 0 1
7.54781 0 1
7.664 0 1
7.78024 0 1
7.89653 0 1
8.01286 0 1
8.12924 0 1
8.24567 0 1
8.36213 0 1
8.47864 0 1
8.59519 0 1
8.71178 0 1
8.82841 0 1
8.94508 0 1
9.06179 0 1
9.17853 0 1
9.29531 0 1
9.41212 0 1
9.52897 0 1
9.64584 0 1
9.76276 0 1
9.8797 0 1
9.99667 0 1
10.1137 0 1
10.2307 0 1
10.3478 0 1
10.4648 0 1
10.5819 0 1
10.6991 0 1
10.8162 0 1
10.9334 0 1
11.0506 0 1
11.1678 0 1
11.285 0 1
11.4023 0 1
11.5196 0 1
11.6369 0 1
11.7542 0 1
11.8715 0 1
11.9888 0 1
12.1062 0 1
12.2235 0 1
12.3409 0 1
12.4582 0 1
12.5756 0 1
12.693 0 1
12.8104 0 1
12.9278 0 1
13.0452 0 1
13.1626 0 1
13.28 0 1
13.3974 0 1
13.5149 0 1
13.6323 0 1
13.7497 0 1
13.8671 0 1
13.9845 0 1
14.1019 0 1
14.2193 0 1
14.3367 0 1
14.4541 0 1
14.5714 0 1
14.6888 0 1
14.8062 0 1
14.9235 0 1
15.0408 1048 32.3728
15.1581 1036 32.187
15.2755 1111 33.3317
15.3927 1116 33.4066
15.51 1066 32.6497
15.6273 969 31.1288
15.7445 989 31.4484
15.8617 1025 32.0156
15.9789 1011 31.7962
16.0961 961 31
16.2132 1015 31.8591
16.3304 945 30.7409
16.4475 970 31.1448
16.5646 1033 32.1403
16.6816 944 30.7246
16.7986 944 30.7246
16.9156 957 30.9354
17.0326 930 30.4959
17.1496 911 30.1828
17.2665 926 30.4302
17.3833 977 31.257
17.5002 961 31
17.617 854 29.2233
17.7338 914 30.2324
17.8505 955 30.9031
17.9672 890 29.8329
18.0839 913 30.2159
18.2005 884 29.7321
18.3171 942 30.692
18.4337 912 30.1993
18.5502 945 30.7409
18.6666 943 30.7083
18.7831 921 30.348
18.8994 877 29.6142
19.0158 897 29.95
19.1321 808 28.4253
19.2483 788 28.0713
19.3645 732 27.0555
19.4806 773 27.8029
19.5967 766 27.6767
19.7128 762 27.6043
19.8288 765 27.6586
19.9447 628 25.0599
20.0606 0 1
20.1764 0 1
20.2922 0 1
20.4079 0 1
20.5236 0 1
20.6392 0 1
20.7548 0 1
20.8702 0 1
23.3078 0 1
23.4233 0 1
23.539 0 1
23.6547 0 1
23.7704 0 1
23.8862 0 1
24.0021 0 1
24.118 0 1
24.234 0 1
24.35 0 1
24.4661 390 19.7484
24.5822 440 20.9762
24.6984 515 22.6936
24.8146 567 23.8118
24.9309 648 25.4558
25.0472 711 26.6646
25.1636 769 27.7308
25.28 883 29.7153
25.3965 922 30.3645
25.513 957 30.9354
25.6296 987 31.4166
25.7462 1024 32
25.8628 1025 32.0156
25.9795 1012 31.8119
26.0962 1037 32.2025
26.213 965 31.0644
26.3298 953 30.8707
26.4466 925 30.4138
26.5635 857 29.2746
26.6804 771 27.7669
26.7973 802 28.3196
26.9143 814 28.5307
27.0313 828 28.775
27.1483 883 29.7153
27.2653 835 28.8964
27.3824 896 29.9333
27.4996 870 29.4958
27.6167 898 29.9666
27.7339 852 29.189
27.8511 809 28.4429
27.9683 764 27.6405
28.0855 773 27.8029
28.2028 834 28.8791
28.3201 846 29.0861
28.4374 884 29.7321
28.5547 891 29.8496
28.6721 871 29.5127
28.7894 891 29.8496
28.9068 881 29.6816
29.0242 872 29.5296
29.1416 817 28.5832
29.259 888 29.7993
29.3764 867 29.4449
29.4939 868 29.4618
29.6113 867 29.4449
29.7288 867 29.4449
29.8463 845 29.0689
29.9638 841 29
30.0812 809 28.4429
30.1987 765 27.6586
30.3162 748 27.3496
30.4337 821 28.6531
30.5512 788 28.0713
30.6687 869 29.4788
30.7862 871 29.5127
30.9037 929 30.4795
31.0212 846 29.0861
31.1387 900 30
31.2562 877 29.6142
31.3737 803 28.3373
31.4912 802 28.3196
31.6087 762 27.6043
31.7262 738 27.1662
31.8436 823 28.688
31.9611 861 29.3428
32.0785 885 29.7489
32.1959 817 28.5832
32.3134 805 28.3725
32.4308 808 28.4253
32.5482 766 27.6767
32.6655 781 27.9464
32.7829 760 27.5681
32.9002 742 27.2397
33.0176 764 27.6405
33.1349 774 27.8209
33.2522 784 28
33.3694 758 27.5318
33.4867 793 28.1603
33.6039 703 26.5141
33.7211 796 28.2135
33.8383 736 27.1293
33.9554 746 27.313
34.0725 846 29.0861
34.1896 781 27.9464
34.3067 811 28.4781
34.4237 867 29.4449
34.5407 848 29.1204
34.6577 848 29.1204
34.7746 814 28.5307
34.8915 794 28.178
35.0084 747 27.3313
35.1252 712 26.6833
35.242 718 26.7955
35.3587 659 25.671
35.4755 718 26.7955
35.5921 751 27.4044
35.7088 757 27.5136
35.8254 764 27.6405
35.9419 779 27.9106
36.0584 790 28.1069
36.1749 767 27.6948
36.2913 726 26.9444
36.4077 724 26.9072
36.524 708 26.6083
36.6403 664 25.7682
36.7565 655 25.593
36.8727 602 24.5357
36.9889 598 24.454
37.1049 540 23.2379
37.221 0 1
37.3369 0 1
37.4529 0 1
37.5687 0 1
37.6845 0 1
37.8003 0 1
37.916 0 1
38.0316 0 1
38.1472 0 1
40.5851 0 1
40.7008 0 1
40.8164 0 1
40.9322 0 1
41.048 0 1
41.1639 0 1
41.2798 0 1
41.3958 0 1
41.5118 0 1
41.6279 0 1
41.744 297 17.2337
41.8602 355 18.8414
41.9765 394 19.8494
42.0928 466 21.587
42.2091 518 22.7596
42.3255 514 22.6716
42.4419 529 23
42.5584 569 23.8537
42.675 567 23.8118
42.7915 583 24.1454
42.9081 558 23.622
43.0248 554 23.5372
43.1415 591 24.3105
43.2582 588 24.2487
43.375 540 23.2379
43.4918 562 23.7065
43.6087 601 24.5153
43.7256 590 24.2899
43.8425 585 24.1868
43.9595 543 23.3024
44.0765 588 24.2487
44.1935 492 22.1811
44.3106 556 23.5797
44.4277 525 22.9129
44.5448 578 24.0416
44.6619 577 24.0208
44.7791 564 23.7487
44.8963 583 24.1454
45.0136 593 24.3516
45.1308 621 24.9199
45.2481 633 25.1595
45.3654 600 24.4949
45.4827 617 24.8395
45.6001 632 25.1396
45.7174 603 24.5561
45.8348 637 25.2389
45.9522 591 24.3105
46.0697 588 24.2487
46.1871 586 24.2074
46.3046 566 23.7908
46.422 557 23.6008
46.5395 575 23.9792
46.657 611 24.7184
46.7745 581 24.1039
46.892 646 25.4165
47.0096 575 23.9792
47.1271 580 24.0832
47.2446 591 24.3105
47.3622 563 23.7276
47.4797 567 23.8118
47.5973 535 23.1301
47.7149 554 23.5372
47.8324 532 23.0651
47.95 511 22.6053
48.0675 533 23.0868
48.1851 523 22.8692
48.3027 555 23.5584
48.4202 586 24.2074
48.5378 619 24.8797
48.6554 603 24.5561
48.7729 593 24.3516
48.8904 601 24.5153
49.008 585 24.1868
49.1255 620 24.8998
49.243 597 24.4336
49.3605 572 23.9165
49.478 567 23.8118
49.5955 550 23.4521
49.713 580 24.0832
49.8304 519 22.7816
49.9479 566 23.7908
50.0653 527 22.9565
50.1827 550 23.4521
50.3001 559 23.6432
50.4175 575 23.9792
50.5348 539 23.2164
50.6521 578 24.0416
50.7694 486 22.0454
50.8867 540 23.2379
51.004 533 23.0868
51.1212 532 23.0651
51.2384 530 23.0217
51.3556 564 23.7487
51.4727 494 22.2261
51.5899 523 22.8692
51.707 467 21.6102
51.824 530 23.0217
51.9411 550 23.4521
52.0581 585 24.1868
52.175 555 23.5584
52.2919 587 24.2281
52.4088 598 24.454
52.5257 552 23.4947
52.6425 547 23.388
52.7593 571 23.8956
52.876 528 22.9783
52.9927 529 23
53.1094 533 23.0868
53.226 549 23.4307
53.3426 452 21.2603
53.4591 497 22.2935
53.5756 500 22.3607
53.692 480 21.9089
53.8084 476 21.8174
53.9248 464 21.5407
54.0411 415 20.3715
54.1573 386 19.6469
54.2735 0 1
54.3896 0 1
54.5057 0 1
54.6217 0 1
54.7377 0 1
54.8537 0 1
54.9695 0 1
55.0853 0 1
55.2011 0 1
55.3168 0 1
55.4324 0 1
57.824 0 1
57.9396 0 1
58.0553 0 1
58.1711 0 1
58.2869 0 1
58.4028 0 1
58.5187 0 1
58.6347 0 1
58.7508 0 1
58.8669 0 1
58.983 418 20.445
59.0992 478 21.8632
59.2155 537 23.1733
59.3318 637 25.2389
59.4482 664 25.7682
59.5646 725 26.9258
59.681 781 27.9464
59.7975 803 28.3373
59.9141 853 29.2062
60.0306 887 29.7825
60.1473 797 28.2312
60.2639 844 29.0517
60.3807 809 28.4429
60.4974 808 28.4253
60.6142 860 29.3258
60.731 798 28.2489
60.8479 787 28.0535
60.9648 734 27.0924
61.0818 803 28.3373
61.1987 753 27.4408
61.3158 775 27.8388
61.4328 769 27.7308
61.5499 768 27.7128
61.667 677 26.0192
61.7841 759 27.55
61.9013 741 27.2213
62.0185 718 26.7955
62.1357 651 25.5147
62.253 737 27.1477
62.3702 687 26.2107
62.4875 635 25.1992
62.6049 648 25.4558
62.7222 620 24.8998
62.8396 683 26.1343
62.9569 713 26.7021
63.0743 675 25.9808
63.1918 628 25.0599
63.3092 615 24.7992
63.4267 615 24.7992
63.5441 665 25.7876
63.6616 634 25.1794
63.7791 595 24.3926
63.8966 619 24.8797
64.0142 588 24.2487
64.1317 612 24.7386
64.2492 562 23.7065
64.3668 612 24.7386
64.4843 612 24.7386
64.6019 596 24.4131
64.7195 578 24.0416
64.837 653 25.5539
64.9546 615 24.7992
65.0722 619 24.8797
65.1898 666 25.807
65.3074 628 25.0599
65.4249 646 25.4165
65.5425 575 23.9792
65.6601 593 24.3516
65.7777 591 24.3105
65.8952 570 23.8747
66.0128 626 25.02
66.1304 595 24.3926
66.2479 585 24.1868
66.3655 653 25.5539
66.483 601 24.5153
66.6005 598 24.454
66.718 593 24.3516
66.8355 589 24.2693
66.953 613 24.7588
67.0705 634 25.1794
67.1879 586 24.2074
67.3054 575 23.9792
67.4228 560 23.6643
67.5402 544 23.3238
67.6576 547 23.388
67.7749 565 23.7697
67.8923 544 23.3238
68.0096 581 24.1039
68.1269 592 24.3311
68.2442 560 23.6643
68.3614 617 24.8395
68.4787 592 24.3311
68.5958 585 24.1868
68.713 608 24.6577
68.8302 623 24.96
68.9473 634 25.1794
69.0643 585 24.1868
69.1814 620 24.8998
69.2984 605 24.5967
69.4154 637 25.2389
69.5323 552 23.4947
69.6492 615 24.7992
69.7661 592 24.3311
69.8829 539 23.2164
69.9997 540 23.2379
70.1165 597 24.4336
70.2332 592 24.3311
70.3499 616 24.8193
70.4665 561 23.6854
70.5831 532 23.0651
70.6996 494 22.2261
70.8161 474 21.7715
70.9326 422 20.5426
71.049 377 19.4165
71.1653 317 17.8045
71.2817 292 17.088
71.3979 272 16.4924
71.5141 270 16.4317
71.6303 263 16.2173
71.7464 190 13.784
71.8624 0 1
71.9784 0 1
72.0944 0 1
72.2102 0 1
72.3261 0 1
72.4418 0 1
72.5575 0 1
72.6732 0 1
75.1054 0 1
75.2209 0 1
75.3365 0 1
75.4521 0 1
75.5678 0 1
75.6835 0 1
75.7993 0 1
75.9151 0 1
76.031 0 1
76.147 351 18.735
76.263 392 19.799
76.3791 443 21.0476
76.4952 433 20.8087
76.6113 434 20.8327
76.7276 446 21.1187
76.8438 458 21.4009
76.9601 453 21.2838
77.0765 429 20.7123
77.1929 473 21.7486
77.3093 509 22.561
77.4258 491 22.1585
77.5423 507 22.5167
77.6589 501 22.383
77.7755 521 22.8254
77.8921 523 22.8692
78.0088 475 21.7945
78.1256 550 23.4521
78.2423 491 22.1585
78.3591 480 21.9089
78.4759 496 22.2711
78.5928 484 22
78.7097 483 21.9773
78.8266 429 20.7123
78.9436 474 21.7715
79.0606 487 22.0681
79.1776 529 23
79.2946 487 22.0681
79.4117 488 22.0907
79.5288 479 21.8861
79.6459 504 22.4499
79.7631 565 23.7697
79.8802 516 22.7156
79.9974 514 22.6716
80.1147 498 22.3159
80.2319 481 21.9317
80.3491 410 20.2485
80.4664 499 22.3383
80.5837 522 22.8473
80.701 518 22.7596
80.8183 522 22.8473
80.9357 491 22.1585
81.053 481 21.9317
81.1704 472 21.7256
81.2877 512 22.6274
81.4051 542 23.2809
81.5225 533 23.0868
81.6399 517 22.7376
81.7573 518 22.7596
81.8747 551 23.4734
81.9922 473 21.7486
82.1096 540 23.2379
82.227 460 21.4476
82.3444 485 22.0227
82.4619 494 22.2261
82.5793 472 21.7256
82.6967 517 22.7376
82.8142 512 22.6274
82.9316 499 22.3383
83.049 494 22.2261
83.1664 527 22.9565
83.2838 532 23.0651
83.4012 579 24.0624
83.5186 544 23.3238
83.636 576 24
83.7534 560 23.6643
83.8708 473 21.7486
83.9881 494 22.2261
84.1055 488 22.0907
84.2228 469 21.6564
84.3401 456 21.3542
84.4575 475 21.7945
84.5747 511 22.6053
84.692 541 23.2594
84.8093 519 22.7816
84.9265 546 23.3666
85.0437 536 23.1517
85.1609 590 24.2899
85.2781 575 23.9792
85.3952 622 24.9399
85.5123 561 23.6854
85.6294 590 24.2899
85.7465 555 23.5584
85.8636 485 22.0227
85.9806 495 22.2486
86.0976 471 21.7025
86.2145 526 22.9347
86.3315 538 23.1948
86.4484 535 23.1301
86.5652 501 22.383
86.682 534 23.1084
86.7988 537 23.1733
86.9156 511 22.6053
87.0323 544 23.3238
87.149 557 23.6008
87.2657 517 22.7376
87.3823 506 22.4944
87.4988 456 21.3542
87.6154 481 21.9317
87.7318 430 20.7364
87.8483 446 21.1187
87.9647 429 20.7123
88.081 395 19.8746
88.1973 393 19.8242
88.3136 383 19.5704
88.4298 346 18.6011
88.546 332 18.2209
88.6621 337 18.3576
88.7781 319 17.8606
88.8942 0 1
89.0101 0 1
89.126 0 1
89.2419 0 1
89.3577 0 1
89.4734 0 1
89.5891 0 1
89.7047 0 1
89.8203 0 1
89.9358 0 1
92.3269 0 1
92.4424 0 1
92.558 0 1
92.6736 0 1
92.7893 0 1
92.905 0 1
93.0208 0 1
93.1366 0 1
93.2525 0 1
93.3685 0 1
93.4845 0 1
93.6005 400 20
93.7167 463 21.5174
93.8328 456 21.3542
93.949 473 21.7486
94.0653 498 22.3159
94.1816 588 24.2487
94.2979 521 22.8254
94.4143 545 23.3452
94.5307 565 23.7697
94.6472 614 24.779
94.7637 553 23.516
94.8803 572 23.9165
94.9969 524 22.891
95.1135 576 24
95.2302 565 23.7697
95.3469 502 22.4054
95.4637 497 22.2935
95.5805 563 23.7276
95.6973 529 23
95.8142 545 23.3452
95.9311 577 24.0208
96.048 607 24.6374
96.1649 560 23.6643
96.2819 613 24.7588
96.3989 567 23.8118
96.516 539 23.2164
96.633 507 22.5167
96.7501 526 22.9347
96.8673 493 22.2036
96.9844 520 22.8035
97.1016 452 21.2603
97.2188 483 21.9773
97.336 492 22.1811
97.4532 531 23.0434
97.5704 547 23.388
97.6877 531 23.0434
97.805 532 23.0651
97.9223 600 24.4949
98.0396 590 24.2899
98.1569 660 25.6905
98.2743 582 24.1247
98.3916 617 24.8395
98.509 561 23.6854
98.6264 539 23.2164
98.7438 548 23.4094
98.8612 532 23.0651
98.9786 577 24.0208
99.096 650 25.4951
99.2134 615 24.7992
99.3308 637 25.2389
99.4482 626 25.02
99.5656 691 26.2869
99.6831 651 25.5147
99.8005 734 27.0924
99.9179 796 28.2135
100.035 702 26.4953
100.153 672 25.923
100.27 591 24.3105
100.388 618 24.8596
100.505 635 25.1992
100.622 661 25.7099
100.74 750 27.3861
100.857 811 28.4781
100.975 819 28.6182
101.092 801 28.3019
101.209 804 28.3549
101.327 846 29.0861
101.444 794 28.178
101.561 858 29.2916
101.679 815 28.5482
101.796 783 27.9821
101.913 818 28.6007
102.03 748 27.3496
102.148 729 27
102.265 633 25.1595
102.382 679 26.0576
102.499 685 26.1725
102.616 703 26.5141
102.733 704 26.533
102.851 774 27.8209
102.968 718 26.7955
103.085 746 27.313
103.202 724 26.9072
103.319 729 27
103.436 675 25.9808
103.552 696 26.3818
103.669 647 25.4362
103.786 656 25.6125
103.903 610 24.6982
104.02 607 24.6374
104.137 630 25.0998
104.253 624 24.98
104.37 673 25.9422
104.487 720 26.8328
104.603 676 26
104.72 652 25.5343
104.836 655 25.593
104.953 689 26.2488
105.069 636 25.219
105.186 624 24.98
105.302 580 24.0832
105.418 568 23.8328
105.535 474 21.7715
105.651 472 21.7256
105.767 396 19.8997
105.883 402 20.0499
105.999 356 18.868
106.115 0 1
106.231 0 1
106.347 0 1
106.463 0 1
106.579 0 1
106.694 0 1
106.81 0 1
106.926 0 1
107.041 0 1
107.157 0 1
109.576 0 1
109.692 0 1
109.807 0 1
109.923 0 1
110.039 0 1
110.155 0 1
110.27 0 1
110.386 0 1
110.502 0 1
110.618 341 18.4662
110.735 343 18.5203
110.851 370 19.2354
110.967 451 21.2368
111.083 431 20.7605
111.199 524 22.891
111.316 548 23.4094
111.432 605 24.5967
111.549 552 23.4947
111.665 610 24.6982
111.782 615 24.7992
111.898 629 25.0799
112.015 647 25.4362
112.132 600 24.4949
112.248 581 24.1039
112.365 542 23.2809
112.482 492 22.1811
112.599 489 22.1133
112.716 496 22.2711
112.832 559 23.6432
112.949 524 22.891
113.066 559 23.6432
113.183 510 22.5832
113.3 533 23.0868
113.417 567 23.8118
113.534 567 23.8118
113.652 580 24.0832
113.769 581 24.1039
113.886 544 23.3238
114.003 556 23.5797
114.12 555 23.5584
114.238 498 22.3159
114.355 478 21.8632
114.472 443 21.0476
114.589 521 22.8254
114.707 485 22.0227
114.824 511 22.6053
114.942 538 23.1948
115.059 505 22.4722
115.176 534 23.1084
115.294 550 23.4521
115.411 507 22.5167
115.529 541 23.2594
115.646 543 23.3024
115.764 467 21.6102
115.881 445 21.095
115.999 449 21.1896
116.116 460 21.4476
116.234 477 21.8403
116.351 458 21.4009
116.469 484 22
116.586 483 21.9773
116.704 500 22.3607
116.821 497 22.2935
116.939 514 22.6716
117.056 531 23.0434
117.174 512 22.6274
117.291 564 23.7487
117.409 466 21.587
117.526 532 23.0651
117.644 523 22.8692
117.761 500 22.3607
117.879 504 22.4499
117.996 414 20.347
118.114 432 20.7846
118.231 476 21.8174
118.349 498 22.3159
118.466 470 21.6795
118.584 488 22.0907
118.701 532 23.0651
118.819 506 22.4944
118.936 532 23.0651
119.053 509 22.561
119.171 492 22.1811
119.288 452 21.2603
119.405 458 21.4009
119.523 377 19.4165
119.64 407 20.1742
119.757 417 20.4206
119.875 469 21.6564
119.992 474 21.7715
120.109 448 21.166
120.226 445 21.095
120.343 493 22.2036
120.46 466 21.587
120.578 418 20.445
120.695 468 21.6333
120.812 458 21.4009
120.929 487 22.0681
121.046 523 22.8692
121.163 480 21.9089
121.279 456 21.3542
121.396 401 20.025
121.513 450 21.2132
121.63 436 20.8806
121.747 353 18.7883
121.863 397 19.9249
121.98 441 21
122.097 438 20.9284
122.213 411 20.2731
122.33 414 20.347
122.446 386 19.6469
122.563 387 19.6723
122.679 338 18.3848
122.795 363 19.0526
122.912 312 17.6635
123.028 269 16.4012
123.144 225 15
123.26 230 15.1658
123.377 0 1
123.493 0 1
123.609 0 1
123.725 0 1
123.84 0 1
123.956 0 1
124.072 0 1
124.188 0 1
124.303 0 1
124.419 0 1
126.852 0 1
126.968 0 1
127.083 0 1
127.199 0 1
127.315 0 1
127.431 0 1
127.547 0 1
127.663 0 1
127.779 0 1
127.895 0 1
128.011 0 1
128.127 0 1
128.243 0 1
128.359 438 20.9284
128.476 468 21.6333
128.592 476 21.8174
128.708 466 21.587
128.825 491 22.1585
128.941 534 23.1084
129.058 519 22.7816
129.174 554 23.5372
129.291 540 23.2379
129.408 549 23.4307
129.524 505 22.4722
129.641 520 22.8035
129.758 525 22.9129
129.875 564 23.7487
129.992 586 24.2074
130.108 597 24.4336
130.225 596 24.4131
130.342 565 23.7697
130.459 580 24.0832
130.576 503 22.4277
130.693 562 23.7065
130.81 556 23.5797
130.928 556 23.5797
131.045 658 25.6515
131.162 641 25.318
131.279 713 26.7021
131.396 740 27.2029
131.513 704 26.533
131.631 751 27.4044
131.748 776 27.8568
131.865 799 28.2666
131.983 743 27.258
132.1 813 28.5132
132.217 773 27.8029
132.335 785 28.0179
132.452 895 29.9166
132.57 963 31.0322
132.687 1019 31.9218
132.804 1039 32.2335
132.922 1034 32.1559
133.039 1050 32.4037
133.157 1031 32.1092
133.274 1069 32.6956
133.392 1094 33.0757
133.509 1171 34.2199
133.627 1149 33.8969
133.744 1136 33.7046
133.862 1171 34.2199
133.979 1115 33.3916
134.097 1023 31.9844
134.214 1047 32.3574
134.332 961 31
134.449 1094 33.0757
134.567 1140 33.7639
134.684 1258 35.4683
134.802 1314 36.2491
134.919 1292 35.9444
135.037 1262 35.5246
135.154 1336 36.5513
135.272 1300 36.0555
135.389 1357 36.8375
135.507 1323 36.3731
135.624 1318 36.3043
135.742 1319 36.318
135.859 1290 35.9166
135.977 1292 35.9444
136.094 1458 38.1838
136.211 1315 36.2629
136.329 1391 37.2961
136.446 1366 36.9594
136.564 1371 37.027
136.681 1355 36.8103
136.798 1398 37.3898
136.915 1389 37.2693
137.033 1324 36.3868
137.15 1406 37.4967
137.267 1295 35.9861
137.384 1277 35.7351
137.502 1365 36.9459
137.619 1207 34.7419
137.736 1103 33.2114
137.853 967 31.0966
137.97 1025 32.0156
138.087 1075 32.7872
138.204 1105 33.2415
138.321 1144 33.8231
138.438 1204 34.6987
138.555 1226 35.0143
138.672 1210 34.7851
138.788 1226 35.0143
138.905 1168 34.176
139.022 1131 33.6303
139.139 1086 32.9545
139.255 1057 32.5115
139.372 999 31.607
139.488 911 30.1828
139.605 895 29.9166
139.721 873 29.5466
139.838 876 29.5973
139.954 827 28.7576
140.071 774 27.8209
140.187 785 28.0179
140.303 704 26.533
140.419 662 25.7294
140.535 686 26.1916
140.652 624 24.98
140.768 0 1
140.884 0 1
141 0 1
141.115 0 1
141.231 0 1
141.347 0 1
141.463 0 1
141.578 0 1
141.694 0 1
144.104 0 1
144.219 0 1
144.335 0 1
144.45 0 1
144.566 0 1
144.682 0 1
144.798 0 1
144.914 0 1
145.03 0 1
145.146 1224 34.9857
145.262 1428 37.7889
145.378 1495 38.6652
145.494 1568 39.598
145.61 1679 40.9756
145.726 1943 44.0795
145.842 2181 46.7012
145.959 2122 46.0652
146.075 2301 47.9687
146.192 2494 49.94
146.308 2579 50.7839
146.425 2655 51.5267
146.541 2767 52.6023
146.658 2751 52.45
146.774 2895 53.8052
146.891 3027 55.0182
147.008 3193 56.5066
147.125 3315 57.576
147.241 3495 59.1185
147.358 3472 58.9237
147.475 3655 60.4566
147.592 3510 59.2453
147.709 3629 60.2412
147.826 3513 59.2706
147.943 2971 54.5069
148.06 2433 49.3254
148.177 2111 45.9456
148.294 2412 49.1121
148.411 3111 55.7763
148.528 3759 61.3107
148.645 4541 67.3869
148.762 5375 73.3144
148.88 6138 78.3454
148.997 6563 81.0123
149.114 7061 84.0298
149.231 7721 87.8692
149.349 8430 91.815
149.466 8968 94.6995
149.583 9838 99.1867
149.701 10385 101.907
149.818 10964 104.709
149.935 11887 109.028
150.053 12532 111.946
150.17 13142 114.639
150.287 13219 114.974
150.405 13987 118.267
150.522 14111 118.79
150.64 14146 118.937
150.757 14675 121.14
150.875 15364 123.952
150.992 16280 127.593
151.11 16096 126.87
151.227 16402 128.07
151.344 16348 127.859
151.462 16115 126.945
151.579 13763 117.316
151.697 9953 99.7647
151.814 8150 90.2774
151.932 9222 96.0312
152.049 12356 111.158
152.167 15154 123.102
152.284 16371 127.949
152.402 16416 128.125
152.519 16401 128.066
152.636 16221 127.362
152.754 16207 127.307
152.871 16436 128.203
152.989 16700 129.228
153.106 17232 131.271
153.223 17650 132.853
153.341 18364 135.514
153.458 19070 138.094
153.575 19214 138.615
153.693 19583 139.939
153.81 19925 141.156
153.927 21186 145.554
154.044 21819 147.713
154.162 22760 150.864
154.279 24311 155.92
154.396 27550 165.982
154.513 29814 172.667
154.63 30347 174.204
154.747 30548 174.78
154.864 29384 171.418
154.981 28341 168.348
155.098 28448 168.665
155.215 31695 178.031
155.332 36404 190.798
155.449 40216 200.539
155.566 42242 205.529
155.683 43947 209.635
155.8 45027 212.196
155.917 46886 216.532
156.033 48486 220.195
156.15 0 1
156.267 0 1
156.383 0 1
156.5 0 1
156.617 0 1
156.733 0 1
156.85 0 1
156.966 0 1
157.082 0 1
157.199 0 1
157.315 0 1
157.431 0 1
157.547 0 1
157.664 0 1
157.78 0 1
157.896 0 1
158.012 0 1
158.128 0 1
158.244 0 1
158.359 0 1
158.475 0 1
158.591 0 1
158.706 0 1
