
6.15755 0 1
6.2731 0 1
6.3887 0 1
6.50437 0 1
6.62009 0 1
6.73587 0 1
6.8517 0 1
6.96759 0 1
7.08353 0 1
7.19952 0 1
7.31557 0 1
7.43166 0 1
7.54781 0 1
7.664 0 1
7.78024 0 1
7.89653 0 1
8.01286 0 1
8.12924 0 1
8.24567 0 1
8.36213 0 1
8.47864 0 1
8.59519 0 1
8.71178 0 1
8.82841 0 1
8.94508 0 1
9.06179 0 1
9.17853 0 1
9.29531 0 1
9.41212 0 1
9.52897 0 1
9.64584 0 1
9.76276 0 1
9.8797 0 1
9.99667 0 1
10.1137 0 1
10.2307 0 1
10.3478 0 1
10.4648 0 1
10.5819 0 1
10.6991 0 1
10.8162 0 1
10.9334 0 1
11.0506 0 1
11.1678 0 1
11.285 0 1
11.4023 0 1
11.5196 0 1
11.6369 0 1
11.7542 0 1
11.8715 0 1
11.9888 0 1
12.1062 0 1
12.2235 0 1
12.3409 0 1
12.4582 0 1
12.5756 0 1
12.693 0 1
12.8104 0 1
12.9278 0 1
13.0452 0 1
13.1626 0 1
13.28 0 1
13.3974 0 1
13.5149 0 1
13.6323 0 1
13.7497 0 1
13.8671 0 1
13.9845 0 1
14.1019 0 1
14.2193 0 1
14.3367 0 1
14.4541 0 1
14.5714 0 1
14.6888 0 1
14.8062 0 1
14.9235 0 1
15.0408 0 0
15.1581 0 0
15.2755 0 0
15.3927 0 0
15.51 0 0
15.6273 0 0
15.7445 0 0
15.8617 0 0
15.9789 0 0
16.0961 0 0
16.2132 0 0
16.3304 0 0
16.4475 0 0
16.5646 0 0
16.6816 0 0
16.7986 0 0
16.9156 0 0
17.0326 0 0
17.1496 0 0
17.2665 0 0
17.3833 0 0
17.5002 0 0
17.617 0 0
17.7338 0 0
17.8505 0 0
17.9672 0 0
18.0839 0 0
18.2005 0 0
18.3171 0 0
18.4337 0 0
18.5502 0 0
18.6666 0 0
18.7831 0 0
18.8994 0 0
19.0158 0 0
19.1321 0 0
19.2483 0 0
19.3645 0 0
19.4806 0 0
19.5967 0 0
19.7128 0 0
19.8288 0 0
19.9447 0 0
20.0606 0 1
20.1764 0 1
20.2922 0 1
20.4079 0 1
20.5236 0 1
20.6392 0 1
20.7548 0 1
20.8702 0 1
23.3078 0 1
23.4233 0 1
23.539 0 1
23.6547 0 1
23.7704 0 1
23.8862 0 1
24.0021 0 1
24.118 0 1
24.234 0 1
24.35 0 1
24.4661 516 22.7156
24.5822 656 25.6125
24.6984 699 26.4386
24.8146 742 27.2397
24.9309 726 26.9444
25.0472 786 28.0357
25.1636 834 28.8791
25.28 853 29.2062
25.3965 862 29.3598
25.513 941 30.6757
25.6296 990 31.4643
25.7462 1050 32.4037
25.8628 1110 33.3167
25.9795 1015 31.8591
26.0962 1122 33.4963
26.213 1107 33.2716
26.3298 1119 33.4515
26.4466 1044 32.311
26.5635 1089 33
26.6804 1048 32.3728
26.7973 894 29.8998
26.9143 887 29.7825
27.0313 997 31.5753
27.1483 1002 31.6544
27.2653 1054 32.4654
27.3824 1039 32.2335
27.4996 1091 33.0303
27.6167 1074 32.7719
27.7339 1012 31.8119
27.8511 979 31.289
27.9683 1005 31.7017
28.0855 977 31.257
28.2028 1008 31.749
28.3201 907 30.1164
28.4374 924 30.3974
28.5547 907 30.1164
28.6721 809 28.4429
28.7894 860 29.3258
28.9068 944 30.7246
29.0242 877 29.6142
29.1416 903 30.05
29.259 968 31.1127
29.3764 980 31.305
29.4939 1028 32.0624
29.6113 1031 32.1092
29.7288 1062 32.5883
29.8463 1019 31.9218
29.9638 1052 32.4345
30.0812 991 31.4802
30.1987 956 30.9192
30.3162 881 29.6816
30.4337 895 29.9166
30.5512 873 29.5466
30.6687 949 30.8058
30.7862 969 31.1288
30.9037 956 30.9192
31.0212 984 31.3688
31.1387 996 31.5595
31.2562 986 31.4006
31.3737 931 30.5123
31.4912 999 31.607
31.6087 964 31.0483
31.7262 897 29.95
31.8436 903 30.05
31.9611 891 29.8496
32.0785 838 28.9482
32.1959 870 29.4958
32.3134 847 29.1033
32.4308 835 28.8964
32.5482 875 29.5804
32.6655 895 29.9166
32.7829 950 30.8221
32.9002 886 29.7658
33.0176 1058 32.5269
33.1349 996 31.5595
33.2522 971 31.1609
33.3694 1003 31.6702
33.4867 1000 31.6228
33.6039 996 31.5595
33.7211 983 31.3528
33.8383 856 29.2575
33.9554 881 29.6816
34.0725 743 27.258
34.1896 838 28.9482
34.3067 878 29.6311
34.4237 907 30.1164
34.5407 902 30.0333
34.6577 941 30.6757
34.7746 1007 31.7333
34.8915 919 30.315
35.0084 925 30.4138
35.1252 890 29.8329
35.242 832 28.8444
35.3587 928 30.4631
35.4755 820 28.6356
35.5921 845 29.0689
35.7088 829 28.7924
35.8254 754 27.4591
35.9419 761 27.5862
36.0584 758 27.5318
36.1749 685 26.1725
36.2913 744 27.2764
36.4077 709 26.6271
36.524 722 26.8701
36.6403 684 26.1534
36.7565 743 27.258
36.8727 690 26.2679
36.9889 602 24.5357
37.1049 593 24.3516
37.221 0 1
37.3369 0 1
37.4529 0 1
37.5687 0 1
37.6845 0 1
37.8003 0 1
37.916 0 1
38.0316 0 1
38.1472 0 1
40.5851 0 1
40.7008 0 1
40.8164 0 1
40.9322 0 1
41.048 0 1
41.1639 0 1
41.2798 0 1
41.3958 0 1
41.5118 0 1
41.6279 0 1
41.744 501 22.383
41.8602 550 23.4521
41.9765 623 24.96
42.0928 621 24.9199
42.2091 681 26.096
42.3255 687 26.2107
42.4419 657 25.632
42.5584 785 28.0179
42.675 688 26.2298
42.7915 647 25.4362
42.9081 678 26.0384
43.0248 703 26.5141
43.1415 756 27.4955
43.2582 788 28.0713
43.375 775 27.8388
43.4918 803 28.3373
43.6087 831 28.8271
43.7256 822 28.6705
43.8425 792 28.1425
43.9595 816 28.5657
44.0765 797 28.2312
44.1935 712 26.6833
44.3106 769 27.7308
44.4277 739 27.1846
44.5448 702 26.4953
44.6619 673 25.9422
44.7791 641 25.318
44.8963 691 26.2869
45.0136 749 27.3679
45.1308 704 26.533
45.2481 720 26.8328
45.3654 768 27.7128
45.4827 772 27.7849
45.6001 846 29.0861
45.7174 841 29
45.8348 837 28.931
45.9522 790 28.1069
46.0697 789 28.0891
46.1871 775 27.8388
46.3046 771 27.7669
46.422 664 25.7682
46.5395 699 26.4386
46.657 755 27.4773
46.7745 744 27.2764
46.892 774 27.8209
47.0096 828 28.775
47.1271 826 28.7402
47.2446 858 29.2916
47.3622 898 29.9666
47.4797 822 28.6705
47.5973 763 27.6225
47.7149 744 27.2764
47.8324 730 27.0185
47.95 735 27.1109
48.0675 745 27.2947
48.1851 707 26.5895
48.3027 671 25.9037
48.4202 633 25.1595
48.5378 684 26.1534
48.6554 712 26.6833
48.7729 770 27.7489
48.8904 734 27.0924
49.008 787 28.0535
49.1255 848 29.1204
49.243 796 28.2135
49.3605 826 28.7402
49.478 771 27.7669
49.5955 734 27.0924
49.713 708 26.6083
49.8304 634 25.1794
49.9479 663 25.7488
50.0653 677 26.0192
50.1827 753 27.4408
50.3001 743 27.258
50.4175 716 26.7582
50.5348 786 28.0357
50.6521 815 28.5482
50.7694 796 28.2135
50.8867 796 28.2135
51.004 802 28.3196
51.1212 770 27.7489
51.2384 807 28.4077
51.3556 742 27.2397
51.4727 751 27.4044
51.5899 737 27.1477
51.707 676 26
51.824 662 25.7294
51.9411 645 25.3969
52.0581 700 26.4575
52.175 693 26.3249
52.2919 775 27.8388
52.4088 739 27.1846
52.5257 775 27.8388
52.6425 834 28.8791
52.7593 838 28.9482
52.876 799 28.2666
52.9927 767 27.6948
53.1094 781 27.9464
53.226 742 27.2397
53.3426 663 25.7488
53.4591 605 24.5967
53.5756 584 24.1661
53.692 526 22.9347
53.8084 543 23.3024
53.9248 533 23.0868
54.0411 527 22.9565
54.1573 500 22.3607
54.2735 0 1
54.3896 0 1
54.5057 0 1
54.6217 0 1
54.7377 0 1
54.8537 0 1
54.9695 0 1
55.0853 0 1
55.2011 0 1
55.3168 0 1
55.4324 0 1
57.824 0 1
57.9396 0 1
58.0553 0 1
58.1711 0 1
58.2869 0 1
58.4028 0 1
58.5187 0 1
58.6347 0 1
58.7508 0 1
58.8669 0 1
58.983 550 23.4521
59.0992 665 25.7876
59.2155 729 27
59.3318 761 27.5862
59.4482 830 28.8097
59.5646 933 30.545
59.681 932 30.5287
59.7975 892 29.8664
59.9141 979 31.289
60.0306 904 30.0666
60.1473 851 29.1719
60.2639 795 28.1957
60.3807 809 28.4429
60.4974 806 28.3901
60.6142 849 29.1376
60.731 788 28.0713
60.8479 848 29.1204
60.9648 844 29.0517
61.0818 899 29.9833
61.1987 979 31.289
61.3158 987 31.4166
61.4328 953 30.8707
61.5499 985 31.3847
61.667 923 30.3809
61.7841 926 30.4302
61.9013 839 28.9655
62.0185 821 28.6531
62.1357 816 28.5657
62.253 846 29.0861
62.3702 912 30.1993
62.4875 876 29.5973
62.6049 914 30.2324
62.7222 978 31.273
62.8396 965 31.0644
62.9569 947 30.7734
63.0743 1041 32.2645
63.1918 1000 31.6228
63.3092 961 31
63.4267 900 30
63.5441 947 30.7734
63.6616 873 29.5466
63.7791 872 29.5296
63.8966 795 28.1957
64.0142 755 27.4773
64.1317 744 27.2764
64.2492 820 28.6356
64.3668 849 29.1376
64.4843 871 29.5127
64.6019 891 29.8496
64.7195 895 29.9166
64.837 940 30.6594
64.9546 970 31.1448
65.0722 1002 31.6544
65.1898 932 30.5287
65.3074 887 29.7825
65.4249 855 29.2404
65.5425 766 27.6767
65.6601 817 28.5832
65.7777 714 26.7208
65.8952 814 28.5307
66.0128 832 28.8444
66.1304 876 29.5973
66.2479 928 30.4631
66.3655 893 29.8831
66.483 935 30.5778
66.6005 1004 31.686
66.718 962 31.0161
66.8355 931 30.5123
66.953 897 29.95
67.0705 867 29.4449
67.1879 862 29.3598
67.3054 841 29
67.4228 808 28.4253
67.5402 752 27.4226
67.6576 727 26.9629
67.7749 734 27.0924
67.8923 757 27.5136
68.0096 829 28.7924
68.1269 822 28.6705
68.2442 913 30.2159
68.3614 876 29.5973
68.4787 868 29.4618
68.5958 937 30.6105
68.713 891 29.8496
68.8302 858 29.2916
68.9473 908 30.133
69.0643 803 28.3373
69.1814 738 27.1662
69.2984 750 27.3861
69.4154 735 27.1109
69.5323 747 27.3313
69.6492 816 28.5657
69.7661 831 28.8271
69.8829 821 28.6531
69.9997 855 29.2404
70.1165 804 28.3549
70.2332 797 28.2312
70.3499 740 27.2029
70.4665 749 27.3679
70.5831 676 26
70.6996 656 25.6125
70.8161 629 25.0799
70.9326 554 23.5372
71.049 477 21.8403
71.1653 430 20.7364
71.2817 376 19.3907
71.3979 324 18
71.5141 293 17.1172
71.6303 269 16.4012
71.7464 273 16.5227
71.8624 0 1
71.9784 0 1
72.0944 0 1
72.2102 0 1
72.3261 0 1
72.4418 0 1
72.5575 0 1
72.6732 0 1
75.1054 0 1
75.2209 0 1
75.3365 0 1
75.4521 0 1
75.5678 0 1
75.6835 0 1
75.7993 0 1
75.9151 0 1
76.031 0 1
76.147 565 23.7697
76.263 627 25.04
76.3791 657 25.632
76.4952 656 25.6125
76.6113 653 25.5539
76.7276 646 25.4165
76.8438 640 25.2982
76.9601 727 26.9629
77.0765 750 27.3861
77.1929 801 28.3019
77.3093 843 29.0345
77.4258 892 29.8664
77.5423 843 29.0345
77.6589 929 30.4795
77.7755 869 29.4788
77.8921 788 28.0713
78.0088 799 28.2666
78.1256 774 27.8209
78.2423 707 26.5895
78.3591 692 26.3059
78.4759 673 25.9422
78.5928 747 27.3313
78.7097 792 28.1425
78.8266 857 29.2746
78.9436 889 29.8161
79.0606 906 30.0998
79.1776 911 30.1828
79.2946 916 30.2655
79.4117 851 29.1719
79.5288 925 30.4138
79.6459 882 29.6985
79.7631 853 29.2062
79.8802 830 28.8097
79.9974 802 28.3196
80.1147 753 27.4408
80.2319 709 26.6271
80.3491 705 26.5518
80.4664 721 26.8514
80.5837 762 27.6043
80.701 821 28.6531
80.8183 815 28.5482
80.9357 895 29.9166
81.053 930 30.4959
81.1704 916 30.2655
81.2877 884 29.7321
81.4051 899 29.9833
81.5225 908 30.133
81.6399 810 28.4605
81.7573 863 29.3769
81.8747 770 27.7489
81.9922 740 27.2029
82.1096 709 26.6271
82.227 802 28.3196
82.3444 776 27.8568
82.4619 848 29.1204
82.5793 950 30.8221
82.6967 945 30.7409
82.8142 980 31.305
82.9316 909 30.1496
83.049 997 31.5753
83.1664 933 30.545
83.2838 881 29.6816
83.4012 907 30.1164
83.5186 850 29.1548
83.636 831 28.8271
83.7534 764 27.6405
83.8708 716 26.7582
83.9881 656 25.6125
84.1055 706 26.5707
84.2228 761 27.5862
84.3401 807 28.4077
84.4575 810 28.4605
84.5747 932 30.5287
84.692 913 30.2159
84.8093 947 30.7734
84.9265 943 30.7083
85.0437 923 30.3809
85.1609 900 30
85.2781 816 28.5657
85.3952 791 28.1247
85.5123 797 28.2312
85.6294 707 26.5895
85.7465 748 27.3496
85.8636 796 28.2135
85.9806 802 28.3196
86.0976 910 30.1662
86.2145 897 29.95
86.3315 895 29.9166
86.4484 1040 32.249
86.5652 934 30.5614
86.682 952 30.8545
86.7988 949 30.8058
86.9156 835 28.8964
87.0323 891 29.8496
87.149 831 28.8271
87.2657 737 27.1477
87.3823 662 25.7294
87.4988 606 24.6171
87.6154 596 24.4131
87.7318 638 25.2587
87.8483 682 26.1151
87.9647 695 26.3629
88.081 653 25.5539
88.1973 703 26.5141
88.3136 617 24.8395
88.4298 606 24.6171
88.546 516 22.7156
88.6621 460 21.4476
88.7781 388 19.6977
88.8942 0 1
89.0101 0 1
89.126 0 1
89.2419 0 1
89.3577 0 1
89.4734 0 1
89.5891 0 1
89.7047 0 1
89.8203 0 1
89.9358 0 1
92.3269 0 1
92.4424 0 1
92.558 0 1
92.6736 0 1
92.7893 0 1
92.905 0 1
93.0208 0 1
93.1366 0 1
93.2525 0 1
93.3685 0 1
93.4845 0 1
93.6005 845 29.0689
93.7167 954 30.8869
93.8328 917 30.282
93.949 903 30.05
94.0653 885 29.7489
94.1816 891 29.8496
94.2979 801 28.3019
94.4143 800 28.2843
94.5307 851 29.1719
94.6472 897 29.95
94.7637 933 30.545
94.8803 1026 32.0312
94.9969 1036 32.187
95.1135 1033 32.1403
95.2302 1083 32.909
95.3469 1114 33.3766
95.4637 1063 32.6037
95.5805 1010 31.7805
95.6973 981 31.3209
95.8142 908 30.133
95.9311 950 30.8221
96.048 911 30.1828
96.1649 868 29.4618
96.2819 820 28.6356
96.3989 846 29.0861
96.516 836 28.9137
96.633 1002 31.6544
96.7501 989 31.4484
96.8673 989 31.4484
96.9844 1055 32.4808
97.1016 1008 31.749
97.2188 994 31.5278
97.336 888 29.7993
97.4532 921 30.348
97.5704 827 28.7576
97.6877 780 27.9285
97.805 779 27.9106
97.9223 834 28.8791
98.0396 822 28.6705
98.1569 900 30
98.2743 919 30.315
98.3916 1027 32.0468
98.509 972 31.1769
98.6264 1021 31.9531
98.7438 1079 32.8481
98.8612 1023 31.9844
98.9786 996 31.5595
99.096 1077 32.8177
99.2134 986 31.4006
99.3308 940 30.6594
99.4482 855 29.2404
99.5656 781 27.9464
99.6831 787 28.0535
99.8005 789 28.0891
99.9179 861 29.3428
100.035 882 29.6985
100.153 960 30.9839
100.27 926 30.4302
100.388 979 31.289
100.505 1056 32.4962
100.622 990 31.4643
100.74 955 30.9031
100.857 919 30.315
100.975 880 29.6648
101.092 890 29.8329
101.209 763 27.6225
101.327 797 28.2312
101.444 796 28.2135
101.561 831 28.8271
101.679 893 29.8831
101.796 971 31.1609
101.913 981 31.3209
102.03 1000 31.6228
102.148 1028 32.0624
102.265 1001 31.6386
102.382 1082 32.8938
102.499 1055 32.4808
102.616 1026 32.0312
102.733 1006 31.7175
102.851 995 31.5436
102.968 997 31.5753
103.085 969 31.1288
103.202 871 29.5127
103.319 836 28.9137
103.436 835 28.8964
103.552 927 30.4467
103.669 918 30.2985
103.786 1045 32.3265
103.903 1111 33.3317
104.02 1238 35.1852
104.137 1291 35.9305
104.253 1249 35.3412
104.37 1136 33.7046
104.487 1217 34.8855
104.603 1181 34.3657
104.72 1100 33.1662
104.836 1054 32.4654
104.953 1028 32.0624
105.069 976 31.241
105.186 954 30.8869
105.302 1005 31.7017
105.418 1104 33.2265
105.535 1018 31.9061
105.651 1017 31.8904
105.767 945 30.7409
105.883 882 29.6985
105.999 740 27.2029
106.115 0 1
106.231 0 1
106.347 0 1
106.463 0 1
106.579 0 1
106.694 0 1
106.81 0 1
106.926 0 1
107.041 0 1
107.157 0 1
109.576 0 1
109.692 0 1
109.807 0 1
109.923 0 1
110.039 0 1
110.155 0 1
110.27 0 1
110.386 0 1
110.502 0 1
110.618 1249 35.3412
110.735 1593 39.9124
110.851 1799 42.4146
110.967 1926 43.8862
111.083 2143 46.2925
111.199 2317 48.1352
111.316 2428 49.2747
111.432 2463 49.6286
111.549 2603 51.0196
111.665 2619 51.1762
111.782 2538 50.3786
111.898 2430 49.295
112.015 2338 48.3529
112.132 2228 47.2017
112.248 1999 44.7102
112.365 2019 44.9333
112.482 2034 45.0999
112.599 2339 48.3632
112.716 2398 48.9694
112.832 2424 49.2341
112.949 2492 49.9199
113.066 2568 50.6754
113.183 2490 49.8999
113.3 2552 50.5173
113.417 2406 49.051
113.534 2326 48.2286
113.652 2232 47.244
113.769 2013 44.8665
113.886 1888 43.4511
114.003 1867 43.2088
114.12 1883 43.3935
114.238 2064 45.4313
114.355 2159 46.465
114.472 2098 45.8039
114.589 2215 47.0638
114.707 2265 47.592
114.824 2291 47.8644
114.942 2253 47.4658
115.059 2265 47.592
115.176 2251 47.4447
115.294 2133 46.1844
115.411 1975 44.441
115.529 1978 44.4747
115.646 1836 42.8486
115.764 1649 40.6079
115.881 1627 40.3361
115.999 1522 39.0128
116.116 1542 39.2683
116.234 1696 41.1825
116.351 1735 41.6533
116.469 1698 41.2068
116.586 1647 40.5832
116.704 1582 39.7744
116.821 1538 39.2173
116.939 1518 38.9615
117.056 1481 38.4838
117.174 1359 36.8646
117.291 1241 35.2278
117.409 1190 34.4964
117.526 1098 33.1361
117.644 1058 32.5269
117.761 1114 33.3766
117.879 1109 33.3017
117.996 1163 34.1028
118.114 1142 33.7935
118.231 1165 34.1321
118.349 1141 33.7787
118.466 1187 34.4529
118.584 1131 33.6303
118.701 1100 33.1662
118.819 1068 32.6803
118.936 1041 32.2645
119.053 961 31
119.171 984 31.3688
119.288 870 29.4958
119.405 786 28.0357
119.523 833 28.8617
119.64 790 28.1069
119.757 801 28.3019
119.875 882 29.6985
119.992 924 30.3974
120.109 953 30.8707
120.226 910 30.1662
120.343 929 30.4795
120.46 918 30.2985
120.578 876 29.5973
120.695 897 29.95
120.812 868 29.4618
120.929 834 28.8791
121.046 761 27.5862
121.163 707 26.5895
121.279 667 25.8263
121.396 715 26.7395
121.513 804 28.3549
121.63 767 27.6948
121.747 807 28.4077
121.863 765 27.6586
121.98 743 27.258
122.097 762 27.6043
122.213 709 26.6271
122.33 670 25.8844
122.446 655 25.593
122.563 604 24.5764
122.679 580 24.0832
122.795 547 23.388
122.912 493 22.2036
123.028 450 21.2132
123.144 378 19.4422
123.26 325 18.0278
123.377 0 1
123.493 0 1
123.609 0 1
123.725 0 1
123.84 0 1
123.956 0 1
124.072 0 1
124.188 0 1
124.303 0 1
124.419 0 1
126.852 0 1
126.968 0 1
127.083 0 1
127.199 0 1
127.315 0 1
127.431 0 1
127.547 0 1
127.663 0 1
127.779 0 1
127.895 0 1
128.011 0 1
128.127 0 1
128.243 0 1
128.359 779 27.9106
128.476 674 25.9615
128.592 776 27.8568
128.708 818 28.6007
128.825 870 29.4958
128.941 887 29.7825
129.058 948 30.7896
129.174 928 30.4631
129.291 906 30.0998
129.408 944 30.7246
129.524 947 30.7734
129.641 948 30.7896
129.758 833 28.8617
129.875 824 28.7054
129.992 774 27.8209
130.108 804 28.3549
130.225 756 27.4955
130.342 789 28.0891
130.459 742 27.2397
130.576 879 29.6479
130.693 911 30.1828
130.81 944 30.7246
130.928 909 30.1496
131.045 972 31.1769
131.162 965 31.0644
131.279 969 31.1288
131.396 920 30.3315
131.513 877 29.6142
131.631 861 29.3428
131.748 878 29.6311
131.865 855 29.2404
131.983 801 28.3019
132.1 745 27.2947
132.217 812 28.4956
132.335 819 28.6182
132.452 913 30.2159
132.57 886 29.7658
132.687 908 30.133
132.804 1008 31.749
132.922 961 31
133.039 842 29.0172
133.157 902 30.0333
133.274 831 28.8271
133.392 820 28.6356
133.509 741 27.2213
133.627 752 27.4226
133.744 771 27.7669
133.862 743 27.258
133.979 840 28.9828
134.097 809 28.4429
134.214 848 29.1204
134.332 857 29.2746
134.449 856 29.2575
134.567 938 30.6268
134.684 845 29.0689
134.802 978 31.273
134.919 976 31.241
135.037 1012 31.8119
135.154 894 29.8998
135.272 828 28.775
135.389 856 29.2575
135.507 857 29.2746
135.624 724 26.9072
135.742 845 29.0689
135.859 802 28.3196
135.977 849 29.1376
136.094 892 29.8664
136.211 875 29.5804
136.329 860 29.3258
136.446 915 30.249
136.564 891 29.8496
136.681 846 29.0861
136.798 852 29.189
136.915 801 28.3019
137.033 782 27.9643
137.15 793 28.1603
137.267 802 28.3196
137.384 693 26.3249
137.502 770 27.7489
137.619 868 29.4618
137.736 832 28.8444
137.853 869 29.4788
137.97 866 29.4279
138.087 804 28.3549
138.204 890 29.8329
138.321 847 29.1033
138.438 922 30.3645
138.555 919 30.315
138.672 896 29.9333
138.788 840 28.9828
138.905 825 28.7228
139.022 762 27.6043
139.139 692 26.3059
139.255 700 26.4575
139.372 611 24.7184
139.488 600 24.4949
139.605 623 24.96
139.721 693 26.3249
139.838 592 24.3311
139.954 539 23.2164
140.071 517 22.7376
140.187 464 21.5407
140.303 449 21.1896
140.419 388 19.6977
140.535 362 19.0263
140.652 330 18.1659
140.768 0 1
140.884 0 1
141 0 1
141.115 0 1
141.231 0 1
141.347 0 1
141.463 0 1
141.578 0 1
141.694 0 1
144.104 0 1
144.219 0 1
144.335 0 1
144.45 0 1
144.566 0 1
144.682 0 1
144.798 0 1
144.914 0 1
145.03 0 1
145.146 692 26.3059
145.262 740 27.2029
145.378 704 26.533
145.494 717 26.7769
145.61 707 26.5895
145.726 673 25.9422
145.842 688 26.2298
145.959 662 25.7294
146.075 634 25.1794
146.192 669 25.865
146.308 608 24.6577
146.425 737 27.1477
146.541 656 25.6125
146.658 731 27.037
146.774 762 27.6043
146.891 750 27.3861
147.008 734 27.0924
147.125 742 27.2397
147.241 773 27.8029
147.358 794 28.178
147.475 799 28.2666
147.592 760 27.5681
147.709 754 27.4591
147.826 700 26.4575
147.943 656 25.6125
148.06 708 26.6083
148.177 668 25.8457
148.294 738 27.1662
148.411 743 27.258
148.528 768 27.7128
148.645 773 27.8029
148.762 743 27.258
148.88 782 27.9643
148.997 741 27.2213
149.114 767 27.6948
149.231 742 27.2397
149.349 748 27.3496
149.466 690 26.2679
149.583 655 25.593
149.701 623 24.96
149.818 633 25.1595
149.935 628 25.0599
150.053 662 25.7294
150.17 682 26.1151
150.287 682 26.1151
150.405 708 26.6083
150.522 764 27.6405
150.64 727 26.9629
150.757 703 26.5141
150.875 751 27.4044
150.992 749 27.3679
151.11 721 26.8514
151.227 750 27.3861
151.344 711 26.6646
151.462 635 25.1992
151.579 702 26.4953
151.697 607 24.6374
151.814 703 26.5141
151.932 703 26.5141
152.049 751 27.4044
152.167 742 27.2397
152.284 749 27.3679
152.402 790 28.1069
152.519 720 26.8328
152.636 783 27.9821
152.754 701 26.4764
152.871 703 26.5141
152.989 656 25.6125
153.106 663 25.7488
153.223 701 26.4764
153.341 666 25.807
153.458 573 23.9374
153.575 624 24.98
153.693 637 25.2389
153.81 633 25.1595
153.927 611 24.7184
154.044 702 26.4953
154.162 694 26.3439
154.279 698 26.4197
154.396 752 27.4226
154.513 702 26.4953
154.63 751 27.4044
154.747 727 26.9629
154.864 737 27.1477
154.981 708 26.6083
155.098 689 26.2488
155.215 672 25.923
155.332 623 24.96
155.449 652 25.5343
155.566 678 26.0384
155.683 707 26.5895
155.8 740 27.2029
155.917 680 26.0768
156.033 688 26.2298
156.15 0 1
156.267 0 1
156.383 0 1
156.5 0 1
156.617 0 1
156.733 0 1
156.85 0 1
156.966 0 1
157.082 0 1
157.199 0 1
157.315 0 1
157.431 0 1
157.547 0 1
157.664 0 1
157.78 0 1
157.896 0 1
158.012 0 1
158.128 0 1
158.244 0 1
158.359 0 1
158.475 0 1
158.591 0 1
158.706 0 1
