
6.15755 0 1
6.2731 0 1
6.3887 0 1
6.50437 0 1
6.62009 0 1
6.73587 0 1
6.8517 0 1
6.96759 0 1
7.08353 0 1
7.19952 0 1
7.31557 0 1
7.43166 0 1
7.54781 0 1
7.664 0 1
7.78024 0 1
7.89653 0 1
8.01286 0 1
8.12924 0 1
8.24567 0 1
8.36213 0 1
8.47864 0 1
8.59519 0 1
8.71178 0 1
8.82841 0 1
8.94508 0 1
9.06179 0 1
9.17853 0 1
9.29531 0 1
9.41212 0 1
9.52897 0 1
9.64584 0 1
9.76276 0 1
9.8797 0 1
9.99667 0 1
10.1137 0 1
10.2307 0 1
10.3478 0 1
10.4648 0 1
10.5819 0 1
10.6991 0 1
10.8162 0 1
10.9334 0 1
11.0506 0 1
11.1678 0 1
11.285 0 1
11.4023 0 1
11.5196 0 1
11.6369 0 1
11.7542 0 1
11.8715 0 1
11.9888 0 1
12.1062 0 1
12.2235 0 1
12.3409 0 1
12.4582 0 1
12.5756 0 1
12.693 0 1
12.8104 0 1
12.9278 0 1
13.0452 0 1
13.1626 0 1
13.28 0 1
13.3974 0 1
13.5149 0 1
13.6323 0 1
13.7497 0 1
13.8671 0 1
13.9845 0 1
14.1019 0 1
14.2193 0 1
14.3367 0 1
14.4541 0 1
14.5714 0 1
14.6888 0 1
14.8062 0 1
14.9235 0 1
15.0408 924 30.3974
15.1581 993 31.5119
15.2755 985 31.3847
15.3927 1045 32.3265
15.51 989 31.4484
15.6273 984 31.3688
15.7445 1056 32.4962
15.8617 964 31.0483
15.9789 974 31.209
16.0961 978 31.273
16.2132 951 30.8383
16.3304 938 30.6268
16.4475 894 29.8998
16.5646 854 29.2233
16.6816 922 30.3645
16.7986 855 29.2404
16.9156 854 29.2233
17.0326 925 30.4138
17.1496 899 29.9833
17.2665 949 30.8058
17.3833 929 30.4795
17.5002 915 30.249
17.617 924 30.3974
17.7338 943 30.7083
17.8505 940 30.6594
17.9672 982 31.3369
18.0839 942 30.692
18.2005 833 28.8617
18.3171 796 28.2135
18.4337 899 29.9833
18.5502 852 29.189
18.6666 845 29.0689
18.7831 912 30.1993
18.8994 910 30.1662
19.0158 859 29.3087
19.1321 827 28.7576
19.2483 760 27.5681
19.3645 778 27.8927
19.4806 740 27.2029
19.5967 738 27.1662
19.7128 684 26.1534
19.8288 581 24.1039
19.9447 513 22.6495
20.0606 0 1
20.1764 0 1
20.2922 0 1
20.4079 0 1
20.5236 0 1
20.6392 0 1
20.7548 0 1
20.8702 0 1
23.3078 0 1
23.4233 0 1
23.539 0 1
23.6547 0 1
23.7704 0 1
23.8862 0 1
24.0021 0 1
24.118 0 1
24.234 0 1
24.35 0 1
24.4661 347 18.6279
24.5822 444 21.0713
24.6984 450 21.2132
24.8146 557 23.6008
24.9309 670 25.8844
25.0472 738 27.1662
25.1636 704 26.533
25.28 771 27.7669
25.3965 894 29.8998
25.513 906 30.0998
25.6296 906 30.0998
25.7462 940 30.6594
25.8628 967 31.0966
25.9795 917 30.282
26.0962 983 31.3528
26.213 859 29.3087
26.3298 877 29.6142
26.4466 848 29.1204
26.5635 843 29.0345
26.6804 806 28.3901
26.7973 773 27.8029
26.9143 706 26.5707
27.0313 688 26.2298
27.1483 671 25.9037
27.2653 807 28.4077
27.3824 780 27.9285
27.4996 804 28.3549
27.6167 845 29.0689
27.7339 830 28.8097
27.8511 845 29.0689
27.9683 837 28.931
28.0855 900 30
28.2028 841 29
28.3201 883 29.7153
28.4374 778 27.8927
28.5547 775 27.8388
28.6721 749 27.3679
28.7894 777 27.8747
28.9068 845 29.0689
29.0242 815 28.5482
29.1416 821 28.6531
29.259 822 28.6705
29.3764 774 27.8209
29.4939 765 27.6586
29.6113 785 28.0179
29.7288 810 28.4605
29.8463 746 27.313
29.9638 745 27.2947
30.0812 806 28.3901
30.1987 782 27.9643
30.3162 712 26.6833
30.4337 681 26.096
30.5512 728 26.9815
30.6687 758 27.5318
30.7862 750 27.3861
30.9037 825 28.7228
31.0212 827 28.7576
31.1387 798 28.2489
31.2562 808 28.4253
31.3737 871 29.5127
31.4912 839 28.9655
31.6087 828 28.775
31.7262 776 27.8568
31.8436 791 28.1247
31.9611 717 26.7769
32.0785 698 26.4197
32.1959 777 27.8747
32.3134 692 26.3059
32.4308 720 26.8328
32.5482 714 26.7208
32.6655 764 27.6405
32.7829 763 27.6225
32.9002 697 26.4008
33.0176 688 26.2298
33.1349 718 26.7955
33.2522 747 27.3313
33.3694 736 27.1293
33.4867 813 28.5132
33.6039 799 28.2666
33.7211 758 27.5318
33.8383 790 28.1069
33.9554 711 26.6646
34.0725 684 26.1534
34.1896 676 26
34.3067 715 26.7395
34.4237 763 27.6225
34.5407 812 28.4956
34.6577 811 28.4781
34.7746 812 28.4956
34.8915 827 28.7576
35.0084 796 28.2135
35.1252 777 27.8747
35.242 786 28.0357
35.3587 820 28.6356
35.4755 763 27.6225
35.5921 718 26.7955
35.7088 683 26.1343
35.8254 688 26.2298
35.9419 678 26.0384
36.0584 716 26.7582
36.1749 725 26.9258
36.2913 744 27.2764
36.4077 680 26.0768
36.524 639 25.2784
36.6403 650 25.4951
36.7565 571 23.8956
36.8727 565 23.7697
36.9889 576 24
37.1049 499 22.3383
37.221 0 1
37.3369 0 1
37.4529 0 1
37.5687 0 1
37.6845 0 1
37.8003 0 1
37.916 0 1
38.0316 0 1
38.1472 0 1
40.5851 0 1
40.7008 0 1
40.8164 0 1
40.9322 0 1
41.048 0 1
41.1639 0 1
41.2798 0 1
41.3958 0 1
41.5118 0 1
41.6279 0 1
41.744 313 17.6918
41.8602 393 19.8242
41.9765 481 21.9317
42.0928 490 22.1359
42.2091 508 22.5389
42.3255 548 23.4094
42.4419 555 23.5584
42.5584 567 23.8118
42.675 587 24.2281
42.7915 517 22.7376
42.9081 505 22.4722
43.0248 502 22.4054
43.1415 503 22.4277
43.2582 530 23.0217
43.375 579 24.0624
43.4918 585 24.1868
43.6087 485 22.0227
43.7256 582 24.1247
43.8425 596 24.4131
43.9595 576 24
44.0765 573 23.9374
44.1935 547 23.388
44.3106 562 23.7065
44.4277 489 22.1133
44.5448 522 22.8473
44.6619 545 23.3452
44.7791 529 23
44.8963 558 23.622
45.0136 543 23.3024
45.1308 582 24.1247
45.2481 583 24.1454
45.3654 591 24.3105
45.4827 580 24.0832
45.6001 648 25.4558
45.7174 627 25.04
45.8348 610 24.6982
45.9522 637 25.2389
46.0697 579 24.0624
46.1871 523 22.8692
46.3046 535 23.1301
46.422 494 22.2261
46.5395 484 22
46.657 474 21.7715
46.7745 480 21.9089
46.892 555 23.5584
47.0096 584 24.1661
47.1271 562 23.7065
47.2446 584 24.1661
47.3622 560 23.6643
47.4797 546 23.3666
47.5973 555 23.5584
47.7149 557 23.6008
47.8324 538 23.1948
47.95 495 22.2486
48.0675 484 22
48.1851 549 23.4307
48.3027 505 22.4722
48.4202 571 23.8956
48.5378 575 23.9792
48.6554 567 23.8118
48.7729 573 23.9374
48.8904 609 24.6779
49.008 559 23.6432
49.1255 625 25
49.243 535 23.1301
49.3605 624 24.98
49.478 563 23.7276
49.5955 544 23.3238
49.713 495 22.2486
49.8304 509 22.561
49.9479 451 21.2368
50.0653 460 21.4476
50.1827 469 21.6564
50.3001 449 21.1896
50.4175 505 22.4722
50.5348 531 23.0434
50.6521 501 22.383
50.7694 494 22.2261
50.8867 568 23.8328
51.004 546 23.3666
51.1212 522 22.8473
51.2384 510 22.5832
51.3556 510 22.5832
51.4727 488 22.0907
51.5899 468 21.6333
51.707 470 21.6795
51.824 519 22.7816
51.9411 507 22.5167
52.0581 569 23.8537
52.175 550 23.4521
52.2919 513 22.6495
52.4088 519 22.7816
52.5257 566 23.7908
52.6425 573 23.9374
52.7593 516 22.7156
52.876 576 24
52.9927 546 23.3666
53.1094 539 23.2164
53.226 524 22.891
53.3426 505 22.4722
53.4591 482 21.9545
53.5756 438 20.9284
53.692 425 20.6155
53.8084 351 18.735
53.9248 427 20.664
54.0411 404 20.0998
54.1573 351 18.735
54.2735 0 1
54.3896 0 1
54.5057 0 1
54.6217 0 1
54.7377 0 1
54.8537 0 1
54.9695 0 1
55.0853 0 1
55.2011 0 1
55.3168 0 1
55.4324 0 1
57.824 0 1
57.9396 0 1
58.0553 0 1
58.1711 0 1
58.2869 0 1
58.4028 0 1
58.5187 0 1
58.6347 0 1
58.7508 0 1
58.8669 0 1
58.983 477 21.8403
59.0992 637 25.2389
59.2155 740 27.2029
59.3318 755 27.4773
59.4482 889 29.8161
59.5646 934 30.5614
59.681 958 30.9516
59.7975 1024 32
59.9141 1018 31.9061
60.0306 999 31.607
60.1473 1037 32.2025
60.2639 1011 31.7962
60.3807 986 31.4006
60.4974 1030 32.0936
60.6142 996 31.5595
60.731 1050 32.4037
60.8479 1044 32.311
60.9648 1025 32.0156
61.0818 989 31.4484
61.1987 971 31.1609
61.3158 948 30.7896
61.4328 946 30.7571
61.5499 1037 32.2025
61.667 822 28.6705
61.7841 808 28.4253
61.9013 828 28.775
62.0185 826 28.7402
62.1357 751 27.4044
62.253 724 26.9072
62.3702 754 27.4591
62.4875 762 27.6043
62.6049 690 26.2679
62.7222 724 26.9072
62.8396 734 27.0924
62.9569 756 27.4955
63.0743 716 26.7582
63.1918 708 26.6083
63.3092 736 27.1293
63.4267 629 25.0799
63.5441 684 26.1534
63.6616 616 24.8193
63.7791 660 25.6905
63.8966 649 25.4755
64.0142 611 24.7184
64.1317 608 24.6577
64.2492 634 25.1794
64.3668 697 26.4008
64.4843 612 24.7386
64.6019 628 25.0599
64.7195 637 25.2389
64.837 612 24.7386
64.9546 610 24.6982
65.0722 631 25.1197
65.1898 641 25.318
65.3074 608 24.6577
65.4249 612 24.7386
65.5425 598 24.454
65.6601 607 24.6374
65.7777 597 24.4336
65.8952 578 24.0416
66.0128 571 23.8956
66.1304 615 24.7992
66.2479 654 25.5734
66.3655 651 25.5147
66.483 620 24.8998
66.6005 656 25.6125
66.718 609 24.6779
66.8355 590 24.2899
66.953 576 24
67.0705 593 24.3516
67.1879 576 24
67.3054 556 23.5797
67.4228 635 25.1992
67.5402 558 23.622
67.6576 632 25.1396
67.7749 646 25.4165
67.8923 635 25.1992
68.0096 591 24.3105
68.1269 623 24.96
68.2442 607 24.6374
68.3614 653 25.5539
68.4787 585 24.1868
68.5958 612 24.7386
68.713 610 24.6982
68.8302 596 24.4131
68.9473 626 25.02
69.0643 583 24.1454
69.1814 566 23.7908
69.2984 552 23.4947
69.4154 556 23.5797
69.5323 566 23.7908
69.6492 588 24.2487
69.7661 612 24.7386
69.8829 575 23.9792
69.9997 575 23.9792
70.1165 604 24.5764
70.2332 532 23.0651
70.3499 576 24
70.4665 551 23.4734
70.5831 470 21.6795
70.6996 423 20.567
70.8161 438 20.9284
70.9326 404 20.0998
71.049 405 20.1246
71.1653 350 18.7083
71.2817 325 18.0278
71.3979 329 18.1384
71.5141 291 17.0587
71.6303 279 16.7033
71.7464 233 15.2643
71.8624 0 1
71.9784 0 1
72.0944 0 1
72.2102 0 1
72.3261 0 1
72.4418 0 1
72.5575 0 1
72.6732 0 1
75.1054 0 1
75.2209 0 1
75.3365 0 1
75.4521 0 1
75.5678 0 1
75.6835 0 1
75.7993 0 1
75.9151 0 1
76.031 0 1
76.147 334 18.2757
76.263 407 20.1742
76.3791 477 21.8403
76.4952 413 20.3224
76.6113 464 21.5407
76.7276 504 22.4499
76.8438 482 21.9545
76.9601 496 22.2711
77.0765 510 22.5832
77.1929 506 22.4944
77.3093 503 22.4277
77.4258 544 23.3238
77.5423 521 22.8254
77.6589 599 24.4745
77.7755 506 22.4944
77.8921 535 23.1301
78.0088 479 21.8861
78.1256 483 21.9773
78.2423 430 20.7364
78.3591 473 21.7486
78.4759 491 22.1585
78.5928 458 21.4009
78.7097 500 22.3607
78.8266 460 21.4476
78.9436 529 23
79.0606 526 22.9347
79.1776 522 22.8473
79.2946 515 22.6936
79.4117 494 22.2261
79.5288 540 23.2379
79.6459 545 23.3452
79.7631 473 21.7486
79.8802 488 22.0907
79.9974 524 22.891
80.1147 522 22.8473
80.2319 491 22.1585
80.3491 543 23.3024
80.4664 567 23.8118
80.5837 546 23.3666
80.701 499 22.3383
80.8183 544 23.3238
80.9357 513 22.6495
81.053 518 22.7596
81.1704 536 23.1517
81.2877 505 22.4722
81.4051 535 23.1301
81.5225 492 22.1811
81.6399 531 23.0434
81.7573 516 22.7156
81.8747 504 22.4499
81.9922 445 21.095
82.1096 499 22.3383
82.227 438 20.9284
82.3444 461 21.4709
82.4619 543 23.3024
82.5793 479 21.8861
82.6967 516 22.7156
82.8142 500 22.3607
82.9316 520 22.8035
83.049 526 22.9347
83.1664 527 22.9565
83.2838 551 23.4734
83.4012 489 22.1133
83.5186 510 22.5832
83.636 497 22.2935
83.7534 523 22.8692
83.8708 565 23.7697
83.9881 602 24.5357
84.1055 580 24.0832
84.2228 538 23.1948
84.3401 542 23.2809
84.4575 515 22.6936
84.5747 603 24.5561
84.692 547 23.388
84.8093 517 22.7376
84.9265 533 23.0868
85.0437 563 23.7276
85.1609 564 23.7487
85.2781 550 23.4521
85.3952 533 23.0868
85.5123 505 22.4722
85.6294 514 22.6716
85.7465 521 22.8254
85.8636 555 23.5584
85.9806 481 21.9317
86.0976 557 23.6008
86.2145 645 25.3969
86.3315 616 24.8193
86.4484 530 23.0217
86.5652 579 24.0624
86.682 554 23.5372
86.7988 530 23.0217
86.9156 538 23.1948
87.0323 541 23.2594
87.149 520 22.8035
87.2657 543 23.3024
87.3823 551 23.4734
87.4988 549 23.4307
87.6154 522 22.8473
87.7318 541 23.2594
87.8483 477 21.8403
87.9647 452 21.2603
88.081 477 21.8403
88.1973 415 20.3715
88.3136 359 18.9473
88.4298 368 19.1833
88.546 337 18.3576
88.6621 324 18
88.7781 280 16.7332
88.8942 0 1
89.0101 0 1
89.126 0 1
89.2419 0 1
89.3577 0 1
89.4734 0 1
89.5891 0 1
89.7047 0 1
89.8203 0 1
89.9358 0 1
92.3269 0 1
92.4424 0 1
92.558 0 1
92.6736 0 1
92.7893 0 1
92.905 0 1
93.0208 0 1
93.1366 0 1
93.2525 0 1
93.3685 0 1
93.4845 0 1
93.6005 437 20.9045
93.7167 475 21.7945
93.8328 489 22.1133
93.949 520 22.8035
94.0653 552 23.4947
94.1816 529 23
94.2979 522 22.8473
94.4143 563 23.7276
94.5307 537 23.1733
94.6472 518 22.7596
94.7637 530 23.0217
94.8803 501 22.383
94.9969 504 22.4499
95.1135 487 22.0681
95.2302 551 23.4734
95.3469 587 24.2281
95.4637 540 23.2379
95.5805 607 24.6374
95.6973 565 23.7697
95.8142 616 24.8193
95.9311 552 23.4947
96.048 541 23.2594
96.1649 570 23.8747
96.2819 550 23.4521
96.3989 593 24.3516
96.516 540 23.2379
96.633 614 24.779
96.7501 564 23.7487
96.8673 618 24.8596
96.9844 611 24.7184
97.1016 587 24.2281
97.2188 584 24.1661
97.336 533 23.0868
97.4532 585 24.1868
97.5704 564 23.7487
97.6877 584 24.1661
97.805 574 23.9583
97.9223 566 23.7908
98.0396 558 23.622
98.1569 571 23.8956
98.2743 556 23.5797
98.3916 547 23.388
98.509 560 23.6643
98.6264 565 23.7697
98.7438 573 23.9374
98.8612 607 24.6374
98.9786 603 24.5561
99.096 629 25.0799
99.2134 672 25.923
99.3308 666 25.807
99.4482 578 24.0416
99.5656 623 24.96
99.6831 609 24.6779
99.8005 564 23.7487
99.9179 653 25.5539
100.035 648 25.4558
100.153 657 25.632
100.27 620 24.8998
100.388 673 25.9422
100.505 596 24.4131
100.622 597 24.4336
100.74 614 24.779
100.857 611 24.7184
100.975 643 25.3574
101.092 576 24
101.209 675 25.9808
101.327 625 25
101.444 624 24.98
101.561 616 24.8193
101.679 626 25.02
101.796 594 24.3721
101.913 614 24.779
102.03 584 24.1661
102.148 614 24.779
102.265 655 25.593
102.382 586 24.2074
102.499 617 24.8395
102.616 643 25.3574
102.733 701 26.4764
102.851 671 25.9037
102.968 687 26.2107
103.085 647 25.4362
103.202 695 26.3629
103.319 662 25.7294
103.436 658 25.6515
103.552 742 27.2397
103.669 724 26.9072
103.786 650 25.4951
103.903 745 27.2947
104.02 672 25.923
104.137 651 25.5147
104.253 681 26.096
104.37 718 26.7955
104.487 690 26.2679
104.603 675 25.9808
104.72 624 24.98
104.836 677 26.0192
104.953 631 25.1197
105.069 646 25.4165
105.186 593 24.3516
105.302 547 23.388
105.418 528 22.9783
105.535 497 22.2935
105.651 408 20.199
105.767 406 20.1494
105.883 359 18.9473
105.999 331 18.1934
106.115 0 1
106.231 0 1
106.347 0 1
106.463 0 1
106.579 0 1
106.694 0 1
106.81 0 1
106.926 0 1
107.041 0 1
107.157 0 1
109.576 0 1
109.692 0 1
109.807 0 1
109.923 0 1
110.039 0 1
110.155 0 1
110.27 0 1
110.386 0 1
110.502 0 1
110.618 338 18.3848
110.735 360 18.9737
110.851 463 21.5174
110.967 501 22.383
111.083 595 24.3926
111.199 557 23.6008
111.316 596 24.4131
111.432 655 25.593
111.549 648 25.4558
111.665 680 26.0768
111.782 624 24.98
111.898 607 24.6374
112.015 586 24.2074
112.132 570 23.8747
112.248 622 24.9399
112.365 606 24.6171
112.482 649 25.4755
112.599 635 25.1992
112.716 641 25.318
112.832 658 25.6515
112.949 628 25.0599
113.066 580 24.0832
113.183 586 24.2074
113.3 559 23.6432
113.417 618 24.8596
113.534 613 24.7588
113.652 550 23.4521
113.769 610 24.6982
113.886 541 23.2594
114.003 548 23.4094
114.12 559 23.6432
114.238 572 23.9165
114.355 551 23.4734
114.472 568 23.8328
114.589 555 23.5584
114.707 569 23.8537
114.824 593 24.3516
114.942 548 23.4094
115.059 609 24.6779
115.176 596 24.4131
115.294 599 24.4745
115.411 609 24.6779
115.529 536 23.1517
115.646 561 23.6854
115.764 557 23.6008
115.881 600 24.4949
115.999 626 25.02
116.116 599 24.4745
116.234 585 24.1868
116.351 644 25.3772
116.469 528 22.9783
116.586 570 23.8747
116.704 549 23.4307
116.821 536 23.1517
116.939 536 23.1517
117.056 531 23.0434
117.174 536 23.1517
117.291 556 23.5797
117.409 544 23.3238
117.526 566 23.7908
117.644 528 22.9783
117.761 517 22.7376
117.879 538 23.1948
117.996 517 22.7376
118.114 537 23.1733
118.231 537 23.1733
118.349 553 23.516
118.466 540 23.2379
118.584 561 23.6854
118.701 567 23.8118
118.819 613 24.7588
118.936 521 22.8254
119.053 562 23.7065
119.171 539 23.2164
119.288 511 22.6053
119.405 509 22.561
119.523 525 22.9129
119.64 527 22.9565
119.757 533 23.0868
119.875 549 23.4307
119.992 544 23.3238
120.109 480 21.9089
120.226 539 23.2164
120.343 530 23.0217
120.46 533 23.0868
120.578 537 23.1733
120.695 552 23.4947
120.812 517 22.7376
120.929 508 22.5389
121.046 544 23.3238
121.163 495 22.2486
121.279 532 23.0651
121.396 519 22.7816
121.513 479 21.8861
121.63 433 20.8087
121.747 468 21.6333
121.863 453 21.2838
121.98 437 20.9045
122.097 450 21.2132
122.213 486 22.0454
122.33 443 21.0476
122.446 407 20.1742
122.563 367 19.1572
122.679 363 19.0526
122.795 329 18.1384
122.912 323 17.9722
123.028 304 17.4356
123.144 315 17.7482
123.26 284 16.8523
123.377 0 1
123.493 0 1
123.609 0 1
123.725 0 1
123.84 0 1
123.956 0 1
124.072 0 1
124.188 0 1
124.303 0 1
124.419 0 1
126.852 0 1
126.968 0 1
127.083 0 1
127.199 0 1
127.315 0 1
127.431 0 1
127.547 0 1
127.663 0 1
127.779 0 1
127.895 0 1
128.011 0 1
128.127 0 1
128.243 0 1
128.359 572 23.9165
128.476 499 22.3383
128.592 580 24.0832
128.708 604 24.5764
128.825 604 24.5764
128.941 609 24.6779
129.058 561 23.6854
129.174 599 24.4745
129.291 576 24
129.408 569 23.8537
129.524 557 23.6008
129.641 557 23.6008
129.758 588 24.2487
129.875 590 24.2899
129.992 623 24.96
130.108 614 24.779
130.225 619 24.8797
130.342 602 24.5357
130.459 585 24.1868
130.576 607 24.6374
130.693 591 24.3105
130.81 624 24.98
130.928 600 24.4949
131.045 591 24.3105
131.162 683 26.1343
131.279 696 26.3818
131.396 810 28.4605
131.513 765 27.6586
131.631 777 27.8747
131.748 791 28.1247
131.865 803 28.3373
131.983 819 28.6182
132.1 878 29.6311
132.217 853 29.2062
132.335 868 29.4618
132.452 932 30.5287
132.57 979 31.289
132.687 1048 32.3728
132.804 1069 32.6956
132.922 1065 32.6343
133.039 1062 32.5883
133.157 1123 33.5112
133.274 1066 32.6497
133.392 1130 33.6155
133.509 1132 33.6452
133.627 1067 32.665
133.744 1095 33.0908
133.862 1075 32.7872
133.979 1022 31.9687
134.097 1045 32.3265
134.214 1054 32.4654
134.332 1025 32.0156
134.449 1022 31.9687
134.567 1018 31.9061
134.684 1058 32.5269
134.802 1062 32.5883
134.919 1101 33.1813
135.037 1131 33.6303
135.154 1120 33.4664
135.272 1121 33.4813
135.389 1045 32.3265
135.507 950 30.8221
135.624 980 31.305
135.742 989 31.4484
135.859 1064 32.619
135.977 1082 32.8938
136.094 1107 33.2716
136.211 1153 33.9559
136.329 1152 33.9411
136.446 1143 33.8083
136.564 1092 33.0454
136.681 1109 33.3017
136.798 1086 32.9545
136.915 1153 33.9559
137.033 1166 34.1467
137.15 1156 34
137.267 1157 34.0147
137.384 1129 33.6006
137.502 1181 34.3657
137.619 977 31.257
137.736 998 31.5911
137.853 1064 32.619
137.97 1024 32
138.087 1032 32.1248
138.204 989 31.4484
138.321 1077 32.8177
138.438 1053 32.45
138.555 1172 34.2345
138.672 1161 34.0735
138.788 1274 35.6931
138.905 1209 34.7707
139.022 1076 32.8024
139.139 958 30.9516
139.255 964 31.0483
139.372 906 30.0998
139.488 949 30.8058
139.605 860 29.3258
139.721 923 30.3809
139.838 872 29.5296
139.954 826 28.7402
140.071 728 26.9815
140.187 729 27
140.303 723 26.8887
140.419 635 25.1992
140.535 627 25.04
140.652 642 25.3377
140.768 0 1
140.884 0 1
141 0 1
141.115 0 1
141.231 0 1
141.347 0 1
141.463 0 1
141.578 0 1
141.694 0 1
144.104 0 1
144.219 0 1
144.335 0 1
144.45 0 1
144.566 0 1
144.682 0 1
144.798 0 1
144.914 0 1
145.03 0 1
145.146 1305 36.1248
145.262 1359 36.8646
145.378 1473 38.3797
145.494 1470 38.3406
145.61 1530 39.1152
145.726 1595 39.9375
145.842 1638 40.4722
145.959 1723 41.509
146.075 1732 41.6173
146.192 1753 41.8688
146.308 1724 41.5211
146.425 1747 41.7971
146.541 1772 42.0951
146.658 1806 42.4971
146.774 1893 43.5086
146.891 1868 43.2204
147.008 1904 43.6348
147.125 1675 40.9268
147.241 1734 41.6413
147.358 1894 43.5201
147.475 2015 44.8888
147.592 2104 45.8694
147.709 2106 45.8912
147.826 2098 45.8039
147.943 2029 45.0444
148.06 2003 44.7549
148.177 1973 44.4185
148.294 2049 45.2659
148.411 2062 45.4093
148.528 2060 45.3872
148.645 2132 46.1736
148.762 2104 45.8694
148.88 2057 45.3542
148.997 2122 46.0652
149.114 2132 46.1736
149.231 2042 45.1885
149.349 2108 45.913
149.466 2072 45.5192
149.583 2082 45.6289
149.701 1979 44.486
149.818 1984 44.5421
149.935 2015 44.8888
150.053 1859 43.1161
150.17 1905 43.6463
150.287 1772 42.0951
150.405 1772 42.0951
150.522 1798 42.4028
150.64 1869 43.2319
150.757 1714 41.4005
150.875 1726 41.5452
150.992 1675 40.9268
151.11 1783 42.2256
151.227 1821 42.6732
151.344 1913 43.7379
151.462 1828 42.7551
151.579 1710 41.3521
151.697 1691 41.1218
151.814 1702 41.2553
151.932 1710 41.3521
152.049 1758 41.9285
152.167 1734 41.6413
152.284 1712 41.3763
152.402 1839 42.8836
152.519 1757 41.9166
152.636 1769 42.0595
152.754 1715 41.4126
152.871 1711 41.3642
152.989 1740 41.7133
153.106 1706 41.3038
153.223 1653 40.6571
153.341 1698 41.2068
153.458 1627 40.3361
153.575 1537 39.2046
153.693 1527 39.0768
153.81 1471 38.3536
153.927 1456 38.1576
154.044 1529 39.1024
154.162 1550 39.37
154.279 1471 38.3536
154.396 1396 37.3631
154.513 1459 38.1969
154.63 1595 39.9375
154.747 1643 40.5339
154.864 1773 42.107
154.981 1630 40.3733
155.098 1651 40.6325
155.215 1584 39.7995
155.332 1579 39.7366
155.449 1674 40.9145
155.566 1638 40.4722
155.683 1663 40.7799
155.8 1634 40.4228
155.917 1692 41.1339
156.033 1619 40.2368
156.15 0 1
156.267 0 1
156.383 0 1
156.5 0 1
156.617 0 1
156.733 0 1
156.85 0 1
156.966 0 1
157.082 0 1
157.199 0 1
157.315 0 1
157.431 0 1
157.547 0 1
157.664 0 1
157.78 0 1
157.896 0 1
158.012 0 1
158.128 0 1
158.244 0 1
158.359 0 1
158.475 0 1
158.591 0 1
158.706 0 1
