
6.15755 0 1
6.2731 0 1
6.3887 0 1
6.50437 0 1
6.62009 0 1
6.73587 0 1
6.8517 0 1
6.96759 0 1
7.08353 0 1
7.19952 0 1
7.31557 0 1
7.43166 0 1
7.54781 0 1
7.664 0 1
7.78024 0 1
7.89653 0 1
8.01286 0 1
8.12924 0 1
8.24567 0 1
8.36213 0 1
8.47864 0 1
8.59519 0 1
8.71178 0 1
8.82841 0 1
8.94508 0 1
9.06179 0 1
9.17853 0 1
9.29531 0 1
9.41212 0 1
9.52897 0 1
9.64584 0 1
9.76276 0 1
9.8797 0 1
9.99667 0 1
10.1137 0 1
10.2307 0 1
10.3478 0 1
10.4648 0 1
10.5819 0 1
10.6991 0 1
10.8162 0 1
10.9334 0 1
11.0506 0 1
11.1678 0 1
11.285 0 1
11.4023 0 1
11.5196 0 1
11.6369 0 1
11.7542 0 1
11.8715 0 1
11.9888 0 1
12.1062 0 1
12.2235 0 1
12.3409 0 1
12.4582 0 1
12.5756 0 1
12.693 0 1
12.8104 0 1
12.9278 0 1
13.0452 0 1
13.1626 0 1
13.28 0 1
13.3974 0 1
13.5149 0 1
13.6323 0 1
13.7497 0 1
13.8671 0 1
13.9845 0 1
14.1019 0 1
14.2193 0 1
14.3367 0 1
14.4541 0 1
14.5714 0 1
14.6888 0 1
14.8062 0 1
14.9235 0 1
15.0408 3262 57.1139
15.1581 3565 59.7076
15.2755 3464 58.8558
15.3927 3566 59.716
15.51 3502 59.1777
15.6273 3394 58.258
15.7445 3291 57.3672
15.8617 3198 56.5509
15.9789 3212 56.6745
16.0961 3022 54.9727
16.2132 3049 55.2178
16.3304 3066 55.3715
16.4475 2977 54.5619
16.5646 2938 54.2033
16.6816 2932 54.1479
16.7986 2764 52.5738
16.9156 2735 52.2972
17.0326 2621 51.1957
17.1496 2725 52.2015
17.2665 2615 51.1371
17.3833 2653 51.5073
17.5002 2666 51.6333
17.617 2599 50.9804
17.7338 2569 50.6853
17.8505 2580 50.7937
17.9672 2651 51.4879
18.0839 2732 52.2685
18.2005 2598 50.9706
18.3171 2686 51.8266
18.4337 2588 50.8724
18.5502 2499 49.99
18.6666 2577 50.7642
18.7831 2545 50.448
18.8994 2622 51.2055
19.0158 2460 49.5984
19.1321 2577 50.7642
19.2483 2390 48.8876
19.3645 2337 48.3425
19.4806 2257 47.5079
19.5967 2105 45.8803
19.7128 2071 45.5082
19.8288 1856 43.0813
19.9447 1692 41.1339
20.0606 0 1
20.1764 0 1
20.2922 0 1
20.4079 0 1
20.5236 0 1
20.6392 0 1
20.7548 0 1
20.8702 0 1
23.3078 0 1
23.4233 0 1
23.539 0 1
23.6547 0 1
23.7704 0 1
23.8862 0 1
24.0021 0 1
24.118 0 1
24.234 0 1
24.35 0 1
24.4661 1183 34.3948
24.5822 1320 36.3318
24.6984 1556 39.4462
24.8146 1698 41.2068
24.9309 1994 44.6542
25.0472 2319 48.156
25.1636 2408 49.0714
25.28 2680 51.7687
25.3965 2779 52.7162
25.513 2806 52.9717
25.6296 2872 53.591
25.7462 2843 53.3198
25.8628 2792 52.8394
25.9795 2910 53.9444
26.0962 2715 52.1057
26.213 2524 50.2394
26.3298 2386 48.8467
26.4466 2425 49.2443
26.5635 2378 48.7647
26.6804 2400 48.9898
26.7973 2321 48.1768
26.9143 2403 49.0204
27.0313 2196 46.8615
27.1483 2077 45.5741
27.2653 2284 47.7912
27.3824 2428 49.2747
27.4996 2486 49.8598
27.6167 2311 48.0729
27.7339 2392 48.9081
27.8511 2460 49.5984
27.9683 2426 49.2544
28.0855 2548 50.4777
28.2028 2511 50.1099
28.3201 2521 50.2096
28.4374 2560 50.5964
28.5547 2586 50.8527
28.6721 2541 50.4083
28.7894 2650 51.4782
28.9068 2530 50.2991
29.0242 2411 49.1019
29.1416 2481 49.8096
29.259 2376 48.7442
29.3764 2302 47.9792
29.4939 2278 47.7284
29.6113 2160 46.4758
29.7288 2172 46.6047
29.8463 2189 46.7868
29.9638 2086 45.6727
30.0812 2130 46.1519
30.1987 2297 47.927
30.3162 2269 47.634
30.4337 2214 47.0532
30.5512 2146 46.3249
30.6687 2139 46.2493
30.7862 2256 47.4974
30.9037 2423 49.224
31.0212 2523 50.2295
31.1387 2421 49.2037
31.2562 2442 49.4166
31.3737 2413 49.1223
31.4912 2448 49.4773
31.6087 2382 48.8057
31.7262 2444 49.4368
31.8436 2440 49.3964
31.9611 2418 49.1732
32.0785 2340 48.3735
32.1959 2399 48.9796
32.3134 2267 47.613
32.4308 2328 48.2494
32.5482 2248 47.4131
32.6655 2235 47.2758
32.7829 2108 45.913
32.9002 2097 45.793
33.0176 2062 45.4093
33.1349 1934 43.9773
33.2522 1964 44.317
33.3694 1931 43.9431
33.4867 1906 43.6578
33.6039 1970 44.3847
33.7211 1980 44.4972
33.8383 2119 46.0326
33.9554 2160 46.4758
34.0725 2114 45.9783
34.1896 2057 45.3542
34.3067 2028 45.0333
34.4237 2104 45.8694
34.5407 2203 46.9361
34.6577 2205 46.9574
34.7746 2212 47.0319
34.8915 2089 45.7056
35.0084 2105 45.8803
35.1252 2166 46.5403
35.242 2144 46.3033
35.3587 2119 46.0326
35.4755 2082 45.6289
35.5921 2147 46.3357
35.7088 2084 45.6508
35.8254 2101 45.8367
35.9419 2175 46.6369
36.0584 2032 45.0777
36.1749 2022 44.9667
36.2913 1967 44.3509
36.4077 1942 44.0681
36.524 1783 42.2256
36.6403 1680 40.9878
36.7565 1564 39.5474
36.8727 1509 38.8458
36.9889 1354 36.7967
37.1049 1215 34.8569
37.221 0 1
37.3369 0 1
37.4529 0 1
37.5687 0 1
37.6845 0 1
37.8003 0 1
37.916 0 1
38.0316 0 1
38.1472 0 1
40.5851 0 1
40.7008 0 1
40.8164 0 1
40.9322 0 1
41.048 0 1
41.1639 0 1
41.2798 0 1
41.3958 0 1
41.5118 0 1
41.6279 0 1
41.744 935 30.5778
41.8602 1050 32.4037
41.9765 1166 34.1467
42.0928 1278 35.7491
42.2091 1378 37.1214
42.3255 1545 39.3065
42.4419 1500 38.7298
42.5584 1655 40.6817
42.675 1606 40.0749
42.7915 1732 41.6173
42.9081 1703 41.2674
43.0248 1576 39.6989
43.1415 1601 40.0125
43.2582 1645 40.5586
43.375 1606 40.0749
43.4918 1727 41.5572
43.6087 1718 41.4488
43.7256 1559 39.4842
43.8425 1516 38.9358
43.9595 1563 39.5348
44.0765 1674 40.9145
44.1935 1646 40.5709
44.3106 1670 40.8656
44.4277 1687 41.0731
44.5448 1652 40.6448
44.6619 1690 41.1096
44.7791 1789 42.2966
44.8963 1744 41.7612
45.0136 1691 41.1218
45.1308 1743 41.7493
45.2481 1753 41.8688
45.3654 1741 41.7253
45.4827 1721 41.4849
45.6001 1698 41.2068
45.7174 1616 40.1995
45.8348 1651 40.6325
45.9522 1611 40.1373
46.0697 1647 40.5832
46.1871 1658 40.7185
46.3046 1708 41.328
46.422 1690 41.1096
46.5395 1649 40.6079
46.657 1682 41.0122
46.7745 1684 41.0366
46.892 1694 41.1582
47.0096 1668 40.8412
47.1271 1781 42.2019
47.2446 1806 42.4971
47.3622 1687 41.0731
47.4797 1590 39.8748
47.5973 1651 40.6325
47.7149 1680 40.9878
47.8324 1724 41.5211
47.95 1683 41.0244
48.0675 1706 41.3038
48.1851 1727 41.5572
48.3027 1784 42.2374
48.4202 1767 42.0357
48.5378 1698 41.2068
48.6554 1804 42.4735
48.7729 1826 42.7317
48.8904 1705 41.2916
49.008 1686 41.0609
49.1255 1614 40.1746
49.243 1563 39.5348
49.3605 1577 39.7115
49.478 1499 38.7169
49.5955 1466 38.2884
49.713 1538 39.2173
49.8304 1548 39.3446
49.9479 1574 39.6737
50.0653 1557 39.4588
50.1827 1575 39.6863
50.3001 1597 39.9625
50.4175 1527 39.0768
50.5348 1516 38.9358
50.6521 1627 40.3361
50.7694 1627 40.3361
50.8867 1538 39.2173
51.004 1407 37.51
51.1212 1486 38.5487
51.2384 1607 40.0874
51.3556 1626 40.3237
51.4727 1703 41.2674
51.5899 1604 40.05
51.707 1581 39.7618
51.824 1694 41.1582
51.9411 1717 41.4367
52.0581 1618 40.2244
52.175 1615 40.1871
52.2919 1637 40.4599
52.4088 1679 40.9756
52.5257 1694 41.1582
52.6425 1649 40.6079
52.7593 1593 39.9124
52.876 1509 38.8458
52.9927 1492 38.6264
53.1094 1414 37.6032
53.226 1435 37.8814
53.3426 1481 38.4838
53.4591 1588 39.8497
53.5756 1649 40.6079
53.692 1968 44.3621
53.8084 2016 44.8999
53.9248 2287 47.8226
54.0411 2790 52.8205
54.1573 3264 57.1314
54.2735 0 1
54.3896 0 1
54.5057 0 1
54.6217 0 1
54.7377 0 1
54.8537 0 1
54.9695 0 1
55.0853 0 1
55.2011 0 1
55.3168 0 1
55.4324 0 1
57.824 0 1
57.9396 0 1
58.0553 0 1
58.1711 0 1
58.2869 0 1
58.4028 0 1
58.5187 0 1
58.6347 0 1
58.7508 0 1
58.8669 0 1
58.983 4885 69.8928
59.0992 5028 70.9084
59.2155 4827 69.4766
59.3318 4584 67.7052
59.4482 4508 67.1416
59.5646 4713 68.6513
59.681 4390 66.2571
59.7975 4308 65.6354
59.9141 3878 62.2736
60.0306 3784 61.5142
60.1473 3679 60.6548
60.2639 3717 60.9672
60.3807 3576 59.7997
60.4974 3611 60.0916
60.6142 3593 59.9416
60.731 3686 60.7124
60.8479 3466 58.8727
60.9648 3586 59.8832
61.0818 3335 57.7495
61.1987 3359 57.9569
61.3158 3162 56.2317
61.4328 3024 54.9909
61.5499 2919 54.0278
61.667 2771 52.6403
61.7841 2730 52.2494
61.9013 2724 52.192
62.0185 2849 53.376
62.1357 2835 53.2447
62.253 3034 55.0818
62.3702 2988 54.6626
62.4875 2954 54.3507
62.6049 2945 54.2679
62.7222 2737 52.3163
62.8396 2803 52.9434
62.9569 2745 52.3927
63.0743 2681 51.7784
63.1918 2518 50.1797
63.3092 2487 49.8698
63.4267 2352 48.4974
63.5441 2523 50.2295
63.6616 2341 48.3839
63.7791 2426 49.2544
63.8966 2487 49.8698
64.0142 2423 49.224
64.1317 2342 48.3942
64.2492 2344 48.4149
64.3668 2247 47.4025
64.4843 2187 46.7654
64.6019 2085 45.6618
64.7195 1993 44.643
64.837 2064 45.4313
64.9546 1887 43.4396
65.0722 1908 43.6807
65.1898 1747 41.7971
65.3074 1763 41.9881
65.4249 1735 41.6533
65.5425 1767 42.0357
65.6601 1879 43.3474
65.7777 1981 44.5084
65.8952 1993 44.643
66.0128 1950 44.1588
66.1304 1985 44.5533
66.2479 2060 45.3872
66.3655 1946 44.1135
66.483 2018 44.9222
66.6005 1982 44.5197
66.718 1937 44.0114
66.8355 1870 43.2435
66.953 1891 43.4856
67.0705 1956 44.2267
67.1879 1938 44.0227
67.3054 2062 45.4093
67.4228 1984 44.5421
67.5402 2125 46.0977
67.6576 2044 45.2106
67.7749 2016 44.8999
67.8923 2012 44.8553
68.0096 2007 44.7996
68.1269 1977 44.4635
68.2442 1999 44.7102
68.3614 1969 44.3734
68.4787 1983 44.5309
68.5958 1854 43.0581
68.713 1761 41.9643
68.8302 1750 41.833
68.9473 1726 41.5452
69.0643 1754 41.8808
69.1814 1794 42.3556
69.2984 1933 43.9659
69.4154 1952 44.1814
69.5323 1964 44.317
69.6492 1936 44
69.7661 2007 44.7996
69.8829 1903 43.6234
69.9997 1907 43.6692
70.1165 1905 43.6463
70.2332 1781 42.2019
70.3499 1774 42.1189
70.4665 1581 39.7618
70.5831 1560 39.4968
70.6996 1391 37.2961
70.8161 1392 37.3095
70.9326 1310 36.1939
71.049 1267 35.5949
71.1653 1180 34.3511
71.2817 1129 33.6006
71.3979 1045 32.3265
71.5141 976 31.241
71.6303 938 30.6268
71.7464 747 27.3313
71.8624 0 1
71.9784 0 1
72.0944 0 1
72.2102 0 1
72.3261 0 1
72.4418 0 1
72.5575 0 1
72.6732 0 1
75.1054 0 1
75.2209 0 1
75.3365 0 1
75.4521 0 1
75.5678 0 1
75.6835 0 1
75.7993 0 1
75.9151 0 1
76.031 0 1
76.147 1103 33.2114
76.263 1304 36.1109
76.3791 1432 37.8418
76.4952 1589 39.8623
76.6113 1707 41.3159
76.7276 1690 41.1096
76.8438 1642 40.5216
76.9601 1664 40.7922
77.0765 1678 40.9634
77.1929 1670 40.8656
77.3093 1648 40.5956
77.4258 1629 40.3609
77.5423 1647 40.5832
77.6589 1617 40.2119
77.7755 1541 39.2556
77.8921 1519 38.9744
78.0088 1444 38
78.1256 1507 38.8201
78.2423 1471 38.3536
78.3591 1492 38.6264
78.4759 1640 40.4969
78.5928 1577 39.7115
78.7097 1659 40.7308
78.8266 1615 40.1871
78.9436 1656 40.694
79.0606 1609 40.1123
79.1776 1569 39.6106
79.2946 1696 41.1825
79.4117 1672 40.8901
79.5288 1684 41.0366
79.6459 1594 39.9249
79.7631 1636 40.4475
79.8802 1605 40.0625
79.9974 1667 40.8289
80.1147 1774 42.1189
80.2319 1712 41.3763
80.3491 1725 41.5331
80.4664 1789 42.2966
80.5837 1702 41.2553
80.701 1699 41.2189
80.8183 1685 41.0488
80.9357 1726 41.5452
81.053 1592 39.8999
81.1704 1654 40.6694
81.2877 1693 41.1461
81.4051 1741 41.7253
81.5225 1628 40.3485
81.6399 1625 40.3113
81.7573 1559 39.4842
81.8747 1489 38.5876
81.9922 1576 39.6989
82.1096 1596 39.95
82.227 1724 41.5211
82.3444 1678 40.9634
82.4619 1757 41.9166
82.5793 1673 40.9023
82.6967 1628 40.3485
82.8142 1762 41.9762
82.9316 1836 42.8486
83.049 1794 42.3556
83.1664 1759 41.9404
83.2838 1685 41.0488
83.4012 1605 40.0625
83.5186 1644 40.5463
83.636 1673 40.9023
83.7534 1800 42.4264
83.8708 1828 42.7551
83.9881 1860 43.1277
84.1055 1864 43.1741
84.2228 1800 42.4264
84.3401 1755 41.8927
84.4575 1621 40.2616
84.5747 1710 41.3521
84.692 1734 41.6413
84.8093 1761 41.9643
84.9265 1721 41.4849
85.0437 1765 42.0119
85.1609 1641 40.5093
85.2781 1590 39.8748
85.3952 1546 39.3192
85.5123 1512 38.8844
85.6294 1549 39.3573
85.7465 1579 39.7366
85.8636 1832 42.8019
85.9806 1716 41.4246
86.0976 1812 42.5676
86.2145 1838 42.8719
86.3315 1728 41.5692
86.4484 1795 42.3674
86.5652 1835 42.8369
86.682 1788 42.2847
86.7988 1803 42.4617
86.9156 1712 41.3763
87.0323 1741 41.7253
87.149 1692 41.1339
87.2657 1685 41.0488
87.3823 1724 41.5211
87.4988 1785 42.2493
87.6154 1668 40.8412
87.7318 1641 40.5093
87.8483 1561 39.5095
87.9647 1511 38.8716
88.081 1306 36.1386
88.1973 1305 36.1248
88.3136 1160 34.0588
88.4298 1075 32.7872
88.546 1048 32.3728
88.6621 985 31.3847
88.7781 886 29.7658
88.8942 0 1
89.0101 0 1
89.126 0 1
89.2419 0 1
89.3577 0 1
89.4734 0 1
89.5891 0 1
89.7047 0 1
89.8203 0 1
89.9358 0 1
92.3269 0 1
92.4424 0 1
92.558 0 1
92.6736 0 1
92.7893 0 1
92.905 0 1
93.0208 0 1
93.1366 0 1
93.2525 0 1
93.3685 0 1
93.4845 0 1
93.6005 1448 38.0526
93.7167 1524 39.0384
93.8328 1507 38.8201
93.949 1613 40.1622
94.0653 1779 42.1782
94.1816 1742 41.7373
94.2979 1719 41.4608
94.4143 1665 40.8044
94.5307 1655 40.6817
94.6472 1626 40.3237
94.7637 1655 40.6817
94.8803 1630 40.3733
94.9969 1685 41.0488
95.1135 1837 42.8602
95.2302 1776 42.1426
95.3469 1752 41.8569
95.4637 1781 42.2019
95.5805 1774 42.1189
95.6973 1865 43.1856
95.8142 1797 42.391
95.9311 1864 43.1741
96.048 1799 42.4146
96.1649 1820 42.6615
96.2819 1709 41.3401
96.3989 1750 41.833
96.516 1792 42.332
96.633 1796 42.3792
96.7501 1884 43.4051
96.8673 1900 43.589
96.9844 1770 42.0714
97.1016 1854 43.0581
97.2188 1782 42.2137
97.336 1733 41.6293
97.4532 1837 42.8602
97.5704 1747 41.7971
97.6877 1859 43.1161
97.805 1755 41.8927
97.9223 1789 42.2966
98.0396 1751 41.845
98.1569 1609 40.1123
98.2743 1675 40.9268
98.3916 1677 40.9512
98.509 1745 41.7732
98.6264 1767 42.0357
98.7438 1704 41.2795
98.8612 1868 43.2204
98.9786 1833 42.8135
99.096 1872 43.2666
99.2134 1941 44.0568
99.3308 1967 44.3509
99.4482 1907 43.6692
99.5656 1954 44.2041
99.6831 1906 43.6578
99.8005 1935 43.9886
99.9179 1919 43.8064
100.035 1916 43.7721
100.153 1946 44.1135
100.27 1993 44.643
100.388 1933 43.9659
100.505 1978 44.4747
100.622 1955 44.2154
100.74 1914 43.7493
100.857 1843 42.9302
100.975 1848 42.9884
101.092 1832 42.8019
101.209 1901 43.6005
101.327 1841 42.9069
101.444 1969 44.3734
101.561 1896 43.5431
101.679 1943 44.0795
101.796 1885 43.4166
101.913 1828 42.7551
102.03 1848 42.9884
102.148 1901 43.6005
102.265 1919 43.8064
102.382 1902 43.6119
102.499 1967 44.3509
102.616 2048 45.2548
102.733 2038 45.1442
102.851 2124 46.0869
102.968 2096 45.7821
103.085 2148 46.3465
103.202 2005 44.7772
103.319 1945 44.1022
103.436 1991 44.6206
103.552 1912 43.7264
103.669 2004 44.7661
103.786 1996 44.6766
103.903 2093 45.7493
104.02 2141 46.2709
104.137 2086 45.6727
104.253 2103 45.8585
104.37 1962 44.2945
104.487 2040 45.1664
104.603 1935 43.9886
104.72 2049 45.2659
104.836 1966 44.3396
104.953 1897 43.5546
105.069 1836 42.8486
105.186 1723 41.509
105.302 1716 41.4246
105.418 1490 38.6005
105.535 1456 38.1576
105.651 1369 37
105.767 1259 35.4824
105.883 1187 34.4529
105.999 1021 31.9531
106.115 0 1
106.231 0 1
106.347 0 1
106.463 0 1
106.579 0 1
106.694 0 1
106.81 0 1
106.926 0 1
107.041 0 1
107.157 0 1
109.576 0 1
109.692 0 1
109.807 0 1
109.923 0 1
110.039 0 1
110.155 0 1
110.27 0 1
110.386 0 1
110.502 0 1
110.618 981 31.3209
110.735 1101 33.1813
110.851 1267 35.5949
110.967 1368 36.9865
111.083 1468 38.3145
111.199 1685 41.0488
111.316 1745 41.7732
111.432 1933 43.9659
111.549 2030 45.0555
111.665 1900 43.589
111.782 1922 43.8406
111.898 1843 42.9302
112.015 1815 42.6028
112.132 1807 42.5088
112.248 1720 41.4729
112.365 1847 42.9767
112.482 1884 43.4051
112.599 1925 43.8748
112.716 1989 44.5982
112.832 1897 43.5546
112.949 1971 44.3959
113.066 1877 43.3244
113.183 1853 43.0465
113.3 1936 44
113.417 1828 42.7551
113.534 1881 43.3705
113.652 1986 44.5646
113.769 1846 42.9651
113.886 1925 43.8748
114.003 1868 43.2204
114.12 1845 42.9535
114.238 1783 42.2256
114.355 1689 41.0974
114.472 1631 40.3856
114.589 1524 39.0384
114.707 1604 40.05
114.824 1864 43.1741
114.942 1908 43.6807
115.059 1900 43.589
115.176 1914 43.7493
115.294 1799 42.4146
115.411 1753 41.8688
115.529 1760 41.9524
115.646 1721 41.4849
115.764 1680 40.9878
115.881 1710 41.3521
115.999 1700 41.2311
116.116 1750 41.833
116.234 1663 40.7799
116.351 1782 42.2137
116.469 1683 41.0244
116.586 1620 40.2492
116.704 1586 39.8246
116.821 1579 39.7366
116.939 1615 40.1871
117.056 1653 40.6571
117.174 1673 40.9023
117.291 1675 40.9268
117.409 1774 42.1189
117.526 1737 41.6773
117.644 1615 40.1871
117.761 1642 40.5216
117.879 1458 38.1838
117.996 1399 37.4032
118.114 1373 37.054
118.231 1448 38.0526
118.349 1554 39.4208
118.466 1533 39.1535
118.584 1670 40.8656
118.701 1651 40.6325
118.819 1592 39.8999
118.936 1562 39.5221
119.053 1583 39.7869
119.171 1478 38.4448
119.288 1524 39.0384
119.405 1543 39.281
119.523 1477 38.4318
119.64 1477 38.4318
119.757 1533 39.1535
119.875 1607 40.0874
119.992 1598 39.975
120.109 1514 38.9102
120.226 1462 38.2361
120.343 1469 38.3275
120.46 1466 38.2884
120.578 1544 39.2938
120.695 1473 38.3797
120.812 1519 38.9744
120.929 1519 38.9744
121.046 1646 40.5709
121.163 1565 39.5601
121.279 1415 37.6165
121.396 1470 38.3406
121.513 1447 38.0395
121.63 1322 36.3593
121.747 1248 35.327
121.863 1170 34.2053
121.98 1251 35.3695
122.097 1306 36.1386
122.213 1344 36.6606
122.33 1278 35.7491
122.446 1196 34.5832
122.563 1195 34.5688
122.679 1081 32.8786
122.795 966 31.0805
122.912 890 29.8329
123.028 885 29.7489
123.144 828 28.775
123.26 835 28.8964
123.377 0 1
123.493 0 1
123.609 0 1
123.725 0 1
123.84 0 1
123.956 0 1
124.072 0 1
124.188 0 1
124.303 0 1
124.419 0 1
126.852 0 1
126.968 0 1
127.083 0 1
127.199 0 1
127.315 0 1
127.431 0 1
127.547 0 1
127.663 0 1
127.779 0 1
127.895 0 1
128.011 0 1
128.127 0 1
128.243 0 1
128.359 1532 39.1408
128.476 1504 38.7814
128.592 1553 39.4081
128.708 1591 39.8873
128.825 1595 39.9375
128.941 1585 39.8121
129.058 1616 40.1995
129.174 1673 40.9023
129.291 1648 40.5956
129.408 1767 42.0357
129.524 1657 40.7063
129.641 1777 42.1545
129.758 1790 42.3084
129.875 1924 43.8634
129.992 1906 43.6578
130.108 1973 44.4185
130.225 2070 45.4973
130.342 2058 45.3652
130.459 2216 47.0744
130.576 2303 47.9896
130.693 2285 47.8017
130.81 2615 51.1371
130.928 3523 59.3549
131.045 4907 70.05
131.162 6571 81.0617
131.279 8144 90.2441
131.396 9250 96.1769
131.513 10352 101.745
131.631 11622 107.805
131.748 12700 112.694
131.865 14826 121.762
131.983 17005 130.403
132.1 19560 139.857
132.217 22923 151.403
132.335 27427 165.611
132.452 32607 180.574
132.57 39163 197.896
132.687 45243 212.704
132.804 52803 229.789
132.922 58889 242.671
133.039 66669 258.203
133.157 74961 273.79
133.274 84713 291.055
133.392 96747 311.042
133.509 110548 332.488
133.627 126249 355.315
133.744 141541 376.219
133.862 157060 396.308
133.979 169618 411.847
134.097 177280 421.046
134.214 177430 421.224
134.332 171040 413.57
134.449 164609 405.72
134.567 167690 409.5
134.684 180036 424.306
134.802 200209 447.447
134.919 221062 470.172
135.037 239404 489.289
135.154 248410 498.407
135.272 255978 505.943
135.389 258595 508.522
135.507 261377 511.25
135.624 259946 509.849
135.742 257526 507.47
135.859 254908 504.884
135.977 252999 502.99
136.094 250398 500.398
136.211 247259 497.251
136.329 243666 493.625
136.446 239301 489.184
136.564 231349 480.988
136.681 225480 474.847
136.798 212166 460.615
136.915 202549 450.054
137.033 189806 435.667
137.15 177714 421.561
137.267 166150 407.615
137.384 154692 393.309
137.502 144960 380.736
137.619 134462 366.691
137.736 125772 354.643
137.853 114546 338.446
137.97 107264 327.512
138.087 96690 310.95
138.204 90177 300.295
138.321 85190 291.873
138.438 81827 286.054
138.555 80246 283.277
138.672 75767 275.258
138.788 72267 268.825
138.905 70012 264.598
139.022 68323 261.387
139.139 64983 254.918
139.255 59967 244.882
139.372 55532 235.652
139.488 52271 228.629
139.605 47710 218.426
139.721 42768 206.804
139.838 39526 198.811
139.954 37734 194.252
140.071 34760 186.44
140.187 33226 182.28
140.303 30876 175.716
140.419 28468 168.725
140.535 27268 165.13
140.652 25162 158.625
140.768 0 1
140.884 0 1
141 0 1
141.115 0 1
141.231 0 1
141.347 0 1
141.463 0 1
141.578 0 1
141.694 0 1
144.104 0 1
144.219 0 1
144.335 0 1
144.45 0 1
144.566 0 1
144.682 0 1
144.798 0 1
144.914 0 1
145.03 0 1
145.146 9468 97.3036
145.262 9706 98.519
145.378 9519 97.5654
145.494 9195 95.8906
145.61 8966 94.689
145.726 8728 93.4238
145.842 8789 93.7497
145.959 8552 92.477
146.075 8415 91.7333
146.192 8409 91.7006
146.308 8033 89.627
146.425 7240 85.0882
146.541 6478 80.486
146.658 6087 78.0192
146.774 5592 74.7797
146.891 5997 77.4403
147.008 6661 81.6149
147.125 6849 82.7587
147.241 7070 84.0833
147.358 7041 83.9107
147.475 6977 83.5284
147.592 6817 82.5651
147.709 6661 81.6149
147.826 6461 80.3803
147.943 6493 80.5792
148.06 6475 80.4674
148.177 6498 80.6102
148.294 6528 80.796
148.411 6552 80.9444
148.528 6554 80.9568
148.645 6616 81.3388
148.762 6665 81.6395
148.88 6825 82.6136
148.997 7049 83.9583
149.114 6876 82.9216
149.231 6964 83.4506
149.349 7029 83.8391
149.466 6975 83.5165
149.583 7347 85.7146
149.701 7309 85.4927
149.818 7282 85.3346
149.935 7297 85.4225
150.053 7222 84.9824
150.17 6534 80.8332
150.287 5799 76.1512
150.405 5194 72.0694
150.522 5324 72.9657
150.64 6226 78.905
150.757 7207 84.8941
150.875 7657 87.5043
150.992 7724 87.8863
151.11 7803 88.3346
151.227 7895 88.8538
151.344 7794 88.2836
151.462 7684 87.6584
151.579 7591 87.1263
151.697 7683 87.6527
151.814 7909 88.9326
151.932 8119 90.1055
152.049 8251 90.835
152.167 8348 91.3674
152.284 8256 90.8625
152.402 8277 90.978
152.519 8399 91.6461
152.636 8380 91.5423
152.754 8380 91.5423
152.871 8434 91.8368
152.989 8243 90.791
153.106 8443 91.8858
153.223 8194 90.5207
153.341 8094 89.9667
153.458 7782 88.2156
153.575 7511 86.666
153.693 7112 84.3327
153.81 6434 80.2122
153.927 5725 75.6637
154.044 5234 72.3464
154.162 5307 72.8492
154.279 5845 76.4526
154.396 6388 79.925
154.513 6597 81.2219
154.63 6692 81.8046
154.747 6717 81.9573
154.864 6447 80.2932
154.981 6141 78.3645
155.098 6089 78.032
155.215 6026 77.6273
155.332 5976 77.3046
155.449 5927 76.987
155.566 5950 77.1362
155.683 6166 78.5239
155.8 6057 77.8267
155.917 5893 76.7659
156.033 5825 76.3217
156.15 0 1
156.267 0 1
156.383 0 1
156.5 0 1
156.617 0 1
156.733 0 1
156.85 0 1
156.966 0 1
157.082 0 1
157.199 0 1
157.315 0 1
157.431 0 1
157.547 0 1
157.664 0 1
157.78 0 1
157.896 0 1
158.012 0 1
158.128 0 1
158.244 0 1
158.359 0 1
158.475 0 1
158.591 0 1
158.706 0 1
