
6.15755 0 1
6.2731 0 1
6.3887 0 1
6.50437 0 1
6.62009 0 1
6.73587 0 1
6.8517 0 1
6.96759 0 1
7.08353 0 1
7.19952 0 1
7.31557 0 1
7.43166 0 1
7.54781 0 1
7.664 0 1
7.78024 0 1
7.89653 0 1
8.01286 0 1
8.12924 0 1
8.24567 0 1
8.36213 0 1
8.47864 0 1
8.59519 0 1
8.71178 0 1
8.82841 0 1
8.94508 0 1
9.06179 0 1
9.17853 0 1
9.29531 0 1
9.41212 0 1
9.52897 0 1
9.64584 0 1
9.76276 0 1
9.8797 0 1
9.99667 0 1
10.1137 0 1
10.2307 0 1
10.3478 0 1
10.4648 0 1
10.5819 0 1
10.6991 0 1
10.8162 0 1
10.9334 0 1
11.0506 0 1
11.1678 0 1
11.285 0 1
11.4023 0 1
11.5196 0 1
11.6369 0 1
11.7542 0 1
11.8715 0 1
11.9888 0 1
12.1062 0 1
12.2235 0 1
12.3409 0 1
12.4582 0 1
12.5756 0 1
12.693 0 1
12.8104 0 1
12.9278 0 1
13.0452 0 1
13.1626 0 1
13.28 0 1
13.3974 0 1
13.5149 0 1
13.6323 0 1
13.7497 0 1
13.8671 0 1
13.9845 0 1
14.1019 0 1
14.2193 0 1
14.3367 0 1
14.4541 0 1
14.5714 0 1
14.6888 0 1
14.8062 0 1
14.9235 0 1
15.0408 0 0
15.1581 0 0
15.2755 0 0
15.3927 0 0
15.51 0 0
15.6273 0 0
15.7445 0 0
15.8617 0 0
15.9789 0 0
16.0961 0 0
16.2132 0 0
16.3304 0 0
16.4475 0 0
16.5646 0 0
16.6816 0 0
16.7986 0 0
16.9156 0 0
17.0326 0 0
17.1496 0 0
17.2665 0 0
17.3833 0 0
17.5002 0 0
17.617 0 0
17.7338 0 0
17.8505 0 0
17.9672 0 0
18.0839 0 0
18.2005 0 0
18.3171 0 0
18.4337 0 0
18.5502 0 0
18.6666 0 0
18.7831 0 0
18.8994 0 0
19.0158 0 0
19.1321 0 0
19.2483 0 0
19.3645 0 0
19.4806 0 0
19.5967 0 0
19.7128 0 0
19.8288 0 0
19.9447 0 0
20.0606 0 1
20.1764 0 1
20.2922 0 1
20.4079 0 1
20.5236 0 1
20.6392 0 1
20.7548 0 1
20.8702 0 1
23.3078 0 1
23.4233 0 1
23.539 0 1
23.6547 0 1
23.7704 0 1
23.8862 0 1
24.0021 0 1
24.118 0 1
24.234 0 1
24.35 0 1
24.4661 16183 127.212
24.5822 16374 127.961
24.6984 16295 127.652
24.8146 15876 126
24.9309 15885 126.036
25.0472 15384 124.032
25.1636 15309 123.73
25.28 15683 125.232
25.3965 15832 125.825
25.513 16022 126.578
25.6296 16760 129.46
25.7462 17166 131.019
25.8628 17235 131.282
25.9795 17563 132.525
26.0962 17516 132.348
26.213 17274 131.431
26.3298 17202 131.156
26.4466 16816 129.677
26.5635 16110 126.925
26.6804 15722 125.387
26.7973 15899 126.091
26.9143 16371 127.949
27.0313 16688 129.182
27.1483 16998 130.376
27.2653 17679 132.962
27.3824 17647 132.842
27.4996 17527 132.39
27.6167 17583 132.601
27.7339 16820 129.692
27.8511 17038 130.53
27.9683 16621 128.922
28.0855 16255 127.495
28.2028 16132 127.012
28.3201 15408 124.129
28.4374 15124 122.98
28.5547 14608 120.864
28.6721 14506 120.441
28.7894 14617 120.901
28.9068 14498 120.408
29.0242 14417 120.071
29.1416 14821 121.742
29.259 15353 123.907
29.3764 15485 124.439
29.4939 15590 124.86
29.6113 15661 125.144
29.7288 16001 126.495
29.8463 15681 125.224
29.9638 15195 123.268
30.0812 15112 122.931
30.1987 14494 120.391
30.3162 14571 120.71
30.4337 14935 122.209
30.5512 15504 124.515
30.6687 15828 125.809
30.7862 16363 127.918
30.9037 16594 128.818
31.0212 16543 128.62
31.1387 16659 129.07
31.2562 16338 127.82
31.3737 16358 127.898
31.4912 16112 126.933
31.6087 15723 125.391
31.7262 15532 124.627
31.8436 15237 123.438
31.9611 14787 121.602
32.0785 14453 120.221
32.1959 14099 118.739
32.3134 14175 119.059
32.4308 14026 118.431
32.5482 14380 119.917
32.6655 14555 120.644
32.7829 14659 121.074
32.9002 15142 123.053
33.0176 15042 122.646
33.1349 15101 122.886
33.2522 15285 123.633
33.3694 15336 123.839
33.4867 15077 122.788
33.6039 14734 121.384
33.7211 14723 121.338
33.8383 14319 119.662
33.9554 14412 120.05
34.0725 14541 120.586
34.1896 15209 123.325
34.3067 15594 124.876
34.4237 16152 127.091
34.5407 16112 126.933
34.6577 16226 127.381
34.7746 16437 128.207
34.8915 16567 128.713
35.0084 16374 127.961
35.1252 16116 126.949
35.242 15821 125.782
35.3587 15452 124.306
35.4755 15378 124.008
35.5921 15025 122.577
35.7088 14377 119.904
35.8254 14178 119.071
35.9419 13682 116.97
36.0584 13390 115.715
36.1749 13631 116.752
36.2913 13999 118.317
36.4077 14036 118.474
36.524 14140 118.912
36.6403 14627 120.942
36.7565 14843 121.832
36.8727 14742 121.417
36.9889 14988 122.425
37.1049 14801 121.659
37.221 0 1
37.3369 0 1
37.4529 0 1
37.5687 0 1
37.6845 0 1
37.8003 0 1
37.916 0 1
38.0316 0 1
38.1472 0 1
40.5851 0 1
40.7008 0 1
40.8164 0 1
40.9322 0 1
41.048 0 1
41.1639 0 1
41.2798 0 1
41.3958 0 1
41.5118 0 1
41.6279 0 1
41.744 12223 110.558
41.8602 12495 111.781
41.9765 12701 112.699
42.0928 12701 112.699
42.2091 12807 113.168
42.3255 12761 112.965
42.4419 12717 112.77
42.5584 12154 110.245
42.675 12015 109.613
42.7915 11950 109.316
42.9081 12670 112.561
43.0248 13220 114.978
43.1415 13521 116.28
43.2582 13859 117.724
43.375 14079 118.655
43.4918 14084 118.676
43.6087 13996 118.305
43.7256 13926 118.008
43.8425 13562 116.456
43.9595 13430 115.888
44.0765 13422 115.853
44.1935 13080 114.368
44.3106 12844 113.331
44.4277 12171 110.322
44.5448 11545 107.448
44.6619 11125 105.475
44.7791 10844 104.135
44.8963 10694 103.412
45.0136 10629 103.097
45.1308 10985 104.809
45.2481 11153 105.608
45.3654 11117 105.437
45.4827 11281 106.212
45.6001 11352 106.546
45.7174 11293 106.269
45.8348 11261 106.118
45.9522 10965 104.714
46.0697 10753 103.697
46.1871 10389 101.926
46.3046 10244 101.213
46.422 10551 102.718
46.5395 10900 104.403
46.657 11335 106.466
46.7745 11410 106.818
46.892 11656 107.963
47.0096 11625 107.819
47.1271 11695 108.143
47.2446 11583 107.624
47.3622 11514 107.303
47.4797 11038 105.062
47.5973 10951 104.647
47.7149 10898 104.393
47.8324 10308 101.528
47.95 10097 100.484
48.0675 9584 97.8979
48.1851 8909 94.3875
48.3027 8717 93.3649
48.4202 8577 92.6121
48.5378 8549 92.4608
48.6554 8593 92.6984
48.7729 8855 94.101
48.8904 9278 96.3224
49.008 9269 96.2756
49.1255 9449 97.206
49.243 9696 98.4683
49.3605 9749 98.737
49.478 9391 96.9072
49.5955 9062 95.1945
49.713 9043 95.0947
49.8304 9173 95.7758
49.9479 9597 97.9643
50.0653 10152 100.757
50.1827 10866 104.24
50.3001 11331 106.447
50.4175 11978 109.444
50.5348 11877 108.982
50.6521 12439 111.53
50.7694 12717 112.77
50.8867 12692 112.659
51.004 13142 114.639
51.1212 13263 115.165
51.2384 13248 115.1
51.3556 13202 114.9
51.4727 13018 114.096
51.5899 12594 112.223
51.707 11928 109.215
51.824 11784 108.554
51.9411 11426 106.892
52.0581 11927 109.211
52.175 12073 109.877
52.2919 12512 111.857
52.4088 12603 112.263
52.5257 12683 112.619
52.6425 12858 113.393
52.7593 13372 115.637
52.876 13640 116.79
52.9927 13735 117.196
53.1094 13472 116.069
53.226 13034 114.167
53.3426 13043 114.206
53.4591 13104 114.473
53.5756 13737 117.205
53.692 14793 121.626
53.8084 15427 124.205
53.9248 16128 126.996
54.0411 16454 128.273
54.1573 16806 129.638
54.2735 0 1
54.3896 0 1
54.5057 0 1
54.6217 0 1
54.7377 0 1
54.8537 0 1
54.9695 0 1
55.0853 0 1
55.2011 0 1
55.3168 0 1
55.4324 0 1
57.824 0 1
57.9396 0 1
58.0553 0 1
58.1711 0 1
58.2869 0 1
58.4028 0 1
58.5187 0 1
58.6347 0 1
58.7508 0 1
58.8669 0 1
58.983 18173 134.807
59.0992 19018 137.906
59.2155 19812 140.755
59.3318 19869 140.957
59.4482 20505 143.196
59.5646 20227 142.222
59.681 20336 142.604
59.7975 20044 141.577
59.9141 19646 140.164
60.0306 18807 137.139
60.1473 17751 133.233
60.2639 17020 130.461
60.3807 15964 126.349
60.4974 15056 122.703
60.6142 14942 122.237
60.731 14821 121.742
60.8479 14883 121.996
60.9648 15483 124.431
61.0818 16268 127.546
61.1987 15974 126.388
61.3158 16350 127.867
61.4328 16324 127.765
61.5499 16324 127.765
61.667 15632 125.028
61.7841 15488 124.451
61.9013 15063 122.731
62.0185 15151 123.089
62.1357 15699 125.296
62.253 16672 129.12
62.3702 17329 131.64
62.4875 17845 133.585
62.6049 18485 135.96
62.7222 19215 138.618
62.8396 19426 139.377
62.9569 19414 139.334
63.0743 19245 138.726
63.1918 19188 138.521
63.3092 18829 137.219
63.4267 18121 134.614
63.5441 17694 133.019
63.6616 16926 130.1
63.7791 15774 125.595
63.8966 14673 121.132
64.0142 13911 117.945
64.1317 13842 117.652
64.2492 13688 116.996
64.3668 13930 118.025
64.4843 14237 119.319
64.6019 14604 120.847
64.7195 14876 121.967
64.837 15241 123.454
64.9546 15428 124.21
65.0722 15226 123.394
65.1898 14899 122.061
65.3074 14512 120.466
65.4249 14140 118.912
65.5425 13924 118
65.6601 14181 119.084
65.7777 15223 123.382
65.8952 16054 126.704
66.0128 16839 129.765
66.1304 17390 131.871
66.2479 18281 135.207
66.3655 18518 136.081
66.483 18507 136.04
66.6005 18787 137.066
66.718 18645 136.547
66.8355 18314 135.329
66.953 17871 133.682
67.0705 17582 132.597
67.1879 16627 128.946
67.3054 15796 125.682
67.4228 14860 121.902
67.5402 13557 116.435
67.6576 12976 113.912
67.7749 12869 113.442
67.8923 13536 116.344
68.0096 13770 117.346
68.1269 14117 118.815
68.2442 14790 121.614
68.3614 15359 123.931
68.4787 15233 123.422
68.5958 15548 124.692
68.713 15446 124.282
68.8302 15085 122.821
68.9473 14508 120.449
69.0643 14157 118.983
69.1814 14202 119.172
69.2984 14541 120.586
69.4154 15338 123.847
69.5323 16246 127.46
69.6492 17388 131.864
69.7661 18498 136.007
69.8829 18935 137.605
69.9997 19480 139.571
70.1165 19895 141.05
70.2332 19827 140.808
70.3499 19971 141.319
70.4665 19962 141.287
70.5831 19535 139.768
70.6996 18632 136.499
70.8161 17854 133.619
70.9326 17049 130.572
71.049 15868 125.968
71.1653 14614 120.888
71.2817 13724 117.149
71.3979 13291 115.287
71.5141 13057 114.267
71.6303 13336 115.482
71.7464 12915 113.644
71.8624 0 1
71.9784 0 1
72.0944 0 1
72.2102 0 1
72.3261 0 1
72.4418 0 1
72.5575 0 1
72.6732 0 1
75.1054 0 1
75.2209 0 1
75.3365 0 1
75.4521 0 1
75.5678 0 1
75.6835 0 1
75.7993 0 1
75.9151 0 1
76.031 0 1
76.147 17168 131.027
76.263 17502 132.295
76.3791 16921 130.081
76.4952 15641 125.064
76.6113 14500 120.416
76.7276 14435 120.146
76.8438 14450 120.208
76.9601 14714 121.301
77.0765 15537 124.648
77.1929 16185 127.22
77.3093 17007 130.411
77.4258 16805 129.634
77.5423 17449 132.095
77.6589 17369 131.792
77.7755 16892 129.969
77.8921 16038 126.641
78.0088 15633 125.032
78.1256 15036 122.621
78.2423 15135 123.024
78.3591 15110 122.923
78.4759 16390 128.023
78.5928 17485 132.231
78.7097 18646 136.55
78.8266 20196 142.113
78.9436 19216 138.622
79.0606 20533 143.293
79.1776 20267 142.362
79.2946 20637 143.656
79.4117 20429 142.93
79.5288 20202 142.134
79.6459 19871 140.965
79.7631 18986 137.79
79.8802 17777 133.33
79.9974 16867 129.873
80.1147 15576 124.804
80.2319 14269 119.453
80.3491 13850 117.686
80.4664 13481 116.108
80.5837 13850 117.686
80.701 14477 120.32
80.8183 15069 122.756
80.9357 15397 124.085
81.053 15826 125.801
81.1704 15967 126.361
81.2877 15800 125.698
81.4051 15409 124.133
81.5225 14982 122.401
81.6399 14157 118.983
81.7573 13950 118.11
81.8747 13419 115.84
81.9922 13456 116
82.1096 14836 121.803
82.227 15933 126.226
82.3444 16536 128.592
82.4619 17594 132.642
82.5793 17925 133.884
82.6967 18890 137.441
82.8142 18409 135.68
82.9316 18714 136.799
83.049 18327 135.377
83.1664 17812 133.462
83.2838 17267 131.404
83.4012 16800 129.615
83.5186 15693 125.272
83.636 14894 122.041
83.7534 13743 117.231
83.8708 12942 113.763
83.9881 12338 111.077
84.1055 12118 110.082
84.2228 12151 110.232
84.3401 12986 113.956
84.4575 13623 116.718
84.5747 14623 120.926
84.692 15219 123.365
84.8093 15325 123.794
84.9265 14867 121.93
85.0437 14411 120.046
85.1609 13701 117.051
85.2781 13010 114.061
85.3952 13088 114.403
85.5123 12915 113.644
85.6294 13568 116.482
85.7465 15021 122.56
85.8636 16331 127.793
85.9806 16954 130.208
86.0976 18213 134.956
86.2145 18685 136.693
86.3315 18890 137.441
86.4484 19971 141.319
86.5652 20052 141.605
86.682 19862 140.933
86.7988 19466 139.521
86.9156 18883 137.415
87.0323 18123 134.622
87.149 17378 131.826
87.2657 16214 127.334
87.3823 15083 122.813
87.4988 13938 118.059
87.6154 13865 117.75
87.7318 14447 120.196
87.8483 15041 122.642
87.9647 15944 126.27
88.081 16971 130.273
88.1973 17555 132.495
88.3136 17451 132.102
88.4298 17538 132.431
88.546 16582 128.771
88.6621 15794 125.674
88.7781 14790 121.614
88.8942 0 1
89.0101 0 1
89.126 0 1
89.2419 0 1
89.3577 0 1
89.4734 0 1
89.5891 0 1
89.7047 0 1
89.8203 0 1
89.9358 0 1
92.3269 0 1
92.4424 0 1
92.558 0 1
92.6736 0 1
92.7893 0 1
92.905 0 1
93.0208 0 1
93.1366 0 1
93.2525 0 1
93.3685 0 1
93.4845 0 1
93.6005 19915 141.121
93.7167 20887 144.523
93.8328 21614 147.017
93.949 22078 148.587
94.0653 22487 149.957
94.1816 22100 148.661
94.2979 21631 147.075
94.4143 21580 146.901
94.5307 22273 149.241
94.6472 22877 151.251
94.7637 24462 156.403
94.8803 27268 165.13
94.9969 29658 172.215
95.1135 31749 178.182
95.2302 33018 181.709
95.3469 35101 187.353
95.4637 36178 190.205
95.5805 37692 194.144
95.6973 38461 196.115
95.8142 39533 198.829
95.9311 39435 198.582
96.048 39387 198.462
96.1649 39147 197.856
96.2819 38056 195.079
96.3989 36652 191.447
96.516 35142 187.462
96.633 33304 182.494
96.7501 31917 178.653
96.8673 32790 181.08
96.9844 34130 184.743
97.1016 36383 190.743
97.2188 39303 198.25
97.336 41899 204.692
97.4532 42190 205.402
97.5704 42558 206.296
97.6877 41946 204.807
97.805 40525 201.308
97.9223 37825 194.487
98.0396 35267 187.795
98.1569 33652 183.445
98.2743 33240 182.318
98.3916 33820 183.902
98.509 36400 190.788
98.6264 38938 197.327
98.7438 41633 204.042
98.8612 43171 207.776
98.9786 44271 210.407
99.096 45887 214.213
99.2134 46154 214.835
99.3308 46271 215.107
99.4482 46440 215.499
99.5656 45935 214.325
99.6831 45012 212.16
99.8005 43608 208.825
99.9179 42593 206.381
100.035 40771 201.918
100.153 37710 194.191
100.27 35395 188.136
100.388 34070 184.581
100.505 35446 188.271
100.622 37022 192.411
100.74 39865 199.662
100.857 41866 204.612
100.975 42277 205.614
101.092 42766 206.799
101.209 41888 204.666
101.327 41490 203.691
101.444 39045 197.598
101.561 36511 191.079
101.679 34413 185.507
101.796 32620 180.61
101.913 32577 180.491
102.03 34348 185.332
102.148 37194 192.857
102.265 40928 202.307
102.382 39020 197.535
102.499 41554 203.848
102.616 41845 204.561
102.733 42487 206.124
102.851 42185 205.39
102.968 41716 204.245
103.085 40473 201.179
103.202 38775 196.914
103.319 37396 193.38
103.436 35105 187.363
103.552 33111 181.964
103.669 30203 173.79
103.786 27297 165.218
103.903 25655 160.172
104.02 26249 162.015
104.137 26156 161.728
104.253 27931 167.126
104.37 27101 164.624
104.487 27556 166
104.603 26837 163.82
104.72 25467 159.584
104.836 24294 155.865
104.953 22201 149
105.069 20645 143.684
105.186 19179 138.488
105.302 19114 138.253
105.418 19381 139.216
105.535 20346 142.639
105.651 21597 146.959
105.767 22632 150.439
105.883 23949 154.755
105.999 23652 153.792
106.115 0 1
106.231 0 1
106.347 0 1
106.463 0 1
106.579 0 1
106.694 0 1
106.81 0 1
106.926 0 1
107.041 0 1
107.157 0 1
109.576 0 1
109.692 0 1
109.807 0 1
109.923 0 1
110.039 0 1
110.155 0 1
110.27 0 1
110.386 0 1
110.502 0 1
110.618 17502 132.295
110.735 18999 137.837
110.851 20459 143.035
110.967 21569 146.864
111.083 21770 147.547
111.199 22237 149.121
111.316 22509 150.03
111.432 22272 149.238
111.549 22113 148.704
111.665 21816 147.702
111.782 20945 144.724
111.898 20425 142.916
112.015 19017 137.902
112.132 17856 133.626
112.248 16567 128.713
112.365 15875 125.996
112.482 15848 125.889
112.599 15831 125.821
112.716 16646 129.019
112.832 17078 130.683
112.949 17303 131.541
113.066 17225 131.244
113.183 17044 130.553
113.3 16725 129.325
113.417 16205 127.299
113.534 15468 124.37
113.652 15331 123.818
113.769 15323 123.786
113.886 15306 123.717
114.003 15913 126.147
114.12 17138 130.912
114.238 18435 135.776
114.355 19641 140.146
114.472 20463 143.049
114.589 20669 143.767
114.707 21421 146.359
114.824 21358 146.144
114.942 21726 147.397
115.059 21582 146.908
115.176 21481 146.564
115.294 21167 145.489
115.411 20318 142.541
115.529 19901 141.071
115.646 18831 137.226
115.764 17693 133.015
115.881 16752 129.43
115.999 16392 128.031
116.116 16459 128.293
116.234 16976 130.292
116.351 17653 132.865
116.469 17687 132.992
116.586 17781 133.345
116.704 17897 133.78
116.821 17670 132.929
116.939 17387 131.86
117.056 16744 129.399
117.174 16240 127.436
117.291 16390 128.023
117.409 16335 127.808
117.526 16584 128.779
117.644 17694 133.019
117.761 19213 138.611
117.879 20340 142.618
117.996 21151 145.434
118.114 21888 147.946
118.231 22339 149.462
118.349 22197 148.987
118.466 22814 151.043
118.584 22794 150.977
118.701 22925 151.41
118.819 22551 150.17
118.936 21990 148.29
119.053 21164 145.479
119.171 20668 143.764
119.288 19647 140.168
119.405 18400 135.647
119.523 17699 133.038
119.64 17494 132.265
119.757 17262 131.385
119.875 18007 134.19
119.992 18191 134.874
120.109 17926 133.888
120.226 18092 134.507
120.343 18278 135.196
120.46 17941 133.944
120.578 17466 132.159
120.695 17288 131.484
120.812 16962 130.238
120.929 16739 129.379
121.046 16753 129.433
121.163 17124 130.859
121.279 17584 132.605
121.396 18636 136.514
121.513 19885 141.014
121.63 21056 145.107
121.747 21380 146.219
121.863 22135 148.778
121.98 22454 149.847
122.097 22577 150.256
122.213 22668 150.559
122.33 22802 151.003
122.446 22263 149.208
122.563 22117 148.718
122.679 21426 146.376
122.795 20936 144.693
122.912 20519 143.245
123.028 19686 140.307
123.144 18780 137.04
123.26 17727 133.143
123.377 0 1
123.493 0 1
123.609 0 1
123.725 0 1
123.84 0 1
123.956 0 1
124.072 0 1
124.188 0 1
124.303 0 1
124.419 0 1
126.852 0 1
126.968 0 1
127.083 0 1
127.199 0 1
127.315 0 1
127.431 0 1
127.547 0 1
127.663 0 1
127.779 0 1
127.895 0 1
128.011 0 1
128.127 0 1
128.243 0 1
128.359 21122 145.334
128.476 20136 141.901
128.592 19529 139.746
128.708 19832 140.826
128.825 19766 140.592
128.941 20448 142.997
129.058 20704 143.889
129.174 20553 143.363
129.291 20393 142.804
129.408 19560 139.857
129.524 19304 138.939
129.641 19010 137.877
129.758 18658 136.594
129.875 18397 135.636
129.992 18387 135.599
130.108 18525 136.107
130.225 19270 138.816
130.342 20554 143.367
130.459 21003 144.924
130.576 22320 149.399
130.693 22425 149.75
130.81 22818 151.056
130.928 23058 151.849
131.045 23360 152.84
131.162 23358 152.833
131.279 23093 151.964
131.396 23159 152.181
131.513 22618 150.393
131.631 22167 148.886
131.748 21673 147.218
131.865 20587 143.482
131.983 19699 140.353
132.1 18788 137.069
132.217 19068 138.087
132.335 19326 139.018
132.452 19714 140.407
132.57 19875 140.979
132.687 18977 137.757
132.804 20201 142.13
132.922 19620 140.071
133.039 19194 138.542
133.157 18970 137.732
133.274 18602 136.389
133.392 18364 135.514
133.509 18097 134.525
133.627 18257 135.118
133.744 18308 135.307
133.862 19583 139.939
133.979 20516 143.234
134.097 21103 145.269
134.214 22004 148.337
134.332 21984 148.27
134.449 22471 149.903
134.567 22606 150.353
134.684 22763 150.874
134.802 23200 152.315
134.919 23092 151.961
135.037 23047 151.812
135.154 22738 150.791
135.272 22209 149.027
135.389 21283 145.887
135.507 20540 143.318
135.624 19625 140.089
135.742 19281 138.856
135.859 19449 139.46
135.977 20095 141.757
136.094 20320 142.548
136.211 20563 143.398
136.329 20517 143.238
136.446 20233 142.243
136.564 19890 141.032
136.681 20248 142.295
136.798 19463 139.51
136.915 19085 138.148
137.033 18824 137.201
137.15 18611 136.422
137.267 18777 137.029
137.384 19199 138.56
137.502 20144 141.93
137.619 20674 143.785
137.736 21506 146.649
137.853 21774 147.56
137.97 21860 147.851
138.087 22875 151.245
138.204 22801 151
138.321 23239 152.443
138.438 23566 153.512
138.555 23542 153.434
138.672 23420 153.036
138.788 23131 152.089
138.905 22867 151.218
139.022 21699 147.306
139.139 21385 146.236
139.255 20346 142.639
139.372 19999 141.418
139.488 20080 141.704
139.605 20597 143.517
139.721 21095 145.241
139.838 21146 145.417
139.954 20724 143.958
140.071 20233 142.243
140.187 20238 142.26
140.303 19827 140.808
140.419 19210 138.6
140.535 18866 137.354
140.652 18509 136.048
140.768 0 1
140.884 0 1
141 0 1
141.115 0 1
141.231 0 1
141.347 0 1
141.463 0 1
141.578 0 1
141.694 0 1
144.104 0 1
144.219 0 1
144.335 0 1
144.45 0 1
144.566 0 1
144.682 0 1
144.798 0 1
144.914 0 1
145.03 0 1
145.146 18955 137.677
145.262 19245 138.726
145.378 18833 137.233
145.494 18541 136.165
145.61 18441 135.798
145.726 18102 134.544
145.842 18102 134.544
145.959 18236 135.041
146.075 18645 136.547
146.192 19244 138.723
146.308 20254 142.317
146.425 20398 142.822
146.541 20766 144.104
146.658 20829 144.323
146.774 21017 144.972
146.891 21572 146.874
147.008 21553 146.809
147.125 21833 147.76
147.241 21716 147.363
147.358 21474 146.54
147.475 21179 145.53
147.592 21010 144.948
147.709 20297 142.468
147.826 19393 139.259
147.943 19246 138.73
148.06 18902 137.485
148.177 19483 139.582
148.294 19675 140.268
148.411 19916 141.124
148.528 20013 141.467
148.645 19693 140.332
148.762 19434 139.406
148.88 19009 137.873
148.997 18443 135.805
149.114 19160 138.42
149.231 18402 135.654
149.349 18259 135.126
149.466 18158 134.752
149.583 18084 134.477
149.701 18509 136.048
149.818 19314 138.975
149.935 19746 140.52
150.053 20284 142.422
150.17 20699 143.871
150.287 20707 143.899
150.405 20959 144.772
150.522 21901 147.99
150.64 22138 148.788
150.757 22022 148.398
150.875 22347 149.489
150.992 22341 149.469
151.11 21552 146.806
151.227 21610 147.003
151.344 21078 145.183
151.462 20559 143.384
151.579 19883 141.007
151.697 19927 141.163
151.814 20710 143.91
151.932 20942 144.714
152.049 21109 145.289
152.167 21326 146.034
152.284 21359 146.147
152.402 21311 145.983
152.519 20833 144.336
152.636 20430 142.934
152.754 20313 142.524
152.871 19819 140.78
152.989 19590 139.964
153.106 19819 140.78
153.223 19661 140.218
153.341 20085 141.722
153.458 20752 144.056
153.575 21251 145.777
153.693 21921 148.057
153.81 22161 148.866
153.927 22713 150.708
154.044 23083 151.931
154.162 23616 153.675
154.279 24177 155.49
154.396 24182 155.506
154.513 24212 155.602
154.63 24181 155.502
154.747 24015 154.968
154.864 23484 153.245
154.981 23007 151.681
155.098 22279 149.262
155.215 21455 146.475
155.332 21728 147.404
155.449 22074 148.573
155.566 22559 150.197
155.683 22533 150.11
155.8 22531 150.103
155.917 22204 149.01
156.033 22102 148.667
156.15 0 1
156.267 0 1
156.383 0 1
156.5 0 1
156.617 0 1
156.733 0 1
156.85 0 1
156.966 0 1
157.082 0 1
157.199 0 1
157.315 0 1
157.431 0 1
157.547 0 1
157.664 0 1
157.78 0 1
157.896 0 1
158.012 0 1
158.128 0 1
158.244 0 1
158.359 0 1
158.475 0 1
158.591 0 1
158.706 0 1
