
6.15755 0 1
6.2731 0 1
6.3887 0 1
6.50437 0 1
6.62009 0 1
6.73587 0 1
6.8517 0 1
6.96759 0 1
7.08353 0 1
7.19952 0 1
7.31557 0 1
7.43166 0 1
7.54781 0 1
7.664 0 1
7.78024 0 1
7.89653 0 1
8.01286 0 1
8.12924 0 1
8.24567 0 1
8.36213 0 1
8.47864 0 1
8.59519 0 1
8.71178 0 1
8.82841 0 1
8.94508 0 1
9.06179 0 1
9.17853 0 1
9.29531 0 1
9.41212 0 1
9.52897 0 1
9.64584 0 1
9.76276 0 1
9.8797 0 1
9.99667 0 1
10.1137 0 1
10.2307 0 1
10.3478 0 1
10.4648 0 1
10.5819 0 1
10.6991 0 1
10.8162 0 1
10.9334 0 1
11.0506 0 1
11.1678 0 1
11.285 0 1
11.4023 0 1
11.5196 0 1
11.6369 0 1
11.7542 0 1
11.8715 0 1
11.9888 0 1
12.1062 0 1
12.2235 0 1
12.3409 0 1
12.4582 0 1
12.5756 0 1
12.693 0 1
12.8104 0 1
12.9278 0 1
13.0452 0 1
13.1626 0 1
13.28 0 1
13.3974 0 1
13.5149 0 1
13.6323 0 1
13.7497 0 1
13.8671 0 1
13.9845 0 1
14.1019 0 1
14.2193 0 1
14.3367 0 1
14.4541 0 1
14.5714 0 1
14.6888 0 1
14.8062 0 1
14.9235 0 1
15.0408 0 0
15.1581 0 0
15.2755 0 0
15.3927 0 0
15.51 0 0
15.6273 0 0
15.7445 0 0
15.8617 0 0
15.9789 0 0
16.0961 0 0
16.2132 0 0
16.3304 0 0
16.4475 0 0
16.5646 0 0
16.6816 0 0
16.7986 0 0
16.9156 0 0
17.0326 0 0
17.1496 0 0
17.2665 0 0
17.3833 0 0
17.5002 0 0
17.617 0 0
17.7338 0 0
17.8505 0 0
17.9672 0 0
18.0839 0 0
18.2005 0 0
18.3171 0 0
18.4337 0 0
18.5502 0 0
18.6666 0 0
18.7831 0 0
18.8994 0 0
19.0158 0 0
19.1321 0 0
19.2483 0 0
19.3645 0 0
19.4806 0 0
19.5967 0 0
19.7128 0 0
19.8288 0 0
19.9447 0 0
20.0606 0 1
20.1764 0 1
20.2922 0 1
20.4079 0 1
20.5236 0 1
20.6392 0 1
20.7548 0 1
20.8702 0 1
23.3078 0 1
23.4233 0 1
23.539 0 1
23.6547 0 1
23.7704 0 1
23.8862 0 1
24.0021 0 1
24.118 0 1
24.234 0 1
24.35 0 1
24.4661 1193 34.5398
24.5822 1285 35.8469
24.6984 1407 37.51
24.8146 1522 39.0128
24.9309 1857 43.0929
25.0472 2039 45.1553
25.1636 2310 48.0625
25.28 2415 49.1426
25.3965 2478 49.7795
25.513 2449 49.4874
25.6296 2531 50.309
25.7462 2550 50.4975
25.8628 2473 49.7293
25.9795 2489 49.8899
26.0962 2530 50.2991
26.213 2511 50.1099
26.3298 2604 51.0294
26.4466 2646 51.4393
26.5635 2506 50.06
26.6804 2569 50.6853
26.7973 2402 49.0102
26.9143 2422 49.2138
27.0313 2415 49.1426
27.1483 2429 49.2849
27.2653 2389 48.8774
27.3824 2279 47.7389
27.4996 2210 47.0106
27.6167 2069 45.4863
27.7339 2033 45.0888
27.8511 2069 45.4863
27.9683 2236 47.2864
28.0855 2320 48.1664
28.2028 2423 49.224
28.3201 2316 48.1248
28.4374 2262 47.5605
28.5547 2377 48.7545
28.6721 2337 48.3425
28.7894 2374 48.7237
28.9068 2271 47.655
29.0242 2347 48.4458
29.1416 2360 48.5798
29.259 2443 49.4267
29.3764 2487 49.8698
29.4939 2286 47.8121
29.6113 2294 47.8957
29.7288 2178 46.669
29.8463 2189 46.7868
29.9638 2191 46.8081
30.0812 2129 46.1411
30.1987 2149 46.3573
30.3162 2150 46.3681
30.4337 2269 47.634
30.5512 2243 47.3603
30.6687 2262 47.5605
30.7862 2288 47.833
30.9037 2145 46.3141
31.0212 2114 45.9783
31.1387 2052 45.299
31.2562 2174 46.6262
31.3737 2233 47.2546
31.4912 2365 48.6313
31.6087 2449 49.4874
31.7262 2351 48.4871
31.8436 2381 48.7955
31.9611 2355 48.5283
32.0785 2238 47.3075
32.1959 2261 47.55
32.3134 2280 47.7493
32.4308 2227 47.1911
32.5482 2254 47.4763
32.6655 2258 47.5184
32.7829 2235 47.2758
32.9002 2117 46.0109
33.0176 2034 45.0999
33.1349 1999 44.7102
33.2522 1987 44.5758
33.3694 2007 44.7996
33.4867 2020 44.9444
33.6039 1938 44.0227
33.7211 2025 45
33.8383 2085 45.6618
33.9554 2126 46.1086
34.0725 2186 46.7547
34.1896 2213 47.0425
34.3067 2185 46.744
34.4237 2254 47.4763
34.5407 2139 46.2493
34.6577 2096 45.7821
34.7746 2075 45.5522
34.8915 2089 45.7056
35.0084 2231 47.2335
35.1252 2241 47.3392
35.242 2295 47.9062
35.3587 2279 47.7389
35.4755 2250 47.4342
35.5921 2263 47.571
35.7088 2046 45.2327
35.8254 2097 45.793
35.9419 2029 45.0444
36.0584 2019 44.9333
36.1749 1846 42.9651
36.2913 1857 43.0929
36.4077 1851 43.0232
36.524 1781 42.2019
36.6403 1579 39.7366
36.7565 1406 37.4967
36.8727 1387 37.2424
36.9889 1402 37.4433
37.1049 1401 37.4299
37.221 0 1
37.3369 0 1
37.4529 0 1
37.5687 0 1
37.6845 0 1
37.8003 0 1
37.916 0 1
38.0316 0 1
38.1472 0 1
40.5851 0 1
40.7008 0 1
40.8164 0 1
40.9322 0 1
41.048 0 1
41.1639 0 1
41.2798 0 1
41.3958 0 1
41.5118 0 1
41.6279 0 1
41.744 2064 45.4313
41.8602 3015 54.909
41.9765 3449 58.7282
42.0928 3882 62.3057
42.2091 3886 62.3378
42.3255 3847 62.0242
42.4419 3956 62.8967
42.5584 3817 61.7819
42.675 4107 64.0859
42.7915 3966 62.9762
42.9081 4108 64.0937
43.0248 4114 64.1405
43.1415 4070 63.7966
43.2582 3870 62.2093
43.375 3581 59.8415
43.4918 3620 60.1664
43.6087 3655 60.4566
43.7256 3752 61.2536
43.8425 3892 62.3859
43.9595 3820 61.8061
44.0765 3681 60.6712
44.1935 3657 60.4731
44.3106 3384 58.1722
44.4277 3347 57.8533
44.5448 3212 56.6745
44.6619 3042 55.1543
44.7791 2721 52.1632
44.8963 2617 51.1566
45.0136 2482 49.8197
45.1308 2350 48.4768
45.2481 2248 47.4131
45.3654 2028 45.0333
45.4827 1894 43.5201
45.6001 1797 42.391
45.7174 1723 41.509
45.8348 1708 41.328
45.9522 1706 41.3038
46.0697 1710 41.3521
46.1871 1751 41.845
46.3046 1870 43.2435
46.422 1836 42.8486
46.5395 1867 43.2088
46.657 1946 44.1135
46.7745 1971 44.3959
46.892 1727 41.5572
47.0096 1682 41.0122
47.1271 1686 41.0609
47.2446 1753 41.8688
47.3622 1807 42.5088
47.4797 1853 43.0465
47.5973 1822 42.6849
47.7149 1817 42.6263
47.8324 1844 42.9418
47.95 1930 43.9318
48.0675 1805 42.4853
48.1851 1746 41.7852
48.3027 1769 42.0595
48.4202 1662 40.7676
48.5378 1794 42.3556
48.6554 1672 40.8901
48.7729 1603 40.0375
48.8904 1636 40.4475
49.008 1603 40.0375
49.1255 1575 39.6863
49.243 1516 38.9358
49.3605 1528 39.0896
49.478 1622 40.2741
49.5955 1590 39.8748
49.713 1690 41.1096
49.8304 1682 41.0122
49.9479 1772 42.0951
50.0653 1813 42.5793
50.1827 1826 42.7317
50.3001 1666 40.8167
50.4175 1429 37.8021
50.5348 1435 37.8814
50.6521 1526 39.064
50.7694 1694 41.1582
50.8867 1707 41.3159
51.004 1783 42.2256
51.1212 1787 42.2729
51.2384 1789 42.2966
51.3556 1732 41.6173
51.4727 1710 41.3521
51.5899 1803 42.4617
51.707 1670 40.8656
51.824 1691 41.1218
51.9411 1681 41
52.0581 1630 40.3733
52.175 1656 40.694
52.2919 1630 40.3733
52.4088 1668 40.8412
52.5257 1571 39.6358
52.6425 1666 40.8167
52.7593 1600 40
52.876 1530 39.1152
52.9927 1538 39.2173
53.1094 1507 38.8201
53.226 1559 39.4842
53.3426 1555 39.4335
53.4591 1519 38.9744
53.5756 1413 37.5899
53.692 1258 35.4683
53.8084 1151 33.9264
53.9248 1085 32.9393
54.0411 969 31.1288
54.1573 950 30.8221
54.2735 0 1
54.3896 0 1
54.5057 0 1
54.6217 0 1
54.7377 0 1
54.8537 0 1
54.9695 0 1
55.0853 0 1
55.2011 0 1
55.3168 0 1
55.4324 0 1
57.824 0 1
57.9396 0 1
58.0553 0 1
58.1711 0 1
58.2869 0 1
58.4028 0 1
58.5187 0 1
58.6347 0 1
58.7508 0 1
58.8669 0 1
58.983 1374 37.0675
59.0992 1460 38.2099
59.2155 1492 38.6264
59.3318 1550 39.37
59.4482 1687 41.0731
59.5646 1832 42.8019
59.681 1909 43.6921
59.7975 2014 44.8776
59.9141 2025 45
60.0306 2118 46.0217
60.1473 2056 45.3431
60.2639 1994 44.6542
60.3807 2012 44.8553
60.4974 2028 45.0333
60.6142 2078 45.5851
60.731 2002 44.7437
60.8479 2085 45.6618
60.9648 2013 44.8665
61.0818 2089 45.7056
61.1987 1939 44.0341
61.3158 1953 44.1928
61.4328 1901 43.6005
61.5499 1936 44
61.667 1934 43.9773
61.7841 1888 43.4511
61.9013 1983 44.5309
62.0185 1977 44.4635
62.1357 2003 44.7549
62.253 2004 44.7661
62.3702 1933 43.9659
62.4875 1862 43.1509
62.6049 1748 41.8091
62.7222 1779 42.1782
62.8396 1862 43.1509
62.9569 2019 44.9333
63.0743 2109 45.9239
63.1918 2152 46.3897
63.3092 2070 45.4973
63.4267 2151 46.3789
63.5441 2082 45.6289
63.6616 2092 45.7384
63.7791 2028 45.0333
63.8966 2078 45.5851
64.0142 1956 44.2267
64.1317 2057 45.3542
64.2492 2038 45.1442
64.3668 2041 45.1774
64.4843 2137 46.2277
64.6019 2022 44.9667
64.7195 1993 44.643
64.837 1947 44.1248
64.9546 1903 43.6234
65.0722 1914 43.7493
65.1898 1851 43.0232
65.3074 1962 44.2945
65.4249 1873 43.2782
65.5425 1928 43.909
65.6601 2030 45.0555
65.7777 1951 44.1701
65.8952 1961 44.2832
66.0128 1961 44.2832
66.1304 1722 41.497
66.2479 1656 40.694
66.3655 1681 41
66.483 1847 42.9767
66.6005 2053 45.31
66.718 2093 45.7493
66.8355 1970 44.3847
66.953 2040 45.1664
67.0705 2055 45.3321
67.1879 2033 45.0888
67.3054 2062 45.4093
67.4228 1973 44.4185
67.5402 2025 45
67.6576 2082 45.6289
67.7749 2012 44.8553
67.8923 2041 45.1774
68.0096 1934 43.9773
68.1269 1986 44.5646
68.2442 1929 43.9204
68.3614 1916 43.7721
68.4787 1887 43.4396
68.5958 1865 43.1856
68.713 1890 43.4741
68.8302 1879 43.3474
68.9473 1796 42.3792
69.0643 1877 43.3244
69.1814 1771 42.0833
69.2984 1838 42.8719
69.4154 1930 43.9318
69.5323 1919 43.8064
69.6492 1798 42.4028
69.7661 1684 41.0366
69.8829 1492 38.6264
69.9997 1618 40.2244
70.1165 1652 40.6448
70.2332 1737 41.6773
70.3499 1700 41.2311
70.4665 1539 39.2301
70.5831 1419 37.6696
70.6996 1335 36.5377
70.8161 1362 36.9053
70.9326 1294 35.9722
71.049 1198 34.6121
71.1653 1214 34.8425
71.2817 1143 33.8083
71.3979 1120 33.4664
71.5141 1019 31.9218
71.6303 974 31.209
71.7464 951 30.8383
71.8624 0 1
71.9784 0 1
72.0944 0 1
72.2102 0 1
72.3261 0 1
72.4418 0 1
72.5575 0 1
72.6732 0 1
75.1054 0 1
75.2209 0 1
75.3365 0 1
75.4521 0 1
75.5678 0 1
75.6835 0 1
75.7993 0 1
75.9151 0 1
76.031 0 1
76.147 1529 39.1024
76.263 1787 42.2729
76.3791 1746 41.7852
76.4952 1825 42.72
76.6113 1732 41.6173
76.7276 1781 42.2019
76.8438 1851 43.0232
76.9601 1900 43.589
77.0765 1797 42.391
77.1929 1929 43.9204
77.3093 1843 42.9302
77.4258 1824 42.7083
77.5423 1808 42.5206
77.6589 1794 42.3556
77.7755 1777 42.1545
77.8921 1798 42.4028
78.0088 1793 42.3438
78.1256 1769 42.0595
78.2423 1896 43.5431
78.3591 1829 42.7668
78.4759 1863 43.1625
78.5928 1825 42.72
78.7097 1651 40.6325
78.8266 1496 38.6782
78.9436 1317 36.2905
79.0606 1350 36.7423
79.1776 1628 40.3485
79.2946 1797 42.391
79.4117 1938 44.0227
79.5288 1907 43.6692
79.6459 1912 43.7264
79.7631 1922 43.8406
79.8802 1972 44.4072
79.9974 1909 43.6921
80.1147 1988 44.587
80.2319 1921 43.8292
80.3491 1879 43.3474
80.4664 1950 44.1588
80.5837 1980 44.4972
80.701 1982 44.5197
80.8183 2001 44.7325
80.9357 2101 45.8367
81.053 1974 44.4297
81.1704 2089 45.7056
81.2877 2032 45.0777
81.4051 1939 44.0341
81.5225 1998 44.699
81.6399 1925 43.8748
81.7573 2023 44.9778
81.8747 2063 45.4203
81.9922 2144 46.3033
82.1096 2259 47.5289
82.227 2327 48.239
82.3444 2259 47.5289
82.4619 2092 45.7384
82.5793 1952 44.1814
82.6967 1962 44.2945
82.8142 2402 49.0102
82.9316 2875 53.619
83.049 3106 55.7315
83.1664 3296 57.4108
83.2838 3456 58.7878
83.4012 3513 59.2706
83.5186 3550 59.5819
83.636 3733 61.0983
83.7534 3799 61.636
83.8708 3737 61.131
83.9881 3908 62.514
84.1055 3963 62.9524
84.2228 3932 62.7057
84.3401 4066 63.7652
84.4575 4005 63.2851
84.5747 3841 61.9758
84.692 3997 63.2218
84.8093 3936 62.7375
84.9265 3868 62.1932
85.0437 4075 63.8357
85.1609 3815 61.7657
85.2781 3952 62.8649
85.3952 3818 61.79
85.5123 3897 62.426
85.6294 3777 61.4573
85.7465 3845 62.0081
85.8636 3501 59.1692
85.9806 3078 55.4797
86.0976 2653 51.5073
86.2145 2444 49.4368
86.3315 2855 53.4322
86.4484 3546 59.5483
86.5652 3723 61.0164
86.682 3864 62.1611
86.7988 3804 61.6766
86.9156 3909 62.522
87.0323 3709 60.9016
87.149 3855 62.0886
87.2657 3958 62.9126
87.3823 3720 60.9918
87.4988 3723 61.0164
87.6154 3379 58.1292
87.7318 3020 54.9545
87.8483 2853 53.4135
87.9647 2745 52.3927
88.081 2768 52.6118
88.1973 2620 51.1859
88.3136 2540 50.3984
88.4298 2394 48.9285
88.546 2342 48.3942
88.6621 2139 46.2493
88.7781 2163 46.5081
88.8942 0 1
89.0101 0 1
89.126 0 1
89.2419 0 1
89.3577 0 1
89.4734 0 1
89.5891 0 1
89.7047 0 1
89.8203 0 1
89.9358 0 1
92.3269 0 1
92.4424 0 1
92.558 0 1
92.6736 0 1
92.7893 0 1
92.905 0 1
93.0208 0 1
93.1366 0 1
93.2525 0 1
93.3685 0 1
93.4845 0 1
93.6005 3926 62.6578
93.7167 4013 63.3482
93.8328 4028 63.4665
93.949 3987 63.1427
94.0653 4025 63.4429
94.1816 4033 63.5059
94.2979 3984 63.1189
94.4143 3921 62.6179
94.5307 4012 63.3404
94.6472 3977 63.0635
94.7637 3809 61.7171
94.8803 3646 60.3821
94.9969 3108 55.7494
95.1135 2739 52.3355
95.2302 2928 54.111
95.3469 3235 56.8771
95.4637 3600 60
95.5805 4102 64.0469
95.6973 4004 63.2772
95.8142 4087 63.9296
95.9311 4105 64.0703
96.048 4065 63.7574
96.1649 4046 63.6082
96.2819 4077 63.8514
96.3989 4205 64.846
96.516 4129 64.2573
96.633 4154 64.4515
96.7501 4050 63.6396
96.8673 4285 65.4599
96.9844 4216 64.9307
97.1016 4195 64.7688
97.2188 4201 64.8151
97.336 4113 64.1327
97.4532 4025 63.4429
97.5704 3931 62.6977
97.6877 3925 62.6498
97.805 4006 63.293
97.9223 3950 62.849
98.0396 3928 62.6738
98.1569 3755 61.2781
98.2743 3718 60.9754
98.3916 3471 58.9152
98.509 2978 54.5711
98.6264 2698 51.9423
98.7438 2573 50.7247
98.8612 2822 53.1225
98.9786 3097 55.6507
99.096 3100 55.6776
99.2134 3089 55.5788
99.3308 3030 55.0454
99.4482 2881 53.6749
99.5656 2756 52.4976
99.6831 2714 52.0961
99.8005 2663 51.6043
99.9179 2637 51.3517
100.035 2567 50.6656
100.153 2498 49.98
100.27 2492 49.9199
100.388 2586 50.8527
100.505 2717 52.1249
100.622 2729 52.2398
100.74 2745 52.3927
100.857 2637 51.3517
100.975 2620 51.1859
101.092 2528 50.2792
101.209 2605 51.0392
101.327 2627 51.2543
101.444 2563 50.6261
101.561 2692 51.8845
101.679 2492 49.9199
101.796 2610 51.0882
101.913 2490 49.8999
102.03 2334 48.3115
102.148 2074 45.5412
102.265 1938 44.0227
102.382 2116 46
102.499 2335 48.3218
102.616 2327 48.239
102.733 2372 48.7032
102.851 2467 49.6689
102.968 2402 49.0102
103.085 2431 49.3052
103.202 2369 48.6724
103.319 2317 48.1352
103.436 2331 48.2804
103.552 2420 49.1935
103.669 2414 49.1325
103.786 2390 48.8876
103.903 2326 48.2286
104.02 2348 48.4562
104.137 2348 48.4562
104.253 2450 49.4975
104.37 2344 48.4149
104.487 2350 48.4768
104.603 2258 47.5184
104.72 2175 46.6369
104.836 2084 45.6508
104.953 1809 42.5323
105.069 1786 42.2611
105.186 1501 38.7427
105.302 1410 37.55
105.418 1303 36.0971
105.535 1128 33.5857
105.651 1079 32.8481
105.767 916 30.2655
105.883 749 27.3679
105.999 732 27.0555
106.115 0 1
106.231 0 1
106.347 0 1
106.463 0 1
106.579 0 1
106.694 0 1
106.81 0 1
106.926 0 1
107.041 0 1
107.157 0 1
109.576 0 1
109.692 0 1
109.807 0 1
109.923 0 1
110.039 0 1
110.155 0 1
110.27 0 1
110.386 0 1
110.502 0 1
110.618 2345 48.4252
110.735 2488 49.8799
110.851 2320 48.1664
110.967 2141 46.2709
111.083 2159 46.465
111.199 2210 47.0106
111.316 2446 49.4571
111.432 2729 52.2398
111.549 2674 51.7107
111.665 2719 52.144
111.782 2688 51.8459
111.898 2464 49.6387
112.015 2617 51.1566
112.132 2654 51.517
112.248 2619 51.1762
112.365 2666 51.6333
112.482 2675 51.7204
112.599 2767 52.6023
112.716 2838 53.2729
112.832 2803 52.9434
112.949 2890 53.7587
113.066 2920 54.037
113.183 2992 54.6992
113.3 3024 54.9909
113.417 2865 53.5257
113.534 2923 54.0648
113.652 2819 53.0943
113.769 2920 54.037
113.886 2838 53.2729
114.003 2923 54.0648
114.12 2820 53.1037
114.238 2866 53.535
114.355 2774 52.6688
114.472 2308 48.0416
114.589 2249 47.4236
114.707 2330 48.2701
114.824 2614 51.1273
114.942 2678 51.7494
115.059 2784 52.7636
115.176 2716 52.1153
115.294 2753 52.469
115.411 2726 52.2111
115.529 2663 51.6043
115.646 2603 51.0196
115.764 2609 51.0784
115.881 2733 52.2781
115.999 2834 53.2353
116.116 2690 51.8652
116.234 2909 53.9351
116.351 2854 53.4228
116.469 2914 53.9815
116.586 2980 54.5894
116.704 3018 54.9363
116.821 3064 55.3534
116.939 2979 54.5802
117.056 3108 55.7494
117.174 2894 53.7959
117.291 2936 54.1849
117.409 2982 54.6077
117.526 3012 54.8817
117.644 2968 54.4794
117.761 2943 54.2494
117.879 2834 53.2353
117.996 2718 52.1344
118.114 2336 48.3322
118.231 2379 48.775
118.349 2406 49.051
118.466 2602 51.0098
118.584 2777 52.6972
118.701 2755 52.4881
118.819 2833 53.2259
118.936 2725 52.2015
119.053 2643 51.4101
119.171 2741 52.3546
119.288 2585 50.8429
119.405 2677 51.7397
119.523 2593 50.9215
119.64 2674 51.7107
119.757 2704 52
119.875 2639 51.3712
119.992 2718 52.1344
120.109 2766 52.5928
120.226 2821 53.1131
120.343 2882 53.6843
120.46 2923 54.0648
120.578 2887 53.7308
120.695 2748 52.4214
120.812 2737 52.3163
120.929 2702 51.9808
121.046 2679 51.7591
121.163 2801 52.9245
121.279 2702 51.9808
121.396 2584 50.8331
121.513 2559 50.5866
121.63 2386 48.8467
121.747 2201 46.9148
121.863 2003 44.7549
121.98 1876 43.3128
122.097 1875 43.3013
122.213 1868 43.2204
122.33 1991 44.6206
122.446 1918 43.795
122.563 1871 43.2551
122.679 1829 42.7668
122.795 1708 41.328
122.912 1616 40.1995
123.028 1648 40.5956
123.144 1607 40.0874
123.26 1591 39.8873
123.377 0 1
123.493 0 1
123.609 0 1
123.725 0 1
123.84 0 1
123.956 0 1
124.072 0 1
124.188 0 1
124.303 0 1
124.419 0 1
126.852 0 1
126.968 0 1
127.083 0 1
127.199 0 1
127.315 0 1
127.431 0 1
127.547 0 1
127.663 0 1
127.779 0 1
127.895 0 1
128.011 0 1
128.127 0 1
128.243 0 1
128.359 2994 54.7175
128.476 3192 56.4978
128.592 3239 56.9122
128.708 3127 55.9196
128.825 3080 55.4977
128.941 3162 56.2317
129.058 3264 57.1314
129.174 3291 57.3672
129.291 3412 58.4123
129.408 3406 58.3609
129.524 3559 59.6574
129.641 3508 59.2284
129.758 3769 61.3922
129.875 3676 60.63
129.992 3782 61.498
130.108 3773 61.4248
130.225 3830 61.887
130.342 3893 62.3939
130.459 3661 60.5062
130.576 3698 60.8112
130.693 3469 58.8982
130.81 3399 58.3009
130.928 3275 57.2276
131.045 3385 58.1808
131.162 3439 58.643
131.279 3583 59.8582
131.396 3580 59.8331
131.513 3666 60.5475
131.631 3650 60.4152
131.748 3708 60.8933
131.865 3530 59.4138
131.983 3524 59.3633
132.1 3463 58.8473
132.217 3547 59.5567
132.335 3531 59.4222
132.452 3475 58.9491
132.57 3527 59.3886
132.687 3343 57.8187
132.804 3554 59.6154
132.922 3652 60.4318
133.039 3697 60.803
133.157 3706 60.8769
133.274 3740 61.1555
133.392 3718 60.9754
133.509 3830 61.887
133.627 3873 62.2334
133.744 4019 63.3956
133.862 4045 63.6003
133.979 4124 64.2184
134.097 3933 62.7136
134.214 3820 61.8061
134.332 3716 60.959
134.449 3726 61.041
134.567 3792 61.5792
134.684 3926 62.6578
134.802 4014 63.3561
134.919 3870 62.2093
135.037 3963 62.9524
135.154 3871 62.2174
135.272 3889 62.3618
135.389 4010 63.3246
135.507 3930 62.6897
135.624 3866 62.1772
135.742 3711 60.918
135.859 3736 61.1228
135.977 3646 60.3821
136.094 3695 60.7865
136.211 3700 60.8276
136.329 3631 60.2578
136.446 3753 61.2617
136.564 3736 61.1228
136.681 3718 60.9754
136.798 3730 61.0737
136.915 3795 61.6036
137.033 3732 61.0901
137.15 3870 62.2093
137.267 3954 62.8808
137.384 3896 62.4179
137.502 3850 62.0484
137.619 3802 61.6604
137.736 3707 60.8851
137.853 3646 60.3821
137.97 3630 60.2495
138.087 3477 58.9661
138.204 3626 60.2163
138.321 3641 60.3407
138.438 3834 61.9193
138.555 3770 61.4003
138.672 3800 61.6441
138.788 3782 61.498
138.905 3661 60.5062
139.022 3639 60.3241
139.139 3509 59.2368
139.255 3286 57.3236
139.372 3169 56.2939
139.488 2939 54.2125
139.605 2782 52.7447
139.721 2758 52.5167
139.838 2664 51.614
139.954 2720 52.1536
140.071 2517 50.1697
140.187 2642 51.4004
140.303 2628 51.264
140.419 2677 51.7397
140.535 2668 51.6527
140.652 2778 52.7067
140.768 0 1
140.884 0 1
141 0 1
141.115 0 1
141.231 0 1
141.347 0 1
141.463 0 1
141.578 0 1
141.694 0 1
144.104 0 1
144.219 0 1
144.335 0 1
144.45 0 1
144.566 0 1
144.682 0 1
144.798 0 1
144.914 0 1
145.03 0 1
145.146 8074 89.8554
145.262 8208 90.598
145.378 8219 90.6587
145.494 8330 91.2688
145.61 8437 91.8531
145.726 8529 92.3526
145.842 8404 91.6733
145.959 8657 93.043
146.075 8630 92.8978
146.192 8519 92.2984
146.308 8440 91.8695
146.425 8254 90.8515
146.541 7572 87.0172
146.658 6573 81.074
146.774 5851 76.4918
146.891 5400 73.4847
147.008 6098 78.0897
147.125 7185 84.7644
147.241 7995 89.4148
147.358 8416 91.7388
147.475 8258 90.8735
147.592 8437 91.8531
147.709 8366 91.4658
147.826 8340 91.3236
147.943 8309 91.1537
148.06 8595 92.7092
148.177 8502 92.2063
148.294 8623 92.8601
148.411 8434 91.8368
148.528 8538 92.4013
148.645 8598 92.7254
148.762 8468 92.0217
148.88 8708 93.3167
148.997 8203 90.5704
149.114 8800 93.8083
149.231 8543 92.4284
149.349 8864 94.1488
149.466 8571 92.5797
149.583 8746 93.5201
149.701 8634 92.9193
149.818 8657 93.043
149.935 8725 93.4077
150.053 8745 93.5147
150.17 8427 91.7987
150.287 7451 86.3192
150.405 6379 79.8686
150.522 5740 75.7628
150.64 6188 78.6638
150.757 7275 85.2936
150.875 8184 90.4655
150.992 8686 93.1987
151.11 8396 91.6297
151.227 8563 92.5365
151.344 8423 91.7769
151.462 8290 91.0494
151.579 8411 91.7115
151.697 8651 93.0108
151.814 8641 92.957
151.932 8609 92.7847
152.049 8714 93.3488
152.167 8712 93.3381
152.284 8550 92.4662
152.402 8705 93.3006
152.519 8787 93.739
152.636 8937 94.5357
152.754 8710 93.3274
152.871 8978 94.7523
152.989 8920 94.4458
153.106 9234 96.0937
153.223 9104 95.4149
153.341 9306 96.4676
153.458 9162 95.7183
153.575 9219 96.0156
153.693 9175 95.7862
153.81 8609 92.7847
153.927 7659 87.5157
154.044 6814 82.547
154.162 6149 78.4156
154.279 6585 81.148
154.396 7704 87.7724
154.513 8513 92.2659
154.63 8759 93.5895
154.747 8869 94.1754
154.864 8653 93.0215
154.981 8751 93.5468
155.098 8555 92.4932
155.215 8456 91.9565
155.332 8305 91.1318
155.449 8480 92.0869
155.566 8040 89.666
155.683 7904 88.9044
155.8 7845 88.572
155.917 7777 88.1873
156.033 7519 86.7122
156.15 0 1
156.267 0 1
156.383 0 1
156.5 0 1
156.617 0 1
156.733 0 1
156.85 0 1
156.966 0 1
157.082 0 1
157.199 0 1
157.315 0 1
157.431 0 1
157.547 0 1
157.664 0 1
157.78 0 1
157.896 0 1
158.012 0 1
158.128 0 1
158.244 0 1
158.359 0 1
158.475 0 1
158.591 0 1
158.706 0 1
