
6.15755 0 1
6.2731 0 1
6.3887 0 1
6.50437 0 1
6.62009 0 1
6.73587 0 1
6.8517 0 1
6.96759 0 1
7.08353 0 1
7.19952 0 1
7.31557 0 1
7.43166 0 1
7.54781 0 1
7.664 0 1
7.78024 0 1
7.89653 0 1
8.01286 0 1
8.12924 0 1
8.24567 0 1
8.36213 0 1
8.47864 0 1
8.59519 0 1
8.71178 0 1
8.82841 0 1
8.94508 0 1
9.06179 0 1
9.17853 0 1
9.29531 0 1
9.41212 0 1
9.52897 0 1
9.64584 0 1
9.76276 0 1
9.8797 0 1
9.99667 0 1
10.1137 0 1
10.2307 0 1
10.3478 0 1
10.4648 0 1
10.5819 0 1
10.6991 0 1
10.8162 0 1
10.9334 0 1
11.0506 0 1
11.1678 0 1
11.285 0 1
11.4023 0 1
11.5196 0 1
11.6369 0 1
11.7542 0 1
11.8715 0 1
11.9888 0 1
12.1062 0 1
12.2235 0 1
12.3409 0 1
12.4582 0 1
12.5756 0 1
12.693 0 1
12.8104 0 1
12.9278 0 1
13.0452 0 1
13.1626 0 1
13.28 0 1
13.3974 0 1
13.5149 0 1
13.6323 0 1
13.7497 0 1
13.8671 0 1
13.9845 0 1
14.1019 0 1
14.2193 0 1
14.3367 0 1
14.4541 0 1
14.5714 0 1
14.6888 0 1
14.8062 0 1
14.9235 0 1
15.0408 927 30.4467
15.1581 938 30.6268
15.2755 945 30.7409
15.3927 960 30.9839
15.51 1018 31.9061
15.6273 939 30.6431
15.7445 996 31.5595
15.8617 962 31.0161
15.9789 941 30.6757
16.0961 950 30.8221
16.2132 987 31.4166
16.3304 1048 32.3728
16.4475 1063 32.6037
16.5646 1069 32.6956
16.6816 1084 32.9242
16.7986 1096 33.1059
16.9156 1106 33.2566
17.0326 1100 33.1662
17.1496 1090 33.0151
17.2665 1108 33.2866
17.3833 1032 32.1248
17.5002 1058 32.5269
17.617 1117 33.4215
17.7338 1191 34.5109
17.8505 1125 33.541
17.9672 1213 34.8281
18.0839 1209 34.7707
18.2005 1189 34.4819
18.3171 1165 34.1321
18.4337 1252 35.3836
18.5502 1312 36.2215
18.6666 1216 34.8712
18.7831 1353 36.7831
18.8994 1324 36.3868
19.0158 1253 35.3977
19.1321 1135 33.6898
19.2483 1158 34.0294
19.3645 1155 33.9853
19.4806 1138 33.7343
19.5967 1286 35.8608
19.7128 1185 34.4238
19.8288 1260 35.4965
19.9447 1120 33.4664
20.0606 0 1
20.1764 0 1
20.2922 0 1
20.4079 0 1
20.5236 0 1
20.6392 0 1
20.7548 0 1
20.8702 0 1
23.3078 0 1
23.4233 0 1
23.539 0 1
23.6547 0 1
23.7704 0 1
23.8862 0 1
24.0021 0 1
24.118 0 1
24.234 0 1
24.35 0 1
24.4661 1148 33.8821
24.5822 1196 34.5832
24.6984 1302 36.0832
24.8146 1208 34.7563
24.9309 1265 35.5668
25.0472 1374 37.0675
25.1636 1387 37.2424
25.28 1382 37.1753
25.3965 1429 37.8021
25.513 1356 36.8239
25.6296 1334 36.524
25.7462 1340 36.606
25.8628 1333 36.5103
25.9795 1365 36.9459
26.0962 1363 36.9188
26.213 1356 36.8239
26.3298 1426 37.7624
26.4466 1377 37.108
26.5635 1435 37.8814
26.6804 1451 38.092
26.7973 1489 38.5876
26.9143 1497 38.6911
27.0313 1576 39.6989
27.1483 1523 39.0256
27.2653 1607 40.0874
27.3824 1571 39.6358
27.4996 1564 39.5474
27.6167 1469 38.3275
27.7339 1433 37.855
27.8511 1401 37.4299
27.9683 1341 36.6197
28.0855 1364 36.9324
28.2028 1292 35.9444
28.3201 1307 36.1525
28.4374 1333 36.5103
28.5547 1371 37.027
28.6721 1491 38.6135
28.7894 1549 39.3573
28.9068 1519 38.9744
29.0242 1510 38.8587
29.1416 1360 36.8782
29.259 1359 36.8646
29.3764 1304 36.1109
29.4939 1271 35.6511
29.6113 1346 36.6879
29.7288 1301 36.0694
29.8463 1385 37.2156
29.9638 1485 38.5357
30.0812 1442 37.9737
30.1987 1530 39.1152
30.3162 1509 38.8458
30.4337 1578 39.724
30.5512 1558 39.4715
30.6687 1557 39.4588
30.7862 1625 40.3113
30.9037 1578 39.724
31.0212 1583 39.7869
31.1387 1531 39.128
31.2562 1520 38.9872
31.3737 1538 39.2173
31.4912 1404 37.47
31.6087 1399 37.4032
31.7262 1396 37.3631
31.8436 1370 37.0135
31.9611 1416 37.6298
32.0785 1478 38.4448
32.1959 1543 39.281
32.3134 1536 39.1918
32.4308 1547 39.3319
32.5482 1590 39.8748
32.6655 1482 38.4968
32.7829 1383 37.1887
32.9002 1380 37.1484
33.0176 1351 36.756
33.1349 1446 38.0263
33.2522 1352 36.7696
33.3694 1378 37.1214
33.4867 1410 37.55
33.6039 1465 38.2753
33.7211 1493 38.6394
33.8383 1540 39.2428
33.9554 1572 39.6485
34.0725 1634 40.4228
34.1896 1691 41.1218
34.3067 1585 39.8121
34.4237 1664 40.7922
34.5407 1678 40.9634
34.6577 1634 40.4228
34.7746 1672 40.8901
34.8915 1565 39.5601
35.0084 1534 39.1663
35.1252 1535 39.1791
35.242 1428 37.7889
35.3587 1414 37.6032
35.4755 1382 37.1753
35.5921 1482 38.4968
35.7088 1500 38.7298
35.8254 1457 38.1707
35.9419 1538 39.2173
36.0584 1547 39.3319
36.1749 1626 40.3237
36.2913 1506 38.8072
36.4077 1492 38.6264
36.524 1364 36.9324
36.6403 1381 37.1618
36.7565 1344 36.6606
36.8727 1332 36.4966
36.9889 1421 37.6962
37.1049 1352 36.7696
37.221 0 1
37.3369 0 1
37.4529 0 1
37.5687 0 1
37.6845 0 1
37.8003 0 1
37.916 0 1
38.0316 0 1
38.1472 0 1
40.5851 0 1
40.7008 0 1
40.8164 0 1
40.9322 0 1
41.048 0 1
41.1639 0 1
41.2798 0 1
41.3958 0 1
41.5118 0 1
41.6279 0 1
41.744 1202 34.6699
41.8602 1185 34.4238
41.9765 1173 34.2491
42.0928 1203 34.6843
42.2091 1219 34.9142
42.3255 1230 35.0714
42.4419 1258 35.4683
42.5584 1338 36.5787
42.675 1416 37.6298
42.7915 1408 37.5233
42.9081 1486 38.5487
43.0248 1479 38.4578
43.1415 1469 38.3275
43.2582 1505 38.7943
43.375 1449 38.0657
43.4918 1552 39.3954
43.6087 1446 38.0263
43.7256 1385 37.2156
43.8425 1425 37.7492
43.9595 1414 37.6032
44.0765 1321 36.3456
44.1935 1279 35.7631
44.3106 1270 35.6371
44.4277 1264 35.5528
44.5448 1275 35.7071
44.6619 1220 34.9285
44.7791 1344 36.6606
44.8963 1264 35.5528
45.0136 1345 36.6742
45.1308 1221 34.9428
45.2481 1169 34.1906
45.3654 1156 34
45.4827 1047 32.3574
45.6001 1049 32.3883
45.7174 1086 32.9545
45.8348 1101 33.1813
45.9522 1082 32.8938
46.0697 1157 34.0147
46.1871 1106 33.2566
46.3046 1218 34.8999
46.422 1230 35.0714
46.5395 1292 35.9444
46.657 1272 35.6651
46.7745 1294 35.9722
46.892 1230 35.0714
47.0096 1287 35.8748
47.1271 1246 35.2987
47.2446 1201 34.6554
47.3622 1181 34.3657
47.4797 1175 34.2783
47.5973 1141 33.7787
47.7149 1110 33.3167
47.8324 1072 32.7414
47.95 1025 32.0156
48.0675 1085 32.9393
48.1851 1132 33.6452
48.3027 1103 33.2114
48.4202 1135 33.6898
48.5378 1149 33.8969
48.6554 1016 31.8748
48.7729 937 30.6105
48.8904 894 29.8998
49.008 899 29.9833
49.1255 824 28.7054
49.243 849 29.1376
49.3605 900 30
49.478 972 31.1769
49.5955 967 31.0966
49.713 1062 32.5883
49.8304 1104 33.2265
49.9479 1071 32.7261
50.0653 1165 34.1321
50.1827 1180 34.3511
50.3001 1234 35.1283
50.4175 1223 34.9714
50.5348 1254 35.4119
50.6521 1154 33.9706
50.7694 1204 34.6987
50.8867 1189 34.4819
51.004 1196 34.5832
51.1212 1248 35.327
51.2384 1177 34.3074
51.3556 1131 33.6303
51.4727 1226 35.0143
51.5899 1190 34.4964
51.707 1303 36.0971
51.824 1311 36.2077
51.9411 1391 37.2961
52.0581 1383 37.1887
52.175 1377 37.108
52.2919 1285 35.8469
52.4088 1246 35.2987
52.5257 1190 34.4964
52.6425 1263 35.5387
52.7593 1240 35.2136
52.876 1179 34.3366
52.9927 1298 36.0278
53.1094 1372 37.0405
53.226 1477 38.4318
53.3426 1565 39.5601
53.4591 1603 40.0375
53.5756 1700 41.2311
53.692 1818 42.638
53.8084 1797 42.391
53.9248 1794 42.3556
54.0411 1828 42.7551
54.1573 1820 42.6615
54.2735 0 1
54.3896 0 1
54.5057 0 1
54.6217 0 1
54.7377 0 1
54.8537 0 1
54.9695 0 1
55.0853 0 1
55.2011 0 1
55.3168 0 1
55.4324 0 1
57.824 0 1
57.9396 0 1
58.0553 0 1
58.1711 0 1
58.2869 0 1
58.4028 0 1
58.5187 0 1
58.6347 0 1
58.7508 0 1
58.8669 0 1
58.983 2112 45.9565
59.0992 2098 45.8039
59.2155 2166 46.5403
59.3318 2206 46.9681
59.4482 2126 46.1086
59.5646 2081 45.618
59.681 2093 45.7493
59.7975 2099 45.8148
59.9141 2060 45.3872
60.0306 2032 45.0777
60.1473 2069 45.4863
60.2639 2032 45.0777
60.3807 1890 43.4741
60.4974 1943 44.0795
60.6142 2019 44.9333
60.731 1935 43.9886
60.8479 1832 42.8019
60.9648 1748 41.8091
61.0818 1589 39.8623
61.1987 1608 40.0999
61.3158 1570 39.6232
61.4328 1574 39.6737
61.5499 1688 41.0853
61.667 1690 41.1096
61.7841 1853 43.0465
61.9013 1889 43.4626
62.0185 1925 43.8748
62.1357 2055 45.3321
62.253 2100 45.8258
62.3702 2118 46.0217
62.4875 2072 45.5192
62.6049 2168 46.5618
62.7222 2098 45.8039
62.8396 2159 46.465
62.9569 2129 46.1411
63.0743 2068 45.4753
63.1918 2033 45.0888
63.3092 1995 44.6654
63.4267 2004 44.7661
63.5441 1845 42.9535
63.6616 1880 43.359
63.7791 1920 43.8178
63.8966 1929 43.9204
64.0142 1972 44.4072
64.1317 1955 44.2154
64.2492 1835 42.8369
64.3668 1785 42.2493
64.4843 1652 40.6448
64.6019 1654 40.6694
64.7195 1523 39.0256
64.837 1458 38.1838
64.9546 1433 37.855
65.0722 1446 38.0263
65.1898 1600 40
65.3074 1789 42.2966
65.4249 1723 41.509
65.5425 1891 43.4856
65.6601 1969 44.3734
65.7777 2020 44.9444
65.8952 2081 45.618
66.0128 2170 46.5833
66.1304 2024 44.9889
66.2479 2087 45.6837
66.3655 2143 46.2925
66.483 2135 46.2061
66.6005 2123 46.076
66.718 2109 45.9239
66.8355 2132 46.1736
66.953 2003 44.7549
67.0705 2022 44.9667
67.1879 1990 44.6094
67.3054 2024 44.9889
67.4228 2069 45.4863
67.5402 1994 44.6542
67.6576 2034 45.0999
67.7749 2076 45.5631
67.8923 2028 45.0333
68.0096 1918 43.795
68.1269 1688 41.0853
68.2442 1760 41.9524
68.3614 1525 39.0512
68.4787 1550 39.37
68.5958 1649 40.6079
68.713 1616 40.1995
68.8302 1739 41.7013
68.9473 1851 43.0232
69.0643 1946 44.1135
69.1814 2141 46.2709
69.2984 2226 47.1805
69.4154 2389 48.8774
69.5323 2418 49.1732
69.6492 2503 50.03
69.7661 2458 49.5782
69.8829 2500 50
69.9997 2580 50.7937
70.1165 2521 50.2096
70.2332 2580 50.7937
70.3499 2551 50.5074
70.4665 2554 50.5371
70.5831 2539 50.3885
70.6996 2439 49.3862
70.8161 2388 48.8672
70.9326 2453 49.5278
71.049 2404 49.0306
71.1653 2368 48.6621
71.2817 2525 50.2494
71.3979 2414 49.1325
71.5141 2329 48.2597
71.6303 2228 47.2017
71.7464 1834 42.8252
71.8624 0 1
71.9784 0 1
72.0944 0 1
72.2102 0 1
72.3261 0 1
72.4418 0 1
72.5575 0 1
72.6732 0 1
75.1054 0 1
75.2209 0 1
75.3365 0 1
75.4521 0 1
75.5678 0 1
75.6835 0 1
75.7993 0 1
75.9151 0 1
76.031 0 1
76.147 2457 49.5681
76.263 2551 50.5074
76.3791 2664 51.614
76.4952 2680 51.7687
76.6113 2847 53.3573
76.7276 2808 52.9906
76.8438 2694 51.9038
76.9601 2510 50.0999
77.0765 2331 48.2804
77.1929 2188 46.7761
77.3093 2001 44.7325
77.4258 1917 43.7836
77.5423 1919 43.8064
77.6589 1887 43.4396
77.7755 2049 45.2659
77.8921 2338 48.3529
78.0088 2473 49.7293
78.1256 2644 51.4198
78.2423 2825 53.1507
78.3591 2954 54.3507
78.4759 3039 55.1271
78.5928 3044 55.1725
78.7097 3024 54.9909
78.8266 2995 54.7266
78.9436 3123 55.8838
79.0606 3093 55.6147
79.1776 2936 54.1849
79.2946 2957 54.3783
79.4117 2980 54.5894
79.5288 3021 54.9636
79.6459 2928 54.111
79.7631 2859 53.4696
79.8802 2691 51.8748
79.9974 2763 52.5642
80.1147 2819 53.0943
80.2319 2931 54.1387
80.3491 2957 54.3783
80.4664 2872 53.591
80.5837 2821 53.1131
80.701 2544 50.4381
80.8183 2325 48.2183
80.9357 2092 45.7384
81.053 1894 43.5201
81.1704 1863 43.1625
81.2877 1874 43.2897
81.4051 1988 44.587
81.5225 2077 45.5741
81.6399 2416 49.1528
81.7573 2604 51.0294
81.8747 2772 52.6498
81.9922 2897 53.8238
82.1096 2971 54.5069
82.227 2956 54.3691
82.3444 3076 55.4617
82.4619 3017 54.9272
82.5793 3027 55.0182
82.6967 2968 54.4794
82.8142 2961 54.4151
82.9316 2878 53.647
83.049 3000 54.7723
83.1664 2819 53.0943
83.2838 2657 51.5461
83.4012 2632 51.303
83.5186 2676 51.7301
83.636 2780 52.7257
83.7534 2805 52.9623
83.8708 2774 52.6688
83.9881 2779 52.7162
84.1055 2806 52.9717
84.2228 2649 51.4684
84.3401 2438 49.3761
84.4575 2256 47.4974
84.5747 2011 44.8442
84.692 1882 43.382
84.8093 1884 43.4051
84.9265 1822 42.6849
85.0437 1989 44.5982
85.1609 2175 46.6369
85.2781 2472 49.7192
85.3952 2766 52.5928
85.5123 2915 53.9907
85.6294 3075 55.4527
85.7465 3217 56.7186
85.8636 3279 57.2626
85.9806 3253 57.0351
86.0976 3259 57.0877
86.2145 3480 58.9915
86.3315 3558 59.649
86.4484 3344 57.8273
86.5652 3395 58.2666
86.682 3398 58.2924
86.7988 3427 58.5406
86.9156 3550 59.5819
87.0323 3440 58.6515
87.149 3441 58.66
87.2657 3446 58.7026
87.3823 3557 59.6406
87.4988 3566 59.716
87.6154 3748 61.2209
87.7318 3721 61
87.8483 3369 58.0431
87.9647 3105 55.7225
88.081 2883 53.6936
88.1973 2638 51.3615
88.3136 2463 49.6286
88.4298 2430 49.295
88.546 2482 49.8197
88.6621 2661 51.5849
88.7781 3073 55.4346
88.8942 0 1
89.0101 0 1
89.126 0 1
89.2419 0 1
89.3577 0 1
89.4734 0 1
89.5891 0 1
89.7047 0 1
89.8203 0 1
89.9358 0 1
92.3269 0 1
92.4424 0 1
92.558 0 1
92.6736 0 1
92.7893 0 1
92.905 0 1
93.0208 0 1
93.1366 0 1
93.2525 0 1
93.3685 0 1
93.4845 0 1
93.6005 2719 52.144
93.7167 2699 51.9519
93.8328 2704 52
93.949 2774 52.6688
94.0653 3036 55.0999
94.1816 3451 58.7452
94.2979 3616 60.1332
94.4143 3884 62.3217
94.5307 4191 64.7379
94.6472 4296 65.5439
94.7637 4276 65.3911
94.8803 4461 66.7907
94.9969 4300 65.5744
95.1135 4565 67.5648
95.2302 4499 67.0746
95.3469 4522 67.2458
95.4637 4485 66.9701
95.5805 4448 66.6933
95.6973 4315 65.6887
95.8142 4489 67
95.9311 4463 66.8057
96.048 4361 66.0379
96.1649 4374 66.1362
96.2819 4313 65.6734
96.3989 4415 66.4455
96.516 4357 66.0076
96.633 4343 65.9014
96.7501 4341 65.8863
96.8673 4363 66.053
96.9844 3954 62.8808
97.1016 3677 60.6383
97.2188 3539 59.4895
97.336 3079 55.4887
97.4532 2848 53.3667
97.5704 2835 53.2447
97.6877 2884 53.7029
97.805 2978 54.5711
97.9223 3469 58.8982
98.0396 3694 60.7783
98.1569 3969 63
98.2743 4126 64.2339
98.3916 4410 66.4078
98.509 4415 66.4455
98.6264 4513 67.1789
98.7438 4656 68.2349
98.8612 4759 68.9855
98.9786 4839 69.5629
99.096 4639 68.1102
99.2134 4530 67.3053
99.3308 4628 68.0294
99.4482 4590 67.7495
99.5656 4598 67.8086
99.6831 4541 67.3869
99.8005 4542 67.3944
99.9179 4381 66.1891
100.035 4403 66.3551
100.153 4507 67.1342
100.27 4547 67.4314
100.388 4591 67.7569
100.505 4365 66.0681
100.622 4030 63.4823
100.74 3795 61.6036
100.857 3412 58.4123
100.975 3145 56.0803
101.092 2949 54.3047
101.209 2870 53.5724
101.327 3035 55.0908
101.444 3282 57.2887
101.561 3645 60.3738
101.679 3947 62.8252
101.796 4277 65.3988
101.913 4534 67.335
102.03 4647 68.1689
102.148 4699 68.5493
102.265 4696 68.5274
102.382 4906 70.0428
102.499 4782 69.152
102.616 4837 69.5485
102.733 4977 70.5479
102.851 4882 69.8713
102.968 4766 69.0362
103.085 5005 70.746
103.202 4719 68.695
103.319 4646 68.1616
103.436 4635 68.0808
103.552 4642 68.1322
103.669 4765 69.029
103.786 4816 69.3974
103.903 4878 69.8427
104.02 4674 68.3667
104.137 4499 67.0746
104.253 4138 64.3273
104.37 3816 61.7738
104.487 3422 58.4979
104.603 3318 57.6021
104.72 3145 56.0803
104.836 3283 57.2975
104.953 3603 60.025
105.069 3802 61.6604
105.186 4183 64.6761
105.302 4517 67.2086
105.418 4798 69.2676
105.535 4941 70.2922
105.651 5105 71.4493
105.767 5147 71.7426
105.883 5226 72.2911
105.999 5117 71.5332
106.115 0 1
106.231 0 1
106.347 0 1
106.463 0 1
106.579 0 1
106.694 0 1
106.81 0 1
106.926 0 1
107.041 0 1
107.157 0 1
109.576 0 1
109.692 0 1
109.807 0 1
109.923 0 1
110.039 0 1
110.155 0 1
110.27 0 1
110.386 0 1
110.502 0 1
110.618 4644 68.1469
110.735 4659 68.2569
110.851 4729 68.7677
110.967 4763 69.0145
111.083 4703 68.5784
111.199 4803 69.3037
111.316 4665 68.3008
111.432 4864 69.7424
111.549 4794 69.2387
111.665 4832 69.5126
111.782 4552 67.4685
111.898 4569 67.5944
112.015 4481 66.9403
112.132 4608 67.8823
112.248 4762 69.0072
112.365 4689 68.4763
112.482 4360 66.0303
112.599 4285 65.4599
112.716 3844 62
112.832 3692 60.7618
112.949 3300 57.4456
113.066 3125 55.9017
113.183 2999 54.7631
113.3 2955 54.3599
113.417 3099 55.6687
113.534 3333 57.7321
113.652 3665 60.5392
113.769 3986 63.1348
113.886 4208 64.8691
114.003 4619 67.9632
114.12 4502 67.0969
114.238 4414 66.4379
114.355 4507 67.1342
114.472 4517 67.2086
114.589 4462 66.7982
114.707 4439 66.6258
114.824 4387 66.2344
114.942 4331 65.8103
115.059 4581 67.6831
115.176 4446 66.6783
115.294 4441 66.6408
115.411 4323 65.7495
115.529 4391 66.2646
115.646 4425 66.5207
115.764 4512 67.1714
115.881 4334 65.8331
115.999 4396 66.3023
116.116 4282 65.437
116.234 3941 62.7774
116.351 3769 61.3922
116.469 3543 59.5231
116.586 3255 57.0526
116.704 3075 55.4527
116.821 2920 54.037
116.939 3016 54.9181
117.056 3113 55.7943
117.174 3338 57.7754
117.291 3555 59.6238
117.409 3838 61.9516
117.526 4043 63.5846
117.644 4321 65.7343
117.761 4365 66.0681
117.879 4319 65.7191
117.996 4414 66.4379
118.114 4494 67.0373
118.231 4387 66.2344
118.349 4185 64.6916
118.466 4304 65.6049
118.584 4221 64.9692
118.701 4399 66.325
118.819 4387 66.2344
118.936 4206 64.8537
119.053 4066 63.7652
119.171 4186 64.6993
119.288 4107 64.0859
119.405 4169 64.5678
119.523 4219 64.9538
119.64 4233 65.0615
119.757 4138 64.3273
119.875 3787 61.5386
119.992 3607 60.0583
120.109 3396 58.2752
120.226 3280 57.2713
120.343 2955 54.3599
120.46 2863 53.507
120.578 2853 53.4135
120.695 3037 55.109
120.812 3186 56.4447
120.929 3464 58.8558
121.046 3520 59.3296
121.163 3816 61.7738
121.279 3950 62.849
121.396 3929 62.6817
121.513 4112 64.1249
121.63 4211 64.8922
121.747 4161 64.5058
121.863 4235 65.0769
121.98 4057 63.6946
122.097 4060 63.7181
122.213 4073 63.8201
122.33 4112 64.1249
122.446 3994 63.1981
122.563 3834 61.9193
122.679 3943 62.7933
122.795 3950 62.849
122.912 3902 62.466
123.028 3828 61.8708
123.144 3905 62.49
123.26 3961 62.9365
123.377 0 1
123.493 0 1
123.609 0 1
123.725 0 1
123.84 0 1
123.956 0 1
124.072 0 1
124.188 0 1
124.303 0 1
124.419 0 1
126.852 0 1
126.968 0 1
127.083 0 1
127.199 0 1
127.315 0 1
127.431 0 1
127.547 0 1
127.663 0 1
127.779 0 1
127.895 0 1
128.011 0 1
128.127 0 1
128.243 0 1
128.359 4213 64.9076
128.476 4346 65.9242
128.592 4173 64.5988
128.708 3996 63.2139
128.825 3912 62.546
128.941 3783 61.5061
129.058 3610 60.0833
129.174 3254 57.0438
129.291 3205 56.6127
129.408 3146 56.0892
129.524 3178 56.3738
129.641 3237 56.8946
129.758 3471 58.9152
129.875 3729 61.0655
129.992 3883 62.3137
130.108 3971 63.0159
130.225 4106 64.0781
130.342 4198 64.792
130.459 4075 63.8357
130.576 4244 65.146
130.693 4098 64.0156
130.81 4079 63.867
130.928 4032 63.498
131.045 4134 64.2962
131.162 4278 65.4064
131.279 4168 64.56
131.396 4176 64.622
131.513 4140 64.3428
131.631 4088 63.9375
131.748 4173 64.5988
131.865 4185 64.6916
131.983 4134 64.2962
132.1 4136 64.3117
132.217 3886 62.3378
132.335 3918 62.5939
132.452 3765 61.3596
132.57 3510 59.2453
132.687 3381 58.1464
132.804 3272 57.2014
132.922 3135 55.9911
133.039 3110 55.7674
133.157 3190 56.4801
133.274 3412 58.4123
133.392 3369 58.0431
133.509 3734 61.1065
133.627 3821 61.8142
133.744 3955 62.8888
133.862 3925 62.6498
133.979 3933 62.7136
134.097 4078 63.8592
134.214 3838 61.9516
134.332 3918 62.5939
134.449 3729 61.0655
134.567 3843 61.9919
134.684 3897 62.426
134.802 4071 63.8044
134.919 4044 63.5925
135.037 4066 63.7652
135.154 3806 61.6928
135.272 3912 62.546
135.389 3983 63.111
135.507 4111 64.1171
135.624 4045 63.6003
135.742 4029 63.4744
135.859 3921 62.6179
135.977 3807 61.7009
136.094 3575 59.7913
136.211 3580 59.8331
136.329 3253 57.0351
136.446 3147 56.0981
136.564 3206 56.6216
136.681 3096 55.6417
136.798 3192 56.4978
136.915 3204 56.6039
137.033 3333 57.7321
137.15 3463 58.8473
137.267 3661 60.5062
137.384 3800 61.6441
137.502 3758 61.3025
137.619 3788 61.5467
137.736 3812 61.7414
137.853 3761 61.327
137.97 3789 61.5549
138.087 3547 59.5567
138.204 3529 59.4054
138.321 3611 60.0916
138.438 3785 61.5224
138.555 3976 63.0555
138.672 3938 62.7535
138.788 3809 61.7171
138.905 3823 61.8304
139.022 3892 62.3859
139.139 3876 62.2575
139.255 3804 61.6766
139.372 3953 62.8729
139.488 3733 61.0983
139.605 3690 60.7454
139.721 3579 59.8247
139.838 3459 58.8133
139.954 3257 57.0701
140.071 3109 55.7584
140.187 3072 55.4256
140.303 3108 55.7494
140.419 3079 55.4887
140.535 3120 55.857
140.652 3262 57.1139
140.768 0 1
140.884 0 1
141 0 1
141.115 0 1
141.231 0 1
141.347 0 1
141.463 0 1
141.578 0 1
141.694 0 1
144.104 0 1
144.219 0 1
144.335 0 1
144.45 0 1
144.566 0 1
144.682 0 1
144.798 0 1
144.914 0 1
145.03 0 1
145.146 2139 46.2493
145.262 2353 48.5077
145.378 2416 49.1528
145.494 2553 50.5272
145.61 2586 50.8527
145.726 2645 51.4296
145.842 2751 52.45
145.959 2766 52.5928
146.075 2802 52.9339
146.192 2865 53.5257
146.308 2967 54.4702
146.425 2952 54.3323
146.541 2958 54.3875
146.658 2855 53.4322
146.774 2794 52.8583
146.891 2689 51.8556
147.008 2787 52.792
147.125 2823 53.1319
147.241 2968 54.4794
147.358 3019 54.9454
147.475 2923 54.0648
147.592 2973 54.5252
147.709 2999 54.7631
147.826 3009 54.8544
147.943 3046 55.1906
148.06 3080 55.4977
148.177 3050 55.2268
148.294 2881 53.6749
148.411 2937 54.1941
148.528 2758 52.5167
148.645 2696 51.923
148.762 2667 51.643
148.88 2684 51.8073
148.997 2474 49.7393
149.114 2691 51.8748
149.231 2623 51.2152
149.349 2649 51.4684
149.466 2705 52.0096
149.583 2663 51.6043
149.701 2785 52.7731
149.818 2858 53.4603
149.935 2850 53.3854
150.053 2884 53.7029
150.17 2808 52.9906
150.287 2938 54.2033
150.405 2829 53.1883
150.522 2838 53.2729
150.64 2820 53.1037
150.757 2875 53.619
150.875 2844 53.3292
150.992 2946 54.2771
151.11 3051 55.2359
151.227 2988 54.6626
151.344 2999 54.7631
151.462 3001 54.7814
151.579 3093 55.6147
151.697 3177 56.3649
151.814 2985 54.6352
151.932 3107 55.7405
152.049 3019 54.9454
152.167 2898 53.8331
152.284 2791 52.8299
152.402 2721 52.1632
152.519 2656 51.5364
152.636 2679 51.7591
152.754 2588 50.8724
152.871 2648 51.4587
152.989 2733 52.2781
153.106 2727 52.2207
153.223 2819 53.0943
153.341 2818 53.0848
153.458 2877 53.6377
153.575 2851 53.3948
153.693 2939 54.2125
153.81 2921 54.0463
153.927 2950 54.3139
154.044 2939 54.2125
154.162 2990 54.6809
154.279 2860 53.479
154.396 2921 54.0463
154.513 2977 54.5619
154.63 3113 55.7943
154.747 3227 56.8067
154.864 3024 54.9909
154.981 3249 57
155.098 3200 56.5685
155.215 3158 56.1961
155.332 3204 56.6039
155.449 3136 56
155.566 3007 54.8361
155.683 2951 54.3231
155.8 2998 54.754
155.917 2912 53.963
156.033 2856 53.4416
156.15 0 1
156.267 0 1
156.383 0 1
156.5 0 1
156.617 0 1
156.733 0 1
156.85 0 1
156.966 0 1
157.082 0 1
157.199 0 1
157.315 0 1
157.431 0 1
157.547 0 1
157.664 0 1
157.78 0 1
157.896 0 1
158.012 0 1
158.128 0 1
158.244 0 1
158.359 0 1
158.475 0 1
158.591 0 1
158.706 0 1
