
6.15755 0 1
6.2731 0 1
6.3887 0 1
6.50437 0 1
6.62009 0 1
6.73587 0 1
6.8517 0 1
6.96759 0 1
7.08353 0 1
7.19952 0 1
7.31557 0 1
7.43166 0 1
7.54781 0 1
7.664 0 1
7.78024 0 1
7.89653 0 1
8.01286 0 1
8.12924 0 1
8.24567 0 1
8.36213 0 1
8.47864 0 1
8.59519 0 1
8.71178 0 1
8.82841 0 1
8.94508 0 1
9.06179 0 1
9.17853 0 1
9.29531 0 1
9.41212 0 1
9.52897 0 1
9.64584 0 1
9.76276 0 1
9.8797 0 1
9.99667 0 1
10.1137 0 1
10.2307 0 1
10.3478 0 1
10.4648 0 1
10.5819 0 1
10.6991 0 1
10.8162 0 1
10.9334 0 1
11.0506 0 1
11.1678 0 1
11.285 0 1
11.4023 0 1
11.5196 0 1
11.6369 0 1
11.7542 0 1
11.8715 0 1
11.9888 0 1
12.1062 0 1
12.2235 0 1
12.3409 0 1
12.4582 0 1
12.5756 0 1
12.693 0 1
12.8104 0 1
12.9278 0 1
13.0452 0 1
13.1626 0 1
13.28 0 1
13.3974 0 1
13.5149 0 1
13.6323 0 1
13.7497 0 1
13.8671 0 1
13.9845 0 1
14.1019 0 1
14.2193 0 1
14.3367 0 1
14.4541 0 1
14.5714 0 1
14.6888 0 1
14.8062 0 1
14.9235 0 1
15.0408 8053 89.7385
15.1581 8413 91.7224
15.2755 8846 94.0532
15.3927 8995 94.842
15.51 8969 94.7048
15.6273 8798 93.7977
15.7445 8581 92.6337
15.8617 8455 91.9511
15.9789 8285 91.022
16.0961 8248 90.8185
16.2132 8215 90.6366
16.3304 8034 89.6326
16.4475 7807 88.3572
16.5646 7546 86.8677
16.6816 7665 87.55
16.7986 7345 85.703
16.9156 7189 84.788
17.0326 7229 85.0235
17.1496 7053 83.9821
17.2665 6984 83.5703
17.3833 6956 83.4026
17.5002 6940 83.3067
17.617 7103 84.2793
17.7338 7158 84.605
17.8505 7230 85.0294
17.9672 7587 87.1034
18.0839 7827 88.4703
18.2005 7821 88.4364
18.3171 7971 89.2805
18.4337 8232 90.7304
18.5502 7991 89.3924
18.6666 8415 91.7333
18.7831 8273 90.956
18.8994 8372 91.4986
19.0158 8132 90.1776
19.1321 7749 88.0284
19.2483 7422 86.151
19.3645 7005 83.6959
19.4806 6757 82.201
19.5967 6490 80.5605
19.7128 5916 76.9155
19.8288 5645 75.1332
19.9447 5094 71.3723
20.0606 0 1
20.1764 0 1
20.2922 0 1
20.4079 0 1
20.5236 0 1
20.6392 0 1
20.7548 0 1
20.8702 0 1
23.3078 0 1
23.4233 0 1
23.539 0 1
23.6547 0 1
23.7704 0 1
23.8862 0 1
24.0021 0 1
24.118 0 1
24.234 0 1
24.35 0 1
24.4661 3638 60.3158
24.5822 3946 62.8172
24.6984 4573 67.624
24.8146 4977 70.5479
24.9309 5653 75.1864
25.0472 6265 79.1518
25.1636 6665 81.6395
25.28 7216 84.947
25.3965 7552 86.9022
25.513 7744 88
25.6296 8215 90.6366
25.7462 8167 90.3715
25.8628 8513 92.2659
25.9795 8143 90.2386
26.0962 8400 91.6515
26.213 8022 89.5656
26.3298 8238 90.7634
26.4466 8253 90.846
26.5635 8184 90.4655
26.6804 8417 91.7442
26.7973 8404 91.6733
26.9143 8396 91.6297
27.0313 8136 90.1998
27.1483 8504 92.2171
27.2653 8477 92.0706
27.3824 8816 93.8936
27.4996 8914 94.414
27.6167 8726 93.4131
27.7339 8523 92.3201
27.8511 8364 91.4549
27.9683 8228 90.7083
28.0855 8274 90.9615
28.2028 8209 90.6035
28.3201 8254 90.8515
28.4374 8094 89.9667
28.5547 8140 90.2219
28.6721 8342 91.3345
28.7894 8333 91.2853
28.9068 8573 92.5905
29.0242 8381 91.5478
29.1416 8071 89.8387
29.259 8088 89.9333
29.3764 7978 89.3197
29.4939 7957 89.202
29.6113 7833 88.5042
29.7288 8033 89.627
29.8463 8161 90.3383
29.9638 8083 89.9055
30.0812 8236 90.7524
30.1987 8424 91.7824
30.3162 8380 91.5423
30.4337 8454 91.9456
30.5512 8429 91.8096
30.6687 8419 91.7551
30.7862 8709 93.322
30.9037 8790 93.755
31.0212 8824 93.9361
31.1387 9012 94.9316
31.2562 8730 93.4345
31.3737 8697 93.2577
31.4912 8505 92.2226
31.6087 8679 93.1612
31.7262 8555 92.4932
31.8436 8369 91.4822
31.9611 8357 91.4166
32.0785 8306 91.1373
32.1959 8422 91.7715
32.3134 8512 92.2605
32.4308 8720 93.3809
32.5482 8578 92.6175
32.6655 8291 91.0549
32.7829 8357 91.4166
32.9002 8191 90.5041
33.0176 8333 91.2853
33.1349 8069 89.8276
33.2522 8200 90.5539
33.3694 8147 90.2607
33.4867 8147 90.2607
33.6039 8265 90.912
33.7211 8499 92.19
33.8383 8537 92.3959
33.9554 8467 92.0163
34.0725 8473 92.0489
34.1896 8576 92.6067
34.3067 8416 91.7388
34.4237 8802 93.819
34.5407 8977 94.747
34.6577 9221 96.026
34.7746 9225 96.0469
34.8915 9028 95.0158
35.0084 8845 94.0479
35.1252 8910 94.3928
35.242 8651 93.0108
35.3587 8798 93.7977
35.4755 8747 93.5254
35.5921 8449 91.9184
35.7088 8428 91.8041
35.8254 8582 92.6391
35.9419 8560 92.5203
36.0584 8406 91.6842
36.1749 8513 92.2659
36.2913 8241 90.78
36.4077 7941 89.1123
36.524 7643 87.4243
36.6403 6875 82.9156
36.7565 6500 80.6226
36.8727 6049 77.7753
36.9889 5600 74.8331
37.1049 5083 71.2952
37.221 0 1
37.3369 0 1
37.4529 0 1
37.5687 0 1
37.6845 0 1
37.8003 0 1
37.916 0 1
38.0316 0 1
38.1472 0 1
40.5851 0 1
40.7008 0 1
40.8164 0 1
40.9322 0 1
41.048 0 1
41.1639 0 1
41.2798 0 1
41.3958 0 1
41.5118 0 1
41.6279 0 1
41.744 4575 67.6387
41.8602 5401 73.4915
41.9765 6246 79.0316
42.0928 6964 83.4506
42.2091 7488 86.5332
42.3255 7975 89.3029
42.4419 8317 91.1976
42.5584 8940 94.5516
42.675 9174 95.781
42.7915 9228 96.0625
42.9081 9263 96.2445
43.0248 9225 96.0469
43.1415 9650 98.2344
43.2582 10077 100.384
43.375 10691 103.397
43.4918 11163 105.655
43.6087 11409 106.813
43.7256 11815 108.697
43.8425 11714 108.231
43.9595 12047 109.759
44.0765 12001 109.549
44.1935 12302 110.914
44.3106 12378 111.256
44.4277 12355 111.153
44.5448 12495 111.781
44.6619 12316 110.977
44.7791 12469 111.665
44.8963 12667 112.548
45.0136 12873 113.459
45.1308 12682 112.614
45.2481 12713 112.752
45.3654 12557 112.058
45.4827 12268 110.761
45.6001 12068 109.854
45.7174 11892 109.05
45.8348 11749 108.393
45.9522 11814 108.692
46.0697 11394 106.743
46.1871 11107 105.39
46.3046 10708 103.479
46.422 10338 101.676
46.5395 10157 100.782
46.657 10322 101.597
46.7745 10612 103.015
46.892 10854 104.183
47.0096 10984 104.805
47.1271 11237 106.005
47.2446 11127 105.485
47.3622 11080 105.262
47.4797 10526 102.596
47.5973 10510 102.518
47.7149 10381 101.887
47.8324 10045 100.225
47.95 10149 100.742
48.0675 10054 100.27
48.1851 9647 98.2191
48.3027 9662 98.2955
48.4202 9357 96.7316
48.5378 9343 96.6592
48.6554 9354 96.7161
48.7729 9245 96.1509
48.8904 9324 96.5609
49.008 9201 95.9218
49.1255 9152 95.6661
49.243 8882 94.2444
49.3605 8820 93.9149
49.478 8983 94.7787
49.5955 9015 94.9474
49.713 8819 93.9095
49.8304 8666 93.0914
49.9479 8664 93.0806
50.0653 8878 94.2231
50.1827 8831 93.9734
50.3001 9271 96.286
50.4175 9567 97.811
50.5348 9807 99.0303
50.6521 10054 100.27
50.7694 10555 102.738
50.8867 10375 101.858
51.004 10443 102.191
51.1212 10282 101.4
51.2384 10273 101.356
51.3556 10334 101.656
51.4727 9975 99.8749
51.5899 10110 100.548
51.707 9977 99.8849
51.824 10075 100.374
51.9411 9834 99.1665
52.0581 9502 97.4782
52.175 9520 97.5705
52.2919 9433 97.1236
52.4088 9466 97.2934
52.5257 9246 96.1561
52.6425 9154 95.6765
52.7593 9011 94.9263
52.876 8864 94.1488
52.9927 8764 93.6162
53.1094 8799 93.803
53.226 8735 93.4612
53.3426 8457 91.9619
53.4591 8181 90.4489
53.5756 7561 86.954
53.692 7429 86.1916
53.8084 7371 85.8545
53.9248 6747 82.1401
54.0411 6353 79.7057
54.1573 5806 76.1971
54.2735 0 1
54.3896 0 1
54.5057 0 1
54.6217 0 1
54.7377 0 1
54.8537 0 1
54.9695 0 1
55.0853 0 1
55.2011 0 1
55.3168 0 1
55.4324 0 1
57.824 0 1
57.9396 0 1
58.0553 0 1
58.1711 0 1
58.2869 0 1
58.4028 0 1
58.5187 0 1
58.6347 0 1
58.7508 0 1
58.8669 0 1
58.983 7979 89.3252
59.0992 9257 96.2133
59.2155 10137 100.683
59.3318 11041 105.076
59.4482 12096 109.982
59.5646 12782 113.058
59.681 13225 115
59.7975 13215 114.957
59.9141 13688 116.996
60.0306 13486 116.129
60.1473 13150 114.673
60.2639 13362 115.594
60.3807 13342 115.508
60.4974 13413 115.815
60.6142 13182 114.813
60.731 13137 114.617
60.8479 12887 113.521
60.9648 12689 112.645
61.0818 12785 113.071
61.1987 12771 113.009
61.3158 12991 113.978
61.4328 12789 113.088
61.5499 12848 113.349
61.667 12745 112.894
61.7841 12669 112.557
61.9013 12688 112.641
62.0185 12426 111.472
62.1357 12416 111.427
62.253 12737 112.858
62.3702 13361 115.59
62.4875 13832 117.61
62.6049 14273 119.47
62.7222 14674 121.136
62.8396 15121 122.967
62.9569 15348 123.887
63.0743 15910 126.135
63.1918 15413 124.149
63.3092 15496 124.483
63.4267 15509 124.535
63.5441 14660 121.078
63.6616 14706 121.268
63.7791 14279 119.495
63.8966 14186 119.105
64.0142 14306 119.608
64.1317 13768 117.337
64.2492 13401 115.763
64.3668 13110 114.499
64.4843 13108 114.49
64.6019 13060 114.28
64.7195 13274 115.213
64.837 13156 114.7
64.9546 13191 114.852
65.0722 12962 113.851
65.1898 13426 115.871
65.3074 13047 114.223
65.4249 12924 113.684
65.5425 12573 112.129
65.6601 12491 111.763
65.7777 12844 113.331
65.8952 13158 114.708
66.0128 13785 117.41
66.1304 14345 119.771
66.2479 14829 121.774
66.3655 15172 123.175
66.483 15706 125.324
66.6005 16192 127.248
66.718 16243 127.448
66.8355 15527 124.607
66.953 16092 126.854
67.0705 15477 124.407
67.1879 14908 122.098
67.3054 14507 120.445
67.4228 14409 120.037
67.5402 14146 118.937
67.6576 13765 117.324
67.7749 13838 117.635
67.8923 13489 116.142
68.0096 13128 114.577
68.1269 13268 115.187
68.2442 13227 115.009
68.3614 13600 116.619
68.4787 13797 117.461
68.5958 13624 116.722
68.713 13432 115.897
68.8302 13519 116.271
68.9473 13275 115.217
69.0643 12763 112.973
69.1814 12452 111.589
69.2984 12253 110.693
69.4154 12315 110.973
69.5323 12970 113.886
69.6492 13311 115.373
69.7661 13875 117.792
69.8829 14255 119.394
69.9997 14144 118.929
70.1165 14170 119.038
70.2332 13982 118.246
70.3499 13437 115.918
70.4665 12838 113.305
70.5831 11806 108.655
70.6996 10843 104.13
70.8161 10005 100.025
70.9326 8999 94.8631
71.049 8091 89.95
71.1653 7600 87.178
71.2817 7399 86.0174
71.3979 6712 81.9268
71.5141 6375 79.8436
71.6303 5975 77.2981
71.7464 5190 72.0417
71.8624 0 1
71.9784 0 1
72.0944 0 1
72.2102 0 1
72.3261 0 1
72.4418 0 1
72.5575 0 1
72.6732 0 1
75.1054 0 1
75.2209 0 1
75.3365 0 1
75.4521 0 1
75.5678 0 1
75.6835 0 1
75.7993 0 1
75.9151 0 1
76.031 0 1
76.147 10919 104.494
76.263 11760 108.444
76.3791 11930 109.225
76.4952 12083 109.923
76.6113 12001 109.549
76.7276 12468 111.66
76.8438 12512 111.857
76.9601 12492 111.768
77.0765 12385 111.288
77.1929 12499 111.799
77.3093 13307 115.356
77.4258 13364 115.603
77.5423 13515 116.254
77.6589 13611 116.666
77.7755 13577 116.52
77.8921 13247 115.096
78.0088 12723 112.796
78.1256 12330 111.041
78.2423 12015 109.613
78.3591 11932 109.234
78.4759 12504 111.821
78.5928 13413 115.815
78.7097 14278 119.491
78.8266 14664 121.095
78.9436 15273 123.584
79.0606 15448 124.29
79.1776 15946 126.277
79.2946 16446 128.242
79.4117 16830 129.73
79.5288 16737 129.372
79.6459 16869 129.881
79.7631 16451 128.261
79.8802 15383 124.028
79.9974 14949 122.266
80.1147 14316 119.649
80.2319 14543 120.594
80.3491 14579 120.744
80.4664 14826 121.762
80.5837 14560 120.665
80.701 14571 120.71
80.8183 14489 120.37
80.9357 14791 121.618
81.053 15107 122.911
81.1704 15348 123.887
81.2877 15119 122.959
81.4051 15136 123.028
81.5225 15079 122.797
81.6399 14720 121.326
81.7573 13746 117.243
81.8747 13548 116.396
81.9922 12990 113.974
82.1096 13633 116.76
82.227 14768 121.524
82.3444 15456 124.322
82.4619 16692 129.198
82.5793 17123 130.855
82.6967 17186 131.095
82.8142 17712 133.086
82.9316 18329 135.385
83.049 18539 136.158
83.1664 18527 136.114
83.2838 18320 135.351
83.4012 17775 133.323
83.5186 16983 130.319
83.636 16380 127.984
83.7534 16309 127.707
83.8708 16294 127.648
83.9881 15861 125.94
84.1055 16193 127.252
84.2228 16173 127.173
84.3401 16174 127.177
84.4575 16281 127.597
84.5747 16842 129.777
84.692 17092 130.736
84.8093 17500 132.288
84.9265 16876 129.908
85.0437 16737 129.372
85.1609 16506 128.476
85.2781 15581 124.824
85.3952 14511 120.462
85.5123 14327 119.695
85.6294 14389 119.954
85.7465 15163 123.138
85.8636 16250 127.475
85.9806 17176 131.057
86.0976 18170 134.796
86.2145 18386 135.595
86.3315 18624 136.47
86.4484 19272 138.824
86.5652 19345 139.086
86.682 19634 140.121
86.7988 19554 139.836
86.9156 19217 138.625
87.0323 18436 135.779
87.149 18160 134.759
87.2657 17612 132.71
87.3823 16918 130.069
87.4988 16202 127.287
87.6154 15631 125.024
87.7318 15328 123.806
87.8483 14460 120.25
87.9647 13409 115.797
88.081 12461 111.629
88.1973 12023 109.649
88.3136 11265 106.137
88.4298 10473 102.338
88.546 9636 98.1631
88.6621 8863 94.1435
88.7781 7967 89.2581
88.8942 0 1
89.0101 0 1
89.126 0 1
89.2419 0 1
89.3577 0 1
89.4734 0 1
89.5891 0 1
89.7047 0 1
89.8203 0 1
89.9358 0 1
92.3269 0 1
92.4424 0 1
92.558 0 1
92.6736 0 1
92.7893 0 1
92.905 0 1
93.0208 0 1
93.1366 0 1
93.2525 0 1
93.3685 0 1
93.4845 0 1
93.6005 15410 124.137
93.7167 16902 130.008
93.8328 18514 136.066
93.949 19538 139.778
94.0653 20142 141.923
94.1816 20230 142.232
94.2979 19813 140.759
94.4143 18781 137.044
94.5307 18260 135.13
94.6472 17462 132.144
94.7637 17293 131.503
94.8803 17652 132.861
94.9969 18638 136.521
95.1135 19700 140.357
95.2302 20818 144.284
95.3469 21532 146.738
95.4637 22797 150.987
95.5805 23074 151.901
95.6973 23358 152.833
95.8142 23781 154.211
95.9311 23341 152.778
96.048 23421 153.039
96.1649 23443 153.111
96.2819 22555 150.183
96.3989 21987 148.28
96.516 21795 147.631
96.633 21513 146.673
96.7501 21348 146.11
96.8673 21375 146.202
96.9844 21389 146.25
97.1016 21158 145.458
97.2188 21297 145.935
97.336 21652 147.146
97.4532 22224 149.077
97.5704 22473 149.91
97.6877 23139 152.115
97.805 22498 149.993
97.9223 22297 149.322
98.0396 21146 145.417
98.1569 19873 140.972
98.2743 18848 137.288
98.3916 18107 134.562
98.509 18286 135.226
98.6264 19514 139.693
98.7438 20534 143.297
98.8612 21798 147.641
98.9786 23263 152.522
99.096 24003 154.929
99.2134 24198 155.557
99.3308 24926 157.88
99.4482 25544 159.825
99.5656 25875 160.857
99.6831 25935 161.043
99.8005 25486 159.643
99.9179 24758 157.347
100.035 23818 154.331
100.153 23344 152.787
100.27 23231 152.417
100.388 23096 151.974
100.505 22780 150.93
100.622 22630 150.433
100.74 22550 150.167
100.857 22647 150.489
100.975 23147 152.141
101.092 23645 153.769
101.209 23973 154.832
101.327 24002 154.926
101.444 23767 154.165
101.561 22885 151.278
101.679 21889 147.949
101.796 20446 142.99
101.913 19288 138.881
102.03 19161 138.423
102.148 19853 140.901
102.265 21152 145.437
102.382 22823 151.073
102.499 24012 154.958
102.616 25194 158.726
102.733 25083 158.376
102.851 26203 161.873
102.968 26266 162.068
103.085 26398 162.475
103.202 26342 162.302
103.319 26197 161.855
103.436 25053 158.281
103.552 24146 155.39
103.669 23815 154.321
103.786 23650 153.786
103.903 23117 152.043
104.02 22753 150.841
104.137 22716 150.718
104.253 22212 149.037
104.37 23168 152.21
104.487 23147 152.141
104.603 23026 151.743
104.72 23196 152.302
104.836 22402 149.673
104.953 20804 144.236
105.069 18927 137.575
105.186 17172 131.042
105.302 15778 125.611
105.418 14049 118.528
105.535 12666 112.543
105.651 11788 108.573
105.767 11192 105.792
105.883 11099 105.352
105.999 10827 104.053
106.115 0 1
106.231 0 1
106.347 0 1
106.463 0 1
106.579 0 1
106.694 0 1
106.81 0 1
106.926 0 1
107.041 0 1
107.157 0 1
109.576 0 1
109.692 0 1
109.807 0 1
109.923 0 1
110.039 0 1
110.155 0 1
110.27 0 1
110.386 0 1
110.502 0 1
110.618 10476 102.352
110.735 12948 113.789
110.851 15160 123.126
110.967 17406 131.932
111.083 19308 138.953
111.199 21026 145.003
111.316 21823 147.726
111.432 22622 150.406
111.549 23336 152.761
111.665 22946 151.479
111.782 23099 151.984
111.898 22643 150.476
112.015 22842 151.136
112.132 21974 148.236
112.248 21829 147.746
112.365 21378 146.212
112.482 20968 144.803
112.599 21331 146.051
112.716 21003 144.924
112.832 20930 144.672
112.949 20873 144.475
113.066 21147 145.42
113.183 21592 146.942
113.3 21689 147.272
113.417 21729 147.408
113.534 21525 146.714
113.652 21045 145.069
113.769 20038 141.556
113.886 18722 136.828
114.003 17548 132.469
114.12 17170 131.034
114.238 17541 132.442
114.355 18334 135.403
114.472 19140 138.347
114.589 22403 149.676
114.707 22935 151.443
114.824 23199 152.312
114.942 23488 153.258
115.059 23634 153.734
115.176 23702 153.955
115.294 23792 154.247
115.411 23001 151.661
115.529 22987 151.615
115.646 22319 149.395
115.764 21690 147.275
115.881 21591 146.939
115.999 20864 144.444
116.116 20430 142.934
116.234 20088 141.732
116.351 20144 141.93
116.469 19936 141.195
116.586 19765 140.588
116.704 20415 142.881
116.821 20675 143.788
116.939 20953 144.752
117.056 21060 145.121
117.174 20405 142.846
117.291 19853 140.901
117.409 18913 137.525
117.526 17857 133.63
117.644 16974 130.284
117.761 16728 129.337
117.879 17296 131.514
117.996 18496 136
118.114 20013 141.467
118.231 21617 147.027
118.349 21734 147.425
118.466 22365 149.549
118.584 22297 149.322
118.701 21978 148.25
118.819 22141 148.799
118.936 22082 148.6
119.053 21623 147.048
119.171 21624 147.051
119.288 20581 143.461
119.405 20403 142.839
119.523 19655 140.196
119.64 19412 139.327
119.757 19065 138.076
119.875 18670 136.638
119.992 18674 136.653
120.109 18519 136.085
120.226 18195 134.889
120.343 18576 136.294
120.46 18974 137.746
120.578 19134 138.326
120.695 19047 138.011
120.812 18646 136.55
120.929 18011 134.205
121.046 17135 130.901
121.163 16100 126.886
121.279 15113 122.935
121.396 14197 119.151
121.513 14195 119.143
121.63 14309 119.62
121.747 14924 122.164
121.863 15600 124.9
121.98 16061 126.732
122.097 16098 126.878
122.213 15221 123.373
122.33 14469 120.287
122.446 13700 117.047
122.563 12804 113.155
122.679 12293 110.874
122.795 11662 107.991
122.912 10798 103.913
123.028 9882 99.4082
123.144 9149 95.6504
123.26 8587 92.6661
123.377 0 1
123.493 0 1
123.609 0 1
123.725 0 1
123.84 0 1
123.956 0 1
124.072 0 1
124.188 0 1
124.303 0 1
124.419 0 1
126.852 0 1
126.968 0 1
127.083 0 1
127.199 0 1
127.315 0 1
127.431 0 1
127.547 0 1
127.663 0 1
127.779 0 1
127.895 0 1
128.011 0 1
128.127 0 1
128.243 0 1
128.359 19234 138.687
128.476 19580 139.929
128.592 19407 139.309
128.708 18997 137.83
128.825 18777 137.029
128.941 18355 135.481
129.058 18490 135.978
129.174 18186 134.855
129.291 18394 135.624
129.408 18629 136.488
129.524 18491 135.982
129.641 18925 137.568
129.758 18969 137.728
129.875 18662 136.609
129.992 18308 135.307
130.108 17764 133.282
130.225 16730 129.345
130.342 16301 127.675
130.459 15313 123.746
130.576 15663 125.152
130.693 16145 127.063
130.81 17322 131.613
130.928 18428 135.75
131.045 19441 139.431
131.162 19722 140.435
131.279 20029 141.524
131.396 20317 142.538
131.513 19952 141.252
131.631 19674 140.264
131.748 19473 139.546
131.865 19573 139.904
131.983 19278 138.845
132.1 19178 138.485
132.217 19082 138.138
132.335 18661 136.605
132.452 18400 135.647
132.57 18687 136.7
132.687 18670 136.638
132.804 18358 135.492
132.922 18433 135.768
133.039 18663 136.613
133.157 18820 137.186
133.274 18700 136.748
133.392 18729 136.854
133.509 18645 136.547
133.627 18060 134.387
133.744 17920 133.866
133.862 16978 130.3
133.979 16494 128.429
134.097 16349 127.863
134.214 16689 129.186
134.332 17209 131.183
134.449 18755 136.949
134.567 20214 142.176
134.684 20526 143.269
134.802 21045 145.069
134.919 21366 146.171
135.037 21301 145.949
135.154 21158 145.458
135.272 20908 144.596
135.389 21467 146.516
135.507 21323 146.024
135.624 20990 144.879
135.742 21270 145.842
135.859 20966 144.796
135.977 20827 144.316
136.094 20790 144.187
136.211 20571 143.426
136.329 20524 143.262
136.446 20622 143.604
136.564 20538 143.311
136.681 20611 143.565
136.798 20573 143.433
136.915 20737 144.003
137.033 20861 144.433
137.15 20511 143.217
137.267 20103 141.785
137.384 19501 139.646
137.502 18378 135.565
137.619 17373 131.807
137.736 17058 130.606
137.853 16534 128.585
137.97 18157 134.748
138.087 18781 137.044
138.204 20226 142.218
138.321 21012 144.955
138.438 20979 144.841
138.555 20971 144.814
138.672 20735 143.997
138.788 20350 142.653
138.905 19132 138.318
139.022 18599 136.378
139.139 17983 134.101
139.255 17166 131.019
139.372 16269 127.55
139.488 15452 124.306
139.605 14398 119.992
139.721 13330 115.456
139.838 12805 113.159
139.954 12128 110.127
140.071 11717 108.245
140.187 10858 104.202
140.303 10125 100.623
140.419 9724 98.6103
140.535 9378 96.8401
140.652 8794 93.7763
140.768 0 1
140.884 0 1
141 0 1
141.115 0 1
141.231 0 1
141.347 0 1
141.463 0 1
141.578 0 1
141.694 0 1
144.104 0 1
144.219 0 1
144.335 0 1
144.45 0 1
144.566 0 1
144.682 0 1
144.798 0 1
144.914 0 1
145.03 0 1
145.146 14843 121.832
145.262 15231 123.414
145.378 15639 125.056
145.494 15602 124.908
145.61 15740 125.459
145.726 15768 125.571
145.842 15891 126.06
145.959 15850 125.897
146.075 15394 124.073
146.192 15205 123.309
146.308 14653 121.05
146.425 14211 119.21
146.541 13688 116.996
146.658 13225 115
146.774 13866 117.754
146.891 14522 120.507
147.008 15313 123.746
147.125 15930 126.214
147.241 16395 128.043
147.358 16647 129.023
147.475 16423 128.152
147.592 16476 128.359
147.709 16096 126.87
147.826 16345 127.848
147.943 16227 127.385
148.06 16416 128.125
148.177 16212 127.326
148.294 16353 127.879
148.411 16430 128.18
148.528 16069 126.764
148.645 16013 126.542
148.762 16002 126.499
148.88 16109 126.921
148.997 16242 127.444
149.114 15226 123.394
149.231 15524 124.595
149.349 15786 125.642
149.466 15529 124.615
149.583 15768 125.571
149.701 15690 125.26
149.818 15465 124.358
149.935 15041 122.642
150.053 14652 121.045
150.17 13852 117.695
150.287 13540 116.362
150.405 13653 116.846
150.522 14288 119.532
150.64 15017 122.544
150.757 15631 125.024
150.875 16082 126.815
150.992 16327 127.777
151.11 16347 127.855
151.227 15988 126.444
151.344 15777 125.607
151.462 15661 125.144
151.579 16203 127.291
151.697 16081 126.811
151.814 16270 127.554
151.932 16387 128.012
152.049 16173 127.173
152.167 15922 126.182
152.284 15626 125.004
152.402 15568 124.772
152.519 15426 124.201
152.636 15316 123.758
152.754 15007 122.503
152.871 15276 123.596
152.989 15172 123.175
153.106 15372 123.984
153.223 15207 123.317
153.341 15125 122.984
153.458 14841 121.824
153.575 14153 118.966
153.693 13607 116.649
153.81 13543 116.374
153.927 13269 115.191
154.044 13448 115.966
154.162 13873 117.784
154.279 14613 120.884
154.396 15363 123.948
154.513 15638 125.052
154.63 15756 125.523
154.747 15463 124.35
154.864 15297 123.681
154.981 15503 124.511
155.098 15399 124.093
155.215 15428 124.21
155.332 15281 123.616
155.449 15020 122.556
155.566 14940 122.229
155.683 14496 120.399
155.8 14231 119.294
155.917 13964 118.169
156.033 13451 115.978
156.15 0 1
156.267 0 1
156.383 0 1
156.5 0 1
156.617 0 1
156.733 0 1
156.85 0 1
156.966 0 1
157.082 0 1
157.199 0 1
157.315 0 1
157.431 0 1
157.547 0 1
157.664 0 1
157.78 0 1
157.896 0 1
158.012 0 1
158.128 0 1
158.244 0 1
158.359 0 1
158.475 0 1
158.591 0 1
158.706 0 1
