
6.15755 0 1
6.2731 0 1
6.3887 0 1
6.50437 0 1
6.62009 0 1
6.73587 0 1
6.8517 0 1
6.96759 0 1
7.08353 0 1
7.19952 0 1
7.31557 0 1
7.43166 0 1
7.54781 0 1
7.664 0 1
7.78024 0 1
7.89653 0 1
8.01286 0 1
8.12924 0 1
8.24567 0 1
8.36213 0 1
8.47864 0 1
8.59519 0 1
8.71178 0 1
8.82841 0 1
8.94508 0 1
9.06179 0 1
9.17853 0 1
9.29531 0 1
9.41212 0 1
9.52897 0 1
9.64584 0 1
9.76276 0 1
9.8797 0 1
9.99667 0 1
10.1137 0 1
10.2307 0 1
10.3478 0 1
10.4648 0 1
10.5819 0 1
10.6991 0 1
10.8162 0 1
10.9334 0 1
11.0506 0 1
11.1678 0 1
11.285 0 1
11.4023 0 1
11.5196 0 1
11.6369 0 1
11.7542 0 1
11.8715 0 1
11.9888 0 1
12.1062 0 1
12.2235 0 1
12.3409 0 1
12.4582 0 1
12.5756 0 1
12.693 0 1
12.8104 0 1
12.9278 0 1
13.0452 0 1
13.1626 0 1
13.28 0 1
13.3974 0 1
13.5149 0 1
13.6323 0 1
13.7497 0 1
13.8671 0 1
13.9845 0 1
14.1019 0 1
14.2193 0 1
14.3367 0 1
14.4541 0 1
14.5714 0 1
14.6888 0 1
14.8062 0 1
14.9235 0 1
15.0408 4139 64.3351
15.1581 4290 65.4981
15.2755 4353 65.9773
15.3927 4362 66.0454
15.51 4214 64.9153
15.6273 4128 64.2495
15.7445 3975 63.0476
15.8617 4044 63.5925
15.9789 4348 65.9394
16.0961 4280 65.4217
16.2132 4527 67.283
16.3304 4751 68.9275
16.4475 4838 69.5557
16.5646 4839 69.5629
16.6816 4884 69.8856
16.7986 4872 69.7997
16.9156 4789 69.2026
17.0326 4796 69.2532
17.1496 4763 69.0145
17.2665 4663 68.2862
17.3833 4687 68.4617
17.5002 4748 68.9057
17.617 4754 68.9493
17.7338 4904 70.0286
17.8505 4948 70.342
17.9672 5092 71.3583
18.0839 5210 72.1803
18.2005 5230 72.3187
18.3171 5308 72.856
18.4337 5617 74.9466
18.5502 5703 75.5182
18.6666 5646 75.1399
18.7831 5608 74.8866
18.8994 5590 74.7663
19.0158 5503 74.1822
19.1321 5321 72.9452
19.2483 5180 71.9722
19.3645 4999 70.7036
19.4806 4991 70.647
19.5967 5190 72.0417
19.7128 5412 73.5663
19.8288 5526 74.3371
19.9447 5069 71.1969
20.0606 0 1
20.1764 0 1
20.2922 0 1
20.4079 0 1
20.5236 0 1
20.6392 0 1
20.7548 0 1
20.8702 0 1
23.3078 0 1
23.4233 0 1
23.539 0 1
23.6547 0 1
23.7704 0 1
23.8862 0 1
24.0021 0 1
24.118 0 1
24.234 0 1
24.35 0 1
24.4661 5356 73.1847
24.5822 5285 72.698
24.6984 5214 72.208
24.8146 5389 73.4098
24.9309 5595 74.7997
25.0472 5958 77.1881
25.1636 6000 77.4597
25.28 6128 78.2815
25.3965 6061 77.8524
25.513 6018 77.5758
25.6296 5969 77.2593
25.7462 5918 76.9285
25.8628 5708 75.5513
25.9795 5729 75.6902
26.0962 5763 75.9144
26.213 5863 76.5702
26.3298 5989 77.3886
26.4466 6145 78.3901
26.5635 6306 79.4103
26.6804 6296 79.3473
26.7973 6543 80.8888
26.9143 6694 81.8169
27.0313 6691 81.7985
27.1483 6872 82.8975
27.2653 6820 82.5833
27.3824 6823 82.6015
27.4996 6712 81.9268
27.6167 6626 81.4002
27.7339 6431 80.1935
27.8511 6235 78.962
27.9683 6216 78.8416
28.0855 5822 76.302
28.2028 5702 75.5116
28.3201 5767 75.9408
28.4374 6002 77.4726
28.5547 6302 79.3851
28.6721 6434 80.2122
28.7894 6575 81.0864
28.9068 6459 80.3679
29.0242 6318 79.4858
29.1416 6176 78.5875
29.259 5851 76.4918
29.3764 5896 76.7854
29.4939 5804 76.184
29.6113 5810 76.2234
29.7288 5774 75.9868
29.8463 6068 77.8974
29.9638 6057 77.8267
30.0812 6231 78.9367
30.1987 6481 80.5047
30.3162 6530 80.8084
30.4337 6733 82.0549
30.5512 6834 82.668
30.6687 6878 82.9337
30.7862 7110 84.3208
30.9037 6989 83.6002
31.0212 7078 84.1309
31.1387 6869 82.8794
31.2562 6772 82.2922
31.3737 6488 80.5481
31.4912 6340 79.6241
31.6087 6226 78.905
31.7262 6088 78.0256
31.8436 6044 77.7432
31.9611 6225 78.8987
32.0785 6393 79.9562
32.1959 6595 81.2096
32.3134 6747 82.1401
32.4308 6687 81.7741
32.5482 6635 81.4555
32.6655 6465 80.4052
32.7829 6256 79.0949
32.9002 6171 78.5557
33.0176 6154 78.4474
33.1349 6035 77.6853
33.2522 6026 77.6273
33.3694 5884 76.7072
33.4867 6171 78.5557
33.6039 6352 79.6994
33.7211 6559 80.9877
33.8383 6931 83.2526
33.9554 6946 83.3427
34.0725 6948 83.3547
34.1896 7223 84.9882
34.3067 7205 84.8823
34.4237 7235 85.0588
34.5407 7119 84.3742
34.6577 7302 85.4517
34.7746 7102 84.2734
34.8915 6972 83.4985
35.0084 6923 83.2046
35.1252 6687 81.7741
35.242 6647 81.5291
35.3587 6330 79.5613
35.4755 6225 78.8987
35.5921 6473 80.455
35.7088 6507 80.666
35.8254 6627 81.4064
35.9419 6947 83.3487
36.0584 6978 83.5344
36.1749 7076 84.119
36.2913 6931 83.2526
36.4077 6726 82.0122
36.524 6403 80.0187
36.6403 6257 79.1012
36.7565 6106 78.1409
36.8727 6044 77.7432
36.9889 6100 78.1025
37.1049 6151 78.4283
37.221 0 1
37.3369 0 1
37.4529 0 1
37.5687 0 1
37.6845 0 1
37.8003 0 1
37.916 0 1
38.0316 0 1
38.1472 0 1
40.5851 0 1
40.7008 0 1
40.8164 0 1
40.9322 0 1
41.048 0 1
41.1639 0 1
41.2798 0 1
41.3958 0 1
41.5118 0 1
41.6279 0 1
41.744 5123 71.5751
41.8602 5306 72.8423
41.9765 5238 72.374
42.0928 5263 72.5465
42.2091 5477 74.0068
42.3255 5653 75.1864
42.4419 5850 76.4853
42.5584 6052 77.7946
42.675 6122 78.2432
42.7915 6560 80.9938
42.9081 6530 80.8084
43.0248 6621 81.3695
43.1415 6607 81.2835
43.2582 6638 81.4739
43.375 6632 81.4371
43.4918 6713 81.9329
43.6087 6598 81.2281
43.7256 6303 79.3914
43.8425 6236 78.9683
43.9595 6180 78.613
44.0765 5820 76.2889
44.1935 5729 75.6902
44.3106 5567 74.6123
44.4277 5613 74.92
44.5448 5619 74.96
44.6619 5681 75.3724
44.7791 5938 77.0584
44.8963 5904 76.8375
45.0136 5739 75.7562
45.1308 5603 74.8532
45.2481 5107 71.4633
45.3654 5081 71.2811
45.4827 4727 68.7532
45.6001 4705 68.593
45.7174 4687 68.4617
45.8348 4742 68.8622
45.9522 4854 69.6707
46.0697 5258 72.5121
46.1871 5262 72.5396
46.3046 5442 73.7699
46.422 5609 74.8933
46.5395 5679 75.3591
46.657 5764 75.921
46.7745 5950 77.1362
46.892 5712 75.5778
47.0096 5625 75
47.1271 5627 75.0133
47.2446 5645 75.1332
47.3622 5386 73.3894
47.4797 5276 72.6361
47.5973 5103 71.4353
47.7149 4928 70.1997
47.8324 4681 68.4178
47.95 4764 69.0217
48.0675 4653 68.2129
48.1851 4904 70.0286
48.3027 5083 71.2952
48.4202 4742 68.8622
48.5378 4806 69.3253
48.6554 4537 67.3573
48.7729 4492 67.0224
48.8904 4125 64.2262
49.008 3884 62.3217
49.1255 3844 62
49.243 3870 62.2093
49.3605 4026 63.4508
49.478 4249 65.1844
49.5955 4401 66.34
49.713 4685 68.4471
49.8304 4808 69.3397
49.9479 5071 71.211
50.0653 5150 71.7635
50.1827 5356 73.1847
50.3001 5454 73.8512
50.4175 5386 73.3894
50.5348 5658 75.2197
50.6521 5569 74.6257
50.7694 5552 74.5117
50.8867 5418 73.6071
51.004 5455 73.858
51.1212 5205 72.1457
51.2384 5226 72.2911
51.3556 5215 72.215
51.4727 5246 72.4293
51.5899 5527 74.3438
51.707 5759 75.8881
51.824 6090 78.0385
51.9411 6093 78.0577
52.0581 6213 78.8226
52.175 5957 77.1816
52.2919 5903 76.831
52.4088 5506 74.2024
52.5257 5322 72.952
52.6425 5336 73.0479
52.7593 5209 72.1734
52.876 5385 73.3826
52.9927 5780 76.0263
53.1094 6104 78.1281
53.226 6595 81.2096
53.3426 6973 83.5045
53.4591 7435 86.2264
53.5756 7585 87.0919
53.692 7856 88.6341
53.8084 8019 89.5489
53.9248 8218 90.6532
54.0411 8213 90.6256
54.1573 8320 91.214
54.2735 0 1
54.3896 0 1
54.5057 0 1
54.6217 0 1
54.7377 0 1
54.8537 0 1
54.9695 0 1
55.0853 0 1
55.2011 0 1
55.3168 0 1
55.4324 0 1
57.824 0 1
57.9396 0 1
58.0553 0 1
58.1711 0 1
58.2869 0 1
58.4028 0 1
58.5187 0 1
58.6347 0 1
58.7508 0 1
58.8669 0 1
58.983 9533 97.6371
59.0992 9871 99.3529
59.2155 9872 99.3579
59.3318 10206 101.025
59.4482 10099 100.494
59.5646 9942 99.7096
59.681 9951 99.7547
59.7975 9726 98.6205
59.9141 9499 97.4628
60.0306 9358 96.7368
60.1473 9359 96.7419
60.2639 9278 96.3224
60.3807 9290 96.3846
60.4974 9199 95.9114
60.6142 9293 96.4002
60.731 8869 94.1754
60.8479 8541 92.4175
60.9648 8107 90.0389
61.0818 7538 86.8217
61.1987 7336 85.6505
61.3158 7196 84.8292
61.4328 7246 85.1234
61.5499 7420 86.1394
61.667 7942 89.1179
61.7841 8287 91.033
61.9013 8606 92.7685
62.0185 9075 95.2628
62.1357 9217 96.0052
62.253 9684 98.4073
62.3702 9643 98.1988
62.4875 9878 99.3881
62.6049 9852 99.2572
62.7222 9936 99.6795
62.8396 9788 98.9343
62.9569 9638 98.1733
63.0743 9625 98.1071
63.1918 9348 96.6851
63.3092 9335 96.6178
63.4267 8954 94.6256
63.5441 9025 95
63.6616 9056 95.163
63.7791 8873 94.1966
63.8966 9206 95.9479
64.0142 9207 95.9531
64.1317 9026 95.0053
64.2492 8687 93.2041
64.3668 8409 91.7006
64.4843 7681 87.6413
64.6019 7476 86.4639
64.7195 7053 83.9821
64.837 6824 82.6075
64.9546 6909 83.1204
65.0722 7077 84.1249
65.1898 7379 85.9011
65.3074 7877 88.7525
65.4249 8235 90.7469
65.5425 8636 92.9301
65.6601 9126 95.5301
65.7777 9343 96.6592
65.8952 9553 97.7394
66.0128 9645 98.209
66.1304 9888 99.4384
66.2479 10094 100.469
66.3655 10030 100.15
66.483 9928 99.6393
66.6005 9900 99.4987
66.718 9677 98.3717
66.8355 9404 96.9742
66.953 9529 97.6166
67.0705 9313 96.5039
67.1879 9259 96.2237
67.3054 9114 95.4673
67.4228 9315 96.5142
67.5402 9514 97.5397
67.6576 9680 98.387
67.7749 9393 96.9175
67.8923 9567 97.811
68.0096 8950 94.6044
68.1269 8435 91.8423
68.2442 7821 88.4364
68.3614 7501 86.6083
68.4787 7424 86.1626
68.5958 7266 85.2408
68.713 7812 88.3855
68.8302 8097 89.9833
68.9473 8615 92.817
69.0643 9307 96.4728
69.1814 9900 99.4987
69.2984 10455 102.25
69.4154 11021 104.981
69.5323 11239 106.014
69.6492 11650 107.935
69.7661 11743 108.365
69.8829 11997 109.531
69.9997 11707 108.199
70.1165 11978 109.444
70.2332 12014 109.608
70.3499 11894 109.06
70.4665 11736 108.333
70.5831 11706 108.194
70.6996 11637 107.875
70.8161 11258 106.104
70.9326 11343 106.504
71.049 11469 107.093
71.1653 11484 107.163
71.2817 11448 106.995
71.3979 11577 107.596
71.5141 11003 104.895
71.6303 10234 101.163
71.7464 8762 93.6056
71.8624 0 1
71.9784 0 1
72.0944 0 1
72.2102 0 1
72.3261 0 1
72.4418 0 1
72.5575 0 1
72.6732 0 1
75.1054 0 1
75.2209 0 1
75.3365 0 1
75.4521 0 1
75.5678 0 1
75.6835 0 1
75.7993 0 1
75.9151 0 1
76.031 0 1
76.147 11217 105.91
76.263 12096 109.982
76.3791 12467 111.656
76.4952 12967 113.873
76.6113 13522 116.284
76.7276 13560 116.447
76.8438 12664 112.534
76.9601 12514 111.866
77.0765 11509 107.28
77.1929 10530 102.616
77.3093 9657 98.27
77.4258 9006 94.8999
77.5423 8859 94.1223
77.6589 9186 95.8436
77.7755 9658 98.2751
77.8921 10615 103.029
78.0088 11615 107.773
78.1256 12476 111.696
78.2423 13406 115.784
78.3591 14122 118.836
78.4759 14394 119.975
78.5928 14614 120.888
78.7097 14693 121.215
78.8266 14298 119.574
78.9436 15289 123.649
79.0606 14718 121.318
79.1776 14398 119.992
79.2946 14381 119.921
79.4117 14457 120.237
79.5288 14083 118.672
79.6459 13801 117.478
79.7631 13628 116.739
79.8802 13336 115.482
79.9974 13219 114.974
80.1147 13636 116.773
80.2319 13956 118.136
80.3491 14063 118.588
80.4664 14041 118.495
80.5837 13334 115.473
80.701 12338 111.077
80.8183 11389 106.719
80.9357 10229 101.139
81.053 9346 96.6747
81.1704 8806 93.8403
81.2877 9011 94.9263
81.4051 9462 97.2728
81.5225 10160 100.797
81.6399 11562 107.527
81.7573 12534 111.955
81.8747 13338 115.49
81.9922 13735 117.196
82.1096 14383 119.929
82.227 14765 121.511
82.3444 14396 119.983
82.4619 14658 121.07
82.5793 14891 122.029
82.6967 14587 120.777
82.8142 14297 119.57
82.9316 14097 118.731
83.049 13877 117.801
83.1664 13792 117.439
83.2838 13522 116.284
83.4012 13301 115.33
83.5186 13091 114.416
83.636 12965 113.864
83.7534 12926 113.693
83.8708 13418 115.836
83.9881 13611 116.666
84.1055 13418 115.836
84.2228 13073 114.337
84.3401 11784 108.554
84.4575 10903 104.417
84.5747 10085 100.424
84.692 9275 96.3068
84.8093 8921 94.451
84.9265 8889 94.2815
85.0437 9587 97.9132
85.1609 10430 102.127
85.2781 11812 108.683
85.3952 13027 114.136
85.5123 14141 118.916
85.6294 14958 122.303
85.7465 15336 123.839
85.8636 15708 125.332
85.9806 16431 128.183
86.0976 16463 128.308
86.2145 16794 129.592
86.3315 17444 132.076
86.4484 16273 127.566
86.5652 16823 129.704
86.682 16985 130.327
86.7988 17050 130.576
86.9156 16881 129.927
87.0323 16708 129.259
87.149 16665 129.093
87.2657 16882 129.931
87.3823 17233 131.275
87.4988 17565 132.533
87.6154 17811 133.458
87.7318 17800 133.417
87.8483 16743 129.395
87.9647 15393 124.069
88.081 14317 119.654
88.1973 13090 114.412
88.3136 12135 110.159
88.4298 11936 109.252
88.546 12173 110.331
88.6621 13171 114.765
88.7781 14864 121.918
88.8942 0 1
89.0101 0 1
89.126 0 1
89.2419 0 1
89.3577 0 1
89.4734 0 1
89.5891 0 1
89.7047 0 1
89.8203 0 1
89.9358 0 1
92.3269 0 1
92.4424 0 1
92.558 0 1
92.6736 0 1
92.7893 0 1
92.905 0 1
93.0208 0 1
93.1366 0 1
93.2525 0 1
93.3685 0 1
93.4845 0 1
93.6005 13516 116.258
93.7167 13289 115.278
93.8328 13453 115.987
93.949 13807 117.503
94.0653 14684 121.178
94.1816 16356 127.891
94.2979 17472 132.182
94.4143 18898 137.47
94.5307 20249 142.299
94.6472 21234 145.719
94.7637 21468 146.52
94.8803 22070 148.56
94.9969 22255 149.181
95.1135 22217 149.054
95.2302 22540 150.133
95.3469 22566 150.22
95.4637 22795 150.98
95.5805 22206 149.017
95.6973 22406 149.686
95.8142 22265 149.215
95.9311 22342 149.472
96.048 21766 147.533
96.1649 21343 146.092
96.2819 21098 145.252
96.3989 21337 146.072
96.516 21988 148.284
96.633 21947 148.145
96.7501 22109 148.691
96.8673 21401 146.291
96.9844 20097 141.764
97.1016 18454 135.846
97.2188 16742 129.391
97.336 15639 125.056
97.4532 14341 119.754
97.5704 13969 118.191
97.6877 14034 118.465
97.805 15113 122.935
97.9223 16820 129.692
98.0396 18147 134.711
98.1569 19505 139.66
98.2743 20850 144.395
98.3916 22376 149.586
98.509 22644 150.479
98.6264 23158 152.178
98.7438 23233 152.424
98.8612 23093 151.964
98.9786 23345 152.791
99.096 23048 151.816
99.2134 22803 151.007
99.3308 23085 151.937
99.4482 23255 152.496
99.5656 23024 151.737
99.6831 22595 150.316
99.8005 22290 149.298
99.9179 22217 149.054
100.035 22304 149.345
100.153 22737 150.788
100.27 22999 151.654
100.388 23066 151.875
100.505 22127 148.751
100.622 20296 142.464
100.74 18985 137.786
100.857 17392 131.879
100.975 15678 125.212
101.092 14823 121.75
101.209 14436 120.15
101.327 15220 123.369
101.444 16364 127.922
101.561 18034 134.291
101.679 19652 140.186
101.796 21367 146.175
101.913 23038 151.783
102.03 23675 153.867
102.148 23606 153.642
102.265 23349 152.804
102.382 24841 157.61
102.499 24539 156.649
102.616 24325 155.965
102.733 24064 155.126
102.851 23954 154.771
102.968 24488 156.486
103.085 24234 155.673
103.202 23833 154.379
103.319 23438 153.095
103.436 23199 152.312
103.552 23447 153.124
103.669 23641 153.756
103.786 24188 155.525
103.903 24419 156.266
104.02 23349 152.804
104.137 22112 148.701
104.253 20745 144.031
104.37 19067 138.083
104.487 17511 132.329
104.603 16137 127.031
104.72 15929 126.21
104.836 16095 126.866
104.953 17517 132.352
105.069 18918 137.543
105.186 20990 144.879
105.302 22845 151.146
105.418 24323 155.958
105.535 25279 158.994
105.651 25575 159.922
105.767 26173 161.781
105.883 25877 160.863
105.999 25933 161.037
106.115 0 1
106.231 0 1
106.347 0 1
106.463 0 1
106.579 0 1
106.694 0 1
106.81 0 1
106.926 0 1
107.041 0 1
107.157 0 1
109.576 0 1
109.692 0 1
109.807 0 1
109.923 0 1
110.039 0 1
110.155 0 1
110.27 0 1
110.386 0 1
110.502 0 1
110.618 22737 150.788
110.735 23040 151.789
110.851 23777 154.198
110.967 24141 155.374
111.083 23708 153.974
111.199 23599 153.62
111.316 23598 153.616
111.432 24158 155.428
111.549 24140 155.371
111.665 23581 153.561
111.782 23084 151.934
111.898 22689 150.629
112.015 22552 150.173
112.132 22874 151.242
112.248 23256 152.499
112.365 23016 151.71
112.482 21975 148.24
112.599 21744 147.458
112.716 19867 140.95
112.832 18438 135.787
112.949 16814 129.669
113.066 15459 124.334
113.183 14881 121.988
113.3 14941 122.233
113.417 15595 124.88
113.534 16776 129.522
113.652 18112 134.581
113.769 19550 139.821
113.886 20842 144.368
114.003 21131 145.365
114.12 22335 149.449
114.238 22243 149.141
114.355 22596 150.32
114.472 22213 149.04
114.589 22582 150.273
114.707 21736 147.431
114.824 21739 147.442
114.942 21798 147.641
115.059 22439 149.797
115.176 21900 147.986
115.294 21962 148.196
115.411 21353 146.127
115.529 21094 145.238
115.646 21433 146.4
115.764 21765 147.53
115.881 22225 149.081
115.999 22084 148.607
116.116 20964 144.79
116.234 19947 141.234
116.351 18885 137.423
116.469 17354 131.735
116.586 16049 126.685
116.704 15064 122.735
116.821 15077 122.788
116.939 15093 122.854
117.056 15373 123.988
117.174 16536 128.592
117.291 18163 134.77
117.409 19392 139.255
117.526 20227 142.222
117.644 20824 144.305
117.761 21532 146.738
117.879 21665 147.19
117.996 21694 147.289
118.114 22037 148.449
118.231 21687 147.265
118.349 21304 145.959
118.466 21144 145.41
118.584 21569 146.864
118.701 21588 146.929
118.819 21587 146.925
118.936 20989 144.876
119.053 20639 143.663
119.171 20216 142.183
119.288 20518 143.241
119.405 20759 144.08
119.523 21045 145.069
119.64 20653 143.712
119.757 20218 142.19
119.875 19347 139.093
119.992 18487 135.967
120.109 17279 131.45
120.226 16200 127.279
120.343 15061 122.723
120.46 14627 120.942
120.578 14514 120.474
120.695 14896 122.049
120.812 15488 124.451
120.929 16408 128.094
121.046 17462 132.144
121.163 18688 136.704
121.279 19799 140.709
121.396 20005 141.439
121.513 20351 142.657
121.63 20941 144.71
121.747 20687 143.83
121.863 20774 144.132
121.98 20456 143.024
122.097 19986 141.372
122.213 19959 141.276
122.33 20113 141.82
122.446 20245 142.285
122.563 19970 141.315
122.679 19904 141.082
122.795 19171 138.459
122.912 19348 139.097
123.028 19308 138.953
123.144 19238 138.701
123.26 19423 139.366
123.377 0 1
123.493 0 1
123.609 0 1
123.725 0 1
123.84 0 1
123.956 0 1
124.072 0 1
124.188 0 1
124.303 0 1
124.419 0 1
126.852 0 1
126.968 0 1
127.083 0 1
127.199 0 1
127.315 0 1
127.431 0 1
127.547 0 1
127.663 0 1
127.779 0 1
127.895 0 1
128.011 0 1
128.127 0 1
128.243 0 1
128.359 20708 143.903
128.476 20782 144.16
128.592 20450 143.003
128.708 19998 141.414
128.825 19327 139.022
128.941 18164 134.774
129.058 17499 132.284
129.174 16441 128.222
129.291 15933 126.226
129.408 15708 125.332
129.524 15662 125.148
129.641 16520 128.53
129.758 16924 130.092
129.875 17992 134.134
129.992 19045 138.004
130.108 19541 139.789
130.225 20210 142.162
130.342 20516 143.234
130.459 19862 140.933
130.576 20895 144.551
130.693 20377 142.748
130.81 19786 140.663
130.928 19973 141.326
131.045 20046 141.584
131.162 20547 143.342
131.279 20895 144.551
131.396 20489 143.14
131.513 20127 141.87
131.631 19826 140.805
131.748 20045 141.58
131.865 20349 142.65
131.983 20310 142.513
132.1 20221 142.201
132.217 19751 140.538
132.335 18942 137.63
132.452 18509 136.048
132.57 17883 133.727
132.687 16365 127.926
132.804 15889 126.052
132.922 15627 125.008
133.039 15292 123.661
133.157 15941 126.258
133.274 16028 126.602
133.392 17250 131.339
133.509 18011 134.205
133.627 18641 136.532
133.744 19101 138.206
133.862 19353 139.115
133.979 19410 139.32
134.097 19443 139.438
134.214 19204 138.578
134.332 19541 139.789
134.449 18655 136.583
134.567 18897 137.466
134.684 19196 138.55
134.802 19717 140.417
134.919 19483 139.582
135.037 19398 139.277
135.154 19020 137.913
135.272 19167 138.445
135.389 19362 139.147
135.507 19864 140.94
135.624 19567 139.882
135.742 19840 140.855
135.859 19016 137.899
135.977 18217 134.97
136.094 17639 132.812
136.211 16796 129.599
136.329 16033 126.621
136.446 15558 124.732
136.564 15242 123.458
136.681 15000 122.474
136.798 15546 124.684
136.915 15881 126.02
137.033 16414 128.117
137.15 17190 131.111
137.267 17812 133.462
137.384 18060 134.387
137.502 18280 135.204
137.619 18225 135
137.736 18321 135.355
137.853 18304 135.292
137.97 18067 134.414
138.087 17662 132.898
138.204 17730 133.154
138.321 18108 134.566
138.438 18378 135.565
138.555 18867 137.357
138.672 18666 136.624
138.788 18581 136.312
138.905 18365 135.518
139.022 18771 137.007
139.139 18777 137.029
139.255 19150 138.384
139.372 18883 137.415
139.488 18140 134.685
139.605 17910 133.828
139.721 17078 130.683
139.838 16773 129.511
139.954 15955 126.313
140.071 15153 123.098
140.187 15137 123.033
140.303 14661 121.083
140.419 14941 122.233
140.535 14650 121.037
140.652 15060 122.719
140.768 0 1
140.884 0 1
141 0 1
141.115 0 1
141.231 0 1
141.347 0 1
141.463 0 1
141.578 0 1
141.694 0 1
144.104 0 1
144.219 0 1
144.335 0 1
144.45 0 1
144.566 0 1
144.682 0 1
144.798 0 1
144.914 0 1
145.03 0 1
145.146 10364 101.804
145.262 11298 106.292
145.378 11737 108.337
145.494 11855 108.881
145.61 12179 110.359
145.726 12411 111.405
145.842 12728 112.818
145.959 13220 114.978
146.075 13223 114.991
146.192 13527 116.306
146.308 13471 116.065
146.425 13880 117.813
146.541 13704 117.064
146.658 13321 115.417
146.774 13152 114.682
146.891 13187 114.835
147.008 13443 115.944
147.125 13451 115.978
147.241 13918 117.975
147.358 13987 118.267
147.475 14001 118.326
147.592 14029 118.444
147.709 14197 119.151
147.826 14093 118.714
147.943 14242 119.34
148.06 14112 118.794
148.177 14076 118.642
148.294 13746 117.243
148.411 13564 116.465
148.528 13313 115.382
148.645 13163 114.73
148.762 12783 113.062
148.88 12327 111.027
148.997 12012 109.599
149.114 12559 112.067
149.231 12236 110.616
149.349 11980 109.453
149.466 12645 112.45
149.583 12923 113.679
149.701 13330 115.456
149.818 13552 116.413
149.935 13718 117.124
150.053 13608 116.653
150.17 13956 118.136
150.287 13637 116.778
150.405 13693 117.017
150.522 13459 116.013
150.64 13118 114.534
150.757 13390 115.715
150.875 13706 117.073
150.992 13864 117.745
151.11 14041 118.495
151.227 14217 119.235
151.344 14011 118.368
151.462 14087 118.689
151.579 14268 119.449
151.697 14331 119.712
151.814 14054 118.55
151.932 14022 118.415
152.049 13544 116.379
152.167 13589 116.572
152.284 13389 115.711
152.402 13148 114.665
152.519 12612 112.303
152.636 12806 113.164
152.754 12414 111.418
152.871 12659 112.512
152.989 12798 113.128
153.106 12846 113.34
153.223 13325 115.434
153.341 13321 115.417
153.458 13723 117.145
153.575 13702 117.056
153.693 14008 118.355
153.81 13977 118.224
153.927 13634 116.765
154.044 13708 117.081
154.162 13275 115.217
154.279 13242 115.074
154.396 13512 116.241
154.513 14062 118.583
154.63 14393 119.971
154.747 14714 121.301
154.864 15076 122.784
154.981 14814 121.713
155.098 15025 122.577
155.215 14851 121.865
155.332 14677 121.149
155.449 14499 120.412
155.566 14794 121.631
155.683 14472 120.3
155.8 13837 117.631
155.917 13794 117.448
156.033 13573 116.503
156.15 0 1
156.267 0 1
156.383 0 1
156.5 0 1
156.617 0 1
156.733 0 1
156.85 0 1
156.966 0 1
157.082 0 1
157.199 0 1
157.315 0 1
157.431 0 1
157.547 0 1
157.664 0 1
157.78 0 1
157.896 0 1
158.012 0 1
158.128 0 1
158.244 0 1
158.359 0 1
158.475 0 1
158.591 0 1
158.706 0 1
