
6.15755 0 1
6.2731 0 1
6.3887 0 1
6.50437 0 1
6.62009 0 1
6.73587 0 1
6.8517 0 1
6.96759 0 1
7.08353 0 1
7.19952 0 1
7.31557 0 1
7.43166 0 1
7.54781 0 1
7.664 0 1
7.78024 0 1
7.89653 0 1
8.01286 0 1
8.12924 0 1
8.24567 0 1
8.36213 0 1
8.47864 0 1
8.59519 0 1
8.71178 0 1
8.82841 0 1
8.94508 0 1
9.06179 0 1
9.17853 0 1
9.29531 0 1
9.41212 0 1
9.52897 0 1
9.64584 0 1
9.76276 0 1
9.8797 0 1
9.99667 0 1
10.1137 0 1
10.2307 0 1
10.3478 0 1
10.4648 0 1
10.5819 0 1
10.6991 0 1
10.8162 0 1
10.9334 0 1
11.0506 0 1
11.1678 0 1
11.285 0 1
11.4023 0 1
11.5196 0 1
11.6369 0 1
11.7542 0 1
11.8715 0 1
11.9888 0 1
12.1062 0 1
12.2235 0 1
12.3409 0 1
12.4582 0 1
12.5756 0 1
12.693 0 1
12.8104 0 1
12.9278 0 1
13.0452 0 1
13.1626 0 1
13.28 0 1
13.3974 0 1
13.5149 0 1
13.6323 0 1
13.7497 0 1
13.8671 0 1
13.9845 0 1
14.1019 0 1
14.2193 0 1
14.3367 0 1
14.4541 0 1
14.5714 0 1
14.6888 0 1
14.8062 0 1
14.9235 0 1
15.0408 8513 92.2659
15.1581 8957 94.6414
15.2755 9256 96.2081
15.3927 9181 95.8175
15.51 9238 96.1145
15.6273 9003 94.8841
15.7445 9230 96.0729
15.8617 9292 96.395
15.9789 9252 96.1873
16.0961 9357 96.7316
16.2132 9309 96.4832
16.3304 9742 98.7016
16.4475 10084 100.419
16.5646 10474 102.343
16.6816 10679 103.339
16.7986 11078 105.252
16.9156 11185 105.759
17.0326 11717 108.245
17.1496 11767 108.476
17.2665 11974 109.426
17.3833 11863 108.917
17.5002 12110 110.045
17.617 12360 111.176
17.7338 12444 111.553
17.8505 12361 111.18
17.9672 12402 111.364
18.0839 11745 108.374
18.2005 11131 105.504
18.3171 11304 106.32
18.4337 11996 109.526
18.5502 12224 110.562
18.6666 12688 112.641
18.7831 12906 113.605
18.8994 12719 112.779
19.0158 12444 111.553
19.1321 12282 110.824
19.2483 11937 109.257
19.3645 11853 108.871
19.4806 11863 108.917
19.5967 11613 107.764
19.7128 11121 105.456
19.8288 10919 104.494
19.9447 9895 99.4736
20.0606 0 1
20.1764 0 1
20.2922 0 1
20.4079 0 1
20.5236 0 1
20.6392 0 1
20.7548 0 1
20.8702 0 1
23.3078 0 1
23.4233 0 1
23.539 0 1
23.6547 0 1
23.7704 0 1
23.8862 0 1
24.0021 0 1
24.118 0 1
24.234 0 1
24.35 0 1
24.4661 11439 106.953
24.5822 11460 107.051
24.6984 11585 107.634
24.8146 11148 105.584
24.9309 11188 105.773
25.0472 11372 106.64
25.1636 10980 104.785
25.28 11406 106.799
25.3965 11869 108.945
25.513 12093 109.968
25.6296 12622 112.348
25.7462 12883 113.503
25.8628 13079 114.363
25.9795 13415 115.823
26.0962 13473 116.073
26.213 13428 115.879
26.3298 13579 116.529
26.4466 13326 115.438
26.5635 13153 114.687
26.6804 12387 111.297
26.7973 11849 108.853
26.9143 11742 108.361
27.0313 12213 110.512
27.1483 12614 112.312
27.2653 13102 114.464
27.3824 13059 114.276
27.4996 12982 113.939
27.6167 12851 113.362
27.7339 12558 112.062
27.8511 12245 110.657
27.9683 12231 110.594
28.0855 11635 107.866
28.2028 11730 108.305
28.3201 11537 107.41
28.4374 11425 106.888
28.5547 11228 105.962
28.6721 11190 105.783
28.7894 11085 105.285
28.9068 11122 105.461
29.0242 11612 107.759
29.1416 11841 108.816
29.259 12288 110.851
29.3764 12587 112.192
29.4939 12625 112.361
29.6113 12872 113.455
29.7288 13012 114.07
29.8463 12992 113.982
29.9638 12804 113.155
30.0812 12806 113.164
30.1987 12237 110.621
30.3162 11579 107.606
30.4337 10874 104.278
30.5512 11061 105.171
30.6687 11715 108.236
30.7862 12247 110.666
30.9037 12523 111.906
31.0212 12412 111.409
31.1387 12566 112.098
31.2562 12254 110.698
31.3737 12078 109.9
31.4912 11839 108.807
31.6087 11943 109.284
31.7262 11620 107.796
31.8436 11425 106.888
31.9611 11291 106.259
32.0785 11115 105.428
32.1959 10962 104.7
32.3134 10911 104.456
32.4308 10992 104.843
32.5482 11273 106.174
32.6655 11430 106.911
32.7829 11654 107.954
32.9002 12190 110.408
33.0176 12478 111.705
33.1349 12636 112.41
33.2522 12843 113.327
33.3694 12607 112.281
33.4867 12578 112.152
33.6039 12775 113.027
33.7211 12494 111.777
33.8383 11875 108.972
33.9554 11194 105.802
34.0725 10622 103.063
34.1896 10518 102.557
34.3067 10789 103.87
34.4237 11470 107.098
34.5407 11770 108.49
34.6577 11873 108.963
34.7746 11963 109.375
34.8915 11998 109.535
35.0084 11733 108.319
35.1252 11491 107.196
35.242 11368 106.621
35.3587 10924 104.518
35.4755 11102 105.366
35.5921 10780 103.827
35.7088 11005 104.905
35.8254 10650 103.199
35.9419 10387 101.917
36.0584 10424 102.098
36.1749 10463 102.289
36.2913 10613 103.019
36.4077 10743 103.648
36.524 11178 105.726
36.6403 11374 106.649
36.7565 11557 107.503
36.8727 11809 108.669
36.9889 11950 109.316
37.1049 12076 109.891
37.221 0 1
37.3369 0 1
37.4529 0 1
37.5687 0 1
37.6845 0 1
37.8003 0 1
37.916 0 1
38.0316 0 1
38.1472 0 1
40.5851 0 1
40.7008 0 1
40.8164 0 1
40.9322 0 1
41.048 0 1
41.1639 0 1
41.2798 0 1
41.3958 0 1
41.5118 0 1
41.6279 0 1
41.744 8410 91.7061
41.8602 9276 96.312
41.9765 9862 99.3076
42.0928 9971 99.8549
42.2091 9897 99.4837
42.3255 10155 100.772
42.4419 9858 99.2875
42.5584 9889 99.4435
42.675 9629 98.1275
42.7915 9004 94.8894
42.9081 8358 91.4221
43.0248 8122 90.1221
43.1415 8361 91.4385
43.2582 8723 93.397
43.375 8979 94.7576
43.4918 9064 95.205
43.6087 9380 96.8504
43.7256 9158 95.6974
43.8425 8995 94.842
43.9595 8661 93.0645
44.0765 8653 93.0215
44.1935 8323 91.2305
44.3106 8455 91.9511
44.4277 7937 89.0898
44.5448 7873 88.7299
44.6619 7324 85.5804
44.7791 7135 84.4689
44.8963 6971 83.4925
45.0136 7048 83.9524
45.1308 6956 83.4026
45.2481 7257 85.188
45.3654 7449 86.3076
45.4827 7352 85.7438
45.6001 7627 87.3327
45.7174 7721 87.8692
45.8348 7721 87.8692
45.9522 7624 87.3155
46.0697 7578 87.0517
46.1871 7424 86.1626
46.3046 6969 83.4805
46.422 6478 80.486
46.5395 6173 78.5684
46.657 6075 77.9423
46.7745 6213 78.8226
46.892 6708 81.9024
47.0096 6655 81.5782
47.1271 6832 82.6559
47.2446 6848 82.7526
47.3622 6667 81.6517
47.4797 6779 82.3347
47.5973 6638 81.4739
47.7149 6331 79.5676
47.8324 6353 79.7057
47.95 6093 78.0577
48.0675 5877 76.6616
48.1851 5960 77.201
48.3027 5742 75.776
48.4202 5632 75.0467
48.5378 5550 74.4983
48.6554 5648 75.1532
48.7729 5541 74.4379
48.8904 5869 76.6094
49.008 6242 79.0063
49.1255 6319 79.4921
49.243 6568 81.0432
49.3605 6634 81.4494
49.478 6640 81.4862
49.5955 6608 81.2896
49.713 6397 79.9812
49.8304 6093 78.0577
49.9479 5796 76.1315
50.0653 5444 73.7835
50.1827 5400 73.4847
50.3001 5691 75.4387
50.4175 6096 78.0769
50.5348 6579 81.111
50.6521 6993 83.6242
50.7694 6879 82.9397
50.8867 7315 85.5278
51.004 7382 85.9186
51.1212 7477 86.4696
51.2384 7389 85.9593
51.3556 7448 86.3018
51.4727 7429 86.1916
51.5899 7279 85.3171
51.707 7358 85.7788
51.824 7141 84.5044
51.9411 7138 84.4867
52.0581 7113 84.3386
52.175 7410 86.0814
52.2919 7535 86.8044
52.4088 7953 89.1796
52.5257 8345 91.351
52.6425 8773 93.6643
52.7593 9066 95.2155
52.876 9205 95.9427
52.9927 9143 95.619
53.1094 9250 96.1769
53.226 9258 96.2185
53.3426 9205 95.9427
53.4591 8972 94.7206
53.5756 8263 90.901
53.692 7785 88.2326
53.8084 7746 88.0114
53.9248 8036 89.6437
54.0411 8513 92.2659
54.1573 9122 95.5092
54.2735 0 1
54.3896 0 1
54.5057 0 1
54.6217 0 1
54.7377 0 1
54.8537 0 1
54.9695 0 1
55.0853 0 1
55.2011 0 1
55.3168 0 1
55.4324 0 1
57.824 0 1
57.9396 0 1
58.0553 0 1
58.1711 0 1
58.2869 0 1
58.4028 0 1
58.5187 0 1
58.6347 0 1
58.7508 0 1
58.8669 0 1
58.983 8992 94.8262
59.0992 9721 98.5951
59.2155 10593 102.922
59.3318 11117 105.437
59.4482 11649 107.931
59.5646 11631 107.847
59.681 11886 109.023
59.7975 11663 107.995
59.9141 11794 108.6
60.0306 11449 107
60.1473 11485 107.168
60.2639 10931 104.551
60.3807 11014 104.948
60.4974 10581 102.864
60.6142 10225 101.119
60.731 10118 100.588
60.8479 9708 98.5292
60.9648 9806 99.0252
61.0818 10094 100.469
61.1987 10366 101.814
61.3158 11093 105.323
61.4328 11259 106.108
61.5499 11351 106.541
61.667 11301 106.306
61.7841 11301 106.306
61.9013 11157 105.627
62.0185 10623 103.068
62.1357 9831 99.1514
62.253 9286 96.3639
62.3702 9092 95.352
62.4875 9351 96.7006
62.6049 9836 99.1766
62.7222 10257 101.277
62.8396 10749 103.677
62.9569 11051 105.124
63.0743 11283 106.221
63.1918 11166 105.669
63.3092 11193 105.797
63.4267 10920 104.499
63.5441 11120 105.451
63.6616 10664 103.267
63.7791 10331 101.642
63.8966 10263 101.306
64.0142 9946 99.7296
64.1317 9455 97.2368
64.2492 9222 96.0312
64.3668 9020 94.9737
64.4843 9157 95.6922
64.6019 9370 96.7988
64.7195 9846 99.227
64.837 10277 101.376
64.9546 10756 103.711
65.0722 10702 103.45
65.1898 10835 104.091
65.3074 10982 104.795
65.4249 10647 103.184
65.5425 10370 101.833
65.6601 9734 98.661
65.7777 9087 95.3258
65.8952 8616 92.8224
66.0128 8330 91.2688
66.1304 9070 95.2365
66.2479 9357 96.7316
66.3655 9862 99.3076
66.483 10378 101.872
66.6005 10535 102.64
66.718 10674 103.315
66.8355 10870 104.259
66.953 10797 103.909
67.0705 10738 103.624
67.1879 10814 103.99
67.3054 10506 102.499
67.4228 10464 102.294
67.5402 9987 99.935
67.6576 9712 98.5495
67.7749 9253 96.1925
67.8923 9040 95.0789
68.0096 8601 92.7416
68.1269 8912 94.4034
68.2442 9191 95.8697
68.3614 9508 97.509
68.4787 9977 99.8849
68.5958 10766 103.759
68.713 10777 103.812
68.8302 11013 104.943
68.9473 10893 104.37
69.0643 11037 105.057
69.1814 10729 103.581
69.2984 10259 101.287
69.4154 9525 97.5961
69.5323 8887 94.2709
69.6492 8717 93.3649
69.7661 9305 96.4624
69.8829 10074 100.369
69.9997 10351 101.74
70.1165 10860 104.211
70.2332 11176 105.717
70.3499 11413 106.832
70.4665 11578 107.601
70.5831 11780 108.536
70.6996 11708 108.204
70.8161 11514 107.303
70.9326 11315 106.372
71.049 10971 104.743
71.1653 10739 103.629
71.2817 10470 102.323
71.3979 9839 99.1917
71.5141 9294 96.4054
71.6303 8622 92.8547
71.7464 8132 90.1776
71.8624 0 1
71.9784 0 1
72.0944 0 1
72.2102 0 1
72.3261 0 1
72.4418 0 1
72.5575 0 1
72.6732 0 1
75.1054 0 1
75.2209 0 1
75.3365 0 1
75.4521 0 1
75.5678 0 1
75.6835 0 1
75.7993 0 1
75.9151 0 1
76.031 0 1
76.147 10197 100.98
76.263 10711 103.494
76.3791 10626 103.082
76.4952 10457 102.259
76.6113 10188 100.936
76.7276 9459 97.2574
76.8438 9145 95.6295
76.9601 9283 96.3483
77.0765 9547 97.7088
77.1929 10054 100.27
77.3093 10749 103.677
77.4258 11213 105.891
77.5423 11453 107.019
77.6589 11427 106.897
77.7755 11748 108.388
77.8921 11361 106.588
78.0088 11193 105.797
78.1256 10184 100.916
78.2423 9569 97.8213
78.3591 8683 93.1826
78.4759 8340 91.3236
78.5928 8605 92.7631
78.7097 9347 96.6799
78.8266 10165 100.822
78.9436 10955 104.666
79.0606 11114 105.423
79.1776 11161 105.646
79.2946 11428 106.902
79.4117 11803 108.642
79.5288 11576 107.592
79.6459 11380 106.677
79.7631 11075 105.238
79.8802 11201 105.835
79.9974 10779 103.822
80.1147 10505 102.494
80.2319 10018 100.09
80.3491 9206 95.9479
80.4664 8816 93.8936
80.5837 9089 95.3362
80.701 8992 94.8262
80.8183 9940 99.6995
80.9357 10723 103.552
81.053 10989 104.828
81.1704 11213 105.891
81.2877 11598 107.694
81.4051 11435 106.935
81.5225 11634 107.861
81.6399 11109 105.399
81.7573 10592 102.917
81.8747 9530 97.6217
81.9922 9024 94.9947
82.1096 8299 91.0988
82.227 8677 93.1504
82.3444 9383 96.8659
82.4619 10064 100.319
82.5793 10836 104.096
82.6967 10561 102.767
82.8142 11135 105.523
82.9316 11395 106.747
83.049 11333 106.457
83.1664 11466 107.079
83.2838 11498 107.229
83.4012 11441 106.963
83.5186 11034 105.043
83.636 10956 104.671
83.7534 10547 102.699
83.8708 10096 100.479
83.9881 9340 96.6437
84.1055 8952 94.615
84.2228 9214 95.9896
84.3401 9402 96.9639
84.4575 10096 100.479
84.5747 10742 103.644
84.692 11482 107.154
84.8093 11683 108.088
84.9265 11751 108.402
85.0437 11789 108.577
85.1609 11593 107.671
85.2781 10949 104.637
85.3952 10052 100.26
85.5123 9385 96.8762
85.6294 9078 95.2785
85.7465 8749 93.5361
85.8636 9356 96.7264
85.9806 10094 100.469
86.0976 10872 104.269
86.2145 11245 106.042
86.3315 11635 107.866
86.4484 12047 109.759
86.5652 12131 110.141
86.682 12399 111.351
86.7988 12499 111.799
86.9156 12305 110.928
87.0323 12211 110.503
87.149 11705 108.19
87.2657 11673 108.042
87.3823 11245 106.042
87.4988 10371 101.838
87.6154 9843 99.2119
87.7318 9686 98.4175
87.8483 9824 99.1161
87.9647 10733 103.6
88.081 11416 106.846
88.1973 12095 109.977
88.3136 12461 111.629
88.4298 12481 111.718
88.546 12593 112.219
88.6621 12199 110.449
88.7781 11724 108.277
88.8942 0 1
89.0101 0 1
89.126 0 1
89.2419 0 1
89.3577 0 1
89.4734 0 1
89.5891 0 1
89.7047 0 1
89.8203 0 1
89.9358 0 1
92.3269 0 1
92.4424 0 1
92.558 0 1
92.6736 0 1
92.7893 0 1
92.905 0 1
93.0208 0 1
93.1366 0 1
93.2525 0 1
93.3685 0 1
93.4845 0 1
93.6005 11873 108.963
93.7167 12234 110.607
93.8328 11835 108.789
93.949 11664 108
94.0653 11152 105.603
94.1816 10599 102.951
94.2979 9749 98.737
94.4143 9767 98.8281
94.5307 9509 97.5141
94.6472 9442 97.17
94.7637 10287 101.425
94.8803 11002 104.89
94.9969 11341 106.494
95.1135 11603 107.717
95.2302 11659 107.977
95.3469 11973 109.421
95.4637 12247 110.666
95.5805 12292 110.869
95.6973 12519 111.888
95.8142 12488 111.75
95.9311 12385 111.288
96.048 12299 110.901
96.1649 11712 108.222
96.2819 11585 107.634
96.3989 10999 104.876
96.516 10240 101.193
96.633 9710 98.5393
96.7501 9891 99.4535
96.8673 10225 101.119
96.9844 10912 104.461
97.1016 11711 108.217
97.2188 12291 110.865
97.336 12483 111.727
97.4532 12367 111.207
97.5704 11958 109.353
97.6877 11889 109.037
97.805 11396 106.752
97.9223 10433 102.142
98.0396 9819 99.0909
98.1569 9222 96.0312
98.2743 9614 98.051
98.3916 9933 99.6644
98.509 10372 101.843
98.6264 10764 103.75
98.7438 11490 107.191
98.8612 11804 108.646
98.9786 11865 108.927
99.096 11952 109.325
99.2134 12217 110.531
99.3308 12080 109.909
99.4482 12285 110.838
99.5656 12078 109.9
99.6831 11859 108.899
99.8005 11728 108.296
99.9179 11223 105.939
100.035 10550 102.713
100.153 9704 98.5089
100.27 9532 97.632
100.388 9789 98.9394
100.505 10249 101.237
100.622 11177 105.721
100.74 11746 108.379
100.857 11944 109.289
100.975 12259 110.72
101.092 12137 110.168
101.209 12052 109.782
101.327 11433 106.925
101.444 11226 105.953
101.561 10225 101.119
101.679 9786 98.9242
101.796 9334 96.6126
101.913 9431 97.1133
102.03 10033 100.165
102.148 10955 104.666
102.265 10579 102.854
102.382 12938 113.745
102.499 12102 110.009
102.616 12400 111.355
102.733 12619 112.334
102.851 12762 112.969
102.968 12766 112.987
103.085 12701 112.699
103.202 12595 112.227
103.319 12318 110.986
103.436 11826 108.747
103.552 11401 106.775
103.669 10678 103.334
103.786 10309 101.533
103.903 10473 102.338
104.02 11096 105.338
104.137 11956 109.343
104.253 12709 112.734
104.37 12944 113.772
104.487 13071 114.328
104.603 13154 114.691
104.72 12767 112.991
104.836 12368 111.212
104.953 11415 106.841
105.069 10825 104.043
105.186 10287 101.425
105.302 10041 100.205
105.418 10538 102.655
105.535 11294 106.273
105.651 11712 108.222
105.767 12391 111.315
105.883 12676 112.588
105.999 12876 113.472
106.115 0 1
106.231 0 1
106.347 0 1
106.463 0 1
106.579 0 1
106.694 0 1
106.81 0 1
106.926 0 1
107.041 0 1
107.157 0 1
109.576 0 1
109.692 0 1
109.807 0 1
109.923 0 1
110.039 0 1
110.155 0 1
110.27 0 1
110.386 0 1
110.502 0 1
110.618 9653 98.2497
110.735 10585 102.883
110.851 11012 104.938
110.967 11242 106.028
111.083 11267 106.146
111.199 11414 106.836
111.316 11698 108.157
111.432 11524 107.35
111.549 11419 106.86
111.665 11340 106.489
111.782 11138 105.537
111.898 10667 103.281
112.015 9945 99.7246
112.132 9185 95.8384
112.248 8886 94.2656
112.365 8954 94.6256
112.482 9499 97.4628
112.599 10107 100.534
112.716 10560 102.762
112.832 10664 103.267
112.949 10602 102.966
113.066 10556 102.742
113.183 10256 101.272
113.3 9572 97.8366
113.417 9055 95.1578
113.534 8717 93.3649
113.652 8135 90.1942
113.769 7988 89.3756
113.886 7781 88.21
114.003 8176 90.4212
114.12 8593 92.6984
114.238 8775 93.675
114.355 9107 95.4306
114.472 9294 96.4054
114.589 9018 94.9632
114.707 9500 97.4679
114.824 9242 96.1353
114.942 9327 96.5764
115.059 9282 96.3431
115.176 8986 94.7945
115.294 8816 93.8936
115.411 8594 92.7038
115.529 8016 89.5321
115.646 7338 85.6621
115.764 6892 83.0181
115.881 6811 82.5288
115.999 7201 84.8587
116.116 7499 86.5968
116.234 7962 89.23
116.351 8063 89.7942
116.469 7925 89.0225
116.586 7985 89.3588
116.704 7816 88.4081
116.821 7602 87.1894
116.939 7030 83.8451
117.056 6723 81.9939
117.174 6323 79.5173
117.291 6194 78.702
117.409 5978 77.3175
117.526 6183 78.6321
117.644 6541 80.8764
117.761 6989 83.6002
117.879 7194 84.8175
117.996 7198 84.841
118.114 7395 85.9942
118.231 7542 86.8447
118.349 7803 88.3346
118.466 7579 87.0575
118.584 7875 88.7412
118.701 7744 88
118.819 7473 86.4465
118.936 7501 86.6083
119.053 7374 85.872
119.171 7179 84.729
119.288 6778 82.3286
119.405 6200 78.7401
119.523 6446 80.287
119.64 6873 82.9036
119.757 7313 85.5161
119.875 7885 88.7975
119.992 7891 88.8313
120.109 8052 89.7329
120.226 8022 89.5656
120.343 7973 89.2917
120.46 7965 89.2468
120.578 7526 86.7525
120.695 7212 84.9235
120.812 6892 83.0181
120.929 6718 81.9634
121.046 6624 81.388
121.163 6614 81.3265
121.279 7119 84.3742
121.396 7377 85.8895
121.513 7840 88.5438
121.63 8193 90.5152
121.747 8282 91.0055
121.863 8579 92.6229
121.98 8750 93.5414
122.097 8944 94.5727
122.213 9056 95.163
122.33 9154 95.6765
122.446 9053 95.1473
122.563 9164 95.7288
122.679 9071 95.2418
122.795 8689 93.2148
122.912 8405 91.6788
123.028 7989 89.3812
123.144 7679 87.6299
123.26 7783 88.2213
123.377 0 1
123.493 0 1
123.609 0 1
123.725 0 1
123.84 0 1
123.956 0 1
124.072 0 1
124.188 0 1
124.303 0 1
124.419 0 1
126.852 0 1
126.968 0 1
127.083 0 1
127.199 0 1
127.315 0 1
127.431 0 1
127.547 0 1
127.663 0 1
127.779 0 1
127.895 0 1
128.011 0 1
128.127 0 1
128.243 0 1
128.359 9142 95.6138
128.476 9105 95.4201
128.592 9403 96.9691
128.708 9982 99.91
128.825 10698 103.431
128.941 10771 103.783
129.058 10866 104.24
129.174 10808 103.962
129.291 10936 104.575
129.408 10618 103.044
129.524 10191 100.95
129.641 9969 99.8449
129.758 9176 95.7914
129.875 8748 93.5307
129.992 8361 91.4385
130.108 8408 91.6951
130.225 8714 93.3488
130.342 8967 94.6942
130.459 9242 96.1353
130.576 9368 96.7884
130.693 9539 97.6678
130.81 9817 99.0808
130.928 9689 98.4327
131.045 9770 98.8433
131.162 9712 98.5495
131.279 9883 99.4133
131.396 9833 99.1615
131.513 9680 98.387
131.631 9157 95.6922
131.748 8843 94.0372
131.865 8395 91.6242
131.983 8268 90.9285
132.1 8276 90.9725
132.217 8561 92.5257
132.335 9156 95.687
132.452 9306 96.4676
132.57 9282 96.3431
132.687 9097 95.3782
132.804 9611 98.0357
132.922 8995 94.842
133.039 8768 93.6376
133.157 8379 91.5369
133.274 7878 88.7581
133.392 7507 86.6429
133.509 7209 84.9058
133.627 7148 84.5458
133.744 7297 85.4225
133.862 7213 84.9294
133.979 7485 86.5159
134.097 7824 88.4534
134.214 7867 88.6961
134.332 7575 87.0345
134.449 7658 87.51
134.567 8001 89.4483
134.684 7733 87.9375
134.802 7868 88.7017
134.919 7778 88.193
135.037 7585 87.0919
135.154 7546 86.8677
135.272 7090 84.2021
135.389 6923 83.2046
135.507 6363 79.7684
135.624 6321 79.5047
135.742 6579 81.111
135.859 6815 82.553
135.977 7141 84.5044
136.094 7051 83.9702
136.211 7036 83.8809
136.329 7012 83.7377
136.446 6891 83.012
136.564 6655 81.5782
136.681 6281 79.2528
136.798 6177 78.5939
136.915 5860 76.5506
137.033 5675 75.3326
137.15 5444 73.7835
137.267 5405 73.5187
137.384 5650 75.1665
137.502 5681 75.3724
137.619 5876 76.6551
137.736 6306 79.4103
137.853 6187 78.6575
137.97 6335 79.5927
138.087 6584 81.1419
138.204 6550 80.9321
138.321 6727 82.0183
138.438 6933 83.2646
138.555 7074 84.1071
138.672 7028 83.8332
138.788 6871 82.8915
138.905 6620 81.3634
139.022 6426 80.1623
139.139 6298 79.3599
139.255 6578 81.1049
139.372 6812 82.5348
139.488 7290 85.3815
139.605 7722 87.8749
139.721 7864 88.6792
139.838 7998 89.4315
139.954 8011 89.5042
140.071 7883 88.7863
140.187 7994 89.4092
140.303 7540 86.8332
140.419 7495 86.5737
140.535 7164 84.6404
140.652 7008 83.7138
140.768 0 1
140.884 0 1
141 0 1
141.115 0 1
141.231 0 1
141.347 0 1
141.463 0 1
141.578 0 1
141.694 0 1
144.104 0 1
144.219 0 1
144.335 0 1
144.45 0 1
144.566 0 1
144.682 0 1
144.798 0 1
144.914 0 1
145.03 0 1
145.146 6614 81.3265
145.262 6776 82.3165
145.378 6495 80.5916
145.494 6137 78.339
145.61 6068 77.8974
145.726 5803 76.1774
145.842 5642 75.1132
145.959 5463 73.9121
146.075 5458 73.8783
146.192 5734 75.7232
146.308 5651 75.1731
146.425 5648 75.1532
146.541 5644 75.1266
146.658 5797 76.138
146.774 5725 75.6637
146.891 5669 75.2928
147.008 5669 75.2928
147.125 5934 77.0325
147.241 5818 76.2758
147.358 5615 74.9333
147.475 5425 73.6546
147.592 5252 72.4707
147.709 5142 71.7077
147.826 4868 69.7711
147.943 4933 70.2353
148.06 5053 71.0845
148.177 5393 73.437
148.294 5305 72.8354
148.411 5279 72.6567
148.528 5335 73.0411
148.645 5292 72.7461
148.762 5232 72.3326
148.88 5149 71.7565
148.997 5105 71.4493
149.114 4446 66.6783
149.231 4601 67.8307
149.349 4482 66.9477
149.466 4328 65.7875
149.583 4224 64.9923
149.701 4321 65.7343
149.818 4242 65.1306
149.935 4492 67.0224
150.053 4438 66.6183
150.17 4496 67.0522
150.287 4695 68.5201
150.405 4742 68.8622
150.522 4786 69.1809
150.64 4842 69.5845
150.757 4939 70.278
150.875 4966 70.4699
150.992 4774 69.0941
151.11 4867 69.7639
151.227 4504 67.1118
151.344 4537 67.3573
151.462 4443 66.6558
151.579 4487 66.9851
151.697 4748 68.9057
151.814 4989 70.6329
151.932 5223 72.2703
152.049 5243 72.4086
152.167 5301 72.808
152.284 5394 73.4439
152.402 5245 72.4224
152.519 5060 71.1337
152.636 5013 70.8025
152.754 4925 70.1783
152.871 4809 69.347
152.989 4605 67.8602
153.106 4734 68.8041
153.223 4684 68.4398
153.341 4686 68.4544
153.458 4823 69.4478
153.575 4904 70.0286
153.693 5063 71.1548
153.81 5118 71.5402
153.927 5227 72.298
154.044 5303 72.8217
154.162 5356 73.1847
154.279 5546 74.4715
154.396 5609 74.8933
154.513 5769 75.9539
154.63 5924 76.9675
154.747 5829 76.3479
154.864 5931 77.013
154.981 5542 74.4446
155.098 5565 74.5989
155.215 5656 75.2064
155.332 6024 77.6144
155.449 6183 78.6321
155.566 6250 79.0569
155.683 6348 79.6743
155.8 6434 80.2122
155.917 6552 80.9444
156.033 6189 78.6702
156.15 0 1
156.267 0 1
156.383 0 1
156.5 0 1
156.617 0 1
156.733 0 1
156.85 0 1
156.966 0 1
157.082 0 1
157.199 0 1
157.315 0 1
157.431 0 1
157.547 0 1
157.664 0 1
157.78 0 1
157.896 0 1
158.012 0 1
158.128 0 1
158.244 0 1
158.359 0 1
158.475 0 1
158.591 0 1
158.706 0 1
