
6.15755 0 1
6.2731 0 1
6.3887 0 1
6.50437 0 1
6.62009 0 1
6.73587 0 1
6.8517 0 1
6.96759 0 1
7.08353 0 1
7.19952 0 1
7.31557 0 1
7.43166 0 1
7.54781 0 1
7.664 0 1
7.78024 0 1
7.89653 0 1
8.01286 0 1
8.12924 0 1
8.24567 0 1
8.36213 0 1
8.47864 0 1
8.59519 0 1
8.71178 0 1
8.82841 0 1
8.94508 0 1
9.06179 0 1
9.17853 0 1
9.29531 0 1
9.41212 0 1
9.52897 0 1
9.64584 0 1
9.76276 0 1
9.8797 0 1
9.99667 0 1
10.1137 0 1
10.2307 0 1
10.3478 0 1
10.4648 0 1
10.5819 0 1
10.6991 0 1
10.8162 0 1
10.9334 0 1
11.0506 0 1
11.1678 0 1
11.285 0 1
11.4023 0 1
11.5196 0 1
11.6369 0 1
11.7542 0 1
11.8715 0 1
11.9888 0 1
12.1062 0 1
12.2235 0 1
12.3409 0 1
12.4582 0 1
12.5756 0 1
12.693 0 1
12.8104 0 1
12.9278 0 1
13.0452 0 1
13.1626 0 1
13.28 0 1
13.3974 0 1
13.5149 0 1
13.6323 0 1
13.7497 0 1
13.8671 0 1
13.9845 0 1
14.1019 0 1
14.2193 0 1
14.3367 0 1
14.4541 0 1
14.5714 0 1
14.6888 0 1
14.8062 0 1
14.9235 0 1
15.0408 25118 158.487
15.1581 26366 162.376
15.2755 27464 165.723
15.3927 27888 166.997
15.51 27228 165.009
15.6273 26648 163.242
15.7445 26730 163.493
15.8617 27008 164.341
15.9789 27114 164.663
16.0961 27170 164.833
16.2132 27356 165.396
16.3304 26986 164.274
16.4475 27313 165.266
16.5646 27634 166.235
16.6816 27869 166.94
16.7986 28215 167.973
16.9156 28690 169.381
17.0326 28735 169.514
17.1496 28598 169.109
17.2665 29351 171.321
17.3833 29539 171.869
17.5002 29292 171.149
17.617 29687 172.299
17.7338 29747 172.473
17.8505 29027 170.373
17.9672 28762 169.594
18.0839 28646 169.251
18.2005 28682 169.358
18.3171 29255 171.041
18.4337 29927 172.994
18.5502 30684 175.168
18.6666 31098 176.346
18.7831 31657 177.924
18.8994 31119 176.406
19.0158 30097 173.485
19.1321 29036 170.4
19.2483 27916 167.081
19.3645 26999 164.314
19.4806 26180 161.802
19.5967 25952 161.096
19.7128 24303 155.894
19.8288 22538 150.127
19.9447 19227 138.661
20.0606 0 1
20.1764 0 1
20.2922 0 1
20.4079 0 1
20.5236 0 1
20.6392 0 1
20.7548 0 1
20.8702 0 1
23.3078 0 1
23.4233 0 1
23.539 0 1
23.6547 0 1
23.7704 0 1
23.8862 0 1
24.0021 0 1
24.118 0 1
24.234 0 1
24.35 0 1
24.4661 14663 121.091
24.5822 17222 131.233
24.6984 19427 139.381
24.8146 21867 147.875
24.9309 23657 153.808
25.0472 24733 157.267
25.1636 26363 162.367
25.28 27387 165.49
25.3965 28526 168.896
25.513 29870 172.829
25.6296 30658 175.094
25.7462 31503 177.491
25.8628 32089 179.134
25.9795 32682 180.782
26.0962 33296 182.472
26.213 33564 183.205
26.3298 33975 184.323
26.4466 33599 183.3
26.5635 33232 182.296
26.6804 32663 180.729
26.7973 32929 181.463
26.9143 33320 182.538
27.0313 33530 183.112
27.1483 35038 187.184
27.2653 35708 188.966
27.3824 35465 188.322
27.4996 35637 188.778
27.6167 35216 187.659
27.7339 34429 185.551
27.8511 33734 183.668
27.9683 33264 182.384
28.0855 33703 183.584
28.2028 33553 183.175
28.3201 33686 183.537
28.4374 32991 181.634
28.5547 32599 180.552
28.6721 31371 177.119
28.7894 30894 175.767
28.9068 30185 173.738
29.0242 30216 173.828
29.1416 30494 174.625
29.259 30605 174.943
29.3764 31240 176.748
29.4939 31995 178.871
29.6113 32249 179.58
29.7288 32740 180.942
29.8463 32861 181.276
29.9638 32920 181.439
30.0812 32522 180.339
30.1987 32581 180.502
30.3162 32857 181.265
30.4337 33448 182.888
30.5512 34010 184.418
30.6687 34622 186.07
30.7862 35067 187.262
30.9037 35590 188.653
31.0212 35524 188.478
31.1387 35266 187.792
31.2562 35170 187.537
31.3737 34197 184.924
31.4912 34065 184.567
31.6087 34412 185.505
31.7262 34314 185.24
31.8436 33973 184.318
31.9611 33572 183.227
32.0785 32832 181.196
32.1959 31686 178.006
32.3134 30638 175.037
32.4308 30513 174.68
32.5482 30129 173.577
32.6655 30554 174.797
32.7829 30444 174.482
32.9002 31678 177.983
33.0176 31475 177.412
33.1349 32304 179.733
33.2522 32442 180.117
33.3694 32991 181.634
33.4867 33059 181.821
33.6039 32905 181.397
33.7211 32921 181.441
33.8383 32945 181.508
33.9554 32540 180.388
34.0725 33211 182.239
34.1896 33601 183.306
34.3067 34647 186.137
34.4237 35030 187.163
34.5407 35436 188.245
34.6577 35978 189.679
34.7746 35861 189.37
34.8915 34932 186.901
35.0084 34472 185.666
35.1252 34076 184.597
35.242 34008 184.413
35.3587 34114 184.7
35.4755 34559 185.901
35.5921 33950 184.255
35.7088 32804 181.119
35.8254 31826 178.398
35.9419 30163 173.675
36.0584 28771 169.62
36.1749 27338 165.342
36.2913 26761 163.588
36.4077 25962 161.127
36.524 25779 160.558
36.6403 25077 158.357
36.7565 24567 156.739
36.8727 24344 156.026
36.9889 23805 154.289
37.1049 22181 148.933
37.221 0 1
37.3369 0 1
37.4529 0 1
37.5687 0 1
37.6845 0 1
37.8003 0 1
37.916 0 1
38.0316 0 1
38.1472 0 1
40.5851 0 1
40.7008 0 1
40.8164 0 1
40.9322 0 1
41.048 0 1
41.1639 0 1
41.2798 0 1
41.3958 0 1
41.5118 0 1
41.6279 0 1
41.744 14538 120.574
41.8602 16743 129.395
41.9765 18684 136.689
42.0928 20732 143.986
42.2091 22703 150.675
42.3255 24513 156.566
42.4419 26339 162.293
42.5584 27579 166.069
42.675 28033 167.431
42.7915 28528 168.902
42.9081 29442 171.587
43.0248 31028 176.148
43.1415 31802 178.331
43.2582 33416 182.8
43.375 34604 186.022
43.4918 34858 186.703
43.6087 34856 186.698
43.7256 34564 185.914
43.8425 34447 185.599
43.9595 33457 182.913
44.0765 33542 183.145
44.1935 33649 183.437
44.3106 34195 184.919
44.4277 34239 185.038
44.5448 33282 182.434
44.6619 32013 178.922
44.7791 30832 175.59
44.8963 28733 169.508
45.0136 27254 165.088
45.1308 26774 163.628
45.2481 26667 163.3
45.3654 26786 163.664
45.4827 27436 165.638
45.6001 28461 168.704
45.7174 30455 174.514
45.8348 32238 179.549
45.9522 32987 181.623
46.0697 33843 183.965
46.1871 33888 184.087
46.3046 33388 182.724
46.422 34156 184.813
46.5395 34163 184.832
46.657 34964 186.987
46.7745 36119 190.05
46.892 36821 191.888
47.0096 37498 193.644
47.1271 38125 195.256
47.2446 37912 194.71
47.3622 37815 194.461
47.4797 37250 193.003
47.5973 36284 190.484
47.7149 36163 190.166
47.8324 36401 190.79
47.95 37220 192.925
48.0675 35492 188.393
48.1851 35026 187.152
48.3027 33434 182.85
48.4202 30901 175.787
48.5378 28606 169.133
48.6554 26953 164.174
48.7729 26808 163.731
48.8904 26829 163.796
49.008 27530 165.922
49.1255 28800 169.706
49.243 31104 176.363
49.3605 33717 183.622
49.478 34517 185.788
49.5955 35170 187.537
49.713 35260 187.776
49.8304 35252 187.755
49.9479 34968 186.997
50.0653 35700 188.944
50.1827 35979 189.681
50.3001 37011 192.382
50.4175 37938 194.777
50.5348 38746 196.84
50.6521 38686 196.688
50.7694 39438 198.59
50.8867 38844 197.089
51.004 38197 195.441
51.1212 37629 193.982
51.2384 37366 193.303
51.3556 38045 195.051
51.4727 38320 195.755
51.5899 38180 195.397
51.707 36657 191.46
51.824 34393 185.453
51.9411 31582 177.713
52.0581 28788 169.67
52.175 27852 166.889
52.2919 27314 165.269
52.4088 27345 165.363
52.5257 27878 166.967
52.6425 29220 170.939
52.7593 30967 175.974
52.876 32691 180.807
52.9927 33682 183.527
53.1094 33778 183.788
53.226 34329 185.281
53.3426 33247 182.338
53.4591 32552 180.422
53.5756 31146 176.482
53.692 30190 173.753
53.8084 29285 171.129
53.9248 28437 168.633
54.0411 27662 166.319
54.1573 26337 162.287
54.2735 0 1
54.3896 0 1
54.5057 0 1
54.6217 0 1
54.7377 0 1
54.8537 0 1
54.9695 0 1
55.0853 0 1
55.2011 0 1
55.3168 0 1
55.4324 0 1
57.824 0 1
57.9396 0 1
58.0553 0 1
58.1711 0 1
58.2869 0 1
58.4028 0 1
58.5187 0 1
58.6347 0 1
58.7508 0 1
58.8669 0 1
58.983 30122 173.557
59.0992 34358 185.359
59.2155 37485 193.61
59.3318 39855 199.637
59.4482 42189 205.4
59.5646 43735 209.129
59.681 45290 212.814
59.7975 46085 214.674
59.9141 46547 215.748
60.0306 47770 218.563
60.1473 48428 220.064
60.2639 48676 220.626
60.3807 48171 219.479
60.4974 46095 214.697
60.6142 43142 207.707
60.731 39478 198.691
60.8479 36404 190.798
60.9648 33750 183.712
61.0818 33411 182.787
61.1987 33866 184.027
61.3158 36091 189.976
61.4328 39924 199.81
61.5499 43827 209.349
61.667 47514 217.977
61.7841 50211 224.078
61.9013 51396 226.707
62.0185 51438 226.799
62.1357 51698 227.372
62.253 51328 226.557
62.3702 52107 228.27
62.4875 53015 230.25
62.6049 54474 233.397
62.7222 55136 234.811
62.8396 55657 235.917
62.9569 56365 237.413
63.0743 56044 236.736
63.1918 55688 235.983
63.3092 54859 234.22
63.4267 54689 233.857
63.5441 54251 232.918
63.6616 54472 233.392
63.7791 54082 232.555
63.8966 52465 229.052
64.0142 49769 223.09
64.1317 45828 214.075
64.2492 41373 203.404
64.3668 36967 192.268
64.4843 34338 185.305
64.6019 33081 181.882
64.7195 33335 182.579
64.837 35223 187.678
64.9546 39386 198.459
65.0722 43834 209.366
65.1898 48556 220.354
65.3074 51844 227.693
65.4249 53548 231.404
65.5425 54498 233.448
65.6601 54528 233.512
65.7777 54109 232.613
65.8952 54093 232.579
66.0128 54459 233.365
66.1304 56003 236.65
66.2479 56860 238.453
66.3655 57403 239.589
66.483 58619 242.114
66.6005 59106 243.117
66.718 58857 242.605
66.8355 58240 241.33
66.953 57620 240.042
67.0705 56282 237.238
67.1879 56367 237.417
67.3054 56486 237.668
67.4228 55841 236.307
67.5402 54733 233.951
67.6576 50991 225.812
67.7749 47138 217.113
67.8923 41565 203.875
68.0096 36822 191.891
68.1269 33852 183.989
68.2442 32723 180.895
68.3614 33001 181.662
68.4787 35192 187.595
68.5958 39186 197.955
68.713 45012 212.16
68.8302 50158 223.96
68.9473 54794 234.081
69.0643 56856 238.445
69.1814 57639 240.081
69.2984 56378 237.441
69.4154 55254 235.062
69.5323 53236 230.729
69.6492 53237 230.731
69.7661 52903 230.007
69.8829 53043 230.311
69.9997 53847 232.05
70.1165 53849 232.054
70.2332 53425 231.138
70.3499 51798 227.592
70.4665 49840 223.249
70.5831 47578 218.124
70.6996 45086 212.335
70.8161 43170 207.774
70.9326 41696 204.196
71.049 39808 199.519
71.1653 37269 193.052
71.2817 34445 185.594
71.3979 30264 173.966
71.5141 25785 160.577
71.6303 19976 141.336
71.7464 14221 119.252
71.8624 0 1
71.9784 0 1
72.0944 0 1
72.2102 0 1
72.3261 0 1
72.4418 0 1
72.5575 0 1
72.6732 0 1
75.1054 0 1
75.2209 0 1
75.3365 0 1
75.4521 0 1
75.5678 0 1
75.6835 0 1
75.7993 0 1
75.9151 0 1
76.031 0 1
76.147 41235 203.064
76.263 44777 211.606
76.3791 46316 215.212
76.4952 46020 214.523
76.6113 43969 209.688
76.7276 41599 203.958
76.8438 38713 196.756
76.9601 34836 186.644
77.0765 31612 177.798
77.1929 30602 174.934
77.3093 30692 175.191
77.4258 32133 179.257
77.5423 36004 189.747
77.6589 43434 208.408
77.7755 49579 222.663
77.8921 56320 237.318
78.0088 59332 243.582
78.1256 61717 248.429
78.2423 61474 247.94
78.3591 60636 246.244
78.4759 59554 244.037
78.5928 59263 243.44
78.7097 60122 245.198
78.8266 60200 245.357
78.9436 65020 254.99
79.0606 64197 253.371
79.1776 64972 254.896
79.2946 65771 256.459
79.4117 66431 257.742
79.5288 65637 256.197
79.6459 65583 256.092
79.7631 64681 254.325
79.8802 64204 253.385
79.9974 65633 256.189
80.1147 66084 257.068
80.2319 63310 251.615
80.3491 58422 241.706
80.4664 53109 230.454
80.5837 45788 213.981
80.701 38909 197.254
80.8183 35313 187.918
80.9357 34465 185.648
81.053 34956 186.965
81.1704 37477 193.59
81.2877 44299 210.473
81.4051 53198 230.647
81.5225 62686 250.372
81.6399 66684 258.232
81.7573 70622 265.748
81.8747 70582 265.673
81.9922 70914 266.297
82.1096 70440 265.405
82.227 68902 262.492
82.3444 68482 261.691
82.4619 69841 264.274
82.5793 72320 268.924
82.6967 73615 271.321
82.8142 75481 274.738
82.9316 76050 275.772
83.049 75492 274.758
83.1664 74942 273.755
83.2838 74811 273.516
83.4012 74030 272.085
83.5186 73122 270.411
83.636 73399 270.922
83.7534 72464 269.191
83.8708 69885 264.358
83.9881 64244 253.464
84.1055 57610 240.021
84.2228 51595 227.145
84.3401 44816 211.698
84.4575 38938 197.327
84.5747 36902 192.099
84.692 37660 194.062
84.8093 41719 204.252
84.9265 50152 223.946
85.0437 60052 245.055
85.1609 68018 260.803
85.2781 75166 274.164
85.3952 79624 282.177
85.5123 81020 284.64
85.6294 79862 282.599
85.7465 78348 279.907
85.8636 76807 277.141
85.9806 77161 277.779
86.0976 79881 282.632
86.2145 81312 285.153
86.3315 84521 290.725
86.4484 82228 286.754
86.5652 83918 289.686
86.682 82398 287.051
86.7988 80088 282.998
86.9156 76737 277.014
87.0323 74479 272.908
87.149 73088 270.348
87.2657 73289 270.719
87.3823 72526 269.307
87.4988 68304 261.35
87.6154 61500 247.992
87.7318 53828 232.009
87.8483 46008 214.495
87.9647 37617 193.951
88.081 32378 179.939
88.1973 30066 173.396
88.3136 29557 171.921
88.4298 32546 180.405
88.546 37129 192.689
88.6621 42650 206.519
88.7781 47170 217.187
88.8942 0 1
89.0101 0 1
89.126 0 1
89.2419 0 1
89.3577 0 1
89.4734 0 1
89.5891 0 1
89.7047 0 1
89.8203 0 1
89.9358 0 1
92.3269 0 1
92.4424 0 1
92.558 0 1
92.6736 0 1
92.7893 0 1
92.905 0 1
93.0208 0 1
93.1366 0 1
93.2525 0 1
93.3685 0 1
93.4845 0 1
93.6005 34908 186.837
93.7167 37450 193.52
93.8328 42807 206.899
93.949 52368 228.841
94.0653 63928 252.84
94.1816 73073 270.32
94.2979 80652 283.993
94.4143 86387 293.917
94.5307 90374 300.623
94.6472 92888 304.775
94.7637 93246 305.362
94.8803 92540 304.204
94.9969 93008 304.972
95.1135 92814 304.654
95.2302 95649 309.272
95.3469 96867 311.235
95.4637 99849 315.989
95.5805 99431 315.327
95.6973 99260 315.056
95.8142 98579 313.973
95.9311 97353 312.014
96.048 97161 311.707
96.1649 95684 309.328
96.2819 94724 307.773
96.3989 93713 306.126
96.516 91096 301.821
96.633 86257 293.695
96.7501 77482 278.356
96.8673 69310 263.268
96.9844 61354 247.697
97.1016 54319 233.064
97.2188 49539 222.574
97.336 47663 218.319
97.4532 50146 223.933
97.5704 56403 237.493
97.6877 67219 259.266
97.805 78604 280.364
97.9223 88052 296.736
98.0396 95916 309.703
98.1569 99960 316.165
98.2743 101684 318.879
98.3916 99911 316.087
98.509 98446 313.761
98.6264 96897 311.283
98.7438 98179 313.335
98.8612 100469 316.968
98.9786 103399 321.557
99.096 103402 321.562
99.2134 104635 323.473
99.3308 104689 323.557
99.4482 105315 324.523
99.5656 103981 322.461
99.6831 101798 319.058
99.8005 102395 319.992
99.9179 100726 317.374
100.035 100189 316.526
100.153 97547 312.325
100.27 90447 300.744
100.388 79953 282.76
100.505 70520 265.556
100.622 61825 248.646
100.74 55352 235.27
100.857 52285 228.659
100.975 51801 227.598
101.092 56035 236.717
101.209 64878 254.712
101.327 78137 279.53
101.444 90086 300.143
101.561 99039 314.705
101.679 104381 323.08
101.796 106574 326.457
101.913 106186 325.862
102.03 103232 321.297
102.148 101615 318.771
102.265 102497 320.152
102.382 101811 319.078
102.499 104558 323.354
102.616 106440 326.251
102.733 107177 327.379
102.851 107829 328.373
102.968 107675 328.139
103.085 107365 327.666
103.202 105927 325.464
103.319 104234 322.853
103.436 102889 320.763
103.552 102180 319.656
103.669 101025 317.844
103.786 96566 310.751
103.903 89107 298.508
104.02 77798 278.923
104.137 68449 261.628
104.253 61036 247.055
104.37 55463 235.506
104.487 53205 230.662
104.603 54497 233.446
104.72 57676 240.158
104.836 65137 255.22
104.953 73287 270.716
105.069 79195 281.416
105.186 82336 286.943
105.302 83138 288.337
105.418 80929 284.48
105.535 77864 279.041
105.651 72737 269.698
105.767 67936 260.645
105.883 62401 249.802
105.999 57483 239.756
106.115 0 1
106.231 0 1
106.347 0 1
106.463 0 1
106.579 0 1
106.694 0 1
106.81 0 1
106.926 0 1
107.041 0 1
107.157 0 1
109.576 0 1
109.692 0 1
109.807 0 1
109.923 0 1
110.039 0 1
110.155 0 1
110.27 0 1
110.386 0 1
110.502 0 1
110.618 60556 246.081
110.735 65482 255.895
110.851 67981 260.732
110.967 71692 267.754
111.083 77174 277.802
111.199 83226 288.489
111.316 87305 295.474
111.432 90683 301.136
111.549 92854 304.72
111.665 94235 306.977
111.782 94569 307.521
111.898 94504 307.415
112.015 93308 305.464
112.132 92554 304.227
112.248 93093 305.111
112.365 93234 305.342
112.482 88905 298.169
112.599 79582 282.103
112.716 69515 263.657
112.832 61376 247.742
112.949 54886 234.278
113.066 50859 225.519
113.183 49295 222.025
113.3 49946 223.486
113.417 54204 232.818
113.534 64579 254.124
113.652 76651 276.859
113.769 84684 291.005
113.886 90670 301.115
114.003 93504 305.784
114.12 94670 307.685
114.238 92277 303.771
114.355 89799 299.665
114.472 87440 295.703
114.589 89221 298.699
114.707 91118 301.858
114.824 92933 304.849
114.942 93810 306.284
115.059 93716 306.131
115.176 93992 306.581
115.294 91772 302.939
115.411 91396 302.318
115.529 89852 299.753
115.646 87553 295.894
115.764 86754 294.54
115.881 85932 293.142
115.999 85888 293.067
116.116 81484 285.454
116.234 72996 270.178
116.351 63990 252.962
116.469 57414 239.612
116.586 51872 227.754
116.704 49151 221.7
116.821 48329 219.839
116.939 49715 222.969
117.056 55255 235.064
117.174 65467 255.865
117.291 74027 272.079
117.409 80863 284.364
117.526 85083 291.69
117.644 87037 295.02
117.761 86790 294.601
117.879 84965 291.488
117.996 82287 286.857
118.114 81456 285.405
118.231 83328 288.666
118.349 85615 292.6
118.466 86089 293.409
118.584 86792 294.605
118.701 86650 294.364
118.819 85516 292.431
118.936 84826 291.249
119.053 83134 288.33
119.171 81457 285.407
119.288 79272 281.553
119.405 79075 281.203
119.523 78732 280.592
119.64 78100 279.464
119.757 75473 274.723
119.875 69165 262.992
119.992 60978 246.937
120.109 54947 234.408
120.226 50514 224.753
120.343 47261 217.396
120.46 46349 215.288
120.578 46763 216.248
120.695 48717 220.719
120.812 55167 234.877
120.929 62466 249.932
121.046 67743 260.275
121.163 69697 264.002
121.279 71557 267.501
121.396 70970 266.402
121.513 69755 264.112
121.63 67348 259.515
121.747 64267 253.509
121.863 64648 254.26
121.98 64736 254.433
122.097 64682 254.327
122.213 63814 252.614
122.33 62811 250.621
122.446 61266 247.52
122.563 58012 240.857
122.679 55484 235.55
122.795 51636 227.236
122.912 48494 220.214
123.028 45351 212.958
123.144 42395 205.9
123.26 39740 199.349
123.377 0 1
123.493 0 1
123.609 0 1
123.725 0 1
123.84 0 1
123.956 0 1
124.072 0 1
124.188 0 1
124.303 0 1
124.419 0 1
126.852 0 1
126.968 0 1
127.083 0 1
127.199 0 1
127.315 0 1
127.431 0 1
127.547 0 1
127.663 0 1
127.779 0 1
127.895 0 1
128.011 0 1
128.127 0 1
128.243 0 1
128.359 74291 272.564
128.476 75190 274.208
128.592 76533 276.646
128.708 78327 279.87
128.825 78268 279.764
128.941 75007 273.874
129.058 70288 265.119
129.174 64527 254.022
129.291 59404 243.729
129.408 56477 237.649
129.524 54530 233.517
129.641 53402 231.089
129.758 54273 232.966
129.875 59440 243.803
129.992 65865 256.642
130.108 72810 269.833
130.225 77115 277.696
130.342 80055 282.94
130.459 80453 283.642
130.576 82194 286.695
130.693 79130 281.301
130.81 78197 279.637
130.928 80489 283.706
131.045 82422 287.092
131.162 84171 290.122
131.279 85389 292.214
131.396 85638 292.64
131.513 85369 292.18
131.631 84005 289.836
131.748 83138 288.337
131.865 81148 284.865
131.983 79739 282.381
132.1 78800 280.713
132.217 79568 282.078
132.335 79981 282.809
132.452 77393 278.196
132.57 73381 270.889
132.687 67480 259.769
132.804 64383 253.738
132.922 59858 244.659
133.039 57824 240.466
133.157 56074 236.799
133.274 55291 235.14
133.392 57909 240.643
133.509 62563 250.126
133.627 68339 261.417
133.744 72524 269.303
133.862 76813 277.152
133.979 78298 279.818
134.097 79015 281.096
134.214 77606 278.579
134.332 76653 276.863
134.449 77275 277.984
134.567 79409 281.796
134.684 81352 285.223
134.802 82230 286.758
134.919 82453 287.146
135.037 82067 286.473
135.154 81697 285.827
135.272 80414 283.574
135.389 79383 281.75
135.507 77868 279.048
135.624 76596 276.76
135.742 76661 276.877
135.859 77480 278.352
135.977 77283 277.998
136.094 75105 274.053
136.211 71683 267.737
136.329 67769 260.325
136.446 63813 252.612
136.564 60896 246.771
136.681 58797 242.481
136.798 56899 238.535
136.915 56546 237.794
137.033 57442 239.671
137.15 60835 246.648
137.267 65107 255.161
137.384 69165 262.992
137.502 71968 268.269
137.619 73865 271.781
137.736 75028 273.912
137.853 71251 266.929
137.97 72586 269.418
138.087 72219 268.736
138.204 74121 272.252
138.321 75287 274.385
138.438 74114 272.239
138.555 74231 272.454
138.672 72936 270.067
138.788 71104 266.653
138.905 68820 262.336
139.022 66551 257.975
139.139 63449 251.891
139.255 60202 245.361
139.372 58064 240.965
139.488 55912 236.457
139.605 54045 232.476
139.721 51037 225.914
139.838 47760 218.541
139.954 43346 208.197
140.071 38770 196.901
140.187 35197 187.609
140.303 31557 177.643
140.419 28841 169.826
140.535 26716 163.45
140.652 25024 158.19
140.768 0 1
140.884 0 1
141 0 1
141.115 0 1
141.231 0 1
141.347 0 1
141.463 0 1
141.578 0 1
141.694 0 1
144.104 0 1
144.219 0 1
144.335 0 1
144.45 0 1
144.566 0 1
144.682 0 1
144.798 0 1
144.914 0 1
145.03 0 1
145.146 45845 214.114
145.262 46455 215.534
145.378 46111 214.735
145.494 45701 213.778
145.61 45638 213.631
145.726 44523 211.005
145.842 45029 212.2
145.959 46335 215.256
146.075 47188 217.228
146.192 49769 223.09
146.308 51186 226.243
146.425 52012 228.061
146.541 53011 230.241
146.658 52412 228.937
146.774 51348 226.601
146.891 51897 227.809
147.008 54405 233.249
147.125 54245 232.906
147.241 55756 236.127
147.358 56535 237.771
147.475 56823 238.376
147.592 55999 236.641
147.709 55530 235.648
147.826 54827 234.152
147.943 53655 231.635
148.06 52676 229.513
148.177 52501 229.131
148.294 52900 230
148.411 53458 231.21
148.528 53381 231.043
148.645 52849 229.889
148.762 52706 229.578
148.88 51148 226.159
148.997 50212 224.08
149.114 48171 219.479
149.231 47953 218.982
149.349 46750 216.217
149.466 45623 213.595
149.583 45354 212.965
149.701 46175 214.884
149.818 47193 217.239
149.935 48464 220.145
150.053 49404 222.27
150.17 50987 225.803
150.287 51135 226.13
150.405 50669 225.098
150.522 49904 223.392
150.64 50829 225.453
150.757 52180 228.429
150.875 53514 231.331
150.992 53983 232.342
151.11 55076 234.683
151.227 54177 232.76
151.344 53468 231.231
151.462 52995 230.206
151.579 51110 226.075
151.697 50642 225.038
151.814 50673 225.107
151.932 50088 223.803
152.049 50754 225.286
152.167 51247 226.378
152.284 50942 225.703
152.402 49787 223.13
152.519 48931 221.204
152.636 47802 218.637
152.754 47213 217.286
152.871 46021 214.525
152.989 44426 210.775
153.106 44300 210.476
153.223 43758 209.184
153.341 44398 210.708
153.458 45222 212.655
153.575 45960 214.383
153.693 46629 215.937
153.81 47290 217.463
153.927 46840 216.426
154.044 46831 216.405
154.162 46504 215.648
154.279 47358 217.619
154.396 49050 221.472
154.513 49700 222.935
154.63 50461 224.635
154.747 50656 225.069
154.864 50089 223.806
154.981 48871 221.068
155.098 48264 219.691
155.215 47349 217.598
155.332 46136 214.793
155.449 45718 213.818
155.566 46223 214.995
155.683 45498 213.303
155.8 45104 212.377
155.917 44156 210.133
156.033 42620 206.446
156.15 0 1
156.267 0 1
156.383 0 1
156.5 0 1
156.617 0 1
156.733 0 1
156.85 0 1
156.966 0 1
157.082 0 1
157.199 0 1
157.315 0 1
157.431 0 1
157.547 0 1
157.664 0 1
157.78 0 1
157.896 0 1
158.012 0 1
158.128 0 1
158.244 0 1
158.359 0 1
158.475 0 1
158.591 0 1
158.706 0 1
