
6.15755 0 1
6.2731 0 1
6.3887 0 1
6.50437 0 1
6.62009 0 1
6.73587 0 1
6.8517 0 1
6.96759 0 1
7.08353 0 1
7.19952 0 1
7.31557 0 1
7.43166 0 1
7.54781 0 1
7.664 0 1
7.78024 0 1
7.89653 0 1
8.01286 0 1
8.12924 0 1
8.24567 0 1
8.36213 0 1
8.47864 0 1
8.59519 0 1
8.71178 0 1
8.82841 0 1
8.94508 0 1
9.06179 0 1
9.17853 0 1
9.29531 0 1
9.41212 0 1
9.52897 0 1
9.64584 0 1
9.76276 0 1
9.8797 0 1
9.99667 0 1
10.1137 0 1
10.2307 0 1
10.3478 0 1
10.4648 0 1
10.5819 0 1
10.6991 0 1
10.8162 0 1
10.9334 0 1
11.0506 0 1
11.1678 0 1
11.285 0 1
11.4023 0 1
11.5196 0 1
11.6369 0 1
11.7542 0 1
11.8715 0 1
11.9888 0 1
12.1062 0 1
12.2235 0 1
12.3409 0 1
12.4582 0 1
12.5756 0 1
12.693 0 1
12.8104 0 1
12.9278 0 1
13.0452 0 1
13.1626 0 1
13.28 0 1
13.3974 0 1
13.5149 0 1
13.6323 0 1
13.7497 0 1
13.8671 0 1
13.9845 0 1
14.1019 0 1
14.2193 0 1
14.3367 0 1
14.4541 0 1
14.5714 0 1
14.6888 0 1
14.8062 0 1
14.9235 0 1
15.0408 0 0
15.1581 0 0
15.2755 0 0
15.3927 0 0
15.51 0 0
15.6273 0 0
15.7445 0 0
15.8617 0 0
15.9789 0 0
16.0961 0 0
16.2132 0 0
16.3304 0 0
16.4475 0 0
16.5646 0 0
16.6816 0 0
16.7986 0 0
16.9156 0 0
17.0326 0 0
17.1496 0 0
17.2665 0 0
17.3833 0 0
17.5002 0 0
17.617 0 0
17.7338 0 0
17.8505 0 0
17.9672 0 0
18.0839 0 0
18.2005 0 0
18.3171 0 0
18.4337 0 0
18.5502 0 0
18.6666 0 0
18.7831 0 0
18.8994 0 0
19.0158 0 0
19.1321 0 0
19.2483 0 0
19.3645 0 0
19.4806 0 0
19.5967 0 0
19.7128 0 0
19.8288 0 0
19.9447 0 0
20.0606 0 1
20.1764 0 1
20.2922 0 1
20.4079 0 1
20.5236 0 1
20.6392 0 1
20.7548 0 1
20.8702 0 1
23.3078 0 1
23.4233 0 1
23.539 0 1
23.6547 0 1
23.7704 0 1
23.8862 0 1
24.0021 0 1
24.118 0 1
24.234 0 1
24.35 0 1
24.4661 1315 36.2629
24.5822 1407 37.51
24.6984 1513 38.8973
24.8146 1725 41.5331
24.9309 1977 44.4635
25.0472 2259 47.5289
25.1636 2501 50.01
25.28 2636 51.342
25.3965 2700 51.9615
25.513 2768 52.6118
25.6296 2678 51.7494
25.7462 2710 52.0577
25.8628 2736 52.3068
25.9795 2756 52.4976
26.0962 2732 52.2685
26.213 2769 52.6213
26.3298 2789 52.811
26.4466 2772 52.6498
26.5635 2853 53.4135
26.6804 2800 52.915
26.7973 2670 51.672
26.9143 2616 51.1468
27.0313 2585 50.8429
27.1483 2533 50.3289
27.2653 2541 50.4083
27.3824 2393 48.9183
27.4996 2375 48.734
27.6167 2095 45.7712
27.7339 2282 47.7703
27.8511 2247 47.4025
27.9683 2362 48.6004
28.0855 2603 51.0196
28.2028 2572 50.7149
28.3201 2556 50.5569
28.4374 2466 49.6588
28.5547 2536 50.3587
28.6721 2455 49.548
28.7894 2572 50.7149
28.9068 2609 51.0784
29.0242 2596 50.951
29.1416 2730 52.2494
29.259 2665 51.6236
29.3764 2579 50.7839
29.4939 2562 50.6162
29.6113 2490 49.8999
29.7288 2414 49.1325
29.8463 2312 48.0833
29.9638 2443 49.4267
30.0812 2424 49.2341
30.1987 2397 48.9592
30.3162 2468 49.679
30.4337 2553 50.5272
30.5512 2497 49.97
30.6687 2490 49.8999
30.7862 2539 50.3885
30.9037 2305 48.0104
31.0212 2310 48.0625
31.1387 2308 48.0416
31.2562 2286 47.8121
31.3737 2417 49.163
31.4912 2528 50.2792
31.6087 2587 50.8626
31.7262 2611 51.0979
31.8436 2647 51.449
31.9611 2482 49.8197
32.0785 2468 49.679
32.1959 2449 49.4874
32.3134 2493 49.93
32.4308 2454 49.5379
32.5482 2373 48.7134
32.6655 2341 48.3839
32.7829 2351 48.4871
32.9002 2267 47.613
33.0176 2266 47.6025
33.1349 2177 46.6583
33.2522 2189 46.7868
33.3694 2137 46.2277
33.4867 2235 47.2758
33.6039 2236 47.2864
33.7211 2357 48.5489
33.8383 2304 48
33.9554 2306 48.0208
34.0725 2339 48.3632
34.1896 2426 49.2544
34.3067 2428 49.2747
34.4237 2532 50.319
34.5407 2312 48.0833
34.6577 2274 47.6865
34.7746 2225 47.1699
34.8915 2292 47.8748
35.0084 2407 49.0612
35.1252 2536 50.3587
35.242 2620 51.1859
35.3587 2499 49.99
35.4755 2542 50.4183
35.5921 2401 49
35.7088 2412 49.1121
35.8254 2295 47.9062
35.9419 2229 47.2123
36.0584 2222 47.1381
36.1749 2153 46.4004
36.2913 2069 45.4863
36.4077 1984 44.5421
36.524 1830 42.7785
36.6403 1775 42.1307
36.7565 1558 39.4715
36.8727 1490 38.6005
36.9889 1424 37.7359
37.1049 1374 37.0675
37.221 0 1
37.3369 0 1
37.4529 0 1
37.5687 0 1
37.6845 0 1
37.8003 0 1
37.916 0 1
38.0316 0 1
38.1472 0 1
40.5851 0 1
40.7008 0 1
40.8164 0 1
40.9322 0 1
41.048 0 1
41.1639 0 1
41.2798 0 1
41.3958 0 1
41.5118 0 1
41.6279 0 1
41.744 1901 43.6005
41.8602 2508 50.0799
41.9765 3035 55.0908
42.0928 3215 56.701
42.2091 3266 57.1489
42.3255 3365 58.0086
42.4419 3292 57.376
42.5584 3186 56.4447
42.675 3415 58.438
42.7915 3529 59.4054
42.9081 3536 59.4643
43.0248 3683 60.6877
43.1415 3535 59.4559
43.2582 3405 58.3524
43.375 3055 55.2721
43.4918 3225 56.7891
43.6087 3131 55.9553
43.7256 3342 57.81
43.8425 3356 57.931
43.9595 3236 56.8859
44.0765 3241 56.9298
44.1935 3140 56.0357
44.3106 2999 54.7631
44.4277 2947 54.2863
44.5448 2868 53.5537
44.6619 2769 52.6213
44.7791 2577 50.7642
44.8963 2482 49.8197
45.0136 2423 49.224
45.1308 2332 48.2908
45.2481 2138 46.2385
45.3654 2118 46.0217
45.4827 1960 44.2719
45.6001 1989 44.5982
45.7174 1896 43.5431
45.8348 1942 44.0681
45.9522 1949 44.1475
46.0697 2042 45.1885
46.1871 2023 44.9778
46.3046 2059 45.3762
46.422 2065 45.4423
46.5395 2084 45.6508
46.657 2174 46.6262
46.7745 2096 45.7821
46.892 1947 44.1248
47.0096 1889 43.4626
47.1271 2083 45.6399
47.2446 2028 45.0333
47.3622 2042 45.1885
47.4797 2028 45.0333
47.5973 2098 45.8039
47.7149 2138 46.2385
47.8324 2062 45.4093
47.95 2084 45.6508
48.0675 2060 45.3872
48.1851 2125 46.0977
48.3027 2077 45.5741
48.4202 1888 43.4511
48.5378 1932 43.9545
48.6554 1900 43.589
48.7729 1857 43.0929
48.8904 1851 43.0232
49.008 1748 41.8091
49.1255 1834 42.8252
49.243 1821 42.6732
49.3605 1846 42.9651
49.478 1874 43.2897
49.5955 1962 44.2945
49.713 2002 44.7437
49.8304 2110 45.9347
49.9479 1982 44.5197
50.0653 2080 45.607
50.1827 2094 45.7602
50.3001 1863 43.1625
50.4175 1685 41.0488
50.5348 1629 40.3609
50.6521 1650 40.6202
50.7694 1924 43.8634
50.8867 2030 45.0555
51.004 2062 45.4093
51.1212 2093 45.7493
51.2384 2090 45.7165
51.3556 2048 45.2548
51.4727 2038 45.1442
51.5899 2045 45.2217
51.707 2016 44.8999
51.824 1968 44.3621
51.9411 1989 44.5982
52.0581 1967 44.3509
52.175 1925 43.8748
52.2919 1868 43.2204
52.4088 1886 43.4281
52.5257 1800 42.4264
52.6425 1793 42.3438
52.7593 1864 43.1741
52.876 1822 42.6849
52.9927 1773 42.107
53.1094 1866 43.1972
53.226 1848 42.9884
53.3426 1858 43.1045
53.4591 1852 43.0349
53.5756 1667 40.8289
53.692 1480 38.4708
53.8084 1290 35.9166
53.9248 1142 33.7935
54.0411 1061 32.573
54.1573 1044 32.311
54.2735 0 1
54.3896 0 1
54.5057 0 1
54.6217 0 1
54.7377 0 1
54.8537 0 1
54.9695 0 1
55.0853 0 1
55.2011 0 1
55.3168 0 1
55.4324 0 1
57.824 0 1
57.9396 0 1
58.0553 0 1
58.1711 0 1
58.2869 0 1
58.4028 0 1
58.5187 0 1
58.6347 0 1
58.7508 0 1
58.8669 0 1
58.983 1588 39.8497
59.0992 1690 41.1096
59.2155 1664 40.7922
59.3318 1808 42.5206
59.4482 2011 44.8442
59.5646 2170 46.5833
59.681 2318 48.1456
59.7975 2408 49.0714
59.9141 2370 48.6826
60.0306 2466 49.6588
60.1473 2290 47.8539
60.2639 2416 49.1528
60.3807 2447 49.4672
60.4974 2479 49.7896
60.6142 2388 48.8672
60.731 2387 48.8569
60.8479 2551 50.5074
60.9648 2424 49.2341
61.0818 2477 49.7695
61.1987 2354 48.518
61.3158 2349 48.4665
61.4328 2317 48.1352
61.5499 2327 48.239
61.667 2276 47.7074
61.7841 2359 48.5695
61.9013 2325 48.2183
62.0185 2472 49.7192
62.1357 2391 48.8979
62.253 2383 48.816
62.3702 2347 48.4458
62.4875 2288 47.833
62.6049 2085 45.6618
62.7222 2153 46.4004
62.8396 2253 47.4658
62.9569 2327 48.239
63.0743 2515 50.1498
63.1918 2559 50.5866
63.3092 2542 50.4183
63.4267 2467 49.6689
63.5441 2434 49.3356
63.6616 2489 49.8899
63.7791 2473 49.7293
63.8966 2536 50.3587
64.0142 2488 49.8799
64.1317 2480 49.7996
64.2492 2431 49.3052
64.3668 2409 49.0816
64.4843 2447 49.4672
64.6019 2350 48.4768
64.7195 2241 47.3392
64.837 2351 48.4871
64.9546 2179 46.6798
65.0722 2259 47.5289
65.1898 2189 46.7868
65.3074 2384 48.8262
65.4249 2299 47.9479
65.5425 2308 48.0416
65.6601 2431 49.3052
65.7777 2334 48.3115
65.8952 2331 48.2804
66.0128 2289 47.8435
66.1304 2074 45.5412
66.2479 1991 44.6206
66.3655 1974 44.4297
66.483 2163 46.5081
66.6005 2408 49.0714
66.718 2399 48.9796
66.8355 2471 49.7092
66.953 2489 49.8899
67.0705 2469 49.689
67.1879 2378 48.7647
67.3054 2396 48.949
67.4228 2333 48.3011
67.5402 2351 48.4871
67.6576 2383 48.816
67.7749 2362 48.6004
67.8923 2405 49.0408
68.0096 2436 49.3559
68.1269 2421 49.2037
68.2442 2270 47.6445
68.3614 2385 48.8365
68.4787 2228 47.2017
68.5958 2266 47.6025
68.713 2232 47.244
68.8302 2123 46.076
68.9473 2220 47.1169
69.0643 2219 47.1063
69.1814 2173 46.6154
69.2984 2297 47.927
69.4154 2197 46.8722
69.5323 2219 47.1063
69.6492 2121 46.0543
69.7661 1868 43.2204
69.8829 1757 41.9166
69.9997 1804 42.4735
70.1165 2056 45.3431
70.2332 2008 44.8107
70.3499 1929 43.9204
70.4665 1729 41.5812
70.5831 1700 41.2311
70.6996 1616 40.1995
70.8161 1531 39.128
70.9326 1478 38.4448
71.049 1404 37.47
71.1653 1293 35.9583
71.2817 1309 36.1801
71.3979 1198 34.6121
71.5141 1221 34.9428
71.6303 1137 33.7194
71.7464 1115 33.3916
71.8624 0 1
71.9784 0 1
72.0944 0 1
72.2102 0 1
72.3261 0 1
72.4418 0 1
72.5575 0 1
72.6732 0 1
75.1054 0 1
75.2209 0 1
75.3365 0 1
75.4521 0 1
75.5678 0 1
75.6835 0 1
75.7993 0 1
75.9151 0 1
76.031 0 1
76.147 1890 43.4741
76.263 2056 45.3431
76.3791 2008 44.8107
76.4952 2141 46.2709
76.6113 2097 45.793
76.7276 2134 46.1952
76.8438 2053 45.31
76.9601 2154 46.4112
77.0765 2203 46.9361
77.1929 2250 47.4342
77.3093 2315 48.1144
77.4258 2144 46.3033
77.5423 2134 46.1952
77.6589 2116 46
77.7755 2075 45.5522
77.8921 2129 46.1411
78.0088 2178 46.669
78.1256 2187 46.7654
78.2423 2158 46.4543
78.3591 2204 46.9468
78.4759 2222 47.1381
78.5928 2143 46.2925
78.7097 1901 43.6005
78.8266 1705 41.2916
78.9436 1548 39.3446
79.0606 1545 39.3065
79.1776 1835 42.8369
79.2946 1997 44.6878
79.4117 2311 48.0729
79.5288 2301 47.9687
79.6459 2331 48.2804
79.7631 2323 48.1975
79.8802 2273 47.676
79.9974 2253 47.4658
80.1147 2290 47.8539
80.2319 2254 47.4763
80.3491 2244 47.3709
80.4664 2316 48.1248
80.5837 2339 48.3632
80.701 2358 48.5592
80.8183 2466 49.6588
80.9357 2473 49.7293
81.053 2388 48.8672
81.1704 2307 48.0312
81.2877 2277 47.7179
81.4051 2259 47.5289
81.5225 2253 47.4658
81.6399 2204 46.9468
81.7573 2253 47.4658
81.8747 2479 49.7896
81.9922 2525 50.2494
82.1096 2613 51.1175
82.227 2645 51.4296
82.3444 2420 49.1935
82.4619 2283 47.7807
82.5793 2057 45.3542
82.6967 2156 46.4327
82.8142 2710 52.0577
82.9316 3028 55.0273
83.049 3428 58.5491
83.1664 3629 60.2412
83.2838 3672 60.597
83.4012 3948 62.8331
83.5186 3941 62.7774
83.636 4047 63.616
83.7534 4153 64.4438
83.8708 4179 64.6452
83.9881 4360 66.0303
84.1055 4198 64.792
84.2228 4269 65.3376
84.3401 4329 65.7951
84.4575 4324 65.7571
84.5747 4419 66.4756
84.692 4440 66.6333
84.8093 4329 65.7951
84.9265 4251 65.1997
85.0437 4183 64.6761
85.1609 4181 64.6607
85.2781 4194 64.7611
85.3952 4158 64.4826
85.5123 4120 64.1872
85.6294 4246 65.1613
85.7465 4108 64.0937
85.8636 3811 61.7333
85.9806 3296 57.4108
86.0976 2695 51.9134
86.2145 2631 51.2933
86.3315 3072 55.4256
86.4484 3760 61.3188
86.5652 4009 63.3167
86.682 4204 64.8383
86.7988 4056 63.6867
86.9156 4046 63.6082
87.0323 4159 64.4903
87.149 4105 64.0703
87.2657 4027 63.4586
87.3823 4158 64.4826
87.4988 3842 61.9839
87.6154 3557 59.6406
87.7318 3232 56.8507
87.8483 3121 55.8659
87.9647 2995 54.7266
88.081 2875 53.619
88.1973 2775 52.6783
88.3136 2705 52.0096
88.4298 2588 50.8724
88.546 2586 50.8527
88.6621 2471 49.7092
88.7781 2259 47.5289
88.8942 0 1
89.0101 0 1
89.126 0 1
89.2419 0 1
89.3577 0 1
89.4734 0 1
89.5891 0 1
89.7047 0 1
89.8203 0 1
89.9358 0 1
92.3269 0 1
92.4424 0 1
92.558 0 1
92.6736 0 1
92.7893 0 1
92.905 0 1
93.0208 0 1
93.1366 0 1
93.2525 0 1
93.3685 0 1
93.4845 0 1
93.6005 4251 65.1997
93.7167 4394 66.2873
93.8328 4317 65.7039
93.949 4260 65.2687
94.0653 4219 64.9538
94.1816 4309 65.643
94.2979 4222 64.9769
94.4143 4269 65.3376
94.5307 4325 65.7647
94.6472 4189 64.7225
94.7637 4035 63.5216
94.8803 3714 60.9426
94.9969 3350 57.8792
95.1135 2981 54.5985
95.2302 3145 56.0803
95.3469 3704 60.8605
95.4637 4135 64.304
95.5805 4319 65.7191
95.6973 4496 67.0522
95.8142 4384 66.2118
95.9311 4438 66.6183
96.048 4467 66.8356
96.1649 4427 66.5357
96.2819 4430 66.5582
96.3989 4397 66.3099
96.516 4589 67.7422
96.633 4497 67.0597
96.7501 4511 67.164
96.8673 4591 67.7569
96.9844 4616 67.9412
97.1016 4601 67.8307
97.2188 4610 67.897
97.336 4455 66.7458
97.4532 4402 66.3476
97.5704 4360 66.0303
97.6877 4423 66.5056
97.805 4250 65.192
97.9223 4290 65.4981
98.0396 4200 64.8074
98.1569 4124 64.2184
98.2743 4048 63.6239
98.3916 3693 60.7701
98.509 3162 56.2317
98.6264 2727 52.2207
98.7438 2820 53.1037
98.8612 3009 54.8544
98.9786 3414 58.4294
99.096 3379 58.1292
99.2134 3359 57.9569
99.3308 3242 56.9386
99.4482 3183 56.4181
99.5656 3087 55.5608
99.6831 3117 55.8301
99.8005 3026 55.0091
99.9179 2979 54.5802
100.035 3000 54.7723
100.153 2903 53.8795
100.27 2885 53.7122
100.388 2863 53.507
100.505 2935 54.1756
100.622 3032 55.0636
100.74 3058 55.2992
100.857 3076 55.4617
100.975 2906 53.9073
101.092 2984 54.626
101.209 2888 53.7401
101.327 2899 53.8424
101.444 2980 54.5894
101.561 3001 54.7814
101.679 2996 54.7357
101.796 2959 54.3967
101.913 2846 53.3479
102.03 2525 50.2494
102.148 2345 48.4252
102.265 2115 45.9891
102.382 2411 49.1019
102.499 2552 50.5173
102.616 2751 52.45
102.733 2852 53.4041
102.851 2848 53.3667
102.968 2757 52.5071
103.085 2746 52.4023
103.202 2739 52.3355
103.319 2678 51.7494
103.436 2766 52.5928
103.552 2601 51
103.669 2697 51.9326
103.786 2793 52.8488
103.903 2762 52.5547
104.02 2732 52.2685
104.137 2734 52.2877
104.253 2792 52.8394
104.37 2675 51.7204
104.487 2645 51.4296
104.603 2605 51.0392
104.72 2586 50.8527
104.836 2441 49.4065
104.953 2194 46.8402
105.069 1953 44.1928
105.186 1728 41.5692
105.302 1598 39.975
105.418 1530 39.1152
105.535 1416 37.6298
105.651 1219 34.9142
105.767 922 30.3645
105.883 876 29.5973
105.999 879 29.6479
106.115 0 1
106.231 0 1
106.347 0 1
106.463 0 1
106.579 0 1
106.694 0 1
106.81 0 1
106.926 0 1
107.041 0 1
107.157 0 1
109.576 0 1
109.692 0 1
109.807 0 1
109.923 0 1
110.039 0 1
110.155 0 1
110.27 0 1
110.386 0 1
110.502 0 1
110.618 2604 51.0294
110.735 2734 52.2877
110.851 2687 51.8363
110.967 2365 48.6313
111.083 2364 48.621
111.199 2529 50.2892
111.316 2746 52.4023
111.432 2928 54.111
111.549 3011 54.8726
111.665 2977 54.5619
111.782 3026 55.0091
111.898 2894 53.7959
112.015 2963 54.4334
112.132 2978 54.5711
112.248 3074 55.4437
112.365 3058 55.2992
112.482 2928 54.111
112.599 3088 55.5698
112.716 3145 56.0803
112.832 3156 56.1783
112.949 3358 57.9483
113.066 3410 58.3952
113.183 3270 57.1839
113.3 3194 56.5155
113.417 3259 57.0877
113.534 3279 57.2626
113.652 3266 57.1489
113.769 3304 57.4804
113.886 3246 56.9737
114.003 3165 56.2583
114.12 3356 57.931
114.238 3167 56.2761
114.355 2851 53.3948
114.472 2515 50.1498
114.589 2541 50.4083
114.707 2554 50.5371
114.824 2871 53.5817
114.942 3034 55.0818
115.059 3185 56.4358
115.176 3086 55.5518
115.294 3175 56.3471
115.411 3109 55.7584
115.529 3135 55.9911
115.646 2984 54.626
115.764 2888 53.7401
115.881 2957 54.3783
115.999 3118 55.8391
116.116 3119 55.848
116.234 3133 55.9732
116.351 3190 56.4801
116.469 3272 57.2014
116.586 3304 57.4804
116.704 3408 58.3781
116.821 3395 58.2666
116.939 3363 57.9914
117.056 3372 58.0689
117.174 3486 59.0424
117.291 3364 58
117.409 3331 57.7148
117.526 3403 58.3352
117.644 3395 58.2666
117.761 3279 57.2626
117.879 3167 56.2761
117.996 2863 53.507
118.114 2752 52.4595
118.231 2502 50.02
118.349 2647 51.449
118.466 2863 53.507
118.584 3093 55.6147
118.701 3152 56.1427
118.819 3137 56.0089
118.936 3123 55.8838
119.053 3053 55.254
119.171 3031 55.0545
119.288 2965 54.4518
119.405 2951 54.3231
119.523 2998 54.754
119.64 2866 53.535
119.757 2994 54.7175
119.875 2948 54.2955
119.992 3155 56.1694
120.109 3024 54.9909
120.226 3193 56.5066
120.343 3196 56.5332
120.46 3242 56.9386
120.578 3145 56.0803
120.695 3175 56.3471
120.812 3026 55.0091
120.929 3040 55.1362
121.046 3003 54.7996
121.163 3089 55.5788
121.279 3026 55.0091
121.396 2989 54.6717
121.513 2899 53.8424
121.63 2670 51.672
121.747 2474 49.7393
121.863 2091 45.7275
121.98 2116 46
122.097 2138 46.2385
122.213 2181 46.7012
122.33 2196 46.8615
122.446 2144 46.3033
122.563 2128 46.1303
122.679 1937 44.0114
122.795 1937 44.0114
122.912 1850 43.0116
123.028 1837 42.8602
123.144 1781 42.2019
123.26 1750 41.833
123.377 0 1
123.493 0 1
123.609 0 1
123.725 0 1
123.84 0 1
123.956 0 1
124.072 0 1
124.188 0 1
124.303 0 1
124.419 0 1
126.852 0 1
126.968 0 1
127.083 0 1
127.199 0 1
127.315 0 1
127.431 0 1
127.547 0 1
127.663 0 1
127.779 0 1
127.895 0 1
128.011 0 1
128.127 0 1
128.243 0 1
128.359 3433 58.5918
128.476 3437 58.6259
128.592 3540 59.4979
128.708 3391 58.2323
128.825 3578 59.8164
128.941 3573 59.7746
129.058 3593 59.9416
129.174 3636 60.2993
129.291 3708 60.8933
129.408 3795 61.6036
129.524 3903 62.474
129.641 4025 63.4429
129.758 4168 64.56
129.875 4158 64.4826
129.992 4282 65.437
130.108 4326 65.7723
130.225 4288 65.4828
130.342 4210 64.8845
130.459 3951 62.857
130.576 4003 63.2693
130.693 3767 61.3759
130.81 3504 59.1946
130.928 3680 60.663
131.045 3697 60.803
131.162 3838 61.9516
131.279 3837 61.9435
131.396 4012 63.3404
131.513 4116 64.1561
131.631 4042 63.5767
131.748 4131 64.2729
131.865 4052 63.6553
131.983 3949 62.8411
132.1 4016 63.3719
132.217 3879 62.2816
132.335 3811 61.7333
132.452 3880 62.2896
132.57 3819 61.7981
132.687 3801 61.6523
132.804 4071 63.8044
132.922 3986 63.1348
133.039 3912 62.546
133.157 4106 64.0781
133.274 4053 63.6632
133.392 4136 64.3117
133.509 4200 64.8074
133.627 4414 66.4379
133.744 4382 66.1967
133.862 4516 67.2012
133.979 4567 67.5796
134.097 4362 66.0454
134.214 4259 65.261
134.332 4091 63.9609
134.449 3846 62.0161
134.567 4105 64.0703
134.684 4274 65.3758
134.802 4320 65.7267
134.919 4371 66.1135
135.037 4468 66.8431
135.154 4297 65.5515
135.272 4357 66.0076
135.389 4219 64.9538
135.507 4227 65.0154
135.624 4193 64.7534
135.742 4125 64.2262
135.859 4121 64.195
135.977 4004 63.2772
136.094 3979 63.0793
136.211 4037 63.5374
136.329 4105 64.0703
136.446 4013 63.3482
136.564 4131 64.2729
136.681 4101 64.0391
136.798 4239 65.1076
136.915 4214 64.9153
137.033 4259 65.261
137.15 4364 66.0606
137.267 4431 66.5658
137.384 4297 65.5515
137.502 4238 65.0999
137.619 4305 65.6125
137.736 4026 63.4508
137.853 3931 62.6977
137.97 4026 63.4508
138.087 3729 61.0655
138.204 3930 62.6897
138.321 3953 62.8729
138.438 4194 64.7611
138.555 4068 63.7809
138.672 4195 64.7688
138.788 3990 63.1664
138.905 4005 63.2851
139.022 3907 62.506
139.139 3720 60.9918
139.255 3447 58.7112
139.372 3386 58.1893
139.488 3286 57.3236
139.605 3118 55.8391
139.721 2980 54.5894
139.838 3030 55.0454
139.954 2975 54.5436
140.071 2818 53.0848
140.187 2885 53.7122
140.303 2706 52.0192
140.419 2942 54.2402
140.535 2920 54.037
140.652 2984 54.626
140.768 0 1
140.884 0 1
141 0 1
141.115 0 1
141.231 0 1
141.347 0 1
141.463 0 1
141.578 0 1
141.694 0 1
144.104 0 1
144.219 0 1
144.335 0 1
144.45 0 1
144.566 0 1
144.682 0 1
144.798 0 1
144.914 0 1
145.03 0 1
145.146 8513 92.2659
145.262 8664 93.0806
145.378 8917 94.4299
145.494 8741 93.4933
145.61 8946 94.5833
145.726 8897 94.3239
145.842 9122 95.5092
145.959 8962 94.6678
146.075 9016 94.9526
146.192 8977 94.747
146.308 9024 94.9947
146.425 8607 92.7739
146.541 8017 89.5377
146.658 6854 82.7889
146.774 6039 77.711
146.891 5866 76.5898
147.008 6659 81.6027
147.125 7750 88.0341
147.241 8296 91.0824
147.358 8622 92.8547
147.475 8778 93.691
147.592 8742 93.4987
147.709 8838 94.0106
147.826 8717 93.3649
147.943 8901 94.3451
148.06 8766 93.6269
148.177 8926 94.4775
148.294 8929 94.4934
148.411 9004 94.8894
148.528 8904 94.361
148.645 9055 95.1578
148.762 8971 94.7154
148.88 8927 94.4828
148.997 8857 94.1116
149.114 9467 97.2985
149.231 8975 94.7365
149.349 9203 95.9323
149.466 8985 94.7892
149.583 9235 96.0989
149.701 9262 96.2393
149.818 9291 96.3898
149.935 9203 95.9323
150.053 9179 95.8071
150.17 8484 92.1086
150.287 7743 87.9943
150.405 6572 81.0679
150.522 5965 77.2334
150.64 6546 80.9074
150.757 7565 86.977
150.875 8406 91.6842
150.992 8888 94.2762
151.11 8525 92.3309
151.227 8710 93.3274
151.344 8844 94.0425
151.462 8577 92.6121
151.579 8878 94.2231
151.697 8761 93.6002
151.814 8964 94.6784
151.932 8955 94.6309
152.049 9106 95.4254
152.167 8966 94.689
152.284 9072 95.247
152.402 9005 94.8947
152.519 9113 95.462
152.636 9319 96.535
152.754 9189 95.8593
152.871 9294 96.4054
152.989 9398 96.9433
153.106 9494 97.4372
153.223 9487 97.4012
153.341 9476 97.3447
153.458 9471 97.3191
153.575 9493 97.432
153.693 9420 97.0567
153.81 9062 95.1945
153.927 7937 89.0898
154.044 6750 82.1584
154.162 6334 79.5864
154.279 6985 83.5763
154.396 8064 89.7998
154.513 8898 94.3292
154.63 9037 95.0631
154.747 9162 95.7183
154.864 9155 95.6818
154.981 9164 95.7288
155.098 8761 93.6002
155.215 8906 94.3716
155.332 8639 92.9462
155.449 8548 92.4554
155.566 8174 90.4102
155.683 8205 90.5815
155.8 8052 89.7329
155.917 7884 88.7919
156.033 7713 87.8237
156.15 0 1
156.267 0 1
156.383 0 1
156.5 0 1
156.617 0 1
156.733 0 1
156.85 0 1
156.966 0 1
157.082 0 1
157.199 0 1
157.315 0 1
157.431 0 1
157.547 0 1
157.664 0 1
157.78 0 1
157.896 0 1
158.012 0 1
158.128 0 1
158.244 0 1
158.359 0 1
158.475 0 1
158.591 0 1
158.706 0 1
