
6.15755 0 1
6.2731 0 1
6.3887 0 1
6.50437 0 1
6.62009 0 1
6.73587 0 1
6.8517 0 1
6.96759 0 1
7.08353 0 1
7.19952 0 1
7.31557 0 1
7.43166 0 1
7.54781 0 1
7.664 0 1
7.78024 0 1
7.89653 0 1
8.01286 0 1
8.12924 0 1
8.24567 0 1
8.36213 0 1
8.47864 0 1
8.59519 0 1
8.71178 0 1
8.82841 0 1
8.94508 0 1
9.06179 0 1
9.17853 0 1
9.29531 0 1
9.41212 0 1
9.52897 0 1
9.64584 0 1
9.76276 0 1
9.8797 0 1
9.99667 0 1
10.1137 0 1
10.2307 0 1
10.3478 0 1
10.4648 0 1
10.5819 0 1
10.6991 0 1
10.8162 0 1
10.9334 0 1
11.0506 0 1
11.1678 0 1
11.285 0 1
11.4023 0 1
11.5196 0 1
11.6369 0 1
11.7542 0 1
11.8715 0 1
11.9888 0 1
12.1062 0 1
12.2235 0 1
12.3409 0 1
12.4582 0 1
12.5756 0 1
12.693 0 1
12.8104 0 1
12.9278 0 1
13.0452 0 1
13.1626 0 1
13.28 0 1
13.3974 0 1
13.5149 0 1
13.6323 0 1
13.7497 0 1
13.8671 0 1
13.9845 0 1
14.1019 0 1
14.2193 0 1
14.3367 0 1
14.4541 0 1
14.5714 0 1
14.6888 0 1
14.8062 0 1
14.9235 0 1
15.0408 562 23.7065
15.1581 589 24.2693
15.2755 616 24.8193
15.3927 634 25.1794
15.51 623 24.96
15.6273 611 24.7184
15.7445 620 24.8998
15.8617 592 24.3311
15.9789 601 24.5153
16.0961 552 23.4947
16.2132 564 23.7487
16.3304 596 24.4131
16.4475 644 25.3772
16.5646 639 25.2784
16.6816 626 25.02
16.7986 684 26.1534
16.9156 737 27.1477
17.0326 711 26.6646
17.1496 664 25.7682
17.2665 707 26.5895
17.3833 749 27.3679
17.5002 678 26.0384
17.617 643 25.3574
17.7338 639 25.2784
17.8505 584 24.1661
17.9672 593 24.3516
18.0839 607 24.6374
18.2005 668 25.8457
18.3171 707 26.5895
18.4337 687 26.2107
18.5502 599 24.4745
18.6666 646 25.4165
18.7831 718 26.7955
18.8994 674 25.9615
19.0158 668 25.8457
19.1321 676 26
19.2483 669 25.865
19.3645 581 24.1039
19.4806 516 22.7156
19.5967 575 23.9792
19.7128 443 21.0476
19.8288 443 21.0476
19.9447 378 19.4422
20.0606 0 1
20.1764 0 1
20.2922 0 1
20.4079 0 1
20.5236 0 1
20.6392 0 1
20.7548 0 1
20.8702 0 1
23.3078 0 1
23.4233 0 1
23.539 0 1
23.6547 0 1
23.7704 0 1
23.8862 0 1
24.0021 0 1
24.118 0 1
24.234 0 1
24.35 0 1
24.4661 261 16.1555
24.5822 352 18.7617
24.6984 342 18.4932
24.8146 424 20.5913
24.9309 467 21.6102
25.0472 456 21.3542
25.1636 485 22.0227
25.28 514 22.6716
25.3965 582 24.1247
25.513 663 25.7488
25.6296 698 26.4197
25.7462 711 26.6646
25.8628 769 27.7308
25.9795 761 27.5862
26.0962 726 26.9444
26.213 740 27.2029
26.3298 628 25.0599
26.4466 617 24.8395
26.5635 617 24.8395
26.6804 617 24.8395
26.7973 601 24.5153
26.9143 662 25.7294
27.0313 638 25.2587
27.1483 673 25.9422
27.2653 717 26.7769
27.3824 676 26
27.4996 690 26.2679
27.6167 718 26.7955
27.7339 660 25.6905
27.8511 664 25.7682
27.9683 647 25.4362
28.0855 606 24.6171
28.2028 604 24.5764
28.3201 576 24
28.4374 563 23.7276
28.5547 555 23.5584
28.6721 573 23.9374
28.7894 551 23.4734
28.9068 612 24.7386
29.0242 650 25.4951
29.1416 674 25.9615
29.259 707 26.5895
29.3764 719 26.8142
29.4939 676 26
29.6113 660 25.6905
29.7288 639 25.2784
29.8463 616 24.8193
29.9638 598 24.454
30.0812 575 23.9792
30.1987 580 24.0832
30.3162 566 23.7908
30.4337 583 24.1454
30.5512 597 24.4336
30.6687 624 24.98
30.7862 670 25.8844
30.9037 651 25.5147
31.0212 697 26.4008
31.1387 663 25.7488
31.2562 630 25.0998
31.3737 617 24.8395
31.4912 630 25.0998
31.6087 620 24.8998
31.7262 609 24.6779
31.8436 564 23.7487
31.9611 493 22.2036
32.0785 529 23
32.1959 570 23.8747
32.3134 588 24.2487
32.4308 581 24.1039
32.5482 655 25.593
32.6655 673 25.9422
32.7829 661 25.7099
32.9002 696 26.3818
33.0176 656 25.6125
33.1349 644 25.3772
33.2522 616 24.8193
33.3694 621 24.9199
33.4867 567 23.8118
33.6039 568 23.8328
33.7211 548 23.4094
33.8383 606 24.6171
33.9554 575 23.9792
34.0725 592 24.3311
34.1896 669 25.865
34.3067 587 24.2281
34.4237 635 25.1992
34.5407 643 25.3574
34.6577 602 24.5357
34.7746 641 25.318
34.8915 676 26
35.0084 589 24.2693
35.1252 613 24.7588
35.242 588 24.2487
35.3587 595 24.3926
35.4755 557 23.6008
35.5921 527 22.9565
35.7088 502 22.4054
35.8254 483 21.9773
35.9419 561 23.6854
36.0584 580 24.0832
36.1749 564 23.7487
36.2913 534 23.1084
36.4077 580 24.0832
36.524 588 24.2487
36.6403 542 23.2809
36.7565 516 22.7156
36.8727 511 22.6053
36.9889 458 21.4009
37.1049 436 20.8806
37.221 0 1
37.3369 0 1
37.4529 0 1
37.5687 0 1
37.6845 0 1
37.8003 0 1
37.916 0 1
38.0316 0 1
38.1472 0 1
40.5851 0 1
40.7008 0 1
40.8164 0 1
40.9322 0 1
41.048 0 1
41.1639 0 1
41.2798 0 1
41.3958 0 1
41.5118 0 1
41.6279 0 1
41.744 307 17.5214
41.8602 304 17.4356
41.9765 355 18.8414
42.0928 354 18.8149
42.2091 387 19.6723
42.3255 337 18.3576
42.4419 366 19.1311
42.5584 375 19.3649
42.675 418 20.445
42.7915 425 20.6155
42.9081 461 21.4709
43.0248 489 22.1133
43.1415 491 22.1585
43.2582 548 23.4094
43.375 513 22.6495
43.4918 563 23.7276
43.6087 497 22.2935
43.7256 516 22.7156
43.8425 451 21.2368
43.9595 485 22.0227
44.0765 515 22.6936
44.1935 471 21.7025
44.3106 475 21.7945
44.4277 443 21.0476
44.5448 390 19.7484
44.6619 442 21.0238
44.7791 460 21.4476
44.8963 464 21.5407
45.0136 456 21.3542
45.1308 533 23.0868
45.2481 500 22.3607
45.3654 548 23.4094
45.4827 520 22.8035
45.6001 532 23.0651
45.7174 559 23.6432
45.8348 478 21.8632
45.9522 426 20.6398
46.0697 453 21.2838
46.1871 421 20.5183
46.3046 437 20.9045
46.422 460 21.4476
46.5395 446 21.1187
46.657 483 21.9773
46.7745 500 22.3607
46.892 504 22.4499
47.0096 495 22.2486
47.1271 541 23.2594
47.2446 510 22.5832
47.3622 522 22.8473
47.4797 519 22.7816
47.5973 529 23
47.7149 443 21.0476
47.8324 482 21.9545
47.95 473 21.7486
48.0675 432 20.7846
48.1851 426 20.6398
48.3027 405 20.1246
48.4202 477 21.8403
48.5378 510 22.5832
48.6554 533 23.0868
48.7729 554 23.5372
48.8904 569 23.8537
49.008 514 22.6716
49.1255 541 23.2594
49.243 515 22.6936
49.3605 452 21.2603
49.478 462 21.4942
49.5955 416 20.3961
49.713 398 19.9499
49.8304 391 19.7737
49.9479 442 21.0238
50.0653 474 21.7715
50.1827 526 22.9347
50.3001 542 23.2809
50.4175 510 22.5832
50.5348 535 23.1301
50.6521 549 23.4307
50.7694 505 22.4722
50.8867 501 22.383
51.004 488 22.0907
51.1212 522 22.8473
51.2384 474 21.7715
51.3556 505 22.4722
51.4727 444 21.0713
51.5899 417 20.4206
51.707 463 21.5174
51.824 407 20.1742
51.9411 479 21.8861
52.0581 485 22.0227
52.175 534 23.1084
52.2919 486 22.0454
52.4088 495 22.2486
52.5257 553 23.516
52.6425 551 23.4734
52.7593 518 22.7596
52.876 533 23.0868
52.9927 488 22.0907
53.1094 444 21.0713
53.226 424 20.5913
53.3426 411 20.2731
53.4591 395 19.8746
53.5756 412 20.2978
53.692 429 20.7123
53.8084 425 20.6155
53.9248 374 19.3391
54.0411 387 19.6723
54.1573 386 19.6469
54.2735 0 1
54.3896 0 1
54.5057 0 1
54.6217 0 1
54.7377 0 1
54.8537 0 1
54.9695 0 1
55.0853 0 1
55.2011 0 1
55.3168 0 1
55.4324 0 1
57.824 0 1
57.9396 0 1
58.0553 0 1
58.1711 0 1
58.2869 0 1
58.4028 0 1
58.5187 0 1
58.6347 0 1
58.7508 0 1
58.8669 0 1
58.983 356 18.868
59.0992 441 21
59.2155 483 21.9773
59.3318 491 22.1585
59.4482 541 23.2594
59.5646 569 23.8537
59.681 613 24.7588
59.7975 607 24.6374
59.9141 626 25.02
60.0306 606 24.6171
60.1473 588 24.2487
60.2639 589 24.2693
60.3807 536 23.1517
60.4974 529 23
60.6142 576 24
60.731 608 24.6577
60.8479 619 24.8797
60.9648 663 25.7488
61.0818 668 25.8457
61.1987 700 26.4575
61.3158 682 26.1151
61.4328 621 24.9199
61.5499 628 25.0599
61.667 586 24.2074
61.7841 547 23.388
61.9013 517 22.7376
62.0185 522 22.8473
62.1357 531 23.0434
62.253 559 23.6432
62.3702 583 24.1454
62.4875 619 24.8797
62.6049 663 25.7488
62.7222 655 25.593
62.8396 635 25.1992
62.9569 701 26.4764
63.0743 672 25.923
63.1918 715 26.7395
63.3092 640 25.2982
63.4267 672 25.923
63.5441 577 24.0208
63.6616 600 24.4949
63.7791 537 23.1733
63.8966 511 22.6053
64.0142 504 22.4499
64.1317 546 23.3666
64.2492 610 24.6982
64.3668 578 24.0416
64.4843 641 25.318
64.6019 648 25.4558
64.7195 699 26.4386
64.837 645 25.3969
64.9546 645 25.3969
65.0722 663 25.7488
65.1898 575 23.9792
65.3074 573 23.9374
65.4249 558 23.622
65.5425 501 22.383
65.6601 532 23.0651
65.7777 567 23.8118
65.8952 557 23.6008
66.0128 600 24.4949
66.1304 665 25.7876
66.2479 629 25.0799
66.3655 715 26.7395
66.483 702 26.4953
66.6005 683 26.1343
66.718 732 27.0555
66.8355 696 26.3818
66.953 675 25.9808
67.0705 632 25.1396
67.1879 625 25
67.3054 631 25.1197
67.4228 562 23.7065
67.5402 509 22.561
67.6576 504 22.4499
67.7749 579 24.0624
67.8923 630 25.0998
68.0096 645 25.3969
68.1269 693 26.3249
68.2442 689 26.2488
68.3614 700 26.4575
68.4787 691 26.2869
68.5958 718 26.7955
68.713 688 26.2298
68.8302 701 26.4764
68.9473 597 24.4336
69.0643 566 23.7908
69.1814 595 24.3926
69.2984 582 24.1247
69.4154 629 25.0799
69.5323 711 26.6646
69.6492 750 27.3861
69.7661 725 26.9258
69.8829 824 28.7054
69.9997 759 27.55
70.1165 792 28.1425
70.2332 754 27.4591
70.3499 699 26.4386
70.4665 680 26.0768
70.5831 680 26.0768
70.6996 659 25.671
70.8161 620 24.8998
70.9326 567 23.8118
71.049 489 22.1133
71.1653 416 20.3961
71.2817 372 19.2873
71.3979 330 18.1659
71.5141 372 19.2873
71.6303 330 18.1659
71.7464 298 17.2627
71.8624 0 1
71.9784 0 1
72.0944 0 1
72.2102 0 1
72.3261 0 1
72.4418 0 1
72.5575 0 1
72.6732 0 1
75.1054 0 1
75.2209 0 1
75.3365 0 1
75.4521 0 1
75.5678 0 1
75.6835 0 1
75.7993 0 1
75.9151 0 1
76.031 0 1
76.147 462 21.4942
76.263 496 22.2711
76.3791 454 21.3073
76.4952 440 20.9762
76.6113 414 20.347
76.7276 479 21.8861
76.8438 532 23.0651
76.9601 545 23.3452
77.0765 586 24.2074
77.1929 666 25.807
77.3093 650 25.4951
77.4258 580 24.0832
77.5423 594 24.3721
77.6589 606 24.6171
77.7755 564 23.7487
77.8921 505 22.4722
78.0088 452 21.2603
78.1256 412 20.2978
78.2423 440 20.9762
78.3591 410 20.2485
78.4759 512 22.6274
78.5928 493 22.2036
78.7097 550 23.4521
78.8266 544 23.3238
78.9436 584 24.1661
79.0606 604 24.5764
79.1776 562 23.7065
79.2946 610 24.6982
79.4117 650 25.4951
79.5288 626 25.02
79.6459 561 23.6854
79.7631 539 23.2164
79.8802 517 22.7376
79.9974 484 22
80.1147 462 21.4942
80.2319 448 21.166
80.3491 448 21.166
80.4664 494 22.2261
80.5837 517 22.7376
80.701 558 23.622
80.8183 615 24.7992
80.9357 568 23.8328
81.053 595 24.3926
81.1704 625 25
81.2877 622 24.9399
81.4051 550 23.4521
81.5225 545 23.3452
81.6399 484 22
81.7573 434 20.8327
81.8747 440 20.9762
81.9922 426 20.6398
82.1096 466 21.587
82.227 571 23.8956
82.3444 585 24.1868
82.4619 562 23.7065
82.5793 586 24.2074
82.6967 578 24.0416
82.8142 568 23.8328
82.9316 631 25.1197
83.049 579 24.0624
83.1664 678 26.0384
83.2838 607 24.6374
83.4012 605 24.5967
83.5186 545 23.3452
83.636 558 23.622
83.7534 514 22.6716
83.8708 480 21.9089
83.9881 450 21.2132
84.1055 501 22.383
84.2228 509 22.561
84.3401 584 24.1661
84.4575 583 24.1454
84.5747 591 24.3105
84.692 624 24.98
84.8093 593 24.3516
84.9265 581 24.1039
85.0437 587 24.2281
85.1609 540 23.2379
85.2781 469 21.6564
85.3952 445 21.095
85.5123 421 20.5183
85.6294 466 21.587
85.7465 527 22.9565
85.8636 548 23.4094
85.9806 581 24.1039
86.0976 607 24.6374
86.2145 595 24.3926
86.3315 625 25
86.4484 611 24.7184
86.5652 643 25.3574
86.682 616 24.8193
86.7988 637 25.2389
86.9156 604 24.5764
87.0323 547 23.388
87.149 646 25.4165
87.2657 549 23.4307
87.3823 482 21.9545
87.4988 406 20.1494
87.6154 438 20.9284
87.7318 425 20.6155
87.8483 394 19.8494
87.9647 497 22.2935
88.081 475 21.7945
88.1973 475 21.7945
88.3136 447 21.1424
88.4298 430 20.7364
88.546 410 20.2485
88.6621 365 19.105
88.7781 268 16.3707
88.8942 0 1
89.0101 0 1
89.126 0 1
89.2419 0 1
89.3577 0 1
89.4734 0 1
89.5891 0 1
89.7047 0 1
89.8203 0 1
89.9358 0 1
92.3269 0 1
92.4424 0 1
92.558 0 1
92.6736 0 1
92.7893 0 1
92.905 0 1
93.0208 0 1
93.1366 0 1
93.2525 0 1
93.3685 0 1
93.4845 0 1
93.6005 434 20.8327
93.7167 450 21.2132
93.8328 463 21.5174
93.949 462 21.4942
94.0653 538 23.1948
94.1816 521 22.8254
94.2979 482 21.9545
94.4143 443 21.0476
94.5307 434 20.8327
94.6472 434 20.8327
94.7637 434 20.8327
94.8803 437 20.9045
94.9969 530 23.0217
95.1135 587 24.2281
95.2302 552 23.4947
95.3469 533 23.0868
95.4637 542 23.2809
95.5805 581 24.1039
95.6973 600 24.4949
95.8142 543 23.3024
95.9311 577 24.0208
96.048 581 24.1039
96.1649 588 24.2487
96.2819 574 23.9583
96.3989 556 23.5797
96.516 522 22.8473
96.633 496 22.2711
96.7501 452 21.2603
96.8673 454 21.3073
96.9844 487 22.0681
97.1016 473 21.7486
97.2188 544 23.3238
97.336 616 24.8193
97.4532 653 25.5539
97.5704 541 23.2594
97.6877 649 25.4755
97.805 600 24.4949
97.9223 563 23.7276
98.0396 528 22.9783
98.1569 497 22.2935
98.2743 426 20.6398
98.3916 420 20.4939
98.509 464 21.5407
98.6264 508 22.5389
98.7438 555 23.5584
98.8612 589 24.2693
98.9786 583 24.1454
99.096 593 24.3516
99.2134 565 23.7697
99.3308 661 25.7099
99.4482 632 25.1396
99.5656 624 24.98
99.6831 582 24.1247
99.8005 594 24.3721
99.9179 611 24.7184
100.035 583 24.1454
100.153 555 23.5584
100.27 523 22.8692
100.388 514 22.6716
100.505 505 22.4722
100.622 554 23.5372
100.74 607 24.6374
100.857 619 24.8797
100.975 571 23.8956
101.092 642 25.3377
101.209 623 24.96
101.327 609 24.6779
101.444 570 23.8747
101.561 547 23.388
101.679 523 22.8692
101.796 509 22.561
101.913 479 21.8861
102.03 487 22.0681
102.148 546 23.3666
102.265 549 23.4307
102.382 552 23.4947
102.499 618 24.8596
102.616 625 25
102.733 623 24.96
102.851 670 25.8844
102.968 715 26.7395
103.085 678 26.0384
103.202 651 25.5147
103.319 645 25.3969
103.436 631 25.1197
103.552 635 25.1992
103.669 598 24.454
103.786 538 23.1948
103.903 519 22.7816
104.02 593 24.3516
104.137 578 24.0416
104.253 629 25.0799
104.37 683 26.1343
104.487 658 25.6515
104.603 681 26.096
104.72 630 25.0998
104.836 670 25.8844
104.953 568 23.8328
105.069 562 23.7065
105.186 506 22.4944
105.302 426 20.6398
105.418 476 21.8174
105.535 422 20.5426
105.651 465 21.5639
105.767 398 19.9499
105.883 481 21.9317
105.999 441 21
106.115 0 1
106.231 0 1
106.347 0 1
106.463 0 1
106.579 0 1
106.694 0 1
106.81 0 1
106.926 0 1
107.041 0 1
107.157 0 1
109.576 0 1
109.692 0 1
109.807 0 1
109.923 0 1
110.039 0 1
110.155 0 1
110.27 0 1
110.386 0 1
110.502 0 1
110.618 277 16.6433
110.735 333 18.2483
110.851 371 19.2614
110.967 438 20.9284
111.083 507 22.5167
111.199 554 23.5372
111.316 590 24.2899
111.432 565 23.7697
111.549 582 24.1247
111.665 602 24.5357
111.782 618 24.8596
111.898 583 24.1454
112.015 569 23.8537
112.132 555 23.5584
112.248 508 22.5389
112.365 518 22.7596
112.482 471 21.7025
112.599 522 22.8473
112.716 553 23.516
112.832 626 25.02
112.949 630 25.0998
113.066 656 25.6125
113.183 625 25
113.3 563 23.7276
113.417 577 24.0208
113.534 570 23.8747
113.652 554 23.5372
113.769 485 22.0227
113.886 454 21.3073
114.003 386 19.6469
114.12 436 20.8806
114.238 487 22.0681
114.355 585 24.1868
114.472 533 23.0868
114.589 601 24.5153
114.707 599 24.4745
114.824 577 24.0208
114.942 618 24.8596
115.059 650 25.4951
115.176 626 25.02
115.294 615 24.7992
115.411 658 25.6515
115.529 609 24.6779
115.646 585 24.1868
115.764 561 23.6854
115.881 501 22.383
115.999 475 21.7945
116.116 508 22.5389
116.234 541 23.2594
116.351 545 23.3452
116.469 585 24.1868
116.586 608 24.6577
116.704 621 24.9199
116.821 590 24.2899
116.939 632 25.1396
117.056 568 23.8328
117.174 547 23.388
117.291 515 22.6936
117.409 513 22.6495
117.526 463 21.5174
117.644 459 21.4243
117.761 503 22.4277
117.879 544 23.3238
117.996 609 24.6779
118.114 591 24.3105
118.231 560 23.6643
118.349 637 25.2389
118.466 622 24.9399
118.584 630 25.0998
118.701 604 24.5764
118.819 628 25.0599
118.936 565 23.7697
119.053 589 24.2693
119.171 586 24.2074
119.288 566 23.7908
119.405 532 23.0651
119.523 510 22.5832
119.64 485 22.0227
119.757 545 23.3452
119.875 505 22.4722
119.992 562 23.7065
120.109 547 23.388
120.226 582 24.1247
120.343 570 23.8747
120.46 638 25.2587
120.578 600 24.4949
120.695 574 23.9583
120.812 555 23.5584
120.929 499 22.3383
121.046 462 21.4942
121.163 440 20.9762
121.279 398 19.9499
121.396 408 20.199
121.513 496 22.2711
121.63 501 22.383
121.747 525 22.9129
121.863 529 23
121.98 453 21.2838
122.097 518 22.7596
122.213 505 22.4722
122.33 515 22.6936
122.446 485 22.0227
122.563 469 21.6564
122.679 430 20.7364
122.795 391 19.7737
122.912 394 19.8494
123.028 314 17.72
123.144 275 16.5831
123.26 250 15.8114
123.377 0 1
123.493 0 1
123.609 0 1
123.725 0 1
123.84 0 1
123.956 0 1
124.072 0 1
124.188 0 1
124.303 0 1
124.419 0 1
126.852 0 1
126.968 0 1
127.083 0 1
127.199 0 1
127.315 0 1
127.431 0 1
127.547 0 1
127.663 0 1
127.779 0 1
127.895 0 1
128.011 0 1
128.127 0 1
128.243 0 1
128.359 636 25.219
128.476 615 24.7992
128.592 643 25.3574
128.708 612 24.7386
128.825 645 25.3969
128.941 687 26.2107
129.058 693 26.3249
129.174 742 27.2397
129.291 727 26.9629
129.408 776 27.8568
129.524 778 27.8927
129.641 790 28.1069
129.758 755 27.4773
129.875 739 27.1846
129.992 681 26.096
130.108 657 25.632
130.225 595 24.3926
130.342 560 23.6643
130.459 602 24.5357
130.576 652 25.5343
130.693 686 26.1916
130.81 729 27
130.928 702 26.4953
131.045 722 26.8701
131.162 748 27.3496
131.279 778 27.8927
131.396 797 28.2312
131.513 813 28.5132
131.631 762 27.6043
131.748 759 27.55
131.865 721 26.8514
131.983 685 26.1725
132.1 665 25.7876
132.217 624 24.98
132.335 715 26.7395
132.452 671 25.9037
132.57 702 26.4953
132.687 783 27.9821
132.804 727 26.9629
132.922 749 27.3679
133.039 784 28
133.157 823 28.688
133.274 734 27.0924
133.392 718 26.7955
133.509 694 26.3439
133.627 625 25
133.744 596 24.4131
133.862 551 23.4734
133.979 606 24.6171
134.097 626 25.02
134.214 677 26.0192
134.332 706 26.5707
134.449 747 27.3313
134.567 652 25.5343
134.684 684 26.1534
134.802 720 26.8328
134.919 749 27.3679
135.037 758 27.5318
135.154 709 26.6271
135.272 689 26.2488
135.389 636 25.219
135.507 680 26.0768
135.624 640 25.2982
135.742 633 25.1595
135.859 600 24.4949
135.977 615 24.7992
136.094 668 25.8457
136.211 659 25.671
136.329 673 25.9422
136.446 656 25.6125
136.564 697 26.4008
136.681 679 26.0576
136.798 690 26.2679
136.915 704 26.533
137.033 679 26.0576
137.15 637 25.2389
137.267 516 22.7156
137.384 559 23.6432
137.502 554 23.5372
137.619 530 23.0217
137.736 558 23.622
137.853 558 23.622
137.97 547 23.388
138.087 637 25.2389
138.204 612 24.7386
138.321 662 25.7294
138.438 623 24.96
138.555 622 24.9399
138.672 608 24.6577
138.788 576 24
138.905 593 24.3516
139.022 586 24.2074
139.139 497 22.2935
139.255 463 21.5174
139.372 452 21.2603
139.488 401 20.025
139.605 375 19.3649
139.721 410 20.2485
139.838 438 20.9284
139.954 414 20.347
140.071 442 21.0238
140.187 389 19.7231
140.303 357 18.8944
140.419 364 19.0788
140.535 313 17.6918
140.652 297 17.2337
140.768 0 1
140.884 0 1
141 0 1
141.115 0 1
141.231 0 1
141.347 0 1
141.463 0 1
141.578 0 1
141.694 0 1
144.104 0 1
144.219 0 1
144.335 0 1
144.45 0 1
144.566 0 1
144.682 0 1
144.798 0 1
144.914 0 1
145.03 0 1
145.146 425 20.6155
145.262 462 21.4942
145.378 499 22.3383
145.494 517 22.7376
145.61 531 23.0434
145.726 487 22.0681
145.842 447 21.1424
145.959 478 21.8632
146.075 379 19.4679
146.192 401 20.025
146.308 379 19.4679
146.425 380 19.4936
146.541 444 21.0713
146.658 439 20.9523
146.774 425 20.6155
146.891 467 21.6102
147.008 481 21.9317
147.125 484 22
147.241 499 22.3383
147.358 492 22.1811
147.475 479 21.8861
147.592 448 21.166
147.709 449 21.1896
147.826 442 21.0238
147.943 421 20.5183
148.06 398 19.9499
148.177 427 20.664
148.294 365 19.105
148.411 394 19.8494
148.528 413 20.3224
148.645 412 20.2978
148.762 474 21.7715
148.88 468 21.6333
148.997 462 21.4942
149.114 471 21.7025
149.231 470 21.6795
149.349 482 21.9545
149.466 467 21.6102
149.583 419 20.4695
149.701 401 20.025
149.818 387 19.6723
149.935 367 19.1572
150.053 361 19
150.17 365 19.105
150.287 407 20.1742
150.405 429 20.7123
150.522 438 20.9284
150.64 441 21
150.757 424 20.5913
150.875 444 21.0713
150.992 467 21.6102
151.11 458 21.4009
151.227 474 21.7715
151.344 439 20.9523
151.462 418 20.445
151.579 411 20.2731
151.697 395 19.8746
151.814 415 20.3715
151.932 402 20.0499
152.049 412 20.2978
152.167 419 20.4695
152.284 446 21.1187
152.402 451 21.2368
152.519 412 20.2978
152.636 481 21.9317
152.754 445 21.095
152.871 453 21.2838
152.989 411 20.2731
153.106 408 20.199
153.223 431 20.7605
153.341 409 20.2237
153.458 394 19.8494
153.575 367 19.1572
153.693 372 19.2873
153.81 376 19.3907
153.927 383 19.5704
154.044 384 19.5959
154.162 416 20.3961
154.279 420 20.4939
154.396 469 21.6564
154.513 425 20.6155
154.63 447 21.1424
154.747 418 20.445
154.864 411 20.2731
154.981 407 20.1742
155.098 421 20.5183
155.215 411 20.2731
155.332 410 20.2485
155.449 391 19.7737
155.566 377 19.4165
155.683 345 18.5742
155.8 382 19.5448
155.917 390 19.7484
156.033 376 19.3907
156.15 0 1
156.267 0 1
156.383 0 1
156.5 0 1
156.617 0 1
156.733 0 1
156.85 0 1
156.966 0 1
157.082 0 1
157.199 0 1
157.315 0 1
157.431 0 1
157.547 0 1
157.664 0 1
157.78 0 1
157.896 0 1
158.012 0 1
158.128 0 1
158.244 0 1
158.359 0 1
158.475 0 1
158.591 0 1
158.706 0 1
