
6.15755 0 1
6.2731 0 1
6.3887 0 1
6.50437 0 1
6.62009 0 1
6.73587 0 1
6.8517 0 1
6.96759 0 1
7.08353 0 1
7.19952 0 1
7.31557 0 1
7.43166 0 1
7.54781 0 1
7.664 0 1
7.78024 0 1
7.89653 0 1
8.01286 0 1
8.12924 0 1
8.24567 0 1
8.36213 0 1
8.47864 0 1
8.59519 0 1
8.71178 0 1
8.82841 0 1
8.94508 0 1
9.06179 0 1
9.17853 0 1
9.29531 0 1
9.41212 0 1
9.52897 0 1
9.64584 0 1
9.76276 0 1
9.8797 0 1
9.99667 0 1
10.1137 0 1
10.2307 0 1
10.3478 0 1
10.4648 0 1
10.5819 0 1
10.6991 0 1
10.8162 0 1
10.9334 0 1
11.0506 0 1
11.1678 0 1
11.285 0 1
11.4023 0 1
11.5196 0 1
11.6369 0 1
11.7542 0 1
11.8715 0 1
11.9888 0 1
12.1062 0 1
12.2235 0 1
12.3409 0 1
12.4582 0 1
12.5756 0 1
12.693 0 1
12.8104 0 1
12.9278 0 1
13.0452 0 1
13.1626 0 1
13.28 0 1
13.3974 0 1
13.5149 0 1
13.6323 0 1
13.7497 0 1
13.8671 0 1
13.9845 0 1
14.1019 0 1
14.2193 0 1
14.3367 0 1
14.4541 0 1
14.5714 0 1
14.6888 0 1
14.8062 0 1
14.9235 0 1
15.0408 6630 81.4248
15.1581 6855 82.7949
15.2755 7075 84.113
15.3927 7009 83.7198
15.51 7014 83.7496
15.6273 6986 83.5823
15.7445 6989 83.6002
15.8617 6938 83.2947
15.9789 6578 81.1049
16.0961 6465 80.4052
16.2132 6418 80.1124
16.3304 6444 80.2745
16.4475 6534 80.8332
16.5646 6634 81.4494
16.6816 6474 80.4612
16.7986 6376 79.8499
16.9156 6535 80.8393
17.0326 6363 79.7684
17.1496 6511 80.6908
17.2665 6232 78.943
17.3833 6246 79.0316
17.5002 6114 78.1921
17.617 6129 78.2879
17.7338 5953 77.1557
17.8505 6120 78.2304
17.9672 6446 80.287
18.0839 6740 82.0975
18.2005 6853 82.7828
18.3171 6936 83.2827
18.4337 7298 85.4283
18.5502 7523 86.7352
18.6666 7310 85.4985
18.7831 7361 85.7963
18.8994 7165 84.6463
19.0158 6837 82.6862
19.1321 6821 82.5893
19.2483 6623 81.3818
19.3645 6392 79.95
19.4806 6040 77.7174
19.5967 5904 76.8375
19.7128 5694 75.4586
19.8288 5616 74.94
19.9447 4912 70.0857
20.0606 0 1
20.1764 0 1
20.2922 0 1
20.4079 0 1
20.5236 0 1
20.6392 0 1
20.7548 0 1
20.8702 0 1
23.3078 0 1
23.4233 0 1
23.539 0 1
23.6547 0 1
23.7704 0 1
23.8862 0 1
24.0021 0 1
24.118 0 1
24.234 0 1
24.35 0 1
24.4661 5906 76.8505
24.5822 5730 75.6968
24.6984 5731 75.7034
24.8146 5662 75.2463
24.9309 5738 75.7496
25.0472 5696 75.4718
25.1636 6024 77.6144
25.28 6119 78.224
25.3965 6426 80.1623
25.513 6405 80.0312
25.6296 6685 81.7618
25.7462 6731 82.0427
25.8628 6525 80.7775
25.9795 6550 80.9321
26.0962 6480 80.4984
26.213 6108 78.1537
26.3298 5861 76.5572
26.4466 5788 76.0789
26.5635 5803 76.1774
26.6804 5922 76.9545
26.7973 6160 78.4857
26.9143 6242 79.0063
27.0313 6312 79.4481
27.1483 6529 80.8022
27.2653 6555 80.963
27.3824 6522 80.7589
27.4996 6595 81.2096
27.6167 6385 79.9062
27.7339 6397 79.9812
27.8511 6216 78.8416
27.9683 6015 77.5564
28.0855 6083 77.9936
28.2028 5817 76.2693
28.3201 5448 73.8106
28.4374 5527 74.3438
28.5547 5376 73.3212
28.6721 5592 74.7797
28.7894 5801 76.1643
28.9068 5951 77.1427
29.0242 6000 77.4597
29.1416 5956 77.1751
29.259 6174 78.5748
29.3764 5969 77.2593
29.4939 5927 76.987
29.6113 5686 75.4056
29.7288 5521 74.3034
29.8463 5439 73.7496
29.9638 5266 72.5672
30.0812 5350 73.1437
30.1987 5416 73.5935
30.3162 5564 74.5922
30.4337 5652 75.1798
30.5512 5877 76.6616
30.6687 5827 76.3348
30.7862 6160 78.4857
30.9037 6051 77.7882
31.0212 6231 78.9367
31.1387 6237 78.9747
31.2562 6081 77.9808
31.3737 6105 78.1345
31.4912 5851 76.4918
31.6087 5759 75.8881
31.7262 5681 75.3724
31.8436 5362 73.2257
31.9611 5335 73.0411
32.0785 5318 72.9246
32.1959 5213 72.2011
32.3134 5366 73.253
32.4308 5557 74.5453
32.5482 5762 75.9078
32.6655 5801 76.1643
32.7829 5710 75.5645
32.9002 5645 75.1332
33.0176 5770 75.9605
33.1349 5755 75.8617
33.2522 5705 75.5315
33.3694 5547 74.4782
33.4867 5399 73.4779
33.6039 5273 72.6154
33.7211 5175 71.9375
33.8383 5213 72.2011
33.9554 5388 73.403
34.0725 5419 73.6139
34.1896 5557 74.5453
34.3067 5668 75.2861
34.4237 5736 75.7364
34.5407 5792 76.1052
34.6577 5846 76.4591
34.7746 5913 76.896
34.8915 5681 75.3724
35.0084 5715 75.5976
35.1252 5703 75.5182
35.242 5518 74.2832
35.3587 5291 72.7393
35.4755 5323 72.9589
35.5921 5019 70.8449
35.7088 4882 69.8713
35.8254 4844 69.5989
35.9419 4972 70.5124
36.0584 4965 70.4628
36.1749 5292 72.7461
36.2913 5266 72.5672
36.4077 5446 73.797
36.524 5405 73.5187
36.6403 5382 73.3621
36.7565 5365 73.2462
36.8727 5479 74.0203
36.9889 5248 72.4431
37.1049 5136 71.6659
37.221 0 1
37.3369 0 1
37.4529 0 1
37.5687 0 1
37.6845 0 1
37.8003 0 1
37.916 0 1
38.0316 0 1
38.1472 0 1
40.5851 0 1
40.7008 0 1
40.8164 0 1
40.9322 0 1
41.048 0 1
41.1639 0 1
41.2798 0 1
41.3958 0 1
41.5118 0 1
41.6279 0 1
41.744 4008 63.3088
41.8602 4475 66.8954
41.9765 4401 66.34
42.0928 4496 67.0522
42.2091 4541 67.3869
42.3255 4270 65.3452
42.4419 4280 65.4217
42.5584 4013 63.3482
42.675 3895 62.4099
42.7915 3992 63.1823
42.9081 4026 63.4508
43.0248 4053 63.6632
43.1415 4253 65.215
43.2582 4293 65.521
43.375 4315 65.6887
43.4918 4300 65.5744
43.6087 4365 66.0681
43.7256 4263 65.2917
43.8425 4321 65.7343
43.9595 4014 63.3561
44.0765 4104 64.0625
44.1935 4016 63.3719
44.3106 3776 61.4492
44.4277 3632 60.2661
44.5448 3421 58.4893
44.6619 3312 57.55
44.7791 3056 55.2811
44.8963 3216 56.7098
45.0136 3277 57.2451
45.1308 3360 57.9655
45.2481 3429 58.5577
45.3654 3406 58.3609
45.4827 3323 57.6455
45.6001 3414 58.4294
45.7174 3382 58.155
45.8348 3355 57.9224
45.9522 3123 55.8838
46.0697 3116 55.8211
46.1871 2994 54.7175
46.3046 2764 52.5738
46.422 2831 53.2071
46.5395 3079 55.4887
46.657 3073 55.4346
46.7745 3058 55.2992
46.892 3091 55.5968
47.0096 3023 54.9818
47.1271 3110 55.7674
47.2446 3102 55.6956
47.3622 2990 54.6809
47.4797 3029 55.0364
47.5973 2963 54.4334
47.7149 2920 54.037
47.8324 2851 53.3948
47.95 2744 52.3832
48.0675 2585 50.8429
48.1851 2541 50.4083
48.3027 2488 49.8799
48.4202 2505 50.05
48.5378 2511 50.1099
48.6554 2583 50.8232
48.7729 2586 50.8527
48.8904 2703 51.9904
49.008 2793 52.8488
49.1255 2718 52.1344
49.243 2791 52.8299
49.3605 2851 53.3948
49.478 2702 51.9808
49.5955 2706 52.0192
49.713 2603 51.0196
49.8304 2551 50.5074
49.9479 2580 50.7937
50.0653 2725 52.2015
50.1827 2829 53.1883
50.3001 2971 54.5069
50.4175 3124 55.8928
50.5348 3161 56.2228
50.6521 3278 57.2538
50.7694 3331 57.7148
50.8867 3415 58.438
51.004 3508 59.2284
51.1212 3495 59.1185
51.2384 3404 58.3438
51.3556 3570 59.7495
51.4727 3443 58.6771
51.5899 3462 58.8388
51.707 3256 57.0614
51.824 3217 56.7186
51.9411 3365 58.0086
52.0581 3483 59.0169
52.175 3588 59.8999
52.2919 3972 63.0238
52.4088 4035 63.5216
52.5257 4269 65.3376
52.6425 4203 64.8305
52.7593 4405 66.3702
52.876 4455 66.7458
52.9927 4524 67.2607
53.1094 4308 65.6354
53.226 4265 65.307
53.3426 3948 62.8331
53.4591 4126 64.2339
53.5756 4142 64.3584
53.692 4228 65.0231
53.8084 4478 66.9179
53.9248 4712 68.644
54.0411 4830 69.4982
54.1573 5021 70.859
54.2735 0 1
54.3896 0 1
54.5057 0 1
54.6217 0 1
54.7377 0 1
54.8537 0 1
54.9695 0 1
55.0853 0 1
55.2011 0 1
55.3168 0 1
55.4324 0 1
57.824 0 1
57.9396 0 1
58.0553 0 1
58.1711 0 1
58.2869 0 1
58.4028 0 1
58.5187 0 1
58.6347 0 1
58.7508 0 1
58.8669 0 1
58.983 5296 72.7736
59.0992 5698 75.4851
59.2155 6021 77.5951
59.3318 6107 78.1473
59.4482 6390 79.9375
59.5646 6241 79
59.681 6385 79.9062
59.7975 6368 79.7997
59.9141 6240 78.9937
60.0306 6161 78.492
60.1473 6096 78.0769
60.2639 6043 77.7367
60.3807 5807 76.2037
60.4974 5530 74.364
60.6142 5372 73.2939
60.731 5327 72.9863
60.8479 5439 73.7496
60.9648 5597 74.8131
61.0818 5733 75.7166
61.1987 5794 76.1183
61.3158 5917 76.922
61.4328 6029 77.6466
61.5499 6004 77.4855
61.667 5985 77.3628
61.7841 5750 75.8288
61.9013 5534 74.3909
62.0185 5179 71.9653
62.1357 5134 71.6519
62.253 5004 70.739
62.3702 5052 71.0774
62.4875 5279 72.6567
62.6049 5424 73.6478
62.7222 5544 74.458
62.8396 5509 74.2226
62.9569 5793 76.1118
63.0743 5501 74.1687
63.1918 5532 74.3774
63.3092 5562 74.5788
63.4267 5569 74.6257
63.5441 5430 73.6885
63.6616 5439 73.7496
63.7791 5297 72.7805
63.8966 5040 70.993
64.0142 4904 70.0286
64.1317 4733 68.7968
64.2492 4629 68.0368
64.3668 4673 68.3593
64.4843 4868 69.7711
64.6019 4984 70.5975
64.7195 5153 71.7844
64.837 5322 72.952
64.9546 5410 73.5527
65.0722 5540 74.4312
65.1898 5440 73.7564
65.3074 5523 74.3169
65.4249 5231 72.3257
65.5425 5072 71.218
65.6601 4686 68.4544
65.7777 4608 67.8823
65.8952 4708 68.6149
66.0128 4817 69.4046
66.1304 4901 70.0071
66.2479 5166 71.8749
66.3655 5149 71.7565
66.483 5247 72.4362
66.6005 5322 72.952
66.718 5451 73.8309
66.8355 5430 73.6885
66.953 5319 72.9315
67.0705 5521 74.3034
67.1879 5451 73.8309
67.3054 5277 72.643
67.4228 5346 73.1163
67.5402 5235 72.3533
67.6576 5158 71.8192
67.7749 4724 68.7314
67.8923 4807 69.3325
68.0096 4759 68.9855
68.1269 5036 70.9648
68.2442 5186 72.0139
68.3614 5435 73.7225
68.4787 5539 74.4245
68.5958 5693 75.452
68.713 6014 77.55
68.8302 6066 77.8845
68.9473 6020 77.5887
69.0643 5826 76.3282
69.1814 5620 74.9667
69.2984 5248 72.4431
69.4154 5031 70.9295
69.5323 4870 69.7854
69.6492 5065 71.1688
69.7661 5412 73.5663
69.8829 5530 74.364
69.9997 5744 75.7892
70.1165 5838 76.4068
70.2332 6022 77.6015
70.3499 5937 77.0519
70.4665 5942 77.0844
70.5831 6128 78.2815
70.6996 6037 77.6981
70.8161 6017 77.5693
70.9326 6175 78.5812
71.049 6033 77.6724
71.1653 5918 76.9285
71.2817 5809 76.2168
71.3979 5305 72.8354
71.5141 5022 70.8661
71.6303 4785 69.1737
71.7464 4700 68.5565
71.8624 0 1
71.9784 0 1
72.0944 0 1
72.2102 0 1
72.3261 0 1
72.4418 0 1
72.5575 0 1
72.6732 0 1
75.1054 0 1
75.2209 0 1
75.3365 0 1
75.4521 0 1
75.5678 0 1
75.6835 0 1
75.7993 0 1
75.9151 0 1
76.031 0 1
76.147 5275 72.6292
76.263 5629 75.0267
76.3791 5744 75.7892
76.4952 5564 74.5922
76.6113 5415 73.5867
76.7276 5143 71.7147
76.8438 5124 71.5821
76.9601 5106 71.4563
77.0765 5183 71.9931
77.1929 5468 73.9459
77.3093 5655 75.1997
77.4258 6161 78.492
77.5423 6085 78.0064
77.6589 6174 78.5748
77.7755 6118 78.2176
77.8921 6186 78.6511
78.0088 5968 77.2528
78.1256 5796 76.1315
78.2423 5297 72.7805
78.3591 4916 70.1142
78.4759 4582 67.6905
78.5928 4764 69.0217
78.7097 5053 71.0845
78.8266 5211 72.1873
78.9436 5744 75.7892
79.0606 5546 74.4715
79.1776 5696 75.4718
79.2946 5747 75.809
79.4117 5997 77.4403
79.5288 5927 76.987
79.6459 5834 76.3806
79.7631 5754 75.8551
79.8802 5864 76.5768
79.9974 5764 75.921
80.1147 5658 75.2197
80.2319 5609 74.8933
80.3491 5447 73.8038
80.4664 5039 70.9859
80.5837 5071 71.211
80.701 5159 71.8262
80.8183 5348 73.13
80.9357 5662 75.2463
81.053 5835 76.3872
81.1704 5824 76.3151
81.2877 5942 77.0844
81.4051 6081 77.9808
81.5225 6350 79.6869
81.6399 6103 78.1217
81.7573 6038 77.7046
81.8747 5280 72.6636
81.9922 4935 70.2496
82.1096 4696 68.5274
82.227 4663 68.2862
82.3444 5001 70.7177
82.4619 5370 73.2803
82.5793 5632 75.0467
82.6967 5526 74.3371
82.8142 5746 75.8024
82.9316 5869 76.6094
83.049 5926 76.9805
83.1664 5850 76.4853
83.2838 5924 76.9675
83.4012 5990 77.3951
83.5186 5883 76.7007
83.636 5792 76.1052
83.7534 5919 76.935
83.8708 5585 74.7329
83.9881 5377 73.328
84.1055 5289 72.7255
84.2228 5256 72.4983
84.3401 5230 72.3187
84.4575 5296 72.7736
84.5747 5797 76.138
84.692 5849 76.4788
84.8093 6030 77.6531
84.9265 6294 79.3347
85.0437 6562 81.0062
85.1609 6551 80.9382
85.2781 6241 79
85.3952 5784 76.0526
85.5123 5418 73.6071
85.6294 4973 70.5195
85.7465 4908 70.0571
85.8636 5060 71.1337
85.9806 5431 73.6953
86.0976 5698 75.4851
86.2145 5975 77.2981
86.3315 6071 77.9166
86.4484 6278 79.2338
86.5652 6318 79.4858
86.682 6456 80.3492
86.7988 6442 80.2621
86.9156 6225 78.8987
87.0323 6421 80.1311
87.149 6273 79.2023
87.2657 6384 79.8999
87.3823 6231 78.9367
87.4988 5889 76.7398
87.6154 5723 75.6505
87.7318 5576 74.6726
87.8483 5528 74.3505
87.9647 5702 75.5116
88.081 5853 76.5049
88.1973 6076 77.9487
88.3136 6367 79.7935
88.4298 6481 80.5047
88.546 6710 81.9146
88.6621 6735 82.067
88.7781 6719 81.9695
88.8942 0 1
89.0101 0 1
89.126 0 1
89.2419 0 1
89.3577 0 1
89.4734 0 1
89.5891 0 1
89.7047 0 1
89.8203 0 1
89.9358 0 1
92.3269 0 1
92.4424 0 1
92.558 0 1
92.6736 0 1
92.7893 0 1
92.905 0 1
93.0208 0 1
93.1366 0 1
93.2525 0 1
93.3685 0 1
93.4845 0 1
93.6005 5908 76.8635
93.7167 6205 78.7718
93.8328 6172 78.5621
93.949 6276 79.2212
94.0653 6324 79.5236
94.1816 6148 78.4092
94.2979 5794 76.1183
94.4143 5394 73.4439
94.5307 5046 71.0352
94.6472 4858 69.6994
94.7637 4909 70.0643
94.8803 5075 71.239
94.9969 5499 74.1552
95.1135 5661 75.2396
95.2302 5750 75.8288
95.3469 5751 75.8353
95.4637 5934 77.0325
95.5805 5955 77.1686
95.6973 6015 77.5564
95.8142 6130 78.2943
95.9311 6044 77.7432
96.048 6270 79.1833
96.1649 6194 78.702
96.2819 6014 77.55
96.3989 5968 77.2528
96.516 5801 76.1643
96.633 5415 73.5867
96.7501 5397 73.4643
96.8673 5322 72.952
96.9844 5404 73.5119
97.1016 5575 74.6659
97.2188 5529 74.3572
97.336 5844 76.4461
97.4532 6002 77.4726
97.5704 6384 79.8999
97.6877 6262 79.1328
97.805 6121 78.2368
97.9223 5942 77.0844
98.0396 5546 74.4715
98.1569 5254 72.4845
98.2743 4889 69.9214
98.3916 4716 68.6731
98.509 4848 69.6276
98.6264 4981 70.5762
98.7438 5331 73.0137
98.8612 5461 73.8986
98.9786 5612 74.9133
99.096 5740 75.7628
99.2134 5621 74.9733
99.3308 5783 76.046
99.4482 5818 76.2758
99.5656 5669 75.2928
99.6831 5556 74.5386
99.8005 5577 74.6793
99.9179 5703 75.5182
100.035 5596 74.8064
100.153 5484 74.054
100.27 5301 72.808
100.388 4893 69.95
100.505 4886 69.8999
100.622 5129 71.617
100.74 5266 72.5672
100.857 5385 73.3826
100.975 5778 76.0132
101.092 5910 76.8765
101.209 6022 77.6015
101.327 6211 78.8099
101.444 6080 77.9744
101.561 5951 77.1427
101.679 5589 74.7596
101.796 5112 71.4983
101.913 4838 69.5557
102.03 4828 69.4838
102.148 4996 70.6824
102.265 4809 69.347
102.382 5874 76.642
102.499 5785 76.0592
102.616 5815 76.2561
102.733 5862 76.5637
102.851 5867 76.5963
102.968 6071 77.9166
103.085 6045 77.7496
103.202 6131 78.3007
103.319 6131 78.3007
103.436 6061 77.8524
103.552 6056 77.8203
103.669 5968 77.2528
103.786 5729 75.6902
103.903 5451 73.8309
104.02 5421 73.6274
104.137 5431 73.6953
104.253 5670 75.2994
104.37 5835 76.3872
104.487 6176 78.5875
104.603 6213 78.8226
104.72 6542 80.8826
104.836 6487 80.5419
104.953 6492 80.5729
105.069 6187 78.6575
105.186 5805 76.1906
105.302 5275 72.6292
105.418 5103 71.4353
105.535 4967 70.4769
105.651 5293 72.753
105.767 5538 74.4177
105.883 5731 75.7034
105.999 5905 76.844
106.115 0 1
106.231 0 1
106.347 0 1
106.463 0 1
106.579 0 1
106.694 0 1
106.81 0 1
106.926 0 1
107.041 0 1
107.157 0 1
109.576 0 1
109.692 0 1
109.807 0 1
109.923 0 1
110.039 0 1
110.155 0 1
110.27 0 1
110.386 0 1
110.502 0 1
110.618 4201 64.8151
110.735 4773 69.0869
110.851 4927 70.1926
110.967 5068 71.1899
111.083 5314 72.8972
111.199 5360 73.212
111.316 5457 73.8715
111.432 5632 75.0467
111.549 5555 74.5319
111.665 5376 73.3212
111.782 5359 73.2052
111.898 5262 72.5396
112.015 5269 72.5879
112.132 4940 70.2851
112.248 4922 70.157
112.365 4849 69.6348
112.482 4700 68.5565
112.599 4468 66.8431
112.716 4627 68.0221
112.832 4643 68.1396
112.949 4864 69.7424
113.066 5028 70.9084
113.183 5018 70.8378
113.3 5211 72.1873
113.417 5118 71.5402
113.534 5200 72.111
113.652 5095 71.3793
113.769 4586 67.72
113.886 4349 65.9469
114.003 4032 63.498
114.12 4061 63.726
114.238 4188 64.7148
114.355 4263 65.2917
114.472 4351 65.9621
114.589 4464 66.8132
114.707 4478 66.9179
114.824 4454 66.7383
114.942 4566 67.5722
115.059 4375 66.1438
115.176 4452 66.7233
115.294 4406 66.3777
115.411 4412 66.4229
115.529 4228 65.0231
115.646 4106 64.0781
115.764 4063 63.7417
115.881 3855 62.0886
115.999 3625 60.208
116.116 3608 60.0666
116.234 3507 59.2199
116.351 3643 60.3573
116.469 3701 60.8358
116.586 3788 61.5467
116.704 3825 61.8466
116.821 4002 63.2614
116.939 4037 63.5374
117.056 4077 63.8514
117.174 3988 63.1506
117.291 3836 61.9355
117.409 3674 60.6135
117.526 3445 58.6941
117.644 3341 57.8014
117.761 3158 56.1961
117.879 3456 58.7878
117.996 3416 58.4466
118.114 3696 60.7947
118.231 3852 62.0645
118.349 3904 62.482
118.466 3851 62.0564
118.584 3956 62.8967
118.701 4021 63.4114
118.819 3995 63.206
118.936 3857 62.1048
119.053 3902 62.466
119.171 3871 62.2174
119.288 3828 61.8708
119.405 3745 61.1964
119.523 3638 60.3158
119.64 3612 60.0999
119.757 3429 58.5577
119.875 3523 59.3549
119.992 3736 61.1228
120.109 3911 62.538
120.226 3915 62.57
120.343 4019 63.3956
120.46 4124 64.2184
120.578 4347 65.9318
120.695 4484 66.9627
120.812 4387 66.2344
120.929 4241 65.123
121.046 4019 63.3956
121.163 4064 63.7495
121.279 3739 61.1474
121.396 3626 60.2163
121.513 3749 61.2291
121.63 3958 62.9126
121.747 4383 66.2042
121.863 4527 67.283
121.98 4520 67.2309
122.097 4559 67.5204
122.213 4620 67.9706
122.33 4683 68.4324
122.446 4768 69.0507
122.563 4645 68.1542
122.679 4652 68.2056
122.795 4629 68.0368
122.912 4555 67.4907
123.028 4416 66.453
123.144 4334 65.8331
123.26 4228 65.0231
123.377 0 1
123.493 0 1
123.609 0 1
123.725 0 1
123.84 0 1
123.956 0 1
124.072 0 1
124.188 0 1
124.303 0 1
124.419 0 1
126.852 0 1
126.968 0 1
127.083 0 1
127.199 0 1
127.315 0 1
127.431 0 1
127.547 0 1
127.663 0 1
127.779 0 1
127.895 0 1
128.011 0 1
128.127 0 1
128.243 0 1
128.359 5202 72.1249
128.476 5299 72.7942
128.592 5154 71.7914
128.708 4824 69.455
128.825 4690 68.4836
128.941 4900 70
129.058 4998 70.6965
129.174 5091 71.3512
129.291 5265 72.5603
129.408 5309 72.8629
129.524 5447 73.8038
129.641 5437 73.736
129.758 5501 74.1687
129.875 5590 74.7663
129.992 5339 73.0685
130.108 4937 70.2638
130.225 4774 69.0941
130.342 4542 67.3944
130.459 4509 67.1491
130.576 4622 67.9853
130.693 4889 69.9214
130.81 4894 69.9571
130.928 5012 70.7955
131.045 5201 72.118
131.162 5195 72.0763
131.279 5234 72.3464
131.396 5375 73.3144
131.513 5176 71.9444
131.631 5195 72.0763
131.748 4967 70.4769
131.865 4845 69.606
131.983 4964 70.4557
132.1 4800 69.282
132.217 4596 67.7938
132.335 4635 68.0808
132.452 4583 67.6979
132.57 4631 68.0515
132.687 4553 67.4759
132.804 4987 70.6187
132.922 5054 71.0915
133.039 5129 71.617
133.157 5306 72.8423
133.274 5276 72.6361
133.392 5266 72.5672
133.509 5168 71.8888
133.627 4948 70.342
133.744 4640 68.1175
133.862 4491 67.0149
133.979 4361 66.0379
134.097 4543 67.4018
134.214 4712 68.644
134.332 4788 69.1954
134.449 4986 70.6116
134.567 5158 71.8192
134.684 5153 71.7844
134.802 5194 72.0694
134.919 5239 72.3809
135.037 5145 71.7287
135.154 5003 70.7319
135.272 4865 69.7496
135.389 4734 68.8041
135.507 4580 67.6757
135.624 4417 66.4605
135.742 4427 66.5357
135.859 4171 64.5833
135.977 4199 64.7997
136.094 4112 64.1249
136.211 4246 65.1613
136.329 4175 64.6142
136.446 4381 66.1891
136.564 4504 67.1118
136.681 4543 67.4018
136.798 4597 67.8012
136.915 4655 68.2276
137.033 4459 66.7757
137.15 4444 66.6633
137.267 4217 64.9384
137.384 3911 62.538
137.502 3828 61.8708
137.619 3904 62.482
137.736 4024 63.435
137.853 4146 64.3894
137.97 4409 66.4003
138.087 4663 68.2862
138.204 4717 68.6804
138.321 4701 68.5638
138.438 4863 69.7352
138.555 4969 70.4911
138.672 4992 70.6541
138.788 4658 68.2495
138.905 4966 70.4699
139.022 4746 68.8912
139.139 4740 68.8477
139.255 4809 69.347
139.372 4585 67.7126
139.488 4620 67.9706
139.605 4600 67.8233
139.721 4592 67.7643
139.838 4798 69.2676
139.954 5008 70.7672
140.071 5107 71.4633
140.187 5343 73.0958
140.303 5485 74.0608
140.419 5262 72.5396
140.535 5463 73.9121
140.652 5510 74.2294
140.768 0 1
140.884 0 1
141 0 1
141.115 0 1
141.231 0 1
141.347 0 1
141.463 0 1
141.578 0 1
141.694 0 1
144.104 0 1
144.219 0 1
144.335 0 1
144.45 0 1
144.566 0 1
144.682 0 1
144.798 0 1
144.914 0 1
145.03 0 1
145.146 6260 79.1202
145.262 6791 82.4075
145.378 7492 86.5563
145.494 7702 87.761
145.61 8243 90.791
145.726 8751 93.5468
145.842 9116 95.4777
145.959 9209 95.9635
146.075 9036 95.0579
146.192 9116 95.4777
146.308 9145 95.6295
146.425 9684 98.4073
146.541 10485 102.396
146.658 11688 108.111
146.774 13047 114.223
146.891 13592 116.585
147.008 14789 121.61
147.125 15891 126.06
147.241 16898 129.992
147.358 17606 132.688
147.475 18399 135.643
147.592 18583 136.319
147.709 18855 137.314
147.826 19313 138.971
147.943 19596 139.986
148.06 19076 138.116
148.177 19089 138.163
148.294 19145 138.365
148.411 19581 139.932
148.528 20661 143.739
148.645 21152 145.437
148.762 22117 148.718
148.88 22969 151.555
148.997 24540 156.652
149.114 22722 150.738
149.231 23749 154.107
149.349 23445 153.118
149.466 23519 153.359
149.583 21741 147.448
149.701 20663 143.746
149.818 19711 140.396
149.935 18702 136.755
150.053 18983 137.779
150.17 19816 140.769
150.287 20908 144.596
150.405 21535 146.748
150.522 22041 148.462
150.64 22552 150.173
150.757 22998 151.651
150.875 23101 151.99
150.992 22903 151.337
151.11 23402 152.977
151.227 22922 151.4
151.344 22609 150.363
151.462 22523 150.077
151.579 21989 148.287
151.697 21852 147.824
151.814 21220 145.671
151.932 20857 144.42
152.049 21622 147.044
152.167 22151 148.832
152.284 23495 153.281
152.402 24016 154.971
152.519 24747 157.312
152.636 25363 159.258
152.754 25495 159.672
152.871 25564 159.887
152.989 25604 160.012
153.106 24985 158.066
153.223 23564 153.506
153.341 22333 149.442
153.458 21417 146.345
153.575 20780 144.153
153.693 21472 146.533
153.81 22584 150.28
153.927 23532 153.401
154.044 24292 155.859
154.162 25248 158.896
154.279 25850 160.779
154.396 26934 164.116
154.513 27306 165.245
154.63 27775 166.658
154.747 27741 166.556
154.864 27752 166.589
154.981 27239 165.042
155.098 27068 164.524
155.215 26718 163.456
155.332 26214 161.907
155.449 25782 160.568
155.566 25846 160.767
155.683 26281 162.114
155.8 27297 165.218
155.917 28559 168.994
156.033 29848 172.766
156.15 0 1
156.267 0 1
156.383 0 1
156.5 0 1
156.617 0 1
156.733 0 1
156.85 0 1
156.966 0 1
157.082 0 1
157.199 0 1
157.315 0 1
157.431 0 1
157.547 0 1
157.664 0 1
157.78 0 1
157.896 0 1
158.012 0 1
158.128 0 1
158.244 0 1
158.359 0 1
158.475 0 1
158.591 0 1
158.706 0 1
