
6.15755 0 1
6.2731 0 1
6.3887 0 1
6.50437 0 1
6.62009 0 1
6.73587 0 1
6.8517 0 1
6.96759 0 1
7.08353 0 1
7.19952 0 1
7.31557 0 1
7.43166 0 1
7.54781 0 1
7.664 0 1
7.78024 0 1
7.89653 0 1
8.01286 0 1
8.12924 0 1
8.24567 0 1
8.36213 0 1
8.47864 0 1
8.59519 0 1
8.71178 0 1
8.82841 0 1
8.94508 0 1
9.06179 0 1
9.17853 0 1
9.29531 0 1
9.41212 0 1
9.52897 0 1
9.64584 0 1
9.76276 0 1
9.8797 0 1
9.99667 0 1
10.1137 0 1
10.2307 0 1
10.3478 0 1
10.4648 0 1
10.5819 0 1
10.6991 0 1
10.8162 0 1
10.9334 0 1
11.0506 0 1
11.1678 0 1
11.285 0 1
11.4023 0 1
11.5196 0 1
11.6369 0 1
11.7542 0 1
11.8715 0 1
11.9888 0 1
12.1062 0 1
12.2235 0 1
12.3409 0 1
12.4582 0 1
12.5756 0 1
12.693 0 1
12.8104 0 1
12.9278 0 1
13.0452 0 1
13.1626 0 1
13.28 0 1
13.3974 0 1
13.5149 0 1
13.6323 0 1
13.7497 0 1
13.8671 0 1
13.9845 0 1
14.1019 0 1
14.2193 0 1
14.3367 0 1
14.4541 0 1
14.5714 0 1
14.6888 0 1
14.8062 0 1
14.9235 0 1
15.0408 4728 68.7605
15.1581 4956 70.3989
15.2755 5024 70.8802
15.3927 4886 69.8999
15.51 5116 71.5262
15.6273 5240 72.3878
15.7445 5343 73.0958
15.8617 5312 72.8835
15.9789 5294 72.7599
16.0961 5089 71.3372
16.2132 5090 71.3442
16.3304 4974 70.5266
16.4475 4965 70.4628
16.5646 4976 70.5408
16.6816 4940 70.2851
16.7986 5063 71.1548
16.9156 5122 71.5681
17.0326 5172 71.9166
17.1496 5243 72.4086
17.2665 5322 72.952
17.3833 5246 72.4293
17.5002 5319 72.9315
17.617 5238 72.374
17.7338 5263 72.5465
17.8505 5408 73.5391
17.9672 5499 74.1552
18.0839 5587 74.7462
18.2005 5414 73.5799
18.3171 5178 71.9583
18.4337 5250 72.4569
18.5502 5138 71.6798
18.6666 5149 71.7565
18.7831 5084 71.3022
18.8994 4862 69.728
19.0158 4758 68.9783
19.1321 4923 70.1641
19.2483 5086 71.3162
19.3645 5291 72.7393
19.4806 5308 72.856
19.5967 5372 73.2939
19.7128 5427 73.6682
19.8288 5331 73.0137
19.9447 4868 69.7711
20.0606 0 1
20.1764 0 1
20.2922 0 1
20.4079 0 1
20.5236 0 1
20.6392 0 1
20.7548 0 1
20.8702 0 1
23.3078 0 1
23.4233 0 1
23.539 0 1
23.6547 0 1
23.7704 0 1
23.8862 0 1
24.0021 0 1
24.118 0 1
24.234 0 1
24.35 0 1
24.4661 5514 74.2563
24.5822 5763 75.9144
24.6984 6122 78.2432
24.8146 6061 77.8524
24.9309 6337 79.6053
25.0472 6447 80.2932
25.1636 6740 82.0975
25.28 6714 81.939
25.3965 6727 82.0183
25.513 6934 83.2706
25.6296 7076 84.119
25.7462 7255 85.1763
25.8628 7128 84.4275
25.9795 7165 84.6463
26.0962 6882 82.9578
26.213 6877 82.9277
26.3298 6730 82.0366
26.4466 6706 81.8902
26.5635 6694 81.8169
26.6804 6614 81.3265
26.7973 6622 81.3757
26.9143 6497 80.604
27.0313 6195 78.7083
27.1483 6069 77.9038
27.2653 5750 75.8288
27.3824 5859 76.5441
27.4996 5876 76.6551
27.6167 5740 75.7628
27.7339 5477 74.0068
27.8511 5529 74.3572
27.9683 6150 78.4219
28.0855 6607 81.2835
28.2028 7141 84.5044
28.3201 7107 84.303
28.4374 7249 85.1411
28.5547 7102 84.2734
28.6721 7337 85.6563
28.7894 7246 85.1234
28.9068 7021 83.7914
29.0242 7102 84.2734
29.1416 7011 83.7317
29.259 6861 82.8312
29.3764 6694 81.8169
29.4939 6425 80.1561
29.6113 6470 80.4363
29.7288 6252 79.0696
29.8463 6203 78.7591
29.9638 6007 77.5048
30.0812 6059 77.8396
30.1987 6136 78.3326
30.3162 6218 78.8543
30.4337 6135 78.3262
30.5512 6161 78.492
30.6687 5843 76.4395
30.7862 6088 78.0256
30.9037 6398 79.9875
31.0212 6716 81.9512
31.1387 7185 84.7644
31.2562 7274 85.2877
31.3737 7248 85.1352
31.4912 7810 88.3742
31.6087 8224 90.6863
31.7262 8166 90.3659
31.8436 7964 89.2412
31.9611 7765 88.1192
32.0785 7528 86.764
32.1959 7391 85.9709
32.3134 6724 82
32.4308 6604 81.265
32.5482 6202 78.7528
32.6655 5828 76.3413
32.7829 5725 75.6637
32.9002 5498 74.1485
33.0176 5389 73.4098
33.1349 5322 72.952
33.2522 5374 73.3076
33.3694 5250 72.4569
33.4867 5396 73.4575
33.6039 5441 73.7631
33.7211 5566 74.6056
33.8383 5474 73.9865
33.9554 5758 75.8815
34.0725 6033 77.6724
34.1896 6084 78
34.3067 6208 78.7909
34.4237 6000 77.4597
34.5407 6163 78.5048
34.6577 6459 80.3679
34.7746 6373 79.8311
34.8915 5929 77
35.0084 5891 76.7529
35.1252 5827 76.3348
35.242 5931 77.013
35.3587 6210 78.8036
35.4755 6147 78.4028
35.5921 6076 77.9487
35.7088 6076 77.9487
35.8254 5808 76.2102
35.9419 5749 75.8222
36.0584 5581 74.7061
36.1749 5576 74.6726
36.2913 5605 74.8665
36.4077 5387 73.3962
36.524 5273 72.6154
36.6403 5256 72.4983
36.7565 5237 72.3671
36.8727 5189 72.0347
36.9889 5261 72.5328
37.1049 5189 72.0347
37.221 0 1
37.3369 0 1
37.4529 0 1
37.5687 0 1
37.6845 0 1
37.8003 0 1
37.916 0 1
38.0316 0 1
38.1472 0 1
40.5851 0 1
40.7008 0 1
40.8164 0 1
40.9322 0 1
41.048 0 1
41.1639 0 1
41.2798 0 1
41.3958 0 1
41.5118 0 1
41.6279 0 1
41.744 4380 66.1816
41.8602 4595 67.7864
41.9765 4593 67.7717
42.0928 4610 67.897
42.2091 4671 68.3447
42.3255 4753 68.942
42.4419 4713 68.6513
42.5584 4625 68.0074
42.675 4569 67.5944
42.7915 4450 66.7083
42.9081 4356 66
43.0248 4245 65.1537
43.1415 3910 62.53
43.2582 3692 60.7618
43.375 3634 60.2827
43.4918 3696 60.7947
43.6087 3694 60.7783
43.7256 3371 58.0603
43.8425 3304 57.4804
43.9595 3199 56.5597
44.0765 3478 58.9746
44.1935 3612 60.0999
44.3106 3765 61.3596
44.4277 3567 59.7244
44.5448 3718 60.9754
44.6619 3525 59.3717
44.7791 3613 60.1082
44.8963 3466 58.8727
45.0136 3512 59.2621
45.1308 3447 58.7112
45.2481 3490 59.0762
45.3654 3521 59.338
45.4827 3608 60.0666
45.6001 3584 59.8665
45.7174 3559 59.6574
45.8348 3550 59.5819
45.9522 3487 59.0508
46.0697 3362 57.9828
46.1871 3299 57.4369
46.3046 3201 56.5774
46.422 3102 55.6956
46.5395 3171 56.3116
46.657 3118 55.8391
46.7745 2829 53.1883
46.892 2783 52.7541
47.0096 2915 53.9907
47.1271 2986 54.6443
47.2446 2874 53.6097
47.3622 2711 52.0673
47.4797 2599 50.9804
47.5973 2661 51.5849
47.7149 2813 53.0377
47.8324 2870 53.5724
47.95 2974 54.5344
48.0675 2792 52.8394
48.1851 2866 53.535
48.3027 2828 53.1789
48.4202 2704 52
48.5378 2790 52.8205
48.6554 2776 52.6878
48.7729 2883 53.6936
48.8904 2790 52.8205
49.008 2742 52.3641
49.1255 2714 52.0961
49.243 2759 52.5262
49.3605 2601 51
49.478 2674 51.7107
49.5955 2676 51.7301
49.713 2620 51.1859
49.8304 2547 50.4678
49.9479 2630 51.2835
50.0653 2580 50.7937
50.1827 2664 51.614
50.3001 2529 50.2892
50.4175 2374 48.7237
50.5348 2411 49.1019
50.6521 2572 50.7149
50.7694 2547 50.4678
50.8867 2499 49.99
51.004 2408 49.0714
51.1212 2715 52.1057
51.2384 2895 53.8052
51.3556 3023 54.9818
51.4727 3147 56.0981
51.5899 3170 56.3028
51.707 3328 57.6888
51.824 3278 57.2538
51.9411 3410 58.3952
52.0581 3535 59.4559
52.175 3517 59.3043
52.2919 3644 60.3656
52.4088 3569 59.7411
52.5257 3688 60.7289
52.6425 3826 61.8547
52.7593 3792 61.5792
52.876 3907 62.506
52.9927 3862 62.145
53.1094 3934 62.7216
53.226 3942 62.7853
53.3426 4085 63.914
53.4591 4136 64.3117
53.5756 4340 65.8787
53.692 4257 65.2457
53.8084 4252 65.2074
53.9248 4065 63.7574
54.0411 3850 62.0484
54.1573 3874 62.2415
54.2735 0 1
54.3896 0 1
54.5057 0 1
54.6217 0 1
54.7377 0 1
54.8537 0 1
54.9695 0 1
55.0853 0 1
55.2011 0 1
55.3168 0 1
55.4324 0 1
57.824 0 1
57.9396 0 1
58.0553 0 1
58.1711 0 1
58.2869 0 1
58.4028 0 1
58.5187 0 1
58.6347 0 1
58.7508 0 1
58.8669 0 1
58.983 4621 67.9779
59.0992 4753 68.942
59.2155 4450 66.7083
59.3318 4347 65.9318
59.4482 4323 65.7495
59.5646 4261 65.2763
59.681 4212 64.8999
59.7975 4375 66.1438
59.9141 4420 66.4831
60.0306 4733 68.7968
60.1473 4742 68.8622
60.2639 4823 69.4478
60.3807 4697 68.5347
60.4974 4771 69.0724
60.6142 4753 68.942
60.731 4769 69.0579
60.8479 4747 68.8985
60.9648 4614 67.9264
61.0818 4647 68.1689
61.1987 4644 68.1469
61.3158 4689 68.4763
61.4328 4650 68.1909
61.5499 4653 68.2129
61.667 4486 66.9776
61.7841 4539 67.3721
61.9013 4520 67.2309
62.0185 4498 67.0671
62.1357 4486 66.9776
62.253 4470 66.8581
62.3702 4481 66.9403
62.4875 4248 65.1767
62.6049 4129 64.2573
62.7222 3961 62.9365
62.8396 4006 63.293
62.9569 4099 64.0234
63.0743 3864 62.1611
63.1918 3823 61.8304
63.3092 3763 61.3433
63.4267 4040 63.561
63.5441 4187 64.707
63.6616 4276 65.3911
63.7791 4259 65.261
63.8966 4182 64.6684
64.0142 4297 65.5515
64.1317 4342 65.8939
64.2492 4315 65.6887
64.3668 4136 64.3117
64.4843 4155 64.4593
64.6019 4061 63.726
64.7195 4229 65.0308
64.837 4173 64.5988
64.9546 4128 64.2495
65.0722 4200 64.8074
65.1898 4120 64.1872
65.3074 4158 64.4826
65.4249 4157 64.4748
65.5425 4192 64.7457
65.6601 4063 63.7417
65.7777 4137 64.3195
65.8952 4087 63.9296
66.0128 4005 63.2851
66.1304 3870 62.2093
66.2479 3714 60.9426
66.3655 3697 60.803
66.483 3714 60.9426
66.6005 3675 60.6218
66.718 3593 59.9416
66.8355 3500 59.1608
66.953 3647 60.3904
67.0705 3787 61.5386
67.1879 3932 62.7057
67.3054 4036 63.5295
67.4228 4101 64.0391
67.5402 4096 64
67.6576 4104 64.0625
67.7749 4206 64.8537
67.8923 4224 64.9923
68.0096 4278 65.4064
68.1269 4154 64.4515
68.2442 4079 63.867
68.3614 4210 64.8845
68.4787 4228 65.0231
68.5958 4192 64.7457
68.713 4191 64.7379
68.8302 4389 66.2495
68.9473 4247 65.169
69.0643 4450 66.7083
69.1814 4291 65.5057
69.2984 4384 66.2118
69.4154 4379 66.174
69.5323 4425 66.5207
69.6492 4338 65.8635
69.7661 4267 65.3223
69.8829 4110 64.1093
69.9997 3996 63.2139
70.1165 4072 63.8122
70.2332 4063 63.7417
70.3499 4221 64.9692
70.4665 3769 61.3922
70.5831 4007 63.3009
70.6996 4083 63.8984
70.8161 4320 65.7267
70.9326 4550 67.4537
71.049 4545 67.4166
71.1653 4585 67.7126
71.2817 4631 68.0515
71.3979 4525 67.2681
71.5141 4555 67.4907
71.6303 4562 67.5426
71.7464 4084 63.9062
71.8624 0 1
71.9784 0 1
72.0944 0 1
72.2102 0 1
72.3261 0 1
72.4418 0 1
72.5575 0 1
72.6732 0 1
75.1054 0 1
75.2209 0 1
75.3365 0 1
75.4521 0 1
75.5678 0 1
75.6835 0 1
75.7993 0 1
75.9151 0 1
76.031 0 1
76.147 4143 64.3661
76.263 4639 68.1102
76.3791 4787 69.1881
76.4952 4943 70.3065
76.6113 4898 69.9857
76.7276 4845 69.606
76.8438 4857 69.6922
76.9601 4879 69.8498
77.0765 4859 69.7065
77.1929 4795 69.2459
77.3093 4870 69.7854
77.4258 4741 68.8549
77.5423 4693 68.5055
77.6589 4986 70.6116
77.7755 4813 69.3758
77.8921 4873 69.8069
78.0088 4781 69.1448
78.1256 4607 67.8749
78.2423 4799 69.2748
78.3591 4719 68.695
78.4759 4576 67.6461
78.5928 4752 68.9348
78.7097 4673 68.3593
78.8266 4245 65.1537
78.9436 4074 63.8279
79.0606 3797 61.6198
79.1776 3924 62.6418
79.2946 3994 63.1981
79.4117 4019 63.3956
79.5288 4028 63.4665
79.6459 3861 62.1369
79.7631 3985 63.1269
79.8802 4326 65.7723
79.9974 4419 66.4756
80.1147 4358 66.0151
80.2319 4405 66.3702
80.3491 4400 66.3325
80.4664 4354 65.9848
80.5837 4291 65.5057
80.701 4395 66.2948
80.8183 4278 65.4064
80.9357 4281 65.4294
81.053 4279 65.4141
81.1704 4320 65.7267
81.2877 4206 64.8537
81.4051 4254 65.2227
81.5225 4188 64.7148
81.6399 4176 64.622
81.7573 4150 64.4205
81.8747 4276 65.3911
81.9922 4086 63.9218
82.1096 4161 64.5058
82.227 4143 64.3661
82.3444 4018 63.3877
82.4619 4040 63.561
82.5793 3828 61.8708
82.6967 3325 57.6628
82.8142 3682 60.6795
82.9316 3597 59.975
83.049 3482 59.0085
83.1664 3343 57.8187
83.2838 3168 56.285
83.4012 3194 56.5155
83.5186 3624 60.1997
83.636 3755 61.2781
83.7534 3821 61.8142
83.8708 3789 61.5549
83.9881 3922 62.6259
84.1055 3798 61.6279
84.2228 3918 62.5939
84.3401 3895 62.4099
84.4575 3873 62.2334
84.5747 3842 61.9839
84.692 3847 62.0242
84.8093 3994 63.1981
84.9265 3966 62.9762
85.0437 4039 63.5531
85.1609 4102 64.0469
85.2781 4077 63.8514
85.3952 4132 64.2806
85.5123 4065 63.7574
85.6294 4127 64.2417
85.7465 4098 64.0156
85.8636 4155 64.4593
85.9806 4108 64.0937
86.0976 4126 64.2339
86.2145 3773 61.4248
86.3315 3928 62.6738
86.4484 3786 61.5305
86.5652 4199 64.7997
86.682 4003 63.2693
86.7988 3853 62.0725
86.9156 4027 63.4586
87.0323 4400 66.3325
87.149 4903 70.0214
87.2657 5101 71.4213
87.3823 5385 73.3826
87.4988 5794 76.1183
87.6154 6251 79.0633
87.7318 6418 80.1124
87.8483 6510 80.6846
87.9647 6665 81.6395
88.081 6445 80.2808
88.1973 6662 81.6211
88.3136 6581 81.1234
88.4298 6616 81.3388
88.546 6575 81.0864
88.6621 6412 80.075
88.7781 6555 80.963
88.8942 0 1
89.0101 0 1
89.126 0 1
89.2419 0 1
89.3577 0 1
89.4734 0 1
89.5891 0 1
89.7047 0 1
89.8203 0 1
89.9358 0 1
92.3269 0 1
92.4424 0 1
92.558 0 1
92.6736 0 1
92.7893 0 1
92.905 0 1
93.0208 0 1
93.1366 0 1
93.2525 0 1
93.3685 0 1
93.4845 0 1
93.6005 6264 79.1454
93.7167 6319 79.4921
93.8328 6346 79.6618
93.949 6317 79.4796
94.0653 6272 79.196
94.1816 6337 79.6053
94.2979 6249 79.0506
94.4143 6188 78.6638
94.5307 6209 78.7972
94.6472 6085 78.0064
94.7637 5997 77.4403
94.8803 5718 75.6175
94.9969 5397 73.4643
95.1135 5064 71.1618
95.2302 4727 68.7532
95.3469 4626 68.0147
95.4637 4439 66.6258
95.5805 4455 66.7458
95.6973 4468 66.8431
95.8142 4515 67.1937
95.9311 4450 66.7083
96.048 4294 65.5286
96.1649 4553 67.4759
96.2819 4950 70.3562
96.3989 5474 73.9865
96.516 5814 76.2496
96.633 6461 80.3803
96.7501 6942 83.3187
96.8673 7157 84.5991
96.9844 7272 85.276
97.1016 7308 85.4868
97.2188 7153 84.5754
97.336 7186 84.7703
97.4532 6943 83.3247
97.5704 7120 84.3801
97.6877 7048 83.9524
97.805 6919 83.1805
97.9223 6996 83.6421
98.0396 7080 84.1427
98.1569 6933 83.2646
98.2743 6689 81.7863
98.3916 6294 79.3347
98.509 6239 78.9873
98.6264 5902 76.8245
98.7438 5440 73.7564
98.8612 5047 71.0422
98.9786 4748 68.9057
99.096 4594 67.7791
99.2134 4648 68.1762
99.3308 4788 69.1954
99.4482 4729 68.7677
99.5656 4813 69.3758
99.6831 4744 68.8767
99.8005 4622 67.9853
99.9179 5169 71.8958
100.035 5324 72.9657
100.153 5564 74.5922
100.27 5826 76.3282
100.388 6169 78.543
100.505 6402 80.0125
100.622 6427 80.1686
100.74 6357 79.7308
100.857 6359 79.7433
100.975 6290 79.3095
101.092 6348 79.6743
101.209 6263 79.1391
101.327 6448 80.2994
101.444 6343 79.643
101.561 6359 79.7433
101.679 6263 79.1391
101.796 6334 79.5864
101.913 6125 78.2624
102.03 6048 77.7689
102.148 5687 75.4122
102.265 5459 73.885
102.382 5539 74.4245
102.499 5194 72.0694
102.616 4972 70.5124
102.733 4724 68.7314
102.851 4929 70.2068
102.968 5134 71.6519
103.085 5052 71.0774
103.202 5124 71.5821
103.319 5214 72.208
103.436 5670 75.2994
103.552 6033 77.6724
103.669 6290 79.3095
103.786 6571 81.0617
103.903 7049 83.9583
104.02 7371 85.8545
104.137 7571 87.0115
104.253 7497 86.5852
104.37 7624 87.3155
104.487 7172 84.6877
104.603 7198 84.841
104.72 7492 86.5563
104.836 8254 90.8515
104.953 8802 93.819
105.069 9468 97.3036
105.186 10340 101.686
105.302 11297 106.287
105.418 12328 111.032
105.535 13324 115.43
105.651 14054 118.55
105.767 14540 120.582
105.883 14909 122.102
105.999 14825 121.758
106.115 0 1
106.231 0 1
106.347 0 1
106.463 0 1
106.579 0 1
106.694 0 1
106.81 0 1
106.926 0 1
107.041 0 1
107.157 0 1
109.576 0 1
109.692 0 1
109.807 0 1
109.923 0 1
110.039 0 1
110.155 0 1
110.27 0 1
110.386 0 1
110.502 0 1
110.618 17106 130.79
110.735 17730 133.154
110.851 18014 134.216
110.967 17385 131.852
111.083 17050 130.576
111.199 16748 129.414
111.316 16667 129.101
111.432 16809 129.65
111.549 16867 129.873
111.665 17121 130.847
111.782 17014 130.438
111.898 17173 131.046
112.015 17543 132.45
112.132 17092 130.736
112.248 15974 126.388
112.365 14862 121.91
112.482 13333 115.469
112.599 13446 115.957
112.716 12593 112.219
112.832 11738 108.342
112.949 10878 104.298
113.066 9581 97.8826
113.183 9407 96.9897
113.3 10692 103.402
113.417 12763 112.973
113.534 14673 121.132
113.652 15730 125.419
113.769 16367 127.934
113.886 17059 130.61
114.003 17541 132.442
114.12 17801 133.42
114.238 18165 134.778
114.355 18341 135.429
114.472 17943 133.951
114.589 17966 134.037
114.707 17184 131.088
114.824 16614 128.895
114.942 17038 130.53
115.059 17122 130.851
115.176 17425 132.004
115.294 17559 132.51
115.411 17670 132.929
115.529 18029 134.272
115.646 18255 135.111
115.764 17821 133.495
115.881 16487 128.402
115.999 15319 123.77
116.116 14575 120.727
116.234 13838 117.635
116.351 12997 114.004
116.469 11660 107.981
116.586 10531 102.621
116.704 9899 99.4937
116.821 10331 101.642
116.939 12282 110.824
117.056 14147 118.941
117.174 15916 126.159
117.291 16817 129.68
117.409 17765 133.285
117.526 18229 135.015
117.644 18875 137.386
117.761 19065 138.076
117.879 19609 140.032
117.996 19555 139.839
118.114 19539 139.782
118.231 19885 141.014
118.349 18900 137.477
118.466 18509 136.048
118.584 18313 135.326
118.701 18410 135.683
118.819 18422 135.728
118.936 18210 134.944
119.053 18052 134.358
119.171 18396 135.632
119.288 18406 135.669
119.405 18294 135.255
119.523 17547 132.465
119.64 16164 127.138
119.757 15160 123.126
119.875 14294 119.558
119.992 13477 116.09
120.109 12416 111.427
120.226 11509 107.28
120.343 10846 104.144
120.46 10855 104.187
120.578 12646 112.454
120.695 14717 121.314
120.812 16273 127.566
120.929 17195 131.13
121.046 17907 133.817
121.163 18055 134.369
121.279 18864 137.346
121.396 19145 138.365
121.513 19542 139.793
121.63 19723 140.439
121.747 19157 138.409
121.863 19394 139.262
121.98 19182 138.499
122.097 18789 137.073
122.213 18292 135.248
122.33 18221 134.985
122.446 18020 134.239
122.563 18040 134.313
122.679 17550 132.476
122.795 17699 133.038
122.912 17678 132.959
123.028 17930 133.903
123.144 17817 133.48
123.26 16937 130.142
123.377 0 1
123.493 0 1
123.609 0 1
123.725 0 1
123.84 0 1
123.956 0 1
124.072 0 1
124.188 0 1
124.303 0 1
124.419 0 1
126.852 0 1
126.968 0 1
127.083 0 1
127.199 0 1
127.315 0 1
127.431 0 1
127.547 0 1
127.663 0 1
127.779 0 1
127.895 0 1
128.011 0 1
128.127 0 1
128.243 0 1
128.359 9981 99.905
128.476 9459 97.2574
128.592 8922 94.4563
128.708 8339 91.3181
128.825 8097 89.9833
128.941 7815 88.4025
129.058 7890 88.8257
129.174 7770 88.1476
129.291 7404 86.0465
129.408 7333 85.6329
129.524 7061 84.0298
129.641 6623 81.3818
129.758 6293 79.3284
129.875 6431 80.1935
129.992 6194 78.702
130.108 6199 78.7337
130.225 6079 77.9679
130.342 6294 79.3347
130.459 5830 76.3544
130.576 6254 79.0822
130.693 6080 77.9744
130.81 6008 77.5113
130.928 5848 76.4722
131.045 5497 74.1418
131.162 5438 73.7428
131.279 5575 74.6659
131.396 5621 74.9733
131.513 5501 74.1687
131.631 5368 73.2666
131.748 5536 74.4043
131.865 5904 76.8375
131.983 6089 78.032
132.1 6096 78.0769
132.217 6231 78.9367
132.335 6185 78.6448
132.452 6305 79.404
132.57 5949 77.1298
132.687 6010 77.5242
132.804 6078 77.9615
132.922 6043 77.7367
133.039 6097 78.0833
133.157 6108 78.1537
133.274 6115 78.1985
133.392 6093 78.0577
133.509 5902 76.8245
133.627 5898 76.7984
133.744 6070 77.9102
133.862 6007 77.5048
133.979 6011 77.5306
134.097 5924 76.9675
134.214 5839 76.4133
134.332 6049 77.7753
134.449 5764 75.921
134.567 5431 73.6953
134.684 5371 73.2871
134.802 5632 75.0467
134.919 5612 74.9133
135.037 5486 74.0675
135.154 5314 72.8972
135.272 5363 73.2325
135.389 5789 76.0855
135.507 6040 77.7174
135.624 6174 78.5748
135.742 6339 79.6178
135.859 6301 79.3788
135.977 6245 79.0253
136.094 6237 78.9747
136.211 6509 80.6784
136.329 6381 79.8812
136.446 6372 79.8248
136.564 6539 80.8641
136.681 6191 78.6829
136.798 6108 78.1537
136.915 6030 77.6531
137.033 5765 75.9276
137.15 5798 76.1446
137.267 5885 76.7138
137.384 5861 76.5572
137.502 5936 77.0454
137.619 5911 76.883
137.736 5876 76.6551
137.853 5852 76.4984
137.97 5944 77.0973
138.087 5834 76.3806
138.204 5523 74.3169
138.321 5453 73.8444
138.438 5595 74.7997
138.555 5854 76.5114
138.672 5824 76.3151
138.788 5619 74.96
138.905 5859 76.5441
139.022 6025 77.6209
139.139 6283 79.2654
139.255 6412 80.075
139.372 6440 80.2496
139.488 6360 79.7496
139.605 6437 80.2309
139.721 6118 78.2176
139.838 6139 78.3518
139.954 6081 77.9808
140.071 6037 77.6981
140.187 6049 77.7753
140.303 5905 76.844
140.419 6009 77.5177
140.535 6023 77.608
140.652 6149 78.4156
140.768 0 1
140.884 0 1
141 0 1
141.115 0 1
141.231 0 1
141.347 0 1
141.463 0 1
141.578 0 1
141.694 0 1
144.104 0 1
144.219 0 1
144.335 0 1
144.45 0 1
144.566 0 1
144.682 0 1
144.798 0 1
144.914 0 1
145.03 0 1
145.146 3950 62.849
145.262 4330 65.8027
145.378 4362 66.0454
145.494 4495 67.0448
145.61 4532 67.3201
145.726 4591 67.7569
145.842 4790 69.2098
145.959 4784 69.1665
146.075 4889 69.9214
146.192 5024 70.8802
146.308 5138 71.6798
146.425 5329 73
146.541 5474 73.9865
146.658 5751 75.8353
146.774 5854 76.5114
146.891 5690 75.4321
147.008 5636 75.0733
147.125 5324 72.9657
147.241 5526 74.3371
147.358 5630 75.0333
147.475 5266 72.5672
147.592 5254 72.4845
147.709 4927 70.1926
147.826 4999 70.7036
147.943 5129 71.617
148.06 5114 71.5122
148.177 5125 71.5891
148.294 4996 70.6824
148.411 4870 69.7854
148.528 4947 70.3349
148.645 4817 69.4046
148.762 4867 69.7639
148.88 4835 69.5342
148.997 4836 69.5414
149.114 5020 70.852
149.231 5050 71.0634
149.349 5167 71.8818
149.466 5298 72.7874
149.583 5448 73.8106
149.701 5444 73.7835
149.818 5593 74.7864
149.935 5661 75.2396
150.053 5804 76.184
150.17 6004 77.4855
150.287 6101 78.1089
150.405 6044 77.7432
150.522 6227 78.9113
150.64 6065 77.8781
150.757 5845 76.4526
150.875 5557 74.5453
150.992 5281 72.6705
151.11 5282 72.6774
151.227 5182 71.9861
151.344 4940 70.2851
151.462 4691 68.4909
151.579 4817 69.4046
151.697 5014 70.8096
151.814 5271 72.6017
151.932 5105 71.4493
152.049 5415 73.5867
152.167 5251 72.4638
152.284 5251 72.4638
152.402 5483 74.0473
152.519 5642 75.1132
152.636 5731 75.7034
152.754 5818 76.2758
152.871 5972 77.2787
152.989 6171 78.5557
153.106 6201 78.7464
153.223 6293 79.3284
153.341 6258 79.1075
153.458 6391 79.9437
153.575 6543 80.8888
153.693 6402 80.0125
153.81 6432 80.1998
153.927 6553 80.9506
154.044 6389 79.9312
154.162 6336 79.599
154.279 5980 77.3305
154.396 5541 74.4379
154.513 5366 73.253
154.63 5389 73.4098
154.747 5335 73.0411
154.864 5263 72.5465
154.981 5272 72.6085
155.098 5308 72.856
155.215 5429 73.6817
155.332 5708 75.5513
155.449 5911 76.883
155.566 6085 78.0064
155.683 6321 79.5047
155.8 6393 79.9562
155.917 6539 80.8641
156.033 6758 82.2071
156.15 0 1
156.267 0 1
156.383 0 1
156.5 0 1
156.617 0 1
156.733 0 1
156.85 0 1
156.966 0 1
157.082 0 1
157.199 0 1
157.315 0 1
157.431 0 1
157.547 0 1
157.664 0 1
157.78 0 1
157.896 0 1
158.012 0 1
158.128 0 1
158.244 0 1
158.359 0 1
158.475 0 1
158.591 0 1
158.706 0 1
