
6.15755 0 1
6.2731 0 1
6.3887 0 1
6.50437 0 1
6.62009 0 1
6.73587 0 1
6.8517 0 1
6.96759 0 1
7.08353 0 1
7.19952 0 1
7.31557 0 1
7.43166 0 1
7.54781 0 1
7.664 0 1
7.78024 0 1
7.89653 0 1
8.01286 0 1
8.12924 0 1
8.24567 0 1
8.36213 0 1
8.47864 0 1
8.59519 0 1
8.71178 0 1
8.82841 0 1
8.94508 0 1
9.06179 0 1
9.17853 0 1
9.29531 0 1
9.41212 0 1
9.52897 0 1
9.64584 0 1
9.76276 0 1
9.8797 0 1
9.99667 0 1
10.1137 0 1
10.2307 0 1
10.3478 0 1
10.4648 0 1
10.5819 0 1
10.6991 0 1
10.8162 0 1
10.9334 0 1
11.0506 0 1
11.1678 0 1
11.285 0 1
11.4023 0 1
11.5196 0 1
11.6369 0 1
11.7542 0 1
11.8715 0 1
11.9888 0 1
12.1062 0 1
12.2235 0 1
12.3409 0 1
12.4582 0 1
12.5756 0 1
12.693 0 1
12.8104 0 1
12.9278 0 1
13.0452 0 1
13.1626 0 1
13.28 0 1
13.3974 0 1
13.5149 0 1
13.6323 0 1
13.7497 0 1
13.8671 0 1
13.9845 0 1
14.1019 0 1
14.2193 0 1
14.3367 0 1
14.4541 0 1
14.5714 0 1
14.6888 0 1
14.8062 0 1
14.9235 0 1
15.0408 0 0
15.1581 0 0
15.2755 0 0
15.3927 0 0
15.51 0 0
15.6273 0 0
15.7445 0 0
15.8617 0 0
15.9789 0 0
16.0961 0 0
16.2132 0 0
16.3304 0 0
16.4475 0 0
16.5646 0 0
16.6816 0 0
16.7986 0 0
16.9156 0 0
17.0326 0 0
17.1496 0 0
17.2665 0 0
17.3833 0 0
17.5002 0 0
17.617 0 0
17.7338 0 0
17.8505 0 0
17.9672 0 0
18.0839 0 0
18.2005 0 0
18.3171 0 0
18.4337 0 0
18.5502 0 0
18.6666 0 0
18.7831 0 0
18.8994 0 0
19.0158 0 0
19.1321 0 0
19.2483 0 0
19.3645 0 0
19.4806 0 0
19.5967 0 0
19.7128 0 0
19.8288 0 0
19.9447 0 0
20.0606 0 1
20.1764 0 1
20.2922 0 1
20.4079 0 1
20.5236 0 1
20.6392 0 1
20.7548 0 1
20.8702 0 1
23.3078 0 1
23.4233 0 1
23.539 0 1
23.6547 0 1
23.7704 0 1
23.8862 0 1
24.0021 0 1
24.118 0 1
24.234 0 1
24.35 0 1
24.4661 2967 54.4702
24.5822 3123 55.8838
24.6984 3162 56.2317
24.8146 3415 58.438
24.9309 3808 61.709
25.0472 4511 67.164
25.1636 5316 72.9109
25.28 6097 78.0833
25.3965 6849 82.7587
25.513 7461 86.3771
25.6296 8009 89.493
25.7462 8780 93.7017
25.8628 9086 95.3205
25.9795 9152 95.6661
26.0962 9125 95.5249
26.213 9109 95.4411
26.3298 9099 95.3887
26.4466 8848 94.0638
26.5635 8729 93.4291
26.6804 8795 93.7817
26.7973 8680 93.1665
26.9143 8520 92.3038
27.0313 8446 91.9021
27.1483 8632 92.9086
27.2653 8708 93.3167
27.3824 8734 93.4559
27.4996 8702 93.2845
27.6167 8602 92.747
27.7339 8509 92.2442
27.8511 7913 88.955
27.9683 7701 87.7553
28.0855 7425 86.1684
28.2028 6602 81.2527
28.3201 5694 75.4586
28.4374 5539 74.4245
28.5547 6011 77.5306
28.6721 6696 81.8291
28.7894 7765 88.1192
28.9068 8458 91.9674
29.0242 8565 92.5473
29.1416 8514 92.2713
29.259 8649 93
29.3764 8550 92.4662
29.4939 8534 92.3797
29.6113 8600 92.7362
29.7288 8611 92.7955
29.8463 8535 92.3851
29.9638 8648 92.9946
30.0812 8547 92.45
30.1987 8470 92.0326
30.3162 8438 91.8586
30.4337 8424 91.7824
30.5512 8375 91.515
30.6687 8335 91.2962
30.7862 8354 91.4002
30.9037 8286 91.0275
31.0212 8393 91.6133
31.1387 8550 92.4662
31.2562 8204 90.5759
31.3737 7946 89.1403
31.4912 7758 88.0795
31.6087 7450 86.3134
31.7262 6531 80.8146
31.8436 5678 75.3525
31.9611 5628 75.02
32.0785 5971 77.2722
32.1959 6816 82.5591
32.3134 7903 88.8988
32.4308 8149 90.2718
32.5482 8287 91.033
32.6655 8431 91.8205
32.7829 8412 91.717
32.9002 8308 91.1482
33.0176 8525 92.3309
33.1349 8412 91.717
33.2522 8347 91.3619
33.3694 8430 91.815
33.4867 8473 92.0489
33.6039 8406 91.6842
33.7211 8556 92.4986
33.8383 8350 91.3783
33.9554 8347 91.3619
34.0725 8152 90.2884
34.1896 8274 90.9615
34.3067 8331 91.2743
34.4237 8286 91.0275
34.5407 8368 91.4768
34.6577 8444 91.8912
34.7746 8244 90.7965
34.8915 8050 89.7218
35.0084 7923 89.0112
35.1252 7696 87.7268
35.242 7520 86.7179
35.3587 6972 83.4985
35.4755 6175 78.5812
35.5921 5476 74
35.7088 5514 74.2563
35.8254 6072 77.923
35.9419 6721 81.9817
36.0584 7513 86.6776
36.1749 8055 89.7497
36.2913 8380 91.5423
36.4077 8015 89.5265
36.524 7961 89.2244
36.6403 7772 88.1589
36.7565 7499 86.5968
36.8727 7177 84.7172
36.9889 6858 82.813
37.1049 6595 81.2096
37.221 0 1
37.3369 0 1
37.4529 0 1
37.5687 0 1
37.6845 0 1
37.8003 0 1
37.916 0 1
38.0316 0 1
38.1472 0 1
40.5851 0 1
40.7008 0 1
40.8164 0 1
40.9322 0 1
41.048 0 1
41.1639 0 1
41.2798 0 1
41.3958 0 1
41.5118 0 1
41.6279 0 1
41.744 3373 58.0775
41.8602 3765 61.3596
41.9765 4195 64.7688
42.0928 4614 67.9264
42.2091 4965 70.4628
42.3255 5200 72.111
42.4419 5493 74.1148
42.5584 5723 75.6505
42.675 6129 78.2879
42.7915 6456 80.3492
42.9081 6787 82.3833
43.0248 6814 82.547
43.1415 6840 82.7043
43.2582 6834 82.668
43.375 7030 83.8451
43.4918 7037 83.8868
43.6087 7269 85.2584
43.7256 6991 83.6122
43.8425 6855 82.7949
43.9595 6942 83.3187
44.0765 6665 81.6395
44.1935 6397 79.9812
44.3106 5635 75.0666
44.4277 5170 71.9027
44.5448 5098 71.4003
44.6619 5309 72.8629
44.7791 5997 77.4403
44.8963 6800 82.4621
45.0136 7104 84.2852
45.1308 7073 84.1011
45.2481 7253 85.1645
45.3654 7215 84.9412
45.4827 6913 83.1445
45.6001 7060 84.0238
45.7174 6928 83.2346
45.8348 7046 83.9405
45.9522 7129 84.4334
46.0697 6984 83.5703
46.1871 7043 83.9226
46.3046 6833 82.662
46.422 6792 82.4136
46.5395 6873 82.9036
46.657 7083 84.1606
46.7745 7093 84.22
46.892 7209 84.9058
47.0096 7304 85.4634
47.1271 7295 85.4108
47.2446 7442 86.267
47.3622 7417 86.122
47.4797 7354 85.7555
47.5973 7067 84.0655
47.7149 6840 82.7043
47.8324 6300 79.3725
47.95 5583 74.7195
48.0675 5221 72.2565
48.1851 5256 72.4983
48.3027 5845 76.4526
48.4202 6365 79.781
48.5378 7044 83.9285
48.6554 7172 84.6877
48.7729 7105 84.2912
48.8904 7226 85.0059
49.008 7328 85.6037
49.1255 7333 85.6329
49.243 7050 83.9643
49.3605 7175 84.7054
49.478 6930 83.2466
49.5955 6920 83.1865
49.713 7080 84.1427
49.8304 6857 82.807
49.9479 6792 82.4136
50.0653 6798 82.45
50.1827 6913 83.1445
50.3001 7142 84.5104
50.4175 7269 85.2584
50.5348 7276 85.2995
50.6521 7452 86.325
50.7694 7525 86.7468
50.8867 7216 84.947
51.004 7379 85.9011
51.1212 7185 84.7644
51.2384 6878 82.9337
51.3556 6443 80.2683
51.4727 5733 75.7166
51.5899 5293 72.753
51.707 5583 74.7195
51.824 6029 77.6466
51.9411 6578 81.1049
52.0581 7165 84.6463
52.175 7227 85.0118
52.2919 7394 85.9884
52.4088 7287 85.3639
52.5257 7185 84.7644
52.6425 7338 85.6621
52.7593 7216 84.947
52.876 7212 84.9235
52.9927 7044 83.9285
53.1094 7133 84.4571
53.226 7032 83.857
53.3426 6816 82.5591
53.4591 6714 81.939
53.5756 6679 81.7251
53.692 6467 80.4177
53.8084 6375 79.8436
53.9248 6223 78.886
54.0411 6062 77.8588
54.1573 5756 75.8683
54.2735 0 1
54.3896 0 1
54.5057 0 1
54.6217 0 1
54.7377 0 1
54.8537 0 1
54.9695 0 1
55.0853 0 1
55.2011 0 1
55.3168 0 1
55.4324 0 1
57.824 0 1
57.9396 0 1
58.0553 0 1
58.1711 0 1
58.2869 0 1
58.4028 0 1
58.5187 0 1
58.6347 0 1
58.7508 0 1
58.8669 0 1
58.983 4325 65.7647
59.0992 5008 70.7672
59.2155 5766 75.9342
59.3318 6455 80.343
59.4482 7134 84.463
59.5646 7629 87.3441
59.681 7868 88.7017
59.7975 7719 87.8578
59.9141 7839 88.5381
60.0306 7645 87.4357
60.1473 7475 86.4581
60.2639 7088 84.1903
60.3807 6773 82.2982
60.4974 7031 83.8511
60.6142 7382 85.9186
60.731 8019 89.5489
60.8479 8336 91.3017
60.9648 8600 92.7362
61.0818 8684 93.188
61.1987 8771 93.6536
61.3158 8664 93.0806
61.4328 8541 92.4175
61.5499 8551 92.4716
61.667 8609 92.7847
61.7841 8386 91.5751
61.9013 8272 90.9505
62.0185 7923 89.0112
62.1357 7878 88.7581
62.253 8196 90.5318
62.3702 8450 91.9239
62.4875 8568 92.5635
62.6049 8733 93.4505
62.7222 9059 95.1788
62.8396 9173 95.7758
62.9569 9284 96.3535
63.0743 9324 96.5609
63.1918 9074 95.2575
63.3092 8888 94.2762
63.4267 8685 93.1933
63.5441 8324 91.236
63.6616 7847 88.5833
63.7791 7224 84.9941
63.8966 7144 84.5222
64.0142 6987 83.5883
64.1317 7257 85.188
64.2492 7899 88.8763
64.3668 8270 90.9395
64.4843 8321 91.2195
64.6019 8503 92.2117
64.7195 8514 92.2713
64.837 8341 91.3291
64.9546 8549 92.4608
65.0722 8178 90.4323
65.1898 8268 90.9285
65.3074 8009 89.493
65.4249 8079 89.8833
65.5425 7749 88.0284
65.6601 7733 87.9375
65.7777 7679 87.6299
65.8952 8011 89.5042
66.0128 8337 91.3072
66.1304 8396 91.6297
66.2479 8706 93.3059
66.3655 8917 94.4299
66.483 9233 96.0885
66.6005 9058 95.1735
66.718 8980 94.7629
66.8355 8941 94.5569
66.953 8651 93.0108
67.0705 8458 91.9674
67.1879 7788 88.2496
67.3054 7665 87.55
67.4228 6995 83.6361
67.5402 6610 81.3019
67.6576 6665 81.6395
67.7749 6976 83.5225
67.8923 7211 84.9176
68.0096 7789 88.2553
68.1269 8079 89.8833
68.2442 8135 90.1942
68.3614 8263 90.901
68.4787 8022 89.5656
68.5958 8066 89.8109
68.713 8076 89.8666
68.8302 8007 89.4818
68.9473 7769 88.1419
69.0643 7598 87.1665
69.1814 7377 85.8895
69.2984 7197 84.8351
69.4154 7212 84.9235
69.5323 7411 86.0872
69.6492 7619 87.2869
69.7661 7870 88.713
69.8829 8218 90.6532
69.9997 8276 90.9725
70.1165 8373 91.5041
70.2332 8177 90.4268
70.3499 7865 88.6848
70.4665 7556 86.9253
70.5831 7145 84.5281
70.6996 6653 81.5659
70.8161 6316 79.4733
70.9326 5483 74.0473
71.049 4944 70.3136
71.1653 4243 65.1383
71.2817 3662 60.5145
71.3979 3368 58.0345
71.5141 3270 57.1839
71.6303 3039 55.1271
71.7464 2806 52.9717
71.8624 0 1
71.9784 0 1
72.0944 0 1
72.2102 0 1
72.3261 0 1
72.4418 0 1
72.5575 0 1
72.6732 0 1
75.1054 0 1
75.2209 0 1
75.3365 0 1
75.4521 0 1
75.5678 0 1
75.6835 0 1
75.7993 0 1
75.9151 0 1
76.031 0 1
76.147 4400 66.3325
76.263 4826 69.4694
76.3791 4927 70.1926
76.4952 4833 69.5198
76.6113 5065 71.1688
76.7276 5350 73.1437
76.8438 5405 73.5187
76.9601 5920 76.9415
77.0765 6396 79.975
77.1929 6742 82.1097
77.3093 6918 83.1745
77.4258 7012 83.7377
77.5423 6948 83.3547
77.6589 6969 83.4805
77.7755 6897 83.0482
77.8921 6601 81.2465
78.0088 6480 80.4984
78.1256 6178 78.6003
78.2423 6179 78.6066
78.3591 6212 78.8162
78.4759 6068 77.8974
78.5928 6571 81.0617
78.7097 6700 81.8535
78.8266 7286 85.3581
78.9436 7360 85.7904
79.0606 7504 86.6256
79.1776 7747 88.017
79.2946 7791 88.2666
79.4117 7763 88.1079
79.5288 7572 87.0172
79.6459 7348 85.7205
79.7631 7112 84.3327
79.8802 6618 81.3511
79.9974 6503 80.6412
80.1147 6016 77.5629
80.2319 5901 76.818
80.3491 5942 77.0844
80.4664 5885 76.7138
80.5837 6078 77.9615
80.701 6630 81.4248
80.8183 6687 81.7741
80.9357 7207 84.8941
81.053 7192 84.8057
81.1704 7152 84.5695
81.2877 7228 85.0176
81.4051 7030 83.8451
81.5225 7064 84.0476
81.6399 6881 82.9518
81.7573 6434 80.2122
81.8747 6405 80.0312
81.9922 5983 77.3499
82.1096 6326 79.5362
82.227 6226 78.905
82.3444 6824 82.6075
82.4619 7351 85.738
82.5793 7544 86.8562
82.6967 7786 88.2383
82.8142 7737 87.9602
82.9316 8091 89.95
83.049 7870 88.713
83.1664 7813 88.3912
83.2838 7652 87.4757
83.4012 7387 85.9477
83.5186 6637 81.4678
83.636 6471 80.4425
83.7534 6276 79.2212
83.8708 5977 77.3111
83.9881 5761 75.9013
84.1055 5894 76.7724
84.2228 6148 78.4092
84.3401 6335 79.5927
84.4575 6986 83.5823
84.5747 7226 85.0059
84.692 7492 86.5563
84.8093 7507 86.6429
84.9265 7278 85.3112
85.0437 7183 84.7526
85.1609 7044 83.9285
85.2781 6580 81.1172
85.3952 6514 80.7094
85.5123 6183 78.6321
85.6294 6010 77.5242
85.7465 6193 78.6956
85.8636 6579 81.111
85.9806 6895 83.0361
86.0976 7103 84.2793
86.2145 7593 87.1378
86.3315 7690 87.6926
86.4484 8007 89.4818
86.5652 7895 88.8538
86.682 7731 87.9261
86.7988 7578 87.0517
86.9156 7379 85.9011
87.0323 7118 84.3682
87.149 6871 82.8915
87.2657 6763 82.2375
87.3823 6224 78.8923
87.4988 5872 76.629
87.6154 5456 73.8647
87.7318 5427 73.6682
87.8483 5438 73.7428
87.9647 5512 74.2428
88.081 5725 75.6637
88.1973 5873 76.6355
88.3136 5668 75.2861
88.4298 5035 70.9577
88.546 4684 68.4398
88.6621 4173 64.5988
88.7781 3510 59.2453
88.8942 0 1
89.0101 0 1
89.126 0 1
89.2419 0 1
89.3577 0 1
89.4734 0 1
89.5891 0 1
89.7047 0 1
89.8203 0 1
89.9358 0 1
92.3269 0 1
92.4424 0 1
92.558 0 1
92.6736 0 1
92.7893 0 1
92.905 0 1
93.0208 0 1
93.1366 0 1
93.2525 0 1
93.3685 0 1
93.4845 0 1
93.6005 4859 69.7065
93.7167 5459 73.885
93.8328 5939 77.0649
93.949 6310 79.4355
94.0653 6476 80.4736
94.1816 6724 82
94.2979 6945 83.3367
94.4143 6924 83.2106
94.5307 6793 82.4197
94.6472 6365 79.781
94.7637 6306 79.4103
94.8803 6283 79.2654
94.9969 6628 81.4125
95.1135 6820 82.5833
95.2302 7452 86.325
95.3469 7738 87.9659
95.4637 8072 89.8443
95.5805 8188 90.4876
95.6973 8277 90.978
95.8142 8229 90.7138
95.9311 8149 90.2718
96.048 7835 88.5155
96.1649 7717 87.8465
96.2819 7325 85.5862
96.3989 7011 83.7317
96.516 6848 82.7526
96.633 6778 82.3286
96.7501 6265 79.1518
96.8673 6168 78.5366
96.9844 6229 78.924
97.1016 6465 80.4052
97.2188 6715 81.9451
97.336 7033 83.863
97.4532 7560 86.9483
97.5704 7740 87.9773
97.6877 7891 88.8313
97.805 7515 86.6891
97.9223 7232 85.0412
98.0396 7152 84.5695
98.1569 6824 82.6075
98.2743 6331 79.5676
98.3916 6167 78.5302
98.509 6078 77.9615
98.6264 6322 79.511
98.7438 6825 82.6136
98.8612 7344 85.6971
98.9786 7553 86.908
99.096 8065 89.8053
99.2134 8256 90.8625
99.3308 8472 92.0435
99.4482 8236 90.7524
99.5656 8217 90.6477
99.6831 8101 90.0056
99.8005 8094 89.9667
99.9179 7591 87.1263
100.035 7461 86.3771
100.153 7011 83.7317
100.27 6879 82.9397
100.388 6578 81.1049
100.505 6382 79.8874
100.622 6508 80.6722
100.74 6774 82.3043
100.857 7131 84.4452
100.975 7357 85.773
101.092 7704 87.7724
101.209 7745 88.0057
101.327 7686 87.6698
101.444 7621 87.2983
101.561 7406 86.0581
101.679 7255 85.1763
101.796 6663 81.6272
101.913 6209 78.7972
102.03 6101 78.1089
102.148 6282 79.2591
102.265 6755 82.1888
102.382 7486 86.5217
102.499 7904 88.9044
102.616 8263 90.901
102.733 8437 91.8531
102.851 8423 91.7769
102.968 8613 92.8062
103.085 8350 91.3783
103.202 8516 92.2822
103.319 8320 91.214
103.436 8008 89.4874
103.552 7655 87.4929
103.669 7416 86.1162
103.786 7169 84.6699
103.903 6598 81.2281
104.02 6583 81.1357
104.137 6800 82.4621
104.253 6942 83.3187
104.37 7175 84.7054
104.487 7463 86.3887
104.603 7834 88.5099
104.72 7741 87.983
104.836 7492 86.5563
104.953 7015 83.7556
105.069 6590 81.1788
105.186 6276 79.2212
105.302 5485 74.0608
105.418 5242 72.4017
105.535 4720 68.7023
105.651 4745 68.884
105.767 4577 67.6535
105.883 4553 67.4759
105.999 4483 66.9552
106.115 0 1
106.231 0 1
106.347 0 1
106.463 0 1
106.579 0 1
106.694 0 1
106.81 0 1
106.926 0 1
107.041 0 1
107.157 0 1
109.576 0 1
109.692 0 1
109.807 0 1
109.923 0 1
110.039 0 1
110.155 0 1
110.27 0 1
110.386 0 1
110.502 0 1
110.618 2791 52.8299
110.735 3440 58.6515
110.851 4159 64.4903
110.967 4767 69.0435
111.083 5282 72.6774
111.199 5761 75.9013
111.316 6119 78.224
111.432 6410 80.0625
111.549 6627 81.4064
111.665 7021 83.7914
111.782 7066 84.0595
111.898 6920 83.1865
112.015 6831 82.6499
112.132 6481 80.5047
112.248 6168 78.5366
112.365 5958 77.1881
112.482 5745 75.7958
112.599 5715 75.5976
112.716 5800 76.1577
112.832 5902 76.8245
112.949 6032 77.666
113.066 6305 79.404
113.183 6635 81.4555
113.3 6554 80.9568
113.417 6502 80.635
113.534 6519 80.7403
113.652 6597 81.2219
113.769 6283 79.2654
113.886 5853 76.5049
114.003 5377 73.328
114.12 5120 71.5542
114.238 5074 71.232
114.355 5685 75.3989
114.472 6351 79.6932
114.589 6669 81.6639
114.707 7014 83.7496
114.824 7090 84.2021
114.942 7454 86.3366
115.059 7237 85.0706
115.176 7504 86.6256
115.294 7513 86.6776
115.411 7384 85.9302
115.529 7136 84.4748
115.646 6567 81.037
115.764 6324 79.5236
115.881 6189 78.6702
115.999 5833 76.3741
116.116 5654 75.1931
116.234 5882 76.6942
116.351 5811 76.2299
116.469 5959 77.1946
116.586 6103 78.1217
116.704 6364 79.7747
116.821 6454 80.3368
116.939 6323 79.5173
117.056 6492 80.5729
117.174 6568 81.0432
117.291 6542 80.8826
117.409 6079 77.9679
117.526 5505 74.1957
117.644 5200 72.111
117.761 4955 70.3918
117.879 5554 74.5252
117.996 6059 77.8396
118.114 6705 81.8841
118.231 6891 83.012
118.349 7052 83.9762
118.466 7005 83.6959
118.584 7298 85.4283
118.701 7226 85.0059
118.819 7189 84.788
118.936 7185 84.7644
119.053 6907 83.1084
119.171 6509 80.6784
119.288 6415 80.0937
119.405 6122 78.2432
119.523 5829 76.3479
119.64 5753 75.8485
119.757 5670 75.2994
119.875 5400 73.4847
119.992 5666 75.2728
120.109 5573 74.6525
120.226 5733 75.7166
120.343 5780 76.0263
120.46 6110 78.1665
120.578 6036 77.6917
120.695 6069 77.9038
120.812 5928 76.9935
120.929 5959 77.1946
121.046 5737 75.743
121.163 5223 72.2703
121.279 4921 70.1498
121.396 4602 67.838
121.513 4535 67.3424
121.63 5058 71.1196
121.747 5310 72.8697
121.863 5514 74.2563
121.98 5495 74.1283
122.097 5454 73.8512
122.213 5223 72.2703
122.33 5336 73.0479
122.446 5013 70.8025
122.563 4777 69.1158
122.679 4530 67.3053
122.795 4137 64.3195
122.912 3819 61.7981
123.028 3559 59.6574
123.144 3259 57.0877
123.26 2933 54.1572
123.377 0 1
123.493 0 1
123.609 0 1
123.725 0 1
123.84 0 1
123.956 0 1
124.072 0 1
124.188 0 1
124.303 0 1
124.419 0 1
126.852 0 1
126.968 0 1
127.083 0 1
127.199 0 1
127.315 0 1
127.431 0 1
127.547 0 1
127.663 0 1
127.779 0 1
127.895 0 1
128.011 0 1
128.127 0 1
128.243 0 1
128.359 6150 78.4219
128.476 6056 77.8203
128.592 5996 77.4338
128.708 6220 78.867
128.825 6030 77.6531
128.941 5970 77.2658
129.058 5910 76.8765
129.174 5875 76.6485
129.291 5980 77.3305
129.408 6001 77.4661
129.524 6239 78.9873
129.641 6300 79.3725
129.758 6402 80.0125
129.875 6411 80.0687
129.992 6428 80.1748
130.108 6437 80.2309
130.225 5784 76.0526
130.342 5309 72.8629
130.459 5086 71.3162
130.576 4923 70.1641
130.693 5785 76.0592
130.81 6151 78.4283
130.928 6402 80.0125
131.045 6564 81.0185
131.162 6720 81.9756
131.279 6723 81.9939
131.396 6749 82.1523
131.513 6780 82.3408
131.631 6697 81.8352
131.748 6602 81.2527
131.865 6314 79.4607
131.983 6238 78.981
132.1 6154 78.4474
132.217 5933 77.026
132.335 5901 76.818
132.452 5754 75.8551
132.57 5884 76.7072
132.687 5837 76.4003
132.804 5637 75.08
132.922 5765 75.9276
133.039 5905 76.844
133.157 6112 78.1793
133.274 6140 78.3582
133.392 6134 78.3199
133.509 6215 78.8353
133.627 5940 77.0714
133.744 5644 75.1266
133.862 5112 71.4983
133.979 4754 68.9493
134.097 4656 68.2349
134.214 5293 72.753
134.332 5654 75.1931
134.449 6078 77.9615
134.567 6063 77.8653
134.684 6269 79.177
134.802 6392 79.95
134.919 6329 79.555
135.037 6531 80.8146
135.154 6367 79.7935
135.272 6212 78.8162
135.389 6046 77.756
135.507 6124 78.256
135.624 5930 77.0065
135.742 6055 77.8139
135.859 5905 76.844
135.977 5745 75.7958
136.094 5638 75.0866
136.211 5629 75.0267
136.329 5642 75.1132
136.446 5720 75.6307
136.564 5672 75.3127
136.681 5939 77.0649
136.798 6026 77.6273
136.915 6007 77.5048
137.033 5930 77.0065
137.15 5900 76.8115
137.267 5928 76.9935
137.384 5279 72.6567
137.502 4896 69.9714
137.619 4538 67.3647
137.736 4444 66.6633
137.853 4764 69.0217
137.97 5063 71.1548
138.087 5640 75.0999
138.204 5624 74.9933
138.321 5881 76.6877
138.438 5921 76.948
138.555 6105 78.1345
138.672 5897 76.7919
138.788 5817 76.2693
138.905 5504 74.1889
139.022 5292 72.7461
139.139 4840 69.5701
139.255 4675 68.374
139.372 4374 66.1362
139.488 4209 64.8768
139.605 3827 61.8628
139.721 3657 60.4731
139.838 3458 58.8048
139.954 3280 57.2713
140.071 3034 55.0818
140.187 3022 54.9727
140.303 2833 53.2259
140.419 2733 52.2781
140.535 2600 50.9902
140.652 2530 50.2991
140.768 0 1
140.884 0 1
141 0 1
141.115 0 1
141.231 0 1
141.347 0 1
141.463 0 1
141.578 0 1
141.694 0 1
144.104 0 1
144.219 0 1
144.335 0 1
144.45 0 1
144.566 0 1
144.682 0 1
144.798 0 1
144.914 0 1
145.03 0 1
145.146 3835 61.9274
145.262 3925 62.6498
145.378 4168 64.56
145.494 4298 65.5591
145.61 4223 64.9846
145.726 4443 66.6558
145.842 4443 66.6558
145.959 4514 67.1863
146.075 4244 65.146
146.192 3845 62.0081
146.308 3514 59.279
146.425 3322 57.6368
146.541 3260 57.0964
146.658 3453 58.7622
146.774 3856 62.0967
146.891 4115 64.1483
147.008 4486 66.9776
147.125 4448 66.6933
147.241 4620 67.9706
147.358 4726 68.7459
147.475 4587 67.7274
147.592 4635 68.0808
147.709 4542 67.3944
147.826 4448 66.6933
147.943 4663 68.2862
148.06 4477 66.9104
148.177 4406 66.3777
148.294 4348 65.9394
148.411 4279 65.4141
148.528 4225 65
148.645 4181 64.6607
148.762 4071 63.8044
148.88 4257 65.2457
148.997 4339 65.8711
149.114 4206 64.8537
149.231 4360 66.0303
149.349 4493 67.0298
149.466 4307 65.6277
149.583 4442 66.6483
149.701 4305 65.6125
149.818 4176 64.622
149.935 3719 60.9836
150.053 3327 57.6802
150.17 3298 57.4282
150.287 3515 59.2874
150.405 3780 61.4817
150.522 3974 63.0397
150.64 4318 65.7115
150.757 4430 66.5582
150.875 4480 66.9328
150.992 4618 67.9559
151.11 4528 67.2904
151.227 4684 68.4398
151.344 4631 68.0515
151.462 4518 67.2161
151.579 4572 67.6166
151.697 4627 68.0221
151.814 4491 67.0149
151.932 4436 66.6033
152.049 4150 64.4205
152.167 4236 65.0846
152.284 4107 64.0859
152.402 4220 64.9615
152.519 4081 63.8827
152.636 4274 65.3758
152.754 4243 65.1383
152.871 4513 67.1789
152.989 4428 66.5432
153.106 4368 66.0908
153.223 4548 67.4389
153.341 4338 65.8635
153.458 3965 62.9682
153.575 3622 60.1831
153.693 3325 57.6628
153.81 3291 57.3672
153.927 3713 60.9344
154.044 3960 62.9285
154.162 4258 65.2534
154.279 4508 67.1416
154.396 4706 68.6003
154.513 4631 68.0515
154.63 4762 69.0072
154.747 4823 69.4478
154.864 4795 69.2459
154.981 4728 68.7605
155.098 4520 67.2309
155.215 4624 68
155.332 4553 67.4759
155.449 4462 66.7982
155.566 4333 65.8255
155.683 4163 64.5213
155.8 4183 64.6761
155.917 4057 63.6946
156.033 3771 61.4085
156.15 0 1
156.267 0 1
156.383 0 1
156.5 0 1
156.617 0 1
156.733 0 1
156.85 0 1
156.966 0 1
157.082 0 1
157.199 0 1
157.315 0 1
157.431 0 1
157.547 0 1
157.664 0 1
157.78 0 1
157.896 0 1
158.012 0 1
158.128 0 1
158.244 0 1
158.359 0 1
158.475 0 1
158.591 0 1
158.706 0 1
