
6.15755 0 1
6.2731 0 1
6.3887 0 1
6.50437 0 1
6.62009 0 1
6.73587 0 1
6.8517 0 1
6.96759 0 1
7.08353 0 1
7.19952 0 1
7.31557 0 1
7.43166 0 1
7.54781 0 1
7.664 0 1
7.78024 0 1
7.89653 0 1
8.01286 0 1
8.12924 0 1
8.24567 0 1
8.36213 0 1
8.47864 0 1
8.59519 0 1
8.71178 0 1
8.82841 0 1
8.94508 0 1
9.06179 0 1
9.17853 0 1
9.29531 0 1
9.41212 0 1
9.52897 0 1
9.64584 0 1
9.76276 0 1
9.8797 0 1
9.99667 0 1
10.1137 0 1
10.2307 0 1
10.3478 0 1
10.4648 0 1
10.5819 0 1
10.6991 0 1
10.8162 0 1
10.9334 0 1
11.0506 0 1
11.1678 0 1
11.285 0 1
11.4023 0 1
11.5196 0 1
11.6369 0 1
11.7542 0 1
11.8715 0 1
11.9888 0 1
12.1062 0 1
12.2235 0 1
12.3409 0 1
12.4582 0 1
12.5756 0 1
12.693 0 1
12.8104 0 1
12.9278 0 1
13.0452 0 1
13.1626 0 1
13.28 0 1
13.3974 0 1
13.5149 0 1
13.6323 0 1
13.7497 0 1
13.8671 0 1
13.9845 0 1
14.1019 0 1
14.2193 0 1
14.3367 0 1
14.4541 0 1
14.5714 0 1
14.6888 0 1
14.8062 0 1
14.9235 0 1
15.0408 921 30.348
15.1581 922 30.3645
15.2755 997 31.5753
15.3927 973 31.1929
15.51 952 30.8545
15.6273 957 30.9354
15.7445 978 31.273
15.8617 1002 31.6544
15.9789 924 30.3974
16.0961 849 29.1376
16.2132 886 29.7658
16.3304 890 29.8329
16.4475 884 29.7321
16.5646 844 29.0517
16.6816 891 29.8496
16.7986 926 30.4302
16.9156 876 29.5973
17.0326 892 29.8664
17.1496 803 28.3373
17.2665 870 29.4958
17.3833 912 30.1993
17.5002 859 29.3087
17.617 903 30.05
17.7338 900 30
17.8505 920 30.3315
17.9672 932 30.5287
18.0839 835 28.8964
18.2005 814 28.5307
18.3171 827 28.7576
18.4337 857 29.2746
18.5502 890 29.8329
18.6666 850 29.1548
18.7831 892 29.8664
18.8994 883 29.7153
19.0158 796 28.2135
19.1321 777 27.8747
19.2483 809 28.4429
19.3645 776 27.8568
19.4806 694 26.3439
19.5967 655 25.593
19.7128 576 24
19.8288 598 24.454
19.9447 548 23.4094
20.0606 0 1
20.1764 0 1
20.2922 0 1
20.4079 0 1
20.5236 0 1
20.6392 0 1
20.7548 0 1
20.8702 0 1
23.3078 0 1
23.4233 0 1
23.539 0 1
23.6547 0 1
23.7704 0 1
23.8862 0 1
24.0021 0 1
24.118 0 1
24.234 0 1
24.35 0 1
24.4661 349 18.6815
24.5822 416 20.3961
24.6984 484 22
24.8146 508 22.5389
24.9309 661 25.7099
25.0472 748 27.3496
25.1636 714 26.7208
25.28 813 28.5132
25.3965 894 29.8998
25.513 895 29.9166
25.6296 940 30.6594
25.7462 958 30.9516
25.8628 989 31.4484
25.9795 983 31.3528
26.0962 913 30.2159
26.213 918 30.2985
26.3298 898 29.9666
26.4466 895 29.9166
26.5635 827 28.7576
26.6804 823 28.688
26.7973 734 27.0924
26.9143 722 26.8701
27.0313 661 25.7099
27.1483 806 28.3901
27.2653 898 29.9666
27.3824 805 28.3725
27.4996 834 28.8791
27.6167 867 29.4449
27.7339 824 28.7054
27.8511 811 28.4781
27.9683 826 28.7402
28.0855 851 29.1719
28.2028 829 28.7924
28.3201 744 27.2764
28.4374 750 27.3861
28.5547 828 28.775
28.6721 849 29.1376
28.7894 837 28.931
28.9068 806 28.3901
29.0242 854 29.2233
29.1416 845 29.0689
29.259 836 28.9137
29.3764 847 29.1033
29.4939 793 28.1603
29.6113 777 27.8747
29.7288 847 29.1033
29.8463 763 27.6225
29.9638 778 27.8927
30.0812 740 27.2029
30.1987 691 26.2869
30.3162 683 26.1343
30.4337 710 26.6458
30.5512 774 27.8209
30.6687 736 27.1293
30.7862 794 28.178
30.9037 848 29.1204
31.0212 818 28.6007
31.1387 905 30.0832
31.2562 889 29.8161
31.3737 802 28.3196
31.4912 847 29.1033
31.6087 852 29.189
31.7262 792 28.1425
31.8436 748 27.3496
31.9611 769 27.7308
32.0785 819 28.6182
32.1959 772 27.7849
32.3134 829 28.7924
32.4308 815 28.5482
32.5482 768 27.7128
32.6655 701 26.4764
32.7829 728 26.9815
32.9002 699 26.4386
33.0176 706 26.5707
33.1349 705 26.5518
33.2522 767 27.6948
33.3694 721 26.8514
33.4867 753 27.4408
33.6039 678 26.0384
33.7211 699 26.4386
33.8383 654 25.5734
33.9554 679 26.0576
34.0725 687 26.2107
34.1896 694 26.3439
34.3067 694 26.3439
34.4237 749 27.3679
34.5407 800 28.2843
34.6577 758 27.5318
34.7746 712 26.6833
34.8915 727 26.9629
35.0084 771 27.7669
35.1252 702 26.4953
35.242 706 26.5707
35.3587 597 24.4336
35.4755 606 24.6171
35.5921 657 25.632
35.7088 702 26.4953
35.8254 687 26.2107
35.9419 684 26.1534
36.0584 676 26
36.1749 703 26.5141
36.2913 665 25.7876
36.4077 629 25.0799
36.524 669 25.865
36.6403 618 24.8596
36.7565 609 24.6779
36.8727 557 23.6008
36.9889 526 22.9347
37.1049 455 21.3307
37.221 0 1
37.3369 0 1
37.4529 0 1
37.5687 0 1
37.6845 0 1
37.8003 0 1
37.916 0 1
38.0316 0 1
38.1472 0 1
40.5851 0 1
40.7008 0 1
40.8164 0 1
40.9322 0 1
41.048 0 1
41.1639 0 1
41.2798 0 1
41.3958 0 1
41.5118 0 1
41.6279 0 1
41.744 313 17.6918
41.8602 396 19.8997
41.9765 441 21
42.0928 473 21.7486
42.2091 505 22.4722
42.3255 492 22.1811
42.4419 498 22.3159
42.5584 491 22.1585
42.675 492 22.1811
42.7915 515 22.6936
42.9081 539 23.2164
43.0248 509 22.561
43.1415 538 23.1948
43.2582 573 23.9374
43.375 542 23.2809
43.4918 592 24.3311
43.6087 536 23.1517
43.7256 516 22.7156
43.8425 548 23.4094
43.9595 555 23.5584
44.0765 508 22.5389
44.1935 518 22.7596
44.3106 512 22.6274
44.4277 539 23.2164
44.5448 559 23.6432
44.6619 512 22.6274
44.7791 548 23.4094
44.8963 575 23.9792
45.0136 523 22.8692
45.1308 550 23.4521
45.2481 576 24
45.3654 589 24.2693
45.4827 567 23.8118
45.6001 570 23.8747
45.7174 589 24.2693
45.8348 609 24.6779
45.9522 510 22.5832
46.0697 542 23.2809
46.1871 498 22.3159
46.3046 489 22.1133
46.422 425 20.6155
46.5395 478 21.8632
46.657 499 22.3383
46.7745 591 24.3105
46.892 583 24.1454
47.0096 572 23.9165
47.1271 530 23.0217
47.2446 589 24.2693
47.3622 533 23.0868
47.4797 555 23.5584
47.5973 568 23.8328
47.7149 498 22.3159
47.8324 526 22.9347
47.95 504 22.4499
48.0675 504 22.4499
48.1851 543 23.3024
48.3027 540 23.2379
48.4202 514 22.6716
48.5378 562 23.7065
48.6554 551 23.4734
48.7729 539 23.2164
48.8904 529 23
49.008 556 23.5797
49.1255 567 23.8118
49.243 583 24.1454
49.3605 567 23.8118
49.478 495 22.2486
49.5955 536 23.1517
49.713 484 22
49.8304 442 21.0238
49.9479 475 21.7945
50.0653 468 21.6333
50.1827 447 21.1424
50.3001 491 22.1585
50.4175 495 22.2486
50.5348 501 22.383
50.6521 549 23.4307
50.7694 490 22.1359
50.8867 483 21.9773
51.004 504 22.4499
51.1212 498 22.3159
51.2384 448 21.166
51.3556 493 22.2036
51.4727 518 22.7596
51.5899 499 22.3383
51.707 492 22.1811
51.824 502 22.4054
51.9411 478 21.8632
52.0581 571 23.8956
52.175 511 22.6053
52.2919 493 22.2036
52.4088 532 23.0651
52.5257 571 23.8956
52.6425 533 23.0868
52.7593 508 22.5389
52.876 482 21.9545
52.9927 533 23.0868
53.1094 506 22.4944
53.226 433 20.8087
53.3426 438 20.9284
53.4591 435 20.8567
53.5756 437 20.9045
53.692 409 20.2237
53.8084 379 19.4679
53.9248 450 21.2132
54.0411 401 20.025
54.1573 390 19.7484
54.2735 0 1
54.3896 0 1
54.5057 0 1
54.6217 0 1
54.7377 0 1
54.8537 0 1
54.9695 0 1
55.0853 0 1
55.2011 0 1
55.3168 0 1
55.4324 0 1
57.824 0 1
57.9396 0 1
58.0553 0 1
58.1711 0 1
58.2869 0 1
58.4028 0 1
58.5187 0 1
58.6347 0 1
58.7508 0 1
58.8669 0 1
58.983 848 29.1204
59.0992 1218 34.8999
59.2155 1471 38.3536
59.3318 1725 41.5331
59.4482 1830 42.7785
59.5646 2006 44.7884
59.681 2005 44.7772
59.7975 1972 44.4072
59.9141 2022 44.9667
60.0306 2072 45.5192
60.1473 2044 45.2106
60.2639 2207 46.9787
60.3807 2153 46.4004
60.4974 2223 47.1487
60.6142 2126 46.1086
60.731 2089 45.7056
60.8479 2046 45.2327
60.9648 1979 44.486
61.0818 1940 44.0454
61.1987 1791 42.3202
61.3158 1700 41.2311
61.4328 1697 41.1947
61.5499 1657 40.7063
61.667 1498 38.704
61.7841 1414 37.6032
61.9013 1277 35.7351
62.0185 1078 32.8329
62.1357 1027 32.0468
62.253 900 30
62.3702 1035 32.1714
62.4875 1231 35.0856
62.6049 1331 36.4829
62.7222 1284 35.8329
62.8396 1453 38.1182
62.9569 1411 37.5633
63.0743 1342 36.6333
63.1918 1303 36.0971
63.3092 1085 32.9393
63.4267 1016 31.8748
63.5441 1097 33.121
63.6616 1184 34.4093
63.7791 1220 34.9285
63.8966 1178 34.322
64.0142 986 31.4006
64.1317 886 29.7658
64.2492 791 28.1247
64.3668 715 26.7395
64.4843 634 25.1794
64.6019 672 25.923
64.7195 635 25.1992
64.837 608 24.6577
64.9546 639 25.2784
65.0722 682 26.1151
65.1898 655 25.593
65.3074 698 26.4197
65.4249 682 26.1151
65.5425 621 24.9199
65.6601 625 25
65.7777 618 24.8596
65.8952 609 24.6779
66.0128 638 25.2587
66.1304 623 24.96
66.2479 691 26.2869
66.3655 679 26.0576
66.483 691 26.2869
66.6005 694 26.3439
66.718 746 27.313
66.8355 639 25.2784
66.953 696 26.3818
67.0705 694 26.3439
67.1879 788 28.0713
67.3054 815 28.5482
67.4228 854 29.2233
67.5402 790 28.1069
67.6576 787 28.0535
67.7749 850 29.1548
67.8923 826 28.7402
68.0096 839 28.9655
68.1269 855 29.2404
68.2442 787 28.0535
68.3614 823 28.688
68.4787 758 27.5318
68.5958 754 27.4591
68.713 755 27.4773
68.8302 786 28.0357
68.9473 679 26.0576
69.0643 775 27.8388
69.1814 802 28.3196
69.2984 790 28.1069
69.4154 749 27.3679
69.5323 718 26.7955
69.6492 779 27.9106
69.7661 734 27.0924
69.8829 753 27.4408
69.9997 695 26.3629
70.1165 659 25.671
70.2332 646 25.4165
70.3499 665 25.7876
70.4665 573 23.9374
70.5831 540 23.2379
70.6996 477 21.8403
70.8161 491 22.1585
70.9326 406 20.1494
71.049 385 19.6214
71.1653 366 19.1311
71.2817 380 19.4936
71.3979 322 17.9444
71.5141 284 16.8523
71.6303 245 15.6525
71.7464 259 16.0935
71.8624 0 1
71.9784 0 1
72.0944 0 1
72.2102 0 1
72.3261 0 1
72.4418 0 1
72.5575 0 1
72.6732 0 1
75.1054 0 1
75.2209 0 1
75.3365 0 1
75.4521 0 1
75.5678 0 1
75.6835 0 1
75.7993 0 1
75.9151 0 1
76.031 0 1
76.147 390 19.7484
76.263 432 20.7846
76.3791 436 20.8806
76.4952 501 22.383
76.6113 483 21.9773
76.7276 555 23.5584
76.8438 573 23.9374
76.9601 549 23.4307
77.0765 542 23.2809
77.1929 522 22.8473
77.3093 565 23.7697
77.4258 523 22.8692
77.5423 527 22.9565
77.6589 515 22.6936
77.7755 537 23.1733
77.8921 497 22.2935
78.0088 482 21.9545
78.1256 504 22.4499
78.2423 496 22.2711
78.3591 463 21.5174
78.4759 450 21.2132
78.5928 468 21.6333
78.7097 467 21.6102
78.8266 460 21.4476
78.9436 482 21.9545
79.0606 492 22.1811
79.1776 504 22.4499
79.2946 527 22.9565
79.4117 515 22.6936
79.5288 482 21.9545
79.6459 482 21.9545
79.7631 501 22.383
79.8802 485 22.0227
79.9974 556 23.5797
80.1147 531 23.0434
80.2319 582 24.1247
80.3491 535 23.1301
80.4664 578 24.0416
80.5837 578 24.0416
80.701 546 23.3666
80.8183 522 22.8473
80.9357 543 23.3024
81.053 582 24.1247
81.1704 530 23.0217
81.2877 547 23.388
81.4051 567 23.8118
81.5225 547 23.388
81.6399 556 23.5797
81.7573 526 22.9347
81.8747 503 22.4277
81.9922 473 21.7486
82.1096 472 21.7256
82.227 501 22.383
82.3444 447 21.1424
82.4619 483 21.9773
82.5793 519 22.7816
82.6967 549 23.4307
82.8142 511 22.6053
82.9316 577 24.0208
83.049 586 24.2074
83.1664 537 23.1733
83.2838 509 22.561
83.4012 566 23.7908
83.5186 519 22.7816
83.636 561 23.6854
83.7534 569 23.8537
83.8708 602 24.5357
83.9881 570 23.8747
84.1055 557 23.6008
84.2228 580 24.0832
84.3401 553 23.516
84.4575 572 23.9165
84.5747 552 23.4947
84.692 521 22.8254
84.8093 556 23.5797
84.9265 558 23.622
85.0437 524 22.891
85.1609 534 23.1084
85.2781 557 23.6008
85.3952 510 22.5832
85.5123 487 22.0681
85.6294 510 22.5832
85.7465 509 22.561
85.8636 549 23.4307
85.9806 492 22.1811
86.0976 529 23
86.2145 510 22.5832
86.3315 553 23.516
86.4484 528 22.9783
86.5652 561 23.6854
86.682 575 23.9792
86.7988 558 23.622
86.9156 543 23.3024
87.0323 483 21.9773
87.149 535 23.1301
87.2657 531 23.0434
87.3823 540 23.2379
87.4988 534 23.1084
87.6154 504 22.4499
87.7318 487 22.0681
87.8483 459 21.4243
87.9647 408 20.199
88.081 452 21.2603
88.1973 384 19.5959
88.3136 357 18.8944
88.4298 334 18.2757
88.546 342 18.4932
88.6621 312 17.6635
88.7781 276 16.6132
88.8942 0 1
89.0101 0 1
89.126 0 1
89.2419 0 1
89.3577 0 1
89.4734 0 1
89.5891 0 1
89.7047 0 1
89.8203 0 1
89.9358 0 1
92.3269 0 1
92.4424 0 1
92.558 0 1
92.6736 0 1
92.7893 0 1
92.905 0 1
93.0208 0 1
93.1366 0 1
93.2525 0 1
93.3685 0 1
93.4845 0 1
93.6005 443 21.0476
93.7167 463 21.5174
93.8328 469 21.6564
93.949 518 22.7596
94.0653 573 23.9374
94.1816 487 22.0681
94.2979 539 23.2164
94.4143 521 22.8254
94.5307 507 22.5167
94.6472 539 23.2164
94.7637 490 22.1359
94.8803 482 21.9545
94.9969 493 22.2036
95.1135 464 21.5407
95.2302 515 22.6936
95.3469 537 23.1733
95.4637 562 23.7065
95.5805 595 24.3926
95.6973 573 23.9374
95.8142 579 24.0624
95.9311 559 23.6432
96.048 570 23.8747
96.1649 510 22.5832
96.2819 566 23.7908
96.3989 572 23.9165
96.516 537 23.1733
96.633 583 24.1454
96.7501 568 23.8328
96.8673 556 23.5797
96.9844 535 23.1301
97.1016 553 23.516
97.2188 515 22.6936
97.336 555 23.5584
97.4532 558 23.622
97.5704 584 24.1661
97.6877 568 23.8328
97.805 596 24.4131
97.9223 584 24.1661
98.0396 565 23.7697
98.1569 537 23.1733
98.2743 549 23.4307
98.3916 530 23.0217
98.509 546 23.3666
98.6264 491 22.1585
98.7438 513 22.6495
98.8612 509 22.561
98.9786 617 24.8395
99.096 582 24.1247
99.2134 577 24.0208
99.3308 568 23.8328
99.4482 632 25.1396
99.5656 559 23.6432
99.6831 585 24.1868
99.8005 587 24.2281
99.9179 590 24.2899
100.035 559 23.6432
100.153 639 25.2784
100.27 580 24.0832
100.388 610 24.6982
100.505 619 24.8797
100.622 593 24.3516
100.74 600 24.4949
100.857 541 23.2594
100.975 590 24.2899
101.092 581 24.1039
101.209 568 23.8328
101.327 604 24.5764
101.444 574 23.9583
101.561 582 24.1247
101.679 580 24.0832
101.796 620 24.8998
101.913 569 23.8537
102.03 554 23.5372
102.148 575 23.9792
102.265 543 23.3024
102.382 532 23.0651
102.499 597 24.4336
102.616 590 24.2899
102.733 617 24.8395
102.851 619 24.8797
102.968 667 25.8263
103.085 670 25.8844
103.202 610 24.6982
103.319 658 25.6515
103.436 611 24.7184
103.552 595 24.3926
103.669 613 24.7588
103.786 625 25
103.903 639 25.2784
104.02 637 25.2389
104.137 629 25.0799
104.253 618 24.8596
104.37 597 24.4336
104.487 564 23.7487
104.603 605 24.5967
104.72 640 25.2982
104.836 592 24.3311
104.953 623 24.96
105.069 557 23.6008
105.186 550 23.4521
105.302 509 22.561
105.418 447 21.1424
105.535 429 20.7123
105.651 388 19.6977
105.767 360 18.9737
105.883 330 18.1659
105.999 290 17.0294
106.115 0 1
106.231 0 1
106.347 0 1
106.463 0 1
106.579 0 1
106.694 0 1
106.81 0 1
106.926 0 1
107.041 0 1
107.157 0 1
109.576 0 1
109.692 0 1
109.807 0 1
109.923 0 1
110.039 0 1
110.155 0 1
110.27 0 1
110.386 0 1
110.502 0 1
110.618 312 17.6635
110.735 307 17.5214
110.851 381 19.5192
110.967 453 21.2838
111.083 528 22.9783
111.199 529 23
111.316 514 22.6716
111.432 561 23.6854
111.549 617 24.8395
111.665 574 23.9583
111.782 544 23.3238
111.898 600 24.4949
112.015 575 23.9792
112.132 586 24.2074
112.248 538 23.1948
112.365 558 23.622
112.482 559 23.6432
112.599 564 23.7487
112.716 603 24.5561
112.832 548 23.4094
112.949 561 23.6854
113.066 519 22.7816
113.183 508 22.5389
113.3 545 23.3452
113.417 504 22.4499
113.534 540 23.2379
113.652 562 23.7065
113.769 551 23.4734
113.886 523 22.8692
114.003 472 21.7256
114.12 526 22.9347
114.238 469 21.6564
114.355 462 21.4942
114.472 450 21.2132
114.589 508 22.5389
114.707 508 22.5389
114.824 536 23.1517
114.942 520 22.8035
115.059 511 22.6053
115.176 588 24.2487
115.294 554 23.5372
115.411 536 23.1517
115.529 518 22.7596
115.646 546 23.3666
115.764 493 22.2036
115.881 509 22.561
115.999 510 22.5832
116.116 486 22.0454
116.234 523 22.8692
116.351 505 22.4722
116.469 481 21.9317
116.586 514 22.6716
116.704 479 21.8861
116.821 488 22.0907
116.939 487 22.0681
117.056 519 22.7816
117.174 503 22.4277
117.291 526 22.9347
117.409 495 22.2486
117.526 520 22.8035
117.644 531 23.0434
117.761 474 21.7715
117.879 443 21.0476
117.996 463 21.5174
118.114 461 21.4709
118.231 483 21.9773
118.349 491 22.1585
118.466 549 23.4307
118.584 516 22.7156
118.701 529 23
118.819 491 22.1585
118.936 535 23.1301
119.053 503 22.4277
119.171 483 21.9773
119.288 525 22.9129
119.405 445 21.095
119.523 494 22.2261
119.64 488 22.0907
119.757 518 22.7596
119.875 504 22.4499
119.992 435 20.8567
120.109 472 21.7256
120.226 453 21.2838
120.343 494 22.2261
120.46 466 21.587
120.578 463 21.5174
120.695 518 22.7596
120.812 482 21.9545
120.929 489 22.1133
121.046 439 20.9523
121.163 445 21.095
121.279 486 22.0454
121.396 439 20.9523
121.513 424 20.5913
121.63 427 20.664
121.747 421 20.5183
121.863 396 19.8997
121.98 441 21
122.097 420 20.4939
122.213 375 19.3649
122.33 363 19.0526
122.446 365 19.105
122.563 353 18.7883
122.679 310 17.6068
122.795 316 17.7764
122.912 304 17.4356
123.028 281 16.7631
123.144 288 16.9706
123.26 244 15.6205
123.377 0 1
123.493 0 1
123.609 0 1
123.725 0 1
123.84 0 1
123.956 0 1
124.072 0 1
124.188 0 1
124.303 0 1
124.419 0 1
126.852 0 1
126.968 0 1
127.083 0 1
127.199 0 1
127.315 0 1
127.431 0 1
127.547 0 1
127.663 0 1
127.779 0 1
127.895 0 1
128.011 0 1
128.127 0 1
128.243 0 1
128.359 531 23.0434
128.476 477 21.8403
128.592 534 23.1084
128.708 521 22.8254
128.825 531 23.0434
128.941 607 24.6374
129.058 551 23.4734
129.174 551 23.4734
129.291 545 23.3452
129.408 571 23.8956
129.524 541 23.2594
129.641 562 23.7065
129.758 566 23.7908
129.875 548 23.4094
129.992 586 24.2074
130.108 587 24.2281
130.225 562 23.7065
130.342 554 23.5372
130.459 595 24.3926
130.576 671 25.9037
130.693 664 25.7682
130.81 735 27.1109
130.928 748 27.3496
131.045 783 27.9821
131.162 818 28.6007
131.279 997 31.5753
131.396 1155 33.9853
131.513 1453 38.1182
131.631 1993 44.643
131.748 2739 52.3355
131.865 3682 60.6795
131.983 4605 67.8602
132.1 5510 74.2294
132.217 6236 78.9683
132.335 6848 82.7526
132.452 6963 83.4446
132.57 7126 84.4156
132.687 6937 83.2887
132.804 6998 83.654
132.922 6798 82.45
133.039 6616 81.3388
133.157 6537 80.8517
133.274 6023 77.608
133.392 5707 75.5447
133.509 5460 73.8918
133.627 5192 72.0555
133.744 4785 69.1737
133.862 4414 66.4379
133.979 3939 62.7615
134.097 3442 58.6686
134.214 3064 55.3534
134.332 2562 50.6162
134.449 2080 45.607
134.567 1506 38.8072
134.684 1614 40.1746
134.802 1892 43.4971
134.919 1807 42.5088
135.037 1779 42.1782
135.154 1617 40.2119
135.272 1606 40.0749
135.389 1570 39.6232
135.507 1466 38.2884
135.624 1456 38.1576
135.742 1368 36.9865
135.859 1410 37.55
135.977 1388 37.2559
136.094 1376 37.0945
136.211 1373 37.054
136.329 1337 36.565
136.446 1274 35.6931
136.564 1380 37.1484
136.681 1377 37.108
136.798 1381 37.1618
136.915 1318 36.3043
137.033 1330 36.4692
137.15 1295 35.9861
137.267 1312 36.2215
137.384 1219 34.9142
137.502 1226 35.0143
137.619 1243 35.2562
137.736 1163 34.1028
137.853 1119 33.4515
137.97 1040 32.249
138.087 1005 31.7017
138.204 1024 32
138.321 1109 33.3017
138.438 1090 33.0151
138.555 1127 33.5708
138.672 1131 33.6303
138.788 1168 34.176
138.905 1149 33.8969
139.022 1069 32.6956
139.139 1040 32.249
139.255 982 31.3369
139.372 916 30.2655
139.488 865 29.4109
139.605 821 28.6531
139.721 727 26.9629
139.838 699 26.4386
139.954 776 27.8568
140.071 728 26.9815
140.187 635 25.1992
140.303 593 24.3516
140.419 548 23.4094
140.535 598 24.454
140.652 514 22.6716
140.768 0 1
140.884 0 1
141 0 1
141.115 0 1
141.231 0 1
141.347 0 1
141.463 0 1
141.578 0 1
141.694 0 1
144.104 0 1
144.219 0 1
144.335 0 1
144.45 0 1
144.566 0 1
144.682 0 1
144.798 0 1
144.914 0 1
145.03 0 1
145.146 1460 38.2099
145.262 1568 39.598
145.378 1632 40.398
145.494 1755 41.8927
145.61 1715 41.4126
145.726 1839 42.8836
145.842 1883 43.3935
145.959 1974 44.4297
146.075 1933 43.9659
146.192 2040 45.1664
146.308 2047 45.2438
146.425 2011 44.8442
146.541 2112 45.9565
146.658 2017 44.911
146.774 1762 41.9762
146.891 1586 39.8246
147.008 1691 41.1218
147.125 1949 44.1475
147.241 2136 46.2169
147.358 2152 46.3897
147.475 2111 45.9456
147.592 2102 45.8476
147.709 2125 46.0977
147.826 2126 46.1086
147.943 2217 47.085
148.06 2272 47.6655
148.177 2278 47.7284
148.294 2253 47.4658
148.411 2302 47.9792
148.528 2335 48.3218
148.645 2339 48.3632
148.762 2383 48.816
148.88 2262 47.5605
148.997 2378 48.7647
149.114 2202 46.9255
149.231 2397 48.9592
149.349 2306 48.0208
149.466 2318 48.1456
149.583 2347 48.4458
149.701 2373 48.7134
149.818 2282 47.7703
149.935 2356 48.5386
150.053 2343 48.4045
150.17 2469 49.689
150.287 2389 48.8774
150.405 2295 47.9062
150.522 1930 43.9318
150.64 1824 42.7083
150.757 1953 44.1928
150.875 2191 46.8081
150.992 2212 47.0319
151.11 2114 45.9783
151.227 2128 46.1303
151.344 2195 46.8508
151.462 2310 48.0625
151.579 2238 47.3075
151.697 2310 48.0625
151.814 2374 48.7237
151.932 2303 47.9896
152.049 2279 47.7389
152.167 2267 47.613
152.284 2368 48.6621
152.402 2339 48.3632
152.519 2258 47.5184
152.636 2351 48.4871
152.754 2339 48.3632
152.871 2359 48.5695
152.989 2217 47.085
153.106 2276 47.7074
153.223 2156 46.4327
153.341 2237 47.2969
153.458 2150 46.3681
153.575 2316 48.1248
153.693 2166 46.5403
153.81 2143 46.2925
153.927 2144 46.3033
154.044 2015 44.8888
154.162 1724 41.5211
154.279 1631 40.3856
154.396 1766 42.0238
154.513 1995 44.6654
154.63 1922 43.8406
154.747 1920 43.8178
154.864 1878 43.3359
154.981 1938 44.0227
155.098 1888 43.4511
155.215 1991 44.6206
155.332 1937 44.0114
155.449 1965 44.3283
155.566 1894 43.5201
155.683 1877 43.3244
155.8 1893 43.5086
155.917 1934 43.9773
156.033 1903 43.6234
156.15 0 1
156.267 0 1
156.383 0 1
156.5 0 1
156.617 0 1
156.733 0 1
156.85 0 1
156.966 0 1
157.082 0 1
157.199 0 1
157.315 0 1
157.431 0 1
157.547 0 1
157.664 0 1
157.78 0 1
157.896 0 1
158.012 0 1
158.128 0 1
158.244 0 1
158.359 0 1
158.475 0 1
158.591 0 1
158.706 0 1
