
6.15755 0 1
6.2731 0 1
6.3887 0 1
6.50437 0 1
6.62009 0 1
6.73587 0 1
6.8517 0 1
6.96759 0 1
7.08353 0 1
7.19952 0 1
7.31557 0 1
7.43166 0 1
7.54781 0 1
7.664 0 1
7.78024 0 1
7.89653 0 1
8.01286 0 1
8.12924 0 1
8.24567 0 1
8.36213 0 1
8.47864 0 1
8.59519 0 1
8.71178 0 1
8.82841 0 1
8.94508 0 1
9.06179 0 1
9.17853 0 1
9.29531 0 1
9.41212 0 1
9.52897 0 1
9.64584 0 1
9.76276 0 1
9.8797 0 1
9.99667 0 1
10.1137 0 1
10.2307 0 1
10.3478 0 1
10.4648 0 1
10.5819 0 1
10.6991 0 1
10.8162 0 1
10.9334 0 1
11.0506 0 1
11.1678 0 1
11.285 0 1
11.4023 0 1
11.5196 0 1
11.6369 0 1
11.7542 0 1
11.8715 0 1
11.9888 0 1
12.1062 0 1
12.2235 0 1
12.3409 0 1
12.4582 0 1
12.5756 0 1
12.693 0 1
12.8104 0 1
12.9278 0 1
13.0452 0 1
13.1626 0 1
13.28 0 1
13.3974 0 1
13.5149 0 1
13.6323 0 1
13.7497 0 1
13.8671 0 1
13.9845 0 1
14.1019 0 1
14.2193 0 1
14.3367 0 1
14.4541 0 1
14.5714 0 1
14.6888 0 1
14.8062 0 1
14.9235 0 1
15.0408 1614 40.1746
15.1581 1711 41.3642
15.2755 1762 41.9762
15.3927 1748 41.8091
15.51 1848 42.9884
15.6273 1799 42.4146
15.7445 1806 42.4971
15.8617 1793 42.3438
15.9789 1664 40.7922
16.0961 1591 39.8873
16.2132 1608 40.0999
16.3304 1690 41.1096
16.4475 1634 40.4228
16.5646 1586 39.8246
16.6816 1519 38.9744
16.7986 1507 38.8201
16.9156 1495 38.6652
17.0326 1520 38.9872
17.1496 1349 36.7287
17.2665 1387 37.2424
17.3833 1359 36.8646
17.5002 1408 37.5233
17.617 1410 37.55
17.7338 1422 37.7094
17.8505 1483 38.5097
17.9672 1539 39.2301
18.0839 1565 39.5601
18.2005 1593 39.9124
18.3171 1612 40.1497
18.4337 1541 39.2556
18.5502 1627 40.3361
18.6666 1750 41.833
18.7831 1605 40.0625
18.8994 1706 41.3038
19.0158 1624 40.2989
19.1321 1590 39.8748
19.2483 1545 39.3065
19.3645 1406 37.4967
19.4806 1419 37.6696
19.5967 1298 36.0278
19.7128 1220 34.9285
19.8288 1143 33.8083
19.9447 1025 32.0156
20.0606 0 1
20.1764 0 1
20.2922 0 1
20.4079 0 1
20.5236 0 1
20.6392 0 1
20.7548 0 1
20.8702 0 1
23.3078 0 1
23.4233 0 1
23.539 0 1
23.6547 0 1
23.7704 0 1
23.8862 0 1
24.0021 0 1
24.118 0 1
24.234 0 1
24.35 0 1
24.4661 735 27.1109
24.5822 811 28.4781
24.6984 891 29.8496
24.8146 921 30.348
24.9309 1140 33.7639
25.0472 1214 34.8425
25.1636 1366 36.9594
25.28 1453 38.1182
25.3965 1545 39.3065
25.513 1610 40.1248
25.6296 1592 39.8999
25.7462 1725 41.5331
25.8628 1647 40.5832
25.9795 1665 40.8044
26.0962 1727 41.5572
26.213 1657 40.7063
26.3298 1629 40.3609
26.4466 1664 40.7922
26.5635 1759 41.9404
26.6804 1725 41.5331
26.7973 1735 41.6533
26.9143 1633 40.4104
27.0313 1611 40.1373
27.1483 1692 41.1339
27.2653 1716 41.4246
27.3824 1793 42.3438
27.4996 1855 43.0697
27.6167 1799 42.4146
27.7339 1723 41.509
27.8511 1684 41.0366
27.9683 1688 41.0853
28.0855 1657 40.7063
28.2028 1688 41.0853
28.3201 1622 40.2741
28.4374 1649 40.6079
28.5547 1709 41.3401
28.6721 1699 41.2189
28.7894 1789 42.2966
28.9068 1677 40.9512
29.0242 1726 41.5452
29.1416 1695 41.1704
29.259 1697 41.1947
29.3764 1597 39.9625
29.4939 1612 40.1497
29.6113 1594 39.9249
29.7288 1637 40.4599
29.8463 1566 39.5727
29.9638 1626 40.3237
30.0812 1654 40.6694
30.1987 1718 41.4488
30.3162 1690 41.1096
30.4337 1717 41.4367
30.5512 1691 41.1218
30.6687 1662 40.7676
30.7862 1791 42.3202
30.9037 1714 41.4005
31.0212 1833 42.8135
31.1387 1765 42.0119
31.2562 1764 42
31.3737 1707 41.3159
31.4912 1654 40.6694
31.6087 1733 41.6293
31.7262 1727 41.5572
31.8436 1719 41.4608
31.9611 1694 41.1582
32.0785 1739 41.7013
32.1959 1762 41.9762
32.3134 1801 42.4382
32.4308 1774 42.1189
32.5482 1686 41.0609
32.6655 1661 40.7554
32.7829 1678 40.9634
32.9002 1689 41.0974
33.0176 1666 40.8167
33.1349 1676 40.939
33.2522 1699 41.2189
33.3694 1640 40.4969
33.4867 1612 40.1497
33.6039 1694 41.1582
33.7211 1644 40.5463
33.8383 1697 41.1947
33.9554 1790 42.3084
34.0725 1771 42.0833
34.1896 1730 41.5933
34.3067 1751 41.845
34.4237 1678 40.9634
34.5407 1746 41.7852
34.6577 1824 42.7083
34.7746 1836 42.8486
34.8915 1857 43.0929
35.0084 1786 42.2611
35.1252 1779 42.1782
35.242 1715 41.4126
35.3587 1702 41.2553
35.4755 1761 41.9643
35.5921 1744 41.7612
35.7088 1678 40.9634
35.8254 1754 41.8808
35.9419 1722 41.497
36.0584 1609 40.1123
36.1749 1673 40.9023
36.2913 1680 40.9878
36.4077 1642 40.5216
36.524 1532 39.1408
36.6403 1349 36.7287
36.7565 1277 35.7351
36.8727 1210 34.7851
36.9889 1150 33.9116
37.1049 1011 31.7962
37.221 0 1
37.3369 0 1
37.4529 0 1
37.5687 0 1
37.6845 0 1
37.8003 0 1
37.916 0 1
38.0316 0 1
38.1472 0 1
40.5851 0 1
40.7008 0 1
40.8164 0 1
40.9322 0 1
41.048 0 1
41.1639 0 1
41.2798 0 1
41.3958 0 1
41.5118 0 1
41.6279 0 1
41.744 929 30.4795
41.8602 1104 33.2265
41.9765 1248 35.327
42.0928 1432 37.8418
42.2091 1503 38.7685
42.3255 1708 41.328
42.4419 1736 41.6653
42.5584 1841 42.9069
42.675 1950 44.1588
42.7915 1825 42.72
42.9081 1926 43.8862
43.0248 1932 43.9545
43.1415 1958 44.2493
43.2582 2193 46.8295
43.375 2178 46.669
43.4918 2339 48.3632
43.6087 2389 48.8774
43.7256 2410 49.0918
43.8425 2498 49.98
43.9595 2414 49.1325
44.0765 2527 50.2693
44.1935 2572 50.7149
44.3106 2595 50.9411
44.4277 2595 50.9411
44.5448 2528 50.2792
44.6619 2482 49.8197
44.7791 2551 50.5074
44.8963 2562 50.6162
45.0136 2585 50.8429
45.1308 2569 50.6853
45.2481 2488 49.8799
45.3654 2504 50.04
45.4827 2423 49.224
45.6001 2399 48.9796
45.7174 2374 48.7237
45.8348 2408 49.0714
45.9522 2394 48.9285
46.0697 2320 48.1664
46.1871 2276 47.7074
46.3046 2211 47.0213
46.422 2124 46.0869
46.5395 2050 45.2769
46.657 2086 45.6727
46.7745 2209 47
46.892 2160 46.4758
47.0096 2139 46.2493
47.1271 2171 46.594
47.2446 2186 46.7547
47.3622 2184 46.7333
47.4797 2148 46.3465
47.5973 2144 46.3033
47.7149 2147 46.3357
47.8324 2090 45.7165
47.95 2004 44.7661
48.0675 1986 44.5646
48.1851 1992 44.6318
48.3027 1833 42.8135
48.4202 1935 43.9886
48.5378 1894 43.5201
48.6554 1847 42.9767
48.7729 1770 42.0714
48.8904 1887 43.4396
49.008 1822 42.6849
49.1255 1758 41.9285
49.243 1804 42.4735
49.3605 1790 42.3084
49.478 1766 42.0238
49.5955 1761 41.9643
49.713 1872 43.2666
49.8304 1774 42.1189
49.9479 1770 42.0714
50.0653 1750 41.833
50.1827 1802 42.45
50.3001 1822 42.6849
50.4175 1912 43.7264
50.5348 2050 45.2769
50.6521 2026 45.0111
50.7694 2181 46.7012
50.8867 2111 45.9456
51.004 2168 46.5618
51.1212 2066 45.4533
51.2384 2067 45.4643
51.3556 2001 44.7325
51.4727 1998 44.699
51.5899 1921 43.8292
51.707 1984 44.5421
51.824 2057 45.3542
51.9411 1909 43.6921
52.0581 1835 42.8369
52.175 1893 43.5086
52.2919 1934 43.9773
52.4088 1889 43.4626
52.5257 1896 43.5431
52.6425 1794 42.3556
52.7593 1810 42.5441
52.876 1745 41.7732
52.9927 1821 42.6732
53.1094 1817 42.6263
53.226 1725 41.5331
53.3426 1788 42.2847
53.4591 1638 40.4722
53.5756 1490 38.6005
53.692 1485 38.5357
53.8084 1480 38.4708
53.9248 1411 37.5633
54.0411 1319 36.318
54.1573 1148 33.8821
54.2735 0 1
54.3896 0 1
54.5057 0 1
54.6217 0 1
54.7377 0 1
54.8537 0 1
54.9695 0 1
55.0853 0 1
55.2011 0 1
55.3168 0 1
55.4324 0 1
57.824 0 1
57.9396 0 1
58.0553 0 1
58.1711 0 1
58.2869 0 1
58.4028 0 1
58.5187 0 1
58.6347 0 1
58.7508 0 1
58.8669 0 1
58.983 1588 39.8497
59.0992 1786 42.2611
59.2155 2057 45.3542
59.3318 2260 47.5395
59.4482 2451 49.5076
59.5646 2508 50.0799
59.681 2608 51.0686
59.7975 2689 51.8556
59.9141 2702 51.9808
60.0306 2696 51.923
60.1473 2643 51.4101
60.2639 2688 51.8459
60.3807 2632 51.303
60.4974 2551 50.5074
60.6142 2642 51.4004
60.731 2630 51.2835
60.8479 2502 50.02
60.9648 2504 50.04
61.0818 2511 50.1099
61.1987 2550 50.4975
61.3158 2555 50.547
61.4328 2576 50.7543
61.5499 2495 49.95
61.667 2648 51.4587
61.7841 2628 51.264
61.9013 2556 50.5569
62.0185 2527 50.2693
62.1357 2581 50.8035
62.253 2555 50.547
62.3702 2689 51.8556
62.4875 2793 52.8488
62.6049 2772 52.6498
62.7222 2905 53.8981
62.8396 3001 54.7814
62.9569 3021 54.9636
63.0743 3099 55.6687
63.1918 3120 55.857
63.3092 3068 55.3895
63.4267 2991 54.69
63.5441 2993 54.7083
63.6616 2843 53.3198
63.7791 2790 52.8205
63.8966 2814 53.0471
64.0142 2909 53.9351
64.1317 2812 53.0283
64.2492 2653 51.5073
64.3668 2646 51.4393
64.4843 2606 51.049
64.6019 2630 51.2835
64.7195 2696 51.923
64.837 2602 51.0098
64.9546 2570 50.6952
65.0722 2607 51.0588
65.1898 2767 52.6023
65.3074 2650 51.4782
65.4249 2616 51.1468
65.5425 2571 50.705
65.6601 2539 50.3885
65.7777 2499 49.99
65.8952 2688 51.8459
66.0128 2708 52.0384
66.1304 2854 53.4228
66.2479 3008 54.8452
66.3655 3137 56.0089
66.483 3214 56.6922
66.6005 3270 57.1839
66.718 3309 57.5239
66.8355 3276 57.2364
66.953 3218 56.7274
67.0705 3158 56.1961
67.1879 3105 55.7225
67.3054 2911 53.9537
67.4228 2804 52.9528
67.5402 2791 52.8299
67.6576 2735 52.2972
67.7749 2709 52.0481
67.8923 2719 52.144
68.0096 2656 51.5364
68.1269 2593 50.9215
68.2442 2734 52.2877
68.3614 2753 52.469
68.4787 2865 53.5257
68.5958 2660 51.5752
68.713 2642 51.4004
68.8302 2720 52.1536
68.9473 2645 51.4296
69.0643 2515 50.1498
69.1814 2431 49.3052
69.2984 2451 49.5076
69.4154 2433 49.3254
69.5323 2580 50.7937
69.6492 2642 51.4004
69.7661 2864 53.5164
69.8829 2840 53.2917
69.9997 2891 53.768
70.1165 2887 53.7308
70.2332 2844 53.3292
70.3499 2686 51.8266
70.4665 2540 50.3984
70.5831 2313 48.0937
70.6996 2221 47.1275
70.8161 2055 45.3321
70.9326 1831 42.7902
71.049 1675 40.9268
71.1653 1465 38.2753
71.2817 1439 37.9342
71.3979 1322 36.3593
71.5141 1235 35.1426
71.6303 1175 34.2783
71.7464 1065 32.6343
71.8624 0 1
71.9784 0 1
72.0944 0 1
72.2102 0 1
72.3261 0 1
72.4418 0 1
72.5575 0 1
72.6732 0 1
75.1054 0 1
75.2209 0 1
75.3365 0 1
75.4521 0 1
75.5678 0 1
75.6835 0 1
75.7993 0 1
75.9151 0 1
76.031 0 1
76.147 2220 47.1169
76.263 2345 48.4252
76.3791 2437 49.366
76.4952 2438 49.3761
76.6113 2439 49.3862
76.7276 2420 49.1935
76.8438 2464 49.6387
76.9601 2543 50.4282
77.0765 2537 50.3686
77.1929 2616 51.1468
77.3093 2585 50.8429
77.4258 2652 51.4976
77.5423 2654 51.517
77.6589 2724 52.192
77.7755 2668 51.6527
77.8921 2718 52.1344
78.0088 2564 50.636
78.1256 2308 48.0416
78.2423 2469 49.689
78.3591 2439 49.3862
78.4759 2498 49.98
78.5928 2722 52.1728
78.7097 2837 53.2635
78.8266 2929 54.1202
78.9436 3122 55.8749
79.0606 3198 56.5509
79.1776 3298 57.4282
79.2946 3418 58.4637
79.4117 3339 57.7841
79.5288 3336 57.7581
79.6459 3375 58.0948
79.7631 3394 58.258
79.8802 3150 56.1249
79.9974 2981 54.5985
80.1147 2897 53.8238
80.2319 2856 53.4416
80.3491 2925 54.0833
80.4664 3056 55.2811
80.5837 2918 54.0185
80.701 2990 54.6809
80.8183 2894 53.7959
80.9357 2905 53.8981
81.053 3047 55.1996
81.1704 3033 55.0727
81.2877 3036 55.0999
81.4051 3030 55.0454
81.5225 3059 55.3082
81.6399 2944 54.2586
81.7573 2721 52.1632
81.8747 2758 52.5167
81.9922 2735 52.2972
82.1096 2761 52.5452
82.227 2930 54.1295
82.3444 3228 56.8155
82.4619 3444 58.6856
82.5793 3522 59.3464
82.6967 3543 59.5231
82.8142 3563 59.6909
82.9316 3717 60.9672
83.049 3646 60.3821
83.1664 3747 61.2127
83.2838 3680 60.663
83.4012 3422 58.4979
83.5186 3350 57.8792
83.636 3257 57.0701
83.7534 3181 56.4004
83.8708 3223 56.7715
83.9881 3175 56.3471
84.1055 3182 56.4092
84.2228 3307 57.5065
84.3401 3250 57.0088
84.4575 3286 57.3236
84.5747 3315 57.576
84.692 3516 59.2959
84.8093 3429 58.5577
84.9265 3452 58.7537
85.0437 3388 58.2065
85.1609 3234 56.8683
85.2781 3109 55.7584
85.3952 2912 53.963
85.5123 2857 53.4509
85.6294 2947 54.2863
85.7465 3044 55.1725
85.8636 3303 57.4717
85.9806 3345 57.836
86.0976 3595 59.9583
86.2145 3748 61.2209
86.3315 3740 61.1555
86.4484 3892 62.3859
86.5652 3908 62.514
86.682 3815 61.7657
86.7988 3846 62.0161
86.9156 3821 61.8142
87.0323 3829 61.8789
87.149 3592 59.9333
87.2657 3552 59.5987
87.3823 3369 58.0431
87.4988 3251 57.0175
87.6154 3015 54.909
87.7318 3195 56.5243
87.8483 2925 54.0833
87.9647 2637 51.3517
88.081 2535 50.3488
88.1973 2435 49.3457
88.3136 2221 47.1275
88.4298 2155 46.422
88.546 1980 44.4972
88.6621 1743 41.7493
88.7781 1559 39.4842
88.8942 0 1
89.0101 0 1
89.126 0 1
89.2419 0 1
89.3577 0 1
89.4734 0 1
89.5891 0 1
89.7047 0 1
89.8203 0 1
89.9358 0 1
92.3269 0 1
92.4424 0 1
92.558 0 1
92.6736 0 1
92.7893 0 1
92.905 0 1
93.0208 0 1
93.1366 0 1
93.2525 0 1
93.3685 0 1
93.4845 0 1
93.6005 3113 55.7943
93.7167 3515 59.2874
93.8328 3603 60.025
93.949 3814 61.7576
94.0653 3997 63.2218
94.1816 4078 63.8592
94.2979 3976 63.0555
94.4143 3778 61.4654
94.5307 3732 61.0901
94.6472 3474 58.9406
94.7637 3436 58.6174
94.8803 3532 59.4306
94.9969 3719 60.9836
95.1135 3901 62.458
95.2302 4230 65.0385
95.3469 4293 65.521
95.4637 4382 66.1967
95.5805 4521 67.2384
95.6973 4838 69.5557
95.8142 4692 68.4982
95.9311 4679 68.4032
96.048 4657 68.2422
96.1649 4633 68.0661
96.2819 4611 67.9043
96.3989 4495 67.0448
96.516 4426 66.5282
96.633 4381 66.1891
96.7501 4326 65.7723
96.8673 4326 65.7723
96.9844 4273 65.3682
97.1016 4300 65.5744
97.2188 4384 66.2118
97.336 4390 66.2571
97.4532 4454 66.7383
97.5704 4552 67.4685
97.6877 4706 68.6003
97.805 4501 67.0895
97.9223 4518 67.2161
98.0396 4268 65.3299
98.1569 4060 63.7181
98.2743 3770 61.4003
98.3916 3539 59.4895
98.509 3674 60.6135
98.6264 3874 62.2415
98.7438 4022 63.4192
98.8612 4415 66.4455
98.9786 4655 68.2276
99.096 4837 69.5485
99.2134 4802 69.2965
99.3308 5130 71.624
99.4482 5083 71.2952
99.5656 5226 72.2911
99.6831 5168 71.8888
99.8005 5074 71.232
99.9179 4855 69.6778
100.035 4724 68.7314
100.153 4743 68.8694
100.27 4678 68.3959
100.388 4582 67.6905
100.505 4484 66.9627
100.622 4490 67.0075
100.74 4442 66.6483
100.857 4527 67.283
100.975 4391 66.2646
101.092 4606 67.8675
101.209 4755 68.9565
101.327 4910 70.0714
101.444 4777 69.1158
101.561 4449 66.7008
101.679 4221 64.9692
101.796 3903 62.474
101.913 3875 62.2495
102.03 3870 62.2093
102.148 3901 62.458
102.265 4185 64.6916
102.382 4585 67.7126
102.499 4816 69.3974
102.616 5007 70.7602
102.733 5083 71.2952
102.851 5160 71.8331
102.968 5218 72.2357
103.085 5299 72.7942
103.202 5291 72.7393
103.319 5190 72.0417
103.436 4979 70.562
103.552 4852 69.6563
103.669 4767 69.0435
103.786 4722 68.7168
103.903 4655 68.2276
104.02 4531 67.3127
104.137 4553 67.4759
104.253 4561 67.5352
104.37 4481 66.9403
104.487 4660 68.2642
104.603 4629 68.0368
104.72 4563 67.55
104.836 4402 66.3476
104.953 4076 63.8436
105.069 3792 61.5792
105.186 3403 58.3352
105.302 3067 55.3805
105.418 2810 53.0094
105.535 2523 50.2295
105.651 2374 48.7237
105.767 2298 47.9375
105.883 2232 47.244
105.999 2161 46.4866
106.115 0 1
106.231 0 1
106.347 0 1
106.463 0 1
106.579 0 1
106.694 0 1
106.81 0 1
106.926 0 1
107.041 0 1
107.157 0 1
109.576 0 1
109.692 0 1
109.807 0 1
109.923 0 1
110.039 0 1
110.155 0 1
110.27 0 1
110.386 0 1
110.502 0 1
110.618 2125 46.0977
110.735 2618 51.1664
110.851 3117 55.8301
110.967 3507 59.2199
111.083 3905 62.49
111.199 4312 65.6658
111.316 4419 66.4756
111.432 4485 66.9701
111.549 4604 67.8528
111.665 4576 67.6461
111.782 4618 67.9559
111.898 4512 67.1714
112.015 4531 67.3127
112.132 4365 66.0681
112.248 4326 65.7723
112.365 4329 65.7951
112.482 4193 64.7534
112.599 4321 65.7343
112.716 4150 64.4205
112.832 4241 65.123
112.949 4174 64.6065
113.066 4169 64.5678
113.183 4266 65.3146
113.3 4314 65.681
113.417 4327 65.7799
113.534 4309 65.643
113.652 4067 63.773
113.769 3892 62.3859
113.886 3571 59.7578
114.003 3490 59.0762
114.12 3404 58.3438
114.238 3397 58.2838
114.355 3706 60.8769
114.472 3848 62.0322
114.589 4583 67.6979
114.707 4557 67.5056
114.824 4646 68.1616
114.942 4611 67.9043
115.059 4692 68.4982
115.176 4781 69.1448
115.294 4767 69.0435
115.411 4707 68.6076
115.529 4643 68.1396
115.646 4320 65.7267
115.764 4378 66.1665
115.881 4190 64.7302
115.999 4009 63.3167
116.116 4178 64.6375
116.234 3961 62.9365
116.351 4080 63.8749
116.469 3940 62.7694
116.586 4033 63.5059
116.704 3964 62.9603
116.821 4287 65.4752
116.939 4165 64.5368
117.056 4179 64.6452
117.174 3963 62.9524
117.291 3798 61.6279
117.409 3606 60.05
117.526 3486 59.0424
117.644 3277 57.2451
117.761 3360 57.9655
117.879 3358 57.9483
117.996 3625 60.208
118.114 4033 63.5059
118.231 4322 65.7419
118.349 4324 65.7571
118.466 4341 65.8863
118.584 4411 66.4154
118.701 4480 66.9328
118.819 4423 66.5056
118.936 4358 66.0151
119.053 4297 65.5515
119.171 4150 64.4205
119.288 4109 64.1015
119.405 4044 63.5925
119.523 3880 62.2896
119.64 3846 62.0161
119.757 3975 63.0476
119.875 3702 60.8441
119.992 3743 61.1801
120.109 3646 60.3821
120.226 3735 61.1146
120.343 3733 61.0983
120.46 3773 61.4248
120.578 3900 62.45
120.695 3743 61.1801
120.812 3623 60.1914
120.929 3595 59.9583
121.046 3413 58.4209
121.163 3189 56.4712
121.279 3033 55.0727
121.396 2885 53.7122
121.513 2838 53.2729
121.63 2951 54.3231
121.747 3091 55.5968
121.863 3211 56.6657
121.98 3142 56.0535
122.097 3166 56.2672
122.213 2966 54.461
122.33 2894 53.7959
122.446 2768 52.6118
122.563 2553 50.5272
122.679 2438 49.3761
122.795 2345 48.4252
122.912 2212 47.0319
123.028 1973 44.4185
123.144 1914 43.7493
123.26 1671 40.8779
123.377 0 1
123.493 0 1
123.609 0 1
123.725 0 1
123.84 0 1
123.956 0 1
124.072 0 1
124.188 0 1
124.303 0 1
124.419 0 1
126.852 0 1
126.968 0 1
127.083 0 1
127.199 0 1
127.315 0 1
127.431 0 1
127.547 0 1
127.663 0 1
127.779 0 1
127.895 0 1
128.011 0 1
128.127 0 1
128.243 0 1
128.359 3846 62.0161
128.476 3871 62.2174
128.592 3834 61.9193
128.708 3704 60.8605
128.825 3659 60.4897
128.941 3714 60.9426
129.058 3685 60.7042
129.174 3645 60.3738
129.291 3612 60.0999
129.408 3617 60.1415
129.524 3714 60.9426
129.641 3799 61.636
129.758 3729 61.0655
129.875 3651 60.4235
129.992 3728 61.0574
130.108 3470 58.9067
130.225 3256 57.0614
130.342 3146 56.0892
130.459 2988 54.6626
130.576 3030 55.0454
130.693 3157 56.1872
130.81 3487 59.0508
130.928 3646 60.3821
131.045 3794 61.5955
131.162 3903 62.474
131.279 3913 62.554
131.396 3922 62.6259
131.513 4072 63.8122
131.631 3878 62.2736
131.748 3884 62.3217
131.865 3914 62.562
131.983 3812 61.7414
132.1 3822 61.8223
132.217 3647 60.3904
132.335 3556 59.6322
132.452 3750 61.2372
132.57 3614 60.1166
132.687 3668 60.564
132.804 3560 59.6657
132.922 3627 60.2246
133.039 3706 60.8769
133.157 3746 61.2046
133.274 3751 61.2454
133.392 3788 61.5467
133.509 3615 60.1249
133.627 3582 59.8498
133.744 3456 58.7878
133.862 3314 57.5674
133.979 3201 56.5774
134.097 3132 55.9643
134.214 3379 58.1292
134.332 3371 58.0603
134.449 3786 61.5305
134.567 4025 63.4429
134.684 4126 64.2339
134.802 4233 65.0615
134.919 4184 64.6838
135.037 4231 65.0461
135.154 4100 64.0312
135.272 4217 64.9384
135.389 4171 64.5833
135.507 4229 65.0308
135.624 4218 64.9461
135.742 4298 65.5591
135.859 4164 64.5291
135.977 4076 63.8436
136.094 4102 64.0469
136.211 4139 64.3351
136.329 4086 63.9218
136.446 4056 63.6867
136.564 4130 64.2651
136.681 4123 64.2106
136.798 4147 64.3972
136.915 4101 64.0391
137.033 4029 63.4744
137.15 4058 63.7024
137.267 3885 62.3298
137.384 3850 62.0484
137.502 3533 59.439
137.619 3423 58.5064
137.736 3323 57.6455
137.853 3313 57.5587
137.97 3634 60.2827
138.087 3820 61.8061
138.204 4084 63.9062
138.321 4092 63.9687
138.438 4131 64.2729
138.555 4027 63.4586
138.672 3995 63.206
138.788 3942 62.7853
138.905 3804 61.6766
139.022 3636 60.2993
139.139 3476 58.9576
139.255 3388 58.2065
139.372 3192 56.4978
139.488 3007 54.8361
139.605 2895 53.8052
139.721 2663 51.6043
139.838 2560 50.5964
139.954 2356 48.5386
140.071 2262 47.5605
140.187 2165 46.5296
140.303 2004 44.7661
140.419 1945 44.1022
140.535 1880 43.359
140.652 1734 41.6413
140.768 0 1
140.884 0 1
141 0 1
141.115 0 1
141.231 0 1
141.347 0 1
141.463 0 1
141.578 0 1
141.694 0 1
144.104 0 1
144.219 0 1
144.335 0 1
144.45 0 1
144.566 0 1
144.682 0 1
144.798 0 1
144.914 0 1
145.03 0 1
145.146 2933 54.1572
145.262 3131 55.9553
145.378 3138 56.0179
145.494 3114 55.8032
145.61 3105 55.7225
145.726 3164 56.2494
145.842 3104 55.7136
145.959 3103 55.7046
146.075 3098 55.6597
146.192 3061 55.3263
146.308 2969 54.4885
146.425 2731 52.259
146.541 2731 52.259
146.658 2740 52.345
146.774 2668 51.6527
146.891 2959 54.3967
147.008 2960 54.4059
147.125 3094 55.6237
147.241 3309 57.5239
147.358 3394 58.258
147.475 3267 57.1577
147.592 3216 56.7098
147.709 3309 57.5239
147.826 3287 57.3324
147.943 3198 56.5509
148.06 3286 57.3236
148.177 3245 56.9649
148.294 3369 58.0431
148.411 3375 58.0948
148.528 3126 55.9106
148.645 3230 56.8331
148.762 3222 56.7627
148.88 3069 55.3986
148.997 3262 57.1139
149.114 3070 55.4076
149.231 3130 55.9464
149.349 3197 56.542
149.466 3154 56.1605
149.583 3087 55.5608
149.701 3033 55.0727
149.818 3002 54.7905
149.935 2945 54.2679
150.053 2935 54.1756
150.17 2659 51.5655
150.287 2723 52.1824
150.405 2712 52.0769
150.522 2861 53.4883
150.64 3088 55.5698
150.757 3143 56.0625
150.875 3207 56.6304
150.992 3276 57.2364
151.11 3305 57.4891
151.227 3164 56.2494
151.344 3228 56.8155
151.462 3191 56.4889
151.579 3245 56.9649
151.697 3258 57.0789
151.814 3407 58.3695
151.932 3276 57.2364
152.049 3176 56.356
152.167 3255 57.0526
152.284 3143 56.0625
152.402 3086 55.5518
152.519 3126 55.9106
152.636 3020 54.9545
152.754 3060 55.3173
152.871 3096 55.6417
152.989 3055 55.2721
153.106 3105 55.7225
153.223 3022 54.9727
153.341 2998 54.754
153.458 2927 54.1018
153.575 2756 52.4976
153.693 2665 51.6236
153.81 2641 51.3907
153.927 2652 51.4976
154.044 2642 51.4004
154.162 2842 53.3104
154.279 2945 54.2679
154.396 3137 56.0089
154.513 3121 55.8659
154.63 3069 55.3986
154.747 3154 56.1605
154.864 3040 55.1362
154.981 3178 56.3738
155.098 2989 54.6717
155.215 3115 55.8122
155.332 3091 55.5968
155.449 3139 56.0268
155.566 3023 54.9818
155.683 2919 54.0278
155.8 2818 53.0848
155.917 2957 54.3783
156.033 2697 51.9326
156.15 0 1
156.267 0 1
156.383 0 1
156.5 0 1
156.617 0 1
156.733 0 1
156.85 0 1
156.966 0 1
157.082 0 1
157.199 0 1
157.315 0 1
157.431 0 1
157.547 0 1
157.664 0 1
157.78 0 1
157.896 0 1
158.012 0 1
158.128 0 1
158.244 0 1
158.359 0 1
158.475 0 1
158.591 0 1
158.706 0 1
