
6.15755 0 1
6.2731 0 1
6.3887 0 1
6.50437 0 1
6.62009 0 1
6.73587 0 1
6.8517 0 1
6.96759 0 1
7.08353 0 1
7.19952 0 1
7.31557 0 1
7.43166 0 1
7.54781 0 1
7.664 0 1
7.78024 0 1
7.89653 0 1
8.01286 0 1
8.12924 0 1
8.24567 0 1
8.36213 0 1
8.47864 0 1
8.59519 0 1
8.71178 0 1
8.82841 0 1
8.94508 0 1
9.06179 0 1
9.17853 0 1
9.29531 0 1
9.41212 0 1
9.52897 0 1
9.64584 0 1
9.76276 0 1
9.8797 0 1
9.99667 0 1
10.1137 0 1
10.2307 0 1
10.3478 0 1
10.4648 0 1
10.5819 0 1
10.6991 0 1
10.8162 0 1
10.9334 0 1
11.0506 0 1
11.1678 0 1
11.285 0 1
11.4023 0 1
11.5196 0 1
11.6369 0 1
11.7542 0 1
11.8715 0 1
11.9888 0 1
12.1062 0 1
12.2235 0 1
12.3409 0 1
12.4582 0 1
12.5756 0 1
12.693 0 1
12.8104 0 1
12.9278 0 1
13.0452 0 1
13.1626 0 1
13.28 0 1
13.3974 0 1
13.5149 0 1
13.6323 0 1
13.7497 0 1
13.8671 0 1
13.9845 0 1
14.1019 0 1
14.2193 0 1
14.3367 0 1
14.4541 0 1
14.5714 0 1
14.6888 0 1
14.8062 0 1
14.9235 0 1
15.0408 1749 41.821
15.1581 1863 43.1625
15.2755 1902 43.6119
15.3927 2046 45.2327
15.51 2078 45.5851
15.6273 2076 45.5631
15.7445 2096 45.7821
15.8617 2078 45.5851
15.9789 1873 43.2782
16.0961 2007 44.7996
16.2132 1969 44.3734
16.3304 2035 45.111
16.4475 2136 46.2169
16.5646 2129 46.1411
16.6816 2289 47.8435
16.7986 2361 48.5901
16.9156 2372 48.7032
17.0326 2431 49.3052
17.1496 2358 48.5592
17.2665 2403 49.0204
17.3833 2293 47.8853
17.5002 2304 48
17.617 2253 47.4658
17.7338 2147 46.3357
17.8505 2097 45.793
17.9672 2049 45.2659
18.0839 2095 45.7712
18.2005 2182 46.7119
18.3171 2093 45.7493
18.4337 2158 46.4543
18.5502 2187 46.7654
18.6666 2186 46.7547
18.7831 2270 47.6445
18.8994 2366 48.6415
19.0158 2370 48.6826
19.1321 2225 47.1699
19.2483 2161 46.4866
19.3645 2139 46.2493
19.4806 1875 43.3013
19.5967 1813 42.5793
19.7128 1706 41.3038
19.8288 1575 39.6863
19.9447 1507 38.8201
20.0606 0 1
20.1764 0 1
20.2922 0 1
20.4079 0 1
20.5236 0 1
20.6392 0 1
20.7548 0 1
20.8702 0 1
23.3078 0 1
23.4233 0 1
23.539 0 1
23.6547 0 1
23.7704 0 1
23.8862 0 1
24.0021 0 1
24.118 0 1
24.234 0 1
24.35 0 1
24.4661 957 30.9354
24.5822 1086 32.9545
24.6984 1263 35.5387
24.8146 1402 37.4433
24.9309 1592 39.8999
25.0472 1652 40.6448
25.1636 1852 43.0349
25.28 2013 44.8665
25.3965 2190 46.7974
25.513 2326 48.2286
25.6296 2368 48.6621
25.7462 2516 50.1597
25.8628 2412 49.1121
25.9795 2573 50.7247
26.0962 2497 49.97
26.213 2461 49.6085
26.3298 2302 47.9792
26.4466 2191 46.8081
26.5635 2187 46.7654
26.6804 2212 47.0319
26.7973 2257 47.5079
26.9143 2277 47.7179
27.0313 2294 47.8957
27.1483 2334 48.3115
27.2653 2385 48.8365
27.3824 2460 49.5984
27.4996 2415 49.1426
27.6167 2399 48.9796
27.7339 2245 47.3814
27.8511 2299 47.9479
27.9683 2297 47.927
28.0855 2139 46.2493
28.2028 2066 45.4533
28.3201 2022 44.9667
28.4374 2006 44.7884
28.5547 2114 45.9783
28.6721 2185 46.744
28.7894 2106 45.8912
28.9068 2243 47.3603
29.0242 2472 49.7192
29.1416 2581 50.8035
29.259 2414 49.1325
29.3764 2468 49.679
29.4939 2497 49.97
29.6113 2471 49.7092
29.7288 2291 47.8644
29.8463 2246 47.392
29.9638 2102 45.8476
30.0812 2054 45.3211
30.1987 2163 46.5081
30.3162 2141 46.2709
30.4337 2122 46.0652
30.5512 2254 47.4763
30.6687 2252 47.4552
30.7862 2308 48.0416
30.9037 2325 48.2183
31.0212 2300 47.9583
31.1387 2325 48.2183
31.2562 2355 48.5283
31.3737 2213 47.0425
31.4912 2152 46.3897
31.6087 2124 46.0869
31.7262 2129 46.1411
31.8436 2110 45.9347
31.9611 2004 44.7661
32.0785 1964 44.317
32.1959 2057 45.3542
32.3134 2130 46.1519
32.4308 2172 46.6047
32.5482 2352 48.4974
32.6655 2263 47.571
32.7829 2443 49.4267
32.9002 2369 48.6724
33.0176 2325 48.2183
33.1349 2379 48.775
33.2522 2270 47.6445
33.3694 2141 46.2709
33.4867 2118 46.0217
33.6039 1966 44.3396
33.7211 1950 44.1588
33.8383 1900 43.589
33.9554 1927 43.8976
34.0725 2151 46.3789
34.1896 2137 46.2277
34.3067 2142 46.2817
34.4237 2247 47.4025
34.5407 2192 46.8188
34.6577 2215 47.0638
34.7746 2258 47.5184
34.8915 2195 46.8508
35.0084 2191 46.8081
35.1252 2098 45.8039
35.242 2066 45.4533
35.3587 2045 45.2217
35.4755 1986 44.5646
35.5921 1916 43.7721
35.7088 1832 42.8019
35.8254 1898 43.566
35.9419 1977 44.4635
36.0584 2001 44.7325
36.1749 2041 45.1774
36.2913 2119 46.0326
36.4077 2123 46.076
36.524 2092 45.7384
36.6403 2023 44.9778
36.7565 1900 43.589
36.8727 1828 42.7551
36.9889 1657 40.7063
37.1049 1508 38.833
37.221 0 1
37.3369 0 1
37.4529 0 1
37.5687 0 1
37.6845 0 1
37.8003 0 1
37.916 0 1
38.0316 0 1
38.1472 0 1
40.5851 0 1
40.7008 0 1
40.8164 0 1
40.9322 0 1
41.048 0 1
41.1639 0 1
41.2798 0 1
41.3958 0 1
41.5118 0 1
41.6279 0 1
41.744 1083 32.909
41.8602 1195 34.5688
41.9765 1320 36.3318
42.0928 1316 36.2767
42.2091 1370 37.0135
42.3255 1359 36.8646
42.4419 1299 36.0416
42.5584 1371 37.027
42.675 1529 39.1024
42.7915 1616 40.1995
42.9081 1615 40.1871
43.0248 1661 40.7554
43.1415 1752 41.8569
43.2582 1793 42.3438
43.375 1901 43.6005
43.4918 1866 43.1972
43.6087 1767 42.0357
43.7256 1870 43.2435
43.8425 1690 41.1096
43.9595 1779 42.1782
44.0765 1719 41.4608
44.1935 1750 41.833
44.3106 1583 39.7869
44.4277 1532 39.1408
44.5448 1565 39.5601
44.6619 1606 40.0749
44.7791 1721 41.4849
44.8963 1695 41.1704
45.0136 1867 43.2088
45.1308 1880 43.359
45.2481 1907 43.6692
45.3654 1906 43.6578
45.4827 1925 43.8748
45.6001 1858 43.1045
45.7174 1878 43.3359
45.8348 1773 42.107
45.9522 1638 40.4722
46.0697 1579 39.7366
46.1871 1536 39.1918
46.3046 1556 39.4462
46.422 1639 40.4846
46.5395 1744 41.7612
46.657 1765 42.0119
46.7745 1798 42.4028
46.892 1895 43.5316
47.0096 1930 43.9318
47.1271 2000 44.7214
47.2446 1989 44.5982
47.3622 1909 43.6921
47.4797 1800 42.4264
47.5973 1813 42.5793
47.7149 1733 41.6293
47.8324 1756 41.9047
47.95 1632 40.398
48.0675 1616 40.1995
48.1851 1594 39.9249
48.3027 1566 39.5727
48.4202 1830 42.7785
48.5378 1817 42.6263
48.6554 1897 43.5546
48.7729 1924 43.8634
48.8904 1956 44.2267
49.008 1963 44.3058
49.1255 1911 43.715
49.243 1828 42.7551
49.3605 1747 41.7971
49.478 1637 40.4599
49.5955 1534 39.1663
49.713 1422 37.7094
49.8304 1544 39.2938
49.9479 1617 40.2119
50.0653 1681 41
50.1827 1740 41.7133
50.3001 1815 42.6028
50.4175 1901 43.6005
50.5348 1916 43.7721
50.6521 1918 43.795
50.7694 1972 44.4072
50.8867 2027 45.0222
51.004 1893 43.5086
51.1212 1958 44.2493
51.2384 1916 43.7721
51.3556 1840 42.8952
51.4727 1762 41.9762
51.5899 1701 41.2432
51.707 1659 40.7308
51.824 1764 42
51.9411 1972 44.4072
52.0581 2103 45.8585
52.175 2198 46.8828
52.2919 2239 47.3181
52.4088 2284 47.7912
52.5257 2291 47.8644
52.6425 2341 48.3839
52.7593 2381 48.7955
52.876 2277 47.7179
52.9927 2166 46.5403
53.1094 2031 45.0666
53.226 1951 44.1701
53.3426 1849 43
53.4591 1951 44.1701
53.5756 1899 43.5775
53.692 1980 44.4972
53.8084 1808 42.5206
53.9248 1867 43.2088
54.0411 1734 41.6413
54.1573 1711 41.3642
54.2735 0 1
54.3896 0 1
54.5057 0 1
54.6217 0 1
54.7377 0 1
54.8537 0 1
54.9695 0 1
55.0853 0 1
55.2011 0 1
55.3168 0 1
55.4324 0 1
57.824 0 1
57.9396 0 1
58.0553 0 1
58.1711 0 1
58.2869 0 1
58.4028 0 1
58.5187 0 1
58.6347 0 1
58.7508 0 1
58.8669 0 1
58.983 1494 38.6523
59.0992 1700 41.2311
59.2155 1920 43.8178
59.3318 1862 43.1509
59.4482 2026 45.0111
59.5646 2166 46.5403
59.681 2125 46.0977
59.7975 2220 47.1169
59.9141 2179 46.6798
60.0306 2129 46.1411
60.1473 2101 45.8367
60.2639 2014 44.8776
60.3807 2025 45
60.4974 2045 45.2217
60.6142 2112 45.9565
60.731 2277 47.7179
60.8479 2325 48.2183
60.9648 2322 48.1871
61.0818 2358 48.5592
61.1987 2406 49.051
61.3158 2355 48.5283
61.4328 2220 47.1169
61.5499 2107 45.9021
61.667 1952 44.1814
61.7841 1871 43.2551
61.9013 1826 42.7317
62.0185 1788 42.2847
62.1357 1948 44.1362
62.253 2023 44.9778
62.3702 2149 46.3573
62.4875 2243 47.3603
62.6049 2204 46.9468
62.7222 2262 47.5605
62.8396 2280 47.7493
62.9569 2398 48.9694
63.0743 2325 48.2183
63.1918 2318 48.1456
63.3092 2370 48.6826
63.4267 2212 47.0319
63.5441 2154 46.4112
63.6616 2043 45.1996
63.7791 1954 44.2041
63.8966 1836 42.8486
64.0142 1963 44.3058
64.1317 2113 45.9674
64.2492 2259 47.5289
64.3668 2283 47.7807
64.4843 2406 49.051
64.6019 2365 48.6313
64.7195 2354 48.518
64.837 2375 48.734
64.9546 2258 47.5184
65.0722 2152 46.3897
65.1898 2085 45.6618
65.3074 1877 43.3244
65.4249 1802 42.45
65.5425 1782 42.2137
65.6601 1812 42.5676
65.7777 1921 43.8292
65.8952 2116 46
66.0128 2064 45.4313
66.1304 2210 47.0106
66.2479 2312 48.0833
66.3655 2308 48.0416
66.483 2301 47.9687
66.6005 2241 47.3392
66.718 2212 47.0319
66.8355 2256 47.4974
66.953 2238 47.3075
67.0705 2146 46.3249
67.1879 2094 45.7602
67.3054 2128 46.1303
67.4228 1890 43.4741
67.5402 1815 42.6028
67.6576 1907 43.6692
67.7749 1925 43.8748
67.8923 2028 45.0333
68.0096 2184 46.7333
68.1269 2312 48.0833
68.2442 2338 48.3529
68.3614 2270 47.6445
68.4787 2281 47.7598
68.5958 2181 46.7012
68.713 2079 45.5961
68.8302 2040 45.1664
68.9473 1785 42.2493
69.0643 1655 40.6817
69.1814 1618 40.2244
69.2984 1722 41.497
69.4154 1796 42.3792
69.5323 1937 44.0114
69.6492 2025 45
69.7661 2147 46.3357
69.8829 2145 46.3141
69.9997 2128 46.1303
70.1165 2061 45.3982
70.2332 1975 44.441
70.3499 1971 44.3959
70.4665 1775 42.1307
70.5831 1700 41.2311
70.6996 1671 40.8779
70.8161 1573 39.6611
70.9326 1419 37.6696
71.049 1217 34.8855
71.1653 1083 32.909
71.2817 957 30.9354
71.3979 878 29.6311
71.5141 858 29.2916
71.6303 827 28.7576
71.7464 732 27.0555
71.8624 0 1
71.9784 0 1
72.0944 0 1
72.2102 0 1
72.3261 0 1
72.4418 0 1
72.5575 0 1
72.6732 0 1
75.1054 0 1
75.2209 0 1
75.3365 0 1
75.4521 0 1
75.5678 0 1
75.6835 0 1
75.7993 0 1
75.9151 0 1
76.031 0 1
76.147 1377 37.108
76.263 1501 38.7427
76.3791 1433 37.855
76.4952 1522 39.0128
76.6113 1557 39.4588
76.7276 1585 39.8121
76.8438 1805 42.4853
76.9601 1848 42.9884
77.0765 1946 44.1135
77.1929 2041 45.1774
77.3093 1983 44.5309
77.4258 1947 44.1248
77.5423 1904 43.6348
77.6589 1887 43.4396
77.7755 1597 39.9625
77.8921 1456 38.1576
78.0088 1409 37.5366
78.1256 1398 37.3898
78.2423 1359 36.8646
78.3591 1509 38.8458
78.4759 1579 39.7366
78.5928 1746 41.7852
78.7097 1843 42.9302
78.8266 1823 42.6966
78.9436 1953 44.1928
79.0606 1981 44.5084
79.1776 1991 44.6206
79.2946 1960 44.2719
79.4117 1937 44.0114
79.5288 1904 43.6348
79.6459 1959 44.2606
79.7631 1946 44.1135
79.8802 1747 41.7971
79.9974 1720 41.4729
80.1147 1566 39.5727
80.2319 1587 39.8372
80.3491 1661 40.7554
80.4664 1793 42.3438
80.5837 1909 43.6921
80.701 1994 44.6542
80.8183 2148 46.3465
80.9357 2090 45.7165
81.053 2104 45.8694
81.1704 2011 44.8442
81.2877 2051 45.288
81.4051 1949 44.1475
81.5225 1784 42.2374
81.6399 1559 39.4842
81.7573 1486 38.5487
81.8747 1458 38.1838
81.9922 1404 37.47
82.1096 1540 39.2428
82.227 1756 41.9047
82.3444 1806 42.4971
82.4619 1926 43.8862
82.5793 1970 44.3847
82.6967 2016 44.8999
82.8142 2154 46.4112
82.9316 2116 46
83.049 1980 44.4972
83.1664 1981 44.5084
83.2838 2048 45.2548
83.4012 2011 44.8442
83.5186 1960 44.2719
83.636 1804 42.4735
83.7534 1716 41.4246
83.8708 1567 39.5854
83.9881 1617 40.2119
84.1055 1777 42.1545
84.2228 1852 43.0349
84.3401 1946 44.1135
84.4575 2040 45.1664
84.5747 2145 46.3141
84.692 2105 45.8803
84.8093 2117 46.0109
84.9265 2111 45.9456
85.0437 1912 43.7264
85.1609 1681 41
85.2781 1561 39.5095
85.3952 1486 38.5487
85.5123 1419 37.6696
85.6294 1464 38.2623
85.7465 1633 40.4104
85.8636 1833 42.8135
85.9806 1837 42.8602
86.0976 1920 43.8178
86.2145 1993 44.643
86.3315 2068 45.4753
86.4484 2073 45.5302
86.5652 2142 46.2817
86.682 2163 46.5081
86.7988 2106 45.8912
86.9156 2072 45.5192
87.0323 2043 45.1996
87.149 2022 44.9667
87.2657 1860 43.1277
87.3823 1575 39.6863
87.4988 1456 38.1576
87.6154 1399 37.4032
87.7318 1475 38.4057
87.8483 1500 38.7298
87.9647 1671 40.8779
88.081 1619 40.2368
88.1973 1554 39.4208
88.3136 1527 39.0768
88.4298 1525 39.0512
88.546 1350 36.7423
88.6621 1181 34.3657
88.7781 932 30.5287
88.8942 0 1
89.0101 0 1
89.126 0 1
89.2419 0 1
89.3577 0 1
89.4734 0 1
89.5891 0 1
89.7047 0 1
89.8203 0 1
89.9358 0 1
92.3269 0 1
92.4424 0 1
92.558 0 1
92.6736 0 1
92.7893 0 1
92.905 0 1
93.0208 0 1
93.1366 0 1
93.2525 0 1
93.3685 0 1
93.4845 0 1
93.6005 1609 40.1123
93.7167 1712 41.3763
93.8328 1752 41.8569
93.949 1873 43.2782
94.0653 1759 41.9404
94.1816 1726 41.5452
94.2979 1720 41.4729
94.4143 1679 40.9756
94.5307 1547 39.3319
94.6472 1452 38.1051
94.7637 1475 38.4057
94.8803 1658 40.7185
94.9969 1852 43.0349
95.1135 1908 43.6807
95.2302 1989 44.5982
95.3469 1956 44.2267
95.4637 2041 45.1774
95.5805 2151 46.3789
95.6973 2114 45.9783
95.8142 2152 46.3897
95.9311 2146 46.3249
96.048 2049 45.2659
96.1649 2018 44.9222
96.2819 2008 44.8107
96.3989 2023 44.9778
96.516 1903 43.6234
96.633 1740 41.7133
96.7501 1702 41.2553
96.8673 1758 41.9285
96.9844 1814 42.5911
97.1016 1931 43.9431
97.2188 2101 45.8367
97.336 2174 46.6262
97.4532 2056 45.3431
97.5704 2205 46.9574
97.6877 2213 47.0425
97.805 2064 45.4313
97.9223 1934 43.9773
98.0396 1664 40.7922
98.1569 1626 40.3237
98.2743 1531 39.128
98.3916 1570 39.6232
98.509 1645 40.5586
98.6264 1862 43.1509
98.7438 1958 44.2493
98.8612 2041 45.1774
98.9786 2058 45.3652
99.096 2074 45.5412
99.2134 2254 47.4763
99.3308 2128 46.1303
99.4482 2207 46.9787
99.5656 2157 46.4435
99.6831 2197 46.8722
99.8005 2215 47.0638
99.9179 2147 46.3357
100.035 2068 45.4753
100.153 1978 44.4747
100.27 1849 43
100.388 1859 43.1161
100.505 1912 43.7264
100.622 2091 45.7275
100.74 2242 47.3498
100.857 2206 46.9681
100.975 2245 47.3814
101.092 2240 47.3286
101.209 2277 47.7179
101.327 2288 47.833
101.444 2184 46.7333
101.561 1990 44.6094
101.679 1847 42.9767
101.796 1719 41.4608
101.913 1620 40.2492
102.03 1655 40.6817
102.148 1806 42.4971
102.265 1969 44.3734
102.382 2179 46.6798
102.499 2173 46.6154
102.616 2289 47.8435
102.733 2442 49.4166
102.851 2333 48.3011
102.968 2324 48.2079
103.085 2348 48.4562
103.202 2335 48.3218
103.319 2224 47.1593
103.436 2293 47.8853
103.552 2175 46.6369
103.669 2091 45.7275
103.786 2010 44.833
103.903 1953 44.1928
104.02 1960 44.2719
104.137 2172 46.6047
104.253 2094 45.7602
104.37 2467 49.6689
104.487 2398 48.9694
104.603 2380 48.7852
104.72 2375 48.734
104.836 2291 47.8644
104.953 2043 45.1996
105.069 1865 43.1856
105.186 1603 40.0375
105.302 1507 38.8201
105.418 1475 38.4057
105.535 1331 36.4829
105.651 1422 37.7094
105.767 1452 38.1051
105.883 1423 37.7227
105.999 1457 38.1707
106.115 0 1
106.231 0 1
106.347 0 1
106.463 0 1
106.579 0 1
106.694 0 1
106.81 0 1
106.926 0 1
107.041 0 1
107.157 0 1
109.576 0 1
109.692 0 1
109.807 0 1
109.923 0 1
110.039 0 1
110.155 0 1
110.27 0 1
110.386 0 1
110.502 0 1
110.618 1053 32.45
110.735 1334 36.524
110.851 1445 38.0132
110.967 1697 41.1947
111.083 1769 42.0595
111.199 2005 44.7772
111.316 2107 45.9021
111.432 2119 46.0326
111.549 2195 46.8508
111.665 2154 46.4112
111.782 2152 46.3897
111.898 2237 47.2969
112.015 2125 46.0977
112.132 1994 44.6542
112.248 1905 43.6463
112.365 1790 42.3084
112.482 1877 43.3244
112.599 1920 43.8178
112.716 2028 45.0333
112.832 2232 47.244
112.949 2138 46.2385
113.066 2240 47.3286
113.183 2142 46.2817
113.3 2214 47.0532
113.417 2227 47.1911
113.534 1922 43.8406
113.652 1852 43.0349
113.769 1698 41.2068
113.886 1634 40.4228
114.003 1556 39.4462
114.12 1674 40.9145
114.238 1834 42.8252
114.355 1978 44.4747
114.472 1899 43.5775
114.589 2126 46.1086
114.707 2134 46.1952
114.824 2235 47.2758
114.942 2274 47.6865
115.059 2219 47.1063
115.176 2179 46.6798
115.294 2209 47
115.411 2087 45.6837
115.529 2160 46.4758
115.646 2102 45.8476
115.764 1985 44.5533
115.881 1898 43.566
115.999 1825 42.72
116.116 1865 43.1856
116.234 2025 45
116.351 2149 46.3573
116.469 2198 46.8828
116.586 2260 47.5395
116.704 2216 47.0744
116.821 2292 47.8748
116.939 2230 47.2229
117.056 2073 45.5302
117.174 1998 44.699
117.291 1853 43.0465
117.409 1761 41.9643
117.526 1570 39.6232
117.644 1535 39.1791
117.761 1745 41.7732
117.879 1969 44.3734
117.996 2036 45.1221
118.114 2062 45.4093
118.231 2193 46.8295
118.349 2137 46.2277
118.466 2177 46.6583
118.584 2152 46.3897
118.701 2176 46.6476
118.819 2211 47.0213
118.936 2196 46.8615
119.053 2043 45.1996
119.171 2100 45.8258
119.288 1976 44.4522
119.405 1903 43.6234
119.523 1785 42.2493
119.64 1850 43.0116
119.757 1838 42.8719
119.875 1908 43.6807
119.992 1973 44.4185
120.109 2099 45.8148
120.226 2130 46.1519
120.343 2091 45.7275
120.46 2027 45.0222
120.578 2041 45.1774
120.695 1990 44.6094
120.812 2059 45.3762
120.929 1822 42.6849
121.046 1636 40.4475
121.163 1532 39.1408
121.279 1460 38.2099
121.396 1507 38.8201
121.513 1590 39.8748
121.63 1635 40.4351
121.747 1672 40.8901
121.863 1705 41.2916
121.98 1652 40.6448
122.097 1710 41.3521
122.213 1574 39.6737
122.33 1592 39.8999
122.446 1525 39.0512
122.563 1547 39.3319
122.679 1425 37.7492
122.795 1261 35.5106
122.912 1170 34.2053
123.028 992 31.496
123.144 909 30.1496
123.26 866 29.4279
123.377 0 1
123.493 0 1
123.609 0 1
123.725 0 1
123.84 0 1
123.956 0 1
124.072 0 1
124.188 0 1
124.303 0 1
124.419 0 1
126.852 0 1
126.968 0 1
127.083 0 1
127.199 0 1
127.315 0 1
127.431 0 1
127.547 0 1
127.663 0 1
127.779 0 1
127.895 0 1
128.011 0 1
128.127 0 1
128.243 0 1
128.359 1890 43.4741
128.476 1946 44.1135
128.592 1929 43.9204
128.708 2028 45.0333
128.825 1996 44.6766
128.941 2078 45.5851
129.058 2138 46.2385
129.174 2286 47.8121
129.291 2323 48.1975
129.408 2271 47.655
129.524 2316 48.1248
129.641 2193 46.8295
129.758 2198 46.8828
129.875 2023 44.9778
129.992 1806 42.4971
130.108 1766 42.0238
130.225 1653 40.6571
130.342 1672 40.8901
130.459 1714 41.4005
130.576 1932 43.9545
130.693 2076 45.5631
130.81 2225 47.1699
130.928 2137 46.2277
131.045 2137 46.2277
131.162 2230 47.2229
131.279 2252 47.4552
131.396 2265 47.592
131.513 2241 47.3392
131.631 2227 47.1911
131.748 2250 47.4342
131.865 2226 47.1805
131.983 2033 45.0888
132.1 2112 45.9565
132.217 1972 44.4072
132.335 1961 44.2832
132.452 2081 45.618
132.57 2246 47.392
132.687 2302 47.9792
132.804 2250 47.4342
132.922 2406 49.051
133.039 2404 49.0306
133.157 2271 47.655
133.274 2310 48.0625
133.392 2176 46.6476
133.509 2086 45.6727
133.627 1898 43.566
133.744 1780 42.19
133.862 1689 41.0974
133.979 1729 41.5812
134.097 1866 43.1972
134.214 2005 44.7772
134.332 2082 45.6289
134.449 2110 45.9347
134.567 2057 45.3542
134.684 2204 46.9468
134.802 2204 46.9468
134.919 2229 47.2123
135.037 2271 47.655
135.154 2237 47.2969
135.272 2155 46.422
135.389 2149 46.3573
135.507 2130 46.1519
135.624 2149 46.3573
135.742 2004 44.7661
135.859 1999 44.7102
135.977 2126 46.1086
136.094 2123 46.076
136.211 2170 46.5833
136.329 2329 48.2597
136.446 2348 48.4562
136.564 2269 47.634
136.681 2322 48.1871
136.798 2425 49.2443
136.915 2340 48.3735
137.033 2181 46.7012
137.15 1950 44.1588
137.267 1949 44.1475
137.384 1757 41.9166
137.502 1639 40.4846
137.619 1686 41.0609
137.736 1865 43.1856
137.853 1978 44.4747
137.97 2037 45.1331
138.087 2032 45.0777
138.204 2245 47.3814
138.321 2188 46.7761
138.438 2253 47.4658
138.555 2262 47.5605
138.672 2204 46.9468
138.788 2170 46.5833
138.905 2037 45.1331
139.022 1965 44.3283
139.139 1917 43.7836
139.255 1765 42.0119
139.372 1652 40.6448
139.488 1650 40.6202
139.605 1500 38.7298
139.721 1493 38.6394
139.838 1490 38.6005
139.954 1472 38.3667
140.071 1395 37.3497
140.187 1293 35.9583
140.303 1254 35.4119
140.419 1116 33.4066
140.535 1083 32.909
140.652 1033 32.1403
140.768 0 1
140.884 0 1
141 0 1
141.115 0 1
141.231 0 1
141.347 0 1
141.463 0 1
141.578 0 1
141.694 0 1
144.104 0 1
144.219 0 1
144.335 0 1
144.45 0 1
144.566 0 1
144.682 0 1
144.798 0 1
144.914 0 1
145.03 0 1
145.146 1630 40.3733
145.262 1805 42.4853
145.378 1770 42.0714
145.494 1827 42.7434
145.61 1840 42.8952
145.726 1722 41.497
145.842 1651 40.6325
145.959 1545 39.3065
146.075 1462 38.2361
146.192 1409 37.5366
146.308 1377 37.108
146.425 1442 37.9737
146.541 1529 39.1024
146.658 1537 39.2046
146.774 1659 40.7308
146.891 1706 41.3038
147.008 1721 41.4849
147.125 1673 40.9023
147.241 1718 41.4488
147.358 1757 41.9166
147.475 1775 42.1307
147.592 1742 41.7373
147.709 1691 41.1218
147.826 1667 40.8289
147.943 1667 40.8289
148.06 1610 40.1248
148.177 1586 39.8246
148.294 1542 39.2683
148.411 1643 40.5339
148.528 1679 40.9756
148.645 1721 41.4849
148.762 1803 42.4617
148.88 1784 42.2374
148.997 1801 42.4382
149.114 1762 41.9762
149.231 1738 41.6893
149.349 1744 41.7612
149.466 1770 42.0714
149.583 1647 40.5832
149.701 1521 39
149.818 1410 37.55
149.935 1383 37.1887
150.053 1421 37.6962
150.17 1461 38.223
150.287 1485 38.5357
150.405 1514 38.9102
150.522 1677 40.9512
150.64 1562 39.5221
150.757 1704 41.2795
150.875 1657 40.7063
150.992 1834 42.8252
151.11 1825 42.72
151.227 1684 41.0366
151.344 1603 40.0375
151.462 1619 40.2368
151.579 1601 40.0125
151.697 1567 39.5854
151.814 1573 39.6611
151.932 1522 39.0128
152.049 1553 39.4081
152.167 1601 40.0125
152.284 1734 41.6413
152.402 1719 41.4608
152.519 1746 41.7852
152.636 1718 41.4488
152.754 1765 42.0119
152.871 1743 41.7493
152.989 1669 40.8534
153.106 1648 40.5956
153.223 1528 39.0896
153.341 1450 38.0789
153.458 1344 36.6606
153.575 1380 37.1484
153.693 1396 37.3631
153.81 1445 38.0132
153.927 1471 38.3536
154.044 1502 38.7556
154.162 1501 38.7427
154.279 1586 39.8246
154.396 1617 40.2119
154.513 1641 40.5093
154.63 1698 41.2068
154.747 1546 39.3192
154.864 1571 39.6358
154.981 1556 39.4462
155.098 1575 39.6863
155.215 1439 37.9342
155.332 1435 37.8814
155.449 1431 37.8286
155.566 1417 37.6431
155.683 1524 39.0384
155.8 1491 38.6135
155.917 1521 39
156.033 1456 38.1576
156.15 0 1
156.267 0 1
156.383 0 1
156.5 0 1
156.617 0 1
156.733 0 1
156.85 0 1
156.966 0 1
157.082 0 1
157.199 0 1
157.315 0 1
157.431 0 1
157.547 0 1
157.664 0 1
157.78 0 1
157.896 0 1
158.012 0 1
158.128 0 1
158.244 0 1
158.359 0 1
158.475 0 1
158.591 0 1
158.706 0 1
