
6.15755 0 1
6.2731 0 1
6.3887 0 1
6.50437 0 1
6.62009 0 1
6.73587 0 1
6.8517 0 1
6.96759 0 1
7.08353 0 1
7.19952 0 1
7.31557 0 1
7.43166 0 1
7.54781 0 1
7.664 0 1
7.78024 0 1
7.89653 0 1
8.01286 0 1
8.12924 0 1
8.24567 0 1
8.36213 0 1
8.47864 0 1
8.59519 0 1
8.71178 0 1
8.82841 0 1
8.94508 0 1
9.06179 0 1
9.17853 0 1
9.29531 0 1
9.41212 0 1
9.52897 0 1
9.64584 0 1
9.76276 0 1
9.8797 0 1
9.99667 0 1
10.1137 0 1
10.2307 0 1
10.3478 0 1
10.4648 0 1
10.5819 0 1
10.6991 0 1
10.8162 0 1
10.9334 0 1
11.0506 0 1
11.1678 0 1
11.285 0 1
11.4023 0 1
11.5196 0 1
11.6369 0 1
11.7542 0 1
11.8715 0 1
11.9888 0 1
12.1062 0 1
12.2235 0 1
12.3409 0 1
12.4582 0 1
12.5756 0 1
12.693 0 1
12.8104 0 1
12.9278 0 1
13.0452 0 1
13.1626 0 1
13.28 0 1
13.3974 0 1
13.5149 0 1
13.6323 0 1
13.7497 0 1
13.8671 0 1
13.9845 0 1
14.1019 0 1
14.2193 0 1
14.3367 0 1
14.4541 0 1
14.5714 0 1
14.6888 0 1
14.8062 0 1
14.9235 0 1
15.0408 1380 37.1484
15.1581 1466 38.2884
15.2755 1492 38.6264
15.3927 1540 39.2428
15.51 1492 38.6264
15.6273 1505 38.7943
15.7445 1502 38.7556
15.8617 1561 39.5095
15.9789 1555 39.4335
16.0961 1551 39.3827
16.2132 1473 38.3797
16.3304 1480 38.4708
16.4475 1619 40.2368
16.5646 1667 40.8289
16.6816 1666 40.8167
16.7986 1829 42.7668
16.9156 1690 41.1096
17.0326 1808 42.5206
17.1496 1816 42.6146
17.2665 1820 42.6615
17.3833 1819 42.6497
17.5002 1764 42
17.617 1585 39.8121
17.7338 1549 39.3573
17.8505 1541 39.2556
17.9672 1563 39.5348
18.0839 1603 40.0375
18.2005 1576 39.6989
18.3171 1649 40.6079
18.4337 1701 41.2432
18.5502 1733 41.6293
18.6666 1759 41.9404
18.7831 1814 42.5911
18.8994 1795 42.3674
19.0158 1715 41.4126
19.1321 1664 40.7922
19.2483 1625 40.3113
19.3645 1474 38.3927
19.4806 1524 39.0384
19.5967 1346 36.6879
19.7128 1264 35.5528
19.8288 1131 33.6303
19.9447 1108 33.2866
20.0606 0 1
20.1764 0 1
20.2922 0 1
20.4079 0 1
20.5236 0 1
20.6392 0 1
20.7548 0 1
20.8702 0 1
23.3078 0 1
23.4233 0 1
23.539 0 1
23.6547 0 1
23.7704 0 1
23.8862 0 1
24.0021 0 1
24.118 0 1
24.234 0 1
24.35 0 1
24.4661 720 26.8328
24.5822 879 29.6479
24.6984 936 30.5941
24.8146 1060 32.5576
24.9309 1176 34.2929
25.0472 1283 35.819
25.1636 1415 37.6165
25.28 1436 37.8946
25.3965 1617 40.2119
25.513 1646 40.5709
25.6296 1882 43.382
25.7462 1810 42.5441
25.8628 1834 42.8252
25.9795 1859 43.1161
26.0962 1923 43.852
26.213 1922 43.8406
26.3298 1697 41.1947
26.4466 1676 40.939
26.5635 1516 38.9358
26.6804 1611 40.1373
26.7973 1607 40.0874
26.9143 1706 41.3038
27.0313 1745 41.7732
27.1483 1748 41.8091
27.2653 1841 42.9069
27.3824 1812 42.5676
27.4996 1894 43.5201
27.6167 1859 43.1161
27.7339 1804 42.4735
27.8511 1716 41.4246
27.9683 1658 40.7185
28.0855 1714 41.4005
28.2028 1542 39.2683
28.3201 1551 39.3827
28.4374 1579 39.7366
28.5547 1598 39.975
28.6721 1624 40.2989
28.7894 1682 41.0122
28.9068 1727 41.5572
29.0242 1836 42.8486
29.1416 1818 42.638
29.259 1914 43.7493
29.3764 1910 43.7035
29.4939 1858 43.1045
29.6113 1737 41.6773
29.7288 1741 41.7253
29.8463 1668 40.8412
29.9638 1621 40.2616
30.0812 1546 39.3192
30.1987 1538 39.2173
30.3162 1572 39.6485
30.4337 1621 40.2616
30.5512 1608 40.0999
30.6687 1763 41.9881
30.7862 1676 40.939
30.9037 1776 42.1426
31.0212 1732 41.6173
31.1387 1757 41.9166
31.2562 1736 41.6653
31.3737 1711 41.3642
31.4912 1665 40.8044
31.6087 1592 39.8999
31.7262 1596 39.95
31.8436 1494 38.6523
31.9611 1431 37.8286
32.0785 1436 37.8946
32.1959 1550 39.37
32.3134 1616 40.1995
32.4308 1630 40.3733
32.5482 1778 42.1663
32.6655 1834 42.8252
32.7829 1755 41.8927
32.9002 1668 40.8412
33.0176 1790 42.3084
33.1349 1743 41.7493
33.2522 1732 41.6173
33.3694 1637 40.4599
33.4867 1619 40.2368
33.6039 1466 38.2884
33.7211 1487 38.5616
33.8383 1461 38.223
33.9554 1507 38.8201
34.0725 1614 40.1746
34.1896 1543 39.281
34.3067 1590 39.8748
34.4237 1687 41.0731
34.5407 1657 40.7063
34.6577 1668 40.8412
34.7746 1672 40.8901
34.8915 1665 40.8044
35.0084 1664 40.7922
35.1252 1618 40.2244
35.242 1521 39
35.3587 1557 39.4588
35.4755 1519 38.9744
35.5921 1426 37.7624
35.7088 1366 36.9594
35.8254 1440 37.9473
35.9419 1450 38.0789
36.0584 1479 38.4578
36.1749 1501 38.7427
36.2913 1600 40
36.4077 1587 39.8372
36.524 1513 38.8973
36.6403 1504 38.7814
36.7565 1432 37.8418
36.8727 1328 36.4417
36.9889 1282 35.805
37.1049 1164 34.1174
37.221 0 1
37.3369 0 1
37.4529 0 1
37.5687 0 1
37.6845 0 1
37.8003 0 1
37.916 0 1
38.0316 0 1
38.1472 0 1
40.5851 0 1
40.7008 0 1
40.8164 0 1
40.9322 0 1
41.048 0 1
41.1639 0 1
41.2798 0 1
41.3958 0 1
41.5118 0 1
41.6279 0 1
41.744 834 28.8791
41.8602 923 30.3809
41.9765 996 31.5595
42.0928 1063 32.6037
42.2091 987 31.4166
42.3255 899 29.9833
42.4419 989 31.4484
42.5584 973 31.1929
42.675 1123 33.5112
42.7915 1184 34.4093
42.9081 1280 35.7771
43.0248 1302 36.0832
43.1415 1275 35.7071
43.2582 1386 37.229
43.375 1399 37.4032
43.4918 1403 37.4566
43.6087 1372 37.0405
43.7256 1373 37.054
43.8425 1360 36.8782
43.9595 1295 35.9861
44.0765 1316 36.2767
44.1935 1238 35.1852
44.3106 1248 35.327
44.4277 1184 34.4093
44.5448 1173 34.2491
44.6619 1157 34.0147
44.7791 1229 35.0571
44.8963 1369 37
45.0136 1333 36.5103
45.1308 1469 38.3275
45.2481 1428 37.7889
45.3654 1462 38.2361
45.4827 1429 37.8021
45.6001 1361 36.8917
45.7174 1410 37.55
45.8348 1292 35.9444
45.9522 1209 34.7707
46.0697 1162 34.0881
46.1871 1115 33.3916
46.3046 1166 34.1467
46.422 1213 34.8281
46.5395 1279 35.7631
46.657 1340 36.606
46.7745 1393 37.3229
46.892 1372 37.0405
47.0096 1407 37.51
47.1271 1467 38.3014
47.2446 1480 38.4708
47.3622 1442 37.9737
47.4797 1374 37.0675
47.5973 1391 37.2961
47.7149 1317 36.2905
47.8324 1324 36.3868
47.95 1243 35.2562
48.0675 1212 34.8138
48.1851 1179 34.3366
48.3027 1176 34.2929
48.4202 1301 36.0694
48.5378 1358 36.8511
48.6554 1357 36.8375
48.7729 1452 38.1051
48.8904 1474 38.3927
49.008 1467 38.3014
49.1255 1447 38.0395
49.243 1361 36.8917
49.3605 1298 36.0278
49.478 1169 34.1906
49.5955 1199 34.6266
49.713 1100 33.1662
49.8304 1090 33.0151
49.9479 1249 35.3412
50.0653 1329 36.4555
50.1827 1297 36.0139
50.3001 1339 36.5923
50.4175 1370 37.0135
50.5348 1515 38.923
50.6521 1415 37.6165
50.7694 1460 38.2099
50.8867 1499 38.7169
51.004 1475 38.4057
51.1212 1440 37.9473
51.2384 1433 37.855
51.3556 1456 38.1576
51.4727 1363 36.9188
51.5899 1335 36.5377
51.707 1282 35.805
51.824 1372 37.0405
51.9411 1486 38.5487
52.0581 1657 40.7063
52.175 1715 41.4126
52.2919 1820 42.6615
52.4088 1829 42.7668
52.5257 1809 42.5323
52.6425 1935 43.9886
52.7593 1914 43.7493
52.876 1937 44.0114
52.9927 1909 43.6921
53.1094 1721 41.4849
53.226 1610 40.1248
53.3426 1656 40.694
53.4591 1555 39.4335
53.5756 1683 41.0244
53.692 1633 40.4104
53.8084 1714 41.4005
53.9248 1688 41.0853
54.0411 1500 38.7298
54.1573 1518 38.9615
54.2735 0 1
54.3896 0 1
54.5057 0 1
54.6217 0 1
54.7377 0 1
54.8537 0 1
54.9695 0 1
55.0853 0 1
55.2011 0 1
55.3168 0 1
55.4324 0 1
57.824 0 1
57.9396 0 1
58.0553 0 1
58.1711 0 1
58.2869 0 1
58.4028 0 1
58.5187 0 1
58.6347 0 1
58.7508 0 1
58.8669 0 1
58.983 1122 33.4963
59.0992 1389 37.2693
59.2155 1441 37.9605
59.3318 1529 39.1024
59.4482 1647 40.5832
59.5646 1663 40.7799
59.681 1704 41.2795
59.7975 1734 41.6413
59.9141 1721 41.4849
60.0306 1708 41.328
60.1473 1618 40.2244
60.2639 1576 39.6989
60.3807 1460 38.2099
60.4974 1520 38.9872
60.6142 1609 40.1123
60.731 1723 41.509
60.8479 1788 42.2847
60.9648 1812 42.5676
61.0818 1778 42.1663
61.1987 1816 42.6146
61.3158 1855 43.0697
61.4328 1749 41.821
61.5499 1637 40.4599
61.667 1517 38.9487
61.7841 1452 38.1051
61.9013 1411 37.5633
62.0185 1426 37.7624
62.1357 1475 38.4057
62.253 1540 39.2428
62.3702 1602 40.025
62.4875 1658 40.7185
62.6049 1655 40.6817
62.7222 1802 42.45
62.8396 1776 42.1426
62.9569 1841 42.9069
63.0743 1750 41.833
63.1918 1767 42.0357
63.3092 1778 42.1663
63.4267 1788 42.2847
63.5441 1733 41.6293
63.6616 1590 39.8748
63.7791 1448 38.0526
63.8966 1455 38.1445
64.0142 1434 37.8682
64.1317 1405 37.4833
64.2492 1555 39.4335
64.3668 1603 40.0375
64.4843 1689 41.0974
64.6019 1721 41.4849
64.7195 1728 41.5692
64.837 1732 41.6173
64.9546 1794 42.3556
65.0722 1666 40.8167
65.1898 1594 39.9249
65.3074 1484 38.5227
65.4249 1403 37.4566
65.5425 1304 36.1109
65.6601 1382 37.1753
65.7777 1464 38.2623
65.8952 1480 38.4708
66.0128 1588 39.8497
66.1304 1684 41.0366
66.2479 1583 39.7869
66.3655 1794 42.3556
66.483 1740 41.7133
66.6005 1764 42
66.718 1791 42.3202
66.8355 1782 42.2137
66.953 1708 41.328
67.0705 1621 40.2616
67.1879 1587 39.8372
67.3054 1538 39.2173
67.4228 1381 37.1618
67.5402 1429 37.8021
67.6576 1307 36.1525
67.7749 1353 36.7831
67.8923 1554 39.4208
68.0096 1589 39.8623
68.1269 1720 41.4729
68.2442 1746 41.7852
68.3614 1672 40.8901
68.4787 1670 40.8656
68.5958 1728 41.5692
68.713 1667 40.8289
68.8302 1450 38.0789
68.9473 1420 37.6829
69.0643 1309 36.1801
69.1814 1280 35.7771
69.2984 1284 35.8329
69.4154 1424 37.7359
69.5323 1415 37.6165
69.6492 1560 39.4968
69.7661 1589 39.8623
69.8829 1658 40.7185
69.9997 1613 40.1622
70.1165 1588 39.8497
70.2332 1510 38.8587
70.3499 1458 38.1838
70.4665 1392 37.3095
70.5831 1282 35.805
70.6996 1317 36.2905
70.8161 1220 34.9285
70.9326 1150 33.9116
71.049 986 31.4006
71.1653 790 28.1069
71.2817 700 26.4575
71.3979 576 24
71.5141 609 24.6779
71.6303 634 25.1794
71.7464 520 22.8035
71.8624 0 1
71.9784 0 1
72.0944 0 1
72.2102 0 1
72.3261 0 1
72.4418 0 1
72.5575 0 1
72.6732 0 1
75.1054 0 1
75.2209 0 1
75.3365 0 1
75.4521 0 1
75.5678 0 1
75.6835 0 1
75.7993 0 1
75.9151 0 1
76.031 0 1
76.147 994 31.5278
76.263 1083 32.909
76.3791 1060 32.5576
76.4952 1109 33.3017
76.6113 1070 32.7109
76.7276 1162 34.0881
76.8438 1285 35.8469
76.9601 1361 36.8917
77.0765 1384 37.2022
77.1929 1461 38.223
77.3093 1554 39.4208
77.4258 1452 38.1051
77.5423 1470 38.3406
77.6589 1453 38.1182
77.7755 1285 35.8469
77.8921 1223 34.9714
78.0088 1197 34.5977
78.1256 1042 32.28
78.2423 1016 31.8748
78.3591 1111 33.3317
78.4759 1233 35.1141
78.5928 1246 35.2987
78.7097 1366 36.9594
78.8266 1380 37.1484
78.9436 1433 37.855
79.0606 1469 38.3275
79.1776 1453 38.1182
79.2946 1464 38.2623
79.4117 1549 39.3573
79.5288 1479 38.4578
79.6459 1464 38.2623
79.7631 1412 37.5766
79.8802 1439 37.9342
79.9974 1266 35.5809
80.1147 1223 34.9714
80.2319 1136 33.7046
80.3491 1175 34.2783
80.4664 1208 34.7563
80.5837 1296 36
80.701 1429 37.8021
80.8183 1507 38.8201
80.9357 1505 38.7943
81.053 1501 38.7427
81.1704 1602 40.025
81.2877 1610 40.1248
81.4051 1448 38.0526
81.5225 1382 37.1753
81.6399 1286 35.8608
81.7573 1160 34.0588
81.8747 1098 33.1361
81.9922 1148 33.8821
82.1096 1266 35.5809
82.227 1288 35.8887
82.3444 1427 37.7757
82.4619 1452 38.1051
82.5793 1419 37.6696
82.6967 1526 39.064
82.8142 1588 39.8497
82.9316 1585 39.8121
83.049 1511 38.8716
83.1664 1502 38.7556
83.2838 1541 39.2556
83.4012 1492 38.6264
83.5186 1454 38.1314
83.636 1461 38.223
83.7534 1309 36.1801
83.8708 1161 34.0735
83.9881 1207 34.7419
84.1055 1235 35.1426
84.2228 1312 36.2215
84.3401 1431 37.8286
84.4575 1471 38.3536
84.5747 1588 39.8497
84.692 1573 39.6611
84.8093 1584 39.7995
84.9265 1571 39.6358
85.0437 1462 38.2361
85.1609 1345 36.6742
85.2781 1255 35.426
85.3952 1146 33.8526
85.5123 1114 33.3766
85.6294 1058 32.5269
85.7465 1264 35.5528
85.8636 1355 36.8103
85.9806 1387 37.2424
86.0976 1537 39.2046
86.2145 1476 38.4187
86.3315 1494 38.6523
86.4484 1556 39.4462
86.5652 1593 39.9124
86.682 1522 39.0128
86.7988 1652 40.6448
86.9156 1537 39.2046
87.0323 1514 38.9102
87.149 1444 38
87.2657 1352 36.7696
87.3823 1214 34.8425
87.4988 1091 33.0303
87.6154 1064 32.619
87.7318 1069 32.6956
87.8483 1146 33.8526
87.9647 1231 35.0856
88.081 1265 35.5668
88.1973 1229 35.0571
88.3136 1202 34.6699
88.4298 1139 33.7491
88.546 1082 32.8938
88.6621 917 30.282
88.7781 760 27.5681
88.8942 0 1
89.0101 0 1
89.126 0 1
89.2419 0 1
89.3577 0 1
89.4734 0 1
89.5891 0 1
89.7047 0 1
89.8203 0 1
89.9358 0 1
92.3269 0 1
92.4424 0 1
92.558 0 1
92.6736 0 1
92.7893 0 1
92.905 0 1
93.0208 0 1
93.1366 0 1
93.2525 0 1
93.3685 0 1
93.4845 0 1
93.6005 1144 33.8231
93.7167 1264 35.5528
93.8328 1314 36.2491
93.949 1351 36.756
94.0653 1338 36.5787
94.1816 1350 36.7423
94.2979 1261 35.5106
94.4143 1289 35.9026
94.5307 1188 34.4674
94.6472 1196 34.5832
94.7637 1174 34.2637
94.8803 1311 36.2077
94.9969 1319 36.318
95.1135 1433 37.855
95.2302 1513 38.8973
95.3469 1502 38.7556
95.4637 1529 39.1024
95.5805 1589 39.8623
95.6973 1606 40.0749
95.8142 1570 39.6232
95.9311 1552 39.3954
96.048 1568 39.598
96.1649 1565 39.5601
96.2819 1485 38.5357
96.3989 1448 38.0526
96.516 1466 38.2884
96.633 1290 35.9166
96.7501 1218 34.8999
96.8673 1199 34.6266
96.9844 1362 36.9053
97.1016 1422 37.7094
97.2188 1519 38.9744
97.336 1583 39.7869
97.4532 1623 40.2865
97.5704 1681 41
97.6877 1674 40.9145
97.805 1602 40.025
97.9223 1478 38.4448
98.0396 1418 37.6563
98.1569 1226 35.0143
98.2743 1269 35.623
98.3916 1131 33.6303
98.509 1186 34.4384
98.6264 1390 37.2827
98.7438 1479 38.4578
98.8612 1480 38.4708
98.9786 1673 40.9023
99.096 1532 39.1408
99.2134 1613 40.1622
99.3308 1685 41.0488
99.4482 1664 40.7922
99.5656 1661 40.7554
99.6831 1597 39.9625
99.8005 1596 39.95
99.9179 1629 40.3609
100.035 1605 40.0625
100.153 1590 39.8748
100.27 1367 36.973
100.388 1374 37.0675
100.505 1371 37.027
100.622 1491 38.6135
100.74 1597 39.9625
100.857 1651 40.6325
100.975 1692 41.1339
101.092 1769 42.0595
101.209 1731 41.6053
101.327 1729 41.5812
101.444 1720 41.4729
101.561 1528 39.0896
101.679 1392 37.3095
101.796 1293 35.9583
101.913 1240 35.2136
102.03 1243 35.2562
102.148 1488 38.5746
102.265 1491 38.6135
102.382 1579 39.7366
102.499 1609 40.1123
102.616 1739 41.7013
102.733 1741 41.7253
102.851 1796 42.3792
102.968 1783 42.2256
103.085 1813 42.5793
103.202 1809 42.5323
103.319 1718 41.4488
103.436 1726 41.5452
103.552 1627 40.3361
103.669 1522 39.0128
103.786 1494 38.6523
103.903 1438 37.921
104.02 1474 38.3927
104.137 1587 39.8372
104.253 1631 40.3856
104.37 1807 42.5088
104.487 1897 43.5546
104.603 1852 43.0349
104.72 1789 42.2966
104.836 1766 42.0238
104.953 1601 40.0125
105.069 1425 37.7492
105.186 1287 35.8748
105.302 1233 35.1141
105.418 1191 34.5109
105.535 1130 33.6155
105.651 1112 33.3467
105.767 1180 34.3511
105.883 1144 33.8231
105.999 1046 32.3419
106.115 0 1
106.231 0 1
106.347 0 1
106.463 0 1
106.579 0 1
106.694 0 1
106.81 0 1
106.926 0 1
107.041 0 1
107.157 0 1
109.576 0 1
109.692 0 1
109.807 0 1
109.923 0 1
110.039 0 1
110.155 0 1
110.27 0 1
110.386 0 1
110.502 0 1
110.618 704 26.533
110.735 953 30.8707
110.851 1089 33
110.967 1183 34.3948
111.083 1313 36.2353
111.199 1415 37.6165
111.316 1580 39.7492
111.432 1603 40.0375
111.549 1611 40.1373
111.665 1669 40.8534
111.782 1706 41.3038
111.898 1717 41.4367
112.015 1631 40.3856
112.132 1523 39.0256
112.248 1384 37.2022
112.365 1384 37.2022
112.482 1337 36.565
112.599 1426 37.7624
112.716 1547 39.3319
112.832 1607 40.0874
112.949 1699 41.2189
113.066 1695 41.1704
113.183 1663 40.7799
113.3 1635 40.4351
113.417 1700 41.2311
113.534 1580 39.7492
113.652 1445 38.0132
113.769 1256 35.4401
113.886 1230 35.0714
114.003 1165 34.1321
114.12 1233 35.1141
114.238 1361 36.8917
114.355 1436 37.8946
114.472 1511 38.8716
114.589 1649 40.6079
114.707 1615 40.1871
114.824 1650 40.6202
114.942 1697 41.1947
115.059 1669 40.8534
115.176 1777 42.1545
115.294 1759 41.9404
115.411 1735 41.6533
115.529 1592 39.8999
115.646 1638 40.4722
115.764 1509 38.8458
115.881 1440 37.9473
115.999 1412 37.5766
116.116 1374 37.0675
116.234 1474 38.3927
116.351 1564 39.5474
116.469 1695 41.1704
116.586 1679 40.9756
116.704 1730 41.5933
116.821 1706 41.3038
116.939 1675 40.9268
117.056 1637 40.4599
117.174 1588 39.8497
117.291 1429 37.8021
117.409 1295 35.9861
117.526 1203 34.6843
117.644 1220 34.9285
117.761 1218 34.8999
117.879 1411 37.5633
117.996 1471 38.3536
118.114 1493 38.6394
118.231 1697 41.1947
118.349 1613 40.1622
118.466 1594 39.9249
118.584 1662 40.7676
118.701 1743 41.7493
118.819 1646 40.5709
118.936 1696 41.1825
119.053 1705 41.2916
119.171 1567 39.5854
119.288 1512 38.8844
119.405 1437 37.9078
119.523 1337 36.565
119.64 1384 37.2022
119.757 1391 37.2961
119.875 1375 37.081
119.992 1512 38.8844
120.109 1595 39.9375
120.226 1609 40.1123
120.343 1591 39.8873
120.46 1594 39.9249
120.578 1660 40.7431
120.695 1584 39.7995
120.812 1499 38.7169
120.929 1422 37.7094
121.046 1310 36.1939
121.163 1183 34.3948
121.279 1169 34.1906
121.396 1152 33.9411
121.513 1219 34.9142
121.63 1204 34.6987
121.747 1315 36.2629
121.863 1282 35.805
121.98 1297 36.0139
122.097 1288 35.8887
122.213 1260 35.4965
122.33 1296 36
122.446 1294 35.9722
122.563 1157 34.0147
122.679 1108 33.2866
122.795 990 31.4643
122.912 981 31.3209
123.028 762 27.6043
123.144 740 27.2029
123.26 685 26.1725
123.377 0 1
123.493 0 1
123.609 0 1
123.725 0 1
123.84 0 1
123.956 0 1
124.072 0 1
124.188 0 1
124.303 0 1
124.419 0 1
126.852 0 1
126.968 0 1
127.083 0 1
127.199 0 1
127.315 0 1
127.431 0 1
127.547 0 1
127.663 0 1
127.779 0 1
127.895 0 1
128.011 0 1
128.127 0 1
128.243 0 1
128.359 1470 38.3406
128.476 1494 38.6523
128.592 1515 38.923
128.708 1479 38.4578
128.825 1516 38.9358
128.941 1539 39.2301
129.058 1657 40.7063
129.174 1762 41.9762
129.291 1649 40.6079
129.408 1763 41.9881
129.524 1723 41.509
129.641 1620 40.2492
129.758 1640 40.4969
129.875 1591 39.8873
129.992 1558 39.4715
130.108 1383 37.1887
130.225 1258 35.4683
130.342 1288 35.8887
130.459 1337 36.565
130.576 1443 37.9868
130.693 1512 38.8844
130.81 1574 39.6737
130.928 1649 40.6079
131.045 1591 39.8873
131.162 1619 40.2368
131.279 1787 42.2729
131.396 1626 40.3237
131.513 1762 41.9762
131.631 1658 40.7185
131.748 1644 40.5463
131.865 1596 39.95
131.983 1536 39.1918
132.1 1550 39.37
132.217 1378 37.1214
132.335 1412 37.5766
132.452 1458 38.1838
132.57 1626 40.3237
132.687 1736 41.6653
132.804 1735 41.6533
132.922 1758 41.9285
133.039 1752 41.8569
133.157 1751 41.845
133.274 1814 42.5911
133.392 1660 40.7431
133.509 1537 39.2046
133.627 1425 37.7492
133.744 1345 36.6742
133.862 1290 35.9166
133.979 1331 36.4829
134.097 1389 37.2693
134.214 1573 39.6611
134.332 1569 39.6106
134.449 1635 40.4351
134.567 1664 40.7922
134.684 1654 40.6694
134.802 1711 41.3642
134.919 1717 41.4367
135.037 1742 41.7373
135.154 1635 40.4351
135.272 1597 39.9625
135.389 1672 40.8901
135.507 1579 39.7366
135.624 1532 39.1408
135.742 1500 38.7298
135.859 1458 38.1838
135.977 1494 38.6523
136.094 1611 40.1373
136.211 1555 39.4335
136.329 1694 41.1582
136.446 1742 41.7373
136.564 1708 41.328
136.681 1716 41.4246
136.798 1719 41.4608
136.915 1733 41.6293
137.033 1630 40.3733
137.15 1585 39.8121
137.267 1504 38.7814
137.384 1348 36.7151
137.502 1222 34.9571
137.619 1283 35.819
137.736 1396 37.3631
137.853 1423 37.7227
137.97 1591 39.8873
138.087 1560 39.4968
138.204 1640 40.4969
138.321 1686 41.0609
138.438 1694 41.1582
138.555 1772 42.0951
138.672 1706 41.3038
138.788 1653 40.6571
138.905 1526 39.064
139.022 1499 38.7169
139.139 1423 37.7227
139.255 1331 36.4829
139.372 1258 35.4683
139.488 1192 34.5254
139.605 1103 33.2114
139.721 1143 33.8083
139.838 1147 33.8674
139.954 1207 34.7419
140.071 1106 33.2566
140.187 1052 32.4345
140.303 900 30
140.419 917 30.282
140.535 849 29.1376
140.652 755 27.4773
140.768 0 1
140.884 0 1
141 0 1
141.115 0 1
141.231 0 1
141.347 0 1
141.463 0 1
141.578 0 1
141.694 0 1
144.104 0 1
144.219 0 1
144.335 0 1
144.45 0 1
144.566 0 1
144.682 0 1
144.798 0 1
144.914 0 1
145.03 0 1
145.146 1203 34.6843
145.262 1284 35.8329
145.378 1376 37.0945
145.494 1413 37.5899
145.61 1318 36.3043
145.726 1369 37
145.842 1285 35.8469
145.959 1185 34.4238
146.075 1202 34.6699
146.192 1088 32.9848
146.308 1034 32.1559
146.425 1005 31.7017
146.541 1131 33.6303
146.658 1131 33.6303
146.774 1210 34.7851
146.891 1213 34.8281
147.008 1284 35.8329
147.125 1294 35.9722
147.241 1331 36.4829
147.358 1358 36.8511
147.475 1378 37.1214
147.592 1301 36.0694
147.709 1292 35.9444
147.826 1244 35.2704
147.943 1288 35.8887
148.06 1150 33.9116
148.177 1141 33.7787
148.294 1149 33.8969
148.411 1139 33.7491
148.528 1157 34.0147
148.645 1298 36.0278
148.762 1337 36.565
148.88 1379 37.1349
148.997 1389 37.2693
149.114 1348 36.7151
149.231 1434 37.8682
149.349 1404 37.47
149.466 1295 35.9861
149.583 1215 34.8569
149.701 1187 34.4529
149.818 1111 33.3317
149.935 1050 32.4037
150.053 1027 32.0468
150.17 1098 33.1361
150.287 1116 33.4066
150.405 1183 34.3948
150.522 1210 34.7851
150.64 1271 35.6511
150.757 1244 35.2704
150.875 1337 36.565
150.992 1240 35.2136
151.11 1370 37.0135
151.227 1261 35.5106
151.344 1264 35.5528
151.462 1219 34.9142
151.579 1189 34.4819
151.697 1159 34.0441
151.814 1122 33.4963
151.932 1080 32.8634
152.049 1108 33.2866
152.167 1222 34.9571
152.284 1200 34.641
152.402 1264 35.5528
152.519 1242 35.242
152.636 1299 36.0416
152.754 1273 35.6791
152.871 1302 36.0832
152.989 1233 35.1141
153.106 1180 34.3511
153.223 1159 34.0441
153.341 1086 32.9545
153.458 1049 32.3883
153.575 1011 31.7962
153.693 1017 31.8904
153.81 1085 32.9393
153.927 1058 32.5269
154.044 1098 33.1361
154.162 1154 33.9706
154.279 1216 34.8712
154.396 1181 34.3657
154.513 1140 33.7639
154.63 1225 35
154.747 1274 35.6931
154.864 1184 34.4093
154.981 1171 34.2199
155.098 1127 33.5708
155.215 1101 33.1813
155.332 1044 32.311
155.449 1036 32.187
155.566 1013 31.8277
155.683 1094 33.0757
155.8 1108 33.2866
155.917 1085 32.9393
156.033 1037 32.2025
156.15 0 1
156.267 0 1
156.383 0 1
156.5 0 1
156.617 0 1
156.733 0 1
156.85 0 1
156.966 0 1
157.082 0 1
157.199 0 1
157.315 0 1
157.431 0 1
157.547 0 1
157.664 0 1
157.78 0 1
157.896 0 1
158.012 0 1
158.128 0 1
158.244 0 1
158.359 0 1
158.475 0 1
158.591 0 1
158.706 0 1
