
6.15755 0 1
6.2731 0 1
6.3887 0 1
6.50437 0 1
6.62009 0 1
6.73587 0 1
6.8517 0 1
6.96759 0 1
7.08353 0 1
7.19952 0 1
7.31557 0 1
7.43166 0 1
7.54781 0 1
7.664 0 1
7.78024 0 1
7.89653 0 1
8.01286 0 1
8.12924 0 1
8.24567 0 1
8.36213 0 1
8.47864 0 1
8.59519 0 1
8.71178 0 1
8.82841 0 1
8.94508 0 1
9.06179 0 1
9.17853 0 1
9.29531 0 1
9.41212 0 1
9.52897 0 1
9.64584 0 1
9.76276 0 1
9.8797 0 1
9.99667 0 1
10.1137 0 1
10.2307 0 1
10.3478 0 1
10.4648 0 1
10.5819 0 1
10.6991 0 1
10.8162 0 1
10.9334 0 1
11.0506 0 1
11.1678 0 1
11.285 0 1
11.4023 0 1
11.5196 0 1
11.6369 0 1
11.7542 0 1
11.8715 0 1
11.9888 0 1
12.1062 0 1
12.2235 0 1
12.3409 0 1
12.4582 0 1
12.5756 0 1
12.693 0 1
12.8104 0 1
12.9278 0 1
13.0452 0 1
13.1626 0 1
13.28 0 1
13.3974 0 1
13.5149 0 1
13.6323 0 1
13.7497 0 1
13.8671 0 1
13.9845 0 1
14.1019 0 1
14.2193 0 1
14.3367 0 1
14.4541 0 1
14.5714 0 1
14.6888 0 1
14.8062 0 1
14.9235 0 1
15.0408 0 0
15.1581 0 0
15.2755 0 0
15.3927 0 0
15.51 0 0
15.6273 0 0
15.7445 0 0
15.8617 0 0
15.9789 0 0
16.0961 0 0
16.2132 0 0
16.3304 0 0
16.4475 0 0
16.5646 0 0
16.6816 0 0
16.7986 0 0
16.9156 0 0
17.0326 0 0
17.1496 0 0
17.2665 0 0
17.3833 0 0
17.5002 0 0
17.617 0 0
17.7338 0 0
17.8505 0 0
17.9672 0 0
18.0839 0 0
18.2005 0 0
18.3171 0 0
18.4337 0 0
18.5502 0 0
18.6666 0 0
18.7831 0 0
18.8994 0 0
19.0158 0 0
19.1321 0 0
19.2483 0 0
19.3645 0 0
19.4806 0 0
19.5967 0 0
19.7128 0 0
19.8288 0 0
19.9447 0 0
20.0606 0 1
20.1764 0 1
20.2922 0 1
20.4079 0 1
20.5236 0 1
20.6392 0 1
20.7548 0 1
20.8702 0 1
23.3078 0 1
23.4233 0 1
23.539 0 1
23.6547 0 1
23.7704 0 1
23.8862 0 1
24.0021 0 1
24.118 0 1
24.234 0 1
24.35 0 1
24.4661 1356 36.8239
24.5822 1404 37.47
24.6984 1455 38.1445
24.8146 1413 37.5899
24.9309 1493 38.6394
25.0472 1410 37.55
25.1636 1425 37.7492
25.28 1557 39.4588
25.3965 1652 40.6448
25.513 1518 38.9615
25.6296 1543 39.281
25.7462 1554 39.4208
25.8628 1577 39.7115
25.9795 1466 38.2884
26.0962 1595 39.9375
26.213 1584 39.7995
26.3298 1590 39.8748
26.4466 1583 39.7869
26.5635 1602 40.025
26.6804 1537 39.2046
26.7973 1463 38.2492
26.9143 1427 37.7757
27.0313 1335 36.5377
27.1483 1360 36.8782
27.2653 1342 36.6333
27.3824 1389 37.2693
27.4996 1385 37.2156
27.6167 1364 36.9324
27.7339 1342 36.6333
27.8511 1358 36.8511
27.9683 1230 35.0714
28.0855 1309 36.1801
28.2028 1323 36.3731
28.3201 1324 36.3868
28.4374 1348 36.7151
28.5547 1364 36.9324
28.6721 1433 37.855
28.7894 1476 38.4187
28.9068 1528 39.0896
29.0242 1446 38.0263
29.1416 1520 38.9872
29.259 1491 38.6135
29.3764 1500 38.7298
29.4939 1480 38.4708
29.6113 1512 38.8844
29.7288 1501 38.7427
29.8463 1494 38.6523
29.9638 1437 37.9078
30.0812 1395 37.3497
30.1987 1430 37.8153
30.3162 1339 36.5923
30.4337 1277 35.7351
30.5512 1204 34.6987
30.6687 1227 35.0286
30.7862 1283 35.819
30.9037 1313 36.2353
31.0212 1278 35.7491
31.1387 1353 36.7831
31.2562 1335 36.5377
31.3737 1331 36.4829
31.4912 1283 35.819
31.6087 1298 36.0278
31.7262 1259 35.4824
31.8436 1271 35.6511
31.9611 1329 36.4555
32.0785 1302 36.0832
32.1959 1386 37.229
32.3134 1401 37.4299
32.4308 1461 38.223
32.5482 1458 38.1838
32.6655 1386 37.229
32.7829 1346 36.6879
32.9002 1328 36.4417
33.0176 1382 37.1753
33.1349 1400 37.4166
33.2522 1354 36.7967
33.3694 1399 37.4032
33.4867 1348 36.7151
33.6039 1432 37.8418
33.7211 1358 36.8511
33.8383 1438 37.921
33.9554 1379 37.1349
34.0725 1259 35.4824
34.1896 1198 34.6121
34.3067 1221 34.9428
34.4237 1226 35.0143
34.5407 1202 34.6699
34.6577 1237 35.171
34.7746 1283 35.819
34.8915 1334 36.524
35.0084 1231 35.0856
35.1252 1280 35.7771
35.242 1257 35.4542
35.3587 1134 33.6749
35.4755 1241 35.2278
35.5921 1213 34.8281
35.7088 1257 35.4542
35.8254 1339 36.5923
35.9419 1440 37.9473
36.0584 1351 36.756
36.1749 1404 37.47
36.2913 1319 36.318
36.4077 1415 37.6165
36.524 1350 36.7423
36.6403 1388 37.2559
36.7565 1363 36.9188
36.8727 1329 36.4555
36.9889 1372 37.0405
37.1049 1353 36.7831
37.221 0 1
37.3369 0 1
37.4529 0 1
37.5687 0 1
37.6845 0 1
37.8003 0 1
37.916 0 1
38.0316 0 1
38.1472 0 1
40.5851 0 1
40.7008 0 1
40.8164 0 1
40.9322 0 1
41.048 0 1
41.1639 0 1
41.2798 0 1
41.3958 0 1
41.5118 0 1
41.6279 0 1
41.744 1084 32.9242
41.8602 1107 33.2716
41.9765 1111 33.3317
42.0928 1105 33.2415
42.2091 1198 34.6121
42.3255 1124 33.5261
42.4419 1120 33.4664
42.5584 1153 33.9559
42.675 1130 33.6155
42.7915 1151 33.9264
42.9081 1048 32.3728
43.0248 1006 31.7175
43.1415 949 30.8058
43.2582 999 31.607
43.375 1072 32.7414
43.4918 1034 32.1559
43.6087 1084 32.9242
43.7256 1031 32.1092
43.8425 983 31.3528
43.9595 988 31.4325
44.0765 918 30.2985
44.1935 930 30.4959
44.3106 1030 32.0936
44.4277 1068 32.6803
44.5448 989 31.4484
44.6619 994 31.5278
44.7791 1031 32.1092
44.8963 1020 31.9374
45.0136 1070 32.7109
45.1308 989 31.4484
45.2481 967 31.0966
45.3654 1056 32.4962
45.4827 1038 32.218
45.6001 1013 31.8277
45.7174 991 31.4802
45.8348 999 31.607
45.9522 918 30.2985
46.0697 923 30.3809
46.1871 917 30.282
46.3046 952 30.8545
46.422 947 30.7734
46.5395 897 29.95
46.657 808 28.4253
46.7745 728 26.9815
46.892 745 27.2947
47.0096 755 27.4773
47.1271 836 28.9137
47.2446 827 28.7576
47.3622 803 28.3373
47.4797 730 27.0185
47.5973 729 27
47.7149 733 27.074
47.8324 765 27.6586
47.95 711 26.6646
48.0675 750 27.3861
48.1851 789 28.0891
48.3027 725 26.9258
48.4202 789 28.0891
48.5378 688 26.2298
48.6554 722 26.8701
48.7729 762 27.6043
48.8904 759 27.55
49.008 798 28.2489
49.1255 790 28.1069
49.243 829 28.7924
49.3605 755 27.4773
49.478 768 27.7128
49.5955 766 27.6767
49.713 803 28.3373
49.8304 845 29.0689
49.9479 825 28.7228
50.0653 772 27.7849
50.1827 770 27.7489
50.3001 658 25.6515
50.4175 662 25.7294
50.5348 671 25.9037
50.6521 749 27.3679
50.7694 764 27.6405
50.8867 794 28.178
51.004 768 27.7128
51.1212 783 27.9821
51.2384 821 28.6531
51.3556 920 30.3315
51.4727 902 30.0333
51.5899 886 29.7658
51.707 988 31.4325
51.824 942 30.692
51.9411 941 30.6757
52.0581 971 31.1609
52.175 1025 32.0156
52.2919 1028 32.0624
52.4088 947 30.7734
52.5257 996 31.5595
52.6425 934 30.5614
52.7593 955 30.9031
52.876 1002 31.6544
52.9927 1012 31.8119
53.1094 1013 31.8277
53.226 1034 32.1559
53.3426 1074 32.7719
53.4591 1100 33.1662
53.5756 1096 33.1059
53.692 1102 33.1964
53.8084 1008 31.749
53.9248 883 29.7153
54.0411 797 28.2312
54.1573 912 30.1993
54.2735 0 1
54.3896 0 1
54.5057 0 1
54.6217 0 1
54.7377 0 1
54.8537 0 1
54.9695 0 1
55.0853 0 1
55.2011 0 1
55.3168 0 1
55.4324 0 1
57.824 0 1
57.9396 0 1
58.0553 0 1
58.1711 0 1
58.2869 0 1
58.4028 0 1
58.5187 0 1
58.6347 0 1
58.7508 0 1
58.8669 0 1
58.983 1010 31.7805
59.0992 1056 32.4962
59.2155 993 31.5119
59.3318 985 31.3847
59.4482 1073 32.7567
59.5646 1054 32.4654
59.681 1069 32.6956
59.7975 1090 33.0151
59.9141 1101 33.1813
60.0306 1134 33.6749
60.1473 1176 34.2929
60.2639 1085 32.9393
60.3807 1141 33.7787
60.4974 1073 32.7567
60.6142 1106 33.2566
60.731 1104 33.2265
60.8479 1125 33.541
60.9648 1061 32.573
61.0818 1140 33.7639
61.1987 1134 33.6749
61.3158 1105 33.2415
61.4328 1048 32.3728
61.5499 1075 32.7872
61.667 1097 33.121
61.7841 1046 32.3419
61.9013 1005 31.7017
62.0185 1053 32.45
62.1357 1031 32.1092
62.253 1050 32.4037
62.3702 1002 31.6544
62.4875 968 31.1127
62.6049 879 29.6479
62.7222 936 30.5941
62.8396 910 30.1662
62.9569 871 29.5127
63.0743 870 29.4958
63.1918 916 30.2655
63.3092 995 31.5436
63.4267 949 30.8058
63.5441 990 31.4643
63.6616 1001 31.6386
63.7791 912 30.1993
63.8966 923 30.3809
64.0142 935 30.5778
64.1317 956 30.9192
64.2492 1013 31.8277
64.3668 892 29.8664
64.4843 888 29.7993
64.6019 882 29.6985
64.7195 930 30.4959
64.837 922 30.3645
64.9546 875 29.5804
65.0722 929 30.4795
65.1898 935 30.5778
65.3074 942 30.692
65.4249 897 29.95
65.5425 886 29.7658
65.6601 931 30.5123
65.7777 884 29.7321
65.8952 933 30.545
66.0128 887 29.7825
66.1304 840 28.9828
66.2479 798 28.2489
66.3655 681 26.096
66.483 793 28.1603
66.6005 795 28.1957
66.718 747 27.3313
66.8355 819 28.6182
66.953 783 27.9821
67.0705 897 29.95
67.1879 851 29.1719
67.3054 871 29.5127
67.4228 814 28.5307
67.5402 850 29.1548
67.6576 848 29.1204
67.7749 833 28.8617
67.8923 930 30.4959
68.0096 873 29.5466
68.1269 774 27.8209
68.2442 847 29.1033
68.3614 863 29.3769
68.4787 849 29.1376
68.5958 840 28.9828
68.713 836 28.9137
68.8302 806 28.3901
68.9473 823 28.688
69.0643 832 28.8444
69.1814 827 28.7576
69.2984 828 28.775
69.4154 833 28.8617
69.5323 823 28.688
69.6492 848 29.1204
69.7661 832 28.8444
69.8829 766 27.6767
69.9997 766 27.6767
70.1165 685 26.1725
70.2332 704 26.533
70.3499 697 26.4008
70.4665 779 27.9106
70.5831 758 27.5318
70.6996 749 27.3679
70.8161 800 28.2843
70.9326 748 27.3496
71.049 759 27.55
71.1653 812 28.4956
71.2817 761 27.5862
71.3979 676 26
71.5141 689 26.2488
71.6303 661 25.7099
71.7464 645 25.3969
71.8624 0 1
71.9784 0 1
72.0944 0 1
72.2102 0 1
72.3261 0 1
72.4418 0 1
72.5575 0 1
72.6732 0 1
75.1054 0 1
75.2209 0 1
75.3365 0 1
75.4521 0 1
75.5678 0 1
75.6835 0 1
75.7993 0 1
75.9151 0 1
76.031 0 1
76.147 553 23.516
76.263 574 23.9583
76.3791 581 24.1039
76.4952 564 23.7487
76.6113 608 24.6577
76.7276 624 24.98
76.8438 572 23.9165
76.9601 618 24.8596
77.0765 586 24.2074
77.1929 547 23.388
77.3093 554 23.5372
77.4258 549 23.4307
77.5423 564 23.7487
77.6589 584 24.1661
77.7755 511 22.6053
77.8921 533 23.0868
78.0088 537 23.1733
78.1256 496 22.2711
78.2423 549 23.4307
78.3591 551 23.4734
78.4759 470 21.6795
78.5928 457 21.3776
78.7097 434 20.8327
78.8266 522 22.8473
78.9436 468 21.6333
79.0606 412 20.2978
79.1776 333 18.2483
79.2946 342 18.4932
79.4117 401 20.025
79.5288 405 20.1246
79.6459 438 20.9284
79.7631 424 20.5913
79.8802 411 20.2731
79.9974 401 20.025
80.1147 420 20.4939
80.2319 374 19.3391
80.3491 371 19.2614
80.4664 373 19.3132
80.5837 349 18.6815
80.701 332 18.2209
80.8183 370 19.2354
80.9357 312 17.6635
81.053 354 18.8149
81.1704 314 17.72
81.2877 328 18.1108
81.4051 283 16.8226
81.5225 304 17.4356
81.6399 269 16.4012
81.7573 275 16.5831
81.8747 259 16.0935
81.9922 241 15.5242
82.1096 260 16.1245
82.227 250 15.8114
82.3444 237 15.3948
82.4619 202 14.2127
82.5793 216 14.6969
82.6967 206 14.3527
82.8142 212 14.5602
82.9316 178 13.3417
83.049 186 13.6382
83.1664 164 12.8062
83.2838 166 12.8841
83.4012 164 12.8062
83.5186 178 13.3417
83.636 135 11.619
83.7534 165 12.8452
83.8708 154 12.4097
83.9881 152 12.3288
84.1055 103 10.1489
84.2228 124 11.1355
84.3401 110 10.4881
84.4575 123 11.0905
84.5747 111 10.5357
84.692 106 10.2956
84.8093 108 10.3923
84.9265 102 10.0995
85.0437 123 11.0905
85.1609 99 9.94987
85.2781 93 9.64365
85.3952 92 9.59166
85.5123 86 9.27362
85.6294 89 9.43398
85.7465 94 9.69536
85.8636 112 10.583
85.9806 112 10.583
86.0976 88 9.38083
86.2145 77 8.77496
86.3315 76 8.7178
86.4484 110 10.4881
86.5652 112 10.583
86.682 143 11.9583
86.7988 119 10.9087
86.9156 139 11.7898
87.0323 119 10.9087
87.149 132 11.4891
87.2657 142 11.9164
87.3823 148 12.1655
87.4988 164 12.8062
87.6154 168 12.9615
87.7318 178 13.3417
87.8483 219 14.7986
87.9647 194 13.9284
88.081 218 14.7648
88.1973 227 15.0665
88.3136 236 15.3623
88.4298 240 15.4919
88.546 241 15.5242
88.6621 264 16.2481
88.7781 257 16.0312
88.8942 0 1
89.0101 0 1
89.126 0 1
89.2419 0 1
89.3577 0 1
89.4734 0 1
89.5891 0 1
89.7047 0 1
89.8203 0 1
89.9358 0 1
92.3269 0 1
92.4424 0 1
92.558 0 1
92.6736 0 1
92.7893 0 1
92.905 0 1
93.0208 0 1
93.1366 0 1
93.2525 0 1
93.3685 0 1
93.4845 0 1
93.6005 429 20.7123
93.7167 408 20.199
93.8328 389 19.7231
93.949 425 20.6155
94.0653 392 19.799
94.1816 412 20.2978
94.2979 367 19.1572
94.4143 376 19.3907
94.5307 349 18.6815
94.6472 322 17.9444
94.7637 344 18.5472
94.8803 323 17.9722
94.9969 351 18.735
95.1135 338 18.3848
95.2302 345 18.5742
95.3469 307 17.5214
95.4637 247 15.7162
95.5805 245 15.6525
95.6973 281 16.7631
95.8142 384 19.5959
95.9311 383 19.5704
96.048 361 19
96.1649 354 18.8149
96.2819 401 20.025
96.3989 411 20.2731
96.516 416 20.3961
96.633 398 19.9499
96.7501 412 20.2978
96.8673 427 20.664
96.9844 467 21.6102
97.1016 454 21.3073
97.2188 474 21.7715
97.336 529 23
97.4532 499 22.3383
97.5704 517 22.7376
97.6877 565 23.7697
97.805 523 22.8692
97.9223 530 23.0217
98.0396 528 22.9783
98.1569 610 24.6982
98.2743 538 23.1948
98.3916 607 24.6374
98.509 567 23.8118
98.6264 594 24.3721
98.7438 642 25.3377
98.8612 644 25.3772
98.9786 557 23.6008
99.096 412 20.2978
99.2134 440 20.9762
99.3308 588 24.2487
99.4482 688 26.2298
99.5656 727 26.9629
99.6831 754 27.4591
99.8005 737 27.1477
99.9179 714 26.7208
100.035 760 27.5681
100.153 773 27.8029
100.27 784 28
100.388 755 27.4773
100.505 870 29.4958
100.622 767 27.6948
100.74 765 27.6586
100.857 804 28.3549
100.975 812 28.4956
101.092 853 29.2062
101.209 884 29.7321
101.327 834 28.8791
101.444 852 29.189
101.561 854 29.2233
101.679 851 29.1719
101.796 862 29.3598
101.913 854 29.2233
102.03 833 28.8617
102.148 841 29
102.265 938 30.6268
102.382 864 29.3939
102.499 795 28.1957
102.616 616 24.8193
102.733 581 24.1039
102.851 744 27.2764
102.968 839 28.9655
103.085 883 29.7153
103.202 884 29.7321
103.319 922 30.3645
103.436 905 30.0832
103.552 938 30.6268
103.669 906 30.0998
103.786 895 29.9166
103.903 944 30.7246
104.02 892 29.8664
104.137 910 30.1662
104.253 940 30.6594
104.37 882 29.6985
104.487 869 29.4788
104.603 955 30.9031
104.72 963 31.0322
104.836 971 31.1609
104.953 891 29.8496
105.069 910 30.1662
105.186 923 30.3809
105.302 924 30.3974
105.418 917 30.282
105.535 897 29.95
105.651 956 30.9192
105.767 957 30.9354
105.883 855 29.2404
105.999 745 27.2947
106.115 0 1
106.231 0 1
106.347 0 1
106.463 0 1
106.579 0 1
106.694 0 1
106.81 0 1
106.926 0 1
107.041 0 1
107.157 0 1
109.576 0 1
109.692 0 1
109.807 0 1
109.923 0 1
110.039 0 1
110.155 0 1
110.27 0 1
110.386 0 1
110.502 0 1
110.618 765 27.6586
110.735 762 27.6043
110.851 701 26.4764
110.967 709 26.6271
111.083 635 25.1992
111.199 583 24.1454
111.316 562 23.7065
111.432 613 24.7588
111.549 647 25.4362
111.665 699 26.4386
111.782 675 25.9808
111.898 678 26.0384
112.015 648 25.4558
112.132 647 25.4362
112.248 622 24.9399
112.365 633 25.1595
112.482 619 24.8797
112.599 593 24.3516
112.716 605 24.5967
112.832 631 25.1197
112.949 598 24.454
113.066 573 23.9374
113.183 587 24.2281
113.3 598 24.454
113.417 576 24
113.534 611 24.7184
113.652 564 23.7487
113.769 526 22.9347
113.886 547 23.388
114.003 517 22.7376
114.12 525 22.9129
114.238 490 22.1359
114.355 503 22.4277
114.472 513 22.6495
114.589 467 21.6102
114.707 498 22.3159
114.824 467 21.6102
114.942 412 20.2978
115.059 478 21.8632
115.176 482 21.9545
115.294 550 23.4521
115.411 490 22.1359
115.529 518 22.7596
115.646 534 23.1084
115.764 467 21.6102
115.881 491 22.1585
115.999 521 22.8254
116.116 499 22.3383
116.234 495 22.2486
116.351 460 21.4476
116.469 528 22.9783
116.586 492 22.1811
116.704 515 22.6936
116.821 441 21
116.939 500 22.3607
117.056 524 22.891
117.174 474 21.7715
117.291 452 21.2603
117.409 473 21.7486
117.526 475 21.7945
117.644 501 22.383
117.761 500 22.3607
117.879 470 21.6795
117.996 378 19.4422
118.114 404 20.0998
118.231 428 20.6882
118.349 481 21.9317
118.466 472 21.7256
118.584 476 21.8174
118.701 459 21.4243
118.819 479 21.8861
118.936 543 23.3024
119.053 510 22.5832
119.171 533 23.0868
119.288 539 23.2164
119.405 457 21.3776
119.523 506 22.4944
119.64 498 22.3159
119.757 521 22.8254
119.875 539 23.2164
119.992 484 22
120.109 499 22.3383
120.226 510 22.5832
120.343 530 23.0217
120.46 517 22.7376
120.578 487 22.0681
120.695 480 21.9089
120.812 553 23.516
120.929 537 23.1733
121.046 505 22.4722
121.163 540 23.2379
121.279 543 23.3024
121.396 516 22.7156
121.513 473 21.7486
121.63 457 21.3776
121.747 356 18.868
121.863 381 19.5192
121.98 407 20.1742
122.097 514 22.6716
122.213 534 23.1084
122.33 510 22.5832
122.446 588 24.2487
122.563 537 23.1733
122.679 580 24.0832
122.795 561 23.6854
122.912 570 23.8747
123.028 556 23.5797
123.144 571 23.8956
123.26 577 24.0208
123.377 0 1
123.493 0 1
123.609 0 1
123.725 0 1
123.84 0 1
123.956 0 1
124.072 0 1
124.188 0 1
124.303 0 1
124.419 0 1
126.852 0 1
126.968 0 1
127.083 0 1
127.199 0 1
127.315 0 1
127.431 0 1
127.547 0 1
127.663 0 1
127.779 0 1
127.895 0 1
128.011 0 1
128.127 0 1
128.243 0 1
128.359 737 27.1477
128.476 724 26.9072
128.592 653 25.5539
128.708 755 27.4773
128.825 766 27.6767
128.941 733 27.074
129.058 707 26.5895
129.174 736 27.1293
129.291 738 27.1662
129.408 807 28.4077
129.524 747 27.3313
129.641 733 27.074
129.758 756 27.4955
129.875 720 26.8328
129.992 746 27.313
130.108 712 26.6833
130.225 721 26.8514
130.342 717 26.7769
130.459 604 24.5764
130.576 598 24.454
130.693 494 22.2261
130.81 490 22.1359
130.928 525 22.9129
131.045 594 24.3721
131.162 722 26.8701
131.279 747 27.3313
131.396 761 27.5862
131.513 736 27.1293
131.631 741 27.2213
131.748 827 28.7576
131.865 793 28.1603
131.983 785 28.0179
132.1 787 28.0535
132.217 845 29.0689
132.335 801 28.3019
132.452 760 27.5681
132.57 841 29
132.687 791 28.1247
132.804 822 28.6705
132.922 767 27.6948
133.039 756 27.4955
133.157 797 28.2312
133.274 783 27.9821
133.392 843 29.0345
133.509 805 28.3725
133.627 842 29.0172
133.744 770 27.7489
133.862 743 27.258
133.979 725 26.9258
134.097 676 26
134.214 587 24.2281
134.332 568 23.8328
134.449 544 23.3238
134.567 607 24.6374
134.684 751 27.4044
134.802 735 27.1109
134.919 817 28.5832
135.037 798 28.2489
135.154 849 29.1376
135.272 868 29.4618
135.389 888 29.7993
135.507 870 29.4958
135.624 886 29.7658
135.742 902 30.0333
135.859 865 29.4109
135.977 847 29.1033
136.094 894 29.8998
136.211 849 29.1376
136.329 856 29.2575
136.446 920 30.3315
136.564 876 29.5973
136.681 925 30.4138
136.798 899 29.9833
136.915 806 28.3901
137.033 899 29.9833
137.15 860 29.3258
137.267 853 29.2062
137.384 846 29.0861
137.502 790 28.1069
137.619 734 27.0924
137.736 704 26.533
137.853 618 24.8596
137.97 636 25.219
138.087 657 25.632
138.204 676 26
138.321 778 27.8927
138.438 851 29.1719
138.555 920 30.3315
138.672 920 30.3315
138.788 954 30.8869
138.905 981 31.3209
139.022 943 30.7083
139.139 905 30.0832
139.255 972 31.1769
139.372 934 30.5614
139.488 943 30.7083
139.605 964 31.0483
139.721 1007 31.7333
139.838 997 31.5753
139.954 1045 32.3265
140.071 976 31.241
140.187 977 31.257
140.303 976 31.241
140.419 999 31.607
140.535 904 30.0666
140.652 927 30.4467
140.768 0 1
140.884 0 1
141 0 1
141.115 0 1
141.231 0 1
141.347 0 1
141.463 0 1
141.578 0 1
141.694 0 1
144.104 0 1
144.219 0 1
144.335 0 1
144.45 0 1
144.566 0 1
144.682 0 1
144.798 0 1
144.914 0 1
145.03 0 1
145.146 1001 31.6386
145.262 881 29.6816
145.378 899 29.9833
145.494 890 29.8329
145.61 920 30.3315
145.726 931 30.5123
145.842 913 30.2159
145.959 813 28.5132
146.075 823 28.688
146.192 828 28.775
146.308 814 28.5307
146.425 719 26.8142
146.541 726 26.9444
146.658 702 26.4953
146.774 773 27.8029
146.891 763 27.6225
147.008 756 27.4955
147.125 811 28.4781
147.241 845 29.0689
147.358 942 30.692
147.475 913 30.2159
147.592 926 30.4302
147.709 900 30
147.826 917 30.282
147.943 948 30.7896
148.06 888 29.7993
148.177 926 30.4302
148.294 887 29.7825
148.411 902 30.0333
148.528 865 29.4109
148.645 950 30.8221
148.762 898 29.9666
148.88 956 30.9192
148.997 924 30.3974
149.114 957 30.9354
149.231 838 28.9482
149.349 892 29.8664
149.466 867 29.4449
149.583 864 29.3939
149.701 854 29.2233
149.818 799 28.2666
149.935 779 27.9106
150.053 689 26.2488
150.17 733 27.074
150.287 746 27.313
150.405 750 27.3861
150.522 830 28.8097
150.64 792 28.1425
150.757 853 29.2062
150.875 812 28.4956
150.992 911 30.1828
151.11 849 29.1376
151.227 900 30
151.344 959 30.9677
151.462 927 30.4467
151.579 945 30.7409
151.697 915 30.249
151.814 936 30.5941
151.932 915 30.249
152.049 964 31.0483
152.167 928 30.4631
152.284 936 30.5941
152.402 977 31.257
152.519 959 30.9677
152.636 972 31.1769
152.754 961 31
152.871 919 30.315
152.989 925 30.4138
153.106 915 30.249
153.223 892 29.8664
153.341 884 29.7321
153.458 799 28.2666
153.575 794 28.178
153.693 780 27.9285
153.81 826 28.7402
153.927 763 27.6225
154.044 757 27.5136
154.162 831 28.8271
154.279 849 29.1376
154.396 893 29.8831
154.513 938 30.6268
154.63 938 30.6268
154.747 958 30.9516
154.864 974 31.209
154.981 1039 32.2335
155.098 1031 32.1092
155.215 977 31.257
155.332 1054 32.4654
155.449 981 31.3209
155.566 997 31.5753
155.683 955 30.9031
155.8 968 31.1127
155.917 980 31.305
156.033 1007 31.7333
156.15 0 1
156.267 0 1
156.383 0 1
156.5 0 1
156.617 0 1
156.733 0 1
156.85 0 1
156.966 0 1
157.082 0 1
157.199 0 1
157.315 0 1
157.431 0 1
157.547 0 1
157.664 0 1
157.78 0 1
157.896 0 1
158.012 0 1
158.128 0 1
158.244 0 1
158.359 0 1
158.475 0 1
158.591 0 1
158.706 0 1
