
6.15755 0 1
6.2731 0 1
6.3887 0 1
6.50437 0 1
6.62009 0 1
6.73587 0 1
6.8517 0 1
6.96759 0 1
7.08353 0 1
7.19952 0 1
7.31557 0 1
7.43166 0 1
7.54781 0 1
7.664 0 1
7.78024 0 1
7.89653 0 1
8.01286 0 1
8.12924 0 1
8.24567 0 1
8.36213 0 1
8.47864 0 1
8.59519 0 1
8.71178 0 1
8.82841 0 1
8.94508 0 1
9.06179 0 1
9.17853 0 1
9.29531 0 1
9.41212 0 1
9.52897 0 1
9.64584 0 1
9.76276 0 1
9.8797 0 1
9.99667 0 1
10.1137 0 1
10.2307 0 1
10.3478 0 1
10.4648 0 1
10.5819 0 1
10.6991 0 1
10.8162 0 1
10.9334 0 1
11.0506 0 1
11.1678 0 1
11.285 0 1
11.4023 0 1
11.5196 0 1
11.6369 0 1
11.7542 0 1
11.8715 0 1
11.9888 0 1
12.1062 0 1
12.2235 0 1
12.3409 0 1
12.4582 0 1
12.5756 0 1
12.693 0 1
12.8104 0 1
12.9278 0 1
13.0452 0 1
13.1626 0 1
13.28 0 1
13.3974 0 1
13.5149 0 1
13.6323 0 1
13.7497 0 1
13.8671 0 1
13.9845 0 1
14.1019 0 1
14.2193 0 1
14.3367 0 1
14.4541 0 1
14.5714 0 1
14.6888 0 1
14.8062 0 1
14.9235 0 1
15.0408 1246 35.2987
15.1581 1252 35.3836
15.2755 1348 36.7151
15.3927 1292 35.9444
15.51 1289 35.9026
15.6273 1310 36.1939
15.7445 1330 36.4692
15.8617 1305 36.1248
15.9789 1261 35.5106
16.0961 1325 36.4005
16.2132 1344 36.6606
16.3304 1315 36.2629
16.4475 1403 37.4566
16.5646 1399 37.4032
16.6816 1486 38.5487
16.7986 1497 38.6911
16.9156 1629 40.3609
17.0326 1590 39.8748
17.1496 1598 39.975
17.2665 1563 39.5348
17.3833 1584 39.7995
17.5002 1557 39.4588
17.617 1471 38.3536
17.7338 1382 37.1753
17.8505 1332 36.4966
17.9672 1339 36.5923
18.0839 1389 37.2693
18.2005 1456 38.1576
18.3171 1404 37.47
18.4337 1425 37.7492
18.5502 1398 37.3898
18.6666 1602 40.025
18.7831 1597 39.9625
18.8994 1586 39.8246
19.0158 1537 39.2046
19.1321 1504 38.7814
19.2483 1353 36.7831
19.3645 1345 36.6742
19.4806 1309 36.1801
19.5967 1183 34.3948
19.7128 1071 32.7261
19.8288 945 30.7409
19.9447 992 31.496
20.0606 0 1
20.1764 0 1
20.2922 0 1
20.4079 0 1
20.5236 0 1
20.6392 0 1
20.7548 0 1
20.8702 0 1
23.3078 0 1
23.4233 0 1
23.539 0 1
23.6547 0 1
23.7704 0 1
23.8862 0 1
24.0021 0 1
24.118 0 1
24.234 0 1
24.35 0 1
24.4661 640 25.2982
24.5822 721 26.8514
24.6984 854 29.2233
24.8146 934 30.5614
24.9309 1033 32.1403
25.0472 1134 33.6749
25.1636 1237 35.171
25.28 1285 35.8469
25.3965 1448 38.0526
25.513 1545 39.3065
25.6296 1618 40.2244
25.7462 1572 39.6485
25.8628 1675 40.9268
25.9795 1677 40.9512
26.0962 1596 39.95
26.213 1653 40.6571
26.3298 1566 39.5727
26.4466 1504 38.7814
26.5635 1457 38.1707
26.6804 1484 38.5227
26.7973 1534 39.1663
26.9143 1552 39.3954
27.0313 1517 38.9487
27.1483 1562 39.5221
27.2653 1623 40.2865
27.3824 1586 39.8246
27.4996 1619 40.2368
27.6167 1687 41.0731
27.7339 1535 39.1791
27.8511 1623 40.2865
27.9683 1461 38.223
28.0855 1413 37.5899
28.2028 1427 37.7757
28.3201 1346 36.6879
28.4374 1264 35.5528
28.5547 1357 36.8375
28.6721 1371 37.027
28.7894 1472 38.3667
28.9068 1481 38.4838
29.0242 1611 40.1373
29.1416 1622 40.2741
29.259 1640 40.4969
29.3764 1560 39.4968
29.4939 1695 41.1704
29.6113 1619 40.2368
29.7288 1575 39.6863
29.8463 1462 38.2361
29.9638 1364 36.9324
30.0812 1276 35.7211
30.1987 1340 36.606
30.3162 1375 37.081
30.4337 1402 37.4433
30.5512 1514 38.9102
30.6687 1526 39.064
30.7862 1575 39.6863
30.9037 1614 40.1746
31.0212 1589 39.8623
31.1387 1445 38.0132
31.2562 1554 39.4208
31.3737 1533 39.1535
31.4912 1432 37.8418
31.6087 1381 37.1618
31.7262 1415 37.6165
31.8436 1364 36.9324
31.9611 1351 36.756
32.0785 1307 36.1525
32.1959 1312 36.2215
32.3134 1359 36.8646
32.4308 1529 39.1024
32.5482 1475 38.4057
32.6655 1539 39.2301
32.7829 1511 38.8716
32.9002 1574 39.6737
33.0176 1531 39.128
33.1349 1615 40.1871
33.2522 1570 39.6232
33.3694 1429 37.8021
33.4867 1389 37.2693
33.6039 1280 35.7771
33.7211 1323 36.3731
33.8383 1312 36.2215
33.9554 1328 36.4417
34.0725 1369 37
34.1896 1400 37.4166
34.3067 1412 37.5766
34.4237 1520 38.9872
34.5407 1500 38.7298
34.6577 1465 38.2753
34.7746 1481 38.4838
34.8915 1465 38.2753
35.0084 1476 38.4187
35.1252 1455 38.1445
35.242 1379 37.1349
35.3587 1382 37.1753
35.4755 1311 36.2077
35.5921 1278 35.7491
35.7088 1250 35.3553
35.8254 1212 34.8138
35.9419 1259 35.4824
36.0584 1355 36.8103
36.1749 1380 37.1484
36.2913 1394 37.3363
36.4077 1386 37.229
36.524 1379 37.1349
36.6403 1246 35.2987
36.7565 1235 35.1426
36.8727 1198 34.6121
36.9889 1090 33.0151
37.1049 987 31.4166
37.221 0 1
37.3369 0 1
37.4529 0 1
37.5687 0 1
37.6845 0 1
37.8003 0 1
37.916 0 1
38.0316 0 1
38.1472 0 1
40.5851 0 1
40.7008 0 1
40.8164 0 1
40.9322 0 1
41.048 0 1
41.1639 0 1
41.2798 0 1
41.3958 0 1
41.5118 0 1
41.6279 0 1
41.744 689 26.2488
41.8602 799 28.2666
41.9765 929 30.4795
42.0928 866 29.4279
42.2091 871 29.5127
42.3255 884 29.7321
42.4419 846 29.0861
42.5584 895 29.9166
42.675 978 31.273
42.7915 1005 31.7017
42.9081 1098 33.1361
43.0248 1169 34.1906
43.1415 1208 34.7563
43.2582 1208 34.7563
43.375 1223 34.9714
43.4918 1255 35.426
43.6087 1183 34.3948
43.7256 1200 34.641
43.8425 1261 35.5106
43.9595 1199 34.6266
44.0765 1221 34.9428
44.1935 1163 34.1028
44.3106 1024 32
44.4277 1024 32
44.5448 990 31.4643
44.6619 1034 32.1559
44.7791 1094 33.0757
44.8963 1181 34.3657
45.0136 1151 33.9264
45.1308 1278 35.7491
45.2481 1291 35.9305
45.3654 1230 35.0714
45.4827 1339 36.5923
45.6001 1243 35.2562
45.7174 1250 35.3553
45.8348 1144 33.8231
45.9522 1131 33.6303
46.0697 1039 32.2335
46.1871 1018 31.9061
46.3046 1053 32.45
46.422 1094 33.0757
46.5395 1171 34.2199
46.657 1158 34.0294
46.7745 1230 35.0714
46.892 1268 35.609
47.0096 1262 35.5246
47.1271 1271 35.6511
47.2446 1290 35.9166
47.3622 1260 35.4965
47.4797 1261 35.5106
47.5973 1253 35.3977
47.7149 1166 34.1467
47.8324 1169 34.1906
47.95 1092 33.0454
48.0675 1091 33.0303
48.1851 1090 33.0151
48.3027 1070 32.7109
48.4202 1143 33.8083
48.5378 1194 34.5543
48.6554 1315 36.2629
48.7729 1303 36.0971
48.8904 1261 35.5106
49.008 1295 35.9861
49.1255 1245 35.2846
49.243 1226 35.0143
49.3605 1219 34.9142
49.478 1046 32.3419
49.5955 984 31.3688
49.713 929 30.4795
49.8304 1040 32.249
49.9479 1091 33.0303
50.0653 1118 33.4365
50.1827 1182 34.3802
50.3001 1302 36.0832
50.4175 1301 36.0694
50.5348 1328 36.4417
50.6521 1381 37.1618
50.7694 1342 36.6333
50.8867 1344 36.6606
51.004 1379 37.1349
51.1212 1377 37.108
51.2384 1327 36.428
51.3556 1353 36.7831
51.4727 1300 36.0555
51.5899 1213 34.8281
51.707 1216 34.8712
51.824 1320 36.3318
51.9411 1433 37.855
52.0581 1482 38.4968
52.175 1634 40.4228
52.2919 1715 41.4126
52.4088 1708 41.328
52.5257 1695 41.1704
52.6425 1756 41.9047
52.7593 1799 42.4146
52.876 1760 41.9524
52.9927 1718 41.4488
53.1094 1569 39.6106
53.226 1450 38.0789
53.3426 1490 38.6005
53.4591 1419 37.6696
53.5756 1377 37.108
53.692 1518 38.9615
53.8084 1400 37.4166
53.9248 1458 38.1838
54.0411 1362 36.9053
54.1573 1305 36.1248
54.2735 0 1
54.3896 0 1
54.5057 0 1
54.6217 0 1
54.7377 0 1
54.8537 0 1
54.9695 0 1
55.0853 0 1
55.2011 0 1
55.3168 0 1
55.4324 0 1
57.824 0 1
57.9396 0 1
58.0553 0 1
58.1711 0 1
58.2869 0 1
58.4028 0 1
58.5187 0 1
58.6347 0 1
58.7508 0 1
58.8669 0 1
58.983 922 30.3645
59.0992 1073 32.7567
59.2155 1191 34.5109
59.3318 1237 35.171
59.4482 1295 35.9861
59.5646 1416 37.6298
59.681 1454 38.1314
59.7975 1455 38.1445
59.9141 1414 37.6032
60.0306 1407 37.51
60.1473 1354 36.7967
60.2639 1327 36.428
60.3807 1308 36.1663
60.4974 1322 36.3593
60.6142 1391 37.2961
60.731 1479 38.4578
60.8479 1550 39.37
60.9648 1601 40.0125
61.0818 1619 40.2368
61.1987 1629 40.3609
61.3158 1538 39.2173
61.4328 1618 40.2244
61.5499 1473 38.3797
61.667 1385 37.2156
61.7841 1283 35.819
61.9013 1221 34.9428
62.0185 1226 35.0143
62.1357 1322 36.3593
62.253 1359 36.8646
62.3702 1457 38.1707
62.4875 1495 38.6652
62.6049 1510 38.8587
62.7222 1565 39.5601
62.8396 1518 38.9615
62.9569 1629 40.3609
63.0743 1587 39.8372
63.1918 1550 39.37
63.3092 1565 39.5601
63.4267 1545 39.3065
63.5441 1495 38.6652
63.6616 1383 37.1887
63.7791 1283 35.819
63.8966 1270 35.6371
64.0142 1278 35.7491
64.1317 1355 36.8103
64.2492 1429 37.8021
64.3668 1543 39.281
64.4843 1590 39.8748
64.6019 1610 40.1248
64.7195 1525 39.0512
64.837 1528 39.0896
64.9546 1552 39.3954
65.0722 1529 39.1024
65.1898 1368 36.9865
65.3074 1261 35.5106
65.4249 1224 34.9857
65.5425 1160 34.0588
65.6601 1237 35.171
65.7777 1334 36.524
65.8952 1381 37.1618
66.0128 1450 38.0789
66.1304 1463 38.2492
66.2479 1622 40.2741
66.3655 1508 38.833
66.483 1606 40.0749
66.6005 1609 40.1123
66.718 1581 39.7618
66.8355 1515 38.923
66.953 1509 38.8458
67.0705 1456 38.1576
67.1879 1424 37.7359
67.3054 1416 37.6298
67.4228 1268 35.609
67.5402 1236 35.1568
67.6576 1212 34.8138
67.7749 1272 35.6651
67.8923 1441 37.9605
68.0096 1420 37.6829
68.1269 1450 38.0789
68.2442 1506 38.8072
68.3614 1498 38.704
68.4787 1490 38.6005
68.5958 1515 38.923
68.713 1480 38.4708
68.8302 1346 36.6879
68.9473 1333 36.5103
69.0643 1150 33.9116
69.1814 1062 32.5883
69.2984 1084 32.9242
69.4154 1259 35.4824
69.5323 1253 35.3977
69.6492 1408 37.5233
69.7661 1411 37.5633
69.8829 1466 38.2884
69.9997 1417 37.6431
70.1165 1442 37.9737
70.2332 1371 37.027
70.3499 1315 36.2629
70.4665 1264 35.5528
70.5831 1209 34.7707
70.6996 1115 33.3916
70.8161 1072 32.7414
70.9326 931 30.5123
71.049 807 28.4077
71.1653 693 26.3249
71.2817 570 23.8747
71.3979 500 22.3607
71.5141 587 24.2281
71.6303 547 23.388
71.7464 499 22.3383
71.8624 0 1
71.9784 0 1
72.0944 0 1
72.2102 0 1
72.3261 0 1
72.4418 0 1
72.5575 0 1
72.6732 0 1
75.1054 0 1
75.2209 0 1
75.3365 0 1
75.4521 0 1
75.5678 0 1
75.6835 0 1
75.7993 0 1
75.9151 0 1
76.031 0 1
76.147 880 29.6648
76.263 1019 31.9218
76.3791 905 30.0832
76.4952 932 30.5287
76.6113 984 31.3688
76.7276 1049 32.3883
76.8438 1199 34.6266
76.9601 1253 35.3977
77.0765 1322 36.3593
77.1929 1317 36.2905
77.3093 1363 36.9188
77.4258 1357 36.8375
77.5423 1308 36.1663
77.6589 1311 36.2077
77.7755 1209 34.7707
77.8921 1155 33.9853
78.0088 1040 32.249
78.1256 983 31.3528
78.2423 902 30.0333
78.3591 943 30.7083
78.4759 1037 32.2025
78.5928 1146 33.8526
78.7097 1207 34.7419
78.8266 1286 35.8608
78.9436 1331 36.4829
79.0606 1283 35.819
79.1776 1375 37.081
79.2946 1359 36.8646
79.4117 1352 36.7696
79.5288 1381 37.1618
79.6459 1272 35.6651
79.7631 1343 36.647
79.8802 1268 35.609
79.9974 1173 34.2491
80.1147 1091 33.0303
80.2319 1031 32.1092
80.3491 1089 33
80.4664 1092 33.0454
80.5837 1259 35.4824
80.701 1331 36.4829
80.8183 1333 36.5103
80.9357 1360 36.8782
81.053 1322 36.3593
81.1704 1445 38.0132
81.2877 1389 37.2693
81.4051 1384 37.2022
81.5225 1216 34.8712
81.6399 1130 33.6155
81.7573 1035 32.1714
81.8747 964 31.0483
81.9922 976 31.241
82.1096 1119 33.4515
82.227 1238 35.1852
82.3444 1222 34.9571
82.4619 1270 35.6371
82.5793 1426 37.7624
82.6967 1371 37.027
82.8142 1317 36.2905
82.9316 1396 37.3631
83.049 1383 37.1887
83.1664 1369 37
83.2838 1350 36.7423
83.4012 1304 36.1109
83.5186 1300 36.0555
83.636 1266 35.5809
83.7534 1178 34.322
83.8708 1085 32.9393
83.9881 1105 33.2415
84.1055 1133 33.6601
84.2228 1197 34.5977
84.3401 1271 35.6511
84.4575 1389 37.2693
84.5747 1443 37.9868
84.692 1455 38.1445
84.8093 1411 37.5633
84.9265 1385 37.2156
85.0437 1350 36.7423
85.1609 1175 34.2783
85.2781 1134 33.6749
85.3952 1033 32.1403
85.5123 1049 32.3883
85.6294 1034 32.1559
85.7465 1132 33.6452
85.8636 1216 34.8712
85.9806 1276 35.7211
86.0976 1353 36.7831
86.2145 1355 36.8103
86.3315 1401 37.4299
86.4484 1459 38.1969
86.5652 1428 37.7889
86.682 1385 37.2156
86.7988 1361 36.8917
86.9156 1402 37.4433
87.0323 1441 37.9605
87.149 1239 35.1994
87.2657 1191 34.5109
87.3823 1104 33.2265
87.4988 947 30.7734
87.6154 911 30.1828
87.7318 935 30.5778
87.8483 1039 32.2335
87.9647 1147 33.8674
88.081 1102 33.1964
88.1973 1083 32.909
88.3136 1077 32.8177
88.4298 1044 32.311
88.546 884 29.7321
88.6621 819 28.6182
88.7781 672 25.923
88.8942 0 1
89.0101 0 1
89.126 0 1
89.2419 0 1
89.3577 0 1
89.4734 0 1
89.5891 0 1
89.7047 0 1
89.8203 0 1
89.9358 0 1
92.3269 0 1
92.4424 0 1
92.558 0 1
92.6736 0 1
92.7893 0 1
92.905 0 1
93.0208 0 1
93.1366 0 1
93.2525 0 1
93.3685 0 1
93.4845 0 1
93.6005 1097 33.121
93.7167 1110 33.3167
93.8328 1137 33.7194
93.949 1187 34.4529
94.0653 1230 35.0714
94.1816 1210 34.7851
94.2979 1147 33.8674
94.4143 1120 33.4664
94.5307 1045 32.3265
94.6472 1037 32.2025
94.7637 1085 32.9393
94.8803 1186 34.4384
94.9969 1227 35.0286
95.1135 1291 35.9305
95.2302 1392 37.3095
95.3469 1425 37.7492
95.4637 1403 37.4566
95.5805 1483 38.5097
95.6973 1410 37.55
95.8142 1459 38.1969
95.9311 1429 37.8021
96.048 1423 37.7227
96.1649 1401 37.4299
96.2819 1421 37.6962
96.3989 1273 35.6791
96.516 1229 35.0571
96.633 1234 35.1283
96.7501 1183 34.3948
96.8673 1110 33.3167
96.9844 1203 34.6843
97.1016 1206 34.7275
97.2188 1475 38.4057
97.336 1463 38.2492
97.4532 1497 38.6911
97.5704 1503 38.7685
97.6877 1477 38.4318
97.805 1517 38.9487
97.9223 1369 37
98.0396 1161 34.0735
98.1569 1159 34.0441
98.2743 1060 32.5576
98.3916 1050 32.4037
98.509 1124 33.5261
98.6264 1267 35.5949
98.7438 1329 36.4555
98.8612 1404 37.47
98.9786 1437 37.9078
99.096 1478 38.4448
99.2134 1529 39.1024
99.3308 1514 38.9102
99.4482 1518 38.9615
99.5656 1543 39.281
99.6831 1520 38.9872
99.8005 1534 39.1663
99.9179 1397 37.3765
100.035 1439 37.9342
100.153 1380 37.1484
100.27 1300 36.0555
100.388 1183 34.3948
100.505 1253 35.3977
100.622 1352 36.7696
100.74 1444 38
100.857 1562 39.5221
100.975 1513 38.8973
101.092 1483 38.5097
101.209 1549 39.3573
101.327 1635 40.4351
101.444 1493 38.6394
101.561 1397 37.3765
101.679 1263 35.5387
101.796 1166 34.1467
101.913 1087 32.9697
102.03 1125 33.541
102.148 1236 35.1568
102.265 1389 37.2693
102.382 1474 38.3927
102.499 1561 39.5095
102.616 1525 39.0512
102.733 1579 39.7366
102.851 1624 40.2989
102.968 1637 40.4599
103.085 1516 38.9358
103.202 1634 40.4228
103.319 1570 39.6232
103.436 1488 38.5746
103.552 1526 39.064
103.669 1433 37.855
103.786 1345 36.6742
103.903 1280 35.7771
104.02 1268 35.609
104.137 1384 37.2022
104.253 1469 38.3275
104.37 1627 40.3361
104.487 1652 40.6448
104.603 1700 41.2311
104.72 1621 40.2616
104.836 1567 39.5854
104.953 1458 38.1838
105.069 1321 36.3456
105.186 1198 34.6121
105.302 1096 33.1059
105.418 1076 32.8024
105.535 1008 31.749
105.651 1045 32.3265
105.767 1010 31.7805
105.883 1001 31.6386
105.999 1003 31.6702
106.115 0 1
106.231 0 1
106.347 0 1
106.463 0 1
106.579 0 1
106.694 0 1
106.81 0 1
106.926 0 1
107.041 0 1
107.157 0 1
109.576 0 1
109.692 0 1
109.807 0 1
109.923 0 1
110.039 0 1
110.155 0 1
110.27 0 1
110.386 0 1
110.502 0 1
110.618 612 24.7386
110.735 855 29.2404
110.851 1001 31.6386
110.967 1134 33.6749
111.083 1203 34.6843
111.199 1376 37.0945
111.316 1444 38
111.432 1442 37.9737
111.549 1517 38.9487
111.665 1493 38.6394
111.782 1509 38.8458
111.898 1513 38.8973
112.015 1479 38.4578
112.132 1348 36.7151
112.248 1334 36.524
112.365 1229 35.0571
112.482 1220 34.9285
112.599 1334 36.524
112.716 1329 36.4555
112.832 1441 37.9605
112.949 1569 39.6106
113.066 1522 39.0128
113.183 1573 39.6611
113.3 1510 38.8587
113.417 1540 39.2428
113.534 1451 38.092
113.652 1289 35.9026
113.769 1189 34.4819
113.886 1200 34.641
114.003 1082 32.8938
114.12 1133 33.6601
114.238 1251 35.3695
114.355 1314 36.2491
114.472 1344 36.6606
114.589 1512 38.8844
114.707 1586 39.8246
114.824 1542 39.2683
114.942 1520 38.9872
115.059 1617 40.2119
115.176 1600 40
115.294 1597 39.9625
115.411 1488 38.5746
115.529 1512 38.8844
115.646 1547 39.3319
115.764 1330 36.4692
115.881 1374 37.0675
115.999 1200 34.641
116.116 1316 36.2767
116.234 1339 36.5923
116.351 1304 36.1109
116.469 1507 38.8201
116.586 1554 39.4208
116.704 1488 38.5746
116.821 1499 38.7169
116.939 1459 38.1969
117.056 1523 39.0256
117.174 1406 37.4967
117.291 1283 35.819
117.409 1204 34.6987
117.526 1132 33.6452
117.644 1118 33.4365
117.761 1227 35.0286
117.879 1310 36.1939
117.996 1390 37.2827
118.114 1424 37.7359
118.231 1426 37.7624
118.349 1472 38.3667
118.466 1460 38.2099
118.584 1558 39.4715
118.701 1525 39.0512
118.819 1588 39.8497
118.936 1543 39.281
119.053 1413 37.5899
119.171 1426 37.7624
119.288 1353 36.7831
119.405 1301 36.0694
119.523 1220 34.9285
119.64 1150 33.9116
119.757 1194 34.5543
119.875 1286 35.8608
119.992 1331 36.4829
120.109 1432 37.8418
120.226 1404 37.47
120.343 1467 38.3014
120.46 1456 38.1576
120.578 1444 38
120.695 1445 38.0132
120.812 1334 36.524
120.929 1266 35.5809
121.046 1179 34.3366
121.163 1056 32.4962
121.279 1024 32
121.396 952 30.8545
121.513 1109 33.3017
121.63 1083 32.909
121.747 1166 34.1467
121.863 1187 34.4529
121.98 1203 34.6843
122.097 1133 33.6601
122.213 1138 33.7343
122.33 1140 33.7639
122.446 1099 33.1512
122.563 982 31.3369
122.679 940 30.6594
122.795 974 31.209
122.912 762 27.6043
123.028 724 26.9072
123.144 670 25.8844
123.26 510 22.5832
123.377 0 1
123.493 0 1
123.609 0 1
123.725 0 1
123.84 0 1
123.956 0 1
124.072 0 1
124.188 0 1
124.303 0 1
124.419 0 1
126.852 0 1
126.968 0 1
127.083 0 1
127.199 0 1
127.315 0 1
127.431 0 1
127.547 0 1
127.663 0 1
127.779 0 1
127.895 0 1
128.011 0 1
128.127 0 1
128.243 0 1
128.359 1357 36.8375
128.476 1360 36.8782
128.592 1288 35.8887
128.708 1346 36.6879
128.825 1286 35.8608
128.941 1309 36.1801
129.058 1360 36.8782
129.174 1505 38.7943
129.291 1505 38.7943
129.408 1503 38.7685
129.524 1550 39.37
129.641 1574 39.6737
129.758 1484 38.5227
129.875 1429 37.8021
129.992 1386 37.229
130.108 1194 34.5543
130.225 1213 34.8281
130.342 1133 33.6601
130.459 1160 34.0588
130.576 1327 36.428
130.693 1366 36.9594
130.81 1369 37
130.928 1459 38.1969
131.045 1562 39.5221
131.162 1512 38.8844
131.279 1543 39.281
131.396 1510 38.8587
131.513 1565 39.5601
131.631 1547 39.3319
131.748 1516 38.9358
131.865 1460 38.2099
131.983 1470 38.3406
132.1 1379 37.1349
132.217 1284 35.8329
132.335 1273 35.6791
132.452 1404 37.47
132.57 1443 37.9868
132.687 1601 40.0125
132.804 1509 38.8458
132.922 1557 39.4588
133.039 1531 39.128
133.157 1640 40.4969
133.274 1621 40.2616
133.392 1491 38.6135
133.509 1356 36.8239
133.627 1265 35.5668
133.744 1201 34.6554
133.862 1206 34.7275
133.979 1225 35
134.097 1286 35.8608
134.214 1399 37.4032
134.332 1506 38.8072
134.449 1433 37.855
134.567 1507 38.8201
134.684 1485 38.5357
134.802 1521 39
134.919 1593 39.9124
135.037 1507 38.8201
135.154 1476 38.4187
135.272 1567 39.5854
135.389 1522 39.0128
135.507 1440 37.9473
135.624 1404 37.47
135.742 1338 36.5787
135.859 1313 36.2353
135.977 1332 36.4966
136.094 1479 38.4578
136.211 1508 38.833
136.329 1523 39.0256
136.446 1515 38.923
136.564 1570 39.6232
136.681 1540 39.2428
136.798 1491 38.6135
136.915 1586 39.8246
137.033 1532 39.1408
137.15 1377 37.108
137.267 1358 36.8511
137.384 1225 35
137.502 1215 34.8569
137.619 1228 35.0428
137.736 1306 36.1386
137.853 1365 36.9459
137.97 1481 38.4838
138.087 1468 38.3145
138.204 1497 38.6911
138.321 1502 38.7556
138.438 1539 39.2301
138.555 1577 39.7115
138.672 1506 38.8072
138.788 1519 38.9744
138.905 1380 37.1484
139.022 1368 36.9865
139.139 1271 35.6511
139.255 1210 34.7851
139.372 1080 32.8634
139.488 1066 32.6497
139.605 1019 31.9218
139.721 1008 31.749
139.838 1033 32.1403
139.954 979 31.289
140.071 946 30.7571
140.187 947 30.7734
140.303 806 28.3901
140.419 844 29.0517
140.535 773 27.8029
140.652 687 26.2107
140.768 0 1
140.884 0 1
141 0 1
141.115 0 1
141.231 0 1
141.347 0 1
141.463 0 1
141.578 0 1
141.694 0 1
144.104 0 1
144.219 0 1
144.335 0 1
144.45 0 1
144.566 0 1
144.682 0 1
144.798 0 1
144.914 0 1
145.03 0 1
145.146 1063 32.6037
145.262 1204 34.6987
145.378 1199 34.6266
145.494 1209 34.7707
145.61 1327 36.428
145.726 1276 35.7211
145.842 1183 34.3948
145.959 1099 33.1512
146.075 1047 32.3574
146.192 958 30.9516
146.308 988 31.4325
146.425 1007 31.7333
146.541 1044 32.311
146.658 1142 33.7935
146.774 1145 33.8378
146.891 1121 33.4813
147.008 1217 34.8855
147.125 1207 34.7419
147.241 1209 34.7707
147.358 1221 34.9428
147.475 1238 35.1852
147.592 1177 34.3074
147.709 1230 35.0714
147.826 1244 35.2704
147.943 1071 32.7261
148.06 1098 33.1361
148.177 1105 33.2415
148.294 1093 33.0606
148.411 1072 32.7414
148.528 1063 32.6037
148.645 1101 33.1813
148.762 1270 35.6371
148.88 1151 33.9264
148.997 1239 35.1994
149.114 1333 36.5103
149.231 1191 34.5109
149.349 1302 36.0832
149.466 1211 34.7994
149.583 1087 32.9697
149.701 1049 32.3883
149.818 1046 32.3419
149.935 972 31.1769
150.053 895 29.9166
150.17 984 31.3688
150.287 1042 32.28
150.405 1062 32.5883
150.522 1144 33.8231
150.64 1184 34.4093
150.757 1191 34.5109
150.875 1272 35.6651
150.992 1181 34.3657
151.11 1231 35.0856
151.227 1133 33.6601
151.344 1129 33.6006
151.462 1056 32.4962
151.579 1111 33.3317
151.697 1053 32.45
151.814 1021 31.9531
151.932 1016 31.8748
152.049 1040 32.249
152.167 1071 32.7261
152.284 1095 33.0908
152.402 1151 33.9264
152.519 1209 34.7707
152.636 1175 34.2783
152.754 1239 35.1994
152.871 1141 33.7787
152.989 1133 33.6601
153.106 1116 33.4066
153.223 1062 32.5883
153.341 961 31
153.458 981 31.3209
153.575 961 31
153.693 891 29.8496
153.81 968 31.1127
153.927 1038 32.218
154.044 1109 33.3017
154.162 1110 33.3167
154.279 1109 33.3017
154.396 1021 31.9531
154.513 1094 33.0757
154.63 1075 32.7872
154.747 1185 34.4238
154.864 1104 33.2265
154.981 1088 32.9848
155.098 1022 31.9687
155.215 1020 31.9374
155.332 938 30.6268
155.449 865 29.4109
155.566 955 30.9031
155.683 1021 31.9531
155.8 1072 32.7414
155.917 986 31.4006
156.033 977 31.257
156.15 0 1
156.267 0 1
156.383 0 1
156.5 0 1
156.617 0 1
156.733 0 1
156.85 0 1
156.966 0 1
157.082 0 1
157.199 0 1
157.315 0 1
157.431 0 1
157.547 0 1
157.664 0 1
157.78 0 1
157.896 0 1
158.012 0 1
158.128 0 1
158.244 0 1
158.359 0 1
158.475 0 1
158.591 0 1
158.706 0 1
