
6.15755 0 1
6.2731 0 1
6.3887 0 1
6.50437 0 1
6.62009 0 1
6.73587 0 1
6.8517 0 1
6.96759 0 1
7.08353 0 1
7.19952 0 1
7.31557 0 1
7.43166 0 1
7.54781 0 1
7.664 0 1
7.78024 0 1
7.89653 0 1
8.01286 0 1
8.12924 0 1
8.24567 0 1
8.36213 0 1
8.47864 0 1
8.59519 0 1
8.71178 0 1
8.82841 0 1
8.94508 0 1
9.06179 0 1
9.17853 0 1
9.29531 0 1
9.41212 0 1
9.52897 0 1
9.64584 0 1
9.76276 0 1
9.8797 0 1
9.99667 0 1
10.1137 0 1
10.2307 0 1
10.3478 0 1
10.4648 0 1
10.5819 0 1
10.6991 0 1
10.8162 0 1
10.9334 0 1
11.0506 0 1
11.1678 0 1
11.285 0 1
11.4023 0 1
11.5196 0 1
11.6369 0 1
11.7542 0 1
11.8715 0 1
11.9888 0 1
12.1062 0 1
12.2235 0 1
12.3409 0 1
12.4582 0 1
12.5756 0 1
12.693 0 1
12.8104 0 1
12.9278 0 1
13.0452 0 1
13.1626 0 1
13.28 0 1
13.3974 0 1
13.5149 0 1
13.6323 0 1
13.7497 0 1
13.8671 0 1
13.9845 0 1
14.1019 0 1
14.2193 0 1
14.3367 0 1
14.4541 0 1
14.5714 0 1
14.6888 0 1
14.8062 0 1
14.9235 0 1
15.0408 2064 45.4313
15.1581 2138 46.2385
15.2755 2312 48.0833
15.3927 2256 47.4974
15.51 2266 47.6025
15.6273 2259 47.5289
15.7445 2301 47.9687
15.8617 2203 46.9361
15.9789 2180 46.6905
16.0961 2095 45.7712
16.2132 1980 44.4972
16.3304 1911 43.715
16.4475 1953 44.1928
16.5646 1904 43.6348
16.6816 1988 44.587
16.7986 1928 43.909
16.9156 1981 44.5084
17.0326 1998 44.699
17.1496 1876 43.3128
17.2665 1774 42.1189
17.3833 1893 43.5086
17.5002 1901 43.6005
17.617 1854 43.0581
17.7338 1944 44.0908
17.8505 1918 43.795
17.9672 2064 45.4313
18.0839 2032 45.0777
18.2005 1993 44.643
18.3171 2083 45.6399
18.4337 2208 46.9894
18.5502 2091 45.7275
18.6666 2078 45.5851
18.7831 2146 46.3249
18.8994 2100 45.8258
19.0158 2054 45.3211
19.1321 1932 43.9545
19.2483 1892 43.4971
19.3645 1712 41.3763
19.4806 1557 39.4588
19.5967 1448 38.0526
19.7128 1347 36.7015
19.8288 1264 35.5528
19.9447 1140 33.7639
20.0606 0 1
20.1764 0 1
20.2922 0 1
20.4079 0 1
20.5236 0 1
20.6392 0 1
20.7548 0 1
20.8702 0 1
23.3078 0 1
23.4233 0 1
23.539 0 1
23.6547 0 1
23.7704 0 1
23.8862 0 1
24.0021 0 1
24.118 0 1
24.234 0 1
24.35 0 1
24.4661 895 29.9166
24.5822 954 30.8869
24.6984 1094 33.0757
24.8146 1164 34.1174
24.9309 1137 33.7194
25.0472 1323 36.3731
25.1636 1430 37.8153
25.28 1479 38.4578
25.3965 1629 40.3609
25.513 1841 42.9069
25.6296 1893 43.5086
25.7462 1986 44.5646
25.8628 1986 44.5646
25.9795 2092 45.7384
26.0962 2105 45.8803
26.213 2130 46.1519
26.3298 2064 45.4313
26.4466 2011 44.8442
26.5635 1881 43.3705
26.6804 1883 43.3935
26.7973 2002 44.7437
26.9143 1969 44.3734
27.0313 1942 44.0681
27.1483 2074 45.5412
27.2653 2020 44.9444
27.3824 2028 45.0333
27.4996 2083 45.6399
27.6167 2047 45.2438
27.7339 2047 45.2438
27.8511 1857 43.0929
27.9683 1882 43.382
28.0855 1820 42.6615
28.2028 1747 41.7971
28.3201 1645 40.5586
28.4374 1568 39.598
28.5547 1571 39.6358
28.6721 1541 39.2556
28.7894 1662 40.7676
28.9068 1761 41.9643
29.0242 1870 43.2435
29.1416 1811 42.5558
29.259 1822 42.6849
29.3764 1872 43.2666
29.4939 1806 42.4971
29.6113 1931 43.9431
29.7288 1937 44.0114
29.8463 1899 43.5775
29.9638 1874 43.2897
30.0812 1854 43.0581
30.1987 1847 42.9767
30.3162 1856 43.0813
30.4337 1861 43.1393
30.5512 1941 44.0568
30.6687 1974 44.4297
30.7862 1910 43.7035
30.9037 2006 44.7884
31.0212 2034 45.0999
31.1387 1960 44.2719
31.2562 1851 43.0232
31.3737 1874 43.2897
31.4912 1893 43.5086
31.6087 1750 41.833
31.7262 1756 41.9047
31.8436 1613 40.1622
31.9611 1512 38.8844
32.0785 1503 38.7685
32.1959 1608 40.0999
32.3134 1634 40.4228
32.4308 1782 42.2137
32.5482 1783 42.2256
32.6655 1868 43.2204
32.7829 1868 43.2204
32.9002 1801 42.4382
33.0176 1859 43.1161
33.1349 1791 42.3202
33.2522 1883 43.3935
33.3694 1839 42.8836
33.4867 1873 43.2782
33.6039 1835 42.8369
33.7211 1781 42.2019
33.8383 1786 42.2611
33.9554 1765 42.0119
34.0725 1880 43.359
34.1896 1896 43.5431
34.3067 1971 44.3959
34.4237 1912 43.7264
34.5407 2020 44.9444
34.6577 1903 43.6234
34.7746 1899 43.5775
34.8915 1881 43.3705
35.0084 1922 43.8406
35.1252 1769 42.0595
35.242 1809 42.5323
35.3587 1763 41.9881
35.4755 1600 40
35.5921 1495 38.6652
35.7088 1507 38.8201
35.8254 1370 37.0135
35.9419 1564 39.5474
36.0584 1563 39.5348
36.1749 1528 39.0896
36.2913 1668 40.8412
36.4077 1633 40.4104
36.524 1687 41.0731
36.6403 1608 40.0999
36.7565 1574 39.6737
36.8727 1495 38.6652
36.9889 1491 38.6135
37.1049 1367 36.973
37.221 0 1
37.3369 0 1
37.4529 0 1
37.5687 0 1
37.6845 0 1
37.8003 0 1
37.916 0 1
38.0316 0 1
38.1472 0 1
40.5851 0 1
40.7008 0 1
40.8164 0 1
40.9322 0 1
41.048 0 1
41.1639 0 1
41.2798 0 1
41.3958 0 1
41.5118 0 1
41.6279 0 1
41.744 876 29.5973
41.8602 919 30.315
41.9765 1041 32.2645
42.0928 1116 33.4066
42.2091 1202 34.6699
42.3255 1312 36.2215
42.4419 1304 36.1109
42.5584 1334 36.524
42.675 1388 37.2559
42.7915 1486 38.5487
42.9081 1657 40.7063
43.0248 1750 41.833
43.1415 1757 41.9166
43.2582 1753 41.8688
43.375 1700 41.2311
43.4918 1788 42.2847
43.6087 1797 42.391
43.7256 1766 42.0238
43.8425 1737 41.6773
43.9595 1714 41.4005
44.0765 1729 41.5812
44.1935 1605 40.0625
44.3106 1568 39.598
44.4277 1427 37.7757
44.5448 1420 37.6829
44.6619 1400 37.4166
44.7791 1490 38.6005
44.8963 1486 38.5487
45.0136 1623 40.2865
45.1308 1779 42.1782
45.2481 1694 41.1582
45.3654 1657 40.7063
45.4827 1665 40.8044
45.6001 1729 41.5812
45.7174 1769 42.0595
45.8348 1780 42.19
45.9522 1726 41.5452
46.0697 1655 40.6817
46.1871 1727 41.5572
46.3046 1761 41.9643
46.422 1752 41.8569
46.5395 1843 42.9302
46.657 1875 43.3013
46.7745 1904 43.6348
46.892 1941 44.0568
47.0096 1968 44.3621
47.1271 2001 44.7325
47.2446 1995 44.6654
47.3622 1902 43.6119
47.4797 1922 43.8406
47.5973 1850 43.0116
47.7149 1875 43.3013
47.8324 1809 42.5323
47.95 1604 40.05
48.0675 1514 38.9102
48.1851 1580 39.7492
48.3027 1592 39.8999
48.4202 1640 40.4969
48.5378 1882 43.382
48.6554 1887 43.4396
48.7729 1875 43.3013
48.8904 1882 43.382
49.008 1905 43.6463
49.1255 1896 43.5431
49.243 1787 42.2729
49.3605 1865 43.1856
49.478 1846 42.9651
49.5955 1819 42.6497
49.713 1840 42.8952
49.8304 1935 43.9886
49.9479 1981 44.5084
50.0653 1997 44.6878
50.1827 2102 45.8476
50.3001 2038 45.1442
50.4175 2184 46.7333
50.5348 2149 46.3573
50.6521 2158 46.4543
50.7694 2207 46.9787
50.8867 2140 46.2601
51.004 2177 46.6583
51.1212 2105 45.8803
51.2384 2050 45.2769
51.3556 1875 43.3013
51.4727 1728 41.5692
51.5899 1718 41.4488
51.707 1744 41.7612
51.824 1777 42.1545
51.9411 1860 43.1277
52.0581 2051 45.288
52.175 2094 45.7602
52.2919 2061 45.3982
52.4088 2072 45.5192
52.5257 2113 45.9674
52.6425 2185 46.744
52.7593 2145 46.3141
52.876 2169 46.5725
52.9927 2045 45.2217
53.1094 2161 46.4866
53.226 2004 44.7661
53.3426 2073 45.5302
53.4591 2017 44.911
53.5756 2107 45.9021
53.692 2151 46.3789
53.8084 2076 45.5631
53.9248 1985 44.5533
54.0411 2095 45.7712
54.1573 1904 43.6348
54.2735 0 1
54.3896 0 1
54.5057 0 1
54.6217 0 1
54.7377 0 1
54.8537 0 1
54.9695 0 1
55.0853 0 1
55.2011 0 1
55.3168 0 1
55.4324 0 1
57.824 0 1
57.9396 0 1
58.0553 0 1
58.1711 0 1
58.2869 0 1
58.4028 0 1
58.5187 0 1
58.6347 0 1
58.7508 0 1
58.8669 0 1
58.983 1668 40.8412
59.0992 2030 45.0555
59.2155 2295 47.9062
59.3318 2441 49.4065
59.4482 2660 51.5752
59.5646 2783 52.7541
59.681 3030 55.0454
59.7975 3072 55.4256
59.9141 3002 54.7905
60.0306 3031 55.0545
60.1473 2946 54.2771
60.2639 2796 52.8772
60.3807 2668 51.6527
60.4974 2815 53.0566
60.6142 2993 54.7083
60.731 3180 56.3915
60.8479 3368 58.0345
60.9648 3412 58.4123
61.0818 3614 60.1166
61.1987 3627 60.2246
61.3158 3612 60.0999
61.4328 3630 60.2495
61.5499 3715 60.9508
61.667 3564 59.6992
61.7841 3540 59.4979
61.9013 3601 60.0083
62.0185 3649 60.407
62.1357 3681 60.6712
62.253 3738 61.1392
62.3702 3695 60.7865
62.4875 3945 62.8092
62.6049 4059 63.7103
62.7222 4021 63.4114
62.8396 4112 64.1249
62.9569 4185 64.6916
63.0743 4177 64.6297
63.1918 4062 63.7338
63.3092 3866 62.1772
63.4267 3884 62.3217
63.5441 3621 60.1747
63.6616 3199 56.5597
63.7791 3021 54.9636
63.8966 2972 54.5161
64.0142 2920 54.037
64.1317 3161 56.2228
64.2492 3390 58.2237
64.3668 3746 61.2046
64.4843 3844 62
64.6019 3752 61.2536
64.7195 3864 62.1611
64.837 3952 62.8649
64.9546 4083 63.8984
65.0722 3942 62.7853
65.1898 3825 61.8466
65.3074 3977 63.0635
65.4249 3853 62.0725
65.5425 3793 61.5873
65.6601 3883 62.3137
65.7777 4045 63.6003
65.8952 3935 62.7296
66.0128 4123 64.2106
66.1304 4115 64.1483
66.2479 4251 65.1997
66.3655 4244 65.146
66.483 4410 66.4078
66.6005 4239 65.1076
66.718 4358 66.0151
66.8355 4262 65.284
66.953 4171 64.5833
67.0705 3792 61.5792
67.1879 3626 60.2163
67.3054 3301 57.4543
67.4228 2933 54.1572
67.5402 2874 53.6097
67.6576 3067 55.3805
67.7749 3263 57.1227
67.8923 3522 59.3464
68.0096 3802 61.6604
68.1269 3964 62.9603
68.2442 4079 63.867
68.3614 4067 63.773
68.4787 4146 64.3894
68.5958 4075 63.8357
68.713 3905 62.49
68.8302 4012 63.3404
68.9473 3993 63.1902
69.0643 3918 62.5939
69.1814 3912 62.546
69.2984 3847 62.0242
69.4154 3917 62.5859
69.5323 3893 62.3939
69.6492 4085 63.914
69.7661 4147 64.3972
69.8829 3986 63.1348
69.9997 4208 64.8691
70.1165 4108 64.0937
70.2332 4197 64.7843
70.3499 4028 63.4665
70.4665 3820 61.8061
70.5831 3522 59.3464
70.6996 3265 57.1402
70.8161 2991 54.69
70.9326 2532 50.319
71.049 2104 45.8694
71.1653 1759 41.9404
71.2817 1613 40.1622
71.3979 1620 40.2492
71.5141 1523 39.0256
71.6303 1547 39.3319
71.7464 1337 36.565
71.8624 0 1
71.9784 0 1
72.0944 0 1
72.2102 0 1
72.3261 0 1
72.4418 0 1
72.5575 0 1
72.6732 0 1
75.1054 0 1
75.2209 0 1
75.3365 0 1
75.4521 0 1
75.5678 0 1
75.6835 0 1
75.7993 0 1
75.9151 0 1
76.031 0 1
76.147 2083 45.6399
76.263 2116 46
76.3791 2209 47
76.4952 2029 45.0444
76.6113 2184 46.7333
76.7276 2525 50.2494
76.8438 2948 54.2955
76.9601 3275 57.2276
77.0765 3347 57.8533
77.1929 3394 58.258
77.3093 3604 60.0333
77.4258 3624 60.1997
77.5423 3551 59.5903
77.6589 3698 60.8112
77.7755 3456 58.7878
77.8921 3580 59.8331
78.0088 3455 58.7792
78.1256 3449 58.7282
78.2423 3402 58.3267
78.3591 3335 57.7495
78.4759 3437 58.6259
78.5928 3389 58.2151
78.7097 3568 59.7327
78.8266 3641 60.3407
78.9436 3899 62.442
79.0606 3870 62.2093
79.1776 3893 62.3939
79.2946 4017 63.3798
79.4117 3978 63.0714
79.5288 3829 61.8789
79.6459 3628 60.2329
79.7631 3504 59.1946
79.8802 3242 56.9386
79.9974 2801 52.9245
80.1147 2503 50.03
80.2319 2526 50.2593
80.3491 2842 53.3104
80.4664 3019 54.9454
80.5837 3441 58.66
80.701 3527 59.3886
80.8183 3708 60.8933
80.9357 3707 60.8851
81.053 3807 61.7009
81.1704 3678 60.6465
81.2877 3678 60.6465
81.4051 3752 61.2536
81.5225 3763 61.3433
81.6399 3653 60.4401
81.7573 3520 59.3296
81.8747 3635 60.291
81.9922 3640 60.3324
82.1096 3561 59.6741
82.227 3582 59.8498
82.3444 3795 61.6036
82.4619 3840 61.9677
82.5793 3961 62.9365
82.6967 4096 64
82.8142 4190 64.7302
82.9316 4115 64.1483
83.049 4104 64.0625
83.1664 3953 62.8729
83.2838 3774 61.4329
83.4012 3477 58.9661
83.5186 3262 57.1139
83.636 2882 53.6843
83.7534 2571 50.705
83.8708 2544 50.4381
83.9881 2753 52.469
84.1055 3091 55.5968
84.2228 3319 57.6108
84.3401 3642 60.349
84.4575 3861 62.1369
84.5747 3785 61.5224
84.692 3884 62.3217
84.8093 4013 63.3482
84.9265 3817 61.7819
85.0437 3806 61.6928
85.1609 3813 61.7495
85.2781 3708 60.8933
85.3952 3722 61.0082
85.5123 3706 60.8769
85.6294 3643 60.3573
85.7465 3566 59.716
85.8636 3626 60.2163
85.9806 3884 62.3217
86.0976 3953 62.8729
86.2145 4178 64.6375
86.3315 4149 64.4127
86.4484 4023 63.4271
86.5652 4061 63.726
86.682 4143 64.3661
86.7988 4013 63.3482
86.9156 3662 60.5145
87.0323 3501 59.1692
87.149 3212 56.6745
87.2657 2793 52.8488
87.3823 2522 50.2195
87.4988 2539 50.3885
87.6154 2819 53.0943
87.7318 3020 54.9545
87.8483 3347 57.8533
87.9647 3336 57.7581
88.081 3250 57.0088
88.1973 3311 57.5413
88.3136 3141 56.0446
88.4298 2934 54.1664
88.546 2530 50.2991
88.6621 2219 47.1063
88.7781 1905 43.6463
88.8942 0 1
89.0101 0 1
89.126 0 1
89.2419 0 1
89.3577 0 1
89.4734 0 1
89.5891 0 1
89.7047 0 1
89.8203 0 1
89.9358 0 1
92.3269 0 1
92.4424 0 1
92.558 0 1
92.6736 0 1
92.7893 0 1
92.905 0 1
93.0208 0 1
93.1366 0 1
93.2525 0 1
93.3685 0 1
93.4845 0 1
93.6005 2686 51.8266
93.7167 2928 54.111
93.8328 3060 55.3173
93.949 3309 57.5239
94.0653 3567 59.7244
94.1816 3752 61.2536
94.2979 3874 62.2415
94.4143 3969 63
94.5307 3837 61.9435
94.6472 3848 62.0322
94.7637 3951 62.857
94.8803 4015 63.364
94.9969 3964 62.9603
95.1135 4054 63.671
95.2302 4388 66.242
95.3469 4377 66.1589
95.4637 4310 65.6506
95.5805 4322 65.7419
95.6973 4390 66.2571
95.8142 4127 64.2417
95.9311 4122 64.2028
96.048 3753 61.2617
96.1649 3632 60.2661
96.2819 3397 58.2838
96.3989 3197 56.542
96.516 3042 55.1543
96.633 2923 54.0648
96.7501 3239 56.9122
96.8673 3437 58.6259
96.9844 3712 60.9262
97.1016 3863 62.153
97.2188 3970 63.0079
97.336 4060 63.7181
97.4532 4130 64.2651
97.5704 3930 62.6897
97.6877 3985 63.1269
97.805 3850 62.0484
97.9223 3930 62.6897
98.0396 3851 62.0564
98.1569 3708 60.8933
98.2743 3729 61.0655
98.3916 3789 61.5549
98.509 4073 63.8201
98.6264 4097 64.0078
98.7438 4203 64.8305
98.8612 4303 65.5973
98.9786 4417 66.4605
99.096 4413 66.4304
99.2134 4511 67.164
99.3308 4245 65.1537
99.4482 4402 66.3476
99.5656 4224 64.9923
99.6831 3977 63.0635
99.8005 3574 59.7829
99.9179 3475 58.9491
100.035 3190 56.4801
100.153 3304 57.4804
100.27 3452 58.7537
100.388 3624 60.1997
100.505 3956 62.8967
100.622 4067 63.773
100.74 4038 63.5453
100.857 4111 64.1171
100.975 4193 64.7534
101.092 4142 64.3584
101.209 4131 64.2729
101.327 3980 63.0872
101.444 4025 63.4429
101.561 3828 61.8708
101.679 3926 62.6578
101.796 3959 62.9206
101.913 3911 62.538
102.03 3988 63.1506
102.148 4076 63.8436
102.265 4236 65.0846
102.382 4177 64.6297
102.499 4286 65.4675
102.616 4369 66.0984
102.733 4519 67.2235
102.851 4518 67.2161
102.968 4493 67.0298
103.085 4261 65.2763
103.202 4138 64.3273
103.319 3783 61.5061
103.436 3495 59.1185
103.552 3326 57.6715
103.669 3245 56.9649
103.786 3473 58.9322
103.903 3658 60.4814
104.02 3901 62.458
104.137 4034 63.5138
104.253 4048 63.6239
104.37 4147 64.3972
104.487 4115 64.1483
104.603 4007 63.3009
104.72 3918 62.5939
104.836 3780 61.4817
104.953 3586 59.8832
105.069 3534 59.4475
105.186 3489 59.0678
105.302 3350 57.8792
105.418 3230 56.8331
105.535 3245 56.9649
105.651 3114 55.8032
105.767 2965 54.4518
105.883 2753 52.469
105.999 2357 48.5489
106.115 0 1
106.231 0 1
106.347 0 1
106.463 0 1
106.579 0 1
106.694 0 1
106.81 0 1
106.926 0 1
107.041 0 1
107.157 0 1
109.576 0 1
109.692 0 1
109.807 0 1
109.923 0 1
110.039 0 1
110.155 0 1
110.27 0 1
110.386 0 1
110.502 0 1
110.618 1879 43.3474
110.735 2275 47.697
110.851 2590 50.892
110.967 2859 53.4696
111.083 3236 56.8859
111.199 3435 58.6089
111.316 3761 61.327
111.432 3896 62.4179
111.549 3823 61.8304
111.665 3866 62.1772
111.782 3787 61.5386
111.898 3530 59.4138
112.015 3397 58.2838
112.132 3111 55.7763
112.248 2983 54.6168
112.365 2991 54.69
112.482 3273 57.2101
112.599 3370 58.0517
112.716 3500 59.1608
112.832 3642 60.349
112.949 3646 60.3821
113.066 3845 62.0081
113.183 3736 61.1228
113.3 3722 61.0082
113.417 3618 60.1498
113.534 3534 59.4475
113.652 3488 59.0593
113.769 3288 57.3411
113.886 3421 58.4893
114.003 3373 58.0775
114.12 3536 59.4643
114.238 3611 60.0916
114.355 3652 60.4318
114.472 3877 62.2656
114.589 3976 63.0555
114.707 4028 63.4665
114.824 3879 62.2816
114.942 4032 63.498
115.059 4027 63.4586
115.176 3904 62.482
115.294 3790 61.563
115.411 3528 59.397
115.529 3350 57.8792
115.646 3195 56.5243
115.764 3081 55.5068
115.881 2855 53.4322
115.999 3029 55.0364
116.116 3378 58.1206
116.234 3432 58.5833
116.351 3571 59.7578
116.469 3611 60.0916
116.586 3620 60.1664
116.704 3604 60.0333
116.821 3595 59.9583
116.939 3501 59.1692
117.056 3430 58.5662
117.174 3385 58.1808
117.291 3222 56.7627
117.409 3184 56.4269
117.526 3222 56.7627
117.644 3274 57.2189
117.761 3400 58.3095
117.879 3505 59.203
117.996 3496 59.127
118.114 3654 60.4483
118.231 3699 60.8194
118.349 3747 61.2127
118.466 3771 61.4085
118.584 3681 60.6712
118.701 3692 60.7618
118.819 3610 60.0833
118.936 3374 58.0861
119.053 3364 58
119.171 3154 56.1605
119.288 2884 53.7029
119.405 2802 52.9339
119.523 2970 54.4977
119.64 3062 55.3353
119.757 3132 55.9643
119.875 3313 57.5587
119.992 3432 58.5833
120.109 3328 57.6888
120.226 3396 58.2752
120.343 3352 57.8965
120.46 3254 57.0438
120.578 3338 57.7754
120.695 3156 56.1783
120.812 3047 55.1996
120.929 2985 54.6352
121.046 2973 54.5252
121.163 2819 53.0943
121.279 3026 55.0091
121.396 3082 55.5158
121.513 3144 56.0714
121.63 3316 57.5847
121.747 3212 56.6745
121.863 3265 57.1402
121.98 3255 57.0526
122.097 3140 56.0357
122.213 3178 56.3738
122.33 2968 54.4794
122.446 2879 53.6563
122.563 2679 51.7591
122.679 2397 48.9592
122.795 2124 46.0869
122.912 1837 42.8602
123.028 1576 39.6989
123.144 1482 38.4968
123.26 1453 38.1182
123.377 0 1
123.493 0 1
123.609 0 1
123.725 0 1
123.84 0 1
123.956 0 1
124.072 0 1
124.188 0 1
124.303 0 1
124.419 0 1
126.852 0 1
126.968 0 1
127.083 0 1
127.199 0 1
127.315 0 1
127.431 0 1
127.547 0 1
127.663 0 1
127.779 0 1
127.895 0 1
128.011 0 1
128.127 0 1
128.243 0 1
128.359 3245 56.9649
128.476 3046 55.1906
128.592 3177 56.3649
128.708 3157 56.1872
128.825 3501 59.1692
128.941 3670 60.5805
129.058 3726 61.041
129.174 3753 61.2617
129.291 3722 61.0082
129.408 3762 61.3351
129.524 3780 61.4817
129.641 3726 61.041
129.758 3604 60.0333
129.875 3314 57.5674
129.992 3374 58.0861
130.108 3290 57.3585
130.225 3314 57.5674
130.342 3392 58.2409
130.459 3503 59.1861
130.576 3833 61.9112
130.693 3895 62.4099
130.81 3742 61.1719
130.928 3851 62.0564
131.045 3962 62.9444
131.162 3926 62.6578
131.279 3933 62.7136
131.396 3851 62.0564
131.513 3777 61.4573
131.631 3763 61.3433
131.748 3632 60.2661
131.865 3500 59.1608
131.983 3274 57.2189
132.1 3147 56.0981
132.217 3274 57.2189
132.335 3548 59.5651
132.452 3602 60.0167
132.57 3716 60.959
132.687 3725 61.0328
132.804 3763 61.3433
132.922 3673 60.6053
133.039 3682 60.6795
133.157 3788 61.5467
133.274 3522 59.3464
133.392 3422 58.4979
133.509 3387 58.1979
133.627 3267 57.1577
133.744 3281 57.28
133.862 3343 57.8187
133.979 3577 59.808
134.097 3700 60.8276
134.214 3814 61.7576
134.332 3759 61.3107
134.449 3914 62.562
134.567 3852 62.0645
134.684 3857 62.1048
134.802 3986 63.1348
134.919 3932 62.7057
135.037 3886 62.3378
135.154 3812 61.7414
135.272 3578 59.8164
135.389 3470 58.9067
135.507 3325 57.6628
135.624 3215 56.701
135.742 3389 58.2151
135.859 3453 58.7622
135.977 3663 60.5227
136.094 3662 60.5145
136.211 3685 60.7042
136.329 3662 60.5145
136.446 3735 61.1146
136.564 3652 60.4318
136.681 3597 59.975
136.798 3547 59.5567
136.915 3484 59.0254
137.033 3309 57.5239
137.15 3185 56.4358
137.267 3254 57.0438
137.384 3143 56.0625
137.502 3414 58.4294
137.619 3434 58.6003
137.736 3526 59.3801
137.853 3550 59.5819
137.97 3657 60.4731
138.087 3507 59.2199
138.204 3628 60.2329
138.321 3588 59.8999
138.438 3724 61.0246
138.555 3578 59.8164
138.672 3585 59.8749
138.788 3445 58.6941
138.905 3376 58.1034
139.022 3113 55.7943
139.139 2925 54.0833
139.255 2759 52.5262
139.372 2637 51.3517
139.488 2786 52.7826
139.605 2794 52.8583
139.721 2767 52.6023
139.838 2600 50.9902
139.954 2427 49.2646
140.071 2175 46.6369
140.187 2123 46.076
140.303 1867 43.2088
140.419 1800 42.4264
140.535 1705 41.2916
140.652 1580 39.7492
140.768 0 1
140.884 0 1
141 0 1
141.115 0 1
141.231 0 1
141.347 0 1
141.463 0 1
141.578 0 1
141.694 0 1
144.104 0 1
144.219 0 1
144.335 0 1
144.45 0 1
144.566 0 1
144.682 0 1
144.798 0 1
144.914 0 1
145.03 0 1
145.146 2519 50.1896
145.262 2719 52.144
145.378 2765 52.5833
145.494 2674 51.7107
145.61 2782 52.7447
145.726 2543 50.4282
145.842 2517 50.1697
145.959 2463 49.6286
146.075 2447 49.4672
146.192 2401 49
146.308 2601 51
146.425 2643 51.4101
146.541 2771 52.6403
146.658 2767 52.6023
146.774 2871 53.5817
146.891 2794 52.8583
147.008 3020 54.9545
147.125 2788 52.8015
147.241 2819 53.0943
147.358 2877 53.6377
147.475 2895 53.8052
147.592 2914 53.9815
147.709 2710 52.0577
147.826 2655 51.5267
147.943 2610 51.0882
148.06 2535 50.3488
148.177 2522 50.2195
148.294 2607 51.0588
148.411 2696 51.923
148.528 2763 52.5642
148.645 2715 52.1057
148.762 2881 53.6749
148.88 2748 52.4214
148.997 2875 53.619
149.114 2681 51.7784
149.231 2703 51.9904
149.349 2683 51.7977
149.466 2633 51.3128
149.583 2541 50.4083
149.701 2451 49.5076
149.818 2424 49.2341
149.935 2460 49.5984
150.053 2517 50.1697
150.17 2660 51.5752
150.287 2617 51.1566
150.405 2684 51.8073
150.522 2691 51.8748
150.64 2783 52.7541
150.757 2691 51.8748
150.875 2776 52.6878
150.992 2783 52.7541
151.11 2809 53
151.227 2775 52.6783
151.344 2765 52.5833
151.462 2626 51.2445
151.579 2449 49.4874
151.697 2445 49.4469
151.814 2498 49.98
151.932 2575 50.7445
152.049 2512 50.1199
152.167 2748 52.4214
152.284 2744 52.3832
152.402 2712 52.0769
152.519 2715 52.1057
152.636 2644 51.4198
152.754 2659 51.5655
152.871 2625 51.2348
152.989 2482 49.8197
153.106 2431 49.3052
153.223 2339 48.3632
153.341 2345 48.4252
153.458 2252 47.4552
153.575 2354 48.518
153.693 2435 49.3457
153.81 2483 49.8297
153.927 2530 50.2991
154.044 2598 50.9706
154.162 2543 50.4282
154.279 2562 50.6162
154.396 2684 51.8073
154.513 2595 50.9411
154.63 2652 51.4976
154.747 2507 50.07
154.864 2592 50.9117
154.981 2427 49.2646
155.098 2409 49.0816
155.215 2320 48.1664
155.332 2310 48.0625
155.449 2303 47.9896
155.566 2409 49.0816
155.683 2464 49.6387
155.8 2455 49.548
155.917 2319 48.156
156.033 2318 48.1456
156.15 0 1
156.267 0 1
156.383 0 1
156.5 0 1
156.617 0 1
156.733 0 1
156.85 0 1
156.966 0 1
157.082 0 1
157.199 0 1
157.315 0 1
157.431 0 1
157.547 0 1
157.664 0 1
157.78 0 1
157.896 0 1
158.012 0 1
158.128 0 1
158.244 0 1
158.359 0 1
158.475 0 1
158.591 0 1
158.706 0 1
