
6.15755 0 1
6.2731 0 1
6.3887 0 1
6.50437 0 1
6.62009 0 1
6.73587 0 1
6.8517 0 1
6.96759 0 1
7.08353 0 1
7.19952 0 1
7.31557 0 1
7.43166 0 1
7.54781 0 1
7.664 0 1
7.78024 0 1
7.89653 0 1
8.01286 0 1
8.12924 0 1
8.24567 0 1
8.36213 0 1
8.47864 0 1
8.59519 0 1
8.71178 0 1
8.82841 0 1
8.94508 0 1
9.06179 0 1
9.17853 0 1
9.29531 0 1
9.41212 0 1
9.52897 0 1
9.64584 0 1
9.76276 0 1
9.8797 0 1
9.99667 0 1
10.1137 0 1
10.2307 0 1
10.3478 0 1
10.4648 0 1
10.5819 0 1
10.6991 0 1
10.8162 0 1
10.9334 0 1
11.0506 0 1
11.1678 0 1
11.285 0 1
11.4023 0 1
11.5196 0 1
11.6369 0 1
11.7542 0 1
11.8715 0 1
11.9888 0 1
12.1062 0 1
12.2235 0 1
12.3409 0 1
12.4582 0 1
12.5756 0 1
12.693 0 1
12.8104 0 1
12.9278 0 1
13.0452 0 1
13.1626 0 1
13.28 0 1
13.3974 0 1
13.5149 0 1
13.6323 0 1
13.7497 0 1
13.8671 0 1
13.9845 0 1
14.1019 0 1
14.2193 0 1
14.3367 0 1
14.4541 0 1
14.5714 0 1
14.6888 0 1
14.8062 0 1
14.9235 0 1
15.0408 0 0
15.1581 0 0
15.2755 0 0
15.3927 0 0
15.51 0 0
15.6273 0 0
15.7445 0 0
15.8617 0 0
15.9789 0 0
16.0961 0 0
16.2132 0 0
16.3304 0 0
16.4475 0 0
16.5646 0 0
16.6816 0 0
16.7986 0 0
16.9156 0 0
17.0326 0 0
17.1496 0 0
17.2665 0 0
17.3833 0 0
17.5002 0 0
17.617 0 0
17.7338 0 0
17.8505 0 0
17.9672 0 0
18.0839 0 0
18.2005 0 0
18.3171 0 0
18.4337 0 0
18.5502 0 0
18.6666 0 0
18.7831 0 0
18.8994 0 0
19.0158 0 0
19.1321 0 0
19.2483 0 0
19.3645 0 0
19.4806 0 0
19.5967 0 0
19.7128 0 0
19.8288 0 0
19.9447 0 0
20.0606 0 1
20.1764 0 1
20.2922 0 1
20.4079 0 1
20.5236 0 1
20.6392 0 1
20.7548 0 1
20.8702 0 1
23.3078 0 1
23.4233 0 1
23.539 0 1
23.6547 0 1
23.7704 0 1
23.8862 0 1
24.0021 0 1
24.118 0 1
24.234 0 1
24.35 0 1
24.4661 1327 36.428
24.5822 1350 36.7423
24.6984 1509 38.8458
24.8146 1693 41.1461
24.9309 1971 44.3959
25.0472 2219 47.1063
25.1636 2466 49.6588
25.28 2617 51.1566
25.3965 2631 51.2933
25.513 2603 51.0196
25.6296 2697 51.9326
25.7462 2638 51.3615
25.8628 2726 52.2111
25.9795 2656 51.5364
26.0962 2735 52.2972
26.213 2692 51.8845
26.3298 2732 52.2685
26.4466 2765 52.5833
26.5635 2650 51.4782
26.6804 2735 52.2972
26.7973 2686 51.8266
26.9143 2572 50.7149
27.0313 2498 49.98
27.1483 2496 49.96
27.2653 2533 50.3289
27.3824 2446 49.4571
27.4996 2217 47.085
27.6167 2173 46.6154
27.7339 2071 45.5082
27.8511 2339 48.3632
27.9683 2405 49.0408
28.0855 2468 49.679
28.2028 2574 50.7346
28.3201 2523 50.2295
28.4374 2501 50.01
28.5547 2458 49.5782
28.6721 2552 50.5173
28.7894 2503 50.03
28.9068 2540 50.3984
29.0242 2568 50.6754
29.1416 2648 51.4587
29.259 2529 50.2892
29.3764 2584 50.8331
29.4939 2471 49.7092
29.6113 2397 48.9592
29.7288 2322 48.1871
29.8463 2474 49.7393
29.9638 2336 48.3322
30.0812 2369 48.6724
30.1987 2347 48.4458
30.3162 2428 49.2747
30.4337 2443 49.4267
30.5512 2497 49.97
30.6687 2467 49.6689
30.7862 2437 49.366
30.9037 2403 49.0204
31.0212 2290 47.8539
31.1387 2262 47.5605
31.2562 2313 48.0937
31.3737 2425 49.2443
31.4912 2513 50.1298
31.6087 2542 50.4183
31.7262 2603 51.0196
31.8436 2520 50.1996
31.9611 2439 49.3862
32.0785 2493 49.93
32.1959 2532 50.319
32.3134 2437 49.366
32.4308 2412 49.1121
32.5482 2370 48.6826
32.6655 2245 47.3814
32.7829 2236 47.2864
32.9002 2171 46.594
33.0176 2188 46.7761
33.1349 2170 46.5833
33.2522 2230 47.2229
33.3694 2074 45.5412
33.4867 2310 48.0625
33.6039 2206 46.9681
33.7211 2238 47.3075
33.8383 2341 48.3839
33.9554 2311 48.0729
34.0725 2359 48.5695
34.1896 2429 49.2849
34.3067 2450 49.4975
34.4237 2444 49.4368
34.5407 2407 49.0612
34.6577 2241 47.3392
34.7746 2275 47.697
34.8915 2255 47.4868
35.0084 2351 48.4871
35.1252 2415 49.1426
35.242 2516 50.1597
35.3587 2449 49.4874
35.4755 2471 49.7092
35.5921 2435 49.3457
35.7088 2334 48.3115
35.8254 2207 46.9787
35.9419 2213 47.0425
36.0584 2147 46.3357
36.1749 2063 45.4203
36.2913 2123 46.076
36.4077 2035 45.111
36.524 1965 44.3283
36.6403 1757 41.9166
36.7565 1560 39.4968
36.8727 1409 37.5366
36.9889 1485 38.5357
37.1049 1436 37.8946
37.221 0 1
37.3369 0 1
37.4529 0 1
37.5687 0 1
37.6845 0 1
37.8003 0 1
37.916 0 1
38.0316 0 1
38.1472 0 1
40.5851 0 1
40.7008 0 1
40.8164 0 1
40.9322 0 1
41.048 0 1
41.1639 0 1
41.2798 0 1
41.3958 0 1
41.5118 0 1
41.6279 0 1
41.744 1849 43
41.8602 2542 50.4183
41.9765 2949 54.3047
42.0928 3139 56.0268
42.2091 3229 56.8243
42.3255 3428 58.5491
42.4419 3256 57.0614
42.5584 3326 57.6715
42.675 3389 58.2151
42.7915 3415 58.438
42.9081 3514 59.279
43.0248 3536 59.4643
43.1415 3474 58.9406
43.2582 3467 58.8812
43.375 3268 57.1664
43.4918 3160 56.2139
43.6087 3149 56.116
43.7256 3296 57.4108
43.8425 3425 58.5235
43.9595 3304 57.4804
44.0765 3283 57.2975
44.1935 3252 57.0263
44.3106 3179 56.3826
44.4277 2973 54.5252
44.5448 2796 52.8772
44.6619 2741 52.3546
44.7791 2548 50.4777
44.8963 2479 49.7896
45.0136 2377 48.7545
45.1308 2289 47.8435
45.2481 2191 46.8081
45.3654 2045 45.2217
45.4827 1957 44.238
45.6001 1964 44.317
45.7174 1915 43.7607
45.8348 1951 44.1701
45.9522 1944 44.0908
46.0697 1918 43.795
46.1871 1928 43.909
46.3046 2087 45.6837
46.422 2128 46.1303
46.5395 2044 45.2106
46.657 2165 46.5296
46.7745 2074 45.5412
46.892 1998 44.699
47.0096 1965 44.3283
47.1271 1967 44.3509
47.2446 1946 44.1135
47.3622 2037 45.1331
47.4797 2101 45.8367
47.5973 2136 46.2169
47.7149 2087 45.6837
47.8324 2023 44.9778
47.95 2059 45.3762
48.0675 2003 44.7549
48.1851 2038 45.1442
48.3027 1997 44.6878
48.4202 1933 43.9659
48.5378 1926 43.8862
48.6554 1916 43.7721
48.7729 1851 43.0232
48.8904 1834 42.8252
49.008 1720 41.4729
49.1255 1827 42.7434
49.243 1777 42.1545
49.3605 1851 43.0232
49.478 1836 42.8486
49.5955 1890 43.4741
49.713 1951 44.1701
49.8304 2028 45.0333
49.9479 2096 45.7821
50.0653 2028 45.0333
50.1827 1955 44.2154
50.3001 1858 43.1045
50.4175 1651 40.6325
50.5348 1642 40.5216
50.6521 1652 40.6448
50.7694 1847 42.9767
50.8867 1974 44.4297
51.004 2020 44.9444
51.1212 2101 45.8367
51.2384 2053 45.31
51.3556 2063 45.4203
51.4727 2059 45.3762
51.5899 2027 45.0222
51.707 2054 45.3211
51.824 2019 44.9333
51.9411 1934 43.9773
52.0581 1954 44.2041
52.175 2005 44.7772
52.2919 1912 43.7264
52.4088 1809 42.5323
52.5257 1918 43.795
52.6425 1856 43.0813
52.7593 1796 42.3792
52.876 1794 42.3556
52.9927 1806 42.4971
53.1094 1785 42.2493
53.226 1794 42.3556
53.3426 1892 43.4971
53.4591 1831 42.7902
53.5756 1677 40.9512
53.692 1490 38.6005
53.8084 1314 36.2491
53.9248 1263 35.5387
54.0411 1038 32.218
54.1573 986 31.4006
54.2735 0 1
54.3896 0 1
54.5057 0 1
54.6217 0 1
54.7377 0 1
54.8537 0 1
54.9695 0 1
55.0853 0 1
55.2011 0 1
55.3168 0 1
55.4324 0 1
57.824 0 1
57.9396 0 1
58.0553 0 1
58.1711 0 1
58.2869 0 1
58.4028 0 1
58.5187 0 1
58.6347 0 1
58.7508 0 1
58.8669 0 1
58.983 1678 40.9634
59.0992 1664 40.7922
59.2155 1631 40.3856
59.3318 1855 43.0697
59.4482 1963 44.3058
59.5646 2123 46.076
59.681 2310 48.0625
59.7975 2299 47.9479
59.9141 2431 49.3052
60.0306 2416 49.1528
60.1473 2368 48.6621
60.2639 2428 49.2747
60.3807 2319 48.156
60.4974 2368 48.6621
60.6142 2372 48.7032
60.731 2381 48.7955
60.8479 2391 48.8979
60.9648 2384 48.8262
61.0818 2425 49.2443
61.1987 2312 48.0833
61.3158 2300 47.9583
61.4328 2256 47.4974
61.5499 2308 48.0416
61.667 2352 48.4974
61.7841 2195 46.8508
61.9013 2430 49.295
62.0185 2303 47.9896
62.1357 2372 48.7032
62.253 2425 49.2443
62.3702 2280 47.7493
62.4875 2197 46.8722
62.6049 2115 45.9891
62.7222 2047 45.2438
62.8396 2203 46.9361
62.9569 2420 49.1935
63.0743 2467 49.6689
63.1918 2461 49.6085
63.3092 2479 49.7896
63.4267 2499 49.99
63.5441 2476 49.7594
63.6616 2405 49.0408
63.7791 2432 49.3153
63.8966 2466 49.6588
64.0142 2456 49.558
64.1317 2428 49.2747
64.2492 2456 49.558
64.3668 2464 49.6387
64.4843 2397 48.9592
64.6019 2372 48.7032
64.7195 2235 47.2758
64.837 2301 47.9687
64.9546 2340 48.3735
65.0722 2372 48.7032
65.1898 2296 47.9166
65.3074 2288 47.833
65.4249 2327 48.239
65.5425 2399 48.9796
65.6601 2396 48.949
65.7777 2438 49.3761
65.8952 2263 47.571
66.0128 2162 46.4973
66.1304 1906 43.6578
66.2479 1940 44.0454
66.3655 1958 44.2493
66.483 2189 46.7868
66.6005 2350 48.4768
66.718 2410 49.0918
66.8355 2389 48.8774
66.953 2449 49.4874
67.0705 2343 48.4045
67.1879 2381 48.7955
67.3054 2405 49.0408
67.4228 2350 48.4768
67.5402 2393 48.9183
67.6576 2368 48.6621
67.7749 2341 48.3839
67.8923 2411 49.1019
68.0096 2347 48.4458
68.1269 2317 48.1352
68.2442 2335 48.3218
68.3614 2375 48.734
68.4787 2287 47.8226
68.5958 2296 47.9166
68.713 2204 46.9468
68.8302 2119 46.0326
68.9473 2142 46.2817
69.0643 2092 45.7384
69.1814 2133 46.1844
69.2984 2270 47.6445
69.4154 2248 47.4131
69.5323 2218 47.0956
69.6492 2062 45.4093
69.7661 1885 43.4166
69.8829 1814 42.5911
69.9997 1874 43.2897
70.1165 2004 44.7661
70.2332 1974 44.4297
70.3499 1933 43.9659
70.4665 1722 41.497
70.5831 1619 40.2368
70.6996 1594 39.9249
70.8161 1524 39.0384
70.9326 1519 38.9744
71.049 1470 38.3406
71.1653 1344 36.6606
71.2817 1267 35.5949
71.3979 1241 35.2278
71.5141 1196 34.5832
71.6303 1189 34.4819
71.7464 1069 32.6956
71.8624 0 1
71.9784 0 1
72.0944 0 1
72.2102 0 1
72.3261 0 1
72.4418 0 1
72.5575 0 1
72.6732 0 1
75.1054 0 1
75.2209 0 1
75.3365 0 1
75.4521 0 1
75.5678 0 1
75.6835 0 1
75.7993 0 1
75.9151 0 1
76.031 0 1
76.147 1920 43.8178
76.263 2055 45.3321
76.3791 2018 44.9222
76.4952 2128 46.1303
76.6113 2083 45.6399
76.7276 2119 46.0326
76.8438 2178 46.669
76.9601 2169 46.5725
77.0765 2190 46.7974
77.1929 2202 46.9255
77.3093 2191 46.8081
77.4258 2100 45.8258
77.5423 2180 46.6905
77.6589 2194 46.8402
77.7755 2093 45.7493
77.8921 2166 46.5403
78.0088 2023 44.9778
78.1256 2129 46.1411
78.2423 2200 46.9042
78.3591 2211 47.0213
78.4759 2265 47.592
78.5928 2138 46.2385
78.7097 1901 43.6005
78.8266 1640 40.4969
78.9436 1451 38.092
79.0606 1512 38.8844
79.1776 1893 43.5086
79.2946 2096 45.7821
79.4117 2186 46.7547
79.5288 2247 47.4025
79.6459 2254 47.4763
79.7631 2325 48.2183
79.8802 2305 48.0104
79.9974 2260 47.5395
80.1147 2330 48.2701
80.2319 2263 47.571
80.3491 2318 48.1456
80.4664 2298 47.9375
80.5837 2295 47.9062
80.701 2405 49.0408
80.8183 2426 49.2544
80.9357 2376 48.7442
81.053 2272 47.6655
81.1704 2325 48.2183
81.2877 2192 46.8188
81.4051 2266 47.6025
81.5225 2290 47.8539
81.6399 2301 47.9687
81.7573 2304 48
81.8747 2396 48.949
81.9922 2509 50.0899
82.1096 2575 50.7445
82.227 2569 50.6853
82.3444 2459 49.5883
82.4619 2292 47.8748
82.5793 2067 45.4643
82.6967 2205 46.9574
82.8142 2626 51.2445
82.9316 3103 55.7046
83.049 3502 59.1777
83.1664 3574 59.7829
83.2838 3845 62.0081
83.4012 4025 63.4429
83.5186 3939 62.7615
83.636 4038 63.5453
83.7534 4193 64.7534
83.8708 4145 64.3817
83.9881 4226 65.0077
84.1055 4165 64.5368
84.2228 4352 65.9697
84.3401 4299 65.5668
84.4575 4332 65.8179
84.5747 4263 65.2917
84.692 4240 65.1153
84.8093 4292 65.5134
84.9265 4214 64.9153
85.0437 4132 64.2806
85.1609 4220 64.9615
85.2781 4146 64.3894
85.3952 4183 64.6761
85.5123 4122 64.2028
85.6294 4139 64.3351
85.7465 3932 62.7057
85.8636 3739 61.1474
85.9806 3254 57.0438
86.0976 2737 52.3163
86.2145 2769 52.6213
86.3315 3014 54.8999
86.4484 3815 61.7657
86.5652 3992 63.1823
86.682 4202 64.8228
86.7988 3944 62.8013
86.9156 4102 64.0469
87.0323 4008 63.3088
87.149 4044 63.5925
87.2657 4125 64.2262
87.3823 4106 64.0781
87.4988 3860 62.1289
87.6154 3615 60.1249
87.7318 3110 55.7674
87.8483 3114 55.8032
87.9647 2935 54.1756
88.081 2887 53.7308
88.1973 2822 53.1225
88.3136 2636 51.342
88.4298 2583 50.8232
88.546 2539 50.3885
88.6621 2363 48.6107
88.7781 2333 48.3011
88.8942 0 1
89.0101 0 1
89.126 0 1
89.2419 0 1
89.3577 0 1
89.4734 0 1
89.5891 0 1
89.7047 0 1
89.8203 0 1
89.9358 0 1
92.3269 0 1
92.4424 0 1
92.558 0 1
92.6736 0 1
92.7893 0 1
92.905 0 1
93.0208 0 1
93.1366 0 1
93.2525 0 1
93.3685 0 1
93.4845 0 1
93.6005 4319 65.7191
93.7167 4234 65.0692
93.8328 4172 64.591
93.949 4306 65.6201
94.0653 4350 65.9545
94.1816 4278 65.4064
94.2979 4344 65.909
94.4143 4359 66.0227
94.5307 4304 65.6049
94.6472 4206 64.8537
94.7637 4188 64.7148
94.8803 3694 60.7783
94.9969 3248 56.9912
95.1135 2967 54.4702
95.2302 3126 55.9106
95.3469 3596 59.9667
95.4637 4193 64.7534
95.5805 4333 65.8255
95.6973 4301 65.582
95.8142 4383 66.2042
95.9311 4341 65.8863
96.048 4322 65.7419
96.1649 4359 66.0227
96.2819 4326 65.7723
96.3989 4398 66.3174
96.516 4395 66.2948
96.633 4374 66.1362
96.7501 4511 67.164
96.8673 4565 67.5648
96.9844 4542 67.3944
97.1016 4512 67.1714
97.2188 4521 67.2384
97.336 4379 66.174
97.4532 4360 66.0303
97.5704 4233 65.0615
97.6877 4269 65.3376
97.805 4253 65.215
97.9223 4338 65.8635
98.0396 4244 65.146
98.1569 4103 64.0547
98.2743 3855 62.0886
98.3916 3516 59.2959
98.509 3019 54.9454
98.6264 2716 52.1153
98.7438 2754 52.4786
98.8612 3053 55.254
98.9786 3353 57.9051
99.096 3377 58.112
99.2134 3436 58.6174
99.3308 3252 57.0263
99.4482 3152 56.1427
99.5656 2971 54.5069
99.6831 2939 54.2125
99.8005 3019 54.9454
99.9179 2973 54.5252
100.035 2837 53.2635
100.153 2866 53.535
100.27 2916 54
100.388 2968 54.4794
100.505 2947 54.2863
100.622 3109 55.7584
100.74 3102 55.6956
100.857 2945 54.2679
100.975 3021 54.9636
101.092 2970 54.4977
101.209 2875 53.619
101.327 2894 53.7959
101.444 2973 54.5252
101.561 2939 54.2125
101.679 2857 53.4509
101.796 2865 53.5257
101.913 2851 53.3948
102.03 2579 50.7839
102.148 2271 47.655
102.265 2090 45.7165
102.382 2356 48.5386
102.499 2608 51.0686
102.616 2748 52.4214
102.733 2821 53.1131
102.851 2784 52.7636
102.968 2692 51.8845
103.085 2763 52.5642
103.202 2771 52.6403
103.319 2592 50.9117
103.436 2700 51.9615
103.552 2651 51.4879
103.669 2722 52.1728
103.786 2683 51.7977
103.903 2716 52.1153
104.02 2659 51.5655
104.137 2713 52.0865
104.253 2855 53.4322
104.37 2652 51.4976
104.487 2635 51.3323
104.603 2576 50.7543
104.72 2472 49.7192
104.836 2355 48.5283
104.953 2265 47.592
105.069 1953 44.1928
105.186 1717 41.4367
105.302 1591 39.8873
105.418 1518 38.9615
105.535 1358 36.8511
105.651 1175 34.2783
105.767 973 31.1929
105.883 858 29.2916
105.999 830 28.8097
106.115 0 1
106.231 0 1
106.347 0 1
106.463 0 1
106.579 0 1
106.694 0 1
106.81 0 1
106.926 0 1
107.041 0 1
107.157 0 1
109.576 0 1
109.692 0 1
109.807 0 1
109.923 0 1
110.039 0 1
110.155 0 1
110.27 0 1
110.386 0 1
110.502 0 1
110.618 2654 51.517
110.735 2764 52.5738
110.851 2502 50.02
110.967 2387 48.8569
111.083 2347 48.4458
111.199 2464 49.6387
111.316 2786 52.7826
111.432 2936 54.1849
111.549 2940 54.2218
111.665 3022 54.9727
111.782 2973 54.5252
111.898 3050 55.2268
112.015 2816 53.066
112.132 2922 54.0555
112.248 2923 54.0648
112.365 2979 54.5802
112.482 2904 53.8888
112.599 3070 55.4076
112.716 3072 55.4256
112.832 3144 56.0714
112.949 3202 56.5862
113.066 3198 56.5509
113.183 3411 58.4038
113.3 3282 57.2887
113.417 3208 56.6392
113.534 3179 56.3826
113.652 3233 56.8595
113.769 3140 56.0357
113.886 3154 56.1605
114.003 3260 57.0964
114.12 3298 57.4282
114.238 3120 55.857
114.355 2905 53.8981
114.472 2546 50.4579
114.589 2617 51.1566
114.707 2652 51.4976
114.824 2878 53.647
114.942 3059 55.3082
115.059 3042 55.1543
115.176 3052 55.2449
115.294 3104 55.7136
115.411 3006 54.827
115.529 3016 54.9181
115.646 2955 54.3599
115.764 2918 54.0185
115.881 3029 55.0364
115.999 3088 55.5698
116.116 2964 54.4426
116.234 3039 55.1271
116.351 3169 56.2939
116.469 3335 57.7495
116.586 3293 57.3847
116.704 3356 57.931
116.821 3391 58.2323
116.939 3266 57.1489
117.056 3355 57.9224
117.174 3305 57.4891
117.291 3330 57.7062
117.409 3259 57.0877
117.526 3226 56.7979
117.644 3319 57.6108
117.761 3319 57.6108
117.879 3126 55.9106
117.996 2867 53.5444
118.114 2609 51.0784
118.231 2503 50.03
118.349 2732 52.2685
118.466 2888 53.7401
118.584 2978 54.5711
118.701 2971 54.5069
118.819 3077 55.4707
118.936 2991 54.69
119.053 3098 55.6597
119.171 3035 55.0908
119.288 2989 54.6717
119.405 3012 54.8817
119.523 2963 54.4334
119.64 2944 54.2586
119.757 2971 54.5069
119.875 3031 55.0545
119.992 3022 54.9727
120.109 3058 55.2992
120.226 3085 55.5428
120.343 3094 55.6237
120.46 3093 55.6147
120.578 3216 56.7098
120.695 3044 55.1725
120.812 3079 55.4887
120.929 3085 55.5428
121.046 3048 55.2087
121.163 2992 54.6992
121.279 2948 54.2955
121.396 2926 54.0925
121.513 2833 53.2259
121.63 2627 51.2543
121.747 2382 48.8057
121.863 2203 46.9361
121.98 2052 45.299
122.097 2058 45.3652
122.213 2120 46.0435
122.33 2115 45.9891
122.446 2102 45.8476
122.563 2093 45.7493
122.679 2048 45.2548
122.795 1944 44.0908
122.912 1848 42.9884
123.028 1893 43.5086
123.144 1795 42.3674
123.26 1699 41.2189
123.377 0 1
123.493 0 1
123.609 0 1
123.725 0 1
123.84 0 1
123.956 0 1
124.072 0 1
124.188 0 1
124.303 0 1
124.419 0 1
126.852 0 1
126.968 0 1
127.083 0 1
127.199 0 1
127.315 0 1
127.431 0 1
127.547 0 1
127.663 0 1
127.779 0 1
127.895 0 1
128.011 0 1
128.127 0 1
128.243 0 1
128.359 3483 59.0169
128.476 3414 58.4294
128.592 3383 58.1636
128.708 3543 59.5231
128.825 3422 58.4979
128.941 3553 59.607
129.058 3487 59.0508
129.174 3617 60.1415
129.291 3712 60.9262
129.408 3690 60.7454
129.524 3857 62.1048
129.641 4058 63.7024
129.758 3965 62.9682
129.875 4066 63.7652
129.992 4146 64.3894
130.108 4224 64.9923
130.225 4287 65.4752
130.342 4169 64.5678
130.459 3964 62.9603
130.576 3979 63.0793
130.693 3764 61.3514
130.81 3659 60.4897
130.928 3599 59.9917
131.045 3738 61.1392
131.162 3834 61.9193
131.279 3931 62.6977
131.396 4036 63.5295
131.513 4061 63.726
131.631 4081 63.8827
131.748 4042 63.5767
131.865 3977 63.0635
131.983 3979 63.0793
132.1 3950 62.849
132.217 3802 61.6604
132.335 3837 61.9435
132.452 3733 61.0983
132.57 3875 62.2495
132.687 3730 61.0737
132.804 4075 63.8357
132.922 3932 62.7057
133.039 3968 62.9921
133.157 3959 62.9206
133.274 4141 64.3506
133.392 4157 64.4748
133.509 4246 65.1613
133.627 4263 65.2917
133.744 4317 65.7039
133.862 4450 66.7083
133.979 4333 65.8255
134.097 4318 65.7115
134.214 4204 64.8383
134.332 3972 63.0238
134.449 3929 62.6817
134.567 4113 64.1327
134.684 4104 64.0625
134.802 4291 65.5057
134.919 4402 66.3476
135.037 4229 65.0308
135.154 4238 65.0999
135.272 4195 64.7688
135.389 4258 65.2534
135.507 4167 64.5523
135.624 4121 64.195
135.742 4107 64.0859
135.859 4228 65.0231
135.977 4012 63.3404
136.094 3990 63.1664
136.211 4060 63.7181
136.329 3981 63.0952
136.446 3993 63.1902
136.564 3948 62.8331
136.681 4095 63.9922
136.798 4063 63.7417
136.915 4307 65.6277
137.033 4128 64.2495
137.15 4196 64.7765
137.267 4299 65.5668
137.384 4334 65.8331
137.502 4139 64.3351
137.619 4242 65.1306
137.736 4041 63.5689
137.853 3958 62.9126
137.97 3938 62.7535
138.087 3698 60.8112
138.204 3965 62.9682
138.321 3945 62.8092
138.438 4048 63.6239
138.555 4086 63.9218
138.672 4157 64.4748
138.788 4064 63.7495
138.905 3975 63.0476
139.022 3800 61.6441
139.139 3682 60.6795
139.255 3633 60.2744
139.372 3362 57.9828
139.488 3296 57.4108
139.605 3091 55.5968
139.721 2906 53.9073
139.838 3016 54.9181
139.954 2860 53.479
140.071 2758 52.5167
140.187 2862 53.4977
140.303 2747 52.4118
140.419 2826 53.1601
140.535 3040 55.1362
140.652 2892 53.7773
140.768 0 1
140.884 0 1
141 0 1
141.115 0 1
141.231 0 1
141.347 0 1
141.463 0 1
141.578 0 1
141.694 0 1
144.104 0 1
144.219 0 1
144.335 0 1
144.45 0 1
144.566 0 1
144.682 0 1
144.798 0 1
144.914 0 1
145.03 0 1
145.146 8550 92.4662
145.262 8698 93.2631
145.378 8620 92.844
145.494 8733 93.4505
145.61 8933 94.5145
145.726 8825 93.9415
145.842 9055 95.1578
145.959 8848 94.0638
146.075 8985 94.7892
146.192 9006 94.8999
146.308 8932 94.5093
146.425 8807 93.8456
146.541 8018 89.5433
146.658 6862 82.8372
146.774 6017 77.5693
146.891 5912 76.8895
147.008 6442 80.2621
147.125 7760 88.0909
147.241 8379 91.5369
147.358 8739 93.4826
147.475 8751 93.5468
147.592 8892 94.2974
147.709 8803 93.8243
147.826 8792 93.7657
147.943 8703 93.2899
148.06 8965 94.6837
148.177 8994 94.8367
148.294 8920 94.4458
148.411 9048 95.121
148.528 8992 94.8262
148.645 9100 95.3939
148.762 8992 94.8262
148.88 9078 95.2785
148.997 8738 93.4773
149.114 9329 96.5867
149.231 9115 95.4725
149.349 9316 96.5194
149.466 9058 95.1735
149.583 9055 95.1578
149.701 9037 95.0631
149.818 9130 95.551
149.935 9065 95.2103
150.053 9098 95.3834
150.17 8619 92.8386
150.287 7885 88.7975
150.405 6556 80.9691
150.522 6087 78.0192
150.64 6483 80.5171
150.757 7699 87.7439
150.875 8620 92.844
150.992 8859 94.1223
151.11 8626 92.8763
151.227 8727 93.4184
151.344 8721 93.3863
151.462 8781 93.707
151.579 8903 94.3557
151.697 8854 94.0957
151.814 8843 94.0372
151.932 8798 93.7977
152.049 8907 94.3769
152.167 8924 94.4669
152.284 9077 95.2733
152.402 8925 94.4722
152.519 9048 95.121
152.636 9083 95.3048
152.754 8997 94.8525
152.871 9197 95.901
152.989 9287 96.3691
153.106 9329 96.5867
153.223 9531 97.6268
153.341 9602 97.9898
153.458 9393 96.9175
153.575 9414 97.0258
153.693 9428 97.0979
153.81 8941 94.5569
153.927 7972 89.2861
154.044 6970 83.4865
154.162 6343 79.643
154.279 6964 83.4506
154.396 8094 89.9667
154.513 8848 94.0638
154.63 9321 96.5453
154.747 9081 95.2943
154.864 9224 96.0417
154.981 9049 95.1262
155.098 8906 94.3716
155.215 8780 93.7017
155.332 8373 91.5041
155.449 8331 91.2743
155.566 8406 91.6842
155.683 8113 90.0722
155.8 7994 89.4092
155.917 7768 88.1363
156.033 7686 87.6698
156.15 0 1
156.267 0 1
156.383 0 1
156.5 0 1
156.617 0 1
156.733 0 1
156.85 0 1
156.966 0 1
157.082 0 1
157.199 0 1
157.315 0 1
157.431 0 1
157.547 0 1
157.664 0 1
157.78 0 1
157.896 0 1
158.012 0 1
158.128 0 1
158.244 0 1
158.359 0 1
158.475 0 1
158.591 0 1
158.706 0 1
