
6.15755 0 1
6.2731 0 1
6.3887 0 1
6.50437 0 1
6.62009 0 1
6.73587 0 1
6.8517 0 1
6.96759 0 1
7.08353 0 1
7.19952 0 1
7.31557 0 1
7.43166 0 1
7.54781 0 1
7.664 0 1
7.78024 0 1
7.89653 0 1
8.01286 0 1
8.12924 0 1
8.24567 0 1
8.36213 0 1
8.47864 0 1
8.59519 0 1
8.71178 0 1
8.82841 0 1
8.94508 0 1
9.06179 0 1
9.17853 0 1
9.29531 0 1
9.41212 0 1
9.52897 0 1
9.64584 0 1
9.76276 0 1
9.8797 0 1
9.99667 0 1
10.1137 0 1
10.2307 0 1
10.3478 0 1
10.4648 0 1
10.5819 0 1
10.6991 0 1
10.8162 0 1
10.9334 0 1
11.0506 0 1
11.1678 0 1
11.285 0 1
11.4023 0 1
11.5196 0 1
11.6369 0 1
11.7542 0 1
11.8715 0 1
11.9888 0 1
12.1062 0 1
12.2235 0 1
12.3409 0 1
12.4582 0 1
12.5756 0 1
12.693 0 1
12.8104 0 1
12.9278 0 1
13.0452 0 1
13.1626 0 1
13.28 0 1
13.3974 0 1
13.5149 0 1
13.6323 0 1
13.7497 0 1
13.8671 0 1
13.9845 0 1
14.1019 0 1
14.2193 0 1
14.3367 0 1
14.4541 0 1
14.5714 0 1
14.6888 0 1
14.8062 0 1
14.9235 0 1
15.0408 1160 34.0588
15.1581 1246 35.2987
15.2755 1253 35.3977
15.3927 1294 35.9722
15.51 1328 36.4417
15.6273 1277 35.7351
15.7445 1239 35.1994
15.8617 1246 35.2987
15.9789 1343 36.647
16.0961 1277 35.7351
16.2132 1259 35.4824
16.3304 1269 35.623
16.4475 1323 36.3731
16.5646 1337 36.565
16.6816 1349 36.7287
16.7986 1469 38.3275
16.9156 1406 37.4967
17.0326 1512 38.8844
17.1496 1590 39.8748
17.2665 1512 38.8844
17.3833 1511 38.8716
17.5002 1393 37.3229
17.617 1389 37.2693
17.7338 1377 37.108
17.8505 1342 36.6333
17.9672 1298 36.0278
18.0839 1354 36.7967
18.2005 1397 37.3765
18.3171 1403 37.4566
18.4337 1408 37.5233
18.5502 1443 37.9868
18.6666 1463 38.2492
18.7831 1527 39.0768
18.8994 1512 38.8844
19.0158 1530 39.1152
19.1321 1440 37.9473
19.2483 1336 36.5513
19.3645 1337 36.565
19.4806 1187 34.4529
19.5967 1141 33.7787
19.7128 1050 32.4037
19.8288 888 29.7993
19.9447 907 30.1164
20.0606 0 1
20.1764 0 1
20.2922 0 1
20.4079 0 1
20.5236 0 1
20.6392 0 1
20.7548 0 1
20.8702 0 1
23.3078 0 1
23.4233 0 1
23.539 0 1
23.6547 0 1
23.7704 0 1
23.8862 0 1
24.0021 0 1
24.118 0 1
24.234 0 1
24.35 0 1
24.4661 578 24.0416
24.5822 732 27.0555
24.6984 783 27.9821
24.8146 934 30.5614
24.9309 1066 32.6497
25.0472 1057 32.5115
25.1636 1202 34.6699
25.28 1300 36.0555
25.3965 1361 36.8917
25.513 1429 37.8021
25.6296 1505 38.7943
25.7462 1589 39.8623
25.8628 1655 40.6817
25.9795 1647 40.5832
26.0962 1663 40.7799
26.213 1611 40.1373
26.3298 1523 39.0256
26.4466 1445 38.0132
26.5635 1314 36.2491
26.6804 1388 37.2559
26.7973 1441 37.9605
26.9143 1423 37.7227
27.0313 1464 38.2623
27.1483 1507 38.8201
27.2653 1439 37.9342
27.3824 1634 40.4228
27.4996 1644 40.5463
27.6167 1557 39.4588
27.7339 1555 39.4335
27.8511 1478 38.4448
27.9683 1446 38.0263
28.0855 1388 37.2559
28.2028 1375 37.081
28.3201 1332 36.4966
28.4374 1303 36.0971
28.5547 1311 36.2077
28.6721 1323 36.3731
28.7894 1427 37.7757
28.9068 1530 39.1152
29.0242 1543 39.281
29.1416 1577 39.7115
29.259 1582 39.7744
29.3764 1593 39.9124
29.4939 1559 39.4842
29.6113 1501 38.7427
29.7288 1435 37.8814
29.8463 1489 38.5876
29.9638 1377 37.108
30.0812 1354 36.7967
30.1987 1362 36.9053
30.3162 1335 36.5377
30.4337 1413 37.5899
30.5512 1351 36.756
30.6687 1446 38.0263
30.7862 1431 37.8286
30.9037 1466 38.2884
31.0212 1464 38.2623
31.1387 1519 38.9744
31.2562 1545 39.3065
31.3737 1423 37.7227
31.4912 1407 37.51
31.6087 1431 37.8286
31.7262 1343 36.647
31.8436 1303 36.0971
31.9611 1287 35.8748
32.0785 1185 34.4238
32.1959 1230 35.0714
32.3134 1319 36.318
32.4308 1444 38
32.5482 1517 38.9487
32.6655 1544 39.2938
32.7829 1557 39.4588
32.9002 1541 39.2556
33.0176 1478 38.4448
33.1349 1551 39.3827
33.2522 1496 38.6782
33.3694 1441 37.9605
33.4867 1403 37.4566
33.6039 1278 35.7491
33.7211 1257 35.4542
33.8383 1217 34.8855
33.9554 1284 35.8329
34.0725 1279 35.7631
34.1896 1297 36.0139
34.3067 1389 37.2693
34.4237 1415 37.6165
34.5407 1435 37.8814
34.6577 1448 38.0526
34.7746 1388 37.2559
34.8915 1374 37.0675
35.0084 1423 37.7227
35.1252 1381 37.1618
35.242 1278 35.7491
35.3587 1301 36.0694
35.4755 1313 36.2353
35.5921 1169 34.1906
35.7088 1199 34.6266
35.8254 1178 34.322
35.9419 1276 35.7211
36.0584 1311 36.2077
36.1749 1309 36.1801
36.2913 1280 35.7771
36.4077 1315 36.2629
36.524 1289 35.9026
36.6403 1271 35.6511
36.7565 1238 35.1852
36.8727 1106 33.2566
36.9889 1075 32.7872
37.1049 954 30.8869
37.221 0 1
37.3369 0 1
37.4529 0 1
37.5687 0 1
37.6845 0 1
37.8003 0 1
37.916 0 1
38.0316 0 1
38.1472 0 1
40.5851 0 1
40.7008 0 1
40.8164 0 1
40.9322 0 1
41.048 0 1
41.1639 0 1
41.2798 0 1
41.3958 0 1
41.5118 0 1
41.6279 0 1
41.744 635 25.1992
41.8602 770 27.7489
41.9765 832 28.8444
42.0928 820 28.6356
42.2091 839 28.9655
42.3255 839 28.9655
42.4419 842 29.0172
42.5584 851 29.1719
42.675 923 30.3809
42.7915 928 30.4631
42.9081 1053 32.45
43.0248 1120 33.4664
43.1415 1134 33.6749
43.2582 1176 34.2929
43.375 1174 34.2637
43.4918 1137 33.7194
43.6087 1157 34.0147
43.7256 1226 35.0143
43.8425 1145 33.8378
43.9595 1134 33.6749
44.0765 1081 32.8786
44.1935 1141 33.7787
44.3106 1076 32.8024
44.4277 1020 31.9374
44.5448 993 31.5119
44.6619 984 31.3688
44.7791 1007 31.7333
44.8963 1110 33.3167
45.0136 1150 33.9116
45.1308 1225 35
45.2481 1215 34.8569
45.3654 1222 34.9571
45.4827 1243 35.2562
45.6001 1243 35.2562
45.7174 1224 34.9857
45.8348 1089 33
45.9522 1036 32.187
46.0697 1037 32.2025
46.1871 949 30.8058
46.3046 937 30.6105
46.422 1118 33.4365
46.5395 1184 34.4093
46.657 1166 34.1467
46.7745 1117 33.4215
46.892 1224 34.9857
47.0096 1284 35.8329
47.1271 1240 35.2136
47.2446 1241 35.2278
47.3622 1209 34.7707
47.4797 1252 35.3836
47.5973 1168 34.176
47.7149 1211 34.7994
47.8324 1068 32.6803
47.95 1091 33.0303
48.0675 1083 32.909
48.1851 1085 32.9393
48.3027 1022 31.9687
48.4202 1083 32.909
48.5378 1102 33.1964
48.6554 1245 35.2846
48.7729 1204 34.6987
48.8904 1321 36.3456
49.008 1276 35.7211
49.1255 1204 34.6987
49.243 1182 34.3802
49.3605 1080 32.8634
49.478 1066 32.6497
49.5955 1000 31.6228
49.713 936 30.5941
49.8304 1022 31.9687
49.9479 1063 32.6037
50.0653 1103 33.2114
50.1827 1157 34.0147
50.3001 1257 35.4542
50.4175 1295 35.9861
50.5348 1251 35.3695
50.6521 1259 35.4824
50.7694 1333 36.5103
50.8867 1352 36.7696
51.004 1331 36.4829
51.1212 1315 36.2629
51.2384 1236 35.1568
51.3556 1317 36.2905
51.4727 1227 35.0286
51.5899 1156 34
51.707 1200 34.641
51.824 1232 35.0999
51.9411 1321 36.3456
52.0581 1495 38.6652
52.175 1539 39.2301
52.2919 1662 40.7676
52.4088 1676 40.939
52.5257 1691 41.1218
52.6425 1749 41.821
52.7593 1645 40.5586
52.876 1749 41.821
52.9927 1585 39.8121
53.1094 1518 38.9615
53.226 1433 37.855
53.3426 1424 37.7359
53.4591 1372 37.0405
53.5756 1443 37.9868
53.692 1467 38.3014
53.8084 1433 37.855
53.9248 1383 37.1887
54.0411 1284 35.8329
54.1573 1257 35.4542
54.2735 0 1
54.3896 0 1
54.5057 0 1
54.6217 0 1
54.7377 0 1
54.8537 0 1
54.9695 0 1
55.0853 0 1
55.2011 0 1
55.3168 0 1
55.4324 0 1
57.824 0 1
57.9396 0 1
58.0553 0 1
58.1711 0 1
58.2869 0 1
58.4028 0 1
58.5187 0 1
58.6347 0 1
58.7508 0 1
58.8669 0 1
58.983 955 30.9031
59.0992 1072 32.7414
59.2155 1078 32.8329
59.3318 1198 34.6121
59.4482 1257 35.4542
59.5646 1299 36.0416
59.681 1373 37.054
59.7975 1393 37.3229
59.9141 1329 36.4555
60.0306 1315 36.2629
60.1473 1369 37
60.2639 1318 36.3043
60.3807 1262 35.5246
60.4974 1325 36.4005
60.6142 1376 37.0945
60.731 1404 37.47
60.8479 1516 38.9358
60.9648 1582 39.7744
61.0818 1558 39.4715
61.1987 1501 38.7427
61.3158 1551 39.3827
61.4328 1489 38.5876
61.5499 1409 37.5366
61.667 1340 36.606
61.7841 1254 35.4119
61.9013 1276 35.7211
62.0185 1227 35.0286
62.1357 1277 35.7351
62.253 1335 36.5377
62.3702 1388 37.2559
62.4875 1447 38.0395
62.6049 1472 38.3667
62.7222 1523 39.0256
62.8396 1538 39.2173
62.9569 1561 39.5095
63.0743 1514 38.9102
63.1918 1439 37.9342
63.3092 1503 38.7685
63.4267 1535 39.1791
63.5441 1431 37.8286
63.6616 1341 36.6197
63.7791 1327 36.428
63.8966 1287 35.8748
64.0142 1191 34.5109
64.1317 1274 35.6931
64.2492 1325 36.4005
64.3668 1448 38.0526
64.4843 1512 38.8844
64.6019 1582 39.7744
64.7195 1500 38.7298
64.837 1498 38.704
64.9546 1527 39.0768
65.0722 1395 37.3497
65.1898 1320 36.3318
65.3074 1296 36
65.4249 1085 32.9393
65.5425 1136 33.7046
65.6601 1137 33.7194
65.7777 1165 34.1321
65.8952 1327 36.428
66.0128 1427 37.7757
66.1304 1401 37.4299
66.2479 1458 38.1838
66.3655 1449 38.0657
66.483 1462 38.2361
66.6005 1448 38.0526
66.718 1535 39.1791
66.8355 1529 39.1024
66.953 1359 36.8646
67.0705 1466 38.2884
67.1879 1396 37.3631
67.3054 1297 36.0139
67.4228 1155 33.9853
67.5402 1130 33.6155
67.6576 1191 34.5109
67.7749 1249 35.3412
67.8923 1341 36.6197
68.0096 1357 36.8375
68.1269 1512 38.8844
68.2442 1524 39.0384
68.3614 1483 38.5097
68.4787 1517 38.9487
68.5958 1455 38.1445
68.713 1380 37.1484
68.8302 1308 36.1663
68.9473 1195 34.5688
69.0643 1102 33.1964
69.1814 1093 33.0606
69.2984 1078 32.8329
69.4154 1143 33.8083
69.5323 1237 35.171
69.6492 1360 36.8782
69.7661 1418 37.6563
69.8829 1392 37.3095
69.9997 1363 36.9188
70.1165 1324 36.3868
70.2332 1311 36.2077
70.3499 1214 34.8425
70.4665 1178 34.322
70.5831 1142 33.7935
70.6996 1050 32.4037
70.8161 961 31
70.9326 908 30.133
71.049 781 27.9464
71.1653 700 26.4575
71.2817 608 24.6577
71.3979 538 23.1948
71.5141 503 22.4277
71.6303 522 22.8473
71.7464 487 22.0681
71.8624 0 1
71.9784 0 1
72.0944 0 1
72.2102 0 1
72.3261 0 1
72.4418 0 1
72.5575 0 1
72.6732 0 1
75.1054 0 1
75.2209 0 1
75.3365 0 1
75.4521 0 1
75.5678 0 1
75.6835 0 1
75.7993 0 1
75.9151 0 1
76.031 0 1
76.147 862 29.3598
76.263 897 29.95
76.3791 915 30.249
76.4952 959 30.9677
76.6113 927 30.4467
76.7276 996 31.5595
76.8438 1103 33.2114
76.9601 1120 33.4664
77.0765 1215 34.8569
77.1929 1267 35.5949
77.3093 1335 36.5377
77.4258 1269 35.623
77.5423 1295 35.9861
77.6589 1205 34.7131
77.7755 1121 33.4813
77.8921 1084 32.9242
78.0088 955 30.9031
78.1256 875 29.5804
78.2423 928 30.4631
78.3591 908 30.133
78.4759 1123 33.5112
78.5928 1152 33.9411
78.7097 1176 34.2929
78.8266 1283 35.819
78.9436 1198 34.6121
79.0606 1317 36.2905
79.1776 1262 35.5246
79.2946 1245 35.2846
79.4117 1315 36.2629
79.5288 1292 35.9444
79.6459 1275 35.7071
79.7631 1236 35.1568
79.8802 1237 35.171
79.9974 1120 33.4664
80.1147 1088 32.9848
80.2319 1041 32.2645
80.3491 1035 32.1714
80.4664 1116 33.4066
80.5837 1198 34.6121
80.701 1264 35.5528
80.8183 1280 35.7771
80.9357 1407 37.51
81.053 1394 37.3363
81.1704 1407 37.51
81.2877 1253 35.3977
81.4051 1240 35.2136
81.5225 1165 34.1321
81.6399 1143 33.8083
81.7573 1045 32.3265
81.8747 963 31.0322
81.9922 1021 31.9531
82.1096 986 31.4006
82.227 1153 33.9559
82.3444 1201 34.6554
82.4619 1259 35.4824
82.5793 1297 36.0139
82.6967 1286 35.8608
82.8142 1339 36.5923
82.9316 1363 36.9188
83.049 1374 37.0675
83.1664 1391 37.2961
83.2838 1303 36.0971
83.4012 1301 36.0694
83.5186 1234 35.1283
83.636 1224 34.9857
83.7534 1136 33.7046
83.8708 1063 32.6037
83.9881 1018 31.9061
84.1055 1094 33.0757
84.2228 1112 33.3467
84.3401 1237 35.171
84.4575 1368 36.9865
84.5747 1379 37.1349
84.692 1327 36.428
84.8093 1371 37.027
84.9265 1390 37.2827
85.0437 1332 36.4966
85.1609 1205 34.7131
85.2781 1106 33.2566
85.3952 1022 31.9687
85.5123 996 31.5595
85.6294 997 31.5753
85.7465 1126 33.5559
85.8636 1205 34.7131
85.9806 1224 34.9857
86.0976 1339 36.5923
86.2145 1273 35.6791
86.3315 1340 36.606
86.4484 1458 38.1838
86.5652 1348 36.7151
86.682 1318 36.3043
86.7988 1356 36.8239
86.9156 1394 37.3363
87.0323 1356 36.8239
87.149 1266 35.5809
87.2657 1221 34.9428
87.3823 1061 32.573
87.4988 918 30.2985
87.6154 896 29.9333
87.7318 975 31.225
87.8483 1025 32.0156
87.9647 994 31.5278
88.081 1061 32.573
88.1973 1043 32.2955
88.3136 1012 31.8119
88.4298 994 31.5278
88.546 884 29.7321
88.6621 760 27.5681
88.7781 643 25.3574
88.8942 0 1
89.0101 0 1
89.126 0 1
89.2419 0 1
89.3577 0 1
89.4734 0 1
89.5891 0 1
89.7047 0 1
89.8203 0 1
89.9358 0 1
92.3269 0 1
92.4424 0 1
92.558 0 1
92.6736 0 1
92.7893 0 1
92.905 0 1
93.0208 0 1
93.1366 0 1
93.2525 0 1
93.3685 0 1
93.4845 0 1
93.6005 990 31.4643
93.7167 1074 32.7719
93.8328 1105 33.2415
93.949 1206 34.7275
94.0653 1143 33.8083
94.1816 1195 34.5688
94.2979 1124 33.5261
94.4143 1039 32.2335
94.5307 1065 32.6343
94.6472 991 31.4802
94.7637 1025 32.0156
94.8803 1101 33.1813
94.9969 1193 34.5398
95.1135 1300 36.0555
95.2302 1294 35.9722
95.3469 1341 36.6197
95.4637 1389 37.2693
95.5805 1391 37.2961
95.6973 1383 37.1887
95.8142 1393 37.3229
95.9311 1364 36.9324
96.048 1405 37.4833
96.1649 1402 37.4433
96.2819 1389 37.2693
96.3989 1300 36.0555
96.516 1213 34.8281
96.633 1078 32.8329
96.7501 1100 33.1662
96.8673 1088 32.9848
96.9844 1132 33.6452
97.1016 1240 35.2136
97.2188 1277 35.7351
97.336 1377 37.108
97.4532 1440 37.9473
97.5704 1431 37.8286
97.6877 1413 37.5899
97.805 1453 38.1182
97.9223 1344 36.6606
98.0396 1167 34.1614
98.1569 1144 33.8231
98.2743 1095 33.0908
98.3916 1017 31.8904
98.509 1060 32.5576
98.6264 1191 34.5109
98.7438 1205 34.7131
98.8612 1299 36.0416
98.9786 1373 37.054
99.096 1402 37.4433
99.2134 1450 38.0789
99.3308 1428 37.7889
99.4482 1478 38.4448
99.5656 1494 38.6523
99.6831 1412 37.5766
99.8005 1397 37.3765
99.9179 1371 37.027
100.035 1331 36.4829
100.153 1296 36
100.27 1242 35.242
100.388 1186 34.4384
100.505 1199 34.6266
100.622 1372 37.0405
100.74 1395 37.3497
100.857 1443 37.9868
100.975 1395 37.3497
101.092 1467 38.3014
101.209 1543 39.281
101.327 1510 38.8587
101.444 1485 38.5357
101.561 1335 36.5377
101.679 1240 35.2136
101.796 1104 33.2265
101.913 1100 33.1662
102.03 1110 33.3167
102.148 1190 34.4964
102.265 1314 36.2491
102.382 1410 37.55
102.499 1436 37.8946
102.616 1463 38.2492
102.733 1453 38.1182
102.851 1568 39.598
102.968 1521 39
103.085 1495 38.6652
103.202 1555 39.4335
103.319 1519 38.9744
103.436 1481 38.4838
103.552 1475 38.4057
103.669 1385 37.2156
103.786 1317 36.2905
103.903 1216 34.8712
104.02 1250 35.3553
104.137 1337 36.565
104.253 1391 37.2961
104.37 1567 39.5854
104.487 1586 39.8246
104.603 1520 38.9872
104.72 1572 39.6485
104.836 1482 38.4968
104.953 1402 37.4433
105.069 1265 35.5668
105.186 1199 34.6266
105.302 1072 32.7414
105.418 970 31.1448
105.535 942 30.692
105.651 1021 31.9531
105.767 1008 31.749
105.883 983 31.3528
105.999 932 30.5287
106.115 0 1
106.231 0 1
106.347 0 1
106.463 0 1
106.579 0 1
106.694 0 1
106.81 0 1
106.926 0 1
107.041 0 1
107.157 0 1
109.576 0 1
109.692 0 1
109.807 0 1
109.923 0 1
110.039 0 1
110.155 0 1
110.27 0 1
110.386 0 1
110.502 0 1
110.618 587 24.2281
110.735 821 28.6531
110.851 972 31.1769
110.967 1130 33.6155
111.083 1188 34.4674
111.199 1212 34.8138
111.316 1361 36.8917
111.432 1351 36.756
111.549 1491 38.6135
111.665 1443 37.9868
111.782 1459 38.1969
111.898 1387 37.2424
112.015 1402 37.4433
112.132 1386 37.229
112.248 1300 36.0555
112.365 1193 34.5398
112.482 1121 33.4813
112.599 1273 35.6791
112.716 1358 36.8511
112.832 1396 37.3631
112.949 1472 38.3667
113.066 1453 38.1182
113.183 1436 37.8946
113.3 1533 39.1535
113.417 1422 37.7094
113.534 1467 38.3014
113.652 1308 36.1663
113.769 1156 34
113.886 1099 33.1512
114.003 1057 32.5115
114.12 1113 33.3617
114.238 1238 35.1852
114.355 1361 36.8917
114.472 1344 36.6606
114.589 1468 38.3145
114.707 1443 37.9868
114.824 1444 38
114.942 1516 38.9358
115.059 1553 39.4081
115.176 1521 39
115.294 1556 39.4462
115.411 1437 37.9078
115.529 1436 37.8946
115.646 1398 37.3898
115.764 1339 36.5923
115.881 1311 36.2077
115.999 1225 35
116.116 1283 35.819
116.234 1309 36.1801
116.351 1407 37.51
116.469 1489 38.5876
116.586 1499 38.7169
116.704 1460 38.2099
116.821 1577 39.7115
116.939 1474 38.3927
117.056 1543 39.281
117.174 1342 36.6333
117.291 1197 34.5977
117.409 1144 33.8231
117.526 1125 33.541
117.644 1058 32.5269
117.761 1149 33.8969
117.879 1268 35.609
117.996 1289 35.9026
118.114 1340 36.606
118.231 1403 37.4566
118.349 1485 38.5357
118.466 1421 37.6962
118.584 1494 38.6523
118.701 1452 38.1051
118.819 1486 38.5487
118.936 1429 37.8021
119.053 1397 37.3765
119.171 1321 36.3456
119.288 1313 36.2353
119.405 1271 35.6511
119.523 1141 33.7787
119.64 1143 33.8083
119.757 1178 34.322
119.875 1194 34.5543
119.992 1233 35.1141
120.109 1436 37.8946
120.226 1365 36.9459
120.343 1405 37.4833
120.46 1448 38.0526
120.578 1364 36.9324
120.695 1395 37.3497
120.812 1311 36.2077
120.929 1195 34.5688
121.046 1064 32.619
121.163 1049 32.3883
121.279 975 31.225
121.396 952 30.8545
121.513 1056 32.4962
121.63 1089 33
121.747 1086 32.9545
121.863 1172 34.2345
121.98 1091 33.0303
122.097 1078 32.8329
122.213 1065 32.6343
122.33 1119 33.4515
122.446 1059 32.5423
122.563 1019 31.9218
122.679 898 29.9666
122.795 863 29.3769
122.912 788 28.0713
123.028 699 26.4386
123.144 615 24.7992
123.26 572 23.9165
123.377 0 1
123.493 0 1
123.609 0 1
123.725 0 1
123.84 0 1
123.956 0 1
124.072 0 1
124.188 0 1
124.303 0 1
124.419 0 1
126.852 0 1
126.968 0 1
127.083 0 1
127.199 0 1
127.315 0 1
127.431 0 1
127.547 0 1
127.663 0 1
127.779 0 1
127.895 0 1
128.011 0 1
128.127 0 1
128.243 0 1
128.359 1250 35.3553
128.476 1280 35.7771
128.592 1264 35.5528
128.708 1193 34.5398
128.825 1282 35.805
128.941 1299 36.0416
129.058 1375 37.081
129.174 1478 38.4448
129.291 1473 38.3797
129.408 1512 38.8844
129.524 1435 37.8814
129.641 1497 38.6911
129.758 1499 38.7169
129.875 1335 36.5377
129.992 1253 35.3977
130.108 1181 34.3657
130.225 1156 34
130.342 1069 32.6956
130.459 1212 34.8138
130.576 1251 35.3695
130.693 1263 35.5387
130.81 1371 37.027
130.928 1377 37.108
131.045 1463 38.2492
131.162 1415 37.6165
131.279 1461 38.223
131.396 1470 38.3406
131.513 1464 38.2623
131.631 1493 38.6394
131.748 1444 38
131.865 1429 37.8021
131.983 1360 36.8782
132.1 1360 36.8782
132.217 1317 36.2905
132.335 1300 36.0555
132.452 1273 35.6791
132.57 1439 37.9342
132.687 1482 38.4968
132.804 1467 38.3014
132.922 1488 38.5746
133.039 1517 38.9487
133.157 1593 39.9124
133.274 1524 39.0384
133.392 1526 39.064
133.509 1359 36.8646
133.627 1237 35.171
133.744 1173 34.2491
133.862 1119 33.4515
133.979 1135 33.6898
134.097 1261 35.5106
134.214 1340 36.606
134.332 1387 37.2424
134.449 1419 37.6696
134.567 1528 39.0896
134.684 1427 37.7757
134.802 1496 38.6782
134.919 1476 38.4187
135.037 1490 38.6005
135.154 1464 38.2623
135.272 1401 37.4299
135.389 1424 37.7359
135.507 1356 36.8239
135.624 1343 36.647
135.742 1255 35.426
135.859 1240 35.2136
135.977 1312 36.2215
136.094 1364 36.9324
136.211 1428 37.7889
136.329 1509 38.8458
136.446 1518 38.9615
136.564 1604 40.05
136.681 1585 39.8121
136.798 1564 39.5474
136.915 1531 39.128
137.033 1532 39.1408
137.15 1394 37.3363
137.267 1299 36.0416
137.384 1235 35.1426
137.502 1153 33.9559
137.619 1171 34.2199
137.736 1249 35.3412
137.853 1375 37.081
137.97 1358 36.8511
138.087 1408 37.5233
138.204 1425 37.7492
138.321 1454 38.1314
138.438 1492 38.6264
138.555 1499 38.7169
138.672 1549 39.3573
138.788 1505 38.7943
138.905 1325 36.4005
139.022 1317 36.2905
139.139 1198 34.6121
139.255 1134 33.6749
139.372 1091 33.0303
139.488 968 31.1127
139.605 970 31.1448
139.721 939 30.6431
139.838 964 31.0483
139.954 945 30.7409
140.071 969 31.1288
140.187 868 29.4618
140.303 828 28.775
140.419 795 28.1957
140.535 681 26.096
140.652 607 24.6374
140.768 0 1
140.884 0 1
141 0 1
141.115 0 1
141.231 0 1
141.347 0 1
141.463 0 1
141.578 0 1
141.694 0 1
144.104 0 1
144.219 0 1
144.335 0 1
144.45 0 1
144.566 0 1
144.682 0 1
144.798 0 1
144.914 0 1
145.03 0 1
145.146 1043 32.2955
145.262 1195 34.5688
145.378 1189 34.4819
145.494 1182 34.3802
145.61 1223 34.9714
145.726 1209 34.7707
145.842 1120 33.4664
145.959 1017 31.8904
146.075 1003 31.6702
146.192 985 31.3847
146.308 952 30.8545
146.425 1002 31.6544
146.541 977 31.257
146.658 1065 32.6343
146.774 1107 33.2716
146.891 1115 33.3916
147.008 1145 33.8378
147.125 1205 34.7131
147.241 1190 34.4964
147.358 1205 34.7131
147.475 1173 34.2491
147.592 1217 34.8855
147.709 1105 33.2415
147.826 1120 33.4664
147.943 1002 31.6544
148.06 1086 32.9545
148.177 1040 32.249
148.294 1090 33.0151
148.411 1075 32.7872
148.528 1080 32.8634
148.645 1112 33.3467
148.762 1157 34.0147
148.88 1245 35.2846
148.997 1279 35.7631
149.114 1147 33.8674
149.231 1215 34.8569
149.349 1225 35
149.466 1194 34.5543
149.583 1080 32.8634
149.701 1048 32.3728
149.818 977 31.257
149.935 939 30.6431
150.053 894 29.8998
150.17 908 30.133
150.287 1031 32.1092
150.405 1080 32.8634
150.522 1041 32.2645
150.64 1094 33.0757
150.757 1159 34.0441
150.875 1191 34.5109
150.992 1122 33.4963
151.11 1132 33.6452
151.227 1144 33.8231
151.344 1106 33.2566
151.462 1028 32.0624
151.579 1109 33.3017
151.697 1032 32.1248
151.814 1018 31.9061
151.932 980 31.305
152.049 1029 32.078
152.167 1038 32.218
152.284 1063 32.6037
152.402 1067 32.665
152.519 1077 32.8177
152.636 1174 34.2637
152.754 1145 33.8378
152.871 1126 33.5559
152.989 1156 34
153.106 1064 32.619
153.223 1046 32.3419
153.341 1012 31.8119
153.458 902 30.0333
153.575 891 29.8496
153.693 875 29.5804
153.81 918 30.2985
153.927 1006 31.7175
154.044 1056 32.4962
154.162 998 31.5911
154.279 1022 31.9687
154.396 1020 31.9374
154.513 1101 33.1813
154.63 1062 32.5883
154.747 1031 32.1092
154.864 1040 32.249
154.981 982 31.3369
155.098 988 31.4325
155.215 989 31.4484
155.332 896 29.9333
155.449 900 30
155.566 930 30.4959
155.683 951 30.8383
155.8 1000 31.6228
155.917 958 30.9516
156.033 905 30.0832
156.15 0 1
156.267 0 1
156.383 0 1
156.5 0 1
156.617 0 1
156.733 0 1
156.85 0 1
156.966 0 1
157.082 0 1
157.199 0 1
157.315 0 1
157.431 0 1
157.547 0 1
157.664 0 1
157.78 0 1
157.896 0 1
158.012 0 1
158.128 0 1
158.244 0 1
158.359 0 1
158.475 0 1
158.591 0 1
158.706 0 1
