
6.15755 0 1
6.2731 0 1
6.3887 0 1
6.50437 0 1
6.62009 0 1
6.73587 0 1
6.8517 0 1
6.96759 0 1
7.08353 0 1
7.19952 0 1
7.31557 0 1
7.43166 0 1
7.54781 0 1
7.664 0 1
7.78024 0 1
7.89653 0 1
8.01286 0 1
8.12924 0 1
8.24567 0 1
8.36213 0 1
8.47864 0 1
8.59519 0 1
8.71178 0 1
8.82841 0 1
8.94508 0 1
9.06179 0 1
9.17853 0 1
9.29531 0 1
9.41212 0 1
9.52897 0 1
9.64584 0 1
9.76276 0 1
9.8797 0 1
9.99667 0 1
10.1137 0 1
10.2307 0 1
10.3478 0 1
10.4648 0 1
10.5819 0 1
10.6991 0 1
10.8162 0 1
10.9334 0 1
11.0506 0 1
11.1678 0 1
11.285 0 1
11.4023 0 1
11.5196 0 1
11.6369 0 1
11.7542 0 1
11.8715 0 1
11.9888 0 1
12.1062 0 1
12.2235 0 1
12.3409 0 1
12.4582 0 1
12.5756 0 1
12.693 0 1
12.8104 0 1
12.9278 0 1
13.0452 0 1
13.1626 0 1
13.28 0 1
13.3974 0 1
13.5149 0 1
13.6323 0 1
13.7497 0 1
13.8671 0 1
13.9845 0 1
14.1019 0 1
14.2193 0 1
14.3367 0 1
14.4541 0 1
14.5714 0 1
14.6888 0 1
14.8062 0 1
14.9235 0 1
15.0408 0 0
15.1581 0 0
15.2755 0 0
15.3927 0 0
15.51 0 0
15.6273 0 0
15.7445 0 0
15.8617 0 0
15.9789 0 0
16.0961 0 0
16.2132 0 0
16.3304 0 0
16.4475 0 0
16.5646 0 0
16.6816 0 0
16.7986 0 0
16.9156 0 0
17.0326 0 0
17.1496 0 0
17.2665 0 0
17.3833 0 0
17.5002 0 0
17.617 0 0
17.7338 0 0
17.8505 0 0
17.9672 0 0
18.0839 0 0
18.2005 0 0
18.3171 0 0
18.4337 0 0
18.5502 0 0
18.6666 0 0
18.7831 0 0
18.8994 0 0
19.0158 0 0
19.1321 0 0
19.2483 0 0
19.3645 0 0
19.4806 0 0
19.5967 0 0
19.7128 0 0
19.8288 0 0
19.9447 0 0
20.0606 0 1
20.1764 0 1
20.2922 0 1
20.4079 0 1
20.5236 0 1
20.6392 0 1
20.7548 0 1
20.8702 0 1
23.3078 0 1
23.4233 0 1
23.539 0 1
23.6547 0 1
23.7704 0 1
23.8862 0 1
24.0021 0 1
24.118 0 1
24.234 0 1
24.35 0 1
24.4661 24370 156.109
24.5822 24326 155.968
24.6984 24018 154.977
24.8146 22998 151.651
24.9309 22722 150.738
25.0472 22286 149.285
25.1636 22671 150.569
25.28 23722 154.019
25.3965 24894 157.778
25.513 25780 160.562
25.6296 26632 163.193
25.7462 27168 164.827
25.8628 27188 164.888
25.9795 27201 164.927
26.0962 27316 165.276
26.213 27234 165.027
26.3298 26616 163.144
26.4466 26022 161.313
26.5635 24852 157.645
26.6804 24251 155.727
26.7973 23853 154.444
26.9143 24655 157.019
27.0313 25047 158.262
27.1483 26188 161.827
27.2653 26429 162.57
27.3824 26968 164.219
27.4996 26894 163.994
27.6167 26758 163.579
27.7339 26205 161.88
27.8511 25569 159.903
27.9683 25054 158.285
28.0855 24684 157.111
28.2028 24635 156.955
28.3201 22857 151.185
28.4374 22443 149.81
28.5547 21922 148.061
28.6721 21912 148.027
28.7894 22438 149.793
28.9068 23604 153.636
29.0242 24199 155.56
29.1416 25156 158.606
29.259 25886 160.891
29.3764 26042 161.375
29.4939 26134 161.66
29.6113 25954 161.102
29.7288 25919 160.994
29.8463 25567 159.897
29.9638 24692 157.137
30.0812 23805 154.289
30.1987 23325 152.725
30.3162 22999 151.654
30.4337 23679 153.88
30.5512 24091 155.213
30.6687 25005 158.13
30.7862 26127 161.638
30.9037 25871 160.845
31.0212 26444 162.616
31.1387 26373 162.398
31.2562 25819 160.683
31.3737 25578 159.931
31.4912 25159 158.616
31.6087 25083 158.376
31.7262 24378 156.135
31.8436 23449 153.131
31.9611 22499 149.997
32.0785 21857 147.841
32.1959 21950 148.155
32.3134 22513 150.043
32.4308 23576 153.545
32.5482 24311 155.92
32.6655 25177 158.673
32.7829 25702 160.318
32.9002 25866 160.829
33.0176 25665 160.203
33.1349 25941 161.062
33.2522 26028 161.332
33.3694 26277 162.102
33.4867 25682 160.256
33.6039 25102 158.436
33.7211 23866 154.486
33.8383 23641 153.756
33.9554 23150 152.151
34.0725 23880 154.532
34.1896 24883 157.743
34.3067 25242 158.877
34.4237 25690 160.281
34.5407 26234 161.969
34.6577 26696 163.389
34.7746 26365 162.373
34.8915 26584 163.046
35.0084 25649 160.153
35.1252 25342 159.192
35.242 24805 157.496
35.3587 24552 156.691
35.4755 24198 155.557
35.5921 22985 151.608
35.7088 22377 149.589
35.8254 21362 146.157
35.9419 21567 146.857
36.0584 21893 147.963
36.1749 23299 152.64
36.2913 24055 155.097
36.4077 25292 159.035
36.524 25630 160.094
36.6403 25847 160.77
36.7565 25941 161.062
36.8727 26332 162.271
36.9889 26122 161.623
37.1049 25257 158.925
37.221 0 1
37.3369 0 1
37.4529 0 1
37.5687 0 1
37.6845 0 1
37.8003 0 1
37.916 0 1
38.0316 0 1
38.1472 0 1
40.5851 0 1
40.7008 0 1
40.8164 0 1
40.9322 0 1
41.048 0 1
41.1639 0 1
41.2798 0 1
41.3958 0 1
41.5118 0 1
41.6279 0 1
41.744 21327 146.038
41.8602 21977 148.246
41.9765 22418 149.726
42.0928 22637 150.456
42.2091 22658 150.526
42.3255 21998 148.317
42.4419 21019 144.979
42.5584 20325 142.566
42.675 19580 139.929
42.7915 19901 141.071
42.9081 20937 144.696
43.0248 21325 146.031
43.1415 21974 148.236
43.2582 22193 148.973
43.375 22599 150.33
43.4918 22725 150.748
43.6087 22327 149.422
43.7256 22155 148.846
43.8425 21673 147.218
43.9595 21122 145.334
44.0765 20679 143.802
44.1935 20423 142.909
44.3106 19322 139.004
44.4277 18389 135.606
44.5448 17015 130.442
44.6619 16380 127.984
44.7791 16476 128.359
44.8963 17134 130.897
45.0136 18095 134.518
45.1308 18803 137.124
45.2481 19119 138.271
45.3654 19583 139.939
45.4827 19225 138.654
45.6001 19241 138.712
45.7174 19505 139.66
45.8348 19023 137.924
45.9522 18275 135.185
46.0697 17550 132.476
46.1871 16557 128.674
46.3046 16070 126.768
46.422 16553 128.658
46.5395 17058 130.606
46.657 17851 133.608
46.7745 17960 134.015
46.892 18021 134.242
47.0096 18110 134.573
47.1271 17982 134.097
47.2446 17898 133.783
47.3622 17531 132.405
47.4797 17103 130.778
47.5973 16527 128.557
47.7149 16105 126.905
47.8324 15784 125.634
47.95 14912 122.115
48.0675 13752 117.269
48.1851 13045 114.215
48.3027 13211 114.939
48.4202 13435 115.909
48.5378 14245 119.352
48.6554 15053 122.691
48.7729 15470 124.378
48.8904 15815 125.758
49.008 16331 127.793
49.1255 16413 128.113
49.243 16159 127.118
49.3605 16201 127.283
49.478 15511 124.543
49.5955 14856 121.885
49.713 14413 120.054
49.8304 14288 119.532
49.9479 15108 122.915
50.0653 16307 127.699
50.1827 17154 130.973
50.3001 17647 132.842
50.4175 18227 135.007
50.5348 18511 136.055
50.6521 19560 139.857
50.7694 19905 141.085
50.8867 20054 141.612
51.004 20024 141.506
51.1212 20276 142.394
51.2384 19764 140.584
51.3556 19813 140.759
51.4727 19298 138.917
51.5899 17985 134.108
51.707 17265 131.396
51.824 17694 133.019
51.9411 18810 137.15
52.0581 20096 141.76
52.175 21846 147.804
52.2919 22470 149.9
52.4088 23329 152.738
52.5257 23874 154.512
52.6425 23853 154.444
52.7593 23732 154.052
52.876 24414 156.25
52.9927 24329 155.978
53.1094 23798 154.266
53.226 23018 151.717
53.3426 22726 150.751
53.4591 22715 150.715
53.5756 23365 152.856
53.692 25140 158.556
53.8084 25649 160.153
53.9248 26379 162.416
54.0411 26881 163.954
54.1573 27258 165.1
54.2735 0 1
54.3896 0 1
54.5057 0 1
54.6217 0 1
54.7377 0 1
54.8537 0 1
54.9695 0 1
55.0853 0 1
55.2011 0 1
55.3168 0 1
55.4324 0 1
57.824 0 1
57.9396 0 1
58.0553 0 1
58.1711 0 1
58.2869 0 1
58.4028 0 1
58.5187 0 1
58.6347 0 1
58.7508 0 1
58.8669 0 1
58.983 31889 178.575
59.0992 32879 181.326
59.2155 33989 184.361
59.3318 34548 185.871
59.4482 34681 186.228
59.5646 34553 185.884
59.681 34613 186.046
59.7975 33515 183.071
59.9141 32420 180.056
60.0306 30945 175.912
60.1473 29022 170.358
60.2639 27099 164.618
60.3807 25611 160.034
60.4974 25327 159.145
60.6142 26408 162.505
60.731 27821 166.796
60.8479 29927 172.994
60.9648 31760 178.213
61.0818 32288 179.689
61.1987 32456 180.155
61.3158 32766 181.014
61.4328 32491 180.253
61.5499 31717 178.093
61.667 31237 176.74
61.7841 30089 173.462
61.9013 29260 171.056
62.0185 29352 171.324
62.1357 29716 172.383
62.253 30762 175.391
62.3702 31834 178.421
62.4875 32520 180.333
62.6049 33191 182.184
62.7222 33721 183.633
62.8396 33760 183.739
62.9569 34039 184.497
63.0743 34060 184.554
63.1918 33904 184.13
63.3092 33025 181.728
63.4267 32246 179.572
63.5441 29944 173.043
63.6616 28424 168.594
63.7791 26038 161.363
63.8966 24532 156.627
64.0142 24186 155.518
64.1317 25292 159.035
64.2492 27483 165.78
64.3668 29300 171.172
64.4843 30997 176.06
64.6019 31667 177.952
64.7195 32149 179.301
64.837 32171 179.363
64.9546 32642 180.671
65.0722 31918 178.656
65.1898 31121 176.411
65.3074 30172 173.701
65.4249 28823 169.773
65.5425 28570 169.027
65.6601 28438 168.636
65.7777 29656 172.209
65.8952 30836 175.602
66.0128 32111 179.195
66.1304 32655 180.707
66.2479 33637 183.404
66.3655 34478 185.683
66.483 34498 185.736
66.6005 35031 187.166
66.718 34805 186.561
66.8355 34214 184.97
66.953 33725 183.644
67.0705 32636 180.654
67.1879 30514 174.683
67.3054 28539 168.935
67.4228 25948 161.084
67.5402 24194 155.544
67.6576 24830 157.575
67.7749 25670 160.219
67.8923 28423 168.591
68.0096 30782 175.448
68.1269 32732 180.92
68.2442 34165 184.838
68.3614 34540 185.849
68.4787 35049 187.214
68.5958 34940 186.922
68.713 35120 187.403
68.8302 34451 185.61
68.9473 33345 182.606
69.0643 32297 179.714
69.1814 31666 177.949
69.2984 31863 178.502
69.4154 33238 182.313
69.5323 34980 187.029
69.6492 36269 190.444
69.7661 37032 192.437
69.8829 37783 194.378
69.9997 39124 197.798
70.1165 39303 198.25
70.2332 39671 199.176
70.3499 39666 199.163
70.4665 39222 198.045
70.5831 38738 196.82
70.6996 37367 193.305
70.8161 35577 188.619
70.9326 33302 182.488
71.049 30343 174.192
71.1653 27087 164.581
71.2817 25660 160.187
71.3979 26330 162.265
71.5141 28078 167.565
71.6303 29963 173.098
71.7464 30491 174.617
71.8624 0 1
71.9784 0 1
72.0944 0 1
72.2102 0 1
72.3261 0 1
72.4418 0 1
72.5575 0 1
72.6732 0 1
75.1054 0 1
75.2209 0 1
75.3365 0 1
75.4521 0 1
75.5678 0 1
75.6835 0 1
75.7993 0 1
75.9151 0 1
76.031 0 1
76.147 35800 189.209
76.263 36310 190.552
76.3791 33866 184.027
76.4952 30211 173.813
76.6113 28982 170.241
76.7276 29945 173.046
76.8438 32837 181.21
76.9601 36626 191.379
77.0765 40382 200.953
77.1929 42714 206.674
77.3093 43842 209.385
77.4258 44010 209.786
77.5423 44181 210.193
77.6589 44846 211.769
77.7755 43982 209.719
77.8921 42633 206.478
78.0088 41943 204.8
78.1256 39636 199.088
78.2423 38939 197.33
78.3591 38576 196.408
78.4759 39844 199.61
78.5928 41456 203.607
78.7097 43575 208.746
78.8266 46876 216.509
78.9436 44078 209.948
79.0606 46589 215.845
79.1776 46959 216.7
79.2946 47680 218.358
79.4117 47397 217.709
79.5288 46962 216.707
79.6459 46384 215.369
79.7631 44536 211.036
79.8802 41944 204.802
79.9974 38547 196.334
80.1147 34000 184.391
80.2319 31450 177.341
80.3491 31841 178.44
80.4664 35072 187.275
80.5837 39203 197.997
80.701 42716 206.678
80.8183 45273 212.775
80.9357 46572 215.805
81.053 47355 217.612
81.1704 47616 218.211
81.2877 47431 217.787
81.4051 47074 216.965
81.5225 47239 217.345
81.6399 44235 210.321
81.7573 43245 207.954
81.8747 41755 204.34
81.9922 40701 201.745
82.1096 41776 204.392
82.227 43572 208.739
82.3444 45466 213.228
82.4619 47301 217.488
82.5793 47358 217.619
82.6967 50653 225.062
82.8142 49466 222.41
82.9316 49693 222.919
83.049 49310 222.059
83.1664 48497 220.22
83.2838 47836 218.714
83.4012 45799 214.007
83.5186 43775 209.225
83.636 40080 200.2
83.7534 35605 188.693
83.8708 32236 179.544
83.9881 32840 181.218
84.1055 34605 186.024
84.2228 38164 195.356
84.3401 43518 208.61
84.4575 46931 216.636
84.5747 49288 222.009
84.692 50797 225.382
84.8093 51151 226.166
84.9265 51245 226.374
85.0437 50910 225.632
85.1609 50173 223.993
85.2781 48155 219.442
85.3952 47173 217.193
85.5123 45820 214.056
85.6294 45507 213.324
85.7465 47942 218.957
85.8636 50185 224.02
85.9806 53347 230.97
86.0976 55527 235.642
86.2145 57436 239.658
86.3315 56732 238.185
86.4484 61173 247.332
86.5652 60371 245.705
86.682 60464 245.894
86.7988 59674 244.283
86.9156 59189 243.288
87.0323 56844 238.42
87.149 54055 232.497
87.2657 49926 223.441
87.3823 44651 211.308
87.4988 41959 204.839
87.6154 44176 210.181
87.7318 49503 222.493
87.8483 55420 235.415
87.9647 61250 247.487
88.081 64422 253.815
88.1973 66354 257.593
88.3136 67052 258.944
88.4298 67079 258.996
88.546 67306 259.434
88.6621 66319 257.525
88.7781 63755 252.498
88.8942 0 1
89.0101 0 1
89.126 0 1
89.2419 0 1
89.3577 0 1
89.4734 0 1
89.5891 0 1
89.7047 0 1
89.8203 0 1
89.9358 0 1
92.3269 0 1
92.4424 0 1
92.558 0 1
92.6736 0 1
92.7893 0 1
92.905 0 1
93.0208 0 1
93.1366 0 1
93.2525 0 1
93.3685 0 1
93.4845 0 1
93.6005 72799 269.813
93.7167 74609 273.146
93.8328 74776 273.452
93.949 74622 273.17
94.0653 74334 272.643
94.1816 72937 270.069
94.2979 71741 267.845
94.4143 69855 264.301
94.5307 68823 262.341
94.6472 67728 260.246
94.7637 67296 259.415
94.8803 70002 264.579
94.9969 71992 268.313
95.1135 74837 273.564
95.2302 76736 277.013
95.3469 78655 280.455
95.4637 79590 282.117
95.5805 81062 284.714
95.6973 82569 287.348
95.8142 83007 288.109
95.9311 81497 285.477
96.048 79932 282.722
96.1649 76744 277.027
96.2819 73572 271.242
96.3989 68872 262.435
96.516 63168 251.332
96.633 57446 239.679
96.7501 56049 236.747
96.8673 60349 245.66
96.9844 66241 257.373
97.1016 73230 270.61
97.2188 80136 283.083
97.336 85546 292.482
97.4532 86385 293.913
97.5704 86968 294.903
97.6877 85987 293.235
97.805 84896 291.369
97.9223 83256 288.541
98.0396 81179 284.919
98.1569 79189 281.405
98.2743 77471 278.336
98.3916 76714 276.973
98.509 77199 277.847
98.6264 79097 281.242
98.7438 82581 287.369
98.8612 85418 292.264
98.9786 88273 297.108
99.096 89629 299.381
99.2134 91205 302.002
99.3308 92286 303.786
99.4482 91914 303.173
99.5656 92053 303.402
99.6831 90210 300.35
99.8005 86772 294.571
99.9179 82777 287.71
100.035 78502 280.182
100.153 70987 266.434
100.27 65734 256.386
100.388 65305 255.548
100.505 72069 268.457
100.622 80688 284.056
100.74 88884 298.134
100.857 93736 306.163
100.975 95333 308.76
101.092 95464 308.972
101.209 96201 310.163
101.327 95213 308.566
101.444 95039 308.284
101.561 93563 305.881
101.679 90965 301.604
101.796 87959 296.579
101.913 86191 293.583
102.03 86087 293.406
102.148 88070 296.766
102.265 95129 308.43
102.382 89507 299.177
102.499 97031 311.498
102.616 99890 316.054
102.733 101552 318.672
102.851 102365 319.945
102.968 104072 322.602
103.085 102955 320.866
103.202 100798 317.487
103.319 98064 313.152
103.436 93237 305.347
103.552 88424 297.362
103.669 80196 283.189
103.786 73363 270.856
103.903 72156 268.619
104.02 79121 281.285
104.137 88525 297.532
104.253 101281 318.247
104.37 102012 319.393
104.487 106956 327.041
104.603 108377 329.207
104.72 107176 327.377
104.836 107427 327.761
104.953 105813 325.289
105.069 102921 320.813
105.186 100904 317.654
105.302 98187 313.348
105.418 95857 309.608
105.535 96462 310.583
105.651 99545 315.508
105.767 102323 319.88
105.883 105751 325.194
105.999 108098 328.783
106.115 0 1
106.231 0 1
106.347 0 1
106.463 0 1
106.579 0 1
106.694 0 1
106.81 0 1
106.926 0 1
107.041 0 1
107.157 0 1
109.576 0 1
109.692 0 1
109.807 0 1
109.923 0 1
110.039 0 1
110.155 0 1
110.27 0 1
110.386 0 1
110.502 0 1
110.618 90355 300.591
110.735 93937 306.491
110.851 96580 310.773
110.967 99283 315.092
111.083 100898 317.644
111.199 102091 319.517
111.316 103395 321.551
111.432 103371 321.514
111.549 102176 319.65
111.665 99827 315.954
111.782 96531 310.694
111.898 91397 302.319
112.015 86182 293.568
112.132 78821 280.751
112.248 71417 267.24
112.365 67641 260.079
112.482 71330 267.077
112.599 76825 277.173
112.716 86502 294.112
112.832 92195 303.636
112.949 92856 304.723
113.066 93732 306.157
113.183 92841 304.698
113.3 92018 303.345
113.417 90586 300.975
113.534 89089 298.478
113.652 85912 293.107
113.769 83377 288.751
113.886 80149 283.106
114.003 79270 281.549
114.12 79454 281.876
114.238 80992 284.591
114.355 81956 286.28
114.472 83017 288.127
114.589 84651 290.948
114.707 85028 291.596
114.824 86227 293.644
114.942 86977 294.919
115.059 87000 294.958
115.176 86335 293.828
115.294 84984 291.52
115.411 81710 285.85
115.529 78198 279.639
115.646 74246 272.481
115.764 67761 260.309
115.881 61547 248.087
115.999 61565 248.123
116.116 66528 257.93
116.234 73722 271.518
116.351 80019 282.876
116.469 84319 290.377
116.586 84401 290.519
116.704 85342 292.134
116.821 85034 291.606
116.939 85647 292.655
117.056 83911 289.674
117.174 81513 285.505
117.291 80602 283.905
117.409 78599 280.355
117.526 77113 277.692
117.644 76790 277.11
117.761 77969 279.229
117.879 79242 281.5
117.996 80288 283.351
118.114 81667 285.774
118.231 83209 288.46
118.349 82675 287.533
118.466 84393 290.505
118.584 85240 291.959
118.701 85460 292.335
118.819 84283 290.315
118.936 82592 287.388
119.053 80298 283.369
119.171 76938 277.377
119.288 71540 267.47
119.405 65625 256.174
119.523 59344 243.606
119.64 60157 245.269
119.757 64106 253.192
119.875 70147 264.853
119.992 75774 275.271
120.109 79550 282.046
120.226 81283 285.102
120.343 81462 285.415
120.46 81612 285.678
120.578 81509 285.498
120.695 80643 283.977
120.812 79647 282.218
120.929 77662 278.679
121.046 76509 276.603
121.163 74194 272.386
121.279 72812 269.837
121.396 72323 268.929
121.513 73646 271.378
121.63 76154 275.96
121.747 76079 275.824
121.863 77618 278.6
121.98 78095 279.455
122.097 77925 279.15
122.213 79192 281.411
122.33 79927 282.714
122.446 79269 281.548
122.563 78497 280.173
122.679 76586 276.742
122.795 74227 272.446
122.912 71930 268.198
123.028 67443 259.698
123.144 61378 247.746
123.26 56943 238.627
123.377 0 1
123.493 0 1
123.609 0 1
123.725 0 1
123.84 0 1
123.956 0 1
124.072 0 1
124.188 0 1
124.303 0 1
124.419 0 1
126.852 0 1
126.968 0 1
127.083 0 1
127.199 0 1
127.315 0 1
127.431 0 1
127.547 0 1
127.663 0 1
127.779 0 1
127.895 0 1
128.011 0 1
128.127 0 1
128.243 0 1
128.359 67094 259.025
128.476 61672 248.338
128.592 61020 247.022
128.708 66306 257.5
128.825 73160 270.481
128.941 80190 283.178
129.058 83195 288.435
129.174 84386 290.493
129.291 84724 291.074
129.408 84909 291.391
129.524 83892 289.641
129.641 83421 288.827
129.758 82063 286.466
129.875 80551 283.815
129.992 78895 280.883
130.108 76993 277.476
130.225 76780 277.092
130.342 76901 277.31
130.459 76281 276.19
130.576 80485 283.699
130.693 79623 282.175
130.81 80062 282.952
130.928 80542 283.799
131.045 80645 283.981
131.162 80483 283.695
131.279 81897 286.177
131.396 81120 284.816
131.513 79671 282.261
131.631 77247 277.933
131.748 74571 273.077
131.865 68736 262.176
131.983 61552 248.097
132.1 59708 244.352
132.217 62352 249.704
132.335 67764 260.315
132.452 73683 271.446
132.57 78003 279.29
132.687 76655 276.866
132.804 81807 286.019
132.922 79197 281.42
133.039 79161 281.356
133.157 78971 281.018
133.274 78424 280.043
133.392 76653 276.863
133.509 74590 273.112
133.627 73296 270.732
133.744 72980 270.148
133.862 71785 267.927
133.979 73653 271.391
134.097 74002 272.033
134.214 76257 276.147
134.332 74173 272.347
134.449 75593 274.942
134.567 74847 273.582
134.684 76787 277.105
134.802 76917 277.339
134.919 77582 278.535
135.037 76643 276.845
135.154 74557 273.051
135.272 72877 269.957
135.389 68635 261.983
135.507 63550 252.091
135.624 57434 239.654
135.742 57519 239.831
135.859 61657 248.308
135.977 67253 259.332
136.094 72468 269.199
136.211 75454 274.689
136.329 77354 278.126
136.446 77426 278.255
136.564 77320 278.065
136.681 78260 279.75
136.798 76001 275.683
136.915 75499 274.771
137.033 74753 273.41
137.15 73364 270.858
137.267 71756 267.873
137.384 70607 265.72
137.502 70366 265.266
137.619 70870 266.214
137.736 72191 268.684
137.853 71437 267.277
137.97 72096 268.507
138.087 74494 272.936
138.204 73220 270.592
138.321 73857 271.766
138.438 75126 274.091
138.555 75745 275.218
138.672 75523 274.814
138.788 73554 271.208
138.905 72020 268.365
139.022 68592 261.901
139.139 64061 253.103
139.255 58880 242.652
139.372 57391 239.564
139.488 60207 245.371
139.605 65338 255.613
139.721 70665 265.829
139.838 73768 271.603
139.954 75335 274.472
140.071 74007 272.042
140.187 75142 274.12
140.303 74186 272.371
140.419 73972 271.978
140.535 72877 269.957
140.652 71351 267.116
140.768 0 1
140.884 0 1
141 0 1
141.115 0 1
141.231 0 1
141.347 0 1
141.463 0 1
141.578 0 1
141.694 0 1
144.104 0 1
144.219 0 1
144.335 0 1
144.45 0 1
144.566 0 1
144.682 0 1
144.798 0 1
144.914 0 1
145.03 0 1
145.146 63611 252.212
145.262 64971 254.894
145.378 64568 254.102
145.494 64007 252.996
145.61 62857 250.713
145.726 61501 247.994
145.842 60227 245.412
145.959 59300 243.516
146.075 59047 242.996
146.192 58807 242.502
146.308 60164 245.284
146.425 60377 245.717
146.541 60220 245.398
146.658 60372 245.707
146.774 60486 245.939
146.891 60490 245.947
147.008 60913 246.806
147.125 61241 247.469
147.241 61975 248.948
147.358 60567 246.104
147.475 59389 243.699
147.592 56327 237.333
147.709 52713 229.593
147.826 48348 219.882
147.943 47364 217.633
148.06 49060 221.495
148.177 53264 230.79
148.294 57187 239.138
148.411 59720 244.377
148.528 60203 245.363
148.645 60677 246.327
148.762 60803 246.583
148.88 59901 244.747
148.997 57910 240.645
149.114 61226 247.439
149.231 58840 242.57
149.349 57238 239.245
149.466 55172 234.887
149.583 54956 234.427
149.701 54373 233.18
149.818 54619 233.707
149.935 55548 235.686
150.053 55869 236.366
150.17 55597 235.79
150.287 56311 237.299
150.405 56124 236.905
150.522 57355 239.489
150.64 57395 239.573
150.757 57538 239.871
150.875 57893 240.61
150.992 57663 240.131
151.11 54727 233.938
151.227 53072 230.374
151.344 49803 223.166
151.462 45828 214.075
151.579 45157 212.502
151.697 46995 216.783
151.814 50752 225.282
151.932 54467 233.382
152.049 57520 239.833
152.167 58073 240.983
152.284 58596 242.066
152.402 58480 241.826
152.519 58534 241.938
152.636 58245 241.34
152.754 57733 240.277
152.871 56790 238.307
152.989 55723 236.057
153.106 55100 234.734
153.223 53973 232.321
153.341 53179 230.606
153.458 53644 231.612
153.575 54528 233.512
153.693 54652 233.778
153.81 55481 235.544
153.927 55422 235.419
154.044 56226 237.12
154.162 57094 238.944
154.279 58216 241.28
154.396 58593 242.06
154.513 58953 242.802
154.63 58698 242.277
154.747 56554 237.811
154.864 54751 233.989
154.981 52598 229.343
155.098 49240 221.901
155.215 47975 219.032
155.332 49778 223.11
155.449 53169 230.584
155.566 56396 237.478
155.683 58221 241.29
155.8 58712 242.306
155.917 58809 242.506
156.033 58689 242.258
156.15 0 1
156.267 0 1
156.383 0 1
156.5 0 1
156.617 0 1
156.733 0 1
156.85 0 1
156.966 0 1
157.082 0 1
157.199 0 1
157.315 0 1
157.431 0 1
157.547 0 1
157.664 0 1
157.78 0 1
157.896 0 1
158.012 0 1
158.128 0 1
158.244 0 1
158.359 0 1
158.475 0 1
158.591 0 1
158.706 0 1
