
6.15755 0 1
6.2731 0 1
6.3887 0 1
6.50437 0 1
6.62009 0 1
6.73587 0 1
6.8517 0 1
6.96759 0 1
7.08353 0 1
7.19952 0 1
7.31557 0 1
7.43166 0 1
7.54781 0 1
7.664 0 1
7.78024 0 1
7.89653 0 1
8.01286 0 1
8.12924 0 1
8.24567 0 1
8.36213 0 1
8.47864 0 1
8.59519 0 1
8.71178 0 1
8.82841 0 1
8.94508 0 1
9.06179 0 1
9.17853 0 1
9.29531 0 1
9.41212 0 1
9.52897 0 1
9.64584 0 1
9.76276 0 1
9.8797 0 1
9.99667 0 1
10.1137 0 1
10.2307 0 1
10.3478 0 1
10.4648 0 1
10.5819 0 1
10.6991 0 1
10.8162 0 1
10.9334 0 1
11.0506 0 1
11.1678 0 1
11.285 0 1
11.4023 0 1
11.5196 0 1
11.6369 0 1
11.7542 0 1
11.8715 0 1
11.9888 0 1
12.1062 0 1
12.2235 0 1
12.3409 0 1
12.4582 0 1
12.5756 0 1
12.693 0 1
12.8104 0 1
12.9278 0 1
13.0452 0 1
13.1626 0 1
13.28 0 1
13.3974 0 1
13.5149 0 1
13.6323 0 1
13.7497 0 1
13.8671 0 1
13.9845 0 1
14.1019 0 1
14.2193 0 1
14.3367 0 1
14.4541 0 1
14.5714 0 1
14.6888 0 1
14.8062 0 1
14.9235 0 1
15.0408 862 29.3598
15.1581 880 29.6648
15.2755 868 29.4618
15.3927 872 29.5296
15.51 965 31.0644
15.6273 898 29.9666
15.7445 913 30.2159
15.8617 836 28.9137
15.9789 894 29.8998
16.0961 806 28.3901
16.2132 856 29.2575
16.3304 748 27.3496
16.4475 797 28.2312
16.5646 787 28.0535
16.6816 767 27.6948
16.7986 749 27.3679
16.9156 794 28.178
17.0326 759 27.55
17.1496 787 28.0535
17.2665 761 27.5862
17.3833 802 28.3196
17.5002 766 27.6767
17.617 831 28.8271
17.7338 796 28.2135
17.8505 799 28.2666
17.9672 791 28.1247
18.0839 715 26.7395
18.2005 724 26.9072
18.3171 774 27.8209
18.4337 822 28.6705
18.5502 785 28.0179
18.6666 795 28.1957
18.7831 777 27.8747
18.8994 818 28.6007
19.0158 733 27.074
19.1321 778 27.8927
19.2483 740 27.2029
19.3645 684 26.1534
19.4806 632 25.1396
19.5967 626 25.02
19.7128 529 23
19.8288 531 23.0434
19.9447 487 22.0681
20.0606 0 1
20.1764 0 1
20.2922 0 1
20.4079 0 1
20.5236 0 1
20.6392 0 1
20.7548 0 1
20.8702 0 1
23.3078 0 1
23.4233 0 1
23.539 0 1
23.6547 0 1
23.7704 0 1
23.8862 0 1
24.0021 0 1
24.118 0 1
24.234 0 1
24.35 0 1
24.4661 341 18.4662
24.5822 364 19.0788
24.6984 413 20.3224
24.8146 502 22.4054
24.9309 579 24.0624
25.0472 620 24.8998
25.1636 710 26.6458
25.28 784 28
25.3965 814 28.5307
25.513 830 28.8097
25.6296 776 27.8568
25.7462 915 30.249
25.8628 838 28.9482
25.9795 836 28.9137
26.0962 866 29.4279
26.213 842 29.0172
26.3298 840 28.9828
26.4466 774 27.8209
26.5635 662 25.7294
26.6804 701 26.4764
26.7973 629 25.0799
26.9143 638 25.2587
27.0313 669 25.865
27.1483 653 25.5539
27.2653 731 27.037
27.3824 738 27.1662
27.4996 724 26.9072
27.6167 759 27.55
27.7339 774 27.8209
27.8511 762 27.6043
27.9683 736 27.1293
28.0855 726 26.9444
28.2028 690 26.2679
28.3201 671 25.9037
28.4374 712 26.6833
28.5547 757 27.5136
28.6721 733 27.074
28.7894 781 27.9464
28.9068 821 28.6531
29.0242 775 27.8388
29.1416 765 27.6586
29.259 725 26.9258
29.3764 678 26.0384
29.4939 701 26.4764
29.6113 717 26.7769
29.7288 664 25.7682
29.8463 668 25.8457
29.9638 690 26.2679
30.0812 674 25.9615
30.1987 611 24.7184
30.3162 629 25.0799
30.4337 596 24.4131
30.5512 623 24.96
30.6687 650 25.4951
30.7862 694 26.3439
30.9037 752 27.4226
31.0212 771 27.7669
31.1387 765 27.6586
31.2562 786 28.0357
31.3737 715 26.7395
31.4912 731 27.037
31.6087 721 26.8514
31.7262 662 25.7294
31.8436 687 26.2107
31.9611 686 26.1916
32.0785 649 25.4755
32.1959 715 26.7395
32.3134 672 25.923
32.4308 726 26.9444
32.5482 723 26.8887
32.6655 649 25.4755
32.7829 644 25.3772
32.9002 651 25.5147
33.0176 678 26.0384
33.1349 661 25.7099
33.2522 640 25.2982
33.3694 654 25.5734
33.4867 594 24.3721
33.6039 671 25.9037
33.7211 620 24.8998
33.8383 643 25.3574
33.9554 586 24.2074
34.0725 627 25.04
34.1896 625 25
34.3067 654 25.5734
34.4237 655 25.593
34.5407 697 26.4008
34.6577 698 26.4197
34.7746 732 27.0555
34.8915 652 25.5343
35.0084 628 25.0599
35.1252 660 25.6905
35.242 586 24.2074
35.3587 626 25.02
35.4755 600 24.4949
35.5921 643 25.3574
35.7088 622 24.9399
35.8254 639 25.2784
35.9419 615 24.7992
36.0584 647 25.4362
36.1749 622 24.9399
36.2913 558 23.622
36.4077 562 23.7065
36.524 559 23.6432
36.6403 557 23.6008
36.7565 497 22.2935
36.8727 493 22.2036
36.9889 495 22.2486
37.1049 408 20.199
37.221 0 1
37.3369 0 1
37.4529 0 1
37.5687 0 1
37.6845 0 1
37.8003 0 1
37.916 0 1
38.0316 0 1
38.1472 0 1
40.5851 0 1
40.7008 0 1
40.8164 0 1
40.9322 0 1
41.048 0 1
41.1639 0 1
41.2798 0 1
41.3958 0 1
41.5118 0 1
41.6279 0 1
41.744 289 17
41.8602 345 18.5742
41.9765 380 19.4936
42.0928 418 20.445
42.2091 425 20.6155
42.3255 477 21.8403
42.4419 496 22.2711
42.5584 461 21.4709
42.675 481 21.9317
42.7915 466 21.587
42.9081 462 21.4942
43.0248 474 21.7715
43.1415 476 21.8174
43.2582 465 21.5639
43.375 521 22.8254
43.4918 553 23.516
43.6087 459 21.4243
43.7256 508 22.5389
43.8425 439 20.9523
43.9595 449 21.1896
44.0765 413 20.3224
44.1935 423 20.567
44.3106 477 21.8403
44.4277 488 22.0907
44.5448 500 22.3607
44.6619 501 22.383
44.7791 463 21.5174
44.8963 551 23.4734
45.0136 527 22.9565
45.1308 485 22.0227
45.2481 508 22.5389
45.3654 526 22.9347
45.4827 490 22.1359
45.6001 523 22.8692
45.7174 552 23.4947
45.8348 512 22.6274
45.9522 516 22.7156
46.0697 486 22.0454
46.1871 480 21.9089
46.3046 452 21.2603
46.422 458 21.4009
46.5395 437 20.9045
46.657 422 20.5426
46.7745 451 21.2368
46.892 495 22.2486
47.0096 505 22.4722
47.1271 489 22.1133
47.2446 487 22.0681
47.3622 460 21.4476
47.4797 446 21.1187
47.5973 447 21.1424
47.7149 469 21.6564
47.8324 442 21.0238
47.95 467 21.6102
48.0675 477 21.8403
48.1851 504 22.4499
48.3027 467 21.6102
48.4202 460 21.4476
48.5378 442 21.0238
48.6554 500 22.3607
48.7729 490 22.1359
48.8904 492 22.1811
49.008 508 22.5389
49.1255 506 22.4944
49.243 534 23.1084
49.3605 492 22.1811
49.478 472 21.7256
49.5955 428 20.6882
49.713 415 20.3715
49.8304 401 20.025
49.9479 368 19.1833
50.0653 389 19.7231
50.1827 417 20.4206
50.3001 413 20.3224
50.4175 458 21.4009
50.5348 472 21.7256
50.6521 471 21.7025
50.7694 479 21.8861
50.8867 427 20.664
51.004 380 19.4936
51.1212 442 21.0238
51.2384 435 20.8567
51.3556 435 20.8567
51.4727 451 21.2368
51.5899 461 21.4709
51.707 498 22.3159
51.824 503 22.4277
51.9411 445 21.095
52.0581 502 22.4054
52.175 492 22.1811
52.2919 463 21.5174
52.4088 479 21.8861
52.5257 463 21.5174
52.6425 470 21.6795
52.7593 460 21.4476
52.876 452 21.2603
52.9927 437 20.9045
53.1094 468 21.6333
53.226 395 19.8746
53.3426 402 20.0499
53.4591 424 20.5913
53.5756 376 19.3907
53.692 346 18.6011
53.8084 404 20.0998
53.9248 361 19
54.0411 341 18.4662
54.1573 291 17.0587
54.2735 0 1
54.3896 0 1
54.5057 0 1
54.6217 0 1
54.7377 0 1
54.8537 0 1
54.9695 0 1
55.0853 0 1
55.2011 0 1
55.3168 0 1
55.4324 0 1
57.824 0 1
57.9396 0 1
58.0553 0 1
58.1711 0 1
58.2869 0 1
58.4028 0 1
58.5187 0 1
58.6347 0 1
58.7508 0 1
58.8669 0 1
58.983 1603 40.0375
59.0992 2375 48.734
59.2155 3088 55.5698
59.3318 3345 57.836
59.4482 3627 60.2246
59.5646 3668 60.564
59.681 3645 60.3738
59.7975 3650 60.4152
59.9141 3715 60.9508
60.0306 3640 60.3324
60.1473 3540 59.4979
60.2639 3464 58.8558
60.3807 3407 58.3695
60.4974 3377 58.112
60.6142 3340 57.7927
60.731 3189 56.4712
60.8479 3142 56.0535
60.9648 2847 53.3573
61.0818 2601 51
61.1987 2285 47.8017
61.3158 1934 43.9773
61.4328 1637 40.4599
61.5499 1306 36.1386
61.667 1253 35.3977
61.7841 1016 31.8748
61.9013 937 30.6105
62.0185 763 27.6225
62.1357 724 26.9072
62.253 750 27.3861
62.3702 732 27.0555
62.4875 741 27.2213
62.6049 768 27.7128
62.7222 839 28.9655
62.8396 727 26.9629
62.9569 753 27.4408
63.0743 693 26.3249
63.1918 668 25.8457
63.3092 662 25.7294
63.4267 539 23.2164
63.5441 604 24.5764
63.6616 610 24.6982
63.7791 637 25.2389
63.8966 606 24.6171
64.0142 585 24.1868
64.1317 557 23.6008
64.2492 641 25.318
64.3668 617 24.8395
64.4843 565 23.7697
64.6019 567 23.8118
64.7195 580 24.0832
64.837 551 23.4734
64.9546 546 23.3666
65.0722 522 22.8473
65.1898 541 23.2594
65.3074 552 23.4947
65.4249 542 23.2809
65.5425 504 22.4499
65.6601 508 22.5389
65.7777 521 22.8254
65.8952 510 22.5832
66.0128 514 22.6716
66.1304 517 22.7376
66.2479 554 23.5372
66.3655 547 23.388
66.483 617 24.8395
66.6005 528 22.9783
66.718 564 23.7487
66.8355 553 23.516
66.953 528 22.9783
67.0705 537 23.1733
67.1879 554 23.5372
67.3054 550 23.4521
67.4228 576 24
67.5402 594 24.3721
67.6576 566 23.7908
67.7749 616 24.8193
67.8923 585 24.1868
68.0096 564 23.7487
68.1269 546 23.3666
68.2442 556 23.5797
68.3614 582 24.1247
68.4787 622 24.9399
68.5958 606 24.6171
68.713 650 25.4951
68.8302 643 25.3574
68.9473 637 25.2389
69.0643 614 24.779
69.1814 629 25.0799
69.2984 566 23.7908
69.4154 567 23.8118
69.5323 522 22.8473
69.6492 516 22.7156
69.7661 559 23.6432
69.8829 537 23.1733
69.9997 501 22.383
70.1165 521 22.8254
70.2332 468 21.6333
70.3499 498 22.3159
70.4665 472 21.7256
70.5831 397 19.9249
70.6996 422 20.5426
70.8161 379 19.4679
70.9326 365 19.105
71.049 352 18.7617
71.1653 340 18.4391
71.2817 341 18.4662
71.3979 310 17.6068
71.5141 270 16.4317
71.6303 264 16.2481
71.7464 222 14.8997
71.8624 0 1
71.9784 0 1
72.0944 0 1
72.2102 0 1
72.3261 0 1
72.4418 0 1
72.5575 0 1
72.6732 0 1
75.1054 0 1
75.2209 0 1
75.3365 0 1
75.4521 0 1
75.5678 0 1
75.6835 0 1
75.7993 0 1
75.9151 0 1
76.031 0 1
76.147 334 18.2757
76.263 390 19.7484
76.3791 385 19.6214
76.4952 492 22.1811
76.6113 461 21.4709
76.7276 457 21.3776
76.8438 481 21.9317
76.9601 465 21.5639
77.0765 462 21.4942
77.1929 505 22.4722
77.3093 428 20.6882
77.4258 480 21.9089
77.5423 461 21.4709
77.6589 465 21.5639
77.7755 441 21
77.8921 489 22.1133
78.0088 472 21.7256
78.1256 457 21.3776
78.2423 420 20.4939
78.3591 436 20.8806
78.4759 442 21.0238
78.5928 460 21.4476
78.7097 431 20.7605
78.8266 399 19.975
78.9436 438 20.9284
79.0606 407 20.1742
79.1776 475 21.7945
79.2946 455 21.3307
79.4117 529 23
79.5288 472 21.7256
79.6459 452 21.2603
79.7631 420 20.4939
79.8802 449 21.1896
79.9974 482 21.9545
80.1147 489 22.1133
80.2319 501 22.383
80.3491 502 22.4054
80.4664 475 21.7945
80.5837 507 22.5167
80.701 497 22.2935
80.8183 510 22.5832
80.9357 493 22.2036
81.053 474 21.7715
81.1704 495 22.2486
81.2877 497 22.2935
81.4051 521 22.8254
81.5225 476 21.8174
81.6399 469 21.6564
81.7573 517 22.7376
81.8747 448 21.166
81.9922 445 21.095
82.1096 431 20.7605
82.227 396 19.8997
82.3444 458 21.4009
82.4619 491 22.1585
82.5793 461 21.4709
82.6967 459 21.4243
82.8142 458 21.4009
82.9316 512 22.6274
83.049 507 22.5167
83.1664 478 21.8632
83.2838 479 21.8861
83.4012 479 21.8861
83.5186 470 21.6795
83.636 477 21.8403
83.7534 501 22.383
83.8708 515 22.6936
83.9881 539 23.2164
84.1055 514 22.6716
84.2228 498 22.3159
84.3401 513 22.6495
84.4575 493 22.2036
84.5747 464 21.5407
84.692 470 21.6795
84.8093 463 21.5174
84.9265 472 21.7256
85.0437 481 21.9317
85.1609 484 22
85.2781 475 21.7945
85.3952 495 22.2486
85.5123 469 21.6564
85.6294 463 21.5174
85.7465 462 21.4942
85.8636 416 20.3961
85.9806 461 21.4709
86.0976 498 22.3159
86.2145 469 21.6564
86.3315 483 21.9773
86.4484 500 22.3607
86.5652 526 22.9347
86.682 504 22.4499
86.7988 517 22.7376
86.9156 509 22.561
87.0323 492 22.1811
87.149 476 21.8174
87.2657 483 21.9773
87.3823 470 21.6795
87.4988 517 22.7376
87.6154 487 22.0681
87.7318 457 21.3776
87.8483 423 20.567
87.9647 406 20.1494
88.081 377 19.4165
88.1973 319 17.8606
88.3136 356 18.868
88.4298 334 18.2757
88.546 313 17.6918
88.6621 271 16.4621
88.7781 259 16.0935
88.8942 0 1
89.0101 0 1
89.126 0 1
89.2419 0 1
89.3577 0 1
89.4734 0 1
89.5891 0 1
89.7047 0 1
89.8203 0 1
89.9358 0 1
92.3269 0 1
92.4424 0 1
92.558 0 1
92.6736 0 1
92.7893 0 1
92.905 0 1
93.0208 0 1
93.1366 0 1
93.2525 0 1
93.3685 0 1
93.4845 0 1
93.6005 393 19.8242
93.7167 387 19.6723
93.8328 446 21.1187
93.949 516 22.7156
94.0653 436 20.8806
94.1816 474 21.7715
94.2979 466 21.587
94.4143 481 21.9317
94.5307 522 22.8473
94.6472 530 23.0217
94.7637 479 21.8861
94.8803 457 21.3776
94.9969 438 20.9284
95.1135 441 21
95.2302 516 22.7156
95.3469 438 20.9284
95.4637 509 22.561
95.5805 495 22.2486
95.6973 504 22.4499
95.8142 484 22
95.9311 507 22.5167
96.048 495 22.2486
96.1649 529 23
96.2819 516 22.7156
96.3989 481 21.9317
96.516 469 21.6564
96.633 537 23.1733
96.7501 556 23.5797
96.8673 502 22.4054
96.9844 540 23.2379
97.1016 524 22.891
97.2188 526 22.9347
97.336 478 21.8632
97.4532 493 22.2036
97.5704 506 22.4944
97.6877 506 22.4944
97.805 531 23.0434
97.9223 517 22.7376
98.0396 526 22.9347
98.1569 524 22.891
98.2743 475 21.7945
98.3916 505 22.4722
98.509 495 22.2486
98.6264 458 21.4009
98.7438 540 23.2379
98.8612 488 22.0907
98.9786 519 22.7816
99.096 485 22.0227
99.2134 533 23.0868
99.3308 526 22.9347
99.4482 563 23.7276
99.5656 568 23.8328
99.6831 571 23.8956
99.8005 547 23.388
99.9179 517 22.7376
100.035 540 23.2379
100.153 549 23.4307
100.27 553 23.516
100.388 546 23.3666
100.505 518 22.7596
100.622 516 22.7156
100.74 520 22.8035
100.857 530 23.0217
100.975 530 23.0217
101.092 509 22.561
101.209 510 22.5832
101.327 558 23.622
101.444 530 23.0217
101.561 511 22.6053
101.679 520 22.8035
101.796 487 22.0681
101.913 539 23.2164
102.03 521 22.8254
102.148 504 22.4499
102.265 495 22.2486
102.382 508 22.5389
102.499 525 22.9129
102.616 597 24.4336
102.733 546 23.3666
102.851 541 23.2594
102.968 569 23.8537
103.085 570 23.8747
103.202 560 23.6643
103.319 542 23.2809
103.436 598 24.454
103.552 562 23.7065
103.669 532 23.0651
103.786 605 24.5967
103.903 584 24.1661
104.02 547 23.388
104.137 555 23.5584
104.253 573 23.9374
104.37 542 23.2809
104.487 557 23.6008
104.603 551 23.4734
104.72 525 22.9129
104.836 539 23.2164
104.953 552 23.4947
105.069 519 22.7816
105.186 454 21.3073
105.302 450 21.2132
105.418 439 20.9523
105.535 396 19.8997
105.651 362 19.0263
105.767 336 18.3303
105.883 335 18.303
105.999 277 16.6433
106.115 0 1
106.231 0 1
106.347 0 1
106.463 0 1
106.579 0 1
106.694 0 1
106.81 0 1
106.926 0 1
107.041 0 1
107.157 0 1
109.576 0 1
109.692 0 1
109.807 0 1
109.923 0 1
110.039 0 1
110.155 0 1
110.27 0 1
110.386 0 1
110.502 0 1
110.618 283 16.8226
110.735 333 18.2483
110.851 335 18.303
110.967 364 19.0788
111.083 466 21.587
111.199 442 21.0238
111.316 478 21.8632
111.432 521 22.8254
111.549 507 22.5167
111.665 562 23.7065
111.782 520 22.8035
111.898 517 22.7376
112.015 547 23.388
112.132 506 22.4944
112.248 537 23.1733
112.365 537 23.1733
112.482 513 22.6495
112.599 544 23.3238
112.716 507 22.5167
112.832 499 22.3383
112.949 504 22.4499
113.066 479 21.8861
113.183 490 22.1359
113.3 468 21.6333
113.417 480 21.9089
113.534 543 23.3024
113.652 511 22.6053
113.769 514 22.6716
113.886 496 22.2711
114.003 499 22.3383
114.12 459 21.4243
114.238 435 20.8567
114.355 437 20.9045
114.472 473 21.7486
114.589 509 22.561
114.707 456 21.3542
114.824 465 21.5639
114.942 525 22.9129
115.059 488 22.0907
115.176 506 22.4944
115.294 508 22.5389
115.411 533 23.0868
115.529 485 22.0227
115.646 474 21.7715
115.764 486 22.0454
115.881 491 22.1585
115.999 492 22.1811
116.116 476 21.8174
116.234 465 21.5639
116.351 443 21.0476
116.469 429 20.7123
116.586 423 20.567
116.704 476 21.8174
116.821 452 21.2603
116.939 432 20.7846
117.056 505 22.4722
117.174 474 21.7715
117.291 464 21.5407
117.409 442 21.0238
117.526 449 21.1896
117.644 457 21.3776
117.761 481 21.9317
117.879 403 20.0749
117.996 427 20.664
118.114 432 20.7846
118.231 449 21.1896
118.349 441 21
118.466 473 21.7486
118.584 504 22.4499
118.701 490 22.1359
118.819 485 22.0227
118.936 487 22.0681
119.053 478 21.8632
119.171 398 19.9499
119.288 442 21.0238
119.405 424 20.5913
119.523 475 21.7945
119.64 402 20.0499
119.757 468 21.6333
119.875 448 21.166
119.992 447 21.1424
120.109 396 19.8997
120.226 445 21.095
120.343 426 20.6398
120.46 422 20.5426
120.578 487 22.0681
120.695 482 21.9545
120.812 426 20.6398
120.929 427 20.664
121.046 441 21
121.163 396 19.8997
121.279 428 20.6882
121.396 386 19.6469
121.513 382 19.5448
121.63 393 19.8242
121.747 367 19.1572
121.863 392 19.799
121.98 364 19.0788
122.097 363 19.0526
122.213 338 18.3848
122.33 379 19.4679
122.446 333 18.2483
122.563 317 17.8045
122.679 321 17.9165
122.795 284 16.8523
122.912 256 16
123.028 261 16.1555
123.144 263 16.2173
123.26 206 14.3527
123.377 0 1
123.493 0 1
123.609 0 1
123.725 0 1
123.84 0 1
123.956 0 1
124.072 0 1
124.188 0 1
124.303 0 1
124.419 0 1
126.852 0 1
126.968 0 1
127.083 0 1
127.199 0 1
127.315 0 1
127.431 0 1
127.547 0 1
127.663 0 1
127.779 0 1
127.895 0 1
128.011 0 1
128.127 0 1
128.243 0 1
128.359 456 21.3542
128.476 465 21.5639
128.592 488 22.0907
128.708 503 22.4277
128.825 515 22.6936
128.941 512 22.6274
129.058 538 23.1948
129.174 480 21.9089
129.291 493 22.2036
129.408 481 21.9317
129.524 524 22.891
129.641 508 22.5389
129.758 451 21.2368
129.875 488 22.0907
129.992 477 21.8403
130.108 567 23.8118
130.225 472 21.7256
130.342 517 22.7376
130.459 526 22.9347
130.576 512 22.6274
130.693 513 22.6495
130.81 502 22.4054
130.928 505 22.4722
131.045 525 22.9129
131.162 577 24.0208
131.279 604 24.5764
131.396 658 25.6515
131.513 673 25.9422
131.631 644 25.3772
131.748 640 25.2982
131.865 660 25.6905
131.983 645 25.3969
132.1 779 27.9106
132.217 690 26.2679
132.335 765 27.6586
132.452 794 28.178
132.57 791 28.1247
132.687 846 29.0861
132.804 785 28.0179
132.922 853 29.2062
133.039 852 29.189
133.157 820 28.6356
133.274 811 28.4781
133.392 834 28.8791
133.509 841 29
133.627 856 29.2575
133.744 799 28.2666
133.862 789 28.0891
133.979 842 29.0172
134.097 819 28.6182
134.214 792 28.1425
134.332 678 26.0384
134.449 730 27.0185
134.567 723 26.8887
134.684 835 28.8964
134.802 781 27.9464
134.919 769 27.7308
135.037 816 28.5657
135.154 838 28.9482
135.272 831 28.8271
135.389 802 28.3196
135.507 839 28.9655
135.624 760 27.5681
135.742 796 28.2135
135.859 850 29.1548
135.977 859 29.3087
136.094 818 28.6007
136.211 838 28.9482
136.329 854 29.2233
136.446 853 29.2062
136.564 838 28.9482
136.681 831 28.8271
136.798 862 29.3598
136.915 870 29.4958
137.033 854 29.2233
137.15 827 28.7576
137.267 817 28.5832
137.384 796 28.2135
137.502 823 28.688
137.619 815 28.5482
137.736 826 28.7402
137.853 723 26.8887
137.97 751 27.4044
138.087 707 26.5895
138.204 724 26.9072
138.321 744 27.2764
138.438 801 28.3019
138.555 749 27.3679
138.672 832 28.8444
138.788 806 28.3901
138.905 854 29.2233
139.022 753 27.4408
139.139 759 27.55
139.255 719 26.8142
139.372 721 26.8514
139.488 685 26.1725
139.605 652 25.5343
139.721 632 25.1396
139.838 616 24.8193
139.954 548 23.4094
140.071 510 22.5832
140.187 520 22.8035
140.303 495 22.2486
140.419 455 21.3307
140.535 422 20.5426
140.652 418 20.445
140.768 0 1
140.884 0 1
141 0 1
141.115 0 1
141.231 0 1
141.347 0 1
141.463 0 1
141.578 0 1
141.694 0 1
144.104 0 1
144.219 0 1
144.335 0 1
144.45 0 1
144.566 0 1
144.682 0 1
144.798 0 1
144.914 0 1
145.03 0 1
145.146 1350 36.7423
145.262 1428 37.7889
145.378 1549 39.3573
145.494 1582 39.7744
145.61 1577 39.7115
145.726 1773 42.107
145.842 1692 41.1339
145.959 1682 41.0122
146.075 1732 41.6173
146.192 1770 42.0714
146.308 1848 42.9884
146.425 1923 43.852
146.541 1902 43.6119
146.658 2048 45.2548
146.774 2054 45.3211
146.891 1830 42.7785
147.008 1753 41.8688
147.125 1872 43.2666
147.241 2204 46.9468
147.358 2298 47.9375
147.475 2192 46.8188
147.592 2251 47.4447
147.709 2406 49.051
147.826 2501 50.01
147.943 2532 50.319
148.06 2594 50.9313
148.177 2634 51.3225
148.294 2646 51.4393
148.411 2767 52.6023
148.528 2831 53.2071
148.645 2893 53.7866
148.762 2908 53.9259
148.88 2948 54.2955
148.997 3086 55.5518
149.114 3063 55.3444
149.231 2973 54.5252
149.349 3160 56.2139
149.466 3101 55.6866
149.583 3003 54.7996
149.701 2839 53.2823
149.818 2525 50.2494
149.935 2514 50.1398
150.053 2511 50.1099
150.17 2935 54.1756
150.287 3160 56.2139
150.405 3394 58.258
150.522 3126 55.9106
150.64 3001 54.7814
150.757 2734 52.2877
150.875 3035 55.0908
150.992 3176 56.356
151.11 3071 55.4166
151.227 2945 54.2679
151.344 3144 56.0714
151.462 3300 57.4456
151.579 3364 58
151.697 3413 58.4209
151.814 3477 58.9661
151.932 3593 59.9416
152.049 3671 60.5888
152.167 3626 60.2163
152.284 3733 61.0983
152.402 3613 60.1082
152.519 3738 61.1392
152.636 3770 61.4003
152.754 3892 62.3859
152.871 4000 63.2456
152.989 3927 62.6658
153.106 3999 63.2376
153.223 3611 60.0916
153.341 3351 57.8878
153.458 3000 54.7723
153.575 3005 54.8179
153.693 3778 61.4654
153.81 5197 72.0902
153.927 5922 76.9545
154.044 6653 81.5659
154.162 6743 82.1158
154.279 6738 82.0853
154.396 7200 84.8528
154.513 7254 85.1704
154.63 7699 87.7439
154.747 7835 88.5155
154.864 7795 88.2893
154.981 8142 90.233
155.098 8407 91.6897
155.215 8522 92.3147
155.332 8638 92.9408
155.449 8762 93.6056
155.566 9018 94.9632
155.683 8971 94.7154
155.8 8522 92.3147
155.917 8283 91.011
156.033 8225 90.6918
156.15 0 1
156.267 0 1
156.383 0 1
156.5 0 1
156.617 0 1
156.733 0 1
156.85 0 1
156.966 0 1
157.082 0 1
157.199 0 1
157.315 0 1
157.431 0 1
157.547 0 1
157.664 0 1
157.78 0 1
157.896 0 1
158.012 0 1
158.128 0 1
158.244 0 1
158.359 0 1
158.475 0 1
158.591 0 1
158.706 0 1
