
6.15755 0 1
6.2731 0 1
6.3887 0 1
6.50437 0 1
6.62009 0 1
6.73587 0 1
6.8517 0 1
6.96759 0 1
7.08353 0 1
7.19952 0 1
7.31557 0 1
7.43166 0 1
7.54781 0 1
7.664 0 1
7.78024 0 1
7.89653 0 1
8.01286 0 1
8.12924 0 1
8.24567 0 1
8.36213 0 1
8.47864 0 1
8.59519 0 1
8.71178 0 1
8.82841 0 1
8.94508 0 1
9.06179 0 1
9.17853 0 1
9.29531 0 1
9.41212 0 1
9.52897 0 1
9.64584 0 1
9.76276 0 1
9.8797 0 1
9.99667 0 1
10.1137 0 1
10.2307 0 1
10.3478 0 1
10.4648 0 1
10.5819 0 1
10.6991 0 1
10.8162 0 1
10.9334 0 1
11.0506 0 1
11.1678 0 1
11.285 0 1
11.4023 0 1
11.5196 0 1
11.6369 0 1
11.7542 0 1
11.8715 0 1
11.9888 0 1
12.1062 0 1
12.2235 0 1
12.3409 0 1
12.4582 0 1
12.5756 0 1
12.693 0 1
12.8104 0 1
12.9278 0 1
13.0452 0 1
13.1626 0 1
13.28 0 1
13.3974 0 1
13.5149 0 1
13.6323 0 1
13.7497 0 1
13.8671 0 1
13.9845 0 1
14.1019 0 1
14.2193 0 1
14.3367 0 1
14.4541 0 1
14.5714 0 1
14.6888 0 1
14.8062 0 1
14.9235 0 1
15.0408 1176 34.2929
15.1581 1256 35.4401
15.2755 1353 36.7831
15.3927 1345 36.6742
15.51 1382 37.1753
15.6273 1361 36.8917
15.7445 1396 37.3631
15.8617 1371 37.027
15.9789 1290 35.9166
16.0961 1344 36.6606
16.2132 1284 35.8329
16.3304 1410 37.55
16.4475 1390 37.2827
16.5646 1477 38.4318
16.6816 1480 38.4708
16.7986 1591 39.8873
16.9156 1607 40.0874
17.0326 1594 39.9249
17.1496 1570 39.6232
17.2665 1591 39.8873
17.3833 1580 39.7492
17.5002 1549 39.3573
17.617 1477 38.4318
17.7338 1362 36.9053
17.8505 1413 37.5899
17.9672 1390 37.2827
18.0839 1362 36.9053
18.2005 1435 37.8814
18.3171 1439 37.9342
18.4337 1425 37.7492
18.5502 1555 39.4335
18.6666 1622 40.2741
18.7831 1591 39.8873
18.8994 1571 39.6358
19.0158 1618 40.2244
19.1321 1487 38.5616
19.2483 1452 38.1051
19.3645 1380 37.1484
19.4806 1334 36.524
19.5967 1208 34.7563
19.7128 1134 33.6749
19.8288 1018 31.9061
19.9447 941 30.6757
20.0606 0 1
20.1764 0 1
20.2922 0 1
20.4079 0 1
20.5236 0 1
20.6392 0 1
20.7548 0 1
20.8702 0 1
23.3078 0 1
23.4233 0 1
23.539 0 1
23.6547 0 1
23.7704 0 1
23.8862 0 1
24.0021 0 1
24.118 0 1
24.234 0 1
24.35 0 1
24.4661 635 25.1992
24.5822 729 27
24.6984 827 28.7576
24.8146 962 31.0161
24.9309 1074 32.7719
25.0472 1076 32.8024
25.1636 1283 35.819
25.28 1283 35.819
25.3965 1366 36.9594
25.513 1485 38.5357
25.6296 1475 38.4057
25.7462 1702 41.2553
25.8628 1718 41.4488
25.9795 1786 42.2611
26.0962 1709 41.3401
26.213 1606 40.0749
26.3298 1502 38.7556
26.4466 1527 39.0768
26.5635 1482 38.4968
26.6804 1467 38.3014
26.7973 1530 39.1152
26.9143 1504 38.7814
27.0313 1522 39.0128
27.1483 1619 40.2368
27.2653 1551 39.3827
27.3824 1625 40.3113
27.4996 1564 39.5474
27.6167 1663 40.7799
27.7339 1580 39.7492
27.8511 1575 39.6863
27.9683 1507 38.8201
28.0855 1546 39.3192
28.2028 1431 37.8286
28.3201 1403 37.4566
28.4374 1315 36.2629
28.5547 1351 36.756
28.6721 1420 37.6829
28.7894 1477 38.4318
28.9068 1558 39.4715
29.0242 1561 39.5095
29.1416 1668 40.8412
29.259 1620 40.2492
29.3764 1668 40.8412
29.4939 1625 40.3113
29.6113 1525 39.0512
29.7288 1514 38.9102
29.8463 1478 38.4448
29.9638 1413 37.5899
30.0812 1387 37.2424
30.1987 1363 36.9188
30.3162 1417 37.6431
30.4337 1502 38.7556
30.5512 1494 38.6523
30.6687 1550 39.37
30.7862 1515 38.923
30.9037 1555 39.4335
31.0212 1587 39.8372
31.1387 1572 39.6485
31.2562 1544 39.2938
31.3737 1516 38.9358
31.4912 1464 38.2623
31.6087 1426 37.7624
31.7262 1408 37.5233
31.8436 1286 35.8608
31.9611 1389 37.2693
32.0785 1353 36.7831
32.1959 1394 37.3363
32.3134 1463 38.2492
32.4308 1491 38.6135
32.5482 1584 39.7995
32.6655 1565 39.5601
32.7829 1571 39.6358
32.9002 1626 40.3237
33.0176 1546 39.3192
33.1349 1616 40.1995
33.2522 1535 39.1791
33.3694 1498 38.704
33.4867 1407 37.51
33.6039 1371 37.027
33.7211 1274 35.6931
33.8383 1303 36.0971
33.9554 1359 36.8646
34.0725 1352 36.7696
34.1896 1360 36.8782
34.3067 1504 38.7814
34.4237 1468 38.3145
34.5407 1523 39.0256
34.6577 1495 38.6652
34.7746 1569 39.6106
34.8915 1548 39.3446
35.0084 1428 37.7889
35.1252 1394 37.3363
35.242 1502 38.7556
35.3587 1409 37.5366
35.4755 1382 37.1753
35.5921 1286 35.8608
35.7088 1263 35.5387
35.8254 1303 36.0971
35.9419 1268 35.609
36.0584 1398 37.3898
36.1749 1363 36.9188
36.2913 1389 37.2693
36.4077 1342 36.6333
36.524 1328 36.4417
36.6403 1355 36.8103
36.7565 1313 36.2353
36.8727 1217 34.8855
36.9889 1120 33.4664
37.1049 1001 31.6386
37.221 0 1
37.3369 0 1
37.4529 0 1
37.5687 0 1
37.6845 0 1
37.8003 0 1
37.916 0 1
38.0316 0 1
38.1472 0 1
40.5851 0 1
40.7008 0 1
40.8164 0 1
40.9322 0 1
41.048 0 1
41.1639 0 1
41.2798 0 1
41.3958 0 1
41.5118 0 1
41.6279 0 1
41.744 741 27.2213
41.8602 816 28.5657
41.9765 883 29.7153
42.0928 991 31.4802
42.2091 881 29.6816
42.3255 930 30.4959
42.4419 875 29.5804
42.5584 862 29.3598
42.675 980 31.305
42.7915 990 31.4643
42.9081 1211 34.7994
43.0248 1166 34.1467
43.1415 1147 33.8674
43.2582 1267 35.5949
43.375 1174 34.2637
43.4918 1325 36.4005
43.6087 1312 36.2215
43.7256 1256 35.4401
43.8425 1225 35
43.9595 1205 34.7131
44.0765 1131 33.6303
44.1935 1197 34.5977
44.3106 1117 33.4215
44.4277 1085 32.9393
44.5448 1004 31.686
44.6619 1183 34.3948
44.7791 1138 33.7343
44.8963 1111 33.3317
45.0136 1185 34.4238
45.1308 1302 36.0832
45.2481 1320 36.3318
45.3654 1282 35.805
45.4827 1250 35.3553
45.6001 1252 35.3836
45.7174 1166 34.1467
45.8348 1144 33.8231
45.9522 1088 32.9848
46.0697 1072 32.7414
46.1871 1015 31.8591
46.3046 1034 32.1559
46.422 1141 33.7787
46.5395 1132 33.6452
46.657 1210 34.7851
46.7745 1252 35.3836
46.892 1247 35.3129
47.0096 1263 35.5387
47.1271 1326 36.4143
47.2446 1254 35.4119
47.3622 1286 35.8608
47.4797 1278 35.7491
47.5973 1226 35.0143
47.7149 1253 35.3977
47.8324 1168 34.176
47.95 1121 33.4813
48.0675 1036 32.187
48.1851 1056 32.4962
48.3027 1045 32.3265
48.4202 1100 33.1662
48.5378 1224 34.9857
48.6554 1304 36.1109
48.7729 1343 36.647
48.8904 1270 35.6371
49.008 1296 36
49.1255 1286 35.8608
49.243 1254 35.4119
49.3605 1174 34.2637
49.478 1070 32.7109
49.5955 976 31.241
49.713 1001 31.6386
49.8304 1055 32.4808
49.9479 1110 33.3167
50.0653 1216 34.8712
50.1827 1229 35.0571
50.3001 1240 35.2136
50.4175 1263 35.5387
50.5348 1312 36.2215
50.6521 1339 36.5923
50.7694 1332 36.4966
50.8867 1334 36.524
51.004 1298 36.0278
51.1212 1291 35.9305
51.2384 1300 36.0555
51.3556 1355 36.8103
51.4727 1190 34.4964
51.5899 1107 33.2716
51.707 1145 33.8378
51.824 1311 36.2077
51.9411 1293 35.9583
52.0581 1523 39.0256
52.175 1474 38.3927
52.2919 1691 41.1218
52.4088 1748 41.8091
52.5257 1760 41.9524
52.6425 1840 42.8952
52.7593 1733 41.6293
52.876 1779 42.1782
52.9927 1632 40.398
53.1094 1620 40.2492
53.226 1488 38.5746
53.3426 1500 38.7298
53.4591 1487 38.5616
53.5756 1537 39.2046
53.692 1493 38.6394
53.8084 1500 38.7298
53.9248 1507 38.8201
54.0411 1399 37.4032
54.1573 1350 36.7423
54.2735 0 1
54.3896 0 1
54.5057 0 1
54.6217 0 1
54.7377 0 1
54.8537 0 1
54.9695 0 1
55.0853 0 1
55.2011 0 1
55.3168 0 1
55.4324 0 1
57.824 0 1
57.9396 0 1
58.0553 0 1
58.1711 0 1
58.2869 0 1
58.4028 0 1
58.5187 0 1
58.6347 0 1
58.7508 0 1
58.8669 0 1
58.983 972 31.1769
59.0992 1076 32.8024
59.2155 1191 34.5109
59.3318 1322 36.3593
59.4482 1353 36.7831
59.5646 1436 37.8946
59.681 1532 39.1408
59.7975 1429 37.8021
59.9141 1470 38.3406
60.0306 1480 38.4708
60.1473 1422 37.7094
60.2639 1421 37.6962
60.3807 1314 36.2491
60.4974 1361 36.8917
60.6142 1403 37.4566
60.731 1509 38.8458
60.8479 1570 39.6232
60.9648 1601 40.0125
61.0818 1669 40.8534
61.1987 1602 40.025
61.3158 1556 39.4462
61.4328 1517 38.9487
61.5499 1501 38.7427
61.667 1435 37.8814
61.7841 1243 35.2562
61.9013 1219 34.9142
62.0185 1163 34.1028
62.1357 1316 36.2767
62.253 1487 38.5616
62.3702 1428 37.7889
62.4875 1526 39.064
62.6049 1508 38.833
62.7222 1545 39.3065
62.8396 1509 38.8458
62.9569 1606 40.0749
63.0743 1567 39.5854
63.1918 1579 39.7366
63.3092 1566 39.5727
63.4267 1645 40.5586
63.5441 1430 37.8153
63.6616 1413 37.5899
63.7791 1359 36.8646
63.8966 1302 36.0832
64.0142 1319 36.318
64.1317 1297 36.0139
64.2492 1471 38.3536
64.3668 1611 40.1373
64.4843 1601 40.0125
64.6019 1552 39.3954
64.7195 1611 40.1373
64.837 1535 39.1791
64.9546 1584 39.7995
65.0722 1475 38.4057
65.1898 1463 38.2492
65.3074 1362 36.9053
65.4249 1216 34.8712
65.5425 1230 35.0714
65.6601 1140 33.7639
65.7777 1245 35.2846
65.8952 1376 37.0945
66.0128 1464 38.2623
66.1304 1479 38.4578
66.2479 1459 38.1969
66.3655 1538 39.2173
66.483 1628 40.3485
66.6005 1630 40.3733
66.718 1588 39.8497
66.8355 1529 39.1024
66.953 1539 39.2301
67.0705 1497 38.6911
67.1879 1495 38.6652
67.3054 1367 36.973
67.4228 1298 36.0278
67.5402 1254 35.4119
67.6576 1218 34.8999
67.7749 1249 35.3412
67.8923 1410 37.55
68.0096 1468 38.3145
68.1269 1510 38.8587
68.2442 1538 39.2173
68.3614 1474 38.3927
68.4787 1513 38.8973
68.5958 1542 39.2683
68.713 1435 37.8814
68.8302 1444 38
68.9473 1316 36.2767
69.0643 1175 34.2783
69.1814 1098 33.1361
69.2984 1149 33.8969
69.4154 1231 35.0856
69.5323 1292 35.9444
69.6492 1363 36.9188
69.7661 1437 37.9078
69.8829 1449 38.0657
69.9997 1525 39.0512
70.1165 1354 36.7967
70.2332 1312 36.2215
70.3499 1376 37.0945
70.4665 1236 35.1568
70.5831 1170 34.2053
70.6996 1141 33.7787
70.8161 1047 32.3574
70.9326 926 30.4302
71.049 798 28.2489
71.1653 702 26.4953
71.2817 615 24.7992
71.3979 606 24.6171
71.5141 566 23.7908
71.6303 545 23.3452
71.7464 542 23.2809
71.8624 0 1
71.9784 0 1
72.0944 0 1
72.2102 0 1
72.3261 0 1
72.4418 0 1
72.5575 0 1
72.6732 0 1
75.1054 0 1
75.2209 0 1
75.3365 0 1
75.4521 0 1
75.5678 0 1
75.6835 0 1
75.7993 0 1
75.9151 0 1
76.031 0 1
76.147 938 30.6268
76.263 1014 31.8434
76.3791 997 31.5753
76.4952 953 30.8707
76.6113 996 31.5595
76.7276 1081 32.8786
76.8438 1152 33.9411
76.9601 1214 34.8425
77.0765 1335 36.5377
77.1929 1307 36.1525
77.3093 1216 34.8712
77.4258 1353 36.7831
77.5423 1353 36.7831
77.6589 1367 36.973
77.7755 1216 34.8712
77.8921 1069 32.6956
78.0088 1025 32.0156
78.1256 978 31.273
78.2423 1015 31.8591
78.3591 986 31.4006
78.4759 1060 32.5576
78.5928 1191 34.5109
78.7097 1252 35.3836
78.8266 1257 35.4542
78.9436 1354 36.7967
79.0606 1320 36.3318
79.1776 1384 37.2022
79.2946 1377 37.108
79.4117 1332 36.4966
79.5288 1353 36.7831
79.6459 1371 37.027
79.7631 1292 35.9444
79.8802 1286 35.8608
79.9974 1249 35.3412
80.1147 1046 32.3419
80.2319 1095 33.0908
80.3491 1087 32.9697
80.4664 1173 34.2491
80.5837 1204 34.6987
80.701 1296 36
80.8183 1409 37.5366
80.9357 1431 37.8286
81.053 1433 37.855
81.1704 1413 37.5899
81.2877 1384 37.2022
81.4051 1340 36.606
81.5225 1258 35.4683
81.6399 1211 34.7994
81.7573 1021 31.9531
81.8747 1019 31.9218
81.9922 1028 32.0624
82.1096 1100 33.1662
82.227 1177 34.3074
82.3444 1256 35.4401
82.4619 1251 35.3695
82.5793 1336 36.5513
82.6967 1420 37.6829
82.8142 1336 36.5513
82.9316 1433 37.855
83.049 1430 37.8153
83.1664 1365 36.9459
83.2838 1447 38.0395
83.4012 1291 35.9305
83.5186 1323 36.3731
83.636 1294 35.9722
83.7534 1218 34.8999
83.8708 1108 33.2866
83.9881 1058 32.5269
84.1055 1108 33.2866
84.2228 1213 34.8281
84.3401 1236 35.1568
84.4575 1355 36.8103
84.5747 1458 38.1838
84.692 1498 38.704
84.8093 1421 37.6962
84.9265 1411 37.5633
85.0437 1377 37.108
85.1609 1234 35.1283
85.2781 1104 33.2265
85.3952 1029 32.078
85.5123 980 31.305
85.6294 998 31.5911
85.7465 1113 33.3617
85.8636 1195 34.5688
85.9806 1346 36.6879
86.0976 1332 36.4966
86.2145 1359 36.8646
86.3315 1391 37.2961
86.4484 1416 37.6298
86.5652 1393 37.3229
86.682 1490 38.6005
86.7988 1324 36.3868
86.9156 1446 38.0263
87.0323 1384 37.2022
87.149 1288 35.8887
87.2657 1241 35.2278
87.3823 1119 33.4515
87.4988 968 31.1127
87.6154 935 30.5778
87.7318 991 31.4802
87.8483 1017 31.8904
87.9647 1108 33.2866
88.081 1095 33.0908
88.1973 1137 33.7194
88.3136 1066 32.6497
88.4298 994 31.5278
88.546 924 30.3974
88.6621 773 27.8029
88.7781 634 25.1794
88.8942 0 1
89.0101 0 1
89.126 0 1
89.2419 0 1
89.3577 0 1
89.4734 0 1
89.5891 0 1
89.7047 0 1
89.8203 0 1
89.9358 0 1
92.3269 0 1
92.4424 0 1
92.558 0 1
92.6736 0 1
92.7893 0 1
92.905 0 1
93.0208 0 1
93.1366 0 1
93.2525 0 1
93.3685 0 1
93.4845 0 1
93.6005 1074 32.7719
93.7167 1132 33.6452
93.8328 1097 33.121
93.949 1190 34.4964
94.0653 1283 35.819
94.1816 1276 35.7211
94.2979 1220 34.9285
94.4143 1139 33.7491
94.5307 1112 33.3467
94.6472 1010 31.7805
94.7637 1054 32.4654
94.8803 1087 32.9697
94.9969 1223 34.9714
95.1135 1329 36.4555
95.2302 1376 37.0945
95.3469 1403 37.4566
95.4637 1371 37.027
95.5805 1454 38.1314
95.6973 1376 37.0945
95.8142 1465 38.2753
95.9311 1372 37.0405
96.048 1395 37.3497
96.1649 1425 37.7492
96.2819 1379 37.1349
96.3989 1364 36.9324
96.516 1257 35.4542
96.633 1186 34.4384
96.7501 1141 33.7787
96.8673 1125 33.541
96.9844 1167 34.1614
97.1016 1266 35.5809
97.2188 1355 36.8103
97.336 1512 38.8844
97.4532 1475 38.4057
97.5704 1479 38.4578
97.6877 1496 38.6782
97.805 1423 37.7227
97.9223 1381 37.1618
98.0396 1241 35.2278
98.1569 1135 33.6898
98.2743 1059 32.5423
98.3916 1039 32.2335
98.509 1114 33.3766
98.6264 1275 35.7071
98.7438 1271 35.6511
98.8612 1370 37.0135
98.9786 1444 38
99.096 1443 37.9868
99.2134 1456 38.1576
99.3308 1527 39.0768
99.4482 1588 39.8497
99.5656 1496 38.6782
99.6831 1517 38.9487
99.8005 1574 39.6737
99.9179 1462 38.2361
100.035 1490 38.6005
100.153 1360 36.8782
100.27 1261 35.5106
100.388 1193 34.5398
100.505 1209 34.7707
100.622 1363 36.9188
100.74 1462 38.2361
100.857 1598 39.975
100.975 1538 39.2173
101.092 1511 38.8716
101.209 1509 38.8458
101.327 1481 38.4838
101.444 1561 39.5095
101.561 1345 36.6742
101.679 1291 35.9305
101.796 1128 33.5857
101.913 1097 33.121
102.03 1190 34.4964
102.148 1207 34.7419
102.265 1358 36.8511
102.382 1472 38.3667
102.499 1524 39.0384
102.616 1560 39.4968
102.733 1576 39.6989
102.851 1649 40.6079
102.968 1624 40.2989
103.085 1701 41.2432
103.202 1588 39.8497
103.319 1591 39.8873
103.436 1502 38.7556
103.552 1513 38.8973
103.669 1401 37.4299
103.786 1418 37.6563
103.903 1366 36.9594
104.02 1313 36.2353
104.137 1396 37.3631
104.253 1381 37.1618
104.37 1612 40.1497
104.487 1608 40.0999
104.603 1663 40.7799
104.72 1685 41.0488
104.836 1512 38.8844
104.953 1465 38.2753
105.069 1267 35.5949
105.186 1174 34.2637
105.302 1153 33.9559
105.418 1038 32.218
105.535 984 31.3688
105.651 1057 32.5115
105.767 1115 33.3916
105.883 979 31.289
105.999 954 30.8869
106.115 0 1
106.231 0 1
106.347 0 1
106.463 0 1
106.579 0 1
106.694 0 1
106.81 0 1
106.926 0 1
107.041 0 1
107.157 0 1
109.576 0 1
109.692 0 1
109.807 0 1
109.923 0 1
110.039 0 1
110.155 0 1
110.27 0 1
110.386 0 1
110.502 0 1
110.618 650 25.4951
110.735 844 29.0517
110.851 909 30.1496
110.967 1089 33
111.083 1232 35.0999
111.199 1222 34.9571
111.316 1392 37.3095
111.432 1388 37.2559
111.549 1469 38.3275
111.665 1569 39.6106
111.782 1477 38.4318
111.898 1499 38.7169
112.015 1489 38.5876
112.132 1377 37.108
112.248 1268 35.609
112.365 1248 35.327
112.482 1172 34.2345
112.599 1273 35.6791
112.716 1356 36.8239
112.832 1481 38.4838
112.949 1517 38.9487
113.066 1487 38.5616
113.183 1567 39.5854
113.3 1530 39.1152
113.417 1589 39.8623
113.534 1427 37.7757
113.652 1318 36.3043
113.769 1266 35.5809
113.886 1144 33.8231
114.003 1100 33.1662
114.12 1059 32.5423
114.238 1232 35.0999
114.355 1370 37.0135
114.472 1302 36.0832
114.589 1488 38.5746
114.707 1527 39.0768
114.824 1501 38.7427
114.942 1542 39.2683
115.059 1589 39.8623
115.176 1548 39.3446
115.294 1492 38.6264
115.411 1561 39.5095
115.529 1487 38.5616
115.646 1467 38.3014
115.764 1371 37.027
115.881 1301 36.0694
115.999 1254 35.4119
116.116 1308 36.1663
116.234 1319 36.318
116.351 1455 38.1445
116.469 1449 38.0657
116.586 1553 39.4081
116.704 1595 39.9375
116.821 1539 39.2301
116.939 1519 38.9744
117.056 1534 39.1663
117.174 1442 37.9737
117.291 1330 36.4692
117.409 1113 33.3617
117.526 1115 33.3916
117.644 1125 33.541
117.761 1171 34.2199
117.879 1312 36.2215
117.996 1367 36.973
118.114 1374 37.0675
118.231 1424 37.7359
118.349 1504 38.7814
118.466 1546 39.3192
118.584 1501 38.7427
118.701 1522 39.0128
118.819 1450 38.0789
118.936 1412 37.5766
119.053 1455 38.1445
119.171 1404 37.47
119.288 1346 36.6879
119.405 1263 35.5387
119.523 1262 35.5246
119.64 1184 34.4093
119.757 1251 35.3695
119.875 1259 35.4824
119.992 1363 36.9188
120.109 1417 37.6431
120.226 1446 38.0263
120.343 1456 38.1576
120.46 1484 38.5227
120.578 1436 37.8946
120.695 1424 37.7359
120.812 1344 36.6606
120.929 1304 36.1109
121.046 1159 34.0441
121.163 1057 32.5115
121.279 1018 31.9061
121.396 1040 32.249
121.513 1058 32.5269
121.63 1129 33.6006
121.747 1130 33.6155
121.863 1187 34.4529
121.98 1148 33.8821
122.097 1193 34.5398
122.213 1154 33.9706
122.33 1148 33.8821
122.446 1149 33.8969
122.563 995 31.5436
122.679 966 31.0805
122.795 902 30.0333
122.912 797 28.2312
123.028 740 27.2029
123.144 680 26.0768
123.26 603 24.5561
123.377 0 1
123.493 0 1
123.609 0 1
123.725 0 1
123.84 0 1
123.956 0 1
124.072 0 1
124.188 0 1
124.303 0 1
124.419 0 1
126.852 0 1
126.968 0 1
127.083 0 1
127.199 0 1
127.315 0 1
127.431 0 1
127.547 0 1
127.663 0 1
127.779 0 1
127.895 0 1
128.011 0 1
128.127 0 1
128.243 0 1
128.359 1307 36.1525
128.476 1296 36
128.592 1317 36.2905
128.708 1199 34.6266
128.825 1285 35.8469
128.941 1391 37.2961
129.058 1403 37.4566
129.174 1578 39.724
129.291 1557 39.4588
129.408 1606 40.0749
129.524 1524 39.0384
129.641 1503 38.7685
129.758 1575 39.6863
129.875 1507 38.8201
129.992 1334 36.524
130.108 1193 34.5398
130.225 1179 34.3366
130.342 1165 34.1321
130.459 1165 34.1321
130.576 1323 36.3731
130.693 1349 36.7287
130.81 1427 37.7757
130.928 1447 38.0395
131.045 1574 39.6737
131.162 1478 38.4448
131.279 1534 39.1663
131.396 1545 39.3065
131.513 1519 38.9744
131.631 1493 38.6394
131.748 1527 39.0768
131.865 1486 38.5487
131.983 1435 37.8814
132.1 1319 36.318
132.217 1278 35.7491
132.335 1302 36.0832
132.452 1346 36.6879
132.57 1497 38.6911
132.687 1505 38.7943
132.804 1618 40.2244
132.922 1586 39.8246
133.039 1537 39.2046
133.157 1644 40.5463
133.274 1588 39.8497
133.392 1506 38.8072
133.509 1416 37.6298
133.627 1256 35.4401
133.744 1237 35.171
133.862 1133 33.6601
133.979 1196 34.5832
134.097 1285 35.8469
134.214 1314 36.2491
134.332 1363 36.9188
134.449 1508 38.833
134.567 1498 38.704
134.684 1553 39.4081
134.802 1595 39.9375
134.919 1632 40.398
135.037 1581 39.7618
135.154 1516 38.9358
135.272 1517 38.9487
135.389 1520 38.9872
135.507 1528 39.0896
135.624 1317 36.2905
135.742 1358 36.8511
135.859 1359 36.8646
135.977 1326 36.4143
136.094 1369 37
136.211 1420 37.6829
136.329 1494 38.6523
136.446 1580 39.7492
136.564 1534 39.1663
136.681 1625 40.3113
136.798 1586 39.8246
136.915 1538 39.2173
137.033 1474 38.3927
137.15 1420 37.6829
137.267 1332 36.4966
137.384 1176 34.2929
137.502 1167 34.1614
137.619 1240 35.2136
137.736 1288 35.8887
137.853 1330 36.4692
137.97 1375 37.081
138.087 1469 38.3275
138.204 1427 37.7757
138.321 1460 38.2099
138.438 1534 39.1663
138.555 1612 40.1497
138.672 1581 39.7618
138.788 1554 39.4208
138.905 1432 37.8418
139.022 1371 37.027
139.139 1295 35.9861
139.255 1189 34.4819
139.372 1210 34.7851
139.488 1018 31.9061
139.605 1012 31.8119
139.721 1000 31.6228
139.838 966 31.0805
139.954 1027 32.0468
140.071 1040 32.249
140.187 923 30.3809
140.303 774 27.8209
140.419 773 27.8029
140.535 745 27.2947
140.652 663 25.7488
140.768 0 1
140.884 0 1
141 0 1
141.115 0 1
141.231 0 1
141.347 0 1
141.463 0 1
141.578 0 1
141.694 0 1
144.104 0 1
144.219 0 1
144.335 0 1
144.45 0 1
144.566 0 1
144.682 0 1
144.798 0 1
144.914 0 1
145.03 0 1
145.146 1081 32.8786
145.262 1206 34.7275
145.378 1161 34.0735
145.494 1236 35.1568
145.61 1250 35.3553
145.726 1218 34.8999
145.842 1163 34.1028
145.959 1077 32.8177
146.075 1018 31.9061
146.192 986 31.4006
146.308 952 30.8545
146.425 967 31.0966
146.541 1058 32.5269
146.658 1118 33.4365
146.774 1136 33.7046
146.891 1127 33.5708
147.008 1164 34.1174
147.125 1198 34.6121
147.241 1219 34.9142
147.358 1254 35.4119
147.475 1188 34.4674
147.592 1196 34.5832
147.709 1237 35.171
147.826 1159 34.0441
147.943 1121 33.4813
148.06 1117 33.4215
148.177 1063 32.6037
148.294 1092 33.0454
148.411 1106 33.2566
148.528 1210 34.7851
148.645 1196 34.5832
148.762 1179 34.3366
148.88 1218 34.8999
148.997 1301 36.0694
149.114 1168 34.176
149.231 1263 35.5387
149.349 1211 34.7994
149.466 1211 34.7994
149.583 1143 33.8083
149.701 1101 33.1813
149.818 1032 32.1248
149.935 1019 31.9218
150.053 919 30.315
150.17 989 31.4484
150.287 1022 31.9687
150.405 1099 33.1512
150.522 1139 33.7491
150.64 1148 33.8821
150.757 1208 34.7563
150.875 1185 34.4238
150.992 1132 33.6452
151.11 1210 34.7851
151.227 1192 34.5254
151.344 1163 34.1028
151.462 1162 34.0881
151.579 1146 33.8526
151.697 1135 33.6898
151.814 968 31.1127
151.932 986 31.4006
152.049 1006 31.7175
152.167 1027 32.0468
152.284 1077 32.8177
152.402 1164 34.1174
152.519 1149 33.8969
152.636 1172 34.2345
152.754 1118 33.4365
152.871 1178 34.322
152.989 1143 33.8083
153.106 1188 34.4674
153.223 1045 32.3265
153.341 1021 31.9531
153.458 896 29.9333
153.575 903 30.05
153.693 955 30.9031
153.81 943 30.7083
153.927 988 31.4325
154.044 1042 32.28
154.162 1050 32.4037
154.279 1109 33.3017
154.396 1109 33.3017
154.513 1102 33.1964
154.63 1098 33.1361
154.747 1104 33.2265
154.864 1099 33.1512
154.981 1059 32.5423
155.098 997 31.5753
155.215 1006 31.7175
155.332 962 31.0161
155.449 951 30.8383
155.566 985 31.3847
155.683 975 31.225
155.8 951 30.8383
155.917 1039 32.2335
156.033 986 31.4006
156.15 0 1
156.267 0 1
156.383 0 1
156.5 0 1
156.617 0 1
156.733 0 1
156.85 0 1
156.966 0 1
157.082 0 1
157.199 0 1
157.315 0 1
157.431 0 1
157.547 0 1
157.664 0 1
157.78 0 1
157.896 0 1
158.012 0 1
158.128 0 1
158.244 0 1
158.359 0 1
158.475 0 1
158.591 0 1
158.706 0 1
