
6.15755 0 1
6.2731 0 1
6.3887 0 1
6.50437 0 1
6.62009 0 1
6.73587 0 1
6.8517 0 1
6.96759 0 1
7.08353 0 1
7.19952 0 1
7.31557 0 1
7.43166 0 1
7.54781 0 1
7.664 0 1
7.78024 0 1
7.89653 0 1
8.01286 0 1
8.12924 0 1
8.24567 0 1
8.36213 0 1
8.47864 0 1
8.59519 0 1
8.71178 0 1
8.82841 0 1
8.94508 0 1
9.06179 0 1
9.17853 0 1
9.29531 0 1
9.41212 0 1
9.52897 0 1
9.64584 0 1
9.76276 0 1
9.8797 0 1
9.99667 0 1
10.1137 0 1
10.2307 0 1
10.3478 0 1
10.4648 0 1
10.5819 0 1
10.6991 0 1
10.8162 0 1
10.9334 0 1
11.0506 0 1
11.1678 0 1
11.285 0 1
11.4023 0 1
11.5196 0 1
11.6369 0 1
11.7542 0 1
11.8715 0 1
11.9888 0 1
12.1062 0 1
12.2235 0 1
12.3409 0 1
12.4582 0 1
12.5756 0 1
12.693 0 1
12.8104 0 1
12.9278 0 1
13.0452 0 1
13.1626 0 1
13.28 0 1
13.3974 0 1
13.5149 0 1
13.6323 0 1
13.7497 0 1
13.8671 0 1
13.9845 0 1
14.1019 0 1
14.2193 0 1
14.3367 0 1
14.4541 0 1
14.5714 0 1
14.6888 0 1
14.8062 0 1
14.9235 0 1
15.0408 738 27.1662
15.1581 826 28.7402
15.2755 847 29.1033
15.3927 856 29.2575
15.51 937 30.6105
15.6273 888 29.7993
15.7445 843 29.0345
15.8617 871 29.5127
15.9789 842 29.0172
16.0961 853 29.2062
16.2132 822 28.6705
16.3304 867 29.4449
16.4475 833 28.8617
16.5646 857 29.2746
16.6816 1003 31.6702
16.7986 922 30.3645
16.9156 989 31.4484
17.0326 1023 31.9844
17.1496 1003 31.6702
17.2665 944 30.7246
17.3833 1026 32.0312
17.5002 900 30
17.617 906 30.0998
17.7338 868 29.4618
17.8505 818 28.6007
17.9672 865 29.4109
18.0839 867 29.4449
18.2005 892 29.8664
18.3171 884 29.7321
18.4337 940 30.6594
18.5502 947 30.7734
18.6666 1013 31.8277
18.7831 1021 31.9531
18.8994 946 30.7571
19.0158 942 30.692
19.1321 926 30.4302
19.2483 918 30.2985
19.3645 849 29.1376
19.4806 785 28.0179
19.5967 727 26.9629
19.7128 686 26.1916
19.8288 655 25.593
19.9447 568 23.8328
20.0606 0 1
20.1764 0 1
20.2922 0 1
20.4079 0 1
20.5236 0 1
20.6392 0 1
20.7548 0 1
20.8702 0 1
23.3078 0 1
23.4233 0 1
23.539 0 1
23.6547 0 1
23.7704 0 1
23.8862 0 1
24.0021 0 1
24.118 0 1
24.234 0 1
24.35 0 1
24.4661 363 19.0526
24.5822 457 21.3776
24.6984 523 22.8692
24.8146 576 24
24.9309 618 24.8596
25.0472 672 25.923
25.1636 698 26.4197
25.28 762 27.6043
25.3965 890 29.8329
25.513 907 30.1164
25.6296 1017 31.8904
25.7462 948 30.7896
25.8628 1023 31.9844
25.9795 974 31.209
26.0962 1062 32.5883
26.213 995 31.5436
26.3298 945 30.7409
26.4466 896 29.9333
26.5635 900 30
26.6804 842 29.0172
26.7973 874 29.5635
26.9143 897 29.95
27.0313 888 29.7993
27.1483 942 30.692
27.2653 1006 31.7175
27.3824 1001 31.6386
27.4996 961 31
27.6167 942 30.692
27.7339 978 31.273
27.8511 934 30.5614
27.9683 913 30.2159
28.0855 863 29.3769
28.2028 846 29.0861
28.3201 819 28.6182
28.4374 781 27.9464
28.5547 786 28.0357
28.6721 838 28.9482
28.7894 887 29.7825
28.9068 822 28.6705
29.0242 953 30.8707
29.1416 996 31.5595
29.259 1022 31.9687
29.3764 1007 31.7333
29.4939 942 30.692
29.6113 934 30.5614
29.7288 972 31.1769
29.8463 899 29.9833
29.9638 832 28.8444
30.0812 809 28.4429
30.1987 796 28.2135
30.3162 831 28.8271
30.4337 866 29.4279
30.5512 911 30.1828
30.6687 904 30.0666
30.7862 911 30.1828
30.9037 941 30.6757
31.0212 997 31.5753
31.1387 965 31.0644
31.2562 930 30.4959
31.3737 879 29.6479
31.4912 925 30.4138
31.6087 902 30.0333
31.7262 828 28.775
31.8436 810 28.4605
31.9611 810 28.4605
32.0785 777 27.8747
32.1959 821 28.6531
32.3134 886 29.7658
32.4308 920 30.3315
32.5482 931 30.5123
32.6655 1000 31.6228
32.7829 958 30.9516
32.9002 979 31.289
33.0176 962 31.0161
33.1349 950 30.8221
33.2522 899 29.9833
33.3694 885 29.7489
33.4867 856 29.2575
33.6039 811 28.4781
33.7211 733 27.074
33.8383 764 27.6405
33.9554 784 28
34.0725 822 28.6705
34.1896 810 28.4605
34.3067 901 30.0167
34.4237 909 30.1496
34.5407 840 28.9828
34.6577 937 30.6105
34.7746 969 31.1288
34.8915 916 30.2655
35.0084 803 28.3373
35.1252 901 30.0167
35.242 812 28.4956
35.3587 776 27.8568
35.4755 772 27.7849
35.5921 756 27.4955
35.7088 763 27.6225
35.8254 708 26.6083
35.9419 693 26.3249
36.0584 773 27.8029
36.1749 776 27.8568
36.2913 830 28.8097
36.4077 813 28.5132
36.524 807 28.4077
36.6403 765 27.6586
36.7565 750 27.3861
36.8727 732 27.0555
36.9889 644 25.3772
37.1049 639 25.2784
37.221 0 1
37.3369 0 1
37.4529 0 1
37.5687 0 1
37.6845 0 1
37.8003 0 1
37.916 0 1
38.0316 0 1
38.1472 0 1
40.5851 0 1
40.7008 0 1
40.8164 0 1
40.9322 0 1
41.048 0 1
41.1639 0 1
41.2798 0 1
41.3958 0 1
41.5118 0 1
41.6279 0 1
41.744 422 20.5426
41.8602 474 21.7715
41.9765 539 23.2164
42.0928 514 22.6716
42.2091 508 22.5389
42.3255 505 22.4722
42.4419 487 22.0681
42.5584 506 22.4944
42.675 555 23.5584
42.7915 629 25.0799
42.9081 686 26.1916
43.0248 661 25.7099
43.1415 732 27.0555
43.2582 662 25.7294
43.375 734 27.0924
43.4918 735 27.1109
43.6087 798 28.2489
43.7256 698 26.4197
43.8425 686 26.1916
43.9595 655 25.593
44.0765 672 25.923
44.1935 683 26.1343
44.3106 639 25.2784
44.4277 580 24.0832
44.5448 639 25.2784
44.6619 562 23.7065
44.7791 631 25.1197
44.8963 683 26.1343
45.0136 678 26.0384
45.1308 719 26.8142
45.2481 760 27.5681
45.3654 729 27
45.4827 717 26.7769
45.6001 768 27.7128
45.7174 735 27.1109
45.8348 682 26.1151
45.9522 683 26.1343
46.0697 593 24.3516
46.1871 574 23.9583
46.3046 642 25.3377
46.422 642 25.3377
46.5395 652 25.5343
46.657 728 26.9815
46.7745 744 27.2764
46.892 752 27.4226
47.0096 756 27.4955
47.1271 743 27.258
47.2446 772 27.7849
47.3622 757 27.5136
47.4797 753 27.4408
47.5973 691 26.2869
47.7149 736 27.1293
47.8324 647 25.4362
47.95 686 26.1916
48.0675 680 26.0768
48.1851 577 24.0208
48.3027 587 24.2281
48.4202 633 25.1595
48.5378 635 25.1992
48.6554 717 26.7769
48.7729 762 27.6043
48.8904 793 28.1603
49.008 764 27.6405
49.1255 764 27.6405
49.243 716 26.7582
49.3605 686 26.1916
49.478 620 24.8998
49.5955 580 24.0832
49.713 556 23.5797
49.8304 587 24.2281
49.9479 622 24.9399
50.0653 655 25.593
50.1827 696 26.3818
50.3001 716 26.7582
50.4175 765 27.6586
50.5348 743 27.258
50.6521 741 27.2213
50.7694 766 27.6767
50.8867 761 27.5862
51.004 728 26.9815
51.1212 750 27.3861
51.2384 689 26.2488
51.3556 645 25.3969
51.4727 617 24.8395
51.5899 579 24.0624
51.707 579 24.0624
51.824 650 25.4951
51.9411 627 25.04
52.0581 704 26.533
52.175 765 27.6586
52.2919 736 27.1293
52.4088 730 27.0185
52.5257 823 28.688
52.6425 759 27.55
52.7593 734 27.0924
52.876 766 27.6767
52.9927 685 26.1725
53.1094 619 24.8797
53.226 568 23.8328
53.3426 543 23.3024
53.4591 571 23.8956
53.5756 592 24.3311
53.692 602 24.5357
53.8084 571 23.8956
53.9248 549 23.4307
54.0411 566 23.7908
54.1573 530 23.0217
54.2735 0 1
54.3896 0 1
54.5057 0 1
54.6217 0 1
54.7377 0 1
54.8537 0 1
54.9695 0 1
55.0853 0 1
55.2011 0 1
55.3168 0 1
55.4324 0 1
57.824 0 1
57.9396 0 1
58.0553 0 1
58.1711 0 1
58.2869 0 1
58.4028 0 1
58.5187 0 1
58.6347 0 1
58.7508 0 1
58.8669 0 1
58.983 521 22.8254
59.0992 612 24.7386
59.2155 660 25.6905
59.3318 719 26.8142
59.4482 789 28.0891
59.5646 806 28.3901
59.681 843 29.0345
59.7975 807 28.4077
59.9141 844 29.0517
60.0306 851 29.1719
60.1473 855 29.2404
60.2639 745 27.2947
60.3807 784 28
60.4974 741 27.2213
60.6142 832 28.8444
60.731 912 30.1993
60.8479 870 29.4958
60.9648 962 31.0161
61.0818 903 30.05
61.1987 925 30.4138
61.3158 912 30.1993
61.4328 914 30.2324
61.5499 864 29.3939
61.667 838 28.9482
61.7841 814 28.5307
61.9013 711 26.6646
62.0185 785 28.0179
62.1357 772 27.7849
62.253 769 27.7308
62.3702 865 29.4109
62.4875 894 29.8998
62.6049 946 30.7571
62.7222 944 30.7246
62.8396 954 30.8869
62.9569 898 29.9666
63.0743 956 30.9192
63.1918 931 30.5123
63.3092 892 29.8664
63.4267 962 31.0161
63.5441 906 30.0998
63.6616 848 29.1204
63.7791 837 28.931
63.8966 761 27.5862
64.0142 778 27.8927
64.1317 746 27.313
64.2492 802 28.3196
64.3668 890 29.8329
64.4843 984 31.3688
64.6019 942 30.692
64.7195 957 30.9354
64.837 993 31.5119
64.9546 904 30.0666
65.0722 907 30.1164
65.1898 870 29.4958
65.3074 769 27.7308
65.4249 756 27.4955
65.5425 699 26.4386
65.6601 734 27.0924
65.7777 783 27.9821
65.8952 818 28.6007
66.0128 878 29.6311
66.1304 917 30.282
66.2479 896 29.9333
66.3655 953 30.8707
66.483 931 30.5123
66.6005 975 31.225
66.718 945 30.7409
66.8355 915 30.249
66.953 965 31.0644
67.0705 910 30.1662
67.1879 962 31.0161
67.3054 940 30.6594
67.4228 745 27.2947
67.5402 757 27.5136
67.6576 702 26.4953
67.7749 793 28.1603
67.8923 794 28.178
68.0096 870 29.4958
68.1269 964 31.0483
68.2442 958 30.9516
68.3614 992 31.496
68.4787 968 31.1127
68.5958 1043 32.2955
68.713 995 31.5436
68.8302 893 29.8831
68.9473 816 28.5657
69.0643 802 28.3196
69.1814 827 28.7576
69.2984 818 28.6007
69.4154 845 29.0689
69.5323 938 30.6268
69.6492 1024 32
69.7661 1059 32.5423
69.8829 1011 31.7962
69.9997 1077 32.8177
70.1165 985 31.3847
70.2332 1045 32.3265
70.3499 1015 31.8591
70.4665 923 30.3809
70.5831 878 29.6311
70.6996 915 30.249
70.8161 805 28.3725
70.9326 735 27.1109
71.049 653 25.5539
71.1653 559 23.6432
71.2817 459 21.4243
71.3979 426 20.6398
71.5141 422 20.5426
71.6303 390 19.7484
71.7464 387 19.6723
71.8624 0 1
71.9784 0 1
72.0944 0 1
72.2102 0 1
72.3261 0 1
72.4418 0 1
72.5575 0 1
72.6732 0 1
75.1054 0 1
75.2209 0 1
75.3365 0 1
75.4521 0 1
75.5678 0 1
75.6835 0 1
75.7993 0 1
75.9151 0 1
76.031 0 1
76.147 632 25.1396
76.263 702 26.4953
76.3791 682 26.1151
76.4952 666 25.807
76.6113 703 26.5141
76.7276 722 26.8701
76.8438 716 26.7582
76.9601 868 29.4618
77.0765 910 30.1662
77.1929 931 30.5123
77.3093 901 30.0167
77.4258 894 29.8998
77.5423 945 30.7409
77.6589 839 28.9655
77.7755 831 28.8271
77.8921 725 26.9258
78.0088 652 25.5343
78.1256 621 24.9199
78.2423 630 25.0998
78.3591 651 25.5147
78.4759 685 26.1725
78.5928 807 28.4077
78.7097 775 27.8388
78.8266 777 27.8747
78.9436 823 28.688
79.0606 841 29
79.1776 859 29.3087
79.2946 856 29.2575
79.4117 831 28.8271
79.5288 877 29.6142
79.6459 857 29.2746
79.7631 789 28.0891
79.8802 761 27.5862
79.9974 749 27.3679
80.1147 685 26.1725
80.2319 661 25.7099
80.3491 631 25.1197
80.4664 703 26.5141
80.5837 726 26.9444
80.701 770 27.7489
80.8183 856 29.2575
80.9357 785 28.0179
81.053 868 29.4618
81.1704 830 28.8097
81.2877 824 28.7054
81.4051 798 28.2489
81.5225 730 27.0185
81.6399 721 26.8514
81.7573 662 25.7294
81.8747 637 25.2389
81.9922 566 23.7908
82.1096 668 25.8457
82.227 739 27.1846
82.3444 740 27.2029
82.4619 770 27.7489
82.5793 872 29.5296
82.6967 795 28.1957
82.8142 861 29.3428
82.9316 891 29.8496
83.049 911 30.1828
83.1664 824 28.7054
83.2838 816 28.5657
83.4012 795 28.1957
83.5186 771 27.7669
83.636 782 27.9643
83.7534 711 26.6646
83.8708 607 24.6374
83.9881 619 24.8797
84.1055 650 25.4951
84.2228 672 25.923
84.3401 783 27.9821
84.4575 812 28.4956
84.5747 856 29.2575
84.692 878 29.6311
84.8093 905 30.0832
84.9265 884 29.7321
85.0437 834 28.8791
85.1609 783 27.9821
85.2781 694 26.3439
85.3952 640 25.2982
85.5123 594 24.3721
85.6294 582 24.1247
85.7465 755 27.4773
85.8636 810 28.4605
85.9806 811 28.4781
86.0976 878 29.6311
86.2145 850 29.1548
86.3315 832 28.8444
86.4484 854 29.2233
86.5652 934 30.5614
86.682 992 31.496
86.7988 953 30.8707
86.9156 826 28.7402
87.0323 899 29.9833
87.149 790 28.1069
87.2657 793 28.1603
87.3823 672 25.923
87.4988 582 24.1247
87.6154 568 23.8328
87.7318 606 24.6171
87.8483 655 25.593
87.9647 704 26.533
88.081 731 27.037
88.1973 695 26.3629
88.3136 689 26.2488
88.4298 618 24.8596
88.546 607 24.6374
88.6621 514 22.6716
88.7781 405 20.1246
88.8942 0 1
89.0101 0 1
89.126 0 1
89.2419 0 1
89.3577 0 1
89.4734 0 1
89.5891 0 1
89.7047 0 1
89.8203 0 1
89.9358 0 1
92.3269 0 1
92.4424 0 1
92.558 0 1
92.6736 0 1
92.7893 0 1
92.905 0 1
93.0208 0 1
93.1366 0 1
93.2525 0 1
93.3685 0 1
93.4845 0 1
93.6005 602 24.5357
93.7167 626 25.02
93.8328 686 26.1916
93.949 713 26.7021
94.0653 715 26.7395
94.1816 696 26.3818
94.2979 701 26.4764
94.4143 679 26.0576
94.5307 665 25.7876
94.6472 664 25.7682
94.7637 591 24.3105
94.8803 634 25.1794
94.9969 748 27.3496
95.1135 742 27.2397
95.2302 758 27.5318
95.3469 768 27.7128
95.4637 831 28.8271
95.5805 867 29.4449
95.6973 881 29.6816
95.8142 893 29.8831
95.9311 907 30.1164
96.048 843 29.0345
96.1649 822 28.6705
96.2819 834 28.8791
96.3989 756 27.4955
96.516 798 28.2489
96.633 696 26.3818
96.7501 658 25.6515
96.8673 634 25.1794
96.9844 673 25.9422
97.1016 715 26.7395
97.2188 815 28.5482
97.336 812 28.4956
97.4532 873 29.5466
97.5704 850 29.1548
97.6877 856 29.2575
97.805 833 28.8617
97.9223 838 28.9482
98.0396 731 27.037
98.1569 676 26
98.2743 638 25.2587
98.3916 585 24.1868
98.509 632 25.1396
98.6264 677 26.0192
98.7438 776 27.8568
98.8612 793 28.1603
98.9786 839 28.9655
99.096 879 29.6479
99.2134 855 29.2404
99.3308 901 30.0167
99.4482 870 29.4958
99.5656 954 30.8869
99.6831 870 29.4958
99.8005 888 29.7993
99.9179 885 29.7489
100.035 841 29
100.153 778 27.8927
100.27 692 26.3059
100.388 698 26.4197
100.505 733 27.074
100.622 777 27.8747
100.74 831 28.8271
100.857 933 30.545
100.975 914 30.2324
101.092 895 29.9166
101.209 896 29.9333
101.327 892 29.8664
101.444 902 30.0333
101.561 761 27.5862
101.679 782 27.9643
101.796 692 26.3059
101.913 677 26.0192
102.03 652 25.5343
102.148 744 27.2764
102.265 794 28.178
102.382 787 28.0535
102.499 846 29.0861
102.616 919 30.315
102.733 942 30.692
102.851 948 30.7896
102.968 1020 31.9374
103.085 972 31.1769
103.202 941 30.6757
103.319 925 30.4138
103.436 839 28.9655
103.552 903 30.05
103.669 803 28.3373
103.786 755 27.4773
103.903 797 28.2312
104.02 741 27.2213
104.137 847 29.1033
104.253 862 29.3598
104.37 964 31.0483
104.487 1014 31.8434
104.603 992 31.496
104.72 959 30.9677
104.836 911 30.1828
104.953 878 29.6311
105.069 775 27.8388
105.186 669 25.865
105.302 679 26.0576
105.418 645 25.3969
105.535 606 24.6171
105.651 643 25.3574
105.767 620 24.8998
105.883 569 23.8537
105.999 594 24.3721
106.115 0 1
106.231 0 1
106.347 0 1
106.463 0 1
106.579 0 1
106.694 0 1
106.81 0 1
106.926 0 1
107.041 0 1
107.157 0 1
109.576 0 1
109.692 0 1
109.807 0 1
109.923 0 1
110.039 0 1
110.155 0 1
110.27 0 1
110.386 0 1
110.502 0 1
110.618 374 19.3391
110.735 477 21.8403
110.851 574 23.9583
110.967 615 24.7992
111.083 717 26.7769
111.199 756 27.4955
111.316 864 29.3939
111.432 798 28.2489
111.549 828 28.775
111.665 810 28.4605
111.782 857 29.2746
111.898 877 29.6142
112.015 854 29.2233
112.132 797 28.2312
112.248 769 27.7308
112.365 714 26.7208
112.482 665 25.7876
112.599 696 26.3818
112.716 748 27.3496
112.832 774 27.8209
112.949 827 28.7576
113.066 914 30.2324
113.183 883 29.7153
113.3 841 29
113.417 895 29.9166
113.534 828 28.775
113.652 742 27.2397
113.769 724 26.9072
113.886 616 24.8193
114.003 652 25.5343
114.12 629 25.0799
114.238 744 27.2764
114.355 794 28.178
114.472 754 27.4591
114.589 933 30.545
114.707 777 27.8747
114.824 847 29.1033
114.942 910 30.1662
115.059 910 30.1662
115.176 893 29.8831
115.294 840 28.9828
115.411 820 28.6356
115.529 846 29.0861
115.646 773 27.8029
115.764 790 28.1069
115.881 693 26.3249
115.999 678 26.0384
116.116 644 25.3772
116.234 725 26.9258
116.351 835 28.8964
116.469 851 29.1719
116.586 849 29.1376
116.704 890 29.8329
116.821 833 28.8617
116.939 866 29.4279
117.056 836 28.9137
117.174 796 28.2135
117.291 760 27.5681
117.409 704 26.533
117.526 682 26.1151
117.644 607 24.6374
117.761 687 26.2107
117.879 727 26.9629
117.996 816 28.5657
118.114 858 29.2916
118.231 823 28.688
118.349 861 29.3428
118.466 832 28.8444
118.584 903 30.05
118.701 863 29.3769
118.819 803 28.3373
118.936 872 29.5296
119.053 795 28.1957
119.171 799 28.2666
119.288 742 27.2397
119.405 734 27.0924
119.523 687 26.2107
119.64 655 25.593
119.757 667 25.8263
119.875 757 27.5136
119.992 785 28.0179
120.109 829 28.7924
120.226 798 28.2489
120.343 826 28.7402
120.46 888 29.7993
120.578 863 29.3769
120.695 819 28.6182
120.812 766 27.6767
120.929 748 27.3496
121.046 636 25.219
121.163 602 24.5357
121.279 665 25.7876
121.396 638 25.2587
121.513 692 26.3059
121.63 720 26.8328
121.747 712 26.6833
121.863 716 26.7582
121.98 733 27.074
122.097 707 26.5895
122.213 730 27.0185
122.33 683 26.1343
122.446 679 26.0576
122.563 629 25.0799
122.679 597 24.4336
122.795 554 23.5372
122.912 551 23.4734
123.028 433 20.8087
123.144 394 19.8494
123.26 357 18.8944
123.377 0 1
123.493 0 1
123.609 0 1
123.725 0 1
123.84 0 1
123.956 0 1
124.072 0 1
124.188 0 1
124.303 0 1
124.419 0 1
126.852 0 1
126.968 0 1
127.083 0 1
127.199 0 1
127.315 0 1
127.431 0 1
127.547 0 1
127.663 0 1
127.779 0 1
127.895 0 1
128.011 0 1
128.127 0 1
128.243 0 1
128.359 879 29.6479
128.476 894 29.8998
128.592 898 29.9666
128.708 866 29.4279
128.825 857 29.2746
128.941 932 30.5287
129.058 928 30.4631
129.174 1032 32.1248
129.291 955 30.9031
129.408 1042 32.28
129.524 1072 32.7414
129.641 1118 33.4365
129.758 1053 32.45
129.875 942 30.692
129.992 941 30.6757
130.108 816 28.5657
130.225 866 29.4279
130.342 796 28.2135
130.459 848 29.1204
130.576 842 29.0172
130.693 943 30.7083
130.81 998 31.5911
130.928 995 31.5436
131.045 1015 31.8591
131.162 1005 31.7017
131.279 1010 31.7805
131.396 1048 32.3728
131.513 1101 33.1813
131.631 990 31.4643
131.748 992 31.496
131.865 996 31.5595
131.983 972 31.1769
132.1 963 31.0322
132.217 873 29.5466
132.335 909 30.1496
132.452 910 30.1662
132.57 943 30.7083
132.687 1005 31.7017
132.804 1046 32.3419
132.922 1045 32.3265
133.039 1079 32.8481
133.157 1065 32.6343
133.274 1067 32.665
133.392 987 31.4166
133.509 1026 32.0312
133.627 821 28.6531
133.744 851 29.1719
133.862 757 27.5136
133.979 829 28.7924
134.097 940 30.6594
134.214 950 30.8221
134.332 967 31.0966
134.449 1058 32.5269
134.567 1036 32.187
134.684 981 31.3209
134.802 1024 32
134.919 1117 33.4215
135.037 1043 32.2955
135.154 983 31.3528
135.272 1085 32.9393
135.389 1002 31.6544
135.507 977 31.257
135.624 884 29.7321
135.742 899 29.9833
135.859 890 29.8329
135.977 894 29.8998
136.094 980 31.305
136.211 1006 31.7175
136.329 979 31.289
136.446 1030 32.0936
136.564 973 31.1929
136.681 1083 32.909
136.798 1023 31.9844
136.915 1018 31.9061
137.033 946 30.7571
137.15 891 29.8496
137.267 855 29.2404
137.384 895 29.9166
137.502 826 28.7402
137.619 799 28.2666
137.736 853 29.2062
137.853 826 28.7402
137.97 938 30.6268
138.087 956 30.9192
138.204 1009 31.7648
138.321 1010 31.7805
138.438 1047 32.3574
138.555 1005 31.7017
138.672 997 31.5753
138.788 1005 31.7017
138.905 881 29.6816
139.022 876 29.5973
139.139 837 28.931
139.255 725 26.9258
139.372 680 26.0768
139.488 652 25.5343
139.605 660 25.6905
139.721 651 25.5147
139.838 613 24.7588
139.954 629 25.0799
140.071 623 24.96
140.187 557 23.6008
140.303 574 23.9583
140.419 497 22.2935
140.535 486 22.0454
140.652 420 20.4939
140.768 0 1
140.884 0 1
141 0 1
141.115 0 1
141.231 0 1
141.347 0 1
141.463 0 1
141.578 0 1
141.694 0 1
144.104 0 1
144.219 0 1
144.335 0 1
144.45 0 1
144.566 0 1
144.682 0 1
144.798 0 1
144.914 0 1
145.03 0 1
145.146 603 24.5561
145.262 702 26.4953
145.378 670 25.8844
145.494 709 26.6271
145.61 699 26.4386
145.726 691 26.2869
145.842 696 26.3818
145.959 634 25.1794
146.075 538 23.1948
146.192 549 23.4307
146.308 584 24.1661
146.425 569 23.8537
146.541 615 24.7992
146.658 642 25.3377
146.774 650 25.4951
146.891 657 25.632
147.008 682 26.1151
147.125 652 25.5343
147.241 632 25.1396
147.358 675 25.9808
147.475 682 26.1151
147.592 673 25.9422
147.709 698 26.4197
147.826 672 25.923
147.943 628 25.0599
148.06 607 24.6374
148.177 584 24.1661
148.294 559 23.6432
148.411 606 24.6171
148.528 641 25.318
148.645 645 25.3969
148.762 653 25.5539
148.88 678 26.0384
148.997 696 26.3818
149.114 699 26.4386
149.231 697 26.4008
149.349 705 26.5518
149.466 674 25.9615
149.583 607 24.6374
149.701 586 24.2074
149.818 553 23.516
149.935 547 23.388
150.053 526 22.9347
150.17 569 23.8537
150.287 586 24.2074
150.405 585 24.1868
150.522 641 25.318
150.64 597 24.4336
150.757 676 26
150.875 656 25.6125
150.992 663 25.7488
151.11 607 24.6374
151.227 706 26.5707
151.344 629 25.0799
151.462 579 24.0624
151.579 629 25.0799
151.697 568 23.8328
151.814 561 23.6854
151.932 579 24.0624
152.049 608 24.6577
152.167 599 24.4745
152.284 586 24.2074
152.402 630 25.0998
152.519 667 25.8263
152.636 681 26.096
152.754 689 26.2488
152.871 659 25.671
152.989 648 25.4558
153.106 589 24.2693
153.223 578 24.0416
153.341 505 22.4722
153.458 527 22.9565
153.575 532 23.0651
153.693 518 22.7596
153.81 542 23.2809
153.927 590 24.2899
154.044 598 24.454
154.162 624 24.98
154.279 576 24
154.396 651 25.5147
154.513 599 24.4745
154.63 624 24.98
154.747 575 23.9792
154.864 613 24.7588
154.981 621 24.9199
155.098 581 24.1039
155.215 549 23.4307
155.332 566 23.7908
155.449 525 22.9129
155.566 577 24.0208
155.683 539 23.2164
155.8 511 22.6053
155.917 574 23.9583
156.033 571 23.8956
156.15 0 1
156.267 0 1
156.383 0 1
156.5 0 1
156.617 0 1
156.733 0 1
156.85 0 1
156.966 0 1
157.082 0 1
157.199 0 1
157.315 0 1
157.431 0 1
157.547 0 1
157.664 0 1
157.78 0 1
157.896 0 1
158.012 0 1
158.128 0 1
158.244 0 1
158.359 0 1
158.475 0 1
158.591 0 1
158.706 0 1
