
6.15755 0 1
6.2731 0 1
6.3887 0 1
6.50437 0 1
6.62009 0 1
6.73587 0 1
6.8517 0 1
6.96759 0 1
7.08353 0 1
7.19952 0 1
7.31557 0 1
7.43166 0 1
7.54781 0 1
7.664 0 1
7.78024 0 1
7.89653 0 1
8.01286 0 1
8.12924 0 1
8.24567 0 1
8.36213 0 1
8.47864 0 1
8.59519 0 1
8.71178 0 1
8.82841 0 1
8.94508 0 1
9.06179 0 1
9.17853 0 1
9.29531 0 1
9.41212 0 1
9.52897 0 1
9.64584 0 1
9.76276 0 1
9.8797 0 1
9.99667 0 1
10.1137 0 1
10.2307 0 1
10.3478 0 1
10.4648 0 1
10.5819 0 1
10.6991 0 1
10.8162 0 1
10.9334 0 1
11.0506 0 1
11.1678 0 1
11.285 0 1
11.4023 0 1
11.5196 0 1
11.6369 0 1
11.7542 0 1
11.8715 0 1
11.9888 0 1
12.1062 0 1
12.2235 0 1
12.3409 0 1
12.4582 0 1
12.5756 0 1
12.693 0 1
12.8104 0 1
12.9278 0 1
13.0452 0 1
13.1626 0 1
13.28 0 1
13.3974 0 1
13.5149 0 1
13.6323 0 1
13.7497 0 1
13.8671 0 1
13.9845 0 1
14.1019 0 1
14.2193 0 1
14.3367 0 1
14.4541 0 1
14.5714 0 1
14.6888 0 1
14.8062 0 1
14.9235 0 1
15.0408 0 0
15.1581 0 0
15.2755 0 0
15.3927 0 0
15.51 0 0
15.6273 0 0
15.7445 0 0
15.8617 0 0
15.9789 0 0
16.0961 0 0
16.2132 0 0
16.3304 0 0
16.4475 0 0
16.5646 0 0
16.6816 0 0
16.7986 0 0
16.9156 0 0
17.0326 0 0
17.1496 0 0
17.2665 0 0
17.3833 0 0
17.5002 0 0
17.617 0 0
17.7338 0 0
17.8505 0 0
17.9672 0 0
18.0839 0 0
18.2005 0 0
18.3171 0 0
18.4337 0 0
18.5502 0 0
18.6666 0 0
18.7831 0 0
18.8994 0 0
19.0158 0 0
19.1321 0 0
19.2483 0 0
19.3645 0 0
19.4806 0 0
19.5967 0 0
19.7128 0 0
19.8288 0 0
19.9447 0 0
20.0606 0 1
20.1764 0 1
20.2922 0 1
20.4079 0 1
20.5236 0 1
20.6392 0 1
20.7548 0 1
20.8702 0 1
23.3078 0 1
23.4233 0 1
23.539 0 1
23.6547 0 1
23.7704 0 1
23.8862 0 1
24.0021 0 1
24.118 0 1
24.234 0 1
24.35 0 1
24.4661 1802 42.45
24.5822 1858 43.1045
24.6984 1800 42.4264
24.8146 1803 42.4617
24.9309 1775 42.1307
25.0472 1737 41.6773
25.1636 1702 41.2553
25.28 1657 40.7063
25.3965 1694 41.1582
25.513 1714 41.4005
25.6296 1831 42.7902
25.7462 1814 42.5911
25.8628 1987 44.5758
25.9795 2101 45.8367
26.0962 2066 45.4533
26.213 1966 44.3396
26.3298 1991 44.6206
26.4466 2027 45.0222
26.5635 1945 44.1022
26.6804 1872 43.2666
26.7973 1884 43.4051
26.9143 1757 41.9166
27.0313 1905 43.6463
27.1483 1896 43.5431
27.2653 1995 44.6654
27.3824 2003 44.7549
27.4996 2014 44.8776
27.6167 2015 44.8888
27.7339 2023 44.9778
27.8511 1907 43.6692
27.9683 2025 45
28.0855 1905 43.6463
28.2028 1900 43.589
28.3201 1870 43.2435
28.4374 1763 41.9881
28.5547 1672 40.8901
28.6721 1679 40.9756
28.7894 1622 40.2741
28.9068 1648 40.5956
29.0242 1721 41.4849
29.1416 1780 42.19
29.259 1826 42.7317
29.3764 1852 43.0349
29.4939 1937 44.0114
29.6113 1976 44.4522
29.7288 2051 45.288
29.8463 2030 45.0555
29.9638 2043 45.1996
30.0812 2060 45.3872
30.1987 1907 43.6692
30.3162 1811 42.5558
30.4337 1740 41.7133
30.5512 1875 43.3013
30.6687 1931 43.9431
30.7862 1897 43.5546
30.9037 1928 43.909
31.0212 1949 44.1475
31.1387 2091 45.7275
31.2562 1979 44.486
31.3737 2074 45.5412
31.4912 2009 44.8219
31.6087 1897 43.5546
31.7262 1978 44.4747
31.8436 1844 42.9418
31.9611 1783 42.2256
32.0785 1805 42.4853
32.1959 1722 41.497
32.3134 1661 40.7554
32.4308 1751 41.845
32.5482 1834 42.8252
32.6655 1766 42.0238
32.7829 1799 42.4146
32.9002 1968 44.3621
33.0176 2008 44.8107
33.1349 1956 44.2267
33.2522 2007 44.7996
33.3694 2003 44.7549
33.4867 2124 46.0869
33.6039 2018 44.9222
33.7211 2002 44.7437
33.8383 1927 43.8976
33.9554 1782 42.2137
34.0725 1791 42.3202
34.1896 1743 41.7493
34.3067 1883 43.3935
34.4237 1964 44.317
34.5407 1974 44.4297
34.6577 2024 44.9889
34.7746 1984 44.5421
34.8915 1993 44.643
35.0084 2002 44.7437
35.1252 1937 44.0114
35.242 1978 44.4747
35.3587 1913 43.7379
35.4755 1917 43.7836
35.5921 1841 42.9069
35.7088 1769 42.0595
35.8254 1796 42.3792
35.9419 1644 40.5463
36.0584 1659 40.7308
36.1749 1704 41.2795
36.2913 1788 42.2847
36.4077 1692 41.1339
36.524 1733 41.6293
36.6403 1864 43.1741
36.7565 1951 44.1701
36.8727 2063 45.4203
36.9889 1864 43.1741
37.1049 2024 44.9889
37.221 0 1
37.3369 0 1
37.4529 0 1
37.5687 0 1
37.6845 0 1
37.8003 0 1
37.916 0 1
38.0316 0 1
38.1472 0 1
40.5851 0 1
40.7008 0 1
40.8164 0 1
40.9322 0 1
41.048 0 1
41.1639 0 1
41.2798 0 1
41.3958 0 1
41.5118 0 1
41.6279 0 1
41.744 1435 37.8814
41.8602 1629 40.3609
41.9765 1660 40.7431
42.0928 1822 42.6849
42.2091 1670 40.8656
42.3255 1851 43.0232
42.4419 1727 41.5572
42.5584 1616 40.1995
42.675 1541 39.2556
42.7915 1494 38.6523
42.9081 1426 37.7624
43.0248 1496 38.6782
43.1415 1607 40.0874
43.2582 1659 40.7308
43.375 1734 41.6413
43.4918 1744 41.7612
43.6087 1706 41.3038
43.7256 1721 41.4849
43.8425 1715 41.4126
43.9595 1579 39.7366
44.0765 1585 39.8121
44.1935 1650 40.6202
44.3106 1521 39
44.4277 1509 38.8458
44.5448 1455 38.1445
44.6619 1367 36.973
44.7791 1306 36.1386
44.8963 1303 36.0971
45.0136 1282 35.805
45.1308 1292 35.9444
45.2481 1387 37.2424
45.3654 1386 37.229
45.4827 1469 38.3275
45.6001 1412 37.5766
45.7174 1426 37.7624
45.8348 1529 39.1024
45.9522 1404 37.47
46.0697 1357 36.8375
46.1871 1332 36.4966
46.3046 1225 35
46.422 1262 35.5246
46.5395 1197 34.5977
46.657 1215 34.8569
46.7745 1291 35.9305
46.892 1275 35.7071
47.0096 1346 36.6879
47.1271 1328 36.4417
47.2446 1371 37.027
47.3622 1323 36.3731
47.4797 1228 35.0428
47.5973 1233 35.1141
47.7149 1222 34.9571
47.8324 1176 34.2929
47.95 1168 34.176
48.0675 1179 34.3366
48.1851 1004 31.686
48.3027 1029 32.078
48.4202 947 30.7734
48.5378 995 31.5436
48.6554 1018 31.9061
48.7729 1025 32.0156
48.8904 1080 32.8634
49.008 1135 33.6898
49.1255 1268 35.609
49.243 1229 35.0571
49.3605 1173 34.2491
49.478 1231 35.0856
49.5955 1206 34.7275
49.713 1075 32.7872
49.8304 1017 31.8904
49.9479 1037 32.2025
50.0653 1033 32.1403
50.1827 1114 33.3766
50.3001 1211 34.7994
50.4175 1274 35.6931
50.5348 1353 36.7831
50.6521 1277 35.7351
50.7694 1328 36.4417
50.8867 1344 36.6606
51.004 1406 37.4967
51.1212 1418 37.6563
51.2384 1379 37.1349
51.3556 1427 37.7757
51.4727 1375 37.081
51.5899 1319 36.318
51.707 1331 36.4829
51.824 1285 35.8469
51.9411 1224 34.9857
52.0581 1274 35.6931
52.175 1284 35.8329
52.2919 1430 37.8153
52.4088 1557 39.4588
52.5257 1565 39.5601
52.6425 1605 40.0625
52.7593 1620 40.2492
52.876 1676 40.939
52.9927 1684 41.0366
53.1094 1646 40.5709
53.226 1614 40.1746
53.3426 1514 38.9102
53.4591 1365 36.9459
53.5756 1434 37.8682
53.692 1469 38.3275
53.8084 1624 40.2989
53.9248 1571 39.6358
54.0411 1685 41.0488
54.1573 1721 41.4849
54.2735 0 1
54.3896 0 1
54.5057 0 1
54.6217 0 1
54.7377 0 1
54.8537 0 1
54.9695 0 1
55.0853 0 1
55.2011 0 1
55.3168 0 1
55.4324 0 1
57.824 0 1
57.9396 0 1
58.0553 0 1
58.1711 0 1
58.2869 0 1
58.4028 0 1
58.5187 0 1
58.6347 0 1
58.7508 0 1
58.8669 0 1
58.983 1778 42.1663
59.0992 1862 43.1509
59.2155 1979 44.486
59.3318 1980 44.4972
59.4482 2179 46.6798
59.5646 2018 44.9222
59.681 2022 44.9667
59.7975 2050 45.2769
59.9141 2080 45.607
60.0306 2025 45
60.1473 1891 43.4856
60.2639 1817 42.6263
60.3807 1692 41.1339
60.4974 1692 41.1339
60.6142 1656 40.694
60.731 1697 41.1947
60.8479 1683 41.0244
60.9648 1733 41.6293
61.0818 1860 43.1277
61.1987 1896 43.5431
61.3158 1934 43.9773
61.4328 1930 43.9318
61.5499 1954 44.2041
61.667 1856 43.0813
61.7841 1805 42.4853
61.9013 1757 41.9166
62.0185 1618 40.2244
62.1357 1668 40.8412
62.253 1697 41.1947
62.3702 1735 41.6533
62.4875 1889 43.4626
62.6049 1832 42.8019
62.7222 1907 43.6692
62.8396 1941 44.0568
62.9569 1956 44.2267
63.0743 1991 44.6206
63.1918 1853 43.0465
63.3092 1931 43.9431
63.4267 1828 42.7551
63.5441 1847 42.9767
63.6616 1801 42.4382
63.7791 1757 41.9166
63.8966 1611 40.1373
64.0142 1580 39.7492
64.1317 1540 39.2428
64.2492 1566 39.5727
64.3668 1579 39.7366
64.4843 1627 40.3361
64.6019 1701 41.2432
64.7195 1722 41.497
64.837 1829 42.7668
64.9546 1823 42.6966
65.0722 1812 42.5676
65.1898 1843 42.9302
65.3074 1709 41.3401
65.4249 1593 39.9124
65.5425 1603 40.0375
65.6601 1456 38.1576
65.7777 1468 38.3145
65.8952 1545 39.3065
66.0128 1719 41.4608
66.1304 1735 41.6533
66.2479 1758 41.9285
66.3655 1865 43.1856
66.483 1831 42.7902
66.6005 1833 42.8135
66.718 1900 43.589
66.8355 1834 42.8252
66.953 1877 43.3244
67.0705 1792 42.332
67.1879 1703 41.2674
67.3054 1663 40.7799
67.4228 1631 40.3856
67.5402 1539 39.2301
67.6576 1451 38.092
67.7749 1356 36.8239
67.8923 1357 36.8375
68.0096 1524 39.0384
68.1269 1622 40.2741
68.2442 1712 41.3763
68.3614 1769 42.0595
68.4787 1841 42.9069
68.5958 1802 42.45
68.713 1902 43.6119
68.8302 1765 42.0119
68.9473 1620 40.2492
69.0643 1530 39.1152
69.1814 1503 38.7685
69.2984 1567 39.5854
69.4154 1559 39.4842
69.5323 1531 39.128
69.6492 1685 41.0488
69.7661 1776 42.1426
69.8829 1841 42.9069
69.9997 1976 44.4522
70.1165 1891 43.4856
70.2332 1984 44.5421
70.3499 1869 43.2319
70.4665 1910 43.7035
70.5831 1919 43.8064
70.6996 1910 43.7035
70.8161 1790 42.3084
70.9326 1712 41.3763
71.049 1680 40.9878
71.1653 1631 40.3856
71.2817 1484 38.5227
71.3979 1419 37.6696
71.5141 1401 37.4299
71.6303 1410 37.55
71.7464 1344 36.6606
71.8624 0 1
71.9784 0 1
72.0944 0 1
72.2102 0 1
72.3261 0 1
72.4418 0 1
72.5575 0 1
72.6732 0 1
75.1054 0 1
75.2209 0 1
75.3365 0 1
75.4521 0 1
75.5678 0 1
75.6835 0 1
75.7993 0 1
75.9151 0 1
76.031 0 1
76.147 1578 39.724
76.263 1651 40.6325
76.3791 1761 41.9643
76.4952 1547 39.3319
76.6113 1523 39.0256
76.7276 1335 36.5377
76.8438 1519 38.9744
76.9601 1455 38.1445
77.0765 1560 39.4968
77.1929 1661 40.7554
77.3093 1795 42.3674
77.4258 1777 42.1545
77.5423 1809 42.5323
77.6589 1794 42.3556
77.7755 1810 42.5441
77.8921 1725 41.5331
78.0088 1588 39.8497
78.1256 1608 40.0999
78.2423 1515 38.923
78.3591 1363 36.9188
78.4759 1380 37.1484
78.5928 1540 39.2428
78.7097 1676 40.939
78.8266 1727 41.5572
78.9436 1859 43.1161
79.0606 1962 44.2945
79.1776 1779 42.1782
79.2946 1851 43.0232
79.4117 1867 43.2088
79.5288 1845 42.9535
79.6459 1830 42.7785
79.7631 1783 42.2256
79.8802 1787 42.2729
79.9974 1701 41.2432
80.1147 1573 39.6611
80.2319 1441 37.9605
80.3491 1345 36.6742
80.4664 1422 37.7094
80.5837 1494 38.6523
80.701 1537 39.2046
80.8183 1606 40.0749
80.9357 1675 40.9268
81.053 1733 41.6293
81.1704 1806 42.4971
81.2877 1781 42.2019
81.4051 1729 41.5812
81.5225 1702 41.2553
81.6399 1521 39
81.7573 1452 38.1051
81.8747 1307 36.1525
81.9922 1308 36.1663
82.1096 1355 36.8103
82.227 1453 38.1182
82.3444 1539 39.2301
82.4619 1651 40.6325
82.5793 1769 42.0595
82.6967 1679 40.9756
82.8142 1638 40.4722
82.9316 1782 42.2137
83.049 1770 42.0714
83.1664 1635 40.4351
83.2838 1698 41.2068
83.4012 1575 39.6863
83.5186 1576 39.6989
83.636 1551 39.3827
83.7534 1438 37.921
83.8708 1381 37.1618
83.9881 1289 35.9026
84.1055 1260 35.4965
84.2228 1260 35.4965
84.3401 1328 36.4417
84.4575 1482 38.4968
84.5747 1551 39.3827
84.692 1590 39.8748
84.8093 1652 40.6448
84.9265 1734 41.6413
85.0437 1673 40.9023
85.1609 1607 40.0874
85.2781 1399 37.4032
85.3952 1332 36.4966
85.5123 1302 36.0832
85.6294 1321 36.3456
85.7465 1381 37.1618
85.8636 1540 39.2428
85.9806 1633 40.4104
86.0976 1684 41.0366
86.2145 1723 41.509
86.3315 1791 42.3202
86.4484 1884 43.4051
86.5652 1887 43.4396
86.682 1874 43.2897
86.7988 1961 44.2832
86.9156 1787 42.2729
87.0323 1742 41.7373
87.149 1688 41.0853
87.2657 1661 40.7554
87.3823 1544 39.2938
87.4988 1479 38.4578
87.6154 1437 37.9078
87.7318 1478 38.4448
87.8483 1597 39.9625
87.9647 1673 40.9023
88.081 1720 41.4729
88.1973 1851 43.0232
88.3136 1866 43.1972
88.4298 1885 43.4166
88.546 1717 41.4367
88.6621 1794 42.3556
88.7781 1637 40.4599
88.8942 0 1
89.0101 0 1
89.126 0 1
89.2419 0 1
89.3577 0 1
89.4734 0 1
89.5891 0 1
89.7047 0 1
89.8203 0 1
89.9358 0 1
92.3269 0 1
92.4424 0 1
92.558 0 1
92.6736 0 1
92.7893 0 1
92.905 0 1
93.0208 0 1
93.1366 0 1
93.2525 0 1
93.3685 0 1
93.4845 0 1
93.6005 1828 42.7551
93.7167 1937 44.0114
93.8328 1819 42.6497
93.949 1871 43.2551
94.0653 1938 44.0227
94.1816 1703 41.2674
94.2979 1704 41.2795
94.4143 1552 39.3954
94.5307 1503 38.7685
94.6472 1496 38.6782
94.7637 1543 39.281
94.8803 1671 40.8779
94.9969 1778 42.1663
95.1135 1853 43.0465
95.2302 1887 43.4396
95.3469 1951 44.1701
95.4637 1959 44.2606
95.5805 2065 45.4423
95.6973 2054 45.3211
95.8142 2158 46.4543
95.9311 1990 44.6094
96.048 2076 45.5631
96.1649 1939 44.0341
96.2819 1998 44.699
96.3989 1773 42.107
96.516 1749 41.821
96.633 1681 41
96.7501 1597 39.9625
96.8673 1648 40.5956
96.9844 1776 42.1426
97.1016 1814 42.5911
97.2188 1952 44.1814
97.336 2039 45.1553
97.4532 2060 45.3872
97.5704 2148 46.3465
97.6877 2028 45.0333
97.805 1907 43.6692
97.9223 1799 42.4146
98.0396 1691 41.1218
98.1569 1668 40.8412
98.2743 1659 40.7308
98.3916 1687 41.0731
98.509 1777 42.1545
98.6264 1847 42.9767
98.7438 1991 44.6206
98.8612 2028 45.0333
98.9786 2136 46.2169
99.096 2186 46.7547
99.2134 2181 46.7012
99.3308 2254 47.4763
99.4482 2273 47.676
99.5656 2171 46.594
99.6831 2183 46.7226
99.8005 2050 45.2769
99.9179 2006 44.7884
100.035 2009 44.8219
100.153 1836 42.8486
100.27 1745 41.7732
100.388 1778 42.1663
100.505 1829 42.7668
100.622 1946 44.1135
100.74 2075 45.5522
100.857 2074 45.5412
100.975 2197 46.8722
101.092 2201 46.9148
101.209 2159 46.465
101.327 2172 46.6047
101.444 2132 46.1736
101.561 1867 43.2088
101.679 1816 42.6146
101.796 1740 41.7133
101.913 1644 40.5463
102.03 1752 41.8569
102.148 1946 44.1135
102.265 2270 47.6445
102.382 1997 44.6878
102.499 2262 47.5605
102.616 2356 48.5386
102.733 2423 49.224
102.851 2498 49.98
102.968 2345 48.4252
103.085 2372 48.7032
103.202 2255 47.4868
103.319 2289 47.8435
103.436 2198 46.8828
103.552 2181 46.7012
103.669 1998 44.699
103.786 1920 43.8178
103.903 1952 44.1814
104.02 1856 43.0813
104.137 2098 45.8039
104.253 2143 46.2925
104.37 2173 46.6154
104.487 2481 49.8096
104.603 2355 48.5283
104.72 2404 49.0306
104.836 2430 49.295
104.953 2177 46.6583
105.069 1981 44.5084
105.186 1957 44.238
105.302 1883 43.3935
105.418 1822 42.6849
105.535 1903 43.6234
105.651 2196 46.8615
105.767 2218 47.0956
105.883 2362 48.6004
105.999 2447 49.4672
106.115 0 1
106.231 0 1
106.347 0 1
106.463 0 1
106.579 0 1
106.694 0 1
106.81 0 1
106.926 0 1
107.041 0 1
107.157 0 1
109.576 0 1
109.692 0 1
109.807 0 1
109.923 0 1
110.039 0 1
110.155 0 1
110.27 0 1
110.386 0 1
110.502 0 1
110.618 1907 43.6692
110.735 2060 45.3872
110.851 2273 47.676
110.967 2243 47.3603
111.083 2371 48.6929
111.199 2319 48.156
111.316 2437 49.366
111.432 2389 48.8774
111.549 2427 49.2646
111.665 2396 48.949
111.782 2323 48.1975
111.898 2405 49.0408
112.015 2213 47.0425
112.132 2151 46.3789
112.248 1985 44.5533
112.365 1927 43.8976
112.482 1893 43.5086
112.599 1927 43.8976
112.716 2136 46.2169
112.832 2241 47.3392
112.949 2288 47.833
113.066 2288 47.833
113.183 2276 47.7074
113.3 2243 47.3603
113.417 2286 47.8121
113.534 2075 45.5522
113.652 1994 44.6542
113.769 1780 42.19
113.886 1813 42.5793
114.003 1726 41.5452
114.12 1923 43.852
114.238 2118 46.0217
114.355 2265 47.592
114.472 2395 48.9387
114.589 2229 47.2123
114.707 2293 47.8853
114.824 2490 49.8999
114.942 2362 48.6004
115.059 2353 48.5077
115.176 2410 49.0918
115.294 2391 48.8979
115.411 2385 48.8365
115.529 2263 47.571
115.646 2185 46.744
115.764 2021 44.9555
115.881 1896 43.5431
115.999 1944 44.0908
116.116 1838 42.8719
116.234 2010 44.833
116.351 2090 45.7165
116.469 2285 47.8017
116.586 2267 47.613
116.704 2202 46.9255
116.821 2299 47.9479
116.939 2059 45.3762
117.056 2005 44.7772
117.174 1933 43.9659
117.291 1831 42.7902
117.409 1772 42.0951
117.526 1767 42.0357
117.644 1870 43.2435
117.761 1935 43.9886
117.879 2033 45.0888
117.996 2197 46.8722
118.114 2196 46.8615
118.231 2195 46.8508
118.349 2286 47.8121
118.466 2302 47.9792
118.584 2330 48.2701
118.701 2282 47.7703
118.819 2203 46.9361
118.936 2124 46.0869
119.053 2094 45.7602
119.171 2103 45.8585
119.288 1983 44.5309
119.405 1867 43.2088
119.523 1751 41.845
119.64 1855 43.0697
119.757 1775 42.1307
119.875 1874 43.2897
119.992 1983 44.5309
120.109 2156 46.4327
120.226 2129 46.1411
120.343 2128 46.1303
120.46 2008 44.8107
120.578 2058 45.3652
120.695 1868 43.2204
120.812 1898 43.566
120.929 1841 42.9069
121.046 1636 40.4475
121.163 1592 39.8999
121.279 1630 40.3733
121.396 1764 42
121.513 1931 43.9431
121.63 1969 44.3734
121.747 2062 45.4093
121.863 2165 46.5296
121.98 2214 47.0532
122.097 2183 46.7226
122.213 2115 45.9891
122.33 2236 47.2864
122.446 2148 46.3465
122.563 2102 45.8476
122.679 1995 44.6654
122.795 2098 45.8039
122.912 1948 44.1362
123.028 1832 42.8019
123.144 1839 42.8836
123.26 1561 39.5095
123.377 0 1
123.493 0 1
123.609 0 1
123.725 0 1
123.84 0 1
123.956 0 1
124.072 0 1
124.188 0 1
124.303 0 1
124.419 0 1
126.852 0 1
126.968 0 1
127.083 0 1
127.199 0 1
127.315 0 1
127.431 0 1
127.547 0 1
127.663 0 1
127.779 0 1
127.895 0 1
128.011 0 1
128.127 0 1
128.243 0 1
128.359 1940 44.0454
128.476 1759 41.9404
128.592 1909 43.6921
128.708 1945 44.1022
128.825 1969 44.3734
128.941 2049 45.2659
129.058 2131 46.1628
129.174 2069 45.4863
129.291 2132 46.1736
129.408 2117 46.0109
129.524 2069 45.4863
129.641 1895 43.5316
129.758 1943 44.0795
129.875 1738 41.6893
129.992 1727 41.5572
130.108 1698 41.2068
130.225 1665 40.8044
130.342 1811 42.5558
130.459 1935 43.9886
130.576 2120 46.0435
130.693 2026 45.0111
130.81 2082 45.6289
130.928 2161 46.4866
131.045 2274 47.6865
131.162 2192 46.8188
131.279 2186 46.7547
131.396 2145 46.3141
131.513 2193 46.8295
131.631 2121 46.0543
131.748 2038 45.1442
131.865 1970 44.3847
131.983 1882 43.382
132.1 1879 43.3474
132.217 1878 43.3359
132.335 1970 44.3847
132.452 2132 46.1736
132.57 2114 45.9783
132.687 2043 45.1996
132.804 2254 47.4763
132.922 2160 46.4758
133.039 2071 45.5082
133.157 1992 44.6318
133.274 1872 43.2666
133.392 1757 41.9166
133.509 1802 42.45
133.627 1690 41.1096
133.744 1788 42.2847
133.862 1756 41.9047
133.979 2021 44.9555
134.097 2052 45.299
134.214 2056 45.3431
134.332 2091 45.7275
134.449 2095 45.7712
134.567 2208 46.9894
134.684 2241 47.3392
134.802 2176 46.6476
134.919 2183 46.7226
135.037 2146 46.3249
135.154 2083 45.6399
135.272 2043 45.1996
135.389 2059 45.3762
135.507 1927 43.8976
135.624 1807 42.5088
135.742 1914 43.7493
135.859 2050 45.2769
135.977 2000 44.7214
136.094 2160 46.4758
136.211 2122 46.0652
136.329 2150 46.3681
136.446 2124 46.0869
136.564 2194 46.8402
136.681 2110 45.9347
136.798 1948 44.1362
136.915 1872 43.2666
137.033 1775 42.1307
137.15 1666 40.8167
137.267 1663 40.7799
137.384 1726 41.5452
137.502 1864 43.1741
137.619 1895 43.5316
137.736 1976 44.4522
137.853 1977 44.4635
137.97 2168 46.5618
138.087 2027 45.0222
138.204 2135 46.2061
138.321 2147 46.3357
138.438 2118 46.0217
138.555 2270 47.6445
138.672 2237 47.2969
138.788 2087 45.6837
138.905 2119 46.0326
139.022 2117 46.0109
139.139 1941 44.0568
139.255 1934 43.9773
139.372 1962 44.2945
139.488 2022 44.9667
139.605 2131 46.1628
139.721 2204 46.9468
139.838 2244 47.3709
139.954 2186 46.7547
140.071 2124 46.0869
140.187 2234 47.2652
140.303 2099 45.8148
140.419 1986 44.5646
140.535 1884 43.4051
140.652 1756 41.9047
140.768 0 1
140.884 0 1
141 0 1
141.115 0 1
141.231 0 1
141.347 0 1
141.463 0 1
141.578 0 1
141.694 0 1
144.104 0 1
144.219 0 1
144.335 0 1
144.45 0 1
144.566 0 1
144.682 0 1
144.798 0 1
144.914 0 1
145.03 0 1
145.146 1876 43.3128
145.262 1864 43.1741
145.378 1794 42.3556
145.494 1710 41.3521
145.61 1715 41.4126
145.726 1580 39.7492
145.842 1540 39.2428
145.959 1530 39.1152
146.075 1638 40.4722
146.192 1705 41.2916
146.308 1711 41.3642
146.425 1692 41.1339
146.541 1777 42.1545
146.658 1852 43.0349
146.774 1959 44.2606
146.891 1869 43.2319
147.008 1887 43.4396
147.125 2015 44.8888
147.241 1858 43.1045
147.358 1884 43.4051
147.475 1907 43.6692
147.592 1792 42.332
147.709 1669 40.8534
147.826 1704 41.2795
147.943 1651 40.6325
148.06 1649 40.6079
148.177 1769 42.0595
148.294 1918 43.795
148.411 1833 42.8135
148.528 1853 43.0465
148.645 1934 43.9773
148.762 1786 42.2611
148.88 1769 42.0595
148.997 1720 41.4729
149.114 1729 41.5812
149.231 1554 39.4208
149.349 1574 39.6737
149.466 1434 37.8682
149.583 1458 38.1838
149.701 1489 38.5876
149.818 1524 39.0384
149.935 1681 41
150.053 1649 40.6079
150.17 1742 41.7373
150.287 1796 42.3792
150.405 1817 42.6263
150.522 1815 42.6028
150.64 1818 42.638
150.757 1788 42.2847
150.875 1822 42.6849
150.992 1883 43.3935
151.11 1861 43.1393
151.227 1746 41.7852
151.344 1657 40.7063
151.462 1547 39.3319
151.579 1627 40.3361
151.697 1586 39.8246
151.814 1659 40.7308
151.932 1779 42.1782
152.049 1806 42.4971
152.167 1798 42.4028
152.284 1783 42.2256
152.402 1784 42.2374
152.519 1717 41.4367
152.636 1707 41.3159
152.754 1604 40.05
152.871 1546 39.3192
152.989 1489 38.5876
153.106 1437 37.9078
153.223 1490 38.6005
153.341 1624 40.2989
153.458 1635 40.4351
153.575 1650 40.6202
153.693 1634 40.4228
153.81 1791 42.3202
153.927 1699 41.2189
154.044 1847 42.9767
154.162 1766 42.0238
154.279 1784 42.2374
154.396 1887 43.4396
154.513 1909 43.6921
154.63 1874 43.2897
154.747 1815 42.6028
154.864 1835 42.8369
154.981 1809 42.5323
155.098 1698 41.2068
155.215 1686 41.0609
155.332 1743 41.7493
155.449 1870 43.2435
155.566 1867 43.2088
155.683 1904 43.6348
155.8 1822 42.6849
155.917 1939 44.0341
156.033 1939 44.0341
156.15 0 1
156.267 0 1
156.383 0 1
156.5 0 1
156.617 0 1
156.733 0 1
156.85 0 1
156.966 0 1
157.082 0 1
157.199 0 1
157.315 0 1
157.431 0 1
157.547 0 1
157.664 0 1
157.78 0 1
157.896 0 1
158.012 0 1
158.128 0 1
158.244 0 1
158.359 0 1
158.475 0 1
158.591 0 1
158.706 0 1
