
6.15755 0 1
6.2731 0 1
6.3887 0 1
6.50437 0 1
6.62009 0 1
6.73587 0 1
6.8517 0 1
6.96759 0 1
7.08353 0 1
7.19952 0 1
7.31557 0 1
7.43166 0 1
7.54781 0 1
7.664 0 1
7.78024 0 1
7.89653 0 1
8.01286 0 1
8.12924 0 1
8.24567 0 1
8.36213 0 1
8.47864 0 1
8.59519 0 1
8.71178 0 1
8.82841 0 1
8.94508 0 1
9.06179 0 1
9.17853 0 1
9.29531 0 1
9.41212 0 1
9.52897 0 1
9.64584 0 1
9.76276 0 1
9.8797 0 1
9.99667 0 1
10.1137 0 1
10.2307 0 1
10.3478 0 1
10.4648 0 1
10.5819 0 1
10.6991 0 1
10.8162 0 1
10.9334 0 1
11.0506 0 1
11.1678 0 1
11.285 0 1
11.4023 0 1
11.5196 0 1
11.6369 0 1
11.7542 0 1
11.8715 0 1
11.9888 0 1
12.1062 0 1
12.2235 0 1
12.3409 0 1
12.4582 0 1
12.5756 0 1
12.693 0 1
12.8104 0 1
12.9278 0 1
13.0452 0 1
13.1626 0 1
13.28 0 1
13.3974 0 1
13.5149 0 1
13.6323 0 1
13.7497 0 1
13.8671 0 1
13.9845 0 1
14.1019 0 1
14.2193 0 1
14.3367 0 1
14.4541 0 1
14.5714 0 1
14.6888 0 1
14.8062 0 1
14.9235 0 1
15.0408 0 0
15.1581 0 0
15.2755 0 0
15.3927 0 0
15.51 0 0
15.6273 0 0
15.7445 0 0
15.8617 0 0
15.9789 0 0
16.0961 0 0
16.2132 0 0
16.3304 0 0
16.4475 0 0
16.5646 0 0
16.6816 0 0
16.7986 0 0
16.9156 0 0
17.0326 0 0
17.1496 0 0
17.2665 0 0
17.3833 0 0
17.5002 0 0
17.617 0 0
17.7338 0 0
17.8505 0 0
17.9672 0 0
18.0839 0 0
18.2005 0 0
18.3171 0 0
18.4337 0 0
18.5502 0 0
18.6666 0 0
18.7831 0 0
18.8994 0 0
19.0158 0 0
19.1321 0 0
19.2483 0 0
19.3645 0 0
19.4806 0 0
19.5967 0 0
19.7128 0 0
19.8288 0 0
19.9447 0 0
20.0606 0 1
20.1764 0 1
20.2922 0 1
20.4079 0 1
20.5236 0 1
20.6392 0 1
20.7548 0 1
20.8702 0 1
23.3078 0 1
23.4233 0 1
23.539 0 1
23.6547 0 1
23.7704 0 1
23.8862 0 1
24.0021 0 1
24.118 0 1
24.234 0 1
24.35 0 1
24.4661 5771 75.9671
24.5822 5689 75.4255
24.6984 5702 75.5116
24.8146 5703 75.5182
24.9309 5733 75.7166
25.0472 5553 74.5185
25.1636 5501 74.1687
25.28 5785 76.0592
25.3965 5781 76.0329
25.513 6029 77.6466
25.6296 6025 77.6209
25.7462 6291 79.3158
25.8628 6372 79.8248
25.9795 6240 78.9937
26.0962 6176 78.5875
26.213 6040 77.7174
26.3298 5990 77.3951
26.4466 5724 75.6571
26.5635 5674 75.326
26.6804 5618 74.9533
26.7973 5631 75.04
26.9143 5902 76.8245
27.0313 5759 75.8881
27.1483 5973 77.2852
27.2653 6016 77.5629
27.3824 6128 78.2815
27.4996 5962 77.214
27.6167 6072 77.923
27.7339 5993 77.4145
27.8511 5615 74.9333
27.9683 5836 76.3937
28.0855 5655 75.1997
28.2028 5413 73.5731
28.3201 5395 73.4507
28.4374 5202 72.1249
28.5547 5086 71.3162
28.6721 4951 70.3633
28.7894 5014 70.8096
28.9068 4947 70.3349
29.0242 4968 70.484
29.1416 5037 70.9718
29.259 5039 70.9859
29.3764 5190 72.0417
29.4939 5060 71.1337
29.6113 5199 72.1041
29.7288 5071 71.211
29.8463 5041 71
29.9638 5078 71.2601
30.0812 5032 70.9366
30.1987 4975 70.5337
30.3162 4937 70.2638
30.4337 5153 71.7844
30.5512 5238 72.374
30.6687 5390 73.4166
30.7862 5442 73.7699
30.9037 5610 74.8999
31.0212 5489 74.0878
31.1387 5492 74.108
31.2562 5567 74.6123
31.3737 5368 73.2666
31.4912 5198 72.0972
31.6087 5233 72.3395
31.7262 5085 71.3092
31.8436 5049 71.0563
31.9611 4808 69.3397
32.0785 4781 69.1448
32.1959 4690 68.4836
32.3134 4619 67.9632
32.4308 4578 67.6609
32.5482 4566 67.5722
32.6655 4685 68.4471
32.7829 4681 68.4178
32.9002 4839 69.5629
33.0176 4875 69.8212
33.1349 4782 69.152
33.2522 4693 68.5055
33.3694 4918 70.1285
33.4867 4846 69.6132
33.6039 4845 69.606
33.7211 4702 68.5711
33.8383 4711 68.6367
33.9554 4692 68.4982
34.0725 4769 69.0579
34.1896 4932 70.2282
34.3067 5016 70.8237
34.4237 5115 71.5192
34.5407 5072 71.218
34.6577 5287 72.7118
34.7746 5135 71.6589
34.8915 5301 72.808
35.0084 5023 70.8731
35.1252 4921 70.1498
35.242 4934 70.2424
35.3587 4880 69.857
35.4755 4830 69.4982
35.5921 4574 67.6314
35.7088 4519 67.2235
35.8254 4404 66.3626
35.9419 4324 65.7571
36.0584 4193 64.7534
36.1749 4271 65.3529
36.2913 4227 65.0154
36.4077 4246 65.1613
36.524 4300 65.5744
36.6403 4298 65.5591
36.7565 4428 66.5432
36.8727 4560 67.5278
36.9889 4605 67.8602
37.1049 4554 67.4833
37.221 0 1
37.3369 0 1
37.4529 0 1
37.5687 0 1
37.6845 0 1
37.8003 0 1
37.916 0 1
38.0316 0 1
38.1472 0 1
40.5851 0 1
40.7008 0 1
40.8164 0 1
40.9322 0 1
41.048 0 1
41.1639 0 1
41.2798 0 1
41.3958 0 1
41.5118 0 1
41.6279 0 1
41.744 3134 55.9821
41.8602 3319 57.6108
41.9765 3442 58.6686
42.0928 3521 59.338
42.2091 3592 59.9333
42.3255 3569 59.7411
42.4419 3593 59.9416
42.5584 3410 58.3952
42.675 3450 58.7367
42.7915 3410 58.3952
42.9081 3554 59.6154
43.0248 3728 61.0574
43.1415 3650 60.4152
43.2582 3777 61.4573
43.375 3838 61.9516
43.4918 3896 62.4179
43.6087 3679 60.6548
43.7256 3749 61.2291
43.8425 3656 60.4649
43.9595 3560 59.6657
44.0765 3573 59.7746
44.1935 3566 59.716
44.3106 3453 58.7622
44.4277 3342 57.81
44.5448 3191 56.4889
44.6619 2957 54.3783
44.7791 2818 53.0848
44.8963 2787 52.792
45.0136 2712 52.0769
45.1308 2808 52.9906
45.2481 2784 52.7636
45.3654 2772 52.6498
45.4827 2898 53.8331
45.6001 2773 52.6593
45.7174 2830 53.1977
45.8348 2792 52.8394
45.9522 2858 53.4603
46.0697 2698 51.9423
46.1871 2731 52.259
46.3046 2608 51.0686
46.422 2524 50.2394
46.5395 2694 51.9038
46.657 2748 52.4214
46.7745 2794 52.8583
46.892 2785 52.7731
47.0096 2896 53.8145
47.1271 2907 53.9166
47.2446 2725 52.2015
47.3622 2816 53.066
47.4797 2761 52.5452
47.5973 2753 52.469
47.7149 2690 51.8652
47.8324 2601 51
47.95 2503 50.03
48.0675 2371 48.6929
48.1851 2100 45.8258
48.3027 2129 46.1411
48.4202 2111 45.9456
48.5378 2023 44.9778
48.6554 2057 45.3542
48.7729 2098 45.8039
48.8904 2089 45.7056
49.008 2251 47.4447
49.1255 2078 45.5851
49.243 2285 47.8017
49.3605 2176 46.6476
49.478 2107 45.9021
49.5955 2141 46.2709
49.713 2174 46.6262
49.8304 2133 46.1844
49.9479 2164 46.5188
50.0653 2319 48.156
50.1827 2473 49.7293
50.3001 2529 50.2892
50.4175 2576 50.7543
50.5348 2708 52.0384
50.6521 2739 52.3355
50.7694 2830 53.1977
50.8867 2787 52.792
51.004 2936 54.1849
51.1212 2942 54.2402
51.2384 2983 54.6168
51.3556 2927 54.1018
51.4727 2856 53.4416
51.5899 2699 51.9519
51.707 2602 51.0098
51.824 2572 50.7149
51.9411 2486 49.8598
52.0581 2533 50.3289
52.175 2623 51.2152
52.2919 2597 50.9608
52.4088 2703 51.9904
52.5257 2769 52.6213
52.6425 2902 53.8702
52.7593 2947 54.2863
52.876 2981 54.5985
52.9927 2958 54.3875
53.1094 3094 55.6237
53.226 2996 54.7357
53.3426 3019 54.9454
53.4591 3046 55.1906
53.5756 3116 55.8211
53.692 3536 59.4643
53.8084 3679 60.6548
53.9248 3826 61.8547
54.0411 3711 60.918
54.1573 3915 62.57
54.2735 0 1
54.3896 0 1
54.5057 0 1
54.6217 0 1
54.7377 0 1
54.8537 0 1
54.9695 0 1
55.0853 0 1
55.2011 0 1
55.3168 0 1
55.4324 0 1
57.824 0 1
57.9396 0 1
58.0553 0 1
58.1711 0 1
58.2869 0 1
58.4028 0 1
58.5187 0 1
58.6347 0 1
58.7508 0 1
58.8669 0 1
58.983 3992 63.1823
59.0992 4366 66.0757
59.2155 4611 67.9043
59.3318 4733 68.7968
59.4482 4742 68.8622
59.5646 4876 69.8284
59.681 4912 70.0857
59.7975 4881 69.8642
59.9141 4756 68.9638
60.0306 4500 67.082
60.1473 4422 66.4981
60.2639 4130 64.2651
60.3807 3781 61.4898
60.4974 3513 59.2706
60.6142 3352 57.8965
60.731 3288 57.3411
60.8479 3368 58.0345
60.9648 3301 57.4543
61.0818 3484 59.0254
61.1987 3454 58.7707
61.3158 3665 60.5392
61.4328 3583 59.8582
61.5499 3481 59
61.667 3490 59.0762
61.7841 3467 58.8812
61.9013 3480 58.9915
62.0185 3429 58.5577
62.1357 3483 59.0169
62.253 3819 61.7981
62.3702 3820 61.8061
62.4875 3995 63.206
62.6049 4064 63.7495
62.7222 4405 66.3702
62.8396 4390 66.2571
62.9569 4557 67.5056
63.0743 4483 66.9552
63.1918 4513 67.1789
63.3092 4379 66.174
63.4267 4180 64.6529
63.5441 4082 63.8905
63.6616 3914 62.562
63.7791 3580 59.8331
63.8966 3394 58.258
64.0142 3193 56.5066
64.1317 2978 54.5711
64.2492 2822 53.1225
64.3668 2905 53.8981
64.4843 2958 54.3875
64.6019 2949 54.3047
64.7195 3172 56.3205
64.837 3058 55.2992
64.9546 3090 55.5878
65.0722 3201 56.5774
65.1898 3112 55.7853
65.3074 3202 56.5862
65.4249 3062 55.3353
65.5425 3090 55.5878
65.6601 3221 56.7539
65.7777 3185 56.4358
65.8952 3434 58.6003
66.0128 3518 59.3127
66.1304 3783 61.5061
66.2479 3970 63.0079
66.3655 4147 64.3972
66.483 4110 64.1093
66.6005 4219 64.9538
66.718 4232 65.0538
66.8355 4170 64.5755
66.953 4093 63.9766
67.0705 3992 63.1823
67.1879 3721 61
67.3054 3485 59.0339
67.4228 3220 56.745
67.5402 2817 53.0754
67.6576 2863 53.507
67.7749 2697 51.9326
67.8923 2643 51.4101
68.0096 2660 51.5752
68.1269 2757 52.5071
68.2442 3026 55.0091
68.3614 3143 56.0625
68.4787 3231 56.8419
68.5958 3125 55.9017
68.713 3232 56.8507
68.8302 3182 56.4092
68.9473 3228 56.8155
69.0643 3118 55.8391
69.1814 3037 55.109
69.2984 3128 55.9285
69.4154 3283 57.2975
69.5323 3593 59.9416
69.6492 3846 62.0161
69.7661 4175 64.6142
69.8829 4331 65.8103
69.9997 4601 67.8307
70.1165 4645 68.1542
70.2332 4667 68.3154
70.3499 4551 67.4611
70.4665 4451 66.7158
70.5831 4492 67.0224
70.6996 4206 64.8537
70.8161 3856 62.0967
70.9326 3712 60.9262
71.049 3393 58.2495
71.1653 3176 56.356
71.2817 2975 54.5436
71.3979 2845 53.3385
71.5141 2662 51.5946
71.6303 2660 51.5752
71.7464 2548 50.4777
71.8624 0 1
71.9784 0 1
72.0944 0 1
72.2102 0 1
72.3261 0 1
72.4418 0 1
72.5575 0 1
72.6732 0 1
75.1054 0 1
75.2209 0 1
75.3365 0 1
75.4521 0 1
75.5678 0 1
75.6835 0 1
75.7993 0 1
75.9151 0 1
76.031 0 1
76.147 3564 59.6992
76.263 3774 61.4329
76.3791 3528 59.397
76.4952 3307 57.5065
76.6113 3234 56.8683
76.7276 3000 54.7723
76.8438 2964 54.4426
76.9601 2841 53.301
77.0765 2890 53.7587
77.1929 3053 55.254
77.3093 3340 57.7927
77.4258 3615 60.1249
77.5423 3555 59.6238
77.6589 3476 58.9576
77.7755 3481 59
77.8921 3422 58.4979
78.0088 3298 57.4282
78.1256 3164 56.2494
78.2423 3220 56.745
78.3591 3166 56.2672
78.4759 3254 57.0438
78.5928 3566 59.716
78.7097 3955 62.8888
78.8266 4076 63.8436
78.9436 4513 67.1789
79.0606 4403 66.3551
79.1776 4595 67.7864
79.2946 4485 66.9701
79.4117 4455 66.7458
79.5288 4518 67.2161
79.6459 4307 65.6277
79.7631 4038 63.5453
79.8802 3732 61.0901
79.9974 3482 59.0085
80.1147 3239 56.9122
80.2319 2993 54.7083
80.3491 2794 52.8583
80.4664 2732 52.2685
80.5837 2682 51.788
80.701 2619 51.1762
80.8183 2772 52.6498
80.9357 2994 54.7175
81.053 3215 56.701
81.1704 3146 56.0892
81.2877 2996 54.7357
81.4051 2956 54.3691
81.5225 2916 54
81.6399 2943 54.2494
81.7573 2846 53.3479
81.8747 2695 51.9134
81.9922 2682 51.788
82.1096 2827 53.1695
82.227 3094 55.6237
82.3444 3361 57.9741
82.4619 3638 60.3158
82.5793 3803 61.6685
82.6967 3866 62.1772
82.8142 3885 62.3298
82.9316 3934 62.7216
83.049 3929 62.6817
83.1664 3620 60.1664
83.2838 3593 59.9416
83.4012 3216 56.7098
83.5186 3119 55.848
83.636 2855 53.4322
83.7534 2706 52.0192
83.8708 2598 50.9706
83.9881 2404 49.0306
84.1055 2339 48.3632
84.2228 2327 48.239
84.3401 2392 48.9081
84.4575 2524 50.2394
84.5747 2777 52.6972
84.692 2970 54.4977
84.8093 3030 55.0454
84.9265 2930 54.1295
85.0437 2809 53
85.1609 2775 52.6783
85.2781 2609 51.0784
85.3952 2560 50.5964
85.5123 2603 51.0196
85.6294 2698 51.9423
85.7465 2950 54.3139
85.8636 3244 56.9561
85.9806 3713 60.9344
86.0976 3689 60.7371
86.2145 4022 63.4192
86.3315 4231 65.0461
86.4484 4264 65.2993
86.5652 4381 66.1891
86.682 4363 66.053
86.7988 4244 65.146
86.9156 4101 64.0391
87.0323 3712 60.9262
87.149 3529 59.4054
87.2657 3501 59.1692
87.3823 3336 57.7581
87.4988 3001 54.7814
87.6154 2907 53.9166
87.7318 2929 54.1202
87.8483 3058 55.2992
87.9647 3245 56.9649
88.081 3458 58.8048
88.1973 3713 60.9344
88.3136 3825 61.8466
88.4298 3781 61.4898
88.546 3720 60.9918
88.6621 3716 60.959
88.7781 3647 60.3904
88.8942 0 1
89.0101 0 1
89.126 0 1
89.2419 0 1
89.3577 0 1
89.4734 0 1
89.5891 0 1
89.7047 0 1
89.8203 0 1
89.9358 0 1
92.3269 0 1
92.4424 0 1
92.558 0 1
92.6736 0 1
92.7893 0 1
92.905 0 1
93.0208 0 1
93.1366 0 1
93.2525 0 1
93.3685 0 1
93.4845 0 1
93.6005 8746 93.5201
93.7167 9598 97.9694
93.8328 10330 101.637
93.949 11020 104.976
94.0653 11769 108.485
94.1816 12018 109.627
94.2979 11998 109.535
94.4143 12320 110.995
94.5307 12372 111.229
94.6472 12745 112.894
94.7637 13565 116.469
94.8803 15355 123.915
94.9969 17243 131.313
95.1135 19063 138.069
95.2302 20646 143.687
95.3469 21866 147.872
95.4637 23363 152.85
95.5805 24587 156.802
95.6973 25402 159.38
95.8142 26259 162.046
95.9311 26509 162.816
96.048 26630 163.187
96.1649 26615 163.141
96.2819 26610 163.126
96.3989 26188 161.827
96.516 25709 160.34
96.633 24606 156.863
96.7501 24028 155.01
96.8673 24146 155.39
96.9844 25174 158.663
97.1016 26233 161.966
97.2188 28089 167.598
97.336 29532 171.849
97.4532 30673 175.137
97.5704 30557 174.806
97.6877 30319 174.124
97.805 29412 171.499
97.9223 28241 168.051
98.0396 25486 159.643
98.1569 23662 153.825
98.2743 22110 148.694
98.3916 21747 147.469
98.509 22973 151.568
98.6264 25418 159.43
98.7438 27304 165.239
98.8612 28590 169.086
98.9786 29483 171.706
99.096 30004 173.217
99.2134 30743 175.337
99.3308 30699 175.211
99.4482 31043 176.19
99.5656 30332 174.161
99.6831 30124 173.563
99.8005 28730 169.499
99.9179 28753 169.567
100.035 27342 165.354
100.153 26819 163.765
100.27 25231 158.843
100.388 24601 156.847
100.505 24532 156.627
100.622 25737 160.428
100.74 27328 165.312
100.857 28553 168.976
100.975 29439 171.578
101.092 29286 171.132
101.209 28970 170.206
101.327 28665 169.307
101.444 27986 167.29
101.561 25850 160.779
101.679 23722 154.019
101.796 21289 145.908
101.913 20213 142.172
102.03 20280 142.408
102.148 22015 148.375
102.265 26056 161.419
102.382 23670 153.851
102.499 25881 160.876
102.616 26087 161.515
102.733 26024 161.32
102.851 25920 160.997
102.968 25545 159.828
103.085 24012 154.958
103.202 23193 152.292
103.319 22161 148.866
103.436 20958 144.769
103.552 19317 138.986
103.669 17594 132.642
103.786 16247 127.464
103.903 15225 123.39
104.02 14437 120.154
104.137 14044 118.507
104.253 14103 118.756
104.37 13256 115.135
104.487 13526 116.301
104.603 12715 112.761
104.72 11819 108.715
104.836 10729 103.581
104.953 10025 100.125
105.069 8669 93.1075
105.186 7613 87.2525
105.302 7088 84.1903
105.418 6439 80.2434
105.535 6362 79.7621
105.651 6831 82.6499
105.767 7345 85.703
105.883 7751 88.0398
105.999 7548 86.8792
106.115 0 1
106.231 0 1
106.347 0 1
106.463 0 1
106.579 0 1
106.694 0 1
106.81 0 1
106.926 0 1
107.041 0 1
107.157 0 1
109.576 0 1
109.692 0 1
109.807 0 1
109.923 0 1
110.039 0 1
110.155 0 1
110.27 0 1
110.386 0 1
110.502 0 1
110.618 4284 65.4523
110.735 4824 69.455
110.851 5431 73.6953
110.967 5533 74.3841
111.083 5860 76.5506
111.199 5927 76.987
111.316 6031 77.6595
111.432 6113 78.1857
111.549 6080 77.9744
111.665 5873 76.6355
111.782 5539 74.4245
111.898 5227 72.298
112.015 5057 71.1126
112.132 4714 68.6586
112.248 4507 67.1342
112.365 4220 64.9615
112.482 4035 63.5216
112.599 3896 62.4179
112.716 4004 63.2772
112.832 4054 63.671
112.949 4132 64.2806
113.066 4304 65.6049
113.183 4208 64.8691
113.3 4154 64.4515
113.417 3937 62.7455
113.534 3939 62.7615
113.652 3814 61.7576
113.769 3840 61.9677
113.886 3886 62.3378
114.003 3900 62.45
114.12 4172 64.591
114.238 4702 68.5711
114.355 4952 70.3704
114.472 5498 74.1485
114.589 5177 71.9514
114.707 5555 74.5319
114.824 5666 75.2728
114.942 5780 76.0263
115.059 5768 75.9474
115.176 5502 74.1755
115.294 5266 72.5672
115.411 5025 70.8872
115.529 4925 70.1783
115.646 4692 68.4982
115.764 4513 67.1789
115.881 4315 65.6887
115.999 4186 64.6993
116.116 4026 63.4508
116.234 3957 62.9047
116.351 3963 62.9524
116.469 4163 64.5213
116.586 4249 65.1844
116.704 4166 64.5446
116.821 4111 64.1171
116.939 4029 63.4744
117.056 4081 63.8827
117.174 4187 64.707
117.291 3997 63.2218
117.409 4217 64.9384
117.526 4351 65.9621
117.644 4654 68.2202
117.761 5028 70.9084
117.879 5466 73.9324
117.996 5765 75.9276
118.114 6036 77.6917
118.231 6076 77.9487
118.349 6207 78.7845
118.466 6293 79.3284
118.584 6305 79.404
118.701 6303 79.3914
118.819 6007 77.5048
118.936 5946 77.1103
119.053 5479 74.0203
119.171 5443 73.7767
119.288 5061 71.1407
119.405 5114 71.5122
119.523 4813 69.3758
119.64 4485 66.9701
119.757 4409 66.4003
119.875 4354 65.9848
119.992 4346 65.9242
120.109 4463 66.8057
120.226 4400 66.3325
120.343 4329 65.7951
120.46 4229 65.0308
120.578 4176 64.622
120.695 4300 65.5744
120.812 4473 66.8805
120.929 4401 66.34
121.046 4520 67.2309
121.163 4702 68.5711
121.279 4816 69.3974
121.396 4974 70.5266
121.513 5365 73.2462
121.63 5630 75.0333
121.747 5845 76.4526
121.863 6021 77.5951
121.98 6203 78.7591
122.097 6230 78.9303
122.213 6135 78.3262
122.33 6214 78.8289
122.446 5873 76.6355
122.563 5621 74.9733
122.679 5673 75.3193
122.795 5406 73.5255
122.912 5280 72.6636
123.028 5249 72.45
123.144 4955 70.3918
123.26 4562 67.5426
123.377 0 1
123.493 0 1
123.609 0 1
123.725 0 1
123.84 0 1
123.956 0 1
124.072 0 1
124.188 0 1
124.303 0 1
124.419 0 1
126.852 0 1
126.968 0 1
127.083 0 1
127.199 0 1
127.315 0 1
127.431 0 1
127.547 0 1
127.663 0 1
127.779 0 1
127.895 0 1
128.011 0 1
128.127 0 1
128.243 0 1
128.359 5567 74.6123
128.476 5323 72.9589
128.592 5061 71.1407
128.708 4957 70.406
128.825 4744 68.8767
128.941 4929 70.2068
129.058 5034 70.9507
129.174 5070 71.2039
129.291 4996 70.6824
129.408 4861 69.7209
129.524 4864 69.7424
129.641 4859 69.7065
129.758 4919 70.1356
129.875 5000 70.7107
129.992 4919 70.1356
130.108 4970 70.4982
130.225 5012 70.7955
130.342 5141 71.7008
130.459 5449 73.8173
130.576 5802 76.1709
130.693 5854 76.5114
130.81 6047 77.7625
130.928 5985 77.3628
131.045 5910 76.8765
131.162 5997 77.4403
131.279 5864 76.5768
131.396 5805 76.1906
131.513 5663 75.2529
131.631 5473 73.9797
131.748 5261 72.5328
131.865 5111 71.4913
131.983 4956 70.3989
132.1 4720 68.7023
132.217 4633 68.0661
132.335 4492 67.0224
132.452 4505 67.1193
132.57 4429 66.5507
132.687 4478 66.9179
132.804 4583 67.6979
132.922 4387 66.2344
133.039 4366 66.0757
133.157 4509 67.1491
133.274 4477 66.9104
133.392 4450 66.7083
133.509 4275 65.3835
133.627 4376 66.1513
133.744 4264 65.2993
133.862 4379 66.174
133.979 4685 68.4471
134.097 4902 70.0143
134.214 4895 69.9643
134.332 4926 70.1855
134.449 4950 70.3562
134.567 5065 71.1688
134.684 5131 71.631
134.802 5035 70.9577
134.919 5143 71.7147
135.037 5121 71.5612
135.154 5039 70.9859
135.272 4850 69.6419
135.389 4837 69.5485
135.507 4809 69.347
135.624 4531 67.3127
135.742 4504 67.1118
135.859 4538 67.3647
135.977 4491 67.0149
136.094 4511 67.164
136.211 4493 67.0298
136.329 4497 67.0597
136.446 4506 67.1267
136.564 4444 66.6633
136.681 4500 67.082
136.798 4486 66.9776
136.915 4500 67.082
137.033 4384 66.2118
137.15 4513 67.1789
137.267 4394 66.2873
137.384 4462 66.7982
137.502 4580 67.6757
137.619 4604 67.8528
137.736 4781 69.1448
137.853 4811 69.3614
137.97 4940 70.2851
138.087 4862 69.728
138.204 5119 71.5472
138.321 5209 72.1734
138.438 5075 71.239
138.555 5371 73.2871
138.672 5103 71.4353
138.788 5208 72.1665
138.905 5116 71.5262
139.022 5047 71.0422
139.139 4911 70.0785
139.255 4882 69.8713
139.372 4714 68.6586
139.488 4599 67.8159
139.605 4705 68.593
139.721 4655 68.2276
139.838 4714 68.6586
139.954 4555 67.4907
140.071 4631 68.0515
140.187 4711 68.6367
140.303 4527 67.283
140.419 4629 68.0368
140.535 4530 67.3053
140.652 4381 66.1891
140.768 0 1
140.884 0 1
141 0 1
141.115 0 1
141.231 0 1
141.347 0 1
141.463 0 1
141.578 0 1
141.694 0 1
144.104 0 1
144.219 0 1
144.335 0 1
144.45 0 1
144.566 0 1
144.682 0 1
144.798 0 1
144.914 0 1
145.03 0 1
145.146 4031 63.4902
145.262 4110 64.1093
145.378 4124 64.2184
145.494 4229 65.0308
145.61 4126 64.2339
145.726 4084 63.9062
145.842 4002 63.2614
145.959 3913 62.554
146.075 3998 63.2297
146.192 4117 64.1639
146.308 4199 64.7997
146.425 4285 65.4599
146.541 4398 66.3174
146.658 4477 66.9104
146.774 4591 67.7569
146.891 4576 67.6461
147.008 4541 67.3869
147.125 4736 68.8186
147.241 4678 68.3959
147.358 4855 69.6778
147.475 4533 67.3276
147.592 4574 67.6314
147.709 4413 66.4304
147.826 4285 65.4599
147.943 4402 66.3476
148.06 4157 64.4748
148.177 4106 64.0781
148.294 4156 64.467
148.411 4075 63.8357
148.528 4184 64.6838
148.645 4258 65.2534
148.762 4153 64.4438
148.88 4100 64.0312
148.997 4135 64.304
149.114 4326 65.7723
149.231 4234 65.0692
149.349 4077 63.8514
149.466 3918 62.5939
149.583 4014 63.3561
149.701 3824 61.8385
149.818 4012 63.3404
149.935 4158 64.4826
150.053 4157 64.4748
150.17 4355 65.9924
150.287 4389 66.2495
150.405 4416 66.453
150.522 4464 66.8132
150.64 4629 68.0368
150.757 4565 67.5648
150.875 4536 67.3498
150.992 4636 68.0882
151.11 4497 67.0597
151.227 4492 67.0224
151.344 4440 66.6333
151.462 4311 65.6582
151.579 4283 65.4446
151.697 4099 64.0234
151.814 4189 64.7225
151.932 4172 64.591
152.049 4176 64.622
152.167 4248 65.1767
152.284 4275 65.3835
152.402 4248 65.1767
152.519 4253 65.215
152.636 4180 64.6529
152.754 4222 64.9769
152.871 4142 64.3584
152.989 4157 64.4748
153.106 4146 64.3894
153.223 4174 64.6065
153.341 4168 64.56
153.458 4191 64.7379
153.575 4292 65.5134
153.693 4519 67.2235
153.81 4761 69
153.927 4788 69.1954
154.044 5032 70.9366
154.162 4961 70.4344
154.279 5277 72.643
154.396 5416 73.5935
154.513 5436 73.7292
154.63 5484 74.054
154.747 5545 74.4648
154.864 5403 73.5051
154.981 5451 73.8309
155.098 5408 73.5391
155.215 5191 72.0486
155.332 5199 72.1041
155.449 5075 71.239
155.566 5031 70.9295
155.683 5040 70.993
155.8 5147 71.7426
155.917 5034 70.9507
156.033 5084 71.3022
156.15 0 1
156.267 0 1
156.383 0 1
156.5 0 1
156.617 0 1
156.733 0 1
156.85 0 1
156.966 0 1
157.082 0 1
157.199 0 1
157.315 0 1
157.431 0 1
157.547 0 1
157.664 0 1
157.78 0 1
157.896 0 1
158.012 0 1
158.128 0 1
158.244 0 1
158.359 0 1
158.475 0 1
158.591 0 1
158.706 0 1
