
6.15755 0 1
6.2731 0 1
6.3887 0 1
6.50437 0 1
6.62009 0 1
6.73587 0 1
6.8517 0 1
6.96759 0 1
7.08353 0 1
7.19952 0 1
7.31557 0 1
7.43166 0 1
7.54781 0 1
7.664 0 1
7.78024 0 1
7.89653 0 1
8.01286 0 1
8.12924 0 1
8.24567 0 1
8.36213 0 1
8.47864 0 1
8.59519 0 1
8.71178 0 1
8.82841 0 1
8.94508 0 1
9.06179 0 1
9.17853 0 1
9.29531 0 1
9.41212 0 1
9.52897 0 1
9.64584 0 1
9.76276 0 1
9.8797 0 1
9.99667 0 1
10.1137 0 1
10.2307 0 1
10.3478 0 1
10.4648 0 1
10.5819 0 1
10.6991 0 1
10.8162 0 1
10.9334 0 1
11.0506 0 1
11.1678 0 1
11.285 0 1
11.4023 0 1
11.5196 0 1
11.6369 0 1
11.7542 0 1
11.8715 0 1
11.9888 0 1
12.1062 0 1
12.2235 0 1
12.3409 0 1
12.4582 0 1
12.5756 0 1
12.693 0 1
12.8104 0 1
12.9278 0 1
13.0452 0 1
13.1626 0 1
13.28 0 1
13.3974 0 1
13.5149 0 1
13.6323 0 1
13.7497 0 1
13.8671 0 1
13.9845 0 1
14.1019 0 1
14.2193 0 1
14.3367 0 1
14.4541 0 1
14.5714 0 1
14.6888 0 1
14.8062 0 1
14.9235 0 1
15.0408 0 0
15.1581 0 0
15.2755 0 0
15.3927 0 0
15.51 0 0
15.6273 0 0
15.7445 0 0
15.8617 0 0
15.9789 0 0
16.0961 0 0
16.2132 0 0
16.3304 0 0
16.4475 0 0
16.5646 0 0
16.6816 0 0
16.7986 0 0
16.9156 0 0
17.0326 0 0
17.1496 0 0
17.2665 0 0
17.3833 0 0
17.5002 0 0
17.617 0 0
17.7338 0 0
17.8505 0 0
17.9672 0 0
18.0839 0 0
18.2005 0 0
18.3171 0 0
18.4337 0 0
18.5502 0 0
18.6666 0 0
18.7831 0 0
18.8994 0 0
19.0158 0 0
19.1321 0 0
19.2483 0 0
19.3645 0 0
19.4806 0 0
19.5967 0 0
19.7128 0 0
19.8288 0 0
19.9447 0 0
20.0606 0 1
20.1764 0 1
20.2922 0 1
20.4079 0 1
20.5236 0 1
20.6392 0 1
20.7548 0 1
20.8702 0 1
23.3078 0 1
23.4233 0 1
23.539 0 1
23.6547 0 1
23.7704 0 1
23.8862 0 1
24.0021 0 1
24.118 0 1
24.234 0 1
24.35 0 1
24.4661 5462 73.9053
24.5822 5687 75.4122
24.6984 5669 75.2928
24.8146 5846 76.4591
24.9309 5990 77.3951
25.0472 5718 75.6175
25.1636 5975 77.2981
25.28 5978 77.3175
25.3965 6028 77.6402
25.513 6129 78.2879
25.6296 6171 78.5557
25.7462 6012 77.5371
25.8628 5746 75.8024
25.9795 5803 76.1774
26.0962 5725 75.6637
26.213 5616 74.94
26.3298 5488 74.081
26.4466 5463 73.9121
26.5635 5309 72.8629
26.6804 5487 74.0743
26.7973 5472 73.973
26.9143 5256 72.4983
27.0313 4933 70.2353
27.1483 4817 69.4046
27.2653 4721 68.7095
27.3824 4763 69.0145
27.4996 4761 69
27.6167 5074 71.232
27.7339 5281 72.6705
27.8511 5532 74.3774
27.9683 5797 76.138
28.0855 5856 76.5245
28.2028 5887 76.7268
28.3201 5753 75.8485
28.4374 5827 76.3348
28.5547 5645 75.1332
28.6721 5635 75.0666
28.7894 5626 75.0067
28.9068 5530 74.364
29.0242 5525 74.3303
29.1416 5308 72.856
29.259 5367 73.2598
29.3764 5203 72.1318
29.4939 5233 72.3395
29.6113 5230 72.3187
29.7288 5223 72.2703
29.8463 5215 72.215
29.9638 5299 72.7942
30.0812 5291 72.7393
30.1987 5311 72.8766
30.3162 5279 72.6567
30.4337 5325 72.9726
30.5512 5111 71.4913
30.6687 4846 69.6132
30.7862 4713 68.6513
30.9037 4784 69.1665
31.0212 5224 72.2772
31.1387 5573 74.6525
31.2562 5789 76.0855
31.3737 5961 77.2075
31.4912 5849 76.4788
31.6087 6077 77.9551
31.7262 5841 76.4264
31.8436 5743 75.7826
31.9611 5668 75.2861
32.0785 5633 75.0533
32.1959 5399 73.4779
32.3134 5410 73.5527
32.4308 5298 72.7874
32.5482 5298 72.7874
32.6655 5056 71.1056
32.7829 5093 71.3653
32.9002 5142 71.7077
33.0176 5049 71.0563
33.1349 4988 70.6258
33.2522 4815 69.3902
33.3694 5076 71.2461
33.4867 5102 71.4283
33.6039 5066 71.1758
33.7211 5422 73.6342
33.8383 5393 73.437
33.9554 5530 74.364
34.0725 5346 73.1163
34.1896 5296 72.7736
34.3067 5101 71.4213
34.4237 5045 71.0282
34.5407 4778 69.1231
34.6577 4917 70.1213
34.7746 5025 70.8872
34.8915 5314 72.8972
35.0084 5323 72.9589
35.1252 5342 73.089
35.242 5360 73.212
35.3587 5362 73.2257
35.4755 5247 72.4362
35.5921 5253 72.4776
35.7088 5269 72.5879
35.8254 5283 72.6842
35.9419 5202 72.1249
36.0584 5126 71.5961
36.1749 4952 70.3704
36.2913 4986 70.6116
36.4077 4919 70.1356
36.524 4913 70.0928
36.6403 4866 69.7567
36.7565 4870 69.7854
36.8727 4955 70.3918
36.9889 4805 69.3181
37.1049 4879 69.8498
37.221 0 1
37.3369 0 1
37.4529 0 1
37.5687 0 1
37.6845 0 1
37.8003 0 1
37.916 0 1
38.0316 0 1
38.1472 0 1
40.5851 0 1
40.7008 0 1
40.8164 0 1
40.9322 0 1
41.048 0 1
41.1639 0 1
41.2798 0 1
41.3958 0 1
41.5118 0 1
41.6279 0 1
41.744 4217 64.9384
41.8602 4337 65.8559
41.9765 4396 66.3023
42.0928 4417 66.4605
42.2091 4431 66.5658
42.3255 4433 66.5808
42.4419 4435 66.5958
42.5584 4401 66.34
42.675 4432 66.5733
42.7915 4516 67.2012
42.9081 4177 64.6297
43.0248 3996 63.2139
43.1415 3801 61.6523
43.2582 3594 59.95
43.375 3546 59.5483
43.4918 3663 60.5227
43.6087 3822 61.8223
43.7256 4044 63.5925
43.8425 3987 63.1427
43.9595 4174 64.6065
44.0765 4098 64.0156
44.1935 4088 63.9375
44.3106 4184 64.6838
44.4277 4152 64.436
44.5448 4110 64.1093
44.6619 3969 63
44.7791 3937 62.7455
44.8963 3971 63.0159
45.0136 3939 62.7615
45.1308 3892 62.3859
45.2481 3955 62.8888
45.3654 3901 62.458
45.4827 3953 62.8729
45.6001 3934 62.7216
45.7174 3716 60.959
45.8348 3698 60.8112
45.9522 3700 60.8276
46.0697 3569 59.7411
46.1871 3486 59.0424
46.3046 3452 58.7537
46.422 3418 58.4637
46.5395 3295 57.4021
46.657 3158 56.1961
46.7745 2906 53.9073
46.892 2718 52.1344
47.0096 2782 52.7447
47.1271 2861 53.4883
47.2446 2992 54.6992
47.3622 2924 54.074
47.4797 2987 54.6535
47.5973 2946 54.2771
47.7149 2948 54.2955
47.8324 2973 54.5252
47.95 2906 53.9073
48.0675 2889 53.7494
48.1851 2827 53.1695
48.3027 2857 53.4509
48.4202 2764 52.5738
48.5378 2965 54.4518
48.6554 3077 55.4707
48.7729 2981 54.5985
48.8904 3084 55.5338
49.008 2892 53.7773
49.1255 3149 56.116
49.243 3024 54.9909
49.3605 3055 55.2721
49.478 3095 55.6327
49.5955 3228 56.8155
49.713 3070 55.4076
49.8304 3050 55.2268
49.9479 3189 56.4712
50.0653 3179 56.3826
50.1827 3053 55.254
50.3001 2793 52.8488
50.4175 2545 50.448
50.5348 2550 50.4975
50.6521 2924 54.074
50.7694 3216 56.7098
50.8867 3331 57.7148
51.004 3424 58.515
51.1212 3634 60.2827
51.2384 3703 60.8523
51.3556 3921 62.6179
51.4727 3898 62.434
51.5899 3878 62.2736
51.707 3984 63.1189
51.824 4072 63.8122
51.9411 4006 63.293
52.0581 3984 63.1189
52.175 4079 63.867
52.2919 4169 64.5678
52.4088 4216 64.9307
52.5257 4397 66.3099
52.6425 4244 65.146
52.7593 4236 65.0846
52.876 4360 66.0303
52.9927 4267 65.3223
53.1094 4288 65.4828
53.226 4311 65.6582
53.3426 4330 65.8027
53.4591 4422 66.4981
53.5756 4222 64.9769
53.692 4207 64.8614
53.8084 4131 64.2729
53.9248 3813 61.7495
54.0411 3505 59.203
54.1573 3490 59.0762
54.2735 0 1
54.3896 0 1
54.5057 0 1
54.6217 0 1
54.7377 0 1
54.8537 0 1
54.9695 0 1
55.0853 0 1
55.2011 0 1
55.3168 0 1
55.4324 0 1
57.824 0 1
57.9396 0 1
58.0553 0 1
58.1711 0 1
58.2869 0 1
58.4028 0 1
58.5187 0 1
58.6347 0 1
58.7508 0 1
58.8669 0 1
58.983 4696 68.5274
59.0992 4444 66.6633
59.2155 4270 65.3452
59.3318 4307 65.6277
59.4482 4480 66.9328
59.5646 4785 69.1737
59.681 5020 70.852
59.7975 5108 71.4703
59.9141 5147 71.7426
60.0306 5168 71.8888
60.1473 5321 72.9452
60.2639 5321 72.9452
60.3807 5236 72.3602
60.4974 5347 73.1232
60.6142 5157 71.8123
60.731 5266 72.5672
60.8479 5294 72.7599
60.9648 5193 72.0625
61.0818 5284 72.6911
61.1987 5294 72.7599
61.3158 5413 73.5731
61.4328 5240 72.3878
61.5499 5200 72.111
61.667 5243 72.4086
61.7841 5161 71.8401
61.9013 5064 71.1618
62.0185 5211 72.1873
62.1357 5187 72.0208
62.253 5187 72.0208
62.3702 4932 70.2282
62.4875 4589 67.7422
62.6049 4424 66.5132
62.7222 4326 65.7723
62.8396 4404 66.3626
62.9569 4619 67.9632
63.0743 4857 69.6922
63.1918 4707 68.6076
63.3092 4956 70.3989
63.4267 4932 70.2282
63.5441 4839 69.5629
63.6616 5000 70.7107
63.7791 5013 70.8025
63.8966 4953 70.3776
64.0142 5038 70.9789
64.1317 4975 70.5337
64.2492 4947 70.3349
64.3668 5076 71.2461
64.4843 4963 70.4486
64.6019 5075 71.239
64.7195 5037 70.9718
64.837 5008 70.7672
64.9546 4886 69.8999
65.0722 4885 69.8928
65.1898 5040 70.993
65.3074 5009 70.7743
65.4249 4888 69.9142
65.5425 4891 69.9357
65.6601 5102 71.4283
65.7777 4882 69.8713
65.8952 4813 69.3758
66.0128 4579 67.6683
66.1304 4201 64.8151
66.2479 4062 63.7338
66.3655 4029 63.4744
66.483 4103 64.0547
66.6005 4510 67.1565
66.718 4571 67.6092
66.8355 4481 66.9403
66.953 4931 70.2211
67.0705 4755 68.9565
67.1879 4891 69.9357
67.3054 4969 70.4911
67.4228 4921 70.1498
67.5402 4820 69.4262
67.6576 4880 69.857
67.7749 4904 70.0286
67.8923 4952 70.3704
68.0096 5001 70.7177
68.1269 4941 70.2922
68.2442 5041 71
68.3614 4986 70.6116
68.4787 4961 70.4344
68.5958 5057 71.1126
68.713 4873 69.8069
68.8302 4957 70.406
68.9473 5061 71.1407
69.0643 4999 70.7036
69.1814 4958 70.4131
69.2984 4882 69.8713
69.4154 4952 70.3704
69.5323 4712 68.644
69.6492 4881 69.8642
69.7661 4639 68.1102
69.8829 4320 65.7267
69.9997 4170 64.5755
70.1165 4163 64.5213
70.2332 4527 67.283
70.3499 4597 67.8012
70.4665 4573 67.624
70.5831 4759 68.9855
70.6996 4855 69.6778
70.8161 4997 70.6895
70.9326 4818 69.4118
71.049 4953 70.3776
71.1653 4842 69.5845
71.2817 4871 69.7925
71.3979 4871 69.7925
71.5141 4856 69.685
71.6303 4739 68.8404
71.7464 4444 66.6633
71.8624 0 1
71.9784 0 1
72.0944 0 1
72.2102 0 1
72.3261 0 1
72.4418 0 1
72.5575 0 1
72.6732 0 1
75.1054 0 1
75.2209 0 1
75.3365 0 1
75.4521 0 1
75.5678 0 1
75.6835 0 1
75.7993 0 1
75.9151 0 1
76.031 0 1
76.147 4259 65.261
76.263 4732 68.7895
76.3791 4748 68.9057
76.4952 4762 69.0072
76.6113 4673 68.3593
76.7276 4755 68.9565
76.8438 4796 69.2532
76.9601 4968 70.484
77.0765 4817 69.4046
77.1929 5031 70.9295
77.3093 4934 70.2424
77.4258 4855 69.6778
77.5423 4923 70.1641
77.6589 5115 71.5192
77.7755 4993 70.6612
77.8921 4964 70.4557
78.0088 4995 70.6753
78.1256 4930 70.214
78.2423 4925 70.1783
78.3591 4833 69.5198
78.4759 4766 69.0362
78.5928 4816 69.3974
78.7097 4719 68.695
78.8266 4510 67.1565
78.9436 3902 62.466
79.0606 3676 60.63
79.1776 3605 60.0417
79.2946 4100 64.0312
79.4117 4326 65.7723
79.5288 4541 67.3869
79.6459 4524 67.2607
79.7631 4593 67.7717
79.8802 4748 68.9057
79.9974 4764 69.0217
80.1147 4856 69.685
80.2319 4833 69.5198
80.3491 4813 69.3758
80.4664 4829 69.491
80.5837 4994 70.6682
80.701 4963 70.4486
80.8183 4859 69.7065
80.9357 5010 70.7814
81.053 4954 70.3847
81.1704 5008 70.7672
81.2877 5145 71.7287
81.4051 4946 70.3278
81.5225 4868 69.7711
81.6399 4860 69.7137
81.7573 4922 70.157
81.8747 4718 68.6877
81.9922 4795 69.2459
82.1096 4816 69.3974
82.227 4817 69.4046
82.3444 4664 68.2935
82.4619 4518 67.2161
82.5793 4059 63.7103
82.6967 3931 62.6977
82.8142 3734 61.1065
82.9316 4055 63.6789
83.049 4251 65.1997
83.1664 4326 65.7723
83.2838 4313 65.6734
83.4012 4434 66.5883
83.5186 4666 68.3081
83.636 4625 68.0074
83.7534 4711 68.6367
83.8708 4723 68.7241
83.9881 4725 68.7386
84.1055 4806 69.3253
84.2228 4830 69.4982
84.3401 4859 69.7065
84.4575 4760 68.9928
84.5747 4728 68.7605
84.692 4826 69.4694
84.8093 4851 69.6491
84.9265 5009 70.7743
85.0437 4871 69.7925
85.1609 4851 69.6491
85.2781 4748 68.9057
85.3952 4898 69.9857
85.5123 4854 69.6707
85.6294 4846 69.6132
85.7465 4781 69.1448
85.8636 4863 69.7352
85.9806 4605 67.8602
86.0976 4611 67.9043
86.2145 4101 64.0391
86.3315 3921 62.6179
86.4484 4110 64.1093
86.5652 4442 66.6483
86.682 4645 68.1542
86.7988 4616 67.9412
86.9156 4773 69.0869
87.0323 4796 69.2532
87.149 4820 69.4262
87.2657 4861 69.7209
87.3823 4992 70.6541
87.4988 5011 70.7884
87.6154 5028 70.9084
87.7318 5084 71.3022
87.8483 5185 72.0069
87.9647 5283 72.6842
88.081 5181 71.9792
88.1973 5140 71.6938
88.3136 5233 72.3395
88.4298 5125 71.5891
88.546 5219 72.2426
88.6621 5151 71.7705
88.7781 4803 69.3037
88.8942 0 1
89.0101 0 1
89.126 0 1
89.2419 0 1
89.3577 0 1
89.4734 0 1
89.5891 0 1
89.7047 0 1
89.8203 0 1
89.9358 0 1
92.3269 0 1
92.4424 0 1
92.558 0 1
92.6736 0 1
92.7893 0 1
92.905 0 1
93.0208 0 1
93.1366 0 1
93.2525 0 1
93.3685 0 1
93.4845 0 1
93.6005 4999 70.7036
93.7167 4948 70.342
93.8328 5078 71.2601
93.949 5101 71.4213
94.0653 5109 71.4773
94.1816 5027 70.9013
94.2979 5000 70.7107
94.4143 5066 71.1758
94.5307 5094 71.3723
94.6472 4913 70.0928
94.7637 4888 69.9142
94.8803 5001 70.7177
94.9969 5049 71.0563
95.1135 4843 69.5917
95.2302 4744 68.8767
95.3469 4482 66.9477
95.4637 4326 65.7723
95.5805 4155 64.4593
95.6973 4319 65.7191
95.8142 4600 67.8233
95.9311 4673 68.3593
96.048 4777 69.1158
96.1649 4981 70.5762
96.2819 5184 72
96.3989 5148 71.7496
96.516 5415 73.5867
96.633 5474 73.9865
96.7501 5437 73.736
96.8673 5386 73.3894
96.9844 5341 73.0821
97.1016 5557 74.5453
97.2188 5480 74.027
97.336 5579 74.6927
97.4532 5498 74.1485
97.5704 5733 75.7166
97.6877 5523 74.3169
97.805 5630 75.0333
97.9223 5408 73.5391
98.0396 5525 74.3303
98.1569 5527 74.3438
98.2743 5398 73.4711
98.3916 5364 73.2393
98.509 5350 73.1437
98.6264 5355 73.1779
98.7438 5212 72.1942
98.8612 5127 71.6031
98.9786 4979 70.562
99.096 4750 68.9202
99.2134 4508 67.1416
99.3308 4606 67.8675
99.4482 4914 70.0999
99.5656 5085 71.3092
99.6831 5165 71.8679
99.8005 5120 71.5542
99.9179 5268 72.581
100.035 5514 74.2563
100.153 5562 74.5788
100.27 5304 72.8286
100.388 5439 73.7496
100.505 5609 74.8933
100.622 5589 74.7596
100.74 5659 75.2263
100.857 5579 74.6927
100.975 5814 76.2496
101.092 5615 74.9333
101.209 5705 75.5315
101.327 5746 75.8024
101.444 5685 75.3989
101.561 5667 75.2795
101.679 5450 73.8241
101.796 5688 75.4188
101.913 5587 74.7462
102.03 5767 75.9408
102.148 5513 74.2496
102.265 5830 76.3544
102.382 5250 72.4569
102.499 5213 72.2011
102.616 4953 70.3776
102.733 4747 68.8985
102.851 4855 69.6778
102.968 5007 70.7602
103.085 5192 72.0555
103.202 5279 72.6567
103.319 5280 72.6636
103.436 5406 73.5255
103.552 5576 74.6726
103.669 5539 74.4245
103.786 5787 76.0723
103.903 5779 76.0197
104.02 5724 75.6571
104.137 5792 76.1052
104.253 6023 77.608
104.37 5843 76.4395
104.487 5920 76.9415
104.603 5964 77.2269
104.72 5932 77.0195
104.836 6089 78.032
104.953 5973 77.2852
105.069 5819 76.2824
105.186 5907 76.857
105.302 5937 77.0519
105.418 5958 77.1881
105.535 5776 76
105.651 5809 76.2168
105.767 5890 76.7463
105.883 5805 76.1906
105.999 5480 74.027
106.115 0 1
106.231 0 1
106.347 0 1
106.463 0 1
106.579 0 1
106.694 0 1
106.81 0 1
106.926 0 1
107.041 0 1
107.157 0 1
109.576 0 1
109.692 0 1
109.807 0 1
109.923 0 1
110.039 0 1
110.155 0 1
110.27 0 1
110.386 0 1
110.502 0 1
110.618 5474 73.9865
110.735 5529 74.3572
110.851 5472 73.973
110.967 5431 73.6953
111.083 5281 72.6705
111.199 5010 70.7814
111.316 4798 69.2676
111.432 4837 69.5485
111.549 5064 71.1618
111.665 5188 72.0278
111.782 5142 71.7077
111.898 5316 72.9109
112.015 5443 73.7767
112.132 5461 73.8986
112.248 5346 73.1163
112.365 5567 74.6123
112.482 5550 74.4983
112.599 5450 73.8241
112.716 5560 74.5654
112.832 5508 74.2159
112.949 5568 74.619
113.066 5639 75.0933
113.183 5496 74.135
113.3 5467 73.9392
113.417 5350 73.1437
113.534 5406 73.5255
113.652 5320 72.9383
113.769 5190 72.0417
113.886 5345 73.1095
114.003 5179 71.9653
114.12 5211 72.1873
114.238 5150 71.7635
114.355 5055 71.0985
114.472 4886 69.8999
114.589 4739 68.8404
114.707 4570 67.6018
114.824 4408 66.3928
114.942 4262 65.284
115.059 4484 66.9627
115.176 4544 67.4092
115.294 4728 68.7605
115.411 4778 69.1231
115.529 4957 70.406
115.646 4951 70.3633
115.764 5037 70.9718
115.881 5181 71.9792
115.999 4984 70.5975
116.116 5060 71.1337
116.234 5304 72.8286
116.351 5185 72.0069
116.469 5306 72.8423
116.586 5281 72.6705
116.704 5387 73.3962
116.821 5353 73.1642
116.939 5299 72.7942
117.056 5263 72.5465
117.174 5193 72.0625
117.291 5132 71.638
117.409 5205 72.1457
117.526 5044 71.0211
117.644 5165 71.8679
117.761 5088 71.3302
117.879 5169 71.8958
117.996 5157 71.8123
118.114 5125 71.5891
118.231 4956 70.3989
118.349 4657 68.2422
118.466 4501 67.0895
118.584 4446 66.6783
118.701 4578 67.6609
118.819 4491 67.0149
118.936 4623 67.9926
119.053 4755 68.9565
119.171 4939 70.278
119.288 4952 70.3704
119.405 5054 71.0915
119.523 5166 71.8749
119.64 5166 71.8749
119.757 5059 71.1266
119.875 5223 72.2703
119.992 5269 72.5879
120.109 5304 72.8286
120.226 5237 72.3671
120.343 5223 72.2703
120.46 5261 72.5328
120.578 5186 72.0139
120.695 5268 72.581
120.812 5232 72.3326
120.929 5244 72.4155
121.046 5242 72.4017
121.163 5076 71.2461
121.279 5051 71.0704
121.396 5016 70.8237
121.513 5163 71.854
121.63 5150 71.7635
121.747 4948 70.342
121.863 4804 69.3109
121.98 4790 69.2098
122.097 4523 67.2533
122.213 4353 65.9773
122.33 4386 66.2269
122.446 4428 66.5432
122.563 4459 66.7757
122.679 4542 67.3944
122.795 4493 67.0298
122.912 4827 69.4766
123.028 4847 69.6204
123.144 4870 69.7854
123.26 4789 69.2026
123.377 0 1
123.493 0 1
123.609 0 1
123.725 0 1
123.84 0 1
123.956 0 1
124.072 0 1
124.188 0 1
124.303 0 1
124.419 0 1
126.852 0 1
126.968 0 1
127.083 0 1
127.199 0 1
127.315 0 1
127.431 0 1
127.547 0 1
127.663 0 1
127.779 0 1
127.895 0 1
128.011 0 1
128.127 0 1
128.243 0 1
128.359 5516 74.2698
128.476 5418 73.6071
128.592 5528 74.3505
128.708 5612 74.9133
128.825 5750 75.8288
128.941 5711 75.5712
129.058 5804 76.184
129.174 5897 76.7919
129.291 5786 76.0658
129.408 5837 76.4003
129.524 5832 76.3675
129.641 5987 77.3757
129.758 5772 75.9737
129.875 5731 75.7034
129.992 5827 76.3348
130.108 5783 76.046
130.225 5739 75.7562
130.342 5663 75.2529
130.459 5444 73.7835
130.576 5759 75.8881
130.693 5613 74.92
130.81 5625 75
130.928 5271 72.6017
131.045 4924 70.1712
131.162 4736 68.8186
131.279 4845 69.606
131.396 5026 70.8943
131.513 5050 71.0634
131.631 5157 71.8123
131.748 5466 73.9324
131.865 5434 73.7157
131.983 5618 74.9533
132.1 5525 74.3303
132.217 5695 75.4652
132.335 5784 76.0526
132.452 5841 76.4264
132.57 5845 76.4526
132.687 5752 75.8419
132.804 6071 77.9166
132.922 5920 76.9415
133.039 5688 75.4188
133.157 5721 75.6373
133.274 5677 75.3459
133.392 5752 75.8419
133.509 5651 75.1731
133.627 5910 76.8765
133.744 5680 75.3658
133.862 5709 75.5579
133.979 5695 75.4652
134.097 5712 75.5778
134.214 5761 75.9013
134.332 5488 74.081
134.449 5345 73.1095
134.567 5208 72.1665
134.684 5049 71.0563
134.802 5021 70.859
134.919 4950 70.3562
135.037 5237 72.3671
135.154 5190 72.0417
135.272 5259 72.519
135.389 5553 74.5185
135.507 5664 75.2596
135.624 5903 76.831
135.742 5760 75.8947
135.859 5961 77.2075
135.977 5839 76.4133
136.094 6007 77.5048
136.211 5792 76.1052
136.329 6031 77.6595
136.446 6033 77.6724
136.564 5957 77.1816
136.681 6087 78.0192
136.798 5844 76.4461
136.915 5852 76.4984
137.033 5907 76.857
137.15 5737 75.743
137.267 5750 75.8288
137.384 5726 75.6703
137.502 5826 76.3282
137.619 5773 75.9803
137.736 5764 75.921
137.853 5557 74.5453
137.97 5432 73.7021
138.087 5830 76.3544
138.204 5293 72.753
138.321 5181 71.9792
138.438 5162 71.8471
138.555 5275 72.6292
138.672 5340 73.0753
138.788 5375 73.3144
138.905 5451 73.8309
139.022 5760 75.8947
139.139 5809 76.2168
139.255 6003 77.479
139.372 5837 76.4003
139.488 5732 75.71
139.605 5665 75.2662
139.721 5672 75.3127
139.838 5598 74.8198
139.954 5611 74.9066
140.071 5614 74.9266
140.187 5814 76.2496
140.303 5832 76.3675
140.419 5854 76.5114
140.535 5828 76.3413
140.652 5847 76.4657
140.768 0 1
140.884 0 1
141 0 1
141.115 0 1
141.231 0 1
141.347 0 1
141.463 0 1
141.578 0 1
141.694 0 1
144.104 0 1
144.219 0 1
144.335 0 1
144.45 0 1
144.566 0 1
144.682 0 1
144.798 0 1
144.914 0 1
145.03 0 1
145.146 4734 68.8041
145.262 4747 68.8985
145.378 4744 68.8767
145.494 4787 69.1881
145.61 4843 69.5917
145.726 4946 70.3278
145.842 5102 71.4283
145.959 5130 71.624
146.075 5199 72.1041
146.192 5201 72.118
146.308 5629 75.0267
146.425 5445 73.7902
146.541 5695 75.4652
146.658 5628 75.02
146.774 5612 74.9133
146.891 5210 72.1803
147.008 4993 70.6612
147.125 4922 70.157
147.241 4825 69.4622
147.358 4868 69.7711
147.475 4935 70.2496
147.592 4889 69.9214
147.709 5038 70.9789
147.826 5189 72.0347
147.943 5038 70.9789
148.06 4868 69.7711
148.177 4668 68.3228
148.294 4861 69.7209
148.411 4749 68.913
148.528 4860 69.7137
148.645 4701 68.5638
148.762 4712 68.644
148.88 4646 68.1616
148.997 4502 67.0969
149.114 4877 69.8355
149.231 4802 69.2965
149.349 4781 69.1448
149.466 4890 69.9285
149.583 4974 70.5266
149.701 4962 70.4415
149.818 5145 71.7287
149.935 5081 71.2811
150.053 5194 72.0694
150.17 4976 70.5408
150.287 4879 69.8498
150.405 4887 69.9071
150.522 4768 69.0507
150.64 4449 66.7008
150.757 4399 66.325
150.875 4353 65.9773
150.992 4252 65.2074
151.11 4269 65.3376
151.227 4396 66.3023
151.344 4579 67.6683
151.462 4570 67.6018
151.579 4626 68.0147
151.697 4619 67.9632
151.814 4833 69.5198
151.932 4739 68.8404
152.049 4603 67.8454
152.167 4731 68.7823
152.284 4743 68.8694
152.402 4839 69.5629
152.519 4763 69.0145
152.636 4860 69.7137
152.754 4842 69.5845
152.871 4902 70.0143
152.989 4956 70.3989
153.106 4992 70.6541
153.223 5038 70.9789
153.341 5103 71.4353
153.458 5019 70.8449
153.575 5034 70.9507
153.693 4971 70.5053
153.81 4979 70.562
153.927 4851 69.6491
154.044 4767 69.0435
154.162 4591 67.7569
154.279 4335 65.8407
154.396 4607 67.8749
154.513 4573 67.624
154.63 4569 67.5944
154.747 4597 67.8012
154.864 4600 67.8233
154.981 4700 68.5565
155.098 4745 68.884
155.215 4770 69.0652
155.332 4924 70.1712
155.449 4940 70.2851
155.566 5015 70.8167
155.683 5006 70.7531
155.8 5095 71.3793
155.917 4938 70.2709
156.033 5054 71.0915
156.15 0 1
156.267 0 1
156.383 0 1
156.5 0 1
156.617 0 1
156.733 0 1
156.85 0 1
156.966 0 1
157.082 0 1
157.199 0 1
157.315 0 1
157.431 0 1
157.547 0 1
157.664 0 1
157.78 0 1
157.896 0 1
158.012 0 1
158.128 0 1
158.244 0 1
158.359 0 1
158.475 0 1
158.591 0 1
158.706 0 1
