
6.15755 0 1
6.2731 0 1
6.3887 0 1
6.50437 0 1
6.62009 0 1
6.73587 0 1
6.8517 0 1
6.96759 0 1
7.08353 0 1
7.19952 0 1
7.31557 0 1
7.43166 0 1
7.54781 0 1
7.664 0 1
7.78024 0 1
7.89653 0 1
8.01286 0 1
8.12924 0 1
8.24567 0 1
8.36213 0 1
8.47864 0 1
8.59519 0 1
8.71178 0 1
8.82841 0 1
8.94508 0 1
9.06179 0 1
9.17853 0 1
9.29531 0 1
9.41212 0 1
9.52897 0 1
9.64584 0 1
9.76276 0 1
9.8797 0 1
9.99667 0 1
10.1137 0 1
10.2307 0 1
10.3478 0 1
10.4648 0 1
10.5819 0 1
10.6991 0 1
10.8162 0 1
10.9334 0 1
11.0506 0 1
11.1678 0 1
11.285 0 1
11.4023 0 1
11.5196 0 1
11.6369 0 1
11.7542 0 1
11.8715 0 1
11.9888 0 1
12.1062 0 1
12.2235 0 1
12.3409 0 1
12.4582 0 1
12.5756 0 1
12.693 0 1
12.8104 0 1
12.9278 0 1
13.0452 0 1
13.1626 0 1
13.28 0 1
13.3974 0 1
13.5149 0 1
13.6323 0 1
13.7497 0 1
13.8671 0 1
13.9845 0 1
14.1019 0 1
14.2193 0 1
14.3367 0 1
14.4541 0 1
14.5714 0 1
14.6888 0 1
14.8062 0 1
14.9235 0 1
15.0408 0 0
15.1581 0 0
15.2755 0 0
15.3927 0 0
15.51 0 0
15.6273 0 0
15.7445 0 0
15.8617 0 0
15.9789 0 0
16.0961 0 0
16.2132 0 0
16.3304 0 0
16.4475 0 0
16.5646 0 0
16.6816 0 0
16.7986 0 0
16.9156 0 0
17.0326 0 0
17.1496 0 0
17.2665 0 0
17.3833 0 0
17.5002 0 0
17.617 0 0
17.7338 0 0
17.8505 0 0
17.9672 0 0
18.0839 0 0
18.2005 0 0
18.3171 0 0
18.4337 0 0
18.5502 0 0
18.6666 0 0
18.7831 0 0
18.8994 0 0
19.0158 0 0
19.1321 0 0
19.2483 0 0
19.3645 0 0
19.4806 0 0
19.5967 0 0
19.7128 0 0
19.8288 0 0
19.9447 0 0
20.0606 0 1
20.1764 0 1
20.2922 0 1
20.4079 0 1
20.5236 0 1
20.6392 0 1
20.7548 0 1
20.8702 0 1
23.3078 0 1
23.4233 0 1
23.539 0 1
23.6547 0 1
23.7704 0 1
23.8862 0 1
24.0021 0 1
24.118 0 1
24.234 0 1
24.35 0 1
24.4661 1321 36.3456
24.5822 1425 37.7492
24.6984 1542 39.2683
24.8146 1703 41.2674
24.9309 1991 44.6206
25.0472 2315 48.1144
25.1636 2620 51.1859
25.28 2556 50.5569
25.3965 2776 52.6878
25.513 2805 52.9623
25.6296 2752 52.4595
25.7462 2749 52.4309
25.8628 2655 51.5267
25.9795 2720 52.1536
26.0962 2748 52.4214
26.213 2734 52.2877
26.3298 2857 53.4509
26.4466 2884 53.7029
26.5635 2799 52.9056
26.6804 2774 52.6688
26.7973 2672 51.6914
26.9143 2531 50.309
27.0313 2591 50.9019
27.1483 2622 51.2055
27.2653 2585 50.8429
27.3824 2435 49.3457
27.4996 2373 48.7134
27.6167 2282 47.7703
27.7339 2250 47.4342
27.8511 2327 48.239
27.9683 2478 49.7795
28.0855 2526 50.2593
28.2028 2579 50.7839
28.3201 2542 50.4183
28.4374 2566 50.6557
28.5547 2581 50.8035
28.6721 2667 51.643
28.7894 2600 50.9902
28.9068 2606 51.049
29.0242 2600 50.9902
29.1416 2580 50.7937
29.259 2651 51.4879
29.3764 2637 51.3517
29.4939 2646 51.4393
29.6113 2501 50.01
29.7288 2404 49.0306
29.8463 2385 48.8365
29.9638 2417 49.163
30.0812 2428 49.2747
30.1987 2530 50.2991
30.3162 2473 49.7293
30.4337 2515 50.1498
30.5512 2582 50.8134
30.6687 2570 50.6952
30.7862 2591 50.9019
30.9037 2395 48.9387
31.0212 2289 47.8435
31.1387 2327 48.239
31.2562 2389 48.8774
31.3737 2432 49.3153
31.4912 2491 49.9099
31.6087 2601 51
31.7262 2656 51.5364
31.8436 2634 51.3225
31.9611 2637 51.3517
32.0785 2558 50.5767
32.1959 2492 49.9199
32.3134 2478 49.7795
32.4308 2509 50.0899
32.5482 2556 50.5569
32.6655 2443 49.4267
32.7829 2257 47.5079
32.9002 2344 48.4149
33.0176 2380 48.7852
33.1349 2213 47.0425
33.2522 2274 47.6865
33.3694 2269 47.634
33.4867 2149 46.3573
33.6039 2281 47.7598
33.7211 2175 46.6369
33.8383 2394 48.9285
33.9554 2318 48.1456
34.0725 2486 49.8598
34.1896 2473 49.7293
34.3067 2463 49.6286
34.4237 2446 49.4571
34.5407 2247 47.4025
34.6577 2320 48.1664
34.7746 2292 47.8748
34.8915 2295 47.9062
35.0084 2393 48.9183
35.1252 2501 50.01
35.242 2571 50.705
35.3587 2649 51.4684
35.4755 2405 49.0408
35.5921 2515 50.1498
35.7088 2431 49.3052
35.8254 2293 47.8853
35.9419 2188 46.7761
36.0584 2147 46.3357
36.1749 2138 46.2385
36.2913 2171 46.594
36.4077 2010 44.833
36.524 1944 44.0908
36.6403 1802 42.45
36.7565 1593 39.9124
36.8727 1429 37.8021
36.9889 1503 38.7685
37.1049 1378 37.1214
37.221 0 1
37.3369 0 1
37.4529 0 1
37.5687 0 1
37.6845 0 1
37.8003 0 1
37.916 0 1
38.0316 0 1
38.1472 0 1
40.5851 0 1
40.7008 0 1
40.8164 0 1
40.9322 0 1
41.048 0 1
41.1639 0 1
41.2798 0 1
41.3958 0 1
41.5118 0 1
41.6279 0 1
41.744 1862 43.1509
41.8602 2432 49.3153
41.9765 2991 54.69
42.0928 3196 56.5332
42.2091 3198 56.5509
42.3255 3288 57.3411
42.4419 3265 57.1402
42.5584 3295 57.4021
42.675 3427 58.5406
42.7915 3435 58.6089
42.9081 3526 59.3801
43.0248 3545 59.5399
43.1415 3558 59.649
43.2582 3466 58.8727
43.375 3120 55.857
43.4918 3222 56.7627
43.6087 3246 56.9737
43.7256 3300 57.4456
43.8425 3358 57.9483
43.9595 3316 57.5847
44.0765 3386 58.1893
44.1935 3222 56.7627
44.3106 3192 56.4978
44.4277 3088 55.5698
44.5448 2899 53.8424
44.6619 2798 52.8961
44.7791 2785 52.7731
44.8963 2524 50.2394
45.0136 2443 49.4267
45.1308 2375 48.734
45.2481 2298 47.9375
45.3654 2195 46.8508
45.4827 2074 45.5412
45.6001 2030 45.0555
45.7174 1981 44.5084
45.8348 2017 44.911
45.9522 1945 44.1022
46.0697 1968 44.3621
46.1871 2070 45.4973
46.3046 2076 45.5631
46.422 2164 46.5188
46.5395 2207 46.9787
46.657 2189 46.7868
46.7745 2121 46.0543
46.892 1974 44.4297
47.0096 1938 44.0227
47.1271 2085 45.6618
47.2446 2105 45.8803
47.3622 2101 45.8367
47.4797 2051 45.288
47.5973 2167 46.551
47.7149 2091 45.7275
47.8324 2138 46.2385
47.95 2160 46.4758
48.0675 2086 45.6727
48.1851 2062 45.4093
48.3027 2058 45.3652
48.4202 1928 43.909
48.5378 1923 43.852
48.6554 1843 42.9302
48.7729 1972 44.4072
48.8904 1764 42
49.008 1845 42.9535
49.1255 1826 42.7317
49.243 1838 42.8719
49.3605 1918 43.795
49.478 1888 43.4511
49.5955 1942 44.0681
49.713 2055 45.3321
49.8304 2069 45.4863
49.9479 2006 44.7884
50.0653 2099 45.8148
50.1827 1981 44.5084
50.3001 1923 43.852
50.4175 1752 41.8569
50.5348 1633 40.4104
50.6521 1634 40.4228
50.7694 1903 43.6234
50.8867 2000 44.7214
51.004 1990 44.6094
51.1212 2089 45.7056
51.2384 1990 44.6094
51.3556 2173 46.6154
51.4727 2086 45.6727
51.5899 1993 44.643
51.707 2044 45.2106
51.824 2030 45.0555
51.9411 2024 44.9889
52.0581 1967 44.3509
52.175 1995 44.6654
52.2919 1986 44.5646
52.4088 1955 44.2154
52.5257 1921 43.8292
52.6425 1825 42.72
52.7593 1795 42.3674
52.876 1891 43.4856
52.9927 1830 42.7785
53.1094 1848 42.9884
53.226 1862 43.1509
53.3426 1889 43.4626
53.4591 1849 43
53.5756 1622 40.2741
53.692 1485 38.5357
53.8084 1288 35.8887
53.9248 1177 34.3074
54.0411 1079 32.8481
54.1573 1012 31.8119
54.2735 0 1
54.3896 0 1
54.5057 0 1
54.6217 0 1
54.7377 0 1
54.8537 0 1
54.9695 0 1
55.0853 0 1
55.2011 0 1
55.3168 0 1
55.4324 0 1
57.824 0 1
57.9396 0 1
58.0553 0 1
58.1711 0 1
58.2869 0 1
58.4028 0 1
58.5187 0 1
58.6347 0 1
58.7508 0 1
58.8669 0 1
58.983 1767 42.0357
59.0992 1649 40.6079
59.2155 1761 41.9643
59.3318 1886 43.4281
59.4482 1997 44.6878
59.5646 2208 46.9894
59.681 2314 48.1041
59.7975 2344 48.4149
59.9141 2370 48.6826
60.0306 2509 50.0899
60.1473 2432 49.3153
60.2639 2438 49.3761
60.3807 2363 48.6107
60.4974 2431 49.3052
60.6142 2509 50.0899
60.731 2450 49.4975
60.8479 2568 50.6754
60.9648 2445 49.4469
61.0818 2519 50.1896
61.1987 2495 49.95
61.3158 2372 48.7032
61.4328 2371 48.6929
61.5499 2302 47.9792
61.667 2374 48.7237
61.7841 2318 48.1456
61.9013 2338 48.3529
62.0185 2494 49.94
62.1357 2465 49.6488
62.253 2380 48.7852
62.3702 2342 48.3942
62.4875 2252 47.4552
62.6049 2038 45.1442
62.7222 2130 46.1519
62.8396 2210 47.0106
62.9569 2388 48.8672
63.0743 2524 50.2394
63.1918 2475 49.7494
63.3092 2623 51.2152
63.4267 2570 50.6952
63.5441 2558 50.5767
63.6616 2510 50.0999
63.7791 2390 48.8876
63.8966 2510 50.0999
64.0142 2461 49.6085
64.1317 2516 50.1597
64.2492 2464 49.6387
64.3668 2424 49.2341
64.4843 2488 49.8799
64.6019 2431 49.3052
64.7195 2393 48.9183
64.837 2304 48
64.9546 2254 47.4763
65.0722 2247 47.4025
65.1898 2299 47.9479
65.3074 2284 47.7912
65.4249 2324 48.2079
65.5425 2406 49.051
65.6601 2411 49.1019
65.7777 2449 49.4874
65.8952 2326 48.2286
66.0128 2199 46.8935
66.1304 2077 45.5741
66.2479 1896 43.5431
66.3655 2065 45.4423
66.483 2174 46.6262
66.6005 2400 48.9898
66.718 2443 49.4267
66.8355 2481 49.8096
66.953 2552 50.5173
67.0705 2442 49.4166
67.1879 2475 49.7494
67.3054 2435 49.3457
67.4228 2400 48.9898
67.5402 2415 49.1426
67.6576 2367 48.6518
67.7749 2417 49.163
67.8923 2406 49.051
68.0096 2421 49.2037
68.1269 2415 49.1426
68.2442 2381 48.7955
68.3614 2337 48.3425
68.4787 2283 47.7807
68.5958 2201 46.9148
68.713 2133 46.1844
68.8302 2234 47.2652
68.9473 2204 46.9468
69.0643 2207 46.9787
69.1814 2227 47.1911
69.2984 2286 47.8121
69.4154 2295 47.9062
69.5323 2318 48.1456
69.6492 2174 46.6262
69.7661 1901 43.6005
69.8829 1794 42.3556
69.9997 1875 43.3013
70.1165 2128 46.1303
70.2332 2076 45.5631
70.3499 1963 44.3058
70.4665 1850 43.0116
70.5831 1734 41.6413
70.6996 1583 39.7869
70.8161 1543 39.281
70.9326 1479 38.4578
71.049 1445 38.0132
71.1653 1359 36.8646
71.2817 1272 35.6651
71.3979 1257 35.4542
71.5141 1198 34.6121
71.6303 1191 34.5109
71.7464 1161 34.0735
71.8624 0 1
71.9784 0 1
72.0944 0 1
72.2102 0 1
72.3261 0 1
72.4418 0 1
72.5575 0 1
72.6732 0 1
75.1054 0 1
75.2209 0 1
75.3365 0 1
75.4521 0 1
75.5678 0 1
75.6835 0 1
75.7993 0 1
75.9151 0 1
76.031 0 1
76.147 1866 43.1972
76.263 2093 45.7493
76.3791 2083 45.6399
76.4952 2160 46.4758
76.6113 2100 45.8258
76.7276 2140 46.2601
76.8438 2181 46.7012
76.9601 2181 46.7012
77.0765 2293 47.8853
77.1929 2267 47.613
77.3093 2192 46.8188
77.4258 2222 47.1381
77.5423 2174 46.6262
77.6589 2204 46.9468
77.7755 2107 45.9021
77.8921 2135 46.2061
78.0088 2076 45.5631
78.1256 2061 45.3982
78.2423 2269 47.634
78.3591 2235 47.2758
78.4759 2230 47.2229
78.5928 2157 46.4435
78.7097 1994 44.6542
78.8266 1745 41.7732
78.9436 1466 38.2884
79.0606 1565 39.5601
79.1776 1824 42.7083
79.2946 2103 45.8585
79.4117 2287 47.8226
79.5288 2360 48.5798
79.6459 2308 48.0416
79.7631 2374 48.7237
79.8802 2276 47.7074
79.9974 2255 47.4868
80.1147 2311 48.0729
80.2319 2278 47.7284
80.3491 2196 46.8615
80.4664 2210 47.0106
80.5837 2373 48.7134
80.701 2378 48.7647
80.8183 2388 48.8672
80.9357 2458 49.5782
81.053 2389 48.8774
81.1704 2319 48.156
81.2877 2300 47.9583
81.4051 2376 48.7442
81.5225 2379 48.775
81.6399 2327 48.239
81.7573 2392 48.9081
81.8747 2431 49.3052
81.9922 2537 50.3686
82.1096 2662 51.5946
82.227 2637 51.3517
82.3444 2504 50.04
82.4619 2294 47.8957
82.5793 2109 45.9239
82.6967 2154 46.4112
82.8142 2712 52.0769
82.9316 3349 57.8705
83.049 3575 59.7913
83.1664 3657 60.4731
83.2838 3750 61.2372
83.4012 3866 62.1772
83.5186 4122 64.2028
83.636 4085 63.914
83.7534 4085 63.914
83.8708 4082 63.8905
83.9881 4198 64.792
84.1055 4338 65.8635
84.2228 4212 64.8999
84.3401 4395 66.2948
84.4575 4397 66.3099
84.5747 4405 66.3702
84.692 4370 66.106
84.8093 4383 66.2042
84.9265 4198 64.792
85.0437 4187 64.707
85.1609 4293 65.521
85.2781 4241 65.123
85.3952 4279 65.4141
85.5123 4320 65.7267
85.6294 4157 64.4748
85.7465 4114 64.1405
85.8636 3954 62.8808
85.9806 3257 57.0701
86.0976 2666 51.6333
86.2145 2699 51.9519
86.3315 2991 54.69
86.4484 3793 61.5873
86.5652 4131 64.2729
86.682 4124 64.2184
86.7988 4240 65.1153
86.9156 4183 64.6761
87.0323 4278 65.4064
87.149 4134 64.2962
87.2657 4149 64.4127
87.3823 4091 63.9609
87.4988 3985 63.1269
87.6154 3627 60.2246
87.7318 3264 57.1314
87.8483 3071 55.4166
87.9647 2958 54.3875
88.081 2950 54.3139
88.1973 2858 53.4603
88.3136 2656 51.5364
88.4298 2590 50.892
88.546 2462 49.6185
88.6621 2417 49.163
88.7781 2372 48.7032
88.8942 0 1
89.0101 0 1
89.126 0 1
89.2419 0 1
89.3577 0 1
89.4734 0 1
89.5891 0 1
89.7047 0 1
89.8203 0 1
89.9358 0 1
92.3269 0 1
92.4424 0 1
92.558 0 1
92.6736 0 1
92.7893 0 1
92.905 0 1
93.0208 0 1
93.1366 0 1
93.2525 0 1
93.3685 0 1
93.4845 0 1
93.6005 4324 65.7571
93.7167 4424 66.5132
93.8328 4529 67.2978
93.949 4383 66.2042
94.0653 4193 64.7534
94.1816 4364 66.0606
94.2979 4297 65.5515
94.4143 4282 65.437
94.5307 4319 65.7191
94.6472 4284 65.4523
94.7637 4251 65.1997
94.8803 3934 62.7216
94.9969 3299 57.4369
95.1135 3005 54.8179
95.2302 3292 57.376
95.3469 3698 60.8112
95.4637 4141 64.3506
95.5805 4322 65.7419
95.6973 4459 66.7757
95.8142 4514 67.1863
95.9311 4339 65.8711
96.048 4435 66.5958
96.1649 4550 67.4537
96.2819 4571 67.6092
96.3989 4501 67.0895
96.516 4511 67.164
96.633 4458 66.7683
96.7501 4539 67.3721
96.8673 4552 67.4685
96.9844 4536 67.3498
97.1016 4723 68.7241
97.2188 4761 69
97.336 4570 67.6018
97.4532 4419 66.4756
97.5704 4359 66.0227
97.6877 4353 65.9773
97.805 4389 66.2495
97.9223 4376 66.1513
98.0396 4428 66.5432
98.1569 4235 65.0769
98.2743 4179 64.6452
98.3916 3767 61.3759
98.509 3271 57.1927
98.6264 2894 53.7959
98.7438 2977 54.5619
98.8612 3210 56.6569
98.9786 3556 59.6322
99.096 3709 60.9016
99.2134 3629 60.2412
99.3308 3600 60
99.4482 3421 58.4893
99.5656 3414 58.4294
99.6831 3276 57.2364
99.8005 3172 56.3205
99.9179 3127 55.9196
100.035 3198 56.5509
100.153 3105 55.7225
100.27 3127 55.9196
100.388 2998 54.754
100.505 3100 55.6776
100.622 3137 56.0089
100.74 3094 55.6237
100.857 3089 55.5788
100.975 3013 54.8908
101.092 2983 54.6168
101.209 2994 54.7175
101.327 2936 54.1849
101.444 2916 54
101.561 3036 55.0999
101.679 3081 55.5068
101.796 2948 54.2955
101.913 2916 54
102.03 2676 51.7301
102.148 2339 48.3632
102.265 2202 46.9255
102.382 2410 49.0918
102.499 2576 50.7543
102.616 2811 53.0189
102.733 2837 53.2635
102.851 2827 53.1695
102.968 2832 53.2165
103.085 2797 52.8867
103.202 2675 51.7204
103.319 2763 52.5642
103.436 2836 53.2541
103.552 2752 52.4595
103.669 2772 52.6498
103.786 2785 52.7731
103.903 2716 52.1153
104.02 2827 53.1695
104.137 2799 52.9056
104.253 2903 53.8795
104.37 2682 51.788
104.487 2635 51.3323
104.603 2595 50.9411
104.72 2629 51.2738
104.836 2434 49.3356
104.953 2218 47.0956
105.069 1973 44.4185
105.186 1766 42.0238
105.302 1695 41.1704
105.418 1571 39.6358
105.535 1395 37.3497
105.651 1150 33.9116
105.767 1002 31.6544
105.883 893 29.8831
105.999 887 29.7825
106.115 0 1
106.231 0 1
106.347 0 1
106.463 0 1
106.579 0 1
106.694 0 1
106.81 0 1
106.926 0 1
107.041 0 1
107.157 0 1
109.576 0 1
109.692 0 1
109.807 0 1
109.923 0 1
110.039 0 1
110.155 0 1
110.27 0 1
110.386 0 1
110.502 0 1
110.618 2800 52.915
110.735 2922 54.0555
110.851 2663 51.6043
110.967 2357 48.5489
111.083 2445 49.4469
111.199 2569 50.6853
111.316 2806 52.9717
111.432 2949 54.3047
111.549 2986 54.6443
111.665 3001 54.7814
111.782 3038 55.1181
111.898 2971 54.5069
112.015 2973 54.5252
112.132 3060 55.3173
112.248 3022 54.9727
112.365 2925 54.0833
112.482 2985 54.6352
112.599 3179 56.3826
112.716 3202 56.5862
112.832 3227 56.8067
112.949 3317 57.5934
113.066 3382 58.155
113.183 3378 58.1206
113.3 3181 56.4004
113.417 3357 57.9396
113.534 3329 57.6975
113.652 3240 56.921
113.769 3277 57.2451
113.886 3286 57.3236
114.003 3278 57.2538
114.12 3215 56.701
114.238 3088 55.5698
114.355 2911 53.9537
114.472 2725 52.2015
114.589 2635 51.3323
114.707 2605 51.0392
114.824 2901 53.8609
114.942 3139 56.0268
115.059 3125 55.9017
115.176 3160 56.2139
115.294 3077 55.4707
115.411 3097 55.6507
115.529 3048 55.2087
115.646 3097 55.6507
115.764 3004 54.8088
115.881 3108 55.7494
115.999 2958 54.3875
116.116 3195 56.5243
116.234 3264 57.1314
116.351 3297 57.4195
116.469 3333 57.7321
116.586 3390 58.2237
116.704 3399 58.3009
116.821 3447 58.7112
116.939 3469 58.8982
117.056 3383 58.1636
117.174 3395 58.2666
117.291 3533 59.439
117.409 3283 57.2975
117.526 3485 59.0339
117.644 3405 58.3524
117.761 3343 57.8187
117.879 3185 56.4358
117.996 2899 53.8424
118.114 2680 51.7687
118.231 2682 51.788
118.349 2645 51.4296
118.466 2997 54.7449
118.584 3146 56.0892
118.701 3117 55.8301
118.819 3161 56.2228
118.936 3031 55.0545
119.053 3077 55.4707
119.171 3000 54.7723
119.288 2878 53.647
119.405 2998 54.754
119.523 2999 54.7631
119.64 2901 53.8609
119.757 3047 55.1996
119.875 3075 55.4527
119.992 3150 56.1249
120.109 3131 55.9553
120.226 3124 55.8928
120.343 3203 56.5951
120.46 3235 56.8771
120.578 3186 56.4447
120.695 3155 56.1694
120.812 3199 56.5597
120.929 3120 55.857
121.046 3127 55.9196
121.163 3041 55.1453
121.279 2925 54.0833
121.396 3111 55.7763
121.513 2895 53.8052
121.63 2692 51.8845
121.747 2506 50.06
121.863 2130 46.1519
121.98 2049 45.2659
122.097 2180 46.6905
122.213 2105 45.8803
122.33 2210 47.0106
122.446 2252 47.4552
122.563 2160 46.4758
122.679 2043 45.1996
122.795 1930 43.9318
122.912 1923 43.852
123.028 1917 43.7836
123.144 1894 43.5201
123.26 1792 42.332
123.377 0 1
123.493 0 1
123.609 0 1
123.725 0 1
123.84 0 1
123.956 0 1
124.072 0 1
124.188 0 1
124.303 0 1
124.419 0 1
126.852 0 1
126.968 0 1
127.083 0 1
127.199 0 1
127.315 0 1
127.431 0 1
127.547 0 1
127.663 0 1
127.779 0 1
127.895 0 1
128.011 0 1
128.127 0 1
128.243 0 1
128.359 3476 58.9576
128.476 3567 59.7244
128.592 3595 59.9583
128.708 3479 58.983
128.825 3579 59.8247
128.941 3523 59.3549
129.058 3681 60.6712
129.174 3672 60.597
129.291 3760 61.3188
129.408 3810 61.7252
129.524 3839 61.9597
129.641 4035 63.5216
129.758 4212 64.8999
129.875 4079 63.867
129.992 4316 65.6963
130.108 4341 65.8863
130.225 4238 65.0999
130.342 4229 65.0308
130.459 4127 64.2417
130.576 4069 63.7887
130.693 3786 61.5305
130.81 3575 59.7913
130.928 3595 59.9583
131.045 3779 61.4736
131.162 3923 62.6339
131.279 4102 64.0469
131.396 3979 63.0793
131.513 4009 63.3167
131.631 3982 63.1031
131.748 4140 64.3428
131.865 3998 63.2297
131.983 3991 63.1744
132.1 4073 63.8201
132.217 4002 63.2614
132.335 3936 62.7375
132.452 3776 61.4492
132.57 4056 63.6867
132.687 3766 61.3677
132.804 4012 63.3404
132.922 4042 63.5767
133.039 4070 63.7966
133.157 4159 64.4903
133.274 4105 64.0703
133.392 4305 65.6125
133.509 4304 65.6049
133.627 4387 66.2344
133.744 4430 66.5582
133.862 4505 67.1193
133.979 4496 67.0522
134.097 4464 66.8132
134.214 4328 65.7875
134.332 4121 64.195
134.449 4052 63.6553
134.567 4277 65.3988
134.684 4204 64.8383
134.802 4480 66.9328
134.919 4547 67.4314
135.037 4493 67.0298
135.154 4540 67.3795
135.272 4292 65.5134
135.389 4394 66.2873
135.507 4175 64.6142
135.624 4329 65.7951
135.742 4104 64.0625
135.859 4269 65.3376
135.977 4211 64.8922
136.094 3963 62.9524
136.211 4206 64.8537
136.329 4097 64.0078
136.446 4131 64.2729
136.564 4124 64.2184
136.681 4161 64.5058
136.798 4327 65.7799
136.915 4252 65.2074
137.033 4430 66.5582
137.15 4295 65.5362
137.267 4363 66.053
137.384 4196 64.7765
137.502 4305 65.6125
137.619 4282 65.437
137.736 4201 64.8151
137.853 4069 63.7887
137.97 4074 63.8279
138.087 3955 62.8888
138.204 4037 63.5374
138.321 4109 64.1015
138.438 4271 65.3529
138.555 4183 64.6761
138.672 4125 64.2262
138.788 4192 64.7457
138.905 4059 63.7103
139.022 4061 63.726
139.139 3685 60.7042
139.255 3631 60.2578
139.372 3433 58.5918
139.488 3318 57.6021
139.605 3195 56.5243
139.721 3075 55.4527
139.838 3039 55.1271
139.954 3057 55.2901
140.071 2897 53.8238
140.187 2805 52.9623
140.303 2850 53.3854
140.419 2935 54.1756
140.535 3004 54.8088
140.652 2948 54.2955
140.768 0 1
140.884 0 1
141 0 1
141.115 0 1
141.231 0 1
141.347 0 1
141.463 0 1
141.578 0 1
141.694 0 1
144.104 0 1
144.219 0 1
144.335 0 1
144.45 0 1
144.566 0 1
144.682 0 1
144.798 0 1
144.914 0 1
145.03 0 1
145.146 8503 92.2117
145.262 8691 93.2255
145.378 9025 95
145.494 8858 94.1169
145.61 8864 94.1488
145.726 8992 94.8262
145.842 9168 95.7497
145.959 9168 95.7497
146.075 9026 95.0053
146.192 9041 95.0842
146.308 8930 94.4987
146.425 8743 93.504
146.541 8063 89.7942
146.658 6900 83.0662
146.774 5991 77.4016
146.891 5945 77.1038
147.008 6543 80.8888
147.125 7562 86.9598
147.241 8425 91.7878
147.358 8826 93.9468
147.475 8895 94.3133
147.592 8830 93.9681
147.709 8849 94.0691
147.826 8987 94.7998
147.943 8785 93.7283
148.06 8960 94.6573
148.177 8783 93.7177
148.294 8916 94.4246
148.411 8997 94.8525
148.528 9023 94.9895
148.645 9010 94.921
148.762 9061 95.1893
148.88 9144 95.6243
148.997 8884 94.255
149.114 9437 97.1442
149.231 9112 95.4568
149.349 9306 96.4676
149.466 9034 95.0474
149.583 9129 95.5458
149.701 9193 95.8801
149.818 9446 97.1905
149.935 9038 95.0684
150.053 9124 95.5196
150.17 8829 93.9628
150.287 7663 87.5386
150.405 6638 81.4739
150.522 6061 77.8524
150.64 6408 80.05
150.757 7595 87.1493
150.875 8501 92.2009
150.992 8915 94.4193
151.11 8695 93.247
151.227 8832 93.9787
151.344 8878 94.2231
151.462 8917 94.4299
151.579 8957 94.6414
151.697 8898 94.3292
151.814 8934 94.5198
151.932 9103 95.4096
152.049 8962 94.6678
152.167 9082 95.2995
152.284 8995 94.842
152.402 9132 95.5615
152.519 9119 95.4935
152.636 9137 95.5877
152.754 8997 94.8525
152.871 9248 96.1665
152.989 9435 97.1339
153.106 9327 96.5764
153.223 9412 97.0155
153.341 9387 96.8865
153.458 9448 97.2008
153.575 9639 98.1784
153.693 9340 96.6437
153.81 8985 94.7892
153.927 7913 88.955
154.044 7103 84.2793
154.162 6441 80.2558
154.279 7013 83.7437
154.396 8095 89.9722
154.513 9008 94.9105
154.63 9204 95.9375
154.747 9291 96.3898
154.864 9023 94.9895
154.981 9186 95.8436
155.098 8974 94.7312
155.215 8935 94.5251
155.332 8737 93.4719
155.449 8535 92.3851
155.566 8446 91.9021
155.683 8197 90.5373
155.8 8178 90.4323
155.917 7883 88.7863
156.033 7825 88.459
156.15 0 1
156.267 0 1
156.383 0 1
156.5 0 1
156.617 0 1
156.733 0 1
156.85 0 1
156.966 0 1
157.082 0 1
157.199 0 1
157.315 0 1
157.431 0 1
157.547 0 1
157.664 0 1
157.78 0 1
157.896 0 1
158.012 0 1
158.128 0 1
158.244 0 1
158.359 0 1
158.475 0 1
158.591 0 1
158.706 0 1
