
6.15755 0 1
6.2731 0 1
6.3887 0 1
6.50437 0 1
6.62009 0 1
6.73587 0 1
6.8517 0 1
6.96759 0 1
7.08353 0 1
7.19952 0 1
7.31557 0 1
7.43166 0 1
7.54781 0 1
7.664 0 1
7.78024 0 1
7.89653 0 1
8.01286 0 1
8.12924 0 1
8.24567 0 1
8.36213 0 1
8.47864 0 1
8.59519 0 1
8.71178 0 1
8.82841 0 1
8.94508 0 1
9.06179 0 1
9.17853 0 1
9.29531 0 1
9.41212 0 1
9.52897 0 1
9.64584 0 1
9.76276 0 1
9.8797 0 1
9.99667 0 1
10.1137 0 1
10.2307 0 1
10.3478 0 1
10.4648 0 1
10.5819 0 1
10.6991 0 1
10.8162 0 1
10.9334 0 1
11.0506 0 1
11.1678 0 1
11.285 0 1
11.4023 0 1
11.5196 0 1
11.6369 0 1
11.7542 0 1
11.8715 0 1
11.9888 0 1
12.1062 0 1
12.2235 0 1
12.3409 0 1
12.4582 0 1
12.5756 0 1
12.693 0 1
12.8104 0 1
12.9278 0 1
13.0452 0 1
13.1626 0 1
13.28 0 1
13.3974 0 1
13.5149 0 1
13.6323 0 1
13.7497 0 1
13.8671 0 1
13.9845 0 1
14.1019 0 1
14.2193 0 1
14.3367 0 1
14.4541 0 1
14.5714 0 1
14.6888 0 1
14.8062 0 1
14.9235 0 1
15.0408 0 0
15.1581 0 0
15.2755 0 0
15.3927 0 0
15.51 0 0
15.6273 0 0
15.7445 0 0
15.8617 0 0
15.9789 0 0
16.0961 0 0
16.2132 0 0
16.3304 0 0
16.4475 0 0
16.5646 0 0
16.6816 0 0
16.7986 0 0
16.9156 0 0
17.0326 0 0
17.1496 0 0
17.2665 0 0
17.3833 0 0
17.5002 0 0
17.617 0 0
17.7338 0 0
17.8505 0 0
17.9672 0 0
18.0839 0 0
18.2005 0 0
18.3171 0 0
18.4337 0 0
18.5502 0 0
18.6666 0 0
18.7831 0 0
18.8994 0 0
19.0158 0 0
19.1321 0 0
19.2483 0 0
19.3645 0 0
19.4806 0 0
19.5967 0 0
19.7128 0 0
19.8288 0 0
19.9447 0 0
20.0606 0 1
20.1764 0 1
20.2922 0 1
20.4079 0 1
20.5236 0 1
20.6392 0 1
20.7548 0 1
20.8702 0 1
23.3078 0 1
23.4233 0 1
23.539 0 1
23.6547 0 1
23.7704 0 1
23.8862 0 1
24.0021 0 1
24.118 0 1
24.234 0 1
24.35 0 1
24.4661 2015 44.8888
24.5822 2257 47.5079
24.6984 2475 49.7494
24.8146 2869 53.563
24.9309 3524 59.3633
25.0472 4138 64.3273
25.1636 4500 67.082
25.28 4610 67.897
25.3965 4622 67.9853
25.513 4421 66.4906
25.6296 4363 66.053
25.7462 4416 66.453
25.8628 4382 66.1967
25.9795 4287 65.4752
26.0962 4187 64.707
26.213 4103 64.0547
26.3298 4086 63.9218
26.4466 4095 63.9922
26.5635 3901 62.458
26.6804 3874 62.2415
26.7973 3707 60.8851
26.9143 3571 59.7578
27.0313 3489 59.0678
27.1483 3372 58.0689
27.2653 3320 57.6194
27.3824 3319 57.6108
27.4996 3094 55.6237
27.6167 2842 53.3104
27.7339 2907 53.9166
27.8511 3089 55.5788
27.9683 3372 58.0689
28.0855 3563 59.6909
28.2028 3595 59.9583
28.3201 3700 60.8276
28.4374 3636 60.2993
28.5547 3710 60.9098
28.6721 3794 61.5955
28.7894 3843 61.9919
28.9068 3803 61.6685
29.0242 3913 62.554
29.1416 3919 62.6019
29.259 4013 63.3482
29.3764 4044 63.5925
29.4939 3872 62.2254
29.6113 3831 61.8951
29.7288 3618 60.1498
29.8463 3671 60.5888
29.9638 3680 60.663
30.0812 3573 59.7746
30.1987 3464 58.8558
30.3162 3552 59.5987
30.4337 3686 60.7124
30.5512 3563 59.6909
30.6687 3674 60.6135
30.7862 3585 59.8749
30.9037 3288 57.3411
31.0212 3322 57.6368
31.1387 3227 56.8067
31.2562 3310 57.5326
31.3737 3533 59.439
31.4912 3728 61.0574
31.6087 3758 61.3025
31.7262 3774 61.4329
31.8436 3868 62.1932
31.9611 3741 61.1637
32.0785 3705 60.8687
32.1959 3838 61.9516
32.3134 3675 60.6218
32.4308 3527 59.3886
32.5482 3631 60.2578
32.6655 3468 58.8897
32.7829 3286 57.3236
32.9002 3104 55.7136
33.0176 3183 56.4181
33.1349 2995 54.7266
33.2522 3026 55.0091
33.3694 2933 54.1572
33.4867 2976 54.5527
33.6039 3130 55.9464
33.7211 3112 55.7853
33.8383 3171 56.3116
33.9554 3207 56.6304
34.0725 3356 57.931
34.1896 3354 57.9137
34.3067 3407 58.3695
34.4237 3344 57.8273
34.5407 3296 57.4108
34.6577 3253 57.0351
34.7746 3153 56.1516
34.8915 3296 57.4108
35.0084 3471 58.9152
35.1252 3554 59.6154
35.242 3510 59.2453
35.3587 3545 59.5399
35.4755 3497 59.1354
35.5921 3376 58.1034
35.7088 3189 56.4712
35.8254 3197 56.542
35.9419 3088 55.5698
36.0584 2897 53.8238
36.1749 2783 52.7541
36.2913 2749 52.4309
36.4077 2590 50.892
36.524 2394 48.9285
36.6403 2009 44.8219
36.7565 1763 41.9881
36.8727 1745 41.7732
36.9889 1575 39.6863
37.1049 1536 39.1918
37.221 0 1
37.3369 0 1
37.4529 0 1
37.5687 0 1
37.6845 0 1
37.8003 0 1
37.916 0 1
38.0316 0 1
38.1472 0 1
40.5851 0 1
40.7008 0 1
40.8164 0 1
40.9322 0 1
41.048 0 1
41.1639 0 1
41.2798 0 1
41.3958 0 1
41.5118 0 1
41.6279 0 1
41.744 1315 36.2629
41.8602 1732 41.6173
41.9765 2069 45.4863
42.0928 2261 47.55
42.2091 2243 47.3603
42.3255 2361 48.5901
42.4419 2423 49.224
42.5584 2396 48.949
42.675 2560 50.5964
42.7915 2780 52.7257
42.9081 2808 52.9906
43.0248 3009 54.8544
43.1415 3029 55.0364
43.2582 2967 54.4702
43.375 2759 52.5262
43.4918 2855 53.4322
43.6087 2944 54.2586
43.7256 2846 53.3479
43.8425 2892 53.7773
43.9595 2870 53.5724
44.0765 2869 53.563
44.1935 2851 53.3948
44.3106 2843 53.3198
44.4277 2931 54.1387
44.5448 2835 53.2447
44.6619 2838 53.2729
44.7791 2843 53.3198
44.8963 2953 54.3415
45.0136 3057 55.2901
45.1308 3110 55.7674
45.2481 3086 55.5518
45.3654 3192 56.4978
45.4827 3230 56.8331
45.6001 3402 58.3267
45.7174 3654 60.4483
45.8348 3818 61.79
45.9522 3977 63.0635
46.0697 4132 64.2806
46.1871 4278 65.4064
46.3046 4472 66.873
46.422 4606 67.8675
46.5395 4617 67.9485
46.657 4616 67.9412
46.7745 4437 66.6108
46.892 4113 64.1327
47.0096 3882 62.3057
47.1271 3987 63.1427
47.2446 4093 63.9766
47.3622 4252 65.2074
47.4797 4337 65.8559
47.5973 4258 65.2534
47.7149 4407 66.3852
47.8324 4298 65.5591
47.95 4414 66.4379
48.0675 4359 66.0227
48.1851 4451 66.7158
48.3027 4284 65.4523
48.4202 4263 65.2917
48.5378 4216 64.9307
48.6554 4121 64.195
48.7729 4117 64.1639
48.8904 4050 63.6396
49.008 4061 63.726
49.1255 4045 63.6003
49.243 3988 63.1506
49.3605 4080 63.8749
49.478 4133 64.2884
49.5955 4226 65.0077
49.713 4203 64.8305
49.8304 4317 65.7039
49.9479 4220 64.9615
50.0653 4120 64.1872
50.1827 3858 62.1128
50.3001 3295 57.4021
50.4175 2823 53.1319
50.5348 2599 50.9804
50.6521 2717 52.1249
50.7694 2938 54.2033
50.8867 3055 55.2721
51.004 2915 53.9907
51.1212 2955 54.3599
51.2384 2837 53.2635
51.3556 2778 52.7067
51.4727 2691 51.8748
51.5899 2567 50.6656
51.707 2597 50.9608
51.824 2579 50.7839
51.9411 2532 50.319
52.0581 2583 50.8232
52.175 2566 50.6557
52.2919 2560 50.5964
52.4088 2526 50.2593
52.5257 2372 48.7032
52.6425 2312 48.0833
52.7593 2274 47.6865
52.876 2174 46.6262
52.9927 2236 47.2864
53.1094 2156 46.4327
53.226 2249 47.4236
53.3426 2381 48.7955
53.4591 2121 46.0543
53.5756 1794 42.3556
53.692 1534 39.1663
53.8084 1402 37.4433
53.9248 1207 34.7419
54.0411 1178 34.322
54.1573 997 31.5753
54.2735 0 1
54.3896 0 1
54.5057 0 1
54.6217 0 1
54.7377 0 1
54.8537 0 1
54.9695 0 1
55.0853 0 1
55.2011 0 1
55.3168 0 1
55.4324 0 1
57.824 0 1
57.9396 0 1
58.0553 0 1
58.1711 0 1
58.2869 0 1
58.4028 0 1
58.5187 0 1
58.6347 0 1
58.7508 0 1
58.8669 0 1
58.983 1881 43.3705
59.0992 1927 43.8976
59.2155 1916 43.7721
59.3318 2133 46.1844
59.4482 2351 48.4871
59.5646 2459 49.5883
59.681 2721 52.1632
59.7975 2844 53.3292
59.9141 2816 53.066
60.0306 2672 51.6914
60.1473 2738 52.3259
60.2639 2649 51.4684
60.3807 2684 51.8073
60.4974 2674 51.7107
60.6142 2665 51.6236
60.731 2752 52.4595
60.8479 2849 53.376
60.9648 2956 54.3691
61.0818 2911 53.9537
61.1987 2890 53.7587
61.3158 2721 52.1632
61.4328 2705 52.0096
61.5499 2625 51.2348
61.667 2454 49.5379
61.7841 2583 50.8232
61.9013 2710 52.0577
62.0185 2729 52.2398
62.1357 2714 52.0961
62.253 2775 52.6783
62.3702 2511 50.1099
62.4875 2498 49.98
62.6049 2321 48.1768
62.7222 2432 49.3153
62.8396 2453 49.5278
62.9569 2525 50.2494
63.0743 2726 52.2111
63.1918 2819 53.0943
63.3092 2749 52.4309
63.4267 2775 52.6783
63.5441 2798 52.8961
63.6616 2611 51.0979
63.7791 2811 53.0189
63.8966 2670 51.672
64.0142 2737 52.3163
64.1317 2693 51.8941
64.2492 2827 53.1695
64.3668 2766 52.5928
64.4843 2789 52.811
64.6019 2724 52.192
64.7195 2509 50.0899
64.837 2603 51.0196
64.9546 2681 51.7784
65.0722 2837 53.2635
65.1898 2958 54.3875
65.3074 3146 56.0892
65.4249 3413 58.4209
65.5425 3717 60.9672
65.6601 4166 64.5446
65.7777 4835 69.5342
65.8952 5100 71.4143
66.0128 4914 70.0999
66.1304 4775 69.1014
66.2479 4529 67.2978
66.3655 5398 73.4711
66.483 6448 80.2994
66.6005 7555 86.9195
66.718 7975 89.3029
66.8355 8487 92.1249
66.953 8688 93.2094
67.0705 9007 94.9052
67.1879 9045 95.1052
67.3054 9310 96.4883
67.4228 9481 97.3704
67.5402 9510 97.5192
67.6576 9442 97.17
67.7749 9585 97.903
67.8923 9513 97.5346
68.0096 9830 99.1464
68.1269 9777 98.8787
68.2442 9702 98.4987
68.3614 9870 99.3479
68.4787 9747 98.7269
68.5958 9904 99.5188
68.713 9854 99.2673
68.8302 10013 100.065
68.9473 10118 100.588
69.0643 10144 100.717
69.1814 10386 101.912
69.2984 10753 103.697
69.4154 10521 102.572
69.5323 10450 102.225
69.6492 9927 99.6343
69.7661 8785 93.7283
69.8829 7741 87.983
69.9997 8355 91.4057
70.1165 9267 96.2653
70.2332 9803 99.0101
70.3499 8961 94.6626
70.4665 7836 88.5212
70.5831 6885 82.9759
70.6996 6532 80.8208
70.8161 6169 78.543
70.9326 5851 76.4918
71.049 5577 74.6793
71.1653 5532 74.3774
71.2817 5012 70.7955
71.3979 4879 69.8498
71.5141 4642 68.1322
71.6303 4282 65.437
71.7464 4014 63.3561
71.8624 0 1
71.9784 0 1
72.0944 0 1
72.2102 0 1
72.3261 0 1
72.4418 0 1
72.5575 0 1
72.6732 0 1
75.1054 0 1
75.2209 0 1
75.3365 0 1
75.4521 0 1
75.5678 0 1
75.6835 0 1
75.7993 0 1
75.9151 0 1
76.031 0 1
76.147 11320 106.395
76.263 12025 109.659
76.3791 11791 108.586
76.4952 11448 106.995
76.6113 10992 104.843
76.7276 10607 102.99
76.8438 10388 101.922
76.9601 9867 99.3328
77.0765 9475 97.3396
77.1929 9229 96.0677
77.3093 8706 93.3059
77.4258 8452 91.9348
77.5423 8272 90.9505
77.6589 8001 89.4483
77.7755 7825 88.459
77.8921 7491 86.5506
78.0088 7528 86.764
78.1256 7480 86.487
78.2423 7469 86.4234
78.3591 7458 86.3597
78.4759 7447 86.296
78.5928 6971 83.4925
78.7097 5818 76.2758
78.8266 4689 68.4763
78.9436 3972 63.0238
79.0606 4357 66.0076
79.1776 5316 72.9109
79.2946 6394 79.9625
79.4117 6970 83.4865
79.5288 6987 83.5883
79.6459 6943 83.3247
79.7631 7062 84.0357
79.8802 6913 83.1445
79.9974 6903 83.0843
80.1147 6826 82.6196
80.2319 6614 81.3265
80.3491 6662 81.6211
80.4664 6419 80.1187
80.5837 6369 79.806
80.701 6294 79.3347
80.8183 6260 79.1202
80.9357 6112 78.1793
81.053 5878 76.6681
81.1704 5915 76.909
81.2877 5675 75.3326
81.4051 5562 74.5788
81.5225 5487 74.0743
81.6399 5366 73.253
81.7573 5344 73.1027
81.8747 5344 73.1027
81.9922 5380 73.3485
82.1096 5478 74.0135
82.227 5198 72.0972
82.3444 4553 67.4759
82.4619 3724 61.0246
82.5793 3180 56.3915
82.6967 3324 57.6541
82.8142 4187 64.707
82.9316 4904 70.0286
83.049 5305 72.8354
83.1664 5274 72.6223
83.2838 5314 72.8972
83.4012 5317 72.9178
83.5186 5225 72.2842
83.636 5356 73.1847
83.7534 5256 72.4983
83.8708 5235 72.3533
83.9881 5163 71.854
84.1055 5111 71.4913
84.2228 5013 70.8025
84.3401 5012 70.7955
84.4575 4749 68.913
84.5747 4715 68.6659
84.692 4422 66.4981
84.8093 4306 65.6201
84.9265 4035 63.5216
85.0437 3816 61.7738
85.1609 3708 60.8933
85.2781 3616 60.1332
85.3952 3510 59.2453
85.5123 3345 57.836
85.6294 3189 56.4712
85.7465 3220 56.745
85.8636 2953 54.3415
85.9806 2617 51.1566
86.0976 2406 49.051
86.2145 2316 48.1248
86.3315 2499 49.99
86.4484 3195 56.5243
86.5652 3495 59.1185
86.682 3673 60.6053
86.7988 3605 60.0417
86.9156 3697 60.803
87.0323 3777 61.4573
87.149 3633 60.2744
87.2657 3720 60.9918
87.3823 3637 60.3075
87.4988 3676 60.63
87.6154 3504 59.1946
87.7318 3235 56.8771
87.8483 3051 55.2359
87.9647 2957 54.3783
88.081 2873 53.6004
88.1973 2936 54.1849
88.3136 2846 53.3479
88.4298 2776 52.6878
88.546 2840 53.2917
88.6621 2826 53.1601
88.7781 2833 53.2259
88.8942 0 1
89.0101 0 1
89.126 0 1
89.2419 0 1
89.3577 0 1
89.4734 0 1
89.5891 0 1
89.7047 0 1
89.8203 0 1
89.9358 0 1
92.3269 0 1
92.4424 0 1
92.558 0 1
92.6736 0 1
92.7893 0 1
92.905 0 1
93.0208 0 1
93.1366 0 1
93.2525 0 1
93.3685 0 1
93.4845 0 1
93.6005 6279 79.2401
93.7167 6283 79.2654
93.8328 6599 81.2342
93.949 6950 83.3667
94.0653 6942 83.3187
94.1816 7321 85.5628
94.2979 7339 85.668
94.4143 7590 87.1206
94.5307 7591 87.1263
94.6472 7519 86.7122
94.7637 7505 86.6314
94.8803 6940 83.3067
94.9969 6160 78.4857
95.1135 5829 76.3479
95.2302 6207 78.7845
95.3469 6861 82.8312
95.4637 7539 86.8274
95.5805 7998 89.4315
95.6973 8026 89.5879
95.8142 8107 90.0389
95.9311 8173 90.4046
96.048 7992 89.398
96.1649 8067 89.8165
96.2819 7753 88.0511
96.3989 7443 86.2728
96.516 7344 85.6971
96.633 7293 85.3991
96.7501 7379 85.9011
96.8673 7509 86.6545
96.9844 7629 87.3441
97.1016 7502 86.6141
97.2188 7696 87.7268
97.336 7998 89.4315
97.4532 8318 91.2031
97.5704 8810 93.8616
97.6877 8904 94.361
97.805 9312 96.4987
97.9223 9587 97.9132
98.0396 9716 98.5698
98.1569 9652 98.2446
98.2743 9389 96.8969
98.3916 8713 93.3435
98.509 7677 87.6185
98.6264 7016 83.7616
98.7438 7477 86.4696
98.8612 8253 90.846
98.9786 9381 96.8556
99.096 10066 100.329
99.2134 9882 99.4082
99.3308 10084 100.419
99.4482 10192 100.955
99.5656 10139 100.693
99.6831 10015 100.075
99.8005 9691 98.4429
99.9179 9554 97.7446
100.035 9317 96.5246
100.153 9242 96.1353
100.27 9093 95.3572
100.388 9120 95.4987
100.505 9103 95.4096
100.622 9291 96.3898
100.74 9324 96.5609
100.857 9271 96.286
100.975 9829 99.1413
101.092 10084 100.419
101.209 10059 100.295
101.327 10189 100.941
101.444 10510 102.518
101.561 10720 103.537
101.679 10532 102.626
101.796 10536 102.645
101.913 10412 102.039
102.03 9464 97.2831
102.148 8322 91.225
102.265 7514 86.6833
102.382 8647 92.9892
102.499 9402 96.9639
102.616 10536 102.645
102.733 10558 102.752
102.851 10725 103.562
102.968 10829 104.062
103.085 10695 103.417
103.202 10726 103.566
103.319 10774 103.798
103.436 11017 104.962
103.552 10921 104.504
103.669 11078 105.252
103.786 10970 104.738
103.903 10995 104.857
104.02 11349 106.532
104.137 11413 106.832
104.253 11491 107.196
104.37 10895 104.379
104.487 10760 103.73
104.603 10490 102.421
104.72 10089 100.444
104.836 9444 97.1802
104.953 8528 92.3472
105.069 7787 88.244
105.186 7038 83.8928
105.302 6576 81.0925
105.418 6441 80.2558
105.535 6046 77.756
105.651 5357 73.1915
105.767 4733 68.7968
105.883 4319 65.7191
105.999 3854 62.0806
106.115 0 1
106.231 0 1
106.347 0 1
106.463 0 1
106.579 0 1
106.694 0 1
106.81 0 1
106.926 0 1
107.041 0 1
107.157 0 1
109.576 0 1
109.692 0 1
109.807 0 1
109.923 0 1
110.039 0 1
110.155 0 1
110.27 0 1
110.386 0 1
110.502 0 1
110.618 15302 123.701
110.735 15914 126.151
110.851 15414 124.153
110.967 15064 122.735
111.083 15209 123.325
111.199 15855 125.917
111.316 16368 127.937
111.432 16737 129.372
111.549 17036 130.522
111.665 17362 131.765
111.782 17041 130.541
111.898 16666 129.097
112.015 16348 127.859
112.132 16147 127.071
112.248 16264 127.53
112.365 16590 128.802
112.482 16433 128.191
112.599 17453 132.11
112.716 18297 135.266
112.832 18841 137.263
112.949 19749 140.531
113.066 20241 142.271
113.183 20053 141.609
113.3 19868 140.954
113.417 20063 141.644
113.534 20053 141.609
113.652 19843 140.865
113.769 19545 139.803
113.886 19849 140.886
114.003 19798 140.705
114.12 20002 141.428
114.238 19609 140.032
114.355 19213 138.611
114.472 18036 134.298
114.589 18262 135.137
114.707 18656 136.587
114.824 19538 139.778
114.942 20715 143.927
115.059 21010 144.948
115.176 20818 144.284
115.294 20969 144.807
115.411 21093 145.234
115.529 20998 144.907
115.646 20545 143.335
115.764 19801 140.716
115.881 19730 140.464
115.999 19057 138.047
116.116 19322 139.004
116.234 20127 141.87
116.351 21210 145.637
116.469 21571 146.871
116.586 22300 149.332
116.704 22638 150.459
116.821 22804 151.01
116.939 22066 148.546
117.056 21650 147.139
117.174 20459 143.035
117.291 19962 141.287
117.409 20140 141.915
117.526 20097 141.764
117.644 20678 143.798
117.761 20770 144.118
117.879 20540 143.318
117.996 19065 138.076
118.114 18283 135.215
118.231 18409 135.68
118.349 18933 137.597
118.466 19612 140.043
118.584 19878 140.989
118.701 19666 140.236
118.819 19433 139.402
118.936 18982 137.775
119.053 18176 134.818
119.171 17879 133.712
119.288 16679 129.147
119.405 15966 126.357
119.523 15833 125.829
119.64 15982 126.42
119.757 16545 128.627
119.875 17292 131.499
119.992 18132 134.655
120.109 19120 138.275
120.226 19127 138.3
120.343 19301 138.928
120.46 18558 136.228
120.578 17952 133.985
120.695 17273 131.427
120.812 16566 128.709
120.929 15962 126.341
121.046 15595 124.88
121.163 15831 125.821
121.279 15845 125.877
121.396 15468 124.37
121.513 15385 124.036
121.63 14373 119.887
121.747 13297 115.313
121.863 11633 107.856
121.98 11327 106.428
122.097 10786 103.856
122.213 10841 104.12
122.33 10488 102.411
122.446 10091 100.454
122.563 9810 99.0454
122.679 9316 96.5194
122.795 8714 93.3488
122.912 8073 89.8499
123.028 7428 86.1858
123.144 6905 83.0963
123.26 6597 81.2219
123.377 0 1
123.493 0 1
123.609 0 1
123.725 0 1
123.84 0 1
123.956 0 1
124.072 0 1
124.188 0 1
124.303 0 1
124.419 0 1
126.852 0 1
126.968 0 1
127.083 0 1
127.199 0 1
127.315 0 1
127.431 0 1
127.547 0 1
127.663 0 1
127.779 0 1
127.895 0 1
128.011 0 1
128.127 0 1
128.243 0 1
128.359 10327 101.622
128.476 10231 101.148
128.592 10124 100.618
128.708 10161 100.802
128.825 10540 102.665
128.941 10404 102
129.058 10720 103.537
129.174 11374 106.649
129.291 11596 107.685
129.408 12494 111.777
129.524 13334 115.473
129.641 14031 118.453
129.758 14757 121.478
129.875 15041 122.642
129.992 15009 122.511
130.108 15225 123.39
130.225 14812 121.705
130.342 14605 120.851
130.459 13737 117.205
130.576 13754 117.277
130.693 12613 112.308
130.81 12261 110.729
130.928 11856 108.885
131.045 12270 110.77
131.162 12671 112.566
131.279 13103 114.468
131.396 12972 113.895
131.513 13149 114.669
131.631 13255 115.13
131.748 13036 114.175
131.865 12868 113.437
131.983 12848 113.349
132.1 12877 113.477
132.217 12947 113.785
132.335 12940 113.754
132.452 13035 114.171
132.57 13274 115.213
132.687 12861 113.406
132.804 13593 116.589
132.922 13051 114.241
133.039 13311 115.373
133.157 13149 114.669
133.274 13139 114.625
133.392 13407 115.789
133.509 13665 116.897
133.627 13977 118.224
133.744 13850 117.686
133.862 14028 118.44
133.979 14114 118.802
134.097 13959 118.148
134.214 13608 116.653
134.332 13392 115.724
134.449 13460 116.017
134.567 13935 118.047
134.684 14322 119.675
134.802 14763 121.503
134.919 14905 122.086
135.037 15014 122.532
135.154 14881 121.988
135.272 14548 120.615
135.389 14272 119.465
135.507 14039 118.486
135.624 14030 118.448
135.742 13645 116.812
135.859 13425 115.866
135.977 13367 115.616
136.094 13228 115.013
136.211 12825 113.248
136.329 12888 113.525
136.446 12708 112.73
136.564 12800 113.137
136.681 13167 114.748
136.798 13079 114.363
136.915 13312 115.378
137.033 13162 114.726
137.15 13198 114.883
137.267 12973 113.899
137.384 13023 114.118
137.502 12657 112.503
137.619 12360 111.176
137.736 11885 109.018
137.853 11344 106.508
137.97 11168 105.679
138.087 10657 103.233
138.204 10926 104.528
138.321 11141 105.551
138.438 11619 107.791
138.555 11640 107.889
138.672 11943 109.284
138.788 11581 107.615
138.905 11600 107.703
139.022 11491 107.196
139.139 10868 104.25
139.255 10635 103.126
139.372 9819 99.0909
139.488 9463 97.278
139.605 9062 95.1945
139.721 8822 93.9255
139.838 8388 91.586
139.954 8022 89.5656
140.071 7666 87.5557
140.187 7870 88.713
140.303 7837 88.5268
140.419 8247 90.813
140.535 8499 92.19
140.652 8875 94.2072
140.768 0 1
140.884 0 1
141 0 1
141.115 0 1
141.231 0 1
141.347 0 1
141.463 0 1
141.578 0 1
141.694 0 1
144.104 0 1
144.219 0 1
144.335 0 1
144.45 0 1
144.566 0 1
144.682 0 1
144.798 0 1
144.914 0 1
145.03 0 1
145.146 14396 119.983
145.262 14847 121.848
145.378 14993 122.446
145.494 15216 123.353
145.61 15495 124.479
145.726 15802 125.706
145.842 16081 126.811
145.959 16014 126.546
146.075 15956 126.317
146.192 16160 127.122
146.308 15643 125.072
146.425 15279 123.608
146.541 14240 119.331
146.658 13168 114.752
146.774 12002 109.554
146.891 11565 107.541
147.008 12586 112.187
147.125 14087 118.689
147.241 14934 122.205
147.358 15433 124.23
147.475 15599 124.896
147.592 16027 126.598
147.709 16362 127.914
147.826 16446 128.242
147.943 16616 128.903
148.06 16675 129.132
148.177 16732 129.352
148.294 16393 128.035
148.411 16356 127.891
148.528 16294 127.648
148.645 16483 128.386
148.762 16722 129.314
148.88 16791 129.58
148.997 16461 128.3
149.114 17737 133.18
149.231 17099 130.763
149.349 17448 132.091
149.466 17044 130.553
149.583 17284 131.469
149.701 16883 129.935
149.818 17145 130.939
149.935 16989 130.342
150.053 16911 130.042
150.17 16180 127.201
150.287 15195 123.268
150.405 13602 116.628
150.522 13054 114.254
150.64 13069 114.32
150.757 13923 117.996
150.875 14765 121.511
150.992 15171 123.171
151.11 14589 120.785
151.227 14134 118.887
151.344 13982 118.246
151.462 13985 118.258
151.579 14261 119.419
151.697 14435 120.146
151.814 14718 121.318
151.932 15291 123.657
152.049 15440 124.258
152.167 15415 124.157
152.284 15530 124.619
152.402 15578 124.812
152.519 15579 124.816
152.636 15292 123.661
152.754 15381 124.02
152.871 15581 124.824
152.989 15707 125.328
153.106 15904 126.111
153.223 15743 125.471
153.341 15909 126.131
153.458 16029 126.606
153.575 16529 128.565
153.693 16519 128.526
153.81 16181 127.205
153.927 15041 122.642
154.044 13729 117.171
154.162 13191 114.852
154.279 13645 116.812
154.396 14852 121.869
154.513 15692 125.268
154.63 15786 125.642
154.747 15740 125.459
154.864 15219 123.365
154.981 15064 122.735
155.098 14443 120.179
155.215 14045 118.512
155.332 12989 113.969
155.449 12437 111.521
155.566 11958 109.353
155.683 11485 107.168
155.8 10851 104.168
155.917 10459 102.269
156.033 10090 100.449
156.15 0 1
156.267 0 1
156.383 0 1
156.5 0 1
156.617 0 1
156.733 0 1
156.85 0 1
156.966 0 1
157.082 0 1
157.199 0 1
157.315 0 1
157.431 0 1
157.547 0 1
157.664 0 1
157.78 0 1
157.896 0 1
158.012 0 1
158.128 0 1
158.244 0 1
158.359 0 1
158.475 0 1
158.591 0 1
158.706 0 1
