
6.15755 0 1
6.2731 0 1
6.3887 0 1
6.50437 0 1
6.62009 0 1
6.73587 0 1
6.8517 0 1
6.96759 0 1
7.08353 0 1
7.19952 0 1
7.31557 0 1
7.43166 0 1
7.54781 0 1
7.664 0 1
7.78024 0 1
7.89653 0 1
8.01286 0 1
8.12924 0 1
8.24567 0 1
8.36213 0 1
8.47864 0 1
8.59519 0 1
8.71178 0 1
8.82841 0 1
8.94508 0 1
9.06179 0 1
9.17853 0 1
9.29531 0 1
9.41212 0 1
9.52897 0 1
9.64584 0 1
9.76276 0 1
9.8797 0 1
9.99667 0 1
10.1137 0 1
10.2307 0 1
10.3478 0 1
10.4648 0 1
10.5819 0 1
10.6991 0 1
10.8162 0 1
10.9334 0 1
11.0506 0 1
11.1678 0 1
11.285 0 1
11.4023 0 1
11.5196 0 1
11.6369 0 1
11.7542 0 1
11.8715 0 1
11.9888 0 1
12.1062 0 1
12.2235 0 1
12.3409 0 1
12.4582 0 1
12.5756 0 1
12.693 0 1
12.8104 0 1
12.9278 0 1
13.0452 0 1
13.1626 0 1
13.28 0 1
13.3974 0 1
13.5149 0 1
13.6323 0 1
13.7497 0 1
13.8671 0 1
13.9845 0 1
14.1019 0 1
14.2193 0 1
14.3367 0 1
14.4541 0 1
14.5714 0 1
14.6888 0 1
14.8062 0 1
14.9235 0 1
15.0408 0 0
15.1581 0 0
15.2755 0 0
15.3927 0 0
15.51 0 0
15.6273 0 0
15.7445 0 0
15.8617 0 0
15.9789 0 0
16.0961 0 0
16.2132 0 0
16.3304 0 0
16.4475 0 0
16.5646 0 0
16.6816 0 0
16.7986 0 0
16.9156 0 0
17.0326 0 0
17.1496 0 0
17.2665 0 0
17.3833 0 0
17.5002 0 0
17.617 0 0
17.7338 0 0
17.8505 0 0
17.9672 0 0
18.0839 0 0
18.2005 0 0
18.3171 0 0
18.4337 0 0
18.5502 0 0
18.6666 0 0
18.7831 0 0
18.8994 0 0
19.0158 0 0
19.1321 0 0
19.2483 0 0
19.3645 0 0
19.4806 0 0
19.5967 0 0
19.7128 0 0
19.8288 0 0
19.9447 0 0
20.0606 0 1
20.1764 0 1
20.2922 0 1
20.4079 0 1
20.5236 0 1
20.6392 0 1
20.7548 0 1
20.8702 0 1
23.3078 0 1
23.4233 0 1
23.539 0 1
23.6547 0 1
23.7704 0 1
23.8862 0 1
24.0021 0 1
24.118 0 1
24.234 0 1
24.35 0 1
24.4661 1551 39.3827
24.5822 1650 40.6202
24.6984 1643 40.5339
24.8146 1605 40.0625
24.9309 1727 41.5572
25.0472 1550 39.37
25.1636 1444 38
25.28 1437 37.9078
25.3965 1547 39.3319
25.513 1434 37.8682
25.6296 1642 40.5216
25.7462 1715 41.4126
25.8628 1816 42.6146
25.9795 1923 43.852
26.0962 1840 42.8952
26.213 1817 42.6263
26.3298 1805 42.4853
26.4466 1714 41.4005
26.5635 1762 41.9762
26.6804 1654 40.6694
26.7973 1706 41.3038
26.9143 1724 41.5211
27.0313 1681 41
27.1483 1753 41.8688
27.2653 1810 42.5441
27.3824 1777 42.1545
27.4996 1811 42.5558
27.6167 1780 42.19
27.7339 1794 42.3556
27.8511 1764 42
27.9683 1770 42.0714
28.0855 1729 41.5812
28.2028 1752 41.8569
28.3201 1709 41.3401
28.4374 1655 40.6817
28.5547 1554 39.4208
28.6721 1470 38.3406
28.7894 1387 37.2424
28.9068 1442 37.9737
29.0242 1394 37.3363
29.1416 1451 38.092
29.259 1569 39.6106
29.3764 1687 41.0731
29.4939 1721 41.4849
29.6113 1785 42.2493
29.7288 1716 41.4246
29.8463 1701 41.2432
29.9638 1721 41.4849
30.0812 1637 40.4599
30.1987 1633 40.4104
30.3162 1517 38.9487
30.4337 1672 40.8901
30.5512 1611 40.1373
30.6687 1621 40.2616
30.7862 1697 41.1947
30.9037 1810 42.5441
31.0212 1781 42.2019
31.1387 1785 42.2493
31.2562 1750 41.833
31.3737 1694 41.1582
31.4912 1828 42.7551
31.6087 1713 41.3884
31.7262 1728 41.5692
31.8436 1779 42.1782
31.9611 1640 40.4969
32.0785 1623 40.2865
32.1959 1564 39.5474
32.3134 1509 38.8458
32.4308 1497 38.6911
32.5482 1489 38.5876
32.6655 1521 39
32.7829 1599 39.9875
32.9002 1683 41.0244
33.0176 1699 41.2189
33.1349 1732 41.6173
33.2522 1821 42.6732
33.3694 1769 42.0595
33.4867 1687 41.0731
33.6039 1743 41.7493
33.7211 1645 40.5586
33.8383 1577 39.7115
33.9554 1601 40.0125
34.0725 1511 38.8716
34.1896 1628 40.3485
34.3067 1604 40.05
34.4237 1758 41.9285
34.5407 1742 41.7373
34.6577 1750 41.833
34.7746 1730 41.5933
34.8915 1753 41.8688
35.0084 1839 42.8836
35.1252 1797 42.391
35.242 1711 41.3642
35.3587 1673 40.9023
35.4755 1754 41.8808
35.5921 1753 41.8688
35.7088 1621 40.2616
35.8254 1543 39.281
35.9419 1435 37.8814
36.0584 1409 37.5366
36.1749 1468 38.3145
36.2913 1345 36.6742
36.4077 1402 37.4433
36.524 1477 38.4318
36.6403 1646 40.5709
36.7565 1625 40.3113
36.8727 1691 41.1218
36.9889 1743 41.7493
37.1049 1701 41.2432
37.221 0 1
37.3369 0 1
37.4529 0 1
37.5687 0 1
37.6845 0 1
37.8003 0 1
37.916 0 1
38.0316 0 1
38.1472 0 1
40.5851 0 1
40.7008 0 1
40.8164 0 1
40.9322 0 1
41.048 0 1
41.1639 0 1
41.2798 0 1
41.3958 0 1
41.5118 0 1
41.6279 0 1
41.744 1228 35.0428
41.8602 1364 36.9324
41.9765 1317 36.2905
42.0928 1446 38.0263
42.2091 1458 38.1838
42.3255 1408 37.5233
42.4419 1342 36.6333
42.5584 1293 35.9583
42.675 1215 34.8569
42.7915 1246 35.2987
42.9081 1178 34.322
43.0248 1324 36.3868
43.1415 1345 36.6742
43.2582 1407 37.51
43.375 1385 37.2156
43.4918 1381 37.1618
43.6087 1372 37.0405
43.7256 1356 36.8239
43.8425 1365 36.9459
43.9595 1365 36.9459
44.0765 1414 37.6032
44.1935 1302 36.0832
44.3106 1309 36.1801
44.4277 1221 34.9428
44.5448 1119 33.4515
44.6619 1042 32.28
44.7791 1014 31.8434
44.8963 998 31.5911
45.0136 1028 32.0624
45.1308 993 31.5119
45.2481 1103 33.2114
45.3654 1152 33.9411
45.4827 1172 34.2345
45.6001 1194 34.5543
45.7174 1113 33.3617
45.8348 1053 32.45
45.9522 1110 33.3167
46.0697 1079 32.8481
46.1871 891 29.8496
46.3046 878 29.6311
46.422 855 29.2404
46.5395 949 30.8058
46.657 960 30.9839
46.7745 1032 32.1248
46.892 1018 31.9061
47.0096 1134 33.6749
47.1271 1068 32.6803
47.2446 1082 32.8938
47.3622 1039 32.2335
47.4797 1058 32.5269
47.5973 1110 33.3167
47.7149 934 30.5614
47.8324 1040 32.249
47.95 1003 31.6702
48.0675 889 29.8161
48.1851 837 28.931
48.3027 788 28.0713
48.4202 820 28.6356
48.5378 835 28.8964
48.6554 906 30.0998
48.7729 993 31.5119
48.8904 1002 31.6544
49.008 955 30.9031
49.1255 916 30.2655
49.243 980 31.305
49.3605 912 30.1993
49.478 889 29.8161
49.5955 798 28.2489
49.713 786 28.0357
49.8304 767 27.6948
49.9479 770 27.7489
50.0653 850 29.1548
50.1827 854 29.2233
50.3001 949 30.8058
50.4175 989 31.4484
50.5348 1024 32
50.6521 1089 33
50.7694 1071 32.7261
50.8867 1159 34.0441
51.004 1112 33.3467
51.1212 1076 32.8024
51.2384 1153 33.9559
51.3556 1128 33.5857
51.4727 1149 33.8969
51.5899 1016 31.8748
51.707 1045 32.3265
51.824 976 31.241
51.9411 1034 32.1559
52.0581 1072 32.7414
52.175 1131 33.6303
52.2919 1239 35.1994
52.4088 1223 34.9714
52.5257 1175 34.2783
52.6425 1232 35.0999
52.7593 1205 34.7131
52.876 1273 35.6791
52.9927 1245 35.2846
53.1094 1242 35.242
53.226 1132 33.6452
53.3426 1058 32.5269
53.4591 1060 32.5576
53.5756 1111 33.3317
53.692 1172 34.2345
53.8084 1316 36.2767
53.9248 1354 36.7967
54.0411 1338 36.5787
54.1573 1368 36.9865
54.2735 0 1
54.3896 0 1
54.5057 0 1
54.6217 0 1
54.7377 0 1
54.8537 0 1
54.9695 0 1
55.0853 0 1
55.2011 0 1
55.3168 0 1
55.4324 0 1
57.824 0 1
57.9396 0 1
58.0553 0 1
58.1711 0 1
58.2869 0 1
58.4028 0 1
58.5187 0 1
58.6347 0 1
58.7508 0 1
58.8669 0 1
58.983 1452 38.1051
59.0992 1556 39.4462
59.2155 1647 40.5832
59.3318 1644 40.5463
59.4482 1601 40.0125
59.5646 1707 41.3159
59.681 1702 41.2553
59.7975 1646 40.5709
59.9141 1681 41
60.0306 1571 39.6358
60.1473 1475 38.4057
60.2639 1420 37.6829
60.3807 1295 35.9861
60.4974 1377 37.108
60.6142 1412 37.5766
60.731 1411 37.5633
60.8479 1421 37.6962
60.9648 1477 38.4318
61.0818 1487 38.5616
61.1987 1523 39.0256
61.3158 1477 38.4318
61.4328 1468 38.3145
61.5499 1475 38.4057
61.667 1346 36.6879
61.7841 1256 35.4401
61.9013 1191 34.5109
62.0185 1263 35.5387
62.1357 1340 36.606
62.253 1399 37.4032
62.3702 1572 39.6485
62.4875 1594 39.9249
62.6049 1604 40.05
62.7222 1735 41.6533
62.8396 1767 42.0357
62.9569 1852 43.0349
63.0743 1842 42.9185
63.1918 1860 43.1277
63.3092 1773 42.107
63.4267 1820 42.6615
63.5441 1663 40.7799
63.6616 1634 40.4228
63.7791 1490 38.6005
63.8966 1534 39.1663
64.0142 1534 39.1663
64.1317 1532 39.1408
64.2492 1663 40.7799
64.3668 1609 40.1123
64.4843 1739 41.7013
64.6019 1681 41
64.7195 1680 40.9878
64.837 1712 41.3763
64.9546 1708 41.328
65.0722 1590 39.8748
65.1898 1427 37.7757
65.3074 1406 37.4967
65.4249 1237 35.171
65.5425 1206 34.7275
65.6601 1264 35.5528
65.7777 1372 37.0405
65.8952 1451 38.092
66.0128 1561 39.5095
66.1304 1687 41.0731
66.2479 1628 40.3485
66.3655 1796 42.3792
66.483 1710 41.3521
66.6005 1773 42.107
66.718 1746 41.7852
66.8355 1731 41.6053
66.953 1708 41.328
67.0705 1606 40.0749
67.1879 1550 39.37
67.3054 1407 37.51
67.4228 1384 37.2022
67.5402 1366 36.9594
67.6576 1358 36.8511
67.7749 1381 37.1618
67.8923 1397 37.3765
68.0096 1424 37.7359
68.1269 1451 38.092
68.2442 1407 37.51
68.3614 1403 37.4566
68.4787 1409 37.5366
68.5958 1439 37.9342
68.713 1373 37.054
68.8302 1221 34.9428
68.9473 1068 32.6803
69.0643 1110 33.3167
69.1814 996 31.5595
69.2984 1121 33.4813
69.4154 1243 35.2562
69.5323 1258 35.4683
69.6492 1368 36.9865
69.7661 1417 37.6431
69.8829 1577 39.7115
69.9997 1530 39.1152
70.1165 1673 40.9023
70.2332 1601 40.0125
70.3499 1573 39.6611
70.4665 1566 39.5727
70.5831 1554 39.4208
70.6996 1472 38.3667
70.8161 1453 38.1182
70.9326 1346 36.6879
71.049 1241 35.2278
71.1653 1231 35.0856
71.2817 1201 34.6554
71.3979 1223 34.9714
71.5141 1303 36.0971
71.6303 1282 35.805
71.7464 1158 34.0294
71.8624 0 1
71.9784 0 1
72.0944 0 1
72.2102 0 1
72.3261 0 1
72.4418 0 1
72.5575 0 1
72.6732 0 1
75.1054 0 1
75.2209 0 1
75.3365 0 1
75.4521 0 1
75.5678 0 1
75.6835 0 1
75.7993 0 1
75.9151 0 1
76.031 0 1
76.147 1253 35.3977
76.263 1335 36.5377
76.3791 1246 35.2987
76.4952 1285 35.8469
76.6113 1238 35.1852
76.7276 1217 34.8855
76.8438 1376 37.0945
76.9601 1341 36.6197
77.0765 1334 36.524
77.1929 1400 37.4166
77.3093 1429 37.8021
77.4258 1410 37.55
77.5423 1444 38
77.6589 1347 36.7015
77.7755 1179 34.3366
77.8921 1080 32.8634
78.0088 973 31.1929
78.1256 908 30.133
78.2423 902 30.0333
78.3591 991 31.4802
78.4759 1159 34.0441
78.5928 1222 34.9571
78.7097 1298 36.0278
78.8266 1388 37.2559
78.9436 1571 39.6358
79.0606 1492 38.6264
79.1776 1546 39.3192
79.2946 1548 39.3446
79.4117 1471 38.3536
79.5288 1549 39.3573
79.6459 1416 37.6298
79.7631 1450 38.0789
79.8802 1233 35.1141
79.9974 1237 35.171
80.1147 1208 34.7563
80.2319 1183 34.3948
80.3491 1264 35.5528
80.4664 1315 36.2629
80.5837 1264 35.5528
80.701 1262 35.5246
80.8183 1233 35.1141
80.9357 1259 35.4824
81.053 1243 35.2562
81.1704 1296 36
81.2877 1265 35.5668
81.4051 1109 33.3017
81.5225 943 30.7083
81.6399 805 28.3725
81.7573 853 29.2062
81.8747 819 28.6182
81.9922 843 29.0345
82.1096 1068 32.6803
82.227 1175 34.2783
82.3444 1219 34.9142
82.4619 1335 36.5377
82.5793 1344 36.6606
82.6967 1316 36.2767
82.8142 1326 36.4143
82.9316 1373 37.054
83.049 1384 37.2022
83.1664 1284 35.8329
83.2838 1271 35.6511
83.4012 1200 34.641
83.5186 1162 34.0881
83.636 1057 32.5115
83.7534 1144 33.8231
83.8708 1093 33.0606
83.9881 1169 34.1906
84.1055 1181 34.3657
84.2228 1095 33.0908
84.3401 1164 34.1174
84.4575 1187 34.4529
84.5747 1183 34.3948
84.692 1255 35.426
84.8093 1241 35.2278
84.9265 1114 33.3766
85.0437 964 31.0483
85.1609 832 28.8444
85.2781 724 26.9072
85.3952 782 27.9643
85.5123 822 28.6705
85.6294 962 31.0161
85.7465 1100 33.1662
85.8636 1226 35.0143
85.9806 1319 36.318
86.0976 1355 36.8103
86.2145 1356 36.8239
86.3315 1544 39.2938
86.4484 1369 37
86.5652 1464 38.2623
86.682 1460 38.2099
86.7988 1407 37.51
86.9156 1375 37.081
87.0323 1267 35.5949
87.149 1286 35.8608
87.2657 1256 35.4401
87.3823 1334 36.524
87.4988 1297 36.0139
87.6154 1319 36.318
87.7318 1333 36.5103
87.8483 1363 36.9188
87.9647 1341 36.6197
88.081 1431 37.8286
88.1973 1497 38.6911
88.3136 1420 37.6829
88.4298 1304 36.1109
88.546 1125 33.541
88.6621 1075 32.7872
88.7781 920 30.3315
88.8942 0 1
89.0101 0 1
89.126 0 1
89.2419 0 1
89.3577 0 1
89.4734 0 1
89.5891 0 1
89.7047 0 1
89.8203 0 1
89.9358 0 1
92.3269 0 1
92.4424 0 1
92.558 0 1
92.6736 0 1
92.7893 0 1
92.905 0 1
93.0208 0 1
93.1366 0 1
93.2525 0 1
93.3685 0 1
93.4845 0 1
93.6005 1446 38.0263
93.7167 1344 36.6606
93.8328 1328 36.4417
93.949 1260 35.4965
94.0653 1119 33.4515
94.1816 980 31.305
94.2979 909 30.1496
94.4143 909 30.1496
94.5307 916 30.2655
94.6472 1013 31.8277
94.7637 1249 35.3412
94.8803 1346 36.6879
94.9969 1465 38.2753
95.1135 1497 38.6911
95.2302 1499 38.7169
95.3469 1671 40.8779
95.4637 1615 40.1871
95.5805 1596 39.95
95.6973 1669 40.8534
95.8142 1632 40.398
95.9311 1577 39.7115
96.048 1612 40.1497
96.1649 1545 39.3065
96.2819 1487 38.5616
96.3989 1463 38.2492
96.516 1474 38.3927
96.633 1370 37.0135
96.7501 1414 37.6032
96.8673 1467 38.3014
96.9844 1506 38.8072
97.1016 1463 38.2492
97.2188 1514 38.9102
97.336 1614 40.1746
97.4532 1431 37.8286
97.5704 1451 38.092
97.6877 1285 35.8469
97.805 1011 31.7962
97.9223 986 31.4006
98.0396 891 29.8496
98.1569 866 29.4279
98.2743 1026 32.0312
98.3916 1186 34.4384
98.509 1346 36.6879
98.6264 1392 37.3095
98.7438 1614 40.1746
98.8612 1585 39.8121
98.9786 1572 39.6485
99.096 1694 41.1582
99.2134 1647 40.5832
99.3308 1642 40.5216
99.4482 1690 41.1096
99.5656 1641 40.5093
99.6831 1565 39.5601
99.8005 1558 39.4715
99.9179 1569 39.6106
100.035 1508 38.833
100.153 1436 37.8946
100.27 1516 38.9358
100.388 1531 39.128
100.505 1495 38.6652
100.622 1421 37.6962
100.74 1529 39.1024
100.857 1550 39.37
100.975 1619 40.2368
101.092 1508 38.833
101.209 1386 37.229
101.327 1279 35.7631
101.444 1098 33.1361
101.561 918 30.2985
101.679 912 30.1993
101.796 904 30.0666
101.913 1061 32.573
102.03 1311 36.2077
102.148 1510 38.8587
102.265 1614 40.1746
102.382 1819 42.6497
102.499 1728 41.5692
102.616 1756 41.9047
102.733 1873 43.2782
102.851 1815 42.6028
102.968 1749 41.821
103.085 1761 41.9643
103.202 1705 41.2916
103.319 1618 40.2244
103.436 1756 41.9047
103.552 1657 40.7063
103.669 1585 39.8121
103.786 1598 39.975
103.903 1564 39.5474
104.02 1581 39.7618
104.137 1585 39.8121
104.253 1626 40.3237
104.37 1739 41.7013
104.487 1692 41.1339
104.603 1566 39.5727
104.72 1434 37.8682
104.836 1241 35.2278
104.953 1132 33.6452
105.069 994 31.5278
105.186 946 30.7571
105.302 998 31.5911
105.418 1252 35.3836
105.535 1478 38.4448
105.651 1637 40.4599
105.767 1863 43.1625
105.883 1856 43.0813
105.999 1887 43.4396
106.115 0 1
106.231 0 1
106.347 0 1
106.463 0 1
106.579 0 1
106.694 0 1
106.81 0 1
106.926 0 1
107.041 0 1
107.157 0 1
109.576 0 1
109.692 0 1
109.807 0 1
109.923 0 1
110.039 0 1
110.155 0 1
110.27 0 1
110.386 0 1
110.502 0 1
110.618 1441 37.9605
110.735 1589 39.8623
110.851 1743 41.7493
110.967 1732 41.6173
111.083 1770 42.0714
111.199 1741 41.7253
111.316 1782 42.2137
111.432 1842 42.9185
111.549 1815 42.6028
111.665 1821 42.6732
111.782 1738 41.6893
111.898 1624 40.2989
112.015 1664 40.7922
112.132 1575 39.6863
112.248 1597 39.9625
112.365 1589 39.8623
112.482 1503 38.7685
112.599 1587 39.8372
112.716 1578 39.724
112.832 1636 40.4475
112.949 1570 39.6232
113.066 1603 40.0375
113.183 1555 39.4335
113.3 1372 37.0405
113.417 1086 32.9545
113.534 1039 32.2335
113.652 981 31.3209
113.769 894 29.8998
113.886 961 31
114.003 1186 34.4384
114.12 1450 38.0789
114.238 1539 39.2301
114.355 1540 39.2428
114.472 1649 40.6079
114.589 1710 41.3521
114.707 1600 40
114.824 1702 41.2553
114.942 1674 40.9145
115.059 1695 41.1704
115.176 1640 40.4969
115.294 1679 40.9756
115.411 1617 40.2119
115.529 1637 40.4599
115.646 1611 40.1373
115.764 1613 40.1622
115.881 1559 39.4842
115.999 1524 39.0384
116.116 1457 38.1707
116.234 1548 39.3446
116.351 1509 38.8458
116.469 1505 38.7943
116.586 1554 39.4208
116.704 1492 38.6264
116.821 1423 37.7227
116.939 1206 34.7275
117.056 1104 33.2265
117.174 1010 31.7805
117.291 962 31.0161
117.409 968 31.1127
117.526 996 31.5595
117.644 1244 35.2704
117.761 1396 37.3631
117.879 1552 39.3954
117.996 1586 39.8246
118.114 1587 39.8372
118.231 1637 40.4599
118.349 1663 40.7799
118.466 1651 40.6325
118.584 1709 41.3401
118.701 1716 41.4246
118.819 1618 40.2244
118.936 1619 40.2368
119.053 1649 40.6079
119.171 1573 39.6611
119.288 1561 39.5095
119.405 1567 39.5854
119.523 1504 38.7814
119.64 1527 39.0768
119.757 1570 39.6232
119.875 1530 39.1152
119.992 1404 37.47
120.109 1476 38.4187
120.226 1461 38.223
120.343 1478 38.4448
120.46 1425 37.7492
120.578 1259 35.4824
120.695 1143 33.8083
120.812 1045 32.3265
120.929 1003 31.6702
121.046 958 30.9516
121.163 1000 31.6228
121.279 1183 34.3948
121.396 1333 36.5103
121.513 1398 37.3898
121.63 1493 38.6394
121.747 1511 38.8716
121.863 1634 40.4228
121.98 1584 39.7995
122.097 1648 40.5956
122.213 1627 40.3361
122.33 1643 40.5339
122.446 1591 39.8873
122.563 1618 40.2244
122.679 1591 39.8873
122.795 1521 39
122.912 1579 39.7366
123.028 1486 38.5487
123.144 1553 39.4081
123.26 1437 37.9078
123.377 0 1
123.493 0 1
123.609 0 1
123.725 0 1
123.84 0 1
123.956 0 1
124.072 0 1
124.188 0 1
124.303 0 1
124.419 0 1
126.852 0 1
126.968 0 1
127.083 0 1
127.199 0 1
127.315 0 1
127.431 0 1
127.547 0 1
127.663 0 1
127.779 0 1
127.895 0 1
128.011 0 1
128.127 0 1
128.243 0 1
128.359 1781 42.2019
128.476 1691 41.1218
128.592 1737 41.6773
128.708 1707 41.3159
128.825 1697 41.1947
128.941 1679 40.9756
129.058 1617 40.2119
129.174 1703 41.2674
129.291 1639 40.4846
129.408 1570 39.6232
129.524 1384 37.2022
129.641 1289 35.9026
129.758 1223 34.9714
129.875 1150 33.9116
129.992 1097 33.121
130.108 1085 32.9393
130.225 1253 35.3977
130.342 1401 37.4299
130.459 1467 38.3014
130.576 1653 40.6571
130.693 1601 40.0125
130.81 1615 40.1871
130.928 1740 41.7133
131.045 1748 41.8091
131.162 1810 42.5441
131.279 1812 42.5676
131.396 1763 41.9881
131.513 1800 42.4264
131.631 1771 42.0833
131.748 1797 42.391
131.865 1775 42.1307
131.983 1769 42.0595
132.1 1749 41.821
132.217 1729 41.5812
132.335 1769 42.0595
132.452 1664 40.7922
132.57 1671 40.8779
132.687 1643 40.5339
132.804 1704 41.2795
132.922 1544 39.2938
133.039 1547 39.3319
133.157 1350 36.7423
133.274 1246 35.2987
133.392 1196 34.5832
133.509 1047 32.3574
133.627 1023 31.9844
133.744 1240 35.2136
133.862 1385 37.2156
133.979 1465 38.2753
134.097 1528 39.0896
134.214 1530 39.1152
134.332 1584 39.7995
134.449 1647 40.5832
134.567 1790 42.3084
134.684 1844 42.9418
134.802 1828 42.7551
134.919 1789 42.2966
135.037 1771 42.0833
135.154 1782 42.2137
135.272 1789 42.2966
135.389 1695 41.1704
135.507 1767 42.0357
135.624 1691 41.1218
135.742 1779 42.1782
135.859 1813 42.5793
135.977 1714 41.4005
136.094 1674 40.9145
136.211 1693 41.1461
136.329 1676 40.939
136.446 1702 41.2553
136.564 1642 40.5216
136.681 1453 38.1182
136.798 1313 36.2353
136.915 1227 35.0286
137.033 1234 35.1283
137.15 1202 34.6699
137.267 1105 33.2415
137.384 1202 34.6699
137.502 1318 36.3043
137.619 1332 36.4966
137.736 1509 38.8458
137.853 1528 39.0896
137.97 1657 40.7063
138.087 1666 40.8167
138.204 1782 42.2137
138.321 1793 42.3438
138.438 1812 42.5676
138.555 1779 42.1782
138.672 1882 43.382
138.788 1867 43.2088
138.905 1799 42.4146
139.022 1825 42.72
139.139 1848 42.9884
139.255 1787 42.2729
139.372 1852 43.0349
139.488 1749 41.821
139.605 1744 41.7612
139.721 1828 42.7551
139.838 1759 41.9404
139.954 1748 41.8091
140.071 1668 40.8412
140.187 1738 41.6893
140.303 1610 40.1248
140.419 1463 38.2492
140.535 1258 35.4683
140.652 1229 35.0571
140.768 0 1
140.884 0 1
141 0 1
141.115 0 1
141.231 0 1
141.347 0 1
141.463 0 1
141.578 0 1
141.694 0 1
144.104 0 1
144.219 0 1
144.335 0 1
144.45 0 1
144.566 0 1
144.682 0 1
144.798 0 1
144.914 0 1
145.03 0 1
145.146 1210 34.7851
145.262 1221 34.9428
145.378 1195 34.5688
145.494 1094 33.0757
145.61 1032 32.1248
145.726 1062 32.5883
145.842 996 31.5595
145.959 896 29.9333
146.075 857 29.2746
146.192 939 30.6431
146.308 1015 31.8591
146.425 1032 32.1248
146.541 1035 32.1714
146.658 1064 32.619
146.774 1321 36.3456
146.891 1341 36.6197
147.008 1423 37.7227
147.125 1333 36.5103
147.241 1392 37.3095
147.358 1446 38.0263
147.475 1415 37.6165
147.592 1414 37.6032
147.709 1373 37.054
147.826 1398 37.3898
147.943 1368 36.9865
148.06 1376 37.0945
148.177 1363 36.9188
148.294 1359 36.8646
148.411 1390 37.2827
148.528 1391 37.2961
148.645 1329 36.4555
148.762 1349 36.7287
148.88 1366 36.9594
148.997 1274 35.6931
149.114 1322 36.3593
149.231 1242 35.242
149.349 1144 33.8231
149.466 1146 33.8526
149.583 1039 32.2335
149.701 987 31.4166
149.818 923 30.3809
149.935 919 30.315
150.053 975 31.225
150.17 1004 31.686
150.287 1025 32.0156
150.405 1179 34.3366
150.522 1238 35.1852
150.64 1355 36.8103
150.757 1326 36.4143
150.875 1291 35.9305
150.992 1433 37.855
151.11 1479 38.4578
151.227 1431 37.8286
151.344 1397 37.3765
151.462 1370 37.0135
151.579 1427 37.7757
151.697 1351 36.756
151.814 1329 36.4555
151.932 1404 37.47
152.049 1323 36.3731
152.167 1319 36.318
152.284 1404 37.47
152.402 1312 36.2215
152.519 1339 36.5923
152.636 1312 36.2215
152.754 1353 36.7831
152.871 1241 35.2278
152.989 1165 34.1321
153.106 1149 33.8969
153.223 1065 32.6343
153.341 1025 32.0156
153.458 1010 31.7805
153.575 938 30.6268
153.693 994 31.5278
153.81 1050 32.4037
153.927 1168 34.176
154.044 1240 35.2136
154.162 1290 35.9166
154.279 1376 37.0945
154.396 1399 37.4032
154.513 1436 37.8946
154.63 1494 38.6523
154.747 1541 39.2556
154.864 1476 38.4187
154.981 1531 39.128
155.098 1554 39.4208
155.215 1541 39.2556
155.332 1480 38.4708
155.449 1507 38.8201
155.566 1519 38.9744
155.683 1510 38.8587
155.8 1473 38.3797
155.917 1461 38.223
156.033 1468 38.3145
156.15 0 1
156.267 0 1
156.383 0 1
156.5 0 1
156.617 0 1
156.733 0 1
156.85 0 1
156.966 0 1
157.082 0 1
157.199 0 1
157.315 0 1
157.431 0 1
157.547 0 1
157.664 0 1
157.78 0 1
157.896 0 1
158.012 0 1
158.128 0 1
158.244 0 1
158.359 0 1
158.475 0 1
158.591 0 1
158.706 0 1
