
6.15755 0 1
6.2731 0 1
6.3887 0 1
6.50437 0 1
6.62009 0 1
6.73587 0 1
6.8517 0 1
6.96759 0 1
7.08353 0 1
7.19952 0 1
7.31557 0 1
7.43166 0 1
7.54781 0 1
7.664 0 1
7.78024 0 1
7.89653 0 1
8.01286 0 1
8.12924 0 1
8.24567 0 1
8.36213 0 1
8.47864 0 1
8.59519 0 1
8.71178 0 1
8.82841 0 1
8.94508 0 1
9.06179 0 1
9.17853 0 1
9.29531 0 1
9.41212 0 1
9.52897 0 1
9.64584 0 1
9.76276 0 1
9.8797 0 1
9.99667 0 1
10.1137 0 1
10.2307 0 1
10.3478 0 1
10.4648 0 1
10.5819 0 1
10.6991 0 1
10.8162 0 1
10.9334 0 1
11.0506 0 1
11.1678 0 1
11.285 0 1
11.4023 0 1
11.5196 0 1
11.6369 0 1
11.7542 0 1
11.8715 0 1
11.9888 0 1
12.1062 0 1
12.2235 0 1
12.3409 0 1
12.4582 0 1
12.5756 0 1
12.693 0 1
12.8104 0 1
12.9278 0 1
13.0452 0 1
13.1626 0 1
13.28 0 1
13.3974 0 1
13.5149 0 1
13.6323 0 1
13.7497 0 1
13.8671 0 1
13.9845 0 1
14.1019 0 1
14.2193 0 1
14.3367 0 1
14.4541 0 1
14.5714 0 1
14.6888 0 1
14.8062 0 1
14.9235 0 1
15.0408 0 0
15.1581 0 0
15.2755 0 0
15.3927 0 0
15.51 0 0
15.6273 0 0
15.7445 0 0
15.8617 0 0
15.9789 0 0
16.0961 0 0
16.2132 0 0
16.3304 0 0
16.4475 0 0
16.5646 0 0
16.6816 0 0
16.7986 0 0
16.9156 0 0
17.0326 0 0
17.1496 0 0
17.2665 0 0
17.3833 0 0
17.5002 0 0
17.617 0 0
17.7338 0 0
17.8505 0 0
17.9672 0 0
18.0839 0 0
18.2005 0 0
18.3171 0 0
18.4337 0 0
18.5502 0 0
18.6666 0 0
18.7831 0 0
18.8994 0 0
19.0158 0 0
19.1321 0 0
19.2483 0 0
19.3645 0 0
19.4806 0 0
19.5967 0 0
19.7128 0 0
19.8288 0 0
19.9447 0 0
20.0606 0 1
20.1764 0 1
20.2922 0 1
20.4079 0 1
20.5236 0 1
20.6392 0 1
20.7548 0 1
20.8702 0 1
23.3078 0 1
23.4233 0 1
23.539 0 1
23.6547 0 1
23.7704 0 1
23.8862 0 1
24.0021 0 1
24.118 0 1
24.234 0 1
24.35 0 1
24.4661 1272 35.6651
24.5822 1351 36.756
24.6984 1313 36.2353
24.8146 1269 35.623
24.9309 1249 35.3412
25.0472 1275 35.7071
25.1636 1228 35.0428
25.28 1264 35.5528
25.3965 1281 35.7911
25.513 1350 36.7423
25.6296 1312 36.2215
25.7462 1332 36.4966
25.8628 1414 37.6032
25.9795 1334 36.524
26.0962 1376 37.0945
26.213 1414 37.6032
26.3298 1401 37.4299
26.4466 1335 36.5377
26.5635 1245 35.2846
26.6804 1239 35.1994
26.7973 1270 35.6371
26.9143 1294 35.9722
27.0313 1306 36.1386
27.1483 1361 36.8917
27.2653 1378 37.1214
27.3824 1432 37.8418
27.4996 1393 37.3229
27.6167 1398 37.3898
27.7339 1375 37.081
27.8511 1411 37.5633
27.9683 1347 36.7015
28.0855 1289 35.9026
28.2028 1287 35.8748
28.3201 1224 34.9857
28.4374 1196 34.5832
28.5547 1198 34.6121
28.6721 1246 35.2987
28.7894 1219 34.9142
28.9068 1233 35.1141
29.0242 1207 34.7419
29.1416 1209 34.7707
29.259 1234 35.1283
29.3764 1157 34.0147
29.4939 1215 34.8569
29.6113 1218 34.8999
29.7288 1213 34.8281
29.8463 1158 34.0294
29.9638 1200 34.641
30.0812 1184 34.4093
30.1987 1147 33.8674
30.3162 1129 33.6006
30.4337 1242 35.242
30.5512 1312 36.2215
30.6687 1311 36.2077
30.7862 1346 36.6879
30.9037 1363 36.9188
31.0212 1390 37.2827
31.1387 1347 36.7015
31.2562 1390 37.2827
31.3737 1307 36.1525
31.4912 1350 36.7423
31.6087 1278 35.7491
31.7262 1289 35.9026
31.8436 1225 35
31.9611 1202 34.6699
32.0785 1161 34.0735
32.1959 1126 33.5559
32.3134 1218 34.8999
32.4308 1142 33.7935
32.5482 1101 33.1813
32.6655 1214 34.8425
32.7829 1167 34.1614
32.9002 1164 34.1174
33.0176 1157 34.0147
33.1349 1188 34.4674
33.2522 1221 34.9428
33.3694 1221 34.9428
33.4867 1172 34.2345
33.6039 1196 34.5832
33.7211 1221 34.9428
33.8383 1138 33.7343
33.9554 1139 33.7491
34.0725 1139 33.7491
34.1896 1188 34.4674
34.3067 1253 35.3977
34.4237 1289 35.9026
34.5407 1305 36.1248
34.6577 1341 36.6197
34.7746 1308 36.1663
34.8915 1317 36.2905
35.0084 1292 35.9444
35.1252 1311 36.2077
35.242 1265 35.5668
35.3587 1237 35.171
35.4755 1269 35.623
35.5921 1195 34.5688
35.7088 1176 34.2929
35.8254 1137 33.7194
35.9419 1052 32.4345
36.0584 1066 32.6497
36.1749 1109 33.3017
36.2913 1108 33.2866
36.4077 1068 32.6803
36.524 1148 33.8821
36.6403 1102 33.1964
36.7565 1113 33.3617
36.8727 1176 34.2929
36.9889 1226 35.0143
37.1049 1188 34.4674
37.221 0 1
37.3369 0 1
37.4529 0 1
37.5687 0 1
37.6845 0 1
37.8003 0 1
37.916 0 1
38.0316 0 1
38.1472 0 1
40.5851 0 1
40.7008 0 1
40.8164 0 1
40.9322 0 1
41.048 0 1
41.1639 0 1
41.2798 0 1
41.3958 0 1
41.5118 0 1
41.6279 0 1
41.744 807 28.4077
41.8602 852 29.189
41.9765 938 30.6268
42.0928 955 30.9031
42.2091 913 30.2159
42.3255 952 30.8545
42.4419 903 30.05
42.5584 832 28.8444
42.675 831 28.8271
42.7915 827 28.7576
42.9081 890 29.8329
43.0248 984 31.3688
43.1415 938 30.6268
43.2582 930 30.4959
43.375 1030 32.0936
43.4918 935 30.5778
43.6087 920 30.3315
43.7256 970 31.1448
43.8425 951 30.8383
43.9595 858 29.2916
44.0765 917 30.282
44.1935 799 28.2666
44.3106 828 28.775
44.4277 792 28.1425
44.5448 723 26.8887
44.6619 646 25.4165
44.7791 672 25.923
44.8963 645 25.3969
45.0136 634 25.1794
45.1308 645 25.3969
45.2481 617 24.8395
45.3654 642 25.3377
45.4827 640 25.2982
45.6001 701 26.4764
45.7174 691 26.2869
45.8348 713 26.7021
45.9522 692 26.3059
46.0697 646 25.4165
46.1871 593 24.3516
46.3046 584 24.1661
46.422 639 25.2784
46.5395 617 24.8395
46.657 707 26.5895
46.7745 714 26.7208
46.892 652 25.5343
47.0096 721 26.8514
47.1271 679 26.0576
47.2446 679 26.0576
47.3622 631 25.1197
47.4797 659 25.671
47.5973 638 25.2587
47.7149 623 24.96
47.8324 610 24.6982
47.95 555 23.5584
48.0675 545 23.3452
48.1851 467 21.6102
48.3027 468 21.6333
48.4202 481 21.9317
48.5378 458 21.4009
48.6554 461 21.4709
48.7729 450 21.2132
48.8904 500 22.3607
49.008 530 23.0217
49.1255 521 22.8254
49.243 544 23.3238
49.3605 506 22.4944
49.478 512 22.6274
49.5955 522 22.8473
49.713 484 22
49.8304 492 22.1811
49.9479 534 23.1084
50.0653 514 22.6716
50.1827 562 23.7065
50.3001 577 24.0208
50.4175 586 24.2074
50.5348 633 25.1595
50.6521 645 25.3969
50.7694 639 25.2784
50.8867 644 25.3772
51.004 644 25.3772
51.1212 688 26.2298
51.2384 711 26.6646
51.3556 701 26.4764
51.4727 700 26.4575
51.5899 643 25.3574
51.707 575 23.9792
51.824 636 25.219
51.9411 621 24.9199
52.0581 656 25.6125
52.175 609 24.6779
52.2919 679 26.0576
52.4088 669 25.865
52.5257 715 26.7395
52.6425 830 28.8097
52.7593 784 28
52.876 833 28.8617
52.9927 854 29.2233
53.1094 862 29.3598
53.226 807 28.4077
53.3426 796 28.2135
53.4591 843 29.0345
53.5756 892 29.8664
53.692 956 30.9192
53.8084 979 31.289
53.9248 984 31.3688
54.0411 1025 32.0156
54.1573 1131 33.6303
54.2735 0 1
54.3896 0 1
54.5057 0 1
54.6217 0 1
54.7377 0 1
54.8537 0 1
54.9695 0 1
55.0853 0 1
55.2011 0 1
55.3168 0 1
55.4324 0 1
57.824 0 1
57.9396 0 1
58.0553 0 1
58.1711 0 1
58.2869 0 1
58.4028 0 1
58.5187 0 1
58.6347 0 1
58.7508 0 1
58.8669 0 1
58.983 1142 33.7935
59.0992 1217 34.8855
59.2155 1236 35.1568
59.3318 1219 34.9142
59.4482 1208 34.7563
59.5646 1232 35.0999
59.681 1189 34.4819
59.7975 1203 34.6843
59.9141 1174 34.2637
60.0306 1053 32.45
60.1473 948 30.7896
60.2639 984 31.3688
60.3807 854 29.2233
60.4974 842 29.0172
60.6142 863 29.3769
60.731 880 29.6648
60.8479 852 29.189
60.9648 864 29.3939
61.0818 945 30.7409
61.1987 1007 31.7333
61.3158 942 30.692
61.4328 1023 31.9844
61.5499 997 31.5753
61.667 959 30.9677
61.7841 970 31.1448
61.9013 916 30.2655
62.0185 961 31
62.1357 972 31.1769
62.253 964 31.0483
62.3702 1061 32.573
62.4875 1116 33.4066
62.6049 1109 33.3017
62.7222 1113 33.3617
62.8396 1196 34.5832
62.9569 1178 34.322
63.0743 1265 35.5668
63.1918 1166 34.1467
63.3092 1124 33.5261
63.4267 1162 34.0881
63.5441 1082 32.8938
63.6616 1046 32.3419
63.7791 964 31.0483
63.8966 883 29.7153
64.0142 863 29.3769
64.1317 897 29.95
64.2492 841 29
64.3668 878 29.6311
64.4843 933 30.545
64.6019 947 30.7734
64.7195 1015 31.8591
64.837 970 31.1448
64.9546 1045 32.3265
65.0722 1049 32.3883
65.1898 985 31.3847
65.3074 1033 32.1403
65.4249 990 31.4643
65.5425 1005 31.7017
65.6601 955 30.9031
65.7777 998 31.5911
65.8952 1005 31.7017
66.0128 1066 32.6497
66.1304 1122 33.4963
66.2479 1174 34.2637
66.3655 1246 35.2987
66.483 1199 34.6266
66.6005 1301 36.0694
66.718 1185 34.4238
66.8355 1198 34.6121
66.953 1181 34.3657
67.0705 1107 33.2716
67.1879 1033 32.1403
67.3054 1027 32.0468
67.4228 947 30.7734
67.5402 828 28.775
67.6576 834 28.8791
67.7749 783 27.9821
67.8923 820 28.6356
68.0096 824 28.7054
68.1269 916 30.2655
68.2442 954 30.8869
68.3614 1026 32.0312
68.4787 962 31.0161
68.5958 1036 32.187
68.713 996 31.5595
68.8302 984 31.3688
68.9473 984 31.3688
69.0643 884 29.7321
69.1814 1001 31.6386
69.2984 904 30.0666
69.4154 998 31.5911
69.5323 1035 32.1714
69.6492 1102 33.1964
69.7661 1106 33.2566
69.8829 1126 33.5559
69.9997 1230 35.0714
70.1165 1243 35.2562
70.2332 1148 33.8821
70.3499 1197 34.5977
70.4665 1185 34.4238
70.5831 1167 34.1614
70.6996 1091 33.0303
70.8161 986 31.4006
70.9326 932 30.5287
71.049 856 29.2575
71.1653 747 27.3313
71.2817 749 27.3679
71.3979 736 27.1293
71.5141 752 27.4226
71.6303 706 26.5707
71.7464 697 26.4008
71.8624 0 1
71.9784 0 1
72.0944 0 1
72.2102 0 1
72.3261 0 1
72.4418 0 1
72.5575 0 1
72.6732 0 1
75.1054 0 1
75.2209 0 1
75.3365 0 1
75.4521 0 1
75.5678 0 1
75.6835 0 1
75.7993 0 1
75.9151 0 1
76.031 0 1
76.147 926 30.4302
76.263 949 30.8058
76.3791 926 30.4302
76.4952 815 28.5482
76.6113 780 27.9285
76.7276 769 27.7308
76.8438 751 27.4044
76.9601 751 27.4044
77.0765 895 29.9166
77.1929 893 29.8831
77.3093 1018 31.9061
77.4258 1014 31.8434
77.5423 1133 33.6601
77.6589 1025 32.0156
77.7755 1016 31.8748
77.8921 961 31
78.0088 922 30.3645
78.1256 944 30.7246
78.2423 934 30.5614
78.3591 925 30.4138
78.4759 966 31.0805
78.5928 1015 31.8591
78.7097 1068 32.6803
78.8266 1135 33.6898
78.9436 1207 34.7419
79.0606 1206 34.7275
79.1776 1178 34.322
79.2946 1178 34.322
79.4117 1133 33.6601
79.5288 1143 33.8083
79.6459 1139 33.7491
79.7631 1090 33.0151
79.8802 934 30.5614
79.9974 876 29.5973
80.1147 785 28.0179
80.2319 723 26.8887
80.3491 598 24.454
80.4664 650 25.4951
80.5837 729 27
80.701 770 27.7489
80.8183 803 28.3373
80.9357 887 29.7825
81.053 886 29.7658
81.1704 900 30
81.2877 904 30.0666
81.4051 941 30.6757
81.5225 820 28.6356
81.6399 812 28.4956
81.7573 775 27.8388
81.8747 782 27.9643
81.9922 758 27.5318
82.1096 757 27.5136
82.227 874 29.5635
82.3444 953 30.8707
82.4619 962 31.0161
82.5793 1004 31.686
82.6967 991 31.4802
82.8142 973 31.1929
82.9316 1003 31.6702
83.049 997 31.5753
83.1664 1004 31.686
83.2838 858 29.2916
83.4012 793 28.1603
83.5186 758 27.5318
83.636 703 26.5141
83.7534 686 26.1916
83.8708 553 23.516
83.9881 575 23.9792
84.1055 591 24.3105
84.2228 596 24.4131
84.3401 644 25.3772
84.4575 742 27.2397
84.5747 828 28.775
84.692 789 28.0891
84.8093 872 29.5296
84.9265 758 27.5318
85.0437 863 29.3769
85.1609 791 28.1247
85.2781 740 27.2029
85.3952 775 27.8388
85.5123 790 28.1069
85.6294 774 27.8209
85.7465 880 29.6648
85.8636 899 29.9833
85.9806 955 30.9031
86.0976 1008 31.749
86.2145 986 31.4006
86.3315 1006 31.7175
86.4484 1056 32.4962
86.5652 1136 33.7046
86.682 1110 33.3167
86.7988 1019 31.9218
86.9156 1008 31.749
87.0323 936 30.5941
87.149 827 28.7576
87.2657 768 27.7128
87.3823 760 27.5681
87.4988 657 25.632
87.6154 653 25.5539
87.7318 766 27.6767
87.8483 814 28.5307
87.9647 836 28.9137
88.081 932 30.5287
88.1973 1051 32.4191
88.3136 1030 32.0936
88.4298 1028 32.0624
88.546 990 31.4643
88.6621 1001 31.6386
88.7781 938 30.6268
88.8942 0 1
89.0101 0 1
89.126 0 1
89.2419 0 1
89.3577 0 1
89.4734 0 1
89.5891 0 1
89.7047 0 1
89.8203 0 1
89.9358 0 1
92.3269 0 1
92.4424 0 1
92.558 0 1
92.6736 0 1
92.7893 0 1
92.905 0 1
93.0208 0 1
93.1366 0 1
93.2525 0 1
93.3685 0 1
93.4845 0 1
93.6005 959 30.9677
93.7167 965 31.0644
93.8328 1003 31.6702
93.949 1007 31.7333
94.0653 1003 31.6702
94.1816 1028 32.0624
94.2979 987 31.4166
94.4143 949 30.8058
94.5307 913 30.2159
94.6472 985 31.3847
94.7637 1016 31.8748
94.8803 1005 31.7017
94.9969 1162 34.0881
95.1135 1073 32.7567
95.2302 1216 34.8712
95.3469 1220 34.9285
95.4637 1214 34.8425
95.5805 1205 34.7131
95.6973 1174 34.2637
95.8142 1262 35.5246
95.9311 1214 34.8425
96.048 1120 33.4664
96.1649 1057 32.5115
96.2819 1041 32.2645
96.3989 920 30.3315
96.516 838 28.9482
96.633 759 27.55
96.7501 749 27.3679
96.8673 742 27.2397
96.9844 818 28.6007
97.1016 893 29.8831
97.2188 939 30.6431
97.336 968 31.1127
97.4532 1070 32.7109
97.5704 1034 32.1559
97.6877 1002 31.6544
97.805 929 30.4795
97.9223 936 30.5941
98.0396 942 30.692
98.1569 924 30.3974
98.2743 912 30.1993
98.3916 927 30.4467
98.509 1013 31.8277
98.6264 1049 32.3883
98.7438 1121 33.4813
98.8612 1235 35.1426
98.9786 1206 34.7275
99.096 1246 35.2987
99.2134 1229 35.0571
99.3308 1227 35.0286
99.4482 1229 35.0571
99.5656 1188 34.4674
99.6831 1088 32.9848
99.8005 1065 32.6343
99.9179 963 31.0322
100.035 975 31.225
100.153 820 28.6356
100.27 748 27.3496
100.388 777 27.8747
100.505 830 28.8097
100.622 915 30.249
100.74 961 31
100.857 1001 31.6386
100.975 1032 32.1248
101.092 1036 32.187
101.209 1007 31.7333
101.327 1026 32.0312
101.444 1002 31.6544
101.561 968 31.1127
101.679 999 31.607
101.796 933 30.545
101.913 1011 31.7962
102.03 1017 31.8904
102.148 1106 33.2566
102.265 1198 34.6121
102.382 1280 35.7771
102.499 1248 35.327
102.616 1331 36.4829
102.733 1308 36.1663
102.851 1312 36.2215
102.968 1271 35.6511
103.085 1215 34.8569
103.202 1155 33.9853
103.319 1210 34.7851
103.436 1087 32.9697
103.552 1001 31.6386
103.669 873 29.5466
103.786 841 29
103.903 856 29.2575
104.02 869 29.4788
104.137 974 31.209
104.253 1043 32.2955
104.37 1157 34.0147
104.487 1144 33.8231
104.603 1111 33.3317
104.72 1069 32.6956
104.836 1085 32.9393
104.953 1065 32.6343
105.069 1113 33.3617
105.186 1079 32.8481
105.302 1089 33
105.418 1067 32.665
105.535 1144 33.8231
105.651 1291 35.9305
105.767 1343 36.647
105.883 1464 38.2623
105.999 1417 37.6431
106.115 0 1
106.231 0 1
106.347 0 1
106.463 0 1
106.579 0 1
106.694 0 1
106.81 0 1
106.926 0 1
107.041 0 1
107.157 0 1
109.576 0 1
109.692 0 1
109.807 0 1
109.923 0 1
110.039 0 1
110.155 0 1
110.27 0 1
110.386 0 1
110.502 0 1
110.618 1086 32.9545
110.735 1298 36.0278
110.851 1259 35.4824
110.967 1316 36.2767
111.083 1311 36.2077
111.199 1377 37.108
111.316 1312 36.2215
111.432 1377 37.108
111.549 1410 37.55
111.665 1262 35.5246
111.782 1266 35.5809
111.898 1153 33.9559
112.015 1066 32.6497
112.132 1033 32.1403
112.248 918 30.2985
112.365 874 29.5635
112.482 834 28.8791
112.599 888 29.7993
112.716 935 30.5778
112.832 1012 31.8119
112.949 1007 31.7333
113.066 1058 32.5269
113.183 1096 33.1059
113.3 956 30.9192
113.417 1008 31.749
113.534 1004 31.686
113.652 958 30.9516
113.769 1052 32.4345
113.886 987 31.4166
114.003 1053 32.45
114.12 1085 32.9393
114.238 1219 34.9142
114.355 1301 36.0694
114.472 1224 34.9857
114.589 1290 35.9166
114.707 1297 36.0139
114.824 1299 36.0416
114.942 1299 36.0416
115.059 1341 36.6197
115.176 1342 36.6333
115.294 1275 35.7071
115.411 1099 33.1512
115.529 1177 34.3074
115.646 1031 32.1092
115.764 969 31.1288
115.881 933 30.545
115.999 863 29.3769
116.116 900 30
116.234 1009 31.7648
116.351 956 30.9192
116.469 1088 32.9848
116.586 1083 32.909
116.704 1112 33.3467
116.821 1110 33.3167
116.939 1078 32.8329
117.056 963 31.0322
117.174 1112 33.3467
117.291 1103 33.2114
117.409 1104 33.2265
117.526 1134 33.6749
117.644 1193 34.5398
117.761 1198 34.6121
117.879 1337 36.565
117.996 1395 37.3497
118.114 1381 37.1618
118.231 1426 37.7624
118.349 1367 36.973
118.466 1405 37.4833
118.584 1440 37.9473
118.701 1355 36.8103
118.819 1344 36.6606
118.936 1286 35.8608
119.053 1235 35.1426
119.171 1241 35.2278
119.288 1151 33.9264
119.405 1050 32.4037
119.523 936 30.5941
119.64 952 30.8545
119.757 979 31.289
119.875 1026 32.0312
119.992 1093 33.0606
120.109 1086 32.9545
120.226 1118 33.4365
120.343 1091 33.0303
120.46 1019 31.9218
120.578 1045 32.3265
120.695 1105 33.2415
120.812 1032 32.1248
120.929 1115 33.3916
121.046 1142 33.7935
121.163 1190 34.4964
121.279 1232 35.0999
121.396 1229 35.0571
121.513 1307 36.1525
121.63 1340 36.606
121.747 1372 37.0405
121.863 1400 37.4166
121.98 1348 36.7151
122.097 1330 36.4692
122.213 1322 36.3593
122.33 1384 37.2022
122.446 1456 38.1576
122.563 1326 36.4143
122.679 1316 36.2767
122.795 1146 33.8526
122.912 1157 34.0147
123.028 1158 34.0294
123.144 981 31.3209
123.26 906 30.0998
123.377 0 1
123.493 0 1
123.609 0 1
123.725 0 1
123.84 0 1
123.956 0 1
124.072 0 1
124.188 0 1
124.303 0 1
124.419 0 1
126.852 0 1
126.968 0 1
127.083 0 1
127.199 0 1
127.315 0 1
127.431 0 1
127.547 0 1
127.663 0 1
127.779 0 1
127.895 0 1
128.011 0 1
128.127 0 1
128.243 0 1
128.359 1167 34.1614
128.476 1075 32.7872
128.592 1047 32.3574
128.708 1053 32.45
128.825 1162 34.0881
128.941 1141 33.7787
129.058 1212 34.8138
129.174 1158 34.0294
129.291 1261 35.5106
129.408 1144 33.8231
129.524 1126 33.5559
129.641 1194 34.5543
129.758 1148 33.8821
129.875 1130 33.6155
129.992 1226 35.0143
130.108 1263 35.5387
130.225 1344 36.6606
130.342 1385 37.2156
130.459 1317 36.2905
130.576 1356 36.8239
130.693 1411 37.5633
130.81 1407 37.51
130.928 1519 38.9744
131.045 1374 37.0675
131.162 1397 37.3765
131.279 1327 36.428
131.396 1387 37.2424
131.513 1356 36.8239
131.631 1275 35.7071
131.748 1196 34.5832
131.865 1188 34.4674
131.983 1117 33.4215
132.1 1073 32.7567
132.217 1074 32.7719
132.335 1181 34.3657
132.452 1204 34.6987
132.57 1165 34.1321
132.687 1143 33.8083
132.804 1114 33.3766
132.922 1194 34.5543
133.039 1128 33.5857
133.157 1164 34.1174
133.274 1103 33.2114
133.392 1181 34.3657
133.509 1170 34.2053
133.627 1149 33.8969
133.744 1251 35.3695
133.862 1330 36.4692
133.979 1332 36.4966
134.097 1437 37.9078
134.214 1373 37.054
134.332 1420 37.6829
134.449 1403 37.4566
134.567 1332 36.4966
134.684 1406 37.4967
134.802 1380 37.1484
134.919 1400 37.4166
135.037 1346 36.6879
135.154 1347 36.7015
135.272 1270 35.6371
135.389 1223 34.9714
135.507 1108 33.2866
135.624 1056 32.4962
135.742 1066 32.6497
135.859 1094 33.0757
135.977 1152 33.9411
136.094 1155 33.9853
136.211 1264 35.5528
136.329 1174 34.2637
136.446 1209 34.7707
136.564 1138 33.7343
136.681 1193 34.5398
136.798 1184 34.4093
136.915 1158 34.0294
137.033 1249 35.3412
137.15 1268 35.609
137.267 1202 34.6699
137.384 1300 36.0555
137.502 1317 36.2905
137.619 1332 36.4966
137.736 1357 36.8375
137.853 1298 36.0278
137.97 1299 36.0416
138.087 1379 37.1349
138.204 1367 36.973
138.321 1319 36.318
138.438 1438 37.921
138.555 1336 36.5513
138.672 1385 37.2156
138.788 1312 36.2215
138.905 1299 36.0416
139.022 1323 36.3731
139.139 1155 33.9853
139.255 1070 32.7109
139.372 1059 32.5423
139.488 1143 33.8083
139.605 1263 35.5387
139.721 1246 35.2987
139.838 1269 35.623
139.954 1195 34.5688
140.071 1246 35.2987
140.187 1173 34.2491
140.303 1198 34.6121
140.419 1150 33.9116
140.535 1189 34.4819
140.652 1111 33.3317
140.768 0 1
140.884 0 1
141 0 1
141.115 0 1
141.231 0 1
141.347 0 1
141.463 0 1
141.578 0 1
141.694 0 1
144.104 0 1
144.219 0 1
144.335 0 1
144.45 0 1
144.566 0 1
144.682 0 1
144.798 0 1
144.914 0 1
145.03 0 1
145.146 819 28.6182
145.262 924 30.3974
145.378 886 29.7658
145.494 891 29.8496
145.61 898 29.9666
145.726 872 29.5296
145.842 955 30.9031
145.959 951 30.8383
146.075 959 30.9677
146.192 967 31.0966
146.308 1014 31.8434
146.425 1045 32.3265
146.541 1031 32.1092
146.658 1090 33.0151
146.774 1065 32.6343
146.891 1015 31.8591
147.008 1081 32.8786
147.125 1006 31.7175
147.241 1167 34.1614
147.358 1043 32.2955
147.475 1124 33.5261
147.592 1088 32.9848
147.709 1029 32.078
147.826 1029 32.078
147.943 940 30.6594
148.06 943 30.7083
148.177 888 29.7993
148.294 867 29.4449
148.411 897 29.95
148.528 1001 31.6386
148.645 1047 32.3574
148.762 955 30.9031
148.88 948 30.7896
148.997 991 31.4802
149.114 997 31.5753
149.231 932 30.5287
149.349 1019 31.9218
149.466 942 30.692
149.583 996 31.5595
149.701 996 31.5595
149.818 966 31.0805
149.935 917 30.282
150.053 974 31.209
150.17 1032 32.1248
150.287 1076 32.8024
150.405 1006 31.7175
150.522 1071 32.7261
150.64 1056 32.4962
150.757 1075 32.7872
150.875 1045 32.3265
150.992 1064 32.619
151.11 1132 33.6452
151.227 1086 32.9545
151.344 1103 33.2114
151.462 1050 32.4037
151.579 1068 32.6803
151.697 997 31.5753
151.814 964 31.0483
151.932 953 30.8707
152.049 911 30.1828
152.167 1060 32.5576
152.284 1080 32.8634
152.402 1070 32.7109
152.519 1103 33.2114
152.636 1021 31.9531
152.754 1049 32.3883
152.871 991 31.4802
152.989 1037 32.2025
153.106 1000 31.6228
153.223 1022 31.9687
153.341 1051 32.4191
153.458 1002 31.6544
153.575 1041 32.2645
153.693 1004 31.686
153.81 1077 32.8177
153.927 1141 33.7787
154.044 1122 33.4963
154.162 1104 33.2265
154.279 1127 33.5708
154.396 1198 34.6121
154.513 1190 34.4964
154.63 1224 34.9857
154.747 1315 36.2629
154.864 1268 35.609
154.981 1302 36.0832
155.098 1173 34.2491
155.215 1206 34.7275
155.332 1100 33.1662
155.449 1070 32.7109
155.566 1025 32.0156
155.683 1103 33.2114
155.8 1220 34.9285
155.917 1297 36.0139
156.033 1147 33.8674
156.15 0 1
156.267 0 1
156.383 0 1
156.5 0 1
156.617 0 1
156.733 0 1
156.85 0 1
156.966 0 1
157.082 0 1
157.199 0 1
157.315 0 1
157.431 0 1
157.547 0 1
157.664 0 1
157.78 0 1
157.896 0 1
158.012 0 1
158.128 0 1
158.244 0 1
158.359 0 1
158.475 0 1
158.591 0 1
158.706 0 1
