
6.15755 0 1
6.2731 0 1
6.3887 0 1
6.50437 0 1
6.62009 0 1
6.73587 0 1
6.8517 0 1
6.96759 0 1
7.08353 0 1
7.19952 0 1
7.31557 0 1
7.43166 0 1
7.54781 0 1
7.664 0 1
7.78024 0 1
7.89653 0 1
8.01286 0 1
8.12924 0 1
8.24567 0 1
8.36213 0 1
8.47864 0 1
8.59519 0 1
8.71178 0 1
8.82841 0 1
8.94508 0 1
9.06179 0 1
9.17853 0 1
9.29531 0 1
9.41212 0 1
9.52897 0 1
9.64584 0 1
9.76276 0 1
9.8797 0 1
9.99667 0 1
10.1137 0 1
10.2307 0 1
10.3478 0 1
10.4648 0 1
10.5819 0 1
10.6991 0 1
10.8162 0 1
10.9334 0 1
11.0506 0 1
11.1678 0 1
11.285 0 1
11.4023 0 1
11.5196 0 1
11.6369 0 1
11.7542 0 1
11.8715 0 1
11.9888 0 1
12.1062 0 1
12.2235 0 1
12.3409 0 1
12.4582 0 1
12.5756 0 1
12.693 0 1
12.8104 0 1
12.9278 0 1
13.0452 0 1
13.1626 0 1
13.28 0 1
13.3974 0 1
13.5149 0 1
13.6323 0 1
13.7497 0 1
13.8671 0 1
13.9845 0 1
14.1019 0 1
14.2193 0 1
14.3367 0 1
14.4541 0 1
14.5714 0 1
14.6888 0 1
14.8062 0 1
14.9235 0 1
15.0408 1576 39.6989
15.1581 1580 39.7492
15.2755 1648 40.5956
15.3927 1578 39.724
15.51 1587 39.8372
15.6273 1546 39.3192
15.7445 1625 40.3113
15.8617 1528 39.0896
15.9789 1524 39.0384
16.0961 1500 38.7298
16.2132 1546 39.3192
16.3304 1506 38.8072
16.4475 1483 38.5097
16.5646 1598 39.975
16.6816 1535 39.1791
16.7986 1519 38.9744
16.9156 1494 38.6523
17.0326 1461 38.223
17.1496 1486 38.5487
17.2665 1478 38.4448
17.3833 1514 38.9102
17.5002 1422 37.7094
17.617 1501 38.7427
17.7338 1335 36.5377
17.8505 1369 37
17.9672 1473 38.3797
18.0839 1547 39.3319
18.2005 1550 39.37
18.3171 1666 40.8167
18.4337 1699 41.2189
18.5502 1625 40.3113
18.6666 1738 41.6893
18.7831 1664 40.7922
18.8994 1583 39.7869
19.0158 1626 40.3237
19.1321 1564 39.5474
19.2483 1582 39.7744
19.3645 1488 38.5746
19.4806 1511 38.8716
19.5967 1523 39.0256
19.7128 1378 37.1214
19.8288 1007 31.7333
19.9447 465 21.5639
20.0606 0 1
20.1764 0 1
20.2922 0 1
20.4079 0 1
20.5236 0 1
20.6392 0 1
20.7548 0 1
20.8702 0 1
23.3078 0 1
23.4233 0 1
23.539 0 1
23.6547 0 1
23.7704 0 1
23.8862 0 1
24.0021 0 1
24.118 0 1
24.234 0 1
24.35 0 1
24.4661 1474 38.3927
24.5822 1535 39.1791
24.6984 1523 39.0256
24.8146 1612 40.1497
24.9309 1544 39.2938
25.0472 1544 39.2938
25.1636 1549 39.3573
25.28 1486 38.5487
25.3965 1583 39.7869
25.513 1626 40.3237
25.6296 1569 39.6106
25.7462 1640 40.4969
25.8628 1621 40.2616
25.9795 1670 40.8656
26.0962 1656 40.694
26.213 1655 40.6817
26.3298 1583 39.7869
26.4466 1641 40.5093
26.5635 1428 37.7889
26.6804 1332 36.4966
26.7973 1291 35.9305
26.9143 1296 36
27.0313 1451 38.092
27.1483 1596 39.95
27.2653 1637 40.4599
27.3824 1692 41.1339
27.4996 1596 39.95
27.6167 1584 39.7995
27.7339 1577 39.7115
27.8511 1554 39.4208
27.9683 1582 39.7744
28.0855 1504 38.7814
28.2028 1590 39.8748
28.3201 1519 38.9744
28.4374 1556 39.4462
28.5547 1579 39.7366
28.6721 1482 38.4968
28.7894 1469 38.3275
28.9068 1504 38.7814
29.0242 1517 38.9487
29.1416 1514 38.9102
29.259 1572 39.6485
29.3764 1500 38.7298
29.4939 1479 38.4578
29.6113 1486 38.5487
29.7288 1597 39.9625
29.8463 1525 39.0512
29.9638 1397 37.3765
30.0812 1310 36.1939
30.1987 1269 35.623
30.3162 1198 34.6121
30.4337 1296 36
30.5512 1302 36.0832
30.6687 1450 38.0789
30.7862 1552 39.3954
30.9037 1496 38.6782
31.0212 1513 38.8973
31.1387 1528 39.0896
31.2562 1536 39.1918
31.3737 1532 39.1408
31.4912 1587 39.8372
31.6087 1459 38.1969
31.7262 1522 39.0128
31.8436 1468 38.3145
31.9611 1475 38.4057
32.0785 1518 38.9615
32.1959 1422 37.7094
32.3134 1429 37.8021
32.4308 1432 37.8418
32.5482 1510 38.8587
32.6655 1459 38.1969
32.7829 1431 37.8286
32.9002 1519 38.9744
33.0176 1449 38.0657
33.1349 1502 38.7556
33.2522 1517 38.9487
33.3694 1535 39.1791
33.4867 1482 38.4968
33.6039 1434 37.8682
33.7211 1348 36.7151
33.8383 1273 35.6791
33.9554 1208 34.7563
34.0725 1277 35.7351
34.1896 1302 36.0832
34.3067 1428 37.7889
34.4237 1490 38.6005
34.5407 1469 38.3275
34.6577 1478 38.4448
34.7746 1551 39.3827
34.8915 1554 39.4208
35.0084 1497 38.6911
35.1252 1434 37.8682
35.242 1444 38
35.3587 1462 38.2361
35.4755 1527 39.0768
35.5921 1503 38.7685
35.7088 1465 38.2753
35.8254 1377 37.108
35.9419 1435 37.8814
36.0584 1448 38.0526
36.1749 1444 38
36.2913 1466 38.2884
36.4077 1423 37.7227
36.524 1428 37.7889
36.6403 1398 37.3898
36.7565 1410 37.55
36.8727 1433 37.855
36.9889 1443 37.9868
37.1049 1443 37.9868
37.221 0 1
37.3369 0 1
37.4529 0 1
37.5687 0 1
37.6845 0 1
37.8003 0 1
37.916 0 1
38.0316 0 1
38.1472 0 1
40.5851 0 1
40.7008 0 1
40.8164 0 1
40.9322 0 1
41.048 0 1
41.1639 0 1
41.2798 0 1
41.3958 0 1
41.5118 0 1
41.6279 0 1
41.744 1091 33.0303
41.8602 1092 33.0454
41.9765 1177 34.3074
42.0928 1209 34.7707
42.2091 1191 34.5109
42.3255 1192 34.5254
42.4419 1152 33.9411
42.5584 982 31.3369
42.675 938 30.6268
42.7915 940 30.6594
42.9081 988 31.4325
43.0248 1023 31.9844
43.1415 1057 32.5115
43.2582 1051 32.4191
43.375 1101 33.1813
43.4918 1176 34.2929
43.6087 1132 33.6452
43.7256 1125 33.541
43.8425 1070 32.7109
43.9595 1084 32.9242
44.0765 1063 32.6037
44.1935 992 31.496
44.3106 1054 32.4654
44.4277 988 31.4325
44.5448 1024 32
44.6619 934 30.5614
44.7791 917 30.282
44.8963 929 30.4795
45.0136 942 30.692
45.1308 871 29.5127
45.2481 856 29.2575
45.3654 830 28.8097
45.4827 868 29.4618
45.6001 862 29.3598
45.7174 824 28.7054
45.8348 844 29.0517
45.9522 852 29.189
46.0697 775 27.8388
46.1871 679 26.0576
46.3046 646 25.4165
46.422 623 24.96
46.5395 658 25.6515
46.657 770 27.7489
46.7745 772 27.7849
46.892 783 27.9821
47.0096 794 28.178
47.1271 852 29.189
47.2446 793 28.1603
47.3622 759 27.55
47.4797 770 27.7489
47.5973 727 26.9629
47.7149 727 26.9629
47.8324 651 25.5147
47.95 722 26.8701
48.0675 655 25.593
48.1851 729 27
48.3027 651 25.5147
48.4202 670 25.8844
48.5378 604 24.5764
48.6554 590 24.2899
48.7729 605 24.5967
48.8904 610 24.6982
49.008 628 25.0599
49.1255 656 25.6125
49.243 661 25.7099
49.3605 703 26.5141
49.478 611 24.7184
49.5955 552 23.4947
49.713 519 22.7816
49.8304 543 23.3024
49.9479 515 22.6936
50.0653 577 24.0208
50.1827 642 25.3377
50.3001 691 26.2869
50.4175 719 26.8142
50.5348 686 26.1916
50.6521 810 28.4605
50.7694 795 28.1957
50.8867 806 28.3901
51.004 820 28.6356
51.1212 854 29.2233
51.2384 834 28.8791
51.3556 893 29.8831
51.4727 885 29.7489
51.5899 890 29.8329
51.707 883 29.7153
51.824 847 29.1033
51.9411 909 30.1496
52.0581 915 30.249
52.175 884 29.7321
52.2919 943 30.7083
52.4088 1010 31.7805
52.5257 974 31.209
52.6425 1059 32.5423
52.7593 966 31.0805
52.876 1022 31.9687
52.9927 1104 33.2265
53.1094 965 31.0644
53.226 934 30.5614
53.3426 875 29.5804
53.4591 851 29.1719
53.5756 799 28.2666
53.692 998 31.5911
53.8084 1111 33.3317
53.9248 1132 33.6452
54.0411 1197 34.5977
54.1573 1235 35.1426
54.2735 0 1
54.3896 0 1
54.5057 0 1
54.6217 0 1
54.7377 0 1
54.8537 0 1
54.9695 0 1
55.0853 0 1
55.2011 0 1
55.3168 0 1
55.4324 0 1
57.824 0 1
57.9396 0 1
58.0553 0 1
58.1711 0 1
58.2869 0 1
58.4028 0 1
58.5187 0 1
58.6347 0 1
58.7508 0 1
58.8669 0 1
58.983 1248 35.327
59.0992 1370 37.0135
59.2155 1409 37.5366
59.3318 1453 38.1182
59.4482 1447 38.0395
59.5646 1455 38.1445
59.681 1505 38.7943
59.7975 1438 37.921
59.9141 1492 38.6264
60.0306 1357 36.8375
60.1473 1301 36.0694
60.2639 1280 35.7771
60.3807 1243 35.2562
60.4974 1306 36.1386
60.6142 1319 36.318
60.731 1273 35.6791
60.8479 1279 35.7631
60.9648 1240 35.2136
61.0818 1249 35.3412
61.1987 1328 36.4417
61.3158 1336 36.5513
61.4328 1212 34.8138
61.5499 1207 34.7419
61.667 1204 34.6987
61.7841 1079 32.8481
61.9013 1007 31.7333
62.0185 1001 31.6386
62.1357 1036 32.187
62.253 1133 33.6601
62.3702 1231 35.0856
62.4875 1313 36.2353
62.6049 1335 36.5377
62.7222 1453 38.1182
62.8396 1464 38.2623
62.9569 1401 37.4299
63.0743 1493 38.6394
63.1918 1479 38.4578
63.3092 1402 37.4433
63.4267 1465 38.2753
63.5441 1402 37.4433
63.6616 1347 36.7015
63.7791 1327 36.428
63.8966 1363 36.9188
64.0142 1321 36.3456
64.1317 1327 36.428
64.2492 1305 36.1248
64.3668 1386 37.229
64.4843 1395 37.3497
64.6019 1328 36.4417
64.7195 1386 37.229
64.837 1404 37.47
64.9546 1428 37.7889
65.0722 1369 37
65.1898 1287 35.8748
65.3074 1192 34.5254
65.4249 1064 32.619
65.5425 1001 31.6386
65.6601 965 31.0644
65.7777 1031 32.1092
65.8952 1169 34.1906
66.0128 1247 35.3129
66.1304 1373 37.054
66.2479 1413 37.5899
66.3655 1479 38.4578
66.483 1444 38
66.6005 1446 38.0263
66.718 1456 38.1576
66.8355 1377 37.108
66.953 1424 37.7359
67.0705 1374 37.0675
67.1879 1379 37.1349
67.3054 1269 35.623
67.4228 1254 35.4119
67.5402 1259 35.4824
67.6576 1225 35
67.7749 1197 34.5977
67.8923 1173 34.2491
68.0096 1214 34.8425
68.1269 1216 34.8712
68.2442 1282 35.805
68.3614 1215 34.8569
68.4787 1259 35.4824
68.5958 1262 35.5246
68.713 1256 35.4401
68.8302 1165 34.1321
68.9473 1040 32.249
69.0643 999 31.607
69.1814 969 31.1288
69.2984 934 30.5614
69.4154 952 30.8545
69.5323 1071 32.7261
69.6492 1187 34.4529
69.7661 1250 35.3553
69.8829 1309 36.1801
69.9997 1428 37.7889
70.1165 1356 36.8239
70.2332 1387 37.2424
70.3499 1409 37.5366
70.4665 1389 37.2693
70.5831 1445 38.0132
70.6996 1324 36.3868
70.8161 1308 36.1663
70.9326 1254 35.4119
71.049 1172 34.2345
71.1653 1188 34.4674
71.2817 1194 34.5543
71.3979 1174 34.2637
71.5141 1227 35.0286
71.6303 1125 33.541
71.7464 1089 33
71.8624 0 1
71.9784 0 1
72.0944 0 1
72.2102 0 1
72.3261 0 1
72.4418 0 1
72.5575 0 1
72.6732 0 1
75.1054 0 1
75.2209 0 1
75.3365 0 1
75.4521 0 1
75.5678 0 1
75.6835 0 1
75.7993 0 1
75.9151 0 1
76.031 0 1
76.147 1224 34.9857
76.263 1302 36.0832
76.3791 1201 34.6554
76.4952 1238 35.1852
76.6113 1224 34.9857
76.7276 1235 35.1426
76.8438 1220 34.9285
76.9601 1252 35.3836
77.0765 1247 35.3129
77.1929 1269 35.623
77.3093 1337 36.565
77.4258 1281 35.7911
77.5423 1300 36.0555
77.6589 1310 36.1939
77.7755 1218 34.8999
77.8921 1105 33.2415
78.0088 1024 32
78.1256 906 30.0998
78.2423 892 29.8664
78.3591 847 29.1033
78.4759 1013 31.8277
78.5928 1109 33.3017
78.7097 1236 35.1568
78.8266 1311 36.2077
78.9436 1379 37.1349
79.0606 1339 36.5923
79.1776 1332 36.4966
79.2946 1382 37.1753
79.4117 1346 36.6879
79.5288 1346 36.6879
79.6459 1364 36.9324
79.7631 1303 36.0971
79.8802 1212 34.8138
79.9974 1152 33.9411
80.1147 1155 33.9853
80.2319 1069 32.6956
80.3491 1042 32.28
80.4664 1144 33.8231
80.5837 1089 33
80.701 1065 32.6343
80.8183 1122 33.4963
80.9357 1147 33.8674
81.053 1155 33.9853
81.1704 1089 33
81.2877 1094 33.0757
81.4051 1070 32.7109
81.5225 981 31.3209
81.6399 930 30.4959
81.7573 829 28.7924
81.8747 763 27.6225
81.9922 797 28.2312
82.1096 797 28.2312
82.227 951 30.8383
82.3444 981 31.3209
82.4619 1154 33.9706
82.5793 1177 34.3074
82.6967 1157 34.0147
82.8142 1155 33.9853
82.9316 1154 33.9706
83.049 1182 34.3802
83.1664 1138 33.7343
83.2838 1083 32.909
83.4012 1017 31.8904
83.5186 1015 31.8591
83.636 951 30.8383
83.7534 893 29.8831
83.8708 953 30.8707
83.9881 930 30.4959
84.1055 956 30.9192
84.2228 955 30.9031
84.3401 911 30.1828
84.4575 956 30.9192
84.5747 1017 31.8904
84.692 1069 32.6956
84.8093 1080 32.8634
84.9265 1010 31.7805
85.0437 956 30.9192
85.1609 869 29.4788
85.2781 799 28.2666
85.3952 739 27.1846
85.5123 698 26.4197
85.6294 820 28.6356
85.7465 863 29.3769
85.8636 988 31.4325
85.9806 1068 32.6803
86.0976 1162 34.0881
86.2145 1283 35.819
86.3315 1276 35.7211
86.4484 1259 35.4824
86.5652 1313 36.2353
86.682 1323 36.3731
86.7988 1349 36.7287
86.9156 1229 35.0571
87.0323 1261 35.5106
87.149 1186 34.4384
87.2657 1138 33.7343
87.3823 1114 33.3766
87.4988 1127 33.5708
87.6154 1088 32.9848
87.7318 1127 33.5708
87.8483 1178 34.322
87.9647 1138 33.7343
88.081 1256 35.4401
88.1973 1248 35.327
88.3136 1266 35.5809
88.4298 1259 35.4824
88.546 1133 33.6601
88.6621 1135 33.6898
88.7781 1025 32.0156
88.8942 0 1
89.0101 0 1
89.126 0 1
89.2419 0 1
89.3577 0 1
89.4734 0 1
89.5891 0 1
89.7047 0 1
89.8203 0 1
89.9358 0 1
92.3269 0 1
92.4424 0 1
92.558 0 1
92.6736 0 1
92.7893 0 1
92.905 0 1
93.0208 0 1
93.1366 0 1
93.2525 0 1
93.3685 0 1
93.4845 0 1
93.6005 1319 36.318
93.7167 1331 36.4829
93.8328 1298 36.0278
93.949 1237 35.171
94.0653 1154 33.9706
94.1816 1076 32.8024
94.2979 961 31
94.4143 949 30.8058
94.5307 902 30.0333
94.6472 932 30.5287
94.7637 1043 32.2955
94.8803 1116 33.4066
94.9969 1195 34.5688
95.1135 1268 35.609
95.2302 1357 36.8375
95.3469 1319 36.318
95.4637 1387 37.2424
95.5805 1490 38.6005
95.6973 1499 38.7169
95.8142 1428 37.7889
95.9311 1417 37.6431
96.048 1335 36.5377
96.1649 1290 35.9166
96.2819 1343 36.647
96.3989 1274 35.6931
96.516 1275 35.7071
96.633 1176 34.2929
96.7501 1158 34.0294
96.8673 1232 35.0999
96.9844 1251 35.3695
97.1016 1281 35.7911
97.2188 1307 36.1525
97.336 1348 36.7151
97.4532 1359 36.8646
97.5704 1277 35.7351
97.6877 1279 35.7631
97.805 1159 34.0441
97.9223 1051 32.4191
98.0396 955 30.9031
98.1569 925 30.4138
98.2743 955 30.9031
98.3916 1015 31.8591
98.509 1099 33.1512
98.6264 1202 34.6699
98.7438 1277 35.7351
98.8612 1293 35.9583
98.9786 1429 37.8021
99.096 1464 38.2623
99.2134 1480 38.4708
99.3308 1478 38.4448
99.4482 1486 38.5487
99.5656 1444 38
99.6831 1440 37.9473
99.8005 1268 35.609
99.9179 1294 35.9722
100.035 1315 36.2629
100.153 1186 34.4384
100.27 1231 35.0856
100.388 1265 35.5668
100.505 1273 35.6791
100.622 1360 36.8782
100.74 1327 36.428
100.857 1387 37.2424
100.975 1411 37.5633
101.092 1328 36.4417
101.209 1279 35.7631
101.327 1234 35.1283
101.444 1161 34.0735
101.561 1035 32.1714
101.679 995 31.5436
101.796 915 30.249
101.913 1039 32.2335
102.03 1106 33.2566
102.148 1218 34.8999
102.265 1302 36.0832
102.382 1426 37.7624
102.499 1385 37.2156
102.616 1446 38.0263
102.733 1514 38.9102
102.851 1549 39.3573
102.968 1655 40.6817
103.085 1501 38.7427
103.202 1463 38.2492
103.319 1460 38.2099
103.436 1391 37.2961
103.552 1345 36.6742
103.669 1321 36.3456
103.786 1204 34.6987
103.903 1299 36.0416
104.02 1217 34.8855
104.137 1379 37.1349
104.253 1420 37.6829
104.37 1451 38.092
104.487 1435 37.8814
104.603 1445 38.0132
104.72 1331 36.4829
104.836 1316 36.2767
104.953 1209 34.7707
105.069 1168 34.176
105.186 1111 33.3317
105.302 991 31.4802
105.418 1114 33.3766
105.535 1292 35.9444
105.651 1432 37.8418
105.767 1547 39.3319
105.883 1598 39.975
105.999 1554 39.4208
106.115 0 1
106.231 0 1
106.347 0 1
106.463 0 1
106.579 0 1
106.694 0 1
106.81 0 1
106.926 0 1
107.041 0 1
107.157 0 1
109.576 0 1
109.692 0 1
109.807 0 1
109.923 0 1
110.039 0 1
110.155 0 1
110.27 0 1
110.386 0 1
110.502 0 1
110.618 1195 34.5688
110.735 1411 37.5633
110.851 1489 38.5876
110.967 1494 38.6523
111.083 1599 39.9875
111.199 1606 40.0749
111.316 1615 40.1871
111.432 1643 40.5339
111.549 1589 39.8623
111.665 1580 39.7492
111.782 1421 37.6962
111.898 1435 37.8814
112.015 1444 38
112.132 1355 36.8103
112.248 1307 36.1525
112.365 1299 36.0416
112.482 1247 35.3129
112.599 1365 36.9459
112.716 1339 36.5923
112.832 1416 37.6298
112.949 1394 37.3363
113.066 1454 38.1314
113.183 1351 36.756
113.3 1259 35.4824
113.417 1228 35.0428
113.534 1149 33.8969
113.652 1076 32.8024
113.769 994 31.5278
113.886 979 31.289
114.003 950 30.8221
114.12 1209 34.7707
114.238 1329 36.4555
114.355 1355 36.8103
114.472 1386 37.229
114.589 1428 37.7889
114.707 1505 38.7943
114.824 1571 39.6358
114.942 1551 39.3827
115.059 1563 39.5348
115.176 1468 38.3145
115.294 1436 37.8946
115.411 1480 38.4708
115.529 1343 36.647
115.646 1400 37.4166
115.764 1263 35.5387
115.881 1308 36.1663
115.999 1239 35.1994
116.116 1292 35.9444
116.234 1363 36.9188
116.351 1443 37.9868
116.469 1438 37.921
116.586 1415 37.6165
116.704 1399 37.4032
116.821 1347 36.7015
116.939 1285 35.8469
117.056 1195 34.5688
117.174 1096 33.1059
117.291 1127 33.5708
117.409 1101 33.1813
117.526 1100 33.1662
117.644 1192 34.5254
117.761 1320 36.3318
117.879 1406 37.4967
117.996 1463 38.2492
118.114 1559 39.4842
118.231 1649 40.6079
118.349 1561 39.5095
118.466 1664 40.7922
118.584 1554 39.4208
118.701 1579 39.7366
118.819 1549 39.3573
118.936 1576 39.6989
119.053 1556 39.4462
119.171 1499 38.7169
119.288 1411 37.5633
119.405 1366 36.9594
119.523 1248 35.327
119.64 1308 36.1663
119.757 1361 36.8917
119.875 1448 38.0526
119.992 1371 37.027
120.109 1424 37.7359
120.226 1380 37.1484
120.343 1417 37.6431
120.46 1402 37.4433
120.578 1270 35.6371
120.695 1246 35.2987
120.812 1169 34.1906
120.929 1231 35.0856
121.046 1116 33.4066
121.163 1113 33.3617
121.279 1082 32.8938
121.396 1281 35.7911
121.513 1352 36.7696
121.63 1490 38.6005
121.747 1548 39.3446
121.863 1576 39.6989
121.98 1530 39.1152
122.097 1560 39.4968
122.213 1561 39.5095
122.33 1572 39.6485
122.446 1529 39.1024
122.563 1509 38.8458
122.679 1513 38.8973
122.795 1416 37.6298
122.912 1442 37.9737
123.028 1346 36.6879
123.144 1331 36.4829
123.26 1267 35.5949
123.377 0 1
123.493 0 1
123.609 0 1
123.725 0 1
123.84 0 1
123.956 0 1
124.072 0 1
124.188 0 1
124.303 0 1
124.419 0 1
126.852 0 1
126.968 0 1
127.083 0 1
127.199 0 1
127.315 0 1
127.431 0 1
127.547 0 1
127.663 0 1
127.779 0 1
127.895 0 1
128.011 0 1
128.127 0 1
128.243 0 1
128.359 1498 38.704
128.476 1429 37.8021
128.592 1382 37.1753
128.708 1455 38.1445
128.825 1492 38.6264
128.941 1536 39.1918
129.058 1497 38.6911
129.174 1565 39.5601
129.291 1541 39.2556
129.408 1478 38.4448
129.524 1399 37.4032
129.641 1320 36.3318
129.758 1354 36.7967
129.875 1273 35.6791
129.992 1233 35.1141
130.108 1219 34.9142
130.225 1245 35.2846
130.342 1356 36.8239
130.459 1559 39.4842
130.576 1617 40.2119
130.693 1619 40.2368
130.81 1630 40.3733
130.928 1674 40.9145
131.045 1644 40.5463
131.162 1727 41.5572
131.279 1712 41.3763
131.396 1727 41.5572
131.513 1639 40.4846
131.631 1677 40.9512
131.748 1674 40.9145
131.865 1531 39.128
131.983 1465 38.2753
132.1 1431 37.8286
132.217 1499 38.7169
132.335 1590 39.8748
132.452 1590 39.8748
132.57 1607 40.0874
132.687 1577 39.7115
132.804 1620 40.2492
132.922 1588 39.8497
133.039 1558 39.4715
133.157 1431 37.8286
133.274 1334 36.524
133.392 1272 35.6651
133.509 1244 35.2704
133.627 1253 35.3977
133.744 1287 35.8748
133.862 1356 36.8239
133.979 1541 39.2556
134.097 1578 39.724
134.214 1555 39.4335
134.332 1691 41.1218
134.449 1631 40.3856
134.567 1704 41.2795
134.684 1666 40.8167
134.802 1605 40.0625
134.919 1643 40.5339
135.037 1693 41.1461
135.154 1652 40.6448
135.272 1711 41.3642
135.389 1598 39.975
135.507 1423 37.7227
135.624 1412 37.5766
135.742 1477 38.4318
135.859 1489 38.5876
135.977 1534 39.1663
136.094 1602 40.025
136.211 1694 41.1582
136.329 1656 40.694
136.446 1614 40.1746
136.564 1629 40.3609
136.681 1483 38.5097
136.798 1379 37.1349
136.915 1343 36.647
137.033 1334 36.524
137.15 1304 36.1109
137.267 1249 35.3412
137.384 1297 36.0139
137.502 1424 37.7359
137.619 1518 38.9615
137.736 1506 38.8072
137.853 1530 39.1152
137.97 1641 40.5093
138.087 1581 39.7618
138.204 1563 39.5348
138.321 1610 40.1248
138.438 1561 39.5095
138.555 1674 40.9145
138.672 1617 40.2119
138.788 1736 41.6653
138.905 1552 39.3954
139.022 1608 40.0999
139.139 1493 38.6394
139.255 1438 37.921
139.372 1435 37.8814
139.488 1481 38.4838
139.605 1511 38.8716
139.721 1621 40.2616
139.838 1589 39.8623
139.954 1550 39.37
140.071 1518 38.9615
140.187 1531 39.128
140.303 1488 38.5746
140.419 1432 37.8418
140.535 1387 37.2424
140.652 1306 36.1386
140.768 0 1
140.884 0 1
141 0 1
141.115 0 1
141.231 0 1
141.347 0 1
141.463 0 1
141.578 0 1
141.694 0 1
144.104 0 1
144.219 0 1
144.335 0 1
144.45 0 1
144.566 0 1
144.682 0 1
144.798 0 1
144.914 0 1
145.03 0 1
145.146 1115 33.3916
145.262 1136 33.7046
145.378 1242 35.242
145.494 1200 34.641
145.61 1102 33.1964
145.726 1075 32.7872
145.842 1046 32.3419
145.959 996 31.5595
146.075 983 31.3528
146.192 1048 32.3728
146.308 1087 32.9697
146.425 1102 33.1964
146.541 1162 34.0881
146.658 1259 35.4824
146.774 1148 33.8821
146.891 1165 34.1321
147.008 1315 36.2629
147.125 1275 35.7071
147.241 1324 36.3868
147.358 1300 36.0555
147.475 1328 36.4417
147.592 1334 36.524
147.709 1241 35.2278
147.826 1250 35.3553
147.943 1257 35.4542
148.06 1186 34.4384
148.177 1151 33.9264
148.294 1112 33.3467
148.411 1187 34.4529
148.528 1223 34.9714
148.645 1252 35.3836
148.762 1306 36.1386
148.88 1242 35.242
148.997 1273 35.6791
149.114 1250 35.3553
149.231 1281 35.7911
149.349 1114 33.3766
149.466 1167 34.1614
149.583 1107 33.2716
149.701 1037 32.2025
149.818 1109 33.3017
149.935 1028 32.0624
150.053 1136 33.7046
150.17 1131 33.6303
150.287 1164 34.1174
150.405 1195 34.5688
150.522 1214 34.8425
150.64 1328 36.4417
150.757 1331 36.4829
150.875 1382 37.1753
150.992 1354 36.7967
151.11 1347 36.7015
151.227 1336 36.5513
151.344 1359 36.8646
151.462 1246 35.2987
151.579 1305 36.1248
151.697 1249 35.3412
151.814 1183 34.3948
151.932 1103 33.2114
152.049 1217 34.8855
152.167 1275 35.7071
152.284 1341 36.6197
152.402 1313 36.2353
152.519 1303 36.0971
152.636 1268 35.609
152.754 1367 36.973
152.871 1228 35.0428
152.989 1203 34.6843
153.106 1126 33.5559
153.223 1127 33.5708
153.341 1168 34.176
153.458 1100 33.1662
153.575 1050 32.4037
153.693 1121 33.4813
153.81 1225 35
153.927 1264 35.5528
154.044 1278 35.7491
154.162 1247 35.3129
154.279 1435 37.8814
154.396 1324 36.3868
154.513 1326 36.4143
154.63 1427 37.7757
154.747 1459 38.1969
154.864 1396 37.3631
154.981 1452 38.1051
155.098 1356 36.8239
155.215 1410 37.55
155.332 1262 35.5246
155.449 1345 36.6742
155.566 1291 35.9305
155.683 1319 36.318
155.8 1366 36.9594
155.917 1446 38.0263
156.033 1387 37.2424
156.15 0 1
156.267 0 1
156.383 0 1
156.5 0 1
156.617 0 1
156.733 0 1
156.85 0 1
156.966 0 1
157.082 0 1
157.199 0 1
157.315 0 1
157.431 0 1
157.547 0 1
157.664 0 1
157.78 0 1
157.896 0 1
158.012 0 1
158.128 0 1
158.244 0 1
158.359 0 1
158.475 0 1
158.591 0 1
158.706 0 1
