
6.15755 0 1
6.2731 0 1
6.3887 0 1
6.50437 0 1
6.62009 0 1
6.73587 0 1
6.8517 0 1
6.96759 0 1
7.08353 0 1
7.19952 0 1
7.31557 0 1
7.43166 0 1
7.54781 0 1
7.664 0 1
7.78024 0 1
7.89653 0 1
8.01286 0 1
8.12924 0 1
8.24567 0 1
8.36213 0 1
8.47864 0 1
8.59519 0 1
8.71178 0 1
8.82841 0 1
8.94508 0 1
9.06179 0 1
9.17853 0 1
9.29531 0 1
9.41212 0 1
9.52897 0 1
9.64584 0 1
9.76276 0 1
9.8797 0 1
9.99667 0 1
10.1137 0 1
10.2307 0 1
10.3478 0 1
10.4648 0 1
10.5819 0 1
10.6991 0 1
10.8162 0 1
10.9334 0 1
11.0506 0 1
11.1678 0 1
11.285 0 1
11.4023 0 1
11.5196 0 1
11.6369 0 1
11.7542 0 1
11.8715 0 1
11.9888 0 1
12.1062 0 1
12.2235 0 1
12.3409 0 1
12.4582 0 1
12.5756 0 1
12.693 0 1
12.8104 0 1
12.9278 0 1
13.0452 0 1
13.1626 0 1
13.28 0 1
13.3974 0 1
13.5149 0 1
13.6323 0 1
13.7497 0 1
13.8671 0 1
13.9845 0 1
14.1019 0 1
14.2193 0 1
14.3367 0 1
14.4541 0 1
14.5714 0 1
14.6888 0 1
14.8062 0 1
14.9235 0 1
15.0408 15916 126.159
15.1581 16641 129
15.2755 17058 130.606
15.3927 17140 130.92
15.51 17342 131.689
15.6273 17294 131.507
15.7445 17333 131.655
15.8617 17345 131.7
15.9789 17045 130.557
16.0961 17681 132.97
16.2132 17940 133.94
16.3304 18212 134.952
16.4475 19044 138
16.5646 19553 139.832
16.6816 20130 141.88
16.7986 20207 142.151
16.9156 20984 144.859
17.0326 21365 146.168
17.1496 22103 148.671
17.2665 22326 149.419
17.3833 22159 148.859
17.5002 22571 150.236
17.617 22072 148.566
17.7338 21435 146.407
17.8505 20703 143.885
17.9672 20385 142.776
18.0839 20031 141.531
18.2005 20933 144.682
18.3171 21764 147.526
18.4337 22656 150.519
18.5502 23207 152.338
18.6666 23535 153.411
18.7831 23902 154.603
18.8994 23668 153.844
19.0158 23437 153.091
19.1321 22949 151.489
19.2483 22696 150.652
19.3645 22253 149.174
19.4806 21977 148.246
19.5967 21261 145.812
19.7128 21030 145.017
19.8288 20743 144.024
19.9447 18581 136.312
20.0606 0 1
20.1764 0 1
20.2922 0 1
20.4079 0 1
20.5236 0 1
20.6392 0 1
20.7548 0 1
20.8702 0 1
23.3078 0 1
23.4233 0 1
23.539 0 1
23.6547 0 1
23.7704 0 1
23.8862 0 1
24.0021 0 1
24.118 0 1
24.234 0 1
24.35 0 1
24.4661 22177 148.919
24.5822 21776 147.567
24.6984 21707 147.333
24.8146 21734 147.425
24.9309 21420 146.356
25.0472 21534 146.745
25.1636 22007 148.348
25.28 22608 150.36
25.3965 23260 152.512
25.513 23959 154.787
25.6296 25037 158.231
25.7462 25404 159.386
25.8628 25451 159.534
25.9795 25497 159.678
26.0962 25519 159.747
26.213 24444 156.346
26.3298 23640 153.753
26.4466 22685 150.615
26.5635 21901 147.99
26.6804 22161 148.866
26.7973 22802 151.003
26.9143 23498 153.291
27.0313 24096 155.229
27.1483 24665 157.051
27.2653 25135 158.54
27.3824 25044 158.253
27.4996 25319 159.119
27.6167 24431 156.304
27.7339 24015 154.968
27.8511 23423 153.046
27.9683 23190 152.283
28.0855 22703 150.675
28.2028 22819 151.06
28.3201 22361 149.536
28.4374 21854 147.831
28.5547 21600 146.969
28.6721 22224 149.077
28.7894 22560 150.2
28.9068 23073 151.898
29.0242 23702 153.955
29.1416 24192 155.538
29.259 24887 157.756
29.3764 24911 157.832
29.4939 24760 157.353
29.6113 24906 157.816
29.7288 23937 154.716
29.8463 22863 151.205
29.9638 21753 147.489
30.0812 20503 143.189
30.1987 20534 143.297
30.3162 21302 145.952
30.4337 22707 150.688
30.5512 23067 151.878
30.6687 23098 151.98
30.7862 24159 155.432
30.9037 23774 154.188
31.0212 24297 155.875
31.1387 24186 155.518
31.2562 23567 153.515
31.3737 23442 153.108
31.4912 23002 151.664
31.6087 22552 150.173
31.7262 22093 148.637
31.8436 21610 147.003
31.9611 21466 146.513
32.0785 21217 145.661
32.1959 21445 146.441
32.3134 22050 148.492
32.4308 22467 149.89
32.5482 23165 152.201
32.6655 23883 154.541
32.7829 24116 155.293
32.9002 24527 156.611
33.0176 24300 155.885
33.1349 24163 155.445
33.2522 24107 155.264
33.3694 23108 152.013
33.4867 22062 148.533
33.6039 20845 144.378
33.7211 20049 141.594
33.8383 19571 139.896
33.9554 20166 142.007
34.0725 20892 144.541
34.1896 21687 147.265
34.3067 22415 149.716
34.4237 22666 150.552
34.5407 23025 151.74
34.6577 23156 152.171
34.7746 23136 152.105
34.8915 22682 150.605
35.0084 22613 150.376
35.1252 22121 148.731
35.242 22023 148.401
35.3587 21156 145.451
35.4755 21082 145.196
35.5921 20812 144.264
35.7088 20508 143.206
35.8254 20647 143.691
35.9419 20570 143.422
36.0584 21025 145
36.1749 21694 147.289
36.2913 22040 148.459
36.4077 22738 150.791
36.524 22876 151.248
36.6403 23234 152.427
36.7565 23212 152.355
36.8727 23210 152.348
36.9889 22593 150.31
37.1049 20814 144.271
37.221 0 1
37.3369 0 1
37.4529 0 1
37.5687 0 1
37.6845 0 1
37.8003 0 1
37.916 0 1
38.0316 0 1
38.1472 0 1
40.5851 0 1
40.7008 0 1
40.8164 0 1
40.9322 0 1
41.048 0 1
41.1639 0 1
41.2798 0 1
41.3958 0 1
41.5118 0 1
41.6279 0 1
41.744 18097 134.525
41.8602 18970 137.732
41.9765 19412 139.327
42.0928 19420 139.356
42.2091 18879 137.401
42.3255 17456 132.121
42.4419 16616 128.903
42.5584 16034 126.625
42.675 15325 123.794
42.7915 15909 126.131
42.9081 16760 129.46
43.0248 17312 131.575
43.1415 17295 131.51
43.2582 17728 133.147
43.375 18170 134.796
43.4918 18133 134.659
43.6087 18160 134.759
43.7256 18094 134.514
43.8425 17860 133.641
43.9595 17523 132.374
44.0765 17108 130.798
44.1935 16495 128.433
44.3106 16404 128.078
44.4277 15624 124.996
44.5448 15142 123.053
44.6619 14956 122.295
44.7791 15018 122.548
44.8963 15063 122.731
45.0136 15398 124.089
45.1308 15791 125.662
45.2481 15813 125.75
45.3654 15464 124.354
45.4827 15943 126.266
45.6001 15625 125
45.7174 15316 123.758
45.8348 14455 120.229
45.9522 13425 115.866
46.0697 12500 111.803
46.1871 11971 109.412
46.3046 12020 109.636
46.422 12193 110.422
46.5395 13061 114.285
46.657 13592 116.585
46.7745 13593 116.589
46.892 13729 117.171
47.0096 13980 118.237
47.1271 14121 118.832
47.2446 13990 118.279
47.3622 14057 118.562
47.4797 13821 117.563
47.5973 13608 116.653
47.7149 13074 114.342
47.8324 12853 113.371
47.95 12603 112.263
48.0675 12240 110.635
48.1851 11964 109.38
48.3027 11862 108.913
48.4202 12239 110.63
48.5378 12383 111.279
48.6554 13222 114.987
48.7729 13279 115.235
48.8904 13279 115.235
49.008 13505 116.211
49.1255 13300 115.326
49.243 12994 113.991
49.3605 12161 110.277
49.478 11352 106.546
49.5955 10801 103.928
49.713 10473 102.338
49.8304 10396 101.961
49.9479 11037 105.057
50.0653 11970 109.407
50.1827 12631 112.388
50.3001 12871 113.45
50.4175 13185 114.826
50.5348 13453 115.987
50.6521 13964 118.169
50.7694 14346 119.775
50.8867 14397 119.987
51.004 14464 120.266
51.1212 14654 121.054
51.2384 14723 121.338
51.3556 14648 121.029
51.4727 14679 121.157
51.5899 14094 118.718
51.707 14157 118.983
51.824 14309 119.62
51.9411 14676 121.145
52.0581 15555 124.72
52.175 16541 128.612
52.2919 17038 130.53
52.4088 17320 131.605
52.5257 17536 132.424
52.6425 17453 132.11
52.7593 17217 131.214
52.876 16807 129.642
52.9927 15694 125.276
53.1094 14752 121.458
53.226 14130 118.87
53.3426 13816 117.541
53.4591 13947 118.097
53.5756 14912 122.115
53.692 16041 126.653
53.8084 16490 128.413
53.9248 17459 132.133
54.0411 17512 132.333
54.1573 18231 135.022
54.2735 0 1
54.3896 0 1
54.5057 0 1
54.6217 0 1
54.7377 0 1
54.8537 0 1
54.9695 0 1
55.0853 0 1
55.2011 0 1
55.3168 0 1
55.4324 0 1
57.824 0 1
57.9396 0 1
58.0553 0 1
58.1711 0 1
58.2869 0 1
58.4028 0 1
58.5187 0 1
58.6347 0 1
58.7508 0 1
58.8669 0 1
58.983 19515 139.696
59.0992 20664 143.75
59.2155 21472 146.533
59.3318 22013 148.368
59.4482 22526 150.087
59.5646 22701 150.669
59.681 22891 151.298
59.7975 22769 150.894
59.9141 22587 150.29
60.0306 22503 150.01
60.1473 21809 147.679
60.2639 21102 145.265
60.3807 19959 141.276
60.4974 19681 140.289
60.6142 20059 141.63
60.731 20454 143.017
60.8479 20980 144.845
60.9648 21670 147.207
61.0818 21952 148.162
61.1987 21868 147.878
61.3158 21576 146.888
61.4328 20865 144.447
61.5499 20213 142.172
61.667 18675 136.657
61.7841 17604 132.68
61.9013 16700 129.228
62.0185 16391 128.027
62.1357 17078 130.683
62.253 18498 136.007
62.3702 19279 138.849
62.4875 20099 141.771
62.6049 20527 143.272
62.7222 20834 144.34
62.8396 21764 147.526
62.9569 21653 147.15
63.0743 22055 148.509
63.1918 21909 148.017
63.3092 22288 149.292
63.4267 21713 147.353
63.5441 21038 145.045
63.6616 20600 143.527
63.7791 19924 141.152
63.8966 18894 137.455
64.0142 18636 136.514
64.1317 19078 138.123
64.2492 19375 139.194
64.3668 20092 141.746
64.4843 20467 143.063
64.6019 21046 145.072
64.7195 20946 144.727
64.837 20887 144.523
64.9546 20690 143.84
65.0722 19786 140.663
65.1898 18081 134.466
65.3074 17450 132.098
65.4249 16100 126.886
65.5425 15665 125.16
65.6601 15632 125.028
65.7777 16711 129.271
65.8952 17667 132.917
66.0128 18836 137.244
66.1304 19540 139.786
66.2479 19879 140.993
66.3655 20599 143.524
66.483 21049 145.083
66.6005 21734 147.425
66.718 21515 146.68
66.8355 21909 148.017
66.953 21620 147.037
67.0705 21265 145.825
67.1879 21216 145.657
67.3054 20399 142.825
67.4228 19574 139.907
67.5402 18567 136.261
67.6576 18027 134.265
67.7749 18027 134.265
67.8923 19007 137.866
68.0096 20055 141.616
68.1269 20473 143.084
68.2442 20849 144.392
68.3614 21833 147.76
68.4787 21073 145.165
68.5958 21016 144.969
68.713 20329 142.58
68.8302 19012 137.884
68.9473 17700 133.041
69.0643 16875 129.904
69.1814 16039 126.645
69.2984 16042 126.657
69.4154 17016 130.445
69.5323 18203 134.918
69.6492 19533 139.761
69.7661 21146 145.417
69.8829 21236 145.726
69.9997 21754 147.492
70.1165 22172 148.903
70.2332 22801 151
70.3499 22884 151.275
70.4665 23367 152.863
70.5831 23069 151.885
70.6996 22920 151.394
70.8161 22925 151.41
70.9326 22013 148.368
71.049 21233 145.715
71.1653 19809 140.744
71.2817 18699 136.744
71.3979 18371 135.54
71.5141 18245 135.074
71.6303 18615 136.437
71.7464 19040 137.986
71.8624 0 1
71.9784 0 1
72.0944 0 1
72.2102 0 1
72.3261 0 1
72.4418 0 1
72.5575 0 1
72.6732 0 1
75.1054 0 1
75.2209 0 1
75.3365 0 1
75.4521 0 1
75.5678 0 1
75.6835 0 1
75.7993 0 1
75.9151 0 1
76.031 0 1
76.147 19780 140.641
76.263 20478 143.101
76.3791 19653 140.189
76.4952 18725 136.839
76.6113 18978 137.761
76.7276 19799 140.709
76.8438 21398 146.281
76.9601 21975 148.24
77.0765 22465 149.883
77.1929 22429 149.763
77.3093 22664 150.546
77.4258 22316 149.385
77.5423 20845 144.378
77.6589 19117 138.264
77.7755 17854 133.619
77.8921 16797 129.603
78.0088 16239 127.432
78.1256 15774 125.595
78.2423 16287 127.621
78.3591 17902 133.798
78.4759 19104 138.217
78.5928 20534 143.297
78.7097 21081 145.193
78.8266 21221 145.674
78.9436 23142 152.125
79.0606 22896 151.314
79.1776 23037 151.779
79.2946 23119 152.049
79.4117 23397 152.961
79.5288 23290 152.611
79.6459 23136 152.105
79.7631 22189 148.96
79.8802 21716 147.363
79.9974 20170 142.021
80.1147 18816 137.171
80.2319 18969 137.728
80.3491 19921 141.142
80.4664 21154 145.444
80.5837 22035 148.442
80.701 22001 148.327
80.8183 22444 149.813
80.9357 22244 149.144
81.053 22389 149.63
81.1704 21438 146.417
81.2877 20010 141.457
81.4051 18384 135.588
81.5225 17246 131.324
81.6399 15981 126.416
81.7573 15775 125.599
81.8747 16030 126.61
81.9922 17683 132.977
82.1096 19466 139.521
82.227 20160 141.986
82.3444 20861 144.433
82.4619 21931 148.091
82.5793 22977 151.582
82.6967 22577 150.256
82.8142 23159 152.181
82.9316 23378 152.899
83.049 23676 153.87
83.1664 23205 152.332
83.2838 22767 150.887
83.4012 22300 149.332
83.5186 21109 145.289
83.636 20115 141.827
83.7534 18421 135.724
83.8708 18413 135.695
83.9881 19545 139.803
84.1055 20883 144.51
84.2228 22317 149.389
84.3401 22528 150.093
84.4575 23095 151.97
84.5747 22534 150.113
84.692 22005 148.341
84.8093 20748 144.042
84.9265 19261 138.784
85.0437 18120 134.611
85.1609 16691 129.194
85.2781 16148 127.075
85.3952 16183 127.212
85.5123 17298 131.522
85.6294 19102 138.21
85.7465 20360 142.688
85.8636 21393 146.263
85.9806 21938 148.115
86.0976 22671 150.569
86.2145 23614 153.668
86.3315 24159 155.432
86.4484 24458 156.391
86.5652 24584 156.793
86.682 24288 155.846
86.7988 24469 156.426
86.9156 23955 154.774
87.0323 23233 152.424
87.149 22088 148.62
87.2657 20869 144.461
87.3823 19784 140.656
87.4988 20533 143.293
87.6154 21469 146.523
87.7318 23530 153.395
87.8483 23735 154.062
87.9647 23889 154.561
88.081 23690 153.916
88.1973 23288 152.604
88.3136 22278 149.258
88.4298 20686 143.826
88.546 19220 138.636
88.6621 18066 134.41
88.7781 17061 130.618
88.8942 0 1
89.0101 0 1
89.126 0 1
89.2419 0 1
89.3577 0 1
89.4734 0 1
89.5891 0 1
89.7047 0 1
89.8203 0 1
89.9358 0 1
92.3269 0 1
92.4424 0 1
92.558 0 1
92.6736 0 1
92.7893 0 1
92.905 0 1
93.0208 0 1
93.1366 0 1
93.2525 0 1
93.3685 0 1
93.4845 0 1
93.6005 19579 139.925
93.7167 18856 137.317
93.8328 17514 132.34
93.949 17349 131.716
94.0653 16895 129.981
94.1816 16719 129.302
94.2979 17658 132.883
94.4143 18641 136.532
94.5307 20170 142.021
94.6472 21118 145.32
94.7637 21531 146.734
94.8803 21925 148.071
94.9969 22658 150.526
95.1135 23424 153.049
95.2302 23572 153.532
95.3469 23943 154.735
95.4637 23908 154.622
95.5805 24285 155.836
95.6973 24082 155.184
95.8142 24128 155.332
95.9311 23158 152.178
96.048 22310 149.365
96.1649 21498 146.622
96.2819 19741 140.503
96.3989 19836 140.84
96.516 20752 144.056
96.633 21915 148.037
96.7501 22933 151.436
96.8673 23630 153.721
96.9844 23339 152.771
97.1016 22757 150.854
97.2188 22052 148.499
97.336 21203 145.612
97.4532 19641 140.146
97.5704 18245 135.074
97.6877 17492 132.257
97.805 16840 129.769
97.9223 16397 128.051
98.0396 17146 130.943
98.1569 18575 136.29
98.2743 19892 141.039
98.3916 20607 143.551
98.509 21756 147.499
98.6264 22144 148.809
98.7438 22618 150.393
98.8612 23060 151.855
98.9786 23578 153.551
99.096 23767 154.165
99.2134 23698 153.942
99.3308 24026 155.003
99.4482 23511 153.333
99.5656 22916 151.38
99.6831 22196 148.983
99.8005 20789 144.184
99.9179 19946 141.23
100.035 19678 140.278
100.153 20589 143.489
100.27 21969 148.219
100.388 22532 150.107
100.505 22652 150.506
100.622 22851 151.165
100.74 22370 149.566
100.857 22110 148.694
100.975 20867 144.454
101.092 19501 139.646
101.209 18290 135.241
101.327 17605 132.684
101.444 17052 130.583
101.561 16571 128.728
101.679 17618 132.733
101.796 19112 138.246
101.913 20496 143.164
102.03 21507 146.653
102.148 22373 149.576
102.265 21296 145.931
102.382 25450 159.531
102.499 24296 155.872
102.616 24444 156.346
102.733 25047 158.262
102.851 25148 158.581
102.968 25445 159.515
103.085 24509 156.554
103.202 23907 154.619
103.319 23024 151.737
103.436 21650 147.139
103.552 21203 145.612
103.669 22115 148.711
103.786 23840 154.402
103.903 24681 157.102
104.02 24643 156.981
104.137 24670 157.067
104.253 24470 156.429
104.37 23674 153.864
104.487 22298 149.325
104.603 20770 144.118
104.72 19752 140.542
104.836 18729 136.854
104.953 18126 134.633
105.069 17938 133.933
105.186 19414 139.334
105.302 20747 144.038
105.418 22476 149.92
105.535 23222 152.388
105.651 24304 155.897
105.767 24913 157.839
105.883 25417 159.427
105.999 25616 160.05
106.115 0 1
106.231 0 1
106.347 0 1
106.463 0 1
106.579 0 1
106.694 0 1
106.81 0 1
106.926 0 1
107.041 0 1
107.157 0 1
109.576 0 1
109.692 0 1
109.807 0 1
109.923 0 1
110.039 0 1
110.155 0 1
110.27 0 1
110.386 0 1
110.502 0 1
110.618 20489 143.14
110.735 21603 146.98
110.851 21885 147.936
110.967 22130 148.762
111.083 22590 150.3
111.199 23043 151.799
111.316 23007 151.681
111.432 22941 151.463
111.549 22601 150.336
111.665 22038 148.452
111.782 20906 144.589
111.898 19410 139.32
112.015 18837 137.248
112.132 19405 139.302
112.248 20568 143.415
112.365 21181 145.537
112.482 21943 148.132
112.599 20804 144.236
112.716 20822 144.298
112.832 20083 141.715
112.949 19123 138.286
113.066 17806 133.439
113.183 16818 129.684
113.3 15591 124.864
113.417 14989 122.43
113.534 14345 119.771
113.652 14561 120.669
113.769 15773 125.591
113.886 16290 127.632
114.003 16981 130.311
114.12 17765 133.285
114.238 17892 133.761
114.355 18215 134.963
114.472 18460 135.868
114.589 18395 135.628
114.707 18565 136.253
114.824 18458 135.86
114.942 18532 136.132
115.059 18210 134.944
115.176 17486 132.235
115.294 17033 130.511
115.411 15974 126.388
115.529 14788 121.606
115.646 15080 122.801
115.764 15678 125.212
115.881 15989 126.448
115.999 15847 125.885
116.116 15955 126.313
116.234 16133 127.016
116.351 15500 124.499
116.469 14734 121.384
116.586 13661 116.88
116.704 13229 115.017
116.821 12674 112.579
116.939 12276 110.797
117.056 11557 107.503
117.174 11257 106.099
117.291 11707 108.199
117.409 12716 112.765
117.526 12831 113.274
117.644 13440 115.931
117.761 13944 118.085
117.879 14663 121.091
117.996 14424 120.1
118.114 14627 120.942
118.231 14971 122.356
118.349 15131 123.008
118.466 15267 123.56
118.584 15262 123.539
118.701 15426 124.201
118.819 15053 122.691
118.936 14363 119.846
119.053 13903 117.911
119.171 13263 115.165
119.288 13326 115.438
119.405 14277 119.486
119.523 14852 121.869
119.64 15193 123.26
119.757 15194 123.264
119.875 15201 123.292
119.992 15288 123.645
120.109 14632 120.963
120.226 14119 118.823
120.343 13354 115.56
120.46 13029 114.145
120.578 12680 112.606
120.695 12562 112.08
120.812 12368 111.212
120.929 12633 112.397
121.046 13139 114.625
121.163 13989 118.275
121.279 14729 121.363
121.396 15169 123.162
121.513 15633 125.032
121.63 16154 127.098
121.747 16364 127.922
121.863 16766 129.484
121.98 17334 131.659
122.097 17257 131.366
122.213 17417 131.973
122.33 17567 132.541
122.446 17777 133.33
122.563 17649 132.85
122.679 17111 130.809
122.795 16250 127.475
122.912 15880 126.016
123.028 15961 126.337
123.144 16809 129.65
123.26 17586 132.612
123.377 0 1
123.493 0 1
123.609 0 1
123.725 0 1
123.84 0 1
123.956 0 1
124.072 0 1
124.188 0 1
124.303 0 1
124.419 0 1
126.852 0 1
126.968 0 1
127.083 0 1
127.199 0 1
127.315 0 1
127.431 0 1
127.547 0 1
127.663 0 1
127.779 0 1
127.895 0 1
128.011 0 1
128.127 0 1
128.243 0 1
128.359 18838 137.252
128.476 19837 140.844
128.592 20947 144.731
128.708 21172 145.506
128.825 21446 146.445
128.941 21210 145.637
129.058 21036 145.038
129.174 20301 142.482
129.291 19264 138.795
129.408 18469 135.901
129.524 17663 132.902
129.641 17077 130.679
129.758 16540 128.608
129.875 16199 127.275
129.992 16491 128.417
130.108 17205 131.168
130.225 17436 132.045
130.342 17808 133.447
130.459 18326 135.374
130.576 18286 135.226
130.693 18705 136.766
130.81 18943 137.634
130.928 18748 136.923
131.045 18968 137.724
131.162 19241 138.712
131.279 19513 139.689
131.396 19424 139.37
131.513 19344 139.083
131.631 18136 134.67
131.748 17157 130.985
131.865 16733 129.356
131.983 17504 132.303
132.1 18209 134.941
132.217 18591 136.349
132.335 18692 136.719
132.452 18578 136.301
132.57 18369 135.532
132.687 17415 131.966
132.804 17526 132.386
132.922 16375 127.965
133.039 15444 124.274
133.157 15020 122.556
133.274 14601 120.835
133.392 13999 118.317
133.509 13987 118.267
133.627 14286 119.524
133.744 14584 120.764
133.862 15019 122.552
133.979 15053 122.691
134.097 15541 124.664
134.214 15698 125.292
134.332 15257 123.519
134.449 15498 124.491
134.567 15617 124.968
134.684 15351 123.899
134.802 15570 124.78
134.919 15517 124.567
135.037 15133 123.016
135.154 14921 122.152
135.272 14044 118.507
135.389 13558 116.439
135.507 13464 116.034
135.624 13986 118.262
135.742 14478 120.325
135.859 14512 120.466
135.977 14146 118.937
136.094 14018 118.398
136.211 13774 117.363
136.329 13306 115.352
136.446 12814 113.199
136.564 12306 110.932
136.681 11689 108.116
136.798 11463 107.065
136.915 11025 105
137.033 10810 103.971
137.15 10963 104.704
137.267 11112 105.413
137.384 11873 108.963
137.502 11980 109.453
137.619 11821 108.724
137.736 12099 109.995
137.853 12172 110.327
137.97 12473 111.683
138.087 12971 113.89
138.204 13060 114.28
138.321 13286 115.265
138.438 13502 116.198
138.555 13620 116.705
138.672 13971 118.199
138.788 13677 116.949
138.905 13298 115.317
139.022 13210 114.935
139.139 13118 114.534
139.255 13978 118.229
139.372 14770 121.532
139.488 14740 121.408
139.605 15272 123.58
139.721 15288 123.645
139.838 15394 124.073
139.954 15312 123.742
140.071 14116 118.811
140.187 14283 119.512
140.303 13615 116.683
140.419 13354 115.56
140.535 13268 115.187
140.652 12957 113.829
140.768 0 1
140.884 0 1
141 0 1
141.115 0 1
141.231 0 1
141.347 0 1
141.463 0 1
141.578 0 1
141.694 0 1
144.104 0 1
144.219 0 1
144.335 0 1
144.45 0 1
144.566 0 1
144.682 0 1
144.798 0 1
144.914 0 1
145.03 0 1
145.146 12807 113.168
145.262 12576 112.143
145.378 12075 109.886
145.494 11853 108.871
145.61 11456 107.033
145.726 10958 104.68
145.842 10848 104.154
145.959 10965 104.714
146.075 11186 105.764
146.192 11427 106.897
146.308 11228 105.962
146.425 11435 106.935
146.541 11275 106.184
146.658 11552 107.48
146.774 11469 107.093
146.891 11415 106.841
147.008 11656 107.963
147.125 11360 106.583
147.241 11505 107.261
147.358 11298 106.292
147.475 11253 106.08
147.592 10750 103.682
147.709 10391 101.936
147.826 10036 100.18
147.943 10706 103.47
148.06 10665 103.271
148.177 10951 104.647
148.294 10878 104.298
148.411 10842 104.125
148.528 10631 103.107
148.645 10602 102.966
148.762 10166 100.827
148.88 9734 98.661
148.997 9787 98.9293
149.114 8602 92.747
149.231 8904 94.361
149.349 8484 92.1086
149.466 8684 93.188
149.583 8619 92.8386
149.701 8828 93.9574
149.818 8855 94.101
149.935 9115 95.4725
150.053 9095 95.3677
150.17 9126 95.5301
150.287 9277 96.3172
150.405 9570 97.8264
150.522 9585 97.903
150.64 9708 98.5292
150.757 9925 99.6243
150.875 10019 100.095
150.992 9895 99.4736
151.11 9804 99.0152
151.227 9605 98.0051
151.344 9620 98.0816
151.462 9494 97.4372
151.579 9716 98.5698
151.697 10201 101
151.814 10443 102.191
151.932 10636 103.131
152.049 10739 103.629
152.167 10822 104.029
152.284 10452 102.235
152.402 10277 101.376
152.519 10258 101.282
152.636 9939 99.6945
152.754 9797 98.9798
152.871 9501 97.4731
152.989 9205 95.9427
153.106 9367 96.7833
153.223 9380 96.8504
153.341 9916 99.5791
153.458 10065 100.324
153.575 10327 101.622
153.693 10214 101.064
153.81 10546 102.694
153.927 10783 103.841
154.044 10898 104.393
154.162 11188 105.773
154.279 11354 106.555
154.396 11589 107.652
154.513 11996 109.526
154.63 12127 110.123
154.747 12101 110.005
154.864 11857 108.89
154.981 11477 107.131
155.098 11764 108.462
155.215 12023 109.649
155.332 12316 110.977
155.449 12830 113.27
155.566 12920 113.666
155.683 12949 113.794
155.8 12889 113.53
155.917 13075 114.346
156.033 12770 113.004
156.15 0 1
156.267 0 1
156.383 0 1
156.5 0 1
156.617 0 1
156.733 0 1
156.85 0 1
156.966 0 1
157.082 0 1
157.199 0 1
157.315 0 1
157.431 0 1
157.547 0 1
157.664 0 1
157.78 0 1
157.896 0 1
158.012 0 1
158.128 0 1
158.244 0 1
158.359 0 1
158.475 0 1
158.591 0 1
158.706 0 1
