
6.15755 0 1
6.2731 0 1
6.3887 0 1
6.50437 0 1
6.62009 0 1
6.73587 0 1
6.8517 0 1
6.96759 0 1
7.08353 0 1
7.19952 0 1
7.31557 0 1
7.43166 0 1
7.54781 0 1
7.664 0 1
7.78024 0 1
7.89653 0 1
8.01286 0 1
8.12924 0 1
8.24567 0 1
8.36213 0 1
8.47864 0 1
8.59519 0 1
8.71178 0 1
8.82841 0 1
8.94508 0 1
9.06179 0 1
9.17853 0 1
9.29531 0 1
9.41212 0 1
9.52897 0 1
9.64584 0 1
9.76276 0 1
9.8797 0 1
9.99667 0 1
10.1137 0 1
10.2307 0 1
10.3478 0 1
10.4648 0 1
10.5819 0 1
10.6991 0 1
10.8162 0 1
10.9334 0 1
11.0506 0 1
11.1678 0 1
11.285 0 1
11.4023 0 1
11.5196 0 1
11.6369 0 1
11.7542 0 1
11.8715 0 1
11.9888 0 1
12.1062 0 1
12.2235 0 1
12.3409 0 1
12.4582 0 1
12.5756 0 1
12.693 0 1
12.8104 0 1
12.9278 0 1
13.0452 0 1
13.1626 0 1
13.28 0 1
13.3974 0 1
13.5149 0 1
13.6323 0 1
13.7497 0 1
13.8671 0 1
13.9845 0 1
14.1019 0 1
14.2193 0 1
14.3367 0 1
14.4541 0 1
14.5714 0 1
14.6888 0 1
14.8062 0 1
14.9235 0 1
15.0408 1527 39.0768
15.1581 1618 40.2244
15.2755 1647 40.5832
15.3927 1693 41.1461
15.51 1748 41.8091
15.6273 1684 41.0366
15.7445 1612 40.1497
15.8617 1645 40.5586
15.9789 1686 41.0609
16.0961 1653 40.6571
16.2132 1652 40.6448
16.3304 1732 41.6173
16.4475 1805 42.4853
16.5646 1857 43.0929
16.6816 1869 43.2319
16.7986 1924 43.8634
16.9156 2032 45.0777
17.0326 2002 44.7437
17.1496 2044 45.2106
17.2665 2000 44.7214
17.3833 1941 44.0568
17.5002 1919 43.8064
17.617 1774 42.1189
17.7338 1786 42.2611
17.8505 1636 40.4475
17.9672 1656 40.694
18.0839 1749 41.821
18.2005 1791 42.3202
18.3171 1839 42.8836
18.4337 1891 43.4856
18.5502 1838 42.8719
18.6666 1855 43.0697
18.7831 1999 44.7102
18.8994 1969 44.3734
19.0158 1922 43.8406
19.1321 1910 43.7035
19.2483 1791 42.3202
19.3645 1686 41.0609
19.4806 1597 39.9625
19.5967 1501 38.7427
19.7128 1374 37.0675
19.8288 1269 35.623
19.9447 1170 34.2053
20.0606 0 1
20.1764 0 1
20.2922 0 1
20.4079 0 1
20.5236 0 1
20.6392 0 1
20.7548 0 1
20.8702 0 1
23.3078 0 1
23.4233 0 1
23.539 0 1
23.6547 0 1
23.7704 0 1
23.8862 0 1
24.0021 0 1
24.118 0 1
24.234 0 1
24.35 0 1
24.4661 802 28.3196
24.5822 941 30.6757
24.6984 1037 32.2025
24.8146 1176 34.2929
24.9309 1336 36.5513
25.0472 1393 37.3229
25.1636 1534 39.1663
25.28 1657 40.7063
25.3965 1847 42.9767
25.513 1927 43.8976
25.6296 2055 45.3321
25.7462 2165 46.5296
25.8628 2082 45.6289
25.9795 2102 45.8476
26.0962 1914 43.7493
26.213 2008 44.8107
26.3298 1893 43.5086
26.4466 1840 42.8952
26.5635 1820 42.6615
26.6804 1823 42.6966
26.7973 1893 43.5086
26.9143 1960 44.2719
27.0313 1924 43.8634
27.1483 2001 44.7325
27.2653 1958 44.2493
27.3824 2119 46.0326
27.4996 2019 44.9333
27.6167 1956 44.2267
27.7339 1901 43.6005
27.8511 1930 43.9318
27.9683 1875 43.3013
28.0855 1799 42.4146
28.2028 1744 41.7612
28.3201 1697 41.1947
28.4374 1616 40.1995
28.5547 1749 41.821
28.6721 1775 42.1307
28.7894 1816 42.6146
28.9068 1927 43.8976
29.0242 2001 44.7325
29.1416 2016 44.8999
29.259 2032 45.0777
29.3764 2079 45.5961
29.4939 2028 45.0333
29.6113 1985 44.5533
29.7288 1928 43.909
29.8463 1771 42.0833
29.9638 1775 42.1307
30.0812 1793 42.3438
30.1987 1764 42
30.3162 1803 42.4617
30.4337 1788 42.2847
30.5512 1853 43.0465
30.6687 1843 42.9302
30.7862 1868 43.2204
30.9037 1912 43.7264
31.0212 1974 44.4297
31.1387 1914 43.7493
31.2562 1952 44.1814
31.3737 1848 42.9884
31.4912 1818 42.638
31.6087 1774 42.1189
31.7262 1698 41.2068
31.8436 1661 40.7554
31.9611 1688 41.0853
32.0785 1724 41.5211
32.1959 1770 42.0714
32.3134 1847 42.9767
32.4308 1862 43.1509
32.5482 1898 43.566
32.6655 1901 43.6005
32.7829 1954 44.2041
32.9002 2034 45.0999
33.0176 1872 43.2666
33.1349 1966 44.3396
33.2522 1865 43.1856
33.3694 1845 42.9535
33.4867 1740 41.7133
33.6039 1694 41.1582
33.7211 1621 40.2616
33.8383 1600 40
33.9554 1614 40.1746
34.0725 1748 41.8091
34.1896 1753 41.8688
34.3067 1821 42.6732
34.4237 1829 42.7668
34.5407 1780 42.19
34.6577 1909 43.6921
34.7746 1848 42.9884
34.8915 1859 43.1161
35.0084 1758 41.9285
35.1252 1850 43.0116
35.242 1786 42.2611
35.3587 1742 41.7373
35.4755 1645 40.5586
35.5921 1610 40.1248
35.7088 1593 39.9124
35.8254 1629 40.3609
35.9419 1666 40.8167
36.0584 1655 40.6817
36.1749 1701 41.2432
36.2913 1707 41.3159
36.4077 1644 40.5463
36.524 1719 41.4608
36.6403 1611 40.1373
36.7565 1515 38.923
36.8727 1500 38.7298
36.9889 1398 37.3898
37.1049 1188 34.4674
37.221 0 1
37.3369 0 1
37.4529 0 1
37.5687 0 1
37.6845 0 1
37.8003 0 1
37.916 0 1
38.0316 0 1
38.1472 0 1
40.5851 0 1
40.7008 0 1
40.8164 0 1
40.9322 0 1
41.048 0 1
41.1639 0 1
41.2798 0 1
41.3958 0 1
41.5118 0 1
41.6279 0 1
41.744 877 29.6142
41.8602 992 31.496
41.9765 1059 32.5423
42.0928 1067 32.665
42.2091 1155 33.9853
42.3255 1127 33.5708
42.4419 1058 32.5269
42.5584 1043 32.2955
42.675 1226 35.0143
42.7915 1373 37.054
42.9081 1391 37.2961
43.0248 1439 37.9342
43.1415 1457 38.1707
43.2582 1561 39.5095
43.375 1546 39.3192
43.4918 1561 39.5095
43.6087 1576 39.6989
43.7256 1497 38.6911
43.8425 1468 38.3145
43.9595 1468 38.3145
44.0765 1463 38.2492
44.1935 1427 37.7757
44.3106 1331 36.4829
44.4277 1262 35.5246
44.5448 1227 35.0286
44.6619 1316 36.2767
44.7791 1416 37.6298
44.8963 1457 38.1707
45.0136 1537 39.2046
45.1308 1633 40.4104
45.2481 1549 39.3573
45.3654 1561 39.5095
45.4827 1564 39.5474
45.6001 1525 39.0512
45.7174 1515 38.923
45.8348 1394 37.3363
45.9522 1345 36.6742
46.0697 1285 35.8469
46.1871 1237 35.171
46.3046 1248 35.327
46.422 1461 38.223
46.5395 1410 37.55
46.657 1494 38.6523
46.7745 1490 38.6005
46.892 1559 39.4842
47.0096 1534 39.1663
47.1271 1611 40.1373
47.2446 1648 40.5956
47.3622 1540 39.2428
47.4797 1512 38.8844
47.5973 1519 38.9744
47.7149 1457 38.1707
47.8324 1470 38.3406
47.95 1328 36.4417
48.0675 1343 36.647
48.1851 1365 36.9459
48.3027 1342 36.6333
48.4202 1466 38.2884
48.5378 1471 38.3536
48.6554 1693 41.1461
48.7729 1548 39.3446
48.8904 1536 39.1918
49.008 1631 40.3856
49.1255 1597 39.9625
49.243 1542 39.2683
49.3605 1386 37.229
49.478 1282 35.805
49.5955 1225 35
49.713 1242 35.242
49.8304 1286 35.8608
49.9479 1390 37.2827
50.0653 1329 36.4555
50.1827 1493 38.6394
50.3001 1484 38.5227
50.4175 1545 39.3065
50.5348 1662 40.7676
50.6521 1611 40.1373
50.7694 1658 40.7185
50.8867 1661 40.7554
51.004 1586 39.8246
51.1212 1495 38.6652
51.2384 1566 39.5727
51.3556 1551 39.3827
51.4727 1529 39.1024
51.5899 1341 36.6197
51.707 1415 37.6165
51.824 1500 38.7298
51.9411 1607 40.0874
52.0581 1791 42.3202
52.175 2000 44.7214
52.2919 1940 44.0454
52.4088 1877 43.3244
52.5257 1925 43.8748
52.6425 2060 45.3872
52.7593 2081 45.618
52.876 1958 44.2493
52.9927 1778 42.1663
53.1094 1724 41.5211
53.226 1650 40.6202
53.3426 1616 40.1995
53.4591 1604 40.05
53.5756 1637 40.4599
53.692 1622 40.2741
53.8084 1647 40.5832
53.9248 1583 39.7869
54.0411 1515 38.923
54.1573 1458 38.1838
54.2735 0 1
54.3896 0 1
54.5057 0 1
54.6217 0 1
54.7377 0 1
54.8537 0 1
54.9695 0 1
55.0853 0 1
55.2011 0 1
55.3168 0 1
55.4324 0 1
57.824 0 1
57.9396 0 1
58.0553 0 1
58.1711 0 1
58.2869 0 1
58.4028 0 1
58.5187 0 1
58.6347 0 1
58.7508 0 1
58.8669 0 1
58.983 1203 34.6843
59.0992 1337 36.565
59.2155 1572 39.6485
59.3318 1610 40.1248
59.4482 1634 40.4228
59.5646 1765 42.0119
59.681 1789 42.2966
59.7975 1699 41.2189
59.9141 1812 42.5676
60.0306 1810 42.5441
60.1473 1758 41.9285
60.2639 1697 41.1947
60.3807 1593 39.9124
60.4974 1719 41.4608
60.6142 1794 42.3556
60.731 1882 43.382
60.8479 1903 43.6234
60.9648 1969 44.3734
61.0818 1982 44.5197
61.1987 1978 44.4747
61.3158 2000 44.7214
61.4328 1812 42.5676
61.5499 1788 42.2847
61.667 1637 40.4599
61.7841 1537 39.2046
61.9013 1518 38.9615
62.0185 1500 38.7298
62.1357 1581 39.7618
62.253 1686 41.0609
62.3702 1801 42.4382
62.4875 1867 43.2088
62.6049 1801 42.4382
62.7222 1956 44.2267
62.8396 2028 45.0333
62.9569 1996 44.6766
63.0743 1912 43.7264
63.1918 1916 43.7721
63.3092 2023 44.9778
63.4267 1899 43.5775
63.5441 1722 41.497
63.6616 1677 40.9512
63.7791 1618 40.2244
63.8966 1626 40.3237
64.0142 1652 40.6448
64.1317 1688 41.0853
64.2492 1760 41.9524
64.3668 1850 43.0116
64.4843 1934 43.9773
64.6019 1903 43.6234
64.7195 2029 45.0444
64.837 1956 44.2267
64.9546 1950 44.1588
65.0722 1785 42.2493
65.1898 1673 40.9023
65.3074 1562 39.5221
65.4249 1456 38.1576
65.5425 1425 37.7492
65.6601 1491 38.6135
65.7777 1577 39.7115
65.8952 1613 40.1622
66.0128 1720 41.4729
66.1304 1793 42.3438
66.2479 1811 42.5558
66.3655 1908 43.6807
66.483 1956 44.2267
66.6005 1880 43.359
66.718 1914 43.7493
66.8355 1922 43.8406
66.953 1856 43.0813
67.0705 1774 42.1189
67.1879 1783 42.2256
67.3054 1644 40.5463
67.4228 1496 38.6782
67.5402 1524 39.0384
67.6576 1564 39.5474
67.7749 1661 40.7554
67.8923 1704 41.2795
68.0096 1801 42.4382
68.1269 1840 42.8952
68.2442 1907 43.6692
68.3614 1957 44.238
68.4787 1936 44
68.5958 1837 42.8602
68.713 1728 41.5692
68.8302 1695 41.1704
68.9473 1559 39.4842
69.0643 1428 37.7889
69.1814 1348 36.7151
69.2984 1358 36.8511
69.4154 1544 39.2938
69.5323 1687 41.0731
69.6492 1621 40.2616
69.7661 1684 41.0366
69.8829 1800 42.4264
69.9997 1714 41.4005
70.1165 1695 41.1704
70.2332 1628 40.3485
70.3499 1578 39.724
70.4665 1562 39.5221
70.5831 1429 37.8021
70.6996 1313 36.2353
70.8161 1305 36.1248
70.9326 1194 34.5543
71.049 979 31.289
71.1653 885 29.7489
71.2817 748 27.3496
71.3979 764 27.6405
71.5141 703 26.5141
71.6303 642 25.3377
71.7464 623 24.96
71.8624 0 1
71.9784 0 1
72.0944 0 1
72.2102 0 1
72.3261 0 1
72.4418 0 1
72.5575 0 1
72.6732 0 1
75.1054 0 1
75.2209 0 1
75.3365 0 1
75.4521 0 1
75.5678 0 1
75.6835 0 1
75.7993 0 1
75.9151 0 1
76.031 0 1
76.147 1129 33.6006
76.263 1214 34.8425
76.3791 1183 34.3948
76.4952 1204 34.6987
76.6113 1189 34.4819
76.7276 1282 35.805
76.8438 1515 38.923
76.9601 1610 40.1248
77.0765 1602 40.025
77.1929 1534 39.1663
77.3093 1677 40.9512
77.4258 1606 40.0749
77.5423 1653 40.6571
77.6589 1601 40.0125
77.7755 1359 36.8646
77.8921 1287 35.8748
78.0088 1168 34.176
78.1256 1110 33.3167
78.2423 1107 33.2716
78.3591 1234 35.1283
78.4759 1321 36.3456
78.5928 1413 37.5899
78.7097 1516 38.9358
78.8266 1511 38.8716
78.9436 1579 39.7366
79.0606 1498 38.704
79.1776 1598 39.975
79.2946 1581 39.7618
79.4117 1684 41.0366
79.5288 1614 40.1746
79.6459 1578 39.724
79.7631 1661 40.7554
79.8802 1469 38.3275
79.9974 1478 38.4448
80.1147 1349 36.7287
80.2319 1294 35.9722
80.3491 1339 36.5923
80.4664 1405 37.4833
80.5837 1578 39.724
80.701 1675 40.9268
80.8183 1612 40.1497
80.9357 1738 41.6893
81.053 1653 40.6571
81.1704 1662 40.7676
81.2877 1627 40.3361
81.4051 1595 39.9375
81.5225 1439 37.9342
81.6399 1373 37.054
81.7573 1270 35.6371
81.8747 1180 34.3511
81.9922 1184 34.4093
82.1096 1369 37
82.227 1513 38.8973
82.3444 1527 39.0768
82.4619 1626 40.3237
82.5793 1648 40.5956
82.6967 1726 41.5452
82.8142 1747 41.7971
82.9316 1753 41.8688
83.049 1783 42.2256
83.1664 1653 40.6571
83.2838 1777 42.1545
83.4012 1604 40.05
83.5186 1628 40.3485
83.636 1482 38.4968
83.7534 1370 37.0135
83.8708 1372 37.0405
83.9881 1359 36.8646
84.1055 1355 36.8103
84.2228 1459 38.1969
84.3401 1573 39.6611
84.4575 1674 40.9145
84.5747 1774 42.1189
84.692 1699 41.2189
84.8093 1693 41.1461
84.9265 1657 40.7063
85.0437 1618 40.2244
85.1609 1496 38.6782
85.2781 1254 35.4119
85.3952 1257 35.4542
85.5123 1202 34.6699
85.6294 1221 34.9428
85.7465 1372 37.0405
85.8636 1517 38.9487
85.9806 1590 39.8748
86.0976 1609 40.1123
86.2145 1611 40.1373
86.3315 1644 40.5463
86.4484 1693 41.1461
86.5652 1848 42.9884
86.682 1721 41.4849
86.7988 1753 41.8688
86.9156 1793 42.3438
87.0323 1712 41.3763
87.149 1656 40.694
87.2657 1518 38.9615
87.3823 1370 37.0135
87.4988 1210 34.7851
87.6154 1197 34.5977
87.7318 1163 34.1028
87.8483 1309 36.1801
87.9647 1327 36.428
88.081 1391 37.2961
88.1973 1300 36.0555
88.3136 1257 35.4542
88.4298 1231 35.0856
88.546 1129 33.6006
88.6621 1027 32.0468
88.7781 769 27.7308
88.8942 0 1
89.0101 0 1
89.126 0 1
89.2419 0 1
89.3577 0 1
89.4734 0 1
89.5891 0 1
89.7047 0 1
89.8203 0 1
89.9358 0 1
92.3269 0 1
92.4424 0 1
92.558 0 1
92.6736 0 1
92.7893 0 1
92.905 0 1
93.0208 0 1
93.1366 0 1
93.2525 0 1
93.3685 0 1
93.4845 0 1
93.6005 1338 36.5787
93.7167 1299 36.0416
93.8328 1538 39.2173
93.949 1546 39.3192
94.0653 1546 39.3192
94.1816 1442 37.9737
94.2979 1413 37.5899
94.4143 1342 36.6333
94.5307 1245 35.2846
94.6472 1218 34.8999
94.7637 1318 36.3043
94.8803 1395 37.3497
94.9969 1497 38.6911
95.1135 1608 40.0999
95.2302 1612 40.1497
95.3469 1616 40.1995
95.4637 1719 41.4608
95.5805 1790 42.3084
95.6973 1796 42.3792
95.8142 1690 41.1096
95.9311 1758 41.9285
96.048 1711 41.3642
96.1649 1791 42.3202
96.2819 1716 41.4246
96.3989 1575 39.6863
96.516 1602 40.025
96.633 1470 38.3406
96.7501 1401 37.4299
96.8673 1444 38
96.9844 1517 38.9487
97.1016 1543 39.281
97.2188 1659 40.7308
97.336 1736 41.6653
97.4532 1825 42.72
97.5704 1866 43.1972
97.6877 1768 42.0476
97.805 1746 41.7852
97.9223 1592 39.8999
98.0396 1466 38.2884
98.1569 1317 36.2905
98.2743 1252 35.3836
98.3916 1262 35.5246
98.509 1365 36.9459
98.6264 1543 39.281
98.7438 1592 39.8999
98.8612 1598 39.975
98.9786 1798 42.4028
99.096 1799 42.4146
99.2134 1839 42.8836
99.3308 1841 42.9069
99.4482 1811 42.5558
99.5656 1856 43.0813
99.6831 1874 43.2897
99.8005 1820 42.6615
99.9179 1779 42.1782
100.035 1740 41.7133
100.153 1617 40.2119
100.27 1545 39.3065
100.388 1558 39.4715
100.505 1633 40.4104
100.622 1728 41.5692
100.74 1750 41.833
100.857 1866 43.1972
100.975 1883 43.3935
101.092 1893 43.5086
101.209 1851 43.0232
101.327 1882 43.382
101.444 1791 42.3202
101.561 1645 40.5586
101.679 1515 38.923
101.796 1324 36.3868
101.913 1288 35.8887
102.03 1375 37.081
102.148 1534 39.1663
102.265 1585 39.8121
102.382 1801 42.4382
102.499 1769 42.0595
102.616 1916 43.7721
102.733 1874 43.2897
102.851 1988 44.587
102.968 1999 44.7102
103.085 1961 44.2832
103.202 1886 43.4281
103.319 1906 43.6578
103.436 1831 42.7902
103.552 1852 43.0349
103.669 1679 40.9756
103.786 1680 40.9878
103.903 1588 39.8497
104.02 1643 40.5339
104.137 1798 42.4028
104.253 1815 42.6028
104.37 2027 45.0222
104.487 1947 44.1248
104.603 2079 45.5961
104.72 2026 45.0111
104.836 1854 43.0581
104.953 1644 40.5463
105.069 1547 39.3319
105.186 1432 37.8418
105.302 1217 34.8855
105.418 1195 34.5688
105.535 1204 34.6987
105.651 1266 35.5809
105.767 1240 35.2136
105.883 1186 34.4384
105.999 1166 34.1467
106.115 0 1
106.231 0 1
106.347 0 1
106.463 0 1
106.579 0 1
106.694 0 1
106.81 0 1
106.926 0 1
107.041 0 1
107.157 0 1
109.576 0 1
109.692 0 1
109.807 0 1
109.923 0 1
110.039 0 1
110.155 0 1
110.27 0 1
110.386 0 1
110.502 0 1
110.618 857 29.2746
110.735 1073 32.7567
110.851 1285 35.8469
110.967 1423 37.7227
111.083 1584 39.7995
111.199 1585 39.8121
111.316 1649 40.6079
111.432 1779 42.1782
111.549 1809 42.5323
111.665 1800 42.4264
111.782 1778 42.1663
111.898 1745 41.7732
112.015 1688 41.0853
112.132 1644 40.5463
112.248 1547 39.3319
112.365 1489 38.5876
112.482 1494 38.6523
112.599 1633 40.4104
112.716 1743 41.7493
112.832 1776 42.1426
112.949 1795 42.3674
113.066 1872 43.2666
113.183 1849 43
113.3 1852 43.0349
113.417 1822 42.6849
113.534 1670 40.8656
113.652 1466 38.2884
113.769 1391 37.2961
113.886 1293 35.9583
114.003 1288 35.8887
114.12 1347 36.7015
114.238 1571 39.6358
114.355 1634 40.4228
114.472 1602 40.025
114.589 1902 43.6119
114.707 1766 42.0238
114.824 1851 43.0232
114.942 1895 43.5316
115.059 1826 42.7317
115.176 1845 42.9535
115.294 1836 42.8486
115.411 1803 42.4617
115.529 1818 42.638
115.646 1775 42.1307
115.764 1634 40.4228
115.881 1604 40.05
115.999 1550 39.37
116.116 1596 39.95
116.234 1698 41.2068
116.351 1715 41.4126
116.469 1840 42.8952
116.586 1914 43.7493
116.704 1834 42.8252
116.821 1848 42.9884
116.939 1864 43.1741
117.056 1827 42.7434
117.174 1684 41.0366
117.291 1535 39.1791
117.409 1432 37.8418
117.526 1305 36.1248
117.644 1300 36.0555
117.761 1429 37.8021
117.879 1543 39.281
117.996 1591 39.8873
118.114 1723 41.509
118.231 1752 41.8569
118.349 1826 42.7317
118.466 1769 42.0595
118.584 1818 42.638
118.701 1800 42.4264
118.819 1794 42.3556
118.936 1699 41.2189
119.053 1684 41.0366
119.171 1697 41.1947
119.288 1621 40.2616
119.405 1572 39.6485
119.523 1520 38.9872
119.64 1488 38.5746
119.757 1450 38.0789
119.875 1497 38.6911
119.992 1700 41.2311
120.109 1807 42.5088
120.226 1738 41.6893
120.343 1724 41.5211
120.46 1623 40.2865
120.578 1713 41.3884
120.695 1644 40.5463
120.812 1555 39.4335
120.929 1385 37.2156
121.046 1266 35.5809
121.163 1259 35.4824
121.279 1230 35.0714
121.396 1250 35.3553
121.513 1357 36.8375
121.63 1367 36.973
121.747 1384 37.2022
121.863 1304 36.1109
121.98 1378 37.1214
122.097 1428 37.7889
122.213 1320 36.3318
122.33 1298 36.0278
122.446 1300 36.0555
122.563 1182 34.3802
122.679 1163 34.1028
122.795 1116 33.4066
122.912 972 31.1769
123.028 835 28.8964
123.144 738 27.1662
123.26 707 26.5895
123.377 0 1
123.493 0 1
123.609 0 1
123.725 0 1
123.84 0 1
123.956 0 1
124.072 0 1
124.188 0 1
124.303 0 1
124.419 0 1
126.852 0 1
126.968 0 1
127.083 0 1
127.199 0 1
127.315 0 1
127.431 0 1
127.547 0 1
127.663 0 1
127.779 0 1
127.895 0 1
128.011 0 1
128.127 0 1
128.243 0 1
128.359 1613 40.1622
128.476 1646 40.5709
128.592 1621 40.2616
128.708 1624 40.2989
128.825 1585 39.8121
128.941 1727 41.5572
129.058 1733 41.6293
129.174 1868 43.2204
129.291 1856 43.0813
129.408 1867 43.2088
129.524 1934 43.9773
129.641 1854 43.0581
129.758 1763 41.9881
129.875 1744 41.7612
129.992 1508 38.833
130.108 1419 37.6696
130.225 1373 37.054
130.342 1364 36.9324
130.459 1491 38.6135
130.576 1523 39.0256
130.693 1717 41.4367
130.81 1748 41.8091
130.928 1785 42.2493
131.045 1821 42.6732
131.162 1877 43.3244
131.279 1852 43.0349
131.396 1801 42.4382
131.513 1869 43.2319
131.631 1819 42.6497
131.748 1823 42.6966
131.865 1774 42.1189
131.983 1680 40.9878
132.1 1720 41.4729
132.217 1653 40.6571
132.335 1665 40.8044
132.452 1776 42.1426
132.57 1837 42.8602
132.687 1874 43.2897
132.804 1880 43.359
132.922 1946 44.1135
133.039 1911 43.715
133.157 1942 44.0681
133.274 1893 43.5086
133.392 1743 41.7493
133.509 1616 40.1995
133.627 1492 38.6264
133.744 1432 37.8418
133.862 1402 37.4433
133.979 1418 37.6563
134.097 1523 39.0256
134.214 1673 40.9023
134.332 1764 42
134.449 1678 40.9634
134.567 1862 43.1509
134.684 1866 43.1972
134.802 1898 43.566
134.919 1935 43.9886
135.037 1904 43.6348
135.154 1859 43.1161
135.272 1830 42.7785
135.389 1834 42.8252
135.507 1752 41.8569
135.624 1772 42.0951
135.742 1711 41.3642
135.859 1692 41.1339
135.977 1694 41.1582
136.094 1798 42.4028
136.211 1875 43.3013
136.329 1818 42.638
136.446 1885 43.4166
136.564 1955 44.2154
136.681 2000 44.7214
136.798 1914 43.7493
136.915 1902 43.6119
137.033 1764 42
137.15 1733 41.6293
137.267 1568 39.598
137.384 1492 38.6264
137.502 1384 37.2022
137.619 1440 37.9473
137.736 1556 39.4462
137.853 1583 39.7869
137.97 1699 41.2189
138.087 1731 41.6053
138.204 1921 43.8292
138.321 1880 43.359
138.438 1803 42.4617
138.555 1776 42.1426
138.672 1815 42.6028
138.788 1827 42.7434
138.905 1726 41.5452
139.022 1687 41.0731
139.139 1527 39.0768
139.255 1485 38.5357
139.372 1325 36.4005
139.488 1280 35.7771
139.605 1270 35.6371
139.721 1317 36.2905
139.838 1283 35.819
139.954 1236 35.1568
140.071 1169 34.1906
140.187 1061 32.573
140.303 1007 31.7333
140.419 955 30.9031
140.535 905 30.0832
140.652 855 29.2404
140.768 0 1
140.884 0 1
141 0 1
141.115 0 1
141.231 0 1
141.347 0 1
141.463 0 1
141.578 0 1
141.694 0 1
144.104 0 1
144.219 0 1
144.335 0 1
144.45 0 1
144.566 0 1
144.682 0 1
144.798 0 1
144.914 0 1
145.03 0 1
145.146 1376 37.0945
145.262 1375 37.081
145.378 1503 38.7685
145.494 1612 40.1497
145.61 1490 38.6005
145.726 1399 37.4032
145.842 1365 36.9459
145.959 1267 35.5949
146.075 1188 34.4674
146.192 1188 34.4674
146.308 1166 34.1467
146.425 1233 35.1141
146.541 1264 35.5528
146.658 1331 36.4829
146.774 1321 36.3456
146.891 1411 37.5633
147.008 1438 37.921
147.125 1372 37.0405
147.241 1497 38.6911
147.358 1454 38.1314
147.475 1509 38.8458
147.592 1398 37.3898
147.709 1366 36.9594
147.826 1427 37.7757
147.943 1387 37.2424
148.06 1323 36.3731
148.177 1309 36.1801
148.294 1341 36.6197
148.411 1339 36.5923
148.528 1409 37.5366
148.645 1434 37.8682
148.762 1461 38.223
148.88 1450 38.0789
148.997 1527 39.0768
149.114 1462 38.2361
149.231 1487 38.5616
149.349 1515 38.923
149.466 1397 37.3765
149.583 1324 36.3868
149.701 1225 35
149.818 1138 33.7343
149.935 1172 34.2345
150.053 1185 34.4238
150.17 1161 34.0735
150.287 1293 35.9583
150.405 1349 36.7287
150.522 1355 36.8103
150.64 1355 36.8103
150.757 1400 37.4166
150.875 1408 37.5233
150.992 1355 36.8103
151.11 1471 38.3536
151.227 1351 36.756
151.344 1387 37.2424
151.462 1282 35.805
151.579 1322 36.3593
151.697 1286 35.8608
151.814 1273 35.6791
151.932 1218 34.8999
152.049 1311 36.2077
152.167 1304 36.1109
152.284 1396 37.3631
152.402 1414 37.6032
152.519 1364 36.9324
152.636 1435 37.8814
152.754 1398 37.3898
152.871 1390 37.2827
152.989 1322 36.3593
153.106 1427 37.7757
153.223 1303 36.0971
153.341 1176 34.2929
153.458 1099 33.1512
153.575 1067 32.665
153.693 1131 33.6303
153.81 1147 33.8674
153.927 1213 34.8281
154.044 1200 34.641
154.162 1330 36.4692
154.279 1353 36.7831
154.396 1297 36.0139
154.513 1385 37.2156
154.63 1351 36.756
154.747 1294 35.9722
154.864 1320 36.3318
154.981 1343 36.647
155.098 1294 35.9722
155.215 1252 35.3836
155.332 1172 34.2345
155.449 1191 34.5109
155.566 1148 33.8821
155.683 1244 35.2704
155.8 1215 34.8569
155.917 1223 34.9714
156.033 1166 34.1467
156.15 0 1
156.267 0 1
156.383 0 1
156.5 0 1
156.617 0 1
156.733 0 1
156.85 0 1
156.966 0 1
157.082 0 1
157.199 0 1
157.315 0 1
157.431 0 1
157.547 0 1
157.664 0 1
157.78 0 1
157.896 0 1
158.012 0 1
158.128 0 1
158.244 0 1
158.359 0 1
158.475 0 1
158.591 0 1
158.706 0 1
