
6.15755 0 1
6.2731 0 1
6.3887 0 1
6.50437 0 1
6.62009 0 1
6.73587 0 1
6.8517 0 1
6.96759 0 1
7.08353 0 1
7.19952 0 1
7.31557 0 1
7.43166 0 1
7.54781 0 1
7.664 0 1
7.78024 0 1
7.89653 0 1
8.01286 0 1
8.12924 0 1
8.24567 0 1
8.36213 0 1
8.47864 0 1
8.59519 0 1
8.71178 0 1
8.82841 0 1
8.94508 0 1
9.06179 0 1
9.17853 0 1
9.29531 0 1
9.41212 0 1
9.52897 0 1
9.64584 0 1
9.76276 0 1
9.8797 0 1
9.99667 0 1
10.1137 0 1
10.2307 0 1
10.3478 0 1
10.4648 0 1
10.5819 0 1
10.6991 0 1
10.8162 0 1
10.9334 0 1
11.0506 0 1
11.1678 0 1
11.285 0 1
11.4023 0 1
11.5196 0 1
11.6369 0 1
11.7542 0 1
11.8715 0 1
11.9888 0 1
12.1062 0 1
12.2235 0 1
12.3409 0 1
12.4582 0 1
12.5756 0 1
12.693 0 1
12.8104 0 1
12.9278 0 1
13.0452 0 1
13.1626 0 1
13.28 0 1
13.3974 0 1
13.5149 0 1
13.6323 0 1
13.7497 0 1
13.8671 0 1
13.9845 0 1
14.1019 0 1
14.2193 0 1
14.3367 0 1
14.4541 0 1
14.5714 0 1
14.6888 0 1
14.8062 0 1
14.9235 0 1
15.0408 1054 32.4654
15.1581 1120 33.4664
15.2755 1133 33.6601
15.3927 1247 35.3129
15.51 1228 35.0428
15.6273 1222 34.9571
15.7445 1192 34.5254
15.8617 1090 33.0151
15.9789 1158 34.0294
16.0961 1124 33.5261
16.2132 1134 33.6749
16.3304 1153 33.9559
16.4475 1288 35.8887
16.5646 1238 35.1852
16.6816 1296 36
16.7986 1351 36.756
16.9156 1383 37.1887
17.0326 1348 36.7151
17.1496 1379 37.1349
17.2665 1402 37.4433
17.3833 1313 36.2353
17.5002 1320 36.3318
17.617 1321 36.3456
17.7338 1200 34.641
17.8505 1212 34.8138
17.9672 1195 34.5688
18.0839 1209 34.7707
18.2005 1232 35.0999
18.3171 1261 35.5106
18.4337 1284 35.8329
18.5502 1259 35.4824
18.6666 1326 36.4143
18.7831 1293 35.9583
18.8994 1388 37.2559
19.0158 1314 36.2491
19.1321 1387 37.2424
19.2483 1197 34.5977
19.3645 1190 34.4964
19.4806 1146 33.8526
19.5967 1067 32.665
19.7128 965 31.0644
19.8288 878 29.6311
19.9447 879 29.6479
20.0606 0 1
20.1764 0 1
20.2922 0 1
20.4079 0 1
20.5236 0 1
20.6392 0 1
20.7548 0 1
20.8702 0 1
23.3078 0 1
23.4233 0 1
23.539 0 1
23.6547 0 1
23.7704 0 1
23.8862 0 1
24.0021 0 1
24.118 0 1
24.234 0 1
24.35 0 1
24.4661 554 23.5372
24.5822 667 25.8263
24.6984 792 28.1425
24.8146 836 28.9137
24.9309 887 29.7825
25.0472 1030 32.0936
25.1636 1041 32.2645
25.28 1196 34.5832
25.3965 1152 33.9411
25.513 1383 37.1887
25.6296 1390 37.2827
25.7462 1471 38.3536
25.8628 1490 38.6005
25.9795 1432 37.8418
26.0962 1384 37.2022
26.213 1433 37.855
26.3298 1297 36.0139
26.4466 1293 35.9583
26.5635 1286 35.8608
26.6804 1257 35.4542
26.7973 1299 36.0416
26.9143 1313 36.2353
27.0313 1317 36.2905
27.1483 1339 36.5923
27.2653 1399 37.4032
27.3824 1481 38.4838
27.4996 1428 37.7889
27.6167 1364 36.9324
27.7339 1338 36.5787
27.8511 1363 36.9188
27.9683 1296 36
28.0855 1228 35.0428
28.2028 1233 35.1141
28.3201 1186 34.4384
28.4374 1155 33.9853
28.5547 1211 34.7994
28.6721 1278 35.7491
28.7894 1223 34.9714
28.9068 1406 37.4967
29.0242 1416 37.6298
29.1416 1468 38.3145
29.259 1408 37.5233
29.3764 1420 37.6829
29.4939 1405 37.4833
29.6113 1361 36.8917
29.7288 1341 36.6197
29.8463 1298 36.0278
29.9638 1244 35.2704
30.0812 1228 35.0428
30.1987 1188 34.4674
30.3162 1208 34.7563
30.4337 1275 35.7071
30.5512 1263 35.5387
30.6687 1337 36.565
30.7862 1345 36.6742
30.9037 1324 36.3868
31.0212 1400 37.4166
31.1387 1377 37.108
31.2562 1292 35.9444
31.3737 1363 36.9188
31.4912 1336 36.5513
31.6087 1253 35.3977
31.7262 1211 34.7994
31.8436 1174 34.2637
31.9611 1108 33.2866
32.0785 1165 34.1321
32.1959 1195 34.5688
32.3134 1269 35.623
32.4308 1268 35.609
32.5482 1348 36.7151
32.6655 1323 36.3731
32.7829 1356 36.8239
32.9002 1455 38.1445
33.0176 1353 36.7831
33.1349 1328 36.4417
33.2522 1393 37.3229
33.3694 1323 36.3731
33.4867 1251 35.3695
33.6039 1093 33.0606
33.7211 1143 33.8083
33.8383 1127 33.5708
33.9554 1123 33.5112
34.0725 1177 34.3074
34.1896 1244 35.2704
34.3067 1224 34.9857
34.4237 1291 35.9305
34.5407 1270 35.6371
34.6577 1314 36.2491
34.7746 1314 36.2491
34.8915 1335 36.5377
35.0084 1284 35.8329
35.1252 1247 35.3129
35.242 1188 34.4674
35.3587 1215 34.8569
35.4755 1166 34.1467
35.5921 1163 34.1028
35.7088 1086 32.9545
35.8254 1153 33.9559
35.9419 1185 34.4238
36.0584 1235 35.1426
36.1749 1172 34.2345
36.2913 1201 34.6554
36.4077 1195 34.5688
36.524 1141 33.7787
36.6403 1175 34.2783
36.7565 1087 32.9697
36.8727 1051 32.4191
36.9889 948 30.7896
37.1049 846 29.0861
37.221 0 1
37.3369 0 1
37.4529 0 1
37.5687 0 1
37.6845 0 1
37.8003 0 1
37.916 0 1
38.0316 0 1
38.1472 0 1
40.5851 0 1
40.7008 0 1
40.8164 0 1
40.9322 0 1
41.048 0 1
41.1639 0 1
41.2798 0 1
41.3958 0 1
41.5118 0 1
41.6279 0 1
41.744 647 25.4362
41.8602 628 25.0599
41.9765 765 27.6586
42.0928 793 28.1603
42.2091 788 28.0713
42.3255 772 27.7849
42.4419 807 28.4077
42.5584 791 28.1247
42.675 877 29.6142
42.7915 949 30.8058
42.9081 974 31.209
43.0248 1009 31.7648
43.1415 1083 32.909
43.2582 1064 32.619
43.375 1058 32.5269
43.4918 1065 32.6343
43.6087 1107 33.2716
43.7256 1050 32.4037
43.8425 1056 32.4962
43.9595 1086 32.9545
44.0765 1026 32.0312
44.1935 962 31.0161
44.3106 1041 32.2645
44.4277 961 31
44.5448 877 29.6142
44.6619 913 30.2159
44.7791 985 31.3847
44.8963 1047 32.3574
45.0136 1085 32.9393
45.1308 1124 33.5261
45.2481 1067 32.665
45.3654 1102 33.1964
45.4827 1093 33.0606
45.6001 1097 33.121
45.7174 1046 32.3419
45.8348 964 31.0483
45.9522 966 31.0805
46.0697 894 29.8998
46.1871 912 30.1993
46.3046 931 30.5123
46.422 929 30.4795
46.5395 979 31.289
46.657 1012 31.8119
46.7745 1062 32.5883
46.892 1178 34.322
47.0096 1108 33.2866
47.1271 1140 33.7639
47.2446 1129 33.6006
47.3622 1113 33.3617
47.4797 1171 34.2199
47.5973 1055 32.4808
47.7149 1040 32.249
47.8324 1021 31.9531
47.95 998 31.5911
48.0675 972 31.1769
48.1851 933 30.545
48.3027 992 31.496
48.4202 1014 31.8434
48.5378 1108 33.2866
48.6554 1173 34.2491
48.7729 1174 34.2637
48.8904 1151 33.9264
49.008 1135 33.6898
49.1255 1118 33.4365
49.243 1088 32.9848
49.3605 969 31.1288
49.478 980 31.305
49.5955 915 30.249
49.713 854 29.2233
49.8304 871 29.5127
49.9479 940 30.6594
50.0653 1041 32.2645
50.1827 1082 32.8938
50.3001 1089 33
50.4175 1123 33.5112
50.5348 1099 33.1512
50.6521 1177 34.3074
50.7694 1175 34.2783
50.8867 1142 33.7935
51.004 1117 33.4215
51.1212 1151 33.9264
51.2384 1125 33.541
51.3556 1146 33.8526
51.4727 1105 33.2415
51.5899 1074 32.7719
51.707 1085 32.9393
51.824 1101 33.1813
51.9411 1188 34.4674
52.0581 1307 36.1525
52.175 1443 37.9868
52.2919 1377 37.108
52.4088 1400 37.4166
52.5257 1532 39.1408
52.6425 1502 38.7556
52.7593 1417 37.6431
52.876 1384 37.2022
52.9927 1332 36.4966
53.1094 1300 36.0555
53.226 1231 35.0856
53.3426 1125 33.541
53.4591 1075 32.7872
53.5756 1108 33.2866
53.692 1165 34.1321
53.8084 1096 33.1059
53.9248 1085 32.9393
54.0411 1040 32.249
54.1573 995 31.5436
54.2735 0 1
54.3896 0 1
54.5057 0 1
54.6217 0 1
54.7377 0 1
54.8537 0 1
54.9695 0 1
55.0853 0 1
55.2011 0 1
55.3168 0 1
55.4324 0 1
57.824 0 1
57.9396 0 1
58.0553 0 1
58.1711 0 1
58.2869 0 1
58.4028 0 1
58.5187 0 1
58.6347 0 1
58.7508 0 1
58.8669 0 1
58.983 815 28.5482
59.0992 970 31.1448
59.2155 1036 32.187
59.3318 1137 33.7194
59.4482 1132 33.6452
59.5646 1251 35.3695
59.681 1313 36.2353
59.7975 1265 35.5668
59.9141 1322 36.3593
60.0306 1262 35.5246
60.1473 1243 35.2562
60.2639 1140 33.7639
60.3807 1229 35.0571
60.4974 1185 34.4238
60.6142 1224 34.9857
60.731 1271 35.6511
60.8479 1440 37.9473
60.9648 1438 37.921
61.0818 1341 36.6197
61.1987 1378 37.1214
61.3158 1423 37.7227
61.4328 1298 36.0278
61.5499 1227 35.0286
61.667 1174 34.2637
61.7841 1073 32.7567
61.9013 1101 33.1813
62.0185 1073 32.7567
62.1357 1151 33.9264
62.253 1153 33.9559
62.3702 1277 35.7351
62.4875 1310 36.1939
62.6049 1345 36.6742
62.7222 1412 37.5766
62.8396 1382 37.1753
62.9569 1452 38.1051
63.0743 1357 36.8375
63.1918 1319 36.318
63.3092 1363 36.9188
63.4267 1262 35.5246
63.5441 1279 35.7631
63.6616 1311 36.2077
63.7791 1149 33.8969
63.8966 1115 33.3916
64.0142 1262 35.5246
64.1317 1176 34.2929
64.2492 1256 35.4401
64.3668 1349 36.7287
64.4843 1320 36.3318
64.6019 1394 37.3363
64.7195 1381 37.1618
64.837 1367 36.973
64.9546 1428 37.7889
65.0722 1367 36.973
65.1898 1216 34.8712
65.3074 1103 33.2114
65.4249 1077 32.8177
65.5425 1000 31.6228
65.6601 1035 32.1714
65.7777 1177 34.3074
65.8952 1137 33.7194
66.0128 1269 35.623
66.1304 1217 34.8855
66.2479 1311 36.2077
66.3655 1339 36.5923
66.483 1352 36.7696
66.6005 1335 36.5377
66.718 1322 36.3593
66.8355 1329 36.4555
66.953 1352 36.7696
67.0705 1300 36.0555
67.1879 1210 34.7851
67.3054 1235 35.1426
67.4228 1031 32.1092
67.5402 1050 32.4037
67.6576 1093 33.0606
67.7749 1146 33.8526
67.8923 1287 35.8748
68.0096 1279 35.7631
68.1269 1275 35.7071
68.2442 1369 37
68.3614 1351 36.756
68.4787 1333 36.5103
68.5958 1296 36
68.713 1260 35.4965
68.8302 1209 34.7707
68.9473 1032 32.1248
69.0643 949 30.8058
69.1814 999 31.607
69.2984 1005 31.7017
69.4154 1070 32.7109
69.5323 1103 33.2114
69.6492 1224 34.9857
69.7661 1236 35.1568
69.8829 1265 35.5668
69.9997 1162 34.0881
70.1165 1149 33.8969
70.2332 1141 33.7787
70.3499 1116 33.4066
70.4665 1051 32.4191
70.5831 1043 32.2955
70.6996 974 31.209
70.8161 900 30
70.9326 864 29.3939
71.049 705 26.5518
71.1653 626 25.02
71.2817 549 23.4307
71.3979 490 22.1359
71.5141 487 22.0681
71.6303 482 21.9545
71.7464 439 20.9523
71.8624 0 1
71.9784 0 1
72.0944 0 1
72.2102 0 1
72.3261 0 1
72.4418 0 1
72.5575 0 1
72.6732 0 1
75.1054 0 1
75.2209 0 1
75.3365 0 1
75.4521 0 1
75.5678 0 1
75.6835 0 1
75.7993 0 1
75.9151 0 1
76.031 0 1
76.147 774 27.8209
76.263 887 29.7825
76.3791 840 28.9828
76.4952 809 28.4429
76.6113 927 30.4467
76.7276 943 30.7083
76.8438 1001 31.6386
76.9601 1114 33.3766
77.0765 1126 33.5559
77.1929 1141 33.7787
77.3093 1125 33.541
77.4258 1138 33.7343
77.5423 1088 32.9848
77.6589 1060 32.5576
77.7755 1027 32.0468
77.8921 939 30.6431
78.0088 880 29.6648
78.1256 836 28.9137
78.2423 798 28.2489
78.3591 867 29.4449
78.4759 915 30.249
78.5928 994 31.5278
78.7097 1045 32.3265
78.8266 1063 32.6037
78.9436 1136 33.7046
79.0606 1105 33.2415
79.1776 1183 34.3948
79.2946 1145 33.8378
79.4117 1213 34.8281
79.5288 1141 33.7787
79.6459 1159 34.0441
79.7631 1081 32.8786
79.8802 1071 32.7261
79.9974 1001 31.6386
80.1147 969 31.1288
80.2319 959 30.9677
80.3491 997 31.5753
80.4664 1060 32.5576
80.5837 1074 32.7719
80.701 1114 33.3766
80.8183 1225 35
80.9357 1192 34.5254
81.053 1234 35.1283
81.1704 1199 34.6266
81.2877 1167 34.1614
81.4051 1078 32.8329
81.5225 990 31.4643
81.6399 964 31.0483
81.7573 842 29.0172
81.8747 830 28.8097
81.9922 871 29.5127
82.1096 937 30.6105
82.227 1060 32.5576
82.3444 1152 33.9411
82.4619 1074 32.7719
82.5793 1164 34.1174
82.6967 1205 34.7131
82.8142 1266 35.5809
82.9316 1188 34.4674
83.049 1243 35.2562
83.1664 1128 33.5857
83.2838 1217 34.8855
83.4012 1132 33.6452
83.5186 1209 34.7707
83.636 1072 32.7414
83.7534 996 31.5595
83.8708 926 30.4302
83.9881 928 30.4631
84.1055 1057 32.5115
84.2228 1052 32.4345
84.3401 1169 34.1906
84.4575 1158 34.0294
84.5747 1253 35.3977
84.692 1237 35.171
84.8093 1227 35.0286
84.9265 1175 34.2783
85.0437 1181 34.3657
85.1609 1024 32
85.2781 910 30.1662
85.3952 913 30.2159
85.5123 830 28.8097
85.6294 894 29.8998
85.7465 974 31.209
85.8636 1070 32.7109
85.9806 1068 32.6803
86.0976 1167 34.1614
86.2145 1222 34.9571
86.3315 1174 34.2637
86.4484 1230 35.0714
86.5652 1293 35.9583
86.682 1214 34.8425
86.7988 1243 35.2562
86.9156 1239 35.1994
87.0323 1147 33.8674
87.149 1095 33.0908
87.2657 1079 32.8481
87.3823 907 30.1164
87.4988 892 29.8664
87.6154 881 29.6816
87.7318 781 27.9464
87.8483 918 30.2985
87.9647 987 31.4166
88.081 918 30.2985
88.1973 899 29.9833
88.3136 924 30.3974
88.4298 876 29.5973
88.546 816 28.5657
88.6621 685 26.1725
88.7781 567 23.8118
88.8942 0 1
89.0101 0 1
89.126 0 1
89.2419 0 1
89.3577 0 1
89.4734 0 1
89.5891 0 1
89.7047 0 1
89.8203 0 1
89.9358 0 1
92.3269 0 1
92.4424 0 1
92.558 0 1
92.6736 0 1
92.7893 0 1
92.905 0 1
93.0208 0 1
93.1366 0 1
93.2525 0 1
93.3685 0 1
93.4845 0 1
93.6005 926 30.4302
93.7167 981 31.3209
93.8328 1027 32.0468
93.949 1052 32.4345
94.0653 1084 32.9242
94.1816 1068 32.6803
94.2979 1024 32
94.4143 923 30.3809
94.5307 881 29.6816
94.6472 859 29.3087
94.7637 897 29.95
94.8803 1046 32.3419
94.9969 1115 33.3916
95.1135 1064 32.619
95.2302 1191 34.5109
95.3469 1185 34.4238
95.4637 1251 35.3695
95.5805 1249 35.3412
95.6973 1252 35.3836
95.8142 1273 35.6791
95.9311 1294 35.9722
96.048 1216 34.8712
96.1649 1259 35.4824
96.2819 1204 34.6987
96.3989 1101 33.1813
96.516 1051 32.4191
96.633 1075 32.7872
96.7501 969 31.1288
96.8673 1027 32.0468
96.9844 1072 32.7414
97.1016 1169 34.1906
97.2188 1185 34.4238
97.336 1273 35.6791
97.4532 1277 35.7351
97.5704 1256 35.4401
97.6877 1257 35.4542
97.805 1239 35.1994
97.9223 1149 33.8969
98.0396 1051 32.4191
98.1569 950 30.8221
98.2743 900 30
98.3916 897 29.95
98.509 946 30.7571
98.6264 1110 33.3167
98.7438 1133 33.6601
98.8612 1188 34.4674
98.9786 1231 35.0856
99.096 1256 35.4401
99.2134 1332 36.4966
99.3308 1301 36.0694
99.4482 1340 36.606
99.5656 1271 35.6511
99.6831 1358 36.8511
99.8005 1284 35.8329
99.9179 1237 35.171
100.035 1227 35.0286
100.153 1253 35.3977
100.27 1067 32.665
100.388 1057 32.5115
100.505 1214 34.8425
100.622 1244 35.2704
100.74 1300 36.0555
100.857 1360 36.8782
100.975 1349 36.7287
101.092 1293 35.9583
101.209 1330 36.4692
101.327 1285 35.8469
101.444 1260 35.4965
101.561 1205 34.7131
101.679 1042 32.28
101.796 964 31.0483
101.913 957 30.9354
102.03 933 30.545
102.148 1086 32.9545
102.265 1148 33.8821
102.382 1256 35.4401
102.499 1286 35.8608
102.616 1351 36.756
102.733 1322 36.3593
102.851 1343 36.647
102.968 1293 35.9583
103.085 1405 37.4833
103.202 1357 36.8375
103.319 1404 37.47
103.436 1316 36.2767
103.552 1360 36.8782
103.669 1182 34.3802
103.786 1133 33.6601
103.903 1107 33.2716
104.02 1132 33.6452
104.137 1279 35.7631
104.253 1311 36.2077
104.37 1379 37.1349
104.487 1418 37.6563
104.603 1417 37.6431
104.72 1451 38.092
104.836 1324 36.3868
104.953 1233 35.1141
105.069 1029 32.078
105.186 993 31.5119
105.302 887 29.7825
105.418 820 28.6356
105.535 840 28.9828
105.651 912 30.1993
105.767 867 29.4449
105.883 888 29.7993
105.999 822 28.6705
106.115 0 1
106.231 0 1
106.347 0 1
106.463 0 1
106.579 0 1
106.694 0 1
106.81 0 1
106.926 0 1
107.041 0 1
107.157 0 1
109.576 0 1
109.692 0 1
109.807 0 1
109.923 0 1
110.039 0 1
110.155 0 1
110.27 0 1
110.386 0 1
110.502 0 1
110.618 600 24.4949
110.735 762 27.6043
110.851 907 30.1164
110.967 976 31.241
111.083 1073 32.7567
111.199 1154 33.9706
111.316 1164 34.1174
111.432 1219 34.9142
111.549 1239 35.1994
111.665 1316 36.2767
111.782 1286 35.8608
111.898 1290 35.9166
112.015 1252 35.3836
112.132 1184 34.4093
112.248 1112 33.3467
112.365 1072 32.7414
112.482 1085 32.9393
112.599 1150 33.9116
112.716 1211 34.7994
112.832 1240 35.2136
112.949 1258 35.4683
113.066 1325 36.4005
113.183 1336 36.5513
113.3 1301 36.0694
113.417 1266 35.5809
113.534 1230 35.0714
113.652 1112 33.3467
113.769 986 31.4006
113.886 962 31.0161
114.003 908 30.133
114.12 1024 32
114.238 1114 33.3766
114.355 1196 34.5832
114.472 1128 33.5857
114.589 1347 36.7015
114.707 1292 35.9444
114.824 1349 36.7287
114.942 1300 36.0555
115.059 1357 36.8375
115.176 1346 36.6879
115.294 1368 36.9865
115.411 1331 36.4829
115.529 1288 35.8887
115.646 1249 35.3412
115.764 1258 35.4683
115.881 1161 34.0735
115.999 1056 32.4962
116.116 1125 33.541
116.234 1274 35.6931
116.351 1270 35.6371
116.469 1289 35.9026
116.586 1327 36.428
116.704 1368 36.9865
116.821 1296 36
116.939 1348 36.7151
117.056 1309 36.1801
117.174 1155 33.9853
117.291 1080 32.8634
117.409 929 30.4795
117.526 875 29.5804
117.644 950 30.8221
117.761 1006 31.7175
117.879 1137 33.7194
117.996 1101 33.1813
118.114 1182 34.3802
118.231 1236 35.1568
118.349 1243 35.2562
118.466 1262 35.5246
118.584 1259 35.4824
118.701 1322 36.3593
118.819 1262 35.5246
118.936 1220 34.9285
119.053 1161 34.0735
119.171 1150 33.9116
119.288 1102 33.1964
119.405 1085 32.9393
119.523 1041 32.2645
119.64 994 31.5278
119.757 1088 32.9848
119.875 1059 32.5423
119.992 1171 34.2199
120.109 1156 34
120.226 1206 34.7275
120.343 1170 34.2053
120.46 1188 34.4674
120.578 1215 34.8569
120.695 1245 35.2846
120.812 1153 33.9559
120.929 945 30.7409
121.046 882 29.6985
121.163 894 29.8998
121.279 821 28.6531
121.396 880 29.6648
121.513 901 30.0167
121.63 887 29.7825
121.747 957 30.9354
121.863 969 31.1288
121.98 941 30.6757
122.097 941 30.6757
122.213 915 30.249
122.33 864 29.3939
122.446 905 30.0832
122.563 838 28.9482
122.679 820 28.6356
122.795 718 26.7955
122.912 639 25.2784
123.028 593 24.3516
123.144 533 23.0868
123.26 459 21.4243
123.377 0 1
123.493 0 1
123.609 0 1
123.725 0 1
123.84 0 1
123.956 0 1
124.072 0 1
124.188 0 1
124.303 0 1
124.419 0 1
126.852 0 1
126.968 0 1
127.083 0 1
127.199 0 1
127.315 0 1
127.431 0 1
127.547 0 1
127.663 0 1
127.779 0 1
127.895 0 1
128.011 0 1
128.127 0 1
128.243 0 1
128.359 1080 32.8634
128.476 1109 33.3017
128.592 1185 34.4238
128.708 1164 34.1174
128.825 1181 34.3657
128.941 1156 34
129.058 1315 36.2629
129.174 1388 37.2559
129.291 1430 37.8153
129.408 1413 37.5899
129.524 1361 36.8917
129.641 1387 37.2424
129.758 1282 35.805
129.875 1180 34.3511
129.992 1155 33.9853
130.108 1006 31.7175
130.225 981 31.3209
130.342 1009 31.7648
130.459 1039 32.2335
130.576 1133 33.6601
130.693 1159 34.0441
130.81 1269 35.623
130.928 1250 35.3553
131.045 1315 36.2629
131.162 1316 36.2767
131.279 1369 37
131.396 1306 36.1386
131.513 1383 37.1887
131.631 1317 36.2905
131.748 1297 36.0139
131.865 1348 36.7151
131.983 1222 34.9571
132.1 1216 34.8712
132.217 1188 34.4674
132.335 1199 34.6266
132.452 1210 34.7851
132.57 1324 36.3868
132.687 1358 36.8511
132.804 1325 36.4005
132.922 1369 37
133.039 1411 37.5633
133.157 1359 36.8646
133.274 1383 37.1887
133.392 1341 36.6197
133.509 1182 34.3802
133.627 1077 32.8177
133.744 1061 32.573
133.862 960 30.9839
133.979 1060 32.5576
134.097 1081 32.8786
134.214 1202 34.6699
134.332 1266 35.5809
134.449 1222 34.9571
134.567 1276 35.7211
134.684 1318 36.3043
134.802 1316 36.2767
134.919 1371 37.027
135.037 1383 37.1887
135.154 1344 36.6606
135.272 1327 36.428
135.389 1297 36.0139
135.507 1236 35.1568
135.624 1233 35.1141
135.742 1191 34.5109
135.859 1204 34.6987
135.977 1186 34.4384
136.094 1257 35.4542
136.211 1282 35.805
136.329 1334 36.524
136.446 1296 36
136.564 1385 37.2156
136.681 1371 37.027
136.798 1292 35.9444
136.915 1283 35.819
137.033 1275 35.7071
137.15 1123 33.5112
137.267 1111 33.3317
137.384 1069 32.6956
137.502 1030 32.0936
137.619 983 31.3528
137.736 1132 33.6452
137.853 1168 34.176
137.97 1253 35.3977
138.087 1214 34.8425
138.204 1250 35.3553
138.321 1332 36.4966
138.438 1323 36.3731
138.555 1382 37.1753
138.672 1238 35.1852
138.788 1236 35.1568
138.905 1193 34.5398
139.022 1156 34
139.139 1054 32.4654
139.255 970 31.1448
139.372 923 30.3809
139.488 906 30.0998
139.605 853 29.2062
139.721 869 29.4788
139.838 865 29.4109
139.954 865 29.4109
140.071 823 28.688
140.187 778 27.8927
140.303 724 26.9072
140.419 696 26.3818
140.535 629 25.0799
140.652 577 24.0208
140.768 0 1
140.884 0 1
141 0 1
141.115 0 1
141.231 0 1
141.347 0 1
141.463 0 1
141.578 0 1
141.694 0 1
144.104 0 1
144.219 0 1
144.335 0 1
144.45 0 1
144.566 0 1
144.682 0 1
144.798 0 1
144.914 0 1
145.03 0 1
145.146 933 30.545
145.262 1042 32.28
145.378 1081 32.8786
145.494 1088 32.9848
145.61 1067 32.665
145.726 991 31.4802
145.842 999 31.607
145.959 894 29.8998
146.075 895 29.9166
146.192 863 29.3769
146.308 870 29.4958
146.425 858 29.2916
146.541 882 29.6985
146.658 960 30.9839
146.774 943 30.7083
146.891 1026 32.0312
147.008 1012 31.8119
147.125 964 31.0483
147.241 1038 32.218
147.358 1046 32.3419
147.475 1082 32.8938
147.592 1059 32.5423
147.709 1014 31.8434
147.826 1030 32.0936
147.943 1004 31.686
148.06 944 30.7246
148.177 925 30.4138
148.294 975 31.225
148.411 867 29.4449
148.528 1034 32.1559
148.645 953 30.8707
148.762 1068 32.6803
148.88 1009 31.7648
148.997 1114 33.3766
149.114 1075 32.7872
149.231 1081 32.8786
149.349 1017 31.8904
149.466 1004 31.686
149.583 994 31.5278
149.701 917 30.282
149.818 896 29.9333
149.935 823 28.688
150.053 824 28.7054
150.17 930 30.4959
150.287 927 30.4467
150.405 938 30.6268
150.522 1002 31.6544
150.64 949 30.8058
150.757 988 31.4325
150.875 978 31.273
150.992 981 31.3209
151.11 1080 32.8634
151.227 966 31.0805
151.344 977 31.257
151.462 960 30.9839
151.579 958 30.9516
151.697 925 30.4138
151.814 843 29.0345
151.932 903 30.05
152.049 988 31.4325
152.167 923 30.3809
152.284 944 30.7246
152.402 1024 32
152.519 981 31.3209
152.636 1005 31.7017
152.754 1072 32.7414
152.871 981 31.3209
152.989 944 30.7246
153.106 887 29.7825
153.223 910 30.1662
153.341 846 29.0861
153.458 799 28.2666
153.575 775 27.8388
153.693 786 28.0357
153.81 820 28.6356
153.927 825 28.7228
154.044 843 29.0345
154.162 854 29.2233
154.279 885 29.7489
154.396 913 30.2159
154.513 935 30.5778
154.63 921 30.348
154.747 956 30.9192
154.864 916 30.2655
154.981 957 30.9354
155.098 904 30.0666
155.215 855 29.2404
155.332 812 28.4956
155.449 878 29.6311
155.566 818 28.6007
155.683 825 28.7228
155.8 884 29.7321
155.917 821 28.6531
156.033 900 30
156.15 0 1
156.267 0 1
156.383 0 1
156.5 0 1
156.617 0 1
156.733 0 1
156.85 0 1
156.966 0 1
157.082 0 1
157.199 0 1
157.315 0 1
157.431 0 1
157.547 0 1
157.664 0 1
157.78 0 1
157.896 0 1
158.012 0 1
158.128 0 1
158.244 0 1
158.359 0 1
158.475 0 1
158.591 0 1
158.706 0 1
