
6.15755 0 1
6.2731 0 1
6.3887 0 1
6.50437 0 1
6.62009 0 1
6.73587 0 1
6.8517 0 1
6.96759 0 1
7.08353 0 1
7.19952 0 1
7.31557 0 1
7.43166 0 1
7.54781 0 1
7.664 0 1
7.78024 0 1
7.89653 0 1
8.01286 0 1
8.12924 0 1
8.24567 0 1
8.36213 0 1
8.47864 0 1
8.59519 0 1
8.71178 0 1
8.82841 0 1
8.94508 0 1
9.06179 0 1
9.17853 0 1
9.29531 0 1
9.41212 0 1
9.52897 0 1
9.64584 0 1
9.76276 0 1
9.8797 0 1
9.99667 0 1
10.1137 0 1
10.2307 0 1
10.3478 0 1
10.4648 0 1
10.5819 0 1
10.6991 0 1
10.8162 0 1
10.9334 0 1
11.0506 0 1
11.1678 0 1
11.285 0 1
11.4023 0 1
11.5196 0 1
11.6369 0 1
11.7542 0 1
11.8715 0 1
11.9888 0 1
12.1062 0 1
12.2235 0 1
12.3409 0 1
12.4582 0 1
12.5756 0 1
12.693 0 1
12.8104 0 1
12.9278 0 1
13.0452 0 1
13.1626 0 1
13.28 0 1
13.3974 0 1
13.5149 0 1
13.6323 0 1
13.7497 0 1
13.8671 0 1
13.9845 0 1
14.1019 0 1
14.2193 0 1
14.3367 0 1
14.4541 0 1
14.5714 0 1
14.6888 0 1
14.8062 0 1
14.9235 0 1
15.0408 0 0
15.1581 0 0
15.2755 0 0
15.3927 0 0
15.51 0 0
15.6273 0 0
15.7445 0 0
15.8617 0 0
15.9789 0 0
16.0961 0 0
16.2132 0 0
16.3304 0 0
16.4475 0 0
16.5646 0 0
16.6816 0 0
16.7986 0 0
16.9156 0 0
17.0326 0 0
17.1496 0 0
17.2665 0 0
17.3833 0 0
17.5002 0 0
17.617 0 0
17.7338 0 0
17.8505 0 0
17.9672 0 0
18.0839 0 0
18.2005 0 0
18.3171 0 0
18.4337 0 0
18.5502 0 0
18.6666 0 0
18.7831 0 0
18.8994 0 0
19.0158 0 0
19.1321 0 0
19.2483 0 0
19.3645 0 0
19.4806 0 0
19.5967 0 0
19.7128 0 0
19.8288 0 0
19.9447 0 0
20.0606 0 1
20.1764 0 1
20.2922 0 1
20.4079 0 1
20.5236 0 1
20.6392 0 1
20.7548 0 1
20.8702 0 1
23.3078 0 1
23.4233 0 1
23.539 0 1
23.6547 0 1
23.7704 0 1
23.8862 0 1
24.0021 0 1
24.118 0 1
24.234 0 1
24.35 0 1
24.4661 1620 40.2492
24.5822 1686 41.0609
24.6984 1650 40.6202
24.8146 1623 40.2865
24.9309 1603 40.0375
25.0472 1634 40.4228
25.1636 1567 39.5854
25.28 1728 41.5692
25.3965 1723 41.509
25.513 1710 41.3521
25.6296 1894 43.5201
25.7462 1904 43.6348
25.8628 2012 44.8553
25.9795 1949 44.1475
26.0962 2014 44.8776
26.213 2005 44.7772
26.3298 1907 43.6692
26.4466 2007 44.7996
26.5635 1999 44.7102
26.6804 1945 44.1022
26.7973 1977 44.4635
26.9143 1895 43.5316
27.0313 1940 44.0454
27.1483 2033 45.0888
27.2653 2003 44.7549
27.3824 2086 45.6727
27.4996 2018 44.9222
27.6167 1953 44.1928
27.7339 1962 44.2945
27.8511 1873 43.2782
27.9683 1857 43.0929
28.0855 1762 41.9762
28.2028 1754 41.8808
28.3201 1746 41.7852
28.4374 1611 40.1373
28.5547 1609 40.1123
28.6721 1604 40.05
28.7894 1562 39.5221
28.9068 1650 40.6202
29.0242 1679 40.9756
29.1416 1801 42.4382
29.259 1768 42.0476
29.3764 1912 43.7264
29.4939 1935 43.9886
29.6113 1971 44.3959
29.7288 2063 45.4203
29.8463 1917 43.7836
29.9638 2011 44.8442
30.0812 2076 45.5631
30.1987 2016 44.8999
30.3162 2029 45.0444
30.4337 1985 44.5533
30.5512 1893 43.5086
30.6687 2040 45.1664
30.7862 1936 44
30.9037 2047 45.2438
31.0212 2032 45.0777
31.1387 2008 44.8107
31.2562 2010 44.833
31.3737 1952 44.1814
31.4912 1906 43.6578
31.6087 1879 43.3474
31.7262 1857 43.0929
31.8436 1757 41.9166
31.9611 1753 41.8688
32.0785 1659 40.7308
32.1959 1624 40.2989
32.3134 1673 40.9023
32.4308 1684 41.0366
32.5482 1799 42.4146
32.6655 1801 42.4382
32.7829 1852 43.0349
32.9002 1946 44.1135
33.0176 2040 45.1664
33.1349 2066 45.4533
33.2522 2065 45.4423
33.3694 2064 45.4313
33.4867 2080 45.607
33.6039 2086 45.6727
33.7211 2014 44.8776
33.8383 1980 44.4972
33.9554 1991 44.6206
34.0725 1884 43.4051
34.1896 2009 44.8219
34.3067 1918 43.795
34.4237 2016 44.8999
34.5407 1949 44.1475
34.6577 2174 46.6262
34.7746 2010 44.833
34.8915 1999 44.7102
35.0084 2090 45.7165
35.1252 1979 44.486
35.242 1949 44.1475
35.3587 1882 43.382
35.4755 1827 42.7434
35.5921 1804 42.4735
35.7088 1804 42.4735
35.8254 1680 40.9878
35.9419 1559 39.4842
36.0584 1631 40.3856
36.1749 1675 40.9268
36.2913 1684 41.0366
36.4077 1839 42.8836
36.524 1874 43.2897
36.6403 1982 44.5197
36.7565 2039 45.1553
36.8727 1992 44.6318
36.9889 2056 45.3431
37.1049 1992 44.6318
37.221 0 1
37.3369 0 1
37.4529 0 1
37.5687 0 1
37.6845 0 1
37.8003 0 1
37.916 0 1
38.0316 0 1
38.1472 0 1
40.5851 0 1
40.7008 0 1
40.8164 0 1
40.9322 0 1
41.048 0 1
41.1639 0 1
41.2798 0 1
41.3958 0 1
41.5118 0 1
41.6279 0 1
41.744 1637 40.4599
41.8602 1771 42.0833
41.9765 1805 42.4853
42.0928 1912 43.7264
42.2091 1958 44.2493
42.3255 1977 44.4635
42.4419 1840 42.8952
42.5584 1973 44.4185
42.675 1772 42.0951
42.7915 1780 42.19
42.9081 1789 42.2966
43.0248 1801 42.4382
43.1415 1810 42.5441
43.2582 1798 42.4028
43.375 1831 42.7902
43.4918 1882 43.382
43.6087 1844 42.9418
43.7256 1752 41.8569
43.8425 1734 41.6413
43.9595 1738 41.6893
44.0765 1738 41.6893
44.1935 1679 40.9756
44.3106 1680 40.9878
44.4277 1543 39.281
44.5448 1518 38.9615
44.6619 1432 37.8418
44.7791 1380 37.1484
44.8963 1362 36.9053
45.0136 1272 35.6651
45.1308 1373 37.054
45.2481 1410 37.55
45.3654 1498 38.704
45.4827 1584 39.7995
45.6001 1502 38.7556
45.7174 1564 39.5474
45.8348 1557 39.4588
45.9522 1568 39.598
46.0697 1548 39.3446
46.1871 1462 38.2361
46.3046 1387 37.2424
46.422 1311 36.2077
46.5395 1358 36.8511
46.657 1422 37.7094
46.7745 1381 37.1618
46.892 1397 37.3765
47.0096 1525 39.0512
47.1271 1476 38.4187
47.2446 1447 38.0395
47.3622 1429 37.8021
47.4797 1385 37.2156
47.5973 1291 35.9305
47.7149 1287 35.8748
47.8324 1269 35.623
47.95 1196 34.5832
48.0675 1147 33.8674
48.1851 1163 34.1028
48.3027 1008 31.749
48.4202 1069 32.6956
48.5378 1053 32.45
48.6554 1072 32.7414
48.7729 1176 34.2929
48.8904 1231 35.0856
49.008 1291 35.9305
49.1255 1321 36.3456
49.243 1295 35.9861
49.3605 1300 36.0555
49.478 1298 36.0278
49.5955 1329 36.4555
49.713 1218 34.8999
49.8304 1184 34.4093
49.9479 1110 33.3167
50.0653 1215 34.8569
50.1827 1237 35.171
50.3001 1329 36.4555
50.4175 1313 36.2353
50.5348 1306 36.1386
50.6521 1405 37.4833
50.7694 1468 38.3145
50.8867 1433 37.855
51.004 1415 37.6165
51.1212 1396 37.3631
51.2384 1505 38.7943
51.3556 1497 38.6911
51.4727 1422 37.7094
51.5899 1436 37.8946
51.707 1336 36.5513
51.824 1292 35.9444
51.9411 1285 35.8469
52.0581 1274 35.6931
52.175 1411 37.5633
52.2919 1453 38.1182
52.4088 1545 39.3065
52.5257 1572 39.6485
52.6425 1651 40.6325
52.7593 1698 41.2068
52.876 1686 41.0609
52.9927 1680 40.9878
53.1094 1694 41.1582
53.226 1682 41.0122
53.3426 1582 39.7744
53.4591 1587 39.8372
53.5756 1545 39.3065
53.692 1602 40.025
53.8084 1606 40.0749
53.9248 1717 41.4367
54.0411 1725 41.5331
54.1573 1761 41.9643
54.2735 0 1
54.3896 0 1
54.5057 0 1
54.6217 0 1
54.7377 0 1
54.8537 0 1
54.9695 0 1
55.0853 0 1
55.2011 0 1
55.3168 0 1
55.4324 0 1
57.824 0 1
57.9396 0 1
58.0553 0 1
58.1711 0 1
58.2869 0 1
58.4028 0 1
58.5187 0 1
58.6347 0 1
58.7508 0 1
58.8669 0 1
58.983 1750 41.833
59.0992 1954 44.2041
59.2155 1973 44.4185
59.3318 1977 44.4635
59.4482 2068 45.4753
59.5646 2089 45.7056
59.681 2256 47.4974
59.7975 2061 45.3982
59.9141 2050 45.2769
60.0306 1964 44.317
60.1473 1857 43.0929
60.2639 1745 41.7732
60.3807 1703 41.2674
60.4974 1569 39.6106
60.6142 1634 40.4228
60.731 1560 39.4968
60.8479 1535 39.1791
60.9648 1596 39.95
61.0818 1737 41.6773
61.1987 1759 41.9404
61.3158 1827 42.7434
61.4328 1851 43.0232
61.5499 1898 43.566
61.667 1912 43.7264
61.7841 1904 43.6348
61.9013 1771 42.0833
62.0185 1683 41.0244
62.1357 1637 40.4599
62.253 1722 41.497
62.3702 1653 40.6571
62.4875 1817 42.6263
62.6049 1795 42.3674
62.7222 1977 44.4635
62.8396 1911 43.715
62.9569 1926 43.8862
63.0743 1961 44.2832
63.1918 1975 44.441
63.3092 1920 43.8178
63.4267 1862 43.1509
63.5441 1812 42.5676
63.6616 1756 41.9047
63.7791 1646 40.5709
63.8966 1565 39.5601
64.0142 1491 38.6135
64.1317 1394 37.3363
64.2492 1381 37.1618
64.3668 1469 38.3275
64.4843 1529 39.1024
64.6019 1589 39.8623
64.7195 1714 41.4005
64.837 1709 41.3401
64.9546 1737 41.6773
65.0722 1765 42.0119
65.1898 1623 40.2865
65.3074 1766 42.0238
65.4249 1630 40.3733
65.5425 1551 39.3827
65.6601 1589 39.8623
65.7777 1499 38.7169
65.8952 1560 39.4968
66.0128 1659 40.7308
66.1304 1663 40.7799
66.2479 1827 42.7434
66.3655 1764 42
66.483 1890 43.4741
66.6005 1922 43.8406
66.718 1811 42.5558
66.8355 1755 41.8927
66.953 1784 42.2374
67.0705 1686 41.0609
67.1879 1741 41.7253
67.3054 1585 39.8121
67.4228 1571 39.6358
67.5402 1461 38.223
67.6576 1343 36.647
67.7749 1282 35.805
67.8923 1310 36.1939
68.0096 1375 37.081
68.1269 1408 37.5233
68.2442 1565 39.5601
68.3614 1655 40.6817
68.4787 1729 41.5812
68.5958 1679 40.9756
68.713 1781 42.2019
68.8302 1729 41.5812
68.9473 1630 40.3733
69.0643 1688 41.0853
69.1814 1558 39.4715
69.2984 1463 38.2492
69.4154 1483 38.5097
69.5323 1606 40.0749
69.6492 1583 39.7869
69.7661 1687 41.0731
69.8829 1816 42.6146
69.9997 1842 42.9185
70.1165 1875 43.3013
70.2332 1898 43.566
70.3499 1924 43.8634
70.4665 1920 43.8178
70.5831 1766 42.0238
70.6996 1832 42.8019
70.8161 1679 40.9756
70.9326 1670 40.8656
71.049 1618 40.2244
71.1653 1427 37.7757
71.2817 1349 36.7287
71.3979 1246 35.2987
71.5141 1211 34.7994
71.6303 1231 35.0856
71.7464 1206 34.7275
71.8624 0 1
71.9784 0 1
72.0944 0 1
72.2102 0 1
72.3261 0 1
72.4418 0 1
72.5575 0 1
72.6732 0 1
75.1054 0 1
75.2209 0 1
75.3365 0 1
75.4521 0 1
75.5678 0 1
75.6835 0 1
75.7993 0 1
75.9151 0 1
76.031 0 1
76.147 1590 39.8748
76.263 1636 40.4475
76.3791 1562 39.5221
76.4952 1441 37.9605
76.6113 1329 36.4555
76.7276 1249 35.3412
76.8438 1278 35.7491
76.9601 1264 35.5528
77.0765 1369 37
77.1929 1474 38.3927
77.3093 1542 39.2683
77.4258 1727 41.5572
77.5423 1760 41.9524
77.6589 1728 41.5692
77.7755 1653 40.6571
77.8921 1652 40.6448
78.0088 1565 39.5601
78.1256 1429 37.8021
78.2423 1355 36.8103
78.3591 1282 35.805
78.4759 1360 36.8782
78.5928 1406 37.4967
78.7097 1491 38.6135
78.8266 1676 40.939
78.9436 1699 41.2189
79.0606 1720 41.4729
79.1776 1794 42.3556
79.2946 1864 43.1741
79.4117 1804 42.4735
79.5288 1828 42.7551
79.6459 1786 42.2611
79.7631 1753 41.8688
79.8802 1618 40.2244
79.9974 1554 39.4208
80.1147 1477 38.4318
80.2319 1330 36.4692
80.3491 1169 34.1906
80.4664 1180 34.3511
80.5837 1201 34.6554
80.701 1352 36.7696
80.8183 1363 36.9188
80.9357 1514 38.9102
81.053 1577 39.7115
81.1704 1605 40.0625
81.2877 1613 40.1622
81.4051 1609 40.1123
81.5225 1608 40.0999
81.6399 1386 37.229
81.7573 1367 36.973
81.8747 1308 36.1663
81.9922 1312 36.2215
82.1096 1255 35.426
82.227 1322 36.3593
82.3444 1472 38.3667
82.4619 1485 38.5357
82.5793 1589 39.8623
82.6967 1605 40.0625
82.8142 1624 40.2989
82.9316 1679 40.9756
83.049 1709 41.3401
83.1664 1624 40.2989
83.2838 1622 40.2741
83.4012 1539 39.2301
83.5186 1503 38.7685
83.636 1406 37.4967
83.7534 1331 36.4829
83.8708 1216 34.8712
83.9881 1148 33.8821
84.1055 1122 33.4963
84.2228 1099 33.1512
84.3401 1129 33.6006
84.4575 1275 35.7071
84.5747 1500 38.7298
84.692 1468 38.3145
84.8093 1513 38.8973
84.9265 1459 38.1969
85.0437 1561 39.5095
85.1609 1450 38.0789
85.2781 1313 36.2353
85.3952 1209 34.7707
85.5123 1271 35.6511
85.6294 1111 33.3317
85.7465 1170 34.2053
85.8636 1409 37.5366
85.9806 1565 39.5601
86.0976 1640 40.4969
86.2145 1742 41.7373
86.3315 1756 41.9047
86.4484 1834 42.8252
86.5652 1861 43.1393
86.682 1773 42.107
86.7988 1836 42.8486
86.9156 1723 41.509
87.0323 1654 40.6694
87.149 1604 40.05
87.2657 1563 39.5348
87.3823 1357 36.8375
87.4988 1345 36.6742
87.6154 1276 35.7211
87.7318 1389 37.2693
87.8483 1379 37.1349
87.9647 1518 38.9615
88.081 1629 40.3609
88.1973 1688 41.0853
88.3136 1801 42.4382
88.4298 1760 41.9524
88.546 1739 41.7013
88.6621 1673 40.9023
88.7781 1527 39.0768
88.8942 0 1
89.0101 0 1
89.126 0 1
89.2419 0 1
89.3577 0 1
89.4734 0 1
89.5891 0 1
89.7047 0 1
89.8203 0 1
89.9358 0 1
92.3269 0 1
92.4424 0 1
92.558 0 1
92.6736 0 1
92.7893 0 1
92.905 0 1
93.0208 0 1
93.1366 0 1
93.2525 0 1
93.3685 0 1
93.4845 0 1
93.6005 1767 42.0357
93.7167 1810 42.5441
93.8328 1767 42.0357
93.949 1734 41.6413
94.0653 1774 42.1189
94.1816 1558 39.4715
94.2979 1476 38.4187
94.4143 1427 37.7757
94.5307 1416 37.6298
94.6472 1352 36.7696
94.7637 1344 36.6606
94.8803 1562 39.5221
94.9969 1591 39.8873
95.1135 1802 42.45
95.2302 1867 43.2088
95.3469 1929 43.9204
95.4637 1946 44.1135
95.5805 2012 44.8553
95.6973 2039 45.1553
95.8142 2033 45.0888
95.9311 1954 44.2041
96.048 1775 42.1307
96.1649 1858 43.1045
96.2819 1793 42.3438
96.3989 1649 40.6079
96.516 1571 39.6358
96.633 1466 38.2884
96.7501 1372 37.0405
96.8673 1388 37.2559
96.9844 1551 39.3827
97.1016 1586 39.8246
97.2188 1634 40.4228
97.336 1841 42.9069
97.4532 1858 43.1045
97.5704 1820 42.6615
97.6877 1796 42.3792
97.805 1687 41.0731
97.9223 1622 40.2741
98.0396 1415 37.6165
98.1569 1346 36.6879
98.2743 1318 36.3043
98.3916 1314 36.2491
98.509 1509 38.8458
98.6264 1610 40.1248
98.7438 1775 42.1307
98.8612 1849 43
98.9786 1962 44.2945
99.096 2039 45.1553
99.2134 1994 44.6542
99.3308 2058 45.3652
99.4482 2046 45.2327
99.5656 1850 43.0116
99.6831 1900 43.589
99.8005 1848 42.9884
99.9179 1681 41
100.035 1635 40.4351
100.153 1543 39.281
100.27 1437 37.9078
100.388 1491 38.6135
100.505 1504 38.7814
100.622 1594 39.9249
100.74 1742 41.7373
100.857 1872 43.2666
100.975 1850 43.0116
101.092 1946 44.1135
101.209 1911 43.715
101.327 1914 43.7493
101.444 1723 41.509
101.561 1674 40.9145
101.679 1528 39.0896
101.796 1415 37.6165
101.913 1408 37.5233
102.03 1548 39.3446
102.148 1705 41.2916
102.265 2023 44.9778
102.382 1859 43.1161
102.499 2024 44.9889
102.616 2151 46.3789
102.733 2211 47.0213
102.851 2288 47.833
102.968 2155 46.422
103.085 2116 46
103.202 2065 45.4423
103.319 2060 45.3872
103.436 1975 44.441
103.552 1781 42.2019
103.669 1758 41.9285
103.786 1615 40.1871
103.903 1641 40.5093
104.02 1617 40.2119
104.137 1759 41.9404
104.253 1981 44.5084
104.37 1922 43.8406
104.487 2181 46.7012
104.603 1993 44.643
104.72 2091 45.7275
104.836 2018 44.9222
104.953 1804 42.4735
105.069 1744 41.7612
105.186 1541 39.2556
105.302 1485 38.5357
105.418 1492 38.6264
105.535 1647 40.5832
105.651 1840 42.8952
105.767 2095 45.7712
105.883 2150 46.3681
105.999 2259 47.5289
106.115 0 1
106.231 0 1
106.347 0 1
106.463 0 1
106.579 0 1
106.694 0 1
106.81 0 1
106.926 0 1
107.041 0 1
107.157 0 1
109.576 0 1
109.692 0 1
109.807 0 1
109.923 0 1
110.039 0 1
110.155 0 1
110.27 0 1
110.386 0 1
110.502 0 1
110.618 1608 40.0999
110.735 1903 43.6234
110.851 2013 44.8665
110.967 2156 46.4327
111.083 2175 46.6369
111.199 2177 46.6583
111.316 2277 47.7179
111.432 2296 47.9166
111.549 2160 46.4758
111.665 2153 46.4004
111.782 2101 45.8367
111.898 2146 46.3249
112.015 2002 44.7437
112.132 1856 43.0813
112.248 1776 42.1426
112.365 1776 42.1426
112.482 1746 41.7852
112.599 1701 41.2432
112.716 1805 42.4853
112.832 1969 44.3734
112.949 1972 44.4072
113.066 1971 44.3959
113.183 1996 44.6766
113.3 1923 43.852
113.417 1805 42.4853
113.534 1757 41.9166
113.652 1590 39.8748
113.769 1501 38.7427
113.886 1471 38.3536
114.003 1463 38.2492
114.12 1556 39.4462
114.238 1805 42.4853
114.355 1915 43.7607
114.472 2175 46.6369
114.589 1977 44.4635
114.707 2159 46.465
114.824 2232 47.244
114.942 2113 45.9674
115.059 2155 46.422
115.176 2049 45.2659
115.294 2070 45.4973
115.411 1942 44.0681
115.529 1919 43.8064
115.646 1803 42.4617
115.764 1814 42.5911
115.881 1635 40.4351
115.999 1594 39.9249
116.116 1713 41.3884
116.234 1830 42.7785
116.351 1790 42.3084
116.469 1813 42.5793
116.586 1836 42.8486
116.704 1887 43.4396
116.821 1926 43.8862
116.939 1787 42.2729
117.056 1724 41.5211
117.174 1619 40.2368
117.291 1539 39.2301
117.409 1444 38
117.526 1416 37.6298
117.644 1451 38.092
117.761 1712 41.3763
117.879 1892 43.4971
117.996 1926 43.8862
118.114 2055 45.3321
118.231 2127 46.1194
118.349 1983 44.5309
118.466 2058 45.3652
118.584 2102 45.8476
118.701 2062 45.4093
118.819 2042 45.1885
118.936 1938 44.0227
119.053 1889 43.4626
119.171 1874 43.2897
119.288 1808 42.5206
119.405 1631 40.3856
119.523 1679 40.9756
119.64 1684 41.0366
119.757 1716 41.4246
119.875 1675 40.9268
119.992 1775 42.1307
120.109 1853 43.0465
120.226 1770 42.0714
120.343 1802 42.45
120.46 1754 41.8808
120.578 1744 41.7612
120.695 1648 40.5956
120.812 1551 39.3827
120.929 1510 38.8587
121.046 1375 37.081
121.163 1463 38.2492
121.279 1449 38.0657
121.396 1497 38.6911
121.513 1776 42.1426
121.63 1842 42.9185
121.747 2057 45.3542
121.863 1998 44.699
121.98 2024 44.9889
122.097 2108 45.913
122.213 1953 44.1928
122.33 2001 44.7325
122.446 1977 44.4635
122.563 1882 43.382
122.679 1792 42.332
122.795 1826 42.7317
122.912 1778 42.1663
123.028 1691 41.1218
123.144 1726 41.5452
123.26 1600 40
123.377 0 1
123.493 0 1
123.609 0 1
123.725 0 1
123.84 0 1
123.956 0 1
124.072 0 1
124.188 0 1
124.303 0 1
124.419 0 1
126.852 0 1
126.968 0 1
127.083 0 1
127.199 0 1
127.315 0 1
127.431 0 1
127.547 0 1
127.663 0 1
127.779 0 1
127.895 0 1
128.011 0 1
128.127 0 1
128.243 0 1
128.359 1830 42.7785
128.476 1900 43.589
128.592 1886 43.4281
128.708 1901 43.6005
128.825 1960 44.2719
128.941 2062 45.4093
129.058 1990 44.6094
129.174 2012 44.8553
129.291 1903 43.6234
129.408 1905 43.6463
129.524 2004 44.7661
129.641 1778 42.1663
129.758 1644 40.5463
129.875 1558 39.4715
129.992 1615 40.1871
130.108 1530 39.1152
130.225 1656 40.694
130.342 1704 41.2795
130.459 1902 43.6119
130.576 2047 45.2438
130.693 2102 45.8476
130.81 2128 46.1303
130.928 2040 45.1664
131.045 2165 46.5296
131.162 2112 45.9565
131.279 2176 46.6476
131.396 2173 46.6154
131.513 2130 46.1519
131.631 2048 45.2548
131.748 2055 45.3321
131.865 1942 44.0681
131.983 1862 43.1509
132.1 1945 44.1022
132.217 1988 44.587
132.335 1954 44.2041
132.452 2006 44.7884
132.57 2043 45.1996
132.687 2036 45.1221
132.804 2161 46.4866
132.922 1936 44
133.039 1963 44.3058
133.157 1978 44.4747
133.274 1748 41.8091
133.392 1689 41.0974
133.509 1630 40.3733
133.627 1638 40.4722
133.744 1622 40.2741
133.862 1765 42.0119
133.979 1900 43.589
134.097 2019 44.9333
134.214 2133 46.1844
134.332 2140 46.2601
134.449 2140 46.2601
134.567 2176 46.6476
134.684 2169 46.5725
134.802 2184 46.7333
134.919 2167 46.551
135.037 2145 46.3141
135.154 2208 46.9894
135.272 2009 44.8219
135.389 2052 45.299
135.507 2052 45.299
135.624 2042 45.1885
135.742 1968 44.3621
135.859 2098 45.8039
135.977 2053 45.31
136.094 2037 45.1331
136.211 2122 46.0652
136.329 2087 45.6837
136.446 2073 45.5302
136.564 2021 44.9555
136.681 1928 43.909
136.798 1894 43.5201
136.915 1707 41.3159
137.033 1657 40.7063
137.15 1652 40.6448
137.267 1623 40.2865
137.384 1676 40.939
137.502 1814 42.5911
137.619 1937 44.0114
137.736 2060 45.3872
137.853 2012 44.8553
137.97 2208 46.9894
138.087 2146 46.3249
138.204 2181 46.7012
138.321 2092 45.7384
138.438 2165 46.5296
138.555 2236 47.2864
138.672 2187 46.7654
138.788 2321 48.1768
138.905 2247 47.4025
139.022 2156 46.4327
139.139 2204 46.9468
139.255 2158 46.4543
139.372 2145 46.3141
139.488 2148 46.3465
139.605 2229 47.2123
139.721 2152 46.3897
139.838 2225 47.1699
139.954 2216 47.0744
140.071 2121 46.0543
140.187 2244 47.3709
140.303 1999 44.7102
140.419 2011 44.8442
140.535 1870 43.2435
140.652 1748 41.8091
140.768 0 1
140.884 0 1
141 0 1
141.115 0 1
141.231 0 1
141.347 0 1
141.463 0 1
141.578 0 1
141.694 0 1
144.104 0 1
144.219 0 1
144.335 0 1
144.45 0 1
144.566 0 1
144.682 0 1
144.798 0 1
144.914 0 1
145.03 0 1
145.146 1993 44.643
145.262 1973 44.4185
145.378 1904 43.6348
145.494 1740 41.7133
145.61 1636 40.4475
145.726 1577 39.7115
145.842 1587 39.8372
145.959 1547 39.3319
146.075 1572 39.6485
146.192 1644 40.5463
146.308 1789 42.2966
146.425 1911 43.715
146.541 1912 43.7264
146.658 1922 43.8406
146.774 1884 43.4051
146.891 1917 43.7836
147.008 2014 44.8776
147.125 2040 45.1664
147.241 2081 45.618
147.358 2032 45.0777
147.475 2017 44.911
147.592 1998 44.699
147.709 2004 44.7661
147.826 1895 43.5316
147.943 2005 44.7772
148.06 1899 43.5775
148.177 1957 44.238
148.294 1996 44.6766
148.411 2002 44.7437
148.528 1951 44.1701
148.645 1788 42.2847
148.762 1864 43.1741
148.88 1893 43.5086
148.997 1827 42.7434
149.114 1823 42.6966
149.231 1716 41.4246
149.349 1633 40.4104
149.466 1525 39.0512
149.583 1461 38.223
149.701 1508 38.833
149.818 1616 40.1995
149.935 1623 40.2865
150.053 1698 41.2068
150.17 1758 41.9285
150.287 1743 41.7493
150.405 1831 42.7902
150.522 1905 43.6463
150.64 2001 44.7325
150.757 1946 44.1135
150.875 1954 44.2041
150.992 1946 44.1135
151.11 1894 43.5201
151.227 1960 44.2719
151.344 1940 44.0454
151.462 1908 43.6807
151.579 1866 43.1972
151.697 1920 43.8178
151.814 1987 44.5758
151.932 1906 43.6578
152.049 1972 44.4072
152.167 1914 43.7493
152.284 1904 43.6348
152.402 1918 43.795
152.519 1913 43.7379
152.636 1838 42.8719
152.754 1764 42
152.871 1610 40.1248
152.989 1622 40.2741
153.106 1483 38.5097
153.223 1530 39.1152
153.341 1507 38.8201
153.458 1653 40.6571
153.575 1708 41.328
153.693 1796 42.3792
153.81 1882 43.382
153.927 1844 42.9418
154.044 1903 43.6234
154.162 1889 43.4626
154.279 1988 44.587
154.396 2072 45.5192
154.513 2106 45.8912
154.63 2096 45.7821
154.747 2042 45.1885
154.864 2060 45.3872
154.981 1986 44.5646
155.098 2018 44.9222
155.215 1958 44.2493
155.332 2012 44.8553
155.449 1936 44
155.566 2070 45.4973
155.683 2077 45.5741
155.8 2031 45.0666
155.917 2008 44.8107
156.033 1953 44.1928
156.15 0 1
156.267 0 1
156.383 0 1
156.5 0 1
156.617 0 1
156.733 0 1
156.85 0 1
156.966 0 1
157.082 0 1
157.199 0 1
157.315 0 1
157.431 0 1
157.547 0 1
157.664 0 1
157.78 0 1
157.896 0 1
158.012 0 1
158.128 0 1
158.244 0 1
158.359 0 1
158.475 0 1
158.591 0 1
158.706 0 1
