
6.15755 0 1
6.2731 0 1
6.3887 0 1
6.50437 0 1
6.62009 0 1
6.73587 0 1
6.8517 0 1
6.96759 0 1
7.08353 0 1
7.19952 0 1
7.31557 0 1
7.43166 0 1
7.54781 0 1
7.664 0 1
7.78024 0 1
7.89653 0 1
8.01286 0 1
8.12924 0 1
8.24567 0 1
8.36213 0 1
8.47864 0 1
8.59519 0 1
8.71178 0 1
8.82841 0 1
8.94508 0 1
9.06179 0 1
9.17853 0 1
9.29531 0 1
9.41212 0 1
9.52897 0 1
9.64584 0 1
9.76276 0 1
9.8797 0 1
9.99667 0 1
10.1137 0 1
10.2307 0 1
10.3478 0 1
10.4648 0 1
10.5819 0 1
10.6991 0 1
10.8162 0 1
10.9334 0 1
11.0506 0 1
11.1678 0 1
11.285 0 1
11.4023 0 1
11.5196 0 1
11.6369 0 1
11.7542 0 1
11.8715 0 1
11.9888 0 1
12.1062 0 1
12.2235 0 1
12.3409 0 1
12.4582 0 1
12.5756 0 1
12.693 0 1
12.8104 0 1
12.9278 0 1
13.0452 0 1
13.1626 0 1
13.28 0 1
13.3974 0 1
13.5149 0 1
13.6323 0 1
13.7497 0 1
13.8671 0 1
13.9845 0 1
14.1019 0 1
14.2193 0 1
14.3367 0 1
14.4541 0 1
14.5714 0 1
14.6888 0 1
14.8062 0 1
14.9235 0 1
15.0408 489 22.1133
15.1581 505 22.4722
15.2755 501 22.383
15.3927 521 22.8254
15.51 510 22.5832
15.6273 484 22
15.7445 519 22.7816
15.8617 497 22.2935
15.9789 495 22.2486
16.0961 482 21.9545
16.2132 473 21.7486
16.3304 493 22.2036
16.4475 472 21.7256
16.5646 532 23.0651
16.6816 525 22.9129
16.7986 494 22.2261
16.9156 517 22.7376
17.0326 519 22.7816
17.1496 573 23.9374
17.2665 526 22.9347
17.3833 485 22.0227
17.5002 525 22.9129
17.617 546 23.3666
17.7338 445 21.095
17.8505 527 22.9565
17.9672 462 21.4942
18.0839 482 21.9545
18.2005 460 21.4476
18.3171 452 21.2603
18.4337 484 22
18.5502 519 22.7816
18.6666 509 22.561
18.7831 496 22.2711
18.8994 543 23.3024
19.0158 549 23.4307
19.1321 567 23.8118
19.2483 465 21.5639
19.3645 468 21.6333
19.4806 431 20.7605
19.5967 433 20.8087
19.7128 433 20.8087
19.8288 421 20.5183
19.9447 374 19.3391
20.0606 0 1
20.1764 0 1
20.2922 0 1
20.4079 0 1
20.5236 0 1
20.6392 0 1
20.7548 0 1
20.8702 0 1
23.3078 0 1
23.4233 0 1
23.539 0 1
23.6547 0 1
23.7704 0 1
23.8862 0 1
24.0021 0 1
24.118 0 1
24.234 0 1
24.35 0 1
24.4661 168 12.9615
24.5822 188 13.7113
24.6984 259 16.0935
24.8146 283 16.8226
24.9309 339 18.412
25.0472 378 19.4422
25.1636 444 21.0713
25.28 454 21.3073
25.3965 482 21.9545
25.513 540 23.2379
25.6296 594 24.3721
25.7462 568 23.8328
25.8628 601 24.5153
25.9795 625 25
26.0962 555 23.5584
26.213 606 24.6171
26.3298 570 23.8747
26.4466 559 23.6432
26.5635 550 23.4521
26.6804 566 23.7908
26.7973 508 22.5389
26.9143 509 22.561
27.0313 491 22.1585
27.1483 488 22.0907
27.2653 511 22.6053
27.3824 538 23.1948
27.4996 551 23.4734
27.6167 513 22.6495
27.7339 502 22.4054
27.8511 490 22.1359
27.9683 477 21.8403
28.0855 498 22.3159
28.2028 514 22.6716
28.3201 501 22.383
28.4374 462 21.4942
28.5547 533 23.0868
28.6721 539 23.2164
28.7894 540 23.2379
28.9068 565 23.7697
29.0242 585 24.1868
29.1416 593 24.3516
29.259 528 22.9783
29.3764 562 23.7065
29.4939 555 23.5584
29.6113 548 23.4094
29.7288 570 23.8747
29.8463 506 22.4944
29.9638 557 23.6008
30.0812 546 23.3666
30.1987 543 23.3024
30.3162 524 22.891
30.4337 485 22.0227
30.5512 480 21.9089
30.6687 533 23.0868
30.7862 525 22.9129
30.9037 546 23.3666
31.0212 575 23.9792
31.1387 564 23.7487
31.2562 491 22.1585
31.3737 461 21.4709
31.4912 504 22.4499
31.6087 477 21.8403
31.7262 487 22.0681
31.8436 507 22.5167
31.9611 539 23.2164
32.0785 490 22.1359
32.1959 527 22.9565
32.3134 525 22.9129
32.4308 515 22.6936
32.5482 539 23.2164
32.6655 511 22.6053
32.7829 520 22.8035
32.9002 560 23.6643
33.0176 558 23.622
33.1349 541 23.2594
33.2522 557 23.6008
33.3694 525 22.9129
33.4867 574 23.9583
33.6039 530 23.0217
33.7211 514 22.6716
33.8383 529 23
33.9554 482 21.9545
34.0725 491 22.1585
34.1896 477 21.8403
34.3067 546 23.3666
34.4237 512 22.6274
34.5407 463 21.5174
34.6577 504 22.4499
34.7746 508 22.5389
34.8915 511 22.6053
35.0084 465 21.5639
35.1252 455 21.3307
35.242 491 22.1585
35.3587 456 21.3542
35.4755 485 22.0227
35.5921 485 22.0227
35.7088 501 22.383
35.8254 506 22.4944
35.9419 509 22.561
36.0584 500 22.3607
36.1749 557 23.6008
36.2913 542 23.2809
36.4077 535 23.1301
36.524 528 22.9783
36.6403 425 20.6155
36.7565 429 20.7123
36.8727 411 20.2731
36.9889 350 18.7083
37.1049 337 18.3576
37.221 0 1
37.3369 0 1
37.4529 0 1
37.5687 0 1
37.6845 0 1
37.8003 0 1
37.916 0 1
38.0316 0 1
38.1472 0 1
40.5851 0 1
40.7008 0 1
40.8164 0 1
40.9322 0 1
41.048 0 1
41.1639 0 1
41.2798 0 1
41.3958 0 1
41.5118 0 1
41.6279 0 1
41.744 187 13.6748
41.8602 220 14.8324
41.9765 288 16.9706
42.0928 306 17.4929
42.2091 381 19.5192
42.3255 383 19.5704
42.4419 411 20.2731
42.5584 395 19.8746
42.675 434 20.8327
42.7915 436 20.8806
42.9081 411 20.2731
43.0248 388 19.6977
43.1415 403 20.0749
43.2582 440 20.9762
43.375 418 20.445
43.4918 494 22.2261
43.6087 388 19.6977
43.7256 416 20.3961
43.8425 397 19.9249
43.9595 409 20.2237
44.0765 377 19.4165
44.1935 411 20.2731
44.3106 448 21.166
44.4277 423 20.567
44.5448 426 20.6398
44.6619 449 21.1896
44.7791 460 21.4476
44.8963 438 20.9284
45.0136 423 20.567
45.1308 432 20.7846
45.2481 463 21.5174
45.3654 441 21
45.4827 481 21.9317
45.6001 464 21.5407
45.7174 466 21.587
45.8348 442 21.0238
45.9522 434 20.8327
46.0697 447 21.1424
46.1871 510 22.5832
46.3046 442 21.0238
46.422 433 20.8087
46.5395 426 20.6398
46.657 397 19.9249
46.7745 435 20.8567
46.892 427 20.664
47.0096 451 21.2368
47.1271 459 21.4243
47.2446 435 20.8567
47.3622 411 20.2731
47.4797 409 20.2237
47.5973 420 20.4939
47.7149 410 20.2485
47.8324 400 20
47.95 442 21.0238
48.0675 454 21.3073
48.1851 435 20.8567
48.3027 423 20.567
48.4202 468 21.6333
48.5378 483 21.9773
48.6554 470 21.6795
48.7729 438 20.9284
48.8904 449 21.1896
49.008 446 21.1187
49.1255 477 21.8403
49.243 472 21.7256
49.3605 456 21.3542
49.478 446 21.1187
49.5955 435 20.8567
49.713 446 21.1187
49.8304 450 21.2132
49.9479 390 19.7484
50.0653 386 19.6469
50.1827 398 19.9499
50.3001 409 20.2237
50.4175 432 20.7846
50.5348 406 20.1494
50.6521 445 21.095
50.7694 439 20.9523
50.8867 417 20.4206
51.004 443 21.0476
51.1212 406 20.1494
51.2384 425 20.6155
51.3556 402 20.0499
51.4727 451 21.2368
51.5899 427 20.664
51.707 471 21.7025
51.824 462 21.4942
51.9411 450 21.2132
52.0581 472 21.7256
52.175 443 21.0476
52.2919 466 21.587
52.4088 498 22.3159
52.5257 462 21.4942
52.6425 450 21.2132
52.7593 473 21.7486
52.876 478 21.8632
52.9927 451 21.2368
53.1094 506 22.4944
53.226 424 20.5913
53.3426 456 21.3542
53.4591 450 21.2132
53.5756 426 20.6398
53.692 449 21.1896
53.8084 383 19.5704
53.9248 335 18.303
54.0411 286 16.9115
54.1573 249 15.7797
54.2735 0 1
54.3896 0 1
54.5057 0 1
54.6217 0 1
54.7377 0 1
54.8537 0 1
54.9695 0 1
55.0853 0 1
55.2011 0 1
55.3168 0 1
55.4324 0 1
57.824 0 1
57.9396 0 1
58.0553 0 1
58.1711 0 1
58.2869 0 1
58.4028 0 1
58.5187 0 1
58.6347 0 1
58.7508 0 1
58.8669 0 1
58.983 290 17.0294
59.0992 292 17.088
59.2155 372 19.2873
59.3318 384 19.5959
59.4482 495 22.2486
59.5646 487 22.0681
59.681 508 22.5389
59.7975 569 23.8537
59.9141 555 23.5584
60.0306 600 24.4949
60.1473 538 23.1948
60.2639 578 24.0416
60.3807 565 23.7697
60.4974 589 24.2693
60.6142 586 24.2074
60.731 582 24.1247
60.8479 598 24.454
60.9648 611 24.7184
61.0818 574 23.9583
61.1987 545 23.3452
61.3158 596 24.4131
61.4328 593 24.3516
61.5499 551 23.4734
61.667 563 23.7276
61.7841 590 24.2899
61.9013 583 24.1454
62.0185 573 23.9374
62.1357 543 23.3024
62.253 562 23.7065
62.3702 577 24.0208
62.4875 557 23.6008
62.6049 609 24.6779
62.7222 509 22.561
62.8396 577 24.0208
62.9569 556 23.5797
63.0743 528 22.9783
63.1918 515 22.6936
63.3092 556 23.5797
63.4267 580 24.0832
63.5441 539 23.2164
63.6616 583 24.1454
63.7791 565 23.7697
63.8966 593 24.3516
64.0142 605 24.5967
64.1317 612 24.7386
64.2492 564 23.7487
64.3668 543 23.3024
64.4843 546 23.3666
64.6019 594 24.3721
64.7195 547 23.388
64.837 565 23.7697
64.9546 555 23.5584
65.0722 553 23.516
65.1898 533 23.0868
65.3074 596 24.4131
65.4249 555 23.5584
65.5425 558 23.622
65.6601 574 23.9583
65.7777 560 23.6643
65.8952 499 22.3383
66.0128 536 23.1517
66.1304 515 22.6936
66.2479 516 22.7156
66.3655 528 22.9783
66.483 543 23.3024
66.6005 523 22.8692
66.718 534 23.1084
66.8355 535 23.1301
66.953 545 23.3452
67.0705 526 22.9347
67.1879 576 24
67.3054 564 23.7487
67.4228 514 22.6716
67.5402 542 23.2809
67.6576 579 24.0624
67.7749 547 23.388
67.8923 541 23.2594
68.0096 520 22.8035
68.1269 585 24.1868
68.2442 627 25.04
68.3614 563 23.7276
68.4787 525 22.9129
68.5958 556 23.5797
68.713 563 23.7276
68.8302 553 23.516
68.9473 533 23.0868
69.0643 563 23.7276
69.1814 554 23.5372
69.2984 502 22.4054
69.4154 537 23.1733
69.5323 592 24.3311
69.6492 520 22.8035
69.7661 516 22.7156
69.8829 522 22.8473
69.9997 495 22.2486
70.1165 500 22.3607
70.2332 551 23.4734
70.3499 518 22.7596
70.4665 470 21.6795
70.5831 481 21.9317
70.6996 381 19.5192
70.8161 403 20.0749
70.9326 330 18.1659
71.049 297 17.2337
71.1653 262 16.1864
71.2817 268 16.3707
71.3979 241 15.5242
71.5141 234 15.2971
71.6303 201 14.1774
71.7464 183 13.5277
71.8624 0 1
71.9784 0 1
72.0944 0 1
72.2102 0 1
72.3261 0 1
72.4418 0 1
72.5575 0 1
72.6732 0 1
75.1054 0 1
75.2209 0 1
75.3365 0 1
75.4521 0 1
75.5678 0 1
75.6835 0 1
75.7993 0 1
75.9151 0 1
76.031 0 1
76.147 303 17.4069
76.263 400 20
76.3791 411 20.2731
76.4952 462 21.4942
76.6113 473 21.7486
76.7276 454 21.3073
76.8438 451 21.2368
76.9601 498 22.3159
77.0765 445 21.095
77.1929 467 21.6102
77.3093 451 21.2368
77.4258 454 21.3073
77.5423 486 22.0454
77.6589 496 22.2711
77.7755 518 22.7596
77.8921 450 21.2132
78.0088 479 21.8861
78.1256 502 22.4054
78.2423 453 21.2838
78.3591 537 23.1733
78.4759 468 21.6333
78.5928 498 22.3159
78.7097 455 21.3307
78.8266 467 21.6102
78.9436 446 21.1187
79.0606 498 22.3159
79.1776 465 21.5639
79.2946 438 20.9284
79.4117 508 22.5389
79.5288 513 22.6495
79.6459 481 21.9317
79.7631 487 22.0681
79.8802 540 23.2379
79.9974 511 22.6053
80.1147 504 22.4499
80.2319 502 22.4054
80.3491 521 22.8254
80.4664 507 22.5167
80.5837 481 21.9317
80.701 523 22.8692
80.8183 517 22.7376
80.9357 566 23.7908
81.053 515 22.6936
81.1704 555 23.5584
81.2877 533 23.0868
81.4051 517 22.7376
81.5225 526 22.9347
81.6399 556 23.5797
81.7573 487 22.0681
81.8747 478 21.8632
81.9922 528 22.9783
82.1096 493 22.2036
82.227 525 22.9129
82.3444 516 22.7156
82.4619 555 23.5584
82.5793 481 21.9317
82.6967 494 22.2261
82.8142 460 21.4476
82.9316 487 22.0681
83.049 495 22.2486
83.1664 475 21.7945
83.2838 507 22.5167
83.4012 496 22.2711
83.5186 510 22.5832
83.636 484 22
83.7534 488 22.0907
83.8708 472 21.7256
83.9881 461 21.4709
84.1055 483 21.9773
84.2228 465 21.5639
84.3401 470 21.6795
84.4575 443 21.0476
84.5747 421 20.5183
84.692 463 21.5174
84.8093 450 21.2132
84.9265 432 20.7846
85.0437 446 21.1187
85.1609 451 21.2368
85.2781 440 20.9762
85.3952 391 19.7737
85.5123 434 20.8327
85.6294 396 19.8997
85.7465 382 19.5448
85.8636 391 19.7737
85.9806 382 19.5448
86.0976 415 20.3715
86.2145 332 18.2209
86.3315 339 18.412
86.4484 345 18.5742
86.5652 336 18.3303
86.682 310 17.6068
86.7988 330 18.1659
86.9156 391 19.7737
87.0323 326 18.0555
87.149 365 19.105
87.2657 348 18.6548
87.3823 321 17.9165
87.4988 344 18.5472
87.6154 322 17.9444
87.7318 296 17.2047
87.8483 296 17.2047
87.9647 278 16.6733
88.081 248 15.748
88.1973 190 13.784
88.3136 169 13
88.4298 182 13.4907
88.546 135 11.619
88.6621 130 11.4018
88.7781 98 9.89949
88.8942 0 1
89.0101 0 1
89.126 0 1
89.2419 0 1
89.3577 0 1
89.4734 0 1
89.5891 0 1
89.7047 0 1
89.8203 0 1
89.9358 0 1
92.3269 0 1
92.4424 0 1
92.558 0 1
92.6736 0 1
92.7893 0 1
92.905 0 1
93.0208 0 1
93.1366 0 1
93.2525 0 1
93.3685 0 1
93.4845 0 1
93.6005 205 14.3178
93.7167 257 16.0312
93.8328 285 16.8819
93.949 296 17.2047
94.0653 308 17.5499
94.1816 303 17.4069
94.2979 333 18.2483
94.4143 377 19.4165
94.5307 355 18.8414
94.6472 332 18.2209
94.7637 341 18.4662
94.8803 349 18.6815
94.9969 360 18.9737
95.1135 422 20.5426
95.2302 370 19.2354
95.3469 361 19
95.4637 393 19.8242
95.5805 369 19.2094
95.6973 370 19.2354
95.8142 381 19.5192
95.9311 360 18.9737
96.048 367 19.1572
96.1649 381 19.5192
96.2819 401 20.025
96.3989 407 20.1742
96.516 403 20.0749
96.633 424 20.5913
96.7501 423 20.567
96.8673 386 19.6469
96.9844 431 20.7605
97.1016 418 20.445
97.2188 398 19.9499
97.336 440 20.9762
97.4532 454 21.3073
97.5704 444 21.0713
97.6877 456 21.3542
97.805 419 20.4695
97.9223 425 20.6155
98.0396 463 21.5174
98.1569 416 20.3961
98.2743 432 20.7846
98.3916 424 20.5913
98.509 412 20.2978
98.6264 461 21.4709
98.7438 470 21.6795
98.8612 476 21.8174
98.9786 421 20.5183
99.096 436 20.8806
99.2134 426 20.6398
99.3308 476 21.8174
99.4482 488 22.0907
99.5656 457 21.3776
99.6831 463 21.5174
99.8005 463 21.5174
99.9179 517 22.7376
100.035 490 22.1359
100.153 512 22.6274
100.27 532 23.0651
100.388 542 23.2809
100.505 485 22.0227
100.622 492 22.1811
100.74 498 22.3159
100.857 489 22.1133
100.975 489 22.1133
101.092 505 22.4722
101.209 525 22.9129
101.327 511 22.6053
101.444 512 22.6274
101.561 492 22.1811
101.679 454 21.3073
101.796 484 22
101.913 527 22.9565
102.03 461 21.4709
102.148 500 22.3607
102.265 517 22.7376
102.382 531 23.0434
102.499 528 22.9783
102.616 520 22.8035
102.733 512 22.6274
102.851 494 22.2261
102.968 493 22.2036
103.085 544 23.3238
103.202 504 22.4499
103.319 521 22.8254
103.436 528 22.9783
103.552 558 23.622
103.669 529 23
103.786 502 22.4054
103.903 534 23.1084
104.02 530 23.0217
104.137 528 22.9783
104.253 535 23.1301
104.37 528 22.9783
104.487 513 22.6495
104.603 554 23.5372
104.72 513 22.6495
104.836 550 23.4521
104.953 554 23.5372
105.069 546 23.3666
105.186 521 22.8254
105.302 471 21.7025
105.418 523 22.8692
105.535 386 19.6469
105.651 354 18.8149
105.767 304 17.4356
105.883 271 16.4621
105.999 228 15.0997
106.115 0 1
106.231 0 1
106.347 0 1
106.463 0 1
106.579 0 1
106.694 0 1
106.81 0 1
106.926 0 1
107.041 0 1
107.157 0 1
109.576 0 1
109.692 0 1
109.807 0 1
109.923 0 1
110.039 0 1
110.155 0 1
110.27 0 1
110.386 0 1
110.502 0 1
110.618 258 16.0624
110.735 347 18.6279
110.851 370 19.2354
110.967 401 20.025
111.083 410 20.2485
111.199 443 21.0476
111.316 476 21.8174
111.432 475 21.7945
111.549 502 22.4054
111.665 473 21.7486
111.782 510 22.5832
111.898 486 22.0454
112.015 484 22
112.132 504 22.4499
112.248 502 22.4054
112.365 495 22.2486
112.482 489 22.1133
112.599 522 22.8473
112.716 482 21.9545
112.832 507 22.5167
112.949 496 22.2711
113.066 432 20.7846
113.183 506 22.4944
113.3 490 22.1359
113.417 508 22.5389
113.534 485 22.0227
113.652 476 21.8174
113.769 456 21.3542
113.886 447 21.1424
114.003 466 21.587
114.12 512 22.6274
114.238 489 22.1133
114.355 476 21.8174
114.472 416 20.3961
114.589 514 22.6716
114.707 475 21.7945
114.824 475 21.7945
114.942 447 21.1424
115.059 460 21.4476
115.176 502 22.4054
115.294 506 22.4944
115.411 464 21.5407
115.529 482 21.9545
115.646 480 21.9089
115.764 494 22.2261
115.881 512 22.6274
115.999 522 22.8473
116.116 482 21.9545
116.234 467 21.6102
116.351 483 21.9773
116.469 472 21.7256
116.586 461 21.4709
116.704 474 21.7715
116.821 496 22.2711
116.939 489 22.1133
117.056 440 20.9762
117.174 441 21
117.291 483 21.9773
117.409 486 22.0454
117.526 488 22.0907
117.644 491 22.1585
117.761 510 22.5832
117.879 459 21.4243
117.996 451 21.2368
118.114 469 21.6564
118.231 466 21.587
118.349 449 21.1896
118.466 452 21.2603
118.584 462 21.4942
118.701 487 22.0681
118.819 447 21.1424
118.936 470 21.6795
119.053 443 21.0476
119.171 431 20.7605
119.288 462 21.4942
119.405 478 21.8632
119.523 446 21.1187
119.64 463 21.5174
119.757 490 22.1359
119.875 416 20.3961
119.992 433 20.8087
120.109 498 22.3159
120.226 468 21.6333
120.343 456 21.3542
120.46 422 20.5426
120.578 433 20.8087
120.695 480 21.9089
120.812 466 21.587
120.929 455 21.3307
121.046 441 21
121.163 379 19.4679
121.279 474 21.7715
121.396 456 21.3542
121.513 408 20.199
121.63 419 20.4695
121.747 445 21.095
121.863 435 20.8567
121.98 413 20.3224
122.097 410 20.2485
122.213 376 19.3907
122.33 376 19.3907
122.446 316 17.7764
122.563 282 16.7929
122.679 278 16.6733
122.795 246 15.6844
122.912 250 15.8114
123.028 235 15.3297
123.144 204 14.2829
123.26 192 13.8564
123.377 0 1
123.493 0 1
123.609 0 1
123.725 0 1
123.84 0 1
123.956 0 1
124.072 0 1
124.188 0 1
124.303 0 1
124.419 0 1
126.852 0 1
126.968 0 1
127.083 0 1
127.199 0 1
127.315 0 1
127.431 0 1
127.547 0 1
127.663 0 1
127.779 0 1
127.895 0 1
128.011 0 1
128.127 0 1
128.243 0 1
128.359 473 21.7486
128.476 473 21.7486
128.592 516 22.7156
128.708 507 22.5167
128.825 507 22.5167
128.941 497 22.2935
129.058 525 22.9129
129.174 521 22.8254
129.291 495 22.2486
129.408 473 21.7486
129.524 507 22.5167
129.641 474 21.7715
129.758 527 22.9565
129.875 513 22.6495
129.992 498 22.3159
130.108 481 21.9317
130.225 514 22.6716
130.342 500 22.3607
130.459 508 22.5389
130.576 502 22.4054
130.693 484 22
130.81 459 21.4243
130.928 462 21.4942
131.045 452 21.2603
131.162 445 21.095
131.279 483 21.9773
131.396 494 22.2261
131.513 518 22.7596
131.631 485 22.0227
131.748 465 21.5639
131.865 455 21.3307
131.983 437 20.9045
132.1 462 21.4942
132.217 499 22.3383
132.335 521 22.8254
132.452 478 21.8632
132.57 506 22.4944
132.687 521 22.8254
132.804 525 22.9129
132.922 505 22.4722
133.039 512 22.6274
133.157 490 22.1359
133.274 542 23.2809
133.392 510 22.5832
133.509 503 22.4277
133.627 497 22.2935
133.744 486 22.0454
133.862 464 21.5407
133.979 491 22.1585
134.097 509 22.561
134.214 453 21.2838
134.332 463 21.5174
134.449 463 21.5174
134.567 448 21.166
134.684 476 21.8174
134.802 508 22.5389
134.919 493 22.2036
135.037 493 22.2036
135.154 454 21.3073
135.272 442 21.0238
135.389 450 21.2132
135.507 513 22.6495
135.624 461 21.4709
135.742 469 21.6564
135.859 481 21.9317
135.977 462 21.4942
136.094 488 22.0907
136.211 496 22.2711
136.329 519 22.7816
136.446 533 23.0868
136.564 544 23.3238
136.681 561 23.6854
136.798 537 23.1733
136.915 522 22.8473
137.033 555 23.5584
137.15 520 22.8035
137.267 506 22.4944
137.384 518 22.7596
137.502 481 21.9317
137.619 522 22.8473
137.736 519 22.7816
137.853 417 20.4206
137.97 496 22.2711
138.087 457 21.3776
138.204 510 22.5832
138.321 497 22.2935
138.438 480 21.9089
138.555 513 22.6495
138.672 474 21.7715
138.788 514 22.6716
138.905 446 21.1187
139.022 433 20.8087
139.139 399 19.975
139.255 410 20.2485
139.372 447 21.1424
139.488 423 20.567
139.605 350 18.7083
139.721 330 18.1659
139.838 315 17.7482
139.954 302 17.3781
140.071 307 17.5214
140.187 281 16.7631
140.303 248 15.748
140.419 228 15.0997
140.535 214 14.6287
140.652 235 15.3297
140.768 0 1
140.884 0 1
141 0 1
141.115 0 1
141.231 0 1
141.347 0 1
141.463 0 1
141.578 0 1
141.694 0 1
144.104 0 1
144.219 0 1
144.335 0 1
144.45 0 1
144.566 0 1
144.682 0 1
144.798 0 1
144.914 0 1
145.03 0 1
145.146 341 18.4662
145.262 382 19.5448
145.378 392 19.799
145.494 389 19.7231
145.61 417 20.4206
145.726 434 20.8327
145.842 422 20.5426
145.959 426 20.6398
146.075 401 20.025
146.192 395 19.8746
146.308 364 19.0788
146.425 379 19.4679
146.541 352 18.7617
146.658 397 19.9249
146.774 372 19.2873
146.891 338 18.3848
147.008 403 20.0749
147.125 368 19.1833
147.241 396 19.8997
147.358 373 19.3132
147.475 354 18.8149
147.592 391 19.7737
147.709 365 19.105
147.826 339 18.412
147.943 376 19.3907
148.06 354 18.8149
148.177 360 18.9737
148.294 345 18.5742
148.411 400 20
148.528 404 20.0998
148.645 355 18.8414
148.762 393 19.8242
148.88 387 19.6723
148.997 374 19.3391
149.114 388 19.6977
149.231 387 19.6723
149.349 407 20.1742
149.466 411 20.2731
149.583 377 19.4165
149.701 379 19.4679
149.818 387 19.6723
149.935 348 18.6548
150.053 393 19.8242
150.17 327 18.0831
150.287 328 18.1108
150.405 356 18.868
150.522 338 18.3848
150.64 347 18.6279
150.757 324 18
150.875 380 19.4936
150.992 387 19.6723
151.11 375 19.3649
151.227 361 19
151.344 379 19.4679
151.462 348 18.6548
151.579 347 18.6279
151.697 348 18.6548
151.814 345 18.5742
151.932 337 18.3576
152.049 328 18.1108
152.167 363 19.0526
152.284 351 18.735
152.402 359 18.9473
152.519 400 20
152.636 375 19.3649
152.754 366 19.1311
152.871 377 19.4165
152.989 391 19.7737
153.106 352 18.7617
153.223 366 19.1311
153.341 390 19.7484
153.458 369 19.2094
153.575 343 18.5203
153.693 385 19.6214
153.81 328 18.1108
153.927 332 18.2209
154.044 331 18.1934
154.162 319 17.8606
154.279 346 18.6011
154.396 337 18.3576
154.513 359 18.9473
154.63 401 20.025
154.747 370 19.2354
154.864 345 18.5742
154.981 340 18.4391
155.098 348 18.6548
155.215 295 17.1756
155.332 332 18.2209
155.449 331 18.1934
155.566 318 17.8326
155.683 334 18.2757
155.8 337 18.3576
155.917 351 18.735
156.033 347 18.6279
156.15 0 1
156.267 0 1
156.383 0 1
156.5 0 1
156.617 0 1
156.733 0 1
156.85 0 1
156.966 0 1
157.082 0 1
157.199 0 1
157.315 0 1
157.431 0 1
157.547 0 1
157.664 0 1
157.78 0 1
157.896 0 1
158.012 0 1
158.128 0 1
158.244 0 1
158.359 0 1
158.475 0 1
158.591 0 1
158.706 0 1
