
6.15755 0 1
6.2731 0 1
6.3887 0 1
6.50437 0 1
6.62009 0 1
6.73587 0 1
6.8517 0 1
6.96759 0 1
7.08353 0 1
7.19952 0 1
7.31557 0 1
7.43166 0 1
7.54781 0 1
7.664 0 1
7.78024 0 1
7.89653 0 1
8.01286 0 1
8.12924 0 1
8.24567 0 1
8.36213 0 1
8.47864 0 1
8.59519 0 1
8.71178 0 1
8.82841 0 1
8.94508 0 1
9.06179 0 1
9.17853 0 1
9.29531 0 1
9.41212 0 1
9.52897 0 1
9.64584 0 1
9.76276 0 1
9.8797 0 1
9.99667 0 1
10.1137 0 1
10.2307 0 1
10.3478 0 1
10.4648 0 1
10.5819 0 1
10.6991 0 1
10.8162 0 1
10.9334 0 1
11.0506 0 1
11.1678 0 1
11.285 0 1
11.4023 0 1
11.5196 0 1
11.6369 0 1
11.7542 0 1
11.8715 0 1
11.9888 0 1
12.1062 0 1
12.2235 0 1
12.3409 0 1
12.4582 0 1
12.5756 0 1
12.693 0 1
12.8104 0 1
12.9278 0 1
13.0452 0 1
13.1626 0 1
13.28 0 1
13.3974 0 1
13.5149 0 1
13.6323 0 1
13.7497 0 1
13.8671 0 1
13.9845 0 1
14.1019 0 1
14.2193 0 1
14.3367 0 1
14.4541 0 1
14.5714 0 1
14.6888 0 1
14.8062 0 1
14.9235 0 1
15.0408 1007 31.7333
15.1581 1010 31.7805
15.2755 1047 32.3574
15.3927 1074 32.7719
15.51 1094 33.0757
15.6273 975 31.225
15.7445 971 31.1609
15.8617 890 29.8329
15.9789 995 31.5436
16.0961 916 30.2655
16.2132 1010 31.7805
16.3304 939 30.6431
16.4475 869 29.4788
16.5646 927 30.4467
16.6816 886 29.7658
16.7986 901 30.0167
16.9156 881 29.6816
17.0326 898 29.9666
17.1496 799 28.2666
17.2665 859 29.3087
17.3833 858 29.2916
17.5002 814 28.5307
17.617 818 28.6007
17.7338 846 29.0861
17.8505 820 28.6356
17.9672 782 27.9643
18.0839 804 28.3549
18.2005 797 28.2312
18.3171 825 28.7228
18.4337 826 28.7402
18.5502 825 28.7228
18.6666 842 29.0172
18.7831 849 29.1376
18.8994 833 28.8617
19.0158 852 29.189
19.1321 832 28.8444
19.2483 777 27.8747
19.3645 770 27.7489
19.4806 679 26.0576
19.5967 666 25.807
19.7128 649 25.4755
19.8288 588 24.2487
19.9447 493 22.2036
20.0606 0 1
20.1764 0 1
20.2922 0 1
20.4079 0 1
20.5236 0 1
20.6392 0 1
20.7548 0 1
20.8702 0 1
23.3078 0 1
23.4233 0 1
23.539 0 1
23.6547 0 1
23.7704 0 1
23.8862 0 1
24.0021 0 1
24.118 0 1
24.234 0 1
24.35 0 1
24.4661 365 19.105
24.5822 430 20.7364
24.6984 515 22.6936
24.8146 589 24.2693
24.9309 655 25.593
25.0472 674 25.9615
25.1636 852 29.189
25.28 896 29.9333
25.3965 961 31
25.513 853 29.2062
25.6296 975 31.225
25.7462 944 30.7246
25.8628 951 30.8383
25.9795 984 31.3688
26.0962 928 30.4631
26.213 904 30.0666
26.3298 900 30
26.4466 798 28.2489
26.5635 801 28.3019
26.6804 753 27.4408
26.7973 767 27.6948
26.9143 753 27.4408
27.0313 748 27.3496
27.1483 756 27.4955
27.2653 825 28.7228
27.3824 750 27.3861
27.4996 821 28.6531
27.6167 809 28.4429
27.7339 880 29.6648
27.8511 806 28.3901
27.9683 836 28.9137
28.0855 818 28.6007
28.2028 831 28.8271
28.3201 847 29.1033
28.4374 877 29.6142
28.5547 931 30.5123
28.6721 917 30.282
28.7894 877 29.6142
28.9068 864 29.3939
29.0242 859 29.3087
29.1416 824 28.7054
29.259 829 28.7924
29.3764 794 28.178
29.4939 765 27.6586
29.6113 772 27.7849
29.7288 800 28.2843
29.8463 754 27.4591
29.9638 707 26.5895
30.0812 718 26.7955
30.1987 687 26.2107
30.3162 717 26.7769
30.4337 784 28
30.5512 788 28.0713
30.6687 850 29.1548
30.7862 776 27.8568
30.9037 795 28.1957
31.0212 839 28.9655
31.1387 885 29.7489
31.2562 838 28.9482
31.3737 885 29.7489
31.4912 862 29.3598
31.6087 842 29.0172
31.7262 786 28.0357
31.8436 810 28.4605
31.9611 785 28.0179
32.0785 787 28.0535
32.1959 743 27.258
32.3134 784 28
32.4308 784 28
32.5482 825 28.7228
32.6655 705 26.5518
32.7829 706 26.5707
32.9002 736 27.1293
33.0176 710 26.6458
33.1349 732 27.0555
33.2522 666 25.807
33.3694 698 26.4197
33.4867 689 26.2488
33.6039 669 25.865
33.7211 628 25.0599
33.8383 673 25.9422
33.9554 719 26.8142
34.0725 782 27.9643
34.1896 712 26.6833
34.3067 701 26.4764
34.4237 766 27.6767
34.5407 742 27.2397
34.6577 784 28
34.7746 796 28.2135
34.8915 736 27.1293
35.0084 778 27.8927
35.1252 737 27.1477
35.242 717 26.7769
35.3587 688 26.2298
35.4755 727 26.9629
35.5921 655 25.593
35.7088 750 27.3861
35.8254 756 27.4955
35.9419 682 26.1151
36.0584 677 26.0192
36.1749 697 26.4008
36.2913 633 25.1595
36.4077 659 25.671
36.524 607 24.6374
36.6403 595 24.3926
36.7565 497 22.2935
36.8727 489 22.1133
36.9889 434 20.8327
37.1049 420 20.4939
37.221 0 1
37.3369 0 1
37.4529 0 1
37.5687 0 1
37.6845 0 1
37.8003 0 1
37.916 0 1
38.0316 0 1
38.1472 0 1
40.5851 0 1
40.7008 0 1
40.8164 0 1
40.9322 0 1
41.048 0 1
41.1639 0 1
41.2798 0 1
41.3958 0 1
41.5118 0 1
41.6279 0 1
41.744 339 18.412
41.8602 384 19.5959
41.9765 419 20.4695
42.0928 456 21.3542
42.2091 444 21.0713
42.3255 455 21.3307
42.4419 522 22.8473
42.5584 584 24.1661
42.675 539 23.2164
42.7915 565 23.7697
42.9081 541 23.2594
43.0248 545 23.3452
43.1415 518 22.7596
43.2582 561 23.6854
43.375 567 23.8118
43.4918 573 23.9374
43.6087 550 23.4521
43.7256 550 23.4521
43.8425 511 22.6053
43.9595 516 22.7156
44.0765 527 22.9565
44.1935 507 22.5167
44.3106 548 23.4094
44.4277 544 23.3238
44.5448 515 22.6936
44.6619 543 23.3024
44.7791 531 23.0434
44.8963 515 22.6936
45.0136 576 24
45.1308 524 22.891
45.2481 603 24.5561
45.3654 582 24.1247
45.4827 565 23.7697
45.6001 526 22.9347
45.7174 554 23.5372
45.8348 535 23.1301
45.9522 507 22.5167
46.0697 486 22.0454
46.1871 494 22.2261
46.3046 520 22.8035
46.422 572 23.9165
46.5395 521 22.8254
46.657 469 21.6564
46.7745 461 21.4709
46.892 502 22.4054
47.0096 506 22.4944
47.1271 571 23.8956
47.2446 572 23.9165
47.3622 527 22.9565
47.4797 518 22.7596
47.5973 510 22.5832
47.7149 561 23.6854
47.8324 492 22.1811
47.95 568 23.8328
48.0675 520 22.8035
48.1851 562 23.7065
48.3027 512 22.6274
48.4202 577 24.0208
48.5378 542 23.2809
48.6554 520 22.8035
48.7729 514 22.6716
48.8904 543 23.3024
49.008 534 23.1084
49.1255 519 22.7816
49.243 518 22.7596
49.3605 460 21.4476
49.478 453 21.2838
49.5955 471 21.7025
49.713 522 22.8473
49.8304 518 22.7596
49.9479 493 22.2036
50.0653 508 22.5389
50.1827 484 22
50.3001 457 21.3776
50.4175 484 22
50.5348 543 23.3024
50.6521 550 23.4521
50.7694 498 22.3159
50.8867 490 22.1359
51.004 536 23.1517
51.1212 518 22.7596
51.2384 503 22.4277
51.3556 530 23.0217
51.4727 543 23.3024
51.5899 541 23.2594
51.707 537 23.1733
51.824 537 23.1733
51.9411 542 23.2809
52.0581 512 22.6274
52.175 561 23.6854
52.2919 581 24.1039
52.4088 542 23.2809
52.5257 516 22.7156
52.6425 538 23.1948
52.7593 489 22.1133
52.876 442 21.0238
52.9927 443 21.0476
53.1094 453 21.2838
53.226 474 21.7715
53.3426 517 22.7376
53.4591 477 21.8403
53.5756 443 21.0476
53.692 418 20.445
53.8084 407 20.1742
53.9248 359 18.9473
54.0411 326 18.0555
54.1573 306 17.4929
54.2735 0 1
54.3896 0 1
54.5057 0 1
54.6217 0 1
54.7377 0 1
54.8537 0 1
54.9695 0 1
55.0853 0 1
55.2011 0 1
55.3168 0 1
55.4324 0 1
57.824 0 1
57.9396 0 1
58.0553 0 1
58.1711 0 1
58.2869 0 1
58.4028 0 1
58.5187 0 1
58.6347 0 1
58.7508 0 1
58.8669 0 1
58.983 454 21.3073
59.0992 508 22.5389
59.2155 592 24.3311
59.3318 642 25.3377
59.4482 711 26.6646
59.5646 669 25.865
59.681 723 26.8887
59.7975 760 27.5681
59.9141 758 27.5318
60.0306 817 28.5832
60.1473 787 28.0535
60.2639 844 29.0517
60.3807 876 29.5973
60.4974 846 29.0861
60.6142 866 29.4279
60.731 806 28.3901
60.8479 842 29.0172
60.9648 793 28.1603
61.0818 837 28.931
61.1987 768 27.7128
61.3158 736 27.1293
61.4328 727 26.9629
61.5499 653 25.5539
61.667 669 25.865
61.7841 721 26.8514
61.9013 741 27.2213
62.0185 728 26.9815
62.1357 708 26.6083
62.253 659 25.671
62.3702 711 26.6646
62.4875 682 26.1151
62.6049 643 25.3574
62.7222 644 25.3772
62.8396 682 26.1151
62.9569 706 26.5707
63.0743 667 25.8263
63.1918 648 25.4558
63.3092 644 25.3772
63.4267 633 25.1595
63.5441 653 25.5539
63.6616 632 25.1396
63.7791 625 25
63.8966 651 25.5147
64.0142 680 26.0768
64.1317 650 25.4951
64.2492 623 24.96
64.3668 649 25.4755
64.4843 633 25.1595
64.6019 660 25.6905
64.7195 641 25.318
64.837 613 24.7588
64.9546 596 24.4131
65.0722 544 23.3238
65.1898 583 24.1454
65.3074 585 24.1868
65.4249 527 22.9565
65.5425 580 24.0832
65.6601 605 24.5967
65.7777 582 24.1247
65.8952 636 25.219
66.0128 683 26.1343
66.1304 632 25.1396
66.2479 596 24.4131
66.3655 669 25.865
66.483 648 25.4558
66.6005 620 24.8998
66.718 643 25.3574
66.8355 604 24.5764
66.953 588 24.2487
67.0705 629 25.0799
67.1879 610 24.6982
67.3054 624 24.98
67.4228 679 26.0576
67.5402 679 26.0576
67.6576 643 25.3574
67.7749 653 25.5539
67.8923 633 25.1595
68.0096 660 25.6905
68.1269 639 25.2784
68.2442 628 25.0599
68.3614 572 23.9165
68.4787 579 24.0624
68.5958 571 23.8956
68.713 508 22.5389
68.8302 517 22.7376
68.9473 532 23.0651
69.0643 566 23.7908
69.1814 578 24.0416
69.2984 605 24.5967
69.4154 610 24.6982
69.5323 580 24.0832
69.6492 630 25.0998
69.7661 572 23.9165
69.8829 629 25.0799
69.9997 586 24.2074
70.1165 568 23.8328
70.2332 558 23.622
70.3499 605 24.5967
70.4665 518 22.7596
70.5831 445 21.095
70.6996 484 22
70.8161 435 20.8567
70.9326 450 21.2132
71.049 384 19.5959
71.1653 373 19.3132
71.2817 368 19.1833
71.3979 346 18.6011
71.5141 318 17.8326
71.6303 286 16.9115
71.7464 264 16.2481
71.8624 0 1
71.9784 0 1
72.0944 0 1
72.2102 0 1
72.3261 0 1
72.4418 0 1
72.5575 0 1
72.6732 0 1
75.1054 0 1
75.2209 0 1
75.3365 0 1
75.4521 0 1
75.5678 0 1
75.6835 0 1
75.7993 0 1
75.9151 0 1
76.031 0 1
76.147 384 19.5959
76.263 424 20.5913
76.3791 453 21.2838
76.4952 523 22.8692
76.6113 516 22.7156
76.7276 542 23.2809
76.8438 539 23.2164
76.9601 565 23.7697
77.0765 524 22.891
77.1929 506 22.4944
77.3093 530 23.0217
77.4258 521 22.8254
77.5423 523 22.8692
77.6589 434 20.8327
77.7755 474 21.7715
77.8921 484 22
78.0088 471 21.7025
78.1256 481 21.9317
78.2423 448 21.166
78.3591 512 22.6274
78.4759 514 22.6716
78.5928 519 22.7816
78.7097 519 22.7816
78.8266 502 22.4054
78.9436 545 23.3452
79.0606 511 22.6053
79.1776 527 22.9565
79.2946 515 22.6936
79.4117 560 23.6643
79.5288 540 23.2379
79.6459 531 23.0434
79.7631 526 22.9347
79.8802 512 22.6274
79.9974 588 24.2487
80.1147 605 24.5967
80.2319 555 23.5584
80.3491 593 24.3516
80.4664 567 23.8118
80.5837 528 22.9783
80.701 533 23.0868
80.8183 521 22.8254
80.9357 560 23.6643
81.053 565 23.7697
81.1704 561 23.6854
81.2877 548 23.4094
81.4051 481 21.9317
81.5225 492 22.1811
81.6399 492 22.1811
81.7573 474 21.7715
81.8747 493 22.2036
81.9922 497 22.2935
82.1096 530 23.0217
82.227 593 24.3516
82.3444 537 23.1733
82.4619 598 24.454
82.5793 537 23.1733
82.6967 574 23.9583
82.8142 548 23.4094
82.9316 559 23.6432
83.049 547 23.388
83.1664 542 23.2809
83.2838 521 22.8254
83.4012 523 22.8692
83.5186 592 24.3311
83.636 567 23.8118
83.7534 596 24.4131
83.8708 583 24.1454
83.9881 577 24.0208
84.1055 597 24.4336
84.2228 570 23.8747
84.3401 593 24.3516
84.4575 582 24.1247
84.5747 528 22.9783
84.692 577 24.0208
84.8093 560 23.6643
84.9265 515 22.6936
85.0437 525 22.9129
85.1609 513 22.6495
85.2781 496 22.2711
85.3952 486 22.0454
85.5123 543 23.3024
85.6294 562 23.7065
85.7465 522 22.8473
85.8636 549 23.4307
85.9806 588 24.2487
86.0976 598 24.454
86.2145 588 24.2487
86.3315 563 23.7276
86.4484 596 24.4131
86.5652 595 24.3926
86.682 554 23.5372
86.7988 579 24.0624
86.9156 562 23.7065
87.0323 561 23.6854
87.149 566 23.7908
87.2657 577 24.0208
87.3823 567 23.8118
87.4988 568 23.8328
87.6154 565 23.7697
87.7318 560 23.6643
87.8483 493 22.2036
87.9647 496 22.2711
88.081 468 21.6333
88.1973 382 19.5448
88.3136 360 18.9737
88.4298 356 18.868
88.546 325 18.0278
88.6621 331 18.1934
88.7781 297 17.2337
88.8942 0 1
89.0101 0 1
89.126 0 1
89.2419 0 1
89.3577 0 1
89.4734 0 1
89.5891 0 1
89.7047 0 1
89.8203 0 1
89.9358 0 1
92.3269 0 1
92.4424 0 1
92.558 0 1
92.6736 0 1
92.7893 0 1
92.905 0 1
93.0208 0 1
93.1366 0 1
93.2525 0 1
93.3685 0 1
93.4845 0 1
93.6005 430 20.7364
93.7167 468 21.6333
93.8328 552 23.4947
93.949 577 24.0208
94.0653 553 23.516
94.1816 540 23.2379
94.2979 502 22.4054
94.4143 471 21.7025
94.5307 560 23.6643
94.6472 461 21.4709
94.7637 560 23.6643
94.8803 579 24.0624
94.9969 592 24.3311
95.1135 643 25.3574
95.2302 623 24.96
95.3469 625 25
95.4637 592 24.3311
95.5805 635 25.1992
95.6973 584 24.1661
95.8142 591 24.3105
95.9311 610 24.6982
96.048 584 24.1661
96.1649 581 24.1039
96.2819 603 24.5561
96.3989 567 23.8118
96.516 569 23.8537
96.633 587 24.2281
96.7501 610 24.6982
96.8673 622 24.9399
96.9844 619 24.8797
97.1016 652 25.5343
97.2188 617 24.8395
97.336 580 24.0832
97.4532 600 24.4949
97.5704 556 23.5797
97.6877 582 24.1247
97.805 555 23.5584
97.9223 546 23.3666
98.0396 568 23.8328
98.1569 551 23.4734
98.2743 550 23.4521
98.3916 603 24.5561
98.509 591 24.3105
98.6264 580 24.0832
98.7438 634 25.1794
98.8612 675 25.9808
98.9786 645 25.3969
99.096 622 24.9399
99.2134 656 25.6125
99.3308 649 25.4755
99.4482 652 25.5343
99.5656 680 26.0768
99.6831 653 25.5539
99.8005 670 25.8844
99.9179 636 25.219
100.035 655 25.593
100.153 668 25.8457
100.27 656 25.6125
100.388 625 25
100.505 667 25.8263
100.622 639 25.2784
100.74 610 24.6982
100.857 665 25.7876
100.975 575 23.9792
101.092 653 25.5539
101.209 618 24.8596
101.327 623 24.96
101.444 627 25.04
101.561 582 24.1247
101.679 564 23.7487
101.796 612 24.7386
101.913 572 23.9165
102.03 594 24.3721
102.148 656 25.6125
102.265 698 26.4197
102.382 664 25.7682
102.499 708 26.6083
102.616 710 26.6458
102.733 692 26.3059
102.851 685 26.1725
102.968 655 25.593
103.085 741 27.2213
103.202 683 26.1343
103.319 669 25.865
103.436 727 26.9629
103.552 702 26.4953
103.669 746 27.313
103.786 716 26.7582
103.903 743 27.258
104.02 767 27.6948
104.137 764 27.6405
104.253 733 27.074
104.37 715 26.7395
104.487 701 26.4764
104.603 693 26.3249
104.72 698 26.4197
104.836 684 26.1534
104.953 694 26.3439
105.069 648 25.4558
105.186 626 25.02
105.302 589 24.2693
105.418 537 23.1733
105.535 530 23.0217
105.651 500 22.3607
105.767 493 22.2036
105.883 420 20.4939
105.999 405 20.1246
106.115 0 1
106.231 0 1
106.347 0 1
106.463 0 1
106.579 0 1
106.694 0 1
106.81 0 1
106.926 0 1
107.041 0 1
107.157 0 1
109.576 0 1
109.692 0 1
109.807 0 1
109.923 0 1
110.039 0 1
110.155 0 1
110.27 0 1
110.386 0 1
110.502 0 1
110.618 298 17.2627
110.735 420 20.4939
110.851 482 21.9545
110.967 544 23.3238
111.083 630 25.0998
111.199 635 25.1992
111.316 646 25.4165
111.432 652 25.5343
111.549 752 27.4226
111.665 721 26.8514
111.782 649 25.4755
111.898 657 25.632
112.015 632 25.1396
112.132 610 24.6982
112.248 662 25.7294
112.365 608 24.6577
112.482 664 25.7682
112.599 683 26.1343
112.716 669 25.865
112.832 661 25.7099
112.949 680 26.0768
113.066 628 25.0599
113.183 625 25
113.3 617 24.8395
113.417 608 24.6577
113.534 613 24.7588
113.652 640 25.2982
113.769 610 24.6982
113.886 569 23.8537
114.003 521 22.8254
114.12 531 23.0434
114.238 517 22.7376
114.355 517 22.7376
114.472 576 24
114.589 577 24.0208
114.707 598 24.454
114.824 562 23.7065
114.942 570 23.8747
115.059 606 24.6171
115.176 633 25.1595
115.294 585 24.1868
115.411 582 24.1247
115.529 545 23.3452
115.646 563 23.7276
115.764 549 23.4307
115.881 600 24.4949
115.999 569 23.8537
116.116 617 24.8395
116.234 541 23.2594
116.351 590 24.2899
116.469 565 23.7697
116.586 542 23.2809
116.704 558 23.622
116.821 519 22.7816
116.939 530 23.0217
117.056 613 24.7588
117.174 592 24.3311
117.291 577 24.0208
117.409 577 24.0208
117.526 522 22.8473
117.644 539 23.2164
117.761 480 21.9089
117.879 492 22.1811
117.996 500 22.3607
118.114 541 23.2594
118.231 479 21.8861
118.349 528 22.9783
118.466 562 23.7065
118.584 611 24.7184
118.701 582 24.1247
118.819 582 24.1247
118.936 520 22.8035
119.053 530 23.0217
119.171 512 22.6274
119.288 493 22.2036
119.405 520 22.8035
119.523 537 23.1733
119.64 542 23.2809
119.757 499 22.3383
119.875 513 22.6495
119.992 566 23.7908
120.109 547 23.388
120.226 506 22.4944
120.343 522 22.8473
120.46 507 22.5167
120.578 477 21.8403
120.695 517 22.7376
120.812 535 23.1301
120.929 518 22.7596
121.046 501 22.383
121.163 481 21.9317
121.279 451 21.2368
121.396 454 21.3073
121.513 427 20.664
121.63 404 20.0998
121.747 418 20.445
121.863 443 21.0476
121.98 416 20.3961
122.097 429 20.7123
122.213 438 20.9284
122.33 419 20.4695
122.446 432 20.7846
122.563 428 20.6882
122.679 408 20.199
122.795 328 18.1108
122.912 301 17.3494
123.028 313 17.6918
123.144 306 17.4929
123.26 294 17.1464
123.377 0 1
123.493 0 1
123.609 0 1
123.725 0 1
123.84 0 1
123.956 0 1
124.072 0 1
124.188 0 1
124.303 0 1
124.419 0 1
126.852 0 1
126.968 0 1
127.083 0 1
127.199 0 1
127.315 0 1
127.431 0 1
127.547 0 1
127.663 0 1
127.779 0 1
127.895 0 1
128.011 0 1
128.127 0 1
128.243 0 1
128.359 527 22.9565
128.476 548 23.4094
128.592 561 23.6854
128.708 571 23.8956
128.825 594 24.3721
128.941 564 23.7487
129.058 593 24.3516
129.174 595 24.3926
129.291 575 23.9792
129.408 606 24.6171
129.524 602 24.5357
129.641 583 24.1454
129.758 580 24.0832
129.875 620 24.8998
129.992 629 25.0799
130.108 632 25.1396
130.225 627 25.04
130.342 561 23.6854
130.459 560 23.6643
130.576 573 23.9374
130.693 505 22.4722
130.81 581 24.1039
130.928 537 23.1733
131.045 672 25.923
131.162 649 25.4755
131.279 762 27.6043
131.396 757 27.5136
131.513 760 27.5681
131.631 771 27.7669
131.748 824 28.7054
131.865 782 27.9643
131.983 798 28.2489
132.1 818 28.6007
132.217 869 29.4788
132.335 844 29.0517
132.452 941 30.6757
132.57 984 31.3688
132.687 990 31.4643
132.804 1110 33.3167
132.922 1021 31.9531
133.039 1037 32.2025
133.157 1179 34.3366
133.274 1066 32.6497
133.392 1047 32.3574
133.509 1085 32.9393
133.627 1110 33.3167
133.744 1136 33.7046
133.862 1068 32.6803
133.979 1051 32.4191
134.097 929 30.4795
134.214 967 31.0966
134.332 975 31.225
134.449 935 30.5778
134.567 975 31.225
134.684 1143 33.8083
134.802 1145 33.8378
134.919 1155 33.9853
135.037 1151 33.9264
135.154 1123 33.5112
135.272 1135 33.6898
135.389 1126 33.5559
135.507 1053 32.45
135.624 1054 32.4654
135.742 1122 33.4963
135.859 1059 32.5423
135.977 1108 33.2866
136.094 1177 34.3074
136.211 1130 33.6155
136.329 1229 35.0571
136.446 1134 33.6749
136.564 1131 33.6303
136.681 1156 34
136.798 1188 34.4674
136.915 1214 34.8425
137.033 1180 34.3511
137.15 1186 34.4384
137.267 1172 34.2345
137.384 1179 34.3366
137.502 1130 33.6155
137.619 1138 33.7343
137.736 1066 32.6497
137.853 962 31.0161
137.97 985 31.3847
138.087 930 30.4959
138.204 1077 32.8177
138.321 1190 34.4964
138.438 1213 34.8281
138.555 1257 35.4542
138.672 1338 36.5787
138.788 1224 34.9857
138.905 1188 34.4674
139.022 1188 34.4674
139.139 1063 32.6037
139.255 1027 32.0468
139.372 998 31.5911
139.488 1009 31.7648
139.605 952 30.8545
139.721 940 30.6594
139.838 915 30.249
139.954 956 30.9192
140.071 820 28.6356
140.187 811 28.4781
140.303 741 27.2213
140.419 745 27.2947
140.535 737 27.1477
140.652 687 26.2107
140.768 0 1
140.884 0 1
141 0 1
141.115 0 1
141.231 0 1
141.347 0 1
141.463 0 1
141.578 0 1
141.694 0 1
144.104 0 1
144.219 0 1
144.335 0 1
144.45 0 1
144.566 0 1
144.682 0 1
144.798 0 1
144.914 0 1
145.03 0 1
145.146 1742 41.7373
145.262 1837 42.8602
145.378 1922 43.8406
145.494 2050 45.2769
145.61 2018 44.9222
145.726 2024 44.9889
145.842 2043 45.1996
145.959 2069 45.4863
146.075 2076 45.5631
146.192 2113 45.9674
146.308 1918 43.795
146.425 1930 43.9318
146.541 1643 40.5339
146.658 1315 36.2629
146.774 1211 34.7994
146.891 1409 37.5366
147.008 1873 43.2782
147.125 1954 44.2041
147.241 2090 45.7165
147.358 2085 45.6618
147.475 2067 45.4643
147.592 2028 45.0333
147.709 1955 44.2154
147.826 1965 44.3283
147.943 1916 43.7721
148.06 1879 43.3474
148.177 1777 42.1545
148.294 1753 41.8688
148.411 1888 43.4511
148.528 1850 43.0116
148.645 1844 42.9418
148.762 1882 43.382
148.88 1844 42.9418
148.997 1806 42.4971
149.114 1745 41.7732
149.231 1814 42.5911
149.349 1823 42.6966
149.466 1808 42.5206
149.583 1806 42.4971
149.701 1867 43.2088
149.818 1779 42.1782
149.935 1774 42.1189
150.053 1807 42.5088
150.17 1504 38.7814
150.287 1277 35.7351
150.405 1119 33.4515
150.522 1213 34.8281
150.64 1392 37.3095
150.757 1663 40.7799
150.875 1762 41.9762
150.992 1732 41.6173
151.11 1756 41.9047
151.227 1787 42.2729
151.344 1760 41.9524
151.462 1702 41.2553
151.579 1535 39.1791
151.697 1613 40.1622
151.814 1649 40.6079
151.932 1655 40.6817
152.049 1650 40.6202
152.167 1709 41.3401
152.284 1772 42.0951
152.402 1709 41.3401
152.519 1756 41.9047
152.636 1772 42.0951
152.754 1715 41.4126
152.871 1690 41.1096
152.989 1852 43.0349
153.106 1852 43.0349
153.223 1818 42.638
153.341 1754 41.8808
153.458 1760 41.9524
153.575 1788 42.2847
153.693 1629 40.3609
153.81 1379 37.1349
153.927 1259 35.4824
154.044 1213 34.8281
154.162 1359 36.8646
154.279 1532 39.1408
154.396 1576 39.6989
154.513 1697 41.1947
154.63 1678 40.9634
154.747 1795 42.3674
154.864 1593 39.9124
154.981 1556 39.4462
155.098 1528 39.0896
155.215 1509 38.8458
155.332 1552 39.3954
155.449 1558 39.4715
155.566 1553 39.4081
155.683 1516 38.9358
155.8 1635 40.4351
155.917 1632 40.398
156.033 1598 39.975
156.15 0 1
156.267 0 1
156.383 0 1
156.5 0 1
156.617 0 1
156.733 0 1
156.85 0 1
156.966 0 1
157.082 0 1
157.199 0 1
157.315 0 1
157.431 0 1
157.547 0 1
157.664 0 1
157.78 0 1
157.896 0 1
158.012 0 1
158.128 0 1
158.244 0 1
158.359 0 1
158.475 0 1
158.591 0 1
158.706 0 1
