
6.15755 0 1
6.2731 0 1
6.3887 0 1
6.50437 0 1
6.62009 0 1
6.73587 0 1
6.8517 0 1
6.96759 0 1
7.08353 0 1
7.19952 0 1
7.31557 0 1
7.43166 0 1
7.54781 0 1
7.664 0 1
7.78024 0 1
7.89653 0 1
8.01286 0 1
8.12924 0 1
8.24567 0 1
8.36213 0 1
8.47864 0 1
8.59519 0 1
8.71178 0 1
8.82841 0 1
8.94508 0 1
9.06179 0 1
9.17853 0 1
9.29531 0 1
9.41212 0 1
9.52897 0 1
9.64584 0 1
9.76276 0 1
9.8797 0 1
9.99667 0 1
10.1137 0 1
10.2307 0 1
10.3478 0 1
10.4648 0 1
10.5819 0 1
10.6991 0 1
10.8162 0 1
10.9334 0 1
11.0506 0 1
11.1678 0 1
11.285 0 1
11.4023 0 1
11.5196 0 1
11.6369 0 1
11.7542 0 1
11.8715 0 1
11.9888 0 1
12.1062 0 1
12.2235 0 1
12.3409 0 1
12.4582 0 1
12.5756 0 1
12.693 0 1
12.8104 0 1
12.9278 0 1
13.0452 0 1
13.1626 0 1
13.28 0 1
13.3974 0 1
13.5149 0 1
13.6323 0 1
13.7497 0 1
13.8671 0 1
13.9845 0 1
14.1019 0 1
14.2193 0 1
14.3367 0 1
14.4541 0 1
14.5714 0 1
14.6888 0 1
14.8062 0 1
14.9235 0 1
15.0408 89714 299.523
15.1581 93572 305.895
15.2755 96844 311.198
15.3927 98554 313.933
15.51 99994 316.218
15.6273 98504 313.853
15.7445 98003 313.054
15.8617 95535 309.087
15.9789 91856 303.078
16.0961 94098 306.754
16.2132 96540 310.709
16.3304 101570 318.7
16.4475 105543 324.874
16.5646 108339 329.149
16.6816 108537 329.45
16.7986 107935 328.535
16.9156 108902 330.003
17.0326 108657 329.632
17.1496 107688 328.158
17.2665 106958 327.044
17.3833 103377 321.523
17.5002 99148 314.878
17.617 95600 309.192
17.7338 93396 305.608
17.8505 94767 307.842
17.9672 98331 313.578
18.0839 101316 318.302
18.2005 104602 323.422
18.3171 106958 327.044
18.4337 108760 329.788
18.5502 111144 333.383
18.6666 112493 335.4
18.7831 113676 337.159
18.8994 112060 334.754
19.0158 110179 331.932
19.1321 106660 326.588
19.2483 102469 320.108
19.3645 98143 313.278
19.4806 94550 307.49
19.5967 93199 305.285
19.7128 97004 311.455
19.8288 100143 316.454
19.9447 95904 309.684
20.0606 0 1
20.1764 0 1
20.2922 0 1
20.4079 0 1
20.5236 0 1
20.6392 0 1
20.7548 0 1
20.8702 0 1
23.3078 0 1
23.4233 0 1
23.539 0 1
23.6547 0 1
23.7704 0 1
23.8862 0 1
24.0021 0 1
24.118 0 1
24.234 0 1
24.35 0 1
24.4661 95637 309.252
24.5822 94545 307.482
24.6984 96830 311.175
24.8146 101563 318.69
24.9309 106712 326.668
25.0472 111202 333.47
25.1636 113204 336.458
25.28 113981 337.611
25.3965 113852 337.42
25.513 115240 339.47
25.6296 116648 341.538
25.7462 116586 341.447
25.8628 115532 339.9
25.9795 110790 332.851
26.0962 106343 326.103
26.213 100372 316.815
26.3298 98308 313.541
26.4466 96708 310.979
26.5635 99888 316.051
26.6804 104897 323.878
26.7973 107277 327.532
26.9143 108683 329.671
27.0313 111582 334.039
27.1483 114382 338.204
27.2653 115656 340.082
27.3824 116362 341.119
27.4996 116305 341.035
27.6167 113078 336.271
27.7339 110283 332.089
27.8511 105602 324.965
27.9683 99670 315.706
28.0855 95245 308.618
28.2028 94614 307.594
28.3201 97393 312.079
28.4374 103858 322.27
28.5547 108712 329.715
28.6721 112235 335.015
28.7894 113937 337.546
28.9068 113031 336.201
29.0242 112588 335.541
29.1416 112181 334.934
29.259 111511 333.933
29.3764 109746 331.279
29.4939 104183 322.774
29.6113 98195 313.361
29.7288 93039 305.023
29.8463 90146 300.243
29.9638 88300 297.153
30.0812 90478 300.796
30.1987 95087 308.362
30.3162 98675 314.126
30.4337 101520 318.622
30.5512 104702 323.577
30.6687 106002 325.579
30.7862 109323 330.64
30.9037 108964 330.097
31.0212 110137 331.869
31.1387 109351 330.683
31.2562 106774 326.763
31.3737 102722 320.503
31.4912 97482 312.221
31.6087 92243 303.715
31.7262 90973 301.617
31.8436 93687 306.083
31.9611 98702 314.169
32.0785 103557 321.803
32.1959 107604 328.03
32.3134 107917 328.507
32.4308 108549 329.468
32.5482 108520 329.424
32.6655 107934 328.533
32.7829 107837 328.385
32.9002 106953 327.037
33.0176 105105 324.199
33.1349 102242 319.753
33.2522 96340 310.387
33.3694 90104 300.173
33.4867 86760 294.551
33.6039 84025 289.871
33.7211 84000 289.828
33.8383 88104 296.823
33.9554 91764 302.926
34.0725 94125 306.798
34.1896 97195 311.761
34.3067 100909 317.662
34.4237 101040 317.868
34.5407 102693 320.457
34.6577 103352 321.484
34.7746 103327 321.445
34.8915 101962 319.315
35.0084 99293 315.108
35.1252 94854 307.984
35.242 90027 300.045
35.3587 85870 293.036
35.4755 85643 292.648
35.5921 89299 298.829
35.7088 94355 307.173
35.8254 98495 313.839
35.9419 102050 319.453
36.0584 102711 320.486
36.1749 103482 321.686
36.2913 102689 320.451
36.4077 102267 319.792
36.524 101622 318.782
36.6403 100974 317.764
36.7565 97863 312.831
36.8727 92629 304.35
36.9889 86953 294.878
37.1049 81902 286.185
37.221 0 1
37.3369 0 1
37.4529 0 1
37.5687 0 1
37.6845 0 1
37.8003 0 1
37.916 0 1
38.0316 0 1
38.1472 0 1
40.5851 0 1
40.7008 0 1
40.8164 0 1
40.9322 0 1
41.048 0 1
41.1639 0 1
41.2798 0 1
41.3958 0 1
41.5118 0 1
41.6279 0 1
41.744 79989 282.823
41.8602 84278 290.307
41.9765 83880 289.62
42.0928 79982 282.811
42.2091 73648 271.382
42.3255 69086 262.842
42.4419 65823 256.56
42.5584 64026 253.034
42.675 65942 256.792
42.7915 69589 263.797
42.9081 72702 269.633
43.0248 74491 272.93
43.1415 76557 276.689
43.2582 76979 277.451
43.375 77394 278.198
43.4918 77741 278.821
43.6087 77955 279.204
43.7256 76322 276.264
43.8425 74766 273.434
43.9595 71366 267.144
44.0765 69423 263.482
44.1935 65032 255.014
44.3106 62124 249.247
44.4277 60658 246.288
44.5448 61974 248.946
44.6619 64503 253.974
44.7791 65942 256.792
44.8963 66963 258.772
45.0136 66165 257.226
45.1308 65582 256.09
45.2481 64598 254.161
45.3654 64014 253.01
45.4827 62235 249.469
45.6001 60132 245.218
45.7174 56344 237.369
45.8348 52540 229.216
45.9522 49608 222.729
46.0697 46912 216.592
46.1871 45955 214.371
46.3046 47597 218.167
46.422 50577 224.893
46.5395 52937 230.08
46.657 53963 232.299
46.7745 54159 232.721
46.892 55063 234.655
47.0096 54775 234.041
47.1271 54800 234.094
47.2446 54302 233.028
47.3622 53625 231.571
47.4797 52378 228.862
47.5973 50811 225.413
47.7149 48995 221.348
47.8324 46490 215.615
47.95 44612 211.216
48.0675 45226 212.664
48.1851 47157 217.157
48.3027 49440 222.351
48.4202 51184 226.239
48.5378 51419 226.758
48.6554 51669 227.308
48.7729 51685 227.343
48.8904 52206 228.486
49.008 51913 227.844
49.1255 50113 223.859
49.243 47482 217.904
49.3605 44652 211.31
49.478 42219 205.473
49.5955 41211 203.005
49.713 41042 202.588
49.8304 43394 208.312
49.9479 47965 219.009
50.0653 51219 226.316
50.1827 53150 230.543
50.3001 56667 238.048
50.4175 57444 239.675
50.5348 58573 242.019
50.6521 61048 247.079
50.7694 61528 248.048
50.8867 62578 250.156
51.004 63489 251.97
51.1212 62826 250.651
51.2384 63268 251.531
51.3556 61300 247.588
51.4727 61050 247.083
51.5899 62255 249.51
51.707 66388 257.659
51.824 71717 267.8
51.9411 75021 273.9
52.0581 77402 278.212
52.175 78885 280.865
52.2919 79945 282.745
52.4088 80539 283.794
52.5257 82621 287.439
52.6425 82771 287.699
52.7593 80617 283.931
52.876 76329 276.277
52.9927 70649 265.799
53.1094 66985 258.815
53.226 64156 253.29
53.3426 64665 254.293
53.4591 69313 263.274
53.5756 76719 276.982
53.692 83493 288.952
53.8084 88380 297.288
53.9248 91258 302.089
54.0411 94102 306.76
54.1573 95569 309.142
54.2735 0 1
54.3896 0 1
54.5057 0 1
54.6217 0 1
54.7377 0 1
54.8537 0 1
54.9695 0 1
55.0853 0 1
55.2011 0 1
55.3168 0 1
55.4324 0 1
57.824 0 1
57.9396 0 1
58.0553 0 1
58.1711 0 1
58.2869 0 1
58.4028 0 1
58.5187 0 1
58.6347 0 1
58.7508 0 1
58.8669 0 1
58.983 104125 322.684
59.0992 112104 334.819
59.2155 115531 339.899
59.3318 117163 342.291
59.4482 118604 344.389
59.5646 119400 345.543
59.681 119621 345.863
59.7975 119490 345.673
59.9141 117456 342.719
60.0306 115801 340.295
60.1473 111231 333.513
60.2639 108059 328.723
60.3807 107755 328.261
60.4974 109541 330.97
60.6142 114630 338.571
60.731 118406 344.102
60.8479 120317 346.867
60.9648 120466 347.082
61.0818 120405 346.994
61.1987 118540 344.296
61.3158 117623 342.962
61.4328 112671 335.665
61.5499 104799 323.727
61.667 95860 309.613
61.7841 89226 298.707
61.9013 83419 288.823
62.0185 83317 288.647
62.1357 88508 297.503
62.253 95919 309.708
62.3702 102852 320.705
62.4875 106625 326.535
62.6049 109471 330.864
62.7222 110312 332.133
62.8396 112155 334.896
62.9569 111756 334.299
63.0743 111669 334.169
63.1918 111342 333.679
63.3092 110409 332.278
63.4267 108646 329.615
63.5441 105788 325.251
63.6616 102188 319.669
63.7791 97442 312.157
63.8966 95683 309.327
64.0142 96594 310.796
64.1317 101206 318.129
64.2492 103928 322.379
64.3668 105506 324.817
64.4843 105303 324.504
64.6019 104731 323.622
64.7195 103672 321.981
64.837 102639 320.373
64.9546 100147 316.46
65.0722 95357 308.799
65.1898 86780 294.584
65.3074 80271 283.321
65.4249 72604 269.451
65.5425 69355 263.353
65.6601 69808 264.212
65.7777 75153 274.14
65.8952 83076 288.229
66.0128 89712 299.52
66.1304 92701 304.468
66.2479 94693 307.722
66.3655 95900 309.677
66.483 96546 310.719
66.6005 96877 311.251
66.718 97810 312.746
66.8355 97893 312.879
66.953 98049 313.128
67.0705 96650 310.886
67.1879 95887 309.656
67.3054 93045 305.033
67.4228 89577 299.294
67.5402 86818 294.649
67.6576 87568 295.919
67.7749 90388 300.646
67.8923 96731 311.016
68.0096 98492 313.834
68.1269 99177 314.924
68.2442 98657 314.097
68.3614 98796 314.318
68.4787 97729 312.616
68.5958 98562 313.946
68.713 95084 308.357
68.8302 87805 296.319
68.9473 80102 283.023
69.0643 73526 271.157
69.1814 69864 264.318
69.2984 68129 261.015
69.4154 73678 271.437
69.5323 83001 288.099
69.6492 90907 301.508
69.7661 96384 310.458
69.8829 97958 312.982
69.9997 99768 315.861
70.1165 100180 316.512
70.2332 102103 319.536
70.3499 102725 320.507
70.4665 104018 322.518
70.5831 104154 322.729
70.6996 103471 321.669
70.8161 103849 322.256
70.9326 102020 319.406
71.049 99486 315.414
71.1653 93433 305.668
71.2817 90171 300.285
71.3979 89680 299.466
71.5141 91778 302.949
71.6303 95801 309.517
71.7464 94076 306.718
71.8624 0 1
71.9784 0 1
72.0944 0 1
72.2102 0 1
72.3261 0 1
72.4418 0 1
72.5575 0 1
72.6732 0 1
75.1054 0 1
75.2209 0 1
75.3365 0 1
75.4521 0 1
75.5678 0 1
75.6835 0 1
75.7993 0 1
75.9151 0 1
76.031 0 1
76.147 95312 308.726
76.263 99462 315.376
76.3791 95659 309.288
76.4952 90559 300.93
76.6113 92686 304.444
76.7276 97759 312.664
76.8438 103663 321.967
76.9601 106114 325.751
77.0765 106313 326.057
77.1929 105194 324.336
77.3093 105131 324.239
77.4258 104689 323.557
77.5423 102831 320.673
77.6589 95184 308.519
77.7755 86285 293.743
77.8921 77731 278.803
78.0088 71800 267.955
78.1256 67557 259.917
78.2423 66414 257.709
78.3591 72365 269.007
78.4759 82651 287.491
78.5928 90154 300.257
78.7097 93664 306.046
78.8266 94479 307.374
78.9436 99980 316.196
79.0606 97627 312.453
79.1776 99624 315.633
79.2946 101182 318.091
79.4117 102405 320.008
79.5288 101780 319.03
79.6459 102826 320.665
79.7631 101558 318.682
79.8802 101070 317.915
79.9974 96681 310.936
80.1147 91253 302.081
80.2319 91106 301.838
80.3491 94211 306.938
80.4664 99569 315.546
80.5837 103210 321.263
80.701 103168 321.198
80.8183 103293 321.392
80.9357 103467 321.663
81.053 101912 319.237
81.1704 102824 320.662
81.2877 100537 317.076
81.4051 92728 304.513
81.5225 84085 289.974
81.6399 74773 273.447
81.7573 71457 267.314
81.8747 66538 257.95
81.9922 70399 265.328
82.1096 79752 282.404
82.227 88965 298.27
82.3444 92559 304.235
82.4619 96886 311.265
82.5793 99181 314.93
82.6967 97904 312.896
82.8142 101857 319.15
82.9316 103675 321.986
83.049 103945 322.405
83.1664 104835 323.782
83.2838 105290 324.484
83.4012 106392 326.178
83.5186 104530 323.311
83.636 101611 318.765
83.7534 95640 309.257
83.8708 93625 305.982
83.9881 95859 309.611
84.1055 101479 318.558
84.2228 108675 329.659
84.3401 108830 329.894
84.4575 110090 331.798
84.5747 110583 332.54
84.692 109250 330.53
84.8093 109214 330.475
84.9265 103206 321.257
85.0437 93442 305.683
85.1609 84673 290.986
85.2781 78823 280.754
85.3952 74475 272.901
85.5123 74104 272.22
85.6294 81431 285.361
85.7465 92833 304.685
85.8636 101591 318.733
85.9806 106392 326.178
86.0976 110477 332.381
86.2145 114480 338.349
86.3315 119393 345.533
86.4484 124254 352.497
86.5652 127672 357.312
86.682 131371 362.451
86.7988 133971 366.02
86.9156 134482 366.718
87.0323 136676 369.697
87.149 135527 368.14
87.2657 133225 365
87.3823 128019 357.797
87.4988 129691 360.126
87.6154 137637 370.995
87.7318 149135 386.18
87.8483 154827 393.481
87.9647 159601 399.501
88.081 161482 401.848
88.1973 163122 403.884
88.3136 164935 406.122
88.4298 162028 402.527
88.546 152224 390.159
88.6621 137481 370.784
88.7781 124839 353.326
88.8942 0 1
89.0101 0 1
89.126 0 1
89.2419 0 1
89.3577 0 1
89.4734 0 1
89.5891 0 1
89.7047 0 1
89.8203 0 1
89.9358 0 1
92.3269 0 1
92.4424 0 1
92.558 0 1
92.6736 0 1
92.7893 0 1
92.905 0 1
93.0208 0 1
93.1366 0 1
93.2525 0 1
93.3685 0 1
93.4845 0 1
93.6005 164239 405.264
93.7167 162071 402.58
93.8328 152340 390.308
93.949 139497 373.493
94.0653 126884 356.208
94.1816 119330 345.442
94.2979 112996 336.149
94.4143 112933 336.055
94.5307 118340 344.006
94.6472 129452 359.794
94.7637 138134 371.664
94.8803 143469 378.773
94.9969 149063 386.087
95.1135 154483 393.043
95.2302 157675 397.083
95.3469 161724 402.149
95.4637 163445 404.283
95.5805 165374 406.662
95.6973 165924 407.338
95.8142 165577 406.912
95.9311 164452 405.527
96.048 161322 401.649
96.1649 157147 396.418
96.2819 150558 388.018
96.3989 144117 379.627
96.516 141419 376.057
96.633 142844 377.947
96.7501 146206 382.369
96.8673 149864 387.123
96.9844 149753 386.979
97.1016 146955 383.347
97.2188 143927 379.377
97.336 141724 376.462
97.4532 136044 368.841
97.5704 126292 355.376
97.6877 114082 337.76
97.805 101888 319.199
97.9223 93568 305.889
98.0396 87065 295.068
98.1569 84032 289.883
98.2743 86545 294.185
98.3916 93214 305.31
98.509 99545 315.508
98.6264 102798 320.621
98.7438 106240 325.945
98.8612 110252 332.042
98.9786 112830 335.902
99.096 113089 336.287
99.2134 114745 338.74
99.3308 113736 337.248
99.4482 113772 337.301
99.5656 112407 335.272
99.6831 110697 332.712
99.8005 108404 329.248
99.9179 105608 324.974
100.035 100670 317.285
100.153 100565 317.12
100.27 103348 321.478
100.388 107244 327.481
100.505 110177 331.929
100.622 110891 333.003
100.74 109965 331.61
100.857 110873 332.976
100.975 110077 331.779
101.092 108630 329.591
101.209 106170 325.837
101.327 96908 311.3
101.444 88596 297.651
101.561 82954 288.017
101.679 79493 281.945
101.796 77199 277.847
101.913 80702 284.081
102.03 86968 294.903
102.148 92668 304.414
102.265 90174 300.29
102.382 109811 331.377
102.499 106294 326.028
102.616 109837 331.417
102.733 111724 334.251
102.851 112661 335.65
102.968 115130 339.308
103.085 114169 337.889
103.202 113755 337.276
103.319 111108 333.329
103.436 107600 328.024
103.552 104478 323.231
103.669 103160 321.185
103.786 105255 324.43
103.903 110136 331.867
104.02 113442 336.812
104.137 115328 339.6
104.253 113568 336.999
104.37 114191 337.922
104.487 114026 337.677
104.603 112584 335.535
104.72 108491 329.38
104.836 99495 315.428
104.953 91311 302.177
105.069 85287 292.039
105.186 80100 283.019
105.302 78594 280.346
105.418 82691 287.56
105.535 88298 297.15
105.651 93228 305.333
105.767 98359 313.622
105.883 103312 321.422
105.999 106556 326.429
106.115 0 1
106.231 0 1
106.347 0 1
106.463 0 1
106.579 0 1
106.694 0 1
106.81 0 1
106.926 0 1
107.041 0 1
107.157 0 1
109.576 0 1
109.692 0 1
109.807 0 1
109.923 0 1
110.039 0 1
110.155 0 1
110.27 0 1
110.386 0 1
110.502 0 1
110.618 80130 283.072
110.735 86070 293.377
110.851 91529 302.538
110.967 95397 308.864
111.083 98660 314.102
111.199 100719 317.363
111.316 103420 321.59
111.432 104261 322.895
111.549 103689 322.008
111.665 103892 322.323
111.782 102657 320.401
111.898 99004 314.649
112.015 94996 308.214
112.132 92140 303.546
112.248 93376 305.575
112.365 96396 310.477
112.482 101525 318.63
112.599 99678 315.718
112.716 101583 318.721
112.832 100621 317.208
112.949 99655 315.682
113.066 99971 316.182
113.183 98556 313.936
113.3 95729 309.401
113.417 88240 297.052
113.534 80431 283.604
113.652 74520 272.984
113.769 70024 264.62
113.886 65973 256.852
114.003 68488 261.702
114.12 74292 272.566
114.238 78472 280.129
114.355 83147 288.352
114.472 87383 295.606
114.589 87771 296.262
114.707 90951 301.581
114.824 92288 303.789
114.942 94003 306.599
115.059 93528 305.823
115.176 92615 304.327
115.294 91737 302.881
115.411 89759 299.598
115.529 85956 293.183
115.646 82858 287.851
115.764 82218 286.737
115.881 84180 290.138
115.999 86768 294.564
116.116 87928 296.527
116.234 88674 297.782
116.351 88469 297.437
116.469 88728 297.872
116.586 88107 296.828
116.704 88458 297.419
116.821 88271 297.104
116.939 85457 292.33
117.056 79136 281.311
117.174 72731 269.687
117.291 67183 259.197
117.409 63308 251.611
117.526 61798 248.592
117.644 65917 256.743
117.761 72425 269.119
117.879 77239 277.919
117.996 79894 282.655
118.114 84712 291.053
118.231 88052 296.736
118.349 89530 299.216
118.466 90523 300.87
118.584 92997 304.954
118.701 93344 305.523
118.819 93578 305.905
118.936 92796 304.624
119.053 90786 301.307
119.171 88389 297.303
119.288 87700 296.142
119.405 87437 295.697
119.523 89644 299.406
119.64 92793 304.619
119.757 94883 308.031
119.875 95870 309.629
119.992 97222 311.804
120.109 97215 311.793
120.226 97816 312.755
120.343 98178 313.334
120.46 98830 314.372
120.578 98022 313.085
120.695 92979 304.925
120.812 85582 292.544
120.929 79272 281.553
121.046 72598 269.44
121.163 68425 261.582
121.279 70059 264.687
121.396 76560 276.695
121.513 84293 290.333
121.63 90320 300.533
121.747 94605 307.579
121.863 98215 313.393
121.98 101806 319.071
122.097 104178 322.766
122.213 105541 324.871
122.33 106515 326.366
122.446 106909 326.969
122.563 106163 325.827
122.679 105635 325.015
122.795 103639 321.93
122.912 101997 319.37
123.028 100210 316.56
123.144 100600 317.175
123.26 100936 317.704
123.377 0 1
123.493 0 1
123.609 0 1
123.725 0 1
123.84 0 1
123.956 0 1
124.072 0 1
124.188 0 1
124.303 0 1
124.419 0 1
126.852 0 1
126.968 0 1
127.083 0 1
127.199 0 1
127.315 0 1
127.431 0 1
127.547 0 1
127.663 0 1
127.779 0 1
127.895 0 1
128.011 0 1
128.127 0 1
128.243 0 1
128.359 113911 337.507
128.476 114319 338.111
128.592 115110 339.279
128.708 117178 342.313
128.825 120766 347.514
128.941 121901 349.143
129.058 122794 350.42
129.174 122929 350.612
129.291 122231 349.616
129.408 121399 348.424
129.524 122009 349.298
129.641 118968 344.917
129.758 113653 337.125
129.875 104346 323.026
129.992 95001 308.222
130.108 87445 295.711
130.225 80515 283.752
130.342 81020 284.64
130.459 87609 295.988
130.576 94586 307.548
130.693 101027 317.847
130.81 105210 324.361
130.928 106736 326.705
131.045 109020 330.182
131.162 109460 330.847
131.279 111254 333.548
131.396 110120 331.843
131.513 109336 330.66
131.631 106147 325.802
131.748 104120 322.676
131.865 102062 319.471
131.983 100789 317.473
132.1 100684 317.307
132.217 100884 317.622
132.335 102972 320.893
132.452 102825 320.663
132.57 102534 320.209
132.687 98172 313.324
132.804 103121 321.125
132.922 98322 313.563
133.039 97897 312.885
133.157 96148 310.077
133.274 92853 304.718
133.392 86386 293.915
133.509 78280 279.786
133.627 71414 267.234
133.744 65404 255.742
133.862 62375 249.75
133.979 65346 255.629
134.097 71401 267.21
134.214 76843 277.206
134.332 77531 278.444
134.449 80405 283.558
134.567 80993 284.593
134.684 81729 285.883
134.802 81793 285.995
134.919 80922 284.468
135.037 80628 283.951
135.154 78338 279.889
135.272 76470 276.532
135.389 75019 273.896
135.507 74190 272.378
135.624 73345 270.823
135.742 73620 271.33
135.859 74253 272.494
135.977 74451 272.857
136.094 74009 272.046
136.211 74028 272.081
136.329 73652 271.389
136.446 72802 269.818
136.564 72456 269.177
136.681 71318 267.054
136.798 71819 267.991
136.915 69328 263.302
137.033 64607 254.179
137.15 59627 244.186
137.267 54997 234.514
137.384 52104 228.263
137.502 50012 223.634
137.619 52504 229.138
137.736 58900 242.693
137.853 62276 249.552
137.97 66514 257.903
138.087 69578 263.776
138.204 70690 265.876
138.321 72087 268.49
138.438 74258 272.503
138.555 74743 273.392
138.672 75263 274.341
138.788 73526 271.157
138.905 73985 272.002
139.022 73575 271.247
139.139 73713 271.501
139.255 75031 273.918
139.372 76726 276.995
139.488 78669 280.48
139.605 79321 281.64
139.721 79941 282.738
139.838 81584 285.629
139.954 81700 285.832
140.071 80806 284.264
140.187 83050 288.184
140.303 81967 286.299
140.419 82505 287.237
140.535 81434 285.366
140.652 77145 277.75
140.768 0 1
140.884 0 1
141 0 1
141.115 0 1
141.231 0 1
141.347 0 1
141.463 0 1
141.578 0 1
141.694 0 1
144.104 0 1
144.219 0 1
144.335 0 1
144.45 0 1
144.566 0 1
144.682 0 1
144.798 0 1
144.914 0 1
145.03 0 1
145.146 71103 266.651
145.262 72796 269.807
145.378 72172 268.648
145.494 72313 268.911
145.61 70398 265.326
145.726 68513 261.75
145.842 63435 251.863
145.959 58667 242.213
146.075 54595 233.656
146.192 51532 227.007
146.308 50394 224.486
146.425 52337 228.773
146.541 55373 235.315
146.658 58054 240.944
146.774 60427 245.819
146.891 62088 249.175
147.008 62528 250.056
147.125 63392 251.778
147.241 63085 251.167
147.358 62388 249.776
147.475 60929 246.838
147.592 59517 243.961
147.709 58876 242.644
147.826 58637 242.151
147.943 58434 241.731
148.06 58578 242.029
148.177 59474 243.873
148.294 59706 244.348
148.411 59506 243.939
148.528 58579 242.031
148.645 58473 241.812
148.762 58401 241.663
148.88 57543 239.881
148.997 59524 243.975
149.114 54609 233.686
149.231 56401 237.489
149.349 54358 233.148
149.466 52712 229.591
149.583 48113 219.347
149.701 45360 212.979
149.818 43778 209.232
149.935 43165 207.762
150.053 44930 211.967
150.17 47209 217.276
150.287 49517 222.524
150.405 51455 226.837
150.522 53280 230.825
150.64 54765 234.019
150.757 55324 235.211
150.875 55444 235.465
150.992 54532 233.521
151.11 54986 234.491
151.227 53850 232.056
151.344 53614 231.547
151.462 54368 233.169
151.579 54432 233.307
151.697 56280 237.234
151.814 56776 238.277
151.932 57871 240.564
152.049 58535 241.94
152.167 58787 242.46
152.284 59123 243.152
152.402 59855 244.653
152.519 60000 244.949
152.636 60319 245.599
152.754 60968 246.917
152.871 60697 246.368
152.989 58786 242.458
153.106 56030 236.707
153.223 52548 229.234
153.341 50158 223.96
153.458 48327 219.834
153.575 48968 221.287
153.693 52109 228.274
153.81 55324 235.211
153.927 57814 240.445
154.044 59776 244.491
154.162 61821 248.638
154.279 64614 254.193
154.396 66613 258.095
154.513 67539 259.883
154.63 68927 262.54
154.747 69052 262.777
154.864 68863 262.418
154.981 67971 260.712
155.098 68305 261.352
155.215 69239 263.133
155.332 70431 265.388
155.449 72123 268.557
155.566 73067 270.309
155.683 74470 272.892
155.8 74887 273.655
155.917 75963 275.614
156.033 75942 275.576
156.15 0 1
156.267 0 1
156.383 0 1
156.5 0 1
156.617 0 1
156.733 0 1
156.85 0 1
156.966 0 1
157.082 0 1
157.199 0 1
157.315 0 1
157.431 0 1
157.547 0 1
157.664 0 1
157.78 0 1
157.896 0 1
158.012 0 1
158.128 0 1
158.244 0 1
158.359 0 1
158.475 0 1
158.591 0 1
158.706 0 1
