
6.15755 0 1
6.2731 0 1
6.3887 0 1
6.50437 0 1
6.62009 0 1
6.73587 0 1
6.8517 0 1
6.96759 0 1
7.08353 0 1
7.19952 0 1
7.31557 0 1
7.43166 0 1
7.54781 0 1
7.664 0 1
7.78024 0 1
7.89653 0 1
8.01286 0 1
8.12924 0 1
8.24567 0 1
8.36213 0 1
8.47864 0 1
8.59519 0 1
8.71178 0 1
8.82841 0 1
8.94508 0 1
9.06179 0 1
9.17853 0 1
9.29531 0 1
9.41212 0 1
9.52897 0 1
9.64584 0 1
9.76276 0 1
9.8797 0 1
9.99667 0 1
10.1137 0 1
10.2307 0 1
10.3478 0 1
10.4648 0 1
10.5819 0 1
10.6991 0 1
10.8162 0 1
10.9334 0 1
11.0506 0 1
11.1678 0 1
11.285 0 1
11.4023 0 1
11.5196 0 1
11.6369 0 1
11.7542 0 1
11.8715 0 1
11.9888 0 1
12.1062 0 1
12.2235 0 1
12.3409 0 1
12.4582 0 1
12.5756 0 1
12.693 0 1
12.8104 0 1
12.9278 0 1
13.0452 0 1
13.1626 0 1
13.28 0 1
13.3974 0 1
13.5149 0 1
13.6323 0 1
13.7497 0 1
13.8671 0 1
13.9845 0 1
14.1019 0 1
14.2193 0 1
14.3367 0 1
14.4541 0 1
14.5714 0 1
14.6888 0 1
14.8062 0 1
14.9235 0 1
15.0408 0 0
15.1581 0 0
15.2755 0 0
15.3927 0 0
15.51 0 0
15.6273 0 0
15.7445 0 0
15.8617 0 0
15.9789 0 0
16.0961 0 0
16.2132 0 0
16.3304 0 0
16.4475 0 0
16.5646 0 0
16.6816 0 0
16.7986 0 0
16.9156 0 0
17.0326 0 0
17.1496 0 0
17.2665 0 0
17.3833 0 0
17.5002 0 0
17.617 0 0
17.7338 0 0
17.8505 0 0
17.9672 0 0
18.0839 0 0
18.2005 0 0
18.3171 0 0
18.4337 0 0
18.5502 0 0
18.6666 0 0
18.7831 0 0
18.8994 0 0
19.0158 0 0
19.1321 0 0
19.2483 0 0
19.3645 0 0
19.4806 0 0
19.5967 0 0
19.7128 0 0
19.8288 0 0
19.9447 0 0
20.0606 0 1
20.1764 0 1
20.2922 0 1
20.4079 0 1
20.5236 0 1
20.6392 0 1
20.7548 0 1
20.8702 0 1
23.3078 0 1
23.4233 0 1
23.539 0 1
23.6547 0 1
23.7704 0 1
23.8862 0 1
24.0021 0 1
24.118 0 1
24.234 0 1
24.35 0 1
24.4661 1288 35.8887
24.5822 1384 37.2022
24.6984 1530 39.1152
24.8146 1745 41.7732
24.9309 2055 45.3321
25.0472 2185 46.744
25.1636 2368 48.6621
25.28 2544 50.4381
25.3965 2604 51.0294
25.513 2656 51.5364
25.6296 2656 51.5364
25.7462 2620 51.1859
25.8628 2640 51.3809
25.9795 2591 50.9019
26.0962 2713 52.0865
26.213 2714 52.0961
26.3298 2840 53.2917
26.4466 2728 52.2303
26.5635 2726 52.2111
26.6804 2663 51.6043
26.7973 2645 51.4296
26.9143 2658 51.5558
27.0313 2504 50.04
27.1483 2565 50.6458
27.2653 2561 50.6063
27.3824 2357 48.5489
27.4996 2244 47.3709
27.6167 2101 45.8367
27.7339 2163 46.5081
27.8511 2325 48.2183
27.9683 2390 48.8876
28.0855 2513 50.1298
28.2028 2562 50.6162
28.3201 2572 50.7149
28.4374 2633 51.3128
28.5547 2486 49.8598
28.6721 2490 49.8999
28.7894 2500 50
28.9068 2472 49.7192
29.0242 2474 49.7393
29.1416 2555 50.547
29.259 2507 50.07
29.3764 2536 50.3587
29.4939 2497 49.97
29.6113 2310 48.0625
29.7288 2394 48.9285
29.8463 2381 48.7955
29.9638 2358 48.5592
30.0812 2427 49.2646
30.1987 2408 49.0714
30.3162 2480 49.7996
30.4337 2468 49.679
30.5512 2537 50.3686
30.6687 2513 50.1298
30.7862 2449 49.4874
30.9037 2357 48.5489
31.0212 2306 48.0208
31.1387 2256 47.4974
31.2562 2263 47.571
31.3737 2343 48.4045
31.4912 2438 49.3761
31.6087 2425 49.2443
31.7262 2599 50.9804
31.8436 2549 50.4876
31.9611 2484 49.8397
32.0785 2632 51.303
32.1959 2427 49.2646
32.3134 2425 49.2443
32.4308 2443 49.4267
32.5482 2430 49.295
32.6655 2302 47.9792
32.7829 2306 48.0208
32.9002 2246 47.392
33.0176 2166 46.5403
33.1349 2240 47.3286
33.2522 2204 46.9468
33.3694 2131 46.1628
33.4867 2185 46.744
33.6039 2169 46.5725
33.7211 2271 47.655
33.8383 2302 47.9792
33.9554 2378 48.7647
34.0725 2401 49
34.1896 2448 49.4773
34.3067 2353 48.5077
34.4237 2434 49.3356
34.5407 2311 48.0729
34.6577 2225 47.1699
34.7746 2232 47.244
34.8915 2351 48.4871
35.0084 2392 48.9081
35.1252 2591 50.9019
35.242 2507 50.07
35.3587 2461 49.6085
35.4755 2488 49.8799
35.5921 2340 48.3735
35.7088 2382 48.8057
35.8254 2239 47.3181
35.9419 2247 47.4025
36.0584 2160 46.4758
36.1749 2064 45.4313
36.2913 2107 45.9021
36.4077 2066 45.4533
36.524 1930 43.9318
36.6403 1726 41.5452
36.7565 1569 39.6106
36.8727 1428 37.7889
36.9889 1417 37.6431
37.1049 1414 37.6032
37.221 0 1
37.3369 0 1
37.4529 0 1
37.5687 0 1
37.6845 0 1
37.8003 0 1
37.916 0 1
38.0316 0 1
38.1472 0 1
40.5851 0 1
40.7008 0 1
40.8164 0 1
40.9322 0 1
41.048 0 1
41.1639 0 1
41.2798 0 1
41.3958 0 1
41.5118 0 1
41.6279 0 1
41.744 1900 43.589
41.8602 2381 48.7955
41.9765 2967 54.4702
42.0928 3086 55.5518
42.2091 3085 55.5428
42.3255 3208 56.6392
42.4419 3127 55.9196
42.5584 3302 57.463
42.675 3332 57.7235
42.7915 3410 58.3952
42.9081 3402 58.3267
43.0248 3546 59.5483
43.1415 3570 59.7495
43.2582 3400 58.3095
43.375 3011 54.8726
43.4918 3143 56.0625
43.6087 3202 56.5862
43.7256 3257 57.0701
43.8425 3283 57.2975
43.9595 3319 57.6108
44.0765 3366 58.0172
44.1935 3259 57.0877
44.3106 3159 56.205
44.4277 3033 55.0727
44.5448 2988 54.6626
44.6619 2781 52.7352
44.7791 2666 51.6333
44.8963 2516 50.1597
45.0136 2445 49.4469
45.1308 2244 47.3709
45.2481 2215 47.0638
45.3654 2112 45.9565
45.4827 2060 45.3872
45.6001 2049 45.2659
45.7174 1950 44.1588
45.8348 1910 43.7035
45.9522 1950 44.1588
46.0697 2013 44.8665
46.1871 2013 44.8665
46.3046 2034 45.0999
46.422 2048 45.2548
46.5395 2122 46.0652
46.657 2110 45.9347
46.7745 2048 45.2548
46.892 1950 44.1588
47.0096 1907 43.6692
47.1271 2000 44.7214
47.2446 2038 45.1442
47.3622 2092 45.7384
47.4797 2081 45.618
47.5973 2047 45.2438
47.7149 2028 45.0333
47.8324 2137 46.2277
47.95 2043 45.1996
48.0675 2017 44.911
48.1851 2108 45.913
48.3027 1976 44.4522
48.4202 1942 44.0681
48.5378 1886 43.4281
48.6554 1856 43.0813
48.7729 1880 43.359
48.8904 1892 43.4971
49.008 1802 42.45
49.1255 1801 42.4382
49.243 1932 43.9545
49.3605 1904 43.6348
49.478 1944 44.0908
49.5955 1918 43.795
49.713 1929 43.9204
49.8304 2049 45.2659
49.9479 2034 45.0999
50.0653 2016 44.8999
50.1827 1997 44.6878
50.3001 1830 42.7785
50.4175 1659 40.7308
50.5348 1636 40.4475
50.6521 1739 41.7013
50.7694 1897 43.5546
50.8867 1932 43.9545
51.004 2001 44.7325
51.1212 2119 46.0326
51.2384 2109 45.9239
51.3556 1965 44.3283
51.4727 2011 44.8442
51.5899 2017 44.911
51.707 1985 44.5533
51.824 2027 45.0222
51.9411 2003 44.7549
52.0581 1882 43.382
52.175 1789 42.2966
52.2919 1900 43.589
52.4088 1935 43.9886
52.5257 1895 43.5316
52.6425 1834 42.8252
52.7593 1848 42.9884
52.876 1817 42.6263
52.9927 1817 42.6263
53.1094 1843 42.9302
53.226 1811 42.5558
53.3426 1861 43.1393
53.4591 1792 42.332
53.5756 1685 41.0488
53.692 1420 37.6829
53.8084 1353 36.7831
53.9248 1164 34.1174
54.0411 1118 33.4365
54.1573 1022 31.9687
54.2735 0 1
54.3896 0 1
54.5057 0 1
54.6217 0 1
54.7377 0 1
54.8537 0 1
54.9695 0 1
55.0853 0 1
55.2011 0 1
55.3168 0 1
55.4324 0 1
57.824 0 1
57.9396 0 1
58.0553 0 1
58.1711 0 1
58.2869 0 1
58.4028 0 1
58.5187 0 1
58.6347 0 1
58.7508 0 1
58.8669 0 1
58.983 1656 40.694
59.0992 1682 41.0122
59.2155 1684 41.0366
59.3318 1760 41.9524
59.4482 1962 44.2945
59.5646 2196 46.8615
59.681 2245 47.3814
59.7975 2335 48.3218
59.9141 2381 48.7955
60.0306 2332 48.2908
60.1473 2343 48.4045
60.2639 2423 49.224
60.3807 2273 47.676
60.4974 2309 48.0521
60.6142 2359 48.5695
60.731 2348 48.4562
60.8479 2436 49.3559
60.9648 2334 48.3115
61.0818 2407 49.0612
61.1987 2433 49.3254
61.3158 2343 48.4045
61.4328 2268 47.6235
61.5499 2283 47.7807
61.667 2258 47.5184
61.7841 2287 47.8226
61.9013 2391 48.8979
62.0185 2315 48.1144
62.1357 2375 48.734
62.253 2347 48.4458
62.3702 2396 48.949
62.4875 2247 47.4025
62.6049 2036 45.1221
62.7222 2036 45.1221
62.8396 2107 45.9021
62.9569 2310 48.0625
63.0743 2504 50.04
63.1918 2491 49.9099
63.3092 2524 50.2394
63.4267 2442 49.4166
63.5441 2497 49.97
63.6616 2476 49.7594
63.7791 2407 49.0612
63.8966 2347 48.4458
64.0142 2491 49.9099
64.1317 2457 49.5681
64.2492 2405 49.0408
64.3668 2338 48.3529
64.4843 2377 48.7545
64.6019 2462 49.6185
64.7195 2361 48.5901
64.837 2293 47.8853
64.9546 2261 47.55
65.0722 2272 47.6655
65.1898 2215 47.0638
65.3074 2304 48
65.4249 2237 47.2969
65.5425 2330 48.2701
65.6601 2300 47.9583
65.7777 2328 48.2494
65.8952 2365 48.6313
66.0128 2251 47.4447
66.1304 2020 44.9444
66.2479 1841 42.9069
66.3655 1988 44.587
66.483 2221 47.1275
66.6005 2400 48.9898
66.718 2318 48.1456
66.8355 2443 49.4267
66.953 2423 49.224
67.0705 2385 48.8365
67.1879 2396 48.949
67.3054 2323 48.1975
67.4228 2460 49.5984
67.5402 2382 48.8057
67.6576 2323 48.1975
67.7749 2350 48.4768
67.8923 2313 48.0937
68.0096 2404 49.0306
68.1269 2349 48.4665
68.2442 2312 48.0833
68.3614 2264 47.5815
68.4787 2243 47.3603
68.5958 2195 46.8508
68.713 2111 45.9456
68.8302 2152 46.3897
68.9473 2225 47.1699
69.0643 2194 46.8402
69.1814 2190 46.7974
69.2984 2205 46.9574
69.4154 2181 46.7012
69.5323 2268 47.6235
69.6492 2097 45.793
69.7661 1873 43.2782
69.8829 1774 42.1189
69.9997 1771 42.0833
70.1165 1985 44.5533
70.2332 2052 45.299
70.3499 1887 43.4396
70.4665 1703 41.2674
70.5831 1661 40.7554
70.6996 1606 40.0749
70.8161 1583 39.7869
70.9326 1442 37.9737
71.049 1384 37.2022
71.1653 1365 36.9459
71.2817 1258 35.4683
71.3979 1267 35.5949
71.5141 1224 34.9857
71.6303 1214 34.8425
71.7464 1069 32.6956
71.8624 0 1
71.9784 0 1
72.0944 0 1
72.2102 0 1
72.3261 0 1
72.4418 0 1
72.5575 0 1
72.6732 0 1
75.1054 0 1
75.2209 0 1
75.3365 0 1
75.4521 0 1
75.5678 0 1
75.6835 0 1
75.7993 0 1
75.9151 0 1
76.031 0 1
76.147 1812 42.5676
76.263 2103 45.8585
76.3791 2024 44.9889
76.4952 2096 45.7821
76.6113 2019 44.9333
76.7276 2087 45.6837
76.8438 2066 45.4533
76.9601 2166 46.5403
77.0765 2217 47.085
77.1929 2220 47.1169
77.3093 2208 46.9894
77.4258 2213 47.0425
77.5423 2161 46.4866
77.6589 2201 46.9148
77.7755 2093 45.7493
77.8921 2010 44.833
78.0088 2097 45.793
78.1256 2119 46.0326
78.2423 2194 46.8402
78.3591 2193 46.8295
78.4759 2168 46.5618
78.5928 2151 46.3789
78.7097 1913 43.7379
78.8266 1677 40.9512
78.9436 1434 37.8682
79.0606 1477 38.4318
79.1776 1847 42.9767
79.2946 2054 45.3211
79.4117 2211 47.0213
79.5288 2195 46.8508
79.6459 2261 47.55
79.7631 2253 47.4658
79.8802 2224 47.1593
79.9974 2217 47.085
80.1147 2260 47.5395
80.2319 2210 47.0106
80.3491 2222 47.1381
80.4664 2433 49.3254
80.5837 2305 48.0104
80.701 2401 49
80.8183 2338 48.3529
80.9357 2437 49.366
81.053 2352 48.4974
81.1704 2282 47.7703
81.2877 2218 47.0956
81.4051 2265 47.592
81.5225 2310 48.0625
81.6399 2194 46.8402
81.7573 2321 48.1768
81.8747 2440 49.3964
81.9922 2525 50.2494
82.1096 2546 50.4579
82.227 2569 50.6853
82.3444 2487 49.8698
82.4619 2186 46.7547
82.5793 2081 45.618
82.6967 2228 47.2017
82.8142 2572 50.7149
82.9316 3264 57.1314
83.049 3428 58.5491
83.1664 3596 59.9667
83.2838 3678 60.6465
83.4012 3718 60.9754
83.5186 3887 62.3458
83.636 3986 63.1348
83.7534 4152 64.436
83.8708 4057 63.6946
83.9881 4145 64.3817
84.1055 4167 64.5523
84.2228 4163 64.5213
84.3401 4277 65.3988
84.4575 4219 64.9538
84.5747 4345 65.9166
84.692 4211 64.8922
84.8093 4240 65.1153
84.9265 4227 65.0154
85.0437 4060 63.7181
85.1609 4015 63.364
85.2781 4121 64.195
85.3952 4225 65
85.5123 3981 63.0952
85.6294 4230 65.0385
85.7465 3956 62.8967
85.8636 3654 60.4483
85.9806 3176 56.356
86.0976 2700 51.9615
86.2145 2665 51.6236
86.3315 3023 54.9818
86.4484 3770 61.4003
86.5652 3976 63.0555
86.682 4028 63.4665
86.7988 4088 63.9375
86.9156 4036 63.5295
87.0323 4098 64.0156
87.149 3924 62.6418
87.2657 4162 64.5136
87.3823 3991 63.1744
87.4988 3939 62.7615
87.6154 3475 58.9491
87.7318 3231 56.8419
87.8483 2958 54.3875
87.9647 2942 54.2402
88.081 2911 53.9537
88.1973 2826 53.1601
88.3136 2664 51.614
88.4298 2569 50.6853
88.546 2382 48.8057
88.6621 2335 48.3218
88.7781 2349 48.4665
88.8942 0 1
89.0101 0 1
89.126 0 1
89.2419 0 1
89.3577 0 1
89.4734 0 1
89.5891 0 1
89.7047 0 1
89.8203 0 1
89.9358 0 1
92.3269 0 1
92.4424 0 1
92.558 0 1
92.6736 0 1
92.7893 0 1
92.905 0 1
93.0208 0 1
93.1366 0 1
93.2525 0 1
93.3685 0 1
93.4845 0 1
93.6005 4332 65.8179
93.7167 4278 65.4064
93.8328 4285 65.4599
93.949 4301 65.582
94.0653 4078 63.8592
94.1816 4128 64.2495
94.2979 4286 65.4675
94.4143 4288 65.4828
94.5307 4149 64.4127
94.6472 4076 63.8436
94.7637 4021 63.4114
94.8803 3778 61.4654
94.9969 3292 57.376
95.1135 2909 53.9351
95.2302 3050 55.2268
95.3469 3658 60.4814
95.4637 4058 63.7024
95.5805 4360 66.0303
95.6973 4347 65.9318
95.8142 4256 65.238
95.9311 4248 65.1767
96.048 4417 66.4605
96.1649 4355 65.9924
96.2819 4290 65.4981
96.3989 4469 66.8506
96.516 4431 66.5658
96.633 4361 66.0379
96.7501 4293 65.521
96.8673 4426 66.5282
96.9844 4562 67.5426
97.1016 4543 67.4018
97.2188 4359 66.0227
97.336 4405 66.3702
97.4532 4280 65.4217
97.5704 4205 64.846
97.6877 4159 64.4903
97.805 4239 65.1076
97.9223 4422 66.4981
98.0396 4350 65.9545
98.1569 4266 65.3146
98.2743 4007 63.3009
98.3916 3803 61.6685
98.509 3251 57.0175
98.6264 2873 53.6004
98.7438 2915 53.9907
98.8612 3282 57.2887
98.9786 3655 60.4566
99.096 3784 61.5142
99.2134 3700 60.8276
99.3308 3681 60.6712
99.4482 3448 58.7197
99.5656 3471 58.9152
99.6831 3361 57.9741
99.8005 3179 56.3826
99.9179 3205 56.6127
100.035 3150 56.1249
100.153 3085 55.5428
100.27 2990 54.6809
100.388 3048 55.2087
100.505 3053 55.254
100.622 3004 54.8088
100.74 3007 54.8361
100.857 2959 54.3967
100.975 2982 54.6077
101.092 2933 54.1572
101.209 2950 54.3139
101.327 2847 53.3573
101.444 2934 54.1664
101.561 3024 54.9909
101.679 2852 53.4041
101.796 2926 54.0925
101.913 2845 53.3385
102.03 2550 50.4975
102.148 2322 48.1871
102.265 2145 46.3141
102.382 2373 48.7134
102.499 2597 50.9608
102.616 2638 51.3615
102.733 2785 52.7731
102.851 2768 52.6118
102.968 2720 52.1536
103.085 2697 51.9326
103.202 2698 51.9423
103.319 2791 52.8299
103.436 2692 51.8845
103.552 2748 52.4214
103.669 2698 51.9423
103.786 2626 51.2445
103.903 2664 51.614
104.02 2631 51.2933
104.137 2679 51.7591
104.253 2766 52.5928
104.37 2646 51.4393
104.487 2630 51.2835
104.603 2655 51.5267
104.72 2508 50.0799
104.836 2399 48.9796
104.953 1994 44.6542
105.069 1894 43.5201
105.186 1707 41.3159
105.302 1570 39.6232
105.418 1486 38.5487
105.535 1281 35.7911
105.651 1177 34.3074
105.767 1041 32.2645
105.883 841 29
105.999 808 28.4253
106.115 0 1
106.231 0 1
106.347 0 1
106.463 0 1
106.579 0 1
106.694 0 1
106.81 0 1
106.926 0 1
107.041 0 1
107.157 0 1
109.576 0 1
109.692 0 1
109.807 0 1
109.923 0 1
110.039 0 1
110.155 0 1
110.27 0 1
110.386 0 1
110.502 0 1
110.618 2682 51.788
110.735 2804 52.9528
110.851 2590 50.892
110.967 2452 49.5177
111.083 2360 48.5798
111.199 2520 50.1996
111.316 2662 51.5946
111.432 2974 54.5344
111.549 2941 54.231
111.665 2958 54.3875
111.782 2930 54.1295
111.898 2935 54.1756
112.015 2961 54.4151
112.132 2816 53.066
112.248 2869 53.563
112.365 2890 53.7587
112.482 2951 54.3231
112.599 3112 55.7853
112.716 3167 56.2761
112.832 3119 55.848
112.949 3249 57
113.066 3167 56.2761
113.183 3165 56.2583
113.3 3253 57.0351
113.417 3249 57
113.534 3206 56.6216
113.652 3183 56.4181
113.769 3262 57.1139
113.886 3245 56.9649
114.003 3044 55.1725
114.12 3214 56.6922
114.238 3143 56.0625
114.355 2916 54
114.472 2509 50.0899
114.589 2532 50.319
114.707 2642 51.4004
114.824 2844 53.3292
114.942 3012 54.8817
115.059 3032 55.0636
115.176 2980 54.5894
115.294 3028 55.0273
115.411 3079 55.4887
115.529 2970 54.4977
115.646 3046 55.1906
115.764 3030 55.0454
115.881 2964 54.4426
115.999 2950 54.3139
116.116 3052 55.2449
116.234 3043 55.1634
116.351 3176 56.356
116.469 3164 56.2494
116.586 3302 57.463
116.704 3295 57.4021
116.821 3374 58.0861
116.939 3335 57.7495
117.056 3454 58.7707
117.174 3258 57.0789
117.291 3240 56.921
117.409 3337 57.7668
117.526 3202 56.5862
117.644 3266 57.1489
117.761 3233 56.8595
117.879 3123 55.8838
117.996 2885 53.7122
118.114 2574 50.7346
118.231 2520 50.1996
118.349 2638 51.3615
118.466 2983 54.6168
118.584 3052 55.2449
118.701 3028 55.0273
118.819 3068 55.3895
118.936 3032 55.0636
119.053 3018 54.9363
119.171 3016 54.9181
119.288 2980 54.5894
119.405 2937 54.1941
119.523 2868 53.5537
119.64 2928 54.111
119.757 2918 54.0185
119.875 2909 53.9351
119.992 3063 55.3444
120.109 3073 55.4346
120.226 3098 55.6597
120.343 3142 56.0535
120.46 3096 55.6417
120.578 3196 56.5332
120.695 3066 55.3715
120.812 3143 56.0625
120.929 3066 55.3715
121.046 3000 54.7723
121.163 2984 54.626
121.279 2962 54.4243
121.396 2985 54.6352
121.513 2838 53.2729
121.63 2678 51.7494
121.747 2341 48.3839
121.863 2116 46
121.98 2049 45.2659
122.097 2065 45.4423
122.213 2124 46.0869
122.33 2052 45.299
122.446 2144 46.3033
122.563 2060 45.3872
122.679 1959 44.2606
122.795 1913 43.7379
122.912 1794 42.3556
123.028 1829 42.7668
123.144 1798 42.4028
123.26 1797 42.391
123.377 0 1
123.493 0 1
123.609 0 1
123.725 0 1
123.84 0 1
123.956 0 1
124.072 0 1
124.188 0 1
124.303 0 1
124.419 0 1
126.852 0 1
126.968 0 1
127.083 0 1
127.199 0 1
127.315 0 1
127.431 0 1
127.547 0 1
127.663 0 1
127.779 0 1
127.895 0 1
128.011 0 1
128.127 0 1
128.243 0 1
128.359 3414 58.4294
128.476 3602 60.0167
128.592 3488 59.0593
128.708 3601 60.0083
128.825 3471 58.9152
128.941 3463 58.8473
129.058 3498 59.1439
129.174 3630 60.2495
129.291 3618 60.1498
129.408 3815 61.7657
129.524 3913 62.554
129.641 3805 61.6847
129.758 4122 64.2028
129.875 3969 63
129.992 4087 63.9296
130.108 4186 64.6993
130.225 4139 64.3351
130.342 4174 64.6065
130.459 3846 62.0161
130.576 3929 62.6817
130.693 3618 60.1498
130.81 3553 59.607
130.928 3674 60.6135
131.045 3617 60.1415
131.162 3852 62.0645
131.279 3993 63.1902
131.396 4008 63.3088
131.513 4061 63.726
131.631 4082 63.8905
131.748 4007 63.3009
131.865 3811 61.7333
131.983 3882 62.3057
132.1 3928 62.6738
132.217 3922 62.6259
132.335 3939 62.7615
132.452 3850 62.0484
132.57 3841 61.9758
132.687 3763 61.3433
132.804 4062 63.7338
132.922 3976 63.0555
133.039 3972 63.0238
133.157 4018 63.3877
133.274 4174 64.6065
133.392 4111 64.1171
133.509 4160 64.4981
133.627 4243 65.1383
133.744 4178 64.6375
133.862 4369 66.0984
133.979 4332 65.8179
134.097 4312 65.6658
134.214 4172 64.591
134.332 3963 62.9524
134.449 4066 63.7652
134.567 4023 63.4271
134.684 4290 65.4981
134.802 4285 65.4599
134.919 4298 65.5591
135.037 4223 64.9846
135.154 4320 65.7267
135.272 4225 65
135.389 4245 65.1537
135.507 4147 64.3972
135.624 4229 65.0308
135.742 4064 63.7495
135.859 4079 63.867
135.977 4036 63.5295
136.094 3991 63.1744
136.211 4033 63.5059
136.329 4031 63.4902
136.446 4191 64.7379
136.564 4001 63.2535
136.681 4055 63.6789
136.798 4201 64.8151
136.915 4251 65.1997
137.033 4172 64.591
137.15 4179 64.6452
137.267 4139 64.3351
137.384 4108 64.0937
137.502 4185 64.6916
137.619 4135 64.304
137.736 4014 63.3561
137.853 3819 61.7981
137.97 3939 62.7615
138.087 3734 61.1065
138.204 4039 63.5531
138.321 4066 63.7652
138.438 4115 64.1483
138.555 4005 63.2851
138.672 4065 63.7574
138.788 4043 63.5846
138.905 3877 62.2656
139.022 3790 61.563
139.139 3644 60.3656
139.255 3608 60.0666
139.372 3395 58.2666
139.488 3138 56.0179
139.605 3064 55.3534
139.721 3037 55.109
139.838 2906 53.9073
139.954 2820 53.1037
140.071 2860 53.479
140.187 2884 53.7029
140.303 2837 53.2635
140.419 2909 53.9351
140.535 2934 54.1664
140.652 2968 54.4794
140.768 0 1
140.884 0 1
141 0 1
141.115 0 1
141.231 0 1
141.347 0 1
141.463 0 1
141.578 0 1
141.694 0 1
144.104 0 1
144.219 0 1
144.335 0 1
144.45 0 1
144.566 0 1
144.682 0 1
144.798 0 1
144.914 0 1
145.03 0 1
145.146 8302 91.1153
145.262 8563 92.5365
145.378 8495 92.1683
145.494 8665 93.086
145.61 8728 93.4238
145.726 8822 93.9255
145.842 8884 94.255
145.959 8945 94.578
146.075 8704 93.2952
146.192 8767 93.6323
146.308 8761 93.6002
146.425 8246 90.8075
146.541 7818 88.4195
146.658 7097 84.2437
146.774 5786 76.0658
146.891 5643 75.1199
147.008 6398 79.9875
147.125 7567 86.9885
147.241 8313 91.1757
147.358 8425 91.7878
147.475 8320 91.214
147.592 8614 92.8116
147.709 8587 92.6661
147.826 8677 93.1504
147.943 8659 93.0537
148.06 8688 93.2094
148.177 8701 93.2792
148.294 8570 92.5743
148.411 8694 93.2416
148.528 8776 93.6803
148.645 8786 93.7337
148.762 8650 93.0054
148.88 8612 92.8009
148.997 8653 93.0215
149.114 9038 95.0684
149.231 9012 94.9316
149.349 8993 94.8314
149.466 8871 94.186
149.583 9067 95.2208
149.701 8833 93.984
149.818 9086 95.3205
149.935 9002 94.8789
150.053 8873 94.1966
150.17 8554 92.4878
150.287 7556 86.9253
150.405 6535 80.8393
150.522 5985 77.3628
150.64 6461 80.3803
150.757 7367 85.8312
150.875 8200 90.5539
150.992 8599 92.7308
151.11 8375 91.515
151.227 8850 94.0744
151.344 8575 92.6013
151.462 8444 91.8912
151.579 8749 93.5361
151.697 8549 92.4608
151.814 8696 93.2523
151.932 8698 93.2631
152.049 8625 92.8709
152.167 8914 94.414
152.284 8759 93.5895
152.402 8848 94.0638
152.519 8889 94.2815
152.636 8945 94.578
152.754 8935 94.5251
152.871 9050 95.1315
152.989 9084 95.31
153.106 9100 95.3939
153.223 9200 95.9166
153.341 9015 94.9474
153.458 9323 96.5557
153.575 9226 96.0521
153.693 8987 94.7998
153.81 8628 92.887
153.927 7828 88.476
154.044 6573 81.074
154.162 6175 78.5812
154.279 6898 83.0542
154.396 7722 87.8749
154.513 8522 92.3147
154.63 8896 94.3186
154.747 8948 94.5939
154.864 8909 94.3875
154.981 8848 94.0638
155.098 8595 92.7092
155.215 8635 92.9247
155.332 8460 91.9783
155.449 8455 91.9511
155.566 8052 89.7329
155.683 7934 89.073
155.8 7670 87.5785
155.917 7548 86.8792
156.033 7579 87.0575
156.15 0 1
156.267 0 1
156.383 0 1
156.5 0 1
156.617 0 1
156.733 0 1
156.85 0 1
156.966 0 1
157.082 0 1
157.199 0 1
157.315 0 1
157.431 0 1
157.547 0 1
157.664 0 1
157.78 0 1
157.896 0 1
158.012 0 1
158.128 0 1
158.244 0 1
158.359 0 1
158.475 0 1
158.591 0 1
158.706 0 1
