
6.15755 0 1
6.2731 0 1
6.3887 0 1
6.50437 0 1
6.62009 0 1
6.73587 0 1
6.8517 0 1
6.96759 0 1
7.08353 0 1
7.19952 0 1
7.31557 0 1
7.43166 0 1
7.54781 0 1
7.664 0 1
7.78024 0 1
7.89653 0 1
8.01286 0 1
8.12924 0 1
8.24567 0 1
8.36213 0 1
8.47864 0 1
8.59519 0 1
8.71178 0 1
8.82841 0 1
8.94508 0 1
9.06179 0 1
9.17853 0 1
9.29531 0 1
9.41212 0 1
9.52897 0 1
9.64584 0 1
9.76276 0 1
9.8797 0 1
9.99667 0 1
10.1137 0 1
10.2307 0 1
10.3478 0 1
10.4648 0 1
10.5819 0 1
10.6991 0 1
10.8162 0 1
10.9334 0 1
11.0506 0 1
11.1678 0 1
11.285 0 1
11.4023 0 1
11.5196 0 1
11.6369 0 1
11.7542 0 1
11.8715 0 1
11.9888 0 1
12.1062 0 1
12.2235 0 1
12.3409 0 1
12.4582 0 1
12.5756 0 1
12.693 0 1
12.8104 0 1
12.9278 0 1
13.0452 0 1
13.1626 0 1
13.28 0 1
13.3974 0 1
13.5149 0 1
13.6323 0 1
13.7497 0 1
13.8671 0 1
13.9845 0 1
14.1019 0 1
14.2193 0 1
14.3367 0 1
14.4541 0 1
14.5714 0 1
14.6888 0 1
14.8062 0 1
14.9235 0 1
15.0408 0 0
15.1581 0 0
15.2755 0 0
15.3927 0 0
15.51 0 0
15.6273 0 0
15.7445 0 0
15.8617 0 0
15.9789 0 0
16.0961 0 0
16.2132 0 0
16.3304 0 0
16.4475 0 0
16.5646 0 0
16.6816 0 0
16.7986 0 0
16.9156 0 0
17.0326 0 0
17.1496 0 0
17.2665 0 0
17.3833 0 0
17.5002 0 0
17.617 0 0
17.7338 0 0
17.8505 0 0
17.9672 0 0
18.0839 0 0
18.2005 0 0
18.3171 0 0
18.4337 0 0
18.5502 0 0
18.6666 0 0
18.7831 0 0
18.8994 0 0
19.0158 0 0
19.1321 0 0
19.2483 0 0
19.3645 0 0
19.4806 0 0
19.5967 0 0
19.7128 0 0
19.8288 0 0
19.9447 0 0
20.0606 0 1
20.1764 0 1
20.2922 0 1
20.4079 0 1
20.5236 0 1
20.6392 0 1
20.7548 0 1
20.8702 0 1
23.3078 0 1
23.4233 0 1
23.539 0 1
23.6547 0 1
23.7704 0 1
23.8862 0 1
24.0021 0 1
24.118 0 1
24.234 0 1
24.35 0 1
24.4661 3012 54.8817
24.5822 2942 54.2402
24.6984 2946 54.2771
24.8146 2785 52.7731
24.9309 2834 53.2353
25.0472 2653 51.5073
25.1636 2646 51.4393
25.28 2760 52.5357
25.3965 2861 53.4883
25.513 3081 55.5068
25.6296 3318 57.6021
25.7462 3507 59.2199
25.8628 3631 60.2578
25.9795 3731 61.0819
26.0962 3574 59.7829
26.213 3607 60.0583
26.3298 3640 60.3324
26.4466 3678 60.6465
26.5635 3577 59.808
26.6804 3564 59.6992
26.7973 3624 60.1997
26.9143 3612 60.0999
27.0313 3643 60.3573
27.1483 3567 59.7244
27.2653 3585 59.8749
27.3824 3631 60.2578
27.4996 3601 60.0083
27.6167 3573 59.7746
27.7339 3524 59.3633
27.8511 3447 58.7112
27.9683 3275 57.2276
28.0855 3176 56.356
28.2028 3109 55.7584
28.3201 3032 55.0636
28.4374 2743 52.3737
28.5547 2603 51.0196
28.6721 2486 49.8598
28.7894 2576 50.7543
28.9068 2776 52.6878
29.0242 2984 54.626
29.1416 3131 55.9553
29.259 3289 57.3498
29.3764 3542 59.5147
29.4939 3593 59.9416
29.6113 3526 59.3801
29.7288 3566 59.716
29.8463 3598 59.9833
29.9638 3480 58.9915
30.0812 3501 59.1692
30.1987 3480 58.9915
30.3162 3498 59.1439
30.4337 3418 58.4637
30.5512 3480 58.9915
30.6687 3553 59.607
30.7862 3552 59.5987
30.9037 3595 59.9583
31.0212 3597 59.975
31.1387 3557 59.6406
31.2562 3458 58.8048
31.3737 3278 57.2538
31.4912 3374 58.0861
31.6087 3080 55.4977
31.7262 3025 55
31.8436 2942 54.2402
31.9611 2804 52.9528
32.0785 2575 50.7445
32.1959 2431 49.3052
32.3134 2575 50.7445
32.4308 2607 51.0588
32.5482 2851 53.3948
32.6655 3009 54.8544
32.7829 3287 57.3324
32.9002 3516 59.2959
33.0176 3395 58.2666
33.1349 3532 59.4306
33.2522 3451 58.7452
33.3694 3355 57.9224
33.4867 3398 58.2924
33.6039 3421 58.4893
33.7211 3338 57.7754
33.8383 3379 58.1292
33.9554 3514 59.279
34.0725 3503 59.1861
34.1896 3455 58.7792
34.3067 3491 59.0847
34.4237 3469 58.8982
34.5407 3508 59.2284
34.6577 3566 59.716
34.7746 3603 60.025
34.8915 3446 58.7026
35.0084 3318 57.6021
35.1252 3185 56.4358
35.242 3127 55.9196
35.3587 3034 55.0818
35.4755 2879 53.6563
35.5921 2774 52.6688
35.7088 2627 51.2543
35.8254 2370 48.6826
35.9419 2173 46.6154
36.0584 2322 48.1871
36.1749 2510 50.0999
36.2913 2580 50.7937
36.4077 2907 53.9166
36.524 3053 55.254
36.6403 3252 57.0263
36.7565 3270 57.1839
36.8727 3340 57.7927
36.9889 3334 57.7408
37.1049 3386 58.1893
37.221 0 1
37.3369 0 1
37.4529 0 1
37.5687 0 1
37.6845 0 1
37.8003 0 1
37.916 0 1
38.0316 0 1
38.1472 0 1
40.5851 0 1
40.7008 0 1
40.8164 0 1
40.9322 0 1
41.048 0 1
41.1639 0 1
41.2798 0 1
41.3958 0 1
41.5118 0 1
41.6279 0 1
41.744 2495 49.95
41.8602 2625 51.2348
41.9765 2786 52.7826
42.0928 2804 52.9528
42.2091 2881 53.6749
42.3255 2827 53.1695
42.4419 2829 53.1883
42.5584 2873 53.6004
42.675 2786 52.7826
42.7915 2832 53.2165
42.9081 2762 52.5547
43.0248 2906 53.9073
43.1415 2849 53.376
43.2582 2752 52.4595
43.375 2769 52.6213
43.4918 2782 52.7447
43.6087 2780 52.7257
43.7256 2687 51.8363
43.8425 2660 51.5752
43.9595 2505 50.05
44.0765 2474 49.7393
44.1935 2326 48.2286
44.3106 2215 47.0638
44.4277 2036 45.1221
44.5448 1838 42.8719
44.6619 1681 41
44.7791 1601 40.0125
44.8963 1628 40.3485
45.0136 1776 42.1426
45.1308 1834 42.8252
45.2481 1926 43.8862
45.3654 2086 45.6727
45.4827 2221 47.1275
45.6001 2163 46.5081
45.7174 2217 47.085
45.8348 2268 47.6235
45.9522 2171 46.594
46.0697 2068 45.4753
46.1871 2045 45.2217
46.3046 2037 45.1331
46.422 2109 45.9239
46.5395 2046 45.2327
46.657 2064 45.4313
46.7745 2090 45.7165
46.892 1999 44.7102
47.0096 1982 44.5197
47.1271 1970 44.3847
47.2446 1929 43.9204
47.3622 1870 43.2435
47.4797 1797 42.391
47.5973 1822 42.6849
47.7149 1661 40.7554
47.8324 1607 40.0874
47.95 1566 39.5727
48.0675 1375 37.081
48.1851 1325 36.4005
48.3027 1202 34.6699
48.4202 1213 34.8281
48.5378 1255 35.426
48.6554 1291 35.9305
48.7729 1401 37.4299
48.8904 1590 39.8748
49.008 1639 40.4846
49.1255 1671 40.8779
49.243 1688 41.0853
49.3605 1669 40.8534
49.478 1549 39.3573
49.5955 1614 40.1746
49.713 1666 40.8167
49.8304 1665 40.8044
49.9479 1783 42.2256
50.0653 1651 40.6325
50.1827 1781 42.2019
50.3001 1810 42.5441
50.4175 1890 43.4741
50.5348 1918 43.795
50.6521 1964 44.317
50.7694 2006 44.7884
50.8867 2008 44.8107
51.004 2036 45.1221
51.1212 2032 45.0777
51.2384 1894 43.5201
51.3556 1871 43.2551
51.4727 1809 42.5323
51.5899 1625 40.3113
51.707 1547 39.3319
51.824 1394 37.3363
51.9411 1527 39.0768
52.0581 1654 40.6694
52.175 1947 44.1248
52.2919 2183 46.7226
52.4088 2307 48.0312
52.5257 2581 50.8035
52.6425 2628 51.264
52.7593 2556 50.5569
52.876 2669 51.6624
52.9927 2719 52.144
53.1094 2706 52.0192
53.226 2797 52.8867
53.3426 2743 52.3737
53.4591 2790 52.8205
53.5756 2827 53.1695
53.692 2832 53.2165
53.8084 2970 54.4977
53.9248 3023 54.9818
54.0411 3034 55.0818
54.1573 3076 55.4617
54.2735 0 1
54.3896 0 1
54.5057 0 1
54.6217 0 1
54.7377 0 1
54.8537 0 1
54.9695 0 1
55.0853 0 1
55.2011 0 1
55.3168 0 1
55.4324 0 1
57.824 0 1
57.9396 0 1
58.0553 0 1
58.1711 0 1
58.2869 0 1
58.4028 0 1
58.5187 0 1
58.6347 0 1
58.7508 0 1
58.8669 0 1
58.983 3386 58.1893
59.0992 3416 58.4466
59.2155 3504 59.1946
59.3318 3615 60.1249
59.4482 3523 59.3549
59.5646 3632 60.2661
59.681 3515 59.2874
59.7975 3350 57.8792
59.9141 3297 57.4195
60.0306 3118 55.8391
60.1473 2779 52.7162
60.2639 2582 50.8134
60.3807 2283 47.7807
60.4974 2152 46.3897
60.6142 2128 46.1303
60.731 2220 47.1169
60.8479 2396 48.949
60.9648 2631 51.2933
61.0818 2980 54.5894
61.1987 3175 56.3471
61.3158 3190 56.4801
61.4328 3193 56.5066
61.5499 3085 55.5428
61.667 3205 56.6127
61.7841 3088 55.5698
61.9013 3090 55.5878
62.0185 3030 55.0454
62.1357 3121 55.8659
62.253 3075 55.4527
62.3702 3107 55.7405
62.4875 3132 55.9643
62.6049 3234 56.8683
62.7222 3139 56.0268
62.8396 3220 56.745
62.9569 3283 57.2975
63.0743 3213 56.6833
63.1918 3157 56.1872
63.3092 3168 56.285
63.4267 2958 54.3875
63.5441 2716 52.1153
63.6616 2567 50.6656
63.7791 2364 48.621
63.8966 2002 44.7437
64.0142 1804 42.4735
64.1317 1750 41.833
64.2492 1998 44.699
64.3668 2124 46.0869
64.4843 2349 48.4665
64.6019 2563 50.6261
64.7195 2755 52.4881
64.837 2836 53.2541
64.9546 2838 53.2729
65.0722 2814 53.0471
65.1898 2770 52.6308
65.3074 2704 52
65.4249 2745 52.3927
65.5425 2853 53.4135
65.6601 2749 52.4309
65.7777 2817 53.0754
65.8952 2849 53.376
66.0128 2873 53.6004
66.1304 2995 54.7266
66.2479 3017 54.9272
66.3655 2930 54.1295
66.483 2990 54.6809
66.6005 2986 54.6443
66.718 2969 54.4885
66.8355 2941 54.231
66.953 2947 54.2863
67.0705 2780 52.7257
67.1879 2660 51.5752
67.3054 2383 48.816
67.4228 2202 46.9255
67.5402 1873 43.2782
67.6576 1631 40.3856
67.7749 1615 40.1871
67.8923 1791 42.3202
68.0096 2022 44.9667
68.1269 2276 47.7074
68.2442 2591 50.9019
68.3614 2728 52.2303
68.4787 2849 53.376
68.5958 2838 53.2729
68.713 2882 53.6843
68.8302 2890 53.7587
68.9473 2875 53.619
69.0643 2899 53.8424
69.1814 2798 52.8961
69.2984 2874 53.6097
69.4154 2971 54.5069
69.5323 2969 54.4885
69.6492 3032 55.0636
69.7661 3154 56.1605
69.8829 3224 56.7803
69.9997 3351 57.8878
70.1165 3276 57.2364
70.2332 3305 57.4891
70.3499 3222 56.7627
70.4665 3304 57.4804
70.5831 3209 56.648
70.6996 3008 54.8452
70.8161 2966 54.461
70.9326 2772 52.6498
71.049 2577 50.7642
71.1653 2258 47.5184
71.2817 1906 43.6578
71.3979 1693 41.1461
71.5141 1687 41.0731
71.6303 1813 42.5793
71.7464 1871 43.2551
71.8624 0 1
71.9784 0 1
72.0944 0 1
72.2102 0 1
72.3261 0 1
72.4418 0 1
72.5575 0 1
72.6732 0 1
75.1054 0 1
75.2209 0 1
75.3365 0 1
75.4521 0 1
75.5678 0 1
75.6835 0 1
75.7993 0 1
75.9151 0 1
76.031 0 1
76.147 2587 50.8626
76.263 2772 52.6498
76.3791 2554 50.5371
76.4952 2305 48.0104
76.6113 1959 44.2606
76.7276 1702 41.2553
76.8438 1782 42.2137
76.9601 1949 44.1475
77.0765 2342 48.3942
77.1929 2602 51.0098
77.3093 2881 53.6749
77.4258 3034 55.0818
77.5423 3176 56.356
77.6589 2965 54.4518
77.7755 3054 55.263
77.8921 3000 54.7723
78.0088 2863 53.507
78.1256 3062 55.3353
78.2423 3029 55.0364
78.3591 3011 54.8726
78.4759 3042 55.1543
78.5928 3036 55.0999
78.7097 3133 55.9732
78.8266 2990 54.6809
78.9436 3332 57.7235
79.0606 3181 56.4004
79.1776 3211 56.6657
79.2946 3264 57.1314
79.4117 3182 56.4092
79.5288 3205 56.6127
79.6459 3069 55.3986
79.7631 2912 53.963
79.8802 2797 52.8867
79.9974 2550 50.4975
80.1147 2421 49.2037
80.2319 1907 43.6692
80.3491 1650 40.6202
80.4664 1527 39.0768
80.5837 1803 42.4617
80.701 1996 44.6766
80.8183 2329 48.2597
80.9357 2742 52.3641
81.053 2788 52.8015
81.1704 2887 53.7308
81.2877 2764 52.5738
81.4051 2664 51.614
81.5225 2765 52.5833
81.6399 2795 52.8678
81.7573 2669 51.6624
81.8747 2686 51.8266
81.9922 2669 51.6624
82.1096 2653 51.5073
82.227 2722 52.1728
82.3444 2785 52.7731
82.4619 2843 53.3198
82.5793 2935 54.1756
82.6967 2789 52.811
82.8142 2842 53.3104
82.9316 2788 52.8015
83.049 2817 53.0754
83.1664 2812 53.0283
83.2838 2700 51.9615
83.4012 2550 50.4975
83.5186 2511 50.1099
83.636 2291 47.8644
83.7534 2076 45.5631
83.8708 1697 41.1947
83.9881 1398 37.3898
84.1055 1324 36.3868
84.2228 1455 38.1445
84.3401 1675 40.9268
84.4575 2017 44.911
84.5747 2289 47.8435
84.692 2531 50.309
84.8093 2516 50.1597
84.9265 2542 50.4183
85.0437 2616 51.1468
85.1609 2511 50.1099
85.2781 2492 49.9199
85.3952 2532 50.319
85.5123 2567 50.6656
85.6294 2498 49.98
85.7465 2665 51.6236
85.8636 2719 52.144
85.9806 2737 52.3163
86.0976 2796 52.8772
86.2145 2880 53.6656
86.3315 3030 55.0454
86.4484 2833 53.2259
86.5652 3051 55.2359
86.682 2975 54.5436
86.7988 3023 54.9818
86.9156 2934 54.1664
87.0323 2800 52.915
87.149 2734 52.2877
87.2657 2522 50.2195
87.3823 2359 48.5695
87.4988 1993 44.643
87.6154 1719 41.4608
87.7318 1683 41.0244
87.8483 1847 42.9767
87.9647 2304 48
88.081 2684 51.8073
88.1973 2868 53.5537
88.3136 3119 55.848
88.4298 3038 55.1181
88.546 2999 54.7631
88.6621 3139 56.0268
88.7781 3040 55.1362
88.8942 0 1
89.0101 0 1
89.126 0 1
89.2419 0 1
89.3577 0 1
89.4734 0 1
89.5891 0 1
89.7047 0 1
89.8203 0 1
89.9358 0 1
92.3269 0 1
92.4424 0 1
92.558 0 1
92.6736 0 1
92.7893 0 1
92.905 0 1
93.0208 0 1
93.1366 0 1
93.2525 0 1
93.3685 0 1
93.4845 0 1
93.6005 2816 53.066
93.7167 3000 54.7723
93.8328 2963 54.4334
93.949 2945 54.2679
94.0653 2929 54.1202
94.1816 2990 54.6809
94.2979 2988 54.6626
94.4143 2977 54.5619
94.5307 2970 54.4977
94.6472 2943 54.2494
94.7637 2906 53.9073
94.8803 3089 55.5788
94.9969 3064 55.3534
95.1135 3139 56.0268
95.2302 3265 57.1402
95.3469 3196 56.5332
95.4637 3286 57.3236
95.5805 3222 56.7627
95.6973 3340 57.7927
95.8142 3275 57.2276
95.9311 3225 56.7891
96.048 3122 55.8749
96.1649 3113 55.7943
96.2819 2945 54.2679
96.3989 2835 53.2447
96.516 2593 50.9215
96.633 2318 48.1456
96.7501 1989 44.5982
96.8673 1861 43.1393
96.9844 1846 42.9651
97.1016 1972 44.4072
97.2188 2320 48.1664
97.336 2835 53.2447
97.4532 2950 54.3139
97.5704 3106 55.7315
97.6877 3032 55.0636
97.805 3071 55.4166
97.9223 3006 54.827
98.0396 2889 53.7494
98.1569 2969 54.4885
98.2743 2959 54.3967
98.3916 2973 54.5252
98.509 3013 54.8908
98.6264 3125 55.9017
98.7438 3087 55.5608
98.8612 3121 55.8659
98.9786 3170 56.3028
99.096 3227 56.8067
99.2134 3248 56.9912
99.3308 3375 58.0948
99.4482 3365 58.0086
99.5656 3362 57.9828
99.6831 3187 56.4535
99.8005 3037 55.109
99.9179 2964 54.4426
100.035 2933 54.1572
100.153 2630 51.2835
100.27 2231 47.2335
100.388 2020 44.9444
100.505 1870 43.2435
100.622 1992 44.6318
100.74 2429 49.2849
100.857 2721 52.1632
100.975 2982 54.6077
101.092 2986 54.6443
101.209 3053 55.254
101.327 3169 56.2939
101.444 3126 55.9106
101.561 3039 55.1271
101.679 3149 56.116
101.796 2964 54.4426
101.913 3108 55.7494
102.03 3047 55.1996
102.148 3163 56.2406
102.265 3178 56.3738
102.382 3422 58.4979
102.499 3328 57.6888
102.616 3420 58.4808
102.733 3498 59.1439
102.851 3455 58.7792
102.968 3438 58.6345
103.085 3421 58.4893
103.202 3360 57.9655
103.319 3323 57.6455
103.436 3315 57.576
103.552 3070 55.4076
103.669 2880 53.6656
103.786 2417 49.163
103.903 2102 45.8476
104.02 1993 44.643
104.137 2217 47.085
104.253 2543 50.4282
104.37 3014 54.8999
104.487 3187 56.4535
104.603 3412 58.4123
104.72 3307 57.5065
104.836 3319 57.6108
104.953 3357 57.9396
105.069 3316 57.5847
105.186 3299 57.4369
105.302 3386 58.1893
105.418 3317 57.5934
105.535 3446 58.7026
105.651 3471 58.9152
105.767 3637 60.3075
105.883 3665 60.5392
105.999 3687 60.7207
106.115 0 1
106.231 0 1
106.347 0 1
106.463 0 1
106.579 0 1
106.694 0 1
106.81 0 1
106.926 0 1
107.041 0 1
107.157 0 1
109.576 0 1
109.692 0 1
109.807 0 1
109.923 0 1
110.039 0 1
110.155 0 1
110.27 0 1
110.386 0 1
110.502 0 1
110.618 3293 57.3847
110.735 3420 58.4808
110.851 3534 59.4475
110.967 3602 60.0167
111.083 3501 59.1692
111.199 3763 61.3433
111.316 3635 60.291
111.432 3728 61.0574
111.549 3702 60.8441
111.665 3780 61.4817
111.782 3563 59.6909
111.898 3454 58.7707
112.015 3354 57.9137
112.132 3218 56.7274
112.248 2950 54.3139
112.365 2453 49.5278
112.482 2100 45.8258
112.599 2304 48
112.716 2607 51.0588
112.832 2854 53.4228
112.949 3189 56.4712
113.066 3332 57.7235
113.183 3333 57.7321
113.3 3452 58.7537
113.417 3375 58.0948
113.534 3339 57.7841
113.652 3316 57.5847
113.769 3322 57.6368
113.886 3319 57.6108
114.003 3438 58.6345
114.12 3313 57.5587
114.238 3387 58.1979
114.355 3527 59.3886
114.472 3538 59.4811
114.589 3652 60.4318
114.707 3708 60.8933
114.824 3756 61.2862
114.942 3754 61.2699
115.059 3860 62.1289
115.176 3746 61.2046
115.294 3826 61.8547
115.411 3586 59.8832
115.529 3516 59.2959
115.646 3407 58.3695
115.764 3094 55.6237
115.881 2767 52.6023
115.999 2469 49.689
116.116 2385 48.8365
116.234 2597 50.9608
116.351 2806 52.9717
116.469 3079 55.4887
116.586 3424 58.515
116.704 3516 59.2959
116.821 3493 59.1016
116.939 3542 59.5147
117.056 3552 59.5987
117.174 3475 58.9491
117.291 3524 59.3633
117.409 3559 59.6574
117.526 3407 58.3695
117.644 3528 59.397
117.761 3549 59.5735
117.879 3640 60.3324
117.996 3602 60.0167
118.114 3753 61.2617
118.231 3875 62.2495
118.349 3671 60.5888
118.466 3779 61.4736
118.584 3771 61.4085
118.701 3855 62.0886
118.819 3746 61.2046
118.936 3721 61
119.053 3622 60.1831
119.171 3485 59.0339
119.288 3271 57.1927
119.405 3102 55.6956
119.523 2736 52.3068
119.64 2487 49.8698
119.757 2565 50.6458
119.875 2511 50.1099
119.992 2774 52.6688
120.109 3103 55.7046
120.226 3401 58.3181
120.343 3412 58.4123
120.46 3424 58.515
120.578 3356 57.931
120.695 3332 57.7235
120.812 3478 58.9746
120.929 3528 59.397
121.046 3371 58.0603
121.163 3322 57.6368
121.279 3476 58.9576
121.396 3455 58.7792
121.513 3405 58.3524
121.63 3669 60.5723
121.747 3663 60.5227
121.863 3689 60.7371
121.98 3682 60.6795
122.097 3652 60.4318
122.213 3703 60.8523
122.33 3642 60.349
122.446 3635 60.291
122.563 3725 61.0328
122.679 3480 58.9915
122.795 3490 59.0762
122.912 3440 58.6515
123.028 3174 56.3383
123.144 2985 54.6352
123.26 2671 51.6817
123.377 0 1
123.493 0 1
123.609 0 1
123.725 0 1
123.84 0 1
123.956 0 1
124.072 0 1
124.188 0 1
124.303 0 1
124.419 0 1
126.852 0 1
126.968 0 1
127.083 0 1
127.199 0 1
127.315 0 1
127.431 0 1
127.547 0 1
127.663 0 1
127.779 0 1
127.895 0 1
128.011 0 1
128.127 0 1
128.243 0 1
128.359 3257 57.0701
128.476 2970 54.4977
128.592 2723 52.1824
128.708 2772 52.6498
128.825 2917 54.0093
128.941 3081 55.5068
129.058 3371 58.0603
129.174 3711 60.918
129.291 3757 61.2944
129.408 3706 60.8769
129.524 3615 60.1249
129.641 3774 61.4329
129.758 3703 60.8523
129.875 3662 60.5145
129.992 3686 60.7124
130.108 3699 60.8194
130.225 3624 60.1997
130.342 3621 60.1747
130.459 3662 60.5145
130.576 3896 62.4179
130.693 3802 61.6604
130.81 3821 61.8142
130.928 4032 63.498
131.045 4058 63.7024
131.162 3853 62.0725
131.279 3887 62.3458
131.396 3996 63.2139
131.513 3959 62.9206
131.631 3743 61.1801
131.748 3735 61.1146
131.865 3480 58.9915
131.983 3289 57.3498
132.1 3040 55.1362
132.217 2873 53.6004
132.335 3056 55.2811
132.452 3230 56.8331
132.57 3446 58.7026
132.687 3625 60.208
132.804 3841 61.9758
132.922 3723 61.0164
133.039 3801 61.6523
133.157 3793 61.5873
133.274 3744 61.1882
133.392 3761 61.327
133.509 3849 62.0403
133.627 3739 61.1474
133.744 3663 60.5227
133.862 3605 60.0417
133.979 3767 61.3759
134.097 3705 60.8687
134.214 3813 61.7495
134.332 3943 62.7933
134.449 3853 62.0725
134.567 3865 62.1691
134.684 4012 63.3404
134.802 3911 62.538
134.919 4041 63.5689
135.037 3908 62.514
135.154 3892 62.3859
135.272 3734 61.1065
135.389 3538 59.4811
135.507 3428 58.5491
135.624 3212 56.6745
135.742 3022 54.9727
135.859 3013 54.8908
135.977 3051 55.2359
136.094 3341 57.8014
136.211 3690 60.7454
136.329 3689 60.7371
136.446 3733 61.0983
136.564 3850 62.0484
136.681 3914 62.562
136.798 3820 61.8061
136.915 3799 61.636
137.033 3731 61.0819
137.15 3598 59.9833
137.267 3533 59.439
137.384 3618 60.1498
137.502 3588 59.8999
137.619 3638 60.3158
137.736 3810 61.7252
137.853 3658 60.4814
137.97 3894 62.4019
138.087 3785 61.5224
138.204 3938 62.7535
138.321 3952 62.8649
138.438 3994 63.1981
138.555 4015 63.364
138.672 4035 63.5216
138.788 4021 63.4114
138.905 3793 61.5873
139.022 3680 60.663
139.139 3468 58.8897
139.255 3351 57.8878
139.372 3141 56.0446
139.488 3237 56.8946
139.605 3306 57.4978
139.721 3569 59.7411
139.838 3786 61.5305
139.954 3996 63.2139
140.071 3966 62.9762
140.187 3984 63.1189
140.303 3901 62.458
140.419 4013 63.3482
140.535 3741 61.1637
140.652 3791 61.5711
140.768 0 1
140.884 0 1
141 0 1
141.115 0 1
141.231 0 1
141.347 0 1
141.463 0 1
141.578 0 1
141.694 0 1
144.104 0 1
144.219 0 1
144.335 0 1
144.45 0 1
144.566 0 1
144.682 0 1
144.798 0 1
144.914 0 1
145.03 0 1
145.146 2941 54.231
145.262 3125 55.9017
145.378 3137 56.0089
145.494 3219 56.7362
145.61 3138 56.0179
145.726 3096 55.6417
145.842 3189 56.4712
145.959 3116 55.8211
146.075 3098 55.6597
146.192 3133 55.9732
146.308 3040 55.1362
146.425 3152 56.1427
146.541 3130 55.9464
146.658 3238 56.9034
146.774 3290 57.3585
146.891 3263 57.1227
147.008 3447 58.7112
147.125 3374 58.0861
147.241 3459 58.8133
147.358 3494 59.1101
147.475 3422 58.4979
147.592 3404 58.3438
147.709 3228 56.8155
147.826 3188 56.4624
147.943 3070 55.4076
148.06 3112 55.7853
148.177 2775 52.6783
148.294 2778 52.7067
148.411 2865 53.5257
148.528 3125 55.9017
148.645 3249 57
148.762 3244 56.9561
148.88 3457 58.7963
148.997 3409 58.3866
149.114 3559 59.6574
149.231 3450 58.7367
149.349 3357 57.9396
149.466 3423 58.5064
149.583 3444 58.6856
149.701 3350 57.8792
149.818 3265 57.1402
149.935 3163 56.2406
150.053 3225 56.7891
150.17 3188 56.4624
150.287 3299 57.4369
150.405 3349 57.8705
150.522 3458 58.8048
150.64 3434 58.6003
150.757 3515 59.2874
150.875 3601 60.0083
150.992 3473 58.9322
151.11 3638 60.3158
151.227 3550 59.5819
151.344 3566 59.716
151.462 3574 59.7829
151.579 3395 58.2666
151.697 3269 57.1752
151.814 3146 56.0892
151.932 3027 55.0182
152.049 3116 55.8211
152.167 3229 56.8243
152.284 3422 58.4979
152.402 3465 58.8643
152.519 3636 60.2993
152.636 3620 60.1664
152.754 3548 59.5651
152.871 3560 59.6657
152.989 3592 59.9333
153.106 3537 59.4727
153.223 3454 58.7707
153.341 3521 59.338
153.458 3355 57.9224
153.575 3299 57.4369
153.693 3222 56.7627
153.81 3192 56.4978
153.927 3282 57.2887
154.044 3451 58.7452
154.162 3487 59.0508
154.279 3577 59.808
154.396 3526 59.3801
154.513 3704 60.8605
154.63 3781 61.4898
154.747 3782 61.498
154.864 3725 61.0328
154.981 3835 61.9274
155.098 3632 60.2661
155.215 3559 59.6574
155.332 3369 58.0431
155.449 3337 57.7668
155.566 3452 58.7537
155.683 3416 58.4466
155.8 3490 59.0762
155.917 3687 60.7207
156.033 3620 60.1664
156.15 0 1
156.267 0 1
156.383 0 1
156.5 0 1
156.617 0 1
156.733 0 1
156.85 0 1
156.966 0 1
157.082 0 1
157.199 0 1
157.315 0 1
157.431 0 1
157.547 0 1
157.664 0 1
157.78 0 1
157.896 0 1
158.012 0 1
158.128 0 1
158.244 0 1
158.359 0 1
158.475 0 1
158.591 0 1
158.706 0 1
