
6.15755 0 1
6.2731 0 1
6.3887 0 1
6.50437 0 1
6.62009 0 1
6.73587 0 1
6.8517 0 1
6.96759 0 1
7.08353 0 1
7.19952 0 1
7.31557 0 1
7.43166 0 1
7.54781 0 1
7.664 0 1
7.78024 0 1
7.89653 0 1
8.01286 0 1
8.12924 0 1
8.24567 0 1
8.36213 0 1
8.47864 0 1
8.59519 0 1
8.71178 0 1
8.82841 0 1
8.94508 0 1
9.06179 0 1
9.17853 0 1
9.29531 0 1
9.41212 0 1
9.52897 0 1
9.64584 0 1
9.76276 0 1
9.8797 0 1
9.99667 0 1
10.1137 0 1
10.2307 0 1
10.3478 0 1
10.4648 0 1
10.5819 0 1
10.6991 0 1
10.8162 0 1
10.9334 0 1
11.0506 0 1
11.1678 0 1
11.285 0 1
11.4023 0 1
11.5196 0 1
11.6369 0 1
11.7542 0 1
11.8715 0 1
11.9888 0 1
12.1062 0 1
12.2235 0 1
12.3409 0 1
12.4582 0 1
12.5756 0 1
12.693 0 1
12.8104 0 1
12.9278 0 1
13.0452 0 1
13.1626 0 1
13.28 0 1
13.3974 0 1
13.5149 0 1
13.6323 0 1
13.7497 0 1
13.8671 0 1
13.9845 0 1
14.1019 0 1
14.2193 0 1
14.3367 0 1
14.4541 0 1
14.5714 0 1
14.6888 0 1
14.8062 0 1
14.9235 0 1
15.0408 0 0
15.1581 0 0
15.2755 0 0
15.3927 0 0
15.51 0 0
15.6273 0 0
15.7445 0 0
15.8617 0 0
15.9789 0 0
16.0961 0 0
16.2132 0 0
16.3304 0 0
16.4475 0 0
16.5646 0 0
16.6816 0 0
16.7986 0 0
16.9156 0 0
17.0326 0 0
17.1496 0 0
17.2665 0 0
17.3833 0 0
17.5002 0 0
17.617 0 0
17.7338 0 0
17.8505 0 0
17.9672 0 0
18.0839 0 0
18.2005 0 0
18.3171 0 0
18.4337 0 0
18.5502 0 0
18.6666 0 0
18.7831 0 0
18.8994 0 0
19.0158 0 0
19.1321 0 0
19.2483 0 0
19.3645 0 0
19.4806 0 0
19.5967 0 0
19.7128 0 0
19.8288 0 0
19.9447 0 0
20.0606 0 1
20.1764 0 1
20.2922 0 1
20.4079 0 1
20.5236 0 1
20.6392 0 1
20.7548 0 1
20.8702 0 1
23.3078 0 1
23.4233 0 1
23.539 0 1
23.6547 0 1
23.7704 0 1
23.8862 0 1
24.0021 0 1
24.118 0 1
24.234 0 1
24.35 0 1
24.4661 1569 39.6106
24.5822 1488 38.5746
24.6984 1591 39.8873
24.8146 1575 39.6863
24.9309 1588 39.8497
25.0472 1516 38.9358
25.1636 1606 40.0749
25.28 1658 40.7185
25.3965 1590 39.8748
25.513 1635 40.4351
25.6296 1681 41
25.7462 1603 40.0375
25.8628 1629 40.3609
25.9795 1650 40.6202
26.0962 1618 40.2244
26.213 1647 40.5832
26.3298 1674 40.9145
26.4466 1614 40.1746
26.5635 1462 38.2361
26.6804 1397 37.3765
26.7973 1329 36.4555
26.9143 1274 35.6931
27.0313 1412 37.5766
27.1483 1520 38.9872
27.2653 1581 39.7618
27.3824 1600 40
27.4996 1622 40.2741
27.6167 1557 39.4588
27.7339 1609 40.1123
27.8511 1567 39.5854
27.9683 1567 39.5854
28.0855 1553 39.4081
28.2028 1502 38.7556
28.3201 1517 38.9487
28.4374 1404 37.47
28.5547 1541 39.2556
28.6721 1530 39.1152
28.7894 1594 39.9249
28.9068 1596 39.95
29.0242 1628 40.3485
29.1416 1518 38.9615
29.259 1566 39.5727
29.3764 1574 39.6737
29.4939 1530 39.1152
29.6113 1517 38.9487
29.7288 1521 39
29.8463 1495 38.6652
29.9638 1449 38.0657
30.0812 1375 37.081
30.1987 1238 35.1852
30.3162 1222 34.9571
30.4337 1214 34.8425
30.5512 1335 36.5377
30.6687 1399 37.4032
30.7862 1452 38.1051
30.9037 1525 39.0512
31.0212 1483 38.5097
31.1387 1565 39.5601
31.2562 1598 39.975
31.3737 1596 39.95
31.4912 1484 38.5227
31.6087 1489 38.5876
31.7262 1493 38.6394
31.8436 1557 39.4588
31.9611 1516 38.9358
32.0785 1535 39.1791
32.1959 1644 40.5463
32.3134 1562 39.5221
32.4308 1547 39.3319
32.5482 1487 38.5616
32.6655 1553 39.4081
32.7829 1529 39.1024
32.9002 1554 39.4208
33.0176 1561 39.5095
33.1349 1498 38.704
33.2522 1529 39.1024
33.3694 1610 40.1248
33.4867 1561 39.5095
33.6039 1489 38.5876
33.7211 1409 37.5366
33.8383 1343 36.647
33.9554 1269 35.623
34.0725 1277 35.7351
34.1896 1283 35.819
34.3067 1418 37.6563
34.4237 1494 38.6523
34.5407 1560 39.4968
34.6577 1549 39.3573
34.7746 1629 40.3609
34.8915 1614 40.1746
35.0084 1624 40.2989
35.1252 1613 40.1622
35.242 1537 39.2046
35.3587 1494 38.6523
35.4755 1596 39.95
35.5921 1529 39.1024
35.7088 1570 39.6232
35.8254 1606 40.0749
35.9419 1508 38.833
36.0584 1607 40.0874
36.1749 1594 39.9249
36.2913 1614 40.1746
36.4077 1553 39.4081
36.524 1589 39.8623
36.6403 1564 39.5474
36.7565 1583 39.7869
36.8727 1640 40.4969
36.9889 1607 40.0874
37.1049 1615 40.1871
37.221 0 1
37.3369 0 1
37.4529 0 1
37.5687 0 1
37.6845 0 1
37.8003 0 1
37.916 0 1
38.0316 0 1
38.1472 0 1
40.5851 0 1
40.7008 0 1
40.8164 0 1
40.9322 0 1
41.048 0 1
41.1639 0 1
41.2798 0 1
41.3958 0 1
41.5118 0 1
41.6279 0 1
41.744 1377 37.108
41.8602 1328 36.4417
41.9765 1355 36.8103
42.0928 1445 38.0132
42.2091 1400 37.4166
42.3255 1360 36.8782
42.4419 1319 36.318
42.5584 1185 34.4238
42.675 1072 32.7414
42.7915 1079 32.8481
42.9081 1137 33.7194
43.0248 1211 34.7994
43.1415 1297 36.0139
43.2582 1339 36.5923
43.375 1310 36.1939
43.4918 1402 37.4433
43.6087 1375 37.081
43.7256 1363 36.9188
43.8425 1380 37.1484
43.9595 1350 36.7423
44.0765 1325 36.4005
44.1935 1348 36.7151
44.3106 1219 34.9142
44.4277 1207 34.7419
44.5448 1167 34.1614
44.6619 1266 35.5809
44.7791 1193 34.5398
44.8963 1226 35.0143
45.0136 1197 34.5977
45.1308 1256 35.4401
45.2481 1196 34.5832
45.3654 1234 35.1283
45.4827 1244 35.2704
45.6001 1244 35.2704
45.7174 1189 34.4819
45.8348 1265 35.5668
45.9522 1233 35.1141
46.0697 1085 32.9393
46.1871 1054 32.4654
46.3046 915 30.249
46.422 929 30.4795
46.5395 998 31.5911
46.657 1048 32.3728
46.7745 1148 33.8821
46.892 1113 33.3617
47.0096 1236 35.1568
47.1271 1185 34.4238
47.2446 1187 34.4529
47.3622 1114 33.3766
47.4797 1091 33.0303
47.5973 1106 33.2566
47.7149 1056 32.4962
47.8324 1038 32.218
47.95 1045 32.3265
48.0675 1041 32.2645
48.1851 1021 31.9531
48.3027 1027 32.0468
48.4202 1070 32.7109
48.5378 1077 32.8177
48.6554 1115 33.3916
48.7729 1079 32.8481
48.8904 1083 32.909
49.008 1051 32.4191
49.1255 1108 33.2866
49.243 1103 33.2114
49.3605 1139 33.7491
49.478 1063 32.6037
49.5955 1032 32.1248
49.713 961 31
49.8304 890 29.8329
49.9479 835 28.8964
50.0653 960 30.9839
50.1827 1130 33.6155
50.3001 1188 34.4674
50.4175 1284 35.8329
50.5348 1308 36.1663
50.6521 1410 37.55
50.7694 1338 36.5787
50.8867 1442 37.9737
51.004 1461 38.223
51.1212 1420 37.6829
51.2384 1403 37.4566
51.3556 1456 38.1576
51.4727 1422 37.7094
51.5899 1509 38.8458
51.707 1454 38.1314
51.824 1597 39.9625
51.9411 1577 39.7115
52.0581 1648 40.5956
52.175 1685 41.0488
52.2919 1747 41.7971
52.4088 1700 41.2311
52.5257 1862 43.1509
52.6425 1804 42.4735
52.7593 1805 42.4853
52.876 1860 43.1277
52.9927 1854 43.0581
53.1094 1761 41.9643
53.226 1636 40.4475
53.3426 1521 39
53.4591 1457 38.1707
53.5756 1443 37.9868
53.692 1568 39.598
53.8084 1844 42.9418
53.9248 1893 43.5086
54.0411 2098 45.8039
54.1573 1997 44.6878
54.2735 0 1
54.3896 0 1
54.5057 0 1
54.6217 0 1
54.7377 0 1
54.8537 0 1
54.9695 0 1
55.0853 0 1
55.2011 0 1
55.3168 0 1
55.4324 0 1
57.824 0 1
57.9396 0 1
58.0553 0 1
58.1711 0 1
58.2869 0 1
58.4028 0 1
58.5187 0 1
58.6347 0 1
58.7508 0 1
58.8669 0 1
58.983 2501 50.01
59.0992 2738 52.3259
59.2155 2949 54.3047
59.3318 2901 53.8609
59.4482 2930 54.1295
59.5646 2968 54.4794
59.681 2971 54.5069
59.7975 2955 54.3599
59.9141 2973 54.5252
60.0306 2835 53.2447
60.1473 2746 52.4023
60.2639 2693 51.8941
60.3807 2688 51.8459
60.4974 2700 51.9615
60.6142 2761 52.5452
60.731 2921 54.0463
60.8479 3050 55.2268
60.9648 3073 55.4346
61.0818 3142 56.0535
61.1987 3061 55.3263
61.3158 3061 55.3263
61.4328 3031 55.0545
61.5499 3072 55.4256
61.667 2913 53.9722
61.7841 2719 52.144
61.9013 2491 49.9099
62.0185 2264 47.5815
62.1357 2360 48.5798
62.253 2399 48.9796
62.3702 2824 53.1413
62.4875 3046 55.1906
62.6049 3233 56.8595
62.7222 3205 56.6127
62.8396 3239 56.9122
62.9569 3228 56.8155
63.0743 3294 57.3934
63.1918 3207 56.6304
63.3092 3244 56.9561
63.4267 3210 56.6569
63.5441 3098 55.6597
63.6616 3022 54.9727
63.7791 2898 53.8331
63.8966 2923 54.0648
64.0142 3004 54.8088
64.1317 3081 55.5068
64.2492 3081 55.5068
64.3668 3322 57.6368
64.4843 3305 57.4891
64.6019 3413 58.4209
64.7195 3298 57.4282
64.837 3381 58.1464
64.9546 3463 58.8473
65.0722 3328 57.6888
65.1898 3167 56.2761
65.3074 3127 55.9196
65.4249 2803 52.9434
65.5425 2649 51.4684
65.6601 2464 49.6387
65.7777 2635 51.3323
65.8952 2859 53.4696
66.0128 3321 57.6281
66.1304 3453 58.7622
66.2479 3475 58.9491
66.3655 3626 60.2163
66.483 3691 60.7536
66.6005 3597 59.975
66.718 3767 61.3759
66.8355 3645 60.3738
66.953 3528 59.397
67.0705 3416 58.4466
67.1879 3485 59.0339
67.3054 3257 57.0701
67.4228 3294 57.3934
67.5402 3178 56.3738
67.6576 3454 58.7707
67.7749 3211 56.6657
67.8923 3713 60.9344
68.0096 3705 60.8687
68.1269 3686 60.7124
68.2442 3861 62.1369
68.3614 3854 62.0806
68.4787 3858 62.1128
68.5958 4078 63.8592
68.713 3958 62.9126
68.8302 3911 62.538
68.9473 3657 60.4731
69.0643 3440 58.6515
69.1814 3076 55.4617
69.2984 2870 53.5724
69.4154 3008 54.8452
69.5323 3330 57.7062
69.6492 3658 60.4814
69.7661 4151 64.4283
69.8829 4165 64.5368
69.9997 4297 65.5515
70.1165 4299 65.5668
70.2332 4399 66.325
70.3499 4363 66.053
70.4665 4287 65.4752
70.5831 4200 64.8074
70.6996 4202 64.8228
70.8161 4060 63.7181
70.9326 3985 63.1269
71.049 3742 61.1719
71.1653 3685 60.7042
71.2817 3611 60.0916
71.3979 3745 61.1964
71.5141 3852 62.0645
71.6303 3941 62.7774
71.7464 3777 61.4573
71.8624 0 1
71.9784 0 1
72.0944 0 1
72.2102 0 1
72.3261 0 1
72.4418 0 1
72.5575 0 1
72.6732 0 1
75.1054 0 1
75.2209 0 1
75.3365 0 1
75.4521 0 1
75.5678 0 1
75.6835 0 1
75.7993 0 1
75.9151 0 1
76.031 0 1
76.147 4001 63.2535
76.263 4119 64.1794
76.3791 4032 63.498
76.4952 3870 62.2093
76.6113 3973 63.0317
76.7276 4003 63.2693
76.8438 4243 65.1383
76.9601 4362 66.0454
77.0765 4622 67.9853
77.1929 4577 67.6535
77.3093 4737 68.8259
77.4258 4686 68.4544
77.5423 4720 68.7023
77.6589 4706 68.6003
77.7755 4712 68.644
77.8921 4423 66.5056
78.0088 4222 64.9769
78.1256 3715 60.9508
78.2423 3404 58.3438
78.3591 3201 56.5774
78.4759 3378 58.1206
78.5928 3746 61.2046
78.7097 4136 64.3117
78.8266 4683 68.4324
78.9436 4413 66.4304
79.0606 4751 68.9275
79.1776 4658 68.2495
79.2946 4874 69.814
79.4117 4607 67.8749
79.5288 4652 68.2056
79.6459 4597 67.8012
79.7631 4403 66.3551
79.8802 4249 65.1844
79.9974 3983 63.111
80.1147 3842 61.9839
80.2319 3750 61.2372
80.3491 3938 62.7535
80.4664 4032 63.498
80.5837 4225 65
80.701 4442 66.6483
80.8183 4512 67.1714
80.9357 4672 68.352
81.053 4516 67.2012
81.1704 4634 68.0735
81.2877 4632 68.0588
81.4051 4616 67.9412
81.5225 4584 67.7052
81.6399 4036 63.5295
81.7573 3800 61.6441
81.8747 3401 58.3181
81.9922 3268 57.1664
82.1096 3416 58.4466
82.227 3592 59.9333
82.3444 3885 62.3298
82.4619 4125 64.2262
82.5793 4276 65.3911
82.6967 4506 67.1267
82.8142 4567 67.5796
82.9316 4412 66.4229
83.049 4453 66.7308
83.1664 4419 66.4756
83.2838 4304 65.6049
83.4012 4198 64.792
83.5186 4005 63.2851
83.636 3786 61.5305
83.7534 3596 59.9667
83.8708 3413 58.4209
83.9881 3540 59.4979
84.1055 3741 61.1637
84.2228 3974 63.0397
84.3401 4091 63.9609
84.4575 4283 65.4446
84.5747 4330 65.8027
84.692 4384 66.2118
84.8093 4495 67.0448
84.9265 4485 66.9701
85.0437 4422 66.4981
85.1609 4315 65.6887
85.2781 3832 61.9032
85.3952 3611 60.0916
85.5123 3454 58.7707
85.6294 3174 56.3383
85.7465 3637 60.3075
85.8636 3793 61.5873
85.9806 4032 63.498
86.0976 4389 66.2495
86.2145 4672 68.352
86.3315 4587 67.7274
86.4484 4983 70.5904
86.5652 4861 69.7209
86.682 4790 69.2098
86.7988 4869 69.7782
86.9156 4814 69.383
87.0323 4645 68.1542
87.149 4476 66.9029
87.2657 4275 65.3835
87.3823 4038 63.5453
87.4988 3986 63.1348
87.6154 4080 63.8749
87.7318 4288 65.4828
87.8483 4789 69.2026
87.9647 4943 70.3065
88.081 5013 70.8025
88.1973 5172 71.9166
88.3136 5184 72
88.4298 5212 72.1942
88.546 5127 71.6031
88.6621 4975 70.5337
88.7781 4655 68.2276
88.8942 0 1
89.0101 0 1
89.126 0 1
89.2419 0 1
89.3577 0 1
89.4734 0 1
89.5891 0 1
89.7047 0 1
89.8203 0 1
89.9358 0 1
92.3269 0 1
92.4424 0 1
92.558 0 1
92.6736 0 1
92.7893 0 1
92.905 0 1
93.0208 0 1
93.1366 0 1
93.2525 0 1
93.3685 0 1
93.4845 0 1
93.6005 5018 70.8378
93.7167 5129 71.617
93.8328 5095 71.3793
93.949 5066 71.1758
94.0653 5047 71.0422
94.1816 4993 70.6612
94.2979 4738 68.8331
94.4143 4319 65.7191
94.5307 4094 63.9844
94.6472 4024 63.435
94.7637 3876 62.2575
94.8803 4107 64.0859
94.9969 4473 66.8805
95.1135 4667 68.3154
95.2302 4803 69.3037
95.3469 4879 69.8498
95.4637 5027 70.9013
95.5805 5295 72.7668
95.6973 5322 72.952
95.8142 5352 73.1574
95.9311 5179 71.9653
96.048 5128 71.6101
96.1649 5260 72.5259
96.2819 4959 70.4202
96.3989 4722 68.7168
96.516 4373 66.1287
96.633 4164 64.5291
96.7501 4231 65.0461
96.8673 4336 65.8483
96.9844 4596 67.7938
97.1016 5102 71.4283
97.2188 5357 73.1915
97.336 5385 73.3826
97.4532 5406 73.5255
97.5704 5372 73.2939
97.6877 5402 73.4983
97.805 5293 72.753
97.9223 5244 72.4155
98.0396 4754 68.9493
98.1569 4553 67.4759
98.2743 4198 64.792
98.3916 4147 64.3972
98.509 4309 65.643
98.6264 4424 66.5132
98.7438 4752 68.9348
98.8612 4951 70.3633
98.9786 5214 72.208
99.096 5396 73.4575
99.2134 5553 74.5185
99.3308 5530 74.364
99.4482 5746 75.8024
99.5656 5671 75.306
99.6831 5476 74
99.8005 5405 73.5187
99.9179 5172 71.9166
100.035 4939 70.278
100.153 4645 68.1542
100.27 4398 66.3174
100.388 4469 66.8506
100.505 4710 68.6294
100.622 5087 71.3232
100.74 5538 74.4177
100.857 5579 74.6927
100.975 5685 75.3989
101.092 5713 75.5844
101.209 5605 74.8665
101.327 5813 76.243
101.444 5617 74.9466
101.561 5326 72.9794
101.679 5035 70.9577
101.796 4757 68.971
101.913 4509 67.1491
102.03 4386 66.2269
102.148 4755 68.9565
102.265 5364 73.2393
102.382 4972 70.5124
102.499 5413 73.5731
102.616 5612 74.9133
102.733 5706 75.5381
102.851 5798 76.1446
102.968 5925 76.974
103.085 6077 77.9551
103.202 5879 76.6746
103.319 5585 74.7329
103.436 5462 73.9053
103.552 5318 72.9246
103.669 5000 70.7107
103.786 4506 67.1267
103.903 4546 67.424
104.02 5020 70.852
104.137 5558 74.552
104.253 5965 77.2334
104.37 5847 76.4657
104.487 6099 78.0961
104.603 6135 78.3262
104.72 6142 78.3709
104.836 6059 77.8396
104.953 6132 78.3071
105.069 5799 76.1512
105.186 5411 73.5595
105.302 4993 70.6612
105.418 4875 69.8212
105.535 4860 69.7137
105.651 5318 72.9246
105.767 5594 74.793
105.883 5795 76.1249
105.999 5963 77.2205
106.115 0 1
106.231 0 1
106.347 0 1
106.463 0 1
106.579 0 1
106.694 0 1
106.81 0 1
106.926 0 1
107.041 0 1
107.157 0 1
109.576 0 1
109.692 0 1
109.807 0 1
109.923 0 1
110.039 0 1
110.155 0 1
110.27 0 1
110.386 0 1
110.502 0 1
110.618 4636 68.0882
110.735 5167 71.8818
110.851 5418 73.6071
110.967 5531 74.3707
111.083 5578 74.686
111.199 5850 76.4853
111.316 5986 77.3692
111.432 6049 77.7753
111.549 5882 76.6942
111.665 5868 76.6029
111.782 5903 76.831
111.898 5450 73.8241
112.015 5212 72.1942
112.132 4741 68.8549
112.248 4408 66.3928
112.365 4317 65.7039
112.482 4433 66.5808
112.599 4790 69.2098
112.716 5235 72.3533
112.832 5637 75.08
112.949 5601 74.8398
113.066 5503 74.1822
113.183 5523 74.3169
113.3 5445 73.7902
113.417 5396 73.4575
113.534 5234 72.3464
113.652 5008 70.7672
113.769 4658 68.2495
113.886 4486 66.9776
114.003 4402 66.3476
114.12 4156 64.467
114.238 4587 67.7274
114.355 4641 68.1249
114.472 4771 69.0724
114.589 4826 69.4694
114.707 4931 70.2211
114.824 5057 71.1126
114.942 5141 71.7008
115.059 5189 72.0347
115.176 5127 71.6031
115.294 5091 71.3512
115.411 5109 71.4773
115.529 4796 69.2532
115.646 4533 67.3276
115.764 4248 65.1767
115.881 3873 62.2334
115.999 4173 64.5988
116.116 4351 65.9621
116.234 4794 69.2387
116.351 4977 70.5479
116.469 5181 71.9792
116.586 5320 72.9383
116.704 5289 72.7255
116.821 5167 71.8818
116.939 5121 71.5612
117.056 5128 71.6101
117.174 5056 71.1056
117.291 4935 70.2496
117.409 4855 69.6778
117.526 4475 66.8954
117.644 4394 66.2873
117.761 4462 66.7982
117.879 4675 68.374
117.996 4822 69.4406
118.114 5019 70.8449
118.231 5047 71.0422
118.349 5095 71.3793
118.466 5145 71.7287
118.584 5353 73.1642
118.701 5312 72.8835
118.819 5286 72.7049
118.936 5276 72.6361
119.053 5049 71.0563
119.171 4894 69.9571
119.288 4626 68.0147
119.405 4153 64.4438
119.523 3918 62.5939
119.64 3999 63.2376
119.757 4376 66.1513
119.875 4778 69.1231
119.992 5017 70.8308
120.109 5370 73.2803
120.226 5135 71.6589
120.343 5234 72.3464
120.46 5251 72.4638
120.578 5282 72.6774
120.695 5210 72.1803
120.812 5228 72.3049
120.929 5035 70.9577
121.046 4945 70.3207
121.163 4675 68.374
121.279 4294 65.5286
121.396 4433 66.5808
121.513 4378 66.1665
121.63 4492 67.0224
121.747 4715 68.6659
121.863 4914 70.0999
121.98 4911 70.0785
122.097 4926 70.1855
122.213 5087 71.3232
122.33 5108 71.4703
122.446 5247 72.4362
122.563 5134 71.6519
122.679 4969 70.4911
122.795 4929 70.2068
122.912 4808 69.3397
123.028 4469 66.8506
123.144 4025 63.4429
123.26 3868 62.1932
123.377 0 1
123.493 0 1
123.609 0 1
123.725 0 1
123.84 0 1
123.956 0 1
124.072 0 1
124.188 0 1
124.303 0 1
124.419 0 1
126.852 0 1
126.968 0 1
127.083 0 1
127.199 0 1
127.315 0 1
127.431 0 1
127.547 0 1
127.663 0 1
127.779 0 1
127.895 0 1
128.011 0 1
128.127 0 1
128.243 0 1
128.359 4495 67.0448
128.476 4234 65.0692
128.592 4310 65.6506
128.708 4763 69.0145
128.825 5335 73.0411
128.941 5800 76.1577
129.058 5623 74.9867
129.174 5811 76.2299
129.291 5820 76.2889
129.408 5760 75.8947
129.524 5820 76.2889
129.641 5724 75.6571
129.758 5730 75.6968
129.875 5611 74.9066
129.992 5383 73.3689
130.108 5157 71.8123
130.225 4966 70.4699
130.342 4897 69.9786
130.459 4837 69.5485
130.576 5270 72.5948
130.693 5230 72.3187
130.81 5365 73.2462
130.928 5296 72.7736
131.045 5441 73.7631
131.162 5710 75.5645
131.279 5625 75
131.396 5713 75.5844
131.513 5517 74.2765
131.631 5367 73.2598
131.748 5187 72.0208
131.865 4704 68.5857
131.983 4193 64.7534
132.1 4138 64.3273
132.217 4641 68.1249
132.335 4951 70.3633
132.452 5398 73.4711
132.57 5460 73.8918
132.687 5336 73.0479
132.804 5781 76.0329
132.922 5690 75.4321
133.039 5588 74.7529
133.157 5312 72.8835
133.274 5502 74.1755
133.392 5454 73.8512
133.509 5489 74.0878
133.627 5163 71.854
133.744 5067 71.1829
133.862 4683 68.4324
133.979 4842 69.5845
134.097 4824 69.455
134.214 5055 71.0985
134.332 5078 71.2601
134.449 5191 72.0486
134.567 5357 73.1915
134.684 5358 73.1984
134.802 5466 73.9324
134.919 5363 73.2325
135.037 5365 73.2462
135.154 5444 73.7835
135.272 5275 72.6292
135.389 5033 70.9436
135.507 4405 66.3702
135.624 3886 62.3378
135.742 4118 64.1716
135.859 4742 68.8622
135.977 4933 70.2353
136.094 5393 73.437
136.211 5440 73.7564
136.329 5471 73.9662
136.446 5633 75.0533
136.564 5332 73.0205
136.681 5643 75.1199
136.798 5432 73.7021
136.915 5584 74.7262
137.033 5439 73.7496
137.15 5342 73.089
137.267 5187 72.0208
137.384 4967 70.4769
137.502 4823 69.4478
137.619 4794 69.2387
137.736 4900 70
137.853 4789 69.2026
137.97 4994 70.6682
138.087 5362 73.2257
138.204 5259 72.519
138.321 5147 71.7426
138.438 5351 73.1505
138.555 5418 73.6071
138.672 5368 73.2666
138.788 5358 73.1984
138.905 5111 71.4913
139.022 4829 69.491
139.139 4362 66.0454
139.255 4047 63.616
139.372 4067 63.773
139.488 4499 67.0746
139.605 4896 69.9714
139.721 5301 72.808
139.838 5509 74.2226
139.954 5384 73.3757
140.071 5296 72.7736
140.187 5570 74.6324
140.303 5393 73.437
140.419 5420 73.6206
140.535 5325 72.9726
140.652 5252 72.4707
140.768 0 1
140.884 0 1
141 0 1
141.115 0 1
141.231 0 1
141.347 0 1
141.463 0 1
141.578 0 1
141.694 0 1
144.104 0 1
144.219 0 1
144.335 0 1
144.45 0 1
144.566 0 1
144.682 0 1
144.798 0 1
144.914 0 1
145.03 0 1
145.146 4560 67.5278
145.262 4687 68.4617
145.378 4664 68.2935
145.494 4682 68.4251
145.61 4689 68.4763
145.726 4490 67.0075
145.842 4584 67.7052
145.959 4430 66.5582
146.075 4292 65.5134
146.192 4267 65.3223
146.308 4230 65.0385
146.425 4253 65.215
146.541 4216 64.9307
146.658 4260 65.2687
146.774 4361 66.0379
146.891 4399 66.325
147.008 4396 66.3023
147.125 4527 67.283
147.241 4507 67.1342
147.358 4266 65.3146
147.475 4262 65.284
147.592 3968 62.9921
147.709 3669 60.5723
147.826 3334 57.7408
147.943 3267 57.1577
148.06 3497 59.1354
148.177 3881 62.2977
148.294 4379 66.174
148.411 4401 66.34
148.528 4453 66.7308
148.645 4477 66.9104
148.762 4435 66.5958
148.88 4317 65.7039
148.997 4133 64.2884
149.114 4464 66.8132
149.231 4230 65.0385
149.349 4440 66.6333
149.466 4150 64.4205
149.583 4063 63.7417
149.701 4044 63.5925
149.818 4015 63.364
149.935 3837 61.9435
150.053 3846 62.0161
150.17 3722 61.0082
150.287 3969 63
150.405 3996 63.2139
150.522 4136 64.3117
150.64 4141 64.3506
150.757 4180 64.6529
150.875 4098 64.0156
150.992 4115 64.1483
151.11 3836 61.9355
151.227 3694 60.7783
151.344 3520 59.3296
151.462 3211 56.6657
151.579 3297 57.4195
151.697 3510 59.2453
151.814 3736 61.1228
151.932 4102 64.0469
152.049 4237 65.0922
152.167 4226 65.0077
152.284 4280 65.4217
152.402 4218 64.9461
152.519 4374 66.1362
152.636 4278 65.4064
152.754 4229 65.0308
152.871 4175 64.6142
152.989 4146 64.3894
153.106 4169 64.5678
153.223 4035 63.5216
153.341 4056 63.6867
153.458 3918 62.5939
153.575 3978 63.0714
153.693 3880 62.2896
153.81 3842 61.9839
153.927 3969 63
154.044 3976 63.0555
154.162 4222 64.9769
154.279 4273 65.3682
154.396 4210 64.8845
154.513 4305 65.6125
154.63 4177 64.6297
154.747 4048 63.6239
154.864 3844 62
154.981 3732 61.0901
155.098 3596 59.9667
155.215 3389 58.2151
155.332 3567 59.7244
155.449 3875 62.2495
155.566 4201 64.8151
155.683 4147 64.3972
155.8 4171 64.5833
155.917 4206 64.8537
156.033 4314 65.681
156.15 0 1
156.267 0 1
156.383 0 1
156.5 0 1
156.617 0 1
156.733 0 1
156.85 0 1
156.966 0 1
157.082 0 1
157.199 0 1
157.315 0 1
157.431 0 1
157.547 0 1
157.664 0 1
157.78 0 1
157.896 0 1
158.012 0 1
158.128 0 1
158.244 0 1
158.359 0 1
158.475 0 1
158.591 0 1
158.706 0 1
