
6.15755 0 1
6.2731 0 1
6.3887 0 1
6.50437 0 1
6.62009 0 1
6.73587 0 1
6.8517 0 1
6.96759 0 1
7.08353 0 1
7.19952 0 1
7.31557 0 1
7.43166 0 1
7.54781 0 1
7.664 0 1
7.78024 0 1
7.89653 0 1
8.01286 0 1
8.12924 0 1
8.24567 0 1
8.36213 0 1
8.47864 0 1
8.59519 0 1
8.71178 0 1
8.82841 0 1
8.94508 0 1
9.06179 0 1
9.17853 0 1
9.29531 0 1
9.41212 0 1
9.52897 0 1
9.64584 0 1
9.76276 0 1
9.8797 0 1
9.99667 0 1
10.1137 0 1
10.2307 0 1
10.3478 0 1
10.4648 0 1
10.5819 0 1
10.6991 0 1
10.8162 0 1
10.9334 0 1
11.0506 0 1
11.1678 0 1
11.285 0 1
11.4023 0 1
11.5196 0 1
11.6369 0 1
11.7542 0 1
11.8715 0 1
11.9888 0 1
12.1062 0 1
12.2235 0 1
12.3409 0 1
12.4582 0 1
12.5756 0 1
12.693 0 1
12.8104 0 1
12.9278 0 1
13.0452 0 1
13.1626 0 1
13.28 0 1
13.3974 0 1
13.5149 0 1
13.6323 0 1
13.7497 0 1
13.8671 0 1
13.9845 0 1
14.1019 0 1
14.2193 0 1
14.3367 0 1
14.4541 0 1
14.5714 0 1
14.6888 0 1
14.8062 0 1
14.9235 0 1
15.0408 0 0
15.1581 0 0
15.2755 0 0
15.3927 0 0
15.51 0 0
15.6273 0 0
15.7445 0 0
15.8617 0 0
15.9789 0 0
16.0961 0 0
16.2132 0 0
16.3304 0 0
16.4475 0 0
16.5646 0 0
16.6816 0 0
16.7986 0 0
16.9156 0 0
17.0326 0 0
17.1496 0 0
17.2665 0 0
17.3833 0 0
17.5002 0 0
17.617 0 0
17.7338 0 0
17.8505 0 0
17.9672 0 0
18.0839 0 0
18.2005 0 0
18.3171 0 0
18.4337 0 0
18.5502 0 0
18.6666 0 0
18.7831 0 0
18.8994 0 0
19.0158 0 0
19.1321 0 0
19.2483 0 0
19.3645 0 0
19.4806 0 0
19.5967 0 0
19.7128 0 0
19.8288 0 0
19.9447 0 0
20.0606 0 1
20.1764 0 1
20.2922 0 1
20.4079 0 1
20.5236 0 1
20.6392 0 1
20.7548 0 1
20.8702 0 1
23.3078 0 1
23.4233 0 1
23.539 0 1
23.6547 0 1
23.7704 0 1
23.8862 0 1
24.0021 0 1
24.118 0 1
24.234 0 1
24.35 0 1
24.4661 4820 69.4262
24.5822 6153 78.4411
24.6984 6834 82.668
24.8146 7473 86.4465
24.9309 8433 91.8314
25.0472 9155 95.6818
25.1636 9718 98.5799
25.28 10617 103.039
25.3965 11445 106.981
25.513 11731 108.31
25.6296 12225 110.567
25.7462 12653 112.486
25.8628 13103 114.468
25.9795 13072 114.333
26.0962 12917 113.653
26.213 12356 111.158
26.3298 11579 107.606
26.4466 10956 104.671
26.5635 10535 102.64
26.6804 10526 102.596
26.7973 11134 105.518
26.9143 11553 107.485
27.0313 11462 107.061
27.1483 11919 109.174
27.2653 12281 110.82
27.3824 12347 111.117
27.4996 12368 111.212
27.6167 12333 111.054
27.7339 12077 109.895
27.8511 11533 107.392
27.9683 11346 106.518
28.0855 10994 104.852
28.2028 10953 104.657
28.3201 10426 102.108
28.4374 10435 102.152
28.5547 10977 104.771
28.6721 11445 106.981
28.7894 11713 108.227
28.9068 11994 109.517
29.0242 12469 111.665
29.1416 12422 111.454
29.259 12268 110.761
29.3764 12295 110.883
29.4939 12351 111.135
29.6113 12098 109.991
29.7288 11357 106.569
29.8463 10844 104.135
29.9638 10487 102.406
30.0812 10121 100.603
30.1987 10459 102.269
30.3162 10748 103.673
30.4337 10890 104.355
30.5512 10934 104.566
30.6687 11333 106.457
30.7862 11726 108.287
30.9037 11947 109.302
31.0212 11994 109.517
31.1387 11737 108.337
31.2562 11851 108.862
31.3737 11478 107.135
31.4912 11039 105.067
31.6087 10661 103.252
31.7262 10735 103.61
31.8436 10244 101.213
31.9611 9954 99.7697
32.0785 10264 101.311
32.1959 10565 102.786
32.3134 11270 106.16
32.4308 11719 108.254
32.5482 12046 109.754
32.6655 11925 109.202
32.7829 11966 109.389
32.9002 11877 108.982
33.0176 11903 109.101
33.1349 11938 109.261
33.2522 11501 107.243
33.3694 11291 106.259
33.4867 10561 102.767
33.6039 10311 101.543
33.7211 9837 99.1817
33.8383 9925 99.6243
33.9554 10534 102.635
34.0725 10554 102.733
34.1896 10838 104.106
34.3067 11128 105.489
34.4237 11274 106.179
34.5407 11554 107.49
34.6577 11575 107.587
34.7746 11598 107.694
34.8915 11464 107.07
35.0084 11276 106.189
35.1252 10756 103.711
35.242 10524 102.587
35.3587 10150 100.747
35.4755 10009 100.045
35.5921 9780 98.8939
35.7088 9371 96.8039
35.8254 9850 99.2472
35.9419 10394 101.951
36.0584 10688 103.383
36.1749 10954 104.661
36.2913 11055 105.143
36.4077 10870 104.259
36.524 10325 101.612
36.6403 10175 100.871
36.7565 9913 99.564
36.8727 9323 96.5557
36.9889 8717 93.3649
37.1049 7891 88.8313
37.221 0 1
37.3369 0 1
37.4529 0 1
37.5687 0 1
37.6845 0 1
37.8003 0 1
37.916 0 1
38.0316 0 1
38.1472 0 1
40.5851 0 1
40.7008 0 1
40.8164 0 1
40.9322 0 1
41.048 0 1
41.1639 0 1
41.2798 0 1
41.3958 0 1
41.5118 0 1
41.6279 0 1
41.744 5553 74.5185
41.8602 6278 79.2338
41.9765 6754 82.1827
42.0928 7150 84.5577
42.2091 7044 83.9285
42.3255 7004 83.6899
42.4419 7152 84.5695
42.5584 7333 85.6329
42.675 7712 87.818
42.7915 8523 92.3201
42.9081 8944 94.5727
43.0248 9215 95.9948
43.1415 9393 96.9175
43.2582 9473 97.3293
43.375 9792 98.9545
43.4918 9780 98.8939
43.6087 9899 99.4937
43.7256 9833 99.1615
43.8425 9591 97.9337
43.9595 9299 96.4313
44.0765 9122 95.5092
44.1935 8928 94.4881
44.3106 8383 91.5587
44.4277 8023 89.5712
44.5448 8012 89.5098
44.6619 8164 90.3549
44.7791 8525 92.3309
44.8963 9191 95.8697
45.0136 9512 97.5295
45.1308 9850 99.2472
45.2481 10072 100.359
45.3654 9869 99.3428
45.4827 9922 99.6092
45.6001 9758 98.7826
45.7174 9713 98.5546
45.8348 9241 96.1301
45.9522 9049 95.1262
46.0697 8468 92.0217
46.1871 8499 92.19
46.3046 8850 94.0744
46.422 9178 95.8019
46.5395 9533 97.6371
46.657 9616 98.0612
46.7745 9792 98.9545
46.892 9871 99.3529
47.0096 10206 101.025
47.1271 10359 101.779
47.2446 10409 102.025
47.3622 10265 101.316
47.4797 9874 99.368
47.5973 9766 98.8231
47.7149 9357 96.7316
47.8324 8999 94.8631
47.95 8529 92.3526
48.0675 8122 90.1221
48.1851 7963 89.2356
48.3027 8571 92.5797
48.4202 8996 94.8472
48.5378 9523 97.5859
48.6554 9933 99.6644
48.7729 10332 101.646
48.8904 10056 100.28
49.008 10022 100.11
49.1255 9871 99.3529
49.243 9534 97.6422
49.3605 9225 96.0469
49.478 8799 93.803
49.5955 8629 92.8924
49.713 8576 92.6067
49.8304 8525 92.3309
49.9479 9197 95.901
50.0653 9534 97.6422
50.1827 9722 98.6002
50.3001 9836 99.1766
50.4175 10063 100.315
50.5348 10121 100.603
50.6521 10140 100.698
50.7694 10244 101.213
50.8867 10304 101.509
51.004 10045 100.225
51.1212 9840 99.1968
51.2384 9244 96.1457
51.3556 8870 94.1807
51.4727 8542 92.4229
51.5899 7979 89.3252
51.707 8203 90.5704
51.824 8306 91.1373
51.9411 9122 95.5092
52.0581 9963 99.8148
52.175 10050 100.25
52.2919 10458 102.264
52.4088 10488 102.411
52.5257 10155 100.772
52.6425 10231 101.148
52.7593 10289 101.435
52.876 9785 98.9192
52.9927 9495 97.4423
53.1094 9205 95.9427
53.226 8775 93.675
53.3426 8713 93.3435
53.4591 8503 92.2117
53.5756 8835 93.9947
53.692 8989 94.8103
53.8084 8829 93.9628
53.9248 8456 91.9565
54.0411 8206 90.587
54.1573 7805 88.3459
54.2735 0 1
54.3896 0 1
54.5057 0 1
54.6217 0 1
54.7377 0 1
54.8537 0 1
54.9695 0 1
55.0853 0 1
55.2011 0 1
55.3168 0 1
55.4324 0 1
57.824 0 1
57.9396 0 1
58.0553 0 1
58.1711 0 1
58.2869 0 1
58.4028 0 1
58.5187 0 1
58.6347 0 1
58.7508 0 1
58.8669 0 1
58.983 6201 78.7464
59.0992 7156 84.5931
59.2155 8174 90.4102
59.3318 8825 93.9415
59.4482 9676 98.3667
59.5646 10472 102.333
59.681 10719 103.533
59.7975 11042 105.081
59.9141 10931 104.551
60.0306 10729 103.581
60.1473 10434 102.147
60.2639 9786 98.9242
60.3807 9424 97.0773
60.4974 9728 98.6306
60.6142 10259 101.287
60.731 11249 106.061
60.8479 11671 108.032
60.9648 11986 109.481
61.0818 12454 111.597
61.1987 12239 110.63
61.3158 12281 110.82
61.4328 11845 108.835
61.5499 11762 108.453
61.667 11168 105.679
61.7841 10974 104.757
61.9013 10725 103.562
62.0185 10760 103.73
62.1357 11097 105.342
62.253 11562 107.527
62.3702 12042 109.736
62.4875 12211 110.503
62.6049 12455 111.602
62.7222 12465 111.647
62.8396 12630 112.383
62.9569 12649 112.468
63.0743 13131 114.591
63.1918 12650 112.472
63.3092 12388 111.301
63.4267 12095 109.977
63.5441 11613 107.764
63.6616 10681 103.349
63.7791 9547 97.7088
63.8966 9011 94.9263
64.0142 9211 95.974
64.1317 9850 99.2472
64.2492 10419 102.074
64.3668 11523 107.345
64.4843 11661 107.986
64.6019 12092 109.964
64.7195 11977 109.439
64.837 11905 109.11
64.9546 11776 108.517
65.0722 11706 108.194
65.1898 11332 106.452
65.3074 10908 104.441
65.4249 10493 102.435
65.5425 10205 101.02
65.6601 10359 101.779
65.7777 10915 104.475
65.8952 11155 105.617
66.0128 11776 108.517
66.1304 11803 108.642
66.2479 12155 110.25
66.3655 12515 111.87
66.483 12432 111.499
66.6005 12529 111.933
66.718 12345 111.108
66.8355 12082 109.918
66.953 11654 107.954
67.0705 11232 105.981
67.1879 10995 104.857
67.3054 10112 100.558
67.4228 8906 94.3716
67.5402 8412 91.717
67.6576 8500 92.1954
67.7749 9045 95.1052
67.8923 9888 99.4384
68.0096 10805 103.947
68.1269 11404 106.79
68.2442 11543 107.438
68.3614 11452 107.014
68.4787 11521 107.336
68.5958 11577 107.596
68.713 11214 105.896
68.8302 10901 104.408
68.9473 10357 101.769
69.0643 10093 100.464
69.1814 10048 100.24
69.2984 9863 99.3126
69.4154 10175 100.871
69.5323 10764 103.75
69.6492 11134 105.518
69.7661 11452 107.014
69.8829 11520 107.331
69.9997 11512 107.294
70.1165 11323 106.41
70.2332 11278 106.198
70.3499 10850 104.163
70.4665 10888 104.346
70.5831 10180 100.896
70.6996 9621 98.0867
70.8161 9229 96.0677
70.9326 8131 90.1721
71.049 6543 80.8888
71.1653 5065 71.1688
71.2817 4454 66.7383
71.3979 4255 65.2304
71.5141 4073 63.8201
71.6303 4107 64.0859
71.7464 3730 61.0737
71.8624 0 1
71.9784 0 1
72.0944 0 1
72.2102 0 1
72.3261 0 1
72.4418 0 1
72.5575 0 1
72.6732 0 1
75.1054 0 1
75.2209 0 1
75.3365 0 1
75.4521 0 1
75.5678 0 1
75.6835 0 1
75.7993 0 1
75.9151 0 1
76.031 0 1
76.147 5926 76.9805
76.263 6294 79.3347
76.3791 5876 76.6551
76.4952 5685 75.3989
76.6113 5925 76.974
76.7276 6424 80.1499
76.8438 7336 85.6505
76.9601 8241 90.78
77.0765 9522 97.5807
77.1929 9579 97.8724
77.3093 9865 99.3227
77.4258 9807 99.0303
77.5423 9897 99.4837
77.6589 9591 97.9337
77.7755 9528 97.6115
77.8921 8983 94.7787
78.0088 8952 94.615
78.1256 8785 93.7283
78.2423 8714 93.3488
78.3591 8896 94.3186
78.4759 9146 95.6347
78.5928 9512 97.5295
78.7097 9913 99.564
78.8266 10330 101.637
78.9436 10136 100.678
79.0606 10369 101.828
79.1776 10682 103.354
79.2946 10622 103.063
79.4117 10611 103.01
79.5288 10386 101.912
79.6459 10030 100.15
79.7631 9981 99.905
79.8802 9305 96.4624
79.9974 8388 91.586
80.1147 7251 85.1528
80.2319 6374 79.8373
80.3491 6597 81.2219
80.4664 7284 85.3464
80.5837 8275 90.967
80.701 9326 96.5712
80.8183 10087 100.434
80.9357 10094 100.469
81.053 10320 101.587
81.1704 10233 101.158
81.2877 10004 100.02
81.4051 9900 99.4987
81.5225 9764 98.813
81.6399 9323 96.5557
81.7573 8902 94.3504
81.8747 9061 95.1893
81.9922 9111 95.4516
82.1096 9344 96.6644
82.227 9494 97.4372
82.3444 9901 99.5038
82.4619 10488 102.411
82.5793 10691 103.397
82.6967 10722 103.547
82.8142 11069 105.209
82.9316 10812 103.981
83.049 10723 103.552
83.1664 10721 103.542
83.2838 10323 101.602
83.4012 9951 99.7547
83.5186 9546 97.7036
83.636 8931 94.504
83.7534 7579 87.0575
83.8708 6631 81.431
83.9881 6327 79.5424
84.1055 6667 81.6517
84.2228 7599 87.1722
84.3401 8756 93.5735
84.4575 9785 98.9192
84.5747 10201 101
84.692 10471 102.328
84.8093 10372 101.843
84.9265 10255 101.267
85.0437 9942 99.7096
85.1609 9557 97.7599
85.2781 9410 97.0052
85.3952 9261 96.2341
85.5123 9193 95.8801
85.6294 9220 96.0208
85.7465 9413 97.0206
85.8636 9845 99.222
85.9806 9958 99.7898
86.0976 10363 101.799
86.2145 10551 102.718
86.3315 10624 103.073
86.4484 10928 104.537
86.5652 10769 103.774
86.682 10783 103.841
86.7988 10621 103.058
86.9156 10365 101.809
87.0323 9947 99.7346
87.149 9452 97.2214
87.2657 8571 92.5797
87.3823 6947 83.3487
87.4988 6011 77.5306
87.6154 6175 78.5812
87.7318 6698 81.8413
87.8483 7504 86.6256
87.9647 8435 91.8423
88.081 9315 96.5142
88.1973 9085 95.3153
88.3136 8805 93.835
88.4298 8303 91.1208
88.546 7656 87.4986
88.6621 6276 79.2212
88.7781 4966 70.4699
88.8942 0 1
89.0101 0 1
89.126 0 1
89.2419 0 1
89.3577 0 1
89.4734 0 1
89.5891 0 1
89.7047 0 1
89.8203 0 1
89.9358 0 1
92.3269 0 1
92.4424 0 1
92.558 0 1
92.6736 0 1
92.7893 0 1
92.905 0 1
93.0208 0 1
93.1366 0 1
93.2525 0 1
93.3685 0 1
93.4845 0 1
93.6005 5841 76.4264
93.7167 6410 80.0625
93.8328 7138 84.4867
93.949 7447 86.296
94.0653 8027 89.5935
94.1816 8404 91.6733
94.2979 8957 94.6414
94.4143 9292 96.395
94.5307 9455 97.2368
94.6472 9474 97.3345
94.7637 9442 97.17
94.8803 9670 98.3362
94.9969 10044 100.22
95.1135 10209 101.04
95.2302 10290 101.44
95.3469 10649 103.194
95.4637 10735 103.61
95.5805 11003 104.895
95.6973 10921 104.504
95.8142 11085 105.285
95.9311 10920 104.499
96.048 10841 104.12
96.1649 10504 102.489
96.2819 9896 99.4786
96.3989 9425 97.0824
96.516 8437 91.8531
96.633 7197 84.8351
96.7501 6350 79.6869
96.8673 6328 79.5487
96.9844 6643 81.5046
97.1016 7665 87.55
97.2188 9021 94.9789
97.336 10074 100.369
97.4532 10496 102.45
97.5704 10512 102.528
97.6877 10639 103.146
97.805 10318 101.578
97.9223 9951 99.7547
98.0396 9828 99.1363
98.1569 9630 98.1326
98.2743 9627 98.1173
98.3916 9644 98.2039
98.509 10090 100.449
98.6264 9967 99.8349
98.7438 10460 102.274
98.8612 10410 102.029
98.9786 10760 103.73
99.096 11077 105.247
99.2134 11296 106.283
99.3308 11416 106.846
99.4482 11158 105.631
99.5656 11360 106.583
99.6831 11166 105.669
99.8005 10650 103.199
99.9179 10292 101.449
100.035 9507 97.5038
100.153 8339 91.3181
100.27 6998 83.654
100.388 6730 82.0366
100.505 7209 84.9058
100.622 8236 90.7524
100.74 9450 97.2111
100.857 10292 101.449
100.975 10711 103.494
101.092 10968 104.728
101.209 10944 104.614
101.327 10463 102.289
101.444 10477 102.357
101.561 10190 100.946
101.679 10056 100.28
101.796 9731 98.6458
101.913 9846 99.227
102.03 9942 99.7096
102.148 10433 102.142
102.265 10500 102.47
102.382 11214 105.896
102.499 11180 105.736
102.616 11492 107.201
102.733 11610 107.75
102.851 11774 108.508
102.968 11640 107.889
103.085 11853 108.871
103.202 11697 108.153
103.319 11140 105.546
103.436 10507 102.504
103.552 9646 98.2141
103.669 8694 93.2416
103.786 7197 84.8351
103.903 6872 82.8975
104.02 7103 84.2793
104.137 8196 90.5318
104.253 9711 98.5444
104.37 10404 102
104.487 11222 105.934
104.603 11127 105.485
104.72 11298 106.292
104.836 10649 103.194
104.953 10327 101.622
105.069 10103 100.514
105.186 9743 98.7066
105.302 9520 97.5705
105.418 9532 97.632
105.535 9538 97.6627
105.651 9361 96.7523
105.767 9217 96.0052
105.883 8737 93.4719
105.999 8058 89.7664
106.115 0 1
106.231 0 1
106.347 0 1
106.463 0 1
106.579 0 1
106.694 0 1
106.81 0 1
106.926 0 1
107.041 0 1
107.157 0 1
109.576 0 1
109.692 0 1
109.807 0 1
109.923 0 1
110.039 0 1
110.155 0 1
110.27 0 1
110.386 0 1
110.502 0 1
110.618 4201 64.8151
110.735 5170 71.9027
110.851 5855 76.518
110.967 6522 80.7589
111.083 7446 86.2902
111.199 8252 90.8405
111.316 8789 93.7497
111.432 9165 95.734
111.549 9640 98.1835
111.665 9910 99.549
111.782 10066 100.329
111.898 9732 98.6509
112.015 9311 96.4935
112.132 8424 91.7824
112.248 7315 85.5278
112.365 6076 77.9487
112.482 5732 75.71
112.599 6265 79.1518
112.716 7290 85.3815
112.832 8379 91.5369
112.949 9398 96.9433
113.066 9520 97.5705
113.183 9812 99.0555
113.3 9780 98.8939
113.417 9715 98.5647
113.534 9621 98.0867
113.652 9333 96.6075
113.769 9002 94.8789
113.886 9077 95.2733
114.003 8941 94.5569
114.12 9328 96.5816
114.238 9530 97.6217
114.355 9887 99.4334
114.472 10521 102.572
114.589 10064 100.319
114.707 10286 101.42
114.824 10490 102.421
114.942 10908 104.441
115.059 10737 103.619
115.176 10585 102.883
115.294 10371 101.838
115.411 10142 100.707
115.529 9797 98.9798
115.646 8882 94.2444
115.764 7907 88.9213
115.881 6890 83.006
115.999 5924 76.9675
116.116 6150 78.4219
116.234 6830 82.6438
116.351 7954 89.1852
116.469 8904 94.361
116.586 9317 96.5246
116.704 9591 97.9337
116.821 9679 98.3819
116.939 9606 98.0102
117.056 9612 98.0408
117.174 9378 96.8401
117.291 9310 96.4883
117.409 8924 94.4669
117.526 8954 94.6256
117.644 9137 95.5877
117.761 9518 97.5602
117.879 9804 99.0152
117.996 9859 99.2925
118.114 9937 99.6845
118.231 10208 101.035
118.349 10401 101.985
118.466 10277 101.376
118.584 10286 101.42
118.701 10314 101.558
118.819 10199 100.99
118.936 9968 99.8399
119.053 9599 97.9745
119.171 9192 95.8749
119.288 8377 91.526
119.405 7435 86.2264
119.523 6187 78.6575
119.64 5675 75.3326
119.757 6005 77.4919
119.875 6811 82.5288
119.992 7483 86.5043
120.109 8548 92.4554
120.226 8877 94.2178
120.343 9013 94.9368
120.46 9143 95.619
120.578 9300 96.4365
120.695 8844 94.0425
120.812 8935 94.5251
120.929 8816 93.8936
121.046 8465 92.0054
121.163 8435 91.8423
121.279 8540 92.4121
121.396 8858 94.1169
121.513 9093 95.3572
121.63 9085 95.3153
121.747 8991 94.8209
121.863 9096 95.373
121.98 9347 96.6799
122.097 9191 95.8697
122.213 9271 96.286
122.33 8986 94.7945
122.446 8889 94.2815
122.563 8258 90.8735
122.679 7987 89.37
122.795 7319 85.5512
122.912 6235 78.962
123.028 4888 69.9142
123.144 3854 62.0806
123.26 3038 55.1181
123.377 0 1
123.493 0 1
123.609 0 1
123.725 0 1
123.84 0 1
123.956 0 1
124.072 0 1
124.188 0 1
124.303 0 1
124.419 0 1
126.852 0 1
126.968 0 1
127.083 0 1
127.199 0 1
127.315 0 1
127.431 0 1
127.547 0 1
127.663 0 1
127.779 0 1
127.895 0 1
128.011 0 1
128.127 0 1
128.243 0 1
128.359 7419 86.1336
128.476 7747 88.017
128.592 6944 83.3307
128.708 6318 79.4858
128.825 6339 79.6178
128.941 7160 84.6168
129.058 7815 88.4025
129.174 9190 95.8645
129.291 9669 98.3311
129.408 9880 99.3982
129.524 10096 100.479
129.641 10100 100.499
129.758 9938 99.6895
129.875 9968 99.8399
129.992 9776 98.8737
130.108 9956 99.7798
130.225 9624 98.102
130.342 9646 98.2141
130.459 10038 100.19
130.576 10011 100.055
130.693 10338 101.676
130.81 10189 100.941
130.928 10381 101.887
131.045 10549 102.708
131.162 10646 103.179
131.279 10421 102.083
131.396 10544 102.684
131.513 10088 100.439
131.631 9821 99.101
131.748 9754 98.7623
131.865 9556 97.7548
131.983 8731 93.4398
132.1 7685 87.6641
132.217 6566 81.0309
132.335 6469 80.4301
132.452 6835 82.6741
132.57 7821 88.4364
132.687 8755 93.5682
132.804 9297 96.421
132.922 9587 97.9132
133.039 9651 98.2395
133.157 9683 98.4022
133.274 9970 99.8499
133.392 9814 99.0656
133.509 9901 99.5038
133.627 9609 98.0255
133.744 9761 98.7978
133.862 9562 97.7855
133.979 9634 98.1529
134.097 9753 98.7573
134.214 10120 100.598
134.332 9966 99.8299
134.449 10267 101.326
134.567 10259 101.287
134.684 10154 100.767
134.802 10061 100.305
134.919 10173 100.861
135.037 9851 99.2522
135.154 9825 99.1211
135.272 9509 97.5141
135.389 9341 96.6488
135.507 8948 94.5939
135.624 8211 90.6146
135.742 6948 83.3547
135.859 6326 79.5362
135.977 6619 81.3572
136.094 7343 85.6913
136.211 8169 90.3825
136.329 9075 95.2628
136.446 9475 97.3396
136.564 9562 97.7855
136.681 9795 98.9697
136.798 9575 97.8519
136.915 9918 99.5892
137.033 9934 99.6695
137.15 9609 98.0255
137.267 9570 97.8264
137.384 9212 95.9792
137.502 9414 97.0258
137.619 9457 97.2471
137.736 9348 96.6851
137.853 9437 97.1442
137.97 9444 97.1802
138.087 10156 100.777
138.204 9777 98.8787
138.321 9867 99.3328
138.438 9660 98.2853
138.555 9717 98.5748
138.672 9555 97.7497
138.788 9348 96.6851
138.905 8949 94.5992
139.022 8655 93.0323
139.139 7965 89.2468
139.255 7463 86.3887
139.372 6520 80.7465
139.488 5552 74.5117
139.605 5541 74.4379
139.721 5743 75.7826
139.838 6210 78.8036
139.954 6638 81.4739
140.071 6564 81.0185
140.187 5606 74.8732
140.303 4858 69.6994
140.419 4452 66.7233
140.535 4267 65.3223
140.652 3963 62.9524
140.768 0 1
140.884 0 1
141 0 1
141.115 0 1
141.231 0 1
141.347 0 1
141.463 0 1
141.578 0 1
141.694 0 1
144.104 0 1
144.219 0 1
144.335 0 1
144.45 0 1
144.566 0 1
144.682 0 1
144.798 0 1
144.914 0 1
145.03 0 1
145.146 5532 74.3774
145.262 6222 78.8797
145.378 7059 84.0179
145.494 7161 84.6227
145.61 7429 86.1916
145.726 7567 86.9885
145.842 7455 86.3423
145.959 7435 86.2264
146.075 7182 84.7467
146.192 7393 85.9826
146.308 7190 84.7939
146.425 7065 84.0536
146.541 7301 85.4459
146.658 7343 85.6913
146.774 7374 85.872
146.891 7534 86.7986
147.008 7572 87.0172
147.125 7490 86.5448
147.241 7600 87.178
147.358 7577 87.046
147.475 7522 86.7295
147.592 7364 85.8138
147.709 7195 84.8233
147.826 6852 82.7768
147.943 6411 80.0687
148.06 6135 78.3262
148.177 5401 73.4915
148.294 5292 72.7461
148.411 5442 73.7699
148.528 5557 74.5453
148.645 6175 78.5812
148.762 6949 83.3607
148.88 7353 85.7496
148.997 7436 86.2322
149.114 7273 85.2819
149.231 7229 85.0235
149.349 7407 86.0639
149.466 7298 85.4283
149.583 7272 85.276
149.701 7313 85.5161
149.818 7122 84.3919
149.935 7264 85.2291
150.053 7138 84.4867
150.17 7236 85.0647
150.287 7276 85.2995
150.405 7321 85.5628
150.522 7270 85.2643
150.64 7377 85.8895
150.757 7613 87.2525
150.875 7415 86.1104
150.992 7522 86.7295
151.11 7516 86.6949
151.227 7360 85.7904
151.344 7353 85.7496
151.462 6880 82.9458
151.579 6679 81.7251
151.697 6070 77.9102
151.814 5726 75.6703
151.932 5330 73.0068
152.049 5424 73.6478
152.167 5786 76.0658
152.284 6167 78.5302
152.402 6713 81.9329
152.519 7180 84.7349
152.636 7278 85.3112
152.754 7494 86.5679
152.871 7561 86.954
152.989 7441 86.2612
153.106 7406 86.0581
153.223 7294 85.4049
153.341 7089 84.1962
153.458 7237 85.0706
153.575 7056 84
153.693 7060 84.0238
153.81 7219 84.9647
153.927 7237 85.0706
154.044 7243 85.1058
154.162 7199 84.8469
154.279 7528 86.764
154.396 7450 86.3134
154.513 7417 86.122
154.63 7521 86.7237
154.747 7447 86.296
154.864 7293 85.3991
154.981 7034 83.8689
155.098 6660 81.6088
155.215 6404 80.025
155.332 6167 78.5302
155.449 5444 73.7835
155.566 5370 73.2803
155.683 5582 74.7128
155.8 5714 75.591
155.917 6383 79.8937
156.033 6805 82.4924
156.15 0 1
156.267 0 1
156.383 0 1
156.5 0 1
156.617 0 1
156.733 0 1
156.85 0 1
156.966 0 1
157.082 0 1
157.199 0 1
157.315 0 1
157.431 0 1
157.547 0 1
157.664 0 1
157.78 0 1
157.896 0 1
158.012 0 1
158.128 0 1
158.244 0 1
158.359 0 1
158.475 0 1
158.591 0 1
158.706 0 1
