
6.15755 0 1
6.2731 0 1
6.3887 0 1
6.50437 0 1
6.62009 0 1
6.73587 0 1
6.8517 0 1
6.96759 0 1
7.08353 0 1
7.19952 0 1
7.31557 0 1
7.43166 0 1
7.54781 0 1
7.664 0 1
7.78024 0 1
7.89653 0 1
8.01286 0 1
8.12924 0 1
8.24567 0 1
8.36213 0 1
8.47864 0 1
8.59519 0 1
8.71178 0 1
8.82841 0 1
8.94508 0 1
9.06179 0 1
9.17853 0 1
9.29531 0 1
9.41212 0 1
9.52897 0 1
9.64584 0 1
9.76276 0 1
9.8797 0 1
9.99667 0 1
10.1137 0 1
10.2307 0 1
10.3478 0 1
10.4648 0 1
10.5819 0 1
10.6991 0 1
10.8162 0 1
10.9334 0 1
11.0506 0 1
11.1678 0 1
11.285 0 1
11.4023 0 1
11.5196 0 1
11.6369 0 1
11.7542 0 1
11.8715 0 1
11.9888 0 1
12.1062 0 1
12.2235 0 1
12.3409 0 1
12.4582 0 1
12.5756 0 1
12.693 0 1
12.8104 0 1
12.9278 0 1
13.0452 0 1
13.1626 0 1
13.28 0 1
13.3974 0 1
13.5149 0 1
13.6323 0 1
13.7497 0 1
13.8671 0 1
13.9845 0 1
14.1019 0 1
14.2193 0 1
14.3367 0 1
14.4541 0 1
14.5714 0 1
14.6888 0 1
14.8062 0 1
14.9235 0 1
15.0408 861 29.3428
15.1581 893 29.8831
15.2755 912 30.1993
15.3927 906 30.0998
15.51 938 30.6268
15.6273 849 29.1376
15.7445 863 29.3769
15.8617 853 29.2062
15.9789 849 29.1376
16.0961 908 30.133
16.2132 884 29.7321
16.3304 958 30.9516
16.4475 864 29.3939
16.5646 842 29.0172
16.6816 852 29.189
16.7986 888 29.7993
16.9156 822 28.6705
17.0326 773 27.8029
17.1496 777 27.8747
17.2665 831 28.8271
17.3833 811 28.4781
17.5002 774 27.8209
17.617 803 28.3373
17.7338 790 28.1069
17.8505 846 29.0861
17.9672 872 29.5296
18.0839 925 30.4138
18.2005 956 30.9192
18.3171 955 30.9031
18.4337 1060 32.5576
18.5502 972 31.1769
18.6666 1126 33.5559
18.7831 1155 33.9853
18.8994 1108 33.2866
19.0158 1100 33.1662
19.1321 1198 34.6121
19.2483 1495 38.6652
19.3645 1723 41.509
19.4806 1881 43.3705
19.5967 2013 44.8665
19.7128 2145 46.3141
19.8288 2225 47.1699
19.9447 2058 45.3652
20.0606 0 1
20.1764 0 1
20.2922 0 1
20.4079 0 1
20.5236 0 1
20.6392 0 1
20.7548 0 1
20.8702 0 1
23.3078 0 1
23.4233 0 1
23.539 0 1
23.6547 0 1
23.7704 0 1
23.8862 0 1
24.0021 0 1
24.118 0 1
24.234 0 1
24.35 0 1
24.4661 489 22.1133
24.5822 503 22.4277
24.6984 629 25.0799
24.8146 646 25.4165
24.9309 687 26.2107
25.0472 718 26.7955
25.1636 849 29.1376
25.28 894 29.8998
25.3965 975 31.225
25.513 1022 31.9687
25.6296 1068 32.6803
25.7462 1084 32.9242
25.8628 1140 33.7639
25.9795 1176 34.2929
26.0962 1083 32.909
26.213 1092 33.0454
26.3298 942 30.692
26.4466 895 29.9166
26.5635 787 28.0535
26.6804 764 27.6405
26.7973 705 26.5518
26.9143 702 26.4953
27.0313 657 25.632
27.1483 688 26.2298
27.2653 656 25.6125
27.3824 724 26.9072
27.4996 704 26.533
27.6167 675 25.9808
27.7339 706 26.5707
27.8511 705 26.5518
27.9683 662 25.7294
28.0855 679 26.0576
28.2028 703 26.5141
28.3201 747 27.3313
28.4374 754 27.4591
28.5547 768 27.7128
28.6721 735 27.1109
28.7894 761 27.5862
28.9068 768 27.7128
29.0242 749 27.3679
29.1416 719 26.8142
29.259 725 26.9258
29.3764 742 27.2397
29.4939 713 26.7021
29.6113 697 26.4008
29.7288 641 25.318
29.8463 684 26.1534
29.9638 622 24.9399
30.0812 662 25.7294
30.1987 623 24.96
30.3162 655 25.593
30.4337 684 26.1534
30.5512 630 25.0998
30.6687 617 24.8395
30.7862 676 26
30.9037 726 26.9444
31.0212 761 27.5862
31.1387 755 27.4773
31.2562 735 27.1109
31.3737 740 27.2029
31.4912 688 26.2298
31.6087 695 26.3629
31.7262 687 26.2107
31.8436 681 26.096
31.9611 717 26.7769
32.0785 684 26.1534
32.1959 684 26.1534
32.3134 705 26.5518
32.4308 668 25.8457
32.5482 725 26.9258
32.6655 625 25
32.7829 603 24.5561
32.9002 637 25.2389
33.0176 660 25.6905
33.1349 627 25.04
33.2522 654 25.5734
33.3694 691 26.2869
33.4867 651 25.5147
33.6039 651 25.5147
33.7211 562 23.7065
33.8383 607 24.6374
33.9554 646 25.4165
34.0725 588 24.2487
34.1896 626 25.02
34.3067 617 24.8395
34.4237 657 25.632
34.5407 663 25.7488
34.6577 691 26.2869
34.7746 643 25.3574
34.8915 643 25.3574
35.0084 637 25.2389
35.1252 628 25.0599
35.242 599 24.4745
35.3587 579 24.0624
35.4755 593 24.3516
35.5921 703 26.5141
35.7088 663 25.7488
35.8254 595 24.3926
35.9419 687 26.2107
36.0584 595 24.3926
36.1749 630 25.0998
36.2913 650 25.4951
36.4077 604 24.5764
36.524 546 23.3666
36.6403 544 23.3238
36.7565 500 22.3607
36.8727 483 21.9773
36.9889 431 20.7605
37.1049 415 20.3715
37.221 0 1
37.3369 0 1
37.4529 0 1
37.5687 0 1
37.6845 0 1
37.8003 0 1
37.916 0 1
38.0316 0 1
38.1472 0 1
40.5851 0 1
40.7008 0 1
40.8164 0 1
40.9322 0 1
41.048 0 1
41.1639 0 1
41.2798 0 1
41.3958 0 1
41.5118 0 1
41.6279 0 1
41.744 296 17.2047
41.8602 365 19.105
41.9765 363 19.0526
42.0928 423 20.567
42.2091 428 20.6882
42.3255 432 20.7846
42.4419 486 22.0454
42.5584 523 22.8692
42.675 507 22.5167
42.7915 476 21.8174
42.9081 469 21.6564
43.0248 455 21.3307
43.1415 435 20.8567
43.2582 409 20.2237
43.375 469 21.6564
43.4918 465 21.5639
43.6087 465 21.5639
43.7256 532 23.0651
43.8425 466 21.587
43.9595 441 21
44.0765 471 21.7025
44.1935 438 20.9284
44.3106 443 21.0476
44.4277 475 21.7945
44.5448 445 21.095
44.6619 477 21.8403
44.7791 451 21.2368
44.8963 504 22.4499
45.0136 510 22.5832
45.1308 471 21.7025
45.2481 507 22.5167
45.3654 479 21.8861
45.4827 521 22.8254
45.6001 522 22.8473
45.7174 521 22.8254
45.8348 487 22.0681
45.9522 482 21.9545
46.0697 502 22.4054
46.1871 486 22.0454
46.3046 462 21.4942
46.422 465 21.5639
46.5395 428 20.6882
46.657 399 19.975
46.7745 441 21
46.892 457 21.3776
47.0096 468 21.6333
47.1271 455 21.3307
47.2446 485 22.0227
47.3622 480 21.9089
47.4797 461 21.4709
47.5973 427 20.664
47.7149 486 22.0454
47.8324 423 20.567
47.95 442 21.0238
48.0675 456 21.3542
48.1851 427 20.664
48.3027 469 21.6564
48.4202 501 22.383
48.5378 497 22.2935
48.6554 457 21.3776
48.7729 519 22.7816
48.8904 459 21.4243
49.008 498 22.3159
49.1255 499 22.3383
49.243 484 22
49.3605 435 20.8567
49.478 474 21.7715
49.5955 447 21.1424
49.713 396 19.8997
49.8304 413 20.3224
49.9479 376 19.3907
50.0653 384 19.5959
50.1827 387 19.6723
50.3001 426 20.6398
50.4175 403 20.0749
50.5348 452 21.2603
50.6521 392 19.799
50.7694 444 21.0713
50.8867 470 21.6795
51.004 484 22
51.1212 440 20.9762
51.2384 446 21.1187
51.3556 432 20.7846
51.4727 443 21.0476
51.5899 429 20.7123
51.707 494 22.2261
51.824 487 22.0681
51.9411 475 21.7945
52.0581 491 22.1585
52.175 457 21.3776
52.2919 453 21.2838
52.4088 453 21.2838
52.5257 440 20.9762
52.6425 498 22.3159
52.7593 442 21.0238
52.876 525 22.9129
52.9927 478 21.8632
53.1094 491 22.1585
53.226 407 20.1742
53.3426 401 20.025
53.4591 382 19.5448
53.5756 322 17.9444
53.692 355 18.8414
53.8084 307 17.5214
53.9248 331 18.1934
54.0411 309 17.5784
54.1573 338 18.3848
54.2735 0 1
54.3896 0 1
54.5057 0 1
54.6217 0 1
54.7377 0 1
54.8537 0 1
54.9695 0 1
55.0853 0 1
55.2011 0 1
55.3168 0 1
55.4324 0 1
57.824 0 1
57.9396 0 1
58.0553 0 1
58.1711 0 1
58.2869 0 1
58.4028 0 1
58.5187 0 1
58.6347 0 1
58.7508 0 1
58.8669 0 1
58.983 671 25.9037
59.0992 860 29.3258
59.2155 1143 33.8083
59.3318 1450 38.0789
59.4482 1563 39.5348
59.5646 1827 42.7434
59.681 1840 42.8952
59.7975 1993 44.643
59.9141 2024 44.9889
60.0306 2050 45.2769
60.1473 2065 45.4423
60.2639 2076 45.5631
60.3807 2158 46.4543
60.4974 2088 45.6946
60.6142 2139 46.2493
60.731 2241 47.3392
60.8479 2263 47.571
60.9648 2306 48.0208
61.0818 2357 48.5489
61.1987 2511 50.1099
61.3158 2638 51.3615
61.4328 2894 53.7959
61.5499 3214 56.6922
61.667 3404 58.3438
61.7841 3899 62.442
61.9013 4241 65.123
62.0185 4389 66.2495
62.1357 4420 66.4831
62.253 4056 63.6867
62.3702 3238 56.9034
62.4875 2673 51.7011
62.6049 2443 49.4267
62.7222 2551 50.5074
62.8396 2401 49
62.9569 2186 46.7547
63.0743 1859 43.1161
63.1918 1524 39.0384
63.3092 1415 37.6165
63.4267 1242 35.242
63.5441 1109 33.3017
63.6616 989 31.4484
63.7791 967 31.0966
63.8966 832 28.8444
64.0142 866 29.4279
64.1317 765 27.6586
64.2492 619 24.8797
64.3668 630 25.0998
64.4843 599 24.4745
64.6019 545 23.3452
64.7195 556 23.5797
64.837 581 24.1039
64.9546 587 24.2281
65.0722 599 24.4745
65.1898 606 24.6171
65.3074 625 25
65.4249 557 23.6008
65.5425 551 23.4734
65.6601 551 23.4734
65.7777 528 22.9783
65.8952 525 22.9129
66.0128 534 23.1084
66.1304 575 23.9792
66.2479 626 25.02
66.3655 589 24.2693
66.483 650 25.4951
66.6005 682 26.1151
66.718 747 27.3313
66.8355 821 28.6531
66.953 889 29.8161
67.0705 891 29.8496
67.1879 858 29.2916
67.3054 856 29.2575
67.4228 782 27.9643
67.5402 699 26.4386
67.6576 672 25.923
67.7749 649 25.4755
67.8923 660 25.6905
68.0096 647 25.4362
68.1269 600 24.4949
68.2442 597 24.4336
68.3614 573 23.9374
68.4787 621 24.9199
68.5958 612 24.7386
68.713 603 24.5561
68.8302 625 25
68.9473 544 23.3238
69.0643 543 23.3024
69.1814 495 22.2486
69.2984 488 22.0907
69.4154 491 22.1585
69.5323 488 22.0907
69.6492 528 22.9783
69.7661 552 23.4947
69.8829 573 23.9374
69.9997 521 22.8254
70.1165 538 23.1948
70.2332 520 22.8035
70.3499 513 22.6495
70.4665 490 22.1359
70.5831 434 20.8327
70.6996 438 20.9284
70.8161 379 19.4679
70.9326 343 18.5203
71.049 354 18.8149
71.1653 345 18.5742
71.2817 299 17.2916
71.3979 286 16.9115
71.5141 260 16.1245
71.6303 272 16.4924
71.7464 208 14.4222
71.8624 0 1
71.9784 0 1
72.0944 0 1
72.2102 0 1
72.3261 0 1
72.4418 0 1
72.5575 0 1
72.6732 0 1
75.1054 0 1
75.2209 0 1
75.3365 0 1
75.4521 0 1
75.5678 0 1
75.6835 0 1
75.7993 0 1
75.9151 0 1
76.031 0 1
76.147 360 18.9737
76.263 399 19.975
76.3791 465 21.5639
76.4952 460 21.4476
76.6113 469 21.6564
76.7276 522 22.8473
76.8438 487 22.0681
76.9601 489 22.1133
77.0765 477 21.8403
77.1929 460 21.4476
77.3093 437 20.9045
77.4258 474 21.7715
77.5423 473 21.7486
77.6589 469 21.6564
77.7755 465 21.5639
77.8921 465 21.5639
78.0088 439 20.9523
78.1256 419 20.4695
78.2423 403 20.0749
78.3591 415 20.3715
78.4759 428 20.6882
78.5928 407 20.1742
78.7097 417 20.4206
78.8266 407 20.1742
78.9436 419 20.4695
79.0606 429 20.7123
79.1776 419 20.4695
79.2946 449 21.1896
79.4117 509 22.561
79.5288 469 21.6564
79.6459 481 21.9317
79.7631 475 21.7945
79.8802 450 21.2132
79.9974 483 21.9773
80.1147 489 22.1133
80.2319 453 21.2838
80.3491 490 22.1359
80.4664 517 22.7376
80.5837 556 23.5797
80.701 506 22.4944
80.8183 466 21.587
80.9357 494 22.2261
81.053 445 21.095
81.1704 465 21.5639
81.2877 495 22.2486
81.4051 457 21.3776
81.5225 463 21.5174
81.6399 426 20.6398
81.7573 432 20.7846
81.8747 394 19.8494
81.9922 399 19.975
82.1096 416 20.3961
82.227 427 20.664
82.3444 434 20.8327
82.4619 433 20.8087
82.5793 457 21.3776
82.6967 448 21.166
82.8142 473 21.7486
82.9316 463 21.5174
83.049 484 22
83.1664 501 22.383
83.2838 509 22.561
83.4012 502 22.4054
83.5186 464 21.5407
83.636 447 21.1424
83.7534 508 22.5389
83.8708 497 22.2935
83.9881 478 21.8632
84.1055 470 21.6795
84.2228 499 22.3383
84.3401 483 21.9773
84.4575 505 22.4722
84.5747 467 21.6102
84.692 476 21.8174
84.8093 463 21.5174
84.9265 451 21.2368
85.0437 439 20.9523
85.1609 457 21.3776
85.2781 470 21.6795
85.3952 444 21.0713
85.5123 437 20.9045
85.6294 482 21.9545
85.7465 468 21.6333
85.8636 452 21.2603
85.9806 443 21.0476
86.0976 463 21.5174
86.2145 465 21.5639
86.3315 504 22.4499
86.4484 489 22.1133
86.5652 483 21.9773
86.682 495 22.2486
86.7988 518 22.7596
86.9156 486 22.0454
87.0323 457 21.3776
87.149 500 22.3607
87.2657 449 21.1896
87.3823 468 21.6333
87.4988 431 20.7605
87.6154 450 21.2132
87.7318 452 21.2603
87.8483 386 19.6469
87.9647 363 19.0526
88.081 367 19.1572
88.1973 322 17.9444
88.3136 332 18.2209
88.4298 303 17.4069
88.546 261 16.1555
88.6621 267 16.3401
88.7781 222 14.8997
88.8942 0 1
89.0101 0 1
89.126 0 1
89.2419 0 1
89.3577 0 1
89.4734 0 1
89.5891 0 1
89.7047 0 1
89.8203 0 1
89.9358 0 1
92.3269 0 1
92.4424 0 1
92.558 0 1
92.6736 0 1
92.7893 0 1
92.905 0 1
93.0208 0 1
93.1366 0 1
93.2525 0 1
93.3685 0 1
93.4845 0 1
93.6005 408 20.199
93.7167 469 21.6564
93.8328 448 21.166
93.949 433 20.8087
94.0653 474 21.7715
94.1816 434 20.8327
94.2979 418 20.445
94.4143 424 20.5913
94.5307 431 20.7605
94.6472 452 21.2603
94.7637 462 21.4942
94.8803 486 22.0454
94.9969 463 21.5174
95.1135 459 21.4243
95.2302 455 21.3307
95.3469 459 21.4243
95.4637 467 21.6102
95.5805 495 22.2486
95.6973 494 22.2261
95.8142 503 22.4277
95.9311 458 21.4009
96.048 506 22.4944
96.1649 484 22
96.2819 458 21.4009
96.3989 511 22.6053
96.516 489 22.1133
96.633 493 22.2036
96.7501 468 21.6333
96.8673 503 22.4277
96.9844 487 22.0681
97.1016 474 21.7715
97.2188 488 22.0907
97.336 467 21.6102
97.4532 476 21.8174
97.5704 433 20.8087
97.6877 448 21.166
97.805 440 20.9762
97.9223 464 21.5407
98.0396 472 21.7256
98.1569 466 21.587
98.2743 464 21.5407
98.3916 469 21.6564
98.509 482 21.9545
98.6264 481 21.9317
98.7438 443 21.0476
98.8612 464 21.5407
98.9786 526 22.9347
99.096 530 23.0217
99.2134 521 22.8254
99.3308 515 22.6936
99.4482 514 22.6716
99.5656 511 22.6053
99.6831 470 21.6795
99.8005 503 22.4277
99.9179 483 21.9773
100.035 527 22.9565
100.153 485 22.0227
100.27 507 22.5167
100.388 512 22.6274
100.505 490 22.1359
100.622 528 22.9783
100.74 468 21.6333
100.857 474 21.7715
100.975 472 21.7256
101.092 493 22.2036
101.209 452 21.2603
101.327 435 20.8567
101.444 469 21.6564
101.561 455 21.3307
101.679 492 22.1811
101.796 506 22.4944
101.913 542 23.2809
102.03 512 22.6274
102.148 523 22.8692
102.265 503 22.4277
102.382 462 21.4942
102.499 500 22.3607
102.616 505 22.4722
102.733 564 23.7487
102.851 504 22.4499
102.968 575 23.9792
103.085 558 23.622
103.202 582 24.1247
103.319 510 22.5832
103.436 534 23.1084
103.552 540 23.2379
103.669 533 23.0868
103.786 558 23.622
103.903 575 23.9792
104.02 554 23.5372
104.137 514 22.6716
104.253 557 23.6008
104.37 509 22.561
104.487 466 21.587
104.603 474 21.7715
104.72 520 22.8035
104.836 491 22.1585
104.953 478 21.8632
105.069 421 20.5183
105.186 408 20.199
105.302 409 20.2237
105.418 405 20.1246
105.535 396 19.8997
105.651 337 18.3576
105.767 316 17.7764
105.883 302 17.3781
105.999 244 15.6205
106.115 0 1
106.231 0 1
106.347 0 1
106.463 0 1
106.579 0 1
106.694 0 1
106.81 0 1
106.926 0 1
107.041 0 1
107.157 0 1
109.576 0 1
109.692 0 1
109.807 0 1
109.923 0 1
110.039 0 1
110.155 0 1
110.27 0 1
110.386 0 1
110.502 0 1
110.618 292 17.088
110.735 338 18.3848
110.851 377 19.4165
110.967 409 20.2237
111.083 377 19.4165
111.199 430 20.7364
111.316 458 21.4009
111.432 505 22.4722
111.549 519 22.7816
111.665 498 22.3159
111.782 527 22.9565
111.898 451 21.2368
112.015 491 22.1585
112.132 475 21.7945
112.248 473 21.7486
112.365 473 21.7486
112.482 510 22.5832
112.599 514 22.6716
112.716 457 21.3776
112.832 506 22.4944
112.949 471 21.7025
113.066 424 20.5913
113.183 460 21.4476
113.3 479 21.8861
113.417 481 21.9317
113.534 427 20.664
113.652 418 20.445
113.769 429 20.7123
113.886 447 21.1424
114.003 461 21.4709
114.12 454 21.3073
114.238 437 20.9045
114.355 445 21.095
114.472 490 22.1359
114.589 420 20.4939
114.707 459 21.4243
114.824 433 20.8087
114.942 455 21.3307
115.059 487 22.0681
115.176 454 21.3073
115.294 429 20.7123
115.411 435 20.8567
115.529 386 19.6469
115.646 422 20.5426
115.764 459 21.4243
115.881 418 20.445
115.999 426 20.6398
116.116 430 20.7364
116.234 454 21.3073
116.351 444 21.0713
116.469 410 20.2485
116.586 379 19.4679
116.704 420 20.4939
116.821 417 20.4206
116.939 398 19.9499
117.056 384 19.5959
117.174 394 19.8494
117.291 333 18.2483
117.409 363 19.0526
117.526 375 19.3649
117.644 386 19.6469
117.761 400 20
117.879 438 20.9284
117.996 419 20.4695
118.114 416 20.3961
118.231 413 20.3224
118.349 417 20.4206
118.466 409 20.2237
118.584 403 20.0749
118.701 454 21.3073
118.819 422 20.5426
118.936 383 19.5704
119.053 395 19.8746
119.171 420 20.4939
119.288 413 20.3224
119.405 402 20.0499
119.523 387 19.6723
119.64 424 20.5913
119.757 396 19.8997
119.875 383 19.5704
119.992 412 20.2978
120.109 370 19.2354
120.226 369 19.2094
120.343 400 20
120.46 383 19.5704
120.578 359 18.9473
120.695 354 18.8149
120.812 336 18.3303
120.929 331 18.1934
121.046 311 17.6352
121.163 338 18.3848
121.279 363 19.0526
121.396 336 18.3303
121.513 358 18.9209
121.63 374 19.3391
121.747 348 18.6548
121.863 354 18.8149
121.98 339 18.412
122.097 364 19.0788
122.213 353 18.7883
122.33 316 17.7764
122.446 321 17.9165
122.563 284 16.8523
122.679 291 17.0587
122.795 230 15.1658
122.912 245 15.6525
123.028 255 15.9687
123.144 217 14.7309
123.26 220 14.8324
123.377 0 1
123.493 0 1
123.609 0 1
123.725 0 1
123.84 0 1
123.956 0 1
124.072 0 1
124.188 0 1
124.303 0 1
124.419 0 1
126.852 0 1
126.968 0 1
127.083 0 1
127.199 0 1
127.315 0 1
127.431 0 1
127.547 0 1
127.663 0 1
127.779 0 1
127.895 0 1
128.011 0 1
128.127 0 1
128.243 0 1
128.359 442 21.0238
128.476 451 21.2368
128.592 448 21.166
128.708 413 20.3224
128.825 447 21.1424
128.941 474 21.7715
129.058 463 21.5174
129.174 490 22.1359
129.291 469 21.6564
129.408 453 21.2838
129.524 437 20.9045
129.641 442 21.0238
129.758 447 21.1424
129.875 429 20.7123
129.992 371 19.2614
130.108 420 20.4939
130.225 403 20.0749
130.342 392 19.799
130.459 447 21.1424
130.576 496 22.2711
130.693 472 21.7256
130.81 524 22.891
130.928 515 22.6936
131.045 468 21.6333
131.162 523 22.8692
131.279 532 23.0651
131.396 616 24.8193
131.513 633 25.1595
131.631 643 25.3574
131.748 607 24.6374
131.865 676 26
131.983 746 27.313
132.1 796 28.2135
132.217 810 28.4605
132.335 901 30.0167
132.452 970 31.1448
132.57 933 30.545
132.687 963 31.0322
132.804 1005 31.7017
132.922 999 31.607
133.039 1097 33.121
133.157 1098 33.1361
133.274 1149 33.8969
133.392 1115 33.3916
133.509 1088 32.9848
133.627 1133 33.6601
133.744 1106 33.2566
133.862 1149 33.8969
133.979 1148 33.8821
134.097 1256 35.4401
134.214 1262 35.5246
134.332 1253 35.3977
134.449 1206 34.7275
134.567 1224 34.9857
134.684 1266 35.5809
134.802 1187 34.4529
134.919 1171 34.2199
135.037 1226 35.0143
135.154 1160 34.0588
135.272 1226 35.0143
135.389 1242 35.242
135.507 1245 35.2846
135.624 1319 36.318
135.742 1397 37.3765
135.859 1296 36
135.977 1304 36.1109
136.094 1417 37.6431
136.211 1407 37.51
136.329 1327 36.428
136.446 1427 37.7757
136.564 1387 37.2424
136.681 1428 37.7889
136.798 1381 37.1618
136.915 1261 35.5106
137.033 1370 37.0135
137.15 1312 36.2215
137.267 1245 35.2846
137.384 1260 35.4965
137.502 1241 35.2278
137.619 1263 35.5387
137.736 1323 36.3731
137.853 1272 35.6651
137.97 1436 37.8946
138.087 1286 35.8608
138.204 1265 35.5668
138.321 1301 36.0694
138.438 1271 35.6511
138.555 1226 35.0143
138.672 1269 35.623
138.788 1222 34.9571
138.905 1191 34.5109
139.022 1177 34.3074
139.139 1194 34.5543
139.255 1204 34.6987
139.372 1209 34.7707
139.488 1125 33.541
139.605 1087 32.9697
139.721 945 30.7409
139.838 879 29.6479
139.954 844 29.0517
140.071 795 28.1957
140.187 723 26.8887
140.303 743 27.258
140.419 694 26.3439
140.535 629 25.0799
140.652 577 24.0208
140.768 0 1
140.884 0 1
141 0 1
141.115 0 1
141.231 0 1
141.347 0 1
141.463 0 1
141.578 0 1
141.694 0 1
144.104 0 1
144.219 0 1
144.335 0 1
144.45 0 1
144.566 0 1
144.682 0 1
144.798 0 1
144.914 0 1
145.03 0 1
145.146 943 30.7083
145.262 947 30.7734
145.378 876 29.5973
145.494 970 31.1448
145.61 977 31.257
145.726 998 31.5911
145.842 1000 31.6228
145.959 968 31.1127
146.075 942 30.692
146.192 951 30.8383
146.308 926 30.4302
146.425 884 29.7321
146.541 961 31
146.658 1061 32.573
146.774 1005 31.7017
146.891 1001 31.6386
147.008 999 31.607
147.125 918 30.2985
147.241 942 30.692
147.358 1000 31.6228
147.475 1002 31.6544
147.592 951 30.8383
147.709 952 30.8545
147.826 991 31.4802
147.943 970 31.1448
148.06 1048 32.3728
148.177 982 31.3369
148.294 959 30.9677
148.411 1052 32.4345
148.528 985 31.3847
148.645 1054 32.4654
148.762 1048 32.3728
148.88 972 31.1769
148.997 1045 32.3265
149.114 1002 31.6544
149.231 963 31.0322
149.349 1020 31.9374
149.466 1047 32.3574
149.583 1030 32.0936
149.701 1041 32.2645
149.818 944 30.7246
149.935 963 31.0322
150.053 956 30.9192
150.17 977 31.257
150.287 938 30.6268
150.405 1018 31.9061
150.522 951 30.8383
150.64 935 30.5778
150.757 928 30.4631
150.875 899 29.9833
150.992 908 30.133
151.11 961 31
151.227 844 29.0517
151.344 895 29.9166
151.462 848 29.1204
151.579 872 29.5296
151.697 905 30.0832
151.814 976 31.241
151.932 979 31.289
152.049 984 31.3688
152.167 989 31.4484
152.284 941 30.6757
152.402 990 31.4643
152.519 988 31.4325
152.636 984 31.3688
152.754 994 31.5278
152.871 1001 31.6386
152.989 1012 31.8119
153.106 1025 32.0156
153.223 965 31.0644
153.341 948 30.7896
153.458 956 30.9192
153.575 932 30.5287
153.693 892 29.8664
153.81 979 31.289
153.927 950 30.8221
154.044 924 30.3974
154.162 921 30.348
154.279 908 30.133
154.396 848 29.1204
154.513 882 29.6985
154.63 944 30.7246
154.747 881 29.6816
154.864 863 29.3769
154.981 892 29.8664
155.098 805 28.3725
155.215 840 28.9828
155.332 893 29.8831
155.449 936 30.5941
155.566 889 29.8161
155.683 963 31.0322
155.8 975 31.225
155.917 946 30.7571
156.033 921 30.348
156.15 0 1
156.267 0 1
156.383 0 1
156.5 0 1
156.617 0 1
156.733 0 1
156.85 0 1
156.966 0 1
157.082 0 1
157.199 0 1
157.315 0 1
157.431 0 1
157.547 0 1
157.664 0 1
157.78 0 1
157.896 0 1
158.012 0 1
158.128 0 1
158.244 0 1
158.359 0 1
158.475 0 1
158.591 0 1
158.706 0 1
