
6.15755 0 1
6.2731 0 1
6.3887 0 1
6.50437 0 1
6.62009 0 1
6.73587 0 1
6.8517 0 1
6.96759 0 1
7.08353 0 1
7.19952 0 1
7.31557 0 1
7.43166 0 1
7.54781 0 1
7.664 0 1
7.78024 0 1
7.89653 0 1
8.01286 0 1
8.12924 0 1
8.24567 0 1
8.36213 0 1
8.47864 0 1
8.59519 0 1
8.71178 0 1
8.82841 0 1
8.94508 0 1
9.06179 0 1
9.17853 0 1
9.29531 0 1
9.41212 0 1
9.52897 0 1
9.64584 0 1
9.76276 0 1
9.8797 0 1
9.99667 0 1
10.1137 0 1
10.2307 0 1
10.3478 0 1
10.4648 0 1
10.5819 0 1
10.6991 0 1
10.8162 0 1
10.9334 0 1
11.0506 0 1
11.1678 0 1
11.285 0 1
11.4023 0 1
11.5196 0 1
11.6369 0 1
11.7542 0 1
11.8715 0 1
11.9888 0 1
12.1062 0 1
12.2235 0 1
12.3409 0 1
12.4582 0 1
12.5756 0 1
12.693 0 1
12.8104 0 1
12.9278 0 1
13.0452 0 1
13.1626 0 1
13.28 0 1
13.3974 0 1
13.5149 0 1
13.6323 0 1
13.7497 0 1
13.8671 0 1
13.9845 0 1
14.1019 0 1
14.2193 0 1
14.3367 0 1
14.4541 0 1
14.5714 0 1
14.6888 0 1
14.8062 0 1
14.9235 0 1
15.0408 0 0
15.1581 0 0
15.2755 0 0
15.3927 0 0
15.51 0 0
15.6273 0 0
15.7445 0 0
15.8617 0 0
15.9789 0 0
16.0961 0 0
16.2132 0 0
16.3304 0 0
16.4475 0 0
16.5646 0 0
16.6816 0 0
16.7986 0 0
16.9156 0 0
17.0326 0 0
17.1496 0 0
17.2665 0 0
17.3833 0 0
17.5002 0 0
17.617 0 0
17.7338 0 0
17.8505 0 0
17.9672 0 0
18.0839 0 0
18.2005 0 0
18.3171 0 0
18.4337 0 0
18.5502 0 0
18.6666 0 0
18.7831 0 0
18.8994 0 0
19.0158 0 0
19.1321 0 0
19.2483 0 0
19.3645 0 0
19.4806 0 0
19.5967 0 0
19.7128 0 0
19.8288 0 0
19.9447 0 0
20.0606 0 1
20.1764 0 1
20.2922 0 1
20.4079 0 1
20.5236 0 1
20.6392 0 1
20.7548 0 1
20.8702 0 1
23.3078 0 1
23.4233 0 1
23.539 0 1
23.6547 0 1
23.7704 0 1
23.8862 0 1
24.0021 0 1
24.118 0 1
24.234 0 1
24.35 0 1
24.4661 22561 150.203
24.5822 22288 149.292
24.6984 22539 150.13
24.8146 22196 148.983
24.9309 21684 147.255
25.0472 21504 146.642
25.1636 21492 146.602
25.28 21995 148.307
25.3965 22721 150.735
25.513 23237 152.437
25.6296 24473 156.438
25.7462 25406 159.393
25.8628 25378 159.305
25.9795 25277 158.987
26.0962 25497 159.678
26.213 25547 159.834
26.3298 24727 157.248
26.4466 23725 154.029
26.5635 22774 150.911
26.6804 22564 150.213
26.7973 22777 150.921
26.9143 23662 153.825
27.0313 23835 154.386
27.1483 24713 157.204
27.2653 25500 159.687
27.3824 25309 159.088
27.4996 25553 159.853
27.6167 25166 158.638
27.7339 24824 157.556
27.8511 24322 155.955
27.9683 24230 155.66
28.0855 23779 154.204
28.2028 23032 151.763
28.3201 22791 150.967
28.4374 21792 147.621
28.5547 21079 145.186
28.6721 21041 145.055
28.7894 21336 146.068
28.9068 21719 147.374
29.0242 22188 148.956
29.1416 23016 151.71
29.259 23773 154.185
29.3764 24258 155.75
29.4939 24425 156.285
29.6113 24012 154.958
29.7288 24019 154.981
29.8463 23248 152.473
29.9638 22584 150.28
30.0812 21787 147.604
30.1987 21050 145.086
30.3162 21566 146.854
30.4337 22389 149.63
30.5512 22980 151.592
30.6687 23631 153.724
30.7862 23719 154.01
30.9037 24544 156.665
31.0212 24573 156.758
31.1387 24929 157.889
31.2562 24572 156.755
31.3737 24486 156.48
31.4912 23958 154.784
31.6087 23422 153.042
31.7262 22912 151.367
31.8436 22580 150.266
31.9611 21903 147.997
32.0785 21157 145.454
32.1959 20692 143.847
32.3134 20869 144.461
32.4308 21432 146.397
32.5482 22149 148.825
32.6655 22666 150.552
32.7829 23331 152.745
32.9002 24043 155.058
33.0176 23772 154.182
33.1349 24002 154.926
33.2522 23717 154.003
33.3694 24080 155.177
33.4867 23802 154.279
33.6039 22454 149.847
33.7211 21770 147.547
33.8383 20904 144.582
33.9554 21467 146.516
34.0725 21830 147.75
34.1896 22638 150.459
34.3067 23507 153.32
34.4237 23656 153.805
34.5407 24304 155.897
34.6577 24475 156.445
34.7746 24494 156.506
34.8915 24276 155.808
35.0084 24077 155.168
35.1252 23695 153.932
35.242 23770 154.175
35.3587 23115 152.036
35.4755 22749 150.828
35.5921 22260 149.198
35.7088 21369 146.181
35.8254 20866 144.451
35.9419 20519 143.245
36.0584 20611 143.565
36.1749 20744 144.028
36.2913 21424 146.369
36.4077 22011 148.361
36.524 23099 151.984
36.6403 23350 152.807
36.7565 23260 152.512
36.8727 23299 152.64
36.9889 23575 153.542
37.1049 22728 150.758
37.221 0 1
37.3369 0 1
37.4529 0 1
37.5687 0 1
37.6845 0 1
37.8003 0 1
37.916 0 1
38.0316 0 1
38.1472 0 1
40.5851 0 1
40.7008 0 1
40.8164 0 1
40.9322 0 1
41.048 0 1
41.1639 0 1
41.2798 0 1
41.3958 0 1
41.5118 0 1
41.6279 0 1
41.744 18592 136.352
41.8602 19272 138.824
41.9765 19456 139.485
42.0928 20032 141.534
42.2091 20167 142.011
42.3255 19602 140.007
42.4419 18469 135.901
42.5584 17986 134.112
42.675 17610 132.703
42.7915 17910 133.828
42.9081 18788 137.069
43.0248 19420 139.356
43.1415 19925 141.156
43.2582 20088 141.732
43.375 20178 142.049
43.4918 20815 144.274
43.6087 20348 142.646
43.7256 20186 142.077
43.8425 19962 141.287
43.9595 19446 139.449
44.0765 19189 138.524
44.1935 18706 136.77
44.3106 18244 135.07
44.4277 17560 132.514
44.5448 16460 128.297
44.6619 15622 124.988
44.7791 15553 124.712
44.8963 15465 124.358
45.0136 16098 126.878
45.1308 16413 128.113
45.2481 17037 130.526
45.3654 17436 132.045
45.4827 17615 132.722
45.6001 17099 130.763
45.7174 17186 131.095
45.8348 16750 129.422
45.9522 15942 126.262
46.0697 15075 122.78
46.1871 14744 121.425
46.3046 14223 119.26
46.422 15001 122.479
46.5395 15499 124.495
46.657 15862 125.944
46.7745 16159 127.118
46.892 16262 127.523
47.0096 16200 127.279
47.1271 16455 128.277
47.2446 16271 127.558
47.3622 15920 126.174
47.4797 15471 124.382
47.5973 15198 123.28
47.7149 14821 121.742
47.8324 14226 119.273
47.95 13479 116.099
48.0675 13143 114.643
48.1851 11945 109.293
48.3027 11860 108.904
48.4202 11906 109.115
48.5378 12430 111.49
48.6554 12646 112.454
48.7729 13408 115.793
48.8904 13653 116.846
49.008 13646 116.816
49.1255 13617 116.692
49.243 13669 116.914
49.3605 13104 114.473
49.478 12489 111.754
49.5955 12034 109.7
49.713 11841 108.816
49.8304 11974 109.426
49.9479 12497 111.79
50.0653 13434 115.905
50.1827 14156 118.979
50.3001 14816 121.721
50.4175 15111 122.927
50.5348 15558 124.732
50.6521 15675 125.2
50.7694 16047 126.677
50.8867 16428 128.172
51.004 16602 128.849
51.1212 16572 128.732
51.2384 16871 129.888
51.3556 16382 127.992
51.4727 16531 128.573
51.5899 15519 124.575
51.707 14866 121.926
51.824 15118 122.955
51.9411 15487 124.447
52.0581 16284 127.609
52.175 17163 131.008
52.2919 17713 133.09
52.4088 18675 136.657
52.5257 18896 137.463
52.6425 19224 138.651
52.7593 19381 139.216
52.876 19778 140.634
52.9927 19224 138.651
53.1094 18400 135.647
53.226 17774 133.319
53.3426 17491 132.254
53.4591 17914 133.843
53.5756 18857 137.321
53.692 20555 143.37
53.8084 21308 145.973
53.9248 22164 148.876
54.0411 22778 150.924
54.1573 23371 152.876
54.2735 0 1
54.3896 0 1
54.5057 0 1
54.6217 0 1
54.7377 0 1
54.8537 0 1
54.9695 0 1
55.0853 0 1
55.2011 0 1
55.3168 0 1
55.4324 0 1
57.824 0 1
57.9396 0 1
58.0553 0 1
58.1711 0 1
58.2869 0 1
58.4028 0 1
58.5187 0 1
58.6347 0 1
58.7508 0 1
58.8669 0 1
58.983 24672 157.073
59.0992 25748 160.462
59.2155 26743 163.533
59.3318 27603 166.142
59.4482 28064 167.523
59.5646 27623 166.202
59.681 27865 166.928
59.7975 27332 165.324
59.9141 26572 163.009
60.0306 25841 160.751
60.1473 24509 156.554
60.2639 23429 153.065
60.3807 22010 148.358
60.4974 21130 145.362
60.6142 21224 145.685
60.731 21745 147.462
60.8479 22182 148.936
60.9648 23077 151.911
61.0818 23865 154.483
61.1987 23860 154.467
61.3158 24005 154.935
61.4328 23959 154.787
61.5499 23017 151.714
61.667 22144 148.809
61.7841 21205 145.619
61.9013 20423 142.909
62.0185 20723 143.955
62.1357 21206 145.623
62.253 22680 150.599
62.3702 23415 153.02
62.4875 23999 154.916
62.6049 24404 156.218
62.7222 25402 159.38
62.8396 25548 159.837
62.9569 25600 160
63.0743 25679 160.247
63.1918 25546 159.831
63.3092 24878 157.728
63.4267 23850 154.434
63.5441 23297 152.634
63.6616 21941 148.125
63.7791 21111 145.296
63.8966 19983 141.361
64.0142 18882 137.412
64.1317 19164 138.434
64.2492 19290 138.888
64.3668 20143 141.926
64.4843 20740 144.014
64.6019 21515 146.68
64.7195 21809 147.679
64.837 21799 147.645
64.9546 21923 148.064
65.0722 21292 145.918
65.1898 20289 142.439
65.3074 19474 139.549
65.4249 18695 136.73
65.5425 18552 136.206
65.6601 18797 137.102
65.7777 19740 140.499
65.8952 21166 145.485
66.0128 22120 148.728
66.1304 22497 149.99
66.2479 23229 152.411
66.3655 23694 153.929
66.483 23923 154.671
66.6005 24575 156.764
66.718 24160 155.435
66.8355 23520 153.362
66.953 23350 152.807
67.0705 22801 151
67.1879 21947 148.145
67.3054 20988 144.872
67.4228 19622 140.079
67.5402 18429 135.753
67.6576 17622 132.748
67.7749 18012 134.209
67.8923 18700 136.748
68.0096 19511 139.682
68.1269 20542 143.325
68.2442 21760 147.513
68.3614 21937 148.111
68.4787 22462 149.873
68.5958 21810 147.682
68.713 22155 148.846
68.8302 21178 145.527
68.9473 20028 141.52
69.0643 18940 137.623
69.1814 18914 137.528
69.2984 19522 139.721
69.4154 20757 144.073
69.5323 22111 148.698
69.6492 23359 152.837
69.7661 24090 155.21
69.8829 25178 158.676
69.9997 25854 160.792
70.1165 26036 161.357
70.2332 26555 162.957
70.3499 26693 163.38
70.4665 25978 161.177
70.5831 25399 159.371
70.6996 25129 158.521
70.8161 23958 154.784
70.9326 23314 152.689
71.049 21627 147.061
71.1653 19902 141.074
71.2817 18862 137.339
71.3979 18459 135.864
71.5141 18531 136.129
71.6303 19149 138.38
71.7464 18658 136.594
71.8624 0 1
71.9784 0 1
72.0944 0 1
72.2102 0 1
72.3261 0 1
72.4418 0 1
72.5575 0 1
72.6732 0 1
75.1054 0 1
75.2209 0 1
75.3365 0 1
75.4521 0 1
75.5678 0 1
75.6835 0 1
75.7993 0 1
75.9151 0 1
76.031 0 1
76.147 21945 148.138
76.263 23067 151.878
76.3791 22567 150.223
76.4952 21069 145.152
76.6113 19568 139.886
76.7276 19261 138.784
76.8438 20009 141.453
76.9601 20513 143.224
77.0765 21735 147.428
77.1929 23359 152.837
77.3093 24630 156.939
77.4258 24239 155.689
77.5423 24421 156.272
77.6589 23988 154.881
77.7755 23095 151.97
77.8921 21662 147.18
78.0088 20572 143.429
78.1256 19357 139.129
78.2423 18937 137.612
78.3591 19567 139.882
78.4759 21012 144.955
78.5928 22314 149.379
78.7097 23500 153.297
78.8266 24272 155.795
78.9436 25529 159.778
79.0606 25632 160.1
79.1776 26062 161.437
79.2946 26070 161.462
79.4117 25990 161.214
79.5288 25581 159.941
79.6459 25237 158.862
79.7631 24034 155.029
79.8802 23079 151.918
79.9974 22001 148.327
80.1147 20385 142.776
80.2319 18936 137.608
80.3491 18160 134.759
80.4664 18206 134.93
80.5837 18920 137.55
80.701 20130 141.88
80.8183 21311 145.983
80.9357 21889 147.949
81.053 22021 148.395
81.1704 21990 148.29
81.2877 21951 148.159
81.4051 21413 146.332
81.5225 20840 144.361
81.6399 18811 137.153
81.7573 17996 134.149
81.8747 17097 130.755
81.9922 17059 130.61
82.1096 18676 136.66
82.227 19830 140.819
82.3444 21012 144.955
82.4619 21874 147.899
82.5793 22919 151.39
82.6967 22559 150.197
82.8142 23133 152.095
82.9316 22979 151.588
83.049 23052 151.829
83.1664 21990 148.29
83.2838 21591 146.939
83.4012 20777 144.142
83.5186 19999 141.418
83.636 19105 138.221
83.7534 18087 134.488
83.8708 16386 128.008
83.9881 15606 124.924
84.1055 15634 125.036
84.2228 16127 126.992
84.3401 17242 131.309
84.4575 18496 136
84.5747 19878 140.989
84.692 20131 141.884
84.8093 20529 143.279
84.9265 20235 142.25
85.0437 19445 139.445
85.1609 18348 135.455
85.2781 17112 130.813
85.3952 16723 129.317
85.5123 16476 128.359
85.6294 17098 130.759
85.7465 18844 137.273
85.8636 20613 143.572
85.9806 21668 147.201
86.0976 22613 150.376
86.2145 23782 154.214
86.3315 24132 155.345
86.4484 25084 158.379
86.5652 25025 158.193
86.682 25146 158.575
86.7988 24821 157.547
86.9156 24301 155.888
87.0323 23606 153.642
87.149 22770 150.897
87.2657 21892 147.959
87.3823 20981 144.848
87.4988 19353 139.115
87.6154 18824 137.201
87.7318 19787 140.666
87.8483 20706 143.896
87.9647 22522 150.073
88.081 24041 155.052
88.1973 24877 157.724
88.3136 24979 158.047
88.4298 25297 159.05
88.546 24712 157.201
88.6621 23538 153.421
88.7781 22116 148.714
88.8942 0 1
89.0101 0 1
89.126 0 1
89.2419 0 1
89.3577 0 1
89.4734 0 1
89.5891 0 1
89.7047 0 1
89.8203 0 1
89.9358 0 1
92.3269 0 1
92.4424 0 1
92.558 0 1
92.6736 0 1
92.7893 0 1
92.905 0 1
93.0208 0 1
93.1366 0 1
93.2525 0 1
93.3685 0 1
93.4845 0 1
93.6005 35956 189.621
93.7167 37554 193.789
93.8328 38800 196.977
93.949 39040 197.585
94.0653 39436 198.585
94.1816 38179 195.394
94.2979 36541 191.157
94.4143 35839 189.312
94.5307 36337 190.623
94.6472 36832 191.917
94.7637 39297 198.235
94.8803 43023 207.42
94.9969 46025 214.534
95.1135 48742 220.776
95.2302 50878 225.562
95.3469 52645 229.445
95.4637 54216 232.843
95.5805 55469 235.519
95.6973 56709 238.137
95.8142 56989 238.724
95.9311 56502 237.701
96.048 56164 236.989
96.1649 54724 233.932
96.2819 53495 231.29
96.3989 51557 227.062
96.516 49000 221.359
96.633 45339 212.93
96.7501 44062 209.91
96.8673 45082 212.325
96.9844 47765 218.552
97.1016 50841 225.479
97.2188 54269 232.957
97.336 56273 237.219
97.4532 57278 239.328
97.5704 56473 237.64
97.6877 55310 235.181
97.805 51943 227.91
97.9223 47959 218.995
98.0396 45029 212.2
98.1569 43196 207.836
98.2743 42792 206.862
98.3916 44036 209.848
98.509 47926 218.92
98.6264 51016 225.867
98.7438 53306 230.881
98.8612 54839 234.177
98.9786 56317 237.312
99.096 57495 239.781
99.2134 58420 241.702
99.3308 58199 241.245
99.4482 57993 240.817
99.5656 57464 239.716
99.6831 56620 237.95
99.8005 54348 233.127
99.9179 52792 229.765
100.035 50444 224.597
100.153 47145 217.129
100.27 44090 209.976
100.388 43531 208.641
100.505 45794 213.995
100.622 49013 221.389
100.74 51984 228
100.857 53963 232.299
100.975 54610 233.688
101.092 54316 233.058
101.209 53506 231.314
101.327 50974 225.774
101.444 48170 219.477
101.561 44150 210.119
101.679 41395 203.458
101.796 39184 197.949
101.913 38799 196.975
102.03 41172 202.909
102.148 44180 210.19
102.265 48840 220.998
102.382 44012 209.79
102.499 47859 218.767
102.616 47810 218.655
102.733 47402 217.72
102.851 47176 217.2
102.968 45809 214.03
103.085 45066 212.288
103.202 42715 206.676
103.319 40683 201.7
103.436 38799 196.975
103.552 36142 190.11
103.669 33232 182.296
103.786 30223 173.848
103.903 28843 169.832
104.02 29306 171.19
104.137 29983 173.156
104.253 32040 178.997
104.37 31163 176.53
104.487 32447 180.131
104.603 31815 178.368
104.72 30868 175.693
104.836 29599 172.044
104.953 27491 165.804
105.069 25687 160.272
105.186 24452 156.371
105.302 23512 153.336
105.418 23846 154.422
105.535 25255 158.918
105.651 27412 165.566
105.767 29083 170.537
105.883 30250 173.925
105.999 31435 177.299
106.115 0 1
106.231 0 1
106.347 0 1
106.463 0 1
106.579 0 1
106.694 0 1
106.81 0 1
106.926 0 1
107.041 0 1
107.157 0 1
109.576 0 1
109.692 0 1
109.807 0 1
109.923 0 1
110.039 0 1
110.155 0 1
110.27 0 1
110.386 0 1
110.502 0 1
110.618 23676 153.87
110.735 26946 164.152
110.851 28065 167.526
110.967 29213 170.918
111.083 29977 173.139
111.199 30455 174.514
111.316 30983 176.02
111.432 31226 176.709
111.549 30669 175.126
111.665 30579 174.869
111.782 29439 171.578
111.898 28660 169.293
112.015 27409 165.557
112.132 26134 161.66
112.248 24393 156.183
112.365 23095 151.97
112.482 22942 151.466
112.599 23085 151.937
112.716 24743 157.299
112.832 26280 162.111
112.949 27008 164.341
113.066 27184 164.876
113.183 27116 164.669
113.3 26706 163.42
113.417 25693 160.29
113.534 24384 156.154
113.652 23285 152.594
113.769 22506 150.02
113.886 22405 149.683
114.003 22129 148.758
114.12 24022 154.99
114.238 26442 162.61
114.355 27573 166.051
114.472 29968 173.113
114.589 28016 167.38
114.707 30077 173.427
114.824 30612 174.963
114.942 30366 174.258
115.059 30949 175.923
115.176 30429 174.439
115.294 30020 173.263
115.411 28954 170.159
115.529 28309 168.253
115.646 27416 165.578
115.764 25757 160.49
115.881 24401 156.208
115.999 23781 154.211
116.116 23741 154.081
116.234 24769 157.382
116.351 26334 162.278
116.469 27433 165.629
116.586 28097 167.622
116.704 27635 166.238
116.821 27505 165.846
116.939 27303 165.236
117.056 26028 161.332
117.174 25206 158.764
117.291 24175 155.483
117.409 23581 153.561
117.526 23339 152.771
117.644 24135 155.354
117.761 26414 162.524
117.879 27788 166.697
117.996 28869 169.909
118.114 30191 173.756
118.231 30388 174.322
118.349 31370 177.116
118.466 31008 176.091
118.584 31656 177.921
118.701 31500 177.482
118.819 30834 175.596
118.936 29918 172.968
119.053 29367 171.368
119.171 28401 168.526
119.288 27776 166.661
119.405 26295 162.157
119.523 24695 157.146
119.64 23719 154.01
119.757 24027 155.006
119.875 24959 157.984
119.992 26121 161.62
120.109 27336 165.336
120.226 27815 166.778
120.343 27771 166.646
120.46 27691 166.406
120.578 27594 166.114
120.695 26792 163.683
120.812 25813 160.664
120.929 24962 157.994
121.046 23996 154.906
121.163 23948 154.751
121.279 24310 155.917
121.396 25455 159.546
121.513 27099 164.618
121.63 28312 168.262
121.747 29667 172.241
121.863 30144 173.62
121.98 30647 175.063
122.097 31033 176.162
122.213 31009 176.094
122.33 31221 176.695
122.446 30502 174.648
122.563 30204 173.793
122.679 29709 172.363
122.795 29044 170.423
122.912 28349 168.372
123.028 27259 165.103
123.144 25878 160.866
123.26 24421 156.272
123.377 0 1
123.493 0 1
123.609 0 1
123.725 0 1
123.84 0 1
123.956 0 1
124.072 0 1
124.188 0 1
124.303 0 1
124.419 0 1
126.852 0 1
126.968 0 1
127.083 0 1
127.199 0 1
127.315 0 1
127.431 0 1
127.547 0 1
127.663 0 1
127.779 0 1
127.895 0 1
128.011 0 1
128.127 0 1
128.243 0 1
128.359 28775 169.632
128.476 27466 165.729
128.592 26558 162.966
128.708 26781 163.649
128.825 27808 166.757
128.941 29184 170.833
129.058 30522 174.705
129.174 30500 174.642
129.291 30874 175.71
129.408 30807 175.519
129.524 29997 173.196
129.641 29085 170.543
129.758 27821 166.796
129.875 27145 164.757
129.992 26337 162.287
130.108 26222 161.932
130.225 25914 160.978
130.342 27641 166.256
130.459 28547 168.959
130.576 31204 176.647
130.693 30728 175.294
130.81 31431 177.288
130.928 32020 178.941
131.045 32343 179.842
131.162 32473 180.203
131.279 32561 180.447
131.396 32488 180.244
131.513 32208 179.466
131.631 31579 177.705
131.748 30637 175.034
131.865 29648 172.186
131.983 28292 168.202
132.1 26761 163.588
132.217 26589 163.061
132.335 27544 165.964
132.452 28652 169.269
132.57 29504 171.767
132.687 29352 171.324
132.804 31355 177.073
132.922 30091 173.468
133.039 30007 173.225
133.157 29538 171.866
133.274 28500 168.819
133.392 27476 165.759
133.509 26373 162.398
133.627 25934 161.04
133.744 26040 161.369
133.862 26699 163.398
133.979 28421 168.585
134.097 29386 171.423
134.214 30385 174.313
134.332 30973 175.991
134.449 31533 177.575
134.567 31796 178.314
134.684 32037 178.989
134.802 32528 180.355
134.919 32168 179.354
135.037 32165 179.346
135.154 31425 177.271
135.272 30533 174.737
135.389 30168 173.689
135.507 29291 171.146
135.624 27570 166.042
135.742 26792 163.683
135.859 27359 165.406
135.977 27447 165.671
136.094 29090 170.558
136.211 29997 173.196
136.329 30490 174.614
136.446 30088 173.459
136.564 30368 174.264
136.681 30361 174.244
136.798 29451 171.613
136.915 28560 168.997
137.033 27155 164.788
137.15 26698 163.395
137.267 26094 161.536
137.384 25840 160.748
137.502 26731 163.496
137.619 28061 167.514
137.736 29179 170.819
137.853 29533 171.852
137.97 31111 176.383
138.087 30750 175.357
138.204 31637 177.868
138.321 32050 179.025
138.438 31960 178.774
138.555 32492 180.255
138.672 32334 179.817
138.788 31854 178.477
138.905 31275 176.847
139.022 30765 175.4
139.139 30285 174.026
139.255 28896 169.988
139.372 27419 165.587
139.488 27655 166.298
139.605 28349 168.372
139.721 29602 172.052
139.838 30322 174.132
139.954 31009 176.094
140.071 30579 174.869
140.187 30594 174.911
140.303 30499 174.64
140.419 29559 171.927
140.535 28668 169.316
140.652 27254 165.088
140.768 0 1
140.884 0 1
141 0 1
141.115 0 1
141.231 0 1
141.347 0 1
141.463 0 1
141.578 0 1
141.694 0 1
144.104 0 1
144.219 0 1
144.335 0 1
144.45 0 1
144.566 0 1
144.682 0 1
144.798 0 1
144.914 0 1
145.03 0 1
145.146 27454 165.692
145.262 27929 167.12
145.378 27691 166.406
145.494 27174 164.845
145.61 26158 161.734
145.726 25506 159.706
145.842 24860 157.671
145.959 24662 157.041
146.075 24479 156.458
146.192 25833 160.726
146.308 26839 163.826
146.425 27032 164.414
146.541 27708 166.457
146.658 28316 168.274
146.774 28938 170.112
146.891 28891 169.974
147.008 29123 170.655
147.125 30216 173.828
147.241 29906 172.934
147.358 29485 171.712
147.475 29272 171.091
147.592 28541 168.941
147.709 27922 167.099
147.826 27065 164.514
147.943 25989 161.211
148.06 25405 159.389
148.177 25798 160.618
148.294 26927 164.094
148.411 28197 167.92
148.528 28480 168.76
148.645 28786 169.664
148.762 28787 169.667
148.88 28426 168.6
148.997 27754 166.595
149.114 28528 168.902
149.231 26977 164.247
149.349 26217 161.917
149.466 24956 157.975
149.583 24819 157.54
149.701 24593 156.822
149.818 25396 159.361
149.935 26466 162.684
150.053 27491 165.804
150.17 28103 167.639
150.287 28882 169.947
150.405 29126 170.663
150.522 29560 171.93
150.64 30152 173.643
150.757 30380 174.299
150.875 30706 175.231
150.992 30162 173.672
151.11 29815 172.67
151.227 29256 171.044
151.344 28323 168.294
151.462 27278 165.161
151.579 26888 163.976
151.697 26046 161.388
151.814 26397 162.472
151.932 27569 166.039
152.049 28794 169.688
152.167 29206 170.898
152.284 29744 172.464
152.402 29423 171.531
152.519 29648 172.186
152.636 29376 171.394
152.754 28238 168.042
152.871 27333 165.327
152.989 26811 163.741
153.106 25859 160.807
153.223 25316 159.11
153.341 25813 160.664
153.458 26107 161.577
153.575 27133 164.721
153.693 27970 167.242
153.81 28550 168.967
153.927 29198 170.874
154.044 29703 172.346
154.162 29911 172.948
154.279 30817 175.548
154.396 31117 176.4
154.513 31544 177.606
154.63 31387 177.164
154.747 30924 175.852
154.864 30662 175.106
154.981 29949 173.058
155.098 29053 170.449
155.215 27542 165.958
155.332 27414 165.572
155.449 27745 166.568
155.566 28296 168.214
155.683 29629 172.131
155.8 30027 173.283
155.917 30039 173.318
156.033 29995 173.191
156.15 0 1
156.267 0 1
156.383 0 1
156.5 0 1
156.617 0 1
156.733 0 1
156.85 0 1
156.966 0 1
157.082 0 1
157.199 0 1
157.315 0 1
157.431 0 1
157.547 0 1
157.664 0 1
157.78 0 1
157.896 0 1
158.012 0 1
158.128 0 1
158.244 0 1
158.359 0 1
158.475 0 1
158.591 0 1
158.706 0 1
