
6.15755 0 1
6.2731 0 1
6.3887 0 1
6.50437 0 1
6.62009 0 1
6.73587 0 1
6.8517 0 1
6.96759 0 1
7.08353 0 1
7.19952 0 1
7.31557 0 1
7.43166 0 1
7.54781 0 1
7.664 0 1
7.78024 0 1
7.89653 0 1
8.01286 0 1
8.12924 0 1
8.24567 0 1
8.36213 0 1
8.47864 0 1
8.59519 0 1
8.71178 0 1
8.82841 0 1
8.94508 0 1
9.06179 0 1
9.17853 0 1
9.29531 0 1
9.41212 0 1
9.52897 0 1
9.64584 0 1
9.76276 0 1
9.8797 0 1
9.99667 0 1
10.1137 0 1
10.2307 0 1
10.3478 0 1
10.4648 0 1
10.5819 0 1
10.6991 0 1
10.8162 0 1
10.9334 0 1
11.0506 0 1
11.1678 0 1
11.285 0 1
11.4023 0 1
11.5196 0 1
11.6369 0 1
11.7542 0 1
11.8715 0 1
11.9888 0 1
12.1062 0 1
12.2235 0 1
12.3409 0 1
12.4582 0 1
12.5756 0 1
12.693 0 1
12.8104 0 1
12.9278 0 1
13.0452 0 1
13.1626 0 1
13.28 0 1
13.3974 0 1
13.5149 0 1
13.6323 0 1
13.7497 0 1
13.8671 0 1
13.9845 0 1
14.1019 0 1
14.2193 0 1
14.3367 0 1
14.4541 0 1
14.5714 0 1
14.6888 0 1
14.8062 0 1
14.9235 0 1
15.0408 0 0
15.1581 0 0
15.2755 0 0
15.3927 0 0
15.51 0 0
15.6273 0 0
15.7445 0 0
15.8617 0 0
15.9789 0 0
16.0961 0 0
16.2132 0 0
16.3304 0 0
16.4475 0 0
16.5646 0 0
16.6816 0 0
16.7986 0 0
16.9156 0 0
17.0326 0 0
17.1496 0 0
17.2665 0 0
17.3833 0 0
17.5002 0 0
17.617 0 0
17.7338 0 0
17.8505 0 0
17.9672 0 0
18.0839 0 0
18.2005 0 0
18.3171 0 0
18.4337 0 0
18.5502 0 0
18.6666 0 0
18.7831 0 0
18.8994 0 0
19.0158 0 0
19.1321 0 0
19.2483 0 0
19.3645 0 0
19.4806 0 0
19.5967 0 0
19.7128 0 0
19.8288 0 0
19.9447 0 0
20.0606 0 1
20.1764 0 1
20.2922 0 1
20.4079 0 1
20.5236 0 1
20.6392 0 1
20.7548 0 1
20.8702 0 1
23.3078 0 1
23.4233 0 1
23.539 0 1
23.6547 0 1
23.7704 0 1
23.8862 0 1
24.0021 0 1
24.118 0 1
24.234 0 1
24.35 0 1
24.4661 15691 125.264
24.5822 15454 124.314
24.6984 15433 124.23
24.8146 15074 122.776
24.9309 14936 122.213
25.0472 14809 121.692
25.1636 14678 121.153
25.28 15067 122.748
25.3965 15279 123.608
25.513 15859 125.933
25.6296 16483 128.386
25.7462 16636 128.981
25.8628 16896 129.985
25.9795 17056 130.599
26.0962 16687 129.178
26.213 16575 128.744
26.3298 16017 126.558
26.4466 15446 124.282
26.5635 14946 122.254
26.6804 14831 121.783
26.7973 14947 122.258
26.9143 15647 125.088
27.0313 15898 126.087
27.1483 16489 128.41
27.2653 16584 128.779
27.3824 16731 129.348
27.4996 16500 128.452
27.6167 16686 129.174
27.7339 16154 127.098
27.8511 15933 126.226
27.9683 15728 125.411
28.0855 15417 124.165
28.2028 15228 123.402
28.3201 14425 120.104
28.4374 14089 118.697
28.5547 14053 118.545
28.6721 13809 117.512
28.7894 13861 117.733
28.9068 14170 119.038
29.0242 14380 119.917
29.1416 14813 121.709
29.259 15114 122.939
29.3764 15080 122.801
29.4939 15069 122.756
29.6113 15185 123.227
29.7288 14971 122.356
29.8463 14433 120.137
29.9638 13986 118.262
30.0812 13581 116.538
30.1987 13545 116.383
30.3162 13842 117.652
30.4337 14245 119.352
30.5512 14772 121.54
30.6687 15006 122.499
30.7862 15473 124.391
30.9037 15450 124.298
31.0212 15625 125
31.1387 15863 125.948
31.2562 15335 123.835
31.3737 15305 123.713
31.4912 15305 123.713
31.6087 14790 121.614
31.7262 14569 120.702
31.8436 14296 119.566
31.9611 13764 117.32
32.0785 13391 115.719
32.1959 13288 115.274
32.3134 13464 116.034
32.4308 13436 115.914
32.5482 13694 117.021
32.6655 14345 119.771
32.7829 14450 120.208
32.9002 14581 120.752
33.0176 14692 121.211
33.1349 14586 120.773
33.2522 14743 121.421
33.3694 14718 121.318
33.4867 14199 119.16
33.6039 13653 116.846
33.7211 13317 115.399
33.8383 13268 115.187
33.9554 13464 116.034
34.0725 13955 118.131
34.1896 14274 119.474
34.3067 14870 121.943
34.4237 15267 123.56
34.5407 15082 122.809
34.6577 15338 123.847
34.7746 15560 124.74
34.8915 15339 123.851
35.0084 15156 123.11
35.1252 14911 122.111
35.242 14662 121.087
35.3587 14499 120.412
35.4755 14036 118.474
35.5921 13824 117.576
35.7088 13213 114.948
35.8254 12874 113.464
35.9419 12774 113.022
36.0584 12921 113.671
36.1749 12967 113.873
36.2913 13192 114.856
36.4077 13624 116.722
36.524 13968 118.186
36.6403 14113 118.798
36.7565 14211 119.21
36.8727 14129 118.865
36.9889 14203 119.176
37.1049 13719 117.128
37.221 0 1
37.3369 0 1
37.4529 0 1
37.5687 0 1
37.6845 0 1
37.8003 0 1
37.916 0 1
38.0316 0 1
38.1472 0 1
40.5851 0 1
40.7008 0 1
40.8164 0 1
40.9322 0 1
41.048 0 1
41.1639 0 1
41.2798 0 1
41.3958 0 1
41.5118 0 1
41.6279 0 1
41.744 11377 106.663
41.8602 11744 108.37
41.9765 11963 109.375
42.0928 11811 108.678
42.2091 11969 109.403
42.3255 11443 106.972
42.4419 10973 104.752
42.5584 10932 104.556
42.675 10687 103.378
42.7915 11091 105.314
42.9081 11426 106.892
43.0248 11930 109.225
43.1415 11940 109.27
43.2582 12319 110.991
43.375 12558 112.062
43.4918 12934 113.728
43.6087 12819 113.221
43.7256 12499 111.799
43.8425 12348 111.122
43.9595 12149 110.223
44.0765 12059 109.813
44.1935 11597 107.689
44.3106 11187 105.769
44.4277 10688 103.383
44.5448 10031 100.155
44.6619 9566 97.8059
44.7791 9647 98.2191
44.8963 9761 98.7978
45.0136 9933 99.6644
45.1308 10448 102.215
45.2481 10685 103.368
45.3654 10398 101.971
45.4827 10484 102.391
45.6001 10377 101.868
45.7174 10604 102.976
45.8348 10198 100.985
45.9522 9841 99.2018
46.0697 9196 95.8958
46.1871 9028 95.0158
46.3046 8990 94.8156
46.422 9404 96.9742
46.5395 9928 99.6393
46.657 10013 100.065
46.7745 10298 101.479
46.892 10203 101.01
47.0096 10374 101.853
47.1271 10188 100.936
47.2446 10240 101.193
47.3622 10138 100.688
47.4797 9827 99.1312
47.5973 9682 98.3972
47.7149 9632 98.1428
47.8324 9104 95.4149
47.95 8705 93.3006
48.0675 8291 91.0549
48.1851 7751 88.0398
48.3027 7543 86.8504
48.4202 7825 88.459
48.5378 7944 89.1291
48.6554 8224 90.6863
48.7729 8539 92.4067
48.8904 8736 93.4666
49.008 8579 92.6229
49.1255 8956 94.6361
49.243 8599 92.7308
49.3605 8609 92.7847
49.478 8217 90.6477
49.5955 8001 89.4483
49.713 7872 88.7243
49.8304 8081 89.8944
49.9479 8461 91.9837
50.0653 9183 95.828
50.1827 9638 98.1733
50.3001 10050 100.25
50.4175 10569 102.806
50.5348 10677 103.33
50.6521 10960 104.69
50.7694 11257 106.099
50.8867 11448 106.995
51.004 11528 107.369
51.1212 11651 107.94
51.2384 11851 108.862
51.3556 11503 107.252
51.4727 11125 105.475
51.5899 10587 102.893
51.707 10214 101.064
51.824 10328 101.627
51.9411 10531 102.621
52.0581 10826 104.048
52.175 11547 107.457
52.2919 11683 108.088
52.4088 11966 109.389
52.5257 11927 109.211
52.6425 12237 110.621
52.7593 12457 111.611
52.876 12448 111.571
52.9927 12143 110.195
53.1094 11519 107.327
53.226 11480 107.145
53.3426 11188 105.773
53.4591 11548 107.462
53.5756 12427 111.476
53.692 13044 114.21
53.8084 13799 117.469
53.9248 14302 119.591
54.0411 14549 120.619
54.1573 14993 122.446
54.2735 0 1
54.3896 0 1
54.5057 0 1
54.6217 0 1
54.7377 0 1
54.8537 0 1
54.9695 0 1
55.0853 0 1
55.2011 0 1
55.3168 0 1
55.4324 0 1
57.824 0 1
57.9396 0 1
58.0553 0 1
58.1711 0 1
58.2869 0 1
58.4028 0 1
58.5187 0 1
58.6347 0 1
58.7508 0 1
58.8669 0 1
58.983 16302 127.679
59.0992 16989 130.342
59.2155 17634 132.793
59.3318 17733 133.165
59.4482 18098 134.529
59.5646 18119 134.607
59.681 18050 134.35
59.7975 17693 133.015
59.9141 17011 130.426
60.0306 16238 127.428
60.1473 15347 123.883
60.2639 14690 121.202
60.3807 13755 117.282
60.4974 13601 116.623
60.6142 13886 117.839
60.731 13953 118.123
60.8479 14256 119.398
60.9648 15028 122.589
61.0818 15225 123.39
61.1987 15420 124.177
61.3158 15478 124.411
61.4328 14981 122.397
61.5499 14449 120.204
61.667 13704 117.064
61.7841 13317 115.399
61.9013 13286 115.265
62.0185 13636 116.773
62.1357 13814 117.533
62.253 14878 121.975
62.3702 15404 124.113
62.4875 16069 126.764
62.6049 16286 127.617
62.7222 16829 129.727
62.8396 16893 129.973
62.9569 17078 130.683
63.0743 16949 130.188
63.1918 16900 130
63.3092 16443 128.23
63.4267 16017 126.558
63.5441 15146 123.069
63.6616 14196 119.147
63.7791 13548 116.396
63.8966 12535 111.96
64.0142 12271 110.775
64.1317 12413 111.414
64.2492 12917 113.653
64.3668 13388 115.707
64.4843 13616 116.688
64.6019 13939 118.064
64.7195 14461 120.254
64.837 14575 120.727
64.9546 14153 118.966
65.0722 13669 116.914
65.1898 13270 115.195
65.3074 12695 112.672
65.4249 12239 110.63
65.5425 12347 111.117
65.6601 12656 112.499
65.7777 13295 115.304
65.8952 13879 117.809
66.0128 14627 120.942
66.1304 15161 123.13
66.2479 15732 125.427
66.3655 16205 127.299
66.483 16274 127.57
66.6005 16294 127.648
66.718 16206 127.303
66.8355 15873 125.988
66.953 15911 126.139
67.0705 15126 122.988
67.1879 14372 119.883
67.3054 13681 116.966
67.4228 12455 111.602
67.5402 11808 108.665
67.6576 11731 108.31
67.7749 11693 108.134
67.8923 12454 111.597
68.0096 12997 114.004
68.1269 13666 116.902
68.2442 14232 119.298
68.3614 14309 119.62
68.4787 14719 121.322
68.5958 14344 119.766
68.713 14045 118.512
68.8302 13270 115.195
68.9473 12745 112.894
69.0643 12296 110.887
69.1814 12435 111.512
69.2984 12706 112.721
69.4154 13637 116.778
69.5323 14576 120.731
69.6492 15345 123.875
69.7661 15976 126.396
69.8829 16391 128.027
69.9997 17123 130.855
70.1165 17166 131.019
70.2332 17225 131.244
70.3499 17326 131.628
70.4665 17260 131.377
70.5831 16828 129.723
70.6996 15764 125.555
70.8161 14986 122.417
70.9326 14184 119.097
71.049 13198 114.883
71.1653 12309 110.946
71.2817 11588 107.648
71.3979 11742 108.361
71.5141 12083 109.923
71.6303 12366 111.203
71.7464 11961 109.366
71.8624 0 1
71.9784 0 1
72.0944 0 1
72.2102 0 1
72.3261 0 1
72.4418 0 1
72.5575 0 1
72.6732 0 1
75.1054 0 1
75.2209 0 1
75.3365 0 1
75.4521 0 1
75.5678 0 1
75.6835 0 1
75.7993 0 1
75.9151 0 1
76.031 0 1
76.147 14068 118.609
76.263 14461 120.254
76.3791 13735 117.196
76.4952 12527 111.924
76.6113 12061 109.823
76.7276 12412 111.409
76.8438 12750 112.916
76.9601 13344 115.516
77.0765 14231 119.294
77.1929 14972 122.36
77.3093 15636 125.044
77.4258 15706 125.324
77.5423 15919 126.171
77.6589 15342 123.863
77.7755 14350 119.791
77.8921 13695 117.026
78.0088 12663 112.53
78.1256 12453 111.593
78.2423 12226 110.571
78.3591 12698 112.685
78.4759 13713 117.103
78.5928 14904 122.082
78.7097 15581 124.824
78.8266 16996 130.369
78.9436 16126 126.988
79.0606 17130 130.882
79.1776 17137 130.908
79.2946 17303 131.541
79.4117 17343 131.693
79.5288 17025 130.48
79.6459 16672 129.12
79.7631 15734 125.435
79.8802 15212 123.337
79.9974 14010 118.364
80.1147 12874 113.464
80.2319 12173 110.331
80.3491 11682 108.083
80.4664 12212 110.508
80.5837 12981 113.934
80.701 13597 116.606
80.8183 14030 118.448
80.9357 14551 120.628
81.053 15037 122.625
81.1704 14721 121.33
81.2877 14781 121.577
81.4051 13813 117.529
81.5225 13233 115.035
81.6399 12136 110.164
81.7573 12133 110.15
81.8747 11643 107.903
81.9922 11875 108.972
82.1096 12998 114.009
82.227 13943 118.08
82.3444 14764 121.507
82.4619 15368 123.968
82.5793 15554 124.716
82.6967 16511 128.495
82.8142 16299 127.668
82.9316 16250 127.475
83.049 15854 125.913
83.1664 15672 125.188
83.2838 15039 122.634
83.4012 14370 119.875
83.5186 13430 115.888
83.636 12691 112.654
83.7534 11927 109.211
83.8708 10993 104.848
83.9881 10706 103.47
84.1055 11120 105.451
84.2228 11673 108.042
84.3401 12448 111.571
84.4575 13488 116.138
84.5747 13856 117.712
84.692 14480 120.333
84.8093 14435 120.146
84.9265 13826 117.584
85.0437 12998 114.009
85.1609 12154 110.245
85.2781 11758 108.434
85.3952 11432 106.921
85.5123 11462 107.061
85.6294 12340 111.086
85.7465 13605 116.64
85.8636 14396 119.983
85.9806 15339 123.851
86.0976 15784 125.634
86.2145 16755 129.441
86.3315 16533 128.581
86.4484 17734 133.169
86.5652 17520 132.363
86.682 17680 132.966
86.7988 17290 131.491
86.9156 16839 129.765
87.0323 15877 126.004
87.149 15187 123.236
87.2657 14201 119.168
87.3823 13330 115.456
87.4988 12667 112.548
87.6154 12877 113.477
87.7318 13726 117.158
87.8483 14514 120.474
87.9647 15768 125.571
88.081 16059 126.724
88.1973 16966 130.254
88.3136 17163 131.008
88.4298 16820 129.692
88.546 15849 125.893
88.6621 14226 119.273
88.7781 13375 115.65
88.8942 0 1
89.0101 0 1
89.126 0 1
89.2419 0 1
89.3577 0 1
89.4734 0 1
89.5891 0 1
89.7047 0 1
89.8203 0 1
89.9358 0 1
92.3269 0 1
92.4424 0 1
92.558 0 1
92.6736 0 1
92.7893 0 1
92.905 0 1
93.0208 0 1
93.1366 0 1
93.2525 0 1
93.3685 0 1
93.4845 0 1
93.6005 23286 152.598
93.7167 24553 156.694
93.8328 24885 157.75
93.949 25326 159.141
94.0653 25299 159.057
94.1816 24739 157.286
94.2979 24774 157.398
94.4143 24650 157.003
94.5307 24964 158
94.6472 26277 162.102
94.7637 28821 169.767
94.8803 31755 178.199
94.9969 33815 183.889
95.1135 36038 189.837
95.2302 38027 195.005
95.3469 39807 199.517
95.4637 41332 203.303
95.5805 43008 207.384
95.6973 44341 210.573
95.8142 45015 212.167
95.9311 45555 213.436
96.048 45095 212.356
96.1649 44801 211.662
96.2819 43601 208.809
96.3989 42093 205.166
96.516 39781 199.452
96.633 37274 193.065
96.7501 36601 191.314
96.8673 38403 195.967
96.9844 40645 201.606
97.1016 44578 211.135
97.2188 47309 217.506
97.336 49384 222.225
97.4532 50046 223.71
97.5704 50071 223.766
97.6877 47976 219.034
97.805 45613 213.572
97.9223 42431 205.988
98.0396 39342 198.348
98.1569 37593 193.889
98.2743 37514 193.685
98.3916 38170 195.371
98.509 41797 204.443
98.6264 44105 210.012
98.7438 45949 214.357
98.8612 47911 218.886
98.9786 49681 222.892
99.096 50028 223.669
99.2134 51154 226.173
99.3308 50972 225.77
99.4482 50972 225.77
99.5656 51404 226.725
99.6831 49693 222.919
99.8005 48472 220.164
99.9179 46630 215.94
100.035 44280 210.428
100.153 41738 204.299
100.27 38332 195.786
100.388 38689 196.695
100.505 40574 201.43
100.622 43837 209.373
100.74 46387 215.376
100.857 48342 219.868
100.975 48803 220.914
101.092 48544 220.327
101.209 47783 218.593
101.327 46033 214.553
101.444 42495 206.143
101.561 39072 197.666
101.679 36713 191.606
101.796 35064 187.254
101.913 34547 185.868
102.03 36639 191.413
102.148 38888 197.2
102.265 42967 207.285
102.382 40114 200.285
102.499 42626 206.461
102.616 42942 207.225
102.733 42597 206.39
102.851 42136 205.271
102.968 41625 204.022
103.085 39907 199.767
103.202 37955 194.82
103.319 36020 189.789
103.436 33637 183.404
103.552 31777 178.261
103.669 28316 168.274
103.786 25384 159.324
103.903 24284 155.833
104.02 24744 157.302
104.137 25198 158.739
104.253 26506 162.807
104.37 25270 158.965
104.487 25665 160.203
104.603 25016 158.164
104.72 23450 153.134
104.836 21877 147.909
104.953 19549 139.818
105.069 18184 134.848
105.186 16738 129.375
105.302 16184 127.216
105.418 16196 127.264
105.535 17359 131.754
105.651 18380 135.573
105.767 19249 138.741
105.883 19956 141.266
105.999 20386 142.78
106.115 0 1
106.231 0 1
106.347 0 1
106.463 0 1
106.579 0 1
106.694 0 1
106.81 0 1
106.926 0 1
107.041 0 1
107.157 0 1
109.576 0 1
109.692 0 1
109.807 0 1
109.923 0 1
110.039 0 1
110.155 0 1
110.27 0 1
110.386 0 1
110.502 0 1
110.618 15020 122.556
110.735 16644 129.012
110.851 17601 132.669
110.967 18447 135.82
111.083 18656 136.587
111.199 19041 137.989
111.316 19405 139.302
111.432 19478 139.564
111.549 19158 138.412
111.665 18671 136.642
111.782 17728 133.147
111.898 17109 130.801
112.015 16367 127.934
112.132 15544 124.676
112.248 14305 119.604
112.365 13624 116.722
112.482 13898 117.89
112.599 13928 118.017
112.716 14729 121.363
112.832 15591 124.864
112.949 15752 125.507
113.066 15944 126.27
113.183 15869 125.972
113.3 15311 123.738
113.417 14216 119.231
113.534 13477 116.09
113.652 12803 113.15
113.769 12905 113.6
113.886 12697 112.681
114.003 13016 114.088
114.12 14015 118.385
114.238 14642 121.004
114.355 15870 125.976
114.472 16724 129.321
114.589 16603 128.853
114.707 17344 131.697
114.824 17422 131.992
114.942 17530 132.401
115.059 17648 132.846
115.176 17331 131.647
115.294 16964 130.246
115.411 16244 127.452
115.529 15760 125.539
115.646 15152 123.093
115.764 14360 119.833
115.881 13423 115.858
115.999 13127 114.573
116.116 13743 117.231
116.234 14221 119.252
116.351 14953 122.282
116.469 15105 122.902
116.586 15451 124.302
116.704 15701 125.304
116.821 15328 123.806
116.939 14970 122.352
117.056 14049 118.528
117.174 13746 117.243
117.291 13126 114.569
117.409 12929 113.706
117.526 13278 115.23
117.644 14145 118.933
117.761 14937 122.217
117.879 16235 127.417
117.996 16597 128.829
118.114 17527 132.39
118.231 17877 133.705
118.349 18014 134.216
118.466 18267 135.155
118.584 18451 135.834
118.701 18304 135.292
118.819 17784 133.357
118.936 17507 132.314
119.053 16585 128.783
119.171 16374 127.961
119.288 15458 124.33
119.405 14843 121.832
119.523 14121 118.832
119.64 13916 117.966
119.757 14084 118.676
119.875 14765 121.511
119.992 15127 122.992
120.109 15664 125.156
120.226 15819 125.774
120.343 15810 125.738
120.46 15630 125.02
120.578 14833 121.791
120.695 14638 120.988
120.812 13866 117.754
120.929 13821 117.563
121.046 13619 116.7
121.163 13652 116.842
121.279 13612 116.67
121.396 14737 121.396
121.513 15606 124.924
121.63 16532 128.577
121.747 17173 131.046
121.863 17823 133.503
121.98 17852 133.611
122.097 17895 133.772
122.213 18141 134.689
122.33 18204 134.922
122.446 18055 134.369
122.563 17648 132.846
122.679 17188 131.103
122.795 16869 129.881
122.912 16183 127.212
123.028 15743 125.471
123.144 14823 121.75
123.26 13933 118.038
123.377 0 1
123.493 0 1
123.609 0 1
123.725 0 1
123.84 0 1
123.956 0 1
124.072 0 1
124.188 0 1
124.303 0 1
124.419 0 1
126.852 0 1
126.968 0 1
127.083 0 1
127.199 0 1
127.315 0 1
127.431 0 1
127.547 0 1
127.663 0 1
127.779 0 1
127.895 0 1
128.011 0 1
128.127 0 1
128.243 0 1
128.359 16980 130.307
128.476 15970 126.372
128.592 15809 125.734
128.708 16342 127.836
128.825 16736 129.368
128.941 17750 133.229
129.058 17670 132.929
129.174 17929 133.899
129.291 18018 134.231
129.408 18082 134.469
129.524 17185 131.092
129.641 16732 129.352
129.758 16159 127.118
129.875 15848 125.889
129.992 15337 123.843
130.108 15417 124.165
130.225 15915 126.155
130.342 16897 129.988
130.459 17393 131.883
130.576 18842 137.266
130.693 18668 136.631
130.81 19176 138.477
130.928 19313 138.971
131.045 19778 140.634
131.162 19728 140.456
131.279 19691 140.325
131.396 19488 139.599
131.513 18928 137.579
131.631 18513 136.062
131.748 18319 135.348
131.865 17151 130.962
131.983 16440 128.219
132.1 16067 126.756
132.217 15976 126.396
132.335 16686 129.174
132.452 17225 131.244
132.57 18057 134.376
132.687 17340 131.681
132.804 17954 133.993
132.922 17814 133.469
133.039 17445 132.08
133.157 16866 129.869
133.274 16291 127.636
133.392 15675 125.2
133.509 15364 123.952
133.627 15526 124.603
133.744 15517 124.567
133.862 16179 127.197
133.979 17175 131.053
134.097 17905 133.81
134.214 18495 135.996
134.332 18674 136.653
134.449 19158 138.412
134.567 19043 137.996
134.684 19375 139.194
134.802 19509 139.675
134.919 19493 139.617
135.037 19079 138.127
135.154 19095 138.185
135.272 18544 136.176
135.389 18064 134.402
135.507 17159 130.992
135.624 16170 127.161
135.742 16116 126.949
135.859 16597 128.829
135.977 16959 130.227
136.094 17907 133.817
136.211 18174 134.811
136.329 17894 133.768
136.446 18055 134.369
136.564 18118 134.603
136.681 17566 132.537
136.798 17107 130.794
136.915 16633 128.969
137.033 16335 127.808
137.15 15982 126.42
137.267 15787 125.646
137.384 16017 126.558
137.502 16598 128.833
137.619 17449 132.095
137.736 18178 134.826
137.853 17980 134.09
137.97 18246 135.078
138.087 19146 138.369
138.204 19062 138.065
138.321 19662 140.221
138.438 19757 140.56
138.555 20047 141.587
138.672 19710 140.392
138.788 19272 138.824
138.905 19193 138.539
139.022 18409 135.68
139.139 17830 133.529
139.255 17049 130.572
139.372 16489 128.41
139.488 17123 130.855
139.605 17427 132.011
139.721 17954 133.993
139.838 18428 135.75
139.954 18510 136.051
140.071 17983 134.101
140.187 18317 135.34
140.303 17561 132.518
140.419 17100 130.767
140.535 16462 128.304
140.652 15901 126.099
140.768 0 1
140.884 0 1
141 0 1
141.115 0 1
141.231 0 1
141.347 0 1
141.463 0 1
141.578 0 1
141.694 0 1
144.104 0 1
144.219 0 1
144.335 0 1
144.45 0 1
144.566 0 1
144.682 0 1
144.798 0 1
144.914 0 1
145.03 0 1
145.146 17295 131.51
145.262 16843 129.781
145.378 16636 128.981
145.494 16243 127.448
145.61 15532 124.627
145.726 15565 124.76
145.842 15154 123.102
145.959 15041 122.642
146.075 15176 123.191
146.192 15886 126.04
146.308 16472 128.343
146.425 17052 130.583
146.541 17270 131.415
146.658 17588 132.62
146.774 17664 132.906
146.891 17947 133.966
147.008 18027 134.265
147.125 17927 133.892
147.241 17979 134.086
147.358 18031 134.28
147.475 17616 132.725
147.592 17438 132.053
147.709 16605 128.86
147.826 15809 125.734
147.943 15740 125.459
148.06 15658 125.132
148.177 15964 126.349
148.294 16354 127.883
148.411 17028 130.491
148.528 17034 130.514
148.645 16839 129.765
148.762 16720 129.306
148.88 16534 128.585
148.997 15882 126.024
149.114 16295 127.652
149.231 15490 124.459
149.349 15287 123.641
149.466 14691 121.206
149.583 14627 120.942
149.701 14637 120.983
149.818 15310 123.734
149.935 15704 125.316
150.053 16367 127.934
150.17 16512 128.499
150.287 16753 129.433
150.405 16842 129.777
150.522 17260 131.377
150.64 17546 132.461
150.757 17632 132.786
150.875 17681 132.97
150.992 17693 133.015
151.11 17136 130.905
151.227 16980 130.307
151.344 16264 127.53
151.462 15722 125.387
151.579 15478 124.411
151.697 15672 125.188
151.814 16071 126.771
151.932 16526 128.553
152.049 16828 129.723
152.167 17017 130.449
152.284 16977 130.296
152.402 16827 129.719
152.519 16769 129.495
152.636 16750 129.422
152.754 16076 126.791
152.871 15519 124.575
152.989 15638 125.052
153.106 15205 123.309
153.223 15094 122.858
153.341 15408 124.129
153.458 16033 126.621
153.575 16248 127.468
153.693 16580 128.763
153.81 17096 130.752
153.927 17531 132.405
154.044 17765 133.285
154.162 18403 135.658
154.279 18670 136.638
154.396 18757 136.956
154.513 18535 136.143
154.63 18932 137.594
154.747 18351 135.466
154.864 18041 134.317
154.981 17672 132.936
155.098 17078 130.683
155.215 16444 128.234
155.332 16393 128.035
155.449 16943 130.165
155.566 17588 132.62
155.683 17594 132.642
155.8 17396 131.894
155.917 17554 132.492
156.033 17480 132.212
156.15 0 1
156.267 0 1
156.383 0 1
156.5 0 1
156.617 0 1
156.733 0 1
156.85 0 1
156.966 0 1
157.082 0 1
157.199 0 1
157.315 0 1
157.431 0 1
157.547 0 1
157.664 0 1
157.78 0 1
157.896 0 1
158.012 0 1
158.128 0 1
158.244 0 1
158.359 0 1
158.475 0 1
158.591 0 1
158.706 0 1
