
6.15755 0 1
6.2731 0 1
6.3887 0 1
6.50437 0 1
6.62009 0 1
6.73587 0 1
6.8517 0 1
6.96759 0 1
7.08353 0 1
7.19952 0 1
7.31557 0 1
7.43166 0 1
7.54781 0 1
7.664 0 1
7.78024 0 1
7.89653 0 1
8.01286 0 1
8.12924 0 1
8.24567 0 1
8.36213 0 1
8.47864 0 1
8.59519 0 1
8.71178 0 1
8.82841 0 1
8.94508 0 1
9.06179 0 1
9.17853 0 1
9.29531 0 1
9.41212 0 1
9.52897 0 1
9.64584 0 1
9.76276 0 1
9.8797 0 1
9.99667 0 1
10.1137 0 1
10.2307 0 1
10.3478 0 1
10.4648 0 1
10.5819 0 1
10.6991 0 1
10.8162 0 1
10.9334 0 1
11.0506 0 1
11.1678 0 1
11.285 0 1
11.4023 0 1
11.5196 0 1
11.6369 0 1
11.7542 0 1
11.8715 0 1
11.9888 0 1
12.1062 0 1
12.2235 0 1
12.3409 0 1
12.4582 0 1
12.5756 0 1
12.693 0 1
12.8104 0 1
12.9278 0 1
13.0452 0 1
13.1626 0 1
13.28 0 1
13.3974 0 1
13.5149 0 1
13.6323 0 1
13.7497 0 1
13.8671 0 1
13.9845 0 1
14.1019 0 1
14.2193 0 1
14.3367 0 1
14.4541 0 1
14.5714 0 1
14.6888 0 1
14.8062 0 1
14.9235 0 1
15.0408 4452 66.7233
15.1581 4822 69.4406
15.2755 5100 71.4143
15.3927 5101 71.4213
15.51 5155 71.7983
15.6273 5216 72.2219
15.7445 4796 69.2532
15.8617 4507 67.1342
15.9789 4364 66.0606
16.0961 4321 65.7343
16.2132 4974 70.5266
16.3304 5610 74.8999
16.4475 6419 80.1187
16.5646 6800 82.4621
16.6816 7066 84.0595
16.7986 7447 86.296
16.9156 7308 85.4868
17.0326 7377 85.8895
17.1496 7482 86.4986
17.2665 7492 86.5563
17.3833 7502 86.6141
17.5002 7501 86.6083
17.617 7266 85.2408
17.7338 7378 85.8953
17.8505 7322 85.5687
17.9672 7289 85.3756
18.0839 7405 86.0523
18.2005 7587 87.1034
18.3171 7662 87.5329
18.4337 7662 87.5329
18.5502 7915 88.9663
18.6666 7773 88.1646
18.7831 7820 88.4308
18.8994 7795 88.2893
19.0158 7590 87.1206
19.1321 7138 84.4867
19.2483 6545 80.9012
19.3645 5893 76.7659
19.4806 5209 72.1734
19.5967 4889 69.9214
19.7128 4932 70.2282
19.8288 5368 73.2666
19.9447 5332 73.0205
20.0606 0 1
20.1764 0 1
20.2922 0 1
20.4079 0 1
20.5236 0 1
20.6392 0 1
20.7548 0 1
20.8702 0 1
23.3078 0 1
23.4233 0 1
23.539 0 1
23.6547 0 1
23.7704 0 1
23.8862 0 1
24.0021 0 1
24.118 0 1
24.234 0 1
24.35 0 1
24.4661 6358 79.7371
24.5822 6019 77.5822
24.6984 5665 75.2662
24.8146 4982 70.5833
24.9309 4831 69.5054
25.0472 5187 72.0208
25.1636 6116 78.2049
25.28 6848 82.7526
25.3965 7771 88.1533
25.513 8157 90.3161
25.6296 8560 92.5203
25.7462 8726 93.4131
25.8628 8771 93.6536
25.9795 8666 93.0914
26.0962 8772 93.659
26.213 8669 93.1075
26.3298 8538 92.4013
26.4466 8374 91.5096
26.5635 8301 91.1098
26.6804 8239 90.7689
26.7973 8463 91.9946
26.9143 8632 92.9086
27.0313 8623 92.8601
27.1483 8355 91.4057
27.2653 8625 92.8709
27.3824 8569 92.5689
27.4996 8524 92.3255
27.6167 8576 92.6067
27.7339 8604 92.7577
27.8511 8073 89.8499
27.9683 7837 88.5268
28.0855 7118 84.3682
28.2028 6207 78.7845
28.3201 5076 71.2461
28.4374 4578 67.6609
28.5547 4432 66.5733
28.6721 5137 71.6729
28.7894 6007 77.5048
28.9068 6815 82.553
29.0242 7651 87.47
29.1416 8183 90.4599
29.259 8457 91.9619
29.3764 8453 91.9402
29.4939 8409 91.7006
29.6113 8377 91.526
29.7288 8324 91.236
29.8463 8238 90.7634
29.9638 8251 90.835
30.0812 8122 90.1221
30.1987 8292 91.0604
30.3162 8260 90.8845
30.4337 8233 90.7359
30.5512 8244 90.7965
30.6687 8217 90.6477
30.7862 8388 91.586
30.9037 8216 90.6422
31.0212 8274 90.9615
31.1387 8260 90.8845
31.2562 8261 90.89
31.3737 8347 91.3619
31.4912 7933 89.0674
31.6087 7288 85.3698
31.7262 6598 81.2281
31.8436 5397 73.4643
31.9611 4538 67.3647
32.0785 4447 66.6858
32.1959 4818 69.4118
32.3134 5741 75.7694
32.4308 6656 81.5843
32.5482 7616 87.2697
32.6655 7956 89.1964
32.7829 8259 90.879
32.9002 8108 90.0444
33.0176 8101 90.0056
33.1349 8165 90.3604
33.2522 8036 89.6437
33.3694 8176 90.4212
33.4867 7966 89.2525
33.6039 7933 89.0674
33.7211 7959 89.2132
33.8383 7950 89.1628
33.9554 7926 89.0281
34.0725 7967 89.2581
34.1896 7846 88.5776
34.3067 7840 88.5438
34.4237 7886 88.8032
34.5407 8041 89.6716
34.6577 8035 89.6382
34.7746 7919 88.9888
34.8915 7850 88.6002
35.0084 8049 89.7162
35.1252 7698 87.7382
35.242 7402 86.0349
35.3587 6927 83.2286
35.4755 5961 77.2075
35.5921 4975 70.5337
35.7088 4135 64.304
35.8254 3829 61.8789
35.9419 4333 65.8255
36.0584 4878 69.8427
36.1749 6132 78.3071
36.2913 6714 81.939
36.4077 7410 86.0814
36.524 7628 87.3384
36.6403 7695 87.7211
36.7565 7695 87.7211
36.8727 7596 87.155
36.9889 7690 87.6926
37.1049 7501 86.6083
37.221 0 1
37.3369 0 1
37.4529 0 1
37.5687 0 1
37.6845 0 1
37.8003 0 1
37.916 0 1
38.0316 0 1
38.1472 0 1
40.5851 0 1
40.7008 0 1
40.8164 0 1
40.9322 0 1
41.048 0 1
41.1639 0 1
41.2798 0 1
41.3958 0 1
41.5118 0 1
41.6279 0 1
41.744 5457 73.8715
41.8602 5853 76.5049
41.9765 6370 79.8123
42.0928 6375 79.8436
42.2091 6252 79.0696
42.3255 6347 79.6681
42.4419 6228 78.9177
42.5584 6137 78.339
42.675 5947 77.1168
42.7915 6043 77.7367
42.9081 5885 76.7138
43.0248 5869 76.6094
43.1415 5785 76.0592
43.2582 5918 76.9285
43.375 5876 76.6551
43.4918 5950 77.1362
43.6087 5838 76.4068
43.7256 5885 76.7138
43.8425 5764 75.921
43.9595 5602 74.8465
44.0765 5465 73.9256
44.1935 5160 71.8331
44.3106 4291 65.5057
44.4277 3377 58.112
44.5448 2560 50.5964
44.6619 2455 49.548
44.7791 2889 53.7494
44.8963 3428 58.5491
45.0136 4306 65.6201
45.1308 4643 68.1396
45.2481 4665 68.3008
45.3654 4608 67.8823
45.4827 4608 67.8823
45.6001 4563 67.55
45.7174 4541 67.3869
45.8348 4511 67.164
45.9522 4281 65.4294
46.0697 4255 65.2304
46.1871 4123 64.2106
46.3046 4110 64.1093
46.422 4013 63.3482
46.5395 4004 63.2772
46.657 3943 62.7933
46.7745 3979 63.0793
46.892 4005 63.2851
47.0096 3917 62.5859
47.1271 3920 62.6099
47.2446 3810 61.7252
47.3622 3818 61.79
47.4797 3707 60.8851
47.5973 3622 60.1831
47.7149 3582 59.8498
47.8324 3271 57.1927
47.95 2770 52.6308
48.0675 1947 44.1248
48.1851 1708 41.328
48.3027 1896 43.5431
48.4202 2245 47.3814
48.5378 2658 51.5558
48.6554 3231 56.8419
48.7729 3303 57.4717
48.8904 3348 57.8619
49.008 3404 58.3438
49.1255 3449 58.7282
49.243 3204 56.6039
49.3605 3284 57.3062
49.478 3207 56.6304
49.5955 3235 56.8771
49.713 3232 56.8507
49.8304 3175 56.3471
49.9479 3177 56.3649
50.0653 3254 57.0438
50.1827 3373 58.0775
50.3001 3591 59.925
50.4175 3765 61.3596
50.5348 3843 61.9919
50.6521 3735 61.1146
50.7694 3865 62.1691
50.8867 3914 62.562
51.004 4019 63.3956
51.1212 3989 63.1585
51.2384 4019 63.3956
51.3556 3792 61.5792
51.4727 3165 56.2583
51.5899 2349 48.4665
51.707 2142 46.2817
51.824 2395 48.9387
51.9411 3070 55.4076
52.0581 3993 63.1902
52.175 4652 68.2056
52.2919 4788 69.1954
52.4088 4841 69.5773
52.5257 5083 71.2952
52.6425 5165 71.8679
52.7593 5217 72.2288
52.876 5157 71.8123
52.9927 5251 72.4638
53.1094 5150 71.7635
53.226 5299 72.7942
53.3426 5152 71.7774
53.4591 5416 73.5935
53.5756 5336 73.0479
53.692 5509 74.2226
53.8084 5749 75.8222
53.9248 5598 74.8198
54.0411 5738 75.7496
54.1573 5881 76.6877
54.2735 0 1
54.3896 0 1
54.5057 0 1
54.6217 0 1
54.7377 0 1
54.8537 0 1
54.9695 0 1
55.0853 0 1
55.2011 0 1
55.3168 0 1
55.4324 0 1
57.824 0 1
57.9396 0 1
58.0553 0 1
58.1711 0 1
58.2869 0 1
58.4028 0 1
58.5187 0 1
58.6347 0 1
58.7508 0 1
58.8669 0 1
58.983 6313 79.4544
59.0992 6572 81.0679
59.2155 6839 82.6982
59.3318 6785 82.3711
59.4482 6838 82.6922
59.5646 6816 82.5591
59.681 6616 81.3388
59.7975 6568 81.0432
59.9141 6207 78.7845
60.0306 5950 77.1362
60.1473 4908 70.0571
60.2639 4025 63.4429
60.3807 3638 60.3158
60.4974 3736 61.1228
60.6142 4149 64.4127
60.731 5105 71.4493
60.8479 5558 74.552
60.9648 5813 76.243
61.0818 5962 77.214
61.1987 6121 78.2368
61.3158 5987 77.3757
61.4328 5812 76.2365
61.5499 5872 76.629
61.667 5649 75.1598
61.7841 5537 74.411
61.9013 5406 73.5255
62.0185 5546 74.4715
62.1357 5479 74.0203
62.253 5647 75.1465
62.3702 5739 75.7562
62.4875 5718 75.6175
62.6049 5881 76.6877
62.7222 5873 76.6355
62.8396 5992 77.408
62.9569 6055 77.8139
63.0743 5872 76.629
63.1918 5916 76.9155
63.3092 5692 75.4453
63.4267 5628 75.02
63.5441 5054 71.0915
63.6616 4268 65.3299
63.7791 3480 58.9915
63.8966 3047 55.1996
64.0142 3225 56.7891
64.1317 3608 60.0666
64.2492 4460 66.7832
64.3668 5038 70.9789
64.4843 5331 73.0137
64.6019 5257 72.5052
64.7195 5429 73.6817
64.837 5454 73.8512
64.9546 5317 72.9178
65.0722 5204 72.1388
65.1898 4903 70.0214
65.3074 5004 70.739
65.4249 4747 68.8985
65.5425 4852 69.6563
65.6601 4791 69.217
65.7777 4873 69.8069
65.8952 5122 71.5681
66.0128 5121 71.5612
66.1304 5207 72.1595
66.2479 5448 73.8106
66.3655 5271 72.6017
66.483 5320 72.9383
66.6005 5320 72.9383
66.718 5646 75.1399
66.8355 5531 74.3707
66.953 5408 73.5391
67.0705 5219 72.2426
67.1879 4823 69.4478
67.3054 3960 62.9285
67.4228 3118 55.8391
67.5402 2738 52.3259
67.6576 2938 54.2033
67.7749 3375 58.0948
67.8923 4371 66.1135
68.0096 4860 69.7137
68.1269 5173 71.9236
68.2442 5118 71.5402
68.3614 5360 73.212
68.4787 5326 72.9794
68.5958 5154 71.7914
68.713 5209 72.1734
68.8302 5092 71.3583
68.9473 4933 70.2353
69.0643 4760 68.9928
69.1814 4939 70.278
69.2984 5037 70.9718
69.4154 5239 72.3809
69.5323 5302 72.8148
69.6492 5572 74.6458
69.7661 5535 74.3976
69.8829 5600 74.8331
69.9997 5879 76.6746
70.1165 5833 76.3741
70.2332 5934 77.0325
70.3499 5822 76.302
70.4665 5826 76.3282
70.5831 5850 76.4853
70.6996 5875 76.6485
70.8161 5320 72.9383
70.9326 4768 69.0507
71.049 3855 62.0886
71.1653 2915 53.9907
71.2817 2825 53.1507
71.3979 3040 55.1362
71.5141 3897 62.426
71.6303 4610 67.897
71.7464 4536 67.3498
71.8624 0 1
71.9784 0 1
72.0944 0 1
72.2102 0 1
72.3261 0 1
72.4418 0 1
72.5575 0 1
72.6732 0 1
75.1054 0 1
75.2209 0 1
75.3365 0 1
75.4521 0 1
75.5678 0 1
75.6835 0 1
75.7993 0 1
75.9151 0 1
76.031 0 1
76.147 5067 71.1829
76.263 4915 70.1071
76.3791 3762 61.3351
76.4952 2743 52.3737
76.6113 2653 51.5073
76.7276 3335 57.7495
76.8438 4557 67.5056
76.9601 5438 73.7428
77.0765 5667 75.2795
77.1929 5743 75.7826
77.3093 5709 75.5579
77.4258 5803 76.1774
77.5423 5785 76.0592
77.6589 5686 75.4056
77.7755 5286 72.7049
77.8921 5137 71.6729
78.0088 5055 71.0985
78.1256 5019 70.8449
78.2423 5136 71.6659
78.3591 5257 72.5052
78.4759 5458 73.8783
78.5928 5554 74.5252
78.7097 5674 75.326
78.8266 5462 73.9053
78.9436 6000 77.4597
79.0606 5939 77.0649
79.1776 6007 77.5048
79.2946 5903 76.831
79.4117 5934 77.0325
79.5288 5612 74.9133
79.6459 5869 76.6094
79.7631 5489 74.0878
79.8802 5209 72.1734
79.9974 3956 62.8967
80.1147 2858 53.4603
80.2319 2645 51.4296
80.3491 3238 56.9034
80.4664 4346 65.9242
80.5837 5170 71.9027
80.701 5429 73.6817
80.8183 5522 74.3102
80.9357 5411 73.5595
81.053 5417 73.6003
81.1704 5402 73.4983
81.2877 5117 71.5332
81.4051 4942 70.2994
81.5225 4827 69.4766
81.6399 4909 70.0643
81.7573 4829 69.491
81.8747 4541 67.3869
81.9922 4784 69.1665
82.1096 5117 71.5332
82.227 5088 71.3302
82.3444 5244 72.4155
82.4619 5414 73.5799
82.5793 5538 74.4177
82.6967 5332 73.0205
82.8142 5447 73.8038
82.9316 5397 73.4643
83.049 5327 72.9863
83.1664 5348 73.13
83.2838 5244 72.4155
83.4012 5149 71.7565
83.5186 4441 66.6408
83.636 3576 59.7997
83.7534 2616 51.1468
83.8708 2347 48.4458
83.9881 2837 53.2635
84.1055 3700 60.8276
84.2228 4651 68.1982
84.3401 4998 70.6965
84.4575 5052 71.0774
84.5747 5149 71.7565
84.692 5201 72.118
84.8093 5101 71.4213
84.9265 4799 69.2748
85.0437 4663 68.2862
85.1609 4441 66.6408
85.2781 4612 67.9117
85.3952 4544 67.4092
85.5123 4734 68.8041
85.6294 4924 70.1712
85.7465 5082 71.2881
85.8636 5409 73.5459
85.9806 5552 74.5117
86.0976 5669 75.2928
86.2145 5906 76.8505
86.3315 6185 78.6448
86.4484 5800 76.1577
86.5652 5991 77.4016
86.682 6038 77.7046
86.7988 6083 77.9936
86.9156 6012 77.5371
87.0323 5642 75.1132
87.149 4984 70.5975
87.2657 3778 61.4654
87.3823 3203 56.5951
87.4988 3446 58.7026
87.6154 4487 66.9851
87.7318 5645 75.1332
87.8483 6050 77.7817
87.9647 6287 79.2906
88.081 6171 78.5557
88.1973 6500 80.6226
88.3136 6360 79.7496
88.4298 6183 78.6321
88.546 5923 76.961
88.6621 5870 76.6159
88.7781 5636 75.0733
88.8942 0 1
89.0101 0 1
89.126 0 1
89.2419 0 1
89.3577 0 1
89.4734 0 1
89.5891 0 1
89.7047 0 1
89.8203 0 1
89.9358 0 1
92.3269 0 1
92.4424 0 1
92.558 0 1
92.6736 0 1
92.7893 0 1
92.905 0 1
93.0208 0 1
93.1366 0 1
93.2525 0 1
93.3685 0 1
93.4845 0 1
93.6005 6612 81.3142
93.7167 6633 81.4432
93.8328 6353 79.7057
93.949 6411 80.0687
94.0653 6153 78.4411
94.1816 5971 77.2722
94.2979 5928 76.9935
94.4143 5810 76.2234
94.5307 5833 76.3741
94.6472 6029 77.6466
94.7637 6206 78.7782
94.8803 6447 80.2932
94.9969 6580 81.1172
95.1135 6715 81.9451
95.2302 6985 83.5763
95.3469 7037 83.8868
95.4637 7020 83.7854
95.5805 7053 83.9821
95.6973 7125 84.4097
95.8142 7034 83.8689
95.9311 6914 83.1505
96.048 6607 81.2835
96.1649 6161 78.492
96.2819 5400 73.4847
96.3989 4700 68.5565
96.516 4062 63.7338
96.633 4263 65.2917
96.7501 4819 69.419
96.8673 5817 76.2693
96.9844 6529 80.8022
97.1016 6853 82.7828
97.2188 6757 82.201
97.336 6918 83.1745
97.4532 6795 82.4318
97.5704 6611 81.3081
97.6877 6313 79.4544
97.805 6043 77.7367
97.9223 5922 76.9545
98.0396 5934 77.0325
98.1569 5939 77.0649
98.2743 6156 78.4602
98.3916 6421 80.1311
98.509 6562 81.0062
98.6264 6883 82.9638
98.7438 6896 83.0422
98.8612 6965 83.4566
98.9786 7177 84.7172
99.096 7183 84.7526
99.2134 7131 84.4452
99.3308 7268 85.2526
99.4482 7028 83.8332
99.5656 6953 83.3847
99.6831 6680 81.7313
99.8005 6210 78.8036
99.9179 5388 73.403
100.035 4547 67.4314
100.153 4481 66.9403
100.27 5123 71.5751
100.388 6185 78.6448
100.505 6717 81.9573
100.622 6916 83.1625
100.74 7013 83.7437
100.857 7179 84.729
100.975 7069 84.0773
101.092 6950 83.3667
101.209 6772 82.2922
101.327 6577 81.0987
101.444 6349 79.6806
101.561 6371 79.8185
101.679 6201 78.7464
101.796 6361 79.7559
101.913 6467 80.4177
102.03 6704 81.878
102.148 7080 84.1427
102.265 7054 83.9881
102.382 7509 86.6545
102.499 7425 86.1684
102.616 7394 85.9884
102.733 7594 87.1436
102.851 7592 87.1321
102.968 7559 86.9425
103.085 7525 86.7468
103.202 7053 83.9821
103.319 6721 81.9817
103.436 5774 75.9868
103.552 5082 71.2881
103.669 5046 71.0352
103.786 5611 74.9066
103.903 6431 80.1935
104.02 7226 85.0059
104.137 7528 86.764
104.253 7688 87.6812
104.37 7732 87.9318
104.487 7558 86.9368
104.603 7515 86.6891
104.72 7390 85.9651
104.836 7099 84.2556
104.953 7008 83.7138
105.069 6934 83.2706
105.186 6986 83.5823
105.302 6889 83
105.418 7401 86.0291
105.535 7629 87.3441
105.651 7981 89.3364
105.767 8184 90.4655
105.883 8278 90.9835
105.999 8402 91.6624
106.115 0 1
106.231 0 1
106.347 0 1
106.463 0 1
106.579 0 1
106.694 0 1
106.81 0 1
106.926 0 1
107.041 0 1
107.157 0 1
109.576 0 1
109.692 0 1
109.807 0 1
109.923 0 1
110.039 0 1
110.155 0 1
110.27 0 1
110.386 0 1
110.502 0 1
110.618 7609 87.2296
110.735 7782 88.2156
110.851 8224 90.6863
110.967 8228 90.7083
111.083 8148 90.2663
111.199 8140 90.2219
111.316 8229 90.7138
111.432 8276 90.9725
111.549 8173 90.4046
111.665 7736 87.9545
111.782 7376 85.8836
111.898 6434 80.2122
112.015 5644 75.1266
112.132 5551 74.505
112.248 5852 76.4984
112.365 6844 82.7285
112.482 7058 84.0119
112.599 7858 88.6454
112.716 7819 88.4251
112.832 7591 87.1263
112.949 7671 87.5842
113.066 7601 87.1837
113.183 7613 87.2525
113.3 7193 84.8116
113.417 6996 83.6421
113.534 6931 83.2526
113.652 6765 82.2496
113.769 6742 82.1097
113.886 6974 83.5105
114.003 7102 84.2734
114.12 7388 85.9535
114.238 7525 86.7468
114.355 7864 88.6792
114.472 7754 88.0568
114.589 7805 88.3459
114.707 7879 88.7637
114.824 7973 89.2917
114.942 8009 89.493
115.059 7759 88.0852
115.176 7748 88.0227
115.294 7237 85.0706
115.411 6896 83.0422
115.529 6294 79.3347
115.646 5970 77.2658
115.764 6038 77.7046
115.881 6555 80.963
115.999 7355 85.7613
116.116 7592 87.1321
116.234 7799 88.3119
116.351 7897 88.8651
116.469 7844 88.5664
116.586 7868 88.7017
116.704 7826 88.4647
116.821 7571 87.0115
116.939 7377 85.8895
117.056 6922 83.1986
117.174 6861 82.8312
117.291 6950 83.3667
117.409 7078 84.1309
117.526 7176 84.7113
117.644 7553 86.908
117.761 7658 87.51
117.879 7709 87.8009
117.996 7822 88.4421
118.114 8014 89.5209
118.231 7993 89.4036
118.349 7851 88.6059
118.466 8054 89.7441
118.584 7886 88.8032
118.701 7872 88.7243
118.819 7613 87.2525
118.936 7003 83.6839
119.053 6580 81.1172
119.171 6079 77.9679
119.288 5859 76.5441
119.405 6099 78.0961
119.523 6772 82.2922
119.64 7236 85.0647
119.757 7525 86.7468
119.875 7707 87.7895
119.992 7722 87.8749
120.109 7804 88.3403
120.226 7811 88.3799
120.343 7504 86.6256
120.46 7476 86.4639
120.578 7263 85.2232
120.695 6953 83.3847
120.812 6798 82.45
120.929 6815 82.553
121.046 6838 82.6922
121.163 6942 83.3187
121.279 7276 85.2995
121.396 7531 86.7813
121.513 7798 88.3063
121.63 7865 88.6848
121.747 7878 88.7581
121.863 8083 89.9055
121.98 7910 88.9382
122.097 7973 89.2917
122.213 7785 88.2326
122.33 7769 88.1419
122.446 7552 86.9022
122.563 7217 84.9529
122.679 6773 82.2982
122.795 6286 79.2843
122.912 6108 78.1537
123.028 6385 79.9062
123.144 6547 80.9135
123.26 6714 81.939
123.377 0 1
123.493 0 1
123.609 0 1
123.725 0 1
123.84 0 1
123.956 0 1
124.072 0 1
124.188 0 1
124.303 0 1
124.419 0 1
126.852 0 1
126.968 0 1
127.083 0 1
127.199 0 1
127.315 0 1
127.431 0 1
127.547 0 1
127.663 0 1
127.779 0 1
127.895 0 1
128.011 0 1
128.127 0 1
128.243 0 1
128.359 7210 84.9117
128.476 7841 88.5494
128.592 8109 90.05
128.708 8435 91.8423
128.825 8270 90.9395
128.941 8535 92.3851
129.058 8490 92.1412
129.174 8270 90.9395
129.291 8416 91.7388
129.408 7951 89.1684
129.524 7707 87.7895
129.641 7525 86.7468
129.758 7411 86.0872
129.875 7267 85.2467
129.992 7330 85.6154
130.108 7656 87.4986
130.225 8100 90
130.342 8302 91.1153
130.459 8044 89.6883
130.576 8718 93.3702
130.693 8505 92.2226
130.81 8211 90.6146
130.928 8234 90.7414
131.045 8204 90.5759
131.162 8226 90.6973
131.279 8146 90.2552
131.396 7963 89.2356
131.513 7539 86.8274
131.631 7305 85.4693
131.748 7335 85.6446
131.865 7712 87.818
131.983 7861 88.6623
132.1 8317 91.1976
132.217 8309 91.1537
132.335 8305 91.1318
132.452 8592 92.693
132.57 8564 92.5419
132.687 8534 92.3797
132.804 8547 92.45
132.922 8364 91.4549
133.039 7899 88.8763
133.157 7694 87.7154
133.274 7494 86.5679
133.392 7538 86.8217
133.509 7361 85.7963
133.627 7648 87.4528
133.744 7840 88.5438
133.862 8111 90.0611
133.979 8229 90.7138
134.097 8235 90.7469
134.214 8231 90.7249
134.332 8265 90.912
134.449 8361 91.4385
134.567 8106 90.0333
134.684 8167 90.3715
134.802 7984 89.3532
134.919 8038 89.6549
135.037 7618 87.2812
135.154 7589 87.1149
135.272 7398 86.0116
135.389 7401 86.0291
135.507 7767 88.1306
135.624 8001 89.4483
135.742 8385 91.5696
135.859 8416 91.7388
135.977 8277 90.978
136.094 8459 91.9728
136.211 8306 91.1373
136.329 8280 90.9945
136.446 8221 90.6697
136.564 8165 90.3604
136.681 7726 87.8977
136.798 7628 87.3384
136.915 7365 85.8196
137.033 7254 85.1704
137.15 7364 85.8138
137.267 7388 85.9535
137.384 7811 88.3799
137.502 8026 89.5879
137.619 7926 89.0281
137.736 8234 90.7414
137.853 7986 89.3644
137.97 8155 90.305
138.087 7726 87.8977
138.204 7662 87.5329
138.321 7816 88.4081
138.438 7713 87.8237
138.555 7993 89.4036
138.672 7957 89.202
138.788 7513 86.6776
138.905 7726 87.8977
139.022 7844 88.5664
139.139 8003 89.4595
139.255 7977 89.3141
139.372 8163 90.3493
139.488 8368 91.4768
139.605 8372 91.4986
139.721 8459 91.9728
139.838 8313 91.1757
139.954 8305 91.1318
140.071 8112 90.0666
140.187 8220 90.6642
140.303 7858 88.6454
140.419 7646 87.4414
140.535 7429 86.1916
140.652 7310 85.4985
140.768 0 1
140.884 0 1
141 0 1
141.115 0 1
141.231 0 1
141.347 0 1
141.463 0 1
141.578 0 1
141.694 0 1
144.104 0 1
144.219 0 1
144.335 0 1
144.45 0 1
144.566 0 1
144.682 0 1
144.798 0 1
144.914 0 1
145.03 0 1
145.146 5520 74.2967
145.262 5932 77.0195
145.378 6081 77.9808
145.494 5848 76.4722
145.61 5793 76.1118
145.726 5674 75.326
145.842 5571 74.6391
145.959 5546 74.4715
146.075 5661 75.2396
146.192 5937 77.0519
146.308 5988 77.3822
146.425 6086 78.0128
146.541 6113 78.1857
146.658 5856 76.5245
146.774 6032 77.666
146.891 5891 76.7529
147.008 5804 76.184
147.125 5671 75.306
147.241 5835 76.3872
147.358 6017 77.5693
147.475 5971 77.2722
147.592 5973 77.2852
147.709 6047 77.7625
147.826 6066 77.8845
147.943 6181 78.6193
148.06 6315 79.467
148.177 6412 80.075
148.294 6374 79.8373
148.411 6407 80.0437
148.528 6409 80.0562
148.645 6338 79.6116
148.762 6405 80.0312
148.88 6503 80.6412
148.997 6286 79.2843
149.114 6479 80.4922
149.231 6433 80.206
149.349 6199 78.7337
149.466 6069 77.9038
149.583 6062 77.8588
149.701 5879 76.6746
149.818 5917 76.922
149.935 5878 76.6681
150.053 5957 77.1816
150.17 6202 78.7528
150.287 6266 79.1581
150.405 6372 79.8248
150.522 6020 77.5887
150.64 5991 77.4016
150.757 6015 77.5564
150.875 5913 76.896
150.992 6109 78.1601
151.11 6224 78.8923
151.227 6357 79.7308
151.344 6458 80.3617
151.462 6460 80.3741
151.579 6510 80.6846
151.697 6665 81.6395
151.814 6549 80.9259
151.932 6792 82.4136
152.049 6938 83.2947
152.167 6830 82.6438
152.284 6961 83.4326
152.402 6886 82.9819
152.519 7110 84.3208
152.636 6877 82.9277
152.754 6973 83.5045
152.871 6965 83.4566
152.989 6743 82.1158
153.106 6421 80.1311
153.223 6621 81.3695
153.341 6504 80.6474
153.458 6404 80.025
153.575 6436 80.2247
153.693 6395 79.9687
153.81 6437 80.2309
153.927 6553 80.9506
154.044 6573 81.074
154.162 6442 80.2621
154.279 6345 79.6555
154.396 6468 80.4239
154.513 6578 81.1049
154.63 6863 82.8432
154.747 6947 83.3487
154.864 7040 83.9047
154.981 7329 85.6096
155.098 7390 85.9651
155.215 7445 86.2844
155.332 7480 86.487
155.449 7702 87.761
155.566 7501 86.6083
155.683 7418 86.1278
155.8 7530 86.7756
155.917 7405 86.0523
156.033 7648 87.4528
156.15 0 1
156.267 0 1
156.383 0 1
156.5 0 1
156.617 0 1
156.733 0 1
156.85 0 1
156.966 0 1
157.082 0 1
157.199 0 1
157.315 0 1
157.431 0 1
157.547 0 1
157.664 0 1
157.78 0 1
157.896 0 1
158.012 0 1
158.128 0 1
158.244 0 1
158.359 0 1
158.475 0 1
158.591 0 1
158.706 0 1
