
6.15755 0 1
6.2731 0 1
6.3887 0 1
6.50437 0 1
6.62009 0 1
6.73587 0 1
6.8517 0 1
6.96759 0 1
7.08353 0 1
7.19952 0 1
7.31557 0 1
7.43166 0 1
7.54781 0 1
7.664 0 1
7.78024 0 1
7.89653 0 1
8.01286 0 1
8.12924 0 1
8.24567 0 1
8.36213 0 1
8.47864 0 1
8.59519 0 1
8.71178 0 1
8.82841 0 1
8.94508 0 1
9.06179 0 1
9.17853 0 1
9.29531 0 1
9.41212 0 1
9.52897 0 1
9.64584 0 1
9.76276 0 1
9.8797 0 1
9.99667 0 1
10.1137 0 1
10.2307 0 1
10.3478 0 1
10.4648 0 1
10.5819 0 1
10.6991 0 1
10.8162 0 1
10.9334 0 1
11.0506 0 1
11.1678 0 1
11.285 0 1
11.4023 0 1
11.5196 0 1
11.6369 0 1
11.7542 0 1
11.8715 0 1
11.9888 0 1
12.1062 0 1
12.2235 0 1
12.3409 0 1
12.4582 0 1
12.5756 0 1
12.693 0 1
12.8104 0 1
12.9278 0 1
13.0452 0 1
13.1626 0 1
13.28 0 1
13.3974 0 1
13.5149 0 1
13.6323 0 1
13.7497 0 1
13.8671 0 1
13.9845 0 1
14.1019 0 1
14.2193 0 1
14.3367 0 1
14.4541 0 1
14.5714 0 1
14.6888 0 1
14.8062 0 1
14.9235 0 1
15.0408 4128 64.2495
15.1581 4228 65.0231
15.2755 4518 67.2161
15.3927 4344 65.909
15.51 4256 65.238
15.6273 4269 65.3376
15.7445 4072 63.8122
15.8617 4055 63.6789
15.9789 4099 64.0234
16.0961 3945 62.8092
16.2132 3846 62.0161
16.3304 3875 62.2495
16.4475 3848 62.0322
16.5646 3816 61.7738
16.6816 3751 61.2454
16.7986 3735 61.1146
16.9156 3792 61.5792
17.0326 3874 62.2415
17.1496 3655 60.4566
17.2665 3684 60.696
17.3833 3721 61
17.5002 3787 61.5386
17.617 3736 61.1228
17.7338 3914 62.562
17.8505 3807 61.7009
17.9672 3792 61.5792
18.0839 3524 59.3633
18.2005 3234 56.8683
18.3171 3301 57.4543
18.4337 3556 59.6322
18.5502 3636 60.2993
18.6666 3731 61.0819
18.7831 3663 60.5227
18.8994 3625 60.208
19.0158 3474 58.9406
19.1321 3300 57.4456
19.2483 3182 56.4092
19.3645 3089 55.5788
19.4806 2957 54.3783
19.5967 2663 51.6043
19.7128 2724 52.192
19.8288 2562 50.6162
19.9447 2306 48.0208
20.0606 0 1
20.1764 0 1
20.2922 0 1
20.4079 0 1
20.5236 0 1
20.6392 0 1
20.7548 0 1
20.8702 0 1
23.3078 0 1
23.4233 0 1
23.539 0 1
23.6547 0 1
23.7704 0 1
23.8862 0 1
24.0021 0 1
24.118 0 1
24.234 0 1
24.35 0 1
24.4661 1382 37.1753
24.5822 1649 40.6079
24.6984 1956 44.2267
24.8146 2313 48.0937
24.9309 2737 52.3163
25.0472 2996 54.7357
25.1636 3281 57.28
25.28 3500 59.1608
25.3965 3654 60.4483
25.513 3814 61.7576
25.6296 4037 63.5374
25.7462 4045 63.6003
25.8628 3910 62.53
25.9795 3970 63.0079
26.0962 3937 62.7455
26.213 3868 62.1932
26.3298 3710 60.9098
26.4466 3535 59.4559
26.5635 3481 59
26.6804 3360 57.9655
26.7973 3049 55.2178
26.9143 2985 54.6352
27.0313 3049 55.2178
27.1483 3203 56.5951
27.2653 3407 58.3695
27.3824 3425 58.5235
27.4996 3407 58.3695
27.6167 3480 58.9915
27.7339 3246 56.9737
27.8511 3331 57.7148
27.9683 3313 57.5587
28.0855 3231 56.8419
28.2028 3331 57.7148
28.3201 3348 57.8619
28.4374 3546 59.5483
28.5547 3503 59.1861
28.6721 3555 59.6238
28.7894 3602 60.0167
28.9068 3542 59.5147
29.0242 3503 59.1861
29.1416 3522 59.3464
29.259 3567 59.7244
29.3764 3382 58.155
29.4939 3324 57.6541
29.6113 3419 58.4722
29.7288 3266 57.1489
29.8463 3346 57.8446
29.9638 3307 57.5065
30.0812 3025 55
30.1987 3019 54.9454
30.3162 2857 53.4509
30.4337 2858 53.4603
30.5512 3105 55.7225
30.6687 3282 57.2887
30.7862 3386 58.1893
30.9037 3381 58.1464
31.0212 3459 58.8133
31.1387 3469 58.8982
31.2562 3429 58.5577
31.3737 3321 57.6281
31.4912 3298 57.4282
31.6087 3337 57.7668
31.7262 3298 57.4282
31.8436 3308 57.5152
31.9611 3336 57.7581
32.0785 3230 56.8331
32.1959 3200 56.5685
32.3134 3192 56.4978
32.4308 3172 56.3205
32.5482 3087 55.5608
32.6655 3042 55.1543
32.7829 2988 54.6626
32.9002 3061 55.3263
33.0176 2966 54.461
33.1349 3080 55.4977
33.2522 3012 54.8817
33.3694 2937 54.1941
33.4867 3140 56.0357
33.6039 3003 54.7996
33.7211 2950 54.3139
33.8383 2874 53.6097
33.9554 2793 52.8488
34.0725 2839 53.2823
34.1896 2884 53.7029
34.3067 3062 55.3353
34.4237 3154 56.1605
34.5407 3180 56.3915
34.6577 3245 56.9649
34.7746 3102 55.6956
34.8915 3021 54.9636
35.0084 2945 54.2679
35.1252 2866 53.535
35.242 2807 52.9811
35.3587 2948 54.2955
35.4755 2900 53.8516
35.5921 2924 54.074
35.7088 2944 54.2586
35.8254 2804 52.9528
35.9419 2950 54.3139
36.0584 2897 53.8238
36.1749 2869 53.563
36.2913 2742 52.3641
36.4077 2705 52.0096
36.524 2590 50.892
36.6403 2443 49.4267
36.7565 2336 48.3322
36.8727 2284 47.7912
36.9889 2102 45.8476
37.1049 1953 44.1928
37.221 0 1
37.3369 0 1
37.4529 0 1
37.5687 0 1
37.6845 0 1
37.8003 0 1
37.916 0 1
38.0316 0 1
38.1472 0 1
40.5851 0 1
40.7008 0 1
40.8164 0 1
40.9322 0 1
41.048 0 1
41.1639 0 1
41.2798 0 1
41.3958 0 1
41.5118 0 1
41.6279 0 1
41.744 1278 35.7491
41.8602 1472 38.3667
41.9765 1726 41.5452
42.0928 1849 43
42.2091 2005 44.7772
42.3255 2152 46.3897
42.4419 2222 47.1381
42.5584 2275 47.697
42.675 2143 46.2925
42.7915 2219 47.1063
42.9081 2187 46.7654
43.0248 2336 48.3322
43.1415 2275 47.697
43.2582 2283 47.7807
43.375 2352 48.4974
43.4918 2383 48.816
43.6087 2246 47.392
43.7256 2306 48.0208
43.8425 2176 46.6476
43.9595 2177 46.6583
44.0765 2131 46.1628
44.1935 2105 45.8803
44.3106 2135 46.2061
44.4277 2264 47.5815
44.5448 2311 48.0729
44.6619 2406 49.051
44.7791 2377 48.7545
44.8963 2388 48.8672
45.0136 2405 49.0408
45.1308 2319 48.156
45.2481 2449 49.4874
45.3654 2402 49.0102
45.4827 2398 48.9694
45.6001 2424 49.2341
45.7174 2521 50.2096
45.8348 2454 49.5379
45.9522 2460 49.5984
46.0697 2289 47.8435
46.1871 2283 47.7807
46.3046 2142 46.2817
46.422 2101 45.8367
46.5395 2227 47.1911
46.657 2315 48.1144
46.7745 2309 48.0521
46.892 2307 48.0312
47.0096 2304 48
47.1271 2415 49.1426
47.2446 2380 48.7852
47.3622 2275 47.697
47.4797 2184 46.7333
47.5973 2100 45.8258
47.7149 2178 46.669
47.8324 2106 45.8912
47.95 2116 46
48.0675 2152 46.3897
48.1851 2392 48.9081
48.3027 2314 48.1041
48.4202 2311 48.0729
48.5378 2291 47.8644
48.6554 2268 47.6235
48.7729 2305 48.0104
48.8904 2337 48.3425
49.008 2310 48.0625
49.1255 2348 48.4562
49.243 2339 48.3632
49.3605 2375 48.734
49.478 2205 46.9574
49.5955 2109 45.9239
49.713 2079 45.5961
49.8304 2060 45.3872
49.9479 1918 43.795
50.0653 2043 45.1996
50.1827 2224 47.1593
50.3001 2219 47.1063
50.4175 2200 46.9042
50.5348 2092 45.7384
50.6521 2163 46.5081
50.7694 2208 46.9894
50.8867 2112 45.9565
51.004 2067 45.4643
51.1212 1999 44.7102
51.2384 1980 44.4972
51.3556 2017 44.911
51.4727 2195 46.8508
51.5899 2117 46.0109
51.707 2150 46.3681
51.824 2258 47.5184
51.9411 2208 46.9894
52.0581 2175 46.6369
52.175 2137 46.2277
52.2919 2168 46.5618
52.4088 2228 47.2017
52.5257 2178 46.669
52.6425 2254 47.4763
52.7593 2212 47.0319
52.876 2281 47.7598
52.9927 2216 47.0744
53.1094 2194 46.8402
53.226 2237 47.2969
53.3426 2040 45.1664
53.4591 1953 44.1928
53.5756 2152 46.3897
53.692 2110 45.9347
53.8084 2087 45.6837
53.9248 1984 44.5421
54.0411 1844 42.9418
54.1573 1630 40.3733
54.2735 0 1
54.3896 0 1
54.5057 0 1
54.6217 0 1
54.7377 0 1
54.8537 0 1
54.9695 0 1
55.0853 0 1
55.2011 0 1
55.3168 0 1
55.4324 0 1
57.824 0 1
57.9396 0 1
58.0553 0 1
58.1711 0 1
58.2869 0 1
58.4028 0 1
58.5187 0 1
58.6347 0 1
58.7508 0 1
58.8669 0 1
58.983 59610 244.152
59.0992 80479 283.688
59.2155 105508 324.82
59.3318 135707 368.384
59.4482 174778 418.065
59.5646 217516 466.386
59.681 251391 501.389
59.7975 266765 516.493
59.9141 274658 524.078
60.0306 293644 541.889
60.1473 327259 572.066
60.2639 370584 608.756
60.3807 413290 642.876
60.4974 449008 670.081
60.6142 472413 687.323
60.731 486711 697.647
60.8479 492956 702.108
60.9648 491147 700.819
61.0818 484841 696.305
61.1987 473654 688.225
61.3158 455793 675.124
61.4328 438407 662.123
61.5499 417303 645.99
61.667 393343 627.171
61.7841 363049 602.535
61.9013 328640 573.271
62.0185 291619 540.018
62.1357 257401 507.347
62.253 225677 475.055
62.3702 199453 446.602
62.4875 176608 420.248
62.6049 157829 397.277
62.7222 141280 375.872
62.8396 124803 353.275
62.9569 112165 334.91
63.0743 102129 319.576
63.1918 91071 301.78
63.3092 80022 282.882
63.4267 67703 260.198
63.5441 55904 236.44
63.6616 44486 210.917
63.7791 33985 184.35
63.8966 25529 159.778
64.0142 19031 137.953
64.1317 13327 115.443
64.2492 8812 93.8723
64.3668 6026 77.6273
64.4843 4551 67.4611
64.6019 3605 60.0417
64.7195 3283 57.2975
64.837 3075 55.4527
64.9546 2838 53.2729
65.0722 2785 52.7731
65.1898 2766 52.5928
65.3074 2687 51.8363
65.4249 2690 51.8652
65.5425 2512 50.1199
65.6601 2551 50.5074
65.7777 2427 49.2646
65.8952 2480 49.7996
66.0128 2490 49.8999
66.1304 2533 50.3289
66.2479 2528 50.2792
66.3655 2492 49.9199
66.483 2561 50.6063
66.6005 2528 50.2792
66.718 2531 50.309
66.8355 2515 50.1498
66.953 2497 49.97
67.0705 2286 47.8121
67.1879 2347 48.4458
67.3054 2378 48.7647
67.4228 2348 48.4562
67.5402 2422 49.2138
67.6576 2435 49.3457
67.7749 2446 49.4571
67.8923 2388 48.8672
68.0096 2407 49.0612
68.1269 2518 50.1797
68.2442 2400 48.9898
68.3614 2371 48.6929
68.4787 2351 48.4871
68.5958 2372 48.7032
68.713 2434 49.3356
68.8302 2476 49.7594
68.9473 2369 48.6724
69.0643 2351 48.4871
69.1814 2297 47.927
69.2984 2299 47.9479
69.4154 2318 48.1456
69.5323 2389 48.8774
69.6492 2286 47.8121
69.7661 2361 48.5901
69.8829 2299 47.9479
69.9997 2396 48.949
70.1165 2394 48.9285
70.2332 2193 46.8295
70.3499 2206 46.9681
70.4665 2174 46.6262
70.5831 2194 46.8402
70.6996 1964 44.317
70.8161 1827 42.7434
70.9326 1735 41.6533
71.049 1533 39.1535
71.1653 1388 37.2559
71.2817 1361 36.8917
71.3979 1231 35.0856
71.5141 1191 34.5109
71.6303 1094 33.0757
71.7464 970 31.1448
71.8624 0 1
71.9784 0 1
72.0944 0 1
72.2102 0 1
72.3261 0 1
72.4418 0 1
72.5575 0 1
72.6732 0 1
75.1054 0 1
75.2209 0 1
75.3365 0 1
75.4521 0 1
75.5678 0 1
75.6835 0 1
75.7993 0 1
75.9151 0 1
76.031 0 1
76.147 1381 37.1618
76.263 1571 39.6358
76.3791 1799 42.4146
76.4952 1844 42.9418
76.6113 1921 43.8292
76.7276 2016 44.8999
76.8438 2012 44.8553
76.9601 2065 45.4423
77.0765 1974 44.4297
77.1929 2073 45.5302
77.3093 2042 45.1885
77.4258 2087 45.6837
77.5423 2139 46.2493
77.6589 2106 45.8912
77.7755 2201 46.9148
77.8921 2111 45.9456
78.0088 2170 46.5833
78.1256 2021 44.9555
78.2423 2036 45.1221
78.3591 2052 45.299
78.4759 1947 44.1248
78.5928 1942 44.0681
78.7097 2059 45.3762
78.8266 1927 43.8976
78.9436 2136 46.2169
79.0606 1970 44.3847
79.1776 2023 44.9778
79.2946 2105 45.8803
79.4117 2147 46.3357
79.5288 2136 46.2169
79.6459 2144 46.3033
79.7631 2091 45.7275
79.8802 2043 45.1996
79.9974 2067 45.4643
80.1147 2007 44.7996
80.2319 2042 45.1885
80.3491 1891 43.4856
80.4664 2092 45.7384
80.5837 2100 45.8258
80.701 2095 45.7712
80.8183 2064 45.4313
80.9357 2074 45.5412
81.053 2107 45.9021
81.1704 2043 45.1996
81.2877 2192 46.8188
81.4051 2183 46.7226
81.5225 2162 46.4973
81.6399 2197 46.8722
81.7573 2258 47.5184
81.8747 2093 45.7493
81.9922 2094 45.7602
82.1096 2016 44.8999
82.227 2034 45.0999
82.3444 1993 44.643
82.4619 2046 45.2327
82.5793 2028 45.0333
82.6967 2081 45.618
82.8142 2148 46.3465
82.9316 2157 46.4435
83.049 2132 46.1736
83.1664 2097 45.793
83.2838 2184 46.7333
83.4012 2110 45.9347
83.5186 2144 46.3033
83.636 2204 46.9468
83.7534 2083 45.6399
83.8708 2012 44.8553
83.9881 2009 44.8219
84.1055 1996 44.6766
84.2228 2053 45.31
84.3401 2182 46.7119
84.4575 2152 46.3897
84.5747 2024 44.9889
84.692 2192 46.8188
84.8093 2201 46.9148
84.9265 2242 47.3498
85.0437 2203 46.9361
85.1609 2243 47.3603
85.2781 2279 47.7389
85.3952 2199 46.8935
85.5123 2204 46.9468
85.6294 2169 46.5725
85.7465 2209 47
85.8636 2092 45.7384
85.9806 2084 45.6508
86.0976 2087 45.6837
86.2145 2163 46.5081
86.3315 2207 46.9787
86.4484 2210 47.0106
86.5652 2193 46.8295
86.682 2240 47.3286
86.7988 2146 46.3249
86.9156 2265 47.592
87.0323 2262 47.5605
87.149 2256 47.4974
87.2657 2164 46.5188
87.3823 2062 45.4093
87.4988 1951 44.1701
87.6154 1958 44.2493
87.7318 1923 43.852
87.8483 1905 43.6463
87.9647 1821 42.6732
88.081 1774 42.1189
88.1973 1583 39.7869
88.3136 1546 39.3192
88.4298 1467 38.3014
88.546 1435 37.8814
88.6621 1292 35.9444
88.7781 1165 34.1321
88.8942 0 1
89.0101 0 1
89.126 0 1
89.2419 0 1
89.3577 0 1
89.4734 0 1
89.5891 0 1
89.7047 0 1
89.8203 0 1
89.9358 0 1
92.3269 0 1
92.4424 0 1
92.558 0 1
92.6736 0 1
92.7893 0 1
92.905 0 1
93.0208 0 1
93.1366 0 1
93.2525 0 1
93.3685 0 1
93.4845 0 1
93.6005 1655 40.6817
93.7167 1736 41.6653
93.8328 1875 43.3013
93.949 1987 44.5758
94.0653 2041 45.1774
94.1816 2129 46.1411
94.2979 2117 46.0109
94.4143 2334 48.3115
94.5307 2205 46.9574
94.6472 2211 47.0213
94.7637 2227 47.1911
94.8803 2227 47.1911
94.9969 2155 46.422
95.1135 2101 45.8367
95.2302 2026 45.0111
95.3469 2086 45.6727
95.4637 2176 46.6476
95.5805 2191 46.8081
95.6973 2265 47.592
95.8142 2115 45.9891
95.9311 2105 45.8803
96.048 2170 46.5833
96.1649 2298 47.9375
96.2819 2259 47.5289
96.3989 2257 47.5079
96.516 2189 46.7868
96.633 2166 46.5403
96.7501 2147 46.3357
96.8673 2136 46.2169
96.9844 2102 45.8476
97.1016 2087 45.6837
97.2188 2145 46.3141
97.336 2061 45.3982
97.4532 2056 45.3431
97.5704 2277 47.7179
97.6877 2253 47.4658
97.805 2412 49.1121
97.9223 2473 49.7293
98.0396 2344 48.4149
98.1569 2328 48.2494
98.2743 2244 47.3709
98.3916 2251 47.4447
98.509 2200 46.9042
98.6264 2241 47.3392
98.7438 2154 46.4112
98.8612 2197 46.8722
98.9786 2206 46.9681
99.096 2319 48.156
99.2134 2382 48.8057
99.3308 2311 48.0729
99.4482 2298 47.9375
99.5656 2364 48.621
99.6831 2337 48.3425
99.8005 2355 48.5283
99.9179 2387 48.8569
100.035 2368 48.6621
100.153 2332 48.2908
100.27 2172 46.6047
100.388 2183 46.7226
100.505 2183 46.7226
100.622 2099 45.8148
100.74 2177 46.6583
100.857 2231 47.2335
100.975 2234 47.2652
101.092 2298 47.9375
101.209 2373 48.7134
101.327 2397 48.9592
101.444 2320 48.1664
101.561 2509 50.0899
101.679 2410 49.0918
101.796 2404 49.0306
101.913 2382 48.8057
102.03 2304 48
102.148 2418 49.1732
102.265 2305 48.0104
102.382 2181 46.7012
102.499 2385 48.8365
102.616 2530 50.2991
102.733 2601 51
102.851 2672 51.6914
102.968 2641 51.3907
103.085 2653 51.5073
103.202 2539 50.3885
103.319 2588 50.8724
103.436 2766 52.5928
103.552 2726 52.2111
103.669 2729 52.2398
103.786 2629 51.2738
103.903 2547 50.4678
104.02 2614 51.1273
104.137 2568 50.6754
104.253 2586 50.8527
104.37 2721 52.1632
104.487 2635 51.3323
104.603 2618 51.1664
104.72 2697 51.9326
104.836 2733 52.2781
104.953 2683 51.7977
105.069 2644 51.4198
105.186 2447 49.4672
105.302 2338 48.3529
105.418 2207 46.9787
105.535 2005 44.7772
105.651 1781 42.2019
105.767 1642 40.5216
105.883 1560 39.4968
105.999 1474 38.3927
106.115 0 1
106.231 0 1
106.347 0 1
106.463 0 1
106.579 0 1
106.694 0 1
106.81 0 1
106.926 0 1
107.041 0 1
107.157 0 1
109.576 0 1
109.692 0 1
109.807 0 1
109.923 0 1
110.039 0 1
110.155 0 1
110.27 0 1
110.386 0 1
110.502 0 1
110.618 1844 42.9418
110.735 2130 46.1519
110.851 2479 49.7896
110.967 2982 54.6077
111.083 3441 58.66
111.199 3970 63.0079
111.316 3774 61.4329
111.432 4087 63.9296
111.549 4612 67.9117
111.665 4819 69.419
111.782 4879 69.8498
111.898 4918 70.1285
112.015 4975 70.5337
112.132 5022 70.8661
112.248 4768 69.0507
112.365 4859 69.7065
112.482 4581 67.6831
112.599 4428 66.5432
112.716 4433 66.5808
112.832 4295 65.5362
112.949 4179 64.6452
113.066 4147 64.3972
113.183 3796 61.6117
113.3 3461 58.8303
113.417 3132 55.9643
113.534 2822 53.1225
113.652 2706 52.0192
113.769 2648 51.4587
113.886 2481 49.8096
114.003 2405 49.0408
114.12 2300 47.9583
114.238 2233 47.2546
114.355 2160 46.4758
114.472 1996 44.6766
114.589 1954 44.2041
114.707 1920 43.8178
114.824 2181 46.7012
114.942 2154 46.4112
115.059 2147 46.3357
115.176 2148 46.3465
115.294 2136 46.2169
115.411 2187 46.7654
115.529 2208 46.9894
115.646 2102 45.8476
115.764 2021 44.9555
115.881 1977 44.4635
115.999 1946 44.1135
116.116 1971 44.3959
116.234 1900 43.589
116.351 1840 42.8952
116.469 1935 43.9886
116.586 1940 44.0454
116.704 1876 43.3128
116.821 1844 42.9418
116.939 1956 44.2267
117.056 1977 44.4635
117.174 2027 45.0222
117.291 2027 45.0222
117.409 1990 44.6094
117.526 2085 45.6618
117.644 2052 45.299
117.761 1991 44.6206
117.879 1897 43.5546
117.996 1767 42.0357
118.114 1668 40.8412
118.231 1836 42.8486
118.349 1926 43.8862
118.466 1978 44.4747
118.584 1957 44.238
118.701 1995 44.6654
118.819 1947 44.1248
118.936 2024 44.9889
119.053 1920 43.8178
119.171 1981 44.5084
119.288 1909 43.6921
119.405 1918 43.795
119.523 1830 42.7785
119.64 1852 43.0349
119.757 1728 41.5692
119.875 1774 42.1189
119.992 1754 41.8808
120.109 1826 42.7317
120.226 1736 41.6653
120.343 1822 42.6849
120.46 1756 41.9047
120.578 1752 41.8569
120.695 1893 43.5086
120.812 1845 42.9535
120.929 1885 43.4166
121.046 1900 43.589
121.163 1946 44.1135
121.279 1875 43.3013
121.396 1888 43.4511
121.513 1706 41.3038
121.63 1705 41.2916
121.747 1491 38.6135
121.863 1554 39.4208
121.98 1579 39.7366
122.097 1641 40.5093
122.213 1471 38.3536
122.33 1443 37.9868
122.446 1477 38.4318
122.563 1382 37.1753
122.679 1320 36.3318
122.795 1283 35.819
122.912 1232 35.0999
123.028 1127 33.5708
123.144 980 31.305
123.26 932 30.5287
123.377 0 1
123.493 0 1
123.609 0 1
123.725 0 1
123.84 0 1
123.956 0 1
124.072 0 1
124.188 0 1
124.303 0 1
124.419 0 1
126.852 0 1
126.968 0 1
127.083 0 1
127.199 0 1
127.315 0 1
127.431 0 1
127.547 0 1
127.663 0 1
127.779 0 1
127.895 0 1
128.011 0 1
128.127 0 1
128.243 0 1
128.359 1904 43.6348
128.476 1963 44.3058
128.592 1920 43.8178
128.708 1808 42.5206
128.825 1954 44.2041
128.941 1936 44
129.058 1871 43.2551
129.174 2025 45
129.291 2060 45.3872
129.408 2030 45.0555
129.524 2128 46.1303
129.641 2141 46.2709
129.758 2184 46.7333
129.875 2123 46.076
129.992 2278 47.7284
130.108 2455 49.548
130.225 2464 49.6387
130.342 2491 49.9099
130.459 2485 49.8498
130.576 2534 50.3389
130.693 2347 48.4458
130.81 2276 47.7074
130.928 2543 50.4282
131.045 2602 51.0098
131.162 2875 53.619
131.279 3148 56.107
131.396 3319 57.6108
131.513 3448 58.7197
131.631 3645 60.3738
131.748 3768 61.384
131.865 3752 61.2536
131.983 3841 61.9758
132.1 3874 62.2415
132.217 3867 62.1852
132.335 3995 63.206
132.452 4223 64.9846
132.57 4345 65.9166
132.687 4584 67.7052
132.804 4682 68.4251
132.922 5117 71.5332
133.039 5109 71.4773
133.157 5125 71.5891
133.274 5108 71.4703
133.392 5104 71.4423
133.509 5225 72.2842
133.627 5026 70.8943
133.744 5280 72.6636
133.862 5219 72.2426
133.979 5121 71.5612
134.097 4818 69.4118
134.214 4334 65.8331
134.332 4128 64.2495
134.449 4159 64.4903
134.567 4310 65.6506
134.684 4502 67.0969
134.802 4695 68.5201
134.919 4737 68.8259
135.037 4816 69.3974
135.154 4794 69.2387
135.272 4803 69.3037
135.389 4885 69.8928
135.507 4783 69.1592
135.624 4618 67.9559
135.742 4522 67.2458
135.859 4466 66.8281
135.977 4515 67.1937
136.094 4580 67.6757
136.211 4524 67.2607
136.329 4699 68.5493
136.446 4613 67.9191
136.564 4592 67.7643
136.681 4675 68.374
136.798 4704 68.5857
136.915 4596 67.7938
137.033 4801 69.2892
137.15 4752 68.9348
137.267 4815 69.3902
137.384 4757 68.971
137.502 4699 68.5493
137.619 4564 67.5574
137.736 4416 66.453
137.853 3931 62.6977
137.97 3939 62.7615
138.087 3840 61.9677
138.204 3918 62.5939
138.321 4099 64.0234
138.438 4243 65.1383
138.555 4507 67.1342
138.672 4432 66.5733
138.788 4620 67.9706
138.905 4663 68.2862
139.022 4563 67.55
139.139 4467 66.8356
139.255 4044 63.5925
139.372 3672 60.597
139.488 3313 57.5587
139.605 3292 57.376
139.721 3146 56.0892
139.838 3237 56.8946
139.954 3167 56.2761
140.071 2958 54.3875
140.187 2814 53.0471
140.303 2737 52.3163
140.419 2615 51.1371
140.535 2617 51.1566
140.652 2410 49.0918
140.768 0 1
140.884 0 1
141 0 1
141.115 0 1
141.231 0 1
141.347 0 1
141.463 0 1
141.578 0 1
141.694 0 1
144.104 0 1
144.219 0 1
144.335 0 1
144.45 0 1
144.566 0 1
144.682 0 1
144.798 0 1
144.914 0 1
145.03 0 1
145.146 4055 63.6789
145.262 4272 65.3605
145.378 4399 66.325
145.494 4375 66.1438
145.61 4492 67.0224
145.726 4542 67.3944
145.842 4704 68.5857
145.959 4715 68.6659
146.075 4681 68.4178
146.192 4660 68.2642
146.308 4712 68.644
146.425 4662 68.2788
146.541 4354 65.9848
146.658 4176 64.622
146.774 3993 63.1902
146.891 3987 63.1427
147.008 4278 65.4064
147.125 4357 66.0076
147.241 4668 68.3228
147.358 4899 69.9929
147.475 4950 70.3562
147.592 4938 70.2709
147.709 4979 70.562
147.826 5057 71.1126
147.943 5005 70.746
148.06 4869 69.7782
148.177 4662 68.2788
148.294 4671 68.3447
148.411 4787 69.1881
148.528 4877 69.8355
148.645 4861 69.7209
148.762 4954 70.3847
148.88 4837 69.5485
148.997 5119 71.5472
149.114 4903 70.0214
149.231 4929 70.2068
149.349 4960 70.4273
149.466 4753 68.942
149.583 5065 71.1688
149.701 4912 70.0857
149.818 4881 69.8642
149.935 4878 69.8427
150.053 4798 69.2676
150.17 4335 65.8407
150.287 4063 63.7417
150.405 3813 61.7495
150.522 3935 62.7296
150.64 4098 64.0156
150.757 4240 65.1153
150.875 4333 65.8255
150.992 4338 65.8635
151.11 4281 65.4294
151.227 4345 65.9166
151.344 4330 65.8027
151.462 4238 65.0999
151.579 4141 64.3506
151.697 4197 64.7843
151.814 4110 64.1093
151.932 4058 63.7024
152.049 4173 64.5988
152.167 4209 64.8768
152.284 4358 66.0151
152.402 4328 65.7875
152.519 4444 66.6633
152.636 4344 65.909
152.754 4331 65.8103
152.871 4367 66.0833
152.989 4340 65.8787
153.106 4380 66.1816
153.223 4452 66.7233
153.341 4489 67
153.458 4266 65.3146
153.575 4155 64.4593
153.693 4034 63.5138
153.81 3793 61.5873
153.927 3698 60.8112
154.044 3696 60.7947
154.162 3773 61.4248
154.279 3847 62.0242
154.396 4025 63.4429
154.513 4233 65.0615
154.63 4110 64.1093
154.747 4132 64.2806
154.864 4078 63.8592
154.981 4006 63.293
155.098 3913 62.554
155.215 3907 62.506
155.332 3862 62.145
155.449 3848 62.0322
155.566 3936 62.7375
155.683 4087 63.9296
155.8 4068 63.7809
155.917 4057 63.6946
156.033 4052 63.6553
156.15 0 1
156.267 0 1
156.383 0 1
156.5 0 1
156.617 0 1
156.733 0 1
156.85 0 1
156.966 0 1
157.082 0 1
157.199 0 1
157.315 0 1
157.431 0 1
157.547 0 1
157.664 0 1
157.78 0 1
157.896 0 1
158.012 0 1
158.128 0 1
158.244 0 1
158.359 0 1
158.475 0 1
158.591 0 1
158.706 0 1
