
6.15755 0 1
6.2731 0 1
6.3887 0 1
6.50437 0 1
6.62009 0 1
6.73587 0 1
6.8517 0 1
6.96759 0 1
7.08353 0 1
7.19952 0 1
7.31557 0 1
7.43166 0 1
7.54781 0 1
7.664 0 1
7.78024 0 1
7.89653 0 1
8.01286 0 1
8.12924 0 1
8.24567 0 1
8.36213 0 1
8.47864 0 1
8.59519 0 1
8.71178 0 1
8.82841 0 1
8.94508 0 1
9.06179 0 1
9.17853 0 1
9.29531 0 1
9.41212 0 1
9.52897 0 1
9.64584 0 1
9.76276 0 1
9.8797 0 1
9.99667 0 1
10.1137 0 1
10.2307 0 1
10.3478 0 1
10.4648 0 1
10.5819 0 1
10.6991 0 1
10.8162 0 1
10.9334 0 1
11.0506 0 1
11.1678 0 1
11.285 0 1
11.4023 0 1
11.5196 0 1
11.6369 0 1
11.7542 0 1
11.8715 0 1
11.9888 0 1
12.1062 0 1
12.2235 0 1
12.3409 0 1
12.4582 0 1
12.5756 0 1
12.693 0 1
12.8104 0 1
12.9278 0 1
13.0452 0 1
13.1626 0 1
13.28 0 1
13.3974 0 1
13.5149 0 1
13.6323 0 1
13.7497 0 1
13.8671 0 1
13.9845 0 1
14.1019 0 1
14.2193 0 1
14.3367 0 1
14.4541 0 1
14.5714 0 1
14.6888 0 1
14.8062 0 1
14.9235 0 1
15.0408 0 0
15.1581 0 0
15.2755 0 0
15.3927 0 0
15.51 0 0
15.6273 0 0
15.7445 0 0
15.8617 0 0
15.9789 0 0
16.0961 0 0
16.2132 0 0
16.3304 0 0
16.4475 0 0
16.5646 0 0
16.6816 0 0
16.7986 0 0
16.9156 0 0
17.0326 0 0
17.1496 0 0
17.2665 0 0
17.3833 0 0
17.5002 0 0
17.617 0 0
17.7338 0 0
17.8505 0 0
17.9672 0 0
18.0839 0 0
18.2005 0 0
18.3171 0 0
18.4337 0 0
18.5502 0 0
18.6666 0 0
18.7831 0 0
18.8994 0 0
19.0158 0 0
19.1321 0 0
19.2483 0 0
19.3645 0 0
19.4806 0 0
19.5967 0 0
19.7128 0 0
19.8288 0 0
19.9447 0 0
20.0606 0 1
20.1764 0 1
20.2922 0 1
20.4079 0 1
20.5236 0 1
20.6392 0 1
20.7548 0 1
20.8702 0 1
23.3078 0 1
23.4233 0 1
23.539 0 1
23.6547 0 1
23.7704 0 1
23.8862 0 1
24.0021 0 1
24.118 0 1
24.234 0 1
24.35 0 1
24.4661 25964 161.133
24.5822 25303 159.069
24.6984 25403 159.383
24.8146 25167 158.641
24.9309 24711 157.197
25.0472 24314 155.929
25.1636 24120 155.306
25.28 24891 157.769
25.3965 26119 161.614
25.513 27315 165.273
25.6296 28039 167.448
25.7462 29279 171.111
25.8628 30369 174.267
25.9795 30478 174.579
26.0962 30789 175.468
26.213 30857 175.662
26.3298 30436 174.459
26.4466 30663 175.109
26.5635 30287 174.032
26.6804 30034 173.303
26.7973 29795 172.612
26.9143 30073 173.416
27.0313 29507 171.776
27.1483 30344 174.195
27.2653 30539 174.754
27.3824 30748 175.351
27.4996 30616 174.974
27.6167 30609 174.954
27.7339 29792 172.604
27.8511 28740 169.529
27.9683 28202 167.935
28.0855 27522 165.898
28.2028 26802 163.713
28.3201 26463 162.675
28.4374 25245 158.887
28.5547 24454 156.378
28.6721 23971 154.826
28.7894 24519 156.585
28.9068 24874 157.715
29.0242 26341 162.299
29.1416 26830 163.799
29.259 27995 167.317
29.3764 29093 170.567
29.4939 29950 173.061
29.6113 30195 173.767
29.7288 30228 173.862
29.8463 30589 174.897
29.9638 30563 174.823
30.0812 30464 174.539
30.1987 30496 174.631
30.3162 29973 173.127
30.4337 29911 172.948
30.5512 30165 173.681
30.6687 30492 174.62
30.7862 30208 173.804
30.9037 31219 176.689
31.0212 31500 177.482
31.1387 30962 175.96
31.2562 30612 174.963
31.3737 30123 173.56
31.4912 29287 171.134
31.6087 29003 170.303
31.7262 28324 168.297
31.8436 27663 166.322
31.9611 26799 163.704
32.0785 26228 161.951
32.1959 25517 159.74
32.3134 25455 159.546
32.4308 25575 159.922
32.5482 26864 163.902
32.6655 27715 166.478
32.7829 28532 168.914
32.9002 29679 172.276
33.0176 30310 174.098
33.1349 30440 174.471
33.2522 30469 174.554
33.3694 31250 176.777
33.4867 30996 176.057
33.6039 31458 177.364
33.7211 31322 176.98
33.8383 30822 175.562
33.9554 30500 174.642
34.0725 29829 172.711
34.1896 30163 173.675
34.3067 30326 174.144
34.4237 30690 175.186
34.5407 31323 176.983
34.6577 31260 176.805
34.7746 31342 177.037
34.8915 30911 175.815
35.0084 30646 175.06
35.1252 29813 172.664
35.242 29585 172.003
35.3587 28953 170.156
35.4755 28388 168.487
35.5921 27676 166.361
35.7088 26704 163.414
35.8254 26040 161.369
35.9419 25548 159.837
36.0584 25148 158.581
36.1749 25676 160.237
36.2913 26691 163.374
36.4077 27148 164.767
36.524 28180 167.869
36.6403 29296 171.161
36.7565 30061 173.381
36.8727 30510 174.671
36.9889 30657 175.091
37.1049 30901 175.787
37.221 0 1
37.3369 0 1
37.4529 0 1
37.5687 0 1
37.6845 0 1
37.8003 0 1
37.916 0 1
38.0316 0 1
38.1472 0 1
40.5851 0 1
40.7008 0 1
40.8164 0 1
40.9322 0 1
41.048 0 1
41.1639 0 1
41.2798 0 1
41.3958 0 1
41.5118 0 1
41.6279 0 1
41.744 25509 159.715
41.8602 27288 165.191
41.9765 28251 168.08
42.0928 28774 169.629
42.2091 29079 170.526
42.3255 29391 171.438
42.4419 29388 171.429
42.5584 28910 170.029
42.675 28135 167.735
42.7915 27423 165.599
42.9081 26921 164.076
43.0248 26982 164.262
43.1415 27147 164.763
43.2582 27772 166.649
43.375 28015 167.377
43.4918 28461 168.704
43.6087 28228 168.012
43.7256 27549 165.979
43.8425 27155 164.788
43.9595 26492 162.764
44.0765 25859 160.807
44.1935 25697 160.303
44.3106 24581 156.783
44.4277 23857 154.457
44.5448 22997 151.648
44.6619 21655 147.156
44.7791 20735 143.997
44.8963 20903 144.579
45.0136 20851 144.399
45.1308 21522 146.704
45.2481 21967 148.213
45.3654 22716 150.718
45.4827 24001 154.923
45.6001 24085 155.193
45.7174 23443 153.111
45.8348 23677 153.873
45.9522 23712 153.987
46.0697 23628 153.714
46.1871 22610 150.366
46.3046 22163 148.872
46.422 21149 145.427
46.5395 21163 145.475
46.657 21338 146.075
46.7745 21776 147.567
46.892 21981 148.26
47.0096 22301 149.335
47.1271 22443 149.81
47.2446 22222 149.07
47.3622 21716 147.363
47.4797 21282 145.884
47.5973 20927 144.662
47.7149 20361 142.692
47.8324 19616 140.057
47.95 18866 137.354
48.0675 18853 137.306
48.1851 17803 133.428
48.3027 16790 129.576
48.4202 16623 128.93
48.5378 16690 129.19
48.6554 17124 130.859
48.7729 17956 134
48.8904 18662 136.609
49.008 19595 139.982
49.1255 19953 141.255
49.243 20225 142.215
49.3605 20239 142.264
49.478 20402 142.836
49.5955 19873 140.972
49.713 19029 137.946
49.8304 18682 136.682
49.9479 18437 135.783
50.0653 18644 136.543
50.1827 19192 138.535
50.3001 19717 140.417
50.4175 20533 143.293
50.5348 21424 146.369
50.6521 21514 146.677
50.7694 22265 149.215
50.8867 22140 148.795
51.004 22690 150.632
51.1212 22344 149.479
51.2384 22925 151.41
51.3556 22671 150.569
51.4727 22323 149.409
51.5899 21632 147.078
51.707 20473 143.084
51.824 19891 141.035
51.9411 19693 140.332
52.0581 20073 141.679
52.175 20815 144.274
52.2919 21931 148.091
52.4088 23082 151.928
52.5257 24191 155.535
52.6425 24686 157.118
52.7593 24788 157.442
52.876 25034 158.221
52.9927 25307 159.082
53.1094 25612 160.037
53.226 25429 159.465
53.3426 24826 157.563
53.4591 24245 155.708
53.5756 23881 154.535
53.692 24267 155.779
53.8084 24327 155.971
53.9248 25449 159.527
54.0411 25983 161.192
54.1573 26991 164.289
54.2735 0 1
54.3896 0 1
54.5057 0 1
54.6217 0 1
54.7377 0 1
54.8537 0 1
54.9695 0 1
55.0853 0 1
55.2011 0 1
55.3168 0 1
55.4324 0 1
57.824 0 1
57.9396 0 1
58.0553 0 1
58.1711 0 1
58.2869 0 1
58.4028 0 1
58.5187 0 1
58.6347 0 1
58.7508 0 1
58.8669 0 1
58.983 27378 165.463
59.0992 28841 169.826
59.2155 30049 173.346
59.3318 31196 176.624
59.4482 32124 179.232
59.5646 31869 178.519
59.681 31725 178.115
59.7975 32058 179.047
59.9141 31210 176.664
60.0306 30310 174.098
60.1473 29434 171.563
60.2639 28366 168.422
60.3807 26502 162.794
60.4974 25266 158.953
60.6142 24046 155.068
60.731 23803 154.282
60.8479 24047 155.071
60.9648 25128 158.518
61.0818 26641 163.221
61.1987 27375 165.454
61.3158 28073 167.55
61.4328 28185 167.884
61.5499 28258 168.101
61.667 28194 167.911
61.7841 27457 165.702
61.9013 27011 164.35
62.0185 26261 162.052
62.1357 25898 160.929
62.253 26181 161.805
62.3702 26782 163.652
62.4875 27406 165.548
62.6049 28615 169.16
62.7222 29140 170.704
62.8396 29554 171.913
62.9569 30181 173.727
63.0743 30116 173.54
63.1918 29834 172.725
63.3092 29676 172.267
63.4267 28727 169.49
63.5441 27858 166.907
63.6616 27176 164.851
63.7791 25577 159.928
63.8966 24063 155.123
64.0142 22583 150.276
64.1317 21859 147.848
64.2492 21330 146.048
64.3668 22081 148.597
64.4843 22491 149.97
64.6019 24132 155.345
64.7195 25382 159.317
64.837 25885 160.888
64.9546 26286 162.13
65.0722 26409 162.508
65.1898 25734 160.418
65.3074 25702 160.318
65.4249 24651 157.006
65.5425 23983 154.864
65.6601 23212 152.355
65.7777 23091 151.957
65.8952 23896 154.583
66.0128 24809 157.509
66.1304 25778 160.555
66.2479 26395 162.465
66.3655 27358 165.403
66.483 27929 167.12
66.6005 28541 168.941
66.718 28224 168
66.8355 28142 167.756
66.953 27946 167.171
67.0705 27187 164.885
67.1879 26354 162.339
67.3054 25273 158.975
67.4228 24324 155.962
67.5402 22254 149.178
67.6576 20313 142.524
67.7749 19673 140.26
67.8923 19762 140.577
68.0096 20572 143.429
68.1269 21833 147.76
68.2442 23855 154.451
68.3614 24878 157.728
68.4787 25210 158.777
68.5958 25296 159.047
68.713 25771 160.533
68.8302 25571 159.909
68.9473 25144 158.569
69.0643 24323 155.958
69.1814 23628 153.714
69.2984 22969 151.555
69.4154 22849 151.159
69.5323 23721 154.016
69.6492 25031 158.212
69.7661 26322 162.241
69.8829 27853 166.892
69.9997 28462 168.707
70.1165 28902 170.006
70.2332 29280 171.114
70.3499 28826 169.782
70.4665 29201 170.883
70.5831 28884 169.953
70.6996 27669 166.34
70.8161 27004 164.329
70.9326 26057 161.422
71.049 24245 155.708
71.1653 22488 149.96
71.2817 20401 142.832
71.3979 18928 137.579
71.5141 18498 136.007
71.6303 18449 135.827
71.7464 17449 132.095
71.8624 0 1
71.9784 0 1
72.0944 0 1
72.2102 0 1
72.3261 0 1
72.4418 0 1
72.5575 0 1
72.6732 0 1
75.1054 0 1
75.2209 0 1
75.3365 0 1
75.4521 0 1
75.5678 0 1
75.6835 0 1
75.7993 0 1
75.9151 0 1
76.031 0 1
76.147 23071 151.891
76.263 24381 156.144
76.3791 24264 155.769
76.4952 22690 150.632
76.6113 20588 143.485
76.7276 19144 138.362
76.8438 18783 137.051
76.9601 19120 138.275
77.0765 20130 141.88
77.1929 21767 147.536
77.3093 23963 154.8
77.4258 25146 158.575
77.5423 25216 158.795
77.6589 25310 159.091
77.7755 25216 158.795
77.8921 24814 157.525
78.0088 23606 153.642
78.1256 22488 149.96
78.2423 21032 145.024
78.3591 20475 143.091
78.4759 20880 144.499
78.5928 21934 148.101
78.7097 23499 153.294
78.8266 25113 158.471
78.9436 26721 163.466
79.0606 27177 164.854
79.1776 27740 166.553
79.2946 28034 167.434
79.4117 27962 167.218
79.5288 27901 167.036
79.6459 27588 166.096
79.7631 26195 161.849
79.8802 25551 159.847
79.9974 23893 154.574
80.1147 22392 149.64
80.2319 20582 143.464
80.3491 18410 135.683
80.4664 18126 134.633
80.5837 18479 135.937
80.701 19568 139.886
80.8183 21263 145.818
80.9357 22740 150.798
81.053 23949 154.755
81.1704 23692 153.922
81.2877 23720 154.013
81.4051 23554 153.473
81.5225 23090 151.954
81.6399 22089 148.624
81.7573 21159 145.461
81.8747 19620 140.071
81.9922 19019 137.909
82.1096 19061 138.062
82.227 20233 142.243
82.3444 21879 147.916
82.4619 23437 153.091
82.5793 24556 156.704
82.6967 24365 156.093
82.8142 25636 160.112
82.9316 25381 159.314
83.049 25644 160.137
83.1664 25411 159.408
83.2838 24540 156.652
83.4012 23505 153.313
83.5186 22686 150.619
83.636 21545 146.782
83.7534 20562 143.395
83.8708 18553 136.209
83.9881 17050 130.576
84.1055 16540 128.608
84.2228 16808 129.646
84.3401 17730 133.154
84.4575 19195 138.546
84.5747 21604 146.983
84.692 22750 150.831
84.8093 23035 151.773
84.9265 22974 151.572
85.0437 22353 149.509
85.1609 21573 146.877
85.2781 20433 142.944
85.3952 19241 138.712
85.5123 18133 134.659
85.6294 18139 134.681
85.7465 19321 139
85.8636 21441 146.427
85.9806 23039 151.786
86.0976 25086 158.386
86.2145 26150 161.71
86.3315 26608 163.12
86.4484 27949 167.18
86.5652 28066 167.529
86.682 28201 167.932
86.7988 27929 167.12
86.9156 26838 163.823
87.0323 26125 161.632
87.149 24935 157.908
87.2657 23737 154.068
87.3823 22109 148.691
87.4988 20139 141.912
87.6154 19182 138.499
87.7318 19937 141.198
87.8483 20933 144.682
87.9647 22800 150.997
88.081 24587 156.802
88.1973 26576 163.021
88.3136 26686 163.359
88.4298 26404 162.493
88.546 25470 159.593
88.6621 25135 158.54
88.7781 23669 153.847
88.8942 0 1
89.0101 0 1
89.126 0 1
89.2419 0 1
89.3577 0 1
89.4734 0 1
89.5891 0 1
89.7047 0 1
89.8203 0 1
89.9358 0 1
92.3269 0 1
92.4424 0 1
92.558 0 1
92.6736 0 1
92.7893 0 1
92.905 0 1
93.0208 0 1
93.1366 0 1
93.2525 0 1
93.3685 0 1
93.4845 0 1
93.6005 24747 157.312
93.7167 25620 160.062
93.8328 25956 161.109
93.949 25751 160.471
94.0653 25341 159.189
94.1816 24661 157.038
94.2979 23224 152.394
94.4143 21934 148.101
94.5307 21144 145.41
94.6472 20723 143.955
94.7637 21573 146.877
94.8803 23129 152.082
94.9969 25086 158.386
95.1135 26816 163.756
95.2302 28389 168.49
95.3469 29313 171.21
95.4637 30048 173.344
95.5805 30653 175.08
95.6973 30789 175.468
95.8142 30887 175.747
95.9311 30099 173.491
96.048 29968 173.113
96.1649 28299 168.223
96.2819 27063 164.508
96.3989 25773 160.54
96.516 24262 155.763
96.633 22633 150.443
96.7501 21593 146.946
96.8673 21566 146.854
96.9844 22315 149.382
97.1016 23793 154.25
97.2188 25552 159.85
97.336 26718 163.456
97.4532 27666 166.331
97.5704 27782 166.679
97.6877 27080 164.56
97.805 25288 159.022
97.9223 24237 155.682
98.0396 22611 150.37
98.1569 21307 145.969
98.2743 20556 143.374
98.3916 21168 145.492
98.509 22803 151.007
98.6264 24555 156.7
98.7438 26694 163.383
98.8612 28541 168.941
98.9786 30012 173.24
99.096 30893 175.764
99.2134 31127 176.428
99.3308 31438 177.308
99.4482 31511 177.513
99.5656 30363 174.25
99.6831 29763 172.52
99.8005 28664 169.304
99.9179 27196 164.912
100.035 26023 161.316
100.153 24591 156.815
100.27 23158 152.178
100.388 22322 149.405
100.505 23132 152.092
100.622 24399 156.202
100.74 25892 160.91
100.857 27393 165.508
100.975 28255 168.092
101.092 28796 169.694
101.209 28062 167.517
101.327 27512 165.867
101.444 26256 162.037
101.561 24475 156.445
101.679 22829 151.093
101.796 21573 146.877
101.913 21474 146.54
102.03 22695 150.649
102.148 25277 158.987
102.265 30383 174.307
102.382 28246 168.065
102.499 31471 177.401
102.616 32874 181.312
102.733 33279 182.425
102.851 33556 183.183
102.968 33455 182.907
103.085 33188 182.176
103.202 31809 178.351
103.319 30748 175.351
103.436 29340 171.289
103.552 28179 167.866
103.669 26525 162.865
103.786 24735 157.274
103.903 24584 156.793
104.02 25234 158.852
104.137 26620 163.156
104.253 28513 168.858
104.37 28803 169.714
104.487 30904 175.795
104.603 30884 175.738
104.72 30462 174.534
104.836 29363 171.356
104.953 27619 166.19
105.069 25718 160.368
105.186 24140 155.371
105.302 23085 151.937
105.418 23180 152.25
105.535 25208 158.77
105.651 28075 167.556
105.767 31321 176.977
105.883 33383 182.71
105.999 34883 186.77
106.115 0 1
106.231 0 1
106.347 0 1
106.463 0 1
106.579 0 1
106.694 0 1
106.81 0 1
106.926 0 1
107.041 0 1
107.157 0 1
109.576 0 1
109.692 0 1
109.807 0 1
109.923 0 1
110.039 0 1
110.155 0 1
110.27 0 1
110.386 0 1
110.502 0 1
110.618 24861 157.674
110.735 27818 166.787
110.851 30463 174.537
110.967 32525 180.347
111.083 33308 182.505
111.199 33654 183.45
111.316 34421 185.529
111.432 34388 185.44
111.549 34194 184.916
111.665 33840 183.957
111.782 32034 178.98
111.898 30992 176.045
112.015 29804 172.638
112.132 28194 167.911
112.248 26529 162.877
112.365 25773 160.54
112.482 25953 161.099
112.599 26314 162.216
112.716 27673 166.352
112.832 28900 170
112.949 29923 172.983
113.066 29884 172.87
113.183 29665 172.235
113.3 29209 170.906
113.417 27637 166.244
113.534 25971 161.155
113.652 23745 154.094
113.769 23034 151.77
113.886 21985 148.273
114.003 22124 148.741
114.12 24756 157.34
114.238 27641 166.256
114.355 29771 172.543
114.472 32909 181.408
114.589 30477 174.577
114.707 32396 179.989
114.824 32939 181.491
114.942 32841 181.221
115.059 32666 180.737
115.176 32418 180.05
115.294 31456 177.358
115.411 30047 173.341
115.529 28921 170.062
115.646 27590 166.102
115.764 26684 163.352
115.881 25566 159.894
115.999 25287 159.019
116.116 25634 160.106
116.234 26411 162.515
116.351 27448 165.674
116.469 28115 167.675
116.586 28362 168.41
116.704 28500 168.819
116.821 27829 166.82
116.939 27130 164.712
117.056 25570 159.906
117.174 24029 155.013
117.291 22746 150.818
117.409 21762 147.519
117.526 21679 147.238
117.644 23009 151.687
117.761 25526 159.769
117.879 27795 166.718
117.996 29353 171.327
118.114 30712 175.248
118.231 31368 177.11
118.349 31535 177.581
118.466 31450 177.341
118.584 31482 177.432
118.701 31555 177.637
118.819 30819 175.553
118.936 29582 171.994
119.053 28934 170.1
119.171 27909 167.06
119.288 26860 163.89
119.405 25846 160.767
119.523 25128 158.518
119.64 25080 158.367
119.757 25175 158.666
119.875 26008 161.27
119.992 26587 163.055
120.109 26924 164.085
120.226 27154 164.785
120.343 27003 164.326
120.46 26907 164.034
120.578 26328 162.259
120.695 24822 157.55
120.812 23332 152.748
120.929 22166 148.883
121.046 21861 147.855
121.163 21679 147.238
121.279 22146 148.815
121.396 24352 156.051
121.513 26615 163.141
121.63 28464 168.713
121.747 29812 172.662
121.863 29920 172.974
121.98 30257 173.945
122.097 31108 176.375
122.213 30751 175.36
122.33 30451 174.502
122.446 29669 172.247
122.563 28648 169.257
122.679 27998 167.326
122.795 27470 165.741
122.912 26428 162.567
123.028 25141 158.559
123.144 24670 157.067
123.26 24065 155.129
123.377 0 1
123.493 0 1
123.609 0 1
123.725 0 1
123.84 0 1
123.956 0 1
124.072 0 1
124.188 0 1
124.303 0 1
124.419 0 1
126.852 0 1
126.968 0 1
127.083 0 1
127.199 0 1
127.315 0 1
127.431 0 1
127.547 0 1
127.663 0 1
127.779 0 1
127.895 0 1
128.011 0 1
128.127 0 1
128.243 0 1
128.359 28154 167.792
128.476 27802 166.739
128.592 27808 166.757
128.708 28704 169.423
128.825 29110 170.617
128.941 29712 172.372
129.058 30085 173.45
129.174 29877 172.85
129.291 30067 173.398
129.408 29474 171.68
129.524 28849 169.85
129.641 27739 166.55
129.758 26139 161.676
129.875 24691 157.134
129.992 23984 154.868
130.108 23891 154.567
130.225 25215 158.792
130.342 27149 164.77
130.459 29360 171.348
130.576 31770 178.241
130.693 31744 178.168
130.81 32232 179.533
130.928 32327 179.797
131.045 32454 180.15
131.162 32741 180.945
131.279 32733 180.923
131.396 32465 180.18
131.513 31956 178.762
131.631 31095 176.338
131.748 30508 174.665
131.865 29989 173.173
131.983 29574 171.971
132.1 29160 170.763
132.217 29825 172.699
132.335 30168 173.689
132.452 30298 174.063
132.57 30799 175.496
132.687 29752 172.488
132.804 31769 178.239
132.922 30244 173.908
133.039 29802 172.633
133.157 28760 169.588
133.274 27090 164.59
133.392 25695 160.297
133.509 24621 156.911
133.627 24413 156.247
133.744 24823 157.553
133.862 27185 164.879
133.979 29333 171.269
134.097 30941 175.901
134.214 31785 178.283
134.332 31644 177.888
134.449 32481 180.225
134.567 32586 180.516
134.684 32923 181.447
134.802 32674 180.76
134.919 32917 181.43
135.037 32657 180.712
135.154 32062 179.059
135.272 31116 176.397
135.389 31095 176.338
135.507 30325 174.141
135.624 29973 173.127
135.742 30290 174.04
135.859 30660 175.1
135.977 31051 176.213
136.094 31290 176.89
136.211 31311 176.949
136.329 31697 178.037
136.446 31433 177.294
136.564 30856 175.659
136.681 29951 173.064
136.798 28390 168.493
136.915 27140 164.742
137.033 25929 161.025
137.15 25183 158.692
137.267 24705 157.178
137.384 25431 159.471
137.502 27509 165.858
137.619 29212 170.915
137.736 30380 174.299
137.853 30851 175.645
137.97 32036 178.986
138.087 31516 177.527
138.204 32818 181.157
138.321 32829 181.188
138.438 32983 181.612
138.555 34225 185
138.672 33621 183.36
138.788 33263 182.381
138.905 33142 182.049
139.022 32678 180.771
139.139 32241 179.558
139.255 32205 179.458
139.372 32495 180.264
139.488 32841 181.221
139.605 33190 182.181
139.721 33376 182.691
139.838 33767 183.758
139.954 33585 183.262
140.071 33289 182.453
140.187 32981 181.607
140.303 31597 177.755
140.419 29875 172.844
140.535 28561 169
140.652 26800 163.707
140.768 0 1
140.884 0 1
141 0 1
141.115 0 1
141.231 0 1
141.347 0 1
141.463 0 1
141.578 0 1
141.694 0 1
144.104 0 1
144.219 0 1
144.335 0 1
144.45 0 1
144.566 0 1
144.682 0 1
144.798 0 1
144.914 0 1
145.03 0 1
145.146 28873 169.921
145.262 29080 170.529
145.378 28369 168.431
145.494 26681 163.343
145.61 25161 158.622
145.726 24839 157.604
145.842 24265 155.772
145.959 23929 154.69
146.075 24472 156.435
146.192 26512 162.825
146.308 27597 166.123
146.425 28110 167.66
146.541 29164 170.775
146.658 29373 171.386
146.774 29695 172.322
146.891 30157 173.658
147.008 30611 174.96
147.125 31390 177.172
147.241 31396 177.189
147.358 30968 175.977
147.475 30492 174.62
147.592 30177 173.715
147.709 29957 173.081
147.826 29525 171.828
147.943 29485 171.712
148.06 28920 170.059
148.177 30054 173.361
148.294 29876 172.847
148.411 29573 171.968
148.528 29463 171.648
148.645 29443 171.59
148.762 29169 170.789
148.88 28486 168.778
148.997 27278 165.161
149.114 26933 164.113
149.231 25311 159.094
149.349 24578 156.774
149.466 23260 152.512
149.583 23182 152.256
149.701 23565 153.509
149.818 25071 158.338
149.935 26037 161.36
150.053 26980 164.256
150.17 27422 165.596
150.287 28126 167.708
150.405 28735 169.514
150.522 29062 170.476
150.64 29598 172.041
150.757 30150 173.638
150.875 30377 174.29
150.992 29886 172.876
151.11 29815 172.67
151.227 29603 172.055
151.344 29467 171.66
151.462 28543 168.947
151.579 29155 170.748
151.697 28550 168.967
151.814 29270 171.085
151.932 29581 171.991
152.049 29058 170.464
152.167 29384 171.418
152.284 29244 171.009
152.402 28921 170.062
152.519 28174 167.851
152.636 27035 164.423
152.754 26141 161.682
152.871 25044 158.253
152.989 24266 155.775
153.106 23552 153.467
153.223 23364 152.853
153.341 24119 155.303
153.458 25394 159.355
153.575 26074 161.474
153.693 27188 164.888
153.81 27904 167.045
153.927 28690 169.381
154.044 29035 170.397
154.162 29992 173.182
154.279 30642 175.049
154.396 31199 176.632
154.513 31394 177.184
154.63 31325 176.989
154.747 31433 177.294
154.864 30672 175.134
154.981 30808 175.522
155.098 30216 173.828
155.215 30062 173.384
155.332 30357 174.233
155.449 30176 173.712
155.566 30427 174.433
155.683 30511 174.674
155.8 30248 173.92
155.917 30278 174.006
156.033 29969 173.116
156.15 0 1
156.267 0 1
156.383 0 1
156.5 0 1
156.617 0 1
156.733 0 1
156.85 0 1
156.966 0 1
157.082 0 1
157.199 0 1
157.315 0 1
157.431 0 1
157.547 0 1
157.664 0 1
157.78 0 1
157.896 0 1
158.012 0 1
158.128 0 1
158.244 0 1
158.359 0 1
158.475 0 1
158.591 0 1
158.706 0 1
