
6.15755 0 1
6.2731 0 1
6.3887 0 1
6.50437 0 1
6.62009 0 1
6.73587 0 1
6.8517 0 1
6.96759 0 1
7.08353 0 1
7.19952 0 1
7.31557 0 1
7.43166 0 1
7.54781 0 1
7.664 0 1
7.78024 0 1
7.89653 0 1
8.01286 0 1
8.12924 0 1
8.24567 0 1
8.36213 0 1
8.47864 0 1
8.59519 0 1
8.71178 0 1
8.82841 0 1
8.94508 0 1
9.06179 0 1
9.17853 0 1
9.29531 0 1
9.41212 0 1
9.52897 0 1
9.64584 0 1
9.76276 0 1
9.8797 0 1
9.99667 0 1
10.1137 0 1
10.2307 0 1
10.3478 0 1
10.4648 0 1
10.5819 0 1
10.6991 0 1
10.8162 0 1
10.9334 0 1
11.0506 0 1
11.1678 0 1
11.285 0 1
11.4023 0 1
11.5196 0 1
11.6369 0 1
11.7542 0 1
11.8715 0 1
11.9888 0 1
12.1062 0 1
12.2235 0 1
12.3409 0 1
12.4582 0 1
12.5756 0 1
12.693 0 1
12.8104 0 1
12.9278 0 1
13.0452 0 1
13.1626 0 1
13.28 0 1
13.3974 0 1
13.5149 0 1
13.6323 0 1
13.7497 0 1
13.8671 0 1
13.9845 0 1
14.1019 0 1
14.2193 0 1
14.3367 0 1
14.4541 0 1
14.5714 0 1
14.6888 0 1
14.8062 0 1
14.9235 0 1
15.0408 0 0
15.1581 0 0
15.2755 0 0
15.3927 0 0
15.51 0 0
15.6273 0 0
15.7445 0 0
15.8617 0 0
15.9789 0 0
16.0961 0 0
16.2132 0 0
16.3304 0 0
16.4475 0 0
16.5646 0 0
16.6816 0 0
16.7986 0 0
16.9156 0 0
17.0326 0 0
17.1496 0 0
17.2665 0 0
17.3833 0 0
17.5002 0 0
17.617 0 0
17.7338 0 0
17.8505 0 0
17.9672 0 0
18.0839 0 0
18.2005 0 0
18.3171 0 0
18.4337 0 0
18.5502 0 0
18.6666 0 0
18.7831 0 0
18.8994 0 0
19.0158 0 0
19.1321 0 0
19.2483 0 0
19.3645 0 0
19.4806 0 0
19.5967 0 0
19.7128 0 0
19.8288 0 0
19.9447 0 0
20.0606 0 1
20.1764 0 1
20.2922 0 1
20.4079 0 1
20.5236 0 1
20.6392 0 1
20.7548 0 1
20.8702 0 1
23.3078 0 1
23.4233 0 1
23.539 0 1
23.6547 0 1
23.7704 0 1
23.8862 0 1
24.0021 0 1
24.118 0 1
24.234 0 1
24.35 0 1
24.4661 4907 70.05
24.5822 5547 74.4782
24.6984 5931 77.013
24.8146 6451 80.3181
24.9309 6887 82.988
25.0472 7609 87.2296
25.1636 7895 88.8538
25.28 8230 90.7193
25.3965 8977 94.747
25.513 9551 97.7292
25.6296 9999 99.995
25.7462 10113 100.563
25.8628 10107 100.534
25.9795 10203 101.01
26.0962 10168 100.837
26.213 10127 100.633
26.3298 9800 98.9949
26.4466 9618 98.0714
26.5635 9251 96.1821
26.6804 8976 94.7418
26.7973 8857 94.1116
26.9143 8976 94.7418
27.0313 9268 96.2705
27.1483 9423 97.0721
27.2653 9675 98.3616
27.3824 9601 97.9847
27.4996 9627 98.1173
27.6167 9636 98.1631
27.7339 9478 97.355
27.8511 9228 96.0625
27.9683 9104 95.4149
28.0855 8945 94.578
28.2028 8733 93.4505
28.3201 8525 92.3309
28.4374 8354 91.4002
28.5547 8172 90.3991
28.6721 8682 93.1773
28.7894 8689 93.2148
28.9068 9009 94.9158
29.0242 9378 96.8401
29.1416 9879 99.3932
29.259 9937 99.6845
29.3764 9935 99.6745
29.4939 10183 100.911
29.6113 10095 100.474
29.7288 10241 101.198
29.8463 10042 100.21
29.9638 9750 98.7421
30.0812 9488 97.4064
30.1987 8947 94.5886
30.3162 8491 92.1466
30.4337 8615 92.817
30.5512 8826 93.9468
30.6687 8985 94.7892
30.7862 9519 97.5654
30.9037 9546 97.7036
31.0212 9676 98.3667
31.1387 9692 98.448
31.2562 9881 99.4032
31.3737 9357 96.7316
31.4912 9255 96.2029
31.6087 9093 95.3572
31.7262 8761 93.6002
31.8436 8869 94.1754
31.9611 8453 91.9402
32.0785 8458 91.9674
32.1959 8315 91.1866
32.3134 8406 91.6842
32.4308 8692 93.2309
32.5482 9062 95.1945
32.6655 9270 96.2808
32.7829 9624 98.102
32.9002 9897 99.4837
33.0176 9918 99.5892
33.1349 10086 100.429
33.2522 9938 99.6895
33.3694 9868 99.3378
33.4867 9928 99.6393
33.6039 9807 99.0303
33.7211 9409 97
33.8383 9070 95.2365
33.9554 8618 92.8332
34.0725 8058 89.7664
34.1896 8347 91.3619
34.3067 8554 92.4878
34.4237 8787 93.739
34.5407 9244 96.1457
34.6577 9175 95.7862
34.7746 9305 96.4624
34.8915 9283 96.3483
35.0084 9245 96.1509
35.1252 9059 95.1788
35.242 8831 93.9734
35.3587 8799 93.803
35.4755 8583 92.6445
35.5921 8437 91.8531
35.7088 8382 91.5533
35.8254 8135 90.1942
35.9419 7971 89.2805
36.0584 7749 88.0284
36.1749 7861 88.6623
36.2913 7704 87.7724
36.4077 7952 89.174
36.524 7906 88.9157
36.6403 7562 86.9598
36.7565 7353 85.7496
36.8727 7206 84.8882
36.9889 6794 82.4257
37.1049 6606 81.2773
37.221 0 1
37.3369 0 1
37.4529 0 1
37.5687 0 1
37.6845 0 1
37.8003 0 1
37.916 0 1
38.0316 0 1
38.1472 0 1
40.5851 0 1
40.7008 0 1
40.8164 0 1
40.9322 0 1
41.048 0 1
41.1639 0 1
41.2798 0 1
41.3958 0 1
41.5118 0 1
41.6279 0 1
41.744 5361 73.2189
41.8602 5869 76.6094
41.9765 6283 79.2654
42.0928 6691 81.7985
42.2091 6875 82.9156
42.3255 6918 83.1745
42.4419 6686 81.768
42.5584 6790 82.4015
42.675 6651 81.5537
42.7915 6726 82.0122
42.9081 7004 83.6899
43.0248 7375 85.8778
43.1415 7600 87.178
43.2582 7846 88.5776
43.375 7914 88.9607
43.4918 8048 89.7106
43.6087 7996 89.4204
43.7256 7653 87.4814
43.8425 7710 87.8066
43.9595 7728 87.909
44.0765 7429 86.1916
44.1935 7306 85.4751
44.3106 7220 84.9706
44.4277 6982 83.5584
44.5448 6892 83.0181
44.6619 6933 83.2646
44.7791 7162 84.6286
44.8963 7337 85.6563
45.0136 7453 86.3308
45.1308 7944 89.1291
45.2481 7972 89.2861
45.3654 8211 90.6146
45.4827 8332 91.2798
45.6001 8180 90.4434
45.7174 8183 90.4599
45.8348 8537 92.3959
45.9522 8001 89.4483
46.0697 7776 88.1816
46.1871 7192 84.8057
46.3046 6784 82.365
46.422 6806 82.4985
46.5395 6969 83.4805
46.657 7448 86.3018
46.7745 7842 88.5551
46.892 7934 89.073
47.0096 8038 89.6549
47.1271 8191 90.5041
47.2446 8430 91.815
47.3622 8351 91.3838
47.4797 7887 88.8088
47.5973 7942 89.1179
47.7149 7693 87.7097
47.8324 7426 86.1742
47.95 7523 86.7352
48.0675 7155 84.5872
48.1851 6967 83.4686
48.3027 6801 82.4682
48.4202 7136 84.4748
48.5378 7401 86.0291
48.6554 7557 86.931
48.7729 7962 89.23
48.8904 8143 90.2386
49.008 8153 90.294
49.1255 8246 90.8075
49.243 8450 91.9239
49.3605 8241 90.78
49.478 8149 90.2718
49.5955 7841 88.5494
49.713 7289 85.3756
49.8304 6749 82.1523
49.9479 6297 79.3536
50.0653 6405 80.0312
50.1827 6870 82.8855
50.3001 7188 84.7821
50.4175 7495 86.5737
50.5348 7652 87.4757
50.6521 7961 89.2244
50.7694 8072 89.8443
50.8867 8166 90.3659
51.004 7919 88.9888
51.1212 7765 88.1192
51.2384 7754 88.0568
51.3556 7414 86.1046
51.4727 7315 85.5278
51.5899 7173 84.6936
51.707 7001 83.672
51.824 6657 81.5904
51.9411 6831 82.6499
52.0581 7011 83.7317
52.175 7534 86.7986
52.2919 7782 88.2156
52.4088 8060 89.7775
52.5257 8168 90.377
52.6425 8322 91.225
52.7593 8051 89.7274
52.876 8122 90.1221
52.9927 8078 89.8777
53.1094 7886 88.8032
53.226 7616 87.2697
53.3426 6930 83.2466
53.4591 6326 79.5362
53.5756 5785 76.0592
53.692 5485 74.0608
53.8084 5295 72.7668
53.9248 5300 72.8011
54.0411 5223 72.2703
54.1573 4942 70.2994
54.2735 0 1
54.3896 0 1
54.5057 0 1
54.6217 0 1
54.7377 0 1
54.8537 0 1
54.9695 0 1
55.0853 0 1
55.2011 0 1
55.3168 0 1
55.4324 0 1
57.824 0 1
57.9396 0 1
58.0553 0 1
58.1711 0 1
58.2869 0 1
58.4028 0 1
58.5187 0 1
58.6347 0 1
58.7508 0 1
58.8669 0 1
58.983 6513 80.7032
59.0992 7300 85.44
59.2155 7863 88.6736
59.3318 8223 90.6808
59.4482 8680 93.1665
59.5646 8908 94.3822
59.681 9087 95.3258
59.7975 9061 95.1893
59.9141 9053 95.1473
60.0306 8887 94.2709
60.1473 8659 93.0537
60.2639 8316 91.1921
60.3807 8360 91.433
60.4974 8653 93.0215
60.6142 8793 93.771
60.731 9047 95.1157
60.8479 9527 97.6064
60.9648 9613 98.0459
61.0818 9860 99.2975
61.1987 9839 99.1917
61.3158 9860 99.2975
61.4328 9842 99.2069
61.5499 9459 97.2574
61.667 9398 96.9433
61.7841 8695 93.247
61.9013 8141 90.2275
62.0185 7913 88.955
62.1357 7989 89.3812
62.253 8128 90.1554
62.3702 8849 94.0691
62.4875 9164 95.7288
62.6049 9422 97.067
62.7222 9718 98.5799
62.8396 9789 98.9394
62.9569 9756 98.7725
63.0743 9705 98.514
63.1918 9558 97.765
63.3092 9360 96.7471
63.4267 9227 96.0573
63.5441 8908 94.3822
63.6616 8656 93.0376
63.7791 8489 92.1358
63.8966 8211 90.6146
64.0142 8090 89.9444
64.1317 8295 91.0769
64.2492 8854 94.0957
64.3668 9257 96.2133
64.4843 9667 98.3209
64.6019 9802 99.0051
64.7195 9827 99.1312
64.837 9911 99.554
64.9546 9677 98.3717
65.0722 10006 100.03
65.1898 9448 97.2008
65.3074 9090 95.3415
65.4249 8284 91.0165
65.5425 7958 89.2076
65.6601 7415 86.1104
65.7777 7491 86.5506
65.8952 7786 88.2383
66.0128 8510 92.2497
66.1304 8748 93.5307
66.2479 9084 95.31
66.3655 9366 96.7781
66.483 9517 97.5551
66.6005 9384 96.871
66.718 9516 97.55
66.8355 9463 97.278
66.953 9241 96.1301
67.0705 9074 95.2575
67.1879 8782 93.7123
67.3054 8573 92.5905
67.4228 8268 90.9285
67.5402 7950 89.1628
67.6576 7721 87.8692
67.7749 7996 89.4204
67.8923 8090 89.9444
68.0096 8528 92.3472
68.1269 8994 94.8367
68.2442 9156 95.687
68.3614 9417 97.0412
68.4787 9488 97.4064
68.5958 9334 96.6126
68.713 9439 97.1545
68.8302 9334 96.6126
68.9473 9020 94.9737
69.0643 8617 92.8278
69.1814 7879 88.7637
69.2984 7397 86.0058
69.4154 7170 84.6759
69.5323 7272 85.276
69.6492 7651 87.47
69.7661 8027 89.5935
69.8829 8318 91.2031
69.9997 8134 90.1887
70.1165 8174 90.4102
70.2332 7716 87.8408
70.3499 7547 86.8735
70.4665 7315 85.5278
70.5831 6822 82.5954
70.6996 6633 81.4432
70.8161 6257 79.1012
70.9326 5781 76.0329
71.049 5330 73.0068
71.1653 4689 68.4763
71.2817 4150 64.4205
71.3979 3632 60.2661
71.5141 3441 58.66
71.6303 3122 55.8749
71.7464 2980 54.5894
71.8624 0 1
71.9784 0 1
72.0944 0 1
72.2102 0 1
72.3261 0 1
72.4418 0 1
72.5575 0 1
72.6732 0 1
75.1054 0 1
75.2209 0 1
75.3365 0 1
75.4521 0 1
75.5678 0 1
75.6835 0 1
75.7993 0 1
75.9151 0 1
76.031 0 1
76.147 6188 78.6638
76.263 6595 81.2096
76.3791 6765 82.2496
76.4952 6857 82.807
76.6113 7051 83.9702
76.7276 7351 85.738
76.8438 7796 88.295
76.9601 8114 90.0777
77.0765 8548 92.4554
77.1929 8728 93.4238
77.3093 8811 93.8669
77.4258 8604 92.7577
77.5423 8978 94.7523
77.6589 8604 92.7577
77.7755 8350 91.3783
77.8921 7880 88.7694
78.0088 7406 86.0581
78.1256 6854 82.7889
78.2423 6395 79.9687
78.3591 6399 79.9937
78.4759 6782 82.3529
78.5928 7287 85.3639
78.7097 7650 87.4643
78.8266 8035 89.6382
78.9436 8357 91.4166
79.0606 8353 91.3947
79.1776 8733 93.4505
79.2946 8734 93.4559
79.4117 8736 93.4666
79.5288 8845 94.0479
79.6459 8698 93.2631
79.7631 8520 92.3038
79.8802 8041 89.6716
79.9974 8052 89.7329
80.1147 7576 87.0402
80.2319 7372 85.8604
80.3491 7422 86.151
80.4664 7968 89.2637
80.5837 8199 90.5483
80.701 8583 92.6445
80.8183 8913 94.4087
80.9357 9137 95.5877
81.053 9215 95.9948
81.1704 9214 95.9896
81.2877 9214 95.9896
81.4051 9216 96
81.5225 9014 94.9421
81.6399 8212 90.6201
81.7573 7806 88.3516
81.8747 7055 83.994
81.9922 6578 81.1049
82.1096 6631 81.431
82.227 7011 83.7317
82.3444 7581 87.0689
82.4619 8281 91
82.5793 8578 92.6175
82.6967 8619 92.8386
82.8142 8782 93.7123
82.9316 9167 95.7445
83.049 9039 95.0737
83.1664 9046 95.1105
83.2838 8887 94.2709
83.4012 8978 94.7523
83.5186 8730 93.4345
83.636 8600 92.7362
83.7534 8171 90.3936
83.8708 7681 87.6413
83.9881 7709 87.8009
84.1055 7697 87.7325
84.2228 8047 89.7051
84.3401 8348 91.3674
84.4575 8577 92.6121
84.5747 9046 95.1105
84.692 9275 96.3068
84.8093 9320 96.5401
84.9265 9364 96.7678
85.0437 9466 97.2934
85.1609 8958 94.6467
85.2781 8233 90.7359
85.3952 7716 87.8408
85.5123 7072 84.0952
85.6294 6645 81.5169
85.7465 6732 82.0488
85.8636 7190 84.7939
85.9806 7818 88.4195
86.0976 8167 90.3715
86.2145 8425 91.7878
86.3315 8548 92.4554
86.4484 9245 96.1509
86.5652 9066 95.2155
86.682 9067 95.2208
86.7988 9116 95.4777
86.9156 9046 95.1105
87.0323 9009 94.9158
87.149 8691 93.2255
87.2657 8133 90.1831
87.3823 7470 86.4292
87.4988 6712 81.9268
87.6154 6178 78.6003
87.7318 6215 78.8353
87.8483 6277 79.2275
87.9647 6434 80.2122
88.081 6472 80.4487
88.1973 6371 79.8185
88.3136 6261 79.1265
88.4298 5922 76.9545
88.546 5419 73.6139
88.6621 4852 69.6563
88.7781 4304 65.6049
88.8942 0 1
89.0101 0 1
89.126 0 1
89.2419 0 1
89.3577 0 1
89.4734 0 1
89.5891 0 1
89.7047 0 1
89.8203 0 1
89.9358 0 1
92.3269 0 1
92.4424 0 1
92.558 0 1
92.6736 0 1
92.7893 0 1
92.905 0 1
93.0208 0 1
93.1366 0 1
93.2525 0 1
93.3685 0 1
93.4845 0 1
93.6005 8700 93.2738
93.7167 8844 94.0425
93.8328 9107 95.4306
93.949 8875 94.2072
94.0653 8322 91.225
94.1816 7746 88.0114
94.2979 7462 86.3829
94.4143 7528 86.764
94.5307 8094 89.9667
94.6472 8368 91.4768
94.7637 8686 93.1987
94.8803 9046 95.1105
94.9969 9283 96.3483
95.1135 9613 98.0459
95.2302 9814 99.0656
95.3469 9989 99.945
95.4637 9973 99.8649
95.5805 9745 98.7168
95.6973 9626 98.1122
95.8142 9492 97.4269
95.9311 9166 95.7392
96.048 8930 94.4987
96.1649 8577 92.6121
96.2819 8680 93.1665
96.3989 8866 94.1594
96.516 9084 95.31
96.633 9591 97.9337
96.7501 9654 98.2548
96.8673 9776 98.8737
96.9844 9845 99.222
97.1016 10001 100.005
97.2188 9823 99.111
97.336 9421 97.0618
97.4532 8802 93.819
97.5704 7992 89.398
97.6877 7436 86.2322
97.805 7192 84.8057
97.9223 7240 85.0882
98.0396 7537 86.8159
98.1569 8306 91.1373
98.2743 8483 92.1032
98.3916 9036 95.0579
98.509 9206 95.9479
98.6264 9627 98.1173
98.7438 9655 98.2599
98.8612 9794 98.9646
98.9786 9718 98.5799
99.096 9728 98.6306
99.2134 9588 97.9183
99.3308 9196 95.8958
99.4482 9296 96.4158
99.5656 8777 93.6856
99.6831 8487 92.1249
99.8005 8171 90.3936
99.9179 8603 92.7524
100.035 8794 93.7763
100.153 9171 95.7653
100.27 9336 96.623
100.388 9660 98.2853
100.505 9559 97.7701
100.622 9535 97.6473
100.74 9628 98.1224
100.857 9423 97.0721
100.975 9134 95.572
101.092 8490 92.1412
101.209 8185 90.471
101.327 7465 86.4002
101.444 6887 82.988
101.561 7002 83.678
101.679 7113 84.3386
101.796 7777 88.1873
101.913 8193 90.5152
102.03 8600 92.7362
102.148 8744 93.5094
102.265 8585 92.6553
102.382 9498 97.4577
102.499 9220 96.0208
102.616 9293 96.4002
102.733 9131 95.5563
102.851 8877 94.2178
102.968 9034 95.0474
103.085 8852 94.0851
103.202 8469 92.0272
103.319 8356 91.4112
103.436 7862 88.6679
103.552 7795 88.2893
103.669 8077 89.8721
103.786 8298 91.0934
103.903 8584 92.6499
104.02 8906 94.3716
104.137 9146 95.6347
104.253 9254 96.1977
104.37 8791 93.7603
104.487 8368 91.4768
104.603 8147 90.2607
104.72 7754 88.0568
104.836 7226 85.0059
104.953 6611 81.3081
105.069 6265 79.1518
105.186 5634 75.06
105.302 5366 73.253
105.418 5104 71.4423
105.535 5016 70.8237
105.651 4978 70.5549
105.767 4739 68.8404
105.883 4334 65.8331
105.999 3967 62.9841
106.115 0 1
106.231 0 1
106.347 0 1
106.463 0 1
106.579 0 1
106.694 0 1
106.81 0 1
106.926 0 1
107.041 0 1
107.157 0 1
109.576 0 1
109.692 0 1
109.807 0 1
109.923 0 1
110.039 0 1
110.155 0 1
110.27 0 1
110.386 0 1
110.502 0 1
110.618 5919 76.935
110.735 7049 83.9583
110.851 7811 88.3799
110.967 8460 91.9783
111.083 9040 95.0789
111.199 9606 98.0102
111.316 9768 98.8332
111.432 9933 99.6644
111.549 10064 100.319
111.665 9845 99.222
111.782 9872 99.3579
111.898 9710 98.5393
112.015 9253 96.1925
112.132 9099 95.3887
112.248 8798 93.7977
112.365 9123 95.5144
112.482 8948 94.5939
112.599 9882 99.4082
112.716 10111 100.553
112.832 10257 101.277
112.949 10372 101.843
113.066 10160 100.797
113.183 10063 100.315
113.3 9802 99.0051
113.417 9649 98.2293
113.534 8867 94.1647
113.652 8400 91.6515
113.769 7898 88.8707
113.886 7512 86.6718
114.003 7196 84.8292
114.12 7855 88.6284
114.238 8218 90.6532
114.355 8781 93.707
114.472 8837 94.0053
114.589 9484 97.3858
114.707 9601 97.9847
114.824 9825 99.1211
114.942 9809 99.0404
115.059 9927 99.6343
115.176 9748 98.732
115.294 9735 98.6661
115.411 9632 98.1428
115.529 9340 96.6437
115.646 9217 96.0052
115.764 8775 93.675
115.881 8606 92.7685
115.999 8834 93.9894
116.116 9206 95.9479
116.234 9466 97.2934
116.351 9640 98.1835
116.469 9666 98.3158
116.586 9774 98.8635
116.704 9774 98.8635
116.821 9888 99.4384
116.939 9515 97.5449
117.056 9217 96.0052
117.174 8770 93.6483
117.291 8176 90.4212
117.409 7532 86.7871
117.526 6860 82.8251
117.644 7096 84.2378
117.761 7189 84.788
117.879 7693 87.7097
117.996 7994 89.4092
118.114 8329 91.2634
118.231 8628 92.887
118.349 8865 94.1541
118.466 9007 94.9052
118.584 8998 94.8578
118.701 8935 94.5251
118.819 8931 94.504
118.936 8723 93.397
119.053 8600 92.7362
119.171 8548 92.4554
119.288 8366 91.4658
119.405 7976 89.3085
119.523 8148 90.2663
119.64 7777 88.1873
119.757 8093 89.9611
119.875 8447 91.9076
119.992 8534 92.3797
120.109 8578 92.6175
120.226 8972 94.7206
120.343 8879 94.2284
120.46 8731 93.4398
120.578 8681 93.1719
120.695 8493 92.1575
120.812 8275 90.967
120.929 7650 87.4643
121.046 7352 85.7438
121.163 6770 82.28
121.279 6355 79.7183
121.396 6237 78.9747
121.513 6328 79.5487
121.63 6495 80.5916
121.747 6598 81.2281
121.863 6545 80.9012
121.98 6759 82.2131
122.097 6598 81.2281
122.213 6545 80.9012
122.33 6439 80.2434
122.446 6149 78.4156
122.563 5757 75.8749
122.679 5702 75.5116
122.795 5428 73.675
122.912 4909 70.0643
123.028 4483 66.9552
123.144 4055 63.6789
123.26 3919 62.6019
123.377 0 1
123.493 0 1
123.609 0 1
123.725 0 1
123.84 0 1
123.956 0 1
124.072 0 1
124.188 0 1
124.303 0 1
124.419 0 1
126.852 0 1
126.968 0 1
127.083 0 1
127.199 0 1
127.315 0 1
127.431 0 1
127.547 0 1
127.663 0 1
127.779 0 1
127.895 0 1
128.011 0 1
128.127 0 1
128.243 0 1
128.359 8079 89.8833
128.476 8512 92.2605
128.592 8712 93.3381
128.708 9032 95.0368
128.825 9193 95.8801
128.941 9383 96.8659
129.058 9296 96.4158
129.174 9495 97.4423
129.291 9390 96.902
129.408 9274 96.3016
129.524 8817 93.8989
129.641 8677 93.1504
129.758 8238 90.7634
129.875 7760 88.0909
129.992 7457 86.3539
130.108 7159 84.6109
130.225 7237 85.0706
130.342 7667 87.5614
130.459 7677 87.6185
130.576 8399 91.6461
130.693 8553 92.4824
130.81 8983 94.7787
130.928 8931 94.504
131.045 9103 95.4096
131.162 9237 96.1093
131.279 9332 96.6023
131.396 9312 96.4987
131.513 9103 95.4096
131.631 9031 95.0316
131.748 8892 94.2974
131.865 8698 93.2631
131.983 8576 92.6067
132.1 8869 94.1754
132.217 8838 94.0106
132.335 9269 96.2756
132.452 9435 97.1339
132.57 9591 97.9337
132.687 9135 95.5772
132.804 9749 98.737
132.922 9377 96.8349
133.039 9376 96.8297
133.157 9136 95.5824
133.274 8774 93.6696
133.392 8182 90.4544
133.509 7721 87.8692
133.627 7409 86.0755
133.744 7339 85.668
133.862 7358 85.7788
133.979 7537 86.8159
134.097 8155 90.305
134.214 8356 91.4112
134.332 8392 91.6079
134.449 8652 93.0161
134.567 8812 93.8723
134.684 8967 94.6942
134.802 9008 94.9105
134.919 9046 95.1105
135.037 8918 94.4352
135.154 9033 95.0421
135.272 8798 93.7977
135.389 8524 92.3255
135.507 8358 91.4221
135.624 8313 91.1757
135.742 8582 92.6391
135.859 8689 93.2148
135.977 8925 94.4722
136.094 9211 95.974
136.211 9253 96.1925
136.329 9421 97.0618
136.446 9199 95.9114
136.564 9328 96.5816
136.681 9124 95.5196
136.798 9164 95.7288
136.915 8873 94.1966
137.033 8356 91.4112
137.15 7805 88.3459
137.267 7221 84.9765
137.384 7049 83.9583
137.502 6939 83.3007
137.619 7332 85.6271
137.736 7517 86.7006
137.853 7695 87.7211
137.97 8036 89.6437
138.087 7869 88.7074
138.204 8537 92.3959
138.321 8416 91.7388
138.438 8743 93.504
138.555 8958 94.6467
138.672 8533 92.3742
138.788 8479 92.0815
138.905 8160 90.3327
139.022 7795 88.2893
139.139 7337 85.6563
139.255 7026 83.8212
139.372 6965 83.4566
139.488 6577 81.0987
139.605 6496 80.5978
139.721 6448 80.2994
139.838 6255 79.0886
139.954 6081 77.9808
140.071 5462 73.9053
140.187 5346 73.1163
140.303 4849 69.6348
140.419 4628 68.0294
140.535 4253 65.215
140.652 3833 61.9112
140.768 0 1
140.884 0 1
141 0 1
141.115 0 1
141.231 0 1
141.347 0 1
141.463 0 1
141.578 0 1
141.694 0 1
144.104 0 1
144.219 0 1
144.335 0 1
144.45 0 1
144.566 0 1
144.682 0 1
144.798 0 1
144.914 0 1
145.03 0 1
145.146 7259 85.1998
145.262 7426 86.1742
145.378 7309 85.4927
145.494 7141 84.5044
145.61 6682 81.7435
145.726 6469 80.4301
145.842 6232 78.943
145.959 6092 78.0513
146.075 5909 76.87
146.192 6027 77.6338
146.308 6165 78.5175
146.425 6340 79.6241
146.541 6578 81.1049
146.658 6701 81.8596
146.774 6878 82.9337
146.891 7038 83.8928
147.008 7260 85.2056
147.125 7472 86.4407
147.241 7333 85.6329
147.358 7302 85.4517
147.475 7303 85.4576
147.592 7022 83.7974
147.709 6964 83.4506
147.826 6638 81.4739
147.943 6696 81.8291
148.06 6950 83.3667
148.177 7256 85.1822
148.294 7483 86.5043
148.411 7451 86.3192
148.528 7565 86.977
148.645 7724 87.8863
148.762 7559 86.9425
148.88 7554 86.9138
148.997 7284 85.3464
149.114 7518 86.7064
149.231 7286 85.3581
149.349 6962 83.4386
149.466 6433 80.206
149.583 6184 78.6384
149.701 5965 77.2334
149.818 6066 77.8845
149.935 6059 77.8396
150.053 6196 78.7147
150.17 6334 79.5864
150.287 6352 79.6994
150.405 6781 82.3468
150.522 6924 83.2106
150.64 6879 82.9397
150.757 6888 82.994
150.875 7164 84.6404
150.992 7334 85.6388
151.11 6984 83.5703
151.227 7126 84.4156
151.344 6992 83.6182
151.462 6733 82.0549
151.579 6678 81.719
151.697 6761 82.2253
151.814 6910 83.1264
151.932 7169 84.6699
152.049 7285 85.3522
152.167 7365 85.8196
152.284 7374 85.872
152.402 7418 86.1278
152.519 7507 86.6429
152.636 7357 85.773
152.754 7127 84.4216
152.871 7080 84.1427
152.989 6407 80.0437
153.106 6523 80.7651
153.223 6166 78.5239
153.341 5871 76.6225
153.458 5793 76.1118
153.575 5850 76.4853
153.693 5950 77.1362
153.81 6073 77.9295
153.927 6120 78.2304
154.044 6416 80.0999
154.162 6581 81.1234
154.279 6514 80.7094
154.396 6789 82.3954
154.513 6884 82.9699
154.63 7040 83.9047
154.747 6917 83.1685
154.864 6724 82
154.981 6724 82
155.098 6535 80.8393
155.215 6400 80
155.332 6410 80.0625
155.449 6606 81.2773
155.566 6530 80.8084
155.683 6928 83.2346
155.8 6736 82.0731
155.917 6848 82.7526
156.033 6679 81.7251
156.15 0 1
156.267 0 1
156.383 0 1
156.5 0 1
156.617 0 1
156.733 0 1
156.85 0 1
156.966 0 1
157.082 0 1
157.199 0 1
157.315 0 1
157.431 0 1
157.547 0 1
157.664 0 1
157.78 0 1
157.896 0 1
158.012 0 1
158.128 0 1
158.244 0 1
158.359 0 1
158.475 0 1
158.591 0 1
158.706 0 1
