
6.15755 0 1
6.2731 0 1
6.3887 0 1
6.50437 0 1
6.62009 0 1
6.73587 0 1
6.8517 0 1
6.96759 0 1
7.08353 0 1
7.19952 0 1
7.31557 0 1
7.43166 0 1
7.54781 0 1
7.664 0 1
7.78024 0 1
7.89653 0 1
8.01286 0 1
8.12924 0 1
8.24567 0 1
8.36213 0 1
8.47864 0 1
8.59519 0 1
8.71178 0 1
8.82841 0 1
8.94508 0 1
9.06179 0 1
9.17853 0 1
9.29531 0 1
9.41212 0 1
9.52897 0 1
9.64584 0 1
9.76276 0 1
9.8797 0 1
9.99667 0 1
10.1137 0 1
10.2307 0 1
10.3478 0 1
10.4648 0 1
10.5819 0 1
10.6991 0 1
10.8162 0 1
10.9334 0 1
11.0506 0 1
11.1678 0 1
11.285 0 1
11.4023 0 1
11.5196 0 1
11.6369 0 1
11.7542 0 1
11.8715 0 1
11.9888 0 1
12.1062 0 1
12.2235 0 1
12.3409 0 1
12.4582 0 1
12.5756 0 1
12.693 0 1
12.8104 0 1
12.9278 0 1
13.0452 0 1
13.1626 0 1
13.28 0 1
13.3974 0 1
13.5149 0 1
13.6323 0 1
13.7497 0 1
13.8671 0 1
13.9845 0 1
14.1019 0 1
14.2193 0 1
14.3367 0 1
14.4541 0 1
14.5714 0 1
14.6888 0 1
14.8062 0 1
14.9235 0 1
15.0408 4875 69.8212
15.1581 5049 71.0563
15.2755 5256 72.4983
15.3927 5329 73
15.51 5213 72.2011
15.6273 5279 72.6567
15.7445 5429 73.6817
15.8617 5220 72.2496
15.9789 5201 72.118
16.0961 5130 71.624
16.2132 5124 71.5821
16.3304 5026 70.8943
16.4475 5166 71.8749
16.5646 5254 72.4845
16.6816 5276 72.6361
16.7986 5510 74.2294
16.9156 5534 74.3909
17.0326 5829 76.3479
17.1496 5802 76.1709
17.2665 5888 76.7333
17.3833 5760 75.8947
17.5002 5778 76.0132
17.617 5699 75.4917
17.7338 5862 76.5637
17.8505 5550 74.4983
17.9672 5170 71.9027
18.0839 5218 72.2357
18.2005 5420 73.6206
18.3171 5518 74.2832
18.4337 5700 75.4983
18.5502 5839 76.4133
18.6666 5954 77.1622
18.7831 5983 77.3499
18.8994 5993 77.4145
19.0158 5814 76.2496
19.1321 5732 75.71
19.2483 5615 74.9333
19.3645 5413 73.5731
19.4806 4963 70.4486
19.5967 4617 67.9485
19.7128 4343 65.9014
19.8288 3901 62.458
19.9447 3389 58.2151
20.0606 0 1
20.1764 0 1
20.2922 0 1
20.4079 0 1
20.5236 0 1
20.6392 0 1
20.7548 0 1
20.8702 0 1
23.3078 0 1
23.4233 0 1
23.539 0 1
23.6547 0 1
23.7704 0 1
23.8862 0 1
24.0021 0 1
24.118 0 1
24.234 0 1
24.35 0 1
24.4661 2290 47.8539
24.5822 2842 53.3104
24.6984 3364 58
24.8146 3724 61.0246
24.9309 3934 62.7216
25.0472 4200 64.8074
25.1636 4433 66.5808
25.28 4813 69.3758
25.3965 4914 70.0999
25.513 5310 72.8697
25.6296 5643 75.1199
25.7462 6006 77.4984
25.8628 6167 78.5302
25.9795 6464 80.399
26.0962 6496 80.5978
26.213 6505 80.6536
26.3298 6265 79.1518
26.4466 6013 77.5435
26.5635 5625 75
26.6804 5446 73.797
26.7973 5270 72.5948
26.9143 5579 74.6927
27.0313 5692 75.4453
27.1483 5776 76
27.2653 6056 77.8203
27.3824 6316 79.4733
27.4996 6079 77.9679
27.6167 6050 77.7817
27.7339 5979 77.324
27.8511 5634 75.06
27.9683 5584 74.7262
28.0855 5692 75.4453
28.2028 5348 73.13
28.3201 5287 72.7118
28.4374 5142 71.7077
28.5547 4968 70.484
28.6721 4956 70.3989
28.7894 5065 71.1688
28.9068 5086 71.3162
29.0242 5401 73.4915
29.1416 5637 75.08
29.259 5901 76.818
29.3764 5928 76.9935
29.4939 5973 77.2852
29.6113 5878 76.6681
29.7288 5900 76.8115
29.8463 5746 75.8024
29.9638 5373 73.3008
30.0812 5165 71.8679
30.1987 4997 70.6895
30.3162 4896 69.9714
30.4337 5144 71.7217
30.5512 5379 73.3417
30.6687 5596 74.8064
30.7862 5742 75.776
30.9037 5745 75.7958
31.0212 5773 75.9803
31.1387 5858 76.5376
31.2562 5722 75.6439
31.3737 5663 75.2529
31.4912 5477 74.0068
31.6087 5323 72.9589
31.7262 5266 72.5672
31.8436 5050 71.0634
31.9611 4860 69.7137
32.0785 4739 68.8404
32.1959 4588 67.7348
32.3134 4811 69.3614
32.4308 4928 70.1997
32.5482 5078 71.2601
32.6655 5508 74.2159
32.7829 5572 74.6458
32.9002 5634 75.06
33.0176 5638 75.0866
33.1349 5639 75.0933
33.2522 5514 74.2563
33.3694 5497 74.1418
33.4867 5519 74.29
33.6039 5026 70.8943
33.7211 4773 69.0869
33.8383 4598 67.8086
33.9554 4478 66.9179
34.0725 5033 70.9436
34.1896 5173 71.9236
34.3067 5337 73.0548
34.4237 5448 73.8106
34.5407 5395 73.4507
34.6577 5537 74.411
34.7746 5446 73.797
34.8915 5360 73.212
35.0084 5262 72.5396
35.1252 5252 72.4707
35.242 5166 71.8749
35.3587 5067 71.1829
35.4755 4873 69.8069
35.5921 4791 69.217
35.7088 4721 68.7095
35.8254 4382 66.1967
35.9419 4424 66.5132
36.0584 4559 67.5204
36.1749 4618 67.9559
36.2913 4706 68.6003
36.4077 4571 67.6092
36.524 4615 67.9338
36.6403 4591 67.7569
36.7565 4519 67.2235
36.8727 4459 66.7757
36.9889 4151 64.4283
37.1049 3803 61.6685
37.221 0 1
37.3369 0 1
37.4529 0 1
37.5687 0 1
37.6845 0 1
37.8003 0 1
37.916 0 1
38.0316 0 1
38.1472 0 1
40.5851 0 1
40.7008 0 1
40.8164 0 1
40.9322 0 1
41.048 0 1
41.1639 0 1
41.2798 0 1
41.3958 0 1
41.5118 0 1
41.6279 0 1
41.744 2521 50.2096
41.8602 2855 53.4322
41.9765 3228 56.8155
42.0928 3413 58.4209
42.2091 3586 59.8832
42.3255 3572 59.7662
42.4419 3473 58.9322
42.5584 3322 57.6368
42.675 3214 56.6922
42.7915 3433 58.5918
42.9081 3874 62.2415
43.0248 4216 64.9307
43.1415 4245 65.1537
43.2582 4403 66.3551
43.375 4490 67.0075
43.4918 4633 68.0661
43.6087 4566 67.5722
43.7256 4510 67.1565
43.8425 4504 67.1118
43.9595 4501 67.0895
44.0765 4310 65.6506
44.1935 4280 65.4217
44.3106 4229 65.0308
44.4277 3859 62.1208
44.5448 3768 61.384
44.6619 3551 59.5903
44.7791 3668 60.564
44.8963 3690 60.7454
45.0136 3888 62.3538
45.1308 4090 63.9531
45.2481 4511 67.164
45.3654 4465 66.8207
45.4827 4407 66.3852
45.6001 4650 68.1909
45.7174 4635 68.0808
45.8348 4445 66.6708
45.9522 4164 64.5291
46.0697 4111 64.1171
46.1871 3856 62.0967
46.3046 3666 60.5475
46.422 3811 61.7333
46.5395 4236 65.0846
46.657 4322 65.7419
46.7745 4338 65.8635
46.892 4593 67.7717
47.0096 4647 68.1689
47.1271 4747 68.8985
47.2446 4670 68.3374
47.3622 4625 68.0074
47.4797 4447 66.6858
47.5973 4459 66.7757
47.7149 4349 65.9469
47.8324 4295 65.5362
47.95 4148 64.405
48.0675 3815 61.7657
48.1851 3688 60.7289
48.3027 3737 61.131
48.4202 3849 62.0403
48.5378 3984 63.1189
48.6554 4244 65.146
48.7729 4373 66.1287
48.8904 4428 66.5432
49.008 4468 66.8431
49.1255 4483 66.9552
49.243 4340 65.8787
49.3605 4297 65.5515
49.478 4026 63.4508
49.5955 3716 60.959
49.713 3578 59.8164
49.8304 3523 59.3549
49.9479 3721 61
50.0653 3945 62.8092
50.1827 4183 64.6761
50.3001 4437 66.6108
50.4175 4417 66.4605
50.5348 4473 66.8805
50.6521 4567 67.5796
50.7694 4587 67.7274
50.8867 4620 67.9706
51.004 4481 66.9403
51.1212 4396 66.3023
51.2384 4345 65.9166
51.3556 4173 64.5988
51.4727 4012 63.3404
51.5899 3756 61.2862
51.707 3629 60.2412
51.824 3662 60.5145
51.9411 3840 61.9677
52.0581 3930 62.6897
52.175 4266 65.3146
52.2919 4490 67.0075
52.4088 4453 66.7308
52.5257 4627 68.0221
52.6425 4549 67.4463
52.7593 4610 67.897
52.876 4364 66.0606
52.9927 4229 65.0308
53.1094 4010 63.3246
53.226 3600 60
53.3426 3505 59.203
53.4591 3408 58.3781
53.5756 3473 58.9322
53.692 3552 59.5987
53.8084 3559 59.6574
53.9248 3429 58.5577
54.0411 3441 58.66
54.1573 3239 56.9122
54.2735 0 1
54.3896 0 1
54.5057 0 1
54.6217 0 1
54.7377 0 1
54.8537 0 1
54.9695 0 1
55.0853 0 1
55.2011 0 1
55.3168 0 1
55.4324 0 1
57.824 0 1
57.9396 0 1
58.0553 0 1
58.1711 0 1
58.2869 0 1
58.4028 0 1
58.5187 0 1
58.6347 0 1
58.7508 0 1
58.8669 0 1
58.983 2897 53.8238
59.0992 3517 59.3043
59.2155 3869 62.2013
59.3318 4283 65.4446
59.4482 4585 67.7126
59.5646 4983 70.5904
59.681 4895 69.9643
59.7975 5236 72.3602
59.9141 5180 71.9722
60.0306 5062 71.1477
60.1473 5192 72.0555
60.2639 4924 70.1712
60.3807 4751 68.9275
60.4974 4708 68.6149
60.6142 4696 68.5274
60.731 5000 70.7107
60.8479 5307 72.8492
60.9648 5340 73.0753
61.0818 5688 75.4188
61.1987 5715 75.5976
61.3158 5613 74.92
61.4328 5605 74.8665
61.5499 5275 72.6292
61.667 5128 71.6101
61.7841 4776 69.1086
61.9013 4474 66.888
62.0185 4488 66.9925
62.1357 4716 68.6731
62.253 4812 69.3686
62.3702 5320 72.9383
62.4875 5463 73.9121
62.6049 5602 74.8465
62.7222 5632 75.0467
62.8396 5693 75.452
62.9569 5756 75.8683
63.0743 5872 76.629
63.1918 5971 77.2722
63.3092 5617 74.9466
63.4267 5638 75.0866
63.5441 5456 73.8647
63.6616 5170 71.9027
63.7791 4901 70.0071
63.8966 4601 67.8307
64.0142 4422 66.4981
64.1317 4575 67.6387
64.2492 4867 69.7639
64.3668 5174 71.9305
64.4843 5317 72.9178
64.6019 5362 73.2257
64.7195 5418 73.6071
64.837 5585 74.7329
64.9546 5462 73.9053
65.0722 5399 73.4779
65.1898 4905 70.0357
65.3074 4851 69.6491
65.4249 4353 65.9773
65.5425 4155 64.4593
65.6601 4167 64.5523
65.7777 4658 68.2495
65.8952 5004 70.739
66.0128 5314 72.8972
66.1304 5249 72.45
66.2479 5619 74.96
66.3655 5741 75.7694
66.483 5690 75.4321
66.6005 5632 75.0467
66.718 5748 75.8156
66.8355 5599 74.8265
66.953 5450 73.8241
67.0705 5372 73.2939
67.1879 5147 71.7426
67.3054 4869 69.7782
67.4228 4577 67.6535
67.5402 4474 66.888
67.6576 4291 65.5057
67.7749 4500 67.082
67.8923 4641 68.1249
68.0096 4956 70.3989
68.1269 5161 71.8401
68.2442 5358 73.1984
68.3614 5289 72.7255
68.4787 5385 73.3826
68.5958 5316 72.9109
68.713 5131 71.631
68.8302 4874 69.814
68.9473 4614 67.9264
69.0643 4336 65.8483
69.1814 4159 64.4903
69.2984 4170 64.5755
69.4154 4573 67.624
69.5323 4783 69.1592
69.6492 5131 71.631
69.7661 5217 72.2288
69.8829 5171 71.9097
69.9997 5155 71.7983
70.1165 4996 70.6824
70.2332 5011 70.7884
70.3499 4764 69.0217
70.4665 4655 68.2276
70.5831 4386 66.2269
70.6996 4035 63.5216
70.8161 3871 62.2174
70.9326 3590 59.9166
71.049 3062 55.3353
71.1653 2623 51.2152
71.2817 2324 48.2079
71.3979 2112 45.9565
71.5141 2135 46.2061
71.6303 2028 45.0333
71.7464 1750 41.833
71.8624 0 1
71.9784 0 1
72.0944 0 1
72.2102 0 1
72.3261 0 1
72.4418 0 1
72.5575 0 1
72.6732 0 1
75.1054 0 1
75.2209 0 1
75.3365 0 1
75.4521 0 1
75.5678 0 1
75.6835 0 1
75.7993 0 1
75.9151 0 1
76.031 0 1
76.147 3080 55.4977
76.263 3411 58.4038
76.3791 3346 57.8446
76.4952 3253 57.0351
76.6113 3302 57.463
76.7276 3484 59.0254
76.8438 3794 61.5955
76.9601 4139 64.3351
77.0765 4405 66.3702
77.1929 4697 68.5347
77.3093 4546 67.424
77.4258 4609 67.8896
77.5423 4683 68.4324
77.6589 4561 67.5352
77.7755 4128 64.2495
77.8921 3991 63.1744
78.0088 3607 60.0583
78.1256 3436 58.6174
78.2423 3371 58.0603
78.3591 3598 59.9833
78.4759 4018 63.3877
78.5928 4484 66.9627
78.7097 4424 66.5132
78.8266 4465 66.8207
78.9436 4959 70.4202
79.0606 4718 68.6877
79.1776 4804 69.3109
79.2946 4960 70.4273
79.4117 4965 70.4628
79.5288 4800 69.282
79.6459 4668 68.3228
79.7631 4579 67.6683
79.8802 4393 66.2797
79.9974 3941 62.7774
80.1147 3768 61.384
80.2319 3673 60.6053
80.3491 3705 60.8687
80.4664 4055 63.6789
80.5837 4331 65.8103
80.701 4640 68.1175
80.8183 4669 68.3301
80.9357 4796 69.2532
81.053 4719 68.695
81.1704 4881 69.8642
81.2877 4738 68.8331
81.4051 4443 66.6558
81.5225 4179 64.6452
81.6399 3814 61.7576
81.7573 3739 61.1474
81.8747 3519 59.3212
81.9922 3622 60.1831
82.1096 4114 64.1405
82.227 4520 67.2309
82.3444 4590 67.7495
82.4619 4762 69.0072
82.5793 4867 69.7639
82.6967 5040 70.993
82.8142 4877 69.8355
82.9316 5039 70.9859
83.049 5067 71.1829
83.1664 4856 69.685
83.2838 4889 69.9214
83.4012 4812 69.3686
83.5186 4445 66.6708
83.636 4215 64.923
83.7534 3899 62.442
83.8708 3681 60.6712
83.9881 3763 61.3433
84.1055 3944 62.8013
84.2228 4221 64.9692
84.3401 4661 68.2715
84.4575 4800 69.282
84.5747 4934 70.2424
84.692 4852 69.6563
84.8093 4866 69.7567
84.9265 4719 68.695
85.0437 4271 65.3529
85.1609 3906 62.498
85.2781 3785 61.5224
85.3952 3537 59.4727
85.5123 3641 60.3407
85.6294 3937 62.7455
85.7465 4402 66.3476
85.8636 4592 67.7643
85.9806 4789 69.2026
86.0976 4937 70.2638
86.2145 4836 69.5414
86.3315 5015 70.8167
86.4484 4957 70.406
86.5652 5168 71.8888
86.682 5049 71.0563
86.7988 4918 70.1285
86.9156 4815 69.3902
87.0323 4637 68.0955
87.149 4364 66.0606
87.2657 3898 62.434
87.3823 3483 59.0169
87.4988 3355 57.9224
87.6154 3339 57.7841
87.7318 3608 60.0666
87.8483 3877 62.2656
87.9647 4017 63.3798
88.081 4123 64.2106
88.1973 3909 62.522
88.3136 3742 61.1719
88.4298 3426 58.532
88.546 3054 55.263
88.6621 2422 49.2138
88.7781 1973 44.4185
88.8942 0 1
89.0101 0 1
89.126 0 1
89.2419 0 1
89.3577 0 1
89.4734 0 1
89.5891 0 1
89.7047 0 1
89.8203 0 1
89.9358 0 1
92.3269 0 1
92.4424 0 1
92.558 0 1
92.6736 0 1
92.7893 0 1
92.905 0 1
93.0208 0 1
93.1366 0 1
93.2525 0 1
93.3685 0 1
93.4845 0 1
93.6005 3616 60.1332
93.7167 4014 63.3561
93.8328 4108 64.0937
93.949 4232 65.0538
94.0653 4231 65.0461
94.1816 4048 63.6239
94.2979 4033 63.5059
94.4143 3878 62.2736
94.5307 3871 62.2174
94.6472 4004 63.2772
94.7637 4262 65.284
94.8803 4649 68.1836
94.9969 4716 68.6731
95.1135 4956 70.3989
95.2302 5027 70.9013
95.3469 5138 71.6798
95.4637 5249 72.45
95.5805 5210 72.1803
95.6973 5206 72.1526
95.8142 5077 71.2531
95.9311 4929 70.2068
96.048 4908 70.0571
96.1649 4719 68.695
96.2819 4582 67.6905
96.3989 4236 65.0846
96.516 4024 63.435
96.633 3944 62.8013
96.7501 4132 64.2806
96.8673 4105 64.0703
96.9844 4602 67.838
97.1016 4914 70.0999
97.2188 4956 70.3989
97.336 5046 71.0352
97.4532 4944 70.3136
97.5704 4768 69.0507
97.6877 4472 66.873
97.805 4260 65.2687
97.9223 3951 62.857
98.0396 3838 61.9516
98.1569 3782 61.498
98.2743 3963 62.9524
98.3916 4247 65.169
98.509 4559 67.5204
98.6264 4694 68.5128
98.7438 4979 70.562
98.8612 5106 71.4563
98.9786 5158 71.8192
99.096 5352 73.1574
99.2134 5457 73.8715
99.3308 5338 73.0616
99.4482 5566 74.6056
99.5656 5381 73.3553
99.6831 5244 72.4155
99.8005 5149 71.7565
99.9179 4835 69.5342
100.035 4680 68.4105
100.153 4516 67.2012
100.27 4647 68.1689
100.388 5041 71
100.505 5486 74.0675
100.622 5755 75.8617
100.74 5892 76.7594
100.857 6129 78.2879
100.975 6043 77.7367
101.092 6023 77.608
101.209 5790 76.092
101.327 5540 74.4312
101.444 5182 71.9861
101.561 5014 70.8096
101.679 4811 69.3614
101.796 5080 71.2741
101.913 5527 74.3438
102.03 5860 76.5506
102.148 6187 78.6575
102.265 6598 81.2281
102.382 6638 81.4739
102.499 6881 82.9518
102.616 6803 82.4803
102.733 6972 83.4985
102.851 7143 84.5163
102.968 7050 83.9643
103.085 7084 84.1665
103.202 6802 82.4742
103.319 6681 81.7374
103.436 6206 78.7782
103.552 5841 76.4264
103.669 5681 75.3724
103.786 5710 75.5645
103.903 6080 77.9744
104.02 6628 81.4125
104.137 6934 83.2706
104.253 7079 84.1368
104.37 7125 84.4097
104.487 6978 83.5344
104.603 6745 82.1279
104.72 6208 78.7909
104.836 5913 76.896
104.953 5237 72.3671
105.069 4978 70.5549
105.186 4870 69.7854
105.302 4779 69.1303
105.418 4797 69.2604
105.535 4894 69.9571
105.651 4811 69.3614
105.767 4586 67.72
105.883 4326 65.7723
105.999 3917 62.5859
106.115 0 1
106.231 0 1
106.347 0 1
106.463 0 1
106.579 0 1
106.694 0 1
106.81 0 1
106.926 0 1
107.041 0 1
107.157 0 1
109.576 0 1
109.692 0 1
109.807 0 1
109.923 0 1
110.039 0 1
110.155 0 1
110.27 0 1
110.386 0 1
110.502 0 1
110.618 3028 55.0273
110.735 3867 62.1852
110.851 4423 66.5056
110.967 4773 69.0869
111.083 5115 71.5192
111.199 5453 73.8444
111.316 5550 74.4983
111.432 5867 76.5963
111.549 5964 77.2269
111.665 6094 78.0641
111.782 5790 76.092
111.898 5769 75.9539
112.015 5454 73.8512
112.132 4849 69.6348
112.248 4448 66.6933
112.365 4408 66.3928
112.482 4533 67.3276
112.599 4853 69.6635
112.716 5189 72.0347
112.832 5290 72.7324
112.949 5232 72.3326
113.066 5047 71.0422
113.183 5141 71.7008
113.3 4884 69.8856
113.417 4588 67.7348
113.534 4074 63.8279
113.652 3911 62.538
113.769 3775 61.441
113.886 3643 60.3573
114.003 3732 61.0901
114.12 4181 64.6607
114.238 4392 66.2722
114.355 4567 67.5796
114.472 4620 67.9706
114.589 4780 69.1375
114.707 4866 69.7567
114.824 4977 70.5479
114.942 5063 71.1548
115.059 4982 70.5833
115.176 4911 70.0785
115.294 4792 69.2243
115.411 4764 69.0217
115.529 4540 67.3795
115.646 4218 64.9461
115.764 3936 62.7375
115.881 3776 61.4492
115.999 3926 62.6578
116.116 4419 66.4756
116.234 4472 66.873
116.351 4640 68.1175
116.469 4701 68.5638
116.586 4742 68.8622
116.704 4591 67.7569
116.821 4567 67.5796
116.939 4235 65.0769
117.056 4094 63.9844
117.174 3905 62.49
117.291 3670 60.5805
117.409 3548 59.5651
117.526 3656 60.4649
117.644 4012 63.3404
117.761 4241 65.123
117.879 4431 66.5658
117.996 4514 67.1863
118.114 4592 67.7643
118.231 4628 68.0294
118.349 4891 69.9357
118.466 4751 68.9275
118.584 4955 70.3918
118.701 4776 69.1086
118.819 4708 68.6149
118.936 4533 67.3276
119.053 4427 66.5357
119.171 4161 64.5058
119.288 4097 64.0078
119.405 3739 61.1474
119.523 3788 61.5467
119.64 3753 61.2617
119.757 4192 64.7457
119.875 4404 66.3626
119.992 4499 67.0746
120.109 4364 66.0606
120.226 4513 67.1789
120.343 4362 66.0454
120.46 4290 65.4981
120.578 4033 63.5059
120.695 3826 61.8547
120.812 3575 59.7913
120.929 3418 58.4637
121.046 3378 58.1206
121.163 3377 58.112
121.279 3582 59.8498
121.396 3761 61.327
121.513 3899 62.442
121.63 3939 62.7615
121.747 3922 62.6259
121.863 3853 62.0725
121.98 3871 62.2174
122.097 3889 62.3618
122.213 3847 62.0242
122.33 3835 61.9274
122.446 3690 60.7454
122.563 3434 58.6003
122.679 3242 56.9386
122.795 2848 53.3667
122.912 2441 49.4065
123.028 2039 45.1553
123.144 2083 45.6399
123.26 1961 44.2832
123.377 0 1
123.493 0 1
123.609 0 1
123.725 0 1
123.84 0 1
123.956 0 1
124.072 0 1
124.188 0 1
124.303 0 1
124.419 0 1
126.852 0 1
126.968 0 1
127.083 0 1
127.199 0 1
127.315 0 1
127.431 0 1
127.547 0 1
127.663 0 1
127.779 0 1
127.895 0 1
128.011 0 1
128.127 0 1
128.243 0 1
128.359 4206 64.8537
128.476 4150 64.4205
128.592 4157 64.4748
128.708 4206 64.8537
128.825 4638 68.1029
128.941 4839 69.5629
129.058 4799 69.2748
129.174 4895 69.9643
129.291 4863 69.7352
129.408 5011 70.7884
129.524 4954 70.3847
129.641 4481 66.9403
129.758 4290 65.4981
129.875 4017 63.3798
129.992 3935 62.7296
130.108 3809 61.7171
130.225 3849 62.0403
130.342 4167 64.5523
130.459 4286 65.4675
130.576 4721 68.7095
130.693 4675 68.374
130.81 4739 68.8404
130.928 4883 69.8785
131.045 5131 71.631
131.162 4862 69.728
131.279 4847 69.6204
131.396 4897 69.9786
131.513 4908 70.0571
131.631 4997 70.6895
131.748 4677 68.3886
131.865 4400 66.3325
131.983 4193 64.7534
132.1 3917 62.5859
132.217 4149 64.4127
132.335 4439 66.6258
132.452 4645 68.1542
132.57 4817 69.4046
132.687 4603 67.8454
132.804 4822 69.4406
132.922 4783 69.1592
133.039 4809 69.347
133.157 4376 66.1513
133.274 4301 65.582
133.392 4128 64.2495
133.509 3953 62.8729
133.627 3883 62.3137
133.744 3736 61.1228
133.862 4002 63.2614
133.979 4304 65.6049
134.097 4364 66.0606
134.214 4571 67.6092
134.332 4654 68.2202
134.449 4687 68.4617
134.567 4689 68.4763
134.684 4834 69.527
134.802 4863 69.7352
134.919 4876 69.8284
135.037 4780 69.1375
135.154 4765 69.029
135.272 4616 67.9412
135.389 4527 67.283
135.507 4169 64.5678
135.624 4047 63.616
135.742 4144 64.3739
135.859 4442 66.6483
135.977 4590 67.7495
136.094 4712 68.644
136.211 4785 69.1737
136.329 4821 69.4334
136.446 4969 70.4911
136.564 4673 68.3593
136.681 4617 67.9485
136.798 4304 65.6049
136.915 4246 65.1613
137.033 3918 62.5939
137.15 3813 61.7495
137.267 3788 61.5467
137.384 3813 61.7495
137.502 4113 64.1327
137.619 4208 64.8691
137.736 4326 65.7723
137.853 4169 64.5678
137.97 4421 66.4906
138.087 4474 66.888
138.204 4561 67.5352
138.321 4743 68.8694
138.438 4693 68.5055
138.555 4695 68.5201
138.672 4605 67.8602
138.788 4516 67.2012
138.905 4177 64.6297
139.022 3914 62.562
139.139 3683 60.6877
139.255 3378 58.1206
139.372 3317 57.5934
139.488 3396 58.2752
139.605 3727 61.0492
139.721 3545 59.5399
139.838 3397 58.2838
139.954 3180 56.3915
140.071 2936 54.1849
140.187 2698 51.9423
140.303 2458 49.5782
140.419 2310 48.0625
140.535 2180 46.6905
140.652 2001 44.7325
140.768 0 1
140.884 0 1
141 0 1
141.115 0 1
141.231 0 1
141.347 0 1
141.463 0 1
141.578 0 1
141.694 0 1
144.104 0 1
144.219 0 1
144.335 0 1
144.45 0 1
144.566 0 1
144.682 0 1
144.798 0 1
144.914 0 1
145.03 0 1
145.146 3313 57.5587
145.262 3538 59.4811
145.378 3508 59.2284
145.494 3347 57.8533
145.61 3293 57.3847
145.726 3228 56.8155
145.842 3072 55.4256
145.959 2899 53.8424
146.075 2865 53.5257
146.192 2882 53.6843
146.308 2969 54.4885
146.425 3133 55.9732
146.541 3094 55.6237
146.658 3170 56.3028
146.774 3253 57.0351
146.891 3391 58.2323
147.008 3500 59.1608
147.125 3372 58.0689
147.241 3417 58.4551
147.358 3500 59.1608
147.475 3584 59.8665
147.592 3549 59.5735
147.709 3329 57.6975
147.826 3123 55.8838
147.943 2983 54.6168
148.06 2951 54.3231
148.177 2959 54.3967
148.294 3015 54.909
148.411 3386 58.1893
148.528 3457 58.7963
148.645 3404 58.3438
148.762 3384 58.1722
148.88 3387 58.1979
148.997 3410 58.3952
149.114 3404 58.3438
149.231 3129 55.9375
149.349 3128 55.9285
149.466 2917 54.0093
149.583 2954 54.3507
149.701 2786 52.7826
149.818 2737 52.3163
149.935 2787 52.792
150.053 2942 54.2402
150.17 3015 54.909
150.287 3138 56.0179
150.405 3144 56.0714
150.522 3179 56.3826
150.64 3279 57.2626
150.757 3332 57.7235
150.875 3445 58.6941
150.992 3309 57.5239
151.11 3334 57.7408
151.227 3298 57.4282
151.344 3204 56.6039
151.462 3106 55.7315
151.579 3022 54.9727
151.697 2925 54.0833
151.814 2875 53.619
151.932 2973 54.5252
152.049 3154 56.1605
152.167 3340 57.7927
152.284 3381 58.1464
152.402 3378 58.1206
152.519 3288 57.3411
152.636 3269 57.1752
152.754 3088 55.5698
152.871 3063 55.3444
152.989 2919 54.0278
153.106 2869 53.563
153.223 2661 51.5849
153.341 2732 52.2685
153.458 2696 51.923
153.575 2776 52.6878
153.693 2878 53.647
153.81 2956 54.3691
153.927 3019 54.9454
154.044 3067 55.3805
154.162 3075 55.4527
154.279 3137 56.0089
154.396 3234 56.8683
154.513 3224 56.7803
154.63 3160 56.2139
154.747 3241 56.9298
154.864 3149 56.116
154.981 3030 55.0454
155.098 2979 54.5802
155.215 2861 53.4883
155.332 2703 51.9904
155.449 2800 52.915
155.566 2983 54.6168
155.683 3045 55.1815
155.8 2950 54.3139
155.917 2952 54.3323
156.033 2866 53.535
156.15 0 1
156.267 0 1
156.383 0 1
156.5 0 1
156.617 0 1
156.733 0 1
156.85 0 1
156.966 0 1
157.082 0 1
157.199 0 1
157.315 0 1
157.431 0 1
157.547 0 1
157.664 0 1
157.78 0 1
157.896 0 1
158.012 0 1
158.128 0 1
158.244 0 1
158.359 0 1
158.475 0 1
158.591 0 1
158.706 0 1
