
6.15755 0 1
6.2731 0 1
6.3887 0 1
6.50437 0 1
6.62009 0 1
6.73587 0 1
6.8517 0 1
6.96759 0 1
7.08353 0 1
7.19952 0 1
7.31557 0 1
7.43166 0 1
7.54781 0 1
7.664 0 1
7.78024 0 1
7.89653 0 1
8.01286 0 1
8.12924 0 1
8.24567 0 1
8.36213 0 1
8.47864 0 1
8.59519 0 1
8.71178 0 1
8.82841 0 1
8.94508 0 1
9.06179 0 1
9.17853 0 1
9.29531 0 1
9.41212 0 1
9.52897 0 1
9.64584 0 1
9.76276 0 1
9.8797 0 1
9.99667 0 1
10.1137 0 1
10.2307 0 1
10.3478 0 1
10.4648 0 1
10.5819 0 1
10.6991 0 1
10.8162 0 1
10.9334 0 1
11.0506 0 1
11.1678 0 1
11.285 0 1
11.4023 0 1
11.5196 0 1
11.6369 0 1
11.7542 0 1
11.8715 0 1
11.9888 0 1
12.1062 0 1
12.2235 0 1
12.3409 0 1
12.4582 0 1
12.5756 0 1
12.693 0 1
12.8104 0 1
12.9278 0 1
13.0452 0 1
13.1626 0 1
13.28 0 1
13.3974 0 1
13.5149 0 1
13.6323 0 1
13.7497 0 1
13.8671 0 1
13.9845 0 1
14.1019 0 1
14.2193 0 1
14.3367 0 1
14.4541 0 1
14.5714 0 1
14.6888 0 1
14.8062 0 1
14.9235 0 1
15.0408 977 31.257
15.1581 1008 31.749
15.2755 1033 32.1403
15.3927 1047 32.3574
15.51 1070 32.7109
15.6273 1058 32.5269
15.7445 1061 32.573
15.8617 1028 32.0624
15.9789 1058 32.5269
16.0961 999 31.607
16.2132 1040 32.249
16.3304 1077 32.8177
16.4475 1030 32.0936
16.5646 1138 33.7343
16.6816 1224 34.9857
16.7986 1192 34.5254
16.9156 1288 35.8887
17.0326 1281 35.7911
17.1496 1189 34.4819
17.2665 1327 36.428
17.3833 1262 35.5246
17.5002 1175 34.2783
17.617 1145 33.8378
17.7338 1072 32.7414
17.8505 1115 33.3916
17.9672 1108 33.2866
18.0839 1042 32.28
18.2005 1086 32.9545
18.3171 1122 33.4963
18.4337 1112 33.3467
18.5502 1172 34.2345
18.6666 1161 34.0735
18.7831 1212 34.8138
18.8994 1220 34.9285
19.0158 1210 34.7851
19.1321 1185 34.4238
19.2483 1123 33.5112
19.3645 1035 32.1714
19.4806 1000 31.6228
19.5967 905 30.0832
19.7128 869 29.4788
19.8288 822 28.6705
19.9447 710 26.6458
20.0606 0 1
20.1764 0 1
20.2922 0 1
20.4079 0 1
20.5236 0 1
20.6392 0 1
20.7548 0 1
20.8702 0 1
23.3078 0 1
23.4233 0 1
23.539 0 1
23.6547 0 1
23.7704 0 1
23.8862 0 1
24.0021 0 1
24.118 0 1
24.234 0 1
24.35 0 1
24.4661 498 22.3159
24.5822 595 24.3926
24.6984 648 25.4558
24.8146 768 27.7128
24.9309 814 28.5307
25.0472 840 28.9828
25.1636 983 31.3528
25.28 1015 31.8591
25.3965 1103 33.2114
25.513 1226 35.0143
25.6296 1156 34
25.7462 1298 36.0278
25.8628 1369 37
25.9795 1386 37.229
26.0962 1351 36.756
26.213 1284 35.8329
26.3298 1165 34.1321
26.4466 1148 33.8821
26.5635 1104 33.2265
26.6804 1131 33.6303
26.7973 1160 34.0588
26.9143 1176 34.2929
27.0313 1213 34.8281
27.1483 1186 34.4384
27.2653 1148 33.8821
27.3824 1274 35.6931
27.4996 1247 35.3129
27.6167 1263 35.5387
27.7339 1205 34.7131
27.8511 1170 34.2053
27.9683 1190 34.4964
28.0855 1108 33.2866
28.2028 1093 33.0606
28.3201 1077 32.8177
28.4374 1088 32.9848
28.5547 1036 32.187
28.6721 1096 33.1059
28.7894 1139 33.7491
28.9068 1157 34.0147
29.0242 1255 35.426
29.1416 1282 35.805
29.259 1263 35.5387
29.3764 1292 35.9444
29.4939 1255 35.426
29.6113 1296 36
29.7288 1208 34.7563
29.8463 1149 33.8969
29.9638 1099 33.1512
30.0812 1063 32.6037
30.1987 1107 33.2716
30.3162 1145 33.8378
30.4337 1163 34.1028
30.5512 1138 33.7343
30.6687 1201 34.6554
30.7862 1088 32.9848
30.9037 1123 33.5112
31.0212 1240 35.2136
31.1387 1229 35.0571
31.2562 1236 35.1568
31.3737 1200 34.641
31.4912 1189 34.4819
31.6087 1156 34
31.7262 1120 33.4664
31.8436 1021 31.9531
31.9611 1016 31.8748
32.0785 986 31.4006
32.1959 1060 32.5576
32.3134 1125 33.541
32.4308 1118 33.4365
32.5482 1188 34.4674
32.6655 1209 34.7707
32.7829 1245 35.2846
32.9002 1212 34.8138
33.0176 1219 34.9142
33.1349 1202 34.6699
33.2522 1213 34.8281
33.3694 1140 33.7639
33.4867 1103 33.2114
33.6039 1024 32
33.7211 979 31.289
33.8383 987 31.4166
33.9554 1019 31.9218
34.0725 1095 33.0908
34.1896 1149 33.8969
34.3067 1117 33.4215
34.4237 1135 33.6898
34.5407 1157 34.0147
34.6577 1213 34.8281
34.7746 1180 34.3511
34.8915 1167 34.1614
35.0084 1141 33.7787
35.1252 1118 33.4365
35.242 1065 32.6343
35.3587 1055 32.4808
35.4755 1063 32.6037
35.5921 996 31.5595
35.7088 919 30.315
35.8254 1062 32.5883
35.9419 944 30.7246
36.0584 1056 32.4962
36.1749 1064 32.619
36.2913 1079 32.8481
36.4077 1067 32.665
36.524 1090 33.0151
36.6403 1048 32.3728
36.7565 976 31.241
36.8727 997 31.5753
36.9889 821 28.6531
37.1049 799 28.2666
37.221 0 1
37.3369 0 1
37.4529 0 1
37.5687 0 1
37.6845 0 1
37.8003 0 1
37.916 0 1
38.0316 0 1
38.1472 0 1
40.5851 0 1
40.7008 0 1
40.8164 0 1
40.9322 0 1
41.048 0 1
41.1639 0 1
41.2798 0 1
41.3958 0 1
41.5118 0 1
41.6279 0 1
41.744 490 22.1359
41.8602 617 24.8395
41.9765 701 26.4764
42.0928 767 27.6948
42.2091 658 25.6515
42.3255 669 25.865
42.4419 738 27.1662
42.5584 679 26.0576
42.675 706 26.5707
42.7915 796 28.2135
42.9081 878 29.6311
43.0248 897 29.95
43.1415 937 30.6105
43.2582 904 30.0666
43.375 960 30.9839
43.4918 941 30.6757
43.6087 955 30.9031
43.7256 972 31.1769
43.8425 915 30.249
43.9595 963 31.0322
44.0765 951 30.8383
44.1935 914 30.2324
44.3106 802 28.3196
44.4277 858 29.2916
44.5448 767 27.6948
44.6619 840 28.9828
44.7791 845 29.0689
44.8963 870 29.4958
45.0136 914 30.2324
45.1308 983 31.3528
45.2481 961 31
45.3654 1032 32.1248
45.4827 977 31.257
45.6001 971 31.1609
45.7174 952 30.8545
45.8348 884 29.7321
45.9522 851 29.1719
46.0697 813 28.5132
46.1871 779 27.9106
46.3046 811 28.4781
46.422 895 29.9166
46.5395 878 29.6311
46.657 920 30.3315
46.7745 944 30.7246
46.892 945 30.7409
47.0096 942 30.692
47.1271 1011 31.7962
47.2446 977 31.257
47.3622 986 31.4006
47.4797 972 31.1769
47.5973 934 30.5614
47.7149 909 30.1496
47.8324 911 30.1828
47.95 860 29.3258
48.0675 825 28.7228
48.1851 816 28.5657
48.3027 898 29.9666
48.4202 891 29.8496
48.5378 954 30.8869
48.6554 1032 32.1248
48.7729 1030 32.0936
48.8904 1030 32.0936
49.008 1061 32.573
49.1255 1036 32.187
49.243 933 30.545
49.3605 896 29.9333
49.478 840 28.9828
49.5955 818 28.6007
49.713 760 27.5681
49.8304 839 28.9655
49.9479 837 28.931
50.0653 879 29.6479
50.1827 922 30.3645
50.3001 959 30.9677
50.4175 982 31.3369
50.5348 1033 32.1403
50.6521 1049 32.3883
50.7694 1058 32.5269
50.8867 1043 32.2955
51.004 1021 31.9531
51.1212 1073 32.7567
51.2384 1033 32.1403
51.3556 983 31.3528
51.4727 974 31.209
51.5899 916 30.2655
51.707 886 29.7658
51.824 954 30.8869
51.9411 1114 33.3766
52.0581 1212 34.8138
52.175 1287 35.8748
52.2919 1394 37.3363
52.4088 1373 37.054
52.5257 1437 37.9078
52.6425 1432 37.8418
52.7593 1398 37.3898
52.876 1421 37.6962
52.9927 1311 36.2077
53.1094 1236 35.1568
53.226 1240 35.2136
53.3426 1192 34.5254
53.4591 1212 34.8138
53.5756 1221 34.9428
53.692 1212 34.8138
53.8084 1196 34.5832
53.9248 1117 33.4215
54.0411 1095 33.0908
54.1573 1075 32.7872
54.2735 0 1
54.3896 0 1
54.5057 0 1
54.6217 0 1
54.7377 0 1
54.8537 0 1
54.9695 0 1
55.0853 0 1
55.2011 0 1
55.3168 0 1
55.4324 0 1
57.824 0 1
57.9396 0 1
58.0553 0 1
58.1711 0 1
58.2869 0 1
58.4028 0 1
58.5187 0 1
58.6347 0 1
58.7508 0 1
58.8669 0 1
58.983 761 27.5862
59.0992 853 29.2062
59.2155 957 30.9354
59.3318 1001 31.6386
59.4482 1049 32.3883
59.5646 1157 34.0147
59.681 1163 34.1028
59.7975 1128 33.5857
59.9141 1135 33.6898
60.0306 1096 33.1059
60.1473 1081 32.8786
60.2639 1038 32.218
60.3807 1003 31.6702
60.4974 1035 32.1714
60.6142 1094 33.0757
60.731 1122 33.4963
60.8479 1164 34.1174
60.9648 1249 35.3412
61.0818 1294 35.9722
61.1987 1301 36.0694
61.3158 1245 35.2846
61.4328 1185 34.4238
61.5499 1101 33.1813
61.667 1092 33.0454
61.7841 1017 31.8904
61.9013 1003 31.6702
62.0185 948 30.7896
62.1357 1030 32.0936
62.253 1115 33.3916
62.3702 1142 33.7935
62.4875 1132 33.6452
62.6049 1168 34.176
62.7222 1215 34.8569
62.8396 1225 35
62.9569 1245 35.2846
63.0743 1235 35.1426
63.1918 1267 35.5949
63.3092 1168 34.176
63.4267 1194 34.5543
63.5441 1082 32.8938
63.6616 1123 33.5112
63.7791 1055 32.4808
63.8966 1032 32.1248
64.0142 989 31.4484
64.1317 1020 31.9374
64.2492 1114 33.3766
64.3668 1208 34.7563
64.4843 1245 35.2846
64.6019 1214 34.8425
64.7195 1239 35.1994
64.837 1211 34.7994
64.9546 1187 34.4529
65.0722 1169 34.1906
65.1898 1132 33.6452
65.3074 986 31.4006
65.4249 948 30.7896
65.5425 939 30.6431
65.6601 911 30.1828
65.7777 981 31.3209
65.8952 1052 32.4345
66.0128 1083 32.909
66.1304 1156 34
66.2479 1169 34.1906
66.3655 1285 35.8469
66.483 1185 34.4238
66.6005 1191 34.5109
66.718 1226 35.0143
66.8355 1188 34.4674
66.953 1181 34.3657
67.0705 1144 33.8231
67.1879 1121 33.4813
67.3054 1016 31.8748
67.4228 1019 31.9218
67.5402 921 30.348
67.6576 974 31.209
67.7749 1040 32.249
67.8923 1081 32.8786
68.0096 1054 32.4654
68.1269 1203 34.6843
68.2442 1213 34.8281
68.3614 1236 35.1568
68.4787 1164 34.1174
68.5958 1157 34.0147
68.713 1145 33.8378
68.8302 1076 32.8024
68.9473 1028 32.0624
69.0643 941 30.6757
69.1814 862 29.3598
69.2984 917 30.282
69.4154 907 30.1164
69.5323 1013 31.8277
69.6492 1114 33.3766
69.7661 1122 33.4963
69.8829 1085 32.9393
69.9997 1073 32.7567
70.1165 1058 32.5269
70.2332 995 31.5436
70.3499 1024 32
70.4665 964 31.0483
70.5831 904 30.0666
70.6996 875 29.5804
70.8161 840 28.9828
70.9326 737 27.1477
71.049 649 25.4755
71.1653 543 23.3024
71.2817 498 22.3159
71.3979 414 20.347
71.5141 438 20.9284
71.6303 446 21.1187
71.7464 366 19.1311
71.8624 0 1
71.9784 0 1
72.0944 0 1
72.2102 0 1
72.3261 0 1
72.4418 0 1
72.5575 0 1
72.6732 0 1
75.1054 0 1
75.2209 0 1
75.3365 0 1
75.4521 0 1
75.5678 0 1
75.6835 0 1
75.7993 0 1
75.9151 0 1
76.031 0 1
76.147 695 26.3629
76.263 714 26.7208
76.3791 751 27.4044
76.4952 771 27.7669
76.6113 737 27.1477
76.7276 797 28.2312
76.8438 878 29.6311
76.9601 993 31.5119
77.0765 1086 32.9545
77.1929 1040 32.249
77.3093 1099 33.1512
77.4258 981 31.3209
77.5423 1084 32.9242
77.6589 1003 31.6702
77.7755 905 30.0832
77.8921 890 29.8329
78.0088 754 27.4591
78.1256 747 27.3313
78.2423 779 27.9106
78.3591 769 27.7308
78.4759 841 29
78.5928 903 30.05
78.7097 975 31.225
78.8266 984 31.3688
78.9436 1046 32.3419
79.0606 979 31.289
79.1776 1093 33.0606
79.2946 1017 31.8904
79.4117 1089 33
79.5288 1028 32.0624
79.6459 1028 32.0624
79.7631 1073 32.7567
79.8802 1050 32.4037
79.9974 957 30.9354
80.1147 859 29.3087
80.2319 791 28.1247
80.3491 867 29.4449
80.4664 862 29.3598
80.5837 951 30.8383
80.701 1022 31.9687
80.8183 1072 32.7414
80.9357 1069 32.6956
81.053 1045 32.3265
81.1704 984 31.3688
81.2877 1081 32.8786
81.4051 1047 32.3574
81.5225 1038 32.218
81.6399 921 30.348
81.7573 796 28.2135
81.8747 750 27.3861
81.9922 728 26.9815
82.1096 784 28
82.227 904 30.0666
82.3444 1011 31.7962
82.4619 1045 32.3265
82.5793 1066 32.6497
82.6967 1072 32.7414
82.8142 1043 32.2955
82.9316 1125 33.541
83.049 1099 33.1512
83.1664 1107 33.2716
83.2838 1040 32.249
83.4012 1047 32.3574
83.5186 1062 32.5883
83.636 966 31.0805
83.7534 946 30.7571
83.8708 889 29.8161
83.9881 863 29.3769
84.1055 816 28.5657
84.2228 899 29.9833
84.3401 976 31.241
84.4575 1096 33.1059
84.5747 1074 32.7719
84.692 1079 32.8481
84.8093 1116 33.4066
84.9265 1104 33.2265
85.0437 1076 32.8024
85.1609 894 29.8998
85.2781 851 29.1719
85.3952 815 28.5482
85.5123 824 28.7054
85.6294 727 26.9629
85.7465 841 29
85.8636 984 31.3688
85.9806 980 31.305
86.0976 1064 32.619
86.2145 1036 32.187
86.3315 1122 33.4963
86.4484 1120 33.4664
86.5652 1125 33.541
86.682 1097 33.121
86.7988 1130 33.6155
86.9156 1071 32.7261
87.0323 1071 32.7261
87.149 1044 32.311
87.2657 993 31.5119
87.3823 905 30.0832
87.4988 755 27.4773
87.6154 774 27.8209
87.7318 750 27.3861
87.8483 782 27.9643
87.9647 877 29.6142
88.081 794 28.178
88.1973 834 28.8791
88.3136 785 28.0179
88.4298 782 27.9643
88.546 741 27.2213
88.6621 667 25.8263
88.7781 538 23.1948
88.8942 0 1
89.0101 0 1
89.126 0 1
89.2419 0 1
89.3577 0 1
89.4734 0 1
89.5891 0 1
89.7047 0 1
89.8203 0 1
89.9358 0 1
92.3269 0 1
92.4424 0 1
92.558 0 1
92.6736 0 1
92.7893 0 1
92.905 0 1
93.0208 0 1
93.1366 0 1
93.2525 0 1
93.3685 0 1
93.4845 0 1
93.6005 783 27.9821
93.7167 903 30.05
93.8328 937 30.6105
93.949 924 30.3974
94.0653 927 30.4467
94.1816 980 31.305
94.2979 979 31.289
94.4143 916 30.2655
94.5307 828 28.775
94.6472 840 28.9828
94.7637 821 28.6531
94.8803 824 28.7054
94.9969 958 30.9516
95.1135 1007 31.7333
95.2302 998 31.5911
95.3469 1112 33.3467
95.4637 1094 33.0757
95.5805 1161 34.0735
95.6973 1127 33.5708
95.8142 1090 33.0151
95.9311 1149 33.8969
96.048 1059 32.5423
96.1649 1085 32.9393
96.2819 1071 32.7261
96.3989 1014 31.8434
96.516 998 31.5911
96.633 893 29.8831
96.7501 864 29.3939
96.8673 870 29.4958
96.9844 943 30.7083
97.1016 1002 31.6544
97.2188 1012 31.8119
97.336 1132 33.6452
97.4532 1135 33.6898
97.5704 1182 34.3802
97.6877 1086 32.9545
97.805 1098 33.1361
97.9223 1056 32.4962
98.0396 942 30.692
98.1569 880 29.6648
98.2743 838 28.9482
98.3916 828 28.775
98.509 840 28.9828
98.6264 906 30.0998
98.7438 962 31.0161
98.8612 1067 32.665
98.9786 1158 34.0294
99.096 1121 33.4813
99.2134 1111 33.3317
99.3308 1139 33.7491
99.4482 1226 35.0143
99.5656 1209 34.7707
99.6831 1131 33.6303
99.8005 1134 33.6749
99.9179 1125 33.541
100.035 1054 32.4654
100.153 1021 31.9531
100.27 940 30.6594
100.388 981 31.3209
100.505 998 31.5911
100.622 1005 31.7017
100.74 1129 33.6006
100.857 1178 34.322
100.975 1235 35.1426
101.092 1187 34.4529
101.209 1298 36.0278
101.327 1194 34.5543
101.444 1163 34.1028
101.561 1111 33.3317
101.679 1073 32.7567
101.796 916 30.2655
101.913 859 29.3087
102.03 861 29.3428
102.148 987 31.4166
102.265 1117 33.4215
102.382 1124 33.5261
102.499 1118 33.4365
102.616 1243 35.2562
102.733 1232 35.0999
102.851 1308 36.1663
102.968 1167 34.1614
103.085 1236 35.1568
103.202 1196 34.5832
103.319 1237 35.171
103.436 1205 34.7131
103.552 1135 33.6898
103.669 1091 33.0303
103.786 998 31.5911
103.903 1064 32.619
104.02 1025 32.0156
104.137 1105 33.2415
104.253 1156 34
104.37 1268 35.609
104.487 1308 36.1663
104.603 1276 35.7211
104.72 1259 35.4824
104.836 1273 35.6791
104.953 1079 32.8481
105.069 982 31.3369
105.186 943 30.7083
105.302 805 28.3725
105.418 810 28.4605
105.535 769 27.7308
105.651 832 28.8444
105.767 823 28.688
105.883 812 28.4956
105.999 737 27.1477
106.115 0 1
106.231 0 1
106.347 0 1
106.463 0 1
106.579 0 1
106.694 0 1
106.81 0 1
106.926 0 1
107.041 0 1
107.157 0 1
109.576 0 1
109.692 0 1
109.807 0 1
109.923 0 1
110.039 0 1
110.155 0 1
110.27 0 1
110.386 0 1
110.502 0 1
110.618 515 22.6936
110.735 713 26.7021
110.851 788 28.0713
110.967 910 30.1662
111.083 985 31.3847
111.199 1037 32.2025
111.316 1131 33.6303
111.432 1111 33.3317
111.549 1130 33.6155
111.665 1149 33.8969
111.782 1179 34.3366
111.898 1181 34.3657
112.015 1090 33.0151
112.132 1110 33.3167
112.248 1005 31.7017
112.365 955 30.9031
112.482 1018 31.9061
112.599 1020 31.9374
112.716 1100 33.1662
112.832 1193 34.5398
112.949 1241 35.2278
113.066 1229 35.0571
113.183 1188 34.4674
113.3 1274 35.6931
113.417 1213 34.8281
113.534 1177 34.3074
113.652 1015 31.8591
113.769 1008 31.749
113.886 901 30.0167
114.003 818 28.6007
114.12 880 29.6648
114.238 1038 32.218
114.355 1151 33.9264
114.472 1088 32.9848
114.589 1208 34.7563
114.707 1191 34.5109
114.824 1175 34.2783
114.942 1222 34.9571
115.059 1202 34.6699
115.176 1295 35.9861
115.294 1254 35.4119
115.411 1148 33.8821
115.529 1213 34.8281
115.646 1185 34.4238
115.764 1085 32.9393
115.881 1063 32.6037
115.999 1027 32.0468
116.116 962 31.0161
116.234 1147 33.8674
116.351 1110 33.3167
116.469 1228 35.0428
116.586 1211 34.7994
116.704 1236 35.1568
116.821 1283 35.819
116.939 1274 35.6931
117.056 1164 34.1174
117.174 1088 32.9848
117.291 1091 33.0303
117.409 961 31
117.526 857 29.2746
117.644 868 29.4618
117.761 962 31.0161
117.879 965 31.0644
117.996 1088 32.9848
118.114 1127 33.5708
118.231 1205 34.7131
118.349 1100 33.1662
118.466 1143 33.8083
118.584 1167 34.1614
118.701 1210 34.7851
118.819 1197 34.5977
118.936 1110 33.3167
119.053 1108 33.2866
119.171 1043 32.2955
119.288 1066 32.6497
119.405 1030 32.0936
119.523 962 31.0161
119.64 860 29.3258
119.757 950 30.8221
119.875 982 31.3369
119.992 1021 31.9531
120.109 1044 32.311
120.226 1061 32.573
120.343 1075 32.7872
120.46 1089 33
120.578 1098 33.1361
120.695 1109 33.3017
120.812 1027 32.0468
120.929 966 31.0805
121.046 849 29.1376
121.163 827 28.7576
121.279 754 27.4591
121.396 814 28.5307
121.513 817 28.5832
121.63 809 28.4429
121.747 848 29.1204
121.863 837 28.931
121.98 905 30.0832
122.097 865 29.4109
122.213 873 29.5466
122.33 839 28.9655
122.446 824 28.7054
122.563 846 29.0861
122.679 766 27.6767
122.795 701 26.4764
122.912 607 24.6374
123.028 567 23.8118
123.144 467 21.6102
123.26 464 21.5407
123.377 0 1
123.493 0 1
123.609 0 1
123.725 0 1
123.84 0 1
123.956 0 1
124.072 0 1
124.188 0 1
124.303 0 1
124.419 0 1
126.852 0 1
126.968 0 1
127.083 0 1
127.199 0 1
127.315 0 1
127.431 0 1
127.547 0 1
127.663 0 1
127.779 0 1
127.895 0 1
128.011 0 1
128.127 0 1
128.243 0 1
128.359 1010 31.7805
128.476 997 31.5753
128.592 1056 32.4962
128.708 987 31.4166
128.825 1080 32.8634
128.941 1110 33.3167
129.058 1106 33.2566
129.174 1132 33.6452
129.291 1152 33.9411
129.408 1226 35.0143
129.524 1219 34.9142
129.641 1202 34.6699
129.758 1168 34.176
129.875 1122 33.4963
129.992 1064 32.619
130.108 1013 31.8277
130.225 876 29.5973
130.342 915 30.249
130.459 909 30.1496
130.576 1060 32.5576
130.693 1146 33.8526
130.81 1118 33.4365
130.928 1154 33.9706
131.045 1121 33.4813
131.162 1145 33.8378
131.279 1193 34.5398
131.396 1169 34.1906
131.513 1218 34.8999
131.631 1186 34.4384
131.748 1184 34.4093
131.865 1110 33.3167
131.983 1129 33.6006
132.1 1066 32.6497
132.217 1064 32.619
132.335 1074 32.7719
132.452 1106 33.2566
132.57 1153 33.9559
132.687 1180 34.3511
132.804 1197 34.5977
132.922 1208 34.7563
133.039 1195 34.5688
133.157 1179 34.3366
133.274 1268 35.609
133.392 1171 34.2199
133.509 1081 32.8786
133.627 973 31.1929
133.744 910 30.1662
133.862 909 30.1496
133.979 968 31.1127
134.097 967 31.0966
134.214 1037 32.2025
134.332 1092 33.0454
134.449 1138 33.7343
134.567 1201 34.6554
134.684 1185 34.4238
134.802 1222 34.9571
134.919 1232 35.0999
135.037 1218 34.8999
135.154 1185 34.4238
135.272 1250 35.3553
135.389 1170 34.2053
135.507 1118 33.4365
135.624 1068 32.6803
135.742 1043 32.2955
135.859 1083 32.909
135.977 1073 32.7567
136.094 1048 32.3728
136.211 1104 33.2265
136.329 1187 34.4529
136.446 1176 34.2929
136.564 1252 35.3836
136.681 1286 35.8608
136.798 1256 35.4401
136.915 1229 35.0571
137.033 1139 33.7491
137.15 1110 33.3167
137.267 1009 31.7648
137.384 946 30.7571
137.502 916 30.2655
137.619 847 29.1033
137.736 980 31.305
137.853 1019 31.9218
137.97 1127 33.5708
138.087 1122 33.4963
138.204 1117 33.4215
138.321 1176 34.2929
138.438 1190 34.4964
138.555 1252 35.3836
138.672 1226 35.0143
138.788 1073 32.7567
138.905 1070 32.7109
139.022 1017 31.8904
139.139 964 31.0483
139.255 894 29.8998
139.372 880 29.6648
139.488 779 27.9106
139.605 848 29.1204
139.721 754 27.4591
139.838 773 27.8029
139.954 781 27.9464
140.071 808 28.4253
140.187 703 26.5141
140.303 652 25.5343
140.419 669 25.865
140.535 582 24.1247
140.652 537 23.1733
140.768 0 1
140.884 0 1
141 0 1
141.115 0 1
141.231 0 1
141.347 0 1
141.463 0 1
141.578 0 1
141.694 0 1
144.104 0 1
144.219 0 1
144.335 0 1
144.45 0 1
144.566 0 1
144.682 0 1
144.798 0 1
144.914 0 1
145.03 0 1
145.146 878 29.6311
145.262 909 30.1496
145.378 966 31.0805
145.494 930 30.4959
145.61 1028 32.0624
145.726 1005 31.7017
145.842 881 29.6816
145.959 887 29.7825
146.075 792 28.1425
146.192 791 28.1247
146.308 768 27.7128
146.425 748 27.3496
146.541 789 28.0891
146.658 911 30.1828
146.774 863 29.3769
146.891 890 29.8329
147.008 904 30.0666
147.125 960 30.9839
147.241 925 30.4138
147.358 993 31.5119
147.475 978 31.273
147.592 989 31.4484
147.709 907 30.1164
147.826 916 30.2655
147.943 934 30.5614
148.06 776 27.8568
148.177 817 28.5832
148.294 819 28.6182
148.411 842 29.0172
148.528 822 28.6705
148.645 923 30.3809
148.762 967 31.0966
148.88 983 31.3528
148.997 1035 32.1714
149.114 949 30.8058
149.231 960 30.9839
149.349 1002 31.6544
149.466 899 29.9833
149.583 850 29.1548
149.701 831 28.8271
149.818 744 27.2764
149.935 754 27.4591
150.053 745 27.2947
150.17 824 28.7054
150.287 788 28.0713
150.405 811 28.4781
150.522 858 29.2916
150.64 887 29.7825
150.757 921 30.348
150.875 926 30.4302
150.992 874 29.5635
151.11 938 30.6268
151.227 897 29.95
151.344 904 30.0666
151.462 877 29.6142
151.579 877 29.6142
151.697 778 27.8927
151.814 833 28.8617
151.932 811 28.4781
152.049 788 28.0713
152.167 778 27.8927
152.284 882 29.6985
152.402 885 29.7489
152.519 967 31.0966
152.636 896 29.9333
152.754 886 29.7658
152.871 949 30.8058
152.989 899 29.9833
153.106 859 29.3087
153.223 781 27.9464
153.341 760 27.5681
153.458 707 26.5895
153.575 733 27.074
153.693 686 26.1916
153.81 770 27.7489
153.927 715 26.7395
154.044 821 28.6531
154.162 818 28.6007
154.279 846 29.0861
154.396 854 29.2233
154.513 844 29.0517
154.63 863 29.3769
154.747 847 29.1033
154.864 815 28.5482
154.981 868 29.4618
155.098 751 27.4044
155.215 790 28.1069
155.332 773 27.8029
155.449 756 27.4955
155.566 706 26.5707
155.683 737 27.1477
155.8 698 26.4197
155.917 726 26.9444
156.033 738 27.1662
156.15 0 1
156.267 0 1
156.383 0 1
156.5 0 1
156.617 0 1
156.733 0 1
156.85 0 1
156.966 0 1
157.082 0 1
157.199 0 1
157.315 0 1
157.431 0 1
157.547 0 1
157.664 0 1
157.78 0 1
157.896 0 1
158.012 0 1
158.128 0 1
158.244 0 1
158.359 0 1
158.475 0 1
158.591 0 1
158.706 0 1
