
6.15755 0 1
6.2731 0 1
6.3887 0 1
6.50437 0 1
6.62009 0 1
6.73587 0 1
6.8517 0 1
6.96759 0 1
7.08353 0 1
7.19952 0 1
7.31557 0 1
7.43166 0 1
7.54781 0 1
7.664 0 1
7.78024 0 1
7.89653 0 1
8.01286 0 1
8.12924 0 1
8.24567 0 1
8.36213 0 1
8.47864 0 1
8.59519 0 1
8.71178 0 1
8.82841 0 1
8.94508 0 1
9.06179 0 1
9.17853 0 1
9.29531 0 1
9.41212 0 1
9.52897 0 1
9.64584 0 1
9.76276 0 1
9.8797 0 1
9.99667 0 1
10.1137 0 1
10.2307 0 1
10.3478 0 1
10.4648 0 1
10.5819 0 1
10.6991 0 1
10.8162 0 1
10.9334 0 1
11.0506 0 1
11.1678 0 1
11.285 0 1
11.4023 0 1
11.5196 0 1
11.6369 0 1
11.7542 0 1
11.8715 0 1
11.9888 0 1
12.1062 0 1
12.2235 0 1
12.3409 0 1
12.4582 0 1
12.5756 0 1
12.693 0 1
12.8104 0 1
12.9278 0 1
13.0452 0 1
13.1626 0 1
13.28 0 1
13.3974 0 1
13.5149 0 1
13.6323 0 1
13.7497 0 1
13.8671 0 1
13.9845 0 1
14.1019 0 1
14.2193 0 1
14.3367 0 1
14.4541 0 1
14.5714 0 1
14.6888 0 1
14.8062 0 1
14.9235 0 1
15.0408 720 26.8328
15.1581 786 28.0357
15.2755 767 27.6948
15.3927 727 26.9629
15.51 828 28.775
15.6273 701 26.4764
15.7445 708 26.6083
15.8617 716 26.7582
15.9789 676 26
16.0961 695 26.3629
16.2132 666 25.807
16.3304 683 26.1343
16.4475 695 26.3629
16.5646 660 25.6905
16.6816 649 25.4755
16.7986 590 24.2899
16.9156 645 25.3969
17.0326 648 25.4558
17.1496 609 24.6779
17.2665 641 25.318
17.3833 620 24.8998
17.5002 602 24.5357
17.617 605 24.5967
17.7338 638 25.2587
17.8505 667 25.8263
17.9672 650 25.4951
18.0839 614 24.779
18.2005 557 23.6008
18.3171 561 23.6854
18.4337 624 24.98
18.5502 632 25.1396
18.6666 656 25.6125
18.7831 623 24.96
18.8994 625 25
19.0158 612 24.7386
19.1321 581 24.1039
19.2483 601 24.5153
19.3645 540 23.2379
19.4806 451 21.2368
19.5967 445 21.095
19.7128 499 22.3383
19.8288 484 22
19.9447 410 20.2485
20.0606 0 1
20.1764 0 1
20.2922 0 1
20.4079 0 1
20.5236 0 1
20.6392 0 1
20.7548 0 1
20.8702 0 1
23.3078 0 1
23.4233 0 1
23.539 0 1
23.6547 0 1
23.7704 0 1
23.8862 0 1
24.0021 0 1
24.118 0 1
24.234 0 1
24.35 0 1
24.4661 248 15.748
24.5822 275 16.5831
24.6984 339 18.412
24.8146 422 20.5426
24.9309 512 22.6274
25.0472 513 22.6495
25.1636 611 24.7184
25.28 653 25.5539
25.3965 670 25.8844
25.513 653 25.5539
25.6296 679 26.0576
25.7462 704 26.533
25.8628 694 26.3439
25.9795 714 26.7208
26.0962 611 24.7184
26.213 630 25.0998
26.3298 672 25.923
26.4466 631 25.1197
26.5635 560 23.6643
26.6804 553 23.516
26.7973 514 22.6716
26.9143 521 22.8254
27.0313 502 22.4054
27.1483 499 22.3383
27.2653 558 23.622
27.3824 580 24.0832
27.4996 575 23.9792
27.6167 546 23.3666
27.7339 609 24.6779
27.8511 620 24.8998
27.9683 568 23.8328
28.0855 578 24.0416
28.2028 563 23.7276
28.3201 600 24.4949
28.4374 622 24.9399
28.5547 619 24.8797
28.6721 656 25.6125
28.7894 613 24.7588
28.9068 599 24.4745
29.0242 538 23.1948
29.1416 560 23.6643
29.259 551 23.4734
29.3764 614 24.779
29.4939 560 23.6643
29.6113 605 24.5967
29.7288 560 23.6643
29.8463 551 23.4734
29.9638 458 21.4009
30.0812 499 22.3383
30.1987 493 22.2036
30.3162 510 22.5832
30.4337 510 22.5832
30.5512 516 22.7156
30.6687 562 23.7065
30.7862 573 23.9374
30.9037 557 23.6008
31.0212 618 24.8596
31.1387 634 25.1794
31.2562 651 25.5147
31.3737 650 25.4951
31.4912 596 24.4131
31.6087 631 25.1197
31.7262 567 23.8118
31.8436 580 24.0832
31.9611 581 24.1039
32.0785 566 23.7908
32.1959 583 24.1454
32.3134 595 24.3926
32.4308 546 23.3666
32.5482 575 23.9792
32.6655 534 23.1084
32.7829 488 22.0907
32.9002 509 22.561
33.0176 544 23.3238
33.1349 518 22.7596
33.2522 548 23.4094
33.3694 534 23.1084
33.4867 541 23.2594
33.6039 506 22.4944
33.7211 508 22.5389
33.8383 469 21.6564
33.9554 477 21.8403
34.0725 498 22.3159
34.1896 539 23.2164
34.3067 521 22.8254
34.4237 566 23.7908
34.5407 529 23
34.6577 584 24.1661
34.7746 573 23.9374
34.8915 560 23.6643
35.0084 585 24.1868
35.1252 534 23.1084
35.242 566 23.7908
35.3587 582 24.1247
35.4755 531 23.0434
35.5921 537 23.1733
35.7088 566 23.7908
35.8254 545 23.3452
35.9419 517 22.7376
36.0584 513 22.6495
36.1749 546 23.3666
36.2913 476 21.8174
36.4077 467 21.6102
36.524 447 21.1424
36.6403 417 20.4206
36.7565 402 20.0499
36.8727 365 19.105
36.9889 340 18.4391
37.1049 308 17.5499
37.221 0 1
37.3369 0 1
37.4529 0 1
37.5687 0 1
37.6845 0 1
37.8003 0 1
37.916 0 1
38.0316 0 1
38.1472 0 1
40.5851 0 1
40.7008 0 1
40.8164 0 1
40.9322 0 1
41.048 0 1
41.1639 0 1
41.2798 0 1
41.3958 0 1
41.5118 0 1
41.6279 0 1
41.744 217 14.7309
41.8602 302 17.3781
41.9765 338 18.3848
42.0928 330 18.1659
42.2091 361 19
42.3255 378 19.4422
42.4419 397 19.9249
42.5584 371 19.2614
42.675 393 19.8242
42.7915 409 20.2237
42.9081 414 20.347
43.0248 401 20.025
43.1415 438 20.9284
43.2582 419 20.4695
43.375 384 19.5959
43.4918 420 20.4939
43.6087 423 20.567
43.7256 414 20.347
43.8425 376 19.3907
43.9595 439 20.9523
44.0765 417 20.4206
44.1935 417 20.4206
44.3106 403 20.0749
44.4277 438 20.9284
44.5448 391 19.7737
44.6619 430 20.7364
44.7791 445 21.095
44.8963 445 21.095
45.0136 461 21.4709
45.1308 423 20.567
45.2481 448 21.166
45.3654 424 20.5913
45.4827 434 20.8327
45.6001 427 20.664
45.7174 459 21.4243
45.8348 422 20.5426
45.9522 404 20.0998
46.0697 376 19.3907
46.1871 378 19.4422
46.3046 398 19.9499
46.422 363 19.0526
46.5395 372 19.2873
46.657 365 19.105
46.7745 386 19.6469
46.892 387 19.6723
47.0096 435 20.8567
47.1271 389 19.7231
47.2446 410 20.2485
47.3622 415 20.3715
47.4797 390 19.7484
47.5973 418 20.445
47.7149 400 20
47.8324 419 20.4695
47.95 409 20.2237
48.0675 400 20
48.1851 402 20.0499
48.3027 410 20.2485
48.4202 455 21.3307
48.5378 416 20.3961
48.6554 434 20.8327
48.7729 453 21.2838
48.8904 423 20.567
49.008 405 20.1246
49.1255 416 20.3961
49.243 393 19.8242
49.3605 358 18.9209
49.478 366 19.1311
49.5955 350 18.7083
49.713 340 18.4391
49.8304 379 19.4679
49.9479 366 19.1311
50.0653 350 18.7083
50.1827 379 19.4679
50.3001 355 18.8414
50.4175 376 19.3907
50.5348 410 20.2485
50.6521 434 20.8327
50.7694 443 21.0476
50.8867 375 19.3649
51.004 407 20.1742
51.1212 407 20.1742
51.2384 355 18.8414
51.3556 414 20.347
51.4727 391 19.7737
51.5899 424 20.5913
51.707 438 20.9284
51.824 398 19.9499
51.9411 405 20.1246
52.0581 371 19.2614
52.175 388 19.6977
52.2919 410 20.2485
52.4088 399 19.975
52.5257 402 20.0499
52.6425 396 19.8997
52.7593 381 19.5192
52.876 376 19.3907
52.9927 358 18.9209
53.1094 350 18.7083
53.226 354 18.8149
53.3426 377 19.4165
53.4591 352 18.7617
53.5756 359 18.9473
53.692 360 18.9737
53.8084 306 17.4929
53.9248 266 16.3095
54.0411 259 16.0935
54.1573 254 15.9374
54.2735 0 1
54.3896 0 1
54.5057 0 1
54.6217 0 1
54.7377 0 1
54.8537 0 1
54.9695 0 1
55.0853 0 1
55.2011 0 1
55.3168 0 1
55.4324 0 1
57.824 0 1
57.9396 0 1
58.0553 0 1
58.1711 0 1
58.2869 0 1
58.4028 0 1
58.5187 0 1
58.6347 0 1
58.7508 0 1
58.8669 0 1
58.983 355 18.8414
59.0992 387 19.6723
59.2155 404 20.0998
59.3318 460 21.4476
59.4482 502 22.4054
59.5646 557 23.6008
59.681 536 23.1517
59.7975 608 24.6577
59.9141 609 24.6779
60.0306 575 23.9792
60.1473 629 25.0799
60.2639 561 23.6854
60.3807 616 24.8193
60.4974 632 25.1396
60.6142 599 24.4745
60.731 633 25.1595
60.8479 622 24.9399
60.9648 598 24.454
61.0818 571 23.8956
61.1987 583 24.1454
61.3158 569 23.8537
61.4328 573 23.9374
61.5499 501 22.383
61.667 508 22.5389
61.7841 476 21.8174
61.9013 503 22.4277
62.0185 476 21.8174
62.1357 549 23.4307
62.253 501 22.383
62.3702 500 22.3607
62.4875 523 22.8692
62.6049 521 22.8254
62.7222 507 22.5167
62.8396 508 22.5389
62.9569 546 23.3666
63.0743 499 22.3383
63.1918 533 23.0868
63.3092 485 22.0227
63.4267 496 22.2711
63.5441 483 21.9773
63.6616 503 22.4277
63.7791 495 22.2486
63.8966 466 21.587
64.0142 513 22.6495
64.1317 499 22.3383
64.2492 514 22.6716
64.3668 482 21.9545
64.4843 526 22.9347
64.6019 475 21.7945
64.7195 486 22.0454
64.837 427 20.664
64.9546 491 22.1585
65.0722 406 20.1494
65.1898 481 21.9317
65.3074 483 21.9773
65.4249 453 21.2838
65.5425 446 21.1187
65.6601 439 20.9523
65.7777 439 20.9523
65.8952 464 21.5407
66.0128 472 21.7256
66.1304 445 21.095
66.2479 491 22.1585
66.3655 508 22.5389
66.483 488 22.0907
66.6005 442 21.0238
66.718 490 22.1359
66.8355 506 22.4944
66.953 495 22.2486
67.0705 478 21.8632
67.1879 488 22.0907
67.3054 430 20.7364
67.4228 476 21.8174
67.5402 491 22.1585
67.6576 512 22.6274
67.7749 508 22.5389
67.8923 506 22.4944
68.0096 461 21.4709
68.1269 478 21.8632
68.2442 465 21.5639
68.3614 484 22
68.4787 433 20.8087
68.5958 435 20.8567
68.713 418 20.445
68.8302 444 21.0713
68.9473 407 20.1742
69.0643 407 20.1742
69.1814 464 21.5407
69.2984 441 21
69.4154 483 21.9773
69.5323 442 21.0238
69.6492 418 20.445
69.7661 416 20.3961
69.8829 421 20.5183
69.9997 432 20.7846
70.1165 441 21
70.2332 445 21.095
70.3499 396 19.8997
70.4665 413 20.3224
70.5831 386 19.6469
70.6996 382 19.5448
70.8161 340 18.4391
70.9326 299 17.2916
71.049 272 16.4924
71.1653 269 16.4012
71.2817 295 17.1756
71.3979 243 15.5885
71.5141 227 15.0665
71.6303 195 13.9642
71.7464 184 13.5647
71.8624 0 1
71.9784 0 1
72.0944 0 1
72.2102 0 1
72.3261 0 1
72.4418 0 1
72.5575 0 1
72.6732 0 1
75.1054 0 1
75.2209 0 1
75.3365 0 1
75.4521 0 1
75.5678 0 1
75.6835 0 1
75.7993 0 1
75.9151 0 1
76.031 0 1
76.147 340 18.4391
76.263 313 17.6918
76.3791 395 19.8746
76.4952 396 19.8997
76.6113 415 20.3715
76.7276 380 19.4936
76.8438 400 20
76.9601 406 20.1494
77.0765 416 20.3961
77.1929 379 19.4679
77.3093 377 19.4165
77.4258 388 19.6977
77.5423 374 19.3391
77.6589 344 18.5472
77.7755 375 19.3649
77.8921 337 18.3576
78.0088 373 19.3132
78.1256 354 18.8149
78.2423 369 19.2094
78.3591 405 20.1246
78.4759 402 20.0499
78.5928 419 20.4695
78.7097 466 21.587
78.8266 367 19.1572
78.9436 379 19.4679
79.0606 373 19.3132
79.1776 392 19.799
79.2946 425 20.6155
79.4117 444 21.0713
79.5288 358 18.9209
79.6459 371 19.2614
79.7631 372 19.2873
79.8802 392 19.799
79.9974 456 21.3542
80.1147 425 20.6155
80.2319 466 21.587
80.3491 416 20.3961
80.4664 448 21.166
80.5837 422 20.5426
80.701 415 20.3715
80.8183 441 21
80.9357 417 20.4206
81.053 415 20.3715
81.1704 418 20.445
81.2877 384 19.5959
81.4051 418 20.445
81.5225 365 19.105
81.6399 372 19.2873
81.7573 405 20.1246
81.8747 332 18.2209
81.9922 391 19.7737
82.1096 428 20.6882
82.227 458 21.4009
82.3444 411 20.2731
82.4619 433 20.8087
82.5793 433 20.8087
82.6967 400 20
82.8142 369 19.2094
82.9316 390 19.7484
83.049 443 21.0476
83.1664 406 20.1494
83.2838 387 19.6723
83.4012 403 20.0749
83.5186 416 20.3961
83.636 446 21.1187
83.7534 457 21.3776
83.8708 412 20.2978
83.9881 461 21.4709
84.1055 449 21.1896
84.2228 469 21.6564
84.3401 408 20.199
84.4575 442 21.0238
84.5747 436 20.8806
84.692 426 20.6398
84.8093 391 19.7737
84.9265 405 20.1246
85.0437 423 20.567
85.1609 374 19.3391
85.2781 383 19.5704
85.3952 375 19.3649
85.5123 403 20.0749
85.6294 435 20.8567
85.7465 455 21.3307
85.8636 450 21.2132
85.9806 452 21.2603
86.0976 447 21.1424
86.2145 401 20.025
86.3315 438 20.9284
86.4484 444 21.0713
86.5652 393 19.8242
86.682 422 20.5426
86.7988 413 20.3224
86.9156 366 19.1311
87.0323 449 21.1896
87.149 448 21.166
87.2657 404 20.0998
87.3823 442 21.0238
87.4988 405 20.1246
87.6154 431 20.7605
87.7318 419 20.4695
87.8483 359 18.9473
87.9647 378 19.4422
88.081 342 18.4932
88.1973 287 16.9411
88.3136 264 16.2481
88.4298 266 16.3095
88.546 235 15.3297
88.6621 186 13.6382
88.7781 214 14.6287
88.8942 0 1
89.0101 0 1
89.126 0 1
89.2419 0 1
89.3577 0 1
89.4734 0 1
89.5891 0 1
89.7047 0 1
89.8203 0 1
89.9358 0 1
92.3269 0 1
92.4424 0 1
92.558 0 1
92.6736 0 1
92.7893 0 1
92.905 0 1
93.0208 0 1
93.1366 0 1
93.2525 0 1
93.3685 0 1
93.4845 0 1
93.6005 358 18.9209
93.7167 347 18.6279
93.8328 376 19.3907
93.949 404 20.0998
94.0653 410 20.2485
94.1816 413 20.3224
94.2979 376 19.3907
94.4143 412 20.2978
94.5307 406 20.1494
94.6472 373 19.3132
94.7637 404 20.0998
94.8803 443 21.0476
94.9969 450 21.2132
95.1135 473 21.7486
95.2302 472 21.7256
95.3469 474 21.7715
95.4637 465 21.5639
95.5805 432 20.7846
95.6973 444 21.0713
95.8142 434 20.8327
95.9311 398 19.9499
96.048 411 20.2731
96.1649 412 20.2978
96.2819 426 20.6398
96.3989 476 21.8174
96.516 449 21.1896
96.633 471 21.7025
96.7501 433 20.8087
96.8673 488 22.0907
96.9844 464 21.5407
97.1016 446 21.1187
97.2188 439 20.9523
97.336 463 21.5174
97.4532 441 21
97.5704 462 21.4942
97.6877 393 19.8242
97.805 380 19.4936
97.9223 376 19.3907
98.0396 394 19.8494
98.1569 409 20.2237
98.2743 395 19.8746
98.3916 433 20.8087
98.509 468 21.6333
98.6264 477 21.8403
98.7438 498 22.3159
98.8612 483 21.9773
98.9786 442 21.0238
99.096 486 22.0454
99.2134 474 21.7715
99.3308 529 23
99.4482 497 22.2935
99.5656 463 21.5174
99.6831 485 22.0227
99.8005 458 21.4009
99.9179 505 22.4722
100.035 469 21.6564
100.153 503 22.4277
100.27 490 22.1359
100.388 466 21.587
100.505 492 22.1811
100.622 500 22.3607
100.74 517 22.7376
100.857 456 21.3542
100.975 479 21.8861
101.092 473 21.7486
101.209 446 21.1187
101.327 442 21.0238
101.444 416 20.3961
101.561 452 21.2603
101.679 413 20.3224
101.796 409 20.2237
101.913 442 21.0238
102.03 473 21.7486
102.148 518 22.7596
102.265 534 23.1084
102.382 506 22.4944
102.499 492 22.1811
102.616 505 22.4722
102.733 512 22.6274
102.851 515 22.6936
102.968 563 23.7276
103.085 527 22.9565
103.202 484 22
103.319 481 21.9317
103.436 477 21.8403
103.552 536 23.1517
103.669 522 22.8473
103.786 587 24.2281
103.903 558 23.622
104.02 536 23.1517
104.137 516 22.7156
104.253 550 23.4521
104.37 501 22.383
104.487 531 23.0434
104.603 495 22.2486
104.72 534 23.1084
104.836 474 21.7715
104.953 459 21.4243
105.069 440 20.9762
105.186 393 19.8242
105.302 417 20.4206
105.418 379 19.4679
105.535 355 18.8414
105.651 326 18.0555
105.767 320 17.8885
105.883 330 18.1659
105.999 242 15.5563
106.115 0 1
106.231 0 1
106.347 0 1
106.463 0 1
106.579 0 1
106.694 0 1
106.81 0 1
106.926 0 1
107.041 0 1
107.157 0 1
109.576 0 1
109.692 0 1
109.807 0 1
109.923 0 1
110.039 0 1
110.155 0 1
110.27 0 1
110.386 0 1
110.502 0 1
110.618 252 15.8745
110.735 297 17.2337
110.851 363 19.0526
110.967 429 20.7123
111.083 453 21.2838
111.199 425 20.6155
111.316 448 21.166
111.432 494 22.2261
111.549 485 22.0227
111.665 479 21.8861
111.782 497 22.2935
111.898 497 22.2935
112.015 430 20.7364
112.132 472 21.7256
112.248 504 22.4499
112.365 457 21.3776
112.482 516 22.7156
112.599 498 22.3159
112.716 462 21.4942
112.832 480 21.9089
112.949 464 21.5407
113.066 442 21.0238
113.183 441 21
113.3 449 21.1896
113.417 460 21.4476
113.534 462 21.4942
113.652 398 19.9499
113.769 421 20.5183
113.886 351 18.735
114.003 378 19.4422
114.12 414 20.347
114.238 394 19.8494
114.355 402 20.0499
114.472 424 20.5913
114.589 417 20.4206
114.707 396 19.8997
114.824 447 21.1424
114.942 441 21
115.059 464 21.5407
115.176 466 21.587
115.294 477 21.8403
115.411 411 20.2731
115.529 412 20.2978
115.646 433 20.8087
115.764 400 20
115.881 413 20.3224
115.999 419 20.4695
116.116 421 20.5183
116.234 413 20.3224
116.351 427 20.664
116.469 413 20.3224
116.586 422 20.5426
116.704 434 20.8327
116.821 421 20.5183
116.939 401 20.025
117.056 424 20.5913
117.174 373 19.3132
117.291 348 18.6548
117.409 386 19.6469
117.526 346 18.6011
117.644 351 18.735
117.761 352 18.7617
117.879 373 19.3132
117.996 424 20.5913
118.114 421 20.5183
118.231 409 20.2237
118.349 430 20.7364
118.466 366 19.1311
118.584 412 20.2978
118.701 396 19.8997
118.819 401 20.025
118.936 371 19.2614
119.053 379 19.4679
119.171 362 19.0263
119.288 383 19.5704
119.405 347 18.6279
119.523 379 19.4679
119.64 377 19.4165
119.757 413 20.3224
119.875 400 20
119.992 400 20
120.109 421 20.5183
120.226 365 19.105
120.343 394 19.8494
120.46 411 20.2731
120.578 384 19.5959
120.695 383 19.5704
120.812 393 19.8242
120.929 383 19.5704
121.046 377 19.4165
121.163 391 19.7737
121.279 319 17.8606
121.396 324 18
121.513 338 18.3848
121.63 340 18.4391
121.747 345 18.5742
121.863 359 18.9473
121.98 353 18.7883
122.097 351 18.735
122.213 326 18.0555
122.33 336 18.3303
122.446 279 16.7033
122.563 269 16.4012
122.679 288 16.9706
122.795 262 16.1864
122.912 239 15.4596
123.028 198 14.0712
123.144 241 15.5242
123.26 203 14.2478
123.377 0 1
123.493 0 1
123.609 0 1
123.725 0 1
123.84 0 1
123.956 0 1
124.072 0 1
124.188 0 1
124.303 0 1
124.419 0 1
126.852 0 1
126.968 0 1
127.083 0 1
127.199 0 1
127.315 0 1
127.431 0 1
127.547 0 1
127.663 0 1
127.779 0 1
127.895 0 1
128.011 0 1
128.127 0 1
128.243 0 1
128.359 365 19.105
128.476 366 19.1311
128.592 395 19.8746
128.708 422 20.5426
128.825 444 21.0713
128.941 421 20.5183
129.058 418 20.445
129.174 450 21.2132
129.291 436 20.8806
129.408 467 21.6102
129.524 486 22.0454
129.641 455 21.3307
129.758 444 21.0713
129.875 462 21.4942
129.992 454 21.3073
130.108 436 20.8806
130.225 433 20.8087
130.342 459 21.4243
130.459 476 21.8174
130.576 550 23.4521
130.693 587 24.2281
130.81 609 24.6779
130.928 687 26.2107
131.045 721 26.8514
131.162 747 27.3313
131.279 720 26.8328
131.396 704 26.533
131.513 688 26.2298
131.631 742 27.2397
131.748 988 31.4325
131.865 1162 34.0881
131.983 1293 35.9583
132.1 1500 38.7298
132.217 1636 40.4475
132.335 1745 41.7732
132.452 1856 43.0813
132.57 1886 43.4281
132.687 1978 44.4747
132.804 1995 44.6654
132.922 2036 45.1221
133.039 2109 45.9239
133.157 2126 46.1086
133.274 2175 46.6369
133.392 2145 46.3141
133.509 2224 47.1593
133.627 2262 47.5605
133.744 2237 47.2969
133.862 2326 48.2286
133.979 2171 46.594
134.097 2301 47.9687
134.214 2260 47.5395
134.332 2206 46.9681
134.449 2139 46.2493
134.567 2057 45.3542
134.684 1977 44.4635
134.802 1988 44.587
134.919 1823 42.6966
135.037 1806 42.4971
135.154 1737 41.6773
135.272 1647 40.5832
135.389 1601 40.0125
135.507 1166 34.1467
135.624 876 29.5973
135.742 846 29.0861
135.859 942 30.692
135.977 1124 33.5261
136.094 1260 35.4965
136.211 1259 35.4824
136.329 1181 34.3657
136.446 1119 33.4515
136.564 1081 32.8786
136.681 940 30.6594
136.798 986 31.4006
136.915 918 30.2985
137.033 907 30.1164
137.15 915 30.249
137.267 922 30.3645
137.384 920 30.3315
137.502 822 28.6705
137.619 798 28.2489
137.736 826 28.7402
137.853 810 28.4605
137.97 807 28.4077
138.087 778 27.8927
138.204 785 28.0179
138.321 801 28.3019
138.438 912 30.1993
138.555 923 30.3809
138.672 892 29.8664
138.788 912 30.1993
138.905 878 29.6311
139.022 860 29.3258
139.139 757 27.5136
139.255 795 28.1957
139.372 754 27.4591
139.488 712 26.6833
139.605 777 27.8747
139.721 634 25.1794
139.838 754 27.4591
139.954 721 26.8514
140.071 610 24.6982
140.187 672 25.923
140.303 628 25.0599
140.419 639 25.2784
140.535 609 24.6779
140.652 543 23.3024
140.768 0 1
140.884 0 1
141 0 1
141.115 0 1
141.231 0 1
141.347 0 1
141.463 0 1
141.578 0 1
141.694 0 1
144.104 0 1
144.219 0 1
144.335 0 1
144.45 0 1
144.566 0 1
144.682 0 1
144.798 0 1
144.914 0 1
145.03 0 1
145.146 1824 42.7083
145.262 2765 52.5833
145.378 4792 69.2243
145.494 8277 90.978
145.61 13778 117.38
145.726 22082 148.6
145.842 32632 180.643
145.959 44590 211.163
146.075 56823 238.376
146.192 68913 262.513
146.308 77753 278.842
146.425 85010 291.565
146.541 90283 300.471
146.658 92763 304.57
146.774 92983 304.931
146.891 90114 300.19
147.008 87299 295.464
147.125 80862 284.362
147.241 73871 271.792
147.358 66355 257.595
147.475 57828 240.475
147.592 49543 222.583
147.709 41991 204.917
147.826 35970 189.658
147.943 31371 177.119
148.06 28019 167.389
148.177 25276 158.984
148.294 23581 153.561
148.411 21524 146.711
148.528 20332 142.59
148.645 19028 137.942
148.762 17802 133.424
148.88 16765 129.48
148.997 16352 127.875
149.114 14202 119.172
149.231 13431 115.892
149.349 12771 113.009
149.466 11820 108.72
149.583 11104 105.376
149.701 9899 99.4937
149.818 9139 95.5981
149.935 8361 91.4385
150.053 7731 87.9261
150.17 6549 80.9259
150.287 5277 72.643
150.405 3777 61.4573
150.522 2947 54.2863
150.64 3466 58.8727
150.757 4138 64.3273
150.875 4282 65.437
150.992 4125 64.2262
151.11 3941 62.7774
151.227 3640 60.3324
151.344 3512 59.2621
151.462 3248 56.9912
151.579 3047 55.1996
151.697 2853 53.4135
151.814 2749 52.4309
151.932 2634 51.3225
152.049 2345 48.4252
152.167 2367 48.6518
152.284 2155 46.422
152.402 2107 45.9021
152.519 2002 44.7437
152.636 1847 42.9767
152.754 1809 42.5323
152.871 1765 42.0119
152.989 1682 41.0122
153.106 1774 42.1189
153.223 1721 41.4849
153.341 1581 39.7618
153.458 1602 40.025
153.575 1495 38.6652
153.693 1490 38.6005
153.81 1423 37.7227
153.927 1353 36.7831
154.044 1264 35.5528
154.162 1185 34.4238
154.279 1202 34.6699
154.396 1339 36.5923
154.513 1380 37.1484
154.63 1468 38.3145
154.747 1508 38.833
154.864 1501 38.7427
154.981 1396 37.3631
155.098 1439 37.9342
155.215 1445 38.0132
155.332 1471 38.3536
155.449 1453 38.1182
155.566 1494 38.6523
155.683 1462 38.2361
155.8 1429 37.8021
155.917 1421 37.6962
156.033 1432 37.8418
156.15 0 1
156.267 0 1
156.383 0 1
156.5 0 1
156.617 0 1
156.733 0 1
156.85 0 1
156.966 0 1
157.082 0 1
157.199 0 1
157.315 0 1
157.431 0 1
157.547 0 1
157.664 0 1
157.78 0 1
157.896 0 1
158.012 0 1
158.128 0 1
158.244 0 1
158.359 0 1
158.475 0 1
158.591 0 1
158.706 0 1
