
6.15755 0 1
6.2731 0 1
6.3887 0 1
6.50437 0 1
6.62009 0 1
6.73587 0 1
6.8517 0 1
6.96759 0 1
7.08353 0 1
7.19952 0 1
7.31557 0 1
7.43166 0 1
7.54781 0 1
7.664 0 1
7.78024 0 1
7.89653 0 1
8.01286 0 1
8.12924 0 1
8.24567 0 1
8.36213 0 1
8.47864 0 1
8.59519 0 1
8.71178 0 1
8.82841 0 1
8.94508 0 1
9.06179 0 1
9.17853 0 1
9.29531 0 1
9.41212 0 1
9.52897 0 1
9.64584 0 1
9.76276 0 1
9.8797 0 1
9.99667 0 1
10.1137 0 1
10.2307 0 1
10.3478 0 1
10.4648 0 1
10.5819 0 1
10.6991 0 1
10.8162 0 1
10.9334 0 1
11.0506 0 1
11.1678 0 1
11.285 0 1
11.4023 0 1
11.5196 0 1
11.6369 0 1
11.7542 0 1
11.8715 0 1
11.9888 0 1
12.1062 0 1
12.2235 0 1
12.3409 0 1
12.4582 0 1
12.5756 0 1
12.693 0 1
12.8104 0 1
12.9278 0 1
13.0452 0 1
13.1626 0 1
13.28 0 1
13.3974 0 1
13.5149 0 1
13.6323 0 1
13.7497 0 1
13.8671 0 1
13.9845 0 1
14.1019 0 1
14.2193 0 1
14.3367 0 1
14.4541 0 1
14.5714 0 1
14.6888 0 1
14.8062 0 1
14.9235 0 1
15.0408 722 26.8701
15.1581 728 26.9815
15.2755 770 27.7489
15.3927 801 28.3019
15.51 754 27.4591
15.6273 798 28.2489
15.7445 784 28
15.8617 768 27.7128
15.9789 739 27.1846
16.0961 760 27.5681
16.2132 770 27.7489
16.3304 790 28.1069
16.4475 770 27.7489
16.5646 849 29.1376
16.6816 818 28.6007
16.7986 917 30.282
16.9156 860 29.3258
17.0326 886 29.7658
17.1496 902 30.0333
17.2665 885 29.7489
17.3833 879 29.6479
17.5002 896 29.9333
17.617 858 29.2916
17.7338 813 28.5132
17.8505 751 27.4044
17.9672 769 27.7308
18.0839 754 27.4591
18.2005 771 27.7669
18.3171 800 28.2843
18.4337 852 29.189
18.5502 834 28.8791
18.6666 933 30.545
18.7831 901 30.0167
18.8994 899 29.9833
19.0158 856 29.2575
19.1321 818 28.6007
19.2483 834 28.8791
19.3645 750 27.3861
19.4806 680 26.0768
19.5967 723 26.8887
19.7128 647 25.4362
19.8288 545 23.3452
19.9447 545 23.3452
20.0606 0 1
20.1764 0 1
20.2922 0 1
20.4079 0 1
20.5236 0 1
20.6392 0 1
20.7548 0 1
20.8702 0 1
23.3078 0 1
23.4233 0 1
23.539 0 1
23.6547 0 1
23.7704 0 1
23.8862 0 1
24.0021 0 1
24.118 0 1
24.234 0 1
24.35 0 1
24.4661 325 18.0278
24.5822 417 20.4206
24.6984 431 20.7605
24.8146 511 22.6053
24.9309 550 23.4521
25.0472 543 23.3024
25.1636 652 25.5343
25.28 699 26.4386
25.3965 742 27.2397
25.513 814 28.5307
25.6296 871 29.5127
25.7462 902 30.0333
25.8628 902 30.0333
25.9795 976 31.241
26.0962 932 30.5287
26.213 948 30.7896
26.3298 864 29.3939
26.4466 822 28.6705
26.5635 828 28.775
26.6804 761 27.5862
26.7973 834 28.8791
26.9143 839 28.9655
27.0313 844 29.0517
27.1483 866 29.4279
27.2653 870 29.4958
27.3824 918 30.2985
27.4996 919 30.315
27.6167 914 30.2324
27.7339 872 29.5296
27.8511 840 28.9828
27.9683 827 28.7576
28.0855 781 27.9464
28.2028 780 27.9285
28.3201 711 26.6646
28.4374 697 26.4008
28.5547 716 26.7582
28.6721 730 27.0185
28.7894 812 28.4956
28.9068 802 28.3196
29.0242 870 29.4958
29.1416 876 29.5973
29.259 936 30.5941
29.3764 956 30.9192
29.4939 869 29.4788
29.6113 913 30.2159
29.7288 834 28.8791
29.8463 808 28.4253
29.9638 740 27.2029
30.0812 798 28.2489
30.1987 718 26.7955
30.3162 829 28.7924
30.4337 773 27.8029
30.5512 846 29.0861
30.6687 791 28.1247
30.7862 865 29.4109
30.9037 866 29.4279
31.0212 858 29.2916
31.1387 848 29.1204
31.2562 850 29.1548
31.3737 847 29.1033
31.4912 846 29.0861
31.6087 777 27.8747
31.7262 759 27.55
31.8436 742 27.2397
31.9611 719 26.8142
32.0785 662 25.7294
32.1959 726 26.9444
32.3134 775 27.8388
32.4308 802 28.3196
32.5482 818 28.6007
32.6655 867 29.4449
32.7829 838 28.9482
32.9002 857 29.2746
33.0176 850 29.1548
33.1349 869 29.4788
33.2522 843 29.0345
33.3694 811 28.4781
33.4867 765 27.6586
33.6039 758 27.5318
33.7211 673 25.9422
33.8383 711 26.6646
33.9554 720 26.8328
34.0725 749 27.3679
34.1896 833 28.8617
34.3067 801 28.3019
34.4237 776 27.8568
34.5407 798 28.2489
34.6577 849 29.1376
34.7746 913 30.2159
34.8915 815 28.5482
35.0084 859 29.3087
35.1252 790 28.1069
35.242 767 27.6948
35.3587 755 27.4773
35.4755 725 26.9258
35.5921 708 26.6083
35.7088 657 25.632
35.8254 657 25.632
35.9419 682 26.1151
36.0584 699 26.4386
36.1749 729 27
36.2913 725 26.9258
36.4077 715 26.7395
36.524 767 27.6948
36.6403 723 26.8887
36.7565 706 26.5707
36.8727 626 25.02
36.9889 594 24.3721
37.1049 533 23.0868
37.221 0 1
37.3369 0 1
37.4529 0 1
37.5687 0 1
37.6845 0 1
37.8003 0 1
37.916 0 1
38.0316 0 1
38.1472 0 1
40.5851 0 1
40.7008 0 1
40.8164 0 1
40.9322 0 1
41.048 0 1
41.1639 0 1
41.2798 0 1
41.3958 0 1
41.5118 0 1
41.6279 0 1
41.744 382 19.5448
41.8602 385 19.6214
41.9765 445 21.095
42.0928 478 21.8632
42.2091 539 23.2164
42.3255 507 22.5167
42.4419 462 21.4942
42.5584 481 21.9317
42.675 525 22.9129
42.7915 538 23.1948
42.9081 640 25.2982
43.0248 592 24.3311
43.1415 662 25.7294
43.2582 668 25.8457
43.375 671 25.9037
43.4918 671 25.9037
43.6087 685 26.1725
43.7256 659 25.671
43.8425 650 25.4951
43.9595 715 26.7395
44.0765 636 25.219
44.1935 646 25.4165
44.3106 602 24.5357
44.4277 612 24.7386
44.5448 511 22.6053
44.6619 557 23.6008
44.7791 586 24.2074
44.8963 606 24.6171
45.0136 636 25.219
45.1308 706 26.5707
45.2481 709 26.6271
45.3654 675 25.9808
45.4827 686 26.1916
45.6001 703 26.5141
45.7174 653 25.5539
45.8348 659 25.671
45.9522 581 24.1039
46.0697 599 24.4745
46.1871 544 23.3238
46.3046 597 24.4336
46.422 564 23.7487
46.5395 620 24.8998
46.657 640 25.2982
46.7745 678 26.0384
46.892 720 26.8328
47.0096 674 25.9615
47.1271 713 26.7021
47.2446 760 27.5681
47.3622 706 26.5707
47.4797 706 26.5707
47.5973 667 25.8263
47.7149 686 26.1916
47.8324 620 24.8998
47.95 623 24.96
48.0675 535 23.1301
48.1851 549 23.4307
48.3027 559 23.6432
48.4202 560 23.6643
48.5378 628 25.0599
48.6554 679 26.0576
48.7729 658 25.6515
48.8904 665 25.7876
49.008 674 25.9615
49.1255 724 26.9072
49.243 693 26.3249
49.3605 651 25.5147
49.478 604 24.5764
49.5955 523 22.8692
49.713 565 23.7697
49.8304 579 24.0624
49.9479 554 23.5372
50.0653 614 24.779
50.1827 676 26
50.3001 651 25.5147
50.4175 632 25.1396
50.5348 688 26.2298
50.6521 675 25.9808
50.7694 709 26.6271
50.8867 669 25.865
51.004 658 25.6515
51.1212 686 26.1916
51.2384 683 26.1343
51.3556 658 25.6515
51.4727 628 25.0599
51.5899 590 24.2899
51.707 543 23.3024
51.824 572 23.9165
51.9411 630 25.0998
52.0581 667 25.8263
52.175 642 25.3377
52.2919 699 26.4386
52.4088 650 25.4951
52.5257 731 27.037
52.6425 691 26.2869
52.7593 689 26.2488
52.876 658 25.6515
52.9927 624 24.98
53.1094 580 24.0832
53.226 538 23.1948
53.3426 482 21.9545
53.4591 514 22.6716
53.5756 549 23.4307
53.692 523 22.8692
53.8084 544 23.3238
53.9248 519 22.7816
54.0411 560 23.6643
54.1573 464 21.5407
54.2735 0 1
54.3896 0 1
54.5057 0 1
54.6217 0 1
54.7377 0 1
54.8537 0 1
54.9695 0 1
55.0853 0 1
55.2011 0 1
55.3168 0 1
55.4324 0 1
57.824 0 1
57.9396 0 1
58.0553 0 1
58.1711 0 1
58.2869 0 1
58.4028 0 1
58.5187 0 1
58.6347 0 1
58.7508 0 1
58.8669 0 1
58.983 491 22.1585
59.0992 569 23.8537
59.2155 610 24.6982
59.3318 641 25.318
59.4482 687 26.2107
59.5646 720 26.8328
59.681 792 28.1425
59.7975 822 28.6705
59.9141 801 28.3019
60.0306 800 28.2843
60.1473 791 28.1247
60.2639 762 27.6043
60.3807 748 27.3496
60.4974 705 26.5518
60.6142 750 27.3861
60.731 817 28.5832
60.8479 832 28.8444
60.9648 875 29.5804
61.0818 970 31.1448
61.1987 881 29.6816
61.3158 885 29.7489
61.4328 779 27.9106
61.5499 832 28.8444
61.667 781 27.9464
61.7841 724 26.9072
61.9013 669 25.865
62.0185 704 26.533
62.1357 760 27.5681
62.253 770 27.7489
62.3702 812 28.4956
62.4875 853 29.2062
62.6049 927 30.4467
62.7222 841 29
62.8396 877 29.6142
62.9569 877 29.6142
63.0743 916 30.2655
63.1918 865 29.4109
63.3092 855 29.2404
63.4267 866 29.4279
63.5441 826 28.7402
63.6616 842 29.0172
63.7791 745 27.2947
63.8966 739 27.1846
64.0142 718 26.7955
64.1317 756 27.4955
64.2492 785 28.0179
64.3668 856 29.2575
64.4843 840 28.9828
64.6019 858 29.2916
64.7195 903 30.05
64.837 887 29.7825
64.9546 862 29.3598
65.0722 792 28.1425
65.1898 774 27.8209
65.3074 700 26.4575
65.4249 682 26.1151
65.5425 705 26.5518
65.6601 710 26.6458
65.7777 728 26.9815
65.8952 756 27.4955
66.0128 811 28.4781
66.1304 835 28.8964
66.2479 890 29.8329
66.3655 904 30.0666
66.483 901 30.0167
66.6005 862 29.3598
66.718 941 30.6757
66.8355 845 29.0689
66.953 847 29.1033
67.0705 845 29.0689
67.1879 814 28.5307
67.3054 754 27.4591
67.4228 770 27.7489
67.5402 712 26.6833
67.6576 669 25.865
67.7749 741 27.2213
67.8923 822 28.6705
68.0096 845 29.0689
68.1269 855 29.2404
68.2442 873 29.5466
68.3614 924 30.3974
68.4787 949 30.8058
68.5958 958 30.9516
68.713 911 30.1828
68.8302 934 30.5614
68.9473 793 28.1603
69.0643 833 28.8617
69.1814 774 27.8209
69.2984 755 27.4773
69.4154 778 27.8927
69.5323 892 29.8664
69.6492 994 31.5278
69.7661 1012 31.8119
69.8829 1064 32.619
69.9997 1025 32.0156
70.1165 984 31.3688
70.2332 991 31.4802
70.3499 968 31.1127
70.4665 993 31.5119
70.5831 815 28.5482
70.6996 832 28.8444
70.8161 807 28.4077
70.9326 710 26.6458
71.049 646 25.4165
71.1653 496 22.2711
71.2817 424 20.5913
71.3979 422 20.5426
71.5141 401 20.025
71.6303 404 20.0998
71.7464 386 19.6469
71.8624 0 1
71.9784 0 1
72.0944 0 1
72.2102 0 1
72.3261 0 1
72.4418 0 1
72.5575 0 1
72.6732 0 1
75.1054 0 1
75.2209 0 1
75.3365 0 1
75.4521 0 1
75.5678 0 1
75.6835 0 1
75.7993 0 1
75.9151 0 1
76.031 0 1
76.147 580 24.0832
76.263 621 24.9199
76.3791 594 24.3721
76.4952 553 23.516
76.6113 639 25.2784
76.7276 607 24.6374
76.8438 676 26
76.9601 690 26.2679
77.0765 745 27.2947
77.1929 823 28.688
77.3093 810 28.4605
77.4258 792 28.1425
77.5423 786 28.0357
77.6589 794 28.178
77.7755 639 25.2784
77.8921 618 24.8596
78.0088 603 24.5561
78.1256 585 24.1868
78.2423 563 23.7276
78.3591 609 24.6779
78.4759 606 24.6171
78.5928 697 26.4008
78.7097 723 26.8887
78.8266 700 26.4575
78.9436 795 28.1957
79.0606 809 28.4429
79.1776 794 28.178
79.2946 761 27.5862
79.4117 772 27.7849
79.5288 774 27.8209
79.6459 745 27.2947
79.7631 738 27.1662
79.8802 716 26.7582
79.9974 673 25.9422
80.1147 633 25.1595
80.2319 598 24.454
80.3491 604 24.5764
80.4664 662 25.7294
80.5837 709 26.6271
80.701 736 27.1293
80.8183 759 27.55
80.9357 736 27.1293
81.053 786 28.0357
81.1704 787 28.0535
81.2877 842 29.0172
81.4051 738 27.1662
81.5225 755 27.4773
81.6399 646 25.4165
81.7573 629 25.0799
81.8747 577 24.0208
81.9922 581 24.1039
82.1096 648 25.4558
82.227 615 24.7992
82.3444 707 26.5895
82.4619 724 26.9072
82.5793 789 28.0891
82.6967 771 27.7669
82.8142 806 28.3901
82.9316 794 28.178
83.049 834 28.8791
83.1664 856 29.2575
83.2838 862 29.3598
83.4012 748 27.3496
83.5186 771 27.7669
83.636 669 25.865
83.7534 636 25.219
83.8708 570 23.8747
83.9881 638 25.2587
84.1055 599 24.4745
84.2228 624 24.98
84.3401 745 27.2947
84.4575 743 27.258
84.5747 846 29.0861
84.692 840 28.9828
84.8093 798 28.2489
84.9265 806 28.3901
85.0437 774 27.8209
85.1609 688 26.2298
85.2781 624 24.98
85.3952 604 24.5764
85.5123 585 24.1868
85.6294 606 24.6171
85.7465 716 26.7582
85.8636 739 27.1846
85.9806 702 26.4953
86.0976 733 27.074
86.2145 802 28.3196
86.3315 860 29.3258
86.4484 822 28.6705
86.5652 837 28.931
86.682 853 29.2062
86.7988 771 27.7669
86.9156 792 28.1425
87.0323 812 28.4956
87.149 767 27.6948
87.2657 726 26.9444
87.3823 632 25.1396
87.4988 547 23.388
87.6154 531 23.0434
87.7318 550 23.4521
87.8483 574 23.9583
87.9647 619 24.8797
88.081 642 25.3377
88.1973 660 25.6905
88.3136 611 24.7184
88.4298 604 24.5764
88.546 527 22.9565
88.6621 476 21.8174
88.7781 353 18.7883
88.8942 0 1
89.0101 0 1
89.126 0 1
89.2419 0 1
89.3577 0 1
89.4734 0 1
89.5891 0 1
89.7047 0 1
89.8203 0 1
89.9358 0 1
92.3269 0 1
92.4424 0 1
92.558 0 1
92.6736 0 1
92.7893 0 1
92.905 0 1
93.0208 0 1
93.1366 0 1
93.2525 0 1
93.3685 0 1
93.4845 0 1
93.6005 530 23.0217
93.7167 565 23.7697
93.8328 596 24.4131
93.949 656 25.6125
94.0653 702 26.4953
94.1816 700 26.4575
94.2979 677 26.0192
94.4143 611 24.7184
94.5307 644 25.3772
94.6472 590 24.2899
94.7637 614 24.779
94.8803 694 26.3439
94.9969 655 25.593
95.1135 743 27.258
95.2302 740 27.2029
95.3469 762 27.6043
95.4637 766 27.6767
95.5805 839 28.9655
95.6973 790 28.1069
95.8142 784 28
95.9311 793 28.1603
96.048 806 28.3901
96.1649 783 27.9821
96.2819 775 27.8388
96.3989 707 26.5895
96.516 732 27.0555
96.633 673 25.9422
96.7501 610 24.6982
96.8673 554 23.5372
96.9844 588 24.2487
97.1016 677 26.0192
97.2188 671 25.9037
97.336 837 28.931
97.4532 803 28.3373
97.5704 795 28.1957
97.6877 817 28.5832
97.805 793 28.1603
97.9223 767 27.6948
98.0396 709 26.6271
98.1569 636 25.219
98.2743 584 24.1661
98.3916 613 24.7588
98.509 623 24.96
98.6264 719 26.8142
98.7438 701 26.4764
98.8612 740 27.2029
98.9786 800 28.2843
99.096 859 29.3087
99.2134 812 28.4956
99.3308 830 28.8097
99.4482 842 29.0172
99.5656 861 29.3428
99.6831 865 29.4109
99.8005 832 28.8444
99.9179 777 27.8747
100.035 789 28.0891
100.153 733 27.074
100.27 714 26.7208
100.388 668 25.8457
100.505 697 26.4008
100.622 691 26.2869
100.74 804 28.3549
100.857 868 29.4618
100.975 835 28.8964
101.092 831 28.8271
101.209 878 29.6311
101.327 867 29.4449
101.444 808 28.4253
101.561 783 27.9821
101.679 723 26.8887
101.796 696 26.3818
101.913 692 26.3059
102.03 583 24.1454
102.148 699 26.4386
102.265 786 28.0357
102.382 821 28.6531
102.499 848 29.1204
102.616 859 29.3087
102.733 865 29.4109
102.851 943 30.7083
102.968 947 30.7734
103.085 958 30.9516
103.202 853 29.2062
103.319 880 29.6648
103.436 897 29.95
103.552 889 29.8161
103.669 825 28.7228
103.786 776 27.8568
103.903 685 26.1725
104.02 723 26.8887
104.137 784 28
104.253 820 28.6356
104.37 893 29.8831
104.487 844 29.0517
104.603 975 31.225
104.72 871 29.5127
104.836 848 29.1204
104.953 788 28.0713
105.069 672 25.923
105.186 633 25.1595
105.302 602 24.5357
105.418 576 24
105.535 563 23.7276
105.651 595 24.3926
105.767 608 24.6577
105.883 590 24.2899
105.999 569 23.8537
106.115 0 1
106.231 0 1
106.347 0 1
106.463 0 1
106.579 0 1
106.694 0 1
106.81 0 1
106.926 0 1
107.041 0 1
107.157 0 1
109.576 0 1
109.692 0 1
109.807 0 1
109.923 0 1
110.039 0 1
110.155 0 1
110.27 0 1
110.386 0 1
110.502 0 1
110.618 336 18.3303
110.735 425 20.6155
110.851 539 23.2164
110.967 644 25.3772
111.083 680 26.0768
111.199 738 27.1662
111.316 756 27.4955
111.432 738 27.1662
111.549 756 27.4955
111.665 790 28.1069
111.782 819 28.6182
111.898 811 28.4781
112.015 772 27.7849
112.132 753 27.4408
112.248 721 26.8514
112.365 654 25.5734
112.482 652 25.5343
112.599 697 26.4008
112.716 726 26.9444
112.832 773 27.8029
112.949 808 28.4253
113.066 823 28.688
113.183 794 28.178
113.3 788 28.0713
113.417 829 28.7924
113.534 798 28.2489
113.652 713 26.7021
113.769 666 25.807
113.886 563 23.7276
114.003 566 23.7908
114.12 595 24.3926
114.238 704 26.533
114.355 711 26.6646
114.472 757 27.5136
114.589 796 28.2135
114.707 806 28.3901
114.824 801 28.3019
114.942 835 28.8964
115.059 840 28.9828
115.176 821 28.6531
115.294 798 28.2489
115.411 840 28.9828
115.529 749 27.3679
115.646 797 28.2312
115.764 767 27.6948
115.881 677 26.0192
115.999 630 25.0998
116.116 668 25.8457
116.234 706 26.5707
116.351 781 27.9464
116.469 773 27.8029
116.586 818 28.6007
116.704 843 29.0345
116.821 856 29.2575
116.939 839 28.9655
117.056 874 29.5635
117.174 749 27.3679
117.291 720 26.8328
117.409 624 24.98
117.526 614 24.779
117.644 621 24.9199
117.761 656 25.6125
117.879 758 27.5318
117.996 725 26.9258
118.114 734 27.0924
118.231 768 27.7128
118.349 774 27.8209
118.466 843 29.0345
118.584 834 28.8791
118.701 861 29.3428
118.819 812 28.4956
118.936 799 28.2666
119.053 832 28.8444
119.171 771 27.7669
119.288 771 27.7669
119.405 699 26.4386
119.523 663 25.7488
119.64 647 25.4362
119.757 622 24.9399
119.875 717 26.7769
119.992 711 26.6646
120.109 816 28.5657
120.226 751 27.4044
120.343 792 28.1425
120.46 757 27.5136
120.578 811 28.4781
120.695 753 27.4408
120.812 736 27.1293
120.929 662 25.7294
121.046 614 24.779
121.163 590 24.2899
121.279 555 23.5584
121.396 592 24.3311
121.513 620 24.8998
121.63 666 25.807
121.747 683 26.1343
121.863 684 26.1534
121.98 677 26.0192
122.097 722 26.8701
122.213 630 25.0998
122.33 631 25.1197
122.446 665 25.7876
122.563 634 25.1794
122.679 555 23.5584
122.795 554 23.5372
122.912 485 22.0227
123.028 403 20.0749
123.144 405 20.1246
123.26 332 18.2209
123.377 0 1
123.493 0 1
123.609 0 1
123.725 0 1
123.84 0 1
123.956 0 1
124.072 0 1
124.188 0 1
124.303 0 1
124.419 0 1
126.852 0 1
126.968 0 1
127.083 0 1
127.199 0 1
127.315 0 1
127.431 0 1
127.547 0 1
127.663 0 1
127.779 0 1
127.895 0 1
128.011 0 1
128.127 0 1
128.243 0 1
128.359 780 27.9285
128.476 860 29.3258
128.592 850 29.1548
128.708 807 28.4077
128.825 878 29.6311
128.941 826 28.7402
129.058 888 29.7993
129.174 969 31.1288
129.291 930 30.4959
129.408 957 30.9354
129.524 1060 32.5576
129.641 1018 31.9061
129.758 969 31.1288
129.875 892 29.8664
129.992 883 29.7153
130.108 771 27.7669
130.225 771 27.7669
130.342 740 27.2029
130.459 758 27.5318
130.576 864 29.3939
130.693 884 29.7321
130.81 906 30.0998
130.928 898 29.9666
131.045 962 31.0161
131.162 967 31.0966
131.279 968 31.1127
131.396 1010 31.7805
131.513 957 30.9354
131.631 950 30.8221
131.748 1041 32.2645
131.865 1024 32
131.983 973 31.1929
132.1 870 29.4958
132.217 877 29.6142
132.335 845 29.0689
132.452 833 28.8617
132.57 930 30.4959
132.687 987 31.4166
132.804 1011 31.7962
132.922 1042 32.28
133.039 998 31.5911
133.157 1010 31.7805
133.274 943 30.7083
133.392 1007 31.7333
133.509 920 30.3315
133.627 853 29.2062
133.744 813 28.5132
133.862 708 26.6083
133.979 784 28
134.097 835 28.8964
134.214 900 30
134.332 868 29.4618
134.449 937 30.6105
134.567 904 30.0666
134.684 965 31.0644
134.802 981 31.3209
134.919 958 30.9516
135.037 974 31.209
135.154 921 30.348
135.272 936 30.5941
135.389 941 30.6757
135.507 835 28.8964
135.624 871 29.5127
135.742 876 29.5973
135.859 761 27.5862
135.977 817 28.5832
136.094 836 28.9137
136.211 864 29.3939
136.329 880 29.6648
136.446 906 30.0998
136.564 953 30.8707
136.681 969 31.1288
136.798 963 31.0322
136.915 934 30.5614
137.033 869 29.4788
137.15 799 28.2666
137.267 742 27.2397
137.384 738 27.1662
137.502 692 26.3059
137.619 764 27.6405
137.736 754 27.4591
137.853 758 27.5318
137.97 812 28.4956
138.087 829 28.7924
138.204 881 29.6816
138.321 856 29.2575
138.438 823 28.688
138.555 892 29.8664
138.672 874 29.5635
138.788 857 29.2746
138.905 770 27.7489
139.022 773 27.8029
139.139 755 27.4773
139.255 654 25.5734
139.372 611 24.7184
139.488 578 24.0416
139.605 548 23.4094
139.721 538 23.1948
139.838 555 23.5584
139.954 591 24.3105
140.071 499 22.3383
140.187 477 21.8403
140.303 449 21.1896
140.419 443 21.0476
140.535 404 20.0998
140.652 348 18.6548
140.768 0 1
140.884 0 1
141 0 1
141.115 0 1
141.231 0 1
141.347 0 1
141.463 0 1
141.578 0 1
141.694 0 1
144.104 0 1
144.219 0 1
144.335 0 1
144.45 0 1
144.566 0 1
144.682 0 1
144.798 0 1
144.914 0 1
145.03 0 1
145.146 540 23.2379
145.262 659 25.671
145.378 655 25.593
145.494 695 26.3629
145.61 686 26.1916
145.726 645 25.3969
145.842 630 25.0998
145.959 645 25.3969
146.075 522 22.8473
146.192 539 23.2164
146.308 542 23.2809
146.425 542 23.2809
146.541 591 24.3105
146.658 611 24.7184
146.774 608 24.6577
146.891 611 24.7184
147.008 666 25.807
147.125 632 25.1396
147.241 665 25.7876
147.358 686 26.1916
147.475 659 25.671
147.592 607 24.6374
147.709 638 25.2587
147.826 631 25.1197
147.943 558 23.622
148.06 567 23.8118
148.177 595 24.3926
148.294 581 24.1039
148.411 552 23.4947
148.528 613 24.7588
148.645 621 24.9199
148.762 624 24.98
148.88 635 25.1992
148.997 653 25.5539
149.114 622 24.9399
149.231 629 25.0799
149.349 684 26.1534
149.466 591 24.3105
149.583 621 24.9199
149.701 535 23.1301
149.818 505 22.4722
149.935 561 23.6854
150.053 518 22.7596
150.17 538 23.1948
150.287 577 24.0208
150.405 613 24.7588
150.522 605 24.5967
150.64 577 24.0208
150.757 601 24.5153
150.875 679 26.0576
150.992 623 24.96
151.11 672 25.923
151.227 615 24.7992
151.344 595 24.3926
151.462 613 24.7588
151.579 578 24.0416
151.697 594 24.3721
151.814 545 23.3452
151.932 508 22.5389
152.049 535 23.1301
152.167 541 23.2594
152.284 615 24.7992
152.402 628 25.0599
152.519 627 25.04
152.636 623 24.96
152.754 620 24.8998
152.871 619 24.8797
152.989 590 24.2899
153.106 576 24
153.223 554 23.5372
153.341 549 23.4307
153.458 436 20.8806
153.575 486 22.0454
153.693 467 21.6102
153.81 547 23.388
153.927 524 22.891
154.044 516 22.7156
154.162 580 24.0832
154.279 578 24.0416
154.396 553 23.516
154.513 545 23.3452
154.63 596 24.4131
154.747 567 23.8118
154.864 570 23.8747
154.981 535 23.1301
155.098 521 22.8254
155.215 569 23.8537
155.332 541 23.2594
155.449 508 22.5389
155.566 505 22.4722
155.683 513 22.6495
155.8 511 22.6053
155.917 496 22.2711
156.033 557 23.6008
156.15 0 1
156.267 0 1
156.383 0 1
156.5 0 1
156.617 0 1
156.733 0 1
156.85 0 1
156.966 0 1
157.082 0 1
157.199 0 1
157.315 0 1
157.431 0 1
157.547 0 1
157.664 0 1
157.78 0 1
157.896 0 1
158.012 0 1
158.128 0 1
158.244 0 1
158.359 0 1
158.475 0 1
158.591 0 1
158.706 0 1
