
6.15755 0 1
6.2731 0 1
6.3887 0 1
6.50437 0 1
6.62009 0 1
6.73587 0 1
6.8517 0 1
6.96759 0 1
7.08353 0 1
7.19952 0 1
7.31557 0 1
7.43166 0 1
7.54781 0 1
7.664 0 1
7.78024 0 1
7.89653 0 1
8.01286 0 1
8.12924 0 1
8.24567 0 1
8.36213 0 1
8.47864 0 1
8.59519 0 1
8.71178 0 1
8.82841 0 1
8.94508 0 1
9.06179 0 1
9.17853 0 1
9.29531 0 1
9.41212 0 1
9.52897 0 1
9.64584 0 1
9.76276 0 1
9.8797 0 1
9.99667 0 1
10.1137 0 1
10.2307 0 1
10.3478 0 1
10.4648 0 1
10.5819 0 1
10.6991 0 1
10.8162 0 1
10.9334 0 1
11.0506 0 1
11.1678 0 1
11.285 0 1
11.4023 0 1
11.5196 0 1
11.6369 0 1
11.7542 0 1
11.8715 0 1
11.9888 0 1
12.1062 0 1
12.2235 0 1
12.3409 0 1
12.4582 0 1
12.5756 0 1
12.693 0 1
12.8104 0 1
12.9278 0 1
13.0452 0 1
13.1626 0 1
13.28 0 1
13.3974 0 1
13.5149 0 1
13.6323 0 1
13.7497 0 1
13.8671 0 1
13.9845 0 1
14.1019 0 1
14.2193 0 1
14.3367 0 1
14.4541 0 1
14.5714 0 1
14.6888 0 1
14.8062 0 1
14.9235 0 1
15.0408 5431 73.6953
15.1581 5828 76.3413
15.2755 5906 76.8505
15.3927 5853 76.5049
15.51 5723 75.6505
15.6273 5713 75.5844
15.7445 5577 74.6793
15.8617 5797 76.138
15.9789 5924 76.9675
16.0961 5902 76.8245
16.2132 5981 77.3369
16.3304 5910 76.8765
16.4475 6172 78.5621
16.5646 6210 78.8036
16.6816 6249 79.0506
16.7986 6274 79.2086
16.9156 6535 80.8393
17.0326 6737 82.0792
17.1496 6773 82.2982
17.2665 6752 82.1706
17.3833 6839 82.6982
17.5002 6701 81.8596
17.617 6791 82.4075
17.7338 6710 81.9146
17.8505 6468 80.4239
17.9672 6492 80.5729
18.0839 6443 80.2683
18.2005 6458 80.3617
18.3171 6632 81.4371
18.4337 6677 81.7129
18.5502 6952 83.3787
18.6666 7044 83.9285
18.7831 7081 84.1487
18.8994 6955 83.3966
19.0158 6868 82.8734
19.1321 6603 81.2588
19.2483 6404 80.025
19.3645 6288 79.2969
19.4806 6191 78.6829
19.5967 6011 77.5306
19.7128 5836 76.3937
19.8288 5295 72.7668
19.9447 4705 68.593
20.0606 0 1
20.1764 0 1
20.2922 0 1
20.4079 0 1
20.5236 0 1
20.6392 0 1
20.7548 0 1
20.8702 0 1
23.3078 0 1
23.4233 0 1
23.539 0 1
23.6547 0 1
23.7704 0 1
23.8862 0 1
24.0021 0 1
24.118 0 1
24.234 0 1
24.35 0 1
24.4661 3644 60.3656
24.5822 4140 64.3428
24.6984 4841 69.5773
24.8146 5600 74.8331
24.9309 6003 77.479
25.0472 6488 80.5481
25.1636 6956 83.4026
25.28 7423 86.1568
25.3965 7905 88.9101
25.513 8242 90.7855
25.6296 8629 92.8924
25.7462 8958 94.6467
25.8628 8997 94.8525
25.9795 9147 95.6399
26.0962 9170 95.7601
26.213 9132 95.5615
26.3298 9154 95.6765
26.4466 9082 95.2995
26.5635 9076 95.268
26.6804 9000 94.8683
26.7973 9162 95.7183
26.9143 9202 95.9271
27.0313 9454 97.2317
27.1483 9559 97.7701
27.2653 9842 99.2069
27.3824 9975 99.8749
27.4996 9912 99.559
27.6167 9844 99.2169
27.7339 9518 97.5602
27.8511 9390 96.902
27.9683 9078 95.2785
28.0855 9296 96.4158
28.2028 9392 96.9123
28.3201 9229 96.0677
28.4374 9231 96.0781
28.5547 9012 94.9316
28.6721 8929 94.4934
28.7894 9016 94.9526
28.9068 8780 93.7017
29.0242 9230 96.0729
29.1416 9139 95.5981
29.259 9397 96.9381
29.3764 9323 96.5557
29.4939 9193 95.8801
29.6113 9235 96.0989
29.7288 9443 97.1751
29.8463 9556 97.7548
29.9638 9484 97.3858
30.0812 9452 97.2214
30.1987 9679 98.3819
30.3162 9751 98.7472
30.4337 9802 99.0051
30.5512 10016 100.08
30.6687 10311 101.543
30.7862 10445 102.201
30.9037 10616 103.034
31.0212 10868 104.25
31.1387 10500 102.47
31.2562 10394 101.951
31.3737 10266 101.321
31.4912 10256 101.272
31.6087 10361 101.789
31.7262 10215 101.069
31.8436 10333 101.651
31.9611 10024 100.12
32.0785 10051 100.255
32.1959 9759 98.7877
32.3134 9703 98.5038
32.4308 9932 99.6594
32.5482 9912 99.559
32.6655 10121 100.603
32.7829 10249 101.237
32.9002 10431 102.132
33.0176 10161 100.802
33.1349 10368 101.823
33.2522 10251 101.247
33.3694 10178 100.886
33.4867 10476 102.352
33.6039 10695 103.417
33.7211 10519 102.562
33.8383 10549 102.708
33.9554 10623 103.068
34.0725 10932 104.556
34.1896 11293 106.269
34.3067 11547 107.457
34.4237 11696 108.148
34.5407 11984 109.471
34.6577 11921 109.183
34.7746 12004 109.563
34.8915 11972 109.417
35.0084 11787 108.568
35.1252 11706 108.194
35.242 11496 107.219
35.3587 11562 107.527
35.4755 11709 108.208
35.5921 11668 108.019
35.7088 11403 106.785
35.8254 11158 105.631
35.9419 10739 103.629
36.0584 10319 101.582
36.1749 10141 100.703
36.2913 9808 99.0353
36.4077 9724 98.6103
36.524 9676 98.3667
36.6403 9565 97.8008
36.7565 9574 97.8468
36.8727 9362 96.7574
36.9889 9041 95.0842
37.1049 8708 93.3167
37.221 0 1
37.3369 0 1
37.4529 0 1
37.5687 0 1
37.6845 0 1
37.8003 0 1
37.916 0 1
38.0316 0 1
38.1472 0 1
40.5851 0 1
40.7008 0 1
40.8164 0 1
40.9322 0 1
41.048 0 1
41.1639 0 1
41.2798 0 1
41.3958 0 1
41.5118 0 1
41.6279 0 1
41.744 6681 81.7374
41.8602 7383 85.9244
41.9765 8248 90.8185
42.0928 8962 94.6678
42.2091 9820 99.0959
42.3255 10769 103.774
42.4419 11585 107.634
42.5584 12260 110.725
42.675 12770 113.004
42.7915 13299 115.321
42.9081 13969 118.191
43.0248 14873 121.955
43.1415 15475 124.399
43.2582 16380 127.984
43.375 16719 129.302
43.4918 17244 131.316
43.6087 17291 131.495
43.7256 17135 130.901
43.8425 16963 130.242
43.9595 16471 128.339
44.0765 16331 127.793
44.1935 16874 129.9
44.3106 17321 131.609
44.4277 17247 131.328
44.5448 16673 129.124
44.6619 16294 127.648
44.7791 15295 123.673
44.8963 14252 119.382
45.0136 13816 117.541
45.1308 13805 117.495
45.2481 13990 118.279
45.3654 13951 118.114
45.4827 14289 119.537
45.6001 14940 122.229
45.7174 16019 126.566
45.8348 16604 128.857
45.9522 17595 132.646
46.0697 17883 133.727
46.1871 18034 134.291
46.3046 18061 134.391
46.422 18477 135.93
46.5395 18603 136.393
46.657 19348 139.097
46.7745 19721 140.431
46.892 19856 140.911
47.0096 20279 142.404
47.1271 20633 143.642
47.2446 20874 144.478
47.3622 20182 142.063
47.4797 20112 141.817
47.5973 19762 140.577
47.7149 19567 139.882
47.8324 19799 140.709
47.95 20143 141.926
48.0675 19578 139.921
48.1851 19313 138.971
48.3027 17552 132.484
48.4202 16170 127.161
48.5378 14890 122.025
48.6554 14447 120.196
48.7729 14112 118.794
48.8904 14149 118.95
49.008 14507 120.445
49.1255 15263 123.544
49.243 16640 128.996
49.3605 17594 132.642
49.478 18482 135.949
49.5955 18929 137.583
49.713 18733 136.869
49.8304 18922 137.557
49.9479 18904 137.492
50.0653 18988 137.797
50.1827 19412 139.327
50.3001 19762 140.577
50.4175 20218 142.19
50.5348 20205 142.144
50.6521 20272 142.38
50.7694 20419 142.895
50.8867 20151 141.954
51.004 19520 139.714
51.1212 19261 138.784
51.2384 19108 138.232
51.3556 19210 138.6
51.4727 19322 139.004
51.5899 19282 138.86
51.707 18411 135.687
51.824 17032 130.507
51.9411 15332 123.822
52.0581 13654 116.85
52.175 13194 114.865
52.2919 13021 114.11
52.4088 13148 114.665
52.5257 13036 114.175
52.6425 13460 116.017
52.7593 14324 119.683
52.876 14894 122.041
52.9927 15117 122.951
53.1094 15248 123.483
53.226 15674 125.196
53.3426 15173 123.179
53.4591 14369 119.871
53.5756 14120 118.828
53.692 13313 115.382
53.8084 13038 114.184
53.9248 12717 112.77
54.0411 12069 109.859
54.1573 11119 105.447
54.2735 0 1
54.3896 0 1
54.5057 0 1
54.6217 0 1
54.7377 0 1
54.8537 0 1
54.9695 0 1
55.0853 0 1
55.2011 0 1
55.3168 0 1
55.4324 0 1
57.824 0 1
57.9396 0 1
58.0553 0 1
58.1711 0 1
58.2869 0 1
58.4028 0 1
58.5187 0 1
58.6347 0 1
58.7508 0 1
58.8669 0 1
58.983 10270 101.341
59.0992 11507 107.271
59.2155 12763 112.973
59.3318 13416 115.827
59.4482 14187 119.109
59.5646 14789 121.61
59.681 15044 122.654
59.7975 15096 122.866
59.9141 15660 125.14
60.0306 15643 125.072
60.1473 16327 127.777
60.2639 16040 126.649
60.3807 16117 126.953
60.4974 15358 123.927
60.6142 14092 118.71
60.731 12743 112.885
60.8479 11450 107.005
60.9648 10691 103.397
61.0818 10345 101.71
61.1987 10287 101.425
61.3158 10995 104.857
61.4328 12172 110.327
61.5499 13579 116.529
61.667 14899 122.061
61.7841 15635 125.04
61.9013 15766 125.563
62.0185 15784 125.634
62.1357 15835 125.837
62.253 15265 123.552
62.3702 15583 124.832
62.4875 15726 125.403
62.6049 15881 126.02
62.7222 15997 126.479
62.8396 16208 127.311
62.9569 16192 127.248
63.0743 16202 127.287
63.1918 15870 125.976
63.3092 15569 124.776
63.4267 15167 123.154
63.5441 15080 122.801
63.6616 15428 124.21
63.7791 15281 123.616
63.8966 14898 122.057
64.0142 14320 119.666
64.1317 12725 112.805
64.2492 11518 107.322
64.3668 9808 99.0353
64.4843 9339 96.6385
64.6019 8759 93.5895
64.7195 8702 93.2845
64.837 9362 96.7574
64.9546 10192 100.955
65.0722 11402 106.78
65.1898 12893 113.547
65.3074 13692 117.013
65.4249 13867 117.758
65.5425 14266 119.44
65.6601 13969 118.191
65.7777 13948 118.102
65.8952 13556 116.43
66.0128 13942 118.076
66.1304 13807 117.503
66.2479 14051 118.537
66.3655 14336 119.733
66.483 14291 119.545
66.6005 14473 120.304
66.718 14477 120.32
66.8355 14020 118.406
66.953 13737 117.205
67.0705 13183 114.817
67.1879 13560 116.447
67.3054 13610 116.662
67.4228 13653 116.846
67.5402 13264 115.169
67.6576 12444 111.553
67.7749 11506 107.266
67.8923 10062 100.31
68.0096 8852 94.0851
68.1269 7906 88.9157
68.2442 7698 87.7382
68.3614 7441 86.2612
68.4787 7764 88.1136
68.5958 8618 92.8332
68.713 10320 101.587
68.8302 11450 107.005
68.9473 12357 111.162
69.0643 12620 112.339
69.1814 12950 113.798
69.2984 12536 111.964
69.4154 12091 109.959
69.5323 11633 107.856
69.6492 11565 107.541
69.7661 11283 106.221
69.8829 11412 106.827
69.9997 11306 106.33
70.1165 11415 106.841
70.2332 11294 106.273
70.3499 10887 104.341
70.4665 10292 101.449
70.5831 9732 98.6509
70.6996 9039 95.0737
70.8161 8548 92.4554
70.9326 8244 90.7965
71.049 8166 90.3659
71.1653 7556 86.9253
71.2817 7008 83.7138
71.3979 6138 78.3454
71.5141 5291 72.7393
71.6303 4170 64.5755
71.7464 2927 54.1018
71.8624 0 1
71.9784 0 1
72.0944 0 1
72.2102 0 1
72.3261 0 1
72.4418 0 1
72.5575 0 1
72.6732 0 1
75.1054 0 1
75.2209 0 1
75.3365 0 1
75.4521 0 1
75.5678 0 1
75.6835 0 1
75.7993 0 1
75.9151 0 1
76.031 0 1
76.147 7394 85.9884
76.263 8356 91.4112
76.3791 8707 93.3113
76.4952 8895 94.3133
76.6113 8558 92.5095
76.7276 8441 91.8749
76.8438 7807 88.3572
76.9601 6999 83.66
77.0765 6488 80.5481
77.1929 6249 79.0506
77.3093 6009 77.5177
77.4258 6255 79.0886
77.5423 6949 83.3607
77.6589 8040 89.666
77.7755 9521 97.5756
77.8921 10581 102.864
78.0088 11352 106.546
78.1256 11532 107.387
78.2423 11335 106.466
78.3591 11006 104.909
78.4759 10782 103.836
78.5928 10581 102.864
78.7097 10765 103.755
78.8266 10696 103.421
78.9436 11249 106.061
79.0606 11232 105.981
79.1776 11493 107.205
79.2946 11423 106.878
79.4117 11414 106.836
79.5288 11382 106.686
79.6459 11177 105.721
79.7631 11136 105.527
79.8802 10828 104.058
79.9974 11151 105.598
80.1147 11427 106.897
80.2319 10855 104.187
80.3491 10278 101.38
80.4664 9529 97.6166
80.5837 8268 90.9285
80.701 7371 85.8545
80.8183 6606 81.2773
80.9357 6444 80.2745
81.053 6180 78.613
81.1704 6645 81.5169
81.2877 7647 87.4471
81.4051 9031 95.0316
81.5225 10454 102.245
81.6399 11205 105.854
81.7573 11668 108.019
81.8747 11525 107.355
81.9922 11351 106.541
82.1096 11184 105.754
82.227 10603 102.971
82.3444 10627 103.087
82.4619 10795 103.899
82.5793 10924 104.518
82.6967 11084 105.281
82.8142 11294 106.273
82.9316 11461 107.056
83.049 11358 106.574
83.1664 11333 106.457
83.2838 11293 106.269
83.4012 11138 105.537
83.5186 10903 104.417
83.636 10895 104.379
83.7534 11000 104.881
83.8708 10810 103.971
83.9881 10076 100.379
84.1055 9412 97.0155
84.2228 8763 93.6109
84.3401 7856 88.6341
84.4575 7031 83.8511
84.5747 6482 80.5109
84.692 6537 80.8517
84.8093 7146 84.534
84.9265 8581 92.6337
85.0437 9677 98.3717
85.1609 11188 105.773
85.2781 11963 109.375
85.3952 12509 111.844
85.5123 12485 111.736
85.6294 12484 111.732
85.7465 11988 109.49
85.8636 11715 108.236
85.9806 12029 109.677
86.0976 12227 110.576
86.2145 12437 111.521
86.3315 12806 113.164
86.4484 12444 111.553
86.5652 12451 111.584
86.682 12180 110.363
86.7988 11813 108.688
86.9156 11612 107.759
87.0323 11095 105.333
87.149 10494 102.44
87.2657 10665 103.271
87.3823 10309 101.533
87.4988 10178 100.886
87.6154 9503 97.4833
87.7318 8644 92.9731
87.8483 7881 88.775
87.9647 6784 82.365
88.081 5918 76.9285
88.1973 5439 73.7496
88.3136 5262 72.5396
88.4298 5430 73.6885
88.546 6208 78.7909
88.6621 6818 82.5712
88.7781 7534 86.7986
88.8942 0 1
89.0101 0 1
89.126 0 1
89.2419 0 1
89.3577 0 1
89.4734 0 1
89.5891 0 1
89.7047 0 1
89.8203 0 1
89.9358 0 1
92.3269 0 1
92.4424 0 1
92.558 0 1
92.6736 0 1
92.7893 0 1
92.905 0 1
93.0208 0 1
93.1366 0 1
93.2525 0 1
93.3685 0 1
93.4845 0 1
93.6005 7773 88.1646
93.7167 8603 92.7524
93.8328 9664 98.3056
93.949 11081 105.266
94.0653 13140 114.63
94.1816 14443 120.179
94.2979 15961 126.337
94.4143 17338 131.674
94.5307 18127 134.637
94.6472 19239 138.705
94.7637 19717 140.417
94.8803 19701 140.36
94.9969 19396 139.27
95.1135 19212 138.607
95.2302 19393 139.259
95.3469 19690 140.321
95.4637 19936 141.195
95.5805 19779 140.638
95.6973 19851 140.894
95.8142 19498 139.635
95.9311 19182 138.499
96.048 18851 137.299
96.1649 18334 135.403
96.2819 17609 132.699
96.3989 17420 131.985
96.516 17256 131.362
96.633 16631 128.961
96.7501 15581 124.824
96.8673 14445 120.187
96.9844 13586 116.559
97.1016 12509 111.844
97.2188 11701 108.171
97.336 11744 108.37
97.4532 12149 110.223
97.5704 13115 114.521
97.6877 15067 122.748
97.805 17144 130.935
97.9223 19291 138.892
98.0396 21407 146.311
98.1569 22703 150.675
98.2743 23674 153.864
98.3916 24433 156.311
98.509 24902 157.804
98.6264 24102 155.248
98.7438 23730 154.045
98.8612 23650 153.786
98.9786 23730 154.045
99.096 23937 154.716
99.2134 23146 152.138
99.3308 22784 150.944
99.4482 22135 148.778
99.5656 21460 146.492
99.6831 20656 143.722
99.8005 20225 142.215
99.9179 19737 140.488
100.035 19736 140.485
100.153 19475 139.553
100.27 18009 134.198
100.388 15966 126.357
100.505 14374 119.892
100.622 13174 114.778
100.74 12650 112.472
100.857 12084 109.927
100.975 12065 109.841
101.092 12787 113.08
101.209 14386 119.942
101.327 16957 130.219
101.444 19573 139.904
101.561 21748 147.472
101.679 23703 153.958
101.796 24194 155.544
101.913 24649 157
102.03 24741 157.293
102.148 24043 155.058
102.265 23690 153.916
102.382 22473 149.91
102.499 22417 149.723
102.616 22551 150.17
102.733 22054 148.506
102.851 21771 147.55
102.968 21497 146.619
103.085 20969 144.807
103.202 20334 142.597
103.319 19578 139.921
103.436 19428 139.384
103.552 19212 138.607
103.669 19210 138.6
103.786 18742 136.901
103.903 17255 131.358
104.02 15277 123.6
104.137 13555 116.426
104.253 12327 111.027
104.37 11272 106.17
104.487 11165 105.665
104.603 11480 107.145
104.72 12055 109.795
104.836 13440 115.931
104.953 14728 121.359
105.069 15258 123.523
105.186 15170 123.167
105.302 15106 122.906
105.418 14361 119.837
105.535 13607 116.649
105.651 12398 111.346
105.767 11156 105.622
105.883 10183 100.911
105.999 9363 96.7626
106.115 0 1
106.231 0 1
106.347 0 1
106.463 0 1
106.579 0 1
106.694 0 1
106.81 0 1
106.926 0 1
107.041 0 1
107.157 0 1
109.576 0 1
109.692 0 1
109.807 0 1
109.923 0 1
110.039 0 1
110.155 0 1
110.27 0 1
110.386 0 1
110.502 0 1
110.618 11076 105.243
110.735 11991 109.503
110.851 12181 110.368
110.967 13049 114.232
111.083 14428 120.117
111.199 15773 125.591
111.316 17026 130.484
111.432 17532 132.408
111.549 18150 134.722
111.665 18317 135.34
111.782 18659 136.598
111.898 18473 135.915
112.015 18140 134.685
112.132 18101 134.54
112.248 18450 135.831
112.365 18424 135.735
112.482 17986 134.112
112.599 15918 126.167
112.716 14038 118.482
112.832 12222 110.553
112.949 11381 106.682
113.066 10940 104.594
113.183 10597 102.942
113.3 11428 106.902
113.417 12372 111.229
113.534 14800 121.655
113.652 17128 130.874
113.769 18376 135.558
113.886 19161 138.423
114.003 19562 139.864
114.12 19704 140.371
114.238 19075 138.112
114.355 18329 135.385
114.472 17805 133.435
114.589 18141 134.689
114.707 18738 136.887
114.824 19082 138.138
114.942 19129 138.308
115.059 19303 138.935
115.176 19154 138.398
115.294 19036 137.971
115.411 18904 137.492
115.529 18336 135.41
115.646 17987 134.116
115.764 18041 134.317
115.881 18100 134.536
115.999 17950 133.978
116.116 16863 129.858
116.234 15397 124.085
116.351 13519 116.271
116.469 12076 109.891
116.586 11217 105.91
116.704 11125 105.475
116.821 11242 106.028
116.939 11340 106.489
117.056 13009 114.057
117.174 14795 121.635
117.291 16492 128.421
117.409 17847 133.593
117.526 18758 136.96
117.644 18364 135.514
117.761 18786 137.062
117.879 18070 134.425
117.996 17419 131.981
118.114 16876 129.908
118.231 17242 131.309
118.349 17986 134.112
118.466 17927 133.892
118.584 18364 135.514
118.701 18269 135.163
118.819 18393 135.621
118.936 17825 133.51
119.053 17550 132.476
119.171 17234 131.278
119.288 17073 130.664
119.405 16857 129.835
119.523 16887 129.95
119.64 16803 129.626
119.757 16056 126.712
119.875 15122 122.972
119.992 13407 115.789
120.109 12150 110.227
120.226 11230 105.972
120.343 10929 104.542
120.46 10876 104.288
120.578 10954 104.661
120.695 11526 107.359
120.812 12783 113.062
120.929 14429 120.121
121.046 15459 124.334
121.163 15920 126.174
121.279 15933 126.226
121.396 15832 125.825
121.513 15534 124.635
121.63 14758 121.483
121.747 14014 118.381
121.863 13962 118.161
121.98 13669 116.914
122.097 13956 118.136
122.213 13769 117.341
122.33 13156 114.7
122.446 12656 112.499
122.563 12241 110.639
122.679 11694 108.139
122.795 10884 104.326
122.912 10145 100.722
123.028 9519 97.5654
123.144 8751 93.5468
123.26 7991 89.3924
123.377 0 1
123.493 0 1
123.609 0 1
123.725 0 1
123.84 0 1
123.956 0 1
124.072 0 1
124.188 0 1
124.303 0 1
124.419 0 1
126.852 0 1
126.968 0 1
127.083 0 1
127.199 0 1
127.315 0 1
127.431 0 1
127.547 0 1
127.663 0 1
127.779 0 1
127.895 0 1
128.011 0 1
128.127 0 1
128.243 0 1
128.359 16011 126.535
128.476 16526 128.553
128.592 16781 129.541
128.708 17133 130.893
128.825 17180 131.072
128.941 16506 128.476
129.058 15416 124.161
129.174 14341 119.754
129.291 13499 116.185
129.408 13333 115.469
129.524 12794 113.111
129.641 12669 112.557
129.758 12915 113.644
129.875 14087 118.689
129.992 15669 125.176
130.108 16608 128.872
130.225 17404 131.924
130.342 18019 134.235
130.459 17960 134.015
130.576 18282 135.211
130.693 17193 131.122
130.81 17142 130.927
130.928 17453 132.11
131.045 17608 132.695
131.162 18153 134.733
131.279 18447 135.82
131.396 18370 135.536
131.513 18329 135.385
131.631 17908 133.821
131.748 17582 132.597
131.865 17233 131.275
131.983 16829 129.727
132.1 16742 129.391
132.217 16691 129.194
132.335 16718 129.298
132.452 16177 127.189
132.57 15298 123.685
132.687 14362 119.842
132.804 13923 117.996
132.922 13069 114.32
133.039 12712 112.748
133.157 12550 112.027
133.274 12477 111.7
133.392 12795 113.115
133.509 13649 116.829
133.627 14625 120.934
133.744 15664 125.156
133.862 16712 129.275
133.979 17031 130.503
134.097 17135 130.901
134.214 16621 128.922
134.332 16612 128.888
134.449 16370 127.945
134.567 16624 128.934
134.684 17149 130.954
134.802 17322 131.613
134.919 17575 132.571
135.037 17643 132.827
135.154 17189 131.107
135.272 16909 130.035
135.389 16691 129.194
135.507 16307 127.699
135.624 16292 127.64
135.742 15969 126.369
135.859 16275 127.574
135.977 16271 127.558
136.094 15966 126.357
136.211 15277 123.6
136.329 14744 121.425
136.446 14141 118.916
136.564 13609 116.658
136.681 13541 116.366
136.798 13144 114.647
136.915 12700 112.694
137.033 13005 114.039
137.15 13714 117.107
137.267 14287 119.528
137.384 14875 121.963
137.502 15375 123.996
137.619 15698 125.292
137.736 16282 127.601
137.853 15488 124.451
137.97 15719 125.375
138.087 15508 124.531
138.204 15909 126.131
138.321 15987 126.44
138.438 15857 125.925
138.555 15796 125.682
138.672 15151 123.089
138.788 15036 122.621
138.905 14612 120.88
139.022 14114 118.802
139.139 13460 116.017
139.255 12774 113.022
139.372 12125 110.114
139.488 11862 108.913
139.605 11261 106.118
139.721 10607 102.99
139.838 9819 99.0909
139.954 9081 95.2943
140.071 8326 91.2469
140.187 7704 87.7724
140.303 6818 82.5712
140.419 6402 80.0125
140.535 5778 76.0132
140.652 5238 72.374
140.768 0 1
140.884 0 1
141 0 1
141.115 0 1
141.231 0 1
141.347 0 1
141.463 0 1
141.578 0 1
141.694 0 1
144.104 0 1
144.219 0 1
144.335 0 1
144.45 0 1
144.566 0 1
144.682 0 1
144.798 0 1
144.914 0 1
145.03 0 1
145.146 10300 101.489
145.262 10556 102.742
145.378 10751 103.687
145.494 10622 103.063
145.61 10576 102.84
145.726 10267 101.326
145.842 10465 102.299
145.959 10704 103.46
146.075 10721 103.542
146.192 11020 104.976
146.308 11461 107.056
146.425 11601 107.708
146.541 11870 108.95
146.658 11693 108.134
146.774 11599 107.699
146.891 11536 107.406
147.008 12102 110.009
147.125 12360 111.176
147.241 12566 112.098
147.358 12766 112.987
147.475 12758 112.951
147.592 12578 112.152
147.709 12298 110.896
147.826 12250 110.68
147.943 12272 110.779
148.06 11997 109.531
148.177 11678 108.065
148.294 11908 109.124
148.411 11799 108.623
148.528 12066 109.845
148.645 11968 109.398
148.762 11917 109.165
148.88 11795 108.605
148.997 11958 109.353
149.114 11480 107.145
149.231 11474 107.117
149.349 11540 107.424
149.466 10927 104.532
149.583 11042 105.081
149.701 10795 103.899
149.818 10867 104.245
149.935 11236 106
150.053 11479 107.14
150.17 11683 108.088
150.287 11643 107.903
150.405 11636 107.87
150.522 11700 108.167
150.64 11888 109.032
150.757 12220 110.544
150.875 12601 112.254
150.992 12779 113.044
151.11 12611 112.299
151.227 12643 112.441
151.344 12683 112.619
151.462 12502 111.812
151.579 11932 109.234
151.697 11746 108.379
151.814 11571 107.569
151.932 11849 108.853
152.049 11575 107.587
152.167 11828 108.757
152.284 11711 108.217
152.402 11761 108.448
152.519 11839 108.807
152.636 11517 107.317
152.754 11658 107.972
152.871 11418 106.855
152.989 11198 105.821
153.106 11073 105.228
153.223 10952 104.652
153.341 10883 104.322
153.458 10868 104.25
153.575 11008 104.919
153.693 11082 105.271
153.81 11299 106.297
153.927 11128 105.489
154.044 10853 104.178
154.162 11076 105.243
154.279 11397 106.757
154.396 11704 108.185
154.513 11900 109.087
154.63 12017 109.622
154.747 12322 111.005
154.864 12009 109.586
154.981 11573 107.578
155.098 11582 107.62
155.215 11206 105.858
155.332 10998 104.871
155.449 10875 104.283
155.566 10920 104.499
155.683 11164 105.66
155.8 10873 104.274
155.917 10810 103.971
156.033 10353 101.75
156.15 0 1
156.267 0 1
156.383 0 1
156.5 0 1
156.617 0 1
156.733 0 1
156.85 0 1
156.966 0 1
157.082 0 1
157.199 0 1
157.315 0 1
157.431 0 1
157.547 0 1
157.664 0 1
157.78 0 1
157.896 0 1
158.012 0 1
158.128 0 1
158.244 0 1
158.359 0 1
158.475 0 1
158.591 0 1
158.706 0 1
