
6.15755 0 1
6.2731 0 1
6.3887 0 1
6.50437 0 1
6.62009 0 1
6.73587 0 1
6.8517 0 1
6.96759 0 1
7.08353 0 1
7.19952 0 1
7.31557 0 1
7.43166 0 1
7.54781 0 1
7.664 0 1
7.78024 0 1
7.89653 0 1
8.01286 0 1
8.12924 0 1
8.24567 0 1
8.36213 0 1
8.47864 0 1
8.59519 0 1
8.71178 0 1
8.82841 0 1
8.94508 0 1
9.06179 0 1
9.17853 0 1
9.29531 0 1
9.41212 0 1
9.52897 0 1
9.64584 0 1
9.76276 0 1
9.8797 0 1
9.99667 0 1
10.1137 0 1
10.2307 0 1
10.3478 0 1
10.4648 0 1
10.5819 0 1
10.6991 0 1
10.8162 0 1
10.9334 0 1
11.0506 0 1
11.1678 0 1
11.285 0 1
11.4023 0 1
11.5196 0 1
11.6369 0 1
11.7542 0 1
11.8715 0 1
11.9888 0 1
12.1062 0 1
12.2235 0 1
12.3409 0 1
12.4582 0 1
12.5756 0 1
12.693 0 1
12.8104 0 1
12.9278 0 1
13.0452 0 1
13.1626 0 1
13.28 0 1
13.3974 0 1
13.5149 0 1
13.6323 0 1
13.7497 0 1
13.8671 0 1
13.9845 0 1
14.1019 0 1
14.2193 0 1
14.3367 0 1
14.4541 0 1
14.5714 0 1
14.6888 0 1
14.8062 0 1
14.9235 0 1
15.0408 0 0
15.1581 0 0
15.2755 0 0
15.3927 0 0
15.51 0 0
15.6273 0 0
15.7445 0 0
15.8617 0 0
15.9789 0 0
16.0961 0 0
16.2132 0 0
16.3304 0 0
16.4475 0 0
16.5646 0 0
16.6816 0 0
16.7986 0 0
16.9156 0 0
17.0326 0 0
17.1496 0 0
17.2665 0 0
17.3833 0 0
17.5002 0 0
17.617 0 0
17.7338 0 0
17.8505 0 0
17.9672 0 0
18.0839 0 0
18.2005 0 0
18.3171 0 0
18.4337 0 0
18.5502 0 0
18.6666 0 0
18.7831 0 0
18.8994 0 0
19.0158 0 0
19.1321 0 0
19.2483 0 0
19.3645 0 0
19.4806 0 0
19.5967 0 0
19.7128 0 0
19.8288 0 0
19.9447 0 0
20.0606 0 1
20.1764 0 1
20.2922 0 1
20.4079 0 1
20.5236 0 1
20.6392 0 1
20.7548 0 1
20.8702 0 1
23.3078 0 1
23.4233 0 1
23.539 0 1
23.6547 0 1
23.7704 0 1
23.8862 0 1
24.0021 0 1
24.118 0 1
24.234 0 1
24.35 0 1
24.4661 1500 38.7298
24.5822 1493 38.6394
24.6984 1494 38.6523
24.8146 1519 38.9744
24.9309 1521 39
25.0472 1464 38.2623
25.1636 1468 38.3145
25.28 1441 37.9605
25.3965 1534 39.1663
25.513 1527 39.0768
25.6296 1482 38.4968
25.7462 1544 39.2938
25.8628 1611 40.1373
25.9795 1563 39.5348
26.0962 1518 38.9615
26.213 1579 39.7366
26.3298 1587 39.8372
26.4466 1507 38.8201
26.5635 1359 36.8646
26.6804 1311 36.2077
26.7973 1325 36.4005
26.9143 1360 36.8782
27.0313 1369 37
27.1483 1454 38.1314
27.2653 1476 38.4187
27.3824 1528 39.0896
27.4996 1555 39.4335
27.6167 1481 38.4838
27.7339 1464 38.2623
27.8511 1560 39.4968
27.9683 1520 38.9872
28.0855 1495 38.6652
28.2028 1555 39.4335
28.3201 1459 38.1969
28.4374 1467 38.3014
28.5547 1397 37.3765
28.6721 1404 37.47
28.7894 1459 38.1969
28.9068 1429 37.8021
29.0242 1472 38.3667
29.1416 1438 37.921
29.259 1419 37.6696
29.3764 1412 37.5766
29.4939 1386 37.229
29.6113 1440 37.9473
29.7288 1469 38.3275
29.8463 1473 38.3797
29.9638 1420 37.6829
30.0812 1302 36.0832
30.1987 1220 34.9285
30.3162 1184 34.4093
30.4337 1253 35.3977
30.5512 1367 36.973
30.6687 1315 36.2629
30.7862 1346 36.6879
30.9037 1415 37.6165
31.0212 1506 38.8072
31.1387 1500 38.7298
31.2562 1401 37.4299
31.3737 1463 38.2492
31.4912 1464 38.2623
31.6087 1393 37.3229
31.7262 1506 38.8072
31.8436 1457 38.1707
31.9611 1399 37.4032
32.0785 1356 36.8239
32.1959 1366 36.9594
32.3134 1369 37
32.4308 1343 36.647
32.5482 1387 37.2424
32.6655 1385 37.2156
32.7829 1333 36.5103
32.9002 1385 37.2156
33.0176 1348 36.7151
33.1349 1426 37.7624
33.2522 1399 37.4032
33.3694 1446 38.0263
33.4867 1328 36.4417
33.6039 1332 36.4966
33.7211 1237 35.171
33.8383 1214 34.8425
33.9554 1146 33.8526
34.0725 1243 35.2562
34.1896 1155 33.9853
34.3067 1316 36.2767
34.4237 1374 37.0675
34.5407 1367 36.973
34.6577 1461 38.223
34.7746 1448 38.0526
34.8915 1465 38.2753
35.0084 1496 38.6782
35.1252 1400 37.4166
35.242 1362 36.9053
35.3587 1448 38.0526
35.4755 1343 36.647
35.5921 1329 36.4555
35.7088 1377 37.108
35.8254 1306 36.1386
35.9419 1176 34.2929
36.0584 1322 36.3593
36.1749 1295 35.9861
36.2913 1311 36.2077
36.4077 1302 36.0832
36.524 1287 35.8748
36.6403 1361 36.8917
36.7565 1351 36.756
36.8727 1315 36.2629
36.9889 1386 37.229
37.1049 1340 36.606
37.221 0 1
37.3369 0 1
37.4529 0 1
37.5687 0 1
37.6845 0 1
37.8003 0 1
37.916 0 1
38.0316 0 1
38.1472 0 1
40.5851 0 1
40.7008 0 1
40.8164 0 1
40.9322 0 1
41.048 0 1
41.1639 0 1
41.2798 0 1
41.3958 0 1
41.5118 0 1
41.6279 0 1
41.744 975 31.225
41.8602 1023 31.9844
41.9765 1108 33.2866
42.0928 1088 32.9848
42.2091 1092 33.0454
42.3255 1074 32.7719
42.4419 967 31.0966
42.5584 931 30.5123
42.675 874 29.5635
42.7915 826 28.7402
42.9081 849 29.1376
43.0248 951 30.8383
43.1415 1040 32.249
43.2582 959 30.9677
43.375 1067 32.665
43.4918 1049 32.3883
43.6087 1081 32.8786
43.7256 1036 32.187
43.8425 1033 32.1403
43.9595 941 30.6757
44.0765 1035 32.1714
44.1935 971 31.1609
44.3106 929 30.4795
44.4277 886 29.7658
44.5448 900 30
44.6619 810 28.4605
44.7791 827 28.7576
44.8963 799 28.2666
45.0136 804 28.3549
45.1308 757 27.5136
45.2481 768 27.7128
45.3654 803 28.3373
45.4827 791 28.1247
45.6001 763 27.6225
45.7174 823 28.688
45.8348 724 26.9072
45.9522 775 27.8388
46.0697 718 26.7955
46.1871 721 26.8514
46.3046 604 24.5764
46.422 618 24.8596
46.5395 640 25.2982
46.657 660 25.6905
46.7745 686 26.1916
46.892 742 27.2397
47.0096 738 27.1662
47.1271 727 26.9629
47.2446 743 27.258
47.3622 749 27.3679
47.4797 746 27.313
47.5973 716 26.7582
47.7149 721 26.8514
47.8324 674 25.9615
47.95 685 26.1725
48.0675 589 24.2693
48.1851 600 24.4949
48.3027 555 23.5584
48.4202 579 24.0624
48.5378 561 23.6854
48.6554 586 24.2074
48.7729 571 23.8956
48.8904 621 24.9199
49.008 565 23.7697
49.1255 594 24.3721
49.243 606 24.6171
49.3605 557 23.6008
49.478 571 23.8956
49.5955 542 23.2809
49.713 512 22.6274
49.8304 479 21.8861
49.9479 491 22.1585
50.0653 536 23.1517
50.1827 629 25.0799
50.3001 612 24.7386
50.4175 613 24.7588
50.5348 728 26.9815
50.6521 743 27.258
50.7694 679 26.0576
50.8867 724 26.9072
51.004 763 27.6225
51.1212 801 28.3019
51.2384 800 28.2843
51.3556 841 29
51.4727 770 27.7489
51.5899 779 27.9106
51.707 764 27.6405
51.824 735 27.1109
51.9411 766 27.6767
52.0581 800 28.2843
52.175 852 29.189
52.2919 835 28.8964
52.4088 893 29.8831
52.5257 966 31.0805
52.6425 912 30.1993
52.7593 964 31.0483
52.876 982 31.3369
52.9927 931 30.5123
53.1094 871 29.5127
53.226 831 28.8271
53.3426 784 28
53.4591 732 27.0555
53.5756 844 29.0517
53.692 957 30.9354
53.8084 1023 31.9844
53.9248 1119 33.4515
54.0411 1196 34.5832
54.1573 1198 34.6121
54.2735 0 1
54.3896 0 1
54.5057 0 1
54.6217 0 1
54.7377 0 1
54.8537 0 1
54.9695 0 1
55.0853 0 1
55.2011 0 1
55.3168 0 1
55.4324 0 1
57.824 0 1
57.9396 0 1
58.0553 0 1
58.1711 0 1
58.2869 0 1
58.4028 0 1
58.5187 0 1
58.6347 0 1
58.7508 0 1
58.8669 0 1
58.983 1107 33.2716
59.0992 1241 35.2278
59.2155 1273 35.6791
59.3318 1359 36.8646
59.4482 1363 36.9188
59.5646 1407 37.51
59.681 1365 36.9459
59.7975 1416 37.6298
59.9141 1351 36.756
60.0306 1293 35.9583
60.1473 1285 35.8469
60.2639 1163 34.1028
60.3807 1154 33.9706
60.4974 1159 34.0441
60.6142 1128 33.5857
60.731 1085 32.9393
60.8479 1118 33.4365
60.9648 1087 32.9697
61.0818 1107 33.2716
61.1987 1204 34.6987
61.3158 1147 33.8674
61.4328 1166 34.1467
61.5499 1096 33.1059
61.667 1029 32.078
61.7841 980 31.305
61.9013 871 29.5127
62.0185 878 29.6311
62.1357 891 29.8496
62.253 1024 32
62.3702 1161 34.0735
62.4875 1151 33.9264
62.6049 1284 35.8329
62.7222 1189 34.4819
62.8396 1343 36.647
62.9569 1312 36.2215
63.0743 1356 36.8239
63.1918 1330 36.4692
63.3092 1266 35.5809
63.4267 1330 36.4692
63.5441 1240 35.2136
63.6616 1234 35.1283
63.7791 1210 34.7851
63.8966 1135 33.6898
64.0142 1233 35.1141
64.1317 1155 33.9853
64.2492 1112 33.3467
64.3668 1160 34.0588
64.4843 1158 34.0294
64.6019 1268 35.609
64.7195 1235 35.1426
64.837 1279 35.7631
64.9546 1261 35.5106
65.0722 1240 35.2136
65.1898 1096 33.1059
65.3074 957 30.9354
65.4249 921 30.348
65.5425 835 28.8964
65.6601 867 29.4449
65.7777 947 30.7734
65.8952 1107 33.2716
66.0128 1240 35.2136
66.1304 1261 35.5106
66.2479 1361 36.8917
66.3655 1372 37.0405
66.483 1388 37.2559
66.6005 1397 37.3765
66.718 1369 37
66.8355 1349 36.7287
66.953 1364 36.9324
67.0705 1260 35.4965
67.1879 1302 36.0832
67.3054 1154 33.9706
67.4228 1134 33.6749
67.5402 1142 33.7935
67.6576 1149 33.8969
67.7749 1066 32.6497
67.8923 1060 32.5576
68.0096 1125 33.541
68.1269 1113 33.3617
68.2442 1079 32.8481
68.3614 1151 33.9264
68.4787 1185 34.4238
68.5958 1139 33.7491
68.713 1098 33.1361
68.8302 1017 31.8904
68.9473 1026 32.0312
69.0643 824 28.7054
69.1814 772 27.7849
69.2984 834 28.8791
69.4154 949 30.8058
69.5323 1067 32.665
69.6492 1166 34.1467
69.7661 1243 35.2562
69.8829 1290 35.9166
69.9997 1309 36.1801
70.1165 1300 36.0555
70.2332 1372 37.0405
70.3499 1314 36.2491
70.4665 1351 36.756
70.5831 1256 35.4401
70.6996 1197 34.5977
70.8161 1178 34.322
70.9326 1110 33.3167
71.049 1144 33.8231
71.1653 1003 31.6702
71.2817 1041 32.2645
71.3979 1037 32.2025
71.5141 1049 32.3883
71.6303 1034 32.1559
71.7464 1006 31.7175
71.8624 0 1
71.9784 0 1
72.0944 0 1
72.2102 0 1
72.3261 0 1
72.4418 0 1
72.5575 0 1
72.6732 0 1
75.1054 0 1
75.2209 0 1
75.3365 0 1
75.4521 0 1
75.5678 0 1
75.6835 0 1
75.7993 0 1
75.9151 0 1
76.031 0 1
76.147 1122 33.4963
76.263 1189 34.4819
76.3791 1150 33.9116
76.4952 1054 32.4654
76.6113 1024 32
76.7276 1107 33.2716
76.8438 993 31.5119
76.9601 1013 31.8277
77.0765 1124 33.5261
77.1929 1098 33.1361
77.3093 1164 34.1174
77.4258 1140 33.7639
77.5423 1114 33.3766
77.6589 1162 34.0881
77.7755 1077 32.8177
77.8921 890 29.8329
78.0088 886 29.7658
78.1256 704 26.533
78.2423 724 26.9072
78.3591 776 27.8568
78.4759 914 30.2324
78.5928 1017 31.8904
78.7097 1146 33.8526
78.8266 1156 34
78.9436 1353 36.7831
79.0606 1215 34.8569
79.1776 1243 35.2562
79.2946 1330 36.4692
79.4117 1273 35.6791
79.5288 1272 35.6651
79.6459 1275 35.7071
79.7631 1230 35.0714
79.8802 1146 33.8526
79.9974 1053 32.45
80.1147 956 30.9192
80.2319 959 30.9677
80.3491 943 30.7083
80.4664 919 30.315
80.5837 894 29.8998
80.701 939 30.6431
80.8183 1000 31.6228
80.9357 996 31.5595
81.053 1005 31.7017
81.1704 1068 32.6803
81.2877 1000 31.6228
81.4051 992 31.496
81.5225 853 29.2062
81.6399 722 26.8701
81.7573 723 26.8887
81.8747 678 26.0384
81.9922 645 25.3969
82.1096 838 28.9482
82.227 928 30.4631
82.3444 985 31.3847
82.4619 1011 31.7962
82.5793 1043 32.2955
82.6967 1120 33.4664
82.8142 1041 32.2645
82.9316 1086 32.9545
83.049 1105 33.2415
83.1664 1116 33.4066
83.2838 1044 32.311
83.4012 976 31.241
83.5186 927 30.4467
83.636 832 28.8444
83.7534 810 28.4605
83.8708 797 28.2312
83.9881 792 28.1425
84.1055 808 28.4253
84.2228 828 28.775
84.3401 844 29.0517
84.4575 988 31.4325
84.5747 966 31.0805
84.692 932 30.5287
84.8093 981 31.3209
84.9265 918 30.2985
85.0437 811 28.4781
85.1609 710 26.6458
85.2781 661 25.7099
85.3952 579 24.0624
85.5123 641 25.318
85.6294 746 27.313
85.7465 871 29.5127
85.8636 981 31.3209
85.9806 1048 32.3728
86.0976 1183 34.3948
86.2145 1125 33.541
86.3315 1204 34.6987
86.4484 1161 34.0735
86.5652 1220 34.9285
86.682 1190 34.4964
86.7988 1222 34.9571
86.9156 1157 34.0147
87.0323 1100 33.1662
87.149 1080 32.8634
87.2657 1021 31.9531
87.3823 990 31.4643
87.4988 942 30.692
87.6154 937 30.6105
87.7318 1002 31.6544
87.8483 1160 34.0588
87.9647 1102 33.1964
88.081 1071 32.7261
88.1973 1139 33.7491
88.3136 1160 34.0588
88.4298 1141 33.7787
88.546 1084 32.9242
88.6621 951 30.8383
88.7781 816 28.5657
88.8942 0 1
89.0101 0 1
89.126 0 1
89.2419 0 1
89.3577 0 1
89.4734 0 1
89.5891 0 1
89.7047 0 1
89.8203 0 1
89.9358 0 1
92.3269 0 1
92.4424 0 1
92.558 0 1
92.6736 0 1
92.7893 0 1
92.905 0 1
93.0208 0 1
93.1366 0 1
93.2525 0 1
93.3685 0 1
93.4845 0 1
93.6005 1126 33.5559
93.7167 1190 34.4964
93.8328 1074 32.7719
93.949 1108 33.2866
94.0653 1009 31.7648
94.1816 907 30.1164
94.2979 804 28.3549
94.4143 800 28.2843
94.5307 764 27.6405
94.6472 856 29.2575
94.7637 916 30.2655
94.8803 1051 32.4191
94.9969 1148 33.8821
95.1135 1318 36.3043
95.2302 1250 35.3553
95.3469 1289 35.9026
95.4637 1319 36.318
95.5805 1316 36.2767
95.6973 1315 36.2629
95.8142 1363 36.9188
95.9311 1263 35.5387
96.048 1240 35.2136
96.1649 1307 36.1525
96.2819 1138 33.7343
96.3989 1105 33.2415
96.516 1089 33
96.633 1085 32.9393
96.7501 1020 31.9374
96.8673 1075 32.7872
96.9844 1034 32.1559
97.1016 1154 33.9706
97.2188 1125 33.541
97.336 1180 34.3511
97.4532 1156 34
97.5704 1177 34.3074
97.6877 1112 33.3467
97.805 1001 31.6386
97.9223 895 29.9166
98.0396 813 28.5132
98.1569 767 27.6948
98.2743 800 28.2843
98.3916 944 30.7246
98.509 1044 32.311
98.6264 1215 34.8569
98.7438 1237 35.171
98.8612 1280 35.7771
98.9786 1385 37.2156
99.096 1372 37.0405
99.2134 1334 36.524
99.3308 1405 37.4833
99.4482 1382 37.1753
99.5656 1335 36.5377
99.6831 1345 36.6742
99.8005 1225 35
99.9179 1219 34.9142
100.035 1083 32.909
100.153 1076 32.8024
100.27 1061 32.573
100.388 1081 32.8786
100.505 1085 32.9393
100.622 1141 33.7787
100.74 1190 34.4964
100.857 1193 34.5398
100.975 1271 35.6511
101.092 1204 34.6987
101.209 1187 34.4529
101.327 1049 32.3883
101.444 932 30.5287
101.561 922 30.3645
101.679 858 29.2916
101.796 803 28.3373
101.913 885 29.7489
102.03 1036 32.187
102.148 1160 34.0588
102.265 1261 35.5106
102.382 1389 37.2693
102.499 1367 36.973
102.616 1417 37.6431
102.733 1449 38.0657
102.851 1474 38.3927
102.968 1504 38.7814
103.085 1430 37.8153
103.202 1358 36.8511
103.319 1349 36.7287
103.436 1232 35.0999
103.552 1225 35
103.669 1126 33.5559
103.786 1146 33.8526
103.903 1111 33.3317
104.02 1233 35.1141
104.137 1232 35.0999
104.253 1330 36.4692
104.37 1319 36.318
104.487 1336 36.5513
104.603 1352 36.7696
104.72 1224 34.9857
104.836 1173 34.2491
104.953 1097 33.121
105.069 964 31.0483
105.186 888 29.7993
105.302 933 30.545
105.418 1069 32.6956
105.535 1189 34.4819
105.651 1288 35.8887
105.767 1360 36.8782
105.883 1573 39.6611
105.999 1555 39.4335
106.115 0 1
106.231 0 1
106.347 0 1
106.463 0 1
106.579 0 1
106.694 0 1
106.81 0 1
106.926 0 1
107.041 0 1
107.157 0 1
109.576 0 1
109.692 0 1
109.807 0 1
109.923 0 1
110.039 0 1
110.155 0 1
110.27 0 1
110.386 0 1
110.502 0 1
110.618 1129 33.6006
110.735 1332 36.4966
110.851 1403 37.4566
110.967 1410 37.55
111.083 1490 38.6005
111.199 1474 38.3927
111.316 1487 38.5616
111.432 1534 39.1663
111.549 1491 38.6135
111.665 1474 38.3927
111.782 1427 37.7757
111.898 1316 36.2767
112.015 1225 35
112.132 1208 34.7563
112.248 1108 33.2866
112.365 1149 33.8969
112.482 1131 33.6303
112.599 1269 35.623
112.716 1235 35.1426
112.832 1281 35.7911
112.949 1233 35.1141
113.066 1300 36.0555
113.183 1230 35.0714
113.3 1222 34.9571
113.417 1113 33.3617
113.534 1013 31.8277
113.652 958 30.9516
113.769 998 31.5911
113.886 955 30.9031
114.003 932 30.5287
114.12 1110 33.3167
114.238 1271 35.6511
114.355 1367 36.973
114.472 1379 37.1349
114.589 1414 37.6032
114.707 1511 38.8716
114.824 1425 37.7492
114.942 1524 39.0384
115.059 1491 38.6135
115.176 1474 38.3927
115.294 1404 37.47
115.411 1386 37.229
115.529 1318 36.3043
115.646 1249 35.3412
115.764 1207 34.7419
115.881 1105 33.2415
115.999 1188 34.4674
116.116 1239 35.1994
116.234 1204 34.6987
116.351 1330 36.4692
116.469 1317 36.2905
116.586 1306 36.1386
116.704 1290 35.9166
116.821 1253 35.3977
116.939 1271 35.6511
117.056 1136 33.7046
117.174 1016 31.8748
117.291 1044 32.311
117.409 1005 31.7017
117.526 1028 32.0624
117.644 1162 34.0881
117.761 1280 35.7771
117.879 1360 36.8782
117.996 1421 37.6962
118.114 1497 38.6911
118.231 1488 38.5746
118.349 1438 37.921
118.466 1574 39.6737
118.584 1525 39.0512
118.701 1522 39.0128
118.819 1529 39.1024
118.936 1377 37.108
119.053 1416 37.6298
119.171 1330 36.4692
119.288 1220 34.9285
119.405 1254 35.4119
119.523 1186 34.4384
119.64 1218 34.8999
119.757 1217 34.8855
119.875 1200 34.641
119.992 1268 35.609
120.109 1317 36.2905
120.226 1361 36.8917
120.343 1316 36.2767
120.46 1233 35.1141
120.578 1230 35.0714
120.695 1327 36.428
120.812 1076 32.8024
120.929 1049 32.3883
121.046 1029 32.078
121.163 1137 33.7194
121.279 1119 33.4515
121.396 1235 35.1426
121.513 1334 36.524
121.63 1354 36.7967
121.747 1488 38.5746
121.863 1479 38.4578
121.98 1480 38.4708
122.097 1490 38.6005
122.213 1489 38.5876
122.33 1460 38.2099
122.446 1484 38.5227
122.563 1416 37.6298
122.679 1424 37.7359
122.795 1334 36.524
122.912 1312 36.2215
123.028 1231 35.0856
123.144 1203 34.6843
123.26 1169 34.1906
123.377 0 1
123.493 0 1
123.609 0 1
123.725 0 1
123.84 0 1
123.956 0 1
124.072 0 1
124.188 0 1
124.303 0 1
124.419 0 1
126.852 0 1
126.968 0 1
127.083 0 1
127.199 0 1
127.315 0 1
127.431 0 1
127.547 0 1
127.663 0 1
127.779 0 1
127.895 0 1
128.011 0 1
128.127 0 1
128.243 0 1
128.359 1370 37.0135
128.476 1306 36.1386
128.592 1319 36.318
128.708 1399 37.4032
128.825 1469 38.3275
128.941 1458 38.1838
129.058 1429 37.8021
129.174 1484 38.5227
129.291 1400 37.4166
129.408 1418 37.6563
129.524 1378 37.1214
129.641 1282 35.805
129.758 1287 35.8748
129.875 1203 34.6843
129.992 1224 34.9857
130.108 1199 34.6266
130.225 1176 34.2929
130.342 1273 35.6791
130.459 1427 37.7757
130.576 1509 38.8458
130.693 1467 38.3014
130.81 1488 38.5746
130.928 1529 39.1024
131.045 1539 39.2301
131.162 1566 39.5727
131.279 1576 39.6989
131.396 1534 39.1663
131.513 1524 39.0384
131.631 1520 38.9872
131.748 1441 37.9605
131.865 1437 37.9078
131.983 1349 36.7287
132.1 1350 36.7423
132.217 1373 37.054
132.335 1442 37.9737
132.452 1556 39.4462
132.57 1490 38.6005
132.687 1461 38.223
132.804 1499 38.7169
132.922 1502 38.7556
133.039 1416 37.6298
133.157 1451 38.092
133.274 1296 36
133.392 1354 36.7967
133.509 1218 34.8999
133.627 1238 35.1852
133.744 1201 34.6554
133.862 1224 34.9857
133.979 1271 35.6511
134.097 1413 37.5899
134.214 1453 38.1182
134.332 1572 39.6485
134.449 1566 39.5727
134.567 1532 39.1408
134.684 1569 39.6106
134.802 1569 39.6106
134.919 1622 40.2741
135.037 1568 39.598
135.154 1559 39.4842
135.272 1514 38.9102
135.389 1495 38.6652
135.507 1353 36.7831
135.624 1349 36.7287
135.742 1351 36.756
135.859 1432 37.8418
135.977 1404 37.47
136.094 1446 38.0263
136.211 1484 38.5227
136.329 1503 38.7685
136.446 1470 38.3406
136.564 1465 38.2753
136.681 1378 37.1214
136.798 1413 37.5899
136.915 1369 37
137.033 1354 36.7967
137.15 1324 36.3868
137.267 1261 35.5106
137.384 1314 36.2491
137.502 1263 35.5387
137.619 1318 36.3043
137.736 1404 37.47
137.853 1393 37.3229
137.97 1503 38.7685
138.087 1557 39.4588
138.204 1501 38.7427
138.321 1581 39.7618
138.438 1623 40.2865
138.555 1636 40.4475
138.672 1561 39.5095
138.788 1607 40.0874
138.905 1449 38.0657
139.022 1483 38.5097
139.139 1367 36.973
139.255 1363 36.9188
139.372 1357 36.8375
139.488 1406 37.4967
139.605 1398 37.3898
139.721 1538 39.2173
139.838 1495 38.6652
139.954 1409 37.5366
140.071 1402 37.4433
140.187 1410 37.55
140.303 1359 36.8646
140.419 1452 38.1051
140.535 1296 36
140.652 1278 35.7491
140.768 0 1
140.884 0 1
141 0 1
141.115 0 1
141.231 0 1
141.347 0 1
141.463 0 1
141.578 0 1
141.694 0 1
144.104 0 1
144.219 0 1
144.335 0 1
144.45 0 1
144.566 0 1
144.682 0 1
144.798 0 1
144.914 0 1
145.03 0 1
145.146 1004 31.686
145.262 1118 33.4365
145.378 1073 32.7567
145.494 1080 32.8634
145.61 1136 33.7046
145.726 1085 32.9393
145.842 1030 32.0936
145.959 997 31.5753
146.075 943 30.7083
146.192 973 31.1929
146.308 991 31.4802
146.425 1029 32.078
146.541 1019 31.9218
146.658 1122 33.4963
146.774 1112 33.3467
146.891 1214 34.8425
147.008 1188 34.4674
147.125 1077 32.8177
147.241 1252 35.3836
147.358 1159 34.0441
147.475 1234 35.1283
147.592 1190 34.4964
147.709 1201 34.6554
147.826 1226 35.0143
147.943 1130 33.6155
148.06 1089 33
148.177 1084 32.9242
148.294 1118 33.4365
148.411 1143 33.8083
148.528 1203 34.6843
148.645 1236 35.1568
148.762 1221 34.9428
148.88 1163 34.1028
148.997 1153 33.9559
149.114 1126 33.5559
149.231 1156 34
149.349 1130 33.6155
149.466 1201 34.6554
149.583 1178 34.322
149.701 1008 31.749
149.818 1093 33.0606
149.935 1058 32.5269
150.053 1040 32.249
150.17 1043 32.2955
150.287 1111 33.3317
150.405 1073 32.7567
150.522 1135 33.6898
150.64 1169 34.1906
150.757 1217 34.8855
150.875 1227 35.0286
150.992 1266 35.5809
151.11 1228 35.0428
151.227 1198 34.6121
151.344 1330 36.4692
151.462 1227 35.0286
151.579 1178 34.322
151.697 1154 33.9706
151.814 1066 32.6497
151.932 1155 33.9853
152.049 1127 33.5708
152.167 1183 34.3948
152.284 1260 35.4965
152.402 1187 34.4529
152.519 1163 34.1028
152.636 1250 35.3553
152.754 1275 35.7071
152.871 1215 34.8569
152.989 1188 34.4674
153.106 1202 34.6699
153.223 1197 34.5977
153.341 1177 34.3074
153.458 1146 33.8526
153.575 1121 33.4813
153.693 1091 33.0303
153.81 1071 32.7261
153.927 1146 33.8526
154.044 1180 34.3511
154.162 1137 33.7194
154.279 1258 35.4683
154.396 1341 36.6197
154.513 1390 37.2827
154.63 1267 35.5949
154.747 1334 36.524
154.864 1393 37.3229
154.981 1429 37.8021
155.098 1353 36.7831
155.215 1361 36.8917
155.332 1278 35.7491
155.449 1274 35.6931
155.566 1261 35.5106
155.683 1337 36.565
155.8 1319 36.318
155.917 1337 36.565
156.033 1300 36.0555
156.15 0 1
156.267 0 1
156.383 0 1
156.5 0 1
156.617 0 1
156.733 0 1
156.85 0 1
156.966 0 1
157.082 0 1
157.199 0 1
157.315 0 1
157.431 0 1
157.547 0 1
157.664 0 1
157.78 0 1
157.896 0 1
158.012 0 1
158.128 0 1
158.244 0 1
158.359 0 1
158.475 0 1
158.591 0 1
158.706 0 1
