
6.15755 0 1
6.2731 0 1
6.3887 0 1
6.50437 0 1
6.62009 0 1
6.73587 0 1
6.8517 0 1
6.96759 0 1
7.08353 0 1
7.19952 0 1
7.31557 0 1
7.43166 0 1
7.54781 0 1
7.664 0 1
7.78024 0 1
7.89653 0 1
8.01286 0 1
8.12924 0 1
8.24567 0 1
8.36213 0 1
8.47864 0 1
8.59519 0 1
8.71178 0 1
8.82841 0 1
8.94508 0 1
9.06179 0 1
9.17853 0 1
9.29531 0 1
9.41212 0 1
9.52897 0 1
9.64584 0 1
9.76276 0 1
9.8797 0 1
9.99667 0 1
10.1137 0 1
10.2307 0 1
10.3478 0 1
10.4648 0 1
10.5819 0 1
10.6991 0 1
10.8162 0 1
10.9334 0 1
11.0506 0 1
11.1678 0 1
11.285 0 1
11.4023 0 1
11.5196 0 1
11.6369 0 1
11.7542 0 1
11.8715 0 1
11.9888 0 1
12.1062 0 1
12.2235 0 1
12.3409 0 1
12.4582 0 1
12.5756 0 1
12.693 0 1
12.8104 0 1
12.9278 0 1
13.0452 0 1
13.1626 0 1
13.28 0 1
13.3974 0 1
13.5149 0 1
13.6323 0 1
13.7497 0 1
13.8671 0 1
13.9845 0 1
14.1019 0 1
14.2193 0 1
14.3367 0 1
14.4541 0 1
14.5714 0 1
14.6888 0 1
14.8062 0 1
14.9235 0 1
15.0408 936 30.5941
15.1581 981 31.3209
15.2755 1020 31.9374
15.3927 1062 32.5883
15.51 1089 33
15.6273 998 31.5911
15.7445 1039 32.2335
15.8617 935 30.5778
15.9789 992 31.496
16.0961 949 30.8058
16.2132 956 30.9192
16.3304 835 28.8964
16.4475 940 30.6594
16.5646 910 30.1662
16.6816 883 29.7153
16.7986 863 29.3769
16.9156 822 28.6705
17.0326 890 29.8329
17.1496 873 29.5466
17.2665 843 29.0345
17.3833 836 28.9137
17.5002 842 29.0172
17.617 756 27.4955
17.7338 799 28.2666
17.8505 810 28.4605
17.9672 777 27.8747
18.0839 814 28.5307
18.2005 830 28.8097
18.3171 800 28.2843
18.4337 848 29.1204
18.5502 841 29
18.6666 853 29.2062
18.7831 832 28.8444
18.8994 893 29.8831
19.0158 810 28.4605
19.1321 808 28.4253
19.2483 825 28.7228
19.3645 695 26.3629
19.4806 645 25.3969
19.5967 681 26.096
19.7128 654 25.5734
19.8288 602 24.5357
19.9447 552 23.4947
20.0606 0 1
20.1764 0 1
20.2922 0 1
20.4079 0 1
20.5236 0 1
20.6392 0 1
20.7548 0 1
20.8702 0 1
23.3078 0 1
23.4233 0 1
23.539 0 1
23.6547 0 1
23.7704 0 1
23.8862 0 1
24.0021 0 1
24.118 0 1
24.234 0 1
24.35 0 1
24.4661 379 19.4679
24.5822 400 20
24.6984 497 22.2935
24.8146 566 23.7908
24.9309 691 26.2869
25.0472 798 28.2489
25.1636 844 29.0517
25.28 885 29.7489
25.3965 949 30.8058
25.513 945 30.7409
25.6296 926 30.4302
25.7462 952 30.8545
25.8628 903 30.05
25.9795 950 30.8221
26.0962 927 30.4467
26.213 883 29.7153
26.3298 803 28.3373
26.4466 835 28.8964
26.5635 767 27.6948
26.6804 819 28.6182
26.7973 784 28
26.9143 746 27.313
27.0313 771 27.7669
27.1483 763 27.6225
27.2653 757 27.5136
27.3824 769 27.7308
27.4996 858 29.2916
27.6167 857 29.2746
27.7339 846 29.0861
27.8511 830 28.8097
27.9683 773 27.8029
28.0855 820 28.6356
28.2028 879 29.6479
28.3201 861 29.3428
28.4374 856 29.2575
28.5547 895 29.9166
28.6721 857 29.2746
28.7894 893 29.8831
28.9068 876 29.5973
29.0242 836 28.9137
29.1416 797 28.2312
29.259 828 28.775
29.3764 802 28.3196
29.4939 786 28.0357
29.6113 802 28.3196
29.7288 767 27.6948
29.8463 792 28.1425
29.9638 732 27.0555
30.0812 683 26.1343
30.1987 722 26.8701
30.3162 772 27.7849
30.4337 754 27.4591
30.5512 742 27.2397
30.6687 739 27.1846
30.7862 719 26.8142
30.9037 816 28.5657
31.0212 797 28.2312
31.1387 829 28.7924
31.2562 849 29.1376
31.3737 893 29.8831
31.4912 852 29.189
31.6087 797 28.2312
31.7262 832 28.8444
31.8436 814 28.5307
31.9611 797 28.2312
32.0785 772 27.7849
32.1959 817 28.5832
32.3134 769 27.7308
32.4308 771 27.7669
32.5482 727 26.9629
32.6655 695 26.3629
32.7829 714 26.7208
32.9002 709 26.6271
33.0176 705 26.5518
33.1349 690 26.2679
33.2522 755 27.4773
33.3694 674 25.9615
33.4867 657 25.632
33.6039 676 26
33.7211 720 26.8328
33.8383 685 26.1725
33.9554 709 26.6271
34.0725 709 26.6271
34.1896 727 26.9629
34.3067 690 26.2679
34.4237 637 25.2389
34.5407 699 26.4386
34.6577 776 27.8568
34.7746 768 27.7128
34.8915 741 27.2213
35.0084 751 27.4044
35.1252 709 26.6271
35.242 728 26.9815
35.3587 699 26.4386
35.4755 656 25.6125
35.5921 695 26.3629
35.7088 703 26.5141
35.8254 702 26.4953
35.9419 714 26.7208
36.0584 728 26.9815
36.1749 676 26
36.2913 656 25.6125
36.4077 646 25.4165
36.524 615 24.7992
36.6403 597 24.4336
36.7565 544 23.3238
36.8727 480 21.9089
36.9889 454 21.3073
37.1049 421 20.5183
37.221 0 1
37.3369 0 1
37.4529 0 1
37.5687 0 1
37.6845 0 1
37.8003 0 1
37.916 0 1
38.0316 0 1
38.1472 0 1
40.5851 0 1
40.7008 0 1
40.8164 0 1
40.9322 0 1
41.048 0 1
41.1639 0 1
41.2798 0 1
41.3958 0 1
41.5118 0 1
41.6279 0 1
41.744 328 18.1108
41.8602 325 18.0278
41.9765 426 20.6398
42.0928 480 21.9089
42.2091 471 21.7025
42.3255 470 21.6795
42.4419 523 22.8692
42.5584 508 22.5389
42.675 563 23.7276
42.7915 570 23.8747
42.9081 557 23.6008
43.0248 507 22.5167
43.1415 497 22.2935
43.2582 564 23.7487
43.375 577 24.0208
43.4918 583 24.1454
43.6087 544 23.3238
43.7256 548 23.4094
43.8425 538 23.1948
43.9595 537 23.1733
44.0765 570 23.8747
44.1935 545 23.3452
44.3106 536 23.1517
44.4277 550 23.4521
44.5448 535 23.1301
44.6619 554 23.5372
44.7791 539 23.2164
44.8963 596 24.4131
45.0136 597 24.4336
45.1308 567 23.8118
45.2481 582 24.1247
45.3654 515 22.6936
45.4827 565 23.7697
45.6001 540 23.2379
45.7174 561 23.6854
45.8348 527 22.9565
45.9522 505 22.4722
46.0697 501 22.383
46.1871 551 23.4734
46.3046 573 23.9374
46.422 547 23.388
46.5395 514 22.6716
46.657 500 22.3607
46.7745 466 21.587
46.892 491 22.1585
47.0096 542 23.2809
47.1271 640 25.2982
47.2446 498 22.3159
47.3622 537 23.1733
47.4797 558 23.622
47.5973 593 24.3516
47.7149 547 23.388
47.8324 513 22.6495
47.95 537 23.1733
48.0675 563 23.7276
48.1851 520 22.8035
48.3027 556 23.5797
48.4202 561 23.6854
48.5378 580 24.0832
48.6554 563 23.7276
48.7729 576 24
48.8904 542 23.2809
49.008 578 24.0416
49.1255 499 22.3383
49.243 507 22.5167
49.3605 444 21.0713
49.478 439 20.9523
49.5955 475 21.7945
49.713 521 22.8254
49.8304 492 22.1811
49.9479 496 22.2711
50.0653 497 22.2935
50.1827 438 20.9284
50.3001 491 22.1585
50.4175 495 22.2486
50.5348 568 23.8328
50.6521 557 23.6008
50.7694 554 23.5372
50.8867 496 22.2711
51.004 537 23.1733
51.1212 548 23.4094
51.2384 493 22.2036
51.3556 491 22.1585
51.4727 471 21.7025
51.5899 577 24.0208
51.707 546 23.3666
51.824 559 23.6432
51.9411 583 24.1454
52.0581 575 23.9792
52.175 497 22.2935
52.2919 538 23.1948
52.4088 539 23.2164
52.5257 568 23.8328
52.6425 502 22.4054
52.7593 498 22.3159
52.876 493 22.2036
52.9927 462 21.4942
53.1094 432 20.7846
53.226 443 21.0476
53.3426 517 22.7376
53.4591 467 21.6102
53.5756 468 21.6333
53.692 443 21.0476
53.8084 401 20.025
53.9248 345 18.5742
54.0411 356 18.868
54.1573 305 17.4642
54.2735 0 1
54.3896 0 1
54.5057 0 1
54.6217 0 1
54.7377 0 1
54.8537 0 1
54.9695 0 1
55.0853 0 1
55.2011 0 1
55.3168 0 1
55.4324 0 1
57.824 0 1
57.9396 0 1
58.0553 0 1
58.1711 0 1
58.2869 0 1
58.4028 0 1
58.5187 0 1
58.6347 0 1
58.7508 0 1
58.8669 0 1
58.983 511 22.6053
59.0992 482 21.9545
59.2155 586 24.2074
59.3318 684 26.1534
59.4482 690 26.2679
59.5646 718 26.7955
59.681 749 27.3679
59.7975 767 27.6948
59.9141 808 28.4253
60.0306 821 28.6531
60.1473 843 29.0345
60.2639 820 28.6356
60.3807 876 29.5973
60.4974 813 28.5132
60.6142 808 28.4253
60.731 829 28.7924
60.8479 860 29.3258
60.9648 758 27.5318
61.0818 782 27.9643
61.1987 758 27.5318
61.3158 725 26.9258
61.4328 719 26.8142
61.5499 718 26.7955
61.667 670 25.8844
61.7841 687 26.2107
61.9013 685 26.1725
62.0185 710 26.6458
62.1357 678 26.0384
62.253 687 26.2107
62.3702 717 26.7769
62.4875 679 26.0576
62.6049 687 26.2107
62.7222 684 26.1534
62.8396 649 25.4755
62.9569 699 26.4386
63.0743 686 26.1916
63.1918 686 26.1916
63.3092 650 25.4951
63.4267 661 25.7099
63.5441 649 25.4755
63.6616 660 25.6905
63.7791 684 26.1534
63.8966 673 25.9422
64.0142 693 26.3249
64.1317 660 25.6905
64.2492 658 25.6515
64.3668 659 25.671
64.4843 653 25.5539
64.6019 652 25.5343
64.7195 638 25.2587
64.837 621 24.9199
64.9546 554 23.5372
65.0722 586 24.2074
65.1898 536 23.1517
65.3074 597 24.4336
65.4249 537 23.1733
65.5425 557 23.6008
65.6601 594 24.3721
65.7777 624 24.98
65.8952 651 25.5147
66.0128 612 24.7386
66.1304 638 25.2587
66.2479 636 25.219
66.3655 657 25.632
66.483 674 25.9615
66.6005 624 24.98
66.718 639 25.2784
66.8355 606 24.6171
66.953 617 24.8395
67.0705 626 25.02
67.1879 678 26.0384
67.3054 597 24.4336
67.4228 708 26.6083
67.5402 698 26.4197
67.6576 690 26.2679
67.7749 691 26.2869
67.8923 625 25
68.0096 680 26.0768
68.1269 623 24.96
68.2442 623 24.96
68.3614 589 24.2693
68.4787 634 25.1794
68.5958 581 24.1039
68.713 588 24.2487
68.8302 527 22.9565
68.9473 578 24.0416
69.0643 575 23.9792
69.1814 620 24.8998
69.2984 594 24.3721
69.4154 627 25.04
69.5323 665 25.7876
69.6492 624 24.98
69.7661 586 24.2074
69.8829 644 25.3772
69.9997 577 24.0208
70.1165 582 24.1247
70.2332 620 24.8998
70.3499 588 24.2487
70.4665 492 22.1811
70.5831 503 22.4277
70.6996 462 21.4942
70.8161 423 20.567
70.9326 451 21.2368
71.049 393 19.8242
71.1653 389 19.7231
71.2817 363 19.0526
71.3979 364 19.0788
71.5141 315 17.7482
71.6303 274 16.5529
71.7464 213 14.5945
71.8624 0 1
71.9784 0 1
72.0944 0 1
72.2102 0 1
72.3261 0 1
72.4418 0 1
72.5575 0 1
72.6732 0 1
75.1054 0 1
75.2209 0 1
75.3365 0 1
75.4521 0 1
75.5678 0 1
75.6835 0 1
75.7993 0 1
75.9151 0 1
76.031 0 1
76.147 387 19.6723
76.263 443 21.0476
76.3791 497 22.2935
76.4952 512 22.6274
76.6113 510 22.5832
76.7276 543 23.3024
76.8438 569 23.8537
76.9601 527 22.9565
77.0765 578 24.0416
77.1929 546 23.3666
77.3093 498 22.3159
77.4258 521 22.8254
77.5423 524 22.891
77.6589 488 22.0907
77.7755 456 21.3542
77.8921 483 21.9773
78.0088 444 21.0713
78.1256 467 21.6102
78.2423 482 21.9545
78.3591 530 23.0217
78.4759 502 22.4054
78.5928 492 22.1811
78.7097 558 23.622
78.8266 500 22.3607
78.9436 573 23.9374
79.0606 508 22.5389
79.1776 526 22.9347
79.2946 541 23.2594
79.4117 564 23.7487
79.5288 546 23.3666
79.6459 539 23.2164
79.7631 574 23.9583
79.8802 590 24.2899
79.9974 538 23.1948
80.1147 576 24
80.2319 586 24.2074
80.3491 585 24.1868
80.4664 557 23.6008
80.5837 594 24.3721
80.701 569 23.8537
80.8183 554 23.5372
80.9357 539 23.2164
81.053 545 23.3452
81.1704 568 23.8328
81.2877 559 23.6432
81.4051 509 22.561
81.5225 541 23.2594
81.6399 466 21.587
81.7573 460 21.4476
81.8747 496 22.2711
81.9922 538 23.1948
82.1096 538 23.1948
82.227 547 23.388
82.3444 599 24.4745
82.4619 558 23.622
82.5793 591 24.3105
82.6967 575 23.9792
82.8142 580 24.0832
82.9316 583 24.1454
83.049 582 24.1247
83.1664 576 24
83.2838 532 23.0651
83.4012 537 23.1733
83.5186 551 23.4734
83.636 613 24.7588
83.7534 596 24.4131
83.8708 570 23.8747
83.9881 614 24.779
84.1055 553 23.516
84.2228 588 24.2487
84.3401 574 23.9583
84.4575 566 23.7908
84.5747 572 23.9165
84.692 609 24.6779
84.8093 585 24.1868
84.9265 540 23.2379
85.0437 511 22.6053
85.1609 495 22.2486
85.2781 503 22.4277
85.3952 506 22.4944
85.5123 492 22.1811
85.6294 560 23.6643
85.7465 542 23.2809
85.8636 587 24.2281
85.9806 591 24.3105
86.0976 589 24.2693
86.2145 573 23.9374
86.3315 619 24.8797
86.4484 592 24.3311
86.5652 600 24.4949
86.682 609 24.6779
86.7988 608 24.6577
86.9156 584 24.1661
87.0323 541 23.2594
87.149 584 24.1661
87.2657 619 24.8797
87.3823 575 23.9792
87.4988 564 23.7487
87.6154 552 23.4947
87.7318 582 24.1247
87.8483 509 22.561
87.9647 535 23.1301
88.081 487 22.0681
88.1973 397 19.9249
88.3136 383 19.5704
88.4298 331 18.1934
88.546 328 18.1108
88.6621 299 17.2916
88.7781 314 17.72
88.8942 0 1
89.0101 0 1
89.126 0 1
89.2419 0 1
89.3577 0 1
89.4734 0 1
89.5891 0 1
89.7047 0 1
89.8203 0 1
89.9358 0 1
92.3269 0 1
92.4424 0 1
92.558 0 1
92.6736 0 1
92.7893 0 1
92.905 0 1
93.0208 0 1
93.1366 0 1
93.2525 0 1
93.3685 0 1
93.4845 0 1
93.6005 468 21.6333
93.7167 503 22.4277
93.8328 544 23.3238
93.949 530 23.0217
94.0653 610 24.6982
94.1816 543 23.3024
94.2979 550 23.4521
94.4143 530 23.0217
94.5307 512 22.6274
94.6472 534 23.1084
94.7637 535 23.1301
94.8803 593 24.3516
94.9969 613 24.7588
95.1135 557 23.6008
95.2302 602 24.5357
95.3469 600 24.4949
95.4637 647 25.4362
95.5805 623 24.96
95.6973 633 25.1595
95.8142 632 25.1396
95.9311 574 23.9583
96.048 565 23.7697
96.1649 623 24.96
96.2819 636 25.219
96.3989 583 24.1454
96.516 589 24.2693
96.633 625 25
96.7501 647 25.4362
96.8673 672 25.923
96.9844 654 25.5734
97.1016 584 24.1661
97.2188 650 25.4951
97.336 566 23.7908
97.4532 638 25.2587
97.5704 624 24.98
97.6877 623 24.96
97.805 572 23.9165
97.9223 575 23.9792
98.0396 544 23.3238
98.1569 522 22.8473
98.2743 525 22.9129
98.3916 567 23.8118
98.509 581 24.1039
98.6264 614 24.779
98.7438 641 25.318
98.8612 661 25.7099
98.9786 599 24.4745
99.096 632 25.1396
99.2134 618 24.8596
99.3308 649 25.4755
99.4482 612 24.7386
99.5656 646 25.4165
99.6831 632 25.1396
99.8005 635 25.1992
99.9179 638 25.2587
100.035 626 25.02
100.153 671 25.9037
100.27 655 25.593
100.388 681 26.096
100.505 631 25.1197
100.622 647 25.4362
100.74 622 24.9399
100.857 593 24.3516
100.975 643 25.3574
101.092 655 25.593
101.209 649 25.4755
101.327 614 24.779
101.444 606 24.6171
101.561 592 24.3311
101.679 558 23.622
101.796 595 24.3926
101.913 581 24.1039
102.03 577 24.0208
102.148 690 26.2679
102.265 736 27.1293
102.382 657 25.632
102.499 664 25.7682
102.616 674 25.9615
102.733 738 27.1662
102.851 663 25.7488
102.968 711 26.6646
103.085 701 26.4764
103.202 750 27.3861
103.319 710 26.6458
103.436 715 26.7395
103.552 736 27.1293
103.669 772 27.7849
103.786 735 27.1109
103.903 788 28.0713
104.02 754 27.4591
104.137 746 27.313
104.253 705 26.5518
104.37 680 26.0768
104.487 739 27.1846
104.603 743 27.258
104.72 728 26.9815
104.836 695 26.3629
104.953 719 26.8142
105.069 706 26.5707
105.186 595 24.3926
105.302 577 24.0208
105.418 531 23.0434
105.535 526 22.9347
105.651 466 21.587
105.767 476 21.8174
105.883 446 21.1187
105.999 387 19.6723
106.115 0 1
106.231 0 1
106.347 0 1
106.463 0 1
106.579 0 1
106.694 0 1
106.81 0 1
106.926 0 1
107.041 0 1
107.157 0 1
109.576 0 1
109.692 0 1
109.807 0 1
109.923 0 1
110.039 0 1
110.155 0 1
110.27 0 1
110.386 0 1
110.502 0 1
110.618 298 17.2627
110.735 362 19.0263
110.851 475 21.7945
110.967 547 23.388
111.083 596 24.4131
111.199 610 24.6982
111.316 687 26.2107
111.432 660 25.6905
111.549 723 26.8887
111.665 642 25.3377
111.782 700 26.4575
111.898 638 25.2587
112.015 616 24.8193
112.132 636 25.219
112.248 643 25.3574
112.365 678 26.0384
112.482 657 25.632
112.599 651 25.5147
112.716 658 25.6515
112.832 686 26.1916
112.949 710 26.6458
113.066 640 25.2982
113.183 613 24.7588
113.3 652 25.5343
113.417 599 24.4745
113.534 604 24.5764
113.652 615 24.7992
113.769 640 25.2982
113.886 586 24.2074
114.003 546 23.3666
114.12 516 22.7156
114.238 544 23.3238
114.355 580 24.0832
114.472 572 23.9165
114.589 573 23.9374
114.707 577 24.0208
114.824 556 23.5797
114.942 592 24.3311
115.059 633 25.1595
115.176 617 24.8395
115.294 611 24.7184
115.411 565 23.7697
115.529 606 24.6171
115.646 556 23.5797
115.764 558 23.622
115.881 570 23.8747
115.999 570 23.8747
116.116 609 24.6779
116.234 577 24.0208
116.351 617 24.8395
116.469 551 23.4734
116.586 545 23.3452
116.704 525 22.9129
116.821 534 23.1084
116.939 566 23.7908
117.056 584 24.1661
117.174 572 23.9165
117.291 583 24.1454
117.409 539 23.2164
117.526 531 23.0434
117.644 544 23.3238
117.761 497 22.2935
117.879 477 21.8403
117.996 493 22.2036
118.114 512 22.6274
118.231 537 23.1733
118.349 553 23.516
118.466 584 24.1661
118.584 609 24.6779
118.701 567 23.8118
118.819 582 24.1247
118.936 566 23.7908
119.053 495 22.2486
119.171 505 22.4722
119.288 515 22.6936
119.405 489 22.1133
119.523 496 22.2711
119.64 505 22.4722
119.757 574 23.9583
119.875 561 23.6854
119.992 546 23.3666
120.109 541 23.2594
120.226 508 22.5389
120.343 517 22.7376
120.46 525 22.9129
120.578 545 23.3452
120.695 530 23.0217
120.812 517 22.7376
120.929 567 23.8118
121.046 540 23.2379
121.163 498 22.3159
121.279 488 22.0907
121.396 465 21.5639
121.513 446 21.1187
121.63 421 20.5183
121.747 459 21.4243
121.863 449 21.1896
121.98 479 21.8861
122.097 465 21.5639
122.213 425 20.6155
122.33 405 20.1246
122.446 458 21.4009
122.563 425 20.6155
122.679 368 19.1833
122.795 360 18.9737
122.912 307 17.5214
123.028 320 17.8885
123.144 292 17.088
123.26 279 16.7033
123.377 0 1
123.493 0 1
123.609 0 1
123.725 0 1
123.84 0 1
123.956 0 1
124.072 0 1
124.188 0 1
124.303 0 1
124.419 0 1
126.852 0 1
126.968 0 1
127.083 0 1
127.199 0 1
127.315 0 1
127.431 0 1
127.547 0 1
127.663 0 1
127.779 0 1
127.895 0 1
128.011 0 1
128.127 0 1
128.243 0 1
128.359 565 23.7697
128.476 532 23.0651
128.592 537 23.1733
128.708 592 24.3311
128.825 608 24.6577
128.941 586 24.2074
129.058 624 24.98
129.174 654 25.5734
129.291 617 24.8395
129.408 579 24.0624
129.524 594 24.3721
129.641 628 25.0599
129.758 607 24.6374
129.875 615 24.7992
129.992 618 24.8596
130.108 641 25.318
130.225 632 25.1396
130.342 593 24.3516
130.459 568 23.8328
130.576 589 24.2693
130.693 554 23.5372
130.81 584 24.1661
130.928 525 22.9129
131.045 647 25.4362
131.162 700 26.4575
131.279 686 26.1916
131.396 816 28.5657
131.513 771 27.7669
131.631 736 27.1293
131.748 757 27.5136
131.865 758 27.5318
131.983 795 28.1957
132.1 805 28.3725
132.217 881 29.6816
132.335 925 30.4138
132.452 968 31.1127
132.57 1033 32.1403
132.687 1023 31.9844
132.804 1038 32.218
132.922 1045 32.3265
133.039 1037 32.2025
133.157 1117 33.4215
133.274 1049 32.3883
133.392 1138 33.7343
133.509 1107 33.2716
133.627 1115 33.3916
133.744 1098 33.1361
133.862 1080 32.8634
133.979 1024 32
134.097 996 31.5595
134.214 987 31.4166
134.332 984 31.3688
134.449 883 29.7153
134.567 988 31.4325
134.684 1093 33.0606
134.802 1145 33.8378
134.919 1150 33.9116
135.037 1136 33.7046
135.154 1169 34.1906
135.272 1144 33.8231
135.389 1125 33.541
135.507 1113 33.3617
135.624 1064 32.619
135.742 1092 33.0454
135.859 1121 33.4813
135.977 1153 33.9559
136.094 1195 34.5688
136.211 1128 33.5857
136.329 1216 34.8712
136.446 1158 34.0294
136.564 1152 33.9411
136.681 1162 34.0881
136.798 1178 34.322
136.915 1223 34.9714
137.033 1167 34.1614
137.15 1205 34.7131
137.267 1227 35.0286
137.384 1141 33.7787
137.502 1128 33.5857
137.619 1114 33.3766
137.736 1099 33.1512
137.853 942 30.692
137.97 962 31.0161
138.087 937 30.6105
138.204 1017 31.8904
138.321 1194 34.5543
138.438 1250 35.3553
138.555 1272 35.6651
138.672 1203 34.6843
138.788 1239 35.1994
138.905 1169 34.1906
139.022 1158 34.0294
139.139 1115 33.3916
139.255 1050 32.4037
139.372 1005 31.7017
139.488 975 31.225
139.605 972 31.1769
139.721 940 30.6594
139.838 979 31.289
139.954 903 30.05
140.071 876 29.5973
140.187 863 29.3769
140.303 787 28.0535
140.419 722 26.8701
140.535 690 26.2679
140.652 673 25.9422
140.768 0 1
140.884 0 1
141 0 1
141.115 0 1
141.231 0 1
141.347 0 1
141.463 0 1
141.578 0 1
141.694 0 1
144.104 0 1
144.219 0 1
144.335 0 1
144.45 0 1
144.566 0 1
144.682 0 1
144.798 0 1
144.914 0 1
145.03 0 1
145.146 1681 41
145.262 1851 43.0232
145.378 1829 42.7668
145.494 2018 44.9222
145.61 2058 45.3652
145.726 2033 45.0888
145.842 2048 45.2548
145.959 2091 45.7275
146.075 2122 46.0652
146.192 2023 44.9778
146.308 1980 44.4972
146.425 1869 43.2319
146.541 1630 40.3733
146.658 1272 35.6651
146.774 1278 35.7491
146.891 1421 37.6962
147.008 1864 43.1741
147.125 1967 44.3509
147.241 2051 45.288
147.358 2193 46.8295
147.475 2073 45.5302
147.592 1976 44.4522
147.709 1952 44.1814
147.826 1917 43.7836
147.943 1926 43.8862
148.06 1856 43.0813
148.177 1788 42.2847
148.294 1873 43.2782
148.411 1819 42.6497
148.528 1867 43.2088
148.645 1858 43.1045
148.762 1896 43.5431
148.88 1866 43.1972
148.997 1922 43.8406
149.114 1848 42.9884
149.231 1887 43.4396
149.349 1843 42.9302
149.466 1782 42.2137
149.583 1881 43.3705
149.701 1842 42.9185
149.818 1772 42.0951
149.935 1808 42.5206
150.053 1725 41.5331
150.17 1561 39.5095
150.287 1321 36.3456
150.405 1168 34.176
150.522 1284 35.8329
150.64 1463 38.2492
150.757 1582 39.7744
150.875 1748 41.8091
150.992 1763 41.9881
151.11 1659 40.7308
151.227 1812 42.5676
151.344 1719 41.4608
151.462 1640 40.4969
151.579 1588 39.8497
151.697 1635 40.4351
151.814 1646 40.5709
151.932 1713 41.3884
152.049 1663 40.7799
152.167 1712 41.3763
152.284 1785 42.2493
152.402 1717 41.4367
152.519 1761 41.9643
152.636 1745 41.7732
152.754 1731 41.6053
152.871 1794 42.3556
152.989 1850 43.0116
153.106 1765 42.0119
153.223 1851 43.0232
153.341 1836 42.8486
153.458 1870 43.2435
153.575 1785 42.2493
153.693 1653 40.6571
153.81 1462 38.2361
153.927 1218 34.8999
154.044 1246 35.2987
154.162 1382 37.1753
154.279 1581 39.7618
154.396 1644 40.5463
154.513 1617 40.2119
154.63 1658 40.7185
154.747 1709 41.3401
154.864 1652 40.6448
154.981 1641 40.5093
155.098 1503 38.7685
155.215 1577 39.7115
155.332 1561 39.5095
155.449 1616 40.1995
155.566 1544 39.2938
155.683 1563 39.5348
155.8 1621 40.2616
155.917 1649 40.6079
156.033 1696 41.1825
156.15 0 1
156.267 0 1
156.383 0 1
156.5 0 1
156.617 0 1
156.733 0 1
156.85 0 1
156.966 0 1
157.082 0 1
157.199 0 1
157.315 0 1
157.431 0 1
157.547 0 1
157.664 0 1
157.78 0 1
157.896 0 1
158.012 0 1
158.128 0 1
158.244 0 1
158.359 0 1
158.475 0 1
158.591 0 1
158.706 0 1
