
6.15755 0 1
6.2731 0 1
6.3887 0 1
6.50437 0 1
6.62009 0 1
6.73587 0 1
6.8517 0 1
6.96759 0 1
7.08353 0 1
7.19952 0 1
7.31557 0 1
7.43166 0 1
7.54781 0 1
7.664 0 1
7.78024 0 1
7.89653 0 1
8.01286 0 1
8.12924 0 1
8.24567 0 1
8.36213 0 1
8.47864 0 1
8.59519 0 1
8.71178 0 1
8.82841 0 1
8.94508 0 1
9.06179 0 1
9.17853 0 1
9.29531 0 1
9.41212 0 1
9.52897 0 1
9.64584 0 1
9.76276 0 1
9.8797 0 1
9.99667 0 1
10.1137 0 1
10.2307 0 1
10.3478 0 1
10.4648 0 1
10.5819 0 1
10.6991 0 1
10.8162 0 1
10.9334 0 1
11.0506 0 1
11.1678 0 1
11.285 0 1
11.4023 0 1
11.5196 0 1
11.6369 0 1
11.7542 0 1
11.8715 0 1
11.9888 0 1
12.1062 0 1
12.2235 0 1
12.3409 0 1
12.4582 0 1
12.5756 0 1
12.693 0 1
12.8104 0 1
12.9278 0 1
13.0452 0 1
13.1626 0 1
13.28 0 1
13.3974 0 1
13.5149 0 1
13.6323 0 1
13.7497 0 1
13.8671 0 1
13.9845 0 1
14.1019 0 1
14.2193 0 1
14.3367 0 1
14.4541 0 1
14.5714 0 1
14.6888 0 1
14.8062 0 1
14.9235 0 1
15.0408 0 0
15.1581 0 0
15.2755 0 0
15.3927 0 0
15.51 0 0
15.6273 0 0
15.7445 0 0
15.8617 0 0
15.9789 0 0
16.0961 0 0
16.2132 0 0
16.3304 0 0
16.4475 0 0
16.5646 0 0
16.6816 0 0
16.7986 0 0
16.9156 0 0
17.0326 0 0
17.1496 0 0
17.2665 0 0
17.3833 0 0
17.5002 0 0
17.617 0 0
17.7338 0 0
17.8505 0 0
17.9672 0 0
18.0839 0 0
18.2005 0 0
18.3171 0 0
18.4337 0 0
18.5502 0 0
18.6666 0 0
18.7831 0 0
18.8994 0 0
19.0158 0 0
19.1321 0 0
19.2483 0 0
19.3645 0 0
19.4806 0 0
19.5967 0 0
19.7128 0 0
19.8288 0 0
19.9447 0 0
20.0606 0 1
20.1764 0 1
20.2922 0 1
20.4079 0 1
20.5236 0 1
20.6392 0 1
20.7548 0 1
20.8702 0 1
23.3078 0 1
23.4233 0 1
23.539 0 1
23.6547 0 1
23.7704 0 1
23.8862 0 1
24.0021 0 1
24.118 0 1
24.234 0 1
24.35 0 1
24.4661 1604 40.05
24.5822 1598 39.975
24.6984 1479 38.4578
24.8146 1437 37.9078
24.9309 1395 37.3497
25.0472 1334 36.524
25.1636 1376 37.0945
25.28 1502 38.7556
25.3965 1525 39.0512
25.513 1585 39.8121
25.6296 1666 40.8167
25.7462 1777 42.1545
25.8628 1783 42.2256
25.9795 1705 41.2916
26.0962 1808 42.5206
26.213 1763 41.9881
26.3298 1739 41.7013
26.4466 1675 40.9268
26.5635 1618 40.2244
26.6804 1557 39.4588
26.7973 1543 39.281
26.9143 1569 39.6106
27.0313 1715 41.4126
27.1483 1730 41.5933
27.2653 1728 41.5692
27.3824 1713 41.3884
27.4996 1774 42.1189
27.6167 1735 41.6533
27.7339 1667 40.8289
27.8511 1722 41.497
27.9683 1613 40.1622
28.0855 1618 40.2244
28.2028 1534 39.1663
28.3201 1406 37.4967
28.4374 1329 36.4555
28.5547 1344 36.6606
28.6721 1340 36.606
28.7894 1338 36.5787
28.9068 1454 38.1314
29.0242 1417 37.6431
29.1416 1722 41.497
29.259 1665 40.8044
29.3764 1697 41.1947
29.4939 1746 41.7852
29.6113 1725 41.5331
29.7288 1725 41.5331
29.8463 1660 40.7431
29.9638 1681 41
30.0812 1558 39.4715
30.1987 1486 38.5487
30.3162 1440 37.9473
30.4337 1493 38.6394
30.5512 1634 40.4228
30.6687 1716 41.4246
30.7862 1749 41.821
30.9037 1700 41.2311
31.0212 1687 41.0731
31.1387 1712 41.3763
31.2562 1700 41.2311
31.3737 1741 41.7253
31.4912 1676 40.939
31.6087 1704 41.2795
31.7262 1504 38.7814
31.8436 1449 38.0657
31.9611 1325 36.4005
32.0785 1270 35.6371
32.1959 1278 35.7491
32.3134 1368 36.9865
32.4308 1479 38.4578
32.5482 1503 38.7685
32.6655 1592 39.8999
32.7829 1688 41.0853
32.9002 1688 41.0853
33.0176 1684 41.0366
33.1349 1733 41.6293
33.2522 1689 41.0974
33.3694 1630 40.3733
33.4867 1661 40.7554
33.6039 1650 40.6202
33.7211 1625 40.3113
33.8383 1608 40.0999
33.9554 1571 39.6358
34.0725 1589 39.8623
34.1896 1624 40.2989
34.3067 1704 41.2795
34.4237 1690 41.1096
34.5407 1721 41.4849
34.6577 1648 40.5956
34.7746 1758 41.9285
34.8915 1749 41.821
35.0084 1678 40.9634
35.1252 1726 41.5452
35.242 1703 41.2674
35.3587 1619 40.2368
35.4755 1504 38.7814
35.5921 1381 37.1618
35.7088 1384 37.2022
35.8254 1230 35.0714
35.9419 1314 36.2491
36.0584 1349 36.7287
36.1749 1471 38.3536
36.2913 1512 38.8844
36.4077 1611 40.1373
36.524 1696 41.1825
36.6403 1718 41.4488
36.7565 1705 41.2916
36.8727 1698 41.2068
36.9889 1659 40.7308
37.1049 1564 39.5474
37.221 0 1
37.3369 0 1
37.4529 0 1
37.5687 0 1
37.6845 0 1
37.8003 0 1
37.916 0 1
38.0316 0 1
38.1472 0 1
40.5851 0 1
40.7008 0 1
40.8164 0 1
40.9322 0 1
41.048 0 1
41.1639 0 1
41.2798 0 1
41.3958 0 1
41.5118 0 1
41.6279 0 1
41.744 1441 37.9605
41.8602 1465 38.2753
41.9765 1478 38.4448
42.0928 1556 39.4462
42.2091 1531 39.128
42.3255 1483 38.5097
42.4419 1519 38.9744
42.5584 1480 38.4708
42.675 1421 37.6962
42.7915 1382 37.1753
42.9081 1468 38.3145
43.0248 1460 38.2099
43.1415 1464 38.2623
43.2582 1558 39.4715
43.375 1589 39.8623
43.4918 1542 39.2683
43.6087 1498 38.704
43.7256 1486 38.5487
43.8425 1488 38.5746
43.9595 1507 38.8201
44.0765 1390 37.2827
44.1935 1388 37.2559
44.3106 1257 35.4542
44.4277 1171 34.2199
44.5448 1013 31.8277
44.6619 950 30.8221
44.7791 1056 32.4962
44.8963 1133 33.6601
45.0136 1232 35.0999
45.1308 1348 36.7151
45.2481 1293 35.9583
45.3654 1374 37.0675
45.4827 1319 36.318
45.6001 1387 37.2424
45.7174 1341 36.6197
45.8348 1356 36.8239
45.9522 1315 36.2629
46.0697 1308 36.1663
46.1871 1248 35.327
46.3046 1231 35.0856
46.422 1274 35.6931
46.5395 1276 35.7211
46.657 1315 36.2629
46.7745 1270 35.6371
46.892 1284 35.8329
47.0096 1226 35.0143
47.1271 1277 35.7351
47.2446 1222 34.9571
47.3622 1237 35.171
47.4797 1239 35.1994
47.5973 1201 34.6554
47.7149 1127 33.5708
47.8324 1086 32.9545
47.95 1008 31.749
48.0675 896 29.9333
48.1851 760 27.5681
48.3027 819 28.6182
48.4202 877 29.6142
48.5378 966 31.0805
48.6554 1031 32.1092
48.7729 1137 33.7194
48.8904 1186 34.4384
49.008 1155 33.9853
49.1255 1219 34.9142
49.243 1239 35.1994
49.3605 1173 34.2491
49.478 1226 35.0143
49.5955 1185 34.4238
49.713 1163 34.1028
49.8304 1217 34.8855
49.9479 1157 34.0147
50.0653 1271 35.6511
50.1827 1314 36.2491
50.3001 1316 36.2767
50.4175 1390 37.2827
50.5348 1391 37.2961
50.6521 1424 37.7359
50.7694 1413 37.5899
50.8867 1492 38.6264
51.004 1536 39.1918
51.1212 1486 38.5487
51.2384 1532 39.1408
51.3556 1523 39.0256
51.4727 1349 36.7287
51.5899 1205 34.7131
51.707 1164 34.1174
51.824 1160 34.0588
51.9411 1415 37.6165
52.0581 1512 38.8844
52.175 1704 41.2795
52.2919 1687 41.0731
52.4088 1830 42.7785
52.5257 1834 42.8252
52.6425 1874 43.2897
52.7593 1931 43.9431
52.876 1894 43.5201
52.9927 1904 43.6348
53.1094 1932 43.9545
53.226 1894 43.5201
53.3426 1947 44.1248
53.4591 2009 44.8219
53.5756 1978 44.4747
53.692 2042 45.1885
53.8084 2022 44.9667
53.9248 2049 45.2659
54.0411 2178 46.669
54.1573 2154 46.4112
54.2735 0 1
54.3896 0 1
54.5057 0 1
54.6217 0 1
54.7377 0 1
54.8537 0 1
54.9695 0 1
55.0853 0 1
55.2011 0 1
55.3168 0 1
55.4324 0 1
57.824 0 1
57.9396 0 1
58.0553 0 1
58.1711 0 1
58.2869 0 1
58.4028 0 1
58.5187 0 1
58.6347 0 1
58.7508 0 1
58.8669 0 1
58.983 2909 53.9351
59.0992 3030 55.0454
59.2155 2931 54.1387
59.3318 2960 54.4059
59.4482 3107 55.7405
59.5646 3026 55.0091
59.681 3025 55
59.7975 2950 54.3139
59.9141 2867 53.5444
60.0306 2758 52.5167
60.1473 2554 50.5371
60.2639 2336 48.3322
60.3807 2072 45.5192
60.4974 2110 45.9347
60.6142 2280 47.7493
60.731 2582 50.8134
60.8479 2855 53.4322
60.9648 3079 55.4887
61.0818 3123 55.8838
61.1987 3039 55.1271
61.3158 3220 56.745
61.4328 3177 56.3649
61.5499 3182 56.4092
61.667 3212 56.6745
61.7841 3169 56.2939
61.9013 3148 56.107
62.0185 3189 56.4712
62.1357 2994 54.7175
62.253 3142 56.0535
62.3702 3177 56.3649
62.4875 3187 56.4535
62.6049 3189 56.4712
62.7222 3294 57.3934
62.8396 3441 58.66
62.9569 3260 57.0964
63.0743 3275 57.2276
63.1918 3199 56.5597
63.3092 3188 56.4624
63.4267 3132 55.9643
63.5441 3051 55.2359
63.6616 2803 52.9434
63.7791 2366 48.6415
63.8966 2107 45.9021
64.0142 2288 47.833
64.1317 2408 49.0714
64.2492 2769 52.6213
64.3668 3075 55.4527
64.4843 3197 56.542
64.6019 3470 58.9067
64.7195 3320 57.6194
64.837 3348 57.8619
64.9546 3302 57.463
65.0722 3490 59.0762
65.1898 3428 58.5491
65.3074 3619 60.1581
65.4249 3424 58.515
65.5425 3345 57.836
65.6601 3407 58.3695
65.7777 3405 58.3524
65.8952 3470 58.9067
66.0128 3407 58.3695
66.1304 3413 58.4209
66.2479 3549 59.5735
66.3655 3714 60.9426
66.483 3639 60.3241
66.6005 3663 60.5227
66.718 3583 59.8582
66.8355 3469 58.8982
66.953 3496 59.127
67.0705 3373 58.0775
67.1879 3236 56.8859
67.3054 2944 54.2586
67.4228 2540 50.3984
67.5402 2384 48.8262
67.6576 2595 50.9411
67.7749 2700 51.9615
67.8923 3121 55.8659
68.0096 3450 58.7367
68.1269 3723 61.0164
68.2442 3835 61.9274
68.3614 3826 61.8547
68.4787 3963 62.9524
68.5958 3931 62.6977
68.713 4000 63.2456
68.8302 3940 62.7694
68.9473 3918 62.5939
69.0643 4015 63.364
69.1814 3878 62.2736
69.2984 4049 63.6318
69.4154 3937 62.7455
69.5323 3949 62.8411
69.6492 3981 63.0952
69.7661 4031 63.4902
69.8829 4212 64.8999
69.9997 4130 64.2651
70.1165 4289 65.4905
70.2332 4329 65.7951
70.3499 4294 65.5286
70.4665 4154 64.4515
70.5831 3984 63.1189
70.6996 3942 62.7853
70.8161 3720 60.9918
70.9326 3589 59.9083
71.049 3175 56.3471
71.1653 2640 51.3809
71.2817 2520 50.1996
71.3979 2761 52.5452
71.5141 3106 55.7315
71.6303 3379 58.1292
71.7464 3411 58.4038
71.8624 0 1
71.9784 0 1
72.0944 0 1
72.2102 0 1
72.3261 0 1
72.4418 0 1
72.5575 0 1
72.6732 0 1
75.1054 0 1
75.2209 0 1
75.3365 0 1
75.4521 0 1
75.5678 0 1
75.6835 0 1
75.7993 0 1
75.9151 0 1
76.031 0 1
76.147 3629 60.2412
76.263 3627 60.2246
76.3791 3302 57.463
76.4952 2962 54.4243
76.6113 2892 53.7773
76.7276 2956 54.3691
76.8438 3546 59.5483
76.9601 4002 63.2614
77.0765 4267 65.3223
77.1929 4471 66.8655
77.3093 4565 67.5648
77.4258 4545 67.4166
77.5423 4542 67.3944
77.6589 4634 68.0735
77.7755 4650 68.1909
77.8921 4509 67.1491
78.0088 4712 68.644
78.1256 4424 66.5132
78.2423 4411 66.4154
78.3591 4403 66.3551
78.4759 4440 66.6333
78.5928 4405 66.3702
78.7097 4368 66.0908
78.8266 4622 67.9853
78.9436 4253 65.215
79.0606 4536 67.3498
79.1776 4592 67.7643
79.2946 4612 67.9117
79.4117 4448 66.6933
79.5288 4404 66.3626
79.6459 4187 64.707
79.7631 4072 63.8122
79.8802 3774 61.4329
79.9974 3563 59.6909
80.1147 3194 56.5155
80.2319 2939 54.2125
80.3491 2986 54.6443
80.4664 3341 57.8014
80.5837 3858 62.1128
80.701 4117 64.1639
80.8183 4434 66.5883
80.9357 4355 65.9924
81.053 4500 67.082
81.1704 4420 66.4831
81.2877 4408 66.3928
81.4051 4384 66.2118
81.5225 4500 67.082
81.6399 4374 66.1362
81.7573 4424 66.5132
81.8747 4323 65.7495
81.9922 4276 65.3911
82.1096 4417 66.4605
82.227 4258 65.2534
82.3444 4182 64.6684
82.4619 4300 65.5744
82.5793 4261 65.2763
82.6967 4397 66.3099
82.8142 4313 65.6734
82.9316 4295 65.5362
83.049 4290 65.4981
83.1664 4292 65.5134
83.2838 3859 62.1208
83.4012 3729 61.0655
83.5186 3555 59.6238
83.636 3227 56.8067
83.7534 2950 54.3139
83.8708 2643 51.4101
83.9881 2663 51.6043
84.1055 2960 54.4059
84.2228 3423 58.5064
84.3401 3739 61.1474
84.4575 4050 63.6396
84.5747 4142 64.3584
84.692 4177 64.6297
84.8093 4232 65.0538
84.9265 4171 64.5833
85.0437 4302 65.5896
85.1609 4292 65.5134
85.2781 4210 64.8845
85.3952 4386 66.2269
85.5123 4393 66.2797
85.6294 4323 65.7495
85.7465 4425 66.5207
85.8636 4331 65.8103
85.9806 4380 66.1816
86.0976 4293 65.521
86.2145 4432 66.5733
86.3315 4325 65.7647
86.4484 4698 68.542
86.5652 4721 68.7095
86.682 4627 68.0221
86.7988 4620 67.9706
86.9156 4459 66.7757
87.0323 4174 64.6065
87.149 3925 62.6498
87.2657 3656 60.4649
87.3823 3382 58.155
87.4988 3203 56.5951
87.6154 3336 57.7581
87.7318 3901 62.458
87.8483 4408 66.3928
87.9647 4565 67.5648
88.081 4909 70.0643
88.1973 4950 70.3562
88.3136 5061 71.1407
88.4298 4940 70.2851
88.546 5001 70.7177
88.6621 5007 70.7602
88.7781 4958 70.4131
88.8942 0 1
89.0101 0 1
89.126 0 1
89.2419 0 1
89.3577 0 1
89.4734 0 1
89.5891 0 1
89.7047 0 1
89.8203 0 1
89.9358 0 1
92.3269 0 1
92.4424 0 1
92.558 0 1
92.6736 0 1
92.7893 0 1
92.905 0 1
93.0208 0 1
93.1366 0 1
93.2525 0 1
93.3685 0 1
93.4845 0 1
93.6005 4787 69.1881
93.7167 4887 69.9071
93.8328 4939 70.278
93.949 4896 69.9714
94.0653 4838 69.5557
94.1816 4958 70.4131
94.2979 5026 70.8943
94.4143 4938 70.2709
94.5307 4879 69.8498
94.6472 4941 70.2922
94.7637 4825 69.4622
94.8803 4998 70.6965
94.9969 4882 69.8713
95.1135 4966 70.4699
95.2302 5020 70.852
95.3469 4986 70.6116
95.4637 5149 71.7565
95.5805 4992 70.6541
95.6973 4956 70.3989
95.8142 5095 71.3793
95.9311 4907 70.05
96.048 4760 68.9928
96.1649 4557 67.5056
96.2819 4356 66
96.3989 3836 61.9355
96.516 3529 59.4054
96.633 3378 58.1206
96.7501 3544 59.5315
96.8673 3810 61.7252
96.9844 4225 65
97.1016 4613 67.9191
97.2188 5103 71.4353
97.336 5353 73.1642
97.4532 5243 72.4086
97.5704 5246 72.4293
97.6877 5321 72.9452
97.805 5208 72.1665
97.9223 5187 72.0208
98.0396 5154 71.7914
98.1569 5332 73.0205
98.2743 5267 72.5741
98.3916 5116 71.5262
98.509 5275 72.6292
98.6264 5282 72.6774
98.7438 5202 72.1249
98.8612 5200 72.111
98.9786 5240 72.3878
99.096 5241 72.3948
99.2134 5369 73.2735
99.3308 5441 73.7631
99.4482 5446 73.797
99.5656 5223 72.2703
99.6831 5323 72.9589
99.8005 4973 70.5195
99.9179 4639 68.1102
100.035 4111 64.1171
100.153 3781 61.4898
100.27 3661 60.5062
100.388 3865 62.1691
100.505 4343 65.9014
100.622 4922 70.157
100.74 5277 72.643
100.857 5487 74.0743
100.975 5436 73.7292
101.092 5446 73.797
101.209 5450 73.8241
101.327 5493 74.1148
101.444 5490 74.0945
101.561 5545 74.4648
101.679 5503 74.1822
101.796 5492 74.108
101.913 5410 73.5527
102.03 5559 74.5587
102.148 5399 73.4779
102.265 5872 76.629
102.382 5393 73.437
102.499 5544 74.458
102.616 5518 74.2832
102.733 5552 74.5117
102.851 5718 75.6175
102.968 5758 75.8815
103.085 5702 75.5116
103.202 5500 74.162
103.319 5316 72.9109
103.436 4935 70.2496
103.552 4548 67.4389
103.669 3913 62.554
103.786 3887 62.3458
103.903 4048 63.6239
104.02 4717 68.6804
104.137 5232 72.3326
104.253 5750 75.8288
104.37 5648 75.1532
104.487 5983 77.3499
104.603 6071 77.9166
104.72 5881 76.6877
104.836 6053 77.801
104.953 6037 77.6981
105.069 5948 77.1233
105.186 6020 77.5887
105.302 5972 77.2787
105.418 6015 77.5564
105.535 6020 77.5887
105.651 5994 77.4209
105.767 5947 77.1168
105.883 5927 76.987
105.999 6144 78.3837
106.115 0 1
106.231 0 1
106.347 0 1
106.463 0 1
106.579 0 1
106.694 0 1
106.81 0 1
106.926 0 1
107.041 0 1
107.157 0 1
109.576 0 1
109.692 0 1
109.807 0 1
109.923 0 1
110.039 0 1
110.155 0 1
110.27 0 1
110.386 0 1
110.502 0 1
110.618 5656 75.2064
110.735 5652 75.1798
110.851 5556 74.5386
110.967 5799 76.1512
111.083 5692 75.4453
111.199 5832 76.3675
111.316 5829 76.3479
111.432 5771 75.9671
111.549 5628 75.02
111.665 5526 74.3371
111.782 5337 73.0548
111.898 4933 70.2353
112.015 4499 67.0746
112.132 3958 62.9126
112.248 3698 60.8112
112.365 3975 63.0476
112.482 4437 66.6108
112.599 4770 69.0652
112.716 5121 71.5612
112.832 5565 74.5989
112.949 5247 72.4362
113.066 5429 73.6817
113.183 5385 73.3826
113.3 5275 72.6292
113.417 5207 72.1595
113.534 5386 73.3894
113.652 5260 72.5259
113.769 5220 72.2496
113.886 5086 71.3162
114.003 5150 71.7635
114.12 5016 70.8237
114.238 5058 71.1196
114.355 5036 70.9648
114.472 5180 71.9722
114.589 4993 70.6612
114.707 5075 71.239
114.824 5042 71.007
114.942 5125 71.5891
115.059 4942 70.2994
115.176 5046 71.0352
115.294 4892 69.9428
115.411 4775 69.1014
115.529 4372 66.1211
115.646 3776 61.4492
115.764 3554 59.6154
115.881 3545 59.5399
115.999 3819 61.7981
116.116 4182 64.6684
116.234 4579 67.6683
116.351 4797 69.2604
116.469 4870 69.7854
116.586 5146 71.7356
116.704 5319 72.9315
116.821 5044 71.0211
116.939 5094 71.3723
117.056 5059 71.1266
117.174 5104 71.4423
117.291 5285 72.698
117.409 5143 71.7147
117.526 5032 70.9366
117.644 5141 71.7008
117.761 5092 71.3583
117.879 5083 71.2952
117.996 4878 69.8427
118.114 5167 71.8818
118.231 5143 71.7147
118.349 5044 71.0211
118.466 5132 71.638
118.584 5188 72.0278
118.701 5166 71.8749
118.819 5050 71.0634
118.936 4964 70.4557
119.053 4653 68.2129
119.171 4425 66.5207
119.288 3957 62.9047
119.405 3609 60.075
119.523 3486 59.0424
119.64 3871 62.2174
119.757 4224 64.9923
119.875 4557 67.5056
119.992 4808 69.3397
120.109 4995 70.6753
120.226 5076 71.2461
120.343 5120 71.5542
120.46 4983 70.5904
120.578 5102 71.4283
120.695 5007 70.7602
120.812 5144 71.7217
120.929 5172 71.9166
121.046 5095 71.3793
121.163 5025 70.8872
121.279 4997 70.6895
121.396 5002 70.7248
121.513 4950 70.3562
121.63 5148 71.7496
121.747 4943 70.3065
121.863 4905 70.0357
121.98 4872 69.7997
122.097 5015 70.8167
122.213 4945 70.3207
122.33 5069 71.1969
122.446 5024 70.8802
122.563 4916 70.1142
122.679 4815 69.3902
122.795 4550 67.4537
122.912 4299 65.5668
123.028 3825 61.8466
123.144 3522 59.3464
123.26 3395 58.2666
123.377 0 1
123.493 0 1
123.609 0 1
123.725 0 1
123.84 0 1
123.956 0 1
124.072 0 1
124.188 0 1
124.303 0 1
124.419 0 1
126.852 0 1
126.968 0 1
127.083 0 1
127.199 0 1
127.315 0 1
127.431 0 1
127.547 0 1
127.663 0 1
127.779 0 1
127.895 0 1
128.011 0 1
128.127 0 1
128.243 0 1
128.359 4071 63.8044
128.476 3762 61.3351
128.592 4248 65.1767
128.708 4627 68.0221
128.825 5194 72.0694
128.941 5435 73.7225
129.058 5544 74.458
129.174 5621 74.9733
129.291 5537 74.411
129.408 5626 75.0067
129.524 5524 74.3236
129.641 5678 75.3525
129.758 5685 75.3989
129.875 5483 74.0473
129.992 5514 74.2563
130.108 5409 73.5459
130.225 5383 73.3689
130.342 5585 74.7329
130.459 5313 72.8903
130.576 5502 74.1755
130.693 5397 73.4643
130.81 5368 73.2666
130.928 5375 73.3144
131.045 5523 74.3169
131.162 5443 73.7767
131.279 5435 73.7225
131.396 5396 73.4575
131.513 5168 71.8888
131.631 4940 70.2851
131.748 4679 68.4032
131.865 4395 66.2948
131.983 3919 62.6019
132.1 4024 63.435
132.217 4550 67.4537
132.335 4896 69.9714
132.452 5173 71.9236
132.57 5208 72.1665
132.687 5188 72.0278
132.804 5638 75.0866
132.922 5456 73.8647
133.039 5360 73.212
133.157 5597 74.8131
133.274 5394 73.4439
133.392 5456 73.8647
133.509 5289 72.7255
133.627 5289 72.7255
133.744 5228 72.3049
133.862 5222 72.2634
133.979 5196 72.0833
134.097 5217 72.2288
134.214 5314 72.8972
134.332 5211 72.1873
134.449 5286 72.7049
134.567 5265 72.5603
134.684 5277 72.643
134.802 5290 72.7324
134.919 5331 73.0137
135.037 5103 71.4353
135.154 4978 70.5549
135.272 4780 69.1375
135.389 4303 65.5973
135.507 4028 63.4665
135.624 3863 62.153
135.742 4024 63.435
135.859 4484 66.9627
135.977 4958 70.4131
136.094 5257 72.5052
136.211 5367 73.2598
136.329 5338 73.0616
136.446 5339 73.0685
136.564 5425 73.6546
136.681 5493 74.1148
136.798 5303 72.8217
136.915 5305 72.8354
137.033 5307 72.8492
137.15 5259 72.519
137.267 5239 72.3809
137.384 5130 71.624
137.502 5097 71.3933
137.619 5108 71.4703
137.736 5107 71.4633
137.853 4989 70.6329
137.97 4970 70.4982
138.087 5242 72.4017
138.204 5167 71.8818
138.321 5050 71.0634
138.438 5303 72.8217
138.555 5224 72.2772
138.672 5167 71.8818
138.788 5077 71.2531
138.905 4815 69.3902
139.022 4612 67.9117
139.139 4210 64.8845
139.255 4077 63.8514
139.372 4016 63.3719
139.488 4492 67.0224
139.605 4962 70.4415
139.721 5128 71.6101
139.838 5270 72.5948
139.954 5321 72.9452
140.071 5254 72.4845
140.187 5311 72.8766
140.303 5193 72.0625
140.419 5359 73.2052
140.535 5184 72
140.652 4952 70.3704
140.768 0 1
140.884 0 1
141 0 1
141.115 0 1
141.231 0 1
141.347 0 1
141.463 0 1
141.578 0 1
141.694 0 1
144.104 0 1
144.219 0 1
144.335 0 1
144.45 0 1
144.566 0 1
144.682 0 1
144.798 0 1
144.914 0 1
145.03 0 1
145.146 4565 67.5648
145.262 4644 68.1469
145.378 4710 68.6294
145.494 4541 67.3869
145.61 4565 67.5648
145.726 4551 67.4611
145.842 4466 66.8281
145.959 4264 65.2993
146.075 4266 65.3146
146.192 4127 64.2417
146.308 4306 65.6201
146.425 4294 65.5286
146.541 4343 65.9014
146.658 4269 65.3376
146.774 4252 65.2074
146.891 4286 65.4675
147.008 4427 66.5357
147.125 4492 67.0224
147.241 4361 66.0379
147.358 4305 65.6125
147.475 4112 64.1249
147.592 3824 61.8385
147.709 3612 60.0999
147.826 3290 57.3585
147.943 3399 58.3009
148.06 3657 60.4731
148.177 3900 62.45
148.294 4262 65.284
148.411 4274 65.3758
148.528 4449 66.7008
148.645 4420 66.4831
148.762 4330 65.8027
148.88 4412 66.4229
148.997 4072 63.8122
149.114 4280 65.4217
149.231 4219 64.9538
149.349 4170 64.5755
149.466 4060 63.7181
149.583 3976 63.0555
149.701 3896 62.4179
149.818 3989 63.1585
149.935 3863 62.153
150.053 3903 62.474
150.17 3944 62.8013
150.287 4061 63.726
150.405 4032 63.498
150.522 4128 64.2495
150.64 4137 64.3195
150.757 4204 64.8383
150.875 4090 63.9531
150.992 3939 62.7615
151.11 3792 61.5792
151.227 3716 60.959
151.344 3260 57.0964
151.462 3138 56.0179
151.579 3273 57.2101
151.697 3563 59.6909
151.814 3873 62.2334
151.932 4149 64.4127
152.049 4222 64.9769
152.167 4253 65.215
152.284 4190 64.7302
152.402 4225 65
152.519 4234 65.0692
152.636 4239 65.1076
152.754 4142 64.3584
152.871 4205 64.846
152.989 4192 64.7457
153.106 4044 63.5925
153.223 3910 62.53
153.341 3863 62.153
153.458 3989 63.1585
153.575 3828 61.8708
153.693 3908 62.514
153.81 3932 62.7057
153.927 3957 62.9047
154.044 4081 63.8827
154.162 4156 64.467
154.279 4190 64.7302
154.396 4292 65.5134
154.513 4372 66.1211
154.63 4206 64.8537
154.747 4125 64.2262
154.864 4020 63.4035
154.981 3597 59.975
155.098 3457 58.7963
155.215 3433 58.5918
155.332 3701 60.8358
155.449 3965 62.9682
155.566 4219 64.9538
155.683 4189 64.7225
155.8 4218 64.9461
155.917 4296 65.5439
156.033 4263 65.2917
156.15 0 1
156.267 0 1
156.383 0 1
156.5 0 1
156.617 0 1
156.733 0 1
156.85 0 1
156.966 0 1
157.082 0 1
157.199 0 1
157.315 0 1
157.431 0 1
157.547 0 1
157.664 0 1
157.78 0 1
157.896 0 1
158.012 0 1
158.128 0 1
158.244 0 1
158.359 0 1
158.475 0 1
158.591 0 1
158.706 0 1
