
6.15755 0 1
6.2731 0 1
6.3887 0 1
6.50437 0 1
6.62009 0 1
6.73587 0 1
6.8517 0 1
6.96759 0 1
7.08353 0 1
7.19952 0 1
7.31557 0 1
7.43166 0 1
7.54781 0 1
7.664 0 1
7.78024 0 1
7.89653 0 1
8.01286 0 1
8.12924 0 1
8.24567 0 1
8.36213 0 1
8.47864 0 1
8.59519 0 1
8.71178 0 1
8.82841 0 1
8.94508 0 1
9.06179 0 1
9.17853 0 1
9.29531 0 1
9.41212 0 1
9.52897 0 1
9.64584 0 1
9.76276 0 1
9.8797 0 1
9.99667 0 1
10.1137 0 1
10.2307 0 1
10.3478 0 1
10.4648 0 1
10.5819 0 1
10.6991 0 1
10.8162 0 1
10.9334 0 1
11.0506 0 1
11.1678 0 1
11.285 0 1
11.4023 0 1
11.5196 0 1
11.6369 0 1
11.7542 0 1
11.8715 0 1
11.9888 0 1
12.1062 0 1
12.2235 0 1
12.3409 0 1
12.4582 0 1
12.5756 0 1
12.693 0 1
12.8104 0 1
12.9278 0 1
13.0452 0 1
13.1626 0 1
13.28 0 1
13.3974 0 1
13.5149 0 1
13.6323 0 1
13.7497 0 1
13.8671 0 1
13.9845 0 1
14.1019 0 1
14.2193 0 1
14.3367 0 1
14.4541 0 1
14.5714 0 1
14.6888 0 1
14.8062 0 1
14.9235 0 1
15.0408 41556 203.853
15.1581 43422 208.379
15.2755 45421 213.122
15.3927 46095 214.697
15.51 46347 215.284
15.6273 45923 214.297
15.7445 45225 212.662
15.8617 45303 212.845
15.9789 45199 212.601
16.0961 44622 211.239
16.2132 43990 209.738
16.3304 43919 209.569
16.4475 44282 210.433
16.5646 44739 211.516
16.6816 45954 214.369
16.7986 47276 217.43
16.9156 48348 219.882
17.0326 47794 218.618
17.1496 47679 218.355
17.2665 47732 218.477
17.3833 47230 217.325
17.5002 46343 215.274
17.617 46503 215.646
17.7338 46106 214.723
17.8505 45148 212.481
17.9672 45156 212.499
18.0839 45847 214.119
18.2005 46663 216.016
18.3171 46838 216.421
18.4337 47920 218.906
18.5502 48863 221.05
18.6666 49217 221.849
18.7831 49712 222.962
18.8994 49648 222.818
19.0158 48375 219.943
19.1321 47204 217.265
19.2483 45499 213.305
19.3645 43388 208.298
19.4806 41232 203.057
19.5967 39008 197.504
19.7128 36100 190
19.8288 32884 181.339
19.9447 29324 171.243
20.0606 0 1
20.1764 0 1
20.2922 0 1
20.4079 0 1
20.5236 0 1
20.6392 0 1
20.7548 0 1
20.8702 0 1
23.3078 0 1
23.4233 0 1
23.539 0 1
23.6547 0 1
23.7704 0 1
23.8862 0 1
24.0021 0 1
24.118 0 1
24.234 0 1
24.35 0 1
24.4661 19685 140.303
24.5822 22526 150.087
24.6984 24885 157.75
24.8146 27655 166.298
24.9309 30820 175.556
25.0472 33432 182.844
25.1636 36283 190.481
25.28 39044 197.596
25.3965 41969 204.863
25.513 45109 212.389
25.6296 46988 216.767
25.7462 48674 220.622
25.8628 49847 223.264
25.9795 50828 225.451
26.0962 50643 225.04
26.213 49909 223.403
26.3298 48128 219.381
26.4466 47114 217.058
26.5635 45869 214.17
26.6804 45653 213.666
26.7973 45472 213.242
26.9143 45529 213.375
27.0313 46157 214.842
27.1483 46648 215.981
27.2653 47651 218.291
27.3824 48665 220.601
27.4996 48572 220.391
27.6167 48186 219.513
27.7339 46962 216.707
27.8511 45993 214.46
27.9683 45280 212.791
28.0855 44672 211.358
28.2028 43846 209.394
28.3201 42631 206.473
28.4374 41705 204.218
28.5547 41779 204.399
28.6721 42159 205.327
28.7894 43027 207.43
28.9068 44147 210.112
29.0242 45949 214.357
29.1416 46832 216.407
29.259 47541 218.039
29.3764 47439 217.805
29.4939 47851 218.749
29.6113 47166 217.177
29.7288 46125 214.767
29.8463 44804 211.67
29.9638 43666 208.964
30.0812 42887 207.092
30.1987 42822 206.935
30.3162 42528 206.223
30.4337 42526 206.218
30.5512 43322 208.139
30.6687 44803 211.667
30.7862 45025 212.191
30.9037 46133 214.786
31.0212 46009 214.497
31.1387 45777 213.956
31.2562 45615 213.577
31.3737 44263 210.388
31.4912 43765 209.201
31.6087 42529 206.226
31.7262 42102 205.188
31.8436 40857 202.131
31.9611 40235 200.587
32.0785 39712 199.279
32.1959 40155 200.387
32.3134 41324 203.283
32.4308 42353 205.798
32.5482 44044 209.867
32.6655 45134 212.448
32.7829 45373 213.009
32.9002 45789 213.984
33.0176 45021 212.182
33.1349 45507 213.324
33.2522 45352 212.96
33.3694 43863 209.435
33.4867 42859 207.024
33.6039 41457 203.61
33.7211 40764 201.901
33.8383 40289 200.721
33.9554 40547 201.363
34.0725 40598 201.489
34.1896 41800 204.45
34.3067 42660 206.543
34.4237 43924 209.581
34.5407 43861 209.43
34.6577 44588 211.159
34.7746 44081 209.955
34.8915 43937 209.612
35.0084 43146 207.716
35.1252 42605 206.41
35.242 41356 203.362
35.3587 40391 200.975
35.4755 39684 199.208
35.5921 39349 198.366
35.7088 38286 195.668
35.8254 37922 194.736
35.9419 39293 198.225
36.0584 39298 198.237
36.1749 39391 198.472
36.2913 39966 199.915
36.4077 39484 198.706
36.524 38455 196.099
36.6403 37385 193.352
36.7565 35780 189.156
36.8727 34169 184.849
36.9889 31867 178.513
37.1049 29299 171.17
37.221 0 1
37.3369 0 1
37.4529 0 1
37.5687 0 1
37.6845 0 1
37.8003 0 1
37.916 0 1
38.0316 0 1
38.1472 0 1
40.5851 0 1
40.7008 0 1
40.8164 0 1
40.9322 0 1
41.048 0 1
41.1639 0 1
41.2798 0 1
41.3958 0 1
41.5118 0 1
41.6279 0 1
41.744 21032 145.024
41.8602 23916 154.648
41.9765 26079 161.49
42.0928 27778 166.667
42.2091 27955 167.197
42.3255 28062 167.517
42.4419 28049 167.478
42.5584 28309 168.253
42.675 29051 170.444
42.7915 30221 173.842
42.9081 32238 179.549
43.0248 33675 183.507
43.1415 35386 188.112
43.2582 35393 188.13
43.375 36722 191.63
43.4918 37259 193.026
43.6087 37363 193.295
43.7256 36971 192.278
43.8425 37103 192.621
43.9595 36209 190.287
44.0765 35490 188.388
44.1935 35279 187.827
44.3106 34695 186.266
44.4277 34254 185.078
44.5448 32999 181.656
44.6619 32396 179.989
44.7791 33857 184.003
44.8963 34054 184.537
45.0136 34940 186.922
45.1308 36401 190.79
45.2481 37107 192.632
45.3654 37260 193.028
45.4827 37122 192.671
45.6001 37027 192.424
45.7174 36255 190.407
45.8348 35523 188.475
45.9522 33686 183.537
46.0697 32359 179.886
46.1871 31288 176.884
46.3046 31517 177.53
46.422 33060 181.824
46.5395 34106 184.678
46.657 35827 189.28
46.7745 36492 191.029
46.892 37986 194.9
47.0096 38514 196.25
47.1271 39018 197.53
47.2446 39056 197.626
47.3622 39144 197.848
47.4797 38584 196.428
47.5973 38029 195.01
47.7149 36967 192.268
47.8324 36461 190.948
47.95 35542 188.526
48.0675 34923 186.877
48.1851 33497 183.022
48.3027 33690 183.548
48.4202 34357 185.356
48.5378 35412 188.181
48.6554 36645 191.429
48.7729 37653 194.044
48.8904 37847 194.543
49.008 37621 193.961
49.1255 36938 192.193
49.243 35706 188.96
49.3605 33905 184.133
49.478 32439 180.108
49.5955 30870 175.699
49.713 30019 173.26
49.8304 30165 173.681
49.9479 31773 178.25
50.0653 33570 183.221
50.1827 35335 187.976
50.3001 36639 191.413
50.4175 38034 195.023
50.5348 38628 196.54
50.6521 38800 196.977
50.7694 39648 199.118
50.8867 38949 197.355
51.004 38611 196.497
51.1212 38256 195.591
51.2384 37667 194.08
51.3556 37102 192.619
51.4727 35951 189.607
51.5899 33984 184.347
51.707 33501 183.033
51.824 33604 183.314
51.9411 34766 186.456
52.0581 35220 187.67
52.175 36580 191.259
52.2919 37030 192.432
52.4088 36813 191.867
52.5257 36959 192.247
52.6425 36648 191.437
52.7593 36065 189.908
52.876 34936 186.912
52.9927 33475 182.962
53.1094 31245 176.763
53.226 29618 172.099
53.3426 28548 168.962
53.4591 28098 167.625
53.5756 28315 168.271
53.692 28588 169.08
53.8084 28498 168.814
53.9248 28077 167.562
54.0411 27619 166.19
54.1573 26048 161.394
54.2735 0 1
54.3896 0 1
54.5057 0 1
54.6217 0 1
54.7377 0 1
54.8537 0 1
54.9695 0 1
55.0853 0 1
55.2011 0 1
55.3168 0 1
55.4324 0 1
57.824 0 1
57.9396 0 1
58.0553 0 1
58.1711 0 1
58.2869 0 1
58.4028 0 1
58.5187 0 1
58.6347 0 1
58.7508 0 1
58.8669 0 1
58.983 27190 164.894
59.0992 31740 178.157
59.2155 35085 187.31
59.3318 37970 194.859
59.4482 40431 201.075
59.5646 42727 206.705
59.681 44223 210.293
59.7975 44196 210.228
59.9141 44934 211.976
60.0306 44966 212.052
60.1473 44496 210.941
60.2639 43474 208.504
60.3807 42283 205.628
60.4974 41874 204.631
60.6142 42346 205.781
60.731 42648 206.514
60.8479 43687 209.014
60.9648 45294 212.824
61.0818 46289 215.149
61.1987 45917 214.283
61.3158 46252 215.063
61.4328 44578 211.135
61.5499 42489 206.129
61.667 40130 200.325
61.7841 37434 193.479
61.9013 35687 188.91
62.0185 35419 188.199
62.1357 36923 192.154
62.253 40830 202.064
62.3702 43368 208.25
62.4875 45914 214.276
62.6049 47517 217.984
62.7222 48982 221.319
62.8396 50022 223.656
62.9569 51005 225.843
63.0743 51194 226.261
63.1918 51040 225.92
63.3092 50838 225.473
63.4267 49613 222.74
63.5441 48310 219.795
63.6616 46935 216.645
63.7791 44657 211.322
63.8966 42657 206.536
64.0142 41837 204.541
64.1317 41590 203.936
64.2492 41282 203.18
64.3668 42688 206.611
64.4843 43648 208.921
64.6019 44896 211.887
64.7195 45262 212.749
64.837 44919 211.941
64.9546 44044 209.867
65.0722 42270 205.597
65.1898 40013 200.032
65.3074 36609 191.335
65.4249 34668 186.193
65.5425 33520 183.085
65.6601 34673 186.207
65.7777 37299 193.129
65.8952 40947 202.354
66.0128 43761 209.191
66.1304 45742 213.874
66.2479 47737 218.488
66.3655 49229 221.876
66.483 50031 223.676
66.6005 50648 225.051
66.718 50517 224.76
66.8355 49622 222.76
66.953 49369 222.191
67.0705 48088 219.29
67.1879 46790 216.31
67.3054 45513 213.338
67.4228 43094 207.591
67.5402 40229 200.572
67.6576 39054 197.621
67.7749 38812 197.008
67.8923 39594 198.982
68.0096 40652 201.623
68.1269 42274 205.606
68.2442 44016 209.8
68.3614 43762 209.194
68.4787 43665 208.962
68.5958 43224 207.904
68.713 42000 204.939
68.8302 38594 196.454
68.9473 35203 187.625
69.0643 32624 180.621
69.1814 31026 176.142
69.2984 31941 178.72
69.4154 35305 187.896
69.5323 38085 195.154
69.6492 41100 202.731
69.7661 43597 208.799
69.8829 45057 212.266
69.9997 44776 211.603
70.1165 43708 209.065
70.2332 42084 205.144
70.3499 40067 200.167
70.4665 38817 197.02
70.5831 36762 191.734
70.6996 35539 188.518
70.8161 33372 182.68
70.9326 31486 177.443
71.049 27931 167.126
71.1653 24671 157.07
71.2817 21632 147.078
71.3979 19813 140.759
71.5141 19029 137.946
71.6303 18130 134.648
71.7464 16179 127.197
71.8624 0 1
71.9784 0 1
72.0944 0 1
72.2102 0 1
72.3261 0 1
72.4418 0 1
72.5575 0 1
72.6732 0 1
75.1054 0 1
75.2209 0 1
75.3365 0 1
75.4521 0 1
75.5678 0 1
75.6835 0 1
75.7993 0 1
75.9151 0 1
76.031 0 1
76.147 30444 174.482
76.263 32118 179.215
76.3791 31911 178.637
76.4952 31048 176.204
76.6113 30393 174.336
76.7276 30296 174.057
76.8438 31688 178.011
76.9601 32901 181.386
77.0765 34682 186.231
77.1929 36215 190.302
77.3093 38044 195.049
77.4258 38690 196.698
77.5423 38500 196.214
77.6589 38224 195.51
77.7755 35088 187.318
77.8921 31539 177.592
78.0088 28630 169.204
78.1256 26674 163.322
78.2423 25365 159.264
78.3591 26681 163.343
78.4759 31333 177.011
78.5928 35246 187.739
78.7097 38258 195.597
78.8266 40761 201.894
78.9436 42548 206.272
79.0606 43302 208.091
79.1776 43601 208.809
79.2946 44089 209.974
79.4117 44434 210.794
79.5288 43904 209.533
79.6459 43597 208.799
79.7631 42945 207.232
79.8802 41256 203.116
79.9974 39297 198.235
80.1147 37452 193.525
80.2319 35612 188.711
80.3491 34073 184.589
80.4664 34149 184.794
80.5837 34528 185.817
80.701 35995 189.723
80.8183 37588 193.876
80.9357 39619 199.045
81.053 40490 201.221
81.1704 40415 201.035
81.2877 40096 200.24
81.4051 39027 197.553
81.5225 35711 188.974
81.6399 31737 178.149
81.7573 28197 167.92
81.8747 26933 164.113
81.9922 26108 161.58
82.1096 30255 173.94
82.227 34983 187.037
82.3444 38924 197.292
82.4619 42057 205.078
82.5793 44547 211.062
82.6967 44406 210.727
82.8142 45135 212.45
82.9316 45903 214.25
83.049 45741 213.871
83.1664 45486 213.274
83.2838 45346 212.946
83.4012 43572 208.739
83.5186 41859 204.595
83.636 40676 201.683
83.7534 39156 197.879
83.8708 37168 192.79
83.9881 34979 187.027
84.1055 34288 185.17
84.2228 34717 186.325
84.3401 35711 188.974
84.4575 37350 193.261
84.5747 40311 200.776
84.692 41613 203.993
84.8093 42219 205.473
84.9265 40915 202.275
85.0437 38625 196.532
85.1609 33518 183.079
85.2781 29466 171.657
85.3952 27023 164.387
85.5123 25730 160.406
85.6294 27750 166.583
85.7465 33062 181.83
85.8636 37312 193.163
85.9806 39775 199.437
86.0976 42085 205.146
86.2145 43726 209.108
86.3315 44488 210.922
86.4484 45517 213.347
86.5652 44912 211.925
86.682 45238 212.692
86.7988 44650 211.305
86.9156 44361 210.621
87.0323 43235 207.93
87.149 41815 204.487
87.2657 39914 199.785
87.3823 36845 191.951
87.4988 32011 178.916
87.6154 29220 170.939
87.7318 28774 169.629
87.8483 28143 167.759
87.9647 28363 168.413
88.081 29580 171.988
88.1973 30412 174.39
88.3136 29398 171.458
88.4298 27963 167.221
88.546 25753 160.477
88.6621 22093 148.637
88.7781 17126 130.866
88.8942 0 1
89.0101 0 1
89.126 0 1
89.2419 0 1
89.3577 0 1
89.4734 0 1
89.5891 0 1
89.7047 0 1
89.8203 0 1
89.9358 0 1
92.3269 0 1
92.4424 0 1
92.558 0 1
92.6736 0 1
92.7893 0 1
92.905 0 1
93.0208 0 1
93.1366 0 1
93.2525 0 1
93.3685 0 1
93.4845 0 1
93.6005 30481 174.588
93.7167 33050 181.797
93.8328 35063 187.251
93.949 36544 191.165
94.0653 37185 192.834
94.1816 36894 192.078
94.2979 34567 185.922
94.4143 30833 175.593
94.5307 28558 168.991
94.6472 27184 164.876
94.7637 27387 165.49
94.8803 30955 175.94
94.9969 35860 189.367
95.1135 39385 198.457
95.2302 41474 203.652
95.3469 43605 208.818
95.4637 45269 212.765
95.5805 46154 214.835
95.6973 46877 216.511
95.8142 46608 215.889
95.9311 46148 214.821
96.048 46044 214.579
96.1649 45229 212.671
96.2819 43890 209.499
96.3989 42246 205.538
96.516 40838 202.084
96.633 39419 198.542
96.7501 37445 193.507
96.8673 35472 188.34
96.9844 35022 187.142
97.1016 35095 187.337
97.2188 35773 189.138
97.336 38138 195.29
97.4532 40858 202.134
97.5704 42427 205.978
97.6877 42540 206.252
97.805 41490 203.691
97.9223 38155 195.333
98.0396 32884 181.339
98.1569 29141 170.707
98.2743 26825 163.783
98.3916 26017 161.298
98.509 28712 169.446
98.6264 34616 186.054
98.7438 38815 197.015
98.8612 40984 202.445
98.9786 43394 208.312
99.096 45349 212.953
99.2134 46507 215.655
99.3308 47461 217.855
99.4482 47345 217.589
99.5656 47684 218.367
99.6831 47270 217.417
99.8005 47595 218.163
99.9179 45466 213.228
100.035 43750 209.165
100.153 42107 205.2
100.27 40609 201.517
100.388 38459 196.11
100.505 36642 191.421
100.622 36324 190.589
100.74 36898 192.089
100.857 39153 197.871
100.975 41124 202.791
101.092 43002 207.369
101.209 43199 207.844
101.327 43181 207.8
101.444 41305 203.236
101.561 36624 191.374
101.679 31653 177.913
101.796 28482 168.766
101.913 26610 163.126
102.03 28912 170.035
102.148 34505 185.755
102.265 38677 196.665
102.382 43552 208.691
102.499 44951 212.017
102.616 46930 216.633
102.733 47555 218.071
102.851 48993 221.344
102.968 48729 220.746
103.085 50002 223.611
103.202 49619 222.753
103.319 49020 221.405
103.436 47185 217.221
103.552 45652 213.663
103.669 44029 209.831
103.786 42334 205.752
103.903 39032 197.565
104.02 37472 193.577
104.137 37796 194.412
104.253 37690 194.139
104.37 40711 201.77
104.487 42611 206.424
104.603 44021 209.812
104.72 42949 207.241
104.836 39579 198.945
104.953 35061 187.246
105.069 30161 173.669
105.186 25927 161.019
105.302 23030 151.756
105.418 21905 148.003
105.535 22620 150.399
105.651 24862 157.677
105.767 25919 160.994
105.883 26295 162.157
105.999 25945 161.075
106.115 0 1
106.231 0 1
106.347 0 1
106.463 0 1
106.579 0 1
106.694 0 1
106.81 0 1
106.926 0 1
107.041 0 1
107.157 0 1
109.576 0 1
109.692 0 1
109.807 0 1
109.923 0 1
110.039 0 1
110.155 0 1
110.27 0 1
110.386 0 1
110.502 0 1
110.618 16423 128.152
110.735 23567 153.515
110.851 28891 169.974
110.967 32066 179.07
111.083 34210 184.959
111.199 36380 190.735
111.316 38741 196.827
111.432 39999 199.997
111.549 40605 201.507
111.665 41300 203.224
111.782 41691 204.184
111.898 41289 203.197
112.015 40165 200.412
112.132 39400 198.494
112.248 37329 193.207
112.365 36095 189.987
112.482 33364 182.658
112.599 34049 184.524
112.716 33482 182.981
112.832 33844 183.967
112.949 35427 188.221
113.066 36610 191.337
113.183 38214 195.484
113.3 38400 195.959
113.417 37532 193.732
113.534 36681 191.523
113.652 32545 180.402
113.769 28391 168.496
113.886 25583 159.947
114.003 24446 156.352
114.12 25279 158.994
114.238 30377 174.29
114.355 34753 186.422
114.472 36449 190.916
114.589 41997 204.932
114.707 42400 205.913
114.824 43293 208.07
114.942 44077 209.945
115.059 44080 209.952
115.176 44395 210.701
115.294 44013 209.793
115.411 43778 209.232
115.529 42356 205.806
115.646 40531 201.323
115.764 38999 197.482
115.881 37082 192.567
115.999 34684 186.236
116.116 33240 182.318
116.234 33286 182.445
116.351 33514 183.068
116.469 34567 185.922
116.586 35932 189.557
116.704 36935 192.185
116.821 37735 194.255
116.939 37792 194.402
117.056 37273 193.062
117.174 34798 186.542
117.291 30490 174.614
117.409 27279 165.164
117.526 25627 160.084
117.644 25177 158.673
117.761 28759 169.585
117.879 33242 182.324
117.996 36650 191.442
118.114 39493 198.728
118.231 41737 204.296
118.349 41890 204.67
118.466 42794 206.867
118.584 43274 208.024
118.701 43350 208.207
118.819 43382 208.283
118.936 42584 206.359
119.053 41389 203.443
119.171 40217 200.542
119.288 38640 196.571
119.405 37295 193.119
119.523 35057 187.235
119.64 32946 181.51
119.757 32800 181.108
119.875 32379 179.942
119.992 32641 180.668
120.109 33276 182.417
120.226 34126 184.732
120.343 34832 186.633
120.46 35454 188.292
120.578 35863 189.375
120.695 35188 187.585
120.812 33390 182.729
120.929 29707 172.357
121.046 26564 162.985
121.163 24019 154.981
121.279 23149 152.148
121.396 24693 157.14
121.513 27835 166.838
121.63 30136 173.597
121.747 30880 175.727
121.863 31824 178.393
121.98 32567 180.463
122.097 32436 180.1
122.213 31674 177.972
122.33 31341 177.034
122.446 30181 173.727
122.563 29268 171.079
122.679 27651 166.286
122.795 26468 162.69
122.912 24193 155.541
123.028 22012 148.364
123.144 19730 140.464
123.26 17801 133.42
123.377 0 1
123.493 0 1
123.609 0 1
123.725 0 1
123.84 0 1
123.956 0 1
124.072 0 1
124.188 0 1
124.303 0 1
124.419 0 1
126.852 0 1
126.968 0 1
127.083 0 1
127.199 0 1
127.315 0 1
127.431 0 1
127.547 0 1
127.663 0 1
127.779 0 1
127.895 0 1
128.011 0 1
128.127 0 1
128.243 0 1
128.359 38847 197.096
128.476 38491 196.191
128.592 38487 196.181
128.708 36775 191.768
128.825 35815 189.249
128.941 36112 190.032
129.058 36194 190.247
129.174 37098 192.608
129.291 38125 195.256
129.408 39090 197.712
129.524 39595 198.985
129.641 40037 200.092
129.758 39902 199.755
129.875 38269 195.625
129.992 35016 187.126
130.108 31596 177.753
130.225 29744 172.464
130.342 28249 168.074
130.459 29275 171.099
130.576 34510 185.769
130.693 37161 192.772
130.81 39424 198.555
130.928 41048 202.603
131.045 42427 205.978
131.162 42994 207.35
131.279 43318 208.13
131.396 43250 207.966
131.513 43019 207.41
131.631 42694 206.625
131.748 41991 204.917
131.865 41328 203.293
131.983 40142 200.355
132.1 39462 198.65
132.217 38139 195.292
132.335 36309 190.549
132.452 36213 190.297
132.57 36463 190.953
132.687 37304 193.142
132.804 37746 194.283
132.922 38381 195.911
133.039 39154 197.874
133.157 39611 199.025
133.274 39596 198.987
133.392 38692 196.703
133.509 35992 189.716
133.627 33241 182.321
133.744 31087 176.315
133.862 29178 170.816
133.979 29586 172.006
134.097 33019 181.711
134.214 36366 190.699
134.332 38573 196.4
134.449 39713 199.281
134.567 41079 202.68
134.684 42220 205.475
134.802 42068 205.105
134.919 42093 205.166
135.037 42087 205.151
135.154 41970 204.866
135.272 41834 204.534
135.389 41709 204.228
135.507 40908 202.257
135.624 40222 200.554
135.742 38572 196.398
135.859 37348 193.256
135.977 36409 190.811
136.094 37468 193.567
136.211 37384 193.349
136.329 38042 195.044
136.446 39380 198.444
136.564 39300 198.242
136.681 40116 200.29
136.798 40117 200.292
136.915 40417 201.04
137.033 38736 196.815
137.15 35385 188.109
137.267 32768 181.019
137.384 30940 175.898
137.502 29735 172.438
137.619 30039 173.318
137.736 33356 182.636
137.853 34700 186.279
137.97 37678 194.108
138.087 38547 196.334
138.204 39705 199.261
138.321 39970 199.925
138.438 40582 201.45
138.555 41260 203.126
138.672 39871 199.677
138.788 38012 194.967
138.905 36085 189.961
139.022 34083 184.616
139.139 32677 180.768
139.255 31334 177.014
139.372 29095 170.573
139.488 27119 164.678
139.605 25606 160.019
139.721 25226 158.827
139.838 24539 156.649
139.954 24403 156.215
140.071 23754 154.123
140.187 22611 150.37
140.303 21082 145.196
140.419 19810 140.748
140.535 18999 137.837
140.652 17808 133.447
140.768 0 1
140.884 0 1
141 0 1
141.115 0 1
141.231 0 1
141.347 0 1
141.463 0 1
141.578 0 1
141.694 0 1
144.104 0 1
144.219 0 1
144.335 0 1
144.45 0 1
144.566 0 1
144.682 0 1
144.798 0 1
144.914 0 1
145.03 0 1
145.146 26931 164.107
145.262 28991 170.267
145.378 29949 173.058
145.494 30230 173.868
145.61 30808 175.522
145.726 31069 176.264
145.842 29805 172.641
145.959 28372 168.44
146.075 26394 162.462
146.192 25065 158.319
146.308 24108 155.268
146.425 24151 155.406
146.541 25803 160.633
146.658 27374 165.451
146.774 29033 170.391
146.891 29818 172.679
147.008 31560 177.651
147.125 31277 176.853
147.241 32077 179.101
147.358 32622 180.616
147.475 32391 179.975
147.592 32699 180.829
147.709 32428 180.078
147.826 32387 179.964
147.943 31159 176.519
148.06 31185 176.593
148.177 30200 173.781
148.294 29796 172.615
148.411 29701 172.34
148.528 29890 172.887
148.645 30204 173.793
148.762 30444 174.482
148.88 30924 175.852
148.997 31708 178.067
149.114 30825 175.57
149.231 31206 176.652
149.349 31363 177.096
149.466 30249 173.922
149.583 28686 169.369
149.701 26921 164.076
149.818 25491 159.659
149.935 24663 157.045
150.053 24507 156.547
150.17 25913 160.975
150.287 27115 164.666
150.405 28509 168.846
150.522 29502 171.761
150.64 30594 174.911
150.757 31190 176.607
150.875 32034 178.98
150.992 31977 178.821
151.11 32544 180.4
151.227 32031 178.972
151.344 32040 178.997
151.462 31149 176.491
151.579 31356 177.076
151.697 30595 174.914
151.814 29980 173.147
151.932 29770 172.54
152.049 29466 171.657
152.167 29665 172.235
152.284 29756 172.499
152.402 30068 173.401
152.519 30421 174.416
152.636 30908 175.807
152.754 30795 175.485
152.871 31124 176.42
152.989 30555 174.8
153.106 29433 171.56
153.223 27926 167.111
153.341 26260 162.049
153.458 25256 158.921
153.575 24526 156.608
153.693 25689 160.278
153.81 26606 163.113
153.927 28071 167.544
154.044 28497 168.811
154.162 29958 173.084
154.279 30785 175.457
154.396 31470 177.398
154.513 31740 178.157
154.63 32120 179.221
154.747 32222 179.505
154.864 31719 178.098
154.981 31644 177.888
155.098 30954 175.937
155.215 30425 174.428
155.332 29514 171.796
155.449 29337 171.28
155.566 28370 168.434
155.683 28099 167.628
155.8 28002 167.338
155.917 27132 164.718
156.033 26371 162.392
156.15 0 1
156.267 0 1
156.383 0 1
156.5 0 1
156.617 0 1
156.733 0 1
156.85 0 1
156.966 0 1
157.082 0 1
157.199 0 1
157.315 0 1
157.431 0 1
157.547 0 1
157.664 0 1
157.78 0 1
157.896 0 1
158.012 0 1
158.128 0 1
158.244 0 1
158.359 0 1
158.475 0 1
158.591 0 1
158.706 0 1
