
6.15755 0 1
6.2731 0 1
6.3887 0 1
6.50437 0 1
6.62009 0 1
6.73587 0 1
6.8517 0 1
6.96759 0 1
7.08353 0 1
7.19952 0 1
7.31557 0 1
7.43166 0 1
7.54781 0 1
7.664 0 1
7.78024 0 1
7.89653 0 1
8.01286 0 1
8.12924 0 1
8.24567 0 1
8.36213 0 1
8.47864 0 1
8.59519 0 1
8.71178 0 1
8.82841 0 1
8.94508 0 1
9.06179 0 1
9.17853 0 1
9.29531 0 1
9.41212 0 1
9.52897 0 1
9.64584 0 1
9.76276 0 1
9.8797 0 1
9.99667 0 1
10.1137 0 1
10.2307 0 1
10.3478 0 1
10.4648 0 1
10.5819 0 1
10.6991 0 1
10.8162 0 1
10.9334 0 1
11.0506 0 1
11.1678 0 1
11.285 0 1
11.4023 0 1
11.5196 0 1
11.6369 0 1
11.7542 0 1
11.8715 0 1
11.9888 0 1
12.1062 0 1
12.2235 0 1
12.3409 0 1
12.4582 0 1
12.5756 0 1
12.693 0 1
12.8104 0 1
12.9278 0 1
13.0452 0 1
13.1626 0 1
13.28 0 1
13.3974 0 1
13.5149 0 1
13.6323 0 1
13.7497 0 1
13.8671 0 1
13.9845 0 1
14.1019 0 1
14.2193 0 1
14.3367 0 1
14.4541 0 1
14.5714 0 1
14.6888 0 1
14.8062 0 1
14.9235 0 1
15.0408 1812 42.5676
15.1581 1888 43.4511
15.2755 1992 44.6318
15.3927 2070 45.4973
15.51 2001 44.7325
15.6273 1998 44.699
15.7445 1996 44.6766
15.8617 2016 44.8999
15.9789 1955 44.2154
16.0961 2040 45.1664
16.2132 1982 44.5197
16.3304 2073 45.5302
16.4475 2123 46.076
16.5646 2189 46.7868
16.6816 2272 47.6655
16.7986 2415 49.1426
16.9156 2501 50.01
17.0326 2322 48.1871
17.1496 2372 48.7032
17.2665 2345 48.4252
17.3833 2419 49.1833
17.5002 2255 47.4868
17.617 2224 47.1593
17.7338 2172 46.6047
17.8505 2088 45.6946
17.9672 2030 45.0555
18.0839 2143 46.2925
18.2005 2076 45.5631
18.3171 2194 46.8402
18.4337 2261 47.55
18.5502 2303 47.9896
18.6666 2353 48.5077
18.7831 2402 49.0102
18.8994 2348 48.4562
19.0158 2332 48.2908
19.1321 2266 47.6025
19.2483 2124 46.0869
19.3645 1992 44.6318
19.4806 1959 44.2606
19.5967 1831 42.7902
19.7128 1654 40.6694
19.8288 1502 38.7556
19.9447 1451 38.092
20.0606 0 1
20.1764 0 1
20.2922 0 1
20.4079 0 1
20.5236 0 1
20.6392 0 1
20.7548 0 1
20.8702 0 1
23.3078 0 1
23.4233 0 1
23.539 0 1
23.6547 0 1
23.7704 0 1
23.8862 0 1
24.0021 0 1
24.118 0 1
24.234 0 1
24.35 0 1
24.4661 989 31.4484
24.5822 1142 33.7935
24.6984 1272 35.6651
24.8146 1361 36.8917
24.9309 1542 39.2683
25.0472 1777 42.1545
25.1636 1845 42.9535
25.28 2107 45.9021
25.3965 2130 46.1519
25.513 2360 48.5798
25.6296 2469 49.689
25.7462 2490 49.8999
25.8628 2571 50.705
25.9795 2516 50.1597
26.0962 2429 49.2849
26.213 2400 48.9898
26.3298 2404 49.0306
26.4466 2211 47.0213
26.5635 2119 46.0326
26.6804 2175 46.6369
26.7973 2281 47.7598
26.9143 2206 46.9681
27.0313 2352 48.4974
27.1483 2365 48.6313
27.2653 2444 49.4368
27.3824 2390 48.8876
27.4996 2432 49.3153
27.6167 2400 48.9898
27.7339 2338 48.3529
27.8511 2364 48.621
27.9683 2196 46.8615
28.0855 2146 46.3249
28.2028 2089 45.7056
28.3201 2018 44.9222
28.4374 2016 44.8999
28.5547 2071 45.5082
28.6721 2207 46.9787
28.7894 2208 46.9894
28.9068 2323 48.1975
29.0242 2457 49.5681
29.1416 2456 49.558
29.259 2612 51.1077
29.3764 2548 50.4777
29.4939 2543 50.4282
29.6113 2348 48.4562
29.7288 2285 47.8017
29.8463 2228 47.2017
29.9638 2119 46.0326
30.0812 2033 45.0888
30.1987 2026 45.0111
30.3162 2181 46.7012
30.4337 2156 46.4327
30.5512 2127 46.1194
30.6687 2136 46.2169
30.7862 2254 47.4763
30.9037 2322 48.1871
31.0212 2311 48.0729
31.1387 2342 48.3942
31.2562 2284 47.7912
31.3737 2314 48.1041
31.4912 2121 46.0543
31.6087 2128 46.1303
31.7262 2071 45.5082
31.8436 2009 44.8219
31.9611 1969 44.3734
32.0785 2059 45.3762
32.1959 2074 45.5412
32.3134 2178 46.669
32.4308 2226 47.1805
32.5482 2315 48.1144
32.6655 2355 48.5283
32.7829 2440 49.3964
32.9002 2476 49.7594
33.0176 2479 49.7896
33.1349 2404 49.0306
33.2522 2315 48.1144
33.3694 2161 46.4866
33.4867 2055 45.3321
33.6039 2044 45.2106
33.7211 1948 44.1362
33.8383 2016 44.8999
33.9554 2035 45.111
34.0725 2094 45.7602
34.1896 2167 46.551
34.3067 2091 45.7275
34.4237 2174 46.6262
34.5407 2170 46.5833
34.6577 2198 46.8828
34.7746 2387 48.8569
34.8915 2165 46.5296
35.0084 2127 46.1194
35.1252 2098 45.8039
35.242 2122 46.0652
35.3587 1986 44.5646
35.4755 2084 45.6508
35.5921 1947 44.1248
35.7088 1897 43.5546
35.8254 1877 43.3244
35.9419 1980 44.4972
36.0584 2099 45.8148
36.1749 2047 45.2438
36.2913 2183 46.7226
36.4077 2093 45.7493
36.524 1975 44.441
36.6403 2011 44.8442
36.7565 1844 42.9418
36.8727 1835 42.8369
36.9889 1680 40.9878
37.1049 1497 38.6911
37.221 0 1
37.3369 0 1
37.4529 0 1
37.5687 0 1
37.6845 0 1
37.8003 0 1
37.916 0 1
38.0316 0 1
38.1472 0 1
40.5851 0 1
40.7008 0 1
40.8164 0 1
40.9322 0 1
41.048 0 1
41.1639 0 1
41.2798 0 1
41.3958 0 1
41.5118 0 1
41.6279 0 1
41.744 1088 32.9848
41.8602 1288 35.8887
41.9765 1302 36.0832
42.0928 1339 36.5923
42.2091 1290 35.9166
42.3255 1345 36.6742
42.4419 1358 36.8511
42.5584 1344 36.6606
42.675 1412 37.5766
42.7915 1625 40.3113
42.9081 1666 40.8167
43.0248 1737 41.6773
43.1415 1768 42.0476
43.2582 1779 42.1782
43.375 1811 42.5558
43.4918 1903 43.6234
43.6087 1887 43.4396
43.7256 1833 42.8135
43.8425 1847 42.9767
43.9595 1754 41.8808
44.0765 1737 41.6773
44.1935 1738 41.6893
44.3106 1629 40.3609
44.4277 1546 39.3192
44.5448 1571 39.6358
44.6619 1536 39.1918
44.7791 1708 41.328
44.8963 1786 42.2611
45.0136 1776 42.1426
45.1308 1879 43.3474
45.2481 1859 43.1161
45.3654 1867 43.2088
45.4827 1893 43.5086
45.6001 1803 42.4617
45.7174 1807 42.5088
45.8348 1638 40.4722
45.9522 1651 40.6325
46.0697 1563 39.5348
46.1871 1540 39.2428
46.3046 1566 39.5727
46.422 1644 40.5463
46.5395 1735 41.6533
46.657 1793 42.3438
46.7745 1810 42.5441
46.892 1833 42.8135
47.0096 2000 44.7214
47.1271 1957 44.238
47.2446 1944 44.0908
47.3622 1893 43.5086
47.4797 1896 43.5431
47.5973 1923 43.852
47.7149 1746 41.7852
47.8324 1789 42.2966
47.95 1646 40.5709
48.0675 1651 40.6325
48.1851 1651 40.6325
48.3027 1639 40.4846
48.4202 1789 42.2966
48.5378 1866 43.1972
48.6554 1918 43.795
48.7729 1924 43.8634
48.8904 1910 43.7035
49.008 1993 44.643
49.1255 1894 43.5201
49.243 1848 42.9884
49.3605 1650 40.6202
49.478 1624 40.2989
49.5955 1527 39.0768
49.713 1471 38.3536
49.8304 1519 38.9744
49.9479 1618 40.2244
50.0653 1671 40.8779
50.1827 1818 42.638
50.3001 1896 43.5431
50.4175 1945 44.1022
50.5348 1853 43.0465
50.6521 1911 43.715
50.7694 1977 44.4635
50.8867 1948 44.1362
51.004 1896 43.5431
51.1212 1910 43.7035
51.2384 1777 42.1545
51.3556 1760 41.9524
51.4727 1773 42.107
51.5899 1663 40.7799
51.707 1710 41.3521
51.824 1744 41.7612
51.9411 1875 43.3013
52.0581 2069 45.4863
52.175 2172 46.6047
52.2919 2179 46.6798
52.4088 2295 47.9062
52.5257 2337 48.3425
52.6425 2402 49.0102
52.7593 2314 48.1041
52.876 2226 47.1805
52.9927 2143 46.2925
53.1094 2058 45.3652
53.226 1963 44.3058
53.3426 1955 44.2154
53.4591 1864 43.1741
53.5756 1872 43.2666
53.692 1851 43.0232
53.8084 1964 44.317
53.9248 1810 42.5441
54.0411 1792 42.332
54.1573 1724 41.5211
54.2735 0 1
54.3896 0 1
54.5057 0 1
54.6217 0 1
54.7377 0 1
54.8537 0 1
54.9695 0 1
55.0853 0 1
55.2011 0 1
55.3168 0 1
55.4324 0 1
57.824 0 1
57.9396 0 1
58.0553 0 1
58.1711 0 1
58.2869 0 1
58.4028 0 1
58.5187 0 1
58.6347 0 1
58.7508 0 1
58.8669 0 1
58.983 1428 37.7889
59.0992 1752 41.8569
59.2155 1901 43.6005
59.3318 1965 44.3283
59.4482 2062 45.4093
59.5646 2196 46.8615
59.681 2253 47.4658
59.7975 2222 47.1381
59.9141 2158 46.4543
60.0306 2134 46.1952
60.1473 2075 45.5522
60.2639 1993 44.643
60.3807 1967 44.3509
60.4974 2012 44.8553
60.6142 2113 45.9674
60.731 2263 47.571
60.8479 2434 49.3356
60.9648 2471 49.7092
61.0818 2451 49.5076
61.1987 2443 49.4267
61.3158 2351 48.4871
61.4328 2291 47.8644
61.5499 2183 46.7226
61.667 2036 45.1221
61.7841 1994 44.6542
61.9013 1848 42.9884
62.0185 1856 43.0813
62.1357 1889 43.4626
62.253 2098 45.8039
62.3702 2125 46.0977
62.4875 2243 47.3603
62.6049 2233 47.2546
62.7222 2244 47.3709
62.8396 2277 47.7179
62.9569 2378 48.7647
63.0743 2295 47.9062
63.1918 2314 48.1041
63.3092 2349 48.4665
63.4267 2186 46.7547
63.5441 2184 46.7333
63.6616 2096 45.7821
63.7791 1948 44.1362
63.8966 1923 43.852
64.0142 1993 44.643
64.1317 2138 46.2385
64.2492 2204 46.9468
64.3668 2199 46.8935
64.4843 2322 48.1871
64.6019 2406 49.051
64.7195 2360 48.5798
64.837 2396 48.949
64.9546 2334 48.3115
65.0722 2161 46.4866
65.1898 2102 45.8476
65.3074 1879 43.3474
65.4249 1800 42.4264
65.5425 1744 41.7612
65.6601 1742 41.7373
65.7777 1902 43.6119
65.8952 1972 44.4072
66.0128 2106 45.8912
66.1304 2129 46.1411
66.2479 2148 46.3465
66.3655 2256 47.4974
66.483 2344 48.4149
66.6005 2219 47.1063
66.718 2306 48.0208
66.8355 2209 47
66.953 2147 46.3357
67.0705 2166 46.5403
67.1879 2172 46.6047
67.3054 1968 44.3621
67.4228 1936 44
67.5402 1802 42.45
67.6576 1965 44.3283
67.7749 1828 42.7551
67.8923 2102 45.8476
68.0096 2222 47.1381
68.1269 2211 47.0213
68.2442 2304 48
68.3614 2183 46.7226
68.4787 2159 46.465
68.5958 2224 47.1593
68.713 2154 46.4112
68.8302 1933 43.9659
68.9473 1784 42.2374
69.0643 1650 40.6202
69.1814 1607 40.0874
69.2984 1729 41.5812
69.4154 1791 42.3202
69.5323 1989 44.5982
69.6492 2028 45.0333
69.7661 2158 46.4543
69.8829 2198 46.8828
69.9997 2063 45.4203
70.1165 2054 45.3211
70.2332 1999 44.7102
70.3499 2012 44.8553
70.4665 1804 42.4735
70.5831 1697 41.1947
70.6996 1629 40.3609
70.8161 1540 39.2428
70.9326 1369 37
71.049 1232 35.0999
71.1653 994 31.5278
71.2817 937 30.6105
71.3979 866 29.4279
71.5141 817 28.5832
71.6303 841 29
71.7464 774 27.8209
71.8624 0 1
71.9784 0 1
72.0944 0 1
72.2102 0 1
72.3261 0 1
72.4418 0 1
72.5575 0 1
72.6732 0 1
75.1054 0 1
75.2209 0 1
75.3365 0 1
75.4521 0 1
75.5678 0 1
75.6835 0 1
75.7993 0 1
75.9151 0 1
76.031 0 1
76.147 1308 36.1663
76.263 1426 37.7624
76.3791 1428 37.7889
76.4952 1394 37.3363
76.6113 1481 38.4838
76.7276 1611 40.1373
76.8438 1732 41.6173
76.9601 1830 42.7785
77.0765 2007 44.7996
77.1929 1917 43.7836
77.3093 1980 44.4972
77.4258 2028 45.0333
77.5423 1973 44.4185
77.6589 1816 42.6146
77.7755 1752 41.8569
77.8921 1532 39.1408
78.0088 1501 38.7427
78.1256 1386 37.229
78.2423 1413 37.5899
78.3591 1504 38.7814
78.4759 1551 39.3827
78.5928 1728 41.5692
78.7097 1758 41.9285
78.8266 1794 42.3556
78.9436 1961 44.2832
79.0606 1918 43.795
79.1776 1964 44.317
79.2946 1971 44.3959
79.4117 1980 44.4972
79.5288 1950 44.1588
79.6459 1925 43.8748
79.7631 1841 42.9069
79.8802 1842 42.9185
79.9974 1744 41.7612
80.1147 1667 40.8289
80.2319 1472 38.3667
80.3491 1664 40.7922
80.4664 1660 40.7431
80.5837 1845 42.9535
80.701 1965 44.3283
80.8183 2015 44.8888
80.9357 1974 44.4297
81.053 2084 45.6508
81.1704 2033 45.0888
81.2877 1997 44.6878
81.4051 1879 43.3474
81.5225 1786 42.2611
81.6399 1705 41.2916
81.7573 1464 38.2623
81.8747 1415 37.6165
81.9922 1349 36.7287
82.1096 1602 40.025
82.227 1735 41.6533
82.3444 1794 42.3556
82.4619 1935 43.9886
82.5793 2032 45.0777
82.6967 2015 44.8888
82.8142 2000 44.7214
82.9316 2055 45.3321
83.049 2026 45.0111
83.1664 1999 44.7102
83.2838 1964 44.317
83.4012 2001 44.7325
83.5186 1991 44.6206
83.636 1804 42.4735
83.7534 1740 41.7133
83.8708 1617 40.2119
83.9881 1525 39.0512
84.1055 1730 41.5933
84.2228 1834 42.8252
84.3401 1958 44.2493
84.4575 2028 45.0333
84.5747 2101 45.8367
84.692 2125 46.0977
84.8093 2062 45.4093
84.9265 2044 45.2106
85.0437 1937 44.0114
85.1609 1740 41.7133
85.2781 1540 39.2428
85.3952 1427 37.7757
85.5123 1456 38.1576
85.6294 1470 38.3406
85.7465 1651 40.6325
85.8636 1810 42.5441
85.9806 1804 42.4735
86.0976 1975 44.441
86.2145 1961 44.2832
86.3315 1980 44.4972
86.4484 2036 45.1221
86.5652 2181 46.7012
86.682 2078 45.5851
86.7988 2045 45.2217
86.9156 2013 44.8665
87.0323 1986 44.5646
87.149 1940 44.0454
87.2657 1753 41.8688
87.3823 1636 40.4475
87.4988 1486 38.5487
87.6154 1434 37.8682
87.7318 1508 38.833
87.8483 1497 38.6911
87.9647 1596 39.95
88.081 1603 40.0375
88.1973 1600 40
88.3136 1611 40.1373
88.4298 1457 38.1707
88.546 1385 37.2156
88.6621 1200 34.641
88.7781 937 30.6105
88.8942 0 1
89.0101 0 1
89.126 0 1
89.2419 0 1
89.3577 0 1
89.4734 0 1
89.5891 0 1
89.7047 0 1
89.8203 0 1
89.9358 0 1
92.3269 0 1
92.4424 0 1
92.558 0 1
92.6736 0 1
92.7893 0 1
92.905 0 1
93.0208 0 1
93.1366 0 1
93.2525 0 1
93.3685 0 1
93.4845 0 1
93.6005 1649 40.6079
93.7167 1663 40.7799
93.8328 1672 40.8901
93.949 1738 41.6893
94.0653 1754 41.8808
94.1816 1812 42.5676
94.2979 1642 40.5216
94.4143 1598 39.975
94.5307 1486 38.5487
94.6472 1462 38.2361
94.7637 1558 39.4715
94.8803 1613 40.1622
94.9969 1792 42.332
95.1135 1893 43.5086
95.2302 1973 44.4185
95.3469 1990 44.6094
95.4637 2049 45.2659
95.5805 2118 46.0217
95.6973 2119 46.0326
95.8142 2030 45.0555
95.9311 2093 45.7493
96.048 1957 44.238
96.1649 2034 45.0999
96.2819 1971 44.3959
96.3989 2078 45.5851
96.516 1895 43.5316
96.633 1749 41.821
96.7501 1654 40.6694
96.8673 1693 41.1461
96.9844 1784 42.2374
97.1016 1970 44.3847
97.2188 1977 44.4635
97.336 2195 46.8508
97.4532 2100 45.8258
97.5704 2162 46.4973
97.6877 2176 46.6476
97.805 2027 45.0222
97.9223 1948 44.1362
98.0396 1697 41.1947
98.1569 1606 40.0749
98.2743 1475 38.4057
98.3916 1497 38.6911
98.509 1616 40.1995
98.6264 1771 42.0833
98.7438 1933 43.9659
98.8612 2025 45
98.9786 2117 46.0109
99.096 2188 46.7761
99.2134 2129 46.1411
99.3308 2269 47.634
99.4482 2244 47.3709
99.5656 2206 46.9681
99.6831 2217 47.085
99.8005 2190 46.7974
99.9179 2167 46.551
100.035 2048 45.2548
100.153 1991 44.6206
100.27 1806 42.4971
100.388 1835 42.8369
100.505 1907 43.6692
100.622 1989 44.5982
100.74 2153 46.4004
100.857 2189 46.7868
100.975 2347 48.4458
101.092 2277 47.7179
101.209 2221 47.1275
101.327 2214 47.0532
101.444 2233 47.2546
101.561 1838 42.8719
101.679 1741 41.7253
101.796 1598 39.975
101.913 1563 39.5348
102.03 1625 40.3113
102.148 1865 43.1856
102.265 1968 44.3621
102.382 2113 45.9674
102.499 2138 46.2385
102.616 2228 47.2017
102.733 2294 47.8957
102.851 2250 47.4342
102.968 2335 48.3218
103.085 2370 48.6826
103.202 2331 48.2804
103.319 2293 47.8853
103.436 2240 47.3286
103.552 2126 46.1086
103.669 2094 45.7602
103.786 1964 44.317
103.903 1937 44.0114
104.02 2022 44.9667
104.137 2066 45.4533
104.253 2249 47.4236
104.37 2342 48.3942
104.487 2440 49.3964
104.603 2337 48.3425
104.72 2328 48.2494
104.836 2226 47.1805
104.953 2036 45.1221
105.069 1819 42.6497
105.186 1662 40.7676
105.302 1513 38.8973
105.418 1400 37.4166
105.535 1459 38.1969
105.651 1456 38.1576
105.767 1512 38.8844
105.883 1526 39.064
105.999 1428 37.7889
106.115 0 1
106.231 0 1
106.347 0 1
106.463 0 1
106.579 0 1
106.694 0 1
106.81 0 1
106.926 0 1
107.041 0 1
107.157 0 1
109.576 0 1
109.692 0 1
109.807 0 1
109.923 0 1
110.039 0 1
110.155 0 1
110.27 0 1
110.386 0 1
110.502 0 1
110.618 993 31.5119
110.735 1276 35.7211
110.851 1533 39.1535
110.967 1650 40.6202
111.083 1819 42.6497
111.199 2002 44.7437
111.316 2021 44.9555
111.432 2073 45.5302
111.549 2118 46.0217
111.665 2189 46.7868
111.782 2174 46.6262
111.898 2175 46.6369
112.015 2162 46.4973
112.132 2039 45.1553
112.248 1922 43.8406
112.365 1844 42.9418
112.482 1830 42.7785
112.599 1964 44.317
112.716 2079 45.5961
112.832 2095 45.7712
112.949 2176 46.6476
113.066 2201 46.9148
113.183 2254 47.4763
113.3 2156 46.4327
113.417 2132 46.1736
113.534 1967 44.3509
113.652 1745 41.7732
113.769 1678 40.9634
113.886 1592 39.8999
114.003 1519 38.9744
114.12 1607 40.0874
114.238 1822 42.6849
114.355 1833 42.8135
114.472 1904 43.6348
114.589 2161 46.4866
114.707 2039 45.1553
114.824 2149 46.3573
114.942 2208 46.9894
115.059 2234 47.2652
115.176 2178 46.669
115.294 2204 46.9468
115.411 2262 47.5605
115.529 2151 46.3789
115.646 2086 45.6727
115.764 1917 43.7836
115.881 1853 43.0465
115.999 1858 43.1045
116.116 1884 43.4051
116.234 1982 44.5197
116.351 2078 45.5851
116.469 2245 47.3814
116.586 2179 46.6798
116.704 2213 47.0425
116.821 2181 46.7012
116.939 2233 47.2546
117.056 2135 46.2061
117.174 1910 43.7035
117.291 1724 41.5211
117.409 1676 40.939
117.526 1472 38.3667
117.644 1504 38.7814
117.761 1699 41.2189
117.879 1834 42.8252
117.996 1894 43.5201
118.114 2078 45.5851
118.231 2094 45.7602
118.349 2004 44.7661
118.466 2114 45.9783
118.584 2129 46.1411
118.701 2160 46.4758
118.819 2100 45.8258
118.936 2088 45.6946
119.053 2117 46.0109
119.171 2077 45.5741
119.288 2000 44.7214
119.405 1907 43.6692
119.523 1893 43.5086
119.64 1766 42.0238
119.757 1839 42.8836
119.875 1872 43.2666
119.992 1924 43.8634
120.109 2029 45.0444
120.226 2156 46.4327
120.343 2099 45.8148
120.46 2110 45.9347
120.578 2114 45.9783
120.695 2016 44.8999
120.812 1877 43.3244
120.929 1762 41.9762
121.046 1536 39.1918
121.163 1469 38.3275
121.279 1385 37.2156
121.396 1461 38.223
121.513 1498 38.704
121.63 1657 40.7063
121.747 1658 40.7185
121.863 1597 39.9625
121.98 1670 40.8656
122.097 1597 39.9625
122.213 1692 41.1339
122.33 1582 39.7744
122.446 1547 39.3319
122.563 1519 38.9744
122.679 1404 37.47
122.795 1281 35.7911
122.912 1246 35.2987
123.028 1083 32.909
123.144 986 31.4006
123.26 851 29.1719
123.377 0 1
123.493 0 1
123.609 0 1
123.725 0 1
123.84 0 1
123.956 0 1
124.072 0 1
124.188 0 1
124.303 0 1
124.419 0 1
126.852 0 1
126.968 0 1
127.083 0 1
127.199 0 1
127.315 0 1
127.431 0 1
127.547 0 1
127.663 0 1
127.779 0 1
127.895 0 1
128.011 0 1
128.127 0 1
128.243 0 1
128.359 1972 44.4072
128.476 1998 44.699
128.592 1944 44.0908
128.708 1924 43.8634
128.825 2016 44.8999
128.941 2109 45.9239
129.058 2179 46.6798
129.174 2274 47.6865
129.291 2286 47.8121
129.408 2282 47.7703
129.524 2261 47.55
129.641 2275 47.697
129.758 2280 47.7493
129.875 2049 45.2659
129.992 1836 42.8486
130.108 1720 41.4729
130.225 1629 40.3609
130.342 1690 41.1096
130.459 1687 41.0731
130.576 1878 43.3359
130.693 1944 44.0908
130.81 2067 45.4643
130.928 2196 46.8615
131.045 2224 47.1593
131.162 2221 47.1275
131.279 2186 46.7547
131.396 2325 48.2183
131.513 2275 47.697
131.631 2208 46.9894
131.748 2146 46.3249
131.865 2149 46.3573
131.983 2002 44.7437
132.1 1959 44.2606
132.217 1993 44.643
132.335 2000 44.7214
132.452 2071 45.5082
132.57 2137 46.2277
132.687 2310 48.0625
132.804 2201 46.9148
132.922 2233 47.2546
133.039 2309 48.0521
133.157 2245 47.3814
133.274 2216 47.0744
133.392 2185 46.744
133.509 1989 44.5982
133.627 1842 42.9185
133.744 1766 42.0238
133.862 1743 41.7493
133.979 1740 41.7133
134.097 1925 43.8748
134.214 1957 44.238
134.332 2119 46.0326
134.449 2170 46.5833
134.567 2214 47.0532
134.684 2233 47.2546
134.802 2223 47.1487
134.919 2327 48.239
135.037 2270 47.6445
135.154 2204 46.9468
135.272 2240 47.3286
135.389 2202 46.9255
135.507 2238 47.3075
135.624 2036 45.1221
135.742 1935 43.9886
135.859 2025 45
135.977 2105 45.8803
136.094 2058 45.3652
136.211 2174 46.6262
136.329 2297 47.927
136.446 2246 47.392
136.564 2342 48.3942
136.681 2314 48.1041
136.798 2203 46.9361
136.915 2300 47.9583
137.033 2113 45.9674
137.15 2013 44.8665
137.267 1880 43.359
137.384 1795 42.3674
137.502 1627 40.3361
137.619 1673 40.9023
137.736 1851 43.0232
137.853 2002 44.7437
137.97 2082 45.6289
138.087 2089 45.7056
138.204 2168 46.5618
138.321 2170 46.5833
138.438 2241 47.3392
138.555 2203 46.9361
138.672 2227 47.1911
138.788 2229 47.2123
138.905 2053 45.31
139.022 1941 44.0568
139.139 1840 42.8952
139.255 1754 41.8808
139.372 1655 40.6817
139.488 1499 38.7169
139.605 1480 38.4708
139.721 1526 39.064
139.838 1443 37.9868
139.954 1505 38.7943
140.071 1490 38.6005
140.187 1383 37.1887
140.303 1174 34.2637
140.419 1213 34.8281
140.535 1122 33.4963
140.652 1054 32.4654
140.768 0 1
140.884 0 1
141 0 1
141.115 0 1
141.231 0 1
141.347 0 1
141.463 0 1
141.578 0 1
141.694 0 1
144.104 0 1
144.219 0 1
144.335 0 1
144.45 0 1
144.566 0 1
144.682 0 1
144.798 0 1
144.914 0 1
145.03 0 1
145.146 1657 40.7063
145.262 1674 40.9145
145.378 1739 41.7013
145.494 1789 42.2966
145.61 1803 42.4617
145.726 1733 41.6293
145.842 1589 39.8623
145.959 1532 39.1408
146.075 1451 38.092
146.192 1417 37.6431
146.308 1423 37.7227
146.425 1385 37.2156
146.541 1486 38.5487
146.658 1476 38.4187
146.774 1547 39.3319
146.891 1662 40.7676
147.008 1710 41.3521
147.125 1641 40.5093
147.241 1694 41.1582
147.358 1734 41.6413
147.475 1725 41.5331
147.592 1791 42.3202
147.709 1687 41.0731
147.826 1649 40.6079
147.943 1604 40.05
148.06 1552 39.3954
148.177 1565 39.5601
148.294 1525 39.0512
148.411 1593 39.9124
148.528 1709 41.3401
148.645 1691 41.1218
148.762 1819 42.6497
148.88 1753 41.8688
148.997 1823 42.6966
149.114 1685 41.0488
149.231 1748 41.8091
149.349 1739 41.7013
149.466 1716 41.4246
149.583 1622 40.2741
149.701 1516 38.9358
149.818 1417 37.6431
149.935 1400 37.4166
150.053 1325 36.4005
150.17 1456 38.1576
150.287 1498 38.704
150.405 1538 39.2173
150.522 1572 39.6485
150.64 1683 41.0244
150.757 1639 40.4846
150.875 1675 40.9268
150.992 1663 40.7799
151.11 1687 41.0731
151.227 1664 40.7922
151.344 1655 40.6817
151.462 1686 41.0609
151.579 1593 39.9124
151.697 1583 39.7869
151.814 1535 39.1791
151.932 1493 38.6394
152.049 1511 38.8716
152.167 1605 40.0625
152.284 1646 40.5709
152.402 1694 41.1582
152.519 1844 42.9418
152.636 1695 41.1704
152.754 1732 41.6173
152.871 1792 42.332
152.989 1779 42.1782
153.106 1573 39.6611
153.223 1557 39.4588
153.341 1397 37.3765
153.458 1357 36.8375
153.575 1323 36.3731
153.693 1290 35.9166
153.81 1383 37.1887
153.927 1449 38.0657
154.044 1397 37.3765
154.162 1584 39.7995
154.279 1505 38.7943
154.396 1589 39.8623
154.513 1531 39.128
154.63 1586 39.8246
154.747 1651 40.6325
154.864 1551 39.3827
154.981 1465 38.2753
155.098 1520 38.9872
155.215 1478 38.4448
155.332 1435 37.8814
155.449 1483 38.5097
155.566 1400 37.4166
155.683 1433 37.855
155.8 1427 37.7757
155.917 1463 38.2492
156.033 1482 38.4968
156.15 0 1
156.267 0 1
156.383 0 1
156.5 0 1
156.617 0 1
156.733 0 1
156.85 0 1
156.966 0 1
157.082 0 1
157.199 0 1
157.315 0 1
157.431 0 1
157.547 0 1
157.664 0 1
157.78 0 1
157.896 0 1
158.012 0 1
158.128 0 1
158.244 0 1
158.359 0 1
158.475 0 1
158.591 0 1
158.706 0 1
