
6.15755 0 1
6.2731 0 1
6.3887 0 1
6.50437 0 1
6.62009 0 1
6.73587 0 1
6.8517 0 1
6.96759 0 1
7.08353 0 1
7.19952 0 1
7.31557 0 1
7.43166 0 1
7.54781 0 1
7.664 0 1
7.78024 0 1
7.89653 0 1
8.01286 0 1
8.12924 0 1
8.24567 0 1
8.36213 0 1
8.47864 0 1
8.59519 0 1
8.71178 0 1
8.82841 0 1
8.94508 0 1
9.06179 0 1
9.17853 0 1
9.29531 0 1
9.41212 0 1
9.52897 0 1
9.64584 0 1
9.76276 0 1
9.8797 0 1
9.99667 0 1
10.1137 0 1
10.2307 0 1
10.3478 0 1
10.4648 0 1
10.5819 0 1
10.6991 0 1
10.8162 0 1
10.9334 0 1
11.0506 0 1
11.1678 0 1
11.285 0 1
11.4023 0 1
11.5196 0 1
11.6369 0 1
11.7542 0 1
11.8715 0 1
11.9888 0 1
12.1062 0 1
12.2235 0 1
12.3409 0 1
12.4582 0 1
12.5756 0 1
12.693 0 1
12.8104 0 1
12.9278 0 1
13.0452 0 1
13.1626 0 1
13.28 0 1
13.3974 0 1
13.5149 0 1
13.6323 0 1
13.7497 0 1
13.8671 0 1
13.9845 0 1
14.1019 0 1
14.2193 0 1
14.3367 0 1
14.4541 0 1
14.5714 0 1
14.6888 0 1
14.8062 0 1
14.9235 0 1
15.0408 0 0
15.1581 0 0
15.2755 0 0
15.3927 0 0
15.51 0 0
15.6273 0 0
15.7445 0 0
15.8617 0 0
15.9789 0 0
16.0961 0 0
16.2132 0 0
16.3304 0 0
16.4475 0 0
16.5646 0 0
16.6816 0 0
16.7986 0 0
16.9156 0 0
17.0326 0 0
17.1496 0 0
17.2665 0 0
17.3833 0 0
17.5002 0 0
17.617 0 0
17.7338 0 0
17.8505 0 0
17.9672 0 0
18.0839 0 0
18.2005 0 0
18.3171 0 0
18.4337 0 0
18.5502 0 0
18.6666 0 0
18.7831 0 0
18.8994 0 0
19.0158 0 0
19.1321 0 0
19.2483 0 0
19.3645 0 0
19.4806 0 0
19.5967 0 0
19.7128 0 0
19.8288 0 0
19.9447 0 0
20.0606 0 1
20.1764 0 1
20.2922 0 1
20.4079 0 1
20.5236 0 1
20.6392 0 1
20.7548 0 1
20.8702 0 1
23.3078 0 1
23.4233 0 1
23.539 0 1
23.6547 0 1
23.7704 0 1
23.8862 0 1
24.0021 0 1
24.118 0 1
24.234 0 1
24.35 0 1
24.4661 1435 37.8814
24.5822 1448 38.0526
24.6984 1409 37.5366
24.8146 1433 37.855
24.9309 1445 38.0132
25.0472 1486 38.5487
25.1636 1450 38.0789
25.28 1462 38.2361
25.3965 1443 37.9868
25.513 1439 37.9342
25.6296 1497 38.6911
25.7462 1600 40
25.8628 1514 38.9102
25.9795 1453 38.1182
26.0962 1524 39.0384
26.213 1564 39.5474
26.3298 1507 38.8201
26.4466 1407 37.51
26.5635 1320 36.3318
26.6804 1342 36.6333
26.7973 1294 35.9722
26.9143 1326 36.4143
27.0313 1383 37.1887
27.1483 1480 38.4708
27.2653 1436 37.8946
27.3824 1481 38.4838
27.4996 1520 38.9872
27.6167 1476 38.4187
27.7339 1480 38.4708
27.8511 1418 37.6563
27.9683 1497 38.6911
28.0855 1438 37.921
28.2028 1428 37.7889
28.3201 1388 37.2559
28.4374 1386 37.229
28.5547 1435 37.8814
28.6721 1400 37.4166
28.7894 1319 36.318
28.9068 1318 36.3043
29.0242 1443 37.9868
29.1416 1346 36.6879
29.259 1429 37.8021
29.3764 1431 37.8286
29.4939 1387 37.2424
29.6113 1394 37.3363
29.7288 1339 36.5923
29.8463 1379 37.1349
29.9638 1315 36.2629
30.0812 1321 36.3456
30.1987 1208 34.7563
30.3162 1148 33.8821
30.4337 1277 35.7351
30.5512 1278 35.7491
30.6687 1332 36.4966
30.7862 1343 36.647
30.9037 1413 37.5899
31.0212 1413 37.5899
31.1387 1432 37.8418
31.2562 1428 37.7889
31.3737 1382 37.1753
31.4912 1481 38.4838
31.6087 1372 37.0405
31.7262 1425 37.7492
31.8436 1419 37.6696
31.9611 1408 37.5233
32.0785 1382 37.1753
32.1959 1314 36.2491
32.3134 1325 36.4005
32.4308 1347 36.7015
32.5482 1372 37.0405
32.6655 1327 36.428
32.7829 1270 35.6371
32.9002 1304 36.1109
33.0176 1420 37.6829
33.1349 1362 36.9053
33.2522 1392 37.3095
33.3694 1383 37.1887
33.4867 1354 36.7967
33.6039 1313 36.2353
33.7211 1216 34.8712
33.8383 1211 34.7994
33.9554 1133 33.6601
34.0725 1113 33.3617
34.1896 1176 34.2929
34.3067 1228 35.0428
34.4237 1333 36.5103
34.5407 1357 36.8375
34.6577 1348 36.7151
34.7746 1377 37.108
34.8915 1373 37.054
35.0084 1362 36.9053
35.1252 1427 37.7757
35.242 1314 36.2491
35.3587 1374 37.0675
35.4755 1340 36.606
35.5921 1343 36.647
35.7088 1297 36.0139
35.8254 1248 35.327
35.9419 1200 34.641
36.0584 1261 35.5106
36.1749 1354 36.7967
36.2913 1275 35.7071
36.4077 1227 35.0286
36.524 1280 35.7771
36.6403 1327 36.428
36.7565 1313 36.2353
36.8727 1301 36.0694
36.9889 1247 35.3129
37.1049 1315 36.2629
37.221 0 1
37.3369 0 1
37.4529 0 1
37.5687 0 1
37.6845 0 1
37.8003 0 1
37.916 0 1
38.0316 0 1
38.1472 0 1
40.5851 0 1
40.7008 0 1
40.8164 0 1
40.9322 0 1
41.048 0 1
41.1639 0 1
41.2798 0 1
41.3958 0 1
41.5118 0 1
41.6279 0 1
41.744 981 31.3209
41.8602 972 31.1769
41.9765 986 31.4006
42.0928 1055 32.4808
42.2091 1030 32.0936
42.3255 1038 32.218
42.4419 1026 32.0312
42.5584 955 30.9031
42.675 863 29.3769
42.7915 791 28.1247
42.9081 862 29.3598
43.0248 924 30.3974
43.1415 935 30.5778
43.2582 972 31.1769
43.375 981 31.3209
43.4918 1011 31.7962
43.6087 1074 32.7719
43.7256 992 31.496
43.8425 989 31.4484
43.9595 967 31.0966
44.0765 970 31.1448
44.1935 939 30.6431
44.3106 917 30.282
44.4277 881 29.6816
44.5448 825 28.7228
44.6619 847 29.1033
44.7791 801 28.3019
44.8963 736 27.1293
45.0136 762 27.6043
45.1308 773 27.8029
45.2481 741 27.2213
45.3654 766 27.6767
45.4827 748 27.3496
45.6001 828 28.775
45.7174 828 28.775
45.8348 837 28.931
45.9522 791 28.1247
46.0697 640 25.2982
46.1871 630 25.0998
46.3046 566 23.7908
46.422 611 24.7184
46.5395 651 25.5147
46.657 661 25.7099
46.7745 668 25.8457
46.892 731 27.037
47.0096 665 25.7876
47.1271 703 26.5141
47.2446 721 26.8514
47.3622 724 26.9072
47.4797 737 27.1477
47.5973 651 25.5147
47.7149 693 26.3249
47.8324 636 25.219
47.95 646 25.4165
48.0675 570 23.8747
48.1851 538 23.1948
48.3027 555 23.5584
48.4202 569 23.8537
48.5378 545 23.3452
48.6554 529 23
48.7729 604 24.5764
48.8904 562 23.7065
49.008 578 24.0416
49.1255 581 24.1039
49.243 608 24.6577
49.3605 579 24.0624
49.478 560 23.6643
49.5955 505 22.4722
49.713 474 21.7715
49.8304 431 20.7605
49.9479 486 22.0454
50.0653 499 22.3383
50.1827 582 24.1247
50.3001 647 25.4362
50.4175 662 25.7294
50.5348 727 26.9629
50.6521 700 26.4575
50.7694 716 26.7582
50.8867 693 26.3249
51.004 732 27.0555
51.1212 741 27.2213
51.2384 778 27.8927
51.3556 760 27.5681
51.4727 826 28.7402
51.5899 742 27.2397
51.707 738 27.1662
51.824 786 28.0357
51.9411 751 27.4044
52.0581 753 27.4408
52.175 813 28.5132
52.2919 843 29.0345
52.4088 871 29.5127
52.5257 873 29.5466
52.6425 894 29.8998
52.7593 910 30.1662
52.876 887 29.7825
52.9927 922 30.3645
53.1094 823 28.688
53.226 804 28.3549
53.3426 743 27.258
53.4591 746 27.313
53.5756 789 28.0891
53.692 856 29.2575
53.8084 989 31.4484
53.9248 1040 32.249
54.0411 1067 32.665
54.1573 1142 33.7935
54.2735 0 1
54.3896 0 1
54.5057 0 1
54.6217 0 1
54.7377 0 1
54.8537 0 1
54.9695 0 1
55.0853 0 1
55.2011 0 1
55.3168 0 1
55.4324 0 1
57.824 0 1
57.9396 0 1
58.0553 0 1
58.1711 0 1
58.2869 0 1
58.4028 0 1
58.5187 0 1
58.6347 0 1
58.7508 0 1
58.8669 0 1
58.983 1150 33.9116
59.0992 1271 35.6511
59.2155 1272 35.6651
59.3318 1318 36.3043
59.4482 1367 36.973
59.5646 1298 36.0278
59.681 1384 37.2022
59.7975 1314 36.2491
59.9141 1260 35.4965
60.0306 1263 35.5387
60.1473 1260 35.4965
60.2639 1216 34.8712
60.3807 1066 32.6497
60.4974 1104 33.2265
60.6142 1066 32.6497
60.731 1102 33.1964
60.8479 1051 32.4191
60.9648 1052 32.4345
61.0818 1100 33.1662
61.1987 1096 33.1059
61.3158 1185 34.4238
61.4328 1054 32.4654
61.5499 1010 31.7805
61.667 986 31.4006
61.7841 895 29.9166
61.9013 840 28.9828
62.0185 835 28.8964
62.1357 875 29.5804
62.253 989 31.4484
62.3702 1121 33.4813
62.4875 1118 33.4365
62.6049 1188 34.4674
62.7222 1292 35.9444
62.8396 1321 36.3456
62.9569 1309 36.1801
63.0743 1323 36.3731
63.1918 1265 35.5668
63.3092 1286 35.8608
63.4267 1262 35.5246
63.5441 1256 35.4401
63.6616 1231 35.0856
63.7791 1145 33.8378
63.8966 1152 33.9411
64.0142 1144 33.8231
64.1317 1066 32.6497
64.2492 1067 32.665
64.3668 1137 33.7194
64.4843 1100 33.1662
64.6019 1140 33.7639
64.7195 1172 34.2345
64.837 1168 34.176
64.9546 1203 34.6843
65.0722 1194 34.5543
65.1898 1124 33.5261
65.3074 975 31.225
65.4249 838 28.9482
65.5425 848 29.1204
65.6601 868 29.4618
65.7777 945 30.7409
65.8952 1081 32.8786
66.0128 1226 35.0143
66.1304 1283 35.819
66.2479 1346 36.6879
66.3655 1319 36.318
66.483 1285 35.8469
66.6005 1330 36.4692
66.718 1328 36.4417
66.8355 1286 35.8608
66.953 1285 35.8469
67.0705 1270 35.6371
67.1879 1231 35.0856
67.3054 1171 34.2199
67.4228 1124 33.5261
67.5402 1056 32.4962
67.6576 1064 32.619
67.7749 1080 32.8634
67.8923 1029 32.078
68.0096 1032 32.1248
68.1269 1111 33.3317
68.2442 1131 33.6303
68.3614 1153 33.9559
68.4787 1125 33.541
68.5958 1034 32.1559
68.713 1057 32.5115
68.8302 1034 32.1559
68.9473 931 30.5123
69.0643 822 28.6705
69.1814 763 27.6225
69.2984 806 28.3901
69.4154 902 30.0333
69.5323 1086 32.9545
69.6492 1158 34.0294
69.7661 1188 34.4674
69.8829 1221 34.9428
69.9997 1294 35.9722
70.1165 1329 36.4555
70.2332 1326 36.4143
70.3499 1310 36.1939
70.4665 1211 34.7994
70.5831 1222 34.9571
70.6996 1184 34.4093
70.8161 1153 33.9559
70.9326 1095 33.0908
71.049 1068 32.6803
71.1653 1019 31.9218
71.2817 1047 32.3574
71.3979 956 30.9192
71.5141 964 31.0483
71.6303 945 30.7409
71.7464 909 30.1496
71.8624 0 1
71.9784 0 1
72.0944 0 1
72.2102 0 1
72.3261 0 1
72.4418 0 1
72.5575 0 1
72.6732 0 1
75.1054 0 1
75.2209 0 1
75.3365 0 1
75.4521 0 1
75.5678 0 1
75.6835 0 1
75.7993 0 1
75.9151 0 1
76.031 0 1
76.147 1084 32.9242
76.263 1068 32.6803
76.3791 1097 33.121
76.4952 1079 32.8481
76.6113 1030 32.0936
76.7276 1015 31.8591
76.8438 1054 32.4654
76.9601 993 31.5119
77.0765 1044 32.311
77.1929 1084 32.9242
77.3093 1097 33.121
77.4258 1134 33.6749
77.5423 1010 31.7805
77.6589 1076 32.8024
77.7755 1053 32.45
77.8921 873 29.5466
78.0088 764 27.6405
78.1256 743 27.258
78.2423 659 25.671
78.3591 793 28.1603
78.4759 869 29.4788
78.5928 1022 31.9687
78.7097 1069 32.6956
78.8266 1054 32.4654
78.9436 1228 35.0428
79.0606 1212 34.8138
79.1776 1180 34.3511
79.2946 1214 34.8425
79.4117 1166 34.1467
79.5288 1125 33.541
79.6459 1208 34.7563
79.7631 1143 33.8083
79.8802 1047 32.3574
79.9974 1048 32.3728
80.1147 973 31.1929
80.2319 923 30.3809
80.3491 904 30.0666
80.4664 923 30.3809
80.5837 951 30.8383
80.701 914 30.2324
80.8183 976 31.241
80.9357 1001 31.6386
81.053 963 31.0322
81.1704 999 31.607
81.2877 893 29.8831
81.4051 955 30.9031
81.5225 792 28.1425
81.6399 712 26.6833
81.7573 666 25.807
81.8747 599 24.4745
81.9922 668 25.8457
82.1096 787 28.0535
82.227 868 29.4618
82.3444 1025 32.0156
82.4619 1005 31.7017
82.5793 1027 32.0468
82.6967 1057 32.5115
82.8142 1039 32.2335
82.9316 1047 32.3574
83.049 972 31.1769
83.1664 1059 32.5423
83.2838 1020 31.9374
83.4012 897 29.95
83.5186 874 29.5635
83.636 858 29.2916
83.7534 788 28.0713
83.8708 764 27.6405
83.9881 715 26.7395
84.1055 749 27.3679
84.2228 785 28.0179
84.3401 805 28.3725
84.4575 843 29.0345
84.5747 865 29.4109
84.692 905 30.0832
84.8093 875 29.5804
84.9265 863 29.3769
85.0437 756 27.4955
85.1609 698 26.4197
85.2781 619 24.8797
85.3952 579 24.0624
85.5123 605 24.5967
85.6294 672 25.923
85.7465 822 28.6705
85.8636 932 30.5287
85.9806 946 30.7571
86.0976 1096 33.1059
86.2145 1148 33.8821
86.3315 1163 34.1028
86.4484 1104 33.2265
86.5652 1207 34.7419
86.682 1123 33.5112
86.7988 1194 34.5543
86.9156 1150 33.9116
87.0323 1030 32.0936
87.149 969 31.1288
87.2657 943 30.7083
87.3823 918 30.2985
87.4988 937 30.6105
87.6154 975 31.225
87.7318 933 30.545
87.8483 996 31.5595
87.9647 1039 32.2335
88.081 1066 32.6497
88.1973 1136 33.7046
88.3136 1084 32.9242
88.4298 1072 32.7414
88.546 998 31.5911
88.6621 907 30.1164
88.7781 791 28.1247
88.8942 0 1
89.0101 0 1
89.126 0 1
89.2419 0 1
89.3577 0 1
89.4734 0 1
89.5891 0 1
89.7047 0 1
89.8203 0 1
89.9358 0 1
92.3269 0 1
92.4424 0 1
92.558 0 1
92.6736 0 1
92.7893 0 1
92.905 0 1
93.0208 0 1
93.1366 0 1
93.2525 0 1
93.3685 0 1
93.4845 0 1
93.6005 1037 32.2025
93.7167 1092 33.0454
93.8328 1103 33.2114
93.949 1109 33.3017
94.0653 994 31.5278
94.1816 857 29.2746
94.2979 778 27.8927
94.4143 776 27.8568
94.5307 709 26.6271
94.6472 789 28.0891
94.7637 911 30.1828
94.8803 1005 31.7017
94.9969 1023 31.9844
95.1135 1226 35.0143
95.2302 1159 34.0441
95.3469 1285 35.8469
95.4637 1289 35.9026
95.5805 1316 36.2767
95.6973 1342 36.6333
95.8142 1355 36.8103
95.9311 1227 35.0286
96.048 1259 35.4824
96.1649 1192 34.5254
96.2819 1124 33.5261
96.3989 1083 32.909
96.516 972 31.1769
96.633 975 31.225
96.7501 961 31
96.8673 976 31.241
96.9844 1053 32.45
97.1016 1044 32.311
97.2188 1127 33.5708
97.336 1198 34.6121
97.4532 1112 33.3467
97.5704 1120 33.4664
97.6877 1062 32.5883
97.805 946 30.7571
97.9223 792 28.1425
98.0396 782 27.9643
98.1569 757 27.5136
98.2743 765 27.6586
98.3916 909 30.1496
98.509 1042 32.28
98.6264 1012 31.8119
98.7438 1188 34.4674
98.8612 1209 34.7707
98.9786 1278 35.7491
99.096 1271 35.6511
99.2134 1324 36.3868
99.3308 1323 36.3731
99.4482 1349 36.7287
99.5656 1306 36.1386
99.6831 1324 36.3868
99.8005 1175 34.2783
99.9179 1107 33.2716
100.035 1175 34.2783
100.153 1014 31.8434
100.27 1026 32.0312
100.388 1029 32.078
100.505 1021 31.9531
100.622 1122 33.4963
100.74 1203 34.6843
100.857 1177 34.3074
100.975 1203 34.6843
101.092 1208 34.7563
101.209 1181 34.3657
101.327 991 31.4802
101.444 936 30.5941
101.561 885 29.7489
101.679 845 29.0689
101.796 833 28.8617
101.913 889 29.8161
102.03 979 31.289
102.148 1158 34.0294
102.265 1156 34
102.382 1348 36.7151
102.499 1325 36.4005
102.616 1424 37.7359
102.733 1405 37.4833
102.851 1479 38.4578
102.968 1394 37.3363
103.085 1429 37.8021
103.202 1331 36.4829
103.319 1254 35.4119
103.436 1244 35.2704
103.552 1185 34.4238
103.669 1165 34.1321
103.786 1108 33.2866
103.903 1135 33.6898
104.02 1116 33.4066
104.137 1196 34.5832
104.253 1227 35.0286
104.37 1333 36.5103
104.487 1290 35.9166
104.603 1302 36.0832
104.72 1254 35.4119
104.836 1191 34.5109
104.953 1037 32.2025
105.069 921 30.348
105.186 942 30.692
105.302 932 30.5287
105.418 1074 32.7719
105.535 1203 34.6843
105.651 1299 36.0416
105.767 1464 38.2623
105.883 1549 39.3573
105.999 1527 39.0768
106.115 0 1
106.231 0 1
106.347 0 1
106.463 0 1
106.579 0 1
106.694 0 1
106.81 0 1
106.926 0 1
107.041 0 1
107.157 0 1
109.576 0 1
109.692 0 1
109.807 0 1
109.923 0 1
110.039 0 1
110.155 0 1
110.27 0 1
110.386 0 1
110.502 0 1
110.618 1097 33.121
110.735 1241 35.2278
110.851 1345 36.6742
110.967 1373 37.054
111.083 1392 37.3095
111.199 1463 38.2492
111.316 1437 37.9078
111.432 1455 38.1445
111.549 1527 39.0768
111.665 1355 36.8103
111.782 1301 36.0694
111.898 1365 36.9459
112.015 1241 35.2278
112.132 1210 34.7851
112.248 1156 34
112.365 1103 33.2114
112.482 1107 33.2716
112.599 1125 33.541
112.716 1185 34.4238
112.832 1195 34.5688
112.949 1230 35.0714
113.066 1208 34.7563
113.183 1224 34.9857
113.3 1146 33.8526
113.417 1039 32.2335
113.534 978 31.273
113.652 882 29.6985
113.769 873 29.5466
113.886 912 30.1993
114.003 953 30.8707
114.12 1110 33.3167
114.238 1181 34.3657
114.355 1169 34.1906
114.472 1323 36.3731
114.589 1389 37.2693
114.707 1294 35.9722
114.824 1399 37.4032
114.942 1389 37.2693
115.059 1436 37.8946
115.176 1398 37.3898
115.294 1355 36.8103
115.411 1279 35.7631
115.529 1284 35.8329
115.646 1223 34.9714
115.764 1169 34.1906
115.881 1109 33.3017
115.999 1123 33.5112
116.116 1188 34.4674
116.234 1192 34.5254
116.351 1204 34.6987
116.469 1247 35.3129
116.586 1245 35.2846
116.704 1297 36.0139
116.821 1212 34.8138
116.939 1167 34.1614
117.056 1115 33.3916
117.174 1001 31.6386
117.291 1024 32
117.409 1008 31.749
117.526 987 31.4166
117.644 1132 33.6452
117.761 1213 34.8281
117.879 1299 36.0416
117.996 1397 37.3765
118.114 1425 37.7492
118.231 1457 38.1707
118.349 1498 38.704
118.466 1469 38.3275
118.584 1512 38.8844
118.701 1474 38.3927
118.819 1482 38.4968
118.936 1427 37.7757
119.053 1371 37.027
119.171 1336 36.5513
119.288 1269 35.623
119.405 1249 35.3412
119.523 1211 34.7994
119.64 1187 34.4529
119.757 1236 35.1568
119.875 1312 36.2215
119.992 1225 35
120.109 1266 35.5809
120.226 1274 35.6931
120.343 1268 35.609
120.46 1215 34.8569
120.578 1139 33.7491
120.695 1168 34.176
120.812 1089 33
120.929 1020 31.9374
121.046 1040 32.249
121.163 1021 31.9531
121.279 1012 31.8119
121.396 1175 34.2783
121.513 1288 35.8887
121.63 1384 37.2022
121.747 1396 37.3631
121.863 1414 37.6032
121.98 1402 37.4433
122.097 1468 38.3145
122.213 1462 38.2361
122.33 1411 37.5633
122.446 1454 38.1314
122.563 1419 37.6696
122.679 1409 37.5366
122.795 1284 35.8329
122.912 1289 35.9026
123.028 1179 34.3366
123.144 1154 33.9706
123.26 1207 34.7419
123.377 0 1
123.493 0 1
123.609 0 1
123.725 0 1
123.84 0 1
123.956 0 1
124.072 0 1
124.188 0 1
124.303 0 1
124.419 0 1
126.852 0 1
126.968 0 1
127.083 0 1
127.199 0 1
127.315 0 1
127.431 0 1
127.547 0 1
127.663 0 1
127.779 0 1
127.895 0 1
128.011 0 1
128.127 0 1
128.243 0 1
128.359 1305 36.1248
128.476 1277 35.7351
128.592 1282 35.805
128.708 1363 36.9188
128.825 1284 35.8329
128.941 1359 36.8646
129.058 1402 37.4433
129.174 1366 36.9594
129.291 1338 36.5787
129.408 1337 36.565
129.524 1328 36.4417
129.641 1259 35.4824
129.758 1291 35.9305
129.875 1132 33.6452
129.992 1158 34.0294
130.108 1110 33.3167
130.225 1189 34.4819
130.342 1245 35.2846
130.459 1289 35.9026
130.576 1442 37.9737
130.693 1494 38.6523
130.81 1480 38.4708
130.928 1424 37.7359
131.045 1448 38.0526
131.162 1548 39.3446
131.279 1512 38.8844
131.396 1454 38.1314
131.513 1469 38.3275
131.631 1409 37.5366
131.748 1389 37.2693
131.865 1409 37.5366
131.983 1315 36.2629
132.1 1288 35.8887
132.217 1303 36.0971
132.335 1390 37.2827
132.452 1374 37.0675
132.57 1350 36.7423
132.687 1403 37.4566
132.804 1348 36.7151
132.922 1410 37.55
133.039 1362 36.9053
133.157 1347 36.7015
133.274 1275 35.7071
133.392 1189 34.4819
133.509 1143 33.8083
133.627 1114 33.3766
133.744 1161 34.0735
133.862 1205 34.7131
133.979 1276 35.7211
134.097 1308 36.1663
134.214 1379 37.1349
134.332 1499 38.7169
134.449 1444 38
134.567 1477 38.4318
134.684 1397 37.3765
134.802 1499 38.7169
134.919 1490 38.6005
135.037 1445 38.0132
135.154 1511 38.8716
135.272 1508 38.833
135.389 1332 36.4966
135.507 1326 36.4143
135.624 1262 35.5246
135.742 1271 35.6511
135.859 1283 35.819
135.977 1437 37.9078
136.094 1435 37.8814
136.211 1395 37.3497
136.329 1400 37.4166
136.446 1405 37.4833
136.564 1372 37.0405
136.681 1329 36.4555
136.798 1336 36.5513
136.915 1322 36.3593
137.033 1276 35.7211
137.15 1198 34.6121
137.267 1179 34.3366
137.384 1171 34.2199
137.502 1184 34.4093
137.619 1299 36.0416
137.736 1406 37.4967
137.853 1359 36.8646
137.97 1338 36.5787
138.087 1399 37.4032
138.204 1448 38.0526
138.321 1405 37.4833
138.438 1414 37.6032
138.555 1528 39.0896
138.672 1483 38.5097
138.788 1472 38.3667
138.905 1372 37.0405
139.022 1409 37.5366
139.139 1316 36.2767
139.255 1329 36.4555
139.372 1306 36.1386
139.488 1362 36.9053
139.605 1401 37.4299
139.721 1370 37.0135
139.838 1360 36.8782
139.954 1424 37.7359
140.071 1448 38.0526
140.187 1408 37.5233
140.303 1379 37.1349
140.419 1260 35.4965
140.535 1286 35.8608
140.652 1278 35.7491
140.768 0 1
140.884 0 1
141 0 1
141.115 0 1
141.231 0 1
141.347 0 1
141.463 0 1
141.578 0 1
141.694 0 1
144.104 0 1
144.219 0 1
144.335 0 1
144.45 0 1
144.566 0 1
144.682 0 1
144.798 0 1
144.914 0 1
145.03 0 1
145.146 971 31.1609
145.262 1082 32.8938
145.378 1061 32.573
145.494 1029 32.078
145.61 1077 32.8177
145.726 1059 32.5423
145.842 934 30.5614
145.959 959 30.9677
146.075 932 30.5287
146.192 925 30.4138
146.308 925 30.4138
146.425 935 30.5778
146.541 975 31.225
146.658 1029 32.078
146.774 1081 32.8786
146.891 1065 32.6343
147.008 1037 32.2025
147.125 1119 33.4515
147.241 1223 34.9714
147.358 1170 34.2053
147.475 1198 34.6121
147.592 1173 34.2491
147.709 1099 33.1512
147.826 1134 33.6749
147.943 1049 32.3883
148.06 1021 31.9531
148.177 1016 31.8748
148.294 1058 32.5269
148.411 1073 32.7567
148.528 1132 33.6452
148.645 1116 33.4066
148.762 1126 33.5559
148.88 1104 33.2265
148.997 1035 32.1714
149.114 1153 33.9559
149.231 1105 33.2415
149.349 1141 33.7787
149.466 1180 34.3511
149.583 1077 32.8177
149.701 1070 32.7109
149.818 1119 33.4515
149.935 1026 32.0312
150.053 977 31.257
150.17 944 30.7246
150.287 1003 31.6702
150.405 1015 31.8591
150.522 1044 32.311
150.64 1095 33.0908
150.757 1113 33.3617
150.875 1164 34.1174
150.992 1151 33.9264
151.11 1236 35.1568
151.227 1177 34.3074
151.344 1207 34.7419
151.462 1162 34.0881
151.579 1168 34.176
151.697 1124 33.5261
151.814 1116 33.4066
151.932 1110 33.3167
152.049 1078 32.8329
152.167 1086 32.9545
152.284 1187 34.4529
152.402 1078 32.8329
152.519 1139 33.7491
152.636 1176 34.2929
152.754 1151 33.9264
152.871 1140 33.7639
152.989 1167 34.1614
153.106 1108 33.2866
153.223 1164 34.1174
153.341 1119 33.4515
153.458 1081 32.8786
153.575 978 31.273
153.693 1007 31.7333
153.81 1052 32.4345
153.927 1047 32.3574
154.044 1150 33.9116
154.162 1209 34.7707
154.279 1207 34.7419
154.396 1265 35.5668
154.513 1299 36.0416
154.63 1307 36.1525
154.747 1274 35.6931
154.864 1389 37.2693
154.981 1412 37.5766
155.098 1383 37.1887
155.215 1295 35.9861
155.332 1249 35.3412
155.449 1175 34.2783
155.566 1225 35
155.683 1271 35.6511
155.8 1298 36.0278
155.917 1311 36.2077
156.033 1297 36.0139
156.15 0 1
156.267 0 1
156.383 0 1
156.5 0 1
156.617 0 1
156.733 0 1
156.85 0 1
156.966 0 1
157.082 0 1
157.199 0 1
157.315 0 1
157.431 0 1
157.547 0 1
157.664 0 1
157.78 0 1
157.896 0 1
158.012 0 1
158.128 0 1
158.244 0 1
158.359 0 1
158.475 0 1
158.591 0 1
158.706 0 1
