
6.15755 0 1
6.2731 0 1
6.3887 0 1
6.50437 0 1
6.62009 0 1
6.73587 0 1
6.8517 0 1
6.96759 0 1
7.08353 0 1
7.19952 0 1
7.31557 0 1
7.43166 0 1
7.54781 0 1
7.664 0 1
7.78024 0 1
7.89653 0 1
8.01286 0 1
8.12924 0 1
8.24567 0 1
8.36213 0 1
8.47864 0 1
8.59519 0 1
8.71178 0 1
8.82841 0 1
8.94508 0 1
9.06179 0 1
9.17853 0 1
9.29531 0 1
9.41212 0 1
9.52897 0 1
9.64584 0 1
9.76276 0 1
9.8797 0 1
9.99667 0 1
10.1137 0 1
10.2307 0 1
10.3478 0 1
10.4648 0 1
10.5819 0 1
10.6991 0 1
10.8162 0 1
10.9334 0 1
11.0506 0 1
11.1678 0 1
11.285 0 1
11.4023 0 1
11.5196 0 1
11.6369 0 1
11.7542 0 1
11.8715 0 1
11.9888 0 1
12.1062 0 1
12.2235 0 1
12.3409 0 1
12.4582 0 1
12.5756 0 1
12.693 0 1
12.8104 0 1
12.9278 0 1
13.0452 0 1
13.1626 0 1
13.28 0 1
13.3974 0 1
13.5149 0 1
13.6323 0 1
13.7497 0 1
13.8671 0 1
13.9845 0 1
14.1019 0 1
14.2193 0 1
14.3367 0 1
14.4541 0 1
14.5714 0 1
14.6888 0 1
14.8062 0 1
14.9235 0 1
15.0408 0 0
15.1581 0 0
15.2755 0 0
15.3927 0 0
15.51 0 0
15.6273 0 0
15.7445 0 0
15.8617 0 0
15.9789 0 0
16.0961 0 0
16.2132 0 0
16.3304 0 0
16.4475 0 0
16.5646 0 0
16.6816 0 0
16.7986 0 0
16.9156 0 0
17.0326 0 0
17.1496 0 0
17.2665 0 0
17.3833 0 0
17.5002 0 0
17.617 0 0
17.7338 0 0
17.8505 0 0
17.9672 0 0
18.0839 0 0
18.2005 0 0
18.3171 0 0
18.4337 0 0
18.5502 0 0
18.6666 0 0
18.7831 0 0
18.8994 0 0
19.0158 0 0
19.1321 0 0
19.2483 0 0
19.3645 0 0
19.4806 0 0
19.5967 0 0
19.7128 0 0
19.8288 0 0
19.9447 0 0
20.0606 0 1
20.1764 0 1
20.2922 0 1
20.4079 0 1
20.5236 0 1
20.6392 0 1
20.7548 0 1
20.8702 0 1
23.3078 0 1
23.4233 0 1
23.539 0 1
23.6547 0 1
23.7704 0 1
23.8862 0 1
24.0021 0 1
24.118 0 1
24.234 0 1
24.35 0 1
24.4661 661 25.7099
24.5822 643 25.3574
24.6984 649 25.4755
24.8146 661 25.7099
24.9309 681 26.096
25.0472 647 25.4362
25.1636 688 26.2298
25.28 704 26.533
25.3965 719 26.8142
25.513 740 27.2029
25.6296 724 26.9072
25.7462 733 27.074
25.8628 716 26.7582
25.9795 718 26.7955
26.0962 696 26.3818
26.213 791 28.1247
26.3298 740 27.2029
26.4466 742 27.2397
26.5635 715 26.7395
26.6804 706 26.5707
26.7973 669 25.865
26.9143 657 25.632
27.0313 577 24.0208
27.1483 651 25.5147
27.2653 670 25.8844
27.3824 676 26
27.4996 696 26.3818
27.6167 650 25.4951
27.7339 665 25.7876
27.8511 641 25.318
27.9683 630 25.0998
28.0855 631 25.1197
28.2028 602 24.5357
28.3201 603 24.5561
28.4374 605 24.5967
28.5547 629 25.0799
28.6721 713 26.7021
28.7894 671 25.9037
28.9068 688 26.2298
29.0242 704 26.533
29.1416 660 25.6905
29.259 691 26.2869
29.3764 686 26.1916
29.4939 648 25.4558
29.6113 658 25.6515
29.7288 669 25.865
29.8463 691 26.2869
29.9638 666 25.807
30.0812 679 26.0576
30.1987 676 26
30.3162 579 24.0624
30.4337 610 24.6982
30.5512 571 23.8956
30.6687 537 23.1733
30.7862 593 24.3516
30.9037 580 24.0832
31.0212 625 25
31.1387 644 25.3772
31.2562 618 24.8596
31.3737 592 24.3311
31.4912 591 24.3105
31.6087 604 24.5764
31.7262 590 24.2899
31.8436 674 25.9615
31.9611 597 24.4336
32.0785 646 25.4165
32.1959 661 25.7099
32.3134 674 25.9615
32.4308 676 26
32.5482 650 25.4951
32.6655 693 26.3249
32.7829 698 26.4197
32.9002 648 25.4558
33.0176 660 25.6905
33.1349 698 26.4197
33.2522 632 25.1396
33.3694 694 26.3439
33.4867 666 25.807
33.6039 634 25.1794
33.7211 686 26.1916
33.8383 667 25.8263
33.9554 645 25.3969
34.0725 594 24.3721
34.1896 581 24.1039
34.3067 507 22.5167
34.4237 547 23.388
34.5407 588 24.2487
34.6577 552 23.4947
34.7746 581 24.1039
34.8915 561 23.6854
35.0084 529 23
35.1252 554 23.5372
35.242 556 23.5797
35.3587 526 22.9347
35.4755 586 24.2074
35.5921 586 24.2074
35.7088 592 24.3311
35.8254 626 25.02
35.9419 623 24.96
36.0584 609 24.6779
36.1749 666 25.807
36.2913 609 24.6779
36.4077 645 25.3969
36.524 679 26.0576
36.6403 628 25.0599
36.7565 628 25.0599
36.8727 601 24.5153
36.9889 602 24.5357
37.1049 619 24.8797
37.221 0 1
37.3369 0 1
37.4529 0 1
37.5687 0 1
37.6845 0 1
37.8003 0 1
37.916 0 1
38.0316 0 1
38.1472 0 1
40.5851 0 1
40.7008 0 1
40.8164 0 1
40.9322 0 1
41.048 0 1
41.1639 0 1
41.2798 0 1
41.3958 0 1
41.5118 0 1
41.6279 0 1
41.744 507 22.5167
41.8602 522 22.8473
41.9765 521 22.8254
42.0928 564 23.7487
42.2091 553 23.516
42.3255 546 23.3666
42.4419 506 22.4944
42.5584 502 22.4054
42.675 517 22.7376
42.7915 531 23.0434
42.9081 455 21.3307
43.0248 490 22.1359
43.1415 474 21.7715
43.2582 458 21.4009
43.375 460 21.4476
43.4918 494 22.2261
43.6087 477 21.8403
43.7256 474 21.7715
43.8425 463 21.5174
43.9595 461 21.4709
44.0765 472 21.7256
44.1935 462 21.4942
44.3106 464 21.5407
44.4277 504 22.4499
44.5448 475 21.7945
44.6619 425 20.6155
44.7791 463 21.5174
44.8963 489 22.1133
45.0136 463 21.5174
45.1308 467 21.6102
45.2481 482 21.9545
45.3654 446 21.1187
45.4827 482 21.9545
45.6001 426 20.6398
45.7174 423 20.567
45.8348 437 20.9045
45.9522 425 20.6155
46.0697 428 20.6882
46.1871 418 20.445
46.3046 432 20.7846
46.422 401 20.025
46.5395 391 19.7737
46.657 405 20.1246
46.7745 363 19.0526
46.892 374 19.3391
47.0096 334 18.2757
47.1271 357 18.8944
47.2446 379 19.4679
47.3622 364 19.0788
47.4797 333 18.2483
47.5973 338 18.3848
47.7149 335 18.303
47.8324 331 18.1934
47.95 331 18.1934
48.0675 335 18.303
48.1851 335 18.303
48.3027 331 18.1934
48.4202 368 19.1833
48.5378 359 18.9473
48.6554 336 18.3303
48.7729 349 18.6815
48.8904 372 19.2873
49.008 332 18.2209
49.1255 338 18.3848
49.243 370 19.2354
49.3605 334 18.2757
49.478 353 18.7883
49.5955 378 19.4422
49.713 362 19.0263
49.8304 363 19.0526
49.9479 374 19.3391
50.0653 360 18.9737
50.1827 331 18.1934
50.3001 306 17.4929
50.4175 292 17.088
50.5348 301 17.3494
50.6521 362 19.0263
50.7694 343 18.5203
50.8867 345 18.5742
51.004 334 18.2757
51.1212 380 19.4936
51.2384 383 19.5704
51.3556 405 20.1246
51.4727 395 19.8746
51.5899 419 20.4695
51.707 407 20.1742
51.824 465 21.5639
51.9411 433 20.8087
52.0581 464 21.5407
52.175 436 20.8806
52.2919 412 20.2978
52.4088 495 22.2486
52.5257 455 21.3307
52.6425 437 20.9045
52.7593 479 21.8861
52.876 459 21.4243
52.9927 486 22.0454
53.1094 503 22.4277
53.226 513 22.6495
53.3426 506 22.4944
53.4591 454 21.3073
53.5756 440 20.9762
53.692 482 21.9545
53.8084 443 21.0476
53.9248 420 20.4939
54.0411 405 20.1246
54.1573 447 21.1424
54.2735 0 1
54.3896 0 1
54.5057 0 1
54.6217 0 1
54.7377 0 1
54.8537 0 1
54.9695 0 1
55.0853 0 1
55.2011 0 1
55.3168 0 1
55.4324 0 1
57.824 0 1
57.9396 0 1
58.0553 0 1
58.1711 0 1
58.2869 0 1
58.4028 0 1
58.5187 0 1
58.6347 0 1
58.7508 0 1
58.8669 0 1
58.983 502 22.4054
59.0992 485 22.0227
59.2155 452 21.2603
59.3318 471 21.7025
59.4482 487 22.0681
59.5646 500 22.3607
59.681 519 22.7816
59.7975 473 21.7486
59.9141 526 22.9347
60.0306 493 22.2036
60.1473 533 23.0868
60.2639 530 23.0217
60.3807 543 23.3024
60.4974 534 23.1084
60.6142 474 21.7715
60.731 517 22.7376
60.8479 506 22.4944
60.9648 546 23.3666
61.0818 508 22.5389
61.1987 493 22.2036
61.3158 506 22.4944
61.4328 517 22.7376
61.5499 475 21.7945
61.667 526 22.9347
61.7841 492 22.1811
61.9013 510 22.5832
62.0185 479 21.8861
62.1357 483 21.9773
62.253 492 22.1811
62.3702 420 20.4939
62.4875 420 20.4939
62.6049 426 20.6398
62.7222 441 21
62.8396 426 20.6398
62.9569 464 21.5407
63.0743 437 20.9045
63.1918 433 20.8087
63.3092 435 20.8567
63.4267 415 20.3715
63.5441 455 21.3307
63.6616 425 20.6155
63.7791 473 21.7486
63.8966 436 20.8806
64.0142 480 21.9089
64.1317 410 20.2485
64.2492 416 20.3961
64.3668 421 20.5183
64.4843 425 20.6155
64.6019 474 21.7715
64.7195 461 21.4709
64.837 417 20.4206
64.9546 416 20.3961
65.0722 428 20.6882
65.1898 429 20.7123
65.3074 420 20.4939
65.4249 440 20.9762
65.5425 396 19.8997
65.6601 418 20.445
65.7777 408 20.199
65.8952 413 20.3224
66.0128 431 20.7605
66.1304 413 20.3224
66.2479 348 18.6548
66.3655 364 19.0788
66.483 374 19.3391
66.6005 363 19.0526
66.718 364 19.0788
66.8355 391 19.7737
66.953 386 19.6469
67.0705 400 20
67.1879 392 19.799
67.3054 400 20
67.4228 383 19.5704
67.5402 407 20.1742
67.6576 414 20.347
67.7749 388 19.6977
67.8923 427 20.664
68.0096 414 20.347
68.1269 372 19.2873
68.2442 405 20.1246
68.3614 379 19.4679
68.4787 378 19.4422
68.5958 398 19.9499
68.713 401 20.025
68.8302 379 19.4679
68.9473 404 20.0998
69.0643 363 19.0526
69.1814 375 19.3649
69.2984 418 20.445
69.4154 411 20.2731
69.5323 432 20.7846
69.6492 384 19.5959
69.7661 347 18.6279
69.8829 389 19.7231
69.9997 365 19.105
70.1165 354 18.8149
70.2332 358 18.9209
70.3499 341 18.4662
70.4665 334 18.2757
70.5831 332 18.2209
70.6996 363 19.0526
70.8161 352 18.7617
70.9326 341 18.4662
71.049 343 18.5203
71.1653 339 18.412
71.2817 354 18.8149
71.3979 361 19
71.5141 330 18.1659
71.6303 322 17.9444
71.7464 297 17.2337
71.8624 0 1
71.9784 0 1
72.0944 0 1
72.2102 0 1
72.3261 0 1
72.4418 0 1
72.5575 0 1
72.6732 0 1
75.1054 0 1
75.2209 0 1
75.3365 0 1
75.4521 0 1
75.5678 0 1
75.6835 0 1
75.7993 0 1
75.9151 0 1
76.031 0 1
76.147 243 15.5885
76.263 302 17.3781
76.3791 282 16.7929
76.4952 260 16.1245
76.6113 281 16.7631
76.7276 270 16.4317
76.8438 286 16.9115
76.9601 259 16.0935
77.0765 289 17
77.1929 248 15.748
77.3093 285 16.8819
77.4258 226 15.0333
77.5423 259 16.0935
77.6589 232 15.2315
77.7755 240 15.4919
77.8921 258 16.0624
78.0088 246 15.6844
78.1256 251 15.843
78.2423 212 14.5602
78.3591 240 15.4919
78.4759 201 14.1774
78.5928 219 14.7986
78.7097 241 15.5242
78.8266 225 15
78.9436 195 13.9642
79.0606 200 14.1421
79.1776 164 12.8062
79.2946 163 12.7671
79.4117 199 14.1067
79.5288 182 13.4907
79.6459 217 14.7309
79.7631 176 13.2665
79.8802 183 13.5277
79.9974 165 12.8452
80.1147 181 13.4536
80.2319 179 13.3791
80.3491 165 12.8452
80.4664 162 12.7279
80.5837 156 12.49
80.701 164 12.8062
80.8183 128 11.3137
80.9357 185 13.6015
81.053 131 11.4455
81.1704 145 12.0416
81.2877 128 11.3137
81.4051 144 12
81.5225 133 11.5326
81.6399 109 10.4403
81.7573 124 11.1355
81.8747 119 10.9087
81.9922 111 10.5357
82.1096 104 10.198
82.227 104 10.198
82.3444 114 10.6771
82.4619 102 10.0995
82.5793 82 9.05539
82.6967 85 9.21954
82.8142 91 9.53939
82.9316 82 9.05539
83.049 82 9.05539
83.1664 86 9.27362
83.2838 90 9.48683
83.4012 77 8.77496
83.5186 80 8.94427
83.636 67 8.18535
83.7534 73 8.544
83.8708 48 6.9282
83.9881 52 7.2111
84.1055 50 7.07107
84.2228 45 6.7082
84.3401 51 7.14143
84.4575 56 7.48331
84.5747 45 6.7082
84.692 49 7
84.8093 39 6.245
84.9265 50 7.07107
85.0437 41 6.40312
85.1609 46 6.78233
85.2781 33 5.74456
85.3952 44 6.63325
85.5123 40 6.32456
85.6294 47 6.85565
85.7465 47 6.85565
85.8636 39 6.245
85.9806 48 6.9282
86.0976 30 5.47723
86.2145 31 5.56776
86.3315 39 6.245
86.4484 61 7.81025
86.5652 52 7.2111
86.682 59 7.68115
86.7988 68 8.24621
86.9156 49 7
87.0323 68 8.24621
87.149 72 8.48528
87.2657 72 8.48528
87.3823 76 8.7178
87.4988 81 9
87.6154 93 9.64365
87.7318 76 8.7178
87.8483 81 9
87.9647 87 9.32738
88.081 90 9.48683
88.1973 108 10.3923
88.3136 107 10.3441
88.4298 117 10.8167
88.546 120 10.9545
88.6621 114 10.6771
88.7781 109 10.4403
88.8942 0 1
89.0101 0 1
89.126 0 1
89.2419 0 1
89.3577 0 1
89.4734 0 1
89.5891 0 1
89.7047 0 1
89.8203 0 1
89.9358 0 1
92.3269 0 1
92.4424 0 1
92.558 0 1
92.6736 0 1
92.7893 0 1
92.905 0 1
93.0208 0 1
93.1366 0 1
93.2525 0 1
93.3685 0 1
93.4845 0 1
93.6005 224 14.9666
93.7167 206 14.3527
93.8328 217 14.7309
93.949 198 14.0712
94.0653 176 13.2665
94.1816 158 12.5698
94.2979 182 13.4907
94.4143 174 13.1909
94.5307 162 12.7279
94.6472 173 13.1529
94.7637 151 12.2882
94.8803 151 12.2882
94.9969 168 12.9615
95.1135 150 12.2474
95.2302 140 11.8322
95.3469 115 10.7238
95.4637 103 10.1489
95.5805 106 10.2956
95.6973 135 11.619
95.8142 167 12.9228
95.9311 158 12.5698
96.048 143 11.9583
96.1649 158 12.5698
96.2819 188 13.7113
96.3989 183 13.5277
96.516 209 14.4568
96.633 184 13.5647
96.7501 223 14.9332
96.8673 201 14.1774
96.9844 230 15.1658
97.1016 226 15.0333
97.2188 228 15.0997
97.336 245 15.6525
97.4532 241 15.5242
97.5704 235 15.3297
97.6877 241 15.5242
97.805 257 16.0312
97.9223 259 16.0935
98.0396 277 16.6433
98.1569 260 16.1245
98.2743 263 16.2173
98.3916 255 15.9687
98.509 269 16.4012
98.6264 305 17.4642
98.7438 278 16.6733
98.8612 295 17.1756
98.9786 249 15.7797
99.096 217 14.7309
99.2134 191 13.8203
99.3308 252 15.8745
99.4482 300 17.3205
99.5656 341 18.4662
99.6831 322 17.9444
99.8005 327 18.0831
99.9179 348 18.6548
100.035 347 18.6279
100.153 360 18.9737
100.27 381 19.5192
100.388 366 19.1311
100.505 354 18.8149
100.622 378 19.4422
100.74 383 19.5704
100.857 367 19.1572
100.975 404 20.0998
101.092 395 19.8746
101.209 413 20.3224
101.327 419 20.4695
101.444 391 19.7737
101.561 385 19.6214
101.679 422 20.5426
101.796 395 19.8746
101.913 411 20.2731
102.03 412 20.2978
102.148 400 20
102.265 407 20.1742
102.382 422 20.5426
102.499 375 19.3649
102.616 306 17.4929
102.733 262 16.1864
102.851 365 19.105
102.968 401 20.025
103.085 409 20.2237
103.202 454 21.3073
103.319 444 21.0713
103.436 440 20.9762
103.552 453 21.2838
103.669 405 20.1246
103.786 386 19.6469
103.903 429 20.7123
104.02 439 20.9523
104.137 426 20.6398
104.253 446 21.1187
104.37 404 20.0998
104.487 452 21.2603
104.603 460 21.4476
104.72 412 20.2978
104.836 448 21.166
104.953 454 21.3073
105.069 435 20.8567
105.186 453 21.2838
105.302 434 20.8327
105.418 461 21.4709
105.535 411 20.2731
105.651 434 20.8327
105.767 419 20.4695
105.883 403 20.0749
105.999 354 18.8149
106.115 0 1
106.231 0 1
106.347 0 1
106.463 0 1
106.579 0 1
106.694 0 1
106.81 0 1
106.926 0 1
107.041 0 1
107.157 0 1
109.576 0 1
109.692 0 1
109.807 0 1
109.923 0 1
110.039 0 1
110.155 0 1
110.27 0 1
110.386 0 1
110.502 0 1
110.618 321 17.9165
110.735 340 18.4391
110.851 332 18.2209
110.967 343 18.5203
111.083 325 18.0278
111.199 247 15.7162
111.316 262 16.1864
111.432 277 16.6433
111.549 347 18.6279
111.665 344 18.5472
111.782 287 16.9411
111.898 310 17.6068
112.015 317 17.8045
112.132 288 16.9706
112.248 307 17.5214
112.365 311 17.6352
112.482 268 16.3707
112.599 287 16.9411
112.716 296 17.2047
112.832 292 17.088
112.949 287 16.9411
113.066 277 16.6433
113.183 258 16.0624
113.3 250 15.8114
113.417 293 17.1172
113.534 271 16.4621
113.652 271 16.4621
113.769 237 15.3948
113.886 227 15.0665
114.003 221 14.8661
114.12 235 15.3297
114.238 277 16.6433
114.355 232 15.2315
114.472 247 15.7162
114.589 252 15.8745
114.707 237 15.3948
114.824 196 14
114.942 202 14.2127
115.059 209 14.4568
115.176 238 15.4272
115.294 246 15.6844
115.411 233 15.2643
115.529 256 16
115.646 247 15.7162
115.764 244 15.6205
115.881 212 14.5602
115.999 250 15.8114
116.116 217 14.7309
116.234 229 15.1327
116.351 241 15.5242
116.469 213 14.5945
116.586 229 15.1327
116.704 225 15
116.821 224 14.9666
116.939 228 15.0997
117.056 245 15.6525
117.174 224 14.9666
117.291 229 15.1327
117.409 230 15.1658
117.526 226 15.0333
117.644 231 15.1987
117.761 241 15.5242
117.879 190 13.784
117.996 202 14.2127
118.114 197 14.0357
118.231 185 13.6015
118.349 233 15.2643
118.466 209 14.4568
118.584 204 14.2829
118.701 219 14.7986
118.819 218 14.7648
118.936 225 15
119.053 248 15.748
119.171 226 15.0333
119.288 244 15.6205
119.405 233 15.2643
119.523 215 14.6629
119.64 234 15.2971
119.757 241 15.5242
119.875 233 15.2643
119.992 240 15.4919
120.109 227 15.0665
120.226 237 15.3948
120.343 257 16.0312
120.46 243 15.5885
120.578 244 15.6205
120.695 254 15.9374
120.812 244 15.6205
120.929 246 15.6844
121.046 236 15.3623
121.163 269 16.4012
121.279 262 16.1864
121.396 227 15.0665
121.513 208 14.4222
121.63 210 14.4914
121.747 176 13.2665
121.863 164 12.8062
121.98 201 14.1774
122.097 218 14.7648
122.213 219 14.7986
122.33 228 15.0997
122.446 239 15.4596
122.563 251 15.843
122.679 267 16.3401
122.795 243 15.5885
122.912 239 15.4596
123.028 270 16.4317
123.144 265 16.2788
123.26 253 15.906
123.377 0 1
123.493 0 1
123.609 0 1
123.725 0 1
123.84 0 1
123.956 0 1
124.072 0 1
124.188 0 1
124.303 0 1
124.419 0 1
126.852 0 1
126.968 0 1
127.083 0 1
127.199 0 1
127.315 0 1
127.431 0 1
127.547 0 1
127.663 0 1
127.779 0 1
127.895 0 1
128.011 0 1
128.127 0 1
128.243 0 1
128.359 348 18.6548
128.476 320 17.8885
128.592 305 17.4642
128.708 284 16.8523
128.825 354 18.8149
128.941 374 19.3391
129.058 364 19.0788
129.174 320 17.8885
129.291 343 18.5203
129.408 354 18.8149
129.524 362 19.0263
129.641 329 18.1384
129.758 330 18.1659
129.875 358 18.9209
129.992 343 18.5203
130.108 302 17.3781
130.225 344 18.5472
130.342 304 17.4356
130.459 264 16.2481
130.576 247 15.7162
130.693 258 16.0624
130.81 216 14.6969
130.928 234 15.2971
131.045 277 16.6433
131.162 360 18.9737
131.279 329 18.1384
131.396 368 19.1833
131.513 331 18.1934
131.631 318 17.8326
131.748 351 18.735
131.865 309 17.5784
131.983 348 18.6548
132.1 368 19.1833
132.217 337 18.3576
132.335 333 18.2483
132.452 318 17.8326
132.57 388 19.6977
132.687 332 18.2209
132.804 398 19.9499
132.922 373 19.3132
133.039 390 19.7484
133.157 348 18.6548
133.274 339 18.412
133.392 359 18.9473
133.509 361 19
133.627 398 19.9499
133.744 322 17.9444
133.862 335 18.303
133.979 330 18.1659
134.097 282 16.7929
134.214 289 17
134.332 246 15.6844
134.449 253 15.906
134.567 270 16.4317
134.684 321 17.9165
134.802 377 19.4165
134.919 392 19.799
135.037 334 18.2757
135.154 415 20.3715
135.272 367 19.1572
135.389 408 20.199
135.507 386 19.6469
135.624 431 20.7605
135.742 400 20
135.859 389 19.7231
135.977 392 19.799
136.094 392 19.799
136.211 400 20
136.329 431 20.7605
136.446 409 20.2237
136.564 385 19.6214
136.681 420 20.4939
136.798 389 19.7231
136.915 414 20.347
137.033 398 19.9499
137.15 413 20.3224
137.267 407 20.1742
137.384 405 20.1246
137.502 405 20.1246
137.619 373 19.3132
137.736 322 17.9444
137.853 321 17.9165
137.97 304 17.4356
138.087 309 17.5784
138.204 358 18.9209
138.321 332 18.2209
138.438 392 19.799
138.555 414 20.347
138.672 412 20.2978
138.788 424 20.5913
138.905 404 20.0998
139.022 437 20.9045
139.139 459 21.4243
139.255 469 21.6564
139.372 431 20.7605
139.488 479 21.8861
139.605 445 21.095
139.721 438 20.9284
139.838 459 21.4243
139.954 443 21.0476
140.071 447 21.1424
140.187 451 21.2368
140.303 440 20.9762
140.419 476 21.8174
140.535 445 21.095
140.652 473 21.7486
140.768 0 1
140.884 0 1
141 0 1
141.115 0 1
141.231 0 1
141.347 0 1
141.463 0 1
141.578 0 1
141.694 0 1
144.104 0 1
144.219 0 1
144.335 0 1
144.45 0 1
144.566 0 1
144.682 0 1
144.798 0 1
144.914 0 1
145.03 0 1
145.146 418 20.445
145.262 407 20.1742
145.378 422 20.5426
145.494 434 20.8327
145.61 421 20.5183
145.726 414 20.347
145.842 427 20.664
145.959 359 18.9473
146.075 400 20
146.192 351 18.735
146.308 323 17.9722
146.425 327 18.0831
146.541 337 18.3576
146.658 350 18.7083
146.774 314 17.72
146.891 338 18.3848
147.008 388 19.6977
147.125 357 18.8944
147.241 409 20.2237
147.358 454 21.3073
147.475 430 20.7364
147.592 393 19.8242
147.709 425 20.6155
147.826 444 21.0713
147.943 433 20.8087
148.06 404 20.0998
148.177 429 20.7123
148.294 409 20.2237
148.411 430 20.7364
148.528 435 20.8567
148.645 433 20.8087
148.762 414 20.347
148.88 399 19.975
148.997 406 20.1494
149.114 425 20.6155
149.231 410 20.2485
149.349 421 20.5183
149.466 407 20.1742
149.583 431 20.7605
149.701 381 19.5192
149.818 335 18.303
149.935 319 17.8606
150.053 311 17.6352
150.17 334 18.2757
150.287 319 17.8606
150.405 336 18.3303
150.522 376 19.3907
150.64 406 20.1494
150.757 376 19.3907
150.875 415 20.3715
150.992 441 21
151.11 395 19.8746
151.227 390 19.7484
151.344 416 20.3961
151.462 427 20.664
151.579 401 20.025
151.697 413 20.3224
151.814 446 21.1187
151.932 422 20.5426
152.049 413 20.3224
152.167 448 21.166
152.284 443 21.0476
152.402 434 20.8327
152.519 431 20.7605
152.636 451 21.2368
152.754 368 19.1833
152.871 400 20
152.989 413 20.3224
153.106 432 20.7846
153.223 395 19.8746
153.341 369 19.2094
153.458 394 19.8494
153.575 365 19.105
153.693 364 19.0788
153.81 330 18.1659
153.927 348 18.6548
154.044 376 19.3907
154.162 365 19.105
154.279 424 20.5913
154.396 395 19.8746
154.513 426 20.6398
154.63 407 20.1742
154.747 403 20.0749
154.864 425 20.6155
154.981 454 21.3073
155.098 461 21.4709
155.215 465 21.5639
155.332 460 21.4476
155.449 454 21.3073
155.566 419 20.4695
155.683 471 21.7025
155.8 483 21.9773
155.917 420 20.4939
156.033 495 22.2486
156.15 0 1
156.267 0 1
156.383 0 1
156.5 0 1
156.617 0 1
156.733 0 1
156.85 0 1
156.966 0 1
157.082 0 1
157.199 0 1
157.315 0 1
157.431 0 1
157.547 0 1
157.664 0 1
157.78 0 1
157.896 0 1
158.012 0 1
158.128 0 1
158.244 0 1
158.359 0 1
158.475 0 1
158.591 0 1
158.706 0 1
