
6.15755 0 1
6.2731 0 1
6.3887 0 1
6.50437 0 1
6.62009 0 1
6.73587 0 1
6.8517 0 1
6.96759 0 1
7.08353 0 1
7.19952 0 1
7.31557 0 1
7.43166 0 1
7.54781 0 1
7.664 0 1
7.78024 0 1
7.89653 0 1
8.01286 0 1
8.12924 0 1
8.24567 0 1
8.36213 0 1
8.47864 0 1
8.59519 0 1
8.71178 0 1
8.82841 0 1
8.94508 0 1
9.06179 0 1
9.17853 0 1
9.29531 0 1
9.41212 0 1
9.52897 0 1
9.64584 0 1
9.76276 0 1
9.8797 0 1
9.99667 0 1
10.1137 0 1
10.2307 0 1
10.3478 0 1
10.4648 0 1
10.5819 0 1
10.6991 0 1
10.8162 0 1
10.9334 0 1
11.0506 0 1
11.1678 0 1
11.285 0 1
11.4023 0 1
11.5196 0 1
11.6369 0 1
11.7542 0 1
11.8715 0 1
11.9888 0 1
12.1062 0 1
12.2235 0 1
12.3409 0 1
12.4582 0 1
12.5756 0 1
12.693 0 1
12.8104 0 1
12.9278 0 1
13.0452 0 1
13.1626 0 1
13.28 0 1
13.3974 0 1
13.5149 0 1
13.6323 0 1
13.7497 0 1
13.8671 0 1
13.9845 0 1
14.1019 0 1
14.2193 0 1
14.3367 0 1
14.4541 0 1
14.5714 0 1
14.6888 0 1
14.8062 0 1
14.9235 0 1
15.0408 1750 41.833
15.1581 1870 43.2435
15.2755 1866 43.1972
15.3927 1934 43.9773
15.51 1952 44.1814
15.6273 1965 44.3283
15.7445 1897 43.5546
15.8617 1949 44.1475
15.9789 1980 44.4972
16.0961 1864 43.1741
16.2132 1821 42.6732
16.3304 1953 44.1928
16.4475 1977 44.4635
16.5646 2047 45.2438
16.6816 2142 46.2817
16.7986 2241 47.3392
16.9156 2280 47.7493
17.0326 2225 47.1699
17.1496 2302 47.9792
17.2665 2219 47.1063
17.3833 2336 48.3322
17.5002 2242 47.3498
17.617 2083 45.6399
17.7338 1989 44.5982
17.8505 1978 44.4747
17.9672 2000 44.7214
18.0839 1978 44.4747
18.2005 2084 45.6508
18.3171 2084 45.6508
18.4337 2032 45.0777
18.5502 2175 46.6369
18.6666 2270 47.6445
18.7831 2284 47.7912
18.8994 2200 46.9042
19.0158 2211 47.0213
19.1321 2155 46.422
19.2483 2152 46.3897
19.3645 1979 44.486
19.4806 1856 43.0813
19.5967 1759 41.9404
19.7128 1623 40.2865
19.8288 1448 38.0526
19.9447 1360 36.8782
20.0606 0 1
20.1764 0 1
20.2922 0 1
20.4079 0 1
20.5236 0 1
20.6392 0 1
20.7548 0 1
20.8702 0 1
23.3078 0 1
23.4233 0 1
23.539 0 1
23.6547 0 1
23.7704 0 1
23.8862 0 1
24.0021 0 1
24.118 0 1
24.234 0 1
24.35 0 1
24.4661 935 30.5778
24.5822 1068 32.6803
24.6984 1291 35.9305
24.8146 1385 37.2156
24.9309 1435 37.8814
25.0472 1632 40.398
25.1636 1797 42.391
25.28 1964 44.317
25.3965 2112 45.9565
25.513 2215 47.0638
25.6296 2313 48.0937
25.7462 2309 48.0521
25.8628 2428 49.2747
25.9795 2348 48.4562
26.0962 2396 48.949
26.213 2326 48.2286
26.3298 2108 45.913
26.4466 2111 45.9456
26.5635 2067 45.4643
26.6804 2077 45.5741
26.7973 2131 46.1628
26.9143 2067 45.4643
27.0313 2117 46.0109
27.1483 2188 46.7761
27.2653 2243 47.3603
27.3824 2283 47.7807
27.4996 2293 47.8853
27.6167 2365 48.6313
27.7339 2195 46.8508
27.8511 2205 46.9574
27.9683 2169 46.5725
28.0855 2075 45.5522
28.2028 2065 45.4423
28.3201 1913 43.7379
28.4374 1979 44.486
28.5547 1958 44.2493
28.6721 2039 45.1553
28.7894 2187 46.7654
28.9068 2190 46.7974
29.0242 2335 48.3218
29.1416 2387 48.8569
29.259 2294 47.8957
29.3764 2344 48.4149
29.4939 2376 48.7442
29.6113 2265 47.592
29.7288 2257 47.5079
29.8463 2020 44.9444
29.9638 1941 44.0568
30.0812 1902 43.6119
30.1987 2002 44.7437
30.3162 1995 44.6654
30.4337 2025 45
30.5512 2113 45.9674
30.6687 2173 46.6154
30.7862 2189 46.7868
30.9037 2251 47.4447
31.0212 2291 47.8644
31.1387 2161 46.4866
31.2562 2147 46.3357
31.3737 2113 45.9674
31.4912 2105 45.8803
31.6087 2092 45.7384
31.7262 1963 44.3058
31.8436 1938 44.0227
31.9611 1859 43.1161
32.0785 1947 44.1248
32.1959 1943 44.0795
32.3134 1986 44.5646
32.4308 2166 46.5403
32.5482 2189 46.7868
32.6655 2171 46.594
32.7829 2267 47.613
32.9002 2369 48.6724
33.0176 2290 47.8539
33.1349 2248 47.4131
33.2522 2147 46.3357
33.3694 2158 46.4543
33.4867 1969 44.3734
33.6039 1944 44.0908
33.7211 1861 43.1393
33.8383 1807 42.5088
33.9554 1904 43.6348
34.0725 2037 45.1331
34.1896 1925 43.8748
34.3067 2085 45.6618
34.4237 2038 45.1442
34.5407 2124 46.0869
34.6577 2075 45.5522
34.7746 2112 45.9565
34.8915 2201 46.9148
35.0084 2146 46.3249
35.1252 1981 44.5084
35.242 2003 44.7549
35.3587 1833 42.8135
35.4755 1881 43.3705
35.5921 1845 42.9535
35.7088 1747 41.7971
35.8254 1810 42.5441
35.9419 1857 43.0929
36.0584 1855 43.0697
36.1749 2076 45.5631
36.2913 2015 44.8888
36.4077 2012 44.8553
36.524 1941 44.0568
36.6403 1771 42.0833
36.7565 1777 42.1545
36.8727 1693 41.1461
36.9889 1612 40.1497
37.1049 1395 37.3497
37.221 0 1
37.3369 0 1
37.4529 0 1
37.5687 0 1
37.6845 0 1
37.8003 0 1
37.916 0 1
38.0316 0 1
38.1472 0 1
40.5851 0 1
40.7008 0 1
40.8164 0 1
40.9322 0 1
41.048 0 1
41.1639 0 1
41.2798 0 1
41.3958 0 1
41.5118 0 1
41.6279 0 1
41.744 1046 32.3419
41.8602 1145 33.8378
41.9765 1278 35.7491
42.0928 1280 35.7771
42.2091 1274 35.6931
42.3255 1227 35.0286
42.4419 1287 35.8748
42.5584 1215 34.8569
42.675 1422 37.7094
42.7915 1502 38.7556
42.9081 1554 39.4208
43.0248 1709 41.3401
43.1415 1656 40.694
43.2582 1731 41.6053
43.375 1700 41.2311
43.4918 1741 41.7253
43.6087 1780 42.19
43.7256 1734 41.6413
43.8425 1684 41.0366
43.9595 1687 41.0731
44.0765 1646 40.5709
44.1935 1544 39.2938
44.3106 1608 40.0999
44.4277 1466 38.2884
44.5448 1455 38.1445
44.6619 1415 37.6165
44.7791 1585 39.8121
44.8963 1681 41
45.0136 1776 42.1426
45.1308 1792 42.332
45.2481 1890 43.4741
45.3654 1788 42.2847
45.4827 1857 43.0929
45.6001 1834 42.8252
45.7174 1843 42.9302
45.8348 1673 40.9023
45.9522 1530 39.1152
46.0697 1488 38.5746
46.1871 1444 38
46.3046 1584 39.7995
46.422 1534 39.1663
46.5395 1547 39.3319
46.657 1773 42.107
46.7745 1672 40.8901
46.892 1785 42.2493
47.0096 1854 43.0581
47.1271 1767 42.0357
47.2446 1746 41.7852
47.3622 1901 43.6005
47.4797 1741 41.7253
47.5973 1725 41.5331
47.7149 1686 41.0609
47.8324 1561 39.5095
47.95 1558 39.4715
48.0675 1520 38.9872
48.1851 1506 38.8072
48.3027 1510 38.8587
48.4202 1607 40.0874
48.5378 1732 41.6173
48.6554 1936 44
48.7729 1822 42.6849
48.8904 1816 42.6146
49.008 1826 42.7317
49.1255 1823 42.6966
49.243 1742 41.7373
49.3605 1589 39.8623
49.478 1550 39.37
49.5955 1425 37.7492
49.713 1376 37.0945
49.8304 1409 37.5366
49.9479 1494 38.6523
50.0653 1622 40.2741
50.1827 1653 40.6571
50.3001 1683 41.0244
50.4175 1728 41.5692
50.5348 1779 42.1782
50.6521 1836 42.8486
50.7694 1864 43.1741
50.8867 1801 42.4382
51.004 1779 42.1782
51.1212 1793 42.3438
51.2384 1712 41.3763
51.3556 1744 41.7612
51.4727 1677 40.9512
51.5899 1557 39.4588
51.707 1645 40.5586
51.824 1694 41.1582
51.9411 1833 42.8135
52.0581 1890 43.4741
52.175 2122 46.0652
52.2919 2019 44.9333
52.4088 2139 46.2493
52.5257 2244 47.3709
52.6425 2225 47.1699
52.7593 2187 46.7654
52.876 2174 46.6262
52.9927 2099 45.8148
53.1094 1968 44.3621
53.226 1845 42.9535
53.3426 1750 41.833
53.4591 1823 42.6966
53.5756 1696 41.1825
53.692 1837 42.8602
53.8084 1789 42.2966
53.9248 1773 42.107
54.0411 1739 41.7013
54.1573 1632 40.398
54.2735 0 1
54.3896 0 1
54.5057 0 1
54.6217 0 1
54.7377 0 1
54.8537 0 1
54.9695 0 1
55.0853 0 1
55.2011 0 1
55.3168 0 1
55.4324 0 1
57.824 0 1
57.9396 0 1
58.0553 0 1
58.1711 0 1
58.2869 0 1
58.4028 0 1
58.5187 0 1
58.6347 0 1
58.7508 0 1
58.8669 0 1
58.983 1464 38.2623
59.0992 1628 40.3485
59.2155 1806 42.4971
59.3318 1869 43.2319
59.4482 1984 44.5421
59.5646 2136 46.2169
59.681 2127 46.1194
59.7975 2087 45.6837
59.9141 2131 46.1628
60.0306 2091 45.7275
60.1473 2006 44.7884
60.2639 1903 43.6234
60.3807 1899 43.5775
60.4974 1991 44.6206
60.6142 2128 46.1303
60.731 2156 46.4327
60.8479 2250 47.4342
60.9648 2261 47.55
61.0818 2233 47.2546
61.1987 2298 47.9375
61.3158 2275 47.697
61.4328 2087 45.6837
61.5499 2081 45.618
61.667 1910 43.7035
61.7841 1698 41.2068
61.9013 1704 41.2795
62.0185 1734 41.6413
62.1357 1844 42.9418
62.253 1936 44
62.3702 2121 46.0543
62.4875 2106 45.8912
62.6049 2145 46.3141
62.7222 2159 46.465
62.8396 2247 47.4025
62.9569 2267 47.613
63.0743 2208 46.9894
63.1918 2177 46.6583
63.3092 2105 45.8803
63.4267 2050 45.2769
63.5441 2188 46.7761
63.6616 1925 43.8748
63.7791 1888 43.4511
63.8966 1867 43.2088
64.0142 1856 43.0813
64.1317 1986 44.5646
64.2492 2120 46.0435
64.3668 2161 46.4866
64.4843 2290 47.8539
64.6019 2204 46.9468
64.7195 2222 47.1381
64.837 2252 47.4552
64.9546 2156 46.4327
65.0722 2097 45.793
65.1898 1947 44.1248
65.3074 1731 41.6053
65.4249 1641 40.5093
65.5425 1603 40.0375
65.6601 1705 41.2916
65.7777 1798 42.4028
65.8952 1886 43.4281
66.0128 2035 45.111
66.1304 2012 44.8553
66.2479 2153 46.4004
66.3655 2069 45.4863
66.483 2147 46.3357
66.6005 2236 47.2864
66.718 2182 46.7119
66.8355 2223 47.1487
66.953 2107 45.9021
67.0705 2072 45.5192
67.1879 2048 45.2548
67.3054 1903 43.6234
67.4228 1818 42.638
67.5402 1705 41.2916
67.6576 1902 43.6119
67.7749 1886 43.4281
67.8923 1953 44.1928
68.0096 2027 45.0222
68.1269 2140 46.2601
68.2442 2109 45.9239
68.3614 2137 46.2277
68.4787 2212 47.0319
68.5958 2054 45.3211
68.713 2006 44.7884
68.8302 1885 43.4166
68.9473 1682 41.0122
69.0643 1648 40.5956
69.1814 1547 39.3319
69.2984 1571 39.6358
69.4154 1723 41.509
69.5323 1837 42.8602
69.6492 1899 43.5775
69.7661 2034 45.0999
69.8829 2011 44.8442
69.9997 1968 44.3621
70.1165 1930 43.9318
70.2332 1927 43.8976
70.3499 1863 43.1625
70.4665 1750 41.833
70.5831 1582 39.7744
70.6996 1565 39.5601
70.8161 1440 37.9473
70.9326 1347 36.7015
71.049 1208 34.7563
71.1653 922 30.3645
71.2817 867 29.4449
71.3979 805 28.3725
71.5141 858 29.2916
71.6303 783 27.9821
71.7464 731 27.037
71.8624 0 1
71.9784 0 1
72.0944 0 1
72.2102 0 1
72.3261 0 1
72.4418 0 1
72.5575 0 1
72.6732 0 1
75.1054 0 1
75.2209 0 1
75.3365 0 1
75.4521 0 1
75.5678 0 1
75.6835 0 1
75.7993 0 1
75.9151 0 1
76.031 0 1
76.147 1263 35.5387
76.263 1361 36.8917
76.3791 1316 36.2767
76.4952 1401 37.4299
76.6113 1391 37.2961
76.7276 1530 39.1152
76.8438 1650 40.6202
76.9601 1793 42.3438
77.0765 1775 42.1307
77.1929 1790 42.3084
77.3093 1863 43.1625
77.4258 1831 42.7902
77.5423 1851 43.0232
77.6589 1736 41.6653
77.7755 1633 40.4104
77.8921 1403 37.4566
78.0088 1306 36.1386
78.1256 1273 35.6791
78.2423 1249 35.3412
78.3591 1406 37.4967
78.4759 1533 39.1535
78.5928 1654 40.6694
78.7097 1809 42.5323
78.8266 1692 41.1339
78.9436 1839 42.8836
79.0606 1849 43
79.1776 1807 42.5088
79.2946 1842 42.9185
79.4117 1895 43.5316
79.5288 1791 42.3202
79.6459 1749 41.821
79.7631 1824 42.7083
79.8802 1732 41.6173
79.9974 1588 39.8497
80.1147 1535 39.1791
80.2319 1439 37.9342
80.3491 1557 39.4588
80.4664 1622 40.2741
80.5837 1792 42.332
80.701 1932 43.9545
80.8183 1880 43.359
80.9357 1962 44.2945
81.053 1911 43.715
81.1704 1913 43.7379
81.2877 1910 43.7035
81.4051 1827 42.7434
81.5225 1699 41.2189
81.6399 1493 38.6394
81.7573 1436 37.8946
81.8747 1303 36.0971
81.9922 1372 37.0405
82.1096 1555 39.4335
82.227 1597 39.9625
82.3444 1695 41.1704
82.4619 1808 42.5206
82.5793 1791 42.3202
82.6967 1921 43.8292
82.8142 1928 43.909
82.9316 1903 43.6234
83.049 1981 44.5084
83.1664 1916 43.7721
83.2838 1848 42.9884
83.4012 1862 43.1509
83.5186 1889 43.4626
83.636 1752 41.8569
83.7534 1559 39.4842
83.8708 1481 38.4838
83.9881 1584 39.7995
84.1055 1599 39.9875
84.2228 1682 41.0122
84.3401 1858 43.1045
84.4575 1935 43.9886
84.5747 1931 43.9431
84.692 2007 44.7996
84.8093 1958 44.2493
84.9265 1911 43.715
85.0437 1745 41.7732
85.1609 1678 40.9634
85.2781 1478 38.4448
85.3952 1416 37.6298
85.5123 1390 37.2827
85.6294 1362 36.9053
85.7465 1562 39.5221
85.8636 1722 41.497
85.9806 1812 42.5676
86.0976 1837 42.8602
86.2145 1947 44.1248
86.3315 1843 42.9302
86.4484 1937 44.0114
86.5652 1856 43.0813
86.682 1900 43.589
86.7988 1913 43.7379
86.9156 1825 42.72
87.0323 1883 43.3935
87.149 1759 41.9404
87.2657 1689 41.0974
87.3823 1493 38.6394
87.4988 1424 37.7359
87.6154 1396 37.3631
87.7318 1450 38.0789
87.8483 1466 38.2884
87.9647 1509 38.8458
88.081 1555 39.4335
88.1973 1547 39.3319
88.3136 1475 38.4057
88.4298 1412 37.5766
88.546 1349 36.7287
88.6621 1080 32.8634
88.7781 855 29.2404
88.8942 0 1
89.0101 0 1
89.126 0 1
89.2419 0 1
89.3577 0 1
89.4734 0 1
89.5891 0 1
89.7047 0 1
89.8203 0 1
89.9358 0 1
92.3269 0 1
92.4424 0 1
92.558 0 1
92.6736 0 1
92.7893 0 1
92.905 0 1
93.0208 0 1
93.1366 0 1
93.2525 0 1
93.3685 0 1
93.4845 0 1
93.6005 1449 38.0657
93.7167 1550 39.37
93.8328 1661 40.7554
93.949 1714 41.4005
94.0653 1766 42.0238
94.1816 1665 40.8044
94.2979 1586 39.8246
94.4143 1532 39.1408
94.5307 1401 37.4299
94.6472 1430 37.8153
94.7637 1493 38.6394
94.8803 1557 39.4588
94.9969 1700 41.2311
95.1135 1755 41.8927
95.2302 1839 42.8836
95.3469 1907 43.6692
95.4637 1907 43.6692
95.5805 2008 44.8107
95.6973 1969 44.3734
95.8142 1924 43.8634
95.9311 1920 43.8178
96.048 1989 44.5982
96.1649 1900 43.589
96.2819 1904 43.6348
96.3989 1943 44.0795
96.516 1746 41.7852
96.633 1608 40.0999
96.7501 1602 40.025
96.8673 1654 40.6694
96.9844 1728 41.5692
97.1016 1832 42.8019
97.2188 1954 44.2041
97.336 2008 44.8107
97.4532 2009 44.8219
97.5704 2082 45.6289
97.6877 1963 44.3058
97.805 1984 44.5421
97.9223 1816 42.6146
98.0396 1600 40
98.1569 1474 38.3927
98.2743 1442 37.9737
98.3916 1395 37.3497
98.509 1580 39.7492
98.6264 1650 40.6202
98.7438 1820 42.6615
98.8612 1859 43.1161
98.9786 1988 44.587
99.096 1971 44.3959
99.2134 2083 45.6399
99.3308 2011 44.8442
99.4482 2072 45.5192
99.5656 2113 45.9674
99.6831 2023 44.9778
99.8005 2017 44.911
99.9179 2014 44.8776
100.035 1974 44.4297
100.153 1808 42.5206
100.27 1666 40.8167
100.388 1707 41.3159
100.505 1840 42.8952
100.622 1939 44.0341
100.74 2101 45.8367
100.857 2110 45.9347
100.975 2065 45.4423
101.092 2120 46.0435
101.209 2191 46.8081
101.327 2186 46.7547
101.444 2034 45.0999
101.561 1836 42.8486
101.679 1635 40.4351
101.796 1525 39.0512
101.913 1436 37.8946
102.03 1572 39.6485
102.148 1786 42.2611
102.265 1824 42.7083
102.382 1931 43.9431
102.499 2083 45.6399
102.616 2171 46.594
102.733 2236 47.2864
102.851 2182 46.7119
102.968 2271 47.655
103.085 2191 46.8081
103.202 2207 46.9787
103.319 2246 47.392
103.436 2103 45.8585
103.552 2097 45.793
103.669 1990 44.6094
103.786 1914 43.7493
103.903 1756 41.9047
104.02 1775 42.1307
104.137 2053 45.31
104.253 2151 46.3789
104.37 2185 46.744
104.487 2228 47.2017
104.603 2311 48.0729
104.72 2208 46.9894
104.836 2104 45.8694
104.953 1903 43.6234
105.069 1729 41.5812
105.186 1570 39.6232
105.302 1449 38.0657
105.418 1337 36.565
105.535 1363 36.9188
105.651 1431 37.8286
105.767 1397 37.3765
105.883 1399 37.4032
105.999 1387 37.2424
106.115 0 1
106.231 0 1
106.347 0 1
106.463 0 1
106.579 0 1
106.694 0 1
106.81 0 1
106.926 0 1
107.041 0 1
107.157 0 1
109.576 0 1
109.692 0 1
109.807 0 1
109.923 0 1
110.039 0 1
110.155 0 1
110.27 0 1
110.386 0 1
110.502 0 1
110.618 931 30.5123
110.735 1223 34.9714
110.851 1473 38.3797
110.967 1637 40.4599
111.083 1728 41.5692
111.199 1787 42.2729
111.316 1889 43.4626
111.432 2040 45.1664
111.549 2095 45.7712
111.665 2070 45.4973
111.782 2024 44.9889
111.898 2055 45.3321
112.015 1928 43.909
112.132 1861 43.1393
112.248 1791 42.3202
112.365 1648 40.5956
112.482 1714 41.4005
112.599 1832 42.8019
112.716 1899 43.5775
112.832 2000 44.7214
112.949 2014 44.8776
113.066 2062 45.4093
113.183 2100 45.8258
113.3 2009 44.8219
113.417 2065 45.4423
113.534 1880 43.359
113.652 1725 41.5331
113.769 1527 39.0768
113.886 1467 38.3014
114.003 1470 38.3406
114.12 1533 39.1535
114.238 1762 41.9762
114.355 1745 41.7732
114.472 1805 42.4853
114.589 2035 45.111
114.707 1934 43.9773
114.824 1924 43.8634
114.942 2063 45.4203
115.059 2006 44.7884
115.176 2097 45.793
115.294 2085 45.6618
115.411 2057 45.3542
115.529 1924 43.8634
115.646 1881 43.3705
115.764 1956 44.2267
115.881 1702 41.2553
115.999 1773 42.107
116.116 1799 42.4146
116.234 1818 42.638
116.351 1996 44.6766
116.469 2036 45.1221
116.586 2071 45.5082
116.704 2038 45.1442
116.821 2125 46.0977
116.939 2029 45.0444
117.056 2045 45.2217
117.174 1809 42.5323
117.291 1678 40.9634
117.409 1521 39
117.526 1413 37.5899
117.644 1392 37.3095
117.761 1614 40.1746
117.879 1716 41.4246
117.996 1806 42.4971
118.114 1903 43.6234
118.231 1914 43.7493
118.349 2072 45.5192
118.466 2004 44.7661
118.584 2000 44.7214
118.701 1968 44.3621
118.819 2022 44.9667
118.936 1903 43.6234
119.053 1939 44.0341
119.171 1994 44.6542
119.288 1940 44.0454
119.405 1738 41.6893
119.523 1674 40.9145
119.64 1674 40.9145
119.757 1708 41.328
119.875 1861 43.1393
119.992 1824 42.7083
120.109 1949 44.1475
120.226 1959 44.2606
120.343 1920 43.8178
120.46 1927 43.8976
120.578 2068 45.4753
120.695 1990 44.6094
120.812 1745 41.7732
120.929 1650 40.6202
121.046 1466 38.2884
121.163 1446 38.0263
121.279 1380 37.1484
121.396 1431 37.8286
121.513 1487 38.5616
121.63 1464 38.2623
121.747 1541 39.2556
121.863 1535 39.1791
121.98 1575 39.6863
122.097 1556 39.4462
122.213 1570 39.6232
122.33 1523 39.0256
122.446 1498 38.704
122.563 1421 37.6962
122.679 1348 36.7151
122.795 1265 35.5668
122.912 1164 34.1174
123.028 969 31.1288
123.144 952 30.8545
123.26 789 28.0891
123.377 0 1
123.493 0 1
123.609 0 1
123.725 0 1
123.84 0 1
123.956 0 1
124.072 0 1
124.188 0 1
124.303 0 1
124.419 0 1
126.852 0 1
126.968 0 1
127.083 0 1
127.199 0 1
127.315 0 1
127.431 0 1
127.547 0 1
127.663 0 1
127.779 0 1
127.895 0 1
128.011 0 1
128.127 0 1
128.243 0 1
128.359 1915 43.7607
128.476 1911 43.715
128.592 1841 42.9069
128.708 1814 42.5911
128.825 1866 43.1972
128.941 1951 44.1701
129.058 1986 44.5646
129.174 2110 45.9347
129.291 2104 45.8694
129.408 2137 46.2277
129.524 2114 45.9783
129.641 2118 46.0217
129.758 2067 45.4643
129.875 1905 43.6463
129.992 1800 42.4264
130.108 1625 40.3113
130.225 1512 38.8844
130.342 1554 39.4208
130.459 1684 41.0366
130.576 1800 42.4264
130.693 1842 42.9185
130.81 1893 43.5086
130.928 2050 45.2769
131.045 2015 44.8888
131.162 2117 46.0109
131.279 2085 45.6618
131.396 2145 46.3141
131.513 2032 45.0777
131.631 1974 44.4297
131.748 2064 45.4313
131.865 1987 44.5758
131.983 1937 44.0114
132.1 1884 43.4051
132.217 1863 43.1625
132.335 1985 44.5533
132.452 1943 44.0795
132.57 1981 44.5084
132.687 2110 45.9347
132.804 2181 46.7012
132.922 2123 46.076
133.039 2176 46.6476
133.157 2092 45.7384
133.274 2094 45.7602
133.392 1898 43.566
133.509 1864 43.1741
133.627 1797 42.391
133.744 1660 40.7431
133.862 1622 40.2741
133.979 1624 40.2989
134.097 1747 41.7971
134.214 1904 43.6348
134.332 1902 43.6119
134.449 2070 45.4973
134.567 2103 45.8585
134.684 2100 45.8258
134.802 2164 46.5188
134.919 2184 46.7333
135.037 2091 45.7275
135.154 2091 45.7275
135.272 2092 45.7384
135.389 2057 45.3542
135.507 1946 44.1135
135.624 1928 43.909
135.742 1825 42.72
135.859 1929 43.9204
135.977 1902 43.6119
136.094 1985 44.5533
136.211 2047 45.2438
136.329 2074 45.5412
136.446 2232 47.244
136.564 2102 45.8476
136.681 2162 46.4973
136.798 2219 47.1063
136.915 2168 46.5618
137.033 1963 44.3058
137.15 1869 43.2319
137.267 1728 41.5692
137.384 1649 40.6079
137.502 1606 40.0749
137.619 1699 41.2189
137.736 1848 42.9884
137.853 1875 43.3013
137.97 1965 44.3283
138.087 1986 44.5646
138.204 2028 45.0333
138.321 1977 44.4635
138.438 2042 45.1885
138.555 2130 46.1519
138.672 2051 45.288
138.788 1977 44.4635
138.905 1974 44.4297
139.022 1793 42.3438
139.139 1766 42.0238
139.255 1717 41.4367
139.372 1549 39.3573
139.488 1389 37.2693
139.605 1427 37.7757
139.721 1355 36.8103
139.838 1427 37.7757
139.954 1391 37.2961
140.071 1330 36.4692
140.187 1233 35.1141
140.303 1164 34.1174
140.419 1125 33.541
140.535 1015 31.8591
140.652 949 30.8058
140.768 0 1
140.884 0 1
141 0 1
141.115 0 1
141.231 0 1
141.347 0 1
141.463 0 1
141.578 0 1
141.694 0 1
144.104 0 1
144.219 0 1
144.335 0 1
144.45 0 1
144.566 0 1
144.682 0 1
144.798 0 1
144.914 0 1
145.03 0 1
145.146 1489 38.5876
145.262 1586 39.8246
145.378 1713 41.3884
145.494 1695 41.1704
145.61 1731 41.6053
145.726 1624 40.2989
145.842 1573 39.6611
145.959 1482 38.4968
146.075 1384 37.2022
146.192 1340 36.606
146.308 1308 36.1663
146.425 1335 36.5377
146.541 1426 37.7624
146.658 1479 38.4578
146.774 1498 38.704
146.891 1541 39.2556
147.008 1585 39.8121
147.125 1549 39.3573
147.241 1620 40.2492
147.358 1703 41.2674
147.475 1693 41.1461
147.592 1586 39.8246
147.709 1528 39.0896
147.826 1531 39.128
147.943 1494 38.6523
148.06 1550 39.37
148.177 1399 37.4032
148.294 1446 38.0263
148.411 1456 38.1576
148.528 1557 39.4588
148.645 1561 39.5095
148.762 1609 40.1123
148.88 1594 39.9249
148.997 1696 41.1825
149.114 1598 39.975
149.231 1699 41.2189
149.349 1558 39.4715
149.466 1675 40.9268
149.583 1486 38.5487
149.701 1445 38.0132
149.818 1361 36.8917
149.935 1336 36.5513
150.053 1285 35.8469
150.17 1347 36.7015
150.287 1385 37.2156
150.405 1514 38.9102
150.522 1504 38.7814
150.64 1539 39.2301
150.757 1608 40.0999
150.875 1528 39.0896
150.992 1583 39.7869
151.11 1662 40.7676
151.227 1573 39.6611
151.344 1516 38.9358
151.462 1445 38.0132
151.579 1470 38.3406
151.697 1439 37.9342
151.814 1413 37.5899
151.932 1467 38.3014
152.049 1449 38.0657
152.167 1451 38.092
152.284 1502 38.7556
152.402 1587 39.8372
152.519 1587 39.8372
152.636 1575 39.6863
152.754 1593 39.9124
152.871 1584 39.7995
152.989 1567 39.5854
153.106 1492 38.6264
153.223 1368 36.9865
153.341 1437 37.9078
153.458 1315 36.2629
153.575 1302 36.0832
153.693 1312 36.2215
153.81 1349 36.7287
153.927 1324 36.3868
154.044 1421 37.6962
154.162 1384 37.2022
154.279 1446 38.0263
154.396 1476 38.4187
154.513 1511 38.8716
154.63 1548 39.3446
154.747 1496 38.6782
154.864 1521 39
154.981 1484 38.5227
155.098 1317 36.2905
155.215 1376 37.0945
155.332 1372 37.0405
155.449 1359 36.8646
155.566 1265 35.5668
155.683 1357 36.8375
155.8 1446 38.0263
155.917 1391 37.2961
156.033 1373 37.054
156.15 0 1
156.267 0 1
156.383 0 1
156.5 0 1
156.617 0 1
156.733 0 1
156.85 0 1
156.966 0 1
157.082 0 1
157.199 0 1
157.315 0 1
157.431 0 1
157.547 0 1
157.664 0 1
157.78 0 1
157.896 0 1
158.012 0 1
158.128 0 1
158.244 0 1
158.359 0 1
158.475 0 1
158.591 0 1
158.706 0 1
