
6.15755 0 1
6.2731 0 1
6.3887 0 1
6.50437 0 1
6.62009 0 1
6.73587 0 1
6.8517 0 1
6.96759 0 1
7.08353 0 1
7.19952 0 1
7.31557 0 1
7.43166 0 1
7.54781 0 1
7.664 0 1
7.78024 0 1
7.89653 0 1
8.01286 0 1
8.12924 0 1
8.24567 0 1
8.36213 0 1
8.47864 0 1
8.59519 0 1
8.71178 0 1
8.82841 0 1
8.94508 0 1
9.06179 0 1
9.17853 0 1
9.29531 0 1
9.41212 0 1
9.52897 0 1
9.64584 0 1
9.76276 0 1
9.8797 0 1
9.99667 0 1
10.1137 0 1
10.2307 0 1
10.3478 0 1
10.4648 0 1
10.5819 0 1
10.6991 0 1
10.8162 0 1
10.9334 0 1
11.0506 0 1
11.1678 0 1
11.285 0 1
11.4023 0 1
11.5196 0 1
11.6369 0 1
11.7542 0 1
11.8715 0 1
11.9888 0 1
12.1062 0 1
12.2235 0 1
12.3409 0 1
12.4582 0 1
12.5756 0 1
12.693 0 1
12.8104 0 1
12.9278 0 1
13.0452 0 1
13.1626 0 1
13.28 0 1
13.3974 0 1
13.5149 0 1
13.6323 0 1
13.7497 0 1
13.8671 0 1
13.9845 0 1
14.1019 0 1
14.2193 0 1
14.3367 0 1
14.4541 0 1
14.5714 0 1
14.6888 0 1
14.8062 0 1
14.9235 0 1
15.0408 560 23.6643
15.1581 570 23.8747
15.2755 586 24.2074
15.3927 651 25.5147
15.51 644 25.3772
15.6273 637 25.2389
15.7445 682 26.1151
15.8617 594 24.3721
15.9789 664 25.7682
16.0961 606 24.6171
16.2132 617 24.8395
16.3304 600 24.4949
16.4475 681 26.096
16.5646 666 25.807
16.6816 676 26
16.7986 703 26.5141
16.9156 750 27.3861
17.0326 752 27.4226
17.1496 736 27.1293
17.2665 716 26.7582
17.3833 705 26.5518
17.5002 735 27.1109
17.617 725 26.9258
17.7338 715 26.7395
17.8505 608 24.6577
17.9672 613 24.7588
18.0839 611 24.7184
18.2005 621 24.9199
18.3171 700 26.4575
18.4337 693 26.3249
18.5502 673 25.9422
18.6666 696 26.3818
18.7831 721 26.8514
18.8994 684 26.1534
19.0158 741 27.2213
19.1321 697 26.4008
19.2483 672 25.923
19.3645 666 25.807
19.4806 615 24.7992
19.5967 561 23.6854
19.7128 477 21.8403
19.8288 472 21.7256
19.9447 451 21.2368
20.0606 0 1
20.1764 0 1
20.2922 0 1
20.4079 0 1
20.5236 0 1
20.6392 0 1
20.7548 0 1
20.8702 0 1
23.3078 0 1
23.4233 0 1
23.539 0 1
23.6547 0 1
23.7704 0 1
23.8862 0 1
24.0021 0 1
24.118 0 1
24.234 0 1
24.35 0 1
24.4661 288 16.9706
24.5822 333 18.2483
24.6984 400 20
24.8146 393 19.8242
24.9309 489 22.1133
25.0472 473 21.7486
25.1636 541 23.2594
25.28 596 24.4131
25.3965 649 25.4755
25.513 633 25.1595
25.6296 759 27.55
25.7462 722 26.8701
25.8628 732 27.0555
25.9795 711 26.6646
26.0962 791 28.1247
26.213 749 27.3679
26.3298 720 26.8328
26.4466 674 25.9615
26.5635 615 24.7992
26.6804 662 25.7294
26.7973 613 24.7588
26.9143 678 26.0384
27.0313 674 25.9615
27.1483 710 26.6458
27.2653 668 25.8457
27.3824 771 27.7669
27.4996 740 27.2029
27.6167 699 26.4386
27.7339 670 25.8844
27.8511 675 25.9808
27.9683 689 26.2488
28.0855 629 25.0799
28.2028 638 25.2587
28.3201 617 24.8395
28.4374 593 24.3516
28.5547 588 24.2487
28.6721 595 24.3926
28.7894 655 25.593
28.9068 660 25.6905
29.0242 708 26.6083
29.1416 723 26.8887
29.259 699 26.4386
29.3764 742 27.2397
29.4939 700 26.4575
29.6113 706 26.5707
29.7288 645 25.3969
29.8463 670 25.8844
29.9638 571 23.8956
30.0812 560 23.6643
30.1987 653 25.5539
30.3162 564 23.7487
30.4337 664 25.7682
30.5512 671 25.9037
30.6687 657 25.632
30.7862 719 26.8142
30.9037 704 26.533
31.0212 690 26.2679
31.1387 672 25.923
31.2562 642 25.3377
31.3737 654 25.5734
31.4912 700 26.4575
31.6087 664 25.7682
31.7262 628 25.0599
31.8436 587 24.2281
31.9611 610 24.6982
32.0785 520 22.8035
32.1959 572 23.9165
32.3134 598 24.454
32.4308 627 25.04
32.5482 683 26.1343
32.6655 710 26.6458
32.7829 702 26.4953
32.9002 741 27.2213
33.0176 708 26.6083
33.1349 723 26.8887
33.2522 666 25.807
33.3694 687 26.2107
33.4867 601 24.5153
33.6039 567 23.8118
33.7211 567 23.8118
33.8383 559 23.6432
33.9554 598 24.454
34.0725 636 25.219
34.1896 648 25.4558
34.3067 664 25.7682
34.4237 660 25.6905
34.5407 626 25.02
34.6577 711 26.6646
34.7746 701 26.4764
34.8915 680 26.0768
35.0084 696 26.3818
35.1252 634 25.1794
35.242 614 24.779
35.3587 637 25.2389
35.4755 529 23
35.5921 543 23.3024
35.7088 562 23.7065
35.8254 546 23.3666
35.9419 579 24.0624
36.0584 591 24.3105
36.1749 587 24.2281
36.2913 620 24.8998
36.4077 611 24.7184
36.524 579 24.0624
36.6403 611 24.7184
36.7565 562 23.7065
36.8727 525 22.9129
36.9889 518 22.7596
37.1049 446 21.1187
37.221 0 1
37.3369 0 1
37.4529 0 1
37.5687 0 1
37.6845 0 1
37.8003 0 1
37.916 0 1
38.0316 0 1
38.1472 0 1
40.5851 0 1
40.7008 0 1
40.8164 0 1
40.9322 0 1
41.048 0 1
41.1639 0 1
41.2798 0 1
41.3958 0 1
41.5118 0 1
41.6279 0 1
41.744 331 18.1934
41.8602 333 18.2483
41.9765 381 19.5192
42.0928 371 19.2614
42.2091 410 20.2485
42.3255 362 19.0263
42.4419 359 18.9473
42.5584 388 19.6977
42.675 406 20.1494
42.7915 418 20.445
42.9081 487 22.0681
43.0248 514 22.6716
43.1415 543 23.3024
43.2582 569 23.8537
43.375 560 23.6643
43.4918 533 23.0868
43.6087 595 24.3926
43.7256 540 23.2379
43.8425 554 23.5372
43.9595 541 23.2594
44.0765 488 22.0907
44.1935 524 22.891
44.3106 501 22.383
44.4277 477 21.8403
44.5448 432 20.7846
44.6619 417 20.4206
44.7791 466 21.587
44.8963 507 22.5167
45.0136 530 23.0217
45.1308 522 22.8473
45.2481 544 23.3238
45.3654 547 23.388
45.4827 552 23.4947
45.6001 523 22.8692
45.7174 550 23.4521
45.8348 523 22.8692
45.9522 475 21.7945
46.0697 458 21.4009
46.1871 449 21.1896
46.3046 506 22.4944
46.422 512 22.6274
46.5395 490 22.1359
46.657 543 23.3024
46.7745 532 23.0651
46.892 559 23.6432
47.0096 542 23.2809
47.1271 602 24.5357
47.2446 531 23.0434
47.3622 555 23.5584
47.4797 568 23.8328
47.5973 590 24.2899
47.7149 522 22.8473
47.8324 499 22.3383
47.95 509 22.561
48.0675 488 22.0907
48.1851 417 20.4206
48.3027 491 22.1585
48.4202 489 22.1133
48.5378 499 22.3383
48.6554 535 23.1301
48.7729 571 23.8956
48.8904 585 24.1868
49.008 589 24.2693
49.1255 555 23.5584
49.243 564 23.7487
49.3605 491 22.1585
49.478 505 22.4722
49.5955 423 20.567
49.713 415 20.3715
49.8304 444 21.0713
49.9479 460 21.4476
50.0653 483 21.9773
50.1827 505 22.4722
50.3001 562 23.7065
50.4175 551 23.4734
50.5348 605 24.5967
50.6521 533 23.0868
50.7694 564 23.7487
50.8867 563 23.7276
51.004 569 23.8537
51.1212 520 22.8035
51.2384 503 22.4277
51.3556 525 22.9129
51.4727 467 21.6102
51.5899 465 21.5639
51.707 418 20.445
51.824 487 22.0681
51.9411 493 22.2036
52.0581 530 23.0217
52.175 574 23.9583
52.2919 556 23.5797
52.4088 562 23.7065
52.5257 607 24.6374
52.6425 574 23.9583
52.7593 555 23.5584
52.876 532 23.0651
52.9927 479 21.8861
53.1094 415 20.3715
53.226 462 21.4942
53.3426 484 22
53.4591 483 21.9773
53.5756 429 20.7123
53.692 455 21.3307
53.8084 454 21.3073
53.9248 425 20.6155
54.0411 414 20.347
54.1573 372 19.2873
54.2735 0 1
54.3896 0 1
54.5057 0 1
54.6217 0 1
54.7377 0 1
54.8537 0 1
54.9695 0 1
55.0853 0 1
55.2011 0 1
55.3168 0 1
55.4324 0 1
57.824 0 1
57.9396 0 1
58.0553 0 1
58.1711 0 1
58.2869 0 1
58.4028 0 1
58.5187 0 1
58.6347 0 1
58.7508 0 1
58.8669 0 1
58.983 365 19.105
59.0992 427 20.664
59.2155 503 22.4277
59.3318 500 22.3607
59.4482 538 23.1948
59.5646 595 24.3926
59.681 623 24.96
59.7975 653 25.5539
59.9141 619 24.8797
60.0306 605 24.5967
60.1473 634 25.1794
60.2639 596 24.4131
60.3807 610 24.6982
60.4974 603 24.5561
60.6142 622 24.9399
60.731 649 25.4755
60.8479 717 26.7769
60.9648 715 26.7395
61.0818 718 26.7955
61.1987 749 27.3679
61.3158 703 26.5141
61.4328 716 26.7582
61.5499 685 26.1725
61.667 640 25.2982
61.7841 567 23.8118
61.9013 577 24.0208
62.0185 540 23.2379
62.1357 598 24.454
62.253 638 25.2587
62.3702 660 25.6905
62.4875 628 25.0599
62.6049 641 25.318
62.7222 723 26.8887
62.8396 751 27.4044
62.9569 741 27.2213
63.0743 771 27.7669
63.1918 699 26.4386
63.3092 760 27.5681
63.4267 723 26.8887
63.5441 650 25.4951
63.6616 621 24.9199
63.7791 644 25.3772
63.8966 581 24.1039
64.0142 577 24.0208
64.1317 566 23.7908
64.2492 576 24
64.3668 623 24.96
64.4843 661 25.7099
64.6019 707 26.5895
64.7195 709 26.6271
64.837 662 25.7294
64.9546 740 27.2029
65.0722 681 26.096
65.1898 676 26
65.3074 601 24.5153
65.4249 562 23.7065
65.5425 498 22.3159
65.6601 554 23.5372
65.7777 609 24.6779
65.8952 603 24.5561
66.0128 679 26.0576
66.1304 664 25.7682
66.2479 707 26.5895
66.3655 704 26.533
66.483 740 27.2029
66.6005 736 27.1293
66.718 727 26.9629
66.8355 702 26.4953
66.953 712 26.6833
67.0705 699 26.4386
67.1879 721 26.8514
67.3054 663 25.7488
67.4228 641 25.318
67.5402 567 23.8118
67.6576 596 24.4131
67.7749 585 24.1868
67.8923 675 25.9808
68.0096 740 27.2029
68.1269 709 26.6271
68.2442 779 27.9106
68.3614 804 28.3549
68.4787 787 28.0535
68.5958 807 28.4077
68.713 755 27.4773
68.8302 708 26.6083
68.9473 697 26.4008
69.0643 632 25.1396
69.1814 680 26.0768
69.2984 636 25.219
69.4154 674 25.9615
69.5323 733 27.074
69.6492 825 28.7228
69.7661 830 28.8097
69.8829 805 28.3725
69.9997 790 28.1069
70.1165 783 27.9821
70.2332 788 28.0713
70.3499 781 27.9464
70.4665 731 27.037
70.5831 752 27.4226
70.6996 663 25.7488
70.8161 655 25.593
70.9326 566 23.7908
71.049 516 22.7156
71.1653 392 19.799
71.2817 385 19.6214
71.3979 330 18.1659
71.5141 370 19.2354
71.6303 285 16.8819
71.7464 267 16.3401
71.8624 0 1
71.9784 0 1
72.0944 0 1
72.2102 0 1
72.3261 0 1
72.4418 0 1
72.5575 0 1
72.6732 0 1
75.1054 0 1
75.2209 0 1
75.3365 0 1
75.4521 0 1
75.5678 0 1
75.6835 0 1
75.7993 0 1
75.9151 0 1
76.031 0 1
76.147 484 22
76.263 498 22.3159
76.3791 489 22.1133
76.4952 473 21.7486
76.6113 460 21.4476
76.7276 508 22.5389
76.8438 557 23.6008
76.9601 550 23.4521
77.0765 639 25.2784
77.1929 682 26.1151
77.3093 632 25.1396
77.4258 648 25.4558
77.5423 615 24.7992
77.6589 607 24.6374
77.7755 621 24.9199
77.8921 527 22.9565
78.0088 471 21.7025
78.1256 447 21.1424
78.2423 466 21.587
78.3591 460 21.4476
78.4759 504 22.4499
78.5928 579 24.0624
78.7097 611 24.7184
78.8266 535 23.1301
78.9436 650 25.4951
79.0606 595 24.3926
79.1776 592 24.3311
79.2946 627 25.04
79.4117 588 24.2487
79.5288 622 24.9399
79.6459 602 24.5357
79.7631 549 23.4307
79.8802 564 23.7487
79.9974 549 23.4307
80.1147 540 23.2379
80.2319 479 21.8861
80.3491 509 22.561
80.4664 506 22.4944
80.5837 519 22.7816
80.701 585 24.1868
80.8183 630 25.0998
80.9357 587 24.2281
81.053 641 25.318
81.1704 634 25.1794
81.2877 628 25.0599
81.4051 658 25.6515
81.5225 580 24.0832
81.6399 528 22.9783
81.7573 481 21.9317
81.8747 496 22.2711
81.9922 427 20.664
82.1096 483 21.9773
82.227 581 24.1039
82.3444 571 23.8956
82.4619 577 24.0208
82.5793 638 25.2587
82.6967 632 25.1396
82.8142 645 25.3969
82.9316 693 26.3249
83.049 630 25.0998
83.1664 688 26.2298
83.2838 687 26.2107
83.4012 630 25.0998
83.5186 635 25.1992
83.636 633 25.1595
83.7534 539 23.2164
83.8708 479 21.8861
83.9881 477 21.8403
84.1055 521 22.8254
84.2228 543 23.3024
84.3401 597 24.4336
84.4575 644 25.3772
84.5747 671 25.9037
84.692 606 24.6171
84.8093 649 25.4755
84.9265 656 25.6125
85.0437 627 25.04
85.1609 531 23.0434
85.2781 516 22.7156
85.3952 522 22.8473
85.5123 463 21.5174
85.6294 501 22.383
85.7465 521 22.8254
85.8636 517 22.7376
85.9806 586 24.2074
86.0976 657 25.632
86.2145 625 25
86.3315 637 25.2389
86.4484 682 26.1151
86.5652 613 24.7588
86.682 670 25.8844
86.7988 667 25.8263
86.9156 616 24.8193
87.0323 673 25.9422
87.149 564 23.7487
87.2657 588 24.2487
87.3823 518 22.7596
87.4988 422 20.5426
87.6154 397 19.9249
87.7318 432 20.7846
87.8483 488 22.0907
87.9647 483 21.9773
88.081 479 21.8861
88.1973 524 22.891
88.3136 496 22.2711
88.4298 484 22
88.546 420 20.4939
88.6621 358 18.9209
88.7781 293 17.1172
88.8942 0 1
89.0101 0 1
89.126 0 1
89.2419 0 1
89.3577 0 1
89.4734 0 1
89.5891 0 1
89.7047 0 1
89.8203 0 1
89.9358 0 1
92.3269 0 1
92.4424 0 1
92.558 0 1
92.6736 0 1
92.7893 0 1
92.905 0 1
93.0208 0 1
93.1366 0 1
93.2525 0 1
93.3685 0 1
93.4845 0 1
93.6005 430 20.7364
93.7167 445 21.095
93.8328 475 21.7945
93.949 522 22.8473
94.0653 575 23.9792
94.1816 502 22.4054
94.2979 550 23.4521
94.4143 490 22.1359
94.5307 485 22.0227
94.6472 505 22.4722
94.7637 458 21.4009
94.8803 523 22.8692
94.9969 570 23.8747
95.1135 605 24.5967
95.2302 654 25.5734
95.3469 638 25.2587
95.4637 629 25.0799
95.5805 695 26.3629
95.6973 662 25.7294
95.8142 636 25.219
95.9311 687 26.2107
96.048 627 25.04
96.1649 618 24.8596
96.2819 647 25.4362
96.3989 584 24.1661
96.516 558 23.622
96.633 551 23.4734
96.7501 496 22.2711
96.8673 466 21.587
96.9844 525 22.9129
97.1016 560 23.6643
97.2188 602 24.5357
97.336 648 25.4558
97.4532 596 24.4131
97.5704 670 25.8844
97.6877 642 25.3377
97.805 699 26.4386
97.9223 611 24.7184
98.0396 582 24.1247
98.1569 505 22.4722
98.2743 496 22.2711
98.3916 504 22.4499
98.509 538 23.1948
98.6264 557 23.6008
98.7438 584 24.1661
98.8612 683 26.1343
98.9786 640 25.2982
99.096 635 25.1992
99.2134 687 26.2107
99.3308 678 26.0384
99.4482 679 26.0576
99.5656 658 25.6515
99.6831 712 26.6833
99.8005 684 26.1534
99.9179 633 25.1595
100.035 604 24.5764
100.153 661 25.7099
100.27 551 23.4734
100.388 519 22.7816
100.505 563 23.7276
100.622 553 23.516
100.74 631 25.1197
100.857 644 25.3772
100.975 690 26.2679
101.092 685 26.1725
101.209 684 26.1534
101.327 633 25.1595
101.444 680 26.0768
101.561 634 25.1794
101.679 556 23.5797
101.796 502 22.4054
101.913 519 22.7816
102.03 559 23.6432
102.148 586 24.2074
102.265 572 23.9165
102.382 665 25.7876
102.499 704 26.533
102.616 688 26.2298
102.733 688 26.2298
102.851 741 27.2213
102.968 695 26.3629
103.085 711 26.6646
103.202 753 27.4408
103.319 727 26.9629
103.436 704 26.533
103.552 606 24.6171
103.669 659 25.671
103.786 559 23.6432
103.903 617 24.8395
104.02 598 24.454
104.137 577 24.0208
104.253 655 25.593
104.37 739 27.1846
104.487 722 26.8701
104.603 778 27.8927
104.72 749 27.3679
104.836 687 26.2107
104.953 688 26.2298
105.069 570 23.8747
105.186 567 23.8118
105.302 480 21.9089
105.418 502 22.4054
105.535 486 22.0454
105.651 451 21.2368
105.767 421 20.5183
105.883 467 21.6102
105.999 434 20.8327
106.115 0 1
106.231 0 1
106.347 0 1
106.463 0 1
106.579 0 1
106.694 0 1
106.81 0 1
106.926 0 1
107.041 0 1
107.157 0 1
109.576 0 1
109.692 0 1
109.807 0 1
109.923 0 1
110.039 0 1
110.155 0 1
110.27 0 1
110.386 0 1
110.502 0 1
110.618 263 16.2173
110.735 350 18.7083
110.851 452 21.2603
110.967 490 22.1359
111.083 546 23.3666
111.199 577 24.0208
111.316 663 25.7488
111.432 633 25.1595
111.549 653 25.5539
111.665 620 24.8998
111.782 701 26.4764
111.898 684 26.1534
112.015 673 25.9422
112.132 597 24.4336
112.248 568 23.8328
112.365 473 21.7486
112.482 528 22.9783
112.599 551 23.4734
112.716 572 23.9165
112.832 582 24.1247
112.949 673 25.9422
113.066 663 25.7488
113.183 620 24.8998
113.3 672 25.923
113.417 618 24.8596
113.534 610 24.6982
113.652 543 23.3024
113.769 522 22.8473
113.886 481 21.9317
114.003 469 21.6564
114.12 483 21.9773
114.238 531 23.0434
114.355 638 25.2587
114.472 618 24.8596
114.589 596 24.4131
114.707 617 24.8395
114.824 699 26.4386
114.942 631 25.1197
115.059 696 26.3818
115.176 665 25.7876
115.294 671 25.9037
115.411 639 25.2784
115.529 628 25.0599
115.646 609 24.6779
115.764 615 24.7992
115.881 536 23.1517
115.999 468 21.6333
116.116 546 23.3666
116.234 538 23.1948
116.351 628 25.0599
116.469 626 25.02
116.586 621 24.9199
116.704 637 25.2389
116.821 602 24.5357
116.939 653 25.5539
117.056 626 25.02
117.174 594 24.3721
117.291 546 23.3666
117.409 516 22.7156
117.526 533 23.0868
117.644 486 22.0454
117.761 552 23.4947
117.879 563 23.7276
117.996 555 23.5584
118.114 644 25.3772
118.231 675 25.9808
118.349 643 25.3574
118.466 636 25.219
118.584 627 25.04
118.701 639 25.2784
118.819 622 24.9399
118.936 647 25.4362
119.053 601 24.5153
119.171 571 23.8956
119.288 583 24.1454
119.405 546 23.3666
119.523 517 22.7376
119.64 522 22.8473
119.757 570 23.8747
119.875 550 23.4521
119.992 595 24.3926
120.109 596 24.4131
120.226 655 25.593
120.343 730 27.0185
120.46 609 24.6779
120.578 652 25.5343
120.695 679 26.0576
120.812 586 24.2074
120.929 545 23.3452
121.046 474 21.7715
121.163 510 22.5832
121.279 462 21.4942
121.396 478 21.8632
121.513 512 22.6274
121.63 531 23.0434
121.747 540 23.2379
121.863 558 23.622
121.98 534 23.1084
122.097 550 23.4521
122.213 490 22.1359
122.33 544 23.3238
122.446 517 22.7376
122.563 533 23.0868
122.679 460 21.4476
122.795 403 20.0749
122.912 397 19.9249
123.028 360 18.9737
123.144 263 16.2173
123.26 275 16.5831
123.377 0 1
123.493 0 1
123.609 0 1
123.725 0 1
123.84 0 1
123.956 0 1
124.072 0 1
124.188 0 1
124.303 0 1
124.419 0 1
126.852 0 1
126.968 0 1
127.083 0 1
127.199 0 1
127.315 0 1
127.431 0 1
127.547 0 1
127.663 0 1
127.779 0 1
127.895 0 1
128.011 0 1
128.127 0 1
128.243 0 1
128.359 709 26.6271
128.476 665 25.7876
128.592 689 26.2488
128.708 656 25.6125
128.825 641 25.318
128.941 730 27.0185
129.058 798 28.2489
129.174 752 27.4226
129.291 810 28.4605
129.408 815 28.5482
129.524 780 27.9285
129.641 792 28.1425
129.758 820 28.6356
129.875 740 27.2029
129.992 755 27.4773
130.108 699 26.4386
130.225 665 25.7876
130.342 664 25.7682
130.459 631 25.1197
130.576 659 25.671
130.693 726 26.9444
130.81 755 27.4773
130.928 754 27.4591
131.045 791 28.1247
131.162 820 28.6356
131.279 863 29.3769
131.396 839 28.9655
131.513 839 28.9655
131.631 768 27.7128
131.748 862 29.3598
131.865 759 27.55
131.983 734 27.0924
132.1 749 27.3679
132.217 660 25.6905
132.335 698 26.4197
132.452 727 26.9629
132.57 773 27.8029
132.687 759 27.55
132.804 804 28.3549
132.922 803 28.3373
133.039 821 28.6531
133.157 826 28.7402
133.274 813 28.5132
133.392 825 28.7228
133.509 740 27.2029
133.627 673 25.9422
133.744 631 25.1197
133.862 620 24.8998
133.979 619 24.8797
134.097 651 25.5147
134.214 729 27
134.332 746 27.313
134.449 724 26.9072
134.567 727 26.9629
134.684 745 27.2947
134.802 715 26.7395
134.919 782 27.9643
135.037 728 26.9815
135.154 779 27.9106
135.272 707 26.5895
135.389 764 27.6405
135.507 717 26.7769
135.624 663 25.7488
135.742 600 24.4949
135.859 641 25.318
135.977 638 25.2587
136.094 694 26.3439
136.211 684 26.1534
136.329 712 26.6833
136.446 772 27.7849
136.564 733 27.074
136.681 736 27.1293
136.798 720 26.8328
136.915 709 26.6271
137.033 726 26.9444
137.15 629 25.0799
137.267 600 24.4949
137.384 586 24.2074
137.502 583 24.1454
137.619 511 22.6053
137.736 622 24.9399
137.853 594 24.3721
137.97 650 25.4951
138.087 643 25.3574
138.204 717 26.7769
138.321 730 27.0185
138.438 699 26.4386
138.555 738 27.1662
138.672 666 25.807
138.788 624 24.98
138.905 583 24.1454
139.022 596 24.4131
139.139 555 23.5584
139.255 510 22.5832
139.372 521 22.8254
139.488 471 21.7025
139.605 431 20.7605
139.721 479 21.8861
139.838 409 20.2237
139.954 463 21.5174
140.071 438 20.9284
140.187 371 19.2614
140.303 356 18.868
140.419 353 18.7883
140.535 361 19
140.652 303 17.4069
140.768 0 1
140.884 0 1
141 0 1
141.115 0 1
141.231 0 1
141.347 0 1
141.463 0 1
141.578 0 1
141.694 0 1
144.104 0 1
144.219 0 1
144.335 0 1
144.45 0 1
144.566 0 1
144.682 0 1
144.798 0 1
144.914 0 1
145.03 0 1
145.146 433 20.8087
145.262 498 22.3159
145.378 560 23.6643
145.494 507 22.5167
145.61 544 23.3238
145.726 519 22.7816
145.842 476 21.8174
145.959 455 21.3307
146.075 479 21.8861
146.192 419 20.4695
146.308 482 21.9545
146.425 407 20.1742
146.541 459 21.4243
146.658 474 21.7715
146.774 478 21.8632
146.891 463 21.5174
147.008 499 22.3383
147.125 450 21.2132
147.241 508 22.5389
147.358 500 22.3607
147.475 560 23.6643
147.592 481 21.9317
147.709 484 22
147.826 472 21.7256
147.943 434 20.8327
148.06 481 21.9317
148.177 441 21
148.294 452 21.2603
148.411 470 21.6795
148.528 464 21.5407
148.645 433 20.8087
148.762 513 22.6495
148.88 492 22.1811
148.997 531 23.0434
149.114 489 22.1133
149.231 535 23.1301
149.349 525 22.9129
149.466 493 22.2036
149.583 472 21.7256
149.701 452 21.2603
149.818 423 20.567
149.935 429 20.7123
150.053 404 20.0998
150.17 462 21.4942
150.287 423 20.567
150.405 465 21.5639
150.522 469 21.6564
150.64 472 21.7256
150.757 511 22.6053
150.875 440 20.9762
150.992 486 22.0454
151.11 482 21.9545
151.227 503 22.4277
151.344 467 21.6102
151.462 450 21.2132
151.579 454 21.3073
151.697 498 22.3159
151.814 443 21.0476
151.932 441 21
152.049 399 19.975
152.167 503 22.4277
152.284 465 21.5639
152.402 486 22.0454
152.519 462 21.4942
152.636 491 22.1585
152.754 519 22.7816
152.871 426 20.6398
152.989 486 22.0454
153.106 463 21.5174
153.223 444 21.0713
153.341 401 20.025
153.458 396 19.8997
153.575 420 20.4939
153.693 413 20.3224
153.81 393 19.8242
153.927 422 20.5426
154.044 447 21.1424
154.162 441 21
154.279 469 21.6564
154.396 491 22.1585
154.513 489 22.1133
154.63 474 21.7715
154.747 518 22.7596
154.864 470 21.6795
154.981 466 21.587
155.098 437 20.9045
155.215 420 20.4939
155.332 426 20.6398
155.449 412 20.2978
155.566 437 20.9045
155.683 474 21.7715
155.8 422 20.5426
155.917 470 21.6795
156.033 397 19.9249
156.15 0 1
156.267 0 1
156.383 0 1
156.5 0 1
156.617 0 1
156.733 0 1
156.85 0 1
156.966 0 1
157.082 0 1
157.199 0 1
157.315 0 1
157.431 0 1
157.547 0 1
157.664 0 1
157.78 0 1
157.896 0 1
158.012 0 1
158.128 0 1
158.244 0 1
158.359 0 1
158.475 0 1
158.591 0 1
158.706 0 1
