
6.15755 0 1
6.2731 0 1
6.3887 0 1
6.50437 0 1
6.62009 0 1
6.73587 0 1
6.8517 0 1
6.96759 0 1
7.08353 0 1
7.19952 0 1
7.31557 0 1
7.43166 0 1
7.54781 0 1
7.664 0 1
7.78024 0 1
7.89653 0 1
8.01286 0 1
8.12924 0 1
8.24567 0 1
8.36213 0 1
8.47864 0 1
8.59519 0 1
8.71178 0 1
8.82841 0 1
8.94508 0 1
9.06179 0 1
9.17853 0 1
9.29531 0 1
9.41212 0 1
9.52897 0 1
9.64584 0 1
9.76276 0 1
9.8797 0 1
9.99667 0 1
10.1137 0 1
10.2307 0 1
10.3478 0 1
10.4648 0 1
10.5819 0 1
10.6991 0 1
10.8162 0 1
10.9334 0 1
11.0506 0 1
11.1678 0 1
11.285 0 1
11.4023 0 1
11.5196 0 1
11.6369 0 1
11.7542 0 1
11.8715 0 1
11.9888 0 1
12.1062 0 1
12.2235 0 1
12.3409 0 1
12.4582 0 1
12.5756 0 1
12.693 0 1
12.8104 0 1
12.9278 0 1
13.0452 0 1
13.1626 0 1
13.28 0 1
13.3974 0 1
13.5149 0 1
13.6323 0 1
13.7497 0 1
13.8671 0 1
13.9845 0 1
14.1019 0 1
14.2193 0 1
14.3367 0 1
14.4541 0 1
14.5714 0 1
14.6888 0 1
14.8062 0 1
14.9235 0 1
15.0408 0 0
15.1581 0 0
15.2755 0 0
15.3927 0 0
15.51 0 0
15.6273 0 0
15.7445 0 0
15.8617 0 0
15.9789 0 0
16.0961 0 0
16.2132 0 0
16.3304 0 0
16.4475 0 0
16.5646 0 0
16.6816 0 0
16.7986 0 0
16.9156 0 0
17.0326 0 0
17.1496 0 0
17.2665 0 0
17.3833 0 0
17.5002 0 0
17.617 0 0
17.7338 0 0
17.8505 0 0
17.9672 0 0
18.0839 0 0
18.2005 0 0
18.3171 0 0
18.4337 0 0
18.5502 0 0
18.6666 0 0
18.7831 0 0
18.8994 0 0
19.0158 0 0
19.1321 0 0
19.2483 0 0
19.3645 0 0
19.4806 0 0
19.5967 0 0
19.7128 0 0
19.8288 0 0
19.9447 0 0
20.0606 0 1
20.1764 0 1
20.2922 0 1
20.4079 0 1
20.5236 0 1
20.6392 0 1
20.7548 0 1
20.8702 0 1
23.3078 0 1
23.4233 0 1
23.539 0 1
23.6547 0 1
23.7704 0 1
23.8862 0 1
24.0021 0 1
24.118 0 1
24.234 0 1
24.35 0 1
24.4661 12915 113.644
24.5822 13414 115.819
24.6984 13508 116.224
24.8146 13553 116.417
24.9309 13868 117.762
25.0472 14187 119.109
25.1636 14527 120.528
25.28 15050 122.678
25.3965 15605 124.92
25.513 15720 125.379
25.6296 16283 127.605
25.7462 16581 128.767
25.8628 16434 128.195
25.9795 16475 128.355
26.0962 16401 128.066
26.213 16579 128.759
26.3298 16089 126.842
26.4466 16375 127.965
26.5635 16160 127.122
26.6804 15728 125.411
26.7973 15346 123.879
26.9143 14935 122.209
27.0313 14103 118.756
27.1483 14410 120.042
27.2653 14271 119.461
27.3824 14312 119.633
27.4996 13833 117.614
27.6167 13450 115.974
27.7339 12797 113.124
27.8511 12392 111.319
27.9683 11950 109.316
28.0855 11554 107.49
28.2028 11486 107.173
28.3201 11163 105.655
28.4374 11572 107.573
28.5547 11643 107.903
28.6721 11834 108.784
28.7894 11678 108.065
28.9068 11935 109.247
29.0242 11931 109.229
29.1416 12100 110
29.259 12173 110.331
29.3764 12241 110.639
29.4939 11990 109.499
29.6113 12125 110.114
29.7288 11775 108.513
29.8463 11894 109.06
29.9638 11757 108.43
30.0812 11733 108.319
30.1987 11550 107.471
30.3162 11353 106.55
30.4337 10982 104.795
30.5512 10622 103.063
30.6687 10475 102.347
30.7862 10859 104.207
30.9037 10672 103.305
31.0212 10755 103.706
31.1387 10515 102.543
31.2562 10528 102.606
31.3737 10048 100.24
31.4912 9709 98.5343
31.6087 9692 98.448
31.7262 9734 98.661
31.8436 9823 99.111
31.9611 9963 99.8148
32.0785 10067 100.334
32.1959 10198 100.985
32.3134 10415 102.054
32.4308 10768 103.769
32.5482 10882 104.317
32.6655 11096 105.338
32.7829 11227 105.958
32.9002 10968 104.728
33.0176 11174 105.707
33.1349 11023 104.99
33.2522 11108 105.394
33.3694 11120 105.451
33.4867 11316 106.377
33.6039 11245 106.042
33.7211 11023 104.99
33.8383 11034 105.043
33.9554 10873 104.274
34.0725 10495 102.445
34.1896 10131 100.653
34.3067 10204 101.015
34.4237 10197 100.98
34.5407 10157 100.782
34.6577 10242 101.203
34.7746 10288 101.43
34.8915 9967 99.8349
35.0084 9801 99
35.1252 9511 97.5244
35.242 9187 95.8488
35.3587 9396 96.933
35.4755 9336 96.623
35.5921 9496 97.4474
35.7088 9539 97.6678
35.8254 9660 98.2853
35.9419 9869 99.3428
36.0584 10222 101.104
36.1749 10465 102.299
36.2913 10598 102.947
36.4077 10806 103.952
36.524 10884 104.326
36.6403 10818 104.01
36.7565 10648 103.189
36.8727 10621 103.058
36.9889 10655 103.223
37.1049 10459 102.269
37.221 0 1
37.3369 0 1
37.4529 0 1
37.5687 0 1
37.6845 0 1
37.8003 0 1
37.916 0 1
38.0316 0 1
38.1472 0 1
40.5851 0 1
40.7008 0 1
40.8164 0 1
40.9322 0 1
41.048 0 1
41.1639 0 1
41.2798 0 1
41.3958 0 1
41.5118 0 1
41.6279 0 1
41.744 8699 93.2684
41.8602 8779 93.6963
41.9765 9017 94.9579
42.0928 8983 94.7787
42.2091 9182 95.8228
42.3255 8944 94.5727
42.4419 8965 94.6837
42.5584 9033 95.0421
42.675 8769 93.6429
42.7915 8790 93.755
42.9081 8412 91.717
43.0248 8241 90.78
43.1415 8232 90.7304
43.2582 8179 90.4378
43.375 8341 91.3291
43.4918 8414 91.7279
43.6087 8269 90.934
43.7256 8198 90.5428
43.8425 7580 87.0632
43.9595 7490 86.5448
44.0765 7423 86.1568
44.1935 7377 85.8895
44.3106 7239 85.0823
44.4277 7213 84.9294
44.5448 7445 86.2844
44.6619 7708 87.7952
44.7791 7768 88.1363
44.8963 7913 88.955
45.0136 7876 88.7468
45.1308 7878 88.7581
45.2481 7810 88.3742
45.3654 7665 87.55
45.4827 7655 87.4929
45.6001 7638 87.3957
45.7174 7426 86.1742
45.8348 7474 86.4523
45.9522 7404 86.0465
46.0697 7352 85.7438
46.1871 7195 84.8233
46.3046 7131 84.4452
46.422 6963 83.4446
46.5395 6601 81.2465
46.657 6349 79.6806
46.7745 6154 78.4474
46.892 6340 79.6241
47.0096 6394 79.9625
47.1271 6357 79.7308
47.2446 6226 78.905
47.3622 6060 77.846
47.4797 5803 76.1774
47.5973 5698 75.4851
47.7149 5606 74.8732
47.8324 5432 73.7021
47.95 5560 74.5654
48.0675 5552 74.5117
48.1851 5637 75.08
48.3027 5763 75.9144
48.4202 5914 76.9025
48.5378 5810 76.2234
48.6554 6025 77.6209
48.7729 5949 77.1298
48.8904 6042 77.7303
49.008 5978 77.3175
49.1255 6183 78.6321
49.243 6086 78.0128
49.3605 6178 78.6003
49.478 6331 79.5676
49.5955 6263 79.1391
49.713 6356 79.7245
49.8304 6351 79.6932
49.9479 6329 79.555
50.0653 6124 78.256
50.1827 6095 78.0705
50.3001 5977 77.3111
50.4175 5963 77.2205
50.5348 6170 78.5493
50.6521 6639 81.4801
50.7694 6635 81.4555
50.8867 6791 82.4075
51.004 6559 80.9877
51.1212 6656 81.5843
51.2384 6860 82.8251
51.3556 7065 84.0536
51.4727 7116 84.3564
51.5899 7492 86.5563
51.707 7743 87.9943
51.824 8250 90.8295
51.9411 8297 91.0879
52.0581 8474 92.0543
52.175 8457 91.9619
52.2919 8613 92.8062
52.4088 8720 93.3809
52.5257 9052 95.142
52.6425 8763 93.6109
52.7593 9002 94.8789
52.876 9116 95.4777
52.9927 9321 96.5453
53.1094 9252 96.1873
53.226 9244 96.1457
53.3426 9498 97.4577
53.4591 9473 97.3293
53.5756 9466 97.2934
53.692 9250 96.1769
53.8084 8658 93.0484
53.9248 8694 93.2416
54.0411 8478 92.0761
54.1573 8791 93.7603
54.2735 0 1
54.3896 0 1
54.5057 0 1
54.6217 0 1
54.7377 0 1
54.8537 0 1
54.9695 0 1
55.0853 0 1
55.2011 0 1
55.3168 0 1
55.4324 0 1
57.824 0 1
57.9396 0 1
58.0553 0 1
58.1711 0 1
58.2869 0 1
58.4028 0 1
58.5187 0 1
58.6347 0 1
58.7508 0 1
58.8669 0 1
58.983 10214 101.064
59.0992 10218 101.084
59.2155 10005 100.025
59.3318 10358 101.774
59.4482 10166 100.827
59.5646 10466 102.303
59.681 10134 100.668
59.7975 10369 101.828
59.9141 10264 101.311
60.0306 10212 101.054
60.1473 10627 103.087
60.2639 10882 104.317
60.3807 10958 104.68
60.4974 11177 105.721
60.6142 11134 105.518
60.731 11027 105.01
60.8479 11068 105.205
60.9648 10897 104.389
61.0818 11016 104.957
61.1987 10727 103.571
61.3158 10993 104.848
61.4328 10844 104.135
61.5499 10803 103.937
61.667 10859 104.207
61.7841 10789 103.87
61.9013 10721 103.542
62.0185 10648 103.189
62.1357 10331 101.642
62.253 10115 100.573
62.3702 9869 99.3428
62.4875 9769 98.8383
62.6049 9489 97.4115
62.7222 9739 98.6864
62.8396 9624 98.102
62.9569 9685 98.4124
63.0743 9623 98.0969
63.1918 9606 98.0102
63.3092 9212 95.9792
63.4267 9534 97.6422
63.5441 9672 98.3463
63.6616 10101 100.504
63.7791 9911 99.554
63.8966 10365 101.809
64.0142 10337 101.671
64.1317 10219 101.089
64.2492 10030 100.15
64.3668 10079 100.394
64.4843 10075 100.374
64.6019 10176 100.876
64.7195 10122 100.608
64.837 9935 99.6745
64.9546 10047 100.235
65.0722 9950 99.7497
65.1898 9801 99
65.3074 10075 100.374
65.4249 9877 99.3831
65.5425 10020 100.1
65.6601 9796 98.9747
65.7777 9810 99.0454
65.8952 9628 98.1224
66.0128 9019 94.9684
66.1304 8807 93.8456
66.2479 8704 93.2952
66.3655 8898 94.3292
66.483 8982 94.7734
66.6005 9013 94.9368
66.718 8967 94.6942
66.8355 8890 94.2868
66.953 9008 94.9105
67.0705 9193 95.8801
67.1879 9554 97.7446
67.3054 9923 99.6143
67.4228 9929 99.6444
67.5402 9715 98.5647
67.6576 9842 99.2069
67.7749 9706 98.519
67.8923 10034 100.17
68.0096 10125 100.623
68.1269 9896 99.4786
68.2442 9962 99.8098
68.3614 9859 99.2925
68.4787 9926 99.6293
68.5958 9843 99.2119
68.713 9937 99.6845
68.8302 10060 100.3
68.9473 9873 99.363
69.0643 9932 99.6594
69.1814 9976 99.8799
69.2984 10078 100.389
69.4154 10047 100.235
69.5323 9816 99.0757
69.6492 9641 98.1886
69.7661 9218 96.0104
69.8829 8758 93.5842
69.9997 8893 94.3027
70.1165 9233 96.0885
70.2332 9462 97.2728
70.3499 9428 97.0979
70.4665 9384 96.871
70.5831 9380 96.8504
70.6996 9420 97.0567
70.8161 9737 98.6762
70.9326 9909 99.544
71.049 10118 100.588
71.1653 10039 100.195
71.2817 9942 99.7096
71.3979 9690 98.4378
71.5141 9635 98.158
71.6303 9332 96.6023
71.7464 8736 93.4666
71.8624 0 1
71.9784 0 1
72.0944 0 1
72.2102 0 1
72.3261 0 1
72.4418 0 1
72.5575 0 1
72.6732 0 1
75.1054 0 1
75.2209 0 1
75.3365 0 1
75.4521 0 1
75.5678 0 1
75.6835 0 1
75.7993 0 1
75.9151 0 1
76.031 0 1
76.147 8795 93.7817
76.263 9525 97.5961
76.3791 9866 99.3277
76.4952 9891 99.4535
76.6113 9915 99.5741
76.7276 9916 99.5791
76.8438 9876 99.3781
76.9601 9873 99.363
77.0765 9881 99.4032
77.1929 10019 100.095
77.3093 9943 99.7146
77.4258 9693 98.453
77.5423 9757 98.7775
77.6589 9808 99.0353
77.7755 9629 98.1275
77.8921 9655 98.2599
78.0088 9759 98.7877
78.1256 9433 97.1236
78.2423 9673 98.3514
78.3591 9574 97.8468
78.4759 9603 97.9949
78.5928 9312 96.4987
78.7097 8985 94.7892
78.8266 8667 93.0967
78.9436 7212 84.9235
79.0606 7472 86.4407
79.1776 7591 87.1263
79.2946 8328 91.2579
79.4117 8634 92.9193
79.5288 8924 94.4669
79.6459 9056 95.163
79.7631 9379 96.8452
79.8802 9363 96.7626
79.9974 9387 96.8865
80.1147 9178 95.8019
80.2319 9212 95.9792
80.3491 9097 95.3782
80.4664 9174 95.781
80.5837 9144 95.6243
80.701 9057 95.1683
80.8183 8960 94.6573
80.9357 9072 95.247
81.053 8882 94.2444
81.1704 8700 93.2738
81.2877 8830 93.9681
81.4051 8840 94.0213
81.5225 8959 94.652
81.6399 8727 93.4184
81.7573 8847 94.0585
81.8747 8752 93.5521
81.9922 8763 93.6109
82.1096 8735 93.4612
82.227 8614 92.8116
82.3444 8410 91.7061
82.4619 7988 89.3756
82.5793 6968 83.4745
82.6967 6657 81.5904
82.8142 6723 81.9939
82.9316 7259 85.1998
83.049 7480 86.487
83.1664 7781 88.21
83.2838 8085 89.9166
83.4012 8206 90.587
83.5186 8135 90.1942
83.636 8151 90.2829
83.7534 8174 90.4102
83.8708 8042 89.6772
83.9881 7997 89.4259
84.1055 7872 88.7243
84.2228 7793 88.278
84.3401 8038 89.6549
84.4575 7983 89.3476
84.5747 8025 89.5824
84.692 7966 89.2525
84.8093 7874 88.7356
84.9265 7854 88.6228
85.0437 8039 89.6605
85.1609 7960 89.2188
85.2781 7788 88.2496
85.3952 7992 89.398
85.5123 7815 88.4025
85.6294 7877 88.7525
85.7465 7887 88.8088
85.8636 7907 88.9213
85.9806 7538 86.8217
86.0976 7265 85.235
86.2145 6537 80.8517
86.3315 5849 76.4788
86.4484 6592 81.1911
86.5652 7321 85.5628
86.682 7813 88.3912
86.7988 7959 89.2132
86.9156 8239 90.7689
87.0323 8135 90.1942
87.149 8127 90.1499
87.2657 8225 90.6918
87.3823 8215 90.6366
87.4988 7997 89.4259
87.6154 8025 89.5824
87.7318 8214 90.6311
87.8483 8091 89.95
87.9647 7915 88.9663
88.081 8191 90.5041
88.1973 8179 90.4378
88.3136 8133 90.1831
88.4298 7929 89.0449
88.546 8065 89.8053
88.6621 7875 88.7412
88.7781 7639 87.4014
88.8942 0 1
89.0101 0 1
89.126 0 1
89.2419 0 1
89.3577 0 1
89.4734 0 1
89.5891 0 1
89.7047 0 1
89.8203 0 1
89.9358 0 1
92.3269 0 1
92.4424 0 1
92.558 0 1
92.6736 0 1
92.7893 0 1
92.905 0 1
93.0208 0 1
93.1366 0 1
93.2525 0 1
93.3685 0 1
93.4845 0 1
93.6005 6066 77.8845
93.7167 6175 78.5812
93.8328 6244 79.019
93.949 6068 77.8974
94.0653 6021 77.5951
94.1816 5950 77.1362
94.2979 5736 75.7364
94.4143 5722 75.6439
94.5307 5765 75.9276
94.6472 5658 75.2197
94.7637 5701 75.505
94.8803 5572 74.6458
94.9969 5513 74.2496
95.1135 5362 73.2257
95.2302 5103 71.4353
95.3469 4684 68.4398
95.4637 3843 61.9919
95.5805 3715 60.9508
95.6973 4457 66.7608
95.8142 5159 71.8262
95.9311 5223 72.2703
96.048 4981 70.5762
96.1649 5041 71
96.2819 4909 70.0643
96.3989 4758 68.9783
96.516 4791 69.217
96.633 4677 68.3886
96.7501 4460 66.7832
96.8673 4313 65.6734
96.9844 4312 65.6658
97.1016 4203 64.8305
97.2188 4193 64.7534
97.336 4127 64.2417
97.4532 3994 63.1981
97.5704 3964 62.9603
97.6877 3794 61.5955
97.805 3789 61.5549
97.9223 3670 60.5805
98.0396 3471 58.9152
98.1569 3421 58.4893
98.2743 3219 56.7362
98.3916 3174 56.3383
98.509 3205 56.6127
98.6264 3011 54.8726
98.7438 3029 55.0364
98.8612 2789 52.811
98.9786 2608 51.0686
99.096 2129 46.1411
99.2134 1836 42.8486
99.3308 2190 46.7974
99.4482 2545 50.448
99.5656 2440 49.3964
99.6831 2421 49.2037
99.8005 2316 48.1248
99.9179 2215 47.0638
100.035 2191 46.8081
100.153 2157 46.4435
100.27 2184 46.7333
100.388 2184 46.7333
100.505 2144 46.3033
100.622 2203 46.9361
100.74 2150 46.3681
100.857 2312 48.0833
100.975 2326 48.2286
101.092 2293 47.8853
101.209 2424 49.2341
101.327 2538 50.3786
101.444 2677 51.7397
101.561 2755 52.4881
101.679 2856 53.4416
101.796 2857 53.4509
101.913 2879 53.6563
102.03 3116 55.8211
102.148 3265 57.1402
102.265 3524 59.3633
102.382 3232 56.8507
102.499 3249 57
102.616 2686 51.8266
102.733 2410 49.0918
102.851 3370 58.0517
102.968 3954 62.8808
103.085 4290 65.4981
103.202 4145 64.3817
103.319 4364 66.0606
103.436 4482 66.9477
103.552 4511 67.164
103.669 4444 66.6633
103.786 4613 67.9191
103.903 4775 69.1014
104.02 4778 69.1231
104.137 4907 70.05
104.253 5036 70.9648
104.37 5089 71.3372
104.487 5181 71.9792
104.603 5305 72.8354
104.72 5306 72.8423
104.836 5516 74.2698
104.953 5536 74.4043
105.069 5664 75.2596
105.186 5744 75.7892
105.302 5798 76.1446
105.418 5771 75.9671
105.535 5822 76.302
105.651 6028 77.6402
105.767 5976 77.3046
105.883 5568 74.619
105.999 4582 67.6905
106.115 0 1
106.231 0 1
106.347 0 1
106.463 0 1
106.579 0 1
106.694 0 1
106.81 0 1
106.926 0 1
107.041 0 1
107.157 0 1
109.576 0 1
109.692 0 1
109.807 0 1
109.923 0 1
110.039 0 1
110.155 0 1
110.27 0 1
110.386 0 1
110.502 0 1
110.618 5733 75.7166
110.735 6034 77.6788
110.851 5742 75.776
110.967 5131 71.631
111.083 4536 67.3498
111.199 4301 65.582
111.316 4822 69.4406
111.432 5793 76.1118
111.549 6137 78.339
111.665 6270 79.1833
111.782 6196 78.7147
111.898 5957 77.1816
112.015 6102 78.1153
112.132 6110 78.1665
112.248 5973 77.2852
112.365 5805 76.1906
112.482 6008 77.5113
112.599 5695 75.4652
112.716 5524 74.3236
112.832 5391 73.4234
112.949 5552 74.5117
113.066 5352 73.1574
113.183 5373 73.3008
113.3 5413 73.5731
113.417 5355 73.1779
113.534 5182 71.9861
113.652 5137 71.6729
113.769 5151 71.7705
113.886 4973 70.5195
114.003 4924 70.1712
114.12 4961 70.4344
114.238 4772 69.0797
114.355 4742 68.8622
114.472 4370 66.106
114.589 3613 60.1082
114.707 3274 57.2189
114.824 3362 57.9828
114.942 3846 62.0161
115.059 4395 66.2948
115.176 4480 66.9328
115.294 4408 66.3928
115.411 4461 66.7907
115.529 4434 66.5883
115.646 4210 64.8845
115.764 4178 64.6375
115.881 4064 63.7495
115.999 3989 63.1585
116.116 3936 62.7375
116.234 3881 62.2977
116.351 3826 61.8547
116.469 3804 61.6766
116.586 3818 61.79
116.704 3678 60.6465
116.821 3721 61
116.939 3669 60.5723
117.056 3657 60.4731
117.174 3583 59.8582
117.291 3491 59.0847
117.409 3516 59.2959
117.526 3482 59.0085
117.644 3320 57.6194
117.761 3415 58.438
117.879 3287 57.3324
117.996 3287 57.3324
118.114 3275 57.2276
118.231 3186 56.4447
118.349 2696 51.923
118.466 2648 51.4587
118.584 2783 52.7541
118.701 3033 55.0727
118.819 3201 56.5774
118.936 3107 55.7405
119.053 3183 56.4181
119.171 3187 56.4535
119.288 2997 54.7449
119.405 3048 55.2087
119.523 2934 54.1664
119.64 2974 54.5344
119.757 3009 54.8544
119.875 2875 53.619
119.992 2854 53.4228
120.109 2810 53.0094
120.226 2865 53.5257
120.343 2855 53.4322
120.46 2864 53.5164
120.578 2833 53.2259
120.695 2781 52.7352
120.812 2792 52.8394
120.929 2792 52.8394
121.046 2756 52.4976
121.163 2894 53.7959
121.279 2807 52.9811
121.396 2649 51.4684
121.513 2388 48.8672
121.63 2241 47.3392
121.747 2200 46.9042
121.863 2457 49.5681
121.98 2827 53.1695
122.097 2800 52.915
122.213 2733 52.2781
122.33 2646 51.4393
122.446 2887 53.7308
122.563 2829 53.1883
122.679 2931 54.1387
122.795 2922 54.0555
122.912 2958 54.3875
123.028 2924 54.074
123.144 2890 53.7587
123.26 2980 54.5894
123.377 0 1
123.493 0 1
123.609 0 1
123.725 0 1
123.84 0 1
123.956 0 1
124.072 0 1
124.188 0 1
124.303 0 1
124.419 0 1
126.852 0 1
126.968 0 1
127.083 0 1
127.199 0 1
127.315 0 1
127.431 0 1
127.547 0 1
127.663 0 1
127.779 0 1
127.895 0 1
128.011 0 1
128.127 0 1
128.243 0 1
128.359 4103 64.0547
128.476 4249 65.1844
128.592 4246 65.1613
128.708 4257 65.2457
128.825 4336 65.8483
128.941 4454 66.7383
129.058 4561 67.5352
129.174 4311 65.6582
129.291 4532 67.3201
129.408 4548 67.4389
129.524 4346 65.9242
129.641 4646 68.1616
129.758 4611 67.9043
129.875 4651 68.1982
129.992 4657 68.2422
130.108 4516 67.2012
130.225 4283 65.4446
130.342 3814 61.7576
130.459 3063 55.3444
130.576 2618 51.1664
130.693 2544 50.4381
130.81 3352 57.8965
130.928 4331 65.8103
131.045 4844 69.5989
131.162 5132 71.638
131.279 5024 70.8802
131.396 5087 71.3232
131.513 5209 72.1734
131.631 5232 72.3326
131.748 5353 73.1642
131.865 5169 71.8958
131.983 5262 72.5396
132.1 5321 72.9452
132.217 5375 73.3144
132.335 5391 73.4234
132.452 5302 72.8148
132.57 5471 73.9662
132.687 5238 72.374
132.804 5638 75.0866
132.922 5354 73.171
133.039 5347 73.1232
133.157 5508 74.2159
133.274 5669 75.2928
133.392 5711 75.5712
133.509 5413 73.5731
133.627 5336 73.0479
133.744 5045 71.0282
133.862 4504 67.1118
133.979 4095 63.9922
134.097 3577 59.808
134.214 3297 57.4195
134.332 3309 57.5239
134.449 4149 64.4127
134.567 5263 72.5465
134.684 5867 76.5963
134.802 6090 78.0385
134.919 6033 77.6724
135.037 6140 78.3582
135.154 6137 78.339
135.272 6166 78.5239
135.389 6195 78.7083
135.507 6179 78.6066
135.624 6260 79.1202
135.742 6260 79.1202
135.859 6236 78.9683
135.977 6277 79.2275
136.094 6302 79.3851
136.211 6237 78.9747
136.329 6469 80.4301
136.446 6412 80.075
136.564 6510 80.6846
136.681 6407 80.0437
136.798 6258 79.1075
136.915 6578 81.1049
137.033 6584 81.1419
137.15 6449 80.3057
137.267 6164 78.5111
137.384 5725 75.6637
137.502 5221 72.2565
137.619 4845 69.606
137.736 4397 66.3099
137.853 4050 63.6396
137.97 4134 64.2962
138.087 4676 68.3813
138.204 5645 75.1332
138.321 6556 80.9691
138.438 7078 84.1309
138.555 7060 84.0238
138.672 7194 84.8175
138.788 7123 84.3979
138.905 7182 84.7467
139.022 7189 84.788
139.139 7284 85.3464
139.255 7217 84.9529
139.372 7343 85.6913
139.488 7369 85.8429
139.605 7300 85.44
139.721 7321 85.5628
139.838 7458 86.3597
139.954 7471 86.4349
140.071 7299 85.4342
140.187 7333 85.6329
140.303 7336 85.6505
140.419 7369 85.8429
140.535 7313 85.5161
140.652 7014 83.7496
140.768 0 1
140.884 0 1
141 0 1
141.115 0 1
141.231 0 1
141.347 0 1
141.463 0 1
141.578 0 1
141.694 0 1
144.104 0 1
144.219 0 1
144.335 0 1
144.45 0 1
144.566 0 1
144.682 0 1
144.798 0 1
144.914 0 1
145.03 0 1
145.146 7239 85.0823
145.262 7121 84.386
145.378 7254 85.1704
145.494 7094 84.2259
145.61 7106 84.2971
145.726 6891 83.012
145.842 6533 80.827
145.959 6267 79.1644
146.075 5863 76.5702
146.192 5524 74.3236
146.308 5330 73.0068
146.425 5199 72.1041
146.541 5157 71.8123
146.658 5383 73.3689
146.774 5535 74.3976
146.891 6089 78.032
147.008 6735 82.067
147.125 7277 85.3053
147.241 7357 85.773
147.358 7292 85.3932
147.475 7483 86.5043
147.592 7443 86.2728
147.709 7467 86.4118
147.826 7348 85.7205
147.943 7313 85.5161
148.06 7295 85.4108
148.177 7205 84.8823
148.294 7486 86.5217
148.411 7553 86.908
148.528 7361 85.7963
148.645 7362 85.8021
148.762 7296 85.4166
148.88 7229 85.0235
148.997 7095 84.2318
149.114 7492 86.5563
149.231 7008 83.7138
149.349 6982 83.5584
149.466 6489 80.5543
149.583 6354 79.712
149.701 5868 76.6029
149.818 5649 75.1598
149.935 5530 74.364
150.053 5383 73.3689
150.17 5472 73.973
150.287 5530 74.364
150.405 5880 76.6812
150.522 6302 79.3851
150.64 6713 81.9329
150.757 7096 84.2378
150.875 7386 85.9418
150.992 7627 87.3327
151.11 7243 85.1058
151.227 7431 86.2032
151.344 7686 87.6698
151.462 7480 86.487
151.579 7515 86.6891
151.697 7436 86.2322
151.814 7602 87.1894
151.932 7714 87.8294
152.049 7554 86.9138
152.167 7499 86.5968
152.284 7632 87.3613
152.402 7584 87.0862
152.519 7607 87.2181
152.636 7471 86.4349
152.754 7366 85.8254
152.871 7412 86.093
152.989 6918 83.1745
153.106 6689 81.7863
153.223 6550 80.9321
153.341 6218 78.8543
153.458 6025 77.6209
153.575 5878 76.6681
153.693 5782 76.0395
153.81 5800 76.1577
153.927 6012 77.5371
154.044 6304 79.3977
154.162 6864 82.8493
154.279 7149 84.5518
154.396 7667 87.5614
154.513 7795 88.2893
154.63 7863 88.6736
154.747 7941 89.1123
154.864 7960 89.2188
154.981 8077 89.8721
155.098 8134 90.1887
155.215 8137 90.2053
155.332 8011 89.5042
155.449 7969 89.2693
155.566 8000 89.4427
155.683 7973 89.2917
155.8 7979 89.3252
155.917 7960 89.2188
156.033 8042 89.6772
156.15 0 1
156.267 0 1
156.383 0 1
156.5 0 1
156.617 0 1
156.733 0 1
156.85 0 1
156.966 0 1
157.082 0 1
157.199 0 1
157.315 0 1
157.431 0 1
157.547 0 1
157.664 0 1
157.78 0 1
157.896 0 1
158.012 0 1
158.128 0 1
158.244 0 1
158.359 0 1
158.475 0 1
158.591 0 1
158.706 0 1
