
6.15755 0 1
6.2731 0 1
6.3887 0 1
6.50437 0 1
6.62009 0 1
6.73587 0 1
6.8517 0 1
6.96759 0 1
7.08353 0 1
7.19952 0 1
7.31557 0 1
7.43166 0 1
7.54781 0 1
7.664 0 1
7.78024 0 1
7.89653 0 1
8.01286 0 1
8.12924 0 1
8.24567 0 1
8.36213 0 1
8.47864 0 1
8.59519 0 1
8.71178 0 1
8.82841 0 1
8.94508 0 1
9.06179 0 1
9.17853 0 1
9.29531 0 1
9.41212 0 1
9.52897 0 1
9.64584 0 1
9.76276 0 1
9.8797 0 1
9.99667 0 1
10.1137 0 1
10.2307 0 1
10.3478 0 1
10.4648 0 1
10.5819 0 1
10.6991 0 1
10.8162 0 1
10.9334 0 1
11.0506 0 1
11.1678 0 1
11.285 0 1
11.4023 0 1
11.5196 0 1
11.6369 0 1
11.7542 0 1
11.8715 0 1
11.9888 0 1
12.1062 0 1
12.2235 0 1
12.3409 0 1
12.4582 0 1
12.5756 0 1
12.693 0 1
12.8104 0 1
12.9278 0 1
13.0452 0 1
13.1626 0 1
13.28 0 1
13.3974 0 1
13.5149 0 1
13.6323 0 1
13.7497 0 1
13.8671 0 1
13.9845 0 1
14.1019 0 1
14.2193 0 1
14.3367 0 1
14.4541 0 1
14.5714 0 1
14.6888 0 1
14.8062 0 1
14.9235 0 1
15.0408 0 0
15.1581 0 0
15.2755 0 0
15.3927 0 0
15.51 0 0
15.6273 0 0
15.7445 0 0
15.8617 0 0
15.9789 0 0
16.0961 0 0
16.2132 0 0
16.3304 0 0
16.4475 0 0
16.5646 0 0
16.6816 0 0
16.7986 0 0
16.9156 0 0
17.0326 0 0
17.1496 0 0
17.2665 0 0
17.3833 0 0
17.5002 0 0
17.617 0 0
17.7338 0 0
17.8505 0 0
17.9672 0 0
18.0839 0 0
18.2005 0 0
18.3171 0 0
18.4337 0 0
18.5502 0 0
18.6666 0 0
18.7831 0 0
18.8994 0 0
19.0158 0 0
19.1321 0 0
19.2483 0 0
19.3645 0 0
19.4806 0 0
19.5967 0 0
19.7128 0 0
19.8288 0 0
19.9447 0 0
20.0606 0 1
20.1764 0 1
20.2922 0 1
20.4079 0 1
20.5236 0 1
20.6392 0 1
20.7548 0 1
20.8702 0 1
23.3078 0 1
23.4233 0 1
23.539 0 1
23.6547 0 1
23.7704 0 1
23.8862 0 1
24.0021 0 1
24.118 0 1
24.234 0 1
24.35 0 1
24.4661 1654 40.6694
24.5822 1719 41.4608
24.6984 1621 40.2616
24.8146 1644 40.5463
24.9309 1681 41
25.0472 1594 39.9249
25.1636 1431 37.8286
25.28 1460 38.2099
25.3965 1472 38.3667
25.513 1495 38.6652
25.6296 1660 40.7431
25.7462 1772 42.0951
25.8628 1848 42.9884
25.9795 1821 42.6732
26.0962 1793 42.3438
26.213 1816 42.6146
26.3298 1766 42.0238
26.4466 1866 43.1972
26.5635 1796 42.3792
26.6804 1729 41.5812
26.7973 1719 41.4608
26.9143 1647 40.5832
27.0313 1740 41.7133
27.1483 1752 41.8569
27.2653 1711 41.3642
27.3824 1803 42.4617
27.4996 1886 43.4281
27.6167 1874 43.2897
27.7339 1772 42.0951
27.8511 1814 42.5911
27.9683 1714 41.4005
28.0855 1715 41.4126
28.2028 1747 41.7971
28.3201 1685 41.0488
28.4374 1607 40.0874
28.5547 1518 38.9615
28.6721 1412 37.5766
28.7894 1388 37.2559
28.9068 1439 37.9342
29.0242 1457 38.1707
29.1416 1514 38.9102
29.259 1624 40.2989
29.3764 1705 41.2916
29.4939 1729 41.5812
29.6113 1703 41.2674
29.7288 1746 41.7852
29.8463 1813 42.5793
29.9638 1648 40.5956
30.0812 1588 39.8497
30.1987 1623 40.2865
30.3162 1627 40.3361
30.4337 1663 40.7799
30.5512 1622 40.2741
30.6687 1656 40.694
30.7862 1701 41.2432
30.9037 1799 42.4146
31.0212 1864 43.1741
31.1387 1787 42.2729
31.2562 1754 41.8808
31.3737 1756 41.9047
31.4912 1787 42.2729
31.6087 1720 41.4729
31.7262 1734 41.6413
31.8436 1666 40.8167
31.9611 1781 42.2019
32.0785 1540 39.2428
32.1959 1496 38.6782
32.3134 1344 36.6606
32.4308 1416 37.6298
32.5482 1458 38.1838
32.6655 1527 39.0768
32.7829 1638 40.4722
32.9002 1751 41.845
33.0176 1763 41.9881
33.1349 1833 42.8135
33.2522 1756 41.9047
33.3694 1758 41.9285
33.4867 1719 41.4608
33.6039 1689 41.0974
33.7211 1600 40
33.8383 1606 40.0749
33.9554 1550 39.37
34.0725 1532 39.1408
34.1896 1628 40.3485
34.3067 1637 40.4599
34.4237 1709 41.3401
34.5407 1709 41.3401
34.6577 1733 41.6293
34.7746 1753 41.8688
34.8915 1791 42.3202
35.0084 1737 41.6773
35.1252 1684 41.0366
35.242 1718 41.4488
35.3587 1692 41.1339
35.4755 1684 41.0366
35.5921 1680 40.9878
35.7088 1639 40.4846
35.8254 1464 38.2623
35.9419 1408 37.5233
36.0584 1436 37.8946
36.1749 1378 37.1214
36.2913 1397 37.3765
36.4077 1510 38.8587
36.524 1587 39.8372
36.6403 1645 40.5586
36.7565 1663 40.7799
36.8727 1692 41.1339
36.9889 1659 40.7308
37.1049 1624 40.2989
37.221 0 1
37.3369 0 1
37.4529 0 1
37.5687 0 1
37.6845 0 1
37.8003 0 1
37.916 0 1
38.0316 0 1
38.1472 0 1
40.5851 0 1
40.7008 0 1
40.8164 0 1
40.9322 0 1
41.048 0 1
41.1639 0 1
41.2798 0 1
41.3958 0 1
41.5118 0 1
41.6279 0 1
41.744 1273 35.6791
41.8602 1344 36.6606
41.9765 1405 37.4833
42.0928 1341 36.6197
42.2091 1399 37.4032
42.3255 1402 37.4433
42.4419 1289 35.9026
42.5584 1214 34.8425
42.675 1258 35.4683
42.7915 1171 34.2199
42.9081 1286 35.8608
43.0248 1271 35.6511
43.1415 1328 36.4417
43.2582 1341 36.6197
43.375 1280 35.7771
43.4918 1430 37.8153
43.6087 1419 37.6696
43.7256 1309 36.1801
43.8425 1363 36.9188
43.9595 1316 36.2767
44.0765 1322 36.3593
44.1935 1274 35.6931
44.3106 1302 36.0832
44.4277 1248 35.327
44.5448 1120 33.4664
44.6619 1089 33
44.7791 1016 31.8748
44.8963 1034 32.1559
45.0136 970 31.1448
45.1308 1011 31.7962
45.2481 1134 33.6749
45.3654 1174 34.2637
45.4827 1130 33.6155
45.6001 1191 34.5109
45.7174 1097 33.121
45.8348 1068 32.6803
45.9522 1112 33.3467
46.0697 955 30.9031
46.1871 873 29.5466
46.3046 860 29.3258
46.422 850 29.1548
46.5395 1007 31.7333
46.657 1076 32.8024
46.7745 1047 32.3574
46.892 1035 32.1714
47.0096 1075 32.7872
47.1271 1071 32.7261
47.2446 1007 31.7333
47.3622 1052 32.4345
47.4797 1021 31.9531
47.5973 1031 32.1092
47.7149 938 30.6268
47.8324 1072 32.7414
47.95 998 31.5911
48.0675 939 30.6431
48.1851 814 28.5307
48.3027 897 29.95
48.4202 807 28.4077
48.5378 807 28.4077
48.6554 846 29.0861
48.7729 878 29.6311
48.8904 938 30.6268
49.008 952 30.8545
49.1255 959 30.9677
49.243 945 30.7409
49.3605 902 30.0333
49.478 831 28.8271
49.5955 756 27.4955
49.713 738 27.1662
49.8304 730 27.0185
49.9479 677 26.0192
50.0653 833 28.8617
50.1827 886 29.7658
50.3001 930 30.4959
50.4175 971 31.1609
50.5348 1003 31.6702
50.6521 969 31.1288
50.7694 1060 32.5576
50.8867 1043 32.2955
51.004 1116 33.4066
51.1212 1193 34.5398
51.2384 1111 33.3317
51.3556 1065 32.6343
51.4727 1103 33.2114
51.5899 1040 32.249
51.707 978 31.273
51.824 991 31.4802
51.9411 1041 32.2645
52.0581 1055 32.4808
52.175 1140 33.7639
52.2919 1207 34.7419
52.4088 1234 35.1283
52.5257 1261 35.5106
52.6425 1295 35.9861
52.7593 1248 35.327
52.876 1300 36.0555
52.9927 1254 35.4119
53.1094 1224 34.9857
53.226 1108 33.2866
53.3426 1064 32.619
53.4591 1043 32.2955
53.5756 1116 33.4066
53.692 1135 33.6898
53.8084 1359 36.8646
53.9248 1327 36.428
54.0411 1349 36.7287
54.1573 1487 38.5616
54.2735 0 1
54.3896 0 1
54.5057 0 1
54.6217 0 1
54.7377 0 1
54.8537 0 1
54.9695 0 1
55.0853 0 1
55.2011 0 1
55.3168 0 1
55.4324 0 1
57.824 0 1
57.9396 0 1
58.0553 0 1
58.1711 0 1
58.2869 0 1
58.4028 0 1
58.5187 0 1
58.6347 0 1
58.7508 0 1
58.8669 0 1
58.983 1424 37.7359
59.0992 1490 38.6005
59.2155 1544 39.2938
59.3318 1652 40.6448
59.4482 1715 41.4126
59.5646 1685 41.0488
59.681 1751 41.845
59.7975 1668 40.8412
59.9141 1687 41.0731
60.0306 1558 39.4715
60.1473 1546 39.3192
60.2639 1463 38.2492
60.3807 1327 36.428
60.4974 1362 36.9053
60.6142 1333 36.5103
60.731 1382 37.1753
60.8479 1453 38.1182
60.9648 1460 38.2099
61.0818 1534 39.1663
61.1987 1521 39
61.3158 1506 38.8072
61.4328 1485 38.5357
61.5499 1468 38.3145
61.667 1221 34.9428
61.7841 1213 34.8281
61.9013 1193 34.5398
62.0185 1189 34.4819
62.1357 1317 36.2905
62.253 1449 38.0657
62.3702 1518 38.9615
62.4875 1585 39.8121
62.6049 1607 40.0874
62.7222 1675 40.9268
62.8396 1818 42.638
62.9569 1721 41.4849
63.0743 1733 41.6293
63.1918 1807 42.5088
63.3092 1778 42.1663
63.4267 1780 42.19
63.5441 1636 40.4475
63.6616 1547 39.3319
63.7791 1449 38.0657
63.8966 1492 38.6264
64.0142 1548 39.3446
64.1317 1531 39.128
64.2492 1533 39.1535
64.3668 1665 40.8044
64.4843 1674 40.9145
64.6019 1689 41.0974
64.7195 1783 42.2256
64.837 1678 40.9634
64.9546 1703 41.2674
65.0722 1631 40.3856
65.1898 1437 37.9078
65.3074 1323 36.3731
65.4249 1261 35.5106
65.5425 1223 34.9714
65.6601 1278 35.7491
65.7777 1324 36.3868
65.8952 1472 38.3667
66.0128 1521 39
66.1304 1605 40.0625
66.2479 1605 40.0625
66.3655 1757 41.9166
66.483 1834 42.8252
66.6005 1719 41.4608
66.718 1730 41.5933
66.8355 1733 41.6293
66.953 1687 41.0731
67.0705 1638 40.4722
67.1879 1499 38.7169
67.3054 1447 38.0395
67.4228 1339 36.5923
67.5402 1423 37.7227
67.6576 1430 37.8153
67.7749 1296 36
67.8923 1454 38.1314
68.0096 1443 37.9868
68.1269 1435 37.8814
68.2442 1512 38.8844
68.3614 1403 37.4566
68.4787 1425 37.7492
68.5958 1390 37.2827
68.713 1401 37.4299
68.8302 1209 34.7707
68.9473 1034 32.1559
69.0643 1029 32.078
69.1814 1007 31.7333
69.2984 1048 32.3728
69.4154 1181 34.3657
69.5323 1303 36.0971
69.6492 1337 36.565
69.7661 1427 37.7757
69.8829 1502 38.7556
69.9997 1538 39.2173
70.1165 1564 39.5474
70.2332 1542 39.2683
70.3499 1572 39.6485
70.4665 1538 39.2173
70.5831 1466 38.2884
70.6996 1441 37.9605
70.8161 1431 37.8286
70.9326 1353 36.7831
71.049 1289 35.9026
71.1653 1217 34.8855
71.2817 1204 34.6987
71.3979 1157 34.0147
71.5141 1270 35.6371
71.6303 1201 34.6554
71.7464 1146 33.8526
71.8624 0 1
71.9784 0 1
72.0944 0 1
72.2102 0 1
72.3261 0 1
72.4418 0 1
72.5575 0 1
72.6732 0 1
75.1054 0 1
75.2209 0 1
75.3365 0 1
75.4521 0 1
75.5678 0 1
75.6835 0 1
75.7993 0 1
75.9151 0 1
76.031 0 1
76.147 1277 35.7351
76.263 1281 35.7911
76.3791 1243 35.2562
76.4952 1164 34.1174
76.6113 1230 35.0714
76.7276 1344 36.6606
76.8438 1340 36.606
76.9601 1344 36.6606
77.0765 1259 35.4824
77.1929 1328 36.4417
77.3093 1422 37.7094
77.4258 1431 37.8286
77.5423 1419 37.6696
77.6589 1332 36.4966
77.7755 1181 34.3657
77.8921 1115 33.3916
78.0088 988 31.4325
78.1256 927 30.4467
78.2423 944 30.7246
78.3591 976 31.241
78.4759 1053 32.45
78.5928 1231 35.0856
78.7097 1319 36.318
78.8266 1422 37.7094
78.9436 1503 38.7685
79.0606 1420 37.6829
79.1776 1493 38.6394
79.2946 1513 38.8973
79.4117 1482 38.4968
79.5288 1499 38.7169
79.6459 1406 37.4967
79.7631 1333 36.5103
79.8802 1227 35.0286
79.9974 1173 34.2491
80.1147 1197 34.5977
80.2319 1210 34.7851
80.3491 1229 35.0571
80.4664 1240 35.2136
80.5837 1256 35.4401
80.701 1228 35.0428
80.8183 1247 35.3129
80.9357 1248 35.327
81.053 1228 35.0428
81.1704 1252 35.3836
81.2877 1195 34.5688
81.4051 1114 33.3766
81.5225 940 30.6594
81.6399 887 29.7825
81.7573 854 29.2233
81.8747 781 27.9464
81.9922 861 29.3428
82.1096 997 31.5753
82.227 1156 34
82.3444 1189 34.4819
82.4619 1252 35.3836
82.5793 1316 36.2767
82.6967 1486 38.5487
82.8142 1343 36.647
82.9316 1343 36.647
83.049 1295 35.9861
83.1664 1304 36.1109
83.2838 1261 35.5106
83.4012 1119 33.4515
83.5186 1096 33.1059
83.636 1033 32.1403
83.7534 1094 33.0757
83.8708 1139 33.7491
83.9881 1176 34.2929
84.1055 1141 33.7787
84.2228 1111 33.3317
84.3401 1154 33.9706
84.4575 1179 34.3366
84.5747 1197 34.5977
84.692 1251 35.3695
84.8093 1188 34.4674
84.9265 1126 33.5559
85.0437 879 29.6479
85.1609 802 28.3196
85.2781 739 27.1846
85.3952 769 27.7308
85.5123 771 27.7669
85.6294 932 30.5287
85.7465 1128 33.5857
85.8636 1265 35.5668
85.9806 1214 34.8425
86.0976 1329 36.4555
86.2145 1335 36.5377
86.3315 1489 38.5876
86.4484 1398 37.3898
86.5652 1449 38.0657
86.682 1486 38.5487
86.7988 1441 37.9605
86.9156 1365 36.9459
87.0323 1239 35.1994
87.149 1339 36.5923
87.2657 1219 34.9142
87.3823 1254 35.4119
87.4988 1312 36.2215
87.6154 1242 35.242
87.7318 1308 36.1663
87.8483 1355 36.8103
87.9647 1345 36.6742
88.081 1314 36.2491
88.1973 1404 37.47
88.3136 1382 37.1753
88.4298 1312 36.2215
88.546 1090 33.0151
88.6621 1020 31.9374
88.7781 897 29.95
88.8942 0 1
89.0101 0 1
89.126 0 1
89.2419 0 1
89.3577 0 1
89.4734 0 1
89.5891 0 1
89.7047 0 1
89.8203 0 1
89.9358 0 1
92.3269 0 1
92.4424 0 1
92.558 0 1
92.6736 0 1
92.7893 0 1
92.905 0 1
93.0208 0 1
93.1366 0 1
93.2525 0 1
93.3685 0 1
93.4845 0 1
93.6005 1393 37.3229
93.7167 1416 37.6298
93.8328 1348 36.7151
93.949 1299 36.0416
94.0653 1130 33.6155
94.1816 973 31.1929
94.2979 914 30.2324
94.4143 865 29.4109
94.5307 936 30.5941
94.6472 990 31.4643
94.7637 1202 34.6699
94.8803 1298 36.0278
94.9969 1417 37.6431
95.1135 1412 37.5766
95.2302 1554 39.4208
95.3469 1614 40.1746
95.4637 1558 39.4715
95.5805 1602 40.025
95.6973 1591 39.8873
95.8142 1606 40.0749
95.9311 1563 39.5348
96.048 1536 39.1918
96.1649 1455 38.1445
96.2819 1414 37.6032
96.3989 1389 37.2693
96.516 1510 38.8587
96.633 1395 37.3497
96.7501 1418 37.6563
96.8673 1483 38.5097
96.9844 1413 37.5899
97.1016 1449 38.0657
97.2188 1534 39.1663
97.336 1558 39.4715
97.4532 1469 38.3275
97.5704 1484 38.5227
97.6877 1232 35.0999
97.805 1150 33.9116
97.9223 941 30.6757
98.0396 911 30.1828
98.1569 861 29.3428
98.2743 936 30.5941
98.3916 1107 33.2716
98.509 1365 36.9459
98.6264 1433 37.855
98.7438 1528 39.0896
98.8612 1633 40.4104
98.9786 1616 40.1995
99.096 1587 39.8372
99.2134 1665 40.8044
99.3308 1608 40.0999
99.4482 1692 41.1339
99.5656 1607 40.0874
99.6831 1511 38.8716
99.8005 1575 39.6863
99.9179 1559 39.4842
100.035 1521 39
100.153 1456 38.1576
100.27 1495 38.6652
100.388 1454 38.1314
100.505 1421 37.6962
100.622 1436 37.8946
100.74 1501 38.7427
100.857 1485 38.5357
100.975 1553 39.4081
101.092 1560 39.4968
101.209 1382 37.1753
101.327 1185 34.4238
101.444 1028 32.0624
101.561 899 29.9833
101.679 935 30.5778
101.796 822 28.6705
101.913 1118 33.4365
102.03 1265 35.5668
102.148 1515 38.923
102.265 1529 39.1024
102.382 1692 41.1339
102.499 1655 40.6817
102.616 1744 41.7612
102.733 1673 40.9023
102.851 1763 41.9881
102.968 1769 42.0595
103.085 1734 41.6413
103.202 1698 41.2068
103.319 1682 41.0122
103.436 1599 39.9875
103.552 1644 40.5463
103.669 1604 40.05
103.786 1651 40.6325
103.903 1562 39.5221
104.02 1634 40.4228
104.137 1706 41.3038
104.253 1620 40.2492
104.37 1673 40.9023
104.487 1702 41.2553
104.603 1604 40.05
104.72 1492 38.6264
104.836 1238 35.1852
104.953 1119 33.4515
105.069 973 31.1929
105.186 1012 31.8119
105.302 1066 32.6497
105.418 1277 35.7351
105.535 1515 38.923
105.651 1666 40.8167
105.767 1744 41.7612
105.883 1831 42.7902
105.999 1886 43.4281
106.115 0 1
106.231 0 1
106.347 0 1
106.463 0 1
106.579 0 1
106.694 0 1
106.81 0 1
106.926 0 1
107.041 0 1
107.157 0 1
109.576 0 1
109.692 0 1
109.807 0 1
109.923 0 1
110.039 0 1
110.155 0 1
110.27 0 1
110.386 0 1
110.502 0 1
110.618 1364 36.9324
110.735 1647 40.5832
110.851 1704 41.2795
110.967 1729 41.5812
111.083 1754 41.8808
111.199 1805 42.4853
111.316 1799 42.4146
111.432 1817 42.6263
111.549 1714 41.4005
111.665 1749 41.821
111.782 1740 41.7133
111.898 1714 41.4005
112.015 1726 41.5452
112.132 1616 40.1995
112.248 1701 41.2432
112.365 1630 40.3733
112.482 1567 39.5854
112.599 1624 40.2989
112.716 1619 40.2368
112.832 1593 39.9124
112.949 1623 40.2865
113.066 1584 39.7995
113.183 1563 39.5348
113.3 1276 35.7211
113.417 1138 33.7343
113.534 1029 32.078
113.652 929 30.4795
113.769 920 30.3315
113.886 959 30.9677
114.003 1110 33.3167
114.12 1342 36.6333
114.238 1531 39.128
114.355 1644 40.5463
114.472 1658 40.7185
114.589 1681 41
114.707 1585 39.8121
114.824 1719 41.4608
114.942 1712 41.3763
115.059 1713 41.3884
115.176 1658 40.7185
115.294 1654 40.6694
115.411 1692 41.1339
115.529 1666 40.8167
115.646 1601 40.0125
115.764 1592 39.8999
115.881 1481 38.4838
115.999 1489 38.5876
116.116 1567 39.5854
116.234 1549 39.3573
116.351 1580 39.7492
116.469 1480 38.4708
116.586 1537 39.2046
116.704 1539 39.2301
116.821 1435 37.8814
116.939 1199 34.6266
117.056 1093 33.0606
117.174 1078 32.8329
117.291 904 30.0666
117.409 1063 32.6037
117.526 1068 32.6803
117.644 1196 34.5832
117.761 1445 38.0132
117.879 1552 39.3954
117.996 1593 39.9124
118.114 1634 40.4228
118.231 1674 40.9145
118.349 1685 41.0488
118.466 1650 40.6202
118.584 1661 40.7554
118.701 1657 40.7063
118.819 1702 41.2553
118.936 1657 40.7063
119.053 1597 39.9625
119.171 1656 40.694
119.288 1628 40.3485
119.405 1577 39.7115
119.523 1526 39.064
119.64 1500 38.7298
119.757 1530 39.1152
119.875 1504 38.7814
119.992 1458 38.1838
120.109 1458 38.1838
120.226 1504 38.7814
120.343 1449 38.0657
120.46 1380 37.1484
120.578 1205 34.7131
120.695 1149 33.8969
120.812 1005 31.7017
120.929 1001 31.6386
121.046 976 31.241
121.163 975 31.225
121.279 1174 34.2637
121.396 1381 37.1618
121.513 1454 38.1314
121.63 1518 38.9615
121.747 1607 40.0874
121.863 1594 39.9249
121.98 1601 40.0125
122.097 1569 39.6106
122.213 1671 40.8779
122.33 1607 40.0874
122.446 1668 40.8412
122.563 1610 40.1248
122.679 1535 39.1791
122.795 1572 39.6485
122.912 1587 39.8372
123.028 1565 39.5601
123.144 1499 38.7169
123.26 1391 37.2961
123.377 0 1
123.493 0 1
123.609 0 1
123.725 0 1
123.84 0 1
123.956 0 1
124.072 0 1
124.188 0 1
124.303 0 1
124.419 0 1
126.852 0 1
126.968 0 1
127.083 0 1
127.199 0 1
127.315 0 1
127.431 0 1
127.547 0 1
127.663 0 1
127.779 0 1
127.895 0 1
128.011 0 1
128.127 0 1
128.243 0 1
128.359 1674 40.9145
128.476 1703 41.2674
128.592 1667 40.8289
128.708 1714 41.4005
128.825 1722 41.497
128.941 1698 41.2068
129.058 1645 40.5586
129.174 1701 41.2432
129.291 1592 39.8999
129.408 1535 39.1791
129.524 1368 36.9865
129.641 1303 36.0971
129.758 1184 34.4093
129.875 1112 33.3467
129.992 1063 32.6037
130.108 1090 33.0151
130.225 1253 35.3977
130.342 1452 38.1051
130.459 1482 38.4968
130.576 1632 40.398
130.693 1583 39.7869
130.81 1654 40.6694
130.928 1690 41.1096
131.045 1743 41.7493
131.162 1717 41.4367
131.279 1777 42.1545
131.396 1797 42.391
131.513 1748 41.8091
131.631 1748 41.8091
131.748 1736 41.6653
131.865 1738 41.6893
131.983 1724 41.5211
132.1 1727 41.5572
132.217 1687 41.0731
132.335 1671 40.8779
132.452 1689 41.0974
132.57 1668 40.8412
132.687 1656 40.694
132.804 1679 40.9756
132.922 1548 39.3446
133.039 1477 38.4318
133.157 1282 35.805
133.274 1286 35.8608
133.392 1148 33.8821
133.509 1049 32.3883
133.627 1035 32.1714
133.744 1195 34.5688
133.862 1340 36.606
133.979 1449 38.0657
134.097 1502 38.7556
134.214 1543 39.281
134.332 1563 39.5348
134.449 1667 40.8289
134.567 1720 41.4729
134.684 1781 42.2019
134.802 1753 41.8688
134.919 1773 42.107
135.037 1791 42.3202
135.154 1707 41.3159
135.272 1695 41.1704
135.389 1741 41.7253
135.507 1729 41.5812
135.624 1762 41.9762
135.742 1679 40.9756
135.859 1709 41.3401
135.977 1617 40.2119
136.094 1671 40.8779
136.211 1655 40.6817
136.329 1598 39.975
136.446 1617 40.2119
136.564 1646 40.5709
136.681 1407 37.51
136.798 1398 37.3898
136.915 1272 35.6651
137.033 1146 33.8526
137.15 1128 33.5857
137.267 1092 33.0454
137.384 1157 34.0147
137.502 1295 35.9861
137.619 1429 37.8021
137.736 1510 38.8587
137.853 1471 38.3536
137.97 1586 39.8246
138.087 1652 40.6448
138.204 1802 42.45
138.321 1853 43.0465
138.438 1834 42.8252
138.555 1831 42.7902
138.672 1746 41.7852
138.788 1764 42
138.905 1781 42.2019
139.022 1832 42.8019
139.139 1777 42.1545
139.255 1748 41.8091
139.372 1799 42.4146
139.488 1806 42.4971
139.605 1798 42.4028
139.721 1832 42.8019
139.838 1879 43.3474
139.954 1768 42.0476
140.071 1726 41.5452
140.187 1693 41.1461
140.303 1576 39.6989
140.419 1439 37.9342
140.535 1264 35.5528
140.652 1193 34.5398
140.768 0 1
140.884 0 1
141 0 1
141.115 0 1
141.231 0 1
141.347 0 1
141.463 0 1
141.578 0 1
141.694 0 1
144.104 0 1
144.219 0 1
144.335 0 1
144.45 0 1
144.566 0 1
144.682 0 1
144.798 0 1
144.914 0 1
145.03 0 1
145.146 1260 35.4965
145.262 1264 35.5528
145.378 1194 34.5543
145.494 1069 32.6956
145.61 1056 32.4962
145.726 983 31.3528
145.842 1016 31.8748
145.959 902 30.0333
146.075 875 29.5804
146.192 903 30.05
146.308 926 30.4302
146.425 1035 32.1714
146.541 1097 33.121
146.658 1187 34.4529
146.774 1211 34.7994
146.891 1347 36.7015
147.008 1315 36.2629
147.125 1342 36.6333
147.241 1342 36.6333
147.358 1402 37.4433
147.475 1378 37.1214
147.592 1346 36.6879
147.709 1363 36.9188
147.826 1308 36.1663
147.943 1337 36.565
148.06 1337 36.565
148.177 1333 36.5103
148.294 1332 36.4966
148.411 1342 36.6333
148.528 1319 36.318
148.645 1313 36.2353
148.762 1290 35.9166
148.88 1236 35.1568
148.997 1280 35.7771
149.114 1308 36.1663
149.231 1201 34.6554
149.349 1099 33.1512
149.466 1079 32.8481
149.583 984 31.3688
149.701 931 30.5123
149.818 934 30.5614
149.935 900 30
150.053 880 29.6648
150.17 940 30.6594
150.287 1039 32.2335
150.405 1145 33.8378
150.522 1258 35.4683
150.64 1299 36.0416
150.757 1251 35.3695
150.875 1397 37.3765
150.992 1379 37.1349
151.11 1337 36.565
151.227 1352 36.7696
151.344 1401 37.4299
151.462 1366 36.9594
151.579 1358 36.8511
151.697 1299 36.0416
151.814 1391 37.2961
151.932 1357 36.8375
152.049 1343 36.647
152.167 1296 36
152.284 1333 36.5103
152.402 1340 36.606
152.519 1288 35.8887
152.636 1380 37.1484
152.754 1255 35.426
152.871 1235 35.1426
152.989 1148 33.8821
153.106 1085 32.9393
153.223 1046 32.3419
153.341 1004 31.686
153.458 905 30.0832
153.575 915 30.249
153.693 947 30.7734
153.81 983 31.3528
153.927 1116 33.4066
154.044 1239 35.1994
154.162 1264 35.5528
154.279 1410 37.55
154.396 1486 38.5487
154.513 1422 37.7094
154.63 1528 39.0896
154.747 1562 39.5221
154.864 1503 38.7685
154.981 1540 39.2428
155.098 1478 38.4448
155.215 1505 38.7943
155.332 1472 38.3667
155.449 1500 38.7298
155.566 1461 38.223
155.683 1497 38.6911
155.8 1438 37.921
155.917 1536 39.1918
156.033 1419 37.6696
156.15 0 1
156.267 0 1
156.383 0 1
156.5 0 1
156.617 0 1
156.733 0 1
156.85 0 1
156.966 0 1
157.082 0 1
157.199 0 1
157.315 0 1
157.431 0 1
157.547 0 1
157.664 0 1
157.78 0 1
157.896 0 1
158.012 0 1
158.128 0 1
158.244 0 1
158.359 0 1
158.475 0 1
158.591 0 1
158.706 0 1
