
6.15755 0 1
6.2731 0 1
6.3887 0 1
6.50437 0 1
6.62009 0 1
6.73587 0 1
6.8517 0 1
6.96759 0 1
7.08353 0 1
7.19952 0 1
7.31557 0 1
7.43166 0 1
7.54781 0 1
7.664 0 1
7.78024 0 1
7.89653 0 1
8.01286 0 1
8.12924 0 1
8.24567 0 1
8.36213 0 1
8.47864 0 1
8.59519 0 1
8.71178 0 1
8.82841 0 1
8.94508 0 1
9.06179 0 1
9.17853 0 1
9.29531 0 1
9.41212 0 1
9.52897 0 1
9.64584 0 1
9.76276 0 1
9.8797 0 1
9.99667 0 1
10.1137 0 1
10.2307 0 1
10.3478 0 1
10.4648 0 1
10.5819 0 1
10.6991 0 1
10.8162 0 1
10.9334 0 1
11.0506 0 1
11.1678 0 1
11.285 0 1
11.4023 0 1
11.5196 0 1
11.6369 0 1
11.7542 0 1
11.8715 0 1
11.9888 0 1
12.1062 0 1
12.2235 0 1
12.3409 0 1
12.4582 0 1
12.5756 0 1
12.693 0 1
12.8104 0 1
12.9278 0 1
13.0452 0 1
13.1626 0 1
13.28 0 1
13.3974 0 1
13.5149 0 1
13.6323 0 1
13.7497 0 1
13.8671 0 1
13.9845 0 1
14.1019 0 1
14.2193 0 1
14.3367 0 1
14.4541 0 1
14.5714 0 1
14.6888 0 1
14.8062 0 1
14.9235 0 1
15.0408 1024 32
15.1581 1037 32.2025
15.2755 1059 32.5423
15.3927 1096 33.1059
15.51 1025 32.0156
15.6273 980 31.305
15.7445 902 30.0333
15.8617 904 30.0666
15.9789 966 31.0805
16.0961 972 31.1769
16.2132 945 30.7409
16.3304 969 31.1288
16.4475 905 30.0832
16.5646 938 30.6268
16.6816 847 29.1033
16.7986 830 28.8097
16.9156 845 29.0689
17.0326 848 29.1204
17.1496 839 28.9655
17.2665 788 28.0713
17.3833 878 29.6311
17.5002 827 28.7576
17.617 838 28.9482
17.7338 844 29.0517
17.8505 826 28.7402
17.9672 783 27.9821
18.0839 839 28.9655
18.2005 810 28.4605
18.3171 807 28.4077
18.4337 847 29.1033
18.5502 782 27.9643
18.6666 881 29.6816
18.7831 816 28.5657
18.8994 796 28.2135
19.0158 797 28.2312
19.1321 778 27.8927
19.2483 705 26.5518
19.3645 659 25.671
19.4806 667 25.8263
19.5967 684 26.1534
19.7128 721 26.8514
19.8288 616 24.8193
19.9447 526 22.9347
20.0606 0 1
20.1764 0 1
20.2922 0 1
20.4079 0 1
20.5236 0 1
20.6392 0 1
20.7548 0 1
20.8702 0 1
23.3078 0 1
23.4233 0 1
23.539 0 1
23.6547 0 1
23.7704 0 1
23.8862 0 1
24.0021 0 1
24.118 0 1
24.234 0 1
24.35 0 1
24.4661 298 17.2627
24.5822 386 19.6469
24.6984 408 20.199
24.8146 516 22.7156
24.9309 624 24.98
25.0472 718 26.7955
25.1636 709 26.6271
25.28 756 27.4955
25.3965 838 28.9482
25.513 851 29.1719
25.6296 904 30.0666
25.7462 934 30.5614
25.8628 884 29.7321
25.9795 840 28.9828
26.0962 892 29.8664
26.213 799 28.2666
26.3298 806 28.3901
26.4466 824 28.7054
26.5635 733 27.074
26.6804 738 27.1662
26.7973 690 26.2679
26.9143 695 26.3629
27.0313 639 25.2784
27.1483 690 26.2679
27.2653 693 26.3249
27.3824 720 26.8328
27.4996 732 27.0555
27.6167 752 27.4226
27.7339 661 25.7099
27.8511 766 27.6767
27.9683 711 26.6646
28.0855 689 26.2488
28.2028 714 26.7208
28.3201 733 27.074
28.4374 731 27.037
28.5547 740 27.2029
28.6721 769 27.7308
28.7894 732 27.0555
28.9068 752 27.4226
29.0242 781 27.9464
29.1416 765 27.6586
29.259 727 26.9629
29.3764 706 26.5707
29.4939 739 27.1846
29.6113 724 26.9072
29.7288 719 26.8142
29.8463 725 26.9258
29.9638 696 26.3818
30.0812 642 25.3377
30.1987 620 24.8998
30.3162 648 25.4558
30.4337 611 24.7184
30.5512 662 25.7294
30.6687 665 25.7876
30.7862 711 26.6646
30.9037 696 26.3818
31.0212 758 27.5318
31.1387 799 28.2666
31.2562 695 26.3629
31.3737 706 26.5707
31.4912 705 26.5518
31.6087 675 25.9808
31.7262 699 26.4386
31.8436 714 26.7208
31.9611 730 27.0185
32.0785 715 26.7395
32.1959 695 26.3629
32.3134 693 26.3249
32.4308 670 25.8844
32.5482 646 25.4165
32.6655 677 26.0192
32.7829 666 25.807
32.9002 636 25.219
33.0176 621 24.9199
33.1349 613 24.7588
33.2522 674 25.9615
33.3694 577 24.0208
33.4867 643 25.3574
33.6039 570 23.8747
33.7211 642 25.3377
33.8383 660 25.6905
33.9554 564 23.7487
34.0725 583 24.1454
34.1896 609 24.6779
34.3067 657 25.632
34.4237 677 26.0192
34.5407 705 26.5518
34.6577 706 26.5707
34.7746 692 26.3059
34.8915 709 26.6271
35.0084 633 25.1595
35.1252 683 26.1343
35.242 636 25.219
35.3587 577 24.0208
35.4755 634 25.1794
35.5921 641 25.318
35.7088 661 25.7099
35.8254 663 25.7488
35.9419 627 25.04
36.0584 656 25.6125
36.1749 598 24.454
36.2913 593 24.3516
36.4077 596 24.4131
36.524 547 23.388
36.6403 575 23.9792
36.7565 544 23.3238
36.8727 471 21.7025
36.9889 423 20.567
37.1049 421 20.5183
37.221 0 1
37.3369 0 1
37.4529 0 1
37.5687 0 1
37.6845 0 1
37.8003 0 1
37.916 0 1
38.0316 0 1
38.1472 0 1
40.5851 0 1
40.7008 0 1
40.8164 0 1
40.9322 0 1
41.048 0 1
41.1639 0 1
41.2798 0 1
41.3958 0 1
41.5118 0 1
41.6279 0 1
41.744 277 16.6433
41.8602 350 18.7083
41.9765 397 19.9249
42.0928 418 20.445
42.2091 497 22.2935
42.3255 468 21.6333
42.4419 475 21.7945
42.5584 463 21.5174
42.675 492 22.1811
42.7915 458 21.4009
42.9081 483 21.9773
43.0248 467 21.6102
43.1415 480 21.9089
43.2582 472 21.7256
43.375 513 22.6495
43.4918 531 23.0434
43.6087 519 22.7816
43.7256 468 21.6333
43.8425 529 23
43.9595 505 22.4722
44.0765 517 22.7376
44.1935 526 22.9347
44.3106 477 21.8403
44.4277 525 22.9129
44.5448 469 21.6564
44.6619 558 23.622
44.7791 541 23.2594
44.8963 555 23.5584
45.0136 593 24.3516
45.1308 559 23.6432
45.2481 557 23.6008
45.3654 577 24.0208
45.4827 544 23.3238
45.6001 553 23.516
45.7174 599 24.4745
45.8348 566 23.7908
45.9522 519 22.7816
46.0697 527 22.9565
46.1871 474 21.7715
46.3046 436 20.8806
46.422 451 21.2368
46.5395 456 21.3542
46.657 435 20.8567
46.7745 459 21.4243
46.892 505 22.4722
47.0096 488 22.0907
47.1271 526 22.9347
47.2446 531 23.0434
47.3622 509 22.561
47.4797 505 22.4722
47.5973 497 22.2935
47.7149 474 21.7715
47.8324 475 21.7945
47.95 504 22.4499
48.0675 484 22
48.1851 517 22.7376
48.3027 504 22.4499
48.4202 478 21.8632
48.5378 547 23.388
48.6554 525 22.9129
48.7729 533 23.0868
48.8904 471 21.7025
49.008 490 22.1359
49.1255 567 23.8118
49.243 541 23.2594
49.3605 465 21.5639
49.478 489 22.1133
49.5955 446 21.1187
49.713 450 21.2132
49.8304 425 20.6155
49.9479 401 20.025
50.0653 427 20.664
50.1827 424 20.5913
50.3001 452 21.2603
50.4175 436 20.8806
50.5348 516 22.7156
50.6521 512 22.6274
50.7694 648 25.4558
50.8867 613 24.7588
51.004 650 25.4951
51.1212 648 25.4558
51.2384 685 26.1725
51.3556 625 25
51.4727 624 24.98
51.5899 618 24.8596
51.707 633 25.1595
51.824 647 25.4362
51.9411 666 25.807
52.0581 656 25.6125
52.175 650 25.4951
52.2919 575 23.9792
52.4088 564 23.7487
52.5257 524 22.891
52.6425 556 23.5797
52.7593 570 23.8747
52.876 540 23.2379
52.9927 486 22.0454
53.1094 525 22.9129
53.226 488 22.0907
53.3426 491 22.1585
53.4591 512 22.6274
53.5756 594 24.3721
53.692 674 25.9615
53.8084 754 27.4591
53.9248 904 30.0666
54.0411 1214 34.8425
54.1573 1766 42.0238
54.2735 0 1
54.3896 0 1
54.5057 0 1
54.6217 0 1
54.7377 0 1
54.8537 0 1
54.9695 0 1
55.0853 0 1
55.2011 0 1
55.3168 0 1
55.4324 0 1
57.824 0 1
57.9396 0 1
58.0553 0 1
58.1711 0 1
58.2869 0 1
58.4028 0 1
58.5187 0 1
58.6347 0 1
58.7508 0 1
58.8669 0 1
58.983 4566 67.5722
59.0992 4951 70.3633
59.2155 4854 69.6707
59.3318 4731 68.7823
59.4482 4488 66.9925
59.5646 4123 64.2106
59.681 3918 62.5939
59.7975 3516 59.2959
59.9141 3079 55.4887
60.0306 2633 51.3128
60.1473 2308 48.0416
60.2639 2081 45.618
60.3807 1790 42.3084
60.4974 1703 41.2674
60.6142 1714 41.4005
60.731 1732 41.6173
60.8479 1975 44.441
60.9648 2307 48.0312
61.0818 2454 49.5379
61.1987 2614 51.1273
61.3158 2597 50.9608
61.4328 2644 51.4198
61.5499 2610 51.0882
61.667 2596 50.951
61.7841 2511 50.1099
61.9013 2427 49.2646
62.0185 1972 44.4072
62.1357 1763 41.9881
62.253 1553 39.4081
62.3702 1232 35.0999
62.4875 1018 31.9061
62.6049 895 29.9166
62.7222 814 28.5307
62.8396 686 26.1916
62.9569 680 26.0768
63.0743 649 25.4755
63.1918 647 25.4362
63.3092 570 23.8747
63.4267 642 25.3377
63.5441 587 24.2281
63.6616 580 24.0832
63.7791 556 23.5797
63.8966 573 23.9374
64.0142 586 24.2074
64.1317 551 23.4734
64.2492 535 23.1301
64.3668 565 23.7697
64.4843 570 23.8747
64.6019 551 23.4734
64.7195 535 23.1301
64.837 520 22.8035
64.9546 551 23.4734
65.0722 520 22.8035
65.1898 518 22.7596
65.3074 501 22.383
65.4249 477 21.8403
65.5425 510 22.5832
65.6601 463 21.5174
65.7777 478 21.8632
65.8952 480 21.9089
66.0128 517 22.7376
66.1304 527 22.9565
66.2479 474 21.7715
66.3655 530 23.0217
66.483 488 22.0907
66.6005 612 24.7386
66.718 534 23.1084
66.8355 551 23.4734
66.953 533 23.0868
67.0705 543 23.3024
67.1879 586 24.2074
67.3054 541 23.2594
67.4228 548 23.4094
67.5402 532 23.0651
67.6576 553 23.516
67.7749 561 23.6854
67.8923 531 23.0434
68.0096 562 23.7065
68.1269 534 23.1084
68.2442 540 23.2379
68.3614 501 22.383
68.4787 519 22.7816
68.5958 506 22.4944
68.713 521 22.8254
68.8302 502 22.4054
68.9473 495 22.2486
69.0643 496 22.2711
69.1814 474 21.7715
69.2984 495 22.2486
69.4154 463 21.5174
69.5323 474 21.7715
69.6492 482 21.9545
69.7661 496 22.2711
69.8829 433 20.8087
69.9997 490 22.1359
70.1165 492 22.1811
70.2332 509 22.561
70.3499 458 21.4009
70.4665 441 21
70.5831 439 20.9523
70.6996 410 20.2485
70.8161 342 18.4932
70.9326 350 18.7083
71.049 324 18
71.1653 299 17.2916
71.2817 306 17.4929
71.3979 300 17.3205
71.5141 292 17.088
71.6303 232 15.2315
71.7464 205 14.3178
71.8624 0 1
71.9784 0 1
72.0944 0 1
72.2102 0 1
72.3261 0 1
72.4418 0 1
72.5575 0 1
72.6732 0 1
75.1054 0 1
75.2209 0 1
75.3365 0 1
75.4521 0 1
75.5678 0 1
75.6835 0 1
75.7993 0 1
75.9151 0 1
76.031 0 1
76.147 317 17.8045
76.263 331 18.1934
76.3791 381 19.5192
76.4952 395 19.8746
76.6113 434 20.8327
76.7276 425 20.6155
76.8438 437 20.9045
76.9601 419 20.4695
77.0765 432 20.7846
77.1929 434 20.8327
77.3093 446 21.1187
77.4258 441 21
77.5423 398 19.9499
77.6589 406 20.1494
77.7755 430 20.7364
77.8921 371 19.2614
78.0088 385 19.6214
78.1256 371 19.2614
78.2423 412 20.2978
78.3591 426 20.6398
78.4759 434 20.8327
78.5928 410 20.2485
78.7097 392 19.799
78.8266 393 19.8242
78.9436 414 20.347
79.0606 460 21.4476
79.1776 429 20.7123
79.2946 453 21.2838
79.4117 481 21.9317
79.5288 475 21.7945
79.6459 431 20.7605
79.7631 453 21.2838
79.8802 465 21.5639
79.9974 466 21.587
80.1147 442 21.0238
80.2319 448 21.166
80.3491 442 21.0238
80.4664 492 22.1811
80.5837 468 21.6333
80.701 451 21.2368
80.8183 440 20.9762
80.9357 470 21.6795
81.053 430 20.7364
81.1704 401 20.025
81.2877 426 20.6398
81.4051 389 19.7231
81.5225 426 20.6398
81.6399 390 19.7484
81.7573 397 19.9249
81.8747 418 20.445
81.9922 409 20.2237
82.1096 432 20.7846
82.227 409 20.2237
82.3444 417 20.4206
82.4619 404 20.0998
82.5793 396 19.8997
82.6967 459 21.4243
82.8142 430 20.7364
82.9316 486 22.0454
83.049 470 21.6795
83.1664 496 22.2711
83.2838 460 21.4476
83.4012 428 20.6882
83.5186 405 20.1246
83.636 479 21.8861
83.7534 465 21.5639
83.8708 473 21.7486
83.9881 450 21.2132
84.1055 462 21.4942
84.2228 460 21.4476
84.3401 510 22.5832
84.4575 461 21.4709
84.5747 458 21.4009
84.692 457 21.3776
84.8093 396 19.8997
84.9265 420 20.4939
85.0437 393 19.8242
85.1609 413 20.3224
85.2781 438 20.9284
85.3952 421 20.5183
85.5123 422 20.5426
85.6294 457 21.3776
85.7465 450 21.2132
85.8636 448 21.166
85.9806 440 20.9762
86.0976 460 21.4476
86.2145 449 21.1896
86.3315 480 21.9089
86.4484 442 21.0238
86.5652 502 22.4054
86.682 446 21.1187
86.7988 521 22.8254
86.9156 457 21.3776
87.0323 447 21.1424
87.149 454 21.3073
87.2657 463 21.5174
87.3823 466 21.587
87.4988 425 20.6155
87.6154 457 21.3776
87.7318 379 19.4679
87.8483 374 19.3391
87.9647 410 20.2485
88.081 363 19.0526
88.1973 339 18.412
88.3136 313 17.6918
88.4298 265 16.2788
88.546 246 15.6844
88.6621 214 14.6287
88.7781 212 14.5602
88.8942 0 1
89.0101 0 1
89.126 0 1
89.2419 0 1
89.3577 0 1
89.4734 0 1
89.5891 0 1
89.7047 0 1
89.8203 0 1
89.9358 0 1
92.3269 0 1
92.4424 0 1
92.558 0 1
92.6736 0 1
92.7893 0 1
92.905 0 1
93.0208 0 1
93.1366 0 1
93.2525 0 1
93.3685 0 1
93.4845 0 1
93.6005 343 18.5203
93.7167 393 19.8242
93.8328 429 20.7123
93.949 448 21.166
94.0653 415 20.3715
94.1816 383 19.5704
94.2979 405 20.1246
94.4143 392 19.799
94.5307 411 20.2731
94.6472 420 20.4939
94.7637 494 22.2261
94.8803 410 20.2485
94.9969 489 22.1133
95.1135 472 21.7256
95.2302 445 21.095
95.3469 433 20.8087
95.4637 454 21.3073
95.5805 511 22.6053
95.6973 471 21.7025
95.8142 478 21.8632
95.9311 394 19.8494
96.048 483 21.9773
96.1649 504 22.4499
96.2819 507 22.5167
96.3989 485 22.0227
96.516 452 21.2603
96.633 533 23.0868
96.7501 538 23.1948
96.8673 505 22.4722
96.9844 510 22.5832
97.1016 476 21.8174
97.2188 452 21.2603
97.336 456 21.3542
97.4532 425 20.6155
97.5704 460 21.4476
97.6877 422 20.5426
97.805 450 21.2132
97.9223 406 20.1494
98.0396 418 20.445
98.1569 423 20.567
98.2743 457 21.3776
98.3916 521 22.8254
98.509 504 22.4499
98.6264 475 21.7945
98.7438 487 22.0681
98.8612 463 21.5174
98.9786 457 21.3776
99.096 468 21.6333
99.2134 504 22.4499
99.3308 491 22.1585
99.4482 517 22.7376
99.5656 518 22.7596
99.6831 488 22.0907
99.8005 527 22.9565
99.9179 478 21.8632
100.035 525 22.9129
100.153 482 21.9545
100.27 512 22.6274
100.388 533 23.0868
100.505 487 22.0681
100.622 506 22.4944
100.74 466 21.587
100.857 457 21.3776
100.975 456 21.3542
101.092 521 22.8254
101.209 426 20.6398
101.327 488 22.0907
101.444 451 21.2368
101.561 487 22.0681
101.679 467 21.6102
101.796 496 22.2711
101.913 549 23.4307
102.03 490 22.1359
102.148 526 22.9347
102.265 563 23.7276
102.382 567 23.8118
102.499 515 22.6936
102.616 597 24.4336
102.733 616 24.8193
102.851 661 25.7099
102.968 651 25.5147
103.085 674 25.9615
103.202 768 27.7128
103.319 818 28.6007
103.436 889 29.8161
103.552 952 30.8545
103.669 1033 32.1403
103.786 1050 32.4037
103.903 1132 33.6452
104.02 1127 33.5708
104.137 1124 33.5261
104.253 1126 33.5559
104.37 1165 34.1321
104.487 1160 34.0588
104.603 1130 33.6155
104.72 1134 33.6749
104.836 1117 33.4215
104.953 1037 32.2025
105.069 1043 32.2955
105.186 964 31.0483
105.302 934 30.5614
105.418 845 29.0689
105.535 750 27.3861
105.651 738 27.1662
105.767 722 26.8701
105.883 692 26.3059
105.999 601 24.5153
106.115 0 1
106.231 0 1
106.347 0 1
106.463 0 1
106.579 0 1
106.694 0 1
106.81 0 1
106.926 0 1
107.041 0 1
107.157 0 1
109.576 0 1
109.692 0 1
109.807 0 1
109.923 0 1
110.039 0 1
110.155 0 1
110.27 0 1
110.386 0 1
110.502 0 1
110.618 1221 34.9428
110.735 1904 43.6348
110.851 2226 47.1805
110.967 2229 47.2123
111.083 2251 47.4447
111.199 2357 48.5489
111.316 2442 49.4166
111.432 2463 49.6286
111.549 2562 50.6162
111.665 2418 49.1732
111.782 2473 49.7293
111.898 2562 50.6162
112.015 2748 52.4214
112.132 2737 52.3163
112.248 2989 54.6717
112.365 3070 55.4076
112.482 3363 57.9914
112.599 3522 59.3464
112.716 3651 60.4235
112.832 3750 61.2372
112.949 4057 63.6946
113.066 4160 64.4981
113.183 4534 67.335
113.3 4743 68.8694
113.417 4193 64.7534
113.534 3469 58.8982
113.652 2911 53.9537
113.769 2812 53.0283
113.886 3012 54.8817
114.003 3797 61.6198
114.12 5044 71.0211
114.238 5899 76.8049
114.355 6040 77.7174
114.472 6069 77.9038
114.589 5993 77.4145
114.707 5911 76.883
114.824 5859 76.5441
114.942 5770 75.9605
115.059 5809 76.2168
115.176 5374 73.3076
115.294 5005 70.746
115.411 4718 68.6877
115.529 4117 64.1639
115.646 3804 61.6766
115.764 3384 58.1722
115.881 2806 52.9717
115.999 2432 49.3153
116.116 2257 47.5079
116.234 1840 42.8952
116.351 1350 36.7423
116.469 927 30.4467
116.586 656 25.6125
116.704 494 22.2261
116.821 496 22.2711
116.939 393 19.8242
117.056 377 19.4165
117.174 409 20.2237
117.291 392 19.799
117.409 351 18.735
117.526 372 19.2873
117.644 381 19.5192
117.761 403 20.0749
117.879 410 20.2485
117.996 394 19.8494
118.114 471 21.7025
118.231 443 21.0476
118.349 480 21.9089
118.466 442 21.0238
118.584 440 20.9762
118.701 444 21.0713
118.819 410 20.2485
118.936 460 21.4476
119.053 352 18.7617
119.171 411 20.2731
119.288 430 20.7364
119.405 434 20.8327
119.523 404 20.0998
119.64 409 20.2237
119.757 418 20.445
119.875 395 19.8746
119.992 394 19.8494
120.109 392 19.799
120.226 420 20.4939
120.343 375 19.3649
120.46 421 20.5183
120.578 414 20.347
120.695 348 18.6548
120.812 348 18.6548
120.929 341 18.4662
121.046 284 16.8523
121.163 342 18.4932
121.279 340 18.4391
121.396 405 20.1246
121.513 400 20
121.63 396 19.8997
121.747 374 19.3391
121.863 376 19.3907
121.98 354 18.8149
122.097 377 19.4165
122.213 350 18.7083
122.33 328 18.1108
122.446 292 17.088
122.563 302 17.3781
122.679 246 15.6844
122.795 282 16.7929
122.912 247 15.7162
123.028 235 15.3297
123.144 217 14.7309
123.26 197 14.0357
123.377 0 1
123.493 0 1
123.609 0 1
123.725 0 1
123.84 0 1
123.956 0 1
124.072 0 1
124.188 0 1
124.303 0 1
124.419 0 1
126.852 0 1
126.968 0 1
127.083 0 1
127.199 0 1
127.315 0 1
127.431 0 1
127.547 0 1
127.663 0 1
127.779 0 1
127.895 0 1
128.011 0 1
128.127 0 1
128.243 0 1
128.359 424 20.5913
128.476 441 21
128.592 470 21.6795
128.708 475 21.7945
128.825 443 21.0476
128.941 448 21.166
129.058 459 21.4243
129.174 446 21.1187
129.291 429 20.7123
129.408 452 21.2603
129.524 439 20.9523
129.641 441 21
129.758 512 22.6274
129.875 440 20.9762
129.992 445 21.095
130.108 387 19.6723
130.225 432 20.7846
130.342 419 20.4695
130.459 450 21.2132
130.576 514 22.6716
130.693 576 24
130.81 524 22.891
130.928 554 23.5372
131.045 585 24.1868
131.162 566 23.7908
131.279 621 24.9199
131.396 639 25.2784
131.513 686 26.1916
131.631 732 27.0555
131.748 700 26.4575
131.865 830 28.8097
131.983 860 29.3258
132.1 904 30.0666
132.217 912 30.1993
132.335 1037 32.2025
132.452 995 31.5436
132.57 1021 31.9531
132.687 964 31.0483
132.804 1025 32.0156
132.922 1035 32.1714
133.039 1072 32.7414
133.157 1057 32.5115
133.274 1023 31.9844
133.392 1075 32.7872
133.509 1043 32.2955
133.627 1020 31.9374
133.744 997 31.5753
133.862 1012 31.8119
133.979 941 30.6757
134.097 1037 32.2025
134.214 1065 32.6343
134.332 1075 32.7872
134.449 1078 32.8329
134.567 1031 32.1092
134.684 1044 32.311
134.802 1019 31.9218
134.919 998 31.5911
135.037 1036 32.187
135.154 1039 32.2335
135.272 1016 31.8748
135.389 944 30.7246
135.507 946 30.7571
135.624 1068 32.6803
135.742 1066 32.6497
135.859 1027 32.0468
135.977 1073 32.7567
136.094 1105 33.2415
136.211 1055 32.4808
136.329 1059 32.5423
136.446 1035 32.1714
136.564 1067 32.665
136.681 1018 31.9061
136.798 1023 31.9844
136.915 1074 32.7719
137.033 1025 32.0156
137.15 1071 32.7261
137.267 983 31.3528
137.384 985 31.3847
137.502 963 31.0322
137.619 908 30.133
137.736 947 30.7734
137.853 1016 31.8748
137.97 1056 32.4962
138.087 972 31.1769
138.204 1008 31.749
138.321 1020 31.9374
138.438 986 31.4006
138.555 1106 33.2566
138.672 1097 33.121
138.788 1045 32.3265
138.905 927 30.4467
139.022 900 30
139.139 916 30.2655
139.255 940 30.6594
139.372 857 29.2746
139.488 829 28.7924
139.605 840 28.9828
139.721 795 28.1957
139.838 708 26.6083
139.954 672 25.923
140.071 627 25.04
140.187 645 25.3969
140.303 602 24.5357
140.419 534 23.1084
140.535 555 23.5584
140.652 481 21.9317
140.768 0 1
140.884 0 1
141 0 1
141.115 0 1
141.231 0 1
141.347 0 1
141.463 0 1
141.578 0 1
141.694 0 1
144.104 0 1
144.219 0 1
144.335 0 1
144.45 0 1
144.566 0 1
144.682 0 1
144.798 0 1
144.914 0 1
145.03 0 1
145.146 871 29.5127
145.262 892 29.8664
145.378 898 29.9666
145.494 834 28.8791
145.61 941 30.6757
145.726 852 29.189
145.842 889 29.8161
145.959 896 29.9333
146.075 885 29.7489
146.192 845 29.0689
146.308 789 28.0891
146.425 839 28.9655
146.541 829 28.7924
146.658 901 30.0167
146.774 927 30.4467
146.891 881 29.6816
147.008 921 30.348
147.125 848 29.1204
147.241 912 30.1993
147.358 971 31.1609
147.475 1000 31.6228
147.592 893 29.8831
147.709 902 30.0333
147.826 883 29.7153
147.943 937 30.6105
148.06 873 29.5466
148.177 979 31.289
148.294 985 31.3847
148.411 958 30.9516
148.528 1066 32.6497
148.645 983 31.3528
148.762 1034 32.1559
148.88 1018 31.9061
148.997 1041 32.2645
149.114 1006 31.7175
149.231 1027 32.0468
149.349 1084 32.9242
149.466 996 31.5595
149.583 1027 32.0468
149.701 1001 31.6386
149.818 1013 31.8277
149.935 981 31.3209
150.053 980 31.305
150.17 971 31.1609
150.287 957 30.9354
150.405 1005 31.7017
150.522 1005 31.7017
150.64 955 30.9031
150.757 887 29.7825
150.875 968 31.1127
150.992 1001 31.6386
151.11 1021 31.9531
151.227 1000 31.6228
151.344 912 30.1993
151.462 877 29.6142
151.579 916 30.2655
151.697 964 31.0483
151.814 1001 31.6386
151.932 942 30.692
152.049 1018 31.9061
152.167 1097 33.121
152.284 1018 31.9061
152.402 1015 31.8591
152.519 1062 32.5883
152.636 1052 32.4345
152.754 1135 33.6898
152.871 1159 34.0441
152.989 1102 33.1964
153.106 1089 33
153.223 1161 34.0735
153.341 1194 34.5543
153.458 1153 33.9559
153.575 1101 33.1813
153.693 1181 34.3657
153.81 1259 35.4824
153.927 1298 36.0278
154.044 1350 36.7423
154.162 1560 39.4968
154.279 1705 41.2916
154.396 1875 43.3013
154.513 2003 44.7549
154.63 2320 48.1664
154.747 2686 51.8266
154.864 2815 53.0566
154.981 3059 55.3082
155.098 3188 56.4624
155.215 3332 57.7235
155.332 3555 59.6238
155.449 3954 62.8808
155.566 4082 63.8905
155.683 4204 64.8383
155.8 4347 65.9318
155.917 4329 65.7951
156.033 4331 65.8103
156.15 0 1
156.267 0 1
156.383 0 1
156.5 0 1
156.617 0 1
156.733 0 1
156.85 0 1
156.966 0 1
157.082 0 1
157.199 0 1
157.315 0 1
157.431 0 1
157.547 0 1
157.664 0 1
157.78 0 1
157.896 0 1
158.012 0 1
158.128 0 1
158.244 0 1
158.359 0 1
158.475 0 1
158.591 0 1
158.706 0 1
