
6.15755 0 1
6.2731 0 1
6.3887 0 1
6.50437 0 1
6.62009 0 1
6.73587 0 1
6.8517 0 1
6.96759 0 1
7.08353 0 1
7.19952 0 1
7.31557 0 1
7.43166 0 1
7.54781 0 1
7.664 0 1
7.78024 0 1
7.89653 0 1
8.01286 0 1
8.12924 0 1
8.24567 0 1
8.36213 0 1
8.47864 0 1
8.59519 0 1
8.71178 0 1
8.82841 0 1
8.94508 0 1
9.06179 0 1
9.17853 0 1
9.29531 0 1
9.41212 0 1
9.52897 0 1
9.64584 0 1
9.76276 0 1
9.8797 0 1
9.99667 0 1
10.1137 0 1
10.2307 0 1
10.3478 0 1
10.4648 0 1
10.5819 0 1
10.6991 0 1
10.8162 0 1
10.9334 0 1
11.0506 0 1
11.1678 0 1
11.285 0 1
11.4023 0 1
11.5196 0 1
11.6369 0 1
11.7542 0 1
11.8715 0 1
11.9888 0 1
12.1062 0 1
12.2235 0 1
12.3409 0 1
12.4582 0 1
12.5756 0 1
12.693 0 1
12.8104 0 1
12.9278 0 1
13.0452 0 1
13.1626 0 1
13.28 0 1
13.3974 0 1
13.5149 0 1
13.6323 0 1
13.7497 0 1
13.8671 0 1
13.9845 0 1
14.1019 0 1
14.2193 0 1
14.3367 0 1
14.4541 0 1
14.5714 0 1
14.6888 0 1
14.8062 0 1
14.9235 0 1
15.0408 9037 95.0631
15.1581 9490 97.4166
15.2755 9731 98.6458
15.3927 9958 99.7898
15.51 9740 98.6914
15.6273 9661 98.2904
15.7445 9863 99.3126
15.8617 9711 98.5444
15.9789 9790 98.9444
16.0961 9851 99.2522
16.2132 9921 99.6042
16.3304 10363 101.799
16.4475 10652 103.209
16.5646 11114 105.423
16.6816 11478 107.135
16.7986 11779 108.531
16.9156 12305 110.928
17.0326 12302 110.914
17.1496 12628 112.374
17.2665 12567 112.103
17.3833 13114 114.516
17.5002 12998 114.009
17.617 13304 115.343
17.7338 13414 115.819
17.8505 13313 115.382
17.9672 13164 114.734
18.0839 12811 113.186
18.2005 12267 110.756
18.3171 12319 110.991
18.4337 12752 112.925
18.5502 13184 114.822
18.6666 13582 116.542
18.7831 13835 117.622
18.8994 13777 117.375
19.0158 13402 115.767
19.1321 13277 115.226
19.2483 12949 113.794
19.3645 12895 113.556
19.4806 12731 112.832
19.5967 12260 110.725
19.7128 12181 110.368
19.8288 11850 108.858
19.9447 10683 103.359
20.0606 0 1
20.1764 0 1
20.2922 0 1
20.4079 0 1
20.5236 0 1
20.6392 0 1
20.7548 0 1
20.8702 0 1
23.3078 0 1
23.4233 0 1
23.539 0 1
23.6547 0 1
23.7704 0 1
23.8862 0 1
24.0021 0 1
24.118 0 1
24.234 0 1
24.35 0 1
24.4661 12431 111.494
24.5822 12216 110.526
24.6984 12356 111.158
24.8146 12092 109.964
24.9309 12170 110.318
25.0472 11892 109.05
25.1636 12240 110.635
25.28 12251 110.684
25.3965 12480 111.714
25.513 13232 115.03
25.6296 13539 116.357
25.7462 13977 118.224
25.8628 14168 119.029
25.9795 14316 119.649
26.0962 14715 121.305
26.213 14482 120.341
26.3298 14370 119.875
26.4466 14356 119.817
26.5635 14113 118.798
26.6804 13559 116.443
26.7973 13091 114.416
26.9143 12737 112.858
27.0313 13000 114.018
27.1483 13860 117.729
27.2653 14156 118.979
27.3824 14203 119.176
27.4996 14111 118.79
27.6167 13823 117.571
27.7339 13584 116.55
27.8511 13345 115.521
27.9683 13132 114.595
28.0855 12805 113.159
28.2028 12652 112.481
28.3201 12607 112.281
28.4374 12527 111.924
28.5547 12100 110
28.6721 12258 110.716
28.7894 12206 110.481
28.9068 12472 111.678
29.0242 12507 111.835
29.1416 12866 113.428
29.259 13159 114.713
29.3764 13561 116.452
29.4939 13751 117.265
29.6113 13756 117.286
29.7288 13844 117.661
29.8463 14144 118.929
29.9638 14044 118.507
30.0812 13888 117.847
30.1987 13397 115.745
30.3162 12788 113.084
30.4337 11951 109.321
30.5512 12327 111.027
30.6687 12767 112.991
30.7862 13357 115.572
30.9037 13473 116.073
31.0212 13691 117.009
31.1387 13622 116.713
31.2562 13457 116.004
31.3737 13275 115.217
31.4912 12789 113.088
31.6087 12690 112.65
31.7262 12757 112.947
31.8436 12164 110.291
31.9611 12307 110.937
32.0785 11971 109.412
32.1959 11989 109.494
32.3134 11721 108.264
32.4308 11827 108.752
32.5482 12183 110.377
32.6655 12512 111.857
32.7829 12720 112.783
32.9002 12840 113.314
33.0176 13279 115.235
33.1349 13783 117.401
33.2522 13833 117.614
33.3694 13676 116.944
33.4867 13775 117.367
33.6039 13635 116.769
33.7211 13496 116.172
33.8383 13113 114.512
33.9554 12300 110.905
34.0725 11709 108.208
34.1896 11331 106.447
34.3067 11756 108.425
34.4237 12219 110.54
34.5407 12742 112.88
34.6577 12972 113.895
34.7746 12858 113.393
34.8915 12866 113.428
35.0084 12823 113.239
35.1252 12317 110.982
35.242 12384 111.283
35.3587 12074 109.882
35.4755 12002 109.554
35.5921 11648 107.926
35.7088 11702 108.176
35.8254 11464 107.07
35.9419 11488 107.182
36.0584 11218 105.915
36.1749 11525 107.355
36.2913 11430 106.911
36.4077 11691 108.125
36.524 12174 110.336
36.6403 12091 109.959
36.7565 12562 112.08
36.8727 12855 113.38
36.9889 12996 114
37.1049 13218 114.97
37.221 0 1
37.3369 0 1
37.4529 0 1
37.5687 0 1
37.6845 0 1
37.8003 0 1
37.916 0 1
38.0316 0 1
38.1472 0 1
40.5851 0 1
40.7008 0 1
40.8164 0 1
40.9322 0 1
41.048 0 1
41.1639 0 1
41.2798 0 1
41.3958 0 1
41.5118 0 1
41.6279 0 1
41.744 9292 96.395
41.8602 10122 100.608
41.9765 10406 102.01
42.0928 10995 104.857
42.2091 11168 105.679
42.3255 11131 105.504
42.4419 10944 104.614
42.5584 11055 105.143
42.675 10733 103.6
42.7915 10292 101.449
42.9081 9472 97.3242
43.0248 9166 95.7392
43.1415 9223 96.0365
43.2582 9683 98.4022
43.375 10005 100.025
43.4918 10049 100.245
43.6087 10136 100.678
43.7256 10211 101.049
43.8425 10069 100.344
43.9595 9872 99.3579
44.0765 9706 98.519
44.1935 9372 96.8091
44.3106 9256 96.2081
44.4277 9053 95.1473
44.5448 8727 93.4184
44.6619 8456 91.9565
44.7791 8018 89.5433
44.8963 8014 89.5209
45.0136 7723 87.8806
45.1308 7650 87.4643
45.2481 7931 89.0562
45.3654 8037 89.6493
45.4827 8129 90.161
45.6001 8469 92.0272
45.7174 8531 92.3634
45.8348 8418 91.7497
45.9522 8507 92.2334
46.0697 8465 92.0054
46.1871 8343 91.34
46.3046 7737 87.9602
46.422 7482 86.4986
46.5395 6908 83.1144
46.657 6794 82.4257
46.7745 7121 84.386
46.892 7454 86.3366
47.0096 7598 87.1665
47.1271 7706 87.7838
47.2446 7761 88.0965
47.3622 7559 86.9425
47.4797 7613 87.2525
47.5973 7438 86.2438
47.7149 7409 86.0755
47.8324 7036 83.8809
47.95 6837 82.6862
48.0675 6959 83.4206
48.1851 6710 81.9146
48.3027 6461 80.3803
48.4202 6269 79.177
48.5378 6126 78.2688
48.6554 6219 78.8606
48.7729 6398 79.9875
48.8904 6502 80.635
49.008 6703 81.8719
49.1255 7141 84.5044
49.243 7202 84.8646
49.3605 7326 85.5921
49.478 7534 86.7986
49.5955 7426 86.1742
49.713 7394 85.9884
49.8304 7137 84.4808
49.9479 6740 82.0975
50.0653 6256 79.0949
50.1827 6166 78.5239
50.3001 6629 81.4187
50.4175 6982 83.5584
50.5348 7383 85.9244
50.6521 7740 87.9773
50.7694 7739 87.9716
50.8867 8075 89.861
51.004 8134 90.1887
51.1212 8275 90.967
51.2384 8051 89.7274
51.3556 8228 90.7083
51.4727 8434 91.8368
51.5899 8303 91.1208
51.707 8140 90.2219
51.824 8129 90.161
51.9411 8060 89.7775
52.0581 7983 89.3476
52.175 8105 90.0278
52.2919 8574 92.5959
52.4088 8725 93.4077
52.5257 9152 95.6661
52.6425 9638 98.1733
52.7593 9816 99.0757
52.876 9972 99.8599
52.9927 10249 101.237
53.1094 10321 101.592
53.226 10449 102.22
53.3426 10331 101.642
53.4591 10013 100.065
53.5756 9456 97.242
53.692 8956 94.6361
53.8084 8642 92.9624
53.9248 9002 94.8789
54.0411 9588 97.9183
54.1573 10045 100.225
54.2735 0 1
54.3896 0 1
54.5057 0 1
54.6217 0 1
54.7377 0 1
54.8537 0 1
54.9695 0 1
55.0853 0 1
55.2011 0 1
55.3168 0 1
55.4324 0 1
57.824 0 1
57.9396 0 1
58.0553 0 1
58.1711 0 1
58.2869 0 1
58.4028 0 1
58.5187 0 1
58.6347 0 1
58.7508 0 1
58.8669 0 1
58.983 10042 100.21
59.0992 10877 104.293
59.2155 11447 106.991
59.3318 12297 110.892
59.4482 12689 112.645
59.5646 13005 114.039
59.681 13050 114.237
59.7975 13156 114.7
59.9141 13319 115.408
60.0306 13104 114.473
60.1473 12459 111.62
60.2639 12364 111.194
60.3807 12078 109.9
60.4974 11609 107.745
60.6142 11359 106.579
60.731 10936 104.575
60.8479 10800 103.923
60.9648 10927 104.532
61.0818 11205 105.854
61.1987 11462 107.061
61.3158 12127 110.123
61.4328 12394 111.328
61.5499 12364 111.194
61.667 12650 112.472
61.7841 12807 113.168
61.9013 12316 110.977
62.0185 11822 108.729
62.1357 11305 106.325
62.253 10572 102.82
62.3702 10263 101.306
62.4875 10402 101.99
62.6049 11121 105.456
62.7222 11348 106.527
62.8396 11997 109.531
62.9569 12198 110.445
63.0743 12445 111.557
63.1918 12699 112.69
63.3092 12571 112.12
63.4267 12528 111.929
63.5441 12176 110.345
63.6616 12068 109.854
63.7791 11744 108.37
63.8966 11562 107.527
64.0142 11239 106.014
64.1317 10806 103.952
64.2492 10232 101.153
64.3668 10174 100.866
64.4843 10124 100.618
64.6019 10370 101.833
64.7195 10741 103.639
64.837 11205 105.854
64.9546 11732 108.314
65.0722 12041 109.731
65.1898 12157 110.259
65.3074 12262 110.734
65.4249 12126 110.118
65.5425 11830 108.766
65.6601 11431 106.916
65.7777 10376 101.863
65.8952 9939 99.6945
66.0128 9579 97.8724
66.1304 9955 99.7747
66.2479 10750 103.682
66.3655 11066 105.195
66.483 11552 107.48
66.6005 11793 108.596
66.718 12148 110.218
66.8355 12291 110.865
66.953 12261 110.729
67.0705 12381 111.27
67.1879 12069 109.859
67.3054 11988 109.49
67.4228 11827 108.752
67.5402 11370 106.63
67.6576 10954 104.661
67.7749 10525 102.591
67.8923 10151 100.752
68.0096 9772 98.8534
68.1269 9858 99.2875
68.2442 10232 101.153
68.3614 10562 102.772
68.4787 11100 105.357
68.5958 11743 108.365
68.713 12035 109.704
68.8302 12397 111.342
68.9473 12294 110.878
69.0643 12352 111.14
69.1814 12108 110.036
69.2984 11977 109.439
69.4154 11089 105.304
69.5323 10151 100.752
69.6492 10000 100
69.7661 10410 102.029
69.8829 10702 103.45
69.9997 11596 107.685
70.1165 12092 109.964
70.2332 12526 111.92
70.3499 12813 113.195
70.4665 12908 113.613
70.5831 13171 114.765
70.6996 13063 114.293
70.8161 12968 113.877
70.9326 12741 112.876
71.049 12451 111.584
71.1653 11953 109.33
71.2817 11748 108.388
71.3979 11178 105.726
71.5141 10778 103.817
71.6303 9946 99.7296
71.7464 9208 95.9583
71.8624 0 1
71.9784 0 1
72.0944 0 1
72.2102 0 1
72.3261 0 1
72.4418 0 1
72.5575 0 1
72.6732 0 1
75.1054 0 1
75.2209 0 1
75.3365 0 1
75.4521 0 1
75.5678 0 1
75.6835 0 1
75.7993 0 1
75.9151 0 1
76.031 0 1
76.147 11573 107.578
76.263 12121 110.095
76.3791 12259 110.72
76.4952 11781 108.54
76.6113 11366 106.611
76.7276 10852 104.173
76.8438 10405 102.005
76.9601 10321 101.592
77.0765 10903 104.417
77.1929 11229 105.967
77.3093 11875 108.972
77.4258 12750 112.916
77.5423 12881 113.494
77.6589 13150 114.673
77.7755 13071 114.328
77.8921 12977 113.917
78.0088 12831 113.274
78.1256 12089 109.95
78.2423 11012 104.938
78.3591 10101 100.504
78.4759 9688 98.4276
78.5928 9783 98.909
78.7097 10467 102.308
78.8266 11198 105.821
78.9436 12508 111.839
79.0606 12339 111.081
79.1776 13102 114.464
79.2946 12884 113.508
79.4117 13344 115.516
79.5288 13121 114.547
79.6459 13113 114.512
79.7631 12974 113.903
79.8802 12609 112.29
79.9974 12618 112.33
80.1147 12072 109.873
80.2319 11583 107.624
80.3491 10843 104.13
80.4664 10209 101.04
80.5837 10152 100.757
80.701 10480 102.372
80.8183 11114 105.423
80.9357 11668 108.019
81.053 12326 111.023
81.1704 12963 113.855
81.2877 12998 114.009
81.4051 12922 113.675
81.5225 13293 115.295
81.6399 12444 111.553
81.7573 12183 110.377
81.8747 11263 106.127
81.9922 10526 102.596
82.1096 9965 99.8248
82.227 10058 100.29
82.3444 10669 103.291
82.4619 11541 107.429
82.5793 12286 110.842
82.6967 12295 110.883
82.8142 12921 113.671
82.9316 12907 113.609
83.049 13335 115.477
83.1664 13172 114.769
83.2838 12983 113.943
83.4012 13029 114.145
83.5186 12857 113.389
83.636 12466 111.651
83.7534 12230 110.589
83.8708 11789 108.577
83.9881 11142 105.556
84.1055 10366 101.814
84.2228 10366 101.814
84.3401 10544 102.684
84.4575 11088 105.3
84.5747 11648 107.926
84.692 12471 111.674
84.8093 13285 115.261
84.9265 13621 116.709
85.0437 13582 116.542
85.1609 13188 114.839
85.2781 12872 113.455
85.3952 11986 109.481
85.5123 11207 105.863
85.6294 10558 102.752
85.7465 10104 100.519
85.8636 10436 102.157
85.9806 11395 106.747
86.0976 12320 110.995
86.2145 12911 113.627
86.3315 13267 115.182
86.4484 13554 116.422
86.5652 13736 117.201
86.682 13891 117.86
86.7988 14338 119.741
86.9156 13976 118.22
87.0323 13989 118.275
87.149 13575 116.512
87.2657 13205 114.913
87.3823 12987 113.961
87.4988 12321 111
87.6154 11462 107.061
87.7318 11038 105.062
87.8483 10806 103.952
87.9647 11699 108.162
88.081 12396 111.337
88.1973 13181 114.809
88.3136 13896 117.881
88.4298 13935 118.047
88.546 14153 118.966
88.6621 14151 118.958
88.7781 13397 115.745
88.8942 0 1
89.0101 0 1
89.126 0 1
89.2419 0 1
89.3577 0 1
89.4734 0 1
89.5891 0 1
89.7047 0 1
89.8203 0 1
89.9358 0 1
92.3269 0 1
92.4424 0 1
92.558 0 1
92.6736 0 1
92.7893 0 1
92.905 0 1
93.0208 0 1
93.1366 0 1
93.2525 0 1
93.3685 0 1
93.4845 0 1
93.6005 13457 116.004
93.7167 13617 116.692
93.8328 13487 116.134
93.949 13316 115.395
94.0653 12970 113.886
94.1816 12122 110.1
94.2979 11431 106.916
94.4143 11039 105.067
94.5307 10786 103.856
94.6472 10955 104.666
94.7637 11578 107.601
94.8803 12312 110.959
94.9969 12921 113.671
95.1135 13272 115.204
95.2302 13323 115.425
95.3469 13684 116.979
95.4637 13864 117.745
95.5805 14191 119.126
95.6973 14094 118.718
95.8142 14166 119.021
95.9311 13783 117.401
96.048 13811 117.52
96.1649 13646 116.816
96.2819 13014 114.079
96.3989 12580 112.161
96.516 11896 109.069
96.633 11200 105.83
96.7501 11017 104.962
96.8673 11433 106.925
96.9844 11986 109.481
97.1016 12710 112.739
97.2188 13602 116.628
97.336 13915 117.962
97.4532 13957 118.14
97.5704 13801 117.478
97.6877 13389 115.711
97.805 12967 113.873
97.9223 12204 110.472
98.0396 11394 106.743
98.1569 11046 105.1
98.2743 10650 103.199
98.3916 10958 104.68
98.509 11639 107.884
98.6264 12191 110.413
98.7438 12825 113.248
98.8612 13085 114.39
98.9786 13302 115.334
99.096 13598 116.61
99.2134 13801 117.478
99.3308 13794 117.448
99.4482 13885 117.835
99.5656 13763 117.316
99.6831 13473 116.073
99.8005 13003 114.031
99.9179 12798 113.128
100.035 12243 110.648
100.153 11521 107.336
100.27 10776 103.808
100.388 10684 103.363
100.505 11437 106.944
100.622 12299 110.901
100.74 13202 114.9
100.857 13721 117.137
100.975 13612 116.67
101.092 13843 117.656
101.209 13780 117.388
101.327 13413 115.815
101.444 12925 113.688
101.561 12098 109.991
101.679 11093 105.323
101.796 10742 103.644
101.913 10723 103.552
102.03 11210 105.877
102.148 12432 111.499
102.265 11867 108.936
102.382 14244 119.348
102.499 13677 116.949
102.616 14213 119.218
102.733 14142 118.92
102.851 14236 119.315
102.968 14663 121.091
103.085 14481 120.337
103.202 14300 119.583
103.319 14160 118.996
103.436 13861 117.733
103.552 13227 115.009
103.669 12443 111.548
103.786 11623 107.81
103.903 11704 108.185
104.02 12216 110.526
104.137 13107 114.486
104.253 14167 119.025
104.37 14482 120.341
104.487 14824 121.754
104.603 14961 122.315
104.72 14424 120.1
104.836 14159 118.992
104.953 13382 115.681
105.069 12351 111.135
105.186 11810 108.674
105.302 11391 106.729
105.418 11677 108.06
105.535 12388 111.301
105.651 13087 114.398
105.767 13913 117.953
105.883 14098 118.735
105.999 14593 120.801
106.115 0 1
106.231 0 1
106.347 0 1
106.463 0 1
106.579 0 1
106.694 0 1
106.81 0 1
106.926 0 1
107.041 0 1
107.157 0 1
109.576 0 1
109.692 0 1
109.807 0 1
109.923 0 1
110.039 0 1
110.155 0 1
110.27 0 1
110.386 0 1
110.502 0 1
110.618 11197 105.816
110.735 12013 109.604
110.851 12150 110.227
110.967 12461 111.629
111.083 12759 112.956
111.199 12969 113.882
111.316 13196 114.874
111.432 13102 114.464
111.549 12864 113.42
111.665 12797 113.124
111.782 12615 112.317
111.898 12157 110.259
112.015 11660 107.981
112.132 10558 102.752
112.248 10002 100.01
112.365 9949 99.7447
112.482 10729 103.581
112.599 10945 104.618
112.716 11932 109.234
112.832 12108 110.036
112.949 12059 109.813
113.066 11927 109.211
113.183 11829 108.761
113.3 11150 105.594
113.417 10380 101.882
113.534 9850 99.2472
113.652 9373 96.8143
113.769 8917 94.4299
113.886 8821 93.9202
114.003 9203 95.9323
114.12 9609 98.0255
114.238 10022 100.11
114.355 10440 102.176
114.472 10490 102.421
114.589 10158 100.787
114.707 10601 102.961
114.824 10637 103.136
114.942 10687 103.378
115.059 10486 102.401
115.176 10495 102.445
115.294 9963 99.8148
115.411 9730 98.6408
115.529 9220 96.0208
115.646 8616 92.8224
115.764 7963 89.2356
115.881 7823 88.4477
115.999 7884 88.7919
116.116 8290 91.0494
116.234 9117 95.483
116.351 9275 96.3068
116.469 9086 95.3205
116.586 8870 94.1807
116.704 8913 94.4087
116.821 8786 93.7337
116.939 8359 91.4276
117.056 7905 88.9101
117.174 7553 86.908
117.291 7331 85.6213
117.409 6845 82.7345
117.526 7077 84.1249
117.644 7460 86.3713
117.761 7785 88.2326
117.879 8170 90.3881
117.996 8465 92.0054
118.114 8459 91.9728
118.231 8644 92.9731
118.349 8702 93.2845
118.466 8569 92.5689
118.584 9082 95.2995
118.701 8831 93.9734
118.819 8761 93.6002
118.936 8622 92.8547
119.053 8563 92.5365
119.171 8210 90.6091
119.288 7752 88.0454
119.405 7389 85.9593
119.523 7334 85.6388
119.64 7613 87.2525
119.757 8285 91.022
119.875 8800 93.8083
119.992 9003 94.8841
120.109 9037 95.0631
120.226 9054 95.1525
120.343 9193 95.8801
120.46 9024 94.9947
120.578 8798 93.7977
120.695 8459 91.9728
120.812 8314 91.1811
120.929 7811 88.3799
121.046 7568 86.9943
121.163 7759 88.0852
121.279 7901 88.8876
121.396 8595 92.7092
121.513 9020 94.9737
121.63 9226 96.0521
121.747 9631 98.1377
121.863 9647 98.2191
121.98 9956 99.7798
122.097 9879 99.3932
122.213 10258 101.282
122.33 10363 101.799
122.446 10389 101.926
122.563 10079 100.394
122.679 10376 101.863
122.795 9966 99.8299
122.912 9727 98.6256
123.028 9160 95.7079
123.144 8892 94.2974
123.26 8642 92.9624
123.377 0 1
123.493 0 1
123.609 0 1
123.725 0 1
123.84 0 1
123.956 0 1
124.072 0 1
124.188 0 1
124.303 0 1
124.419 0 1
126.852 0 1
126.968 0 1
127.083 0 1
127.199 0 1
127.315 0 1
127.431 0 1
127.547 0 1
127.663 0 1
127.779 0 1
127.895 0 1
128.011 0 1
128.127 0 1
128.243 0 1
128.359 10420 102.078
128.476 10113 100.563
128.592 10451 102.23
128.708 11115 105.428
128.825 11783 108.55
128.941 12329 111.036
129.058 12208 110.49
129.174 12317 110.982
129.291 12346 111.113
129.408 12021 109.64
129.524 11529 107.373
129.641 10983 104.8
129.758 10533 102.63
129.875 10132 100.658
129.992 9605 98.0051
130.108 9520 97.5705
130.225 9764 98.813
130.342 10145 100.722
130.459 10595 102.932
130.576 10402 101.99
130.693 10846 104.144
130.81 11114 105.423
130.928 11091 105.314
131.045 11097 105.342
131.162 11055 105.143
131.279 11495 107.215
131.396 11164 105.66
131.513 10852 104.173
131.631 10951 104.647
131.748 10421 102.083
131.865 9657 98.27
131.983 9348 96.6851
132.1 9345 96.6695
132.217 9787 98.9293
132.335 10310 101.538
132.452 10607 102.99
132.57 10646 103.179
132.687 10296 101.469
132.804 10804 103.942
132.922 10340 101.686
133.039 10139 100.693
133.157 9687 98.4226
133.274 9064 95.205
133.392 8663 93.0752
133.509 8517 92.2876
133.627 8073 89.8499
133.744 8120 90.111
133.862 8646 92.9839
133.979 8678 93.1558
134.097 8859 94.1223
134.214 9167 95.7445
134.332 8817 93.8989
134.449 8783 93.7177
134.567 8988 94.8051
134.684 8970 94.7101
134.802 9112 95.4568
134.919 9097 95.3782
135.037 8950 94.6044
135.154 8591 92.6876
135.272 8300 91.1043
135.389 8049 89.7162
135.507 7484 86.5101
135.624 7434 86.2206
135.742 7355 85.7613
135.859 7763 88.1079
135.977 7949 89.1572
136.094 8113 90.0722
136.211 8011 89.5042
136.329 8125 90.1388
136.446 7756 88.0682
136.564 7663 87.5386
136.681 7341 85.6796
136.798 7294 85.4049
136.915 6779 82.3347
137.033 6609 81.2958
137.15 6401 80.0062
137.267 6280 79.2465
137.384 6422 80.1374
137.502 6637 81.4678
137.619 6855 82.7949
137.736 7163 84.6345
137.853 7092 84.214
137.97 7259 85.1998
138.087 7423 86.1568
138.204 7732 87.9318
138.321 7776 88.1816
138.438 7725 87.892
138.555 8065 89.8053
138.672 8201 90.5594
138.788 8063 89.7942
138.905 7678 87.6242
139.022 7435 86.2264
139.139 7114 84.3445
139.255 7413 86.0988
139.372 7672 87.59
139.488 8178 90.4323
139.605 8728 93.4238
139.721 9022 94.9842
139.838 9127 95.5353
139.954 9300 96.4365
140.071 9005 94.8947
140.187 9104 95.4149
140.303 8717 93.3649
140.419 8451 91.9293
140.535 8126 90.1443
140.652 8011 89.5042
140.768 0 1
140.884 0 1
141 0 1
141.115 0 1
141.231 0 1
141.347 0 1
141.463 0 1
141.578 0 1
141.694 0 1
144.104 0 1
144.219 0 1
144.335 0 1
144.45 0 1
144.566 0 1
144.682 0 1
144.798 0 1
144.914 0 1
145.03 0 1
145.146 7710 87.8066
145.262 7762 88.1022
145.378 7564 86.9713
145.494 7369 85.8429
145.61 7009 83.7198
145.726 6632 81.4371
145.842 6565 81.0247
145.959 6481 80.5047
146.075 6419 80.1187
146.192 6578 81.1049
146.308 6628 81.4125
146.425 6463 80.3928
146.541 6682 81.7435
146.658 6642 81.4985
146.774 6690 81.7924
146.891 6737 82.0792
147.008 6684 81.7557
147.125 6830 82.6438
147.241 6738 82.0853
147.358 6544 80.895
147.475 6623 81.3818
147.592 6394 79.9625
147.709 5998 77.4468
147.826 5695 75.4652
147.943 5907 76.857
148.06 5947 77.1168
148.177 6272 79.196
148.294 6266 79.1581
148.411 6294 79.3347
148.528 6289 79.3032
148.645 6281 79.2528
148.762 6132 78.3071
148.88 6166 78.5239
148.997 5956 77.1751
149.114 5230 72.3187
149.231 5322 72.952
149.349 5307 72.8492
149.466 5286 72.7049
149.583 5132 71.638
149.701 5009 70.7743
149.818 5249 72.45
149.935 5361 73.2189
150.053 5235 72.3533
150.17 5393 73.437
150.287 5616 74.94
150.405 5664 75.2596
150.522 5509 74.2226
150.64 5642 75.1132
150.757 5828 76.3413
150.875 5845 76.4526
150.992 5619 74.96
151.11 5941 77.0779
151.227 5594 74.793
151.344 5354 73.171
151.462 5302 72.8148
151.579 5282 72.6774
151.697 5690 75.4321
151.814 5941 77.0779
151.932 6159 78.4793
152.049 6202 78.7528
152.167 6214 78.8289
152.284 6324 79.5236
152.402 6028 77.6402
152.519 6008 77.5113
152.636 5948 77.1233
152.754 6021 77.5951
152.871 5842 76.433
152.989 5613 74.92
153.106 5489 74.0878
153.223 5457 73.8715
153.341 5630 75.0333
153.458 5729 75.6902
153.575 5958 77.1881
153.693 6001 77.4661
153.81 5998 77.4468
153.927 6370 79.8123
154.044 6243 79.0127
154.162 6441 80.2558
154.279 6477 80.4798
154.396 6796 82.4379
154.513 6907 83.1084
154.63 6875 82.9156
154.747 6848 82.7526
154.864 6930 83.2466
154.981 6524 80.7713
155.098 6619 81.3572
155.215 6605 81.2712
155.332 6932 83.2586
155.449 7389 85.9593
155.566 7396 86
155.683 7508 86.6487
155.8 7521 86.7237
155.917 7543 86.8504
156.033 7604 87.2009
156.15 0 1
156.267 0 1
156.383 0 1
156.5 0 1
156.617 0 1
156.733 0 1
156.85 0 1
156.966 0 1
157.082 0 1
157.199 0 1
157.315 0 1
157.431 0 1
157.547 0 1
157.664 0 1
157.78 0 1
157.896 0 1
158.012 0 1
158.128 0 1
158.244 0 1
158.359 0 1
158.475 0 1
158.591 0 1
158.706 0 1
