
6.15755 0 1
6.2731 0 1
6.3887 0 1
6.50437 0 1
6.62009 0 1
6.73587 0 1
6.8517 0 1
6.96759 0 1
7.08353 0 1
7.19952 0 1
7.31557 0 1
7.43166 0 1
7.54781 0 1
7.664 0 1
7.78024 0 1
7.89653 0 1
8.01286 0 1
8.12924 0 1
8.24567 0 1
8.36213 0 1
8.47864 0 1
8.59519 0 1
8.71178 0 1
8.82841 0 1
8.94508 0 1
9.06179 0 1
9.17853 0 1
9.29531 0 1
9.41212 0 1
9.52897 0 1
9.64584 0 1
9.76276 0 1
9.8797 0 1
9.99667 0 1
10.1137 0 1
10.2307 0 1
10.3478 0 1
10.4648 0 1
10.5819 0 1
10.6991 0 1
10.8162 0 1
10.9334 0 1
11.0506 0 1
11.1678 0 1
11.285 0 1
11.4023 0 1
11.5196 0 1
11.6369 0 1
11.7542 0 1
11.8715 0 1
11.9888 0 1
12.1062 0 1
12.2235 0 1
12.3409 0 1
12.4582 0 1
12.5756 0 1
12.693 0 1
12.8104 0 1
12.9278 0 1
13.0452 0 1
13.1626 0 1
13.28 0 1
13.3974 0 1
13.5149 0 1
13.6323 0 1
13.7497 0 1
13.8671 0 1
13.9845 0 1
14.1019 0 1
14.2193 0 1
14.3367 0 1
14.4541 0 1
14.5714 0 1
14.6888 0 1
14.8062 0 1
14.9235 0 1
15.0408 764 27.6405
15.1581 749 27.3679
15.2755 802 28.3196
15.3927 837 28.931
15.51 830 28.8097
15.6273 872 29.5296
15.7445 886 29.7658
15.8617 810 28.4605
15.9789 856 29.2575
16.0961 819 28.6182
16.2132 790 28.1069
16.3304 800 28.2843
16.4475 802 28.3196
16.5646 774 27.8209
16.6816 769 27.7308
16.7986 783 27.9821
16.9156 824 28.7054
17.0326 770 27.7489
17.1496 736 27.1293
17.2665 762 27.6043
17.3833 733 27.074
17.5002 696 26.3818
17.617 733 27.074
17.7338 732 27.0555
17.8505 764 27.6405
17.9672 770 27.7489
18.0839 816 28.5657
18.2005 853 29.2062
18.3171 894 29.8998
18.4337 861 29.3428
18.5502 933 30.545
18.6666 890 29.8329
18.7831 875 29.5804
18.8994 894 29.8998
19.0158 852 29.189
19.1321 867 29.4449
19.2483 828 28.775
19.3645 841 29
19.4806 849 29.1376
19.5967 771 27.7669
19.7128 774 27.8209
19.8288 694 26.3439
19.9447 696 26.3818
20.0606 0 1
20.1764 0 1
20.2922 0 1
20.4079 0 1
20.5236 0 1
20.6392 0 1
20.7548 0 1
20.8702 0 1
23.3078 0 1
23.4233 0 1
23.539 0 1
23.6547 0 1
23.7704 0 1
23.8862 0 1
24.0021 0 1
24.118 0 1
24.234 0 1
24.35 0 1
24.4661 795 28.1957
24.5822 767 27.6948
24.6984 767 27.6948
24.8146 757 27.5136
24.9309 843 29.0345
25.0472 758 27.5318
25.1636 844 29.0517
25.28 823 28.688
25.3965 814 28.5307
25.513 834 28.8791
25.6296 869 29.4788
25.7462 808 28.4253
25.8628 873 29.5466
25.9795 851 29.1719
26.0962 910 30.1662
26.213 851 29.1719
26.3298 877 29.6142
26.4466 832 28.8444
26.5635 863 29.3769
26.6804 778 27.8927
26.7973 806 28.3901
26.9143 779 27.9106
27.0313 784 28
27.1483 823 28.688
27.2653 805 28.3725
27.3824 772 27.7849
27.4996 750 27.3861
27.6167 760 27.5681
27.7339 749 27.3679
27.8511 765 27.6586
27.9683 788 28.0713
28.0855 790 28.1069
28.2028 801 28.3019
28.3201 818 28.6007
28.4374 786 28.0357
28.5547 790 28.1069
28.6721 783 27.9821
28.7894 783 27.9821
28.9068 747 27.3313
29.0242 807 28.4077
29.1416 797 28.2312
29.259 826 28.7402
29.3764 802 28.3196
29.4939 796 28.2135
29.6113 729 27
29.7288 681 26.096
29.8463 731 27.037
29.9638 706 26.5707
30.0812 686 26.1916
30.1987 737 27.1477
30.3162 682 26.1151
30.4337 749 27.3679
30.5512 775 27.8388
30.6687 718 26.7955
30.7862 733 27.074
30.9037 769 27.7308
31.0212 794 28.178
31.1387 773 27.8029
31.2562 791 28.1247
31.3737 757 27.5136
31.4912 759 27.55
31.6087 753 27.4408
31.7262 818 28.6007
31.8436 796 28.2135
31.9611 817 28.5832
32.0785 735 27.1109
32.1959 742 27.2397
32.3134 754 27.4591
32.4308 789 28.0891
32.5482 753 27.4408
32.6655 789 28.0891
32.7829 766 27.6767
32.9002 699 26.4386
33.0176 688 26.2298
33.1349 685 26.1725
33.2522 650 25.4951
33.3694 618 24.8596
33.4867 624 24.98
33.6039 643 25.3574
33.7211 635 25.1992
33.8383 671 25.9037
33.9554 679 26.0576
34.0725 704 26.533
34.1896 737 27.1477
34.3067 703 26.5141
34.4237 759 27.55
34.5407 726 26.9444
34.6577 712 26.6833
34.7746 788 28.0713
34.8915 830 28.8097
35.0084 771 27.7669
35.1252 805 28.3725
35.242 797 28.2312
35.3587 797 28.2312
35.4755 776 27.8568
35.5921 765 27.6586
35.7088 769 27.7308
35.8254 739 27.1846
35.9419 708 26.6083
36.0584 727 26.9629
36.1749 692 26.3059
36.2913 627 25.04
36.4077 671 25.9037
36.524 630 25.0998
36.6403 607 24.6374
36.7565 598 24.454
36.8727 586 24.2074
36.9889 575 23.9792
37.1049 597 24.4336
37.221 0 1
37.3369 0 1
37.4529 0 1
37.5687 0 1
37.6845 0 1
37.8003 0 1
37.916 0 1
38.0316 0 1
38.1472 0 1
40.5851 0 1
40.7008 0 1
40.8164 0 1
40.9322 0 1
41.048 0 1
41.1639 0 1
41.2798 0 1
41.3958 0 1
41.5118 0 1
41.6279 0 1
41.744 538 23.1948
41.8602 495 22.2486
41.9765 485 22.0227
42.0928 502 22.4054
42.2091 453 21.2838
42.3255 480 21.9089
42.4419 473 21.7486
42.5584 456 21.3542
42.675 483 21.9773
42.7915 535 23.1301
42.9081 522 22.8473
43.0248 552 23.4947
43.1415 599 24.4745
43.2582 531 23.0434
43.375 547 23.388
43.4918 602 24.5357
43.6087 590 24.2899
43.7256 589 24.2693
43.8425 557 23.6008
43.9595 540 23.2379
44.0765 527 22.9565
44.1935 532 23.0651
44.3106 548 23.4094
44.4277 513 22.6495
44.5448 506 22.4944
44.6619 493 22.2036
44.7791 491 22.1585
44.8963 474 21.7715
45.0136 467 21.6102
45.1308 463 21.5174
45.2481 427 20.664
45.3654 457 21.3776
45.4827 468 21.6333
45.6001 407 20.1742
45.7174 387 19.6723
45.8348 394 19.8494
45.9522 419 20.4695
46.0697 382 19.5448
46.1871 365 19.105
46.3046 392 19.799
46.422 399 19.975
46.5395 462 21.4942
46.657 440 20.9762
46.7745 412 20.2978
46.892 401 20.025
47.0096 407 20.1742
47.1271 411 20.2731
47.2446 358 18.9209
47.3622 415 20.3715
47.4797 397 19.9249
47.5973 344 18.5472
47.7149 411 20.2731
47.8324 373 19.3132
47.95 347 18.6279
48.0675 354 18.8149
48.1851 383 19.5704
48.3027 345 18.5742
48.4202 381 19.5192
48.5378 357 18.8944
48.6554 352 18.7617
48.7729 388 19.6977
48.8904 374 19.3391
49.008 346 18.6011
49.1255 303 17.4069
49.243 315 17.7482
49.3605 326 18.0555
49.478 296 17.2047
49.5955 287 16.9411
49.713 295 17.1756
49.8304 338 18.3848
49.9479 344 18.5472
50.0653 364 19.0788
50.1827 381 19.5192
50.3001 331 18.1934
50.4175 351 18.735
50.5348 354 18.8149
50.6521 438 20.9284
50.7694 381 19.5192
50.8867 439 20.9523
51.004 462 21.4942
51.1212 434 20.8327
51.2384 415 20.3715
51.3556 411 20.2731
51.4727 425 20.6155
51.5899 422 20.5426
51.707 465 21.5639
51.824 448 21.166
51.9411 476 21.8174
52.0581 484 22
52.175 494 22.2261
52.2919 498 22.3159
52.4088 443 21.0476
52.5257 460 21.4476
52.6425 435 20.8567
52.7593 453 21.2838
52.876 459 21.4243
52.9927 453 21.2838
53.1094 429 20.7123
53.226 452 21.2603
53.3426 445 21.095
53.4591 474 21.7715
53.5756 469 21.6564
53.692 545 23.3452
53.8084 491 22.1585
53.9248 446 21.1187
54.0411 476 21.8174
54.1573 477 21.8403
54.2735 0 1
54.3896 0 1
54.5057 0 1
54.6217 0 1
54.7377 0 1
54.8537 0 1
54.9695 0 1
55.0853 0 1
55.2011 0 1
55.3168 0 1
55.4324 0 1
57.824 0 1
57.9396 0 1
58.0553 0 1
58.1711 0 1
58.2869 0 1
58.4028 0 1
58.5187 0 1
58.6347 0 1
58.7508 0 1
58.8669 0 1
58.983 536 23.1517
59.0992 553 23.516
59.2155 543 23.3024
59.3318 611 24.7184
59.4482 600 24.4949
59.5646 608 24.6577
59.681 648 25.4558
59.7975 629 25.0799
59.9141 580 24.0832
60.0306 600 24.4949
60.1473 585 24.1868
60.2639 587 24.2281
60.3807 561 23.6854
60.4974 647 25.4362
60.6142 621 24.9199
60.731 602 24.5357
60.8479 570 23.8747
60.9648 594 24.3721
61.0818 628 25.0599
61.1987 520 22.8035
61.3158 519 22.7816
61.4328 497 22.2935
61.5499 516 22.7156
61.667 528 22.9783
61.7841 462 21.4942
61.9013 501 22.383
62.0185 510 22.5832
62.1357 515 22.6936
62.253 497 22.2935
62.3702 511 22.6053
62.4875 514 22.6716
62.6049 512 22.6274
62.7222 518 22.7596
62.8396 556 23.5797
62.9569 569 23.8537
63.0743 566 23.7908
63.1918 603 24.5561
63.3092 607 24.6374
63.4267 533 23.0868
63.5441 549 23.4307
63.6616 518 22.7596
63.7791 493 22.2036
63.8966 513 22.6495
64.0142 538 23.1948
64.1317 587 24.2281
64.2492 520 22.8035
64.3668 531 23.0434
64.4843 526 22.9347
64.6019 543 23.3024
64.7195 529 23
64.837 476 21.8174
64.9546 461 21.4709
65.0722 455 21.3307
65.1898 398 19.9499
65.3074 446 21.1187
65.4249 429 20.7123
65.5425 456 21.3542
65.6601 492 22.1811
65.7777 513 22.6495
65.8952 520 22.8035
66.0128 439 20.9523
66.1304 457 21.3776
66.2479 455 21.3307
66.3655 536 23.1517
66.483 530 23.0217
66.6005 572 23.9165
66.718 531 23.0434
66.8355 551 23.4734
66.953 546 23.3666
67.0705 539 23.2164
67.1879 512 22.6274
67.3054 520 22.8035
67.4228 506 22.4944
67.5402 502 22.4054
67.6576 533 23.0868
67.7749 481 21.9317
67.8923 541 23.2594
68.0096 551 23.4734
68.1269 604 24.5764
68.2442 536 23.1517
68.3614 523 22.8692
68.4787 480 21.9089
68.5958 490 22.1359
68.713 458 21.4009
68.8302 438 20.9284
68.9473 470 21.6795
69.0643 490 22.1359
69.1814 498 22.3159
69.2984 504 22.4499
69.4154 581 24.1039
69.5323 556 23.5797
69.6492 488 22.0907
69.7661 498 22.3159
69.8829 509 22.561
69.9997 545 23.3452
70.1165 604 24.5764
70.2332 574 23.9583
70.3499 609 24.6779
70.4665 612 24.7386
70.5831 626 25.02
70.6996 612 24.7386
70.8161 593 24.3516
70.9326 577 24.0208
71.049 574 23.9583
71.1653 573 23.9374
71.2817 555 23.5584
71.3979 516 22.7156
71.5141 610 24.6982
71.6303 595 24.3926
71.7464 545 23.3452
71.8624 0 1
71.9784 0 1
72.0944 0 1
72.2102 0 1
72.3261 0 1
72.4418 0 1
72.5575 0 1
72.6732 0 1
75.1054 0 1
75.2209 0 1
75.3365 0 1
75.4521 0 1
75.5678 0 1
75.6835 0 1
75.7993 0 1
75.9151 0 1
76.031 0 1
76.147 538 23.1948
76.263 579 24.0624
76.3791 517 22.7376
76.4952 561 23.6854
76.6113 509 22.561
76.7276 597 24.4336
76.8438 570 23.8747
76.9601 569 23.8537
77.0765 625 25
77.1929 624 24.98
77.3093 604 24.5764
77.4258 551 23.4734
77.5423 560 23.6643
77.6589 538 23.1948
77.7755 513 22.6495
77.8921 519 22.7816
78.0088 520 22.8035
78.1256 546 23.3666
78.2423 567 23.8118
78.3591 660 25.6905
78.4759 552 23.4947
78.5928 527 22.9565
78.7097 463 21.5174
78.8266 418 20.445
78.9436 491 22.1585
79.0606 598 24.454
79.1776 611 24.7184
79.2946 626 25.02
79.4117 634 25.1794
79.5288 619 24.8797
79.6459 588 24.2487
79.7631 629 25.0799
79.8802 553 23.516
79.9974 560 23.6643
80.1147 549 23.4307
80.2319 530 23.0217
80.3491 554 23.5372
80.4664 594 24.3721
80.5837 604 24.5764
80.701 592 24.3311
80.8183 612 24.7386
80.9357 625 25
81.053 596 24.4131
81.1704 550 23.4521
81.2877 531 23.0434
81.4051 500 22.3607
81.5225 480 21.9089
81.6399 472 21.7256
81.7573 529 23
81.8747 531 23.0434
81.9922 552 23.4947
82.1096 608 24.6577
82.227 578 24.0416
82.3444 453 21.2838
82.4619 431 20.7605
82.5793 437 20.9045
82.6967 511 22.6053
82.8142 585 24.1868
82.9316 596 24.4131
83.049 522 22.8473
83.1664 577 24.0208
83.2838 561 23.6854
83.4012 562 23.7065
83.5186 520 22.8035
83.636 540 23.2379
83.7534 525 22.9129
83.8708 522 22.8473
83.9881 545 23.3452
84.1055 534 23.1084
84.2228 574 23.9583
84.3401 565 23.7697
84.4575 553 23.516
84.5747 577 24.0208
84.692 566 23.7908
84.8093 535 23.1301
84.9265 505 22.4722
85.0437 502 22.4054
85.1609 518 22.7596
85.2781 547 23.388
85.3952 603 24.5561
85.5123 576 24
85.6294 575 23.9792
85.7465 602 24.5357
85.8636 567 23.8118
85.9806 508 22.5389
86.0976 499 22.3383
86.2145 525 22.9129
86.3315 637 25.2389
86.4484 602 24.5357
86.5652 659 25.671
86.682 652 25.5343
86.7988 710 26.6458
86.9156 622 24.9399
87.0323 675 25.9808
87.149 634 25.1794
87.2657 652 25.5343
87.3823 699 26.4386
87.4988 644 25.3772
87.6154 660 25.6905
87.7318 737 27.1477
87.8483 768 27.7128
87.9647 765 27.6586
88.081 787 28.0535
88.1973 768 27.7128
88.3136 681 26.096
88.4298 681 26.096
88.546 639 25.2784
88.6621 657 25.632
88.7781 600 24.4949
88.8942 0 1
89.0101 0 1
89.126 0 1
89.2419 0 1
89.3577 0 1
89.4734 0 1
89.5891 0 1
89.7047 0 1
89.8203 0 1
89.9358 0 1
92.3269 0 1
92.4424 0 1
92.558 0 1
92.6736 0 1
92.7893 0 1
92.905 0 1
93.0208 0 1
93.1366 0 1
93.2525 0 1
93.3685 0 1
93.4845 0 1
93.6005 834 28.8791
93.7167 803 28.3373
93.8328 774 27.8209
93.949 720 26.8328
94.0653 752 27.4226
94.1816 671 25.9037
94.2979 696 26.3818
94.4143 660 25.6905
94.5307 753 27.4408
94.6472 746 27.313
94.7637 751 27.4044
94.8803 756 27.4955
94.9969 730 27.0185
95.1135 638 25.2587
95.2302 637 25.2389
95.3469 693 26.3249
95.4637 805 28.3725
95.5805 811 28.4781
95.6973 839 28.9655
95.8142 840 28.9828
95.9311 891 29.8496
96.048 835 28.8964
96.1649 871 29.5127
96.2819 849 29.1376
96.3989 865 29.4109
96.516 718 26.7955
96.633 761 27.5862
96.7501 827 28.7576
96.8673 854 29.2233
96.9844 863 29.3769
97.1016 845 29.0689
97.2188 859 29.3087
97.336 893 29.8831
97.4532 861 29.3428
97.5704 821 28.6531
97.6877 746 27.313
97.805 810 28.4605
97.9223 743 27.258
98.0396 738 27.1662
98.1569 738 27.1662
98.2743 774 27.8209
98.3916 859 29.3087
98.509 810 28.4605
98.6264 819 28.6182
98.7438 762 27.6043
98.8612 715 26.7395
98.9786 745 27.2947
99.096 815 28.5482
99.2134 845 29.0689
99.3308 897 29.95
99.4482 947 30.7734
99.5656 884 29.7321
99.6831 857 29.2746
99.8005 847 29.1033
99.9179 892 29.8664
100.035 813 28.5132
100.153 917 30.282
100.27 862 29.3598
100.388 842 29.0172
100.505 846 29.0861
100.622 848 29.1204
100.74 923 30.3809
100.857 924 30.3974
100.975 1037 32.2025
101.092 846 29.0861
101.209 872 29.5296
101.327 832 28.8444
101.444 853 29.2062
101.561 791 28.1247
101.679 823 28.688
101.796 891 29.8496
101.913 894 29.8998
102.03 961 31
102.148 907 30.1164
102.265 848 29.1204
102.382 823 28.688
102.499 843 29.0345
102.616 930 30.4959
102.733 911 30.1828
102.851 939 30.6431
102.968 1036 32.187
103.085 965 31.0644
103.202 1002 31.6544
103.319 999 31.607
103.436 997 31.5753
103.552 956 30.9192
103.669 938 30.6268
103.786 955 30.9031
103.903 985 31.3847
104.02 1015 31.8591
104.137 1044 32.311
104.253 1090 33.0151
104.37 1100 33.1662
104.487 1085 32.9393
104.603 1055 32.4808
104.72 1039 32.2335
104.836 996 31.5595
104.953 978 31.273
105.069 981 31.3209
105.186 1006 31.7175
105.302 1024 32
105.418 1036 32.187
105.535 1128 33.5857
105.651 1059 32.5423
105.767 998 31.5911
105.883 989 31.4484
105.999 1052 32.4345
106.115 0 1
106.231 0 1
106.347 0 1
106.463 0 1
106.579 0 1
106.694 0 1
106.81 0 1
106.926 0 1
107.041 0 1
107.157 0 1
109.576 0 1
109.692 0 1
109.807 0 1
109.923 0 1
110.039 0 1
110.155 0 1
110.27 0 1
110.386 0 1
110.502 0 1
110.618 1113 33.3617
110.735 1107 33.2716
110.851 1082 32.8938
110.967 957 30.9354
111.083 1009 31.7648
111.199 1084 32.9242
111.316 1092 33.0454
111.432 1102 33.1964
111.549 1110 33.3167
111.665 1109 33.3017
111.782 1111 33.3317
111.898 1143 33.8083
112.015 1151 33.9264
112.132 1095 33.0908
112.248 1006 31.7175
112.365 1086 32.9545
112.482 1098 33.1361
112.599 1086 32.9545
112.716 1169 34.1906
112.832 1173 34.2491
112.949 1143 33.8083
113.066 1166 34.1467
113.183 1204 34.6987
113.3 1049 32.3883
113.417 1079 32.8481
113.534 1038 32.218
113.652 1048 32.3728
113.769 999 31.607
113.886 1009 31.7648
114.003 1078 32.8329
114.12 1087 32.9697
114.238 1068 32.6803
114.355 1057 32.5115
114.472 1049 32.3883
114.589 945 30.7409
114.707 1037 32.2025
114.824 1039 32.2335
114.942 1139 33.7491
115.059 1120 33.4664
115.176 1099 33.1512
115.294 1095 33.0908
115.411 1132 33.6452
115.529 1091 33.0303
115.646 1153 33.9559
115.764 1104 33.2265
115.881 1058 32.5269
115.999 1040 32.249
116.116 1140 33.7639
116.234 1121 33.4813
116.351 1159 34.0441
116.469 1216 34.8712
116.586 1144 33.8231
116.704 1285 35.8469
116.821 1268 35.609
116.939 1216 34.8712
117.056 1187 34.4529
117.174 1167 34.1614
117.291 1138 33.7343
117.409 1149 33.8969
117.526 1182 34.3802
117.644 1212 34.8138
117.761 1204 34.6987
117.879 1219 34.9142
117.996 1068 32.6803
118.114 1050 32.4037
118.231 1134 33.6749
118.349 1178 34.322
118.466 1210 34.7851
118.584 1214 34.8425
118.701 1135 33.6898
118.819 1190 34.4964
118.936 1195 34.5688
119.053 1202 34.6699
119.171 1196 34.5832
119.288 1175 34.2783
119.405 1139 33.7491
119.523 1135 33.6898
119.64 1083 32.909
119.757 1150 33.9116
119.875 1155 33.9853
119.992 1227 35.0286
120.109 1194 34.5543
120.226 1252 35.3836
120.343 1269 35.623
120.46 1232 35.0999
120.578 1234 35.1283
120.695 1173 34.2491
120.812 1185 34.4238
120.929 1234 35.1283
121.046 1183 34.3948
121.163 1263 35.5387
121.279 1196 34.5832
121.396 1160 34.0588
121.513 1240 35.2136
121.63 1221 34.9428
121.747 1109 33.3017
121.863 1024 32
121.98 1119 33.4515
122.097 1126 33.5559
122.213 1154 33.9706
122.33 1160 34.0588
122.446 1160 34.0588
122.563 1101 33.1813
122.679 1163 34.1028
122.795 1114 33.3766
122.912 1087 32.9697
123.028 1149 33.8969
123.144 1135 33.6898
123.26 1060 32.5576
123.377 0 1
123.493 0 1
123.609 0 1
123.725 0 1
123.84 0 1
123.956 0 1
124.072 0 1
124.188 0 1
124.303 0 1
124.419 0 1
126.852 0 1
126.968 0 1
127.083 0 1
127.199 0 1
127.315 0 1
127.431 0 1
127.547 0 1
127.663 0 1
127.779 0 1
127.895 0 1
128.011 0 1
128.127 0 1
128.243 0 1
128.359 1280 35.7771
128.476 1360 36.8782
128.592 1302 36.0832
128.708 1277 35.7351
128.825 1299 36.0416
128.941 1344 36.6606
129.058 1378 37.1214
129.174 1368 36.9865
129.291 1371 37.027
129.408 1366 36.9594
129.524 1383 37.1887
129.641 1381 37.1618
129.758 1440 37.9473
129.875 1494 38.6523
129.992 1506 38.8072
130.108 1434 37.8682
130.225 1478 38.4448
130.342 1483 38.5097
130.459 1399 37.4032
130.576 1577 39.7115
130.693 1407 37.51
130.81 1420 37.6829
130.928 1472 38.3667
131.045 1545 39.3065
131.162 1540 39.2428
131.279 1516 38.9358
131.396 1592 39.8999
131.513 1500 38.7298
131.631 1500 38.7298
131.748 1474 38.3927
131.865 1431 37.8286
131.983 1398 37.3898
132.1 1484 38.5227
132.217 1477 38.4318
132.335 1418 37.6563
132.452 1384 37.2022
132.57 1418 37.6563
132.687 1406 37.4967
132.804 1474 38.3927
132.922 1441 37.9605
133.039 1472 38.3667
133.157 1470 38.3406
133.274 1544 39.2938
133.392 1509 38.8458
133.509 1487 38.5616
133.627 1536 39.1918
133.744 1563 39.5348
133.862 1647 40.5832
133.979 1659 40.7308
134.097 1619 40.2368
134.214 1502 38.7556
134.332 1549 39.3573
134.449 1612 40.1497
134.567 1542 39.2683
134.684 1687 41.0731
134.802 1677 40.9512
134.919 1617 40.2119
135.037 1713 41.3884
135.154 1695 41.1704
135.272 1587 39.8372
135.389 1650 40.6202
135.507 1563 39.5348
135.624 1572 39.6485
135.742 1571 39.6358
135.859 1547 39.3319
135.977 1525 39.0512
136.094 1514 38.9102
136.211 1502 38.7556
136.329 1575 39.6863
136.446 1519 38.9744
136.564 1593 39.9124
136.681 1563 39.5348
136.798 1619 40.2368
136.915 1549 39.3573
137.033 1554 39.4208
137.15 1570 39.6232
137.267 1535 39.1791
137.384 1602 40.025
137.502 1643 40.5339
137.619 1710 41.3521
137.736 1617 40.2119
137.853 1662 40.7676
137.97 1685 41.0488
138.087 1686 41.0609
138.204 1786 42.2611
138.321 1818 42.638
138.438 1800 42.4264
138.555 1829 42.7668
138.672 1794 42.3556
138.788 1816 42.6146
138.905 1806 42.4971
139.022 1704 41.2795
139.139 1670 40.8656
139.255 1661 40.7554
139.372 1607 40.0874
139.488 1580 39.7492
139.605 1688 41.0853
139.721 1635 40.4351
139.838 1616 40.1995
139.954 1648 40.5956
140.071 1616 40.1995
140.187 1630 40.3733
140.303 1704 41.2795
140.419 1658 40.7185
140.535 1591 39.8873
140.652 1566 39.5727
140.768 0 1
140.884 0 1
141 0 1
141.115 0 1
141.231 0 1
141.347 0 1
141.463 0 1
141.578 0 1
141.694 0 1
144.104 0 1
144.219 0 1
144.335 0 1
144.45 0 1
144.566 0 1
144.682 0 1
144.798 0 1
144.914 0 1
145.03 0 1
145.146 1235 35.1426
145.262 1350 36.7423
145.378 1437 37.9078
145.494 1470 38.3406
145.61 1407 37.51
145.726 1457 38.1707
145.842 1499 38.7169
145.959 1454 38.1314
146.075 1494 38.6523
146.192 1375 37.081
146.308 1437 37.9078
146.425 1447 38.0395
146.541 1359 36.8646
146.658 1385 37.2156
146.774 1348 36.7151
146.891 1293 35.9583
147.008 1313 36.2353
147.125 1329 36.4555
147.241 1291 35.9305
147.358 1379 37.1349
147.475 1413 37.5899
147.592 1458 38.1838
147.709 1403 37.4566
147.826 1426 37.7624
147.943 1432 37.8418
148.06 1418 37.6563
148.177 1517 38.9487
148.294 1458 38.1838
148.411 1549 39.3573
148.528 1565 39.5601
148.645 1551 39.3827
148.762 1486 38.5487
148.88 1527 39.0768
148.997 1593 39.9124
149.114 1627 40.3361
149.231 1557 39.4588
149.349 1544 39.2938
149.466 1653 40.6571
149.583 1629 40.3609
149.701 1576 39.6989
149.818 1686 41.0609
149.935 1540 39.2428
150.053 1651 40.6325
150.17 1627 40.3361
150.287 1619 40.2368
150.405 1661 40.7554
150.522 1494 38.6523
150.64 1489 38.5876
150.757 1446 38.0263
150.875 1462 38.2361
150.992 1405 37.4833
151.11 1433 37.855
151.227 1389 37.2693
151.344 1368 36.9865
151.462 1323 36.3731
151.579 1347 36.7015
151.697 1342 36.6333
151.814 1231 35.0856
151.932 1263 35.5387
152.049 1310 36.1939
152.167 1330 36.4692
152.284 1374 37.0675
152.402 1338 36.5787
152.519 1409 37.5366
152.636 1445 38.0132
152.754 1395 37.3497
152.871 1488 38.5746
152.989 1505 38.7943
153.106 1483 38.5097
153.223 1460 38.2099
153.341 1453 38.1182
153.458 1590 39.8748
153.575 1624 40.2989
153.693 1639 40.4846
153.81 1608 40.0999
153.927 1575 39.6863
154.044 1667 40.8289
154.162 1643 40.5339
154.279 1592 39.8999
154.396 1564 39.5474
154.513 1656 40.694
154.63 1640 40.4969
154.747 1654 40.6694
154.864 1618 40.2244
154.981 1649 40.6079
155.098 1584 39.7995
155.215 1544 39.2938
155.332 1444 38
155.449 1455 38.1445
155.566 1360 36.8782
155.683 1342 36.6333
155.8 1255 35.426
155.917 1272 35.6651
156.033 1177 34.3074
156.15 0 1
156.267 0 1
156.383 0 1
156.5 0 1
156.617 0 1
156.733 0 1
156.85 0 1
156.966 0 1
157.082 0 1
157.199 0 1
157.315 0 1
157.431 0 1
157.547 0 1
157.664 0 1
157.78 0 1
157.896 0 1
158.012 0 1
158.128 0 1
158.244 0 1
158.359 0 1
158.475 0 1
158.591 0 1
158.706 0 1
