
6.15755 0 1
6.2731 0 1
6.3887 0 1
6.50437 0 1
6.62009 0 1
6.73587 0 1
6.8517 0 1
6.96759 0 1
7.08353 0 1
7.19952 0 1
7.31557 0 1
7.43166 0 1
7.54781 0 1
7.664 0 1
7.78024 0 1
7.89653 0 1
8.01286 0 1
8.12924 0 1
8.24567 0 1
8.36213 0 1
8.47864 0 1
8.59519 0 1
8.71178 0 1
8.82841 0 1
8.94508 0 1
9.06179 0 1
9.17853 0 1
9.29531 0 1
9.41212 0 1
9.52897 0 1
9.64584 0 1
9.76276 0 1
9.8797 0 1
9.99667 0 1
10.1137 0 1
10.2307 0 1
10.3478 0 1
10.4648 0 1
10.5819 0 1
10.6991 0 1
10.8162 0 1
10.9334 0 1
11.0506 0 1
11.1678 0 1
11.285 0 1
11.4023 0 1
11.5196 0 1
11.6369 0 1
11.7542 0 1
11.8715 0 1
11.9888 0 1
12.1062 0 1
12.2235 0 1
12.3409 0 1
12.4582 0 1
12.5756 0 1
12.693 0 1
12.8104 0 1
12.9278 0 1
13.0452 0 1
13.1626 0 1
13.28 0 1
13.3974 0 1
13.5149 0 1
13.6323 0 1
13.7497 0 1
13.8671 0 1
13.9845 0 1
14.1019 0 1
14.2193 0 1
14.3367 0 1
14.4541 0 1
14.5714 0 1
14.6888 0 1
14.8062 0 1
14.9235 0 1
15.0408 5954 77.1622
15.1581 6044 77.7432
15.2755 6274 79.2086
15.3927 6309 79.4292
15.51 6317 79.4796
15.6273 6207 78.7845
15.7445 6170 78.5493
15.8617 6002 77.4726
15.9789 5868 76.6029
16.0961 5672 75.3127
16.2132 5575 74.6659
16.3304 5359 73.2052
16.4475 5179 71.9653
16.5646 4999 70.7036
16.6816 4792 69.2243
16.7986 4697 68.5347
16.9156 4636 68.0882
17.0326 4383 66.2042
17.1496 4401 66.34
17.2665 4111 64.1171
17.3833 4171 64.5833
17.5002 4145 64.3817
17.617 4226 65.0077
17.7338 4440 66.6333
17.8505 4478 66.9179
17.9672 4737 68.8259
18.0839 4823 69.4478
18.2005 4946 70.3278
18.3171 4929 70.2068
18.4337 5085 71.3092
18.5502 5136 71.6659
18.6666 5075 71.239
18.7831 5329 73
18.8994 5053 71.0845
19.0158 4961 70.4344
19.1321 4679 68.4032
19.2483 4385 66.2193
19.3645 4264 65.2993
19.4806 4009 63.3167
19.5967 3770 61.4003
19.7128 3567 59.7244
19.8288 3391 58.2323
19.9447 2951 54.3231
20.0606 0 1
20.1764 0 1
20.2922 0 1
20.4079 0 1
20.5236 0 1
20.6392 0 1
20.7548 0 1
20.8702 0 1
23.3078 0 1
23.4233 0 1
23.539 0 1
23.6547 0 1
23.7704 0 1
23.8862 0 1
24.0021 0 1
24.118 0 1
24.234 0 1
24.35 0 1
24.4661 2093 45.7493
24.5822 2411 49.1019
24.6984 2711 52.0673
24.8146 3002 54.7905
24.9309 3370 58.0517
25.0472 3801 61.6523
25.1636 4138 64.3273
25.28 4344 65.909
25.3965 4523 67.2533
25.513 4649 68.1836
25.6296 4945 70.3207
25.7462 4755 68.9565
25.8628 4995 70.6753
25.9795 5001 70.7177
26.0962 5124 71.5821
26.213 4934 70.2424
26.3298 4784 69.1665
26.4466 4793 69.2315
26.5635 4807 69.3325
26.6804 4795 69.2459
26.7973 4824 69.455
26.9143 4849 69.6348
27.0313 4704 68.5857
27.1483 4807 69.3325
27.2653 4965 70.4628
27.3824 5000 70.7107
27.4996 5015 70.8167
27.6167 4930 70.214
27.7339 4798 69.2676
27.8511 4859 69.7065
27.9683 4687 68.4617
28.0855 4604 67.8528
28.2028 4558 67.513
28.3201 4762 69.0072
28.4374 4769 69.0579
28.5547 4842 69.5845
28.6721 4919 70.1356
28.7894 4902 70.0143
28.9068 4798 69.2676
29.0242 4713 68.6513
29.1416 4834 69.527
29.259 4748 68.9057
29.3764 4714 68.6586
29.4939 4710 68.6294
29.6113 4493 67.0298
29.7288 4720 68.7023
29.8463 4659 68.2569
29.9638 4653 68.2129
30.0812 4939 70.278
30.1987 4850 69.6419
30.3162 4888 69.9142
30.4337 4800 69.282
30.5512 4726 68.7459
30.6687 4727 68.7532
30.7862 4939 70.278
30.9037 5196 72.0833
31.0212 5056 71.1056
31.1387 5116 71.5262
31.2562 5102 71.4283
31.3737 4769 69.0579
31.4912 4772 69.0797
31.6087 4748 68.9057
31.7262 4764 69.0217
31.8436 4721 68.7095
31.9611 4841 69.5773
32.0785 4926 70.1855
32.1959 4845 69.606
32.3134 4990 70.6399
32.4308 4941 70.2922
32.5482 4919 70.1356
32.6655 4792 69.2243
32.7829 4775 69.1014
32.9002 4573 67.624
33.0176 4668 68.3228
33.1349 4771 69.0724
33.2522 4748 68.9057
33.3694 4572 67.6166
33.4867 4713 68.6513
33.6039 4814 69.383
33.7211 4797 69.2604
33.8383 4996 70.6824
33.9554 4927 70.1926
34.0725 4772 69.0797
34.1896 4894 69.9571
34.3067 4843 69.5917
34.4237 4981 70.5762
34.5407 5104 71.4423
34.6577 5276 72.6361
34.7746 5183 71.9931
34.8915 5128 71.6101
35.0084 5099 71.4073
35.1252 5106 71.4563
35.242 4896 69.9714
35.3587 4925 70.1783
35.4755 4825 69.4622
35.5921 5035 70.9577
35.7088 4916 70.1142
35.8254 5074 71.232
35.9419 4959 70.4202
36.0584 4767 69.0435
36.1749 4647 68.1689
36.2913 4772 69.0797
36.4077 4591 67.7569
36.524 4270 65.3452
36.6403 4089 63.9453
36.7565 3817 61.7819
36.8727 3529 59.4054
36.9889 3348 57.8619
37.1049 3089 55.5788
37.221 0 1
37.3369 0 1
37.4529 0 1
37.5687 0 1
37.6845 0 1
37.8003 0 1
37.916 0 1
38.0316 0 1
38.1472 0 1
40.5851 0 1
40.7008 0 1
40.8164 0 1
40.9322 0 1
41.048 0 1
41.1639 0 1
41.2798 0 1
41.3958 0 1
41.5118 0 1
41.6279 0 1
41.744 2668 51.6527
41.8602 3048 55.2087
41.9765 3438 58.6345
42.0928 3709 60.9016
42.2091 3951 62.857
42.3255 4215 64.923
42.4419 4339 65.8711
42.5584 4423 66.5056
42.675 4559 67.5204
42.7915 4460 66.7832
42.9081 4330 65.8027
43.0248 4460 66.7832
43.1415 4588 67.7348
43.2582 4741 68.8549
43.375 4989 70.6329
43.4918 5081 71.2811
43.6087 5166 71.8749
43.7256 5299 72.7942
43.8425 5212 72.1942
43.9595 5313 72.8903
44.0765 5297 72.7805
44.1935 5330 73.0068
44.3106 5372 73.2939
44.4277 5671 75.306
44.5448 5797 76.138
44.6619 5875 76.6485
44.7791 6006 77.4984
44.8963 6178 78.6003
45.0136 6452 80.3243
45.1308 6587 81.1603
45.2481 6739 82.0914
45.3654 6917 83.1685
45.4827 6999 83.66
45.6001 7301 85.4459
45.7174 7557 86.931
45.8348 7694 87.7154
45.9522 7852 88.6115
46.0697 8235 90.7469
46.1871 8246 90.8075
46.3046 7848 88.5889
46.422 7559 86.9425
46.5395 7650 87.4643
46.657 8496 92.1737
46.7745 8849 94.0691
46.892 9414 97.0258
47.0096 10052 100.26
47.1271 10483 102.387
47.2446 10638 103.141
47.3622 10590 102.908
47.4797 10837 104.101
47.5973 10979 104.781
47.7149 10962 104.7
47.8324 10905 104.427
47.95 10837 104.101
48.0675 11057 105.152
48.1851 10919 104.494
48.3027 10440 102.176
48.4202 10570 102.811
48.5378 10596 102.937
48.6554 10019 100.095
48.7729 9977 99.8849
48.8904 9840 99.1968
49.008 9682 98.3972
49.1255 9161 95.7131
49.243 9100 95.3939
49.3605 8985 94.7892
49.478 8673 93.1289
49.5955 8381 91.5478
49.713 7909 88.9326
49.8304 7153 84.5754
49.9479 6756 82.1949
50.0653 6453 80.3306
50.1827 6675 81.7007
50.3001 6820 82.5833
50.4175 7163 84.6345
50.5348 7159 84.6109
50.6521 7433 86.2148
50.7694 7433 86.2148
50.8867 7205 84.8823
51.004 7087 84.1843
51.1212 7022 83.7974
51.2384 6833 82.662
51.3556 6884 82.9699
51.4727 6690 81.7924
51.5899 6488 80.5481
51.707 6352 79.6994
51.824 6335 79.5927
51.9411 6066 77.8845
52.0581 6057 77.8267
52.175 5946 77.1103
52.2919 5734 75.7232
52.4088 5790 76.092
52.5257 5918 76.9285
52.6425 5663 75.2529
52.7593 5601 74.8398
52.876 5624 74.9933
52.9927 5584 74.7262
53.1094 5614 74.9266
53.226 5479 74.0203
53.3426 5130 71.624
53.4591 4858 69.6994
53.5756 4672 68.352
53.692 4422 66.4981
53.8084 4411 66.4154
53.9248 4125 64.2262
54.0411 3866 62.1772
54.1573 3523 59.3549
54.2735 0 1
54.3896 0 1
54.5057 0 1
54.6217 0 1
54.7377 0 1
54.8537 0 1
54.9695 0 1
55.0853 0 1
55.2011 0 1
55.3168 0 1
55.4324 0 1
57.824 0 1
57.9396 0 1
58.0553 0 1
58.1711 0 1
58.2869 0 1
58.4028 0 1
58.5187 0 1
58.6347 0 1
58.7508 0 1
58.8669 0 1
58.983 4795 69.2459
59.0992 5495 74.1283
59.2155 6076 77.9487
59.3318 6740 82.0975
59.4482 7211 84.9176
59.5646 7658 87.51
59.681 8060 89.7775
59.7975 8118 90.0999
59.9141 8410 91.7061
60.0306 8181 90.4489
60.1473 8093 89.9611
60.2639 8103 90.0167
60.3807 8234 90.7414
60.4974 8117 90.0944
60.6142 8276 90.9725
60.731 7990 89.3868
60.8479 7924 89.0169
60.9648 7951 89.1684
61.0818 7676 87.6128
61.1987 7872 88.7243
61.3158 7818 88.4195
61.4328 7758 88.0795
61.5499 7684 87.6584
61.667 7809 88.3685
61.7841 7708 87.7952
61.9013 7456 86.3481
62.0185 7216 84.947
62.1357 7354 85.7555
62.253 7498 86.591
62.3702 7796 88.295
62.4875 7993 89.4036
62.6049 8293 91.0659
62.7222 8483 92.1032
62.8396 9037 95.0631
62.9569 9096 95.373
63.0743 9361 96.7523
63.1918 9141 95.6086
63.3092 9075 95.2628
63.4267 9019 94.9684
63.5441 8750 93.5414
63.6616 8711 93.3327
63.7791 8642 92.9624
63.8966 8571 92.5797
64.0142 8674 93.1343
64.1317 8359 91.4276
64.2492 8234 90.7414
64.3668 8112 90.0666
64.4843 8187 90.482
64.6019 8071 89.8387
64.7195 8047 89.7051
64.837 7923 89.0112
64.9546 8061 89.7831
65.0722 8095 89.9722
65.1898 8074 89.8554
65.3074 8045 89.6939
65.4249 7716 87.8408
65.5425 7580 87.0632
65.6601 7466 86.406
65.7777 7751 88.0398
65.8952 7928 89.0393
66.0128 8225 90.6918
66.1304 8566 92.5527
66.2479 8913 94.4087
66.3655 9108 95.4358
66.483 9519 97.5654
66.6005 9695 98.4632
66.718 9646 98.2141
66.8355 9759 98.7877
66.953 9708 98.5292
67.0705 9285 96.3587
67.1879 9177 95.7967
67.3054 9025 95
67.4228 8880 94.2338
67.5402 8982 94.7734
67.6576 8737 93.4719
67.7749 8655 93.0323
67.8923 8567 92.5581
68.0096 8514 92.2713
68.1269 8365 91.4604
68.2442 8520 92.3038
68.3614 8714 93.3488
68.4787 8465 92.0054
68.5958 8303 91.1208
68.713 8206 90.587
68.8302 8605 92.7631
68.9473 8402 91.6624
69.0643 7925 89.0225
69.1814 7504 86.6256
69.2984 7655 87.4929
69.4154 7624 87.3155
69.5323 7863 88.6736
69.6492 8320 91.214
69.7661 8644 92.9731
69.8829 8783 93.7177
69.9997 8924 94.4669
70.1165 9090 95.3415
70.2332 8698 93.2631
70.3499 8720 93.3809
70.4665 8307 91.1427
70.5831 7582 87.0747
70.6996 6958 83.4146
70.8161 6439 80.2434
70.9326 5859 76.5441
71.049 5365 73.2462
71.1653 5091 71.3512
71.2817 4898 69.9857
71.3979 4585 67.7126
71.5141 4418 66.468
71.6303 4140 64.3428
71.7464 3576 59.7997
71.8624 0 1
71.9784 0 1
72.0944 0 1
72.2102 0 1
72.3261 0 1
72.4418 0 1
72.5575 0 1
72.6732 0 1
75.1054 0 1
75.2209 0 1
75.3365 0 1
75.4521 0 1
75.5678 0 1
75.6835 0 1
75.7993 0 1
75.9151 0 1
76.031 0 1
76.147 7182 84.7467
76.263 7796 88.295
76.3791 8155 90.305
76.4952 8203 90.5704
76.6113 8229 90.7138
76.7276 8385 91.5696
76.8438 8514 92.2713
76.9601 8646 92.9839
77.0765 8597 92.72
77.1929 8643 92.9677
77.3093 9081 95.2943
77.4258 9206 95.9479
77.5423 8968 94.6995
77.6589 9339 96.6385
77.7755 9027 95.0105
77.8921 9008 94.9105
78.0088 8393 91.6133
78.1256 7992 89.398
78.2423 7862 88.6679
78.3591 7662 87.5329
78.4759 8100 90
78.5928 8885 94.2603
78.7097 9290 96.3846
78.8266 9523 97.5859
78.9436 9715 98.5647
79.0606 10063 100.315
79.1776 10360 101.784
79.2946 10984 104.805
79.4117 11006 104.909
79.5288 11060 105.167
79.6459 10824 104.038
79.7631 10689 103.388
79.8802 10282 101.4
79.9974 9834 99.1665
80.1147 9795 98.9697
80.2319 9975 99.8749
80.3491 10149 100.742
80.4664 10105 100.524
80.5837 10081 100.404
80.701 10023 100.115
80.8183 10097 100.484
80.9357 10248 101.232
81.053 10369 101.828
81.1704 10360 101.784
81.2877 10314 101.558
81.4051 10495 102.445
81.5225 10208 101.035
81.6399 10249 101.237
81.7573 9103 95.4096
81.8747 8965 94.6837
81.9922 8591 92.6876
82.1096 9005 94.8947
82.227 9706 98.519
82.3444 10414 102.049
82.4619 11000 104.881
82.5793 11419 106.86
82.6967 11367 106.616
82.8142 11781 108.54
82.9316 12232 110.598
83.049 12242 110.644
83.1664 12138 110.173
83.2838 12331 111.045
83.4012 12093 109.968
83.5186 11521 107.336
83.636 11256 106.094
83.7534 11301 106.306
83.8708 11469 107.093
83.9881 11399 106.766
84.1055 11484 107.163
84.2228 11513 107.299
84.3401 11841 108.816
84.4575 11804 108.646
84.5747 11894 109.06
84.692 12261 110.729
84.8093 12326 111.023
84.9265 12247 110.666
85.0437 12080 109.909
85.1609 11547 107.457
85.2781 10897 104.389
85.3952 10321 101.592
85.5123 9979 99.8949
85.6294 9829 99.1413
85.7465 10552 102.723
85.8636 11296 106.283
85.9806 12029 109.677
86.0976 12601 112.254
86.2145 12658 112.508
86.3315 12727 112.814
86.4484 13601 116.623
86.5652 13759 117.299
86.682 13863 117.741
86.7988 14113 118.798
86.9156 13836 117.627
87.0323 13666 116.902
87.149 13014 114.079
87.2657 12924 113.684
87.3823 12659 112.512
87.4988 12300 110.905
87.6154 11948 109.307
87.7318 11546 107.452
87.8483 10901 104.408
87.9647 10176 100.876
88.081 9665 98.3107
88.1973 8946 94.5833
88.3136 8700 93.2738
88.4298 8044 89.6883
88.546 7550 86.8907
88.6621 6959 83.4206
88.7781 6138 78.3454
88.8942 0 1
89.0101 0 1
89.126 0 1
89.2419 0 1
89.3577 0 1
89.4734 0 1
89.5891 0 1
89.7047 0 1
89.8203 0 1
89.9358 0 1
92.3269 0 1
92.4424 0 1
92.558 0 1
92.6736 0 1
92.7893 0 1
92.905 0 1
93.0208 0 1
93.1366 0 1
93.2525 0 1
93.3685 0 1
93.4845 0 1
93.6005 11891 109.046
93.7167 13340 115.499
93.8328 13881 117.818
93.949 14539 120.578
94.0653 15118 122.955
94.1816 15109 122.919
94.2979 14709 121.281
94.4143 14050 118.533
94.5307 13290 115.282
94.6472 12632 112.392
94.7637 12320 110.995
94.8803 12769 113
94.9969 13475 116.082
95.1135 14275 119.478
95.2302 14573 120.719
95.3469 15579 124.816
95.4637 16449 128.254
95.5805 16253 127.487
95.6973 16863 129.858
95.8142 16971 130.273
95.9311 16752 129.43
96.048 16899 129.996
96.1649 16833 129.742
96.2819 16446 128.242
96.3989 15722 125.387
96.516 15900 126.095
96.633 16091 126.85
96.7501 16213 127.33
96.8673 16333 127.801
96.9844 16225 127.377
97.1016 16731 129.348
97.2188 16632 128.965
97.336 16981 130.311
97.4532 16984 130.323
97.5704 17416 131.97
97.6877 17816 133.477
97.805 17527 132.39
97.9223 17018 130.453
98.0396 16120 126.965
98.1569 15183 123.219
98.2743 14048 118.524
98.3916 13457 116.004
98.509 13487 116.134
98.6264 14370 119.875
98.7438 15055 122.699
98.8612 16387 128.012
98.9786 17180 131.072
99.096 17729 133.15
99.2134 18075 134.443
99.3308 18826 137.208
99.4482 19132 138.318
99.5656 19331 139.036
99.6831 19243 138.719
99.8005 19065 138.076
99.9179 18476 135.926
100.035 17847 133.593
100.153 17949 133.974
100.27 18069 134.421
100.388 17931 133.907
100.505 17980 134.09
100.622 17877 133.705
100.74 18012 134.209
100.857 17846 133.589
100.975 17863 133.653
101.092 18509 136.048
101.209 18631 136.495
101.327 18828 137.215
101.444 18343 135.436
101.561 17784 133.357
101.679 16779 129.534
101.796 15568 124.772
101.913 14866 121.926
102.03 14715 121.305
102.148 15177 123.195
102.265 15967 126.361
102.382 17206 131.172
102.499 18624 136.47
102.616 19265 138.798
102.733 19311 138.964
102.851 20229 142.229
102.968 20374 142.738
103.085 20812 144.264
103.202 20690 143.84
103.319 20466 143.059
103.436 19679 140.282
103.552 19594 139.979
103.669 19418 139.348
103.786 19595 139.982
103.903 19374 139.191
104.02 19342 139.076
104.137 19382 139.219
104.253 18805 137.131
104.37 19528 139.743
104.487 19542 139.793
104.603 19558 139.85
104.72 19623 140.082
104.836 18873 137.379
104.953 17849 133.6
105.069 16045 126.669
105.186 14536 120.565
105.302 13075 114.346
105.418 11680 108.074
105.535 10390 101.931
105.651 9700 98.4886
105.767 9535 97.6473
105.883 9400 96.9536
105.999 9245 96.1509
106.115 0 1
106.231 0 1
106.347 0 1
106.463 0 1
106.579 0 1
106.694 0 1
106.81 0 1
106.926 0 1
107.041 0 1
107.157 0 1
109.576 0 1
109.692 0 1
109.807 0 1
109.923 0 1
110.039 0 1
110.155 0 1
110.27 0 1
110.386 0 1
110.502 0 1
110.618 7508 86.6487
110.735 9610 98.0306
110.851 11288 106.245
110.967 12968 113.877
111.083 14783 121.585
111.199 15784 125.634
111.316 16218 127.35
111.432 16569 128.721
111.549 16989 130.342
111.665 16565 128.705
111.782 16826 129.715
111.898 16546 128.631
112.015 16049 126.685
112.132 15947 126.281
112.248 15768 125.571
112.365 15613 124.952
112.482 15319 123.77
112.599 15988 126.444
112.716 15734 125.435
112.832 15569 124.776
112.949 15049 122.674
113.066 15653 125.112
113.183 15494 124.475
113.3 15489 124.455
113.417 15878 126.008
113.534 15460 124.338
113.652 15033 122.609
113.769 13879 117.809
113.886 13193 114.861
114.003 12138 110.173
114.12 11859 108.899
114.238 12044 109.745
114.355 13037 114.18
114.472 13192 114.856
114.589 15524 124.595
114.707 15694 125.276
114.824 15972 126.38
114.942 16071 126.771
115.059 16349 127.863
115.176 16371 127.949
115.294 15939 126.25
115.411 15628 125.012
115.529 15515 124.559
115.646 14931 122.192
115.764 14979 122.389
115.881 14591 120.793
115.999 14817 121.725
116.116 14505 120.437
116.234 14494 120.391
116.351 14452 120.216
116.469 14176 119.063
116.586 14324 119.683
116.704 14453 120.221
116.821 14394 119.975
116.939 14871 121.947
117.056 14650 121.037
117.174 14554 120.64
117.291 13887 117.843
117.409 13057 114.267
117.526 12454 111.597
117.644 11682 108.083
117.761 11651 107.94
117.879 12101 110.005
117.996 13116 114.525
118.114 14070 118.617
118.231 15133 123.016
118.349 15312 123.742
118.466 15597 124.888
118.584 15840 125.857
118.701 15850 125.897
118.819 15427 124.205
118.936 15317 123.762
119.053 15358 123.927
119.171 15277 123.6
119.288 14947 122.258
119.405 14772 121.54
119.523 14490 120.374
119.64 14734 121.384
119.757 14145 118.933
119.875 13932 118.034
119.992 13987 118.267
120.109 13931 118.03
120.226 13741 117.222
120.343 14253 119.386
120.46 14260 119.415
120.578 14483 120.345
120.695 14327 119.695
120.812 14085 118.68
120.929 13689 117
121.046 13065 114.302
121.163 11841 108.816
121.279 11258 106.104
121.396 10775 103.803
121.513 10583 102.874
121.63 11270 106.16
121.747 11495 107.215
121.863 11959 109.357
121.98 12481 111.718
122.097 12291 110.865
122.213 11675 108.051
122.33 11167 105.674
122.446 10649 103.194
122.563 9611 98.0357
122.679 9358 96.7368
122.795 8846 94.0532
122.912 8304 91.1263
123.028 7840 88.5438
123.144 7519 86.7122
123.26 6890 83.006
123.377 0 1
123.493 0 1
123.609 0 1
123.725 0 1
123.84 0 1
123.956 0 1
124.072 0 1
124.188 0 1
124.303 0 1
124.419 0 1
126.852 0 1
126.968 0 1
127.083 0 1
127.199 0 1
127.315 0 1
127.431 0 1
127.547 0 1
127.663 0 1
127.779 0 1
127.895 0 1
128.011 0 1
128.127 0 1
128.243 0 1
128.359 15085 122.821
128.476 15587 124.848
128.592 15372 123.984
128.708 15218 123.361
128.825 15244 123.467
128.941 14932 122.197
129.058 14555 120.644
129.174 14891 122.029
129.291 14633 120.967
129.408 14872 121.951
129.524 14965 122.332
129.641 14979 122.389
129.758 14922 122.156
129.875 14794 121.631
129.992 14457 120.237
130.108 13893 117.869
130.225 13228 115.013
130.342 12460 111.624
130.459 11600 107.703
130.576 11710 108.213
130.693 11968 109.398
130.81 13231 115.026
130.928 13953 118.123
131.045 14584 120.764
131.162 14755 121.47
131.279 14671 121.124
131.396 14731 121.371
131.513 14895 122.045
131.631 14423 120.096
131.748 14482 120.341
131.865 14595 120.81
131.983 14348 119.783
132.1 14659 121.074
132.217 14329 119.704
132.335 14077 118.647
132.452 14049 118.528
132.57 13916 117.966
132.687 14014 118.381
132.804 13612 116.67
132.922 13794 117.448
133.039 13688 116.996
133.157 13795 117.452
133.274 13566 116.473
133.392 13835 117.622
133.509 13570 116.49
133.627 13035 114.171
133.744 12614 112.312
133.862 11593 107.671
133.979 11023 104.99
134.097 10470 102.323
134.214 10725 103.562
134.332 11373 106.644
134.449 12142 110.191
134.567 13018 114.096
134.684 13303 115.339
134.802 13255 115.13
134.919 13351 115.547
135.037 13003 114.031
135.154 13003 114.031
135.272 12810 113.181
135.389 12874 113.464
135.507 12828 113.261
135.624 13040 114.193
135.742 12958 113.833
135.859 12913 113.635
135.977 12628 112.374
136.094 12599 112.245
136.211 12504 111.821
136.329 12494 111.777
136.446 12366 111.203
136.564 12233 110.603
136.681 12345 111.108
136.798 12245 110.657
136.915 12722 112.792
137.033 12452 111.589
137.15 12212 110.508
137.267 12028 109.672
137.384 11384 106.696
137.502 10641 103.155
137.619 9890 99.4485
137.736 9750 98.7421
137.853 9652 98.2446
137.97 10523 102.582
138.087 11113 105.418
138.204 11706 108.194
138.321 12100 110
138.438 12209 110.494
138.555 12185 110.386
138.672 12087 109.941
138.788 11642 107.898
138.905 11263 106.127
139.022 10946 104.623
139.139 10706 103.47
139.255 10418 102.069
139.372 10040 100.2
139.488 9378 96.8401
139.605 8680 93.1665
139.721 8304 91.1263
139.838 7786 88.2383
139.954 7439 86.2496
140.071 7036 83.8809
140.187 6661 81.6149
140.303 6440 80.2496
140.419 6149 78.4156
140.535 5716 75.6042
140.652 5670 75.2994
140.768 0 1
140.884 0 1
141 0 1
141.115 0 1
141.231 0 1
141.347 0 1
141.463 0 1
141.578 0 1
141.694 0 1
144.104 0 1
144.219 0 1
144.335 0 1
144.45 0 1
144.566 0 1
144.682 0 1
144.798 0 1
144.914 0 1
145.03 0 1
145.146 8888 94.2762
145.262 9181 95.8175
145.378 9453 97.2265
145.494 9354 96.7161
145.61 9480 97.3653
145.726 9399 96.9484
145.842 9387 96.8865
145.959 9410 97.0052
146.075 9275 96.3068
146.192 9167 95.7445
146.308 8640 92.9516
146.425 8264 90.9065
146.541 7896 88.8594
146.658 7708 87.7952
146.774 7895 88.8538
146.891 8348 91.3674
147.008 8904 94.361
147.125 9178 95.8019
147.241 9487 97.4012
147.358 9525 97.5961
147.475 9670 98.3362
147.592 9392 96.9123
147.709 9416 97.0361
147.826 9499 97.4628
147.943 9470 97.3139
148.06 9500 97.4679
148.177 9523 97.5859
148.294 9464 97.2831
148.411 9575 97.8519
148.528 9370 96.7988
148.645 9548 97.7139
148.762 9469 97.3088
148.88 9576 97.857
148.997 9449 97.206
149.114 9141 95.6086
149.231 9193 95.8801
149.349 9269 96.2756
149.466 9225 96.0469
149.583 9250 96.1769
149.701 9203 95.9323
149.818 8945 94.578
149.935 8752 93.5521
150.053 8292 91.0604
150.17 7913 88.955
150.287 7647 87.4471
150.405 7846 88.5776
150.522 8117 90.0944
150.64 8704 93.2952
150.757 8788 93.7443
150.875 9169 95.7549
150.992 9137 95.5877
151.11 9201 95.9218
151.227 9124 95.5196
151.344 9099 95.3887
151.462 8948 94.5939
151.579 9105 95.4201
151.697 9231 96.0781
151.814 9363 96.7626
151.932 9344 96.6644
152.049 9307 96.4728
152.167 9382 96.8607
152.284 9158 95.6974
152.402 9197 95.901
152.519 9089 95.3362
152.636 8820 93.9149
152.754 8814 93.8829
152.871 8751 93.5468
152.989 8836 94
153.106 9049 95.1262
153.223 9092 95.352
153.341 8773 93.6643
153.458 8688 93.2094
153.575 8531 92.3634
153.693 7901 88.8876
153.81 7660 87.5214
153.927 7740 87.9773
154.044 7733 87.9375
154.162 8282 91.0055
154.279 8680 93.1665
154.396 9122 95.5092
154.513 9311 96.4935
154.63 9467 97.2985
154.747 9285 96.3587
154.864 9121 95.5039
154.981 9114 95.4673
155.098 9077 95.2733
155.215 9116 95.4777
155.332 9260 96.2289
155.449 9108 95.4358
155.566 8912 94.4034
155.683 8854 94.0957
155.8 8785 93.7283
155.917 8604 92.7577
156.033 8297 91.0879
156.15 0 1
156.267 0 1
156.383 0 1
156.5 0 1
156.617 0 1
156.733 0 1
156.85 0 1
156.966 0 1
157.082 0 1
157.199 0 1
157.315 0 1
157.431 0 1
157.547 0 1
157.664 0 1
157.78 0 1
157.896 0 1
158.012 0 1
158.128 0 1
158.244 0 1
158.359 0 1
158.475 0 1
158.591 0 1
158.706 0 1
