
6.15755 0 1
6.2731 0 1
6.3887 0 1
6.50437 0 1
6.62009 0 1
6.73587 0 1
6.8517 0 1
6.96759 0 1
7.08353 0 1
7.19952 0 1
7.31557 0 1
7.43166 0 1
7.54781 0 1
7.664 0 1
7.78024 0 1
7.89653 0 1
8.01286 0 1
8.12924 0 1
8.24567 0 1
8.36213 0 1
8.47864 0 1
8.59519 0 1
8.71178 0 1
8.82841 0 1
8.94508 0 1
9.06179 0 1
9.17853 0 1
9.29531 0 1
9.41212 0 1
9.52897 0 1
9.64584 0 1
9.76276 0 1
9.8797 0 1
9.99667 0 1
10.1137 0 1
10.2307 0 1
10.3478 0 1
10.4648 0 1
10.5819 0 1
10.6991 0 1
10.8162 0 1
10.9334 0 1
11.0506 0 1
11.1678 0 1
11.285 0 1
11.4023 0 1
11.5196 0 1
11.6369 0 1
11.7542 0 1
11.8715 0 1
11.9888 0 1
12.1062 0 1
12.2235 0 1
12.3409 0 1
12.4582 0 1
12.5756 0 1
12.693 0 1
12.8104 0 1
12.9278 0 1
13.0452 0 1
13.1626 0 1
13.28 0 1
13.3974 0 1
13.5149 0 1
13.6323 0 1
13.7497 0 1
13.8671 0 1
13.9845 0 1
14.1019 0 1
14.2193 0 1
14.3367 0 1
14.4541 0 1
14.5714 0 1
14.6888 0 1
14.8062 0 1
14.9235 0 1
15.0408 0 0
15.1581 0 0
15.2755 0 0
15.3927 0 0
15.51 0 0
15.6273 0 0
15.7445 0 0
15.8617 0 0
15.9789 0 0
16.0961 0 0
16.2132 0 0
16.3304 0 0
16.4475 0 0
16.5646 0 0
16.6816 0 0
16.7986 0 0
16.9156 0 0
17.0326 0 0
17.1496 0 0
17.2665 0 0
17.3833 0 0
17.5002 0 0
17.617 0 0
17.7338 0 0
17.8505 0 0
17.9672 0 0
18.0839 0 0
18.2005 0 0
18.3171 0 0
18.4337 0 0
18.5502 0 0
18.6666 0 0
18.7831 0 0
18.8994 0 0
19.0158 0 0
19.1321 0 0
19.2483 0 0
19.3645 0 0
19.4806 0 0
19.5967 0 0
19.7128 0 0
19.8288 0 0
19.9447 0 0
20.0606 0 1
20.1764 0 1
20.2922 0 1
20.4079 0 1
20.5236 0 1
20.6392 0 1
20.7548 0 1
20.8702 0 1
23.3078 0 1
23.4233 0 1
23.539 0 1
23.6547 0 1
23.7704 0 1
23.8862 0 1
24.0021 0 1
24.118 0 1
24.234 0 1
24.35 0 1
24.4661 1349 36.7287
24.5822 1393 37.3229
24.6984 1443 37.9868
24.8146 1310 36.1939
24.9309 1297 36.0139
25.0472 1232 35.0999
25.1636 1292 35.9444
25.28 1386 37.229
25.3965 1382 37.1753
25.513 1439 37.9342
25.6296 1544 39.2938
25.7462 1513 38.8973
25.8628 1564 39.5474
25.9795 1527 39.0768
26.0962 1476 38.4187
26.213 1555 39.4335
26.3298 1497 38.6911
26.4466 1416 37.6298
26.5635 1412 37.5766
26.6804 1340 36.606
26.7973 1360 36.8782
26.9143 1408 37.5233
27.0313 1396 37.3631
27.1483 1374 37.0675
27.2653 1463 38.2492
27.3824 1490 38.6005
27.4996 1506 38.8072
27.6167 1483 38.5097
27.7339 1465 38.2753
27.8511 1430 37.8153
27.9683 1369 37
28.0855 1341 36.6197
28.2028 1382 37.1753
28.3201 1355 36.8103
28.4374 1175 34.2783
28.5547 1242 35.242
28.6721 1201 34.6554
28.7894 1289 35.9026
28.9068 1275 35.7071
29.0242 1311 36.2077
29.1416 1366 36.9594
29.259 1466 38.2884
29.3764 1385 37.2156
29.4939 1404 37.47
29.6113 1402 37.4433
29.7288 1361 36.8917
29.8463 1388 37.2559
29.9638 1270 35.6371
30.0812 1276 35.7211
30.1987 1265 35.5668
30.3162 1252 35.3836
30.4337 1325 36.4005
30.5512 1321 36.3456
30.6687 1369 37
30.7862 1473 38.3797
30.9037 1440 37.9473
31.0212 1434 37.8682
31.1387 1485 38.5357
31.2562 1452 38.1051
31.3737 1450 38.0789
31.4912 1377 37.108
31.6087 1372 37.0405
31.7262 1357 36.8375
31.8436 1276 35.7211
31.9611 1252 35.3836
32.0785 1199 34.6266
32.1959 1246 35.2987
32.3134 1241 35.2278
32.4308 1356 36.8239
32.5482 1390 37.2827
32.6655 1386 37.229
32.7829 1412 37.5766
32.9002 1383 37.1887
33.0176 1391 37.2961
33.1349 1401 37.4299
33.2522 1421 37.6962
33.3694 1471 38.3536
33.4867 1408 37.5233
33.6039 1347 36.7015
33.7211 1380 37.1484
33.8383 1275 35.7071
33.9554 1203 34.6843
34.0725 1288 35.8887
34.1896 1271 35.6511
34.3067 1428 37.7889
34.4237 1460 38.2099
34.5407 1444 38
34.6577 1446 38.0263
34.7746 1418 37.6563
34.8915 1454 38.1314
35.0084 1426 37.7624
35.1252 1347 36.7015
35.242 1397 37.3765
35.3587 1335 36.5377
35.4755 1278 35.7491
35.5921 1245 35.2846
35.7088 1201 34.6554
35.8254 1199 34.6266
35.9419 1224 34.9857
36.0584 1265 35.5668
36.1749 1300 36.0555
36.2913 1309 36.1801
36.4077 1464 38.2623
36.524 1438 37.921
36.6403 1388 37.2559
36.7565 1399 37.4032
36.8727 1409 37.5366
36.9889 1331 36.4829
37.1049 1367 36.973
37.221 0 1
37.3369 0 1
37.4529 0 1
37.5687 0 1
37.6845 0 1
37.8003 0 1
37.916 0 1
38.0316 0 1
38.1472 0 1
40.5851 0 1
40.7008 0 1
40.8164 0 1
40.9322 0 1
41.048 0 1
41.1639 0 1
41.2798 0 1
41.3958 0 1
41.5118 0 1
41.6279 0 1
41.744 1129 33.6006
41.8602 1136 33.7046
41.9765 1121 33.4813
42.0928 1235 35.1426
42.2091 1171 34.2199
42.3255 1177 34.3074
42.4419 1108 33.2866
42.5584 1055 32.4808
42.675 1054 32.4654
42.7915 1018 31.9061
42.9081 1142 33.7935
43.0248 1118 33.4365
43.1415 1127 33.5708
43.2582 1159 34.0441
43.375 1197 34.5977
43.4918 1086 32.9545
43.6087 1185 34.4238
43.7256 1120 33.4664
43.8425 1099 33.1512
43.9595 1137 33.7194
44.0765 1127 33.5708
44.1935 1082 32.8938
44.3106 985 31.3847
44.4277 956 30.9192
44.5448 912 30.1993
44.6619 853 29.2062
44.7791 860 29.3258
44.8963 908 30.133
45.0136 974 31.209
45.1308 1037 32.2025
45.2481 1026 32.0312
45.3654 978 31.273
45.4827 1030 32.0936
45.6001 997 31.5753
45.7174 1053 32.45
45.8348 952 30.8545
45.9522 921 30.348
46.0697 903 30.05
46.1871 881 29.6816
46.3046 898 29.9666
46.422 858 29.2916
46.5395 930 30.4959
46.657 963 31.0322
46.7745 882 29.6985
46.892 987 31.4166
47.0096 925 30.4138
47.1271 930 30.4959
47.2446 928 30.4631
47.3622 921 30.348
47.4797 942 30.692
47.5973 917 30.282
47.7149 833 28.8617
47.8324 825 28.7228
47.95 732 27.0555
48.0675 720 26.8328
48.1851 697 26.4008
48.3027 661 25.7099
48.4202 730 27.0185
48.5378 744 27.2764
48.6554 789 28.0891
48.7729 810 28.4605
48.8904 839 28.9655
49.008 858 29.2916
49.1255 839 28.9655
49.243 883 29.7153
49.3605 812 28.4956
49.478 859 29.3087
49.5955 810 28.4605
49.713 743 27.258
49.8304 747 27.3313
49.9479 795 28.1957
50.0653 845 29.0689
50.1827 901 30.0167
50.3001 902 30.0333
50.4175 906 30.0998
50.5348 972 31.1769
50.6521 1026 32.0312
50.7694 1009 31.7648
50.8867 1083 32.909
51.004 1015 31.8591
51.1212 1026 32.0312
51.2384 997 31.5753
51.3556 985 31.3847
51.4727 1015 31.8591
51.5899 969 31.1288
51.707 948 30.7896
51.824 929 30.4795
51.9411 1001 31.6386
52.0581 1011 31.7962
52.175 1093 33.0606
52.2919 1232 35.0999
52.4088 1198 34.6121
52.5257 1241 35.2278
52.6425 1219 34.9142
52.7593 1272 35.6651
52.876 1270 35.6371
52.9927 1265 35.5668
53.1094 1260 35.4965
53.226 1216 34.8712
53.3426 1172 34.2345
53.4591 1229 35.0571
53.5756 1238 35.1852
53.692 1225 35
53.8084 1312 36.2215
53.9248 1359 36.8646
54.0411 1368 36.9865
54.1573 1454 38.1314
54.2735 0 1
54.3896 0 1
54.5057 0 1
54.6217 0 1
54.7377 0 1
54.8537 0 1
54.9695 0 1
55.0853 0 1
55.2011 0 1
55.3168 0 1
55.4324 0 1
57.824 0 1
57.9396 0 1
58.0553 0 1
58.1711 0 1
58.2869 0 1
58.4028 0 1
58.5187 0 1
58.6347 0 1
58.7508 0 1
58.8669 0 1
58.983 1710 41.3521
59.0992 1849 43
59.2155 1776 42.1426
59.3318 1810 42.5441
59.4482 1877 43.3244
59.5646 1874 43.2897
59.681 1741 41.7253
59.7975 1772 42.0951
59.9141 1662 40.7676
60.0306 1659 40.7308
60.1473 1576 39.6989
60.2639 1458 38.1838
60.3807 1391 37.2961
60.4974 1343 36.647
60.6142 1450 38.0789
60.731 1503 38.7685
60.8479 1635 40.4351
60.9648 1656 40.694
61.0818 1706 41.3038
61.1987 1717 41.4367
61.3158 1772 42.0951
61.4328 1696 41.1825
61.5499 1663 40.7799
61.667 1651 40.6325
61.7841 1605 40.0625
61.9013 1552 39.3954
62.0185 1547 39.3319
62.1357 1575 39.6863
62.253 1672 40.8901
62.3702 1626 40.3237
62.4875 1724 41.5211
62.6049 1771 42.0833
62.7222 1823 42.6966
62.8396 1748 41.8091
62.9569 1804 42.4735
63.0743 1816 42.6146
63.1918 1734 41.6413
63.3092 1684 41.0366
63.4267 1682 41.0122
63.5441 1619 40.2368
63.6616 1552 39.3954
63.7791 1374 37.0675
63.8966 1322 36.3593
64.0142 1361 36.8917
64.1317 1406 37.4967
64.2492 1417 37.6431
64.3668 1551 39.3827
64.4843 1663 40.7799
64.6019 1806 42.4971
64.7195 1701 41.2432
64.837 1683 41.0244
64.9546 1703 41.2674
65.0722 1722 41.497
65.1898 1677 40.9512
65.3074 1662 40.7676
65.4249 1571 39.6358
65.5425 1602 40.025
65.6601 1540 39.2428
65.7777 1614 40.1746
65.8952 1692 41.1339
66.0128 1705 41.2916
66.1304 1760 41.9524
66.2479 1805 42.4853
66.3655 1788 42.2847
66.483 1863 43.1625
66.6005 1952 44.1814
66.718 1884 43.4051
66.8355 1781 42.2019
66.953 1828 42.7551
67.0705 1836 42.8486
67.1879 1702 41.2553
67.3054 1530 39.1152
67.4228 1350 36.7423
67.5402 1432 37.8418
67.6576 1374 37.0675
67.7749 1402 37.4433
67.8923 1596 39.95
68.0096 1701 41.2432
68.1269 1821 42.6732
68.2442 1801 42.4382
68.3614 1880 43.359
68.4787 1905 43.6463
68.5958 1809 42.5323
68.713 1887 43.4396
68.8302 1826 42.7317
68.9473 1839 42.8836
69.0643 1788 42.2847
69.1814 1702 41.2553
69.2984 1652 40.6448
69.4154 1774 42.1189
69.5323 1886 43.4281
69.6492 1947 44.1248
69.7661 2033 45.0888
69.8829 2070 45.4973
69.9997 2074 45.5412
70.1165 2151 46.3789
70.2332 2185 46.744
70.3499 2217 47.085
70.4665 2145 46.3141
70.5831 2155 46.422
70.6996 2071 45.5082
70.8161 1916 43.7721
70.9326 1778 42.1663
71.049 1629 40.3609
71.1653 1446 38.0263
71.2817 1476 38.4187
71.3979 1537 39.2046
71.5141 1567 39.5854
71.6303 1729 41.5812
71.7464 1803 42.4617
71.8624 0 1
71.9784 0 1
72.0944 0 1
72.2102 0 1
72.3261 0 1
72.4418 0 1
72.5575 0 1
72.6732 0 1
75.1054 0 1
75.2209 0 1
75.3365 0 1
75.4521 0 1
75.5678 0 1
75.6835 0 1
75.7993 0 1
75.9151 0 1
76.031 0 1
76.147 1978 44.4747
76.263 1965 44.3283
76.3791 1917 43.7836
76.4952 1770 42.0714
76.6113 1594 39.9249
76.7276 1719 41.4608
76.8438 1900 43.589
76.9601 2079 45.5961
77.0765 2285 47.8017
77.1929 2417 49.163
77.3093 2516 50.1597
77.4258 2396 48.949
77.5423 2472 49.7192
77.6589 2617 51.1566
77.7755 2464 49.6387
77.8921 2315 48.1144
78.0088 2264 47.5815
78.1256 2249 47.4236
78.2423 2113 45.9674
78.3591 2204 46.9468
78.4759 2227 47.1911
78.5928 2414 49.1325
78.7097 2546 50.4579
78.8266 2673 51.7011
78.9436 2525 50.2494
79.0606 2600 50.9902
79.1776 2557 50.5668
79.2946 2664 51.614
79.4117 2657 51.5461
79.5288 2683 51.7977
79.6459 2519 50.1896
79.7631 2483 49.8297
79.8802 2350 48.4768
79.9974 2084 45.6508
80.1147 1916 43.7721
80.2319 1722 41.497
80.3491 1865 43.1856
80.4664 2027 45.0222
80.5837 2353 48.5077
80.701 2520 50.1996
80.8183 2661 51.5849
80.9357 2630 51.2835
81.053 2766 52.5928
81.1704 2690 51.8652
81.2877 2691 51.8748
81.4051 2694 51.9038
81.5225 2671 51.6817
81.6399 2554 50.5371
81.7573 2450 49.4975
81.8747 2288 47.833
81.9922 2349 48.4665
82.1096 2440 49.3964
82.227 2460 49.5984
82.3444 2640 51.3809
82.4619 2751 52.45
82.5793 2675 51.7204
82.6967 2823 53.1319
82.8142 2841 53.301
82.9316 2902 53.8702
83.049 2842 53.3104
83.1664 2685 51.817
83.2838 2840 53.2917
83.4012 2615 51.1371
83.5186 2491 49.9099
83.636 2342 48.3942
83.7534 2090 45.7165
83.8708 1940 44.0454
83.9881 1876 43.3128
84.1055 2118 46.0217
84.2228 2409 49.0816
84.3401 2628 51.264
84.4575 2722 52.1728
84.5747 2828 53.1789
84.692 2940 54.2218
84.8093 2995 54.7266
84.9265 2926 54.0925
85.0437 2944 54.2586
85.1609 3002 54.7905
85.2781 2737 52.3163
85.3952 2706 52.0192
85.5123 2759 52.5262
85.6294 2644 51.4198
85.7465 2683 51.7977
85.8636 2981 54.5985
85.9806 3116 55.8211
86.0976 3136 56
86.2145 3386 58.1893
86.3315 3384 58.1722
86.4484 3559 59.6574
86.5652 3541 59.5063
86.682 3469 58.8982
86.7988 3504 59.1946
86.9156 3488 59.0593
87.0323 3418 58.4637
87.149 3145 56.0803
87.2657 2931 54.1387
87.3823 2662 51.5946
87.4988 2434 49.3356
87.6154 2669 51.6624
87.7318 3067 55.3805
87.8483 3326 57.6715
87.9647 3656 60.4649
88.081 3809 61.7171
88.1973 4025 63.4429
88.3136 4029 63.4744
88.4298 3946 62.8172
88.546 3972 63.0238
88.6621 3969 63
88.7781 3786 61.5305
88.8942 0 1
89.0101 0 1
89.126 0 1
89.2419 0 1
89.3577 0 1
89.4734 0 1
89.5891 0 1
89.7047 0 1
89.8203 0 1
89.9358 0 1
92.3269 0 1
92.4424 0 1
92.558 0 1
92.6736 0 1
92.7893 0 1
92.905 0 1
93.0208 0 1
93.1366 0 1
93.2525 0 1
93.3685 0 1
93.4845 0 1
93.6005 4464 66.8132
93.7167 4536 67.3498
93.8328 4488 66.9925
93.949 4615 67.9338
94.0653 4520 67.2309
94.1816 4429 66.5507
94.2979 4335 65.8407
94.4143 4209 64.8768
94.5307 4200 64.8074
94.6472 4096 64
94.7637 3953 62.8729
94.8803 4220 64.9615
94.9969 4266 65.3146
95.1135 4550 67.4537
95.2302 4688 68.469
95.3469 4928 70.1997
95.4637 4896 69.9714
95.5805 4954 70.3847
95.6973 5051 71.0704
95.8142 4911 70.0785
95.9311 5004 70.739
96.048 4826 69.4694
96.1649 4751 68.9275
96.2819 4516 67.2012
96.3989 4229 65.0308
96.516 3963 62.9524
96.633 3519 59.3212
96.7501 3580 59.8331
96.8673 3721 61
96.9844 4279 65.4141
97.1016 4647 68.1689
97.2188 5035 70.9577
97.336 5285 72.698
97.4532 5455 73.858
97.5704 5386 73.3894
97.6877 5254 72.4845
97.805 5345 73.1095
97.9223 5097 71.3933
98.0396 5034 70.9507
98.1569 4963 70.4486
98.2743 4861 69.7209
98.3916 4629 68.0368
98.509 4658 68.2495
98.6264 4915 70.1071
98.7438 5058 71.1196
98.8612 5314 72.8972
98.9786 5582 74.7128
99.096 5422 73.6342
99.2134 5716 75.6042
99.3308 5583 74.7195
99.4482 5745 75.7958
99.5656 5689 75.4255
99.6831 5603 74.8532
99.8005 5415 73.5867
99.9179 5277 72.643
100.035 4866 69.7567
100.153 4417 66.4605
100.27 4112 64.1249
100.388 4222 64.9769
100.505 4584 67.7052
100.622 5213 72.2011
100.74 5754 75.8551
100.857 5799 76.1512
100.975 5953 77.1557
101.092 6048 77.7689
101.209 6000 77.4597
101.327 5824 76.3151
101.444 5975 77.2981
101.561 5857 76.531
101.679 5646 75.1399
101.796 5446 73.797
101.913 5262 72.5396
102.03 5196 72.0833
102.148 5412 73.5663
102.265 5920 76.9415
102.382 5674 75.326
102.499 5935 77.039
102.616 6151 78.4283
102.733 6344 79.6492
102.851 6577 81.0987
102.968 6380 79.8749
103.085 6479 80.4922
103.202 6230 78.9303
103.319 6010 77.5242
103.436 5934 77.0325
103.552 5574 74.6592
103.669 5047 71.0422
103.786 4532 67.3201
103.903 4705 68.593
104.02 5198 72.0972
104.137 5660 75.233
104.253 6439 80.2434
104.37 6516 80.7217
104.487 6881 82.9518
104.603 6783 82.359
104.72 6834 82.668
104.836 6832 82.6559
104.953 6682 81.7435
105.069 6459 80.3679
105.186 6410 80.0625
105.302 6073 77.9295
105.418 6045 77.7496
105.535 5968 77.2528
105.651 6262 79.1328
105.767 6555 80.963
105.883 6611 81.3081
105.999 6810 82.5227
106.115 0 1
106.231 0 1
106.347 0 1
106.463 0 1
106.579 0 1
106.694 0 1
106.81 0 1
106.926 0 1
107.041 0 1
107.157 0 1
109.576 0 1
109.692 0 1
109.807 0 1
109.923 0 1
110.039 0 1
110.155 0 1
110.27 0 1
110.386 0 1
110.502 0 1
110.618 5586 74.7395
110.735 5926 76.9805
110.851 6023 77.608
110.967 6276 79.2212
111.083 6285 79.278
111.199 6590 81.1788
111.316 6531 80.8146
111.432 6416 80.0999
111.549 6419 80.1187
111.665 6440 80.2496
111.782 6176 78.5875
111.898 5872 76.629
112.015 5443 73.7767
112.132 5026 70.8943
112.248 4508 67.1416
112.365 4341 65.8863
112.482 4666 68.3081
112.599 4914 70.0999
112.716 5587 74.7462
112.832 5821 76.2955
112.949 6132 78.3071
113.066 5956 77.1751
113.183 5839 76.4133
113.3 5807 76.2037
113.417 5765 75.9276
113.534 5765 75.9276
113.652 5430 73.6885
113.769 5260 72.5259
113.886 5136 71.6659
114.003 4973 70.5195
114.12 4974 70.5266
114.238 5035 70.9577
114.355 5163 71.854
114.472 5158 71.8192
114.589 5290 72.7324
114.707 5191 72.0486
114.824 5389 73.4098
114.942 5427 73.6682
115.059 5455 73.858
115.176 5336 73.0479
115.294 5136 71.6659
115.411 5241 72.3948
115.529 4799 69.2748
115.646 4623 67.9926
115.764 4154 64.4515
115.881 3850 62.0484
115.999 3897 62.426
116.116 4207 64.8614
116.234 4747 68.8985
116.351 5167 71.8818
116.469 5260 72.5259
116.586 5370 73.2803
116.704 5279 72.6567
116.821 5313 72.8903
116.939 5369 73.2735
117.056 5369 73.2735
117.174 5238 72.374
117.291 5108 71.4703
117.409 4942 70.2994
117.526 4744 68.8767
117.644 4706 68.6003
117.761 4903 70.0214
117.879 5015 70.8167
117.996 4852 69.6563
118.114 5068 71.1899
118.231 5133 71.645
118.349 5154 71.7914
118.466 5153 71.7844
118.584 5353 73.1642
118.701 5333 73.0274
118.819 5218 72.2357
118.936 5173 71.9236
119.053 5082 71.2881
119.171 4713 68.6513
119.288 4363 66.053
119.405 3987 63.1427
119.523 3742 61.1719
119.64 3887 62.3458
119.757 4205 64.846
119.875 4692 68.4982
119.992 4865 69.7496
120.109 4960 70.4273
120.226 5140 71.6938
120.343 5145 71.7287
120.46 5180 71.9722
120.578 5150 71.7635
120.695 4962 70.4415
120.812 4918 70.1285
120.929 4935 70.2496
121.046 4809 69.347
121.163 4607 67.8749
121.279 4546 67.424
121.396 4489 67
121.513 4538 67.3647
121.63 4640 68.1175
121.747 4705 68.593
121.863 4714 68.6586
121.98 4826 69.4694
122.097 4880 69.857
122.213 4762 69.0072
122.33 4949 70.3491
122.446 4988 70.6258
122.563 4871 69.7925
122.679 4592 67.7643
122.795 4643 68.1396
122.912 4558 67.513
123.028 4175 64.6142
123.144 3876 62.2575
123.26 3429 58.5577
123.377 0 1
123.493 0 1
123.609 0 1
123.725 0 1
123.84 0 1
123.956 0 1
124.072 0 1
124.188 0 1
124.303 0 1
124.419 0 1
126.852 0 1
126.968 0 1
127.083 0 1
127.199 0 1
127.315 0 1
127.431 0 1
127.547 0 1
127.663 0 1
127.779 0 1
127.895 0 1
128.011 0 1
128.127 0 1
128.243 0 1
128.359 4192 64.7457
128.476 3780 61.4817
128.592 3749 61.2291
128.708 4152 64.436
128.825 4687 68.4617
128.941 5030 70.9225
129.058 5171 71.9097
129.174 5232 72.3326
129.291 5264 72.5534
129.408 5365 73.2462
129.524 5323 72.9589
129.641 5084 71.3022
129.758 5060 71.1337
129.875 4985 70.6045
129.992 4816 69.3974
130.108 4686 68.4544
130.225 4589 67.7422
130.342 4518 67.2161
130.459 4616 67.9412
130.576 4918 70.1285
130.693 4793 69.2315
130.81 4891 69.9357
130.928 4918 70.1285
131.045 4737 68.8259
131.162 5071 71.211
131.279 4978 70.5549
131.396 4914 70.0999
131.513 4814 69.383
131.631 4711 68.6367
131.748 4612 67.9117
131.865 4251 65.1997
131.983 3877 62.2656
132.1 3555 59.6238
132.217 3738 61.1392
132.335 4091 63.9609
132.452 4553 67.4759
132.57 4874 69.814
132.687 4783 69.1592
132.804 4987 70.6187
132.922 4850 69.6419
133.039 4855 69.6778
133.157 4876 69.8284
133.274 4740 68.8477
133.392 4690 68.4836
133.509 4566 67.5722
133.627 4461 66.7907
133.744 4364 66.0606
133.862 4420 66.4831
133.979 4505 67.1193
134.097 4452 66.7233
134.214 4569 67.5944
134.332 4410 66.4078
134.449 4492 67.0224
134.567 4579 67.6683
134.684 4511 67.164
134.802 4634 68.0735
134.919 4521 67.2384
135.037 4549 67.4463
135.154 4555 67.4907
135.272 4416 66.453
135.389 4239 65.1076
135.507 3757 61.2944
135.624 3556 59.6322
135.742 3412 58.4123
135.859 3699 60.8194
135.977 4095 63.9922
136.094 4377 66.1589
136.211 4678 68.3959
136.329 4653 68.2129
136.446 4719 68.695
136.564 4648 68.1762
136.681 4727 68.7532
136.798 4598 67.8086
136.915 4702 68.5711
137.033 4452 66.7233
137.15 4429 66.5507
137.267 4278 65.4064
137.384 4274 65.3758
137.502 4284 65.4523
137.619 4305 65.6125
137.736 4441 66.6408
137.853 4231 65.0461
137.97 4311 65.6582
138.087 4415 66.4455
138.204 4284 65.4523
138.321 4392 66.2722
138.438 4506 67.1267
138.555 4517 67.2086
138.672 4441 66.6408
138.788 4419 66.4756
138.905 4399 66.325
139.022 3961 62.9365
139.139 3794 61.5955
139.255 3471 58.9152
139.372 3514 59.279
139.488 3693 60.7701
139.605 3908 62.514
139.721 4282 65.437
139.838 4487 66.9851
139.954 4618 67.9559
140.071 4480 66.9328
140.187 4476 66.9029
140.303 4552 67.4685
140.419 4485 66.9701
140.535 4375 66.1438
140.652 4272 65.3605
140.768 0 1
140.884 0 1
141 0 1
141.115 0 1
141.231 0 1
141.347 0 1
141.463 0 1
141.578 0 1
141.694 0 1
144.104 0 1
144.219 0 1
144.335 0 1
144.45 0 1
144.566 0 1
144.682 0 1
144.798 0 1
144.914 0 1
145.03 0 1
145.146 3774 61.4329
145.262 3804 61.6766
145.378 3681 60.6712
145.494 3807 61.7009
145.61 3691 60.7536
145.726 3593 59.9416
145.842 3536 59.4643
145.959 3573 59.7746
146.075 3374 58.0861
146.192 3400 58.3095
146.308 3447 58.7112
146.425 3489 59.0678
146.541 3519 59.3212
146.658 3471 58.9152
146.774 3448 58.7197
146.891 3573 59.7746
147.008 3559 59.6574
147.125 3564 59.6992
147.241 3623 60.1914
147.358 3571 59.7578
147.475 3375 58.0948
147.592 3300 57.4456
147.709 3111 55.7763
147.826 2696 51.923
147.943 2630 51.2835
148.06 2786 52.7826
148.177 3123 55.8838
148.294 3281 57.28
148.411 3474 58.9406
148.528 3568 59.7327
148.645 3611 60.0916
148.762 3451 58.7452
148.88 3541 59.5063
148.997 3391 58.2323
149.114 3616 60.1332
149.231 3452 58.7537
149.349 3297 57.4195
149.466 3206 56.6216
149.583 3183 56.4181
149.701 3119 55.848
149.818 3028 55.0273
149.935 3209 56.648
150.053 3277 57.2451
150.17 3185 56.4358
150.287 3172 56.3205
150.405 3217 56.7186
150.522 3260 57.0964
150.64 3356 57.931
150.757 3282 57.2887
150.875 3224 56.7803
150.992 3375 58.0948
151.11 3131 55.9553
151.227 2957 54.3783
151.344 2962 54.4243
151.462 2493 49.93
151.579 2584 50.8331
151.697 2751 52.45
151.814 2879 53.6563
151.932 3210 56.6569
152.049 3281 57.28
152.167 3432 58.5833
152.284 3335 57.7495
152.402 3249 57
152.519 3371 58.0603
152.636 3380 58.1378
152.754 3315 57.576
152.871 3172 56.3205
152.989 3229 56.8243
153.106 3161 56.2228
153.223 2967 54.4702
153.341 3071 55.4166
153.458 3026 55.0091
153.575 3044 55.1725
153.693 3003 54.7996
153.81 3115 55.8122
153.927 3100 55.6776
154.044 3196 56.5332
154.162 3315 57.576
154.279 3322 57.6368
154.396 3284 57.3062
154.513 3486 59.0424
154.63 3254 57.0438
154.747 3252 57.0263
154.864 3093 55.6147
154.981 2918 54.0185
155.098 2777 52.6972
155.215 2752 52.4595
155.332 2851 53.3948
155.449 3059 55.3082
155.566 3244 56.9561
155.683 3400 58.3095
155.8 3363 57.9914
155.917 3325 57.6628
156.033 3421 58.4893
156.15 0 1
156.267 0 1
156.383 0 1
156.5 0 1
156.617 0 1
156.733 0 1
156.85 0 1
156.966 0 1
157.082 0 1
157.199 0 1
157.315 0 1
157.431 0 1
157.547 0 1
157.664 0 1
157.78 0 1
157.896 0 1
158.012 0 1
158.128 0 1
158.244 0 1
158.359 0 1
158.475 0 1
158.591 0 1
158.706 0 1
