
6.15755 0 1
6.2731 0 1
6.3887 0 1
6.50437 0 1
6.62009 0 1
6.73587 0 1
6.8517 0 1
6.96759 0 1
7.08353 0 1
7.19952 0 1
7.31557 0 1
7.43166 0 1
7.54781 0 1
7.664 0 1
7.78024 0 1
7.89653 0 1
8.01286 0 1
8.12924 0 1
8.24567 0 1
8.36213 0 1
8.47864 0 1
8.59519 0 1
8.71178 0 1
8.82841 0 1
8.94508 0 1
9.06179 0 1
9.17853 0 1
9.29531 0 1
9.41212 0 1
9.52897 0 1
9.64584 0 1
9.76276 0 1
9.8797 0 1
9.99667 0 1
10.1137 0 1
10.2307 0 1
10.3478 0 1
10.4648 0 1
10.5819 0 1
10.6991 0 1
10.8162 0 1
10.9334 0 1
11.0506 0 1
11.1678 0 1
11.285 0 1
11.4023 0 1
11.5196 0 1
11.6369 0 1
11.7542 0 1
11.8715 0 1
11.9888 0 1
12.1062 0 1
12.2235 0 1
12.3409 0 1
12.4582 0 1
12.5756 0 1
12.693 0 1
12.8104 0 1
12.9278 0 1
13.0452 0 1
13.1626 0 1
13.28 0 1
13.3974 0 1
13.5149 0 1
13.6323 0 1
13.7497 0 1
13.8671 0 1
13.9845 0 1
14.1019 0 1
14.2193 0 1
14.3367 0 1
14.4541 0 1
14.5714 0 1
14.6888 0 1
14.8062 0 1
14.9235 0 1
15.0408 0 0
15.1581 0 0
15.2755 0 0
15.3927 0 0
15.51 0 0
15.6273 0 0
15.7445 0 0
15.8617 0 0
15.9789 0 0
16.0961 0 0
16.2132 0 0
16.3304 0 0
16.4475 0 0
16.5646 0 0
16.6816 0 0
16.7986 0 0
16.9156 0 0
17.0326 0 0
17.1496 0 0
17.2665 0 0
17.3833 0 0
17.5002 0 0
17.617 0 0
17.7338 0 0
17.8505 0 0
17.9672 0 0
18.0839 0 0
18.2005 0 0
18.3171 0 0
18.4337 0 0
18.5502 0 0
18.6666 0 0
18.7831 0 0
18.8994 0 0
19.0158 0 0
19.1321 0 0
19.2483 0 0
19.3645 0 0
19.4806 0 0
19.5967 0 0
19.7128 0 0
19.8288 0 0
19.9447 0 0
20.0606 0 1
20.1764 0 1
20.2922 0 1
20.4079 0 1
20.5236 0 1
20.6392 0 1
20.7548 0 1
20.8702 0 1
23.3078 0 1
23.4233 0 1
23.539 0 1
23.6547 0 1
23.7704 0 1
23.8862 0 1
24.0021 0 1
24.118 0 1
24.234 0 1
24.35 0 1
24.4661 1270 35.6371
24.5822 1221 34.9428
24.6984 1256 35.4401
24.8146 1280 35.7771
24.9309 1222 34.9571
25.0472 1196 34.5832
25.1636 1227 35.0286
25.28 1239 35.1994
25.3965 1226 35.0143
25.513 1266 35.5809
25.6296 1278 35.7491
25.7462 1267 35.5949
25.8628 1350 36.7423
25.9795 1267 35.5949
26.0962 1249 35.3412
26.213 1285 35.8469
26.3298 1234 35.1283
26.4466 1249 35.3412
26.5635 1197 34.5977
26.6804 1170 34.2053
26.7973 1176 34.2929
26.9143 1279 35.7631
27.0313 1282 35.805
27.1483 1249 35.3412
27.2653 1291 35.9305
27.3824 1349 36.7287
27.4996 1301 36.0694
27.6167 1402 37.4433
27.7339 1304 36.1109
27.8511 1286 35.8608
27.9683 1160 34.0588
28.0855 1166 34.1467
28.2028 1146 33.8526
28.3201 1200 34.641
28.4374 1173 34.2491
28.5547 1176 34.2929
28.6721 1111 33.3317
28.7894 1137 33.7194
28.9068 1142 33.7935
29.0242 1144 33.8231
29.1416 1054 32.4654
29.259 1167 34.1614
29.3764 1136 33.7046
29.4939 1138 33.7343
29.6113 1173 34.2491
29.7288 1119 33.4515
29.8463 1154 33.9706
29.9638 1160 34.0588
30.0812 1105 33.2415
30.1987 1007 31.7333
30.3162 1083 32.909
30.4337 1117 33.4215
30.5512 1174 34.2637
30.6687 1172 34.2345
30.7862 1254 35.4119
30.9037 1208 34.7563
31.0212 1207 34.7419
31.1387 1250 35.3553
31.2562 1225 35
31.3737 1207 34.7419
31.4912 1258 35.4683
31.6087 1181 34.3657
31.7262 1124 33.5261
31.8436 1075 32.7872
31.9611 1090 33.0151
32.0785 1066 32.6497
32.1959 1098 33.1361
32.3134 1109 33.3017
32.4308 1091 33.0303
32.5482 1114 33.3766
32.6655 1067 32.665
32.7829 1091 33.0303
32.9002 1058 32.5269
33.0176 1109 33.3017
33.1349 1112 33.3467
33.2522 1126 33.5559
33.3694 1162 34.0881
33.4867 1150 33.9116
33.6039 1167 34.1614
33.7211 1057 32.5115
33.8383 1032 32.1248
33.9554 1084 32.9242
34.0725 1095 33.0908
34.1896 1155 33.9853
34.3067 1234 35.1283
34.4237 1260 35.4965
34.5407 1190 34.4964
34.6577 1221 34.9428
34.7746 1214 34.8425
34.8915 1115 33.3916
35.0084 1153 33.9559
35.1252 1194 34.5543
35.242 1185 34.4238
35.3587 1193 34.5398
35.4755 1128 33.5857
35.5921 1054 32.4654
35.7088 1045 32.3265
35.8254 1054 32.4654
35.9419 1040 32.249
36.0584 1057 32.5115
36.1749 1037 32.2025
36.2913 1008 31.749
36.4077 1018 31.9061
36.524 1073 32.7567
36.6403 1064 32.619
36.7565 1021 31.9531
36.8727 1087 32.9697
36.9889 1083 32.909
37.1049 1041 32.2645
37.221 0 1
37.3369 0 1
37.4529 0 1
37.5687 0 1
37.6845 0 1
37.8003 0 1
37.916 0 1
38.0316 0 1
38.1472 0 1
40.5851 0 1
40.7008 0 1
40.8164 0 1
40.9322 0 1
41.048 0 1
41.1639 0 1
41.2798 0 1
41.3958 0 1
41.5118 0 1
41.6279 0 1
41.744 748 27.3496
41.8602 747 27.3313
41.9765 783 27.9821
42.0928 881 29.6816
42.2091 885 29.7489
42.3255 866 29.4279
42.4419 840 28.9828
42.5584 813 28.5132
42.675 795 28.1957
42.7915 752 27.4226
42.9081 801 28.3019
43.0248 841 29
43.1415 896 29.9333
43.2582 842 29.0172
43.375 872 29.5296
43.4918 900 30
43.6087 844 29.0517
43.7256 851 29.1719
43.8425 850 29.1548
43.9595 817 28.5832
44.0765 854 29.2233
44.1935 827 28.7576
44.3106 746 27.313
44.4277 748 27.3496
44.5448 683 26.1343
44.6619 656 25.6125
44.7791 643 25.3574
44.8963 633 25.1595
45.0136 582 24.1247
45.1308 596 24.4131
45.2481 533 23.0868
45.3654 585 24.1868
45.4827 570 23.8747
45.6001 608 24.6577
45.7174 622 24.9399
45.8348 621 24.9199
45.9522 635 25.1992
46.0697 653 25.5539
46.1871 555 23.5584
46.3046 539 23.2164
46.422 546 23.3666
46.5395 608 24.6577
46.657 652 25.5343
46.7745 621 24.9199
46.892 582 24.1247
47.0096 623 24.96
47.1271 650 25.4951
47.2446 643 25.3574
47.3622 622 24.9399
47.4797 564 23.7487
47.5973 575 23.9792
47.7149 530 23.0217
47.8324 533 23.0868
47.95 526 22.9347
48.0675 427 20.664
48.1851 426 20.6398
48.3027 412 20.2978
48.4202 399 19.975
48.5378 426 20.6398
48.6554 446 21.1187
48.7729 392 19.799
48.8904 443 21.0476
49.008 429 20.7123
49.1255 485 22.0227
49.243 464 21.5407
49.3605 494 22.2261
49.478 476 21.8174
49.5955 404 20.0998
49.713 417 20.4206
49.8304 455 21.3307
49.9479 457 21.3776
50.0653 506 22.4944
50.1827 542 23.2809
50.3001 537 23.1733
50.4175 526 22.9347
50.5348 555 23.5584
50.6521 593 24.3516
50.7694 612 24.7386
50.8867 600 24.4949
51.004 622 24.9399
51.1212 661 25.7099
51.2384 620 24.8998
51.3556 634 25.1794
51.4727 658 25.6515
51.5899 623 24.96
51.707 602 24.5357
51.824 565 23.7697
51.9411 559 23.6432
52.0581 514 22.6716
52.175 566 23.7908
52.2919 655 25.593
52.4088 646 25.4165
52.5257 716 26.7582
52.6425 698 26.4197
52.7593 755 27.4773
52.876 764 27.6405
52.9927 757 27.5136
53.1094 768 27.7128
53.226 697 26.4008
53.3426 718 26.7955
53.4591 746 27.313
53.5756 811 28.4781
53.692 823 28.688
53.8084 866 29.4279
53.9248 903 30.05
54.0411 947 30.7734
54.1573 999 31.607
54.2735 0 1
54.3896 0 1
54.5057 0 1
54.6217 0 1
54.7377 0 1
54.8537 0 1
54.9695 0 1
55.0853 0 1
55.2011 0 1
55.3168 0 1
55.4324 0 1
57.824 0 1
57.9396 0 1
58.0553 0 1
58.1711 0 1
58.2869 0 1
58.4028 0 1
58.5187 0 1
58.6347 0 1
58.7508 0 1
58.8669 0 1
58.983 1000 31.6228
59.0992 1056 32.4962
59.2155 1098 33.1361
59.3318 1158 34.0294
59.4482 1117 33.4215
59.5646 1135 33.6898
59.681 1126 33.5559
59.7975 1159 34.0441
59.9141 1121 33.4813
60.0306 1027 32.0468
60.1473 927 30.4467
60.2639 887 29.7825
60.3807 812 28.4956
60.4974 796 28.2135
60.6142 768 27.7128
60.731 774 27.8209
60.8479 803 28.3373
60.9648 794 28.178
61.0818 791 28.1247
61.1987 897 29.95
61.3158 884 29.7321
61.4328 878 29.6311
61.5499 883 29.7153
61.667 891 29.8496
61.7841 916 30.2655
61.9013 821 28.6531
62.0185 849 29.1376
62.1357 966 31.0805
62.253 923 30.3809
62.3702 945 30.7409
62.4875 1050 32.4037
62.6049 1071 32.7261
62.7222 1061 32.573
62.8396 1069 32.6956
62.9569 1034 32.1559
63.0743 1053 32.45
63.1918 1123 33.5112
63.3092 1052 32.4345
63.4267 1080 32.8634
63.5441 971 31.1609
63.6616 918 30.2985
63.7791 790 28.1069
63.8966 786 28.0357
64.0142 791 28.1247
64.1317 762 27.6043
64.2492 800 28.2843
64.3668 780 27.9285
64.4843 840 28.9828
64.6019 902 30.0333
64.7195 937 30.6105
64.837 960 30.9839
64.9546 1010 31.7805
65.0722 988 31.4325
65.1898 938 30.6268
65.3074 962 31.0161
65.4249 950 30.8221
65.5425 830 28.8097
65.6601 898 29.9666
65.7777 1018 31.9061
65.8952 1005 31.7017
66.0128 1050 32.4037
66.1304 1067 32.665
66.2479 1096 33.1059
66.3655 1139 33.7491
66.483 1103 33.2114
66.6005 1007 31.7333
66.718 1141 33.7787
66.8355 1129 33.6006
66.953 1061 32.573
67.0705 1054 32.4654
67.1879 960 30.9839
67.3054 898 29.9666
67.4228 822 28.6705
67.5402 773 27.8029
67.6576 731 27.037
67.7749 732 27.0555
67.8923 727 26.9629
68.0096 788 28.0713
68.1269 780 27.9285
68.2442 913 30.2159
68.3614 859 29.3087
68.4787 879 29.6479
68.5958 895 29.9166
68.713 977 31.257
68.8302 895 29.9166
68.9473 899 29.9833
69.0643 868 29.4618
69.1814 880 29.6648
69.2984 868 29.4618
69.4154 919 30.315
69.5323 940 30.6594
69.6492 975 31.225
69.7661 1054 32.4654
69.8829 1087 32.9697
69.9997 1059 32.5423
70.1165 1059 32.5423
70.2332 1157 34.0147
70.3499 1161 34.0735
70.4665 1030 32.0936
70.5831 1149 33.8969
70.6996 1029 32.078
70.8161 854 29.2233
70.9326 868 29.4618
71.049 750 27.3861
71.1653 737 27.1477
71.2817 708 26.6083
71.3979 667 25.8263
71.5141 681 26.096
71.6303 719 26.8142
71.7464 658 25.6515
71.8624 0 1
71.9784 0 1
72.0944 0 1
72.2102 0 1
72.3261 0 1
72.4418 0 1
72.5575 0 1
72.6732 0 1
75.1054 0 1
75.2209 0 1
75.3365 0 1
75.4521 0 1
75.5678 0 1
75.6835 0 1
75.7993 0 1
75.9151 0 1
76.031 0 1
76.147 834 28.8791
76.263 861 29.3428
76.3791 824 28.7054
76.4952 792 28.1425
76.6113 676 26
76.7276 715 26.7395
76.8438 668 25.8457
76.9601 722 26.8701
77.0765 783 27.9821
77.1929 805 28.3725
77.3093 953 30.8707
77.4258 991 31.4802
77.5423 1033 32.1403
77.6589 967 31.0966
77.7755 928 30.4631
77.8921 878 29.6311
78.0088 843 29.0345
78.1256 831 28.8271
78.2423 785 28.0179
78.3591 842 29.0172
78.4759 885 29.7489
78.5928 929 30.4795
78.7097 994 31.5278
78.8266 987 31.4166
78.9436 1086 32.9545
79.0606 1055 32.4808
79.1776 1118 33.4365
79.2946 1080 32.8634
79.4117 1058 32.5269
79.5288 1125 33.541
79.6459 1052 32.4345
79.7631 942 30.692
79.8802 873 29.5466
79.9974 780 27.9285
80.1147 672 25.923
80.2319 643 25.3574
80.3491 627 25.04
80.4664 629 25.0799
80.5837 678 26.0384
80.701 667 25.8263
80.8183 760 27.5681
80.9357 786 28.0357
81.053 805 28.3725
81.1704 853 29.2062
81.2877 850 29.1548
81.4051 796 28.2135
81.5225 742 27.2397
81.6399 734 27.0924
81.7573 753 27.4408
81.8747 734 27.0924
81.9922 719 26.8142
82.1096 736 27.1293
82.227 813 28.5132
82.3444 830 28.8097
82.4619 876 29.5973
82.5793 919 30.315
82.6967 935 30.5778
82.8142 843 29.0345
82.9316 905 30.0832
83.049 950 30.8221
83.1664 856 29.2575
83.2838 750 27.3861
83.4012 759 27.55
83.5186 708 26.6083
83.636 628 25.0599
83.7534 560 23.6643
83.8708 523 22.8692
83.9881 505 22.4722
84.1055 521 22.8254
84.2228 540 23.2379
84.3401 555 23.5584
84.4575 634 25.1794
84.5747 719 26.8142
84.692 763 27.6225
84.8093 735 27.1109
84.9265 724 26.9072
85.0437 733 27.074
85.1609 695 26.3629
85.2781 667 25.8263
85.3952 666 25.807
85.5123 711 26.6646
85.6294 715 26.7395
85.7465 789 28.0891
85.8636 870 29.4958
85.9806 865 29.4109
86.0976 906 30.0998
86.2145 988 31.4325
86.3315 976 31.241
86.4484 972 31.1769
86.5652 941 30.6757
86.682 1009 31.7648
86.7988 995 31.5436
86.9156 848 29.1204
87.0323 837 28.931
87.149 735 27.1109
87.2657 708 26.6083
87.3823 634 25.1794
87.4988 621 24.9199
87.6154 620 24.8998
87.7318 646 25.4165
87.8483 711 26.6646
87.9647 777 27.8747
88.081 821 28.6531
88.1973 935 30.5778
88.3136 956 30.9192
88.4298 958 30.9516
88.546 868 29.4618
88.6621 864 29.3939
88.7781 878 29.6311
88.8942 0 1
89.0101 0 1
89.126 0 1
89.2419 0 1
89.3577 0 1
89.4734 0 1
89.5891 0 1
89.7047 0 1
89.8203 0 1
89.9358 0 1
92.3269 0 1
92.4424 0 1
92.558 0 1
92.6736 0 1
92.7893 0 1
92.905 0 1
93.0208 0 1
93.1366 0 1
93.2525 0 1
93.3685 0 1
93.4845 0 1
93.6005 877 29.6142
93.7167 911 30.1828
93.8328 892 29.8664
93.949 806 28.3901
94.0653 837 28.931
94.1816 792 28.1425
94.2979 891 29.8496
94.4143 839 28.9655
94.5307 854 29.2233
94.6472 898 29.9666
94.7637 897 29.95
94.8803 911 30.1828
94.9969 987 31.4166
95.1135 1003 31.6702
95.2302 1045 32.3265
95.3469 1083 32.909
95.4637 1067 32.665
95.5805 1154 33.9706
95.6973 1161 34.0735
95.8142 1094 33.0757
95.9311 1066 32.6497
96.048 978 31.273
96.1649 980 31.305
96.2819 889 29.8161
96.3989 786 28.0357
96.516 677 26.0192
96.633 702 26.4953
96.7501 634 25.1794
96.8673 703 26.5141
96.9844 786 28.0357
97.1016 794 28.178
97.2188 851 29.1719
97.336 945 30.7409
97.4532 933 30.545
97.5704 937 30.6105
97.6877 900 30
97.805 890 29.8329
97.9223 843 29.0345
98.0396 819 28.6182
98.1569 870 29.4958
98.2743 864 29.3939
98.3916 879 29.6479
98.509 957 30.9354
98.6264 954 30.8869
98.7438 954 30.8869
98.8612 1016 31.8748
98.9786 1095 33.0908
99.096 1091 33.0303
99.2134 1106 33.2566
99.3308 1119 33.4515
99.4482 1124 33.5261
99.5656 1106 33.2566
99.6831 995 31.5436
99.8005 938 30.6268
99.9179 927 30.4467
100.035 822 28.6705
100.153 703 26.5141
100.27 721 26.8514
100.388 690 26.2679
100.505 758 27.5318
100.622 761 27.5862
100.74 805 28.3725
100.857 907 30.1164
100.975 925 30.4138
101.092 925 30.4138
101.209 949 30.8058
101.327 948 30.7896
101.444 879 29.6479
101.561 916 30.2655
101.679 901 30.0167
101.796 879 29.6479
101.913 937 30.6105
102.03 943 30.7083
102.148 1050 32.4037
102.265 1050 32.4037
102.382 1127 33.5708
102.499 1211 34.7994
102.616 1141 33.7787
102.733 1224 34.9857
102.851 1202 34.6699
102.968 1223 34.9714
103.085 1170 34.2053
103.202 1105 33.2415
103.319 1073 32.7567
103.436 944 30.7246
103.552 914 30.2324
103.669 773 27.8029
103.786 750 27.3861
103.903 765 27.6586
104.02 746 27.313
104.137 836 28.9137
104.253 900 30
104.37 980 31.305
104.487 1035 32.1714
104.603 1017 31.8904
104.72 982 31.3369
104.836 1019 31.9218
104.953 1014 31.8434
105.069 1055 32.4808
105.186 958 30.9516
105.302 994 31.5278
105.418 988 31.4325
105.535 1083 32.909
105.651 1109 33.3017
105.767 1240 35.2136
105.883 1275 35.7071
105.999 1377 37.108
106.115 0 1
106.231 0 1
106.347 0 1
106.463 0 1
106.579 0 1
106.694 0 1
106.81 0 1
106.926 0 1
107.041 0 1
107.157 0 1
109.576 0 1
109.692 0 1
109.807 0 1
109.923 0 1
110.039 0 1
110.155 0 1
110.27 0 1
110.386 0 1
110.502 0 1
110.618 998 31.5911
110.735 1029 32.078
110.851 1132 33.6452
110.967 1279 35.7631
111.083 1230 35.0714
111.199 1243 35.2562
111.316 1196 34.5832
111.432 1252 35.3836
111.549 1237 35.171
111.665 1179 34.3366
111.782 1053 32.45
111.898 1003 31.6702
112.015 956 30.9192
112.132 944 30.7246
112.248 824 28.7054
112.365 781 27.9464
112.482 696 26.3818
112.599 811 28.4781
112.716 852 29.189
112.832 892 29.8664
112.949 906 30.0998
113.066 977 31.257
113.183 934 30.5614
113.3 880 29.6648
113.417 926 30.4302
113.534 953 30.8707
113.652 865 29.4109
113.769 897 29.95
113.886 944 30.7246
114.003 944 30.7246
114.12 1005 31.7017
114.238 1128 33.5857
114.355 1135 33.6898
114.472 1116 33.4066
114.589 1146 33.8526
114.707 1212 34.8138
114.824 1235 35.1426
114.942 1197 34.5977
115.059 1181 34.3657
115.176 1195 34.5688
115.294 1131 33.6303
115.411 1093 33.0606
115.529 1042 32.28
115.646 987 31.4166
115.764 860 29.3258
115.881 809 28.4429
115.999 802 28.3196
116.116 806 28.3901
116.234 837 28.931
116.351 988 31.4325
116.469 947 30.7734
116.586 966 31.0805
116.704 1021 31.9531
116.821 995 31.5436
116.939 943 30.7083
117.056 923 30.3809
117.174 990 31.4643
117.291 992 31.496
117.409 986 31.4006
117.526 1047 32.3574
117.644 1143 33.8083
117.761 1156 34
117.879 1239 35.1994
117.996 1234 35.1283
118.114 1203 34.6843
118.231 1310 36.1939
118.349 1269 35.623
118.466 1272 35.6651
118.584 1268 35.609
118.701 1326 36.4143
118.819 1209 34.7707
118.936 1203 34.6843
119.053 1214 34.8425
119.171 1056 32.4962
119.288 1039 32.2335
119.405 937 30.6105
119.523 842 29.0172
119.64 881 29.6816
119.757 910 30.1662
119.875 933 30.545
119.992 953 30.8707
120.109 978 31.273
120.226 992 31.496
120.343 1005 31.7017
120.46 967 31.0966
120.578 904 30.0666
120.695 935 30.5778
120.812 929 30.4795
120.929 998 31.5911
121.046 1030 32.0936
121.163 1053 32.45
121.279 1071 32.7261
121.396 1136 33.7046
121.513 1209 34.7707
121.63 1185 34.4238
121.747 1196 34.5832
121.863 1239 35.1994
121.98 1288 35.8887
122.097 1294 35.9722
122.213 1254 35.4119
122.33 1322 36.3593
122.446 1245 35.2846
122.563 1215 34.8569
122.679 1125 33.541
122.795 1065 32.6343
122.912 1043 32.2955
123.028 974 31.209
123.144 948 30.7896
123.26 837 28.931
123.377 0 1
123.493 0 1
123.609 0 1
123.725 0 1
123.84 0 1
123.956 0 1
124.072 0 1
124.188 0 1
124.303 0 1
124.419 0 1
126.852 0 1
126.968 0 1
127.083 0 1
127.199 0 1
127.315 0 1
127.431 0 1
127.547 0 1
127.663 0 1
127.779 0 1
127.895 0 1
128.011 0 1
128.127 0 1
128.243 0 1
128.359 1068 32.6803
128.476 1032 32.1248
128.592 934 30.5614
128.708 977 31.257
128.825 1059 32.5423
128.941 1031 32.1092
129.058 1109 33.3017
129.174 1134 33.6749
129.291 1025 32.0156
129.408 1093 33.0606
129.524 993 31.5119
129.641 1008 31.749
129.758 1073 32.7567
129.875 1073 32.7567
129.992 1142 33.7935
130.108 1138 33.7343
130.225 1133 33.6601
130.342 1229 35.0571
130.459 1228 35.0428
130.576 1245 35.2846
130.693 1280 35.7771
130.81 1206 34.7275
130.928 1326 36.4143
131.045 1250 35.3553
131.162 1220 34.9285
131.279 1239 35.1994
131.396 1186 34.4384
131.513 1232 35.0999
131.631 1130 33.6155
131.748 1215 34.8569
131.865 1070 32.7109
131.983 987 31.4166
132.1 900 30
132.217 894 29.8998
132.335 1056 32.4962
132.452 1044 32.311
132.57 1065 32.6343
132.687 1052 32.4345
132.804 1024 32
132.922 1072 32.7414
133.039 1054 32.4654
133.157 1045 32.3265
133.274 1032 32.1248
133.392 1022 31.9687
133.509 1078 32.8329
133.627 1156 34
133.744 1146 33.8526
133.862 1194 34.5543
133.979 1215 34.8569
134.097 1237 35.171
134.214 1248 35.327
134.332 1365 36.9459
134.449 1250 35.3553
134.567 1241 35.2278
134.684 1347 36.7015
134.802 1311 36.2077
134.919 1335 36.5377
135.037 1269 35.623
135.154 1160 34.0588
135.272 1163 34.1028
135.389 1051 32.4191
135.507 1033 32.1403
135.624 1007 31.7333
135.742 975 31.225
135.859 1002 31.6544
135.977 1081 32.8786
136.094 1061 32.573
136.211 1091 33.0303
136.329 1073 32.7567
136.446 1092 33.0454
136.564 1090 33.0151
136.681 1080 32.8634
136.798 1086 32.9545
136.915 1025 32.0156
137.033 1091 33.0303
137.15 1115 33.3916
137.267 1118 33.4365
137.384 1191 34.5109
137.502 1171 34.2199
137.619 1180 34.3511
137.736 1196 34.5832
137.853 1186 34.4384
137.97 1223 34.9714
138.087 1219 34.9142
138.204 1224 34.9857
138.321 1280 35.7771
138.438 1204 34.6987
138.555 1224 34.9857
138.672 1241 35.2278
138.788 1232 35.0999
138.905 1182 34.3802
139.022 1095 33.0908
139.139 1078 32.8329
139.255 994 31.5278
139.372 1010 31.7805
139.488 960 30.9839
139.605 1140 33.7639
139.721 1113 33.3617
139.838 1086 32.9545
139.954 1085 32.9393
140.071 1091 33.0303
140.187 1075 32.7872
140.303 1055 32.4808
140.419 995 31.5436
140.535 1024 32
140.652 1031 32.1092
140.768 0 1
140.884 0 1
141 0 1
141.115 0 1
141.231 0 1
141.347 0 1
141.463 0 1
141.578 0 1
141.694 0 1
144.104 0 1
144.219 0 1
144.335 0 1
144.45 0 1
144.566 0 1
144.682 0 1
144.798 0 1
144.914 0 1
145.03 0 1
145.146 753 27.4408
145.262 798 28.2489
145.378 806 28.3901
145.494 856 29.2575
145.61 799 28.2666
145.726 805 28.3725
145.842 857 29.2746
145.959 886 29.7658
146.075 810 28.4605
146.192 905 30.0832
146.308 942 30.692
146.425 934 30.5614
146.541 914 30.2324
146.658 958 30.9516
146.774 965 31.0644
146.891 929 30.4795
147.008 937 30.6105
147.125 905 30.0832
147.241 976 31.241
147.358 947 30.7734
147.475 996 31.5595
147.592 1020 31.9374
147.709 972 31.1769
147.826 874 29.5635
147.943 896 29.9333
148.06 803 28.3373
148.177 808 28.4253
148.294 799 28.2666
148.411 837 28.931
148.528 880 29.6648
148.645 876 29.5973
148.762 856 29.2575
148.88 896 29.9333
148.997 864 29.3939
149.114 933 30.545
149.231 835 28.8964
149.349 846 29.0861
149.466 897 29.95
149.583 855 29.2404
149.701 864 29.3939
149.818 888 29.7993
149.935 910 30.1662
150.053 915 30.249
150.17 908 30.133
150.287 932 30.5287
150.405 947 30.7734
150.522 982 31.3369
150.64 911 30.1828
150.757 959 30.9677
150.875 1013 31.8277
150.992 948 30.7896
151.11 998 31.5911
151.227 1043 32.2955
151.344 991 31.4802
151.462 999 31.607
151.579 915 30.249
151.697 880 29.6648
151.814 863 29.3769
151.932 878 29.6311
152.049 852 29.189
152.167 877 29.6142
152.284 854 29.2233
152.402 956 30.9192
152.519 954 30.8869
152.636 957 30.9354
152.754 949 30.8058
152.871 957 30.9354
152.989 873 29.5466
153.106 928 30.4631
153.223 972 31.1769
153.341 967 31.0966
153.458 942 30.692
153.575 919 30.315
153.693 978 31.273
153.81 996 31.5595
153.927 1034 32.1559
154.044 1025 32.0156
154.162 964 31.0483
154.279 1037 32.2025
154.396 1035 32.1714
154.513 991 31.4802
154.63 1097 33.121
154.747 1090 33.0151
154.864 1170 34.2053
154.981 1162 34.0881
155.098 1134 33.6749
155.215 1089 33
155.332 1003 31.6702
155.449 991 31.4802
155.566 982 31.3369
155.683 977 31.257
155.8 1074 32.7719
155.917 995 31.5436
156.033 1034 32.1559
156.15 0 1
156.267 0 1
156.383 0 1
156.5 0 1
156.617 0 1
156.733 0 1
156.85 0 1
156.966 0 1
157.082 0 1
157.199 0 1
157.315 0 1
157.431 0 1
157.547 0 1
157.664 0 1
157.78 0 1
157.896 0 1
158.012 0 1
158.128 0 1
158.244 0 1
158.359 0 1
158.475 0 1
158.591 0 1
158.706 0 1
