
6.15755 0 1
6.2731 0 1
6.3887 0 1
6.50437 0 1
6.62009 0 1
6.73587 0 1
6.8517 0 1
6.96759 0 1
7.08353 0 1
7.19952 0 1
7.31557 0 1
7.43166 0 1
7.54781 0 1
7.664 0 1
7.78024 0 1
7.89653 0 1
8.01286 0 1
8.12924 0 1
8.24567 0 1
8.36213 0 1
8.47864 0 1
8.59519 0 1
8.71178 0 1
8.82841 0 1
8.94508 0 1
9.06179 0 1
9.17853 0 1
9.29531 0 1
9.41212 0 1
9.52897 0 1
9.64584 0 1
9.76276 0 1
9.8797 0 1
9.99667 0 1
10.1137 0 1
10.2307 0 1
10.3478 0 1
10.4648 0 1
10.5819 0 1
10.6991 0 1
10.8162 0 1
10.9334 0 1
11.0506 0 1
11.1678 0 1
11.285 0 1
11.4023 0 1
11.5196 0 1
11.6369 0 1
11.7542 0 1
11.8715 0 1
11.9888 0 1
12.1062 0 1
12.2235 0 1
12.3409 0 1
12.4582 0 1
12.5756 0 1
12.693 0 1
12.8104 0 1
12.9278 0 1
13.0452 0 1
13.1626 0 1
13.28 0 1
13.3974 0 1
13.5149 0 1
13.6323 0 1
13.7497 0 1
13.8671 0 1
13.9845 0 1
14.1019 0 1
14.2193 0 1
14.3367 0 1
14.4541 0 1
14.5714 0 1
14.6888 0 1
14.8062 0 1
14.9235 0 1
15.0408 13873 117.784
15.1581 14590 120.789
15.2755 15119 122.959
15.3927 15329 123.81
15.51 15323 123.786
15.6273 15162 123.134
15.7445 14686 121.186
15.8617 14559 120.661
15.9789 14107 118.773
16.0961 13315 115.391
16.2132 12746 112.898
16.3304 11855 108.881
16.4475 11272 106.17
16.5646 10648 103.189
16.6816 10513 102.533
16.7986 10533 102.63
16.9156 10318 101.578
17.0326 9917 99.5841
17.1496 9631 98.1377
17.2665 9626 98.1122
17.3833 9411 97.0103
17.5002 9537 97.6576
17.617 9690 98.4378
17.7338 10194 100.965
17.8505 10531 102.621
17.9672 10952 104.652
18.0839 11546 107.452
18.2005 11963 109.375
18.3171 12263 110.738
18.4337 12223 110.558
18.5502 12462 111.633
18.6666 12484 111.732
18.7831 12508 111.839
18.8994 12282 110.824
19.0158 11593 107.671
19.1321 11207 105.863
19.2483 10528 102.606
19.3645 9903 99.5138
19.4806 9188 95.8541
19.5967 8543 92.4284
19.7128 7512 86.6718
19.8288 6646 81.523
19.9447 5747 75.809
20.0606 0 1
20.1764 0 1
20.2922 0 1
20.4079 0 1
20.5236 0 1
20.6392 0 1
20.7548 0 1
20.8702 0 1
23.3078 0 1
23.4233 0 1
23.539 0 1
23.6547 0 1
23.7704 0 1
23.8862 0 1
24.0021 0 1
24.118 0 1
24.234 0 1
24.35 0 1
24.4661 5736 75.7364
24.5822 6118 78.2176
24.6984 6347 79.6681
24.8146 6435 80.2185
24.9309 6724 82
25.0472 7048 83.9524
25.1636 7159 84.6109
25.28 7693 87.7097
25.3965 8253 90.846
25.513 8776 93.6803
25.6296 9411 97.0103
25.7462 10088 100.439
25.8628 10106 100.529
25.9795 10619 103.049
26.0962 10545 102.689
26.213 10428 102.118
26.3298 10018 100.09
26.4466 9989 99.945
26.5635 9839 99.1917
26.6804 10080 100.399
26.7973 10187 100.931
26.9143 10084 100.419
27.0313 10119 100.593
27.1483 10283 101.405
27.2653 10360 101.784
27.3824 10328 101.627
27.4996 10299 101.484
27.6167 10420 102.078
27.7339 9872 99.3579
27.8511 9901 99.5038
27.9683 9650 98.2344
28.0855 9575 97.8519
28.2028 9196 95.8958
28.3201 8770 93.6483
28.4374 8670 93.1128
28.5547 8262 90.8955
28.6721 8257 90.868
28.7894 8320 91.214
28.9068 8412 91.717
29.0242 8614 92.8116
29.1416 9168 95.7497
29.259 9276 96.312
29.3764 9211 95.974
29.4939 9123 95.5144
29.6113 9226 96.0521
29.7288 9331 96.5971
29.8463 9441 97.1648
29.9638 9537 97.6576
30.0812 9470 97.3139
30.1987 9698 98.4784
30.3162 9663 98.3006
30.4337 9920 99.5992
30.5512 9950 99.7497
30.6687 9800 98.9949
30.7862 9883 99.4133
30.9037 9949 99.7447
31.0212 9552 97.7343
31.1387 9550 97.7241
31.2562 9529 97.6166
31.3737 9341 96.6488
31.4912 9149 95.6504
31.6087 8808 93.8509
31.7262 8823 93.9308
31.8436 8461 91.9837
31.9611 8071 89.8387
32.0785 7691 87.6983
32.1959 7738 87.9659
32.3134 7770 88.1476
32.4308 8098 89.9889
32.5482 8330 91.2688
32.6655 8714 93.3488
32.7829 8694 93.2416
32.9002 8939 94.5463
33.0176 8906 94.3716
33.1349 8912 94.4034
33.2522 9264 96.2497
33.3694 9164 95.7288
33.4867 9078 95.2785
33.6039 9223 96.0365
33.7211 9226 96.0521
33.8383 9268 96.2705
33.9554 9319 96.535
34.0725 9563 97.7906
34.1896 9607 98.0153
34.3067 9595 97.9541
34.4237 9384 96.871
34.5407 9296 96.4158
34.6577 9231 96.0781
34.7746 9288 96.3743
34.8915 9027 95.0105
35.0084 8869 94.1754
35.1252 8757 93.5788
35.242 8504 92.2171
35.3587 8212 90.6201
35.4755 8036 89.6437
35.5921 7769 88.1419
35.7088 7374 85.872
35.8254 7290 85.3815
35.9419 7159 84.6109
36.0584 7216 84.947
36.1749 7190 84.7939
36.2913 7364 85.8138
36.4077 7447 86.296
36.524 7633 87.367
36.6403 7381 85.9127
36.7565 7432 86.209
36.8727 7239 85.0823
36.9889 7090 84.2021
37.1049 6835 82.6741
37.221 0 1
37.3369 0 1
37.4529 0 1
37.5687 0 1
37.6845 0 1
37.8003 0 1
37.916 0 1
38.0316 0 1
38.1472 0 1
40.5851 0 1
40.7008 0 1
40.8164 0 1
40.9322 0 1
41.048 0 1
41.1639 0 1
41.2798 0 1
41.3958 0 1
41.5118 0 1
41.6279 0 1
41.744 4868 69.7711
41.8602 5222 72.2634
41.9765 5480 74.027
42.0928 5699 75.4917
42.2091 6008 77.5113
42.3255 6026 77.6273
42.4419 6136 78.3326
42.5584 6349 79.6806
42.675 6597 81.2219
42.7915 6864 82.8493
42.9081 7237 85.0706
43.0248 7587 87.1034
43.1415 7625 87.3212
43.2582 7772 88.1589
43.375 7868 88.7017
43.4918 7928 89.0393
43.6087 7871 88.7187
43.7256 7932 89.0618
43.8425 7849 88.5946
43.9595 7826 88.4647
44.0765 7966 89.2525
44.1935 7904 88.9044
44.3106 7829 88.4816
44.4277 7607 87.2181
44.5448 7175 84.7054
44.6619 7084 84.1665
44.7791 6927 83.2286
44.8963 7366 85.8254
45.0136 7271 85.2702
45.1308 7432 86.209
45.2481 7592 87.1321
45.3654 7747 88.017
45.4827 7617 87.2754
45.6001 7380 85.9069
45.7174 7370 85.8487
45.8348 7511 86.666
45.9522 7281 85.3288
46.0697 7335 85.6446
46.1871 7351 85.738
46.3046 7548 86.8792
46.422 7895 88.8538
46.5395 7905 88.9101
46.657 8082 89.8999
46.7745 8270 90.9395
46.892 8538 92.4013
47.0096 8445 91.8967
47.1271 8616 92.8224
47.2446 8452 91.9348
47.3622 8361 91.4385
47.4797 8434 91.8368
47.5973 8352 91.3893
47.7149 8383 91.5587
47.8324 8326 91.2469
47.95 8221 90.6697
48.0675 7917 88.9775
48.1851 7291 85.3874
48.3027 7203 84.8705
48.4202 7217 84.9529
48.5378 7078 84.1309
48.6554 7456 86.3481
48.7729 7738 87.9659
48.8904 7497 86.5852
49.008 7809 88.3685
49.1255 7197 84.8351
49.243 7178 84.7231
49.3605 7008 83.7138
49.478 7184 84.7585
49.5955 7268 85.2526
49.713 7132 84.4512
49.8304 7327 85.5979
49.9479 7470 86.4292
50.0653 8012 89.5098
50.1827 8326 91.2469
50.3001 8613 92.8062
50.4175 8667 93.0967
50.5348 8839 94.016
50.6521 8801 93.8136
50.7694 8736 93.4666
50.8867 8958 94.6467
51.004 8955 94.6309
51.1212 8881 94.2391
51.2384 8818 93.9042
51.3556 8719 93.3756
51.4727 8223 90.6808
51.5899 7664 87.5443
51.707 7294 85.4049
51.824 7205 84.8823
51.9411 7042 83.9166
52.0581 6972 83.4985
52.175 7014 83.7496
52.2919 7111 84.3267
52.4088 6747 82.1401
52.5257 6538 80.8579
52.6425 6462 80.3866
52.7593 6230 78.9303
52.876 6364 79.7747
52.9927 6197 78.721
53.1094 6205 78.7718
53.226 6155 78.4538
53.3426 6234 78.9557
53.4591 6530 80.8084
53.5756 6553 80.9506
53.692 6933 83.2646
53.8084 7148 84.5458
53.9248 6966 83.4626
54.0411 6827 82.6257
54.1573 6544 80.895
54.2735 0 1
54.3896 0 1
54.5057 0 1
54.6217 0 1
54.7377 0 1
54.8537 0 1
54.9695 0 1
55.0853 0 1
55.2011 0 1
55.3168 0 1
55.4324 0 1
57.824 0 1
57.9396 0 1
58.0553 0 1
58.1711 0 1
58.2869 0 1
58.4028 0 1
58.5187 0 1
58.6347 0 1
58.7508 0 1
58.8669 0 1
58.983 5422 73.6342
59.0992 6095 78.0705
59.2155 6606 81.2773
59.3318 7308 85.4868
59.4482 8011 89.5042
59.5646 8685 93.1933
59.681 9341 96.6488
59.7975 9621 98.0867
59.9141 9679 98.3819
60.0306 9633 98.1478
60.1473 9328 96.5816
60.2639 9294 96.4054
60.3807 8932 94.5093
60.4974 8817 93.8989
60.6142 8201 90.5594
60.731 8330 91.2688
60.8479 8284 91.0165
60.9648 8093 89.9611
61.0818 8355 91.4057
61.1987 8377 91.526
61.3158 7947 89.1459
61.4328 7912 88.9494
61.5499 7792 88.2723
61.667 7764 88.1136
61.7841 7979 89.3252
61.9013 8003 89.4595
62.0185 8030 89.6103
62.1357 8767 93.6323
62.253 9316 96.5194
62.3702 9665 98.3107
62.4875 10339 101.681
62.6049 10764 103.75
62.7222 11248 106.057
62.8396 11770 108.49
62.9569 12467 111.656
63.0743 12799 113.133
63.1918 12611 112.299
63.3092 12833 113.283
63.4267 12439 111.53
63.5441 11899 109.083
63.6616 11300 106.301
63.7791 10654 103.218
63.8966 9910 99.549
64.0142 9429 97.103
64.1317 8823 93.9308
64.2492 8218 90.6532
64.3668 7927 89.0337
64.4843 7824 88.4534
64.6019 7773 88.1646
64.7195 8079 89.8833
64.837 7688 87.6812
64.9546 7648 87.4528
65.0722 7542 86.8447
65.1898 7673 87.5957
65.3074 7540 86.8332
65.4249 7828 88.476
65.5425 7732 87.9318
65.6601 8151 90.2829
65.7777 8575 92.6013
65.8952 9200 95.9166
66.0128 9849 99.2421
66.1304 10628 103.092
66.2479 11274 106.179
66.3655 11888 109.032
66.483 12354 111.149
66.6005 12646 112.454
66.718 12631 112.388
66.8355 12672 112.57
66.953 12355 111.153
67.0705 12101 110.005
67.1879 11562 107.527
67.3054 10811 103.976
67.4228 9719 98.585
67.5402 8840 94.0213
67.6576 7873 88.7299
67.7749 7419 86.1336
67.8923 7307 85.481
68.0096 7060 84.0238
68.1269 7225 85
68.2442 7819 88.4251
68.3614 7888 88.8144
68.4787 7775 88.176
68.5958 7478 86.4754
68.713 7468 86.4176
68.8302 7494 86.5679
68.9473 7405 86.0523
69.0643 7367 85.8312
69.1814 7287 85.3639
69.2984 7287 85.3639
69.4154 7575 87.0345
69.5323 8097 89.9833
69.6492 8744 93.5094
69.7661 9430 97.1082
69.8829 10440 102.176
69.9997 10587 102.893
70.1165 10538 102.655
70.2332 10554 102.733
70.3499 10500 102.47
70.4665 10173 100.861
70.5831 9821 99.101
70.6996 9572 97.8366
70.8161 8832 93.9787
70.9326 8372 91.4986
71.049 7123 84.3979
71.1653 6252 79.0696
71.2817 5662 75.2463
71.3979 5030 70.9225
71.5141 4670 68.3374
71.6303 4349 65.9469
71.7464 3925 62.6498
71.8624 0 1
71.9784 0 1
72.0944 0 1
72.2102 0 1
72.3261 0 1
72.4418 0 1
72.5575 0 1
72.6732 0 1
75.1054 0 1
75.2209 0 1
75.3365 0 1
75.4521 0 1
75.5678 0 1
75.6835 0 1
75.7993 0 1
75.9151 0 1
76.031 0 1
76.147 7275 85.2936
76.263 7372 85.8604
76.3791 6958 83.4146
76.4952 6725 82.0061
76.6113 6631 81.431
76.7276 6517 80.7279
76.8438 6791 82.4075
76.9601 6938 83.2947
77.0765 6809 82.5167
77.1929 7597 87.1608
77.3093 8380 91.5423
77.4258 8927 94.4828
77.5423 8781 93.707
77.6589 8623 92.8601
77.7755 8722 93.3916
77.8921 8531 92.3634
78.0088 8321 91.2195
78.1256 8342 91.3345
78.2423 8437 91.8531
78.3591 8716 93.3595
78.4759 9198 95.9062
78.5928 10170 100.846
78.7097 11204 105.849
78.8266 12348 111.122
78.9436 13118 114.534
79.0606 13236 115.048
79.1776 13318 115.404
79.2946 13611 116.666
79.4117 13423 115.858
79.5288 13585 116.555
79.6459 13348 115.534
79.7631 12468 111.66
79.8802 11493 107.205
79.9974 10364 101.804
80.1147 9632 98.1428
80.2319 9137 95.5877
80.3491 8625 92.8709
80.4664 8755 93.5682
80.5837 8619 92.8386
80.701 8581 92.6337
80.8183 8550 92.4662
80.9357 8900 94.3398
81.053 9486 97.3961
81.1704 9409 97
81.2877 8851 94.0798
81.4051 8786 93.7337
81.5225 8694 93.2416
81.6399 8498 92.1846
81.7573 8077 89.8721
81.8747 7824 88.4534
81.9922 7749 88.0284
82.1096 8171 90.3936
82.227 9092 95.352
82.3444 10475 102.347
82.4619 11704 108.185
82.5793 11973 109.421
82.6967 12452 111.589
82.8142 12505 111.826
82.9316 12766 112.987
83.049 12772 113.013
83.1664 12811 113.186
83.2838 12376 111.247
83.4012 11303 106.316
83.5186 10080 100.399
83.636 9299 96.4313
83.7534 8843 94.0372
83.8708 8396 91.6297
83.9881 7765 88.1192
84.1055 7561 86.954
84.2228 7111 84.3267
84.3401 7174 84.6995
84.4575 7104 84.2852
84.5747 7904 88.9044
84.692 8618 92.8332
84.8093 8833 93.984
84.9265 8214 90.6311
85.0437 7906 88.9157
85.1609 7535 86.8044
85.2781 7206 84.8882
85.3952 7131 84.4452
85.5123 7097 84.2437
85.6294 7121 84.386
85.7465 7790 88.261
85.8636 8632 92.9086
85.9806 9370 96.7988
86.0976 10468 102.313
86.2145 11054 105.138
86.3315 11376 106.658
86.4484 11355 106.56
86.5652 11248 106.057
86.682 11139 105.541
86.7988 11184 105.754
86.9156 10614 103.024
87.0323 10142 100.707
87.149 9654 98.2548
87.2657 9329 96.5867
87.3823 8603 92.7524
87.4988 7987 89.37
87.6154 7500 86.6025
87.7318 7093 84.22
87.8483 6852 82.7768
87.9647 6546 80.9074
88.081 6280 79.2465
88.1973 6683 81.7496
88.3136 6780 82.3408
88.4298 6060 77.846
88.546 4969 70.4911
88.6621 4217 64.9384
88.7781 3867 62.1852
88.8942 0 1
89.0101 0 1
89.126 0 1
89.2419 0 1
89.3577 0 1
89.4734 0 1
89.5891 0 1
89.7047 0 1
89.8203 0 1
89.9358 0 1
92.3269 0 1
92.4424 0 1
92.558 0 1
92.6736 0 1
92.7893 0 1
92.905 0 1
93.0208 0 1
93.1366 0 1
93.2525 0 1
93.3685 0 1
93.4845 0 1
93.6005 4822 69.4406
93.7167 5853 76.5049
93.8328 6667 81.6517
93.949 7428 86.1858
94.0653 7448 86.3018
94.1816 7591 87.1263
94.2979 8002 89.4539
94.4143 7996 89.4204
94.5307 7829 88.4816
94.6472 7727 87.9034
94.7637 7963 89.2356
94.8803 8578 92.6175
94.9969 9179 95.8071
95.1135 9913 99.564
95.2302 10759 103.726
95.3469 11718 108.25
95.4637 12410 111.4
95.5805 12704 112.712
95.6973 12722 112.792
95.8142 12963 113.855
95.9311 12622 112.348
96.048 12422 111.454
96.1649 12300 110.905
96.2819 11404 106.79
96.3989 10470 102.323
96.516 9715 98.5647
96.633 9186 95.8436
96.7501 8786 93.7337
96.8673 8233 90.7359
96.9844 7828 88.476
97.1016 7261 85.2115
97.2188 7256 85.1822
97.336 7569 87
97.4532 8413 91.7224
97.5704 8961 94.6626
97.6877 9375 96.8246
97.805 8796 93.787
97.9223 8437 91.8531
98.0396 8218 90.6532
98.1569 7875 88.7412
98.2743 7686 87.6698
98.3916 7623 87.3098
98.509 8132 90.1776
98.6264 8797 93.7923
98.7438 9446 97.1905
98.8612 10206 101.025
98.9786 11213 105.891
99.096 11955 109.339
99.2134 12509 111.844
99.3308 12624 112.357
99.4482 12746 112.898
99.5656 12730 112.827
99.6831 13484 116.121
99.8005 12769 113
99.9179 11874 108.968
100.035 11192 105.792
100.153 10643 103.165
100.27 10038 100.19
100.388 9305 96.4624
100.505 8100 90
100.622 7407 86.0639
100.74 7379 85.9011
100.857 7529 86.7698
100.975 7978 89.3197
101.092 8948 94.5939
101.209 9397 96.9381
101.327 8859 94.1223
101.444 8474 92.0543
101.561 8671 93.1182
101.679 8198 90.5428
101.796 8030 89.6103
101.913 8207 90.5925
102.03 8498 92.1846
102.148 9304 96.4572
102.265 9821 99.101
102.382 11097 105.342
102.499 11986 109.481
102.616 12482 111.723
102.733 13182 114.813
102.851 13397 115.745
102.968 13564 116.465
103.085 14035 118.469
103.202 14551 120.628
103.319 14119 118.823
103.436 13036 114.175
103.552 12157 110.259
103.669 11463 107.065
103.786 10598 102.947
103.903 9390 96.902
104.02 8459 91.9728
104.137 8332 91.2798
104.253 7834 88.5099
104.37 8394 91.6188
104.487 8792 93.7657
104.603 9198 95.9062
104.72 9370 96.7988
104.836 8805 93.835
104.953 7921 89
105.069 7659 87.5157
105.186 7076 84.119
105.302 6976 83.5225
105.418 6785 82.3711
105.535 6581 81.1234
105.651 6595 81.2096
105.767 6594 81.2034
105.883 6573 81.074
105.999 7009 83.7198
106.115 0 1
106.231 0 1
106.347 0 1
106.463 0 1
106.579 0 1
106.694 0 1
106.81 0 1
106.926 0 1
107.041 0 1
107.157 0 1
109.576 0 1
109.692 0 1
109.807 0 1
109.923 0 1
110.039 0 1
110.155 0 1
110.27 0 1
110.386 0 1
110.502 0 1
110.618 5195 72.0763
110.735 6151 78.4283
110.851 6988 83.5943
110.967 7796 88.295
111.083 8616 92.8224
111.199 9408 96.9948
111.316 10256 101.272
111.432 10621 103.058
111.549 10953 104.657
111.665 10887 104.341
111.782 11075 105.238
111.898 10931 104.551
112.015 10393 101.946
112.132 9928 99.6393
112.248 9214 95.9896
112.365 8584 92.6499
112.482 7907 88.9213
112.599 7945 89.1347
112.716 7712 87.818
112.832 7268 85.2526
112.949 7402 86.0349
113.066 7682 87.647
113.183 8152 90.2884
113.3 8577 92.6121
113.417 8466 92.0109
113.534 8282 91.0055
113.652 8300 91.1043
113.769 8169 90.3825
113.886 7934 89.073
114.003 8163 90.3493
114.12 8454 91.9456
114.238 8911 94.3981
114.355 9628 98.1224
114.472 10402 101.99
114.589 12133 110.15
114.707 12792 113.102
114.824 13385 115.694
114.942 13871 117.775
115.059 13861 117.733
115.176 14052 118.541
115.294 13899 117.894
115.411 13604 116.636
115.529 13062 114.289
115.646 11854 108.876
115.764 10622 103.063
115.881 9914 99.5691
115.999 9357 96.7316
116.116 8889 94.2815
116.234 8475 92.0598
116.351 8210 90.6091
116.469 8132 90.1776
116.586 8142 90.233
116.704 8804 93.8296
116.821 9181 95.8175
116.939 9277 96.3172
117.056 9134 95.572
117.174 9110 95.4463
117.291 9242 96.1353
117.409 9120 95.4987
117.526 9223 96.0365
117.644 9611 98.0357
117.761 10094 100.469
117.879 10819 104.014
117.996 11934 109.243
118.114 12834 113.287
118.231 13937 118.055
118.349 14434 120.142
118.466 14423 120.096
118.584 14503 120.428
118.701 14492 120.383
118.819 14401 120.004
118.936 14224 119.264
119.053 13658 116.867
119.171 12952 113.807
119.288 11758 108.434
119.405 10895 104.379
119.523 10240 101.193
119.64 9512 97.5295
119.757 9065 95.2103
119.875 8658 93.0484
119.992 8291 91.0549
120.109 8101 90.0056
120.226 8084 89.9111
120.343 8333 91.2853
120.46 8847 94.0585
120.578 8883 94.2497
120.695 8877 94.2178
120.812 8599 92.7308
120.929 8816 93.8936
121.046 8622 92.8547
121.163 8671 93.1182
121.279 8772 93.659
121.396 9112 95.4568
121.513 9733 98.656
121.63 10418 102.069
121.747 10790 103.875
121.863 11163 105.655
121.98 11433 106.925
122.097 11688 108.111
122.213 11313 106.363
122.33 11395 106.747
122.446 10790 103.875
122.563 10400 101.98
122.679 9870 99.3479
122.795 8985 94.7892
122.912 7997 89.4259
123.028 7241 85.0941
123.144 6569 81.0494
123.26 6109 78.1601
123.377 0 1
123.493 0 1
123.609 0 1
123.725 0 1
123.84 0 1
123.956 0 1
124.072 0 1
124.188 0 1
124.303 0 1
124.419 0 1
126.852 0 1
126.968 0 1
127.083 0 1
127.199 0 1
127.315 0 1
127.431 0 1
127.547 0 1
127.663 0 1
127.779 0 1
127.895 0 1
128.011 0 1
128.127 0 1
128.243 0 1
128.359 11385 106.701
128.476 11114 105.423
128.592 10707 103.475
128.708 10611 103.01
128.825 10069 100.344
128.941 9890 99.4485
129.058 9682 98.3972
129.174 9629 98.1275
129.291 9516 97.55
129.408 9775 98.8686
129.524 10169 100.841
129.641 10387 101.917
129.758 10523 102.582
129.875 10612 103.015
129.992 10632 103.112
130.108 10878 104.298
130.225 10871 104.264
130.342 11142 105.556
130.459 11239 106.014
130.576 11725 108.282
130.693 12353 111.144
130.81 12630 112.383
130.928 12494 111.777
131.045 12689 112.645
131.162 12914 113.64
131.279 12811 113.186
131.396 13012 114.07
131.513 12608 112.285
131.631 11961 109.366
131.748 12137 110.168
131.865 11716 108.24
131.983 11130 105.499
132.1 11082 105.271
132.217 10723 103.552
132.335 10264 101.311
132.452 9746 98.7218
132.57 9776 98.8737
132.687 9453 97.2265
132.804 9195 95.8906
132.922 9552 97.7343
133.039 9797 98.9798
133.157 10137 100.683
133.274 10355 101.76
133.392 10414 102.049
133.509 10563 102.776
133.627 10567 102.796
133.744 10564 102.781
133.862 10556 102.742
133.979 10503 102.484
134.097 11149 105.589
134.214 11260 106.113
134.332 11455 107.028
134.449 11723 108.273
134.567 11610 107.75
134.684 11501 107.243
134.802 11692 108.13
134.919 11695 108.143
135.037 11473 107.112
135.154 11496 107.219
135.272 11421 106.869
135.389 11438 106.949
135.507 10842 104.125
135.624 11092 105.319
135.742 10398 101.971
135.859 10481 102.377
135.977 10036 100.18
136.094 10115 100.573
136.211 9897 99.4837
136.329 10105 100.524
136.446 10237 101.178
136.564 10314 101.558
136.681 10445 102.201
136.798 10623 103.068
136.915 10947 104.628
137.033 11096 105.338
137.15 10982 104.795
137.267 11236 106
137.384 10965 104.714
137.502 10799 103.918
137.619 10632 103.112
137.736 11155 105.617
137.853 10689 103.388
137.97 10981 104.79
138.087 10935 104.571
138.204 11001 104.886
138.321 10851 104.168
138.438 10920 104.499
138.555 10901 104.408
138.672 10689 103.388
138.788 10450 102.225
138.905 10136 100.678
139.022 9878 99.3881
139.139 9522 97.5807
139.255 9390 96.902
139.372 8957 94.6414
139.488 8387 91.5806
139.605 7794 88.2836
139.721 7641 87.4128
139.838 7421 86.1452
139.954 7339 85.668
140.071 7115 84.3505
140.187 6737 82.0792
140.303 6506 80.6598
140.419 6143 78.3773
140.535 5854 76.5114
140.652 5892 76.7594
140.768 0 1
140.884 0 1
141 0 1
141.115 0 1
141.231 0 1
141.347 0 1
141.463 0 1
141.578 0 1
141.694 0 1
144.104 0 1
144.219 0 1
144.335 0 1
144.45 0 1
144.566 0 1
144.682 0 1
144.798 0 1
144.914 0 1
145.03 0 1
145.146 7144 84.5222
145.262 7724 87.8863
145.378 7825 88.459
145.494 8118 90.0999
145.61 8345 91.351
145.726 8663 93.0752
145.842 8748 93.5307
145.959 8754 93.5628
146.075 8580 92.6283
146.192 8579 92.6229
146.308 8434 91.8368
146.425 8565 92.5473
146.541 8617 92.8278
146.658 8753 93.5575
146.774 8984 94.784
146.891 8934 94.5198
147.008 9452 97.2214
147.125 9227 96.0573
147.241 9413 97.0206
147.358 9600 97.9796
147.475 9618 98.0714
147.592 9655 98.2599
147.709 9627 98.1173
147.826 9507 97.5038
147.943 9426 97.0876
148.06 9285 96.3587
148.177 9019 94.9684
148.294 9126 95.5301
148.411 8831 93.9734
148.528 8875 94.2072
148.645 8866 94.1594
148.762 8785 93.7283
148.88 9135 95.5772
148.997 9083 95.3048
149.114 8812 93.8723
149.231 9069 95.2313
149.349 8956 94.6361
149.466 8837 94.0053
149.583 9019 94.9684
149.701 8797 93.7923
149.818 8665 93.086
149.935 8580 92.6283
150.053 8720 93.3809
150.17 8610 92.7901
150.287 8780 93.7017
150.405 8858 94.1169
150.522 9250 96.1769
150.64 9375 96.8246
150.757 9369 96.7936
150.875 9525 97.5961
150.992 9542 97.6832
151.11 9725 98.6154
151.227 9816 99.0757
151.344 9652 98.2446
151.462 9666 98.3158
151.579 9435 97.1339
151.697 9385 96.8762
151.814 9320 96.5401
151.932 9186 95.8436
152.049 9004 94.8894
152.167 9055 95.1578
152.284 8917 94.4299
152.402 8836 94
152.519 8885 94.2603
152.636 9023 94.9895
152.754 9059 95.1788
152.871 9230 96.0729
152.989 9082 95.2995
153.106 9213 95.9844
153.223 9002 94.8789
153.341 9148 95.6452
153.458 8874 94.2019
153.575 9026 95.0053
153.693 9099 95.3887
153.81 9487 97.4012
153.927 9910 99.549
154.044 9949 99.7447
154.162 10193 100.96
154.279 10653 103.213
154.396 10815 103.995
154.513 11037 105.057
154.63 10991 104.838
154.747 11288 106.245
154.864 11157 105.627
154.981 11009 104.924
155.098 11050 105.119
155.215 10760 103.73
155.332 10242 101.203
155.449 10255 101.267
155.566 10079 100.394
155.683 9680 98.387
155.8 9589 97.9234
155.917 8939 94.5463
156.033 8797 93.7923
156.15 0 1
156.267 0 1
156.383 0 1
156.5 0 1
156.617 0 1
156.733 0 1
156.85 0 1
156.966 0 1
157.082 0 1
157.199 0 1
157.315 0 1
157.431 0 1
157.547 0 1
157.664 0 1
157.78 0 1
157.896 0 1
158.012 0 1
158.128 0 1
158.244 0 1
158.359 0 1
158.475 0 1
158.591 0 1
158.706 0 1
