
6.15755 0 1
6.2731 0 1
6.3887 0 1
6.50437 0 1
6.62009 0 1
6.73587 0 1
6.8517 0 1
6.96759 0 1
7.08353 0 1
7.19952 0 1
7.31557 0 1
7.43166 0 1
7.54781 0 1
7.664 0 1
7.78024 0 1
7.89653 0 1
8.01286 0 1
8.12924 0 1
8.24567 0 1
8.36213 0 1
8.47864 0 1
8.59519 0 1
8.71178 0 1
8.82841 0 1
8.94508 0 1
9.06179 0 1
9.17853 0 1
9.29531 0 1
9.41212 0 1
9.52897 0 1
9.64584 0 1
9.76276 0 1
9.8797 0 1
9.99667 0 1
10.1137 0 1
10.2307 0 1
10.3478 0 1
10.4648 0 1
10.5819 0 1
10.6991 0 1
10.8162 0 1
10.9334 0 1
11.0506 0 1
11.1678 0 1
11.285 0 1
11.4023 0 1
11.5196 0 1
11.6369 0 1
11.7542 0 1
11.8715 0 1
11.9888 0 1
12.1062 0 1
12.2235 0 1
12.3409 0 1
12.4582 0 1
12.5756 0 1
12.693 0 1
12.8104 0 1
12.9278 0 1
13.0452 0 1
13.1626 0 1
13.28 0 1
13.3974 0 1
13.5149 0 1
13.6323 0 1
13.7497 0 1
13.8671 0 1
13.9845 0 1
14.1019 0 1
14.2193 0 1
14.3367 0 1
14.4541 0 1
14.5714 0 1
14.6888 0 1
14.8062 0 1
14.9235 0 1
15.0408 1331 36.4829
15.1581 1390 37.2827
15.2755 1389 37.2693
15.3927 1415 37.6165
15.51 1334 36.524
15.6273 1391 37.2961
15.7445 1353 36.7831
15.8617 1356 36.8239
15.9789 1266 35.5809
16.0961 1228 35.0428
16.2132 1262 35.5246
16.3304 1333 36.5103
16.4475 1292 35.9444
16.5646 1334 36.524
16.6816 1338 36.5787
16.7986 1360 36.8782
16.9156 1454 38.1314
17.0326 1424 37.7359
17.1496 1425 37.7492
17.2665 1462 38.2361
17.3833 1439 37.9342
17.5002 1455 38.1445
17.617 1455 38.1445
17.7338 1454 38.1314
17.8505 1531 39.128
17.9672 1529 39.1024
18.0839 1688 41.0853
18.2005 1703 41.2674
18.3171 1770 42.0714
18.4337 1787 42.2729
18.5502 1750 41.833
18.6666 1829 42.7668
18.7831 1705 41.2916
18.8994 1788 42.2847
19.0158 1756 41.9047
19.1321 1594 39.9249
19.2483 1572 39.6485
19.3645 1463 38.2492
19.4806 1416 37.6298
19.5967 1406 37.4967
19.7128 1367 36.973
19.8288 1367 36.973
19.9447 1295 35.9861
20.0606 0 1
20.1764 0 1
20.2922 0 1
20.4079 0 1
20.5236 0 1
20.6392 0 1
20.7548 0 1
20.8702 0 1
23.3078 0 1
23.4233 0 1
23.539 0 1
23.6547 0 1
23.7704 0 1
23.8862 0 1
24.0021 0 1
24.118 0 1
24.234 0 1
24.35 0 1
24.4661 1414 37.6032
24.5822 1354 36.7967
24.6984 1407 37.51
24.8146 1345 36.6742
24.9309 1345 36.6742
25.0472 1397 37.3765
25.1636 1364 36.9324
25.28 1468 38.3145
25.3965 1446 38.0263
25.513 1463 38.2492
25.6296 1532 39.1408
25.7462 1527 39.0768
25.8628 1535 39.1791
25.9795 1587 39.8372
26.0962 1640 40.4969
26.213 1533 39.1535
26.3298 1621 40.2616
26.4466 1593 39.9124
26.5635 1633 40.4104
26.6804 1627 40.3361
26.7973 1720 41.4729
26.9143 1706 41.3038
27.0313 1705 41.2916
27.1483 1799 42.4146
27.2653 1690 41.1096
27.3824 1678 40.9634
27.4996 1654 40.6694
27.6167 1606 40.0749
27.7339 1533 39.1535
27.8511 1470 38.3406
27.9683 1354 36.7967
28.0855 1390 37.2827
28.2028 1344 36.6606
28.3201 1306 36.1386
28.4374 1312 36.2215
28.5547 1324 36.3868
28.6721 1374 37.0675
28.7894 1335 36.5377
28.9068 1448 38.0526
29.0242 1413 37.5899
29.1416 1449 38.0657
29.259 1437 37.9078
29.3764 1417 37.6431
29.4939 1459 38.1969
29.6113 1530 39.1152
29.7288 1595 39.9375
29.8463 1472 38.3667
29.9638 1516 38.9358
30.0812 1552 39.3954
30.1987 1552 39.3954
30.3162 1591 39.8873
30.4337 1708 41.328
30.5512 1610 40.1248
30.6687 1610 40.1248
30.7862 1756 41.9047
30.9037 1623 40.2865
31.0212 1638 40.4722
31.1387 1527 39.0768
31.2562 1496 38.6782
31.3737 1412 37.5766
31.4912 1440 37.9473
31.6087 1308 36.1663
31.7262 1370 37.0135
31.8436 1253 35.3977
31.9611 1226 35.0143
32.0785 1364 36.9324
32.1959 1382 37.1753
32.3134 1426 37.7624
32.4308 1395 37.3497
32.5482 1479 38.4578
32.6655 1390 37.2827
32.7829 1392 37.3095
32.9002 1400 37.4166
33.0176 1401 37.4299
33.1349 1442 37.9737
33.2522 1455 38.1445
33.3694 1397 37.3765
33.4867 1399 37.4032
33.6039 1525 39.0512
33.7211 1514 38.9102
33.8383 1562 39.5221
33.9554 1461 38.223
34.0725 1634 40.4228
34.1896 1574 39.6737
34.3067 1594 39.9249
34.4237 1566 39.5727
34.5407 1487 38.5616
34.6577 1518 38.9615
34.7746 1445 38.0132
34.8915 1379 37.1349
35.0084 1403 37.4566
35.1252 1321 36.3456
35.242 1298 36.0278
35.3587 1266 35.5809
35.4755 1254 35.4119
35.5921 1218 34.8999
35.7088 1231 35.0856
35.8254 1341 36.6197
35.9419 1319 36.318
36.0584 1351 36.756
36.1749 1386 37.229
36.2913 1366 36.9594
36.4077 1323 36.3731
36.524 1321 36.3456
36.6403 1310 36.1939
36.7565 1241 35.2278
36.8727 1349 36.7287
36.9889 1329 36.4555
37.1049 1338 36.5787
37.221 0 1
37.3369 0 1
37.4529 0 1
37.5687 0 1
37.6845 0 1
37.8003 0 1
37.916 0 1
38.0316 0 1
38.1472 0 1
40.5851 0 1
40.7008 0 1
40.8164 0 1
40.9322 0 1
41.048 0 1
41.1639 0 1
41.2798 0 1
41.3958 0 1
41.5118 0 1
41.6279 0 1
41.744 1071 32.7261
41.8602 1202 34.6699
41.9765 1183 34.3948
42.0928 1236 35.1568
42.2091 1175 34.2783
42.3255 1246 35.2987
42.4419 1269 35.623
42.5584 1282 35.805
42.675 1385 37.2156
42.7915 1372 37.0405
42.9081 1369 37
43.0248 1403 37.4566
43.1415 1390 37.2827
43.2582 1373 37.054
43.375 1329 36.4555
43.4918 1404 37.47
43.6087 1441 37.9605
43.7256 1333 36.5103
43.8425 1276 35.7211
43.9595 1245 35.2846
44.0765 1275 35.7071
44.1935 1203 34.6843
44.3106 1190 34.4964
44.4277 1190 34.4964
44.5448 1091 33.0303
44.6619 1103 33.2114
44.7791 1081 32.8786
44.8963 1103 33.2114
45.0136 1112 33.3467
45.1308 1020 31.9374
45.2481 1127 33.5708
45.3654 1049 32.3883
45.4827 1021 31.9531
45.6001 1031 32.1092
45.7174 1018 31.9061
45.8348 924 30.3974
45.9522 947 30.7734
46.0697 920 30.3315
46.1871 972 31.1769
46.3046 918 30.2985
46.422 930 30.4959
46.5395 861 29.3428
46.657 923 30.3809
46.7745 883 29.7153
46.892 976 31.241
47.0096 937 30.6105
47.1271 882 29.6985
47.2446 909 30.1496
47.3622 853 29.2062
47.4797 839 28.9655
47.5973 853 29.2062
47.7149 827 28.7576
47.8324 851 29.1719
47.95 783 27.9821
48.0675 842 29.0172
48.1851 771 27.7669
48.3027 788 28.0713
48.4202 747 27.3313
48.5378 793 28.1603
48.6554 782 27.9643
48.7729 766 27.6767
48.8904 778 27.8927
49.008 719 26.8142
49.1255 722 26.8701
49.243 774 27.8209
49.3605 747 27.3313
49.478 764 27.6405
49.5955 776 27.8568
49.713 715 26.7395
49.8304 822 28.6705
49.9479 804 28.3549
50.0653 797 28.2312
50.1827 852 29.189
50.3001 797 28.2312
50.4175 863 29.3769
50.5348 893 29.8831
50.6521 906 30.0998
50.7694 928 30.4631
50.8867 909 30.1496
51.004 876 29.5973
51.1212 904 30.0666
51.2384 932 30.5287
51.3556 981 31.3209
51.4727 1016 31.8748
51.5899 954 30.8869
51.707 980 31.305
51.824 940 30.6594
51.9411 994 31.5278
52.0581 958 30.9516
52.175 1062 32.5883
52.2919 1039 32.2335
52.4088 1059 32.5423
52.5257 1005 31.7017
52.6425 1045 32.3265
52.7593 990 31.4643
52.876 988 31.4325
52.9927 988 31.4325
53.1094 989 31.4484
53.226 1036 32.187
53.3426 1050 32.4037
53.4591 1093 33.0606
53.5756 1120 33.4664
53.692 1150 33.9116
53.8084 1227 35.0286
53.9248 1258 35.4683
54.0411 1244 35.2704
54.1573 1284 35.8329
54.2735 0 1
54.3896 0 1
54.5057 0 1
54.6217 0 1
54.7377 0 1
54.8537 0 1
54.9695 0 1
55.0853 0 1
55.2011 0 1
55.3168 0 1
55.4324 0 1
57.824 0 1
57.9396 0 1
58.0553 0 1
58.1711 0 1
58.2869 0 1
58.4028 0 1
58.5187 0 1
58.6347 0 1
58.7508 0 1
58.8669 0 1
58.983 1321 36.3456
59.0992 1404 37.47
59.2155 1441 37.9605
59.3318 1410 37.55
59.4482 1541 39.2556
59.5646 1551 39.3827
59.681 1624 40.2989
59.7975 1625 40.3113
59.9141 1617 40.2119
60.0306 1550 39.37
60.1473 1565 39.5601
60.2639 1481 38.4838
60.3807 1383 37.1887
60.4974 1341 36.6197
60.6142 1380 37.1484
60.731 1364 36.9324
60.8479 1287 35.8748
60.9648 1216 34.8712
61.0818 1165 34.1321
61.1987 1216 34.8712
61.3158 1298 36.0278
61.4328 1255 35.426
61.5499 1256 35.4401
61.667 1176 34.2929
61.7841 1342 36.6333
61.9013 1304 36.1109
62.0185 1332 36.4966
62.1357 1314 36.2491
62.253 1307 36.1525
62.3702 1349 36.7287
62.4875 1410 37.55
62.6049 1314 36.2491
62.7222 1392 37.3095
62.8396 1479 38.4578
62.9569 1529 39.1024
63.0743 1481 38.4838
63.1918 1518 38.9615
63.3092 1500 38.7298
63.4267 1468 38.3145
63.5441 1442 37.9737
63.6616 1420 37.6829
63.7791 1460 38.2099
63.8966 1394 37.3363
64.0142 1318 36.3043
64.1317 1229 35.0571
64.2492 1156 34
64.3668 1152 33.9411
64.4843 1163 34.1028
64.6019 1107 33.2716
64.7195 1136 33.7046
64.837 1151 33.9264
64.9546 1138 33.7343
65.0722 1108 33.2866
65.1898 1204 34.6987
65.3074 1251 35.3695
65.4249 1248 35.327
65.5425 1198 34.6121
65.6601 1230 35.0714
65.7777 1329 36.4555
65.8952 1289 35.9026
66.0128 1281 35.7911
66.1304 1311 36.2077
66.2479 1320 36.3318
66.3655 1419 37.6696
66.483 1437 37.9078
66.6005 1463 38.2492
66.718 1499 38.7169
66.8355 1529 39.1024
66.953 1519 38.9744
67.0705 1512 38.8844
67.1879 1470 38.3406
67.3054 1396 37.3631
67.4228 1365 36.9459
67.5402 1273 35.6791
67.6576 1140 33.7639
67.7749 1145 33.8378
67.8923 1147 33.8674
68.0096 1132 33.6452
68.1269 1071 32.7261
68.2442 1103 33.2114
68.3614 1046 32.3419
68.4787 1147 33.8674
68.5958 1170 34.2053
68.713 1217 34.8855
68.8302 1192 34.5254
68.9473 1206 34.7275
69.0643 1201 34.6554
69.1814 1172 34.2345
69.2984 1289 35.9026
69.4154 1297 36.0139
69.5323 1367 36.973
69.6492 1360 36.8782
69.7661 1428 37.7889
69.8829 1421 37.6962
69.9997 1507 38.8201
70.1165 1509 38.8458
70.2332 1542 39.2683
70.3499 1562 39.5221
70.4665 1689 41.0974
70.5831 1532 39.1408
70.6996 1501 38.7427
70.8161 1555 39.4335
70.9326 1387 37.2424
71.049 1355 36.8103
71.1653 1240 35.2136
71.2817 1190 34.4964
71.3979 1067 32.665
71.5141 1121 33.4813
71.6303 1143 33.8083
71.7464 1041 32.2645
71.8624 0 1
71.9784 0 1
72.0944 0 1
72.2102 0 1
72.3261 0 1
72.4418 0 1
72.5575 0 1
72.6732 0 1
75.1054 0 1
75.2209 0 1
75.3365 0 1
75.4521 0 1
75.5678 0 1
75.6835 0 1
75.7993 0 1
75.9151 0 1
76.031 0 1
76.147 1404 37.47
76.263 1407 37.51
76.3791 1317 36.2905
76.4952 1122 33.4963
76.6113 1126 33.5559
76.7276 1164 34.1174
76.8438 1197 34.5977
76.9601 1148 33.8821
77.0765 1158 34.0294
77.1929 1248 35.327
77.3093 1148 33.8821
77.4258 1179 34.3366
77.5423 1221 34.9428
77.6589 1281 35.7911
77.7755 1244 35.2704
77.8921 1207 34.7419
78.0088 1224 34.9857
78.1256 1240 35.2136
78.2423 1190 34.4964
78.3591 1343 36.647
78.4759 1344 36.6606
78.5928 1411 37.5633
78.7097 1479 38.4578
78.8266 1507 38.8201
78.9436 1550 39.37
79.0606 1539 39.2301
79.1776 1504 38.7814
79.2946 1588 39.8497
79.4117 1579 39.7366
79.5288 1527 39.0768
79.6459 1506 38.8072
79.7631 1490 38.6005
79.8802 1400 37.4166
79.9974 1382 37.1753
80.1147 1166 34.1467
80.2319 1203 34.6843
80.3491 1198 34.6121
80.4664 1160 34.0588
80.5837 1184 34.4093
80.701 1248 35.327
80.8183 1168 34.176
80.9357 1237 35.171
81.053 1208 34.7563
81.1704 1254 35.4119
81.2877 1276 35.7211
81.4051 1202 34.6699
81.5225 1240 35.2136
81.6399 1164 34.1174
81.7573 1204 34.6987
81.8747 1246 35.2987
81.9922 1284 35.8329
82.1096 1403 37.4566
82.227 1438 37.921
82.3444 1414 37.6032
82.4619 1560 39.4968
82.5793 1629 40.3609
82.6967 1590 39.8748
82.8142 1544 39.2938
82.9316 1628 40.3485
83.049 1522 39.0128
83.1664 1585 39.8121
83.2838 1554 39.4208
83.4012 1445 38.0132
83.5186 1369 37
83.636 1223 34.9714
83.7534 1204 34.6987
83.8708 1228 35.0428
83.9881 1210 34.7851
84.1055 1235 35.1426
84.2228 1335 36.5377
84.3401 1207 34.7419
84.4575 1266 35.5809
84.5747 1262 35.5246
84.692 1257 35.4542
84.8093 1343 36.647
84.9265 1309 36.1801
85.0437 1307 36.1525
85.1609 1258 35.4683
85.2781 1285 35.8469
85.3952 1227 35.0286
85.5123 1338 36.5787
85.6294 1382 37.1753
85.7465 1520 38.9872
85.8636 1458 38.1838
85.9806 1678 40.9634
86.0976 1630 40.3733
86.2145 1736 41.6653
86.3315 1681 41
86.4484 1699 41.2189
86.5652 1770 42.0714
86.682 1749 41.821
86.7988 1606 40.0749
86.9156 1609 40.1123
87.0323 1585 39.8121
87.149 1404 37.47
87.2657 1430 37.8153
87.3823 1377 37.108
87.4988 1449 38.0657
87.6154 1244 35.2704
87.7318 1337 36.565
87.8483 1358 36.8511
87.9647 1338 36.5787
88.081 1347 36.7015
88.1973 1397 37.3765
88.3136 1503 38.7685
88.4298 1412 37.5766
88.546 1364 36.9324
88.6621 1319 36.318
88.7781 1347 36.7015
88.8942 0 1
89.0101 0 1
89.126 0 1
89.2419 0 1
89.3577 0 1
89.4734 0 1
89.5891 0 1
89.7047 0 1
89.8203 0 1
89.9358 0 1
92.3269 0 1
92.4424 0 1
92.558 0 1
92.6736 0 1
92.7893 0 1
92.905 0 1
93.0208 0 1
93.1366 0 1
93.2525 0 1
93.3685 0 1
93.4845 0 1
93.6005 1369 37
93.7167 1386 37.229
93.8328 1301 36.0694
93.949 1227 35.0286
94.0653 1268 35.609
94.1816 1233 35.1141
94.2979 1296 36
94.4143 1359 36.8646
94.5307 1403 37.4566
94.6472 1423 37.7227
94.7637 1547 39.3319
94.8803 1539 39.2301
94.9969 1615 40.1871
95.1135 1674 40.9145
95.2302 1693 41.1461
95.3469 1606 40.0749
95.4637 1595 39.9375
95.5805 1633 40.4104
95.6973 1610 40.1248
95.8142 1592 39.8999
95.9311 1580 39.7492
96.048 1507 38.8201
96.1649 1381 37.1618
96.2819 1426 37.7624
96.3989 1348 36.7151
96.516 1373 37.054
96.633 1370 37.0135
96.7501 1340 36.606
96.8673 1308 36.1663
96.9844 1294 35.9722
97.1016 1373 37.054
97.2188 1358 36.8511
97.336 1413 37.5899
97.4532 1364 36.9324
97.5704 1359 36.8646
97.6877 1256 35.4401
97.805 1269 35.623
97.9223 1229 35.0571
98.0396 1222 34.9571
98.1569 1297 36.0139
98.2743 1353 36.7831
98.3916 1460 38.2099
98.509 1492 38.6264
98.6264 1584 39.7995
98.7438 1665 40.8044
98.8612 1637 40.4599
98.9786 1609 40.1123
99.096 1611 40.1373
99.2134 1642 40.5216
99.3308 1625 40.3113
99.4482 1478 38.4448
99.5656 1558 39.4715
99.6831 1462 38.2361
99.8005 1407 37.51
99.9179 1359 36.8646
100.035 1324 36.3868
100.153 1327 36.428
100.27 1321 36.3456
100.388 1309 36.1801
100.505 1341 36.6197
100.622 1347 36.7015
100.74 1282 35.805
100.857 1316 36.2767
100.975 1389 37.2693
101.092 1287 35.8748
101.209 1297 36.0139
101.327 1168 34.176
101.444 1162 34.0881
101.561 1186 34.4384
101.679 1289 35.9026
101.796 1325 36.4005
101.913 1397 37.3765
102.03 1433 37.855
102.148 1526 39.064
102.265 1543 39.281
102.382 1801 42.4382
102.499 1657 40.7063
102.616 1826 42.7317
102.733 1639 40.4846
102.851 1684 41.0366
102.968 1712 41.3763
103.085 1659 40.7308
103.202 1637 40.4599
103.319 1528 39.0896
103.436 1592 39.8999
103.552 1502 38.7556
103.669 1424 37.7359
103.786 1469 38.3275
103.903 1469 38.3275
104.02 1400 37.4166
104.137 1438 37.921
104.253 1410 37.55
104.37 1398 37.3898
104.487 1451 38.092
104.603 1356 36.8239
104.72 1360 36.8782
104.836 1276 35.7211
104.953 1358 36.8511
105.069 1396 37.3631
105.186 1394 37.3363
105.302 1409 37.5366
105.418 1455 38.1445
105.535 1611 40.1373
105.651 1638 40.4722
105.767 1773 42.107
105.883 1686 41.0609
105.999 1632 40.398
106.115 0 1
106.231 0 1
106.347 0 1
106.463 0 1
106.579 0 1
106.694 0 1
106.81 0 1
106.926 0 1
107.041 0 1
107.157 0 1
109.576 0 1
109.692 0 1
109.807 0 1
109.923 0 1
110.039 0 1
110.155 0 1
110.27 0 1
110.386 0 1
110.502 0 1
110.618 1321 36.3456
110.735 1481 38.4838
110.851 1571 39.6358
110.967 1533 39.1535
111.083 1522 39.0128
111.199 1445 38.0132
111.316 1542 39.2683
111.432 1593 39.9124
111.549 1517 38.9487
111.665 1494 38.6523
111.782 1427 37.7757
111.898 1368 36.9865
112.015 1318 36.3043
112.132 1430 37.8153
112.248 1266 35.5809
112.365 1265 35.5668
112.482 1291 35.9305
112.599 1165 34.1321
112.716 1239 35.1994
112.832 1160 34.0588
112.949 1156 34
113.066 1228 35.0428
113.183 1167 34.1614
113.3 1014 31.8434
113.417 1136 33.7046
113.534 1024 32
113.652 1080 32.8634
113.769 1047 32.3574
113.886 1131 33.6303
114.003 1141 33.7787
114.12 1276 35.7211
114.238 1244 35.2704
114.355 1328 36.4417
114.472 1229 35.0571
114.589 1145 33.8378
114.707 1256 35.4401
114.824 1243 35.2562
114.942 1294 35.9722
115.059 1350 36.7423
115.176 1275 35.7071
115.294 1142 33.7935
115.411 1167 34.1614
115.529 1148 33.8821
115.646 1102 33.1964
115.764 1112 33.3467
115.881 1023 31.9844
115.999 1030 32.0936
116.116 1038 32.218
116.234 943 30.7083
116.351 917 30.282
116.469 932 30.5287
116.586 893 29.8831
116.704 855 29.2404
116.821 838 28.9482
116.939 872 29.5296
117.056 848 29.1204
117.174 916 30.2655
117.291 918 30.2985
117.409 966 31.0805
117.526 901 30.0167
117.644 923 30.3809
117.761 950 30.8221
117.879 1017 31.8904
117.996 1045 32.3265
118.114 1013 31.8277
118.231 1037 32.2025
118.349 970 31.1448
118.466 977 31.257
118.584 1098 33.1361
118.701 1091 33.0303
118.819 1095 33.0908
118.936 1105 33.2415
119.053 1062 32.5883
119.171 1012 31.8119
119.288 1058 32.5269
119.405 1027 32.0468
119.523 1043 32.2955
119.64 1020 31.9374
119.757 987 31.4166
119.875 979 31.289
119.992 942 30.692
120.109 899 29.9833
120.226 927 30.4467
120.343 958 30.9516
120.46 915 30.249
120.578 960 30.9839
120.695 988 31.4325
120.812 974 31.209
120.929 1036 32.187
121.046 1024 32
121.163 1025 32.0156
121.279 1025 32.0156
121.396 1114 33.3766
121.513 1109 33.3017
121.63 1103 33.2114
121.747 1081 32.8786
121.863 1016 31.8748
121.98 1042 32.28
122.097 1140 33.7639
122.213 1215 34.8569
122.33 1237 35.171
122.446 1334 36.524
122.563 1227 35.0286
122.679 1242 35.242
122.795 1267 35.5949
122.912 1211 34.7994
123.028 1230 35.0714
123.144 1167 34.1614
123.26 1140 33.7639
123.377 0 1
123.493 0 1
123.609 0 1
123.725 0 1
123.84 0 1
123.956 0 1
124.072 0 1
124.188 0 1
124.303 0 1
124.419 0 1
126.852 0 1
126.968 0 1
127.083 0 1
127.199 0 1
127.315 0 1
127.431 0 1
127.547 0 1
127.663 0 1
127.779 0 1
127.895 0 1
128.011 0 1
128.127 0 1
128.243 0 1
128.359 1420 37.6829
128.476 1416 37.6298
128.592 1391 37.2961
128.708 1454 38.1314
128.825 1310 36.1939
128.941 1309 36.1801
129.058 1269 35.623
129.174 1294 35.9722
129.291 1250 35.3553
129.408 1222 34.9571
129.524 1260 35.4965
129.641 1260 35.4965
129.758 1220 34.9285
129.875 1305 36.1248
129.992 1230 35.0714
130.108 1183 34.3948
130.225 1247 35.3129
130.342 1213 34.8281
130.459 1248 35.327
130.576 1187 34.4529
130.693 1133 33.6601
130.81 945 30.7409
130.928 1018 31.9061
131.045 1111 33.3317
131.162 1235 35.1426
131.279 1397 37.3765
131.396 1379 37.1349
131.513 1330 36.4692
131.631 1338 36.5787
131.748 1265 35.5668
131.865 1283 35.819
131.983 1275 35.7071
132.1 1156 34
132.217 1190 34.4964
132.335 1193 34.5398
132.452 1183 34.3948
132.57 1136 33.7046
132.687 1068 32.6803
132.804 1119 33.4515
132.922 1127 33.5708
133.039 1073 32.7567
133.157 1104 33.2265
133.274 1041 32.2645
133.392 1105 33.2415
133.509 1014 31.8434
133.627 1059 32.5423
133.744 1071 32.7261
133.862 1070 32.7109
133.979 994 31.5278
134.097 1059 32.5423
134.214 901 30.0167
134.332 762 27.6043
134.449 758 27.5318
134.567 887 29.7825
134.684 975 31.225
134.802 1008 31.749
134.919 964 31.0483
135.037 1011 31.7962
135.154 986 31.4006
135.272 1005 31.7017
135.389 970 31.1448
135.507 1019 31.9218
135.624 982 31.3369
135.742 924 30.3974
135.859 940 30.6594
135.977 913 30.2159
136.094 912 30.1993
136.211 866 29.4279
136.329 864 29.3939
136.446 845 29.0689
136.564 832 28.8444
136.681 781 27.9464
136.798 863 29.3769
136.915 804 28.3549
137.033 832 28.8444
137.15 826 28.7402
137.267 798 28.2489
137.384 800 28.2843
137.502 861 29.3428
137.619 805 28.3725
137.736 834 28.8791
137.853 635 25.1992
137.97 528 22.9783
138.087 696 26.3818
138.204 786 28.0357
138.321 891 29.8496
138.438 884 29.7321
138.555 919 30.315
138.672 913 30.2159
138.788 914 30.2324
138.905 961 31
139.022 912 30.1993
139.139 953 30.8707
139.255 995 31.5436
139.372 957 30.9354
139.488 934 30.5614
139.605 1013 31.8277
139.721 987 31.4166
139.838 988 31.4325
139.954 973 31.1929
140.071 959 30.9677
140.187 998 31.5911
140.303 1011 31.7962
140.419 939 30.6431
140.535 956 30.9192
140.652 997 31.5753
140.768 0 1
140.884 0 1
141 0 1
141.115 0 1
141.231 0 1
141.347 0 1
141.463 0 1
141.578 0 1
141.694 0 1
144.104 0 1
144.219 0 1
144.335 0 1
144.45 0 1
144.566 0 1
144.682 0 1
144.798 0 1
144.914 0 1
145.03 0 1
145.146 847 29.1033
145.262 826 28.7402
145.378 784 28
145.494 818 28.6007
145.61 799 28.2666
145.726 786 28.0357
145.842 727 26.9629
145.959 756 27.4955
146.075 747 27.3313
146.192 747 27.3313
146.308 702 26.4953
146.425 745 27.2947
146.541 654 25.5734
146.658 604 24.5764
146.774 566 23.7908
146.891 635 25.1992
147.008 668 25.8457
147.125 696 26.3818
147.241 724 26.9072
147.358 708 26.6083
147.475 676 26
147.592 668 25.8457
147.709 635 25.1992
147.826 660 25.6905
147.943 655 25.593
148.06 656 25.6125
148.177 646 25.4165
148.294 696 26.3818
148.411 663 25.7488
148.528 667 25.8263
148.645 614 24.779
148.762 602 24.5357
148.88 623 24.96
148.997 644 25.3772
149.114 552 23.4947
149.231 587 24.2281
149.349 563 23.7276
149.466 577 24.0208
149.583 564 23.7487
149.701 560 23.6643
149.818 588 24.2487
149.935 599 24.4745
150.053 516 22.7156
150.17 464 21.5407
150.287 475 21.7945
150.405 515 22.6936
150.522 529 23
150.64 557 23.6008
150.757 617 24.8395
150.875 584 24.1661
150.992 579 24.0624
151.11 563 23.7276
151.227 552 23.4947
151.344 566 23.7908
151.462 568 23.8328
151.579 554 23.5372
151.697 578 24.0416
151.814 604 24.5764
151.932 579 24.0624
152.049 577 24.0208
152.167 549 23.4307
152.284 542 23.2809
152.402 549 23.4307
152.519 543 23.3024
152.636 536 23.1517
152.754 595 24.3926
152.871 551 23.4734
152.989 591 24.3105
153.106 599 24.4745
153.223 559 23.6432
153.341 560 23.6643
153.458 598 24.454
153.575 562 23.7065
153.693 530 23.0217
153.81 536 23.1517
153.927 552 23.4947
154.044 530 23.0217
154.162 542 23.2809
154.279 601 24.5153
154.396 623 24.96
154.513 652 25.5343
154.63 729 27
154.747 718 26.7955
154.864 673 25.9422
154.981 660 25.6905
155.098 657 25.632
155.215 688 26.2298
155.332 710 26.6458
155.449 672 25.923
155.566 649 25.4755
155.683 669 25.865
155.8 643 25.3574
155.917 612 24.7386
156.033 609 24.6779
156.15 0 1
156.267 0 1
156.383 0 1
156.5 0 1
156.617 0 1
156.733 0 1
156.85 0 1
156.966 0 1
157.082 0 1
157.199 0 1
157.315 0 1
157.431 0 1
157.547 0 1
157.664 0 1
157.78 0 1
157.896 0 1
158.012 0 1
158.128 0 1
158.244 0 1
158.359 0 1
158.475 0 1
158.591 0 1
158.706 0 1
