
6.15755 0 1
6.2731 0 1
6.3887 0 1
6.50437 0 1
6.62009 0 1
6.73587 0 1
6.8517 0 1
6.96759 0 1
7.08353 0 1
7.19952 0 1
7.31557 0 1
7.43166 0 1
7.54781 0 1
7.664 0 1
7.78024 0 1
7.89653 0 1
8.01286 0 1
8.12924 0 1
8.24567 0 1
8.36213 0 1
8.47864 0 1
8.59519 0 1
8.71178 0 1
8.82841 0 1
8.94508 0 1
9.06179 0 1
9.17853 0 1
9.29531 0 1
9.41212 0 1
9.52897 0 1
9.64584 0 1
9.76276 0 1
9.8797 0 1
9.99667 0 1
10.1137 0 1
10.2307 0 1
10.3478 0 1
10.4648 0 1
10.5819 0 1
10.6991 0 1
10.8162 0 1
10.9334 0 1
11.0506 0 1
11.1678 0 1
11.285 0 1
11.4023 0 1
11.5196 0 1
11.6369 0 1
11.7542 0 1
11.8715 0 1
11.9888 0 1
12.1062 0 1
12.2235 0 1
12.3409 0 1
12.4582 0 1
12.5756 0 1
12.693 0 1
12.8104 0 1
12.9278 0 1
13.0452 0 1
13.1626 0 1
13.28 0 1
13.3974 0 1
13.5149 0 1
13.6323 0 1
13.7497 0 1
13.8671 0 1
13.9845 0 1
14.1019 0 1
14.2193 0 1
14.3367 0 1
14.4541 0 1
14.5714 0 1
14.6888 0 1
14.8062 0 1
14.9235 0 1
15.0408 2431 49.3052
15.1581 2497 49.97
15.2755 2589 50.8822
15.3927 2392 48.9081
15.51 2600 50.9902
15.6273 2408 49.0714
15.7445 2356 48.5386
15.8617 2400 48.9898
15.9789 2563 50.6261
16.0961 2470 49.6991
16.2132 2716 52.1153
16.3304 2626 51.2445
16.4475 2841 53.301
16.5646 2826 53.1601
16.6816 2945 54.2679
16.7986 2753 52.469
16.9156 2788 52.8015
17.0326 2816 53.066
17.1496 2807 52.9811
17.2665 2849 53.376
17.3833 2770 52.6308
17.5002 2828 53.1789
17.617 2791 52.8299
17.7338 2881 53.6749
17.8505 2892 53.7773
17.9672 2966 54.461
18.0839 3004 54.8088
18.2005 3088 55.5698
18.3171 3136 56
18.4337 3104 55.7136
18.5502 3270 57.1839
18.6666 3276 57.2364
18.7831 3327 57.6802
18.8994 3198 56.5509
19.0158 3314 57.5674
19.1321 3132 55.9643
19.2483 2977 54.5619
19.3645 2966 54.461
19.4806 2884 53.7029
19.5967 3185 56.4358
19.7128 3148 56.107
19.8288 3267 57.1577
19.9447 3018 54.9363
20.0606 0 1
20.1764 0 1
20.2922 0 1
20.4079 0 1
20.5236 0 1
20.6392 0 1
20.7548 0 1
20.8702 0 1
23.3078 0 1
23.4233 0 1
23.539 0 1
23.6547 0 1
23.7704 0 1
23.8862 0 1
24.0021 0 1
24.118 0 1
24.234 0 1
24.35 0 1
24.4661 3121 55.8659
24.5822 3107 55.7405
24.6984 3254 57.0438
24.8146 3267 57.1577
24.9309 3262 57.1139
25.0472 3409 58.3866
25.1636 3600 60
25.28 3539 59.4895
25.3965 3589 59.9083
25.513 3554 59.6154
25.6296 3486 59.0424
25.7462 3473 58.9322
25.8628 3380 58.1378
25.9795 3495 59.1185
26.0962 3495 59.1185
26.213 3358 57.9483
26.3298 3562 59.6825
26.4466 3742 61.1719
26.5635 3762 61.3351
26.6804 3812 61.7414
26.7973 3796 61.6117
26.9143 4001 63.2535
27.0313 4011 63.3325
27.1483 3900 62.45
27.2653 3962 62.9444
27.3824 4059 63.7103
27.4996 3928 62.6738
27.6167 3745 61.1964
27.7339 3845 62.0081
27.8511 3687 60.7207
27.9683 3566 59.716
28.0855 3430 58.5662
28.2028 3460 58.8218
28.3201 3429 58.5577
28.4374 3482 59.0085
28.5547 3710 60.9098
28.6721 3881 62.2977
28.7894 3820 61.8061
28.9068 3773 61.4248
29.0242 3789 61.5549
29.1416 3566 59.716
29.259 3405 58.3524
29.3764 3393 58.2495
29.4939 3407 58.3695
29.6113 3350 57.8792
29.7288 3375 58.0948
29.8463 3460 58.8218
29.9638 3721 61
30.0812 3764 61.3514
30.1987 3809 61.7171
30.3162 3887 62.3458
30.4337 4008 63.3088
30.5512 4088 63.9375
30.6687 4067 63.773
30.7862 4220 64.9615
30.9037 4151 64.4283
31.0212 4195 64.7688
31.1387 4151 64.4283
31.2562 3970 63.0079
31.3737 3781 61.4898
31.4912 3800 61.6441
31.6087 3615 60.1249
31.7262 3638 60.3158
31.8436 3557 59.6406
31.9611 3732 61.0901
32.0785 3866 62.1772
32.1959 3814 61.7576
32.3134 3969 63
32.4308 3980 63.0872
32.5482 3991 63.1744
32.6655 3897 62.426
32.7829 3668 60.564
32.9002 3653 60.4401
33.0176 3477 58.9661
33.1349 3563 59.6909
33.2522 3528 59.397
33.3694 3608 60.0666
33.4867 3841 61.9758
33.6039 3925 62.6498
33.7211 3902 62.466
33.8383 4007 63.3009
33.9554 4115 64.1483
34.0725 4189 64.7225
34.1896 4224 64.9923
34.3067 4213 64.9076
34.4237 4314 65.681
34.5407 4355 65.9924
34.6577 4372 66.1211
34.7746 4294 65.5286
34.8915 4062 63.7338
35.0084 4049 63.6318
35.1252 3999 63.2376
35.242 3843 61.9919
35.3587 3786 61.5305
35.4755 3736 61.1228
35.5921 3647 60.3904
35.7088 3907 62.506
35.8254 3990 63.1664
35.9419 4157 64.4748
36.0584 4162 64.5136
36.1749 4208 64.8691
36.2913 4039 63.5531
36.4077 3926 62.6578
36.524 3753 61.2617
36.6403 3711 60.918
36.7565 3713 60.9344
36.8727 3543 59.5231
36.9889 3602 60.0167
37.1049 3585 59.8749
37.221 0 1
37.3369 0 1
37.4529 0 1
37.5687 0 1
37.6845 0 1
37.8003 0 1
37.916 0 1
38.0316 0 1
38.1472 0 1
40.5851 0 1
40.7008 0 1
40.8164 0 1
40.9322 0 1
41.048 0 1
41.1639 0 1
41.2798 0 1
41.3958 0 1
41.5118 0 1
41.6279 0 1
41.744 3013 54.8908
41.8602 3168 56.285
41.9765 3188 56.4624
42.0928 3157 56.1872
42.2091 3270 57.1839
42.3255 3374 58.0861
42.4419 3399 58.3009
42.5584 3525 59.3717
42.675 3634 60.2827
42.7915 3790 61.563
42.9081 3890 62.3699
43.0248 3979 63.0793
43.1415 3984 63.1189
43.2582 4044 63.5925
43.375 4095 63.9922
43.4918 3928 62.6738
43.6087 3968 62.9921
43.7256 3704 60.8605
43.8425 3694 60.7783
43.9595 3558 59.649
44.0765 3445 58.6941
44.1935 3404 58.3438
44.3106 3291 57.3672
44.4277 3413 58.4209
44.5448 3414 58.4294
44.6619 3486 59.0424
44.7791 3589 59.9083
44.8963 3411 58.4038
45.0136 3358 57.9483
45.1308 3119 55.848
45.2481 2991 54.69
45.3654 2906 53.9073
45.4827 2815 53.0566
45.6001 2701 51.9711
45.7174 2766 52.5928
45.8348 2850 53.3854
45.9522 2947 54.2863
46.0697 3055 55.2721
46.1871 3070 55.4076
46.3046 3257 57.0701
46.422 3353 57.9051
46.5395 3409 58.3866
46.657 3430 58.5662
46.7745 3324 57.6541
46.892 3445 58.6941
47.0096 3488 59.0593
47.1271 3389 58.2151
47.2446 3288 57.3411
47.3622 3260 57.0964
47.4797 3102 55.6956
47.5973 3034 55.0818
47.7149 2990 54.6809
47.8324 2759 52.5262
47.95 2831 53.2071
48.0675 2782 52.7447
48.1851 2891 53.768
48.3027 2901 53.8609
48.4202 2887 53.7308
48.5378 2830 53.1977
48.6554 2740 52.345
48.7729 2583 50.8232
48.8904 2372 48.7032
49.008 2310 48.0625
49.1255 2344 48.4149
49.243 2328 48.2494
49.3605 2344 48.4149
49.478 2619 51.1762
49.5955 2704 52
49.713 2744 52.3832
49.8304 2836 53.2541
49.9479 2861 53.4883
50.0653 3053 55.254
50.1827 3040 55.1362
50.3001 3129 55.9375
50.4175 3252 57.0263
50.5348 3271 57.1927
50.6521 3216 56.7098
50.7694 3382 58.155
50.8867 3231 56.8419
51.004 3239 56.9122
51.1212 3232 56.8507
51.2384 3109 55.7584
51.3556 3094 55.6237
51.4727 3192 56.4978
51.5899 3186 56.4447
51.707 3364 58
51.824 3600 60
51.9411 3732 61.0901
52.0581 3598 59.9833
52.175 3606 60.05
52.2919 3427 58.5406
52.4088 3312 57.55
52.5257 3215 56.701
52.6425 3047 55.1996
52.7593 3213 56.6833
52.876 3201 56.5774
52.9927 3364 58
53.1094 3682 60.6795
53.226 3998 63.2297
53.3426 4256 65.238
53.4591 4456 66.7533
53.5756 4649 68.1836
53.692 4543 67.4018
53.8084 4710 68.6294
53.9248 4848 69.6276
54.0411 5106 71.4563
54.1573 5061 71.1407
54.2735 0 1
54.3896 0 1
54.5057 0 1
54.6217 0 1
54.7377 0 1
54.8537 0 1
54.9695 0 1
55.0853 0 1
55.2011 0 1
55.3168 0 1
55.4324 0 1
57.824 0 1
57.9396 0 1
58.0553 0 1
58.1711 0 1
58.2869 0 1
58.4028 0 1
58.5187 0 1
58.6347 0 1
58.7508 0 1
58.8669 0 1
58.983 5581 74.7061
59.0992 5933 77.026
59.2155 5992 77.408
59.3318 5965 77.2334
59.4482 6000 77.4597
59.5646 5844 76.4461
59.681 5898 76.7984
59.7975 5775 75.9934
59.9141 5646 75.1399
60.0306 5541 74.4379
60.1473 5682 75.379
60.2639 5623 74.9867
60.3807 5517 74.2765
60.4974 5561 74.5721
60.6142 5637 75.08
60.731 5470 73.9594
60.8479 4932 70.2282
60.9648 4821 69.4334
61.0818 4573 67.624
61.1987 4419 66.4756
61.3158 4318 65.7115
61.4328 4411 66.4154
61.5499 4394 66.2873
61.667 4868 69.7711
61.7841 4979 70.562
61.9013 5344 73.1027
62.0185 5549 74.4916
62.1357 5625 75
62.253 5716 75.6042
62.3702 5927 76.987
62.4875 6108 78.1537
62.6049 5905 76.844
62.7222 6011 77.5306
62.8396 5946 77.1103
62.9569 5900 76.8115
63.0743 5659 75.2263
63.1918 5500 74.162
63.3092 5689 75.4255
63.4267 5361 73.2189
63.5441 5454 73.8512
63.6616 5368 73.2666
63.7791 5505 74.1957
63.8966 5460 73.8918
64.0142 5423 73.641
64.1317 5491 74.1013
64.2492 5187 72.0208
64.3668 4961 70.4344
64.4843 4625 68.0074
64.6019 4489 67
64.7195 4222 64.9769
64.837 4198 64.792
64.9546 4114 64.1405
65.0722 4270 65.3452
65.1898 4507 67.1342
65.3074 4761 69
65.4249 5024 70.8802
65.5425 5235 72.3533
65.6601 5528 74.3505
65.7777 5656 75.2064
65.8952 5967 77.2464
66.0128 5902 76.8245
66.1304 6049 77.7753
66.2479 5971 77.2722
66.3655 6133 78.3135
66.483 6132 78.3071
66.6005 5889 76.7398
66.718 5945 77.1038
66.8355 5869 76.6094
66.953 5635 75.0666
67.0705 5526 74.3371
67.1879 5579 74.6927
67.3054 5687 75.4122
67.4228 5647 75.1465
67.5402 5703 75.5182
67.6576 5791 76.0986
67.7749 5613 74.92
67.8923 5731 75.7034
68.0096 5304 72.8286
68.1269 5021 70.859
68.2442 4790 69.2098
68.3614 4491 67.0149
68.4787 4478 66.9179
68.5958 4563 67.55
68.713 4722 68.7168
68.8302 4994 70.6682
68.9473 5188 72.0278
69.0643 5673 75.3193
69.1814 6022 77.6015
69.2984 6347 79.6681
69.4154 6562 81.0062
69.5323 6845 82.7345
69.6492 7086 84.1784
69.7661 6986 83.5823
69.8829 7263 85.2232
69.9997 7372 85.8604
70.1165 7357 85.773
70.2332 7341 85.6796
70.3499 7212 84.9235
70.4665 7116 84.3564
70.5831 6996 83.6421
70.6996 7012 83.7377
70.8161 6792 82.4136
70.9326 6963 83.4446
71.049 6928 83.2346
71.1653 6943 83.3247
71.2817 7083 84.1606
71.3979 6982 83.5584
71.5141 6540 80.8703
71.6303 6092 78.0513
71.7464 5241 72.3948
71.8624 0 1
71.9784 0 1
72.0944 0 1
72.2102 0 1
72.3261 0 1
72.4418 0 1
72.5575 0 1
72.6732 0 1
75.1054 0 1
75.2209 0 1
75.3365 0 1
75.4521 0 1
75.5678 0 1
75.6835 0 1
75.7993 0 1
75.9151 0 1
76.031 0 1
76.147 6871 82.8915
76.263 7405 86.0523
76.3791 7665 87.55
76.4952 7957 89.202
76.6113 7996 89.4204
76.7276 8144 90.2441
76.8438 7934 89.073
76.9601 7288 85.3698
77.0765 6854 82.7889
77.1929 6189 78.6702
77.3093 5842 76.433
77.4258 5390 73.4166
77.5423 5612 74.9133
77.6589 5522 74.3102
77.7755 5940 77.0714
77.8921 6617 81.3449
78.0088 7254 85.1704
78.1256 7805 88.3459
78.2423 8276 90.9725
78.3591 8643 92.9677
78.4759 8857 94.1116
78.5928 8997 94.8525
78.7097 8961 94.6626
78.8266 8727 93.4184
78.9436 9475 97.3396
79.0606 8923 94.4616
79.1776 8894 94.308
79.2946 8792 93.7657
79.4117 8820 93.9149
79.5288 8655 93.0323
79.6459 8602 92.747
79.7631 8350 91.3783
79.8802 8374 91.5096
79.9974 8151 90.2829
80.1147 8404 91.6733
80.2319 8592 92.693
80.3491 8576 92.6067
80.4664 8422 91.7715
80.5837 8063 89.7942
80.701 7356 85.7671
80.8183 6749 82.1523
80.9357 6067 77.8909
81.053 5665 75.2662
81.1704 5580 74.6994
81.2877 5583 74.7195
81.4051 5896 76.7854
81.5225 6257 79.1012
81.6399 7236 85.0647
81.7573 7867 88.6961
81.8747 8272 90.9505
81.9922 8561 92.5257
82.1096 8735 93.4612
82.227 8743 93.504
82.3444 8703 93.2899
82.4619 8800 93.8083
82.5793 9164 95.7288
82.6967 8961 94.6626
82.8142 8669 93.1075
82.9316 8749 93.5361
83.049 8591 92.6876
83.1664 8501 92.2009
83.2838 8185 90.471
83.4012 8119 90.1055
83.5186 7955 89.1908
83.636 8035 89.6382
83.7534 8184 90.4655
83.8708 8236 90.7524
83.9881 8194 90.5207
84.1055 8236 90.7524
84.2228 7729 87.9147
84.3401 7336 85.6505
84.4575 6675 81.7007
84.5747 5982 77.3434
84.692 5684 75.3923
84.8093 5530 74.364
84.9265 5561 74.5721
85.0437 6079 77.9679
85.1609 6568 81.0432
85.2781 7428 86.1858
85.3952 8033 89.627
85.5123 8711 93.3327
85.6294 9369 96.7936
85.7465 9688 98.4276
85.8636 9819 99.0909
85.9806 10004 100.02
86.0976 10289 101.435
86.2145 10249 101.237
86.3315 10898 104.393
86.4484 10166 100.827
86.5652 10423 102.093
86.682 10493 102.435
86.7988 10657 103.233
86.9156 10611 103.01
87.0323 10390 101.931
87.149 10239 101.188
87.2657 10319 101.582
87.3823 10826 104.048
87.4988 10827 104.053
87.6154 11032 105.033
87.7318 10734 103.605
87.8483 10034 100.17
87.9647 9320 96.5401
88.081 8603 92.7524
88.1973 7880 88.7694
88.3136 7592 87.1321
88.4298 7290 85.3815
88.546 7712 87.818
88.6621 8310 91.1592
88.7781 9299 96.4313
88.8942 0 1
89.0101 0 1
89.126 0 1
89.2419 0 1
89.3577 0 1
89.4734 0 1
89.5891 0 1
89.7047 0 1
89.8203 0 1
89.9358 0 1
92.3269 0 1
92.4424 0 1
92.558 0 1
92.6736 0 1
92.7893 0 1
92.905 0 1
93.0208 0 1
93.1366 0 1
93.2525 0 1
93.3685 0 1
93.4845 0 1
93.6005 8284 91.0165
93.7167 8298 91.0934
93.8328 8443 91.8858
93.949 8785 93.7283
94.0653 9186 95.8436
94.1816 10250 101.242
94.2979 11299 106.297
94.4143 12243 110.648
94.5307 12854 113.375
94.6472 13336 115.482
94.7637 13560 116.447
94.8803 13914 117.958
94.9969 13989 118.275
95.1135 13865 117.75
95.2302 14002 118.33
95.3469 14210 119.206
95.4637 13902 117.907
95.5805 13579 116.529
95.6973 14074 118.634
95.8142 14079 118.655
95.9311 13537 116.349
96.048 13518 116.267
96.1649 13381 115.676
96.2819 13026 114.132
96.3989 13436 115.914
96.516 13693 117.017
96.633 13555 116.426
96.7501 13543 116.374
96.8673 12944 113.772
96.9844 12178 110.354
97.1016 10999 104.876
97.2188 10145 100.722
97.336 9505 97.4936
97.4532 8797 93.7923
97.5704 8668 93.1021
97.6877 8973 94.7259
97.805 9616 98.0612
97.9223 10564 102.781
98.0396 11451 107.009
98.1569 12527 111.924
98.2743 13185 114.826
98.3916 13940 118.068
98.509 14083 118.672
98.6264 14462 120.258
98.7438 14701 121.248
98.8612 14678 121.153
98.9786 14463 120.262
99.096 14071 118.621
99.2134 14095 118.722
99.3308 14141 118.916
99.4482 14384 119.933
99.5656 14436 120.15
99.6831 14301 119.587
99.8005 13793 117.444
99.9179 13824 117.576
100.035 13691 117.009
100.153 14111 118.79
100.27 14128 118.861
100.388 14154 118.971
100.505 13357 115.572
100.622 12558 112.062
100.74 11535 107.401
100.857 10410 102.029
100.975 9718 98.5799
101.092 9043 95.0947
101.209 9158 95.6974
101.327 9394 96.9226
101.444 10399 101.975
101.561 11620 107.796
101.679 12569 112.112
101.796 13308 115.36
101.913 14161 119
102.03 14772 121.54
102.148 14805 121.676
102.265 14455 120.229
102.382 15506 124.523
102.499 15274 123.588
102.616 15280 123.612
102.733 14674 121.136
102.851 14809 121.692
102.968 15247 123.479
103.085 15016 122.54
103.202 15124 122.98
103.319 14727 121.355
103.436 14546 120.607
103.552 14452 120.216
103.669 14912 122.115
103.786 15037 122.625
103.903 14930 122.188
104.02 14222 119.256
104.137 13592 116.585
104.253 12591 112.21
104.37 11661 107.986
104.487 10508 102.509
104.603 9974 99.8699
104.72 9948 99.7397
104.836 10148 100.737
104.953 10978 104.776
105.069 11930 109.225
105.186 13236 115.048
105.302 14346 119.775
105.418 15276 123.596
105.535 15665 125.16
105.651 15695 125.28
105.767 16158 127.114
105.883 16241 127.44
105.999 16244 127.452
106.115 0 1
106.231 0 1
106.347 0 1
106.463 0 1
106.579 0 1
106.694 0 1
106.81 0 1
106.926 0 1
107.041 0 1
107.157 0 1
109.576 0 1
109.692 0 1
109.807 0 1
109.923 0 1
110.039 0 1
110.155 0 1
110.27 0 1
110.386 0 1
110.502 0 1
110.618 13946 118.093
110.735 14576 120.731
110.851 14686 121.186
110.967 14809 121.692
111.083 14758 121.483
111.199 14517 120.487
111.316 14677 121.149
111.432 14756 121.474
111.549 14655 121.058
111.665 14443 120.179
111.782 14376 119.9
111.898 13970 118.195
112.015 13994 118.296
112.132 14077 118.647
112.248 14172 119.046
112.365 14153 118.966
112.482 13394 115.732
112.599 13023 114.118
112.716 11945 109.293
112.832 11002 104.89
112.949 10149 100.742
113.066 9421 97.0618
113.183 9356 96.7264
113.3 9147 95.6399
113.417 9830 99.1464
113.534 10515 102.543
113.652 11476 107.126
113.769 12306 110.932
113.886 12982 113.939
114.003 13454 115.991
114.12 13581 116.538
114.238 13782 117.397
114.355 13913 117.953
114.472 13547 116.392
114.589 14001 118.326
114.707 13468 116.052
114.824 13326 115.438
114.942 13524 116.293
115.059 13839 117.639
115.176 13767 117.333
115.294 13421 115.849
115.411 13368 115.62
115.529 13051 114.241
115.646 13442 115.94
115.764 13314 115.386
115.881 13804 117.49
115.999 13304 115.343
116.116 12761 112.965
116.234 11818 108.711
116.351 11346 106.518
116.469 10467 102.308
116.586 9762 98.8028
116.704 9168 95.7497
116.821 9146 95.6347
116.939 9181 95.8175
117.056 9629 98.1275
117.174 10263 101.306
117.291 11118 105.442
117.409 12001 109.549
117.526 12665 112.539
117.644 13177 114.791
117.761 13141 114.634
117.879 13424 115.862
117.996 13382 115.681
118.114 13134 114.604
118.231 13210 114.935
118.349 12820 113.225
118.466 13026 114.132
118.584 13161 114.721
118.701 13133 114.599
118.819 13049 114.232
118.936 12840 113.314
119.053 12776 113.031
119.171 12351 111.135
119.288 12881 113.494
119.405 12674 112.579
119.523 12798 113.128
119.64 12554 112.045
119.757 12367 111.207
119.875 11692 108.13
119.992 11380 106.677
120.109 10429 102.122
120.226 9684 98.4073
120.343 9220 96.0208
120.46 8830 93.9681
120.578 8833 93.984
120.695 8962 94.6678
120.812 9753 98.7573
120.929 10283 101.405
121.046 10754 103.701
121.163 11564 107.536
121.279 12024 109.654
121.396 12194 110.426
121.513 12476 111.696
121.63 12650 112.472
121.747 12625 112.361
121.863 12751 112.92
121.98 12347 111.117
122.097 12213 110.512
122.213 12196 110.436
122.33 12319 110.991
122.446 12444 111.553
122.563 12220 110.544
122.679 12079 109.905
122.795 11691 108.125
122.912 11740 108.351
123.028 11880 108.995
123.144 11933 109.238
123.26 12144 110.2
123.377 0 1
123.493 0 1
123.609 0 1
123.725 0 1
123.84 0 1
123.956 0 1
124.072 0 1
124.188 0 1
124.303 0 1
124.419 0 1
126.852 0 1
126.968 0 1
127.083 0 1
127.199 0 1
127.315 0 1
127.431 0 1
127.547 0 1
127.663 0 1
127.779 0 1
127.895 0 1
128.011 0 1
128.127 0 1
128.243 0 1
128.359 12610 112.294
128.476 12556 112.054
128.592 12532 111.946
128.708 12154 110.245
128.825 11525 107.355
128.941 11194 105.802
129.058 10557 102.747
129.174 10102 100.509
129.291 9451 97.2163
129.408 9592 97.9388
129.524 9727 98.6256
129.641 9889 99.4435
129.758 10376 101.863
129.875 11099 105.352
129.992 11894 109.06
130.108 11900 109.087
130.225 12152 110.236
130.342 12445 111.557
130.459 12191 110.413
130.576 12768 112.996
130.693 12213 110.512
130.81 12125 110.114
130.928 11934 109.243
131.045 12176 110.345
131.162 12469 111.665
131.279 12510 111.848
131.396 12523 111.906
131.513 12429 111.485
131.631 12509 111.844
131.748 12172 110.327
131.865 12387 111.297
131.983 12441 111.539
132.1 12336 111.068
132.217 11946 109.298
132.335 11253 106.08
132.452 11038 105.062
132.57 10434 102.147
132.687 9701 98.4937
132.804 9819 99.0909
132.922 9339 96.6385
133.039 9430 97.1082
133.157 9592 97.9388
133.274 9982 99.91
133.392 10541 102.669
133.509 10895 104.379
133.627 11261 106.118
133.744 11643 107.903
133.862 11926 109.206
133.979 11909 109.128
134.097 12090 109.955
134.214 11638 107.88
134.332 11898 109.078
134.449 11391 106.729
134.567 11472 107.107
134.684 11696 108.148
134.802 11701 108.171
134.919 11954 109.334
135.037 11734 108.324
135.154 11552 107.48
135.272 11795 108.605
135.389 11583 107.624
135.507 11930 109.225
135.624 11759 108.439
135.742 11689 108.116
135.859 11492 107.201
135.977 10897 104.389
136.094 10582 102.869
136.211 10163 100.812
136.329 9778 98.8838
136.446 9515 97.5449
136.564 9192 95.8749
136.681 9223 96.0365
136.798 9379 96.8452
136.915 9705 98.514
137.033 9978 99.8899
137.15 10308 101.528
137.267 10794 103.894
137.384 11142 105.556
137.502 10982 104.795
137.619 11201 105.835
137.736 11226 105.953
137.853 10915 104.475
137.97 11032 105.033
138.087 10591 102.913
138.204 10653 103.213
138.321 10828 104.058
138.438 11207 105.863
138.555 11578 107.601
138.672 11263 106.127
138.788 11147 105.579
138.905 11238 106.009
139.022 11582 107.62
139.139 11482 107.154
139.255 11494 107.21
139.372 11403 106.785
139.488 11253 106.08
139.605 10688 103.383
139.721 10440 102.176
139.838 10065 100.324
139.954 9496 97.4474
140.071 9287 96.3691
140.187 9106 95.4254
140.303 8929 94.4934
140.419 9012 94.9316
140.535 9045 95.1052
140.652 9254 96.1977
140.768 0 1
140.884 0 1
141 0 1
141.115 0 1
141.231 0 1
141.347 0 1
141.463 0 1
141.578 0 1
141.694 0 1
144.104 0 1
144.219 0 1
144.335 0 1
144.45 0 1
144.566 0 1
144.682 0 1
144.798 0 1
144.914 0 1
145.03 0 1
145.146 6223 78.886
145.262 6881 82.9518
145.378 6846 82.7406
145.494 7229 85.0235
145.61 7263 85.2232
145.726 7617 87.2754
145.842 7777 88.1873
145.959 7927 89.0337
146.075 8070 89.8332
146.192 8293 91.0659
146.308 8149 90.2718
146.425 8145 90.2497
146.541 8209 90.6035
146.658 8132 90.1776
146.774 7829 88.4816
146.891 7929 89.0449
147.008 8036 89.6437
147.125 7899 88.8763
147.241 8416 91.7388
147.358 8447 91.9076
147.475 8465 92.0054
147.592 8521 92.3093
147.709 8423 91.7769
147.826 8541 92.4175
147.943 8406 91.6842
148.06 8727 93.4184
148.177 8476 92.0652
148.294 8469 92.0272
148.411 8198 90.5428
148.528 7839 88.5381
148.645 7725 87.892
148.762 7660 87.5214
148.88 7397 86.0058
148.997 7124 84.4038
149.114 7529 86.7698
149.231 7483 86.5043
149.349 7164 84.6404
149.466 7612 87.2468
149.583 7887 88.8088
149.701 7955 89.1908
149.818 8202 90.5649
149.935 8168 90.377
150.053 8183 90.4599
150.17 8247 90.813
150.287 8252 90.8405
150.405 8108 90.0444
150.522 8069 89.8276
150.64 7959 89.2132
150.757 7932 89.0618
150.875 8110 90.0555
150.992 8317 91.1976
151.11 8489 92.1358
151.227 8423 91.7769
151.344 8466 92.0109
151.462 8418 91.7497
151.579 8652 93.0161
151.697 8637 92.9355
151.814 8620 92.844
151.932 8420 91.7606
152.049 8491 92.1466
152.167 8109 90.05
152.284 8048 89.7106
152.402 7905 88.9101
152.519 7657 87.5043
152.636 7734 87.9432
152.754 7425 86.1684
152.871 7600 87.178
152.989 7683 87.6527
153.106 7758 88.0795
153.223 7730 87.9204
153.341 7988 89.3756
153.458 8250 90.8295
153.575 8328 91.2579
153.693 8402 91.6624
153.81 8440 91.8695
153.927 8352 91.3893
154.044 8226 90.6973
154.162 8113 90.0722
154.279 7983 89.3476
154.396 8317 91.1976
154.513 8635 92.9247
154.63 8692 93.2309
154.747 8760 93.5949
154.864 8909 94.3875
154.981 8971 94.7154
155.098 8855 94.101
155.215 8683 93.1826
155.332 8918 94.4352
155.449 8826 93.9468
155.566 8647 92.9892
155.683 8582 92.6391
155.8 8384 91.5642
155.917 8392 91.6079
156.033 8231 90.7249
156.15 0 1
156.267 0 1
156.383 0 1
156.5 0 1
156.617 0 1
156.733 0 1
156.85 0 1
156.966 0 1
157.082 0 1
157.199 0 1
157.315 0 1
157.431 0 1
157.547 0 1
157.664 0 1
157.78 0 1
157.896 0 1
158.012 0 1
158.128 0 1
158.244 0 1
158.359 0 1
158.475 0 1
158.591 0 1
158.706 0 1
