
6.15755 0 1
6.2731 0 1
6.3887 0 1
6.50437 0 1
6.62009 0 1
6.73587 0 1
6.8517 0 1
6.96759 0 1
7.08353 0 1
7.19952 0 1
7.31557 0 1
7.43166 0 1
7.54781 0 1
7.664 0 1
7.78024 0 1
7.89653 0 1
8.01286 0 1
8.12924 0 1
8.24567 0 1
8.36213 0 1
8.47864 0 1
8.59519 0 1
8.71178 0 1
8.82841 0 1
8.94508 0 1
9.06179 0 1
9.17853 0 1
9.29531 0 1
9.41212 0 1
9.52897 0 1
9.64584 0 1
9.76276 0 1
9.8797 0 1
9.99667 0 1
10.1137 0 1
10.2307 0 1
10.3478 0 1
10.4648 0 1
10.5819 0 1
10.6991 0 1
10.8162 0 1
10.9334 0 1
11.0506 0 1
11.1678 0 1
11.285 0 1
11.4023 0 1
11.5196 0 1
11.6369 0 1
11.7542 0 1
11.8715 0 1
11.9888 0 1
12.1062 0 1
12.2235 0 1
12.3409 0 1
12.4582 0 1
12.5756 0 1
12.693 0 1
12.8104 0 1
12.9278 0 1
13.0452 0 1
13.1626 0 1
13.28 0 1
13.3974 0 1
13.5149 0 1
13.6323 0 1
13.7497 0 1
13.8671 0 1
13.9845 0 1
14.1019 0 1
14.2193 0 1
14.3367 0 1
14.4541 0 1
14.5714 0 1
14.6888 0 1
14.8062 0 1
14.9235 0 1
15.0408 2311 48.0729
15.1581 2406 49.051
15.2755 2337 48.3425
15.3927 2440 49.3964
15.51 2398 48.9694
15.6273 2458 49.5782
15.7445 2391 48.8979
15.8617 2385 48.8365
15.9789 2413 49.1223
16.0961 2322 48.1871
16.2132 2228 47.2017
16.3304 2219 47.1063
16.4475 2247 47.4025
16.5646 2173 46.6154
16.6816 2157 46.4435
16.7986 2313 48.0937
16.9156 2304 48
17.0326 2248 47.4131
17.1496 2101 45.8367
17.2665 2223 47.1487
17.3833 2276 47.7074
17.5002 2198 46.8828
17.617 2160 46.4758
17.7338 2153 46.4004
17.8505 2197 46.8722
17.9672 2326 48.2286
18.0839 2283 47.7807
18.2005 2449 49.4874
18.3171 2454 49.5379
18.4337 2550 50.4975
18.5502 2494 49.94
18.6666 2643 51.4101
18.7831 2597 50.9608
18.8994 2496 49.96
19.0158 2496 49.96
19.1321 2438 49.3761
19.2483 2332 48.2908
19.3645 2184 46.7333
19.4806 2209 47
19.5967 2048 45.2548
19.7128 2010 44.833
19.8288 1976 44.4522
19.9447 1845 42.9535
20.0606 0 1
20.1764 0 1
20.2922 0 1
20.4079 0 1
20.5236 0 1
20.6392 0 1
20.7548 0 1
20.8702 0 1
23.3078 0 1
23.4233 0 1
23.539 0 1
23.6547 0 1
23.7704 0 1
23.8862 0 1
24.0021 0 1
24.118 0 1
24.234 0 1
24.35 0 1
24.4661 2105 45.8803
24.5822 2015 44.8888
24.6984 2044 45.2106
24.8146 1989 44.5982
24.9309 2093 45.7493
25.0472 1988 44.587
25.1636 2055 45.3321
25.28 2119 46.0326
25.3965 2031 45.0666
25.513 2211 47.0213
25.6296 2284 47.7912
25.7462 2286 47.8121
25.8628 2193 46.8295
25.9795 2292 47.8748
26.0962 2227 47.1911
26.213 2196 46.8615
26.3298 2092 45.7384
26.4466 2092 45.7384
26.5635 2028 45.0333
26.6804 2125 46.0977
26.7973 2085 45.6618
26.9143 2206 46.9681
27.0313 2204 46.9468
27.1483 2323 48.1975
27.2653 2326 48.2286
27.3824 2271 47.655
27.4996 2312 48.0833
27.6167 2274 47.6865
27.7339 2333 48.3011
27.8511 2235 47.2758
27.9683 2198 46.8828
28.0855 2109 45.9239
28.2028 2121 46.0543
28.3201 2109 45.9239
28.4374 2036 45.1221
28.5547 1987 44.5758
28.6721 1952 44.1814
28.7894 2071 45.5082
28.9068 2035 45.111
29.0242 2011 44.8442
29.1416 2059 45.3762
29.259 2053 45.31
29.3764 2086 45.6727
29.4939 2095 45.7712
29.6113 2076 45.5631
29.7288 2020 44.9444
29.8463 1905 43.6463
29.9638 1890 43.4741
30.0812 1882 43.382
30.1987 1895 43.5316
30.3162 2018 44.9222
30.4337 2047 45.2438
30.5512 2060 45.3872
30.6687 2110 45.9347
30.7862 2129 46.1411
30.9037 2196 46.8615
31.0212 2113 45.9674
31.1387 2244 47.3709
31.2562 2138 46.2385
31.3737 2098 45.8039
31.4912 2155 46.422
31.6087 2081 45.618
31.7262 2086 45.6727
31.8436 2082 45.6289
31.9611 2035 45.111
32.0785 1901 43.6005
32.1959 1988 44.587
32.3134 1835 42.8369
32.4308 1863 43.1625
32.5482 1933 43.9659
32.6655 1951 44.1701
32.7829 2020 44.9444
32.9002 1914 43.7493
33.0176 1978 44.4747
33.1349 1960 44.2719
33.2522 2030 45.0555
33.3694 1908 43.6807
33.4867 1907 43.6692
33.6039 1817 42.6263
33.7211 1783 42.2256
33.8383 1841 42.9069
33.9554 1914 43.7493
34.0725 1864 43.1741
34.1896 1984 44.5421
34.3067 1980 44.4972
34.4237 2100 45.8258
34.5407 2134 46.1952
34.6577 2120 46.0435
34.7746 2181 46.7012
34.8915 2165 46.5296
35.0084 2106 45.8912
35.1252 2096 45.7821
35.242 1982 44.5197
35.3587 2027 45.0222
35.4755 1916 43.7721
35.5921 1895 43.5316
35.7088 1809 42.5323
35.8254 1767 42.0357
35.9419 1783 42.2256
36.0584 1832 42.8019
36.1749 1796 42.3792
36.2913 1824 42.7083
36.4077 1844 42.9418
36.524 1863 43.1625
36.6403 1918 43.795
36.7565 1885 43.4166
36.8727 1971 44.3959
36.9889 1897 43.5546
37.1049 1858 43.1045
37.221 0 1
37.3369 0 1
37.4529 0 1
37.5687 0 1
37.6845 0 1
37.8003 0 1
37.916 0 1
38.0316 0 1
38.1472 0 1
40.5851 0 1
40.7008 0 1
40.8164 0 1
40.9322 0 1
41.048 0 1
41.1639 0 1
41.2798 0 1
41.3958 0 1
41.5118 0 1
41.6279 0 1
41.744 1444 38
41.8602 1537 39.2046
41.9765 1643 40.5339
42.0928 1601 40.0125
42.2091 1651 40.6325
42.3255 1667 40.8289
42.4419 1603 40.0375
42.5584 1518 38.9615
42.675 1459 38.1969
42.7915 1517 38.9487
42.9081 1522 39.0128
43.0248 1566 39.5727
43.1415 1628 40.3485
43.2582 1664 40.7922
43.375 1577 39.7115
43.4918 1656 40.694
43.6087 1774 42.1189
43.7256 1668 40.8412
43.8425 1646 40.5709
43.9595 1588 39.8497
44.0765 1584 39.7995
44.1935 1530 39.1152
44.3106 1451 38.092
44.4277 1430 37.8153
44.5448 1387 37.2424
44.6619 1320 36.3318
44.7791 1280 35.7771
44.8963 1285 35.8469
45.0136 1252 35.3836
45.1308 1247 35.3129
45.2481 1273 35.6791
45.3654 1250 35.3553
45.4827 1293 35.9583
45.6001 1303 36.0971
45.7174 1265 35.5668
45.8348 1282 35.805
45.9522 1236 35.1568
46.0697 1204 34.6987
46.1871 1210 34.7851
46.3046 1152 33.9411
46.422 1084 32.9242
46.5395 1153 33.9559
46.657 1181 34.3657
46.7745 1184 34.4093
46.892 1246 35.2987
47.0096 1284 35.8329
47.1271 1271 35.6511
47.2446 1277 35.7351
47.3622 1206 34.7275
47.4797 1282 35.805
47.5973 1190 34.4964
47.7149 1122 33.4963
47.8324 1215 34.8569
47.95 1158 34.0294
48.0675 1173 34.2491
48.1851 1103 33.2114
48.3027 1034 32.1559
48.4202 1051 32.4191
48.5378 1079 32.8481
48.6554 1055 32.4808
48.7729 1049 32.3883
48.8904 1105 33.2415
49.008 1118 33.4365
49.1255 1143 33.8083
49.243 1145 33.8378
49.3605 1142 33.7935
49.478 1096 33.1059
49.5955 1065 32.6343
49.713 1080 32.8634
49.8304 1045 32.3265
49.9479 1048 32.3728
50.0653 1149 33.8969
50.1827 1126 33.5559
50.3001 1227 35.0286
50.4175 1314 36.2491
50.5348 1225 35
50.6521 1347 36.7015
50.7694 1314 36.2491
50.8867 1354 36.7967
51.004 1351 36.756
51.1212 1432 37.8418
51.2384 1342 36.6333
51.3556 1384 37.2022
51.4727 1413 37.5899
51.5899 1441 37.9605
51.707 1395 37.3497
51.824 1308 36.1663
51.9411 1412 37.5766
52.0581 1390 37.2827
52.175 1421 37.6962
52.2919 1562 39.5221
52.4088 1467 38.3014
52.5257 1546 39.3192
52.6425 1689 41.0974
52.7593 1638 40.4722
52.876 1680 40.9878
52.9927 1665 40.8044
53.1094 1682 41.0122
53.226 1738 41.6893
53.3426 1632 40.398
53.4591 1504 38.7814
53.5756 1565 39.5601
53.692 1672 40.8901
53.8084 1692 41.1339
53.9248 1879 43.3474
54.0411 1782 42.2137
54.1573 1853 43.0465
54.2735 0 1
54.3896 0 1
54.5057 0 1
54.6217 0 1
54.7377 0 1
54.8537 0 1
54.9695 0 1
55.0853 0 1
55.2011 0 1
55.3168 0 1
55.4324 0 1
57.824 0 1
57.9396 0 1
58.0553 0 1
58.1711 0 1
58.2869 0 1
58.4028 0 1
58.5187 0 1
58.6347 0 1
58.7508 0 1
58.8669 0 1
58.983 2040 45.1664
59.0992 2167 46.551
59.2155 2295 47.9062
59.3318 2264 47.5815
59.4482 2345 48.4252
59.5646 2386 48.8467
59.681 2309 48.0521
59.7975 2327 48.239
59.9141 2326 48.2286
60.0306 2363 48.6107
60.1473 2285 47.8017
60.2639 2252 47.4552
60.3807 2153 46.4004
60.4974 2180 46.6905
60.6142 2034 45.0999
60.731 2032 45.0777
60.8479 2063 45.4203
60.9648 2146 46.3249
61.0818 2166 46.5403
61.1987 2175 46.6369
61.3158 2154 46.4112
61.4328 2214 47.0532
61.5499 2234 47.2652
61.667 2239 47.3181
61.7841 2089 45.7056
61.9013 2051 45.288
62.0185 2014 44.8776
62.1357 1938 44.0227
62.253 1868 43.2204
62.3702 1944 44.0908
62.4875 2006 44.7884
62.6049 2031 45.0666
62.7222 2027 45.0222
62.8396 2124 46.0869
62.9569 2071 45.5082
63.0743 2140 46.2601
63.1918 2148 46.3465
63.3092 2161 46.4866
63.4267 2087 45.6837
63.5441 2068 45.4753
63.6616 2065 45.4423
63.7791 2017 44.911
63.8966 2094 45.7602
64.0142 1974 44.4297
64.1317 1929 43.9204
64.2492 1816 42.6146
64.3668 1867 43.2088
64.4843 1927 43.8976
64.6019 1875 43.3013
64.7195 1982 44.5197
64.837 2016 44.8999
64.9546 1980 44.4972
65.0722 2086 45.6727
65.1898 2060 45.3872
65.3074 2088 45.6946
65.4249 2106 45.8912
65.5425 1932 43.9545
65.6601 1833 42.8135
65.7777 1764 42
65.8952 1755 41.8927
66.0128 1853 43.0465
66.1304 1911 43.715
66.2479 2081 45.618
66.3655 1994 44.6542
66.483 2219 47.1063
66.6005 1992 44.6318
66.718 2156 46.4327
66.8355 2160 46.4758
66.953 2067 45.4643
67.0705 2062 45.4093
67.1879 2023 44.9778
67.3054 2086 45.6727
67.4228 2090 45.7165
67.5402 2079 45.5961
67.6576 2025 45
67.7749 1900 43.589
67.8923 1896 43.5431
68.0096 1915 43.7607
68.1269 1973 44.4185
68.2442 2014 44.8776
68.3614 2065 45.4423
68.4787 2149 46.3573
68.5958 2266 47.6025
68.713 2183 46.7226
68.8302 2254 47.4763
68.9473 2221 47.1275
69.0643 2277 47.7179
69.1814 2213 47.0425
69.2984 2068 45.4753
69.4154 1993 44.643
69.5323 1897 43.5546
69.6492 2010 44.833
69.7661 2063 45.4203
69.8829 2180 46.6905
69.9997 2254 47.4763
70.1165 2298 47.9375
70.2332 2250 47.4342
70.3499 2279 47.7389
70.4665 2317 48.1352
70.5831 2335 48.3218
70.6996 2298 47.9375
70.8161 2240 47.3286
70.9326 2249 47.4236
71.049 2288 47.833
71.1653 2177 46.6583
71.2817 2195 46.8508
71.3979 2026 45.0111
71.5141 1934 43.9773
71.6303 1829 42.7668
71.7464 1867 43.2088
71.8624 0 1
71.9784 0 1
72.0944 0 1
72.2102 0 1
72.3261 0 1
72.4418 0 1
72.5575 0 1
72.6732 0 1
75.1054 0 1
75.2209 0 1
75.3365 0 1
75.4521 0 1
75.5678 0 1
75.6835 0 1
75.7993 0 1
75.9151 0 1
76.031 0 1
76.147 2014 44.8776
76.263 2100 45.8258
76.3791 2192 46.8188
76.4952 2193 46.8295
76.6113 2119 46.0326
76.7276 2017 44.911
76.8438 1955 44.2154
76.9601 2067 45.4643
77.0765 2112 45.9565
77.1929 2124 46.0869
77.3093 2213 47.0425
77.4258 2241 47.3392
77.5423 2269 47.634
77.6589 2325 48.2183
77.7755 2388 48.8672
77.8921 2357 48.5489
78.0088 2183 46.7226
78.1256 2156 46.4327
78.2423 2024 44.9889
78.3591 1925 43.8748
78.4759 1861 43.1393
78.5928 1972 44.4072
78.7097 2042 45.1885
78.8266 2153 46.4004
78.9436 2265 47.592
79.0606 2229 47.2123
79.1776 2286 47.8121
79.2946 2213 47.0425
79.4117 2270 47.6445
79.5288 2297 47.927
79.6459 2358 48.5592
79.7631 2265 47.592
79.8802 2319 48.156
79.9974 2141 46.2709
80.1147 2286 47.8121
80.2319 2256 47.4974
80.3491 2014 44.8776
80.4664 2159 46.465
80.5837 2122 46.0652
80.701 2138 46.2385
80.8183 2268 47.6235
80.9357 2197 46.8722
81.053 2200 46.9042
81.1704 2146 46.3249
81.2877 2353 48.5077
81.4051 2388 48.8672
81.5225 2377 48.7545
81.6399 2308 48.0416
81.7573 2223 47.1487
81.8747 2031 45.0666
81.9922 1971 44.3959
82.1096 1907 43.6692
82.227 1898 43.566
82.3444 1993 44.643
82.4619 2159 46.465
82.5793 2228 47.2017
82.6967 2166 46.5403
82.8142 2271 47.655
82.9316 2254 47.4763
83.049 2282 47.7703
83.1664 2343 48.4045
83.2838 2307 48.0312
83.4012 2321 48.1768
83.5186 2327 48.239
83.636 2283 47.7807
83.7534 2230 47.2229
83.8708 2237 47.2969
83.9881 2159 46.465
84.1055 2047 45.2438
84.2228 2084 45.6508
84.3401 2133 46.1844
84.4575 2214 47.0532
84.5747 2261 47.55
84.692 2351 48.4871
84.8093 2292 47.8748
84.9265 2473 49.7293
85.0437 2377 48.7545
85.1609 2538 50.3786
85.2781 2307 48.0312
85.3952 2140 46.2601
85.5123 2112 45.9565
85.6294 1983 44.5309
85.7465 1935 43.9886
85.8636 2154 46.4112
85.9806 2180 46.6905
86.0976 2350 48.4768
86.2145 2339 48.3632
86.3315 2388 48.8672
86.4484 2447 49.4672
86.5652 2508 50.0799
86.682 2530 50.2991
86.7988 2454 49.5379
86.9156 2430 49.295
87.0323 2323 48.1975
87.149 2397 48.9592
87.2657 2562 50.6162
87.3823 2532 50.319
87.4988 2381 48.7955
87.6154 2306 48.0208
87.7318 2187 46.7654
87.8483 2284 47.7912
87.9647 2330 48.2701
88.081 2395 48.9387
88.1973 2448 49.4773
88.3136 2487 49.8698
88.4298 2538 50.3786
88.546 2545 50.448
88.6621 2573 50.7247
88.7781 2469 49.689
88.8942 0 1
89.0101 0 1
89.126 0 1
89.2419 0 1
89.3577 0 1
89.4734 0 1
89.5891 0 1
89.7047 0 1
89.8203 0 1
89.9358 0 1
92.3269 0 1
92.4424 0 1
92.558 0 1
92.6736 0 1
92.7893 0 1
92.905 0 1
93.0208 0 1
93.1366 0 1
93.2525 0 1
93.3685 0 1
93.4845 0 1
93.6005 2266 47.6025
93.7167 2424 49.2341
93.8328 2369 48.6724
93.949 2477 49.7695
94.0653 2353 48.5077
94.1816 2235 47.2758
94.2979 2185 46.744
94.4143 2214 47.0532
94.5307 2036 45.1221
94.6472 2009 44.8219
94.7637 2052 45.299
94.8803 2187 46.7654
94.9969 2192 46.8188
95.1135 2289 47.8435
95.2302 2275 47.697
95.3469 2354 48.518
95.4637 2395 48.9387
95.5805 2441 49.4065
95.6973 2447 49.4672
95.8142 2489 49.8899
95.9311 2457 49.5681
96.048 2394 48.9285
96.1649 2421 49.2037
96.2819 2353 48.5077
96.3989 2406 49.051
96.516 2269 47.634
96.633 2256 47.4974
96.7501 2122 46.0652
96.8673 2115 45.9891
96.9844 2179 46.6798
97.1016 2401 49
97.2188 2322 48.1871
97.336 2317 48.1352
97.4532 2362 48.6004
97.5704 2440 49.3964
97.6877 2396 48.949
97.805 2369 48.6724
97.9223 2260 47.5395
98.0396 2201 46.9148
98.1569 2110 45.9347
98.2743 1972 44.4072
98.3916 2067 45.4643
98.509 2106 45.8912
98.6264 2119 46.0326
98.7438 2172 46.6047
98.8612 2224 47.1593
98.9786 2266 47.6025
99.096 2228 47.2017
99.2134 2273 47.676
99.3308 2327 48.239
99.4482 2316 48.1248
99.5656 2389 48.8774
99.6831 2306 48.0208
99.8005 2278 47.7284
99.9179 2260 47.5395
100.035 2231 47.2335
100.153 2140 46.2601
100.27 2094 45.7602
100.388 2110 45.9347
100.505 2231 47.2335
100.622 2179 46.6798
100.74 2294 47.8957
100.857 2295 47.9062
100.975 2349 48.4665
101.092 2351 48.4871
101.209 2404 49.0306
101.327 2383 48.816
101.444 2360 48.5798
101.561 2219 47.1063
101.679 2133 46.1844
101.796 2064 45.4313
101.913 1981 44.5084
102.03 2082 45.6289
102.148 2106 45.8912
102.265 2041 45.1774
102.382 2489 49.8899
102.499 2338 48.3529
102.616 2445 49.4469
102.733 2449 49.4874
102.851 2441 49.4065
102.968 2451 49.5076
103.085 2426 49.2544
103.202 2490 49.8999
103.319 2566 50.6557
103.436 2488 49.8799
103.552 2363 48.6107
103.669 2444 49.4368
103.786 2262 47.5605
103.903 2227 47.1911
104.02 2292 47.8748
104.137 2446 49.4571
104.253 2428 49.2747
104.37 2412 49.1121
104.487 2457 49.5681
104.603 2543 50.4282
104.72 2618 51.1664
104.836 2613 51.1175
104.953 2441 49.4065
105.069 2323 48.1975
105.186 2258 47.5184
105.302 2230 47.2229
105.418 2120 46.0435
105.535 2235 47.2758
105.651 2318 48.1456
105.767 2388 48.8672
105.883 2409 49.0816
105.999 2511 50.1099
106.115 0 1
106.231 0 1
106.347 0 1
106.463 0 1
106.579 0 1
106.694 0 1
106.81 0 1
106.926 0 1
107.041 0 1
107.157 0 1
109.576 0 1
109.692 0 1
109.807 0 1
109.923 0 1
110.039 0 1
110.155 0 1
110.27 0 1
110.386 0 1
110.502 0 1
110.618 1954 44.2041
110.735 2033 45.0888
110.851 2191 46.8081
110.967 2199 46.8935
111.083 2254 47.4763
111.199 2324 48.2079
111.316 2267 47.613
111.432 2275 47.697
111.549 2222 47.1381
111.665 2338 48.3529
111.782 2273 47.676
111.898 2245 47.3814
112.015 2091 45.7275
112.132 2189 46.7868
112.248 2001 44.7325
112.365 1940 44.0454
112.482 2071 45.5082
112.599 1975 44.441
112.716 2091 45.7275
112.832 2132 46.1736
112.949 1984 44.5421
113.066 2047 45.2438
113.183 2118 46.0217
113.3 2065 45.4423
113.417 2060 45.3872
113.534 2006 44.7884
113.652 1809 42.5323
113.769 1837 42.8602
113.886 1736 41.6653
114.003 1757 41.9166
114.12 1783 42.2256
114.238 1772 42.0951
114.355 1864 43.1741
114.472 1852 43.0349
114.589 1894 43.5201
114.707 1895 43.5316
114.824 1852 43.0349
114.942 1950 44.1588
115.059 1876 43.3128
115.176 1833 42.8135
115.294 1756 41.9047
115.411 1846 42.9651
115.529 1798 42.4028
115.646 1698 41.2068
115.764 1744 41.7612
115.881 1616 40.1995
115.999 1570 39.6232
116.116 1634 40.4228
116.234 1656 40.694
116.351 1609 40.1123
116.469 1588 39.8497
116.586 1617 40.2119
116.704 1691 41.1218
116.821 1660 40.7431
116.939 1644 40.5463
117.056 1666 40.8167
117.174 1518 38.9615
117.291 1491 38.6135
117.409 1494 38.6523
117.526 1425 37.7492
117.644 1510 38.8587
117.761 1516 38.9358
117.879 1566 39.5727
117.996 1642 40.5216
118.114 1637 40.4599
118.231 1698 41.2068
118.349 1624 40.2989
118.466 1687 41.0731
118.584 1636 40.4475
118.701 1695 41.1704
118.819 1686 41.0609
118.936 1609 40.1123
119.053 1709 41.3401
119.171 1611 40.1373
119.288 1703 41.2674
119.405 1589 39.8623
119.523 1569 39.6106
119.64 1473 38.3797
119.757 1542 39.2683
119.875 1645 40.5586
119.992 1642 40.5216
120.109 1644 40.5463
120.226 1750 41.833
120.343 1762 41.9762
120.46 1816 42.6146
120.578 1871 43.2551
120.695 1800 42.4264
120.812 1777 42.1545
120.929 1659 40.7308
121.046 1523 39.0256
121.163 1598 39.975
121.279 1594 39.9249
121.396 1731 41.6053
121.513 1735 41.6533
121.63 1829 42.7668
121.747 1914 43.7493
121.863 1882 43.382
121.98 1956 44.2267
122.097 1960 44.2719
122.213 1958 44.2493
122.33 1947 44.1248
122.446 1967 44.3509
122.563 2057 45.3542
122.679 2006 44.7884
122.795 2023 44.9778
122.912 1939 44.0341
123.028 1914 43.7493
123.144 1838 42.8719
123.26 1772 42.0951
123.377 0 1
123.493 0 1
123.609 0 1
123.725 0 1
123.84 0 1
123.956 0 1
124.072 0 1
124.188 0 1
124.303 0 1
124.419 0 1
126.852 0 1
126.968 0 1
127.083 0 1
127.199 0 1
127.315 0 1
127.431 0 1
127.547 0 1
127.663 0 1
127.779 0 1
127.895 0 1
128.011 0 1
128.127 0 1
128.243 0 1
128.359 2287 47.8226
128.476 2196 46.8615
128.592 2101 45.8367
128.708 2083 45.6399
128.825 2133 46.1844
128.941 2183 46.7226
129.058 2222 47.1381
129.174 2270 47.6445
129.291 2321 48.1768
129.408 2330 48.2701
129.524 2383 48.816
129.641 2352 48.4974
129.758 2154 46.4112
129.875 2103 45.8585
129.992 2083 45.6399
130.108 2055 45.3321
130.225 2045 45.2217
130.342 1972 44.4072
130.459 2083 45.6399
130.576 2091 45.7275
130.693 2121 46.0543
130.81 2174 46.6262
130.928 2230 47.2229
131.045 2281 47.7598
131.162 2269 47.634
131.279 2336 48.3322
131.396 2328 48.2494
131.513 2219 47.1063
131.631 2195 46.8508
131.748 2269 47.634
131.865 2183 46.7226
131.983 2056 45.3431
132.1 1996 44.6766
132.217 2033 45.0888
132.335 2003 44.7549
132.452 1988 44.587
132.57 2182 46.7119
132.687 2114 45.9783
132.804 2208 46.9894
132.922 2212 47.0319
133.039 2178 46.669
133.157 2190 46.7974
133.274 2145 46.3141
133.392 2110 45.9347
133.509 2020 44.9444
133.627 1963 44.3058
133.744 1961 44.2832
133.862 1911 43.715
133.979 1939 44.0341
134.097 2104 45.8694
134.214 2174 46.6262
134.332 2200 46.9042
134.449 2177 46.6583
134.567 2154 46.4112
134.684 2161 46.4866
134.802 2225 47.1699
134.919 2158 46.4543
135.037 2213 47.0425
135.154 2045 45.2217
135.272 2085 45.6618
135.389 2095 45.7712
135.507 1998 44.699
135.624 1837 42.8602
135.742 1774 42.1189
135.859 1743 41.7493
135.977 1754 41.8808
136.094 1753 41.8688
136.211 1843 42.9302
136.329 1834 42.8252
136.446 1906 43.6578
136.564 1902 43.6119
136.681 1879 43.3474
136.798 1817 42.6263
136.915 1849 43
137.033 1726 41.5452
137.15 1663 40.7799
137.267 1661 40.7554
137.384 1634 40.4228
137.502 1603 40.0375
137.619 1638 40.4722
137.736 1780 42.19
137.853 1838 42.8719
137.97 1873 43.2782
138.087 1858 43.1045
138.204 2030 45.0555
138.321 1989 44.5982
138.438 2036 45.1221
138.555 2152 46.3897
138.672 2130 46.1519
138.788 2062 45.4093
138.905 2061 45.3982
139.022 2043 45.1996
139.139 1937 44.0114
139.255 1924 43.8634
139.372 1884 43.4051
139.488 1939 44.0341
139.605 1937 44.0114
139.721 1988 44.587
139.838 2048 45.2548
139.954 2107 45.9021
140.071 2149 46.3573
140.187 2202 46.9255
140.303 2222 47.1381
140.419 2212 47.0319
140.535 2170 46.5833
140.652 2080 45.607
140.768 0 1
140.884 0 1
141 0 1
141.115 0 1
141.231 0 1
141.347 0 1
141.463 0 1
141.578 0 1
141.694 0 1
144.104 0 1
144.219 0 1
144.335 0 1
144.45 0 1
144.566 0 1
144.682 0 1
144.798 0 1
144.914 0 1
145.03 0 1
145.146 3000 54.7723
145.262 3242 56.9386
145.378 3443 58.6771
145.494 3507 59.2199
145.61 3698 60.8112
145.726 3787 61.5386
145.842 3765 61.3596
145.959 3739 61.1474
146.075 3892 62.3859
146.192 3956 62.8967
146.308 4208 64.8691
146.425 4701 68.5638
146.541 5067 71.1829
146.658 5229 72.3118
146.774 5663 75.2529
146.891 6151 78.4283
147.008 6264 79.1454
147.125 6341 79.6304
147.241 6951 83.3727
147.358 6989 83.6002
147.475 7274 85.2877
147.592 7153 84.5754
147.709 7271 85.2702
147.826 7130 84.4393
147.943 7123 84.3979
148.06 6878 82.9337
148.177 6857 82.807
148.294 6899 83.0602
148.411 7264 85.2291
148.528 7577 87.046
148.645 7937 89.0898
148.762 8093 89.9611
148.88 7950 89.1628
148.997 8342 91.3345
149.114 7576 87.0402
149.231 7794 88.2836
149.349 7371 85.8545
149.466 7083 84.1606
149.583 6788 82.3893
149.701 6436 80.2247
149.818 6251 79.0633
149.935 6386 79.9125
150.053 6637 81.4678
150.17 6800 82.4621
150.287 6985 83.5763
150.405 7293 85.3991
150.522 7237 85.0706
150.64 7548 86.8792
150.757 7545 86.862
150.875 7860 88.6566
150.992 7664 87.5443
151.11 7721 87.8692
151.227 7715 87.8351
151.344 7461 86.3771
151.462 7374 85.872
151.579 7117 84.3623
151.697 6814 82.547
151.814 7037 83.8868
151.932 7003 83.6839
152.049 7596 87.155
152.167 7706 87.7838
152.284 8291 91.0549
152.402 8024 89.5768
152.519 8320 91.214
152.636 8409 91.7006
152.754 8384 91.5642
152.871 8332 91.2798
152.989 7710 87.8066
153.106 7489 86.539
153.223 7121 84.386
153.341 7100 84.2615
153.458 6865 82.8553
153.575 7179 84.729
153.693 7607 87.2181
153.81 7754 88.0568
153.927 8197 90.5373
154.044 8311 91.1647
154.162 8420 91.7606
154.279 8556 92.4986
154.396 8866 94.1594
154.513 9117 95.483
154.63 9353 96.7109
154.747 9210 95.9687
154.864 9118 95.4882
154.981 8956 94.6361
155.098 8895 94.3133
155.215 8684 93.188
155.332 8499 92.19
155.449 8491 92.1466
155.566 8793 93.771
155.683 9303 96.4521
155.8 9669 98.3311
155.917 9825 99.1211
156.033 10039 100.195
156.15 0 1
156.267 0 1
156.383 0 1
156.5 0 1
156.617 0 1
156.733 0 1
156.85 0 1
156.966 0 1
157.082 0 1
157.199 0 1
157.315 0 1
157.431 0 1
157.547 0 1
157.664 0 1
157.78 0 1
157.896 0 1
158.012 0 1
158.128 0 1
158.244 0 1
158.359 0 1
158.475 0 1
158.591 0 1
158.706 0 1
