
6.15755 0 1
6.2731 0 1
6.3887 0 1
6.50437 0 1
6.62009 0 1
6.73587 0 1
6.8517 0 1
6.96759 0 1
7.08353 0 1
7.19952 0 1
7.31557 0 1
7.43166 0 1
7.54781 0 1
7.664 0 1
7.78024 0 1
7.89653 0 1
8.01286 0 1
8.12924 0 1
8.24567 0 1
8.36213 0 1
8.47864 0 1
8.59519 0 1
8.71178 0 1
8.82841 0 1
8.94508 0 1
9.06179 0 1
9.17853 0 1
9.29531 0 1
9.41212 0 1
9.52897 0 1
9.64584 0 1
9.76276 0 1
9.8797 0 1
9.99667 0 1
10.1137 0 1
10.2307 0 1
10.3478 0 1
10.4648 0 1
10.5819 0 1
10.6991 0 1
10.8162 0 1
10.9334 0 1
11.0506 0 1
11.1678 0 1
11.285 0 1
11.4023 0 1
11.5196 0 1
11.6369 0 1
11.7542 0 1
11.8715 0 1
11.9888 0 1
12.1062 0 1
12.2235 0 1
12.3409 0 1
12.4582 0 1
12.5756 0 1
12.693 0 1
12.8104 0 1
12.9278 0 1
13.0452 0 1
13.1626 0 1
13.28 0 1
13.3974 0 1
13.5149 0 1
13.6323 0 1
13.7497 0 1
13.8671 0 1
13.9845 0 1
14.1019 0 1
14.2193 0 1
14.3367 0 1
14.4541 0 1
14.5714 0 1
14.6888 0 1
14.8062 0 1
14.9235 0 1
15.0408 1385 37.2156
15.1581 1426 37.7624
15.2755 1463 38.2492
15.3927 1526 39.064
15.51 1528 39.0896
15.6273 1504 38.7814
15.7445 1591 39.8873
15.8617 1563 39.5348
15.9789 1528 39.0896
16.0961 1478 38.4448
16.2132 1534 39.1663
16.3304 1439 37.9342
16.4475 1542 39.2683
16.5646 1581 39.7618
16.6816 1713 41.3884
16.7986 1770 42.0714
16.9156 1781 42.2019
17.0326 1824 42.7083
17.1496 1796 42.3792
17.2665 1715 41.4126
17.3833 1723 41.509
17.5002 1653 40.6571
17.617 1662 40.7676
17.7338 1521 39
17.8505 1516 38.9358
17.9672 1485 38.5357
18.0839 1567 39.5854
18.2005 1549 39.3573
18.3171 1561 39.5095
18.4337 1672 40.8901
18.5502 1690 41.1096
18.6666 1640 40.4969
18.7831 1652 40.6448
18.8994 1718 41.4488
19.0158 1635 40.4351
19.1321 1672 40.8901
19.2483 1587 39.8372
19.3645 1463 38.2492
19.4806 1444 38
19.5967 1329 36.4555
19.7128 1232 35.0999
19.8288 1174 34.2637
19.9447 1034 32.1559
20.0606 0 1
20.1764 0 1
20.2922 0 1
20.4079 0 1
20.5236 0 1
20.6392 0 1
20.7548 0 1
20.8702 0 1
23.3078 0 1
23.4233 0 1
23.539 0 1
23.6547 0 1
23.7704 0 1
23.8862 0 1
24.0021 0 1
24.118 0 1
24.234 0 1
24.35 0 1
24.4661 726 26.9444
24.5822 820 28.6356
24.6984 1008 31.749
24.8146 1030 32.0936
24.9309 1147 33.8674
25.0472 1228 35.0428
25.1636 1424 37.7359
25.28 1479 38.4578
25.3965 1594 39.9249
25.513 1706 41.3038
25.6296 1730 41.5933
25.7462 1777 42.1545
25.8628 1943 44.0795
25.9795 1855 43.0697
26.0962 1900 43.589
26.213 1843 42.9302
26.3298 1678 40.9634
26.4466 1706 41.3038
26.5635 1674 40.9145
26.6804 1708 41.328
26.7973 1618 40.2244
26.9143 1710 41.3521
27.0313 1682 41.0122
27.1483 1709 41.3401
27.2653 1846 42.9651
27.3824 1769 42.0595
27.4996 1839 42.8836
27.6167 1801 42.4382
27.7339 1697 41.1947
27.8511 1696 41.1825
27.9683 1614 40.1746
28.0855 1657 40.7063
28.2028 1596 39.95
28.3201 1443 37.9868
28.4374 1460 38.2099
28.5547 1546 39.3192
28.6721 1570 39.6232
28.7894 1714 41.4005
28.9068 1721 41.4849
29.0242 1842 42.9185
29.1416 1815 42.6028
29.259 1872 43.2666
29.3764 1797 42.391
29.4939 1773 42.107
29.6113 1815 42.6028
29.7288 1665 40.8044
29.8463 1636 40.4475
29.9638 1525 39.0512
30.0812 1552 39.3954
30.1987 1536 39.1918
30.3162 1618 40.2244
30.4337 1601 40.0125
30.5512 1687 41.0731
30.6687 1752 41.8569
30.7862 1667 40.8289
30.9037 1726 41.5452
31.0212 1718 41.4488
31.1387 1686 41.0609
31.2562 1684 41.0366
31.3737 1666 40.8167
31.4912 1645 40.5586
31.6087 1592 39.8999
31.7262 1524 39.0384
31.8436 1505 38.7943
31.9611 1455 38.1445
32.0785 1501 38.7427
32.1959 1552 39.3954
32.3134 1556 39.4462
32.4308 1723 41.509
32.5482 1830 42.7785
32.6655 1782 42.2137
32.7829 1878 43.3359
32.9002 1790 42.3084
33.0176 1706 41.3038
33.1349 1706 41.3038
33.2522 1642 40.5216
33.3694 1683 41.0244
33.4867 1584 39.7995
33.6039 1495 38.6652
33.7211 1480 38.4708
33.8383 1460 38.2099
33.9554 1528 39.0896
34.0725 1513 38.8973
34.1896 1559 39.4842
34.3067 1556 39.4462
34.4237 1576 39.6989
34.5407 1596 39.95
34.6577 1659 40.7308
34.7746 1733 41.6293
34.8915 1646 40.5709
35.0084 1569 39.6106
35.1252 1616 40.1995
35.242 1497 38.6911
35.3587 1553 39.4081
35.4755 1522 39.0128
35.5921 1421 37.6962
35.7088 1362 36.9053
35.8254 1438 37.921
35.9419 1490 38.6005
36.0584 1484 38.5227
36.1749 1533 39.1535
36.2913 1539 39.2301
36.4077 1467 38.3014
36.524 1548 39.3446
36.6403 1453 38.1182
36.7565 1410 37.55
36.8727 1355 36.8103
36.9889 1218 34.8999
37.1049 1181 34.3657
37.221 0 1
37.3369 0 1
37.4529 0 1
37.5687 0 1
37.6845 0 1
37.8003 0 1
37.916 0 1
38.0316 0 1
38.1472 0 1
40.5851 0 1
40.7008 0 1
40.8164 0 1
40.9322 0 1
41.048 0 1
41.1639 0 1
41.2798 0 1
41.3958 0 1
41.5118 0 1
41.6279 0 1
41.744 735 27.1109
41.8602 924 30.3974
41.9765 982 31.3369
42.0928 975 31.225
42.2091 958 30.9516
42.3255 976 31.241
42.4419 966 31.0805
42.5584 1040 32.249
42.675 1041 32.2645
42.7915 1121 33.4813
42.9081 1198 34.6121
43.0248 1216 34.8712
43.1415 1265 35.5668
43.2582 1378 37.1214
43.375 1357 36.8375
43.4918 1368 36.9865
43.6087 1391 37.2961
43.7256 1421 37.6962
43.8425 1346 36.6879
43.9595 1247 35.3129
44.0765 1257 35.4542
44.1935 1191 34.5109
44.3106 1221 34.9428
44.4277 1128 33.5857
44.5448 1135 33.6898
44.6619 1130 33.6155
44.7791 1181 34.3657
44.8963 1307 36.1525
45.0136 1364 36.9324
45.1308 1381 37.1618
45.2481 1393 37.3229
45.3654 1414 37.6032
45.4827 1397 37.3765
45.6001 1411 37.5633
45.7174 1350 36.7423
45.8348 1220 34.9285
45.9522 1133 33.6601
46.0697 1123 33.5112
46.1871 1124 33.5261
46.3046 1159 34.0441
46.422 1211 34.7994
46.5395 1268 35.609
46.657 1305 36.1248
46.7745 1336 36.5513
46.892 1349 36.7287
47.0096 1421 37.6962
47.1271 1373 37.054
47.2446 1377 37.108
47.3622 1386 37.229
47.4797 1353 36.7831
47.5973 1292 35.9444
47.7149 1296 36
47.8324 1277 35.7351
47.95 1213 34.8281
48.0675 1175 34.2783
48.1851 1204 34.6987
48.3027 1219 34.9142
48.4202 1351 36.756
48.5378 1369 37
48.6554 1460 38.2099
48.7729 1387 37.2424
48.8904 1420 37.6829
49.008 1393 37.3229
49.1255 1492 38.6264
49.243 1332 36.4966
49.3605 1244 35.2704
49.478 1195 34.5688
49.5955 1086 32.9545
49.713 1068 32.6803
49.8304 1081 32.8786
49.9479 1172 34.2345
50.0653 1195 34.5688
50.1827 1307 36.1525
50.3001 1312 36.2215
50.4175 1364 36.9324
50.5348 1406 37.4967
50.6521 1488 38.5746
50.7694 1382 37.1753
50.8867 1458 38.1838
51.004 1436 37.8946
51.1212 1399 37.4032
51.2384 1394 37.3363
51.3556 1343 36.647
51.4727 1306 36.1386
51.5899 1245 35.2846
51.707 1228 35.0428
51.824 1331 36.4829
51.9411 1461 38.223
52.0581 1538 39.2173
52.175 1661 40.7554
52.2919 1663 40.7799
52.4088 1806 42.4971
52.5257 1851 43.0232
52.6425 1697 41.1947
52.7593 1868 43.2204
52.876 1734 41.6413
52.9927 1677 40.9512
53.1094 1581 39.7618
53.226 1462 38.2361
53.3426 1446 38.0263
53.4591 1401 37.4299
53.5756 1507 38.8201
53.692 1425 37.7492
53.8084 1440 37.9473
53.9248 1357 36.8375
54.0411 1450 38.0789
54.1573 1311 36.2077
54.2735 0 1
54.3896 0 1
54.5057 0 1
54.6217 0 1
54.7377 0 1
54.8537 0 1
54.9695 0 1
55.0853 0 1
55.2011 0 1
55.3168 0 1
55.4324 0 1
57.824 0 1
57.9396 0 1
58.0553 0 1
58.1711 0 1
58.2869 0 1
58.4028 0 1
58.5187 0 1
58.6347 0 1
58.7508 0 1
58.8669 0 1
58.983 1034 32.1559
59.0992 1245 35.2846
59.2155 1340 36.606
59.3318 1424 37.7359
59.4482 1491 38.6135
59.5646 1489 38.5876
59.681 1534 39.1663
59.7975 1634 40.4228
59.9141 1547 39.3319
60.0306 1538 39.2173
60.1473 1509 38.8458
60.2639 1500 38.7298
60.3807 1465 38.2753
60.4974 1507 38.8201
60.6142 1542 39.2683
60.731 1751 41.845
60.8479 1713 41.3884
60.9648 1811 42.5558
61.0818 1763 41.9881
61.1987 1830 42.7785
61.3158 1781 42.2019
61.4328 1669 40.8534
61.5499 1553 39.4081
61.667 1566 39.5727
61.7841 1480 38.4708
61.9013 1334 36.524
62.0185 1327 36.428
62.1357 1410 37.55
62.253 1550 39.37
62.3702 1514 38.9102
62.4875 1614 40.1746
62.6049 1690 41.1096
62.7222 1748 41.8091
62.8396 1833 42.8135
62.9569 1781 42.2019
63.0743 1746 41.7852
63.1918 1720 41.4729
63.3092 1669 40.8534
63.4267 1726 41.5452
63.5441 1679 40.9756
63.6616 1439 37.9342
63.7791 1466 38.2884
63.8966 1376 37.0945
64.0142 1416 37.6298
64.1317 1527 39.0768
64.2492 1553 39.4081
64.3668 1743 41.7493
64.4843 1691 41.1218
64.6019 1735 41.6533
64.7195 1748 41.8091
64.837 1759 41.9404
64.9546 1791 42.3202
65.0722 1605 40.0625
65.1898 1518 38.9615
65.3074 1325 36.4005
65.4249 1264 35.5528
65.5425 1281 35.7911
65.6601 1286 35.8608
65.7777 1367 36.973
65.8952 1394 37.3363
66.0128 1487 38.5616
66.1304 1609 40.1123
66.2479 1636 40.4475
66.3655 1707 41.3159
66.483 1700 41.2311
66.6005 1649 40.6079
66.718 1657 40.7063
66.8355 1633 40.4104
66.953 1652 40.6448
67.0705 1551 39.3827
67.1879 1525 39.0512
67.3054 1471 38.3536
67.4228 1451 38.092
67.5402 1360 36.8782
67.6576 1348 36.7151
67.7749 1435 37.8814
67.8923 1491 38.6135
68.0096 1643 40.5339
68.1269 1675 40.9268
68.2442 1731 41.6053
68.3614 1650 40.6202
68.4787 1727 41.5572
68.5958 1605 40.0625
68.713 1607 40.0874
68.8302 1488 38.5746
68.9473 1321 36.3456
69.0643 1282 35.805
69.1814 1225 35
69.2984 1192 34.5254
69.4154 1294 35.9722
69.5323 1418 37.6563
69.6492 1445 38.0132
69.7661 1562 39.5221
69.8829 1553 39.4081
69.9997 1461 38.223
70.1165 1456 38.1576
70.2332 1544 39.2938
70.3499 1372 37.0405
70.4665 1356 36.8239
70.5831 1334 36.524
70.6996 1214 34.8425
70.8161 1213 34.8281
70.9326 1045 32.3265
71.049 880 29.6648
71.1653 805 28.3725
71.2817 734 27.0924
71.3979 644 25.3772
71.5141 636 25.219
71.6303 613 24.7588
71.7464 609 24.6779
71.8624 0 1
71.9784 0 1
72.0944 0 1
72.2102 0 1
72.3261 0 1
72.4418 0 1
72.5575 0 1
72.6732 0 1
75.1054 0 1
75.2209 0 1
75.3365 0 1
75.4521 0 1
75.5678 0 1
75.6835 0 1
75.7993 0 1
75.9151 0 1
76.031 0 1
76.147 978 31.273
76.263 1049 32.3883
76.3791 1022 31.9687
76.4952 1081 32.8786
76.6113 1100 33.1662
76.7276 1176 34.2929
76.8438 1306 36.1386
76.9601 1417 37.6431
77.0765 1317 36.2905
77.1929 1457 38.1707
77.3093 1484 38.5227
77.4258 1460 38.2099
77.5423 1458 38.1838
77.6589 1371 37.027
77.7755 1248 35.327
77.8921 1155 33.9853
78.0088 1087 32.9697
78.1256 895 29.9166
78.2423 969 31.1288
78.3591 1057 32.5115
78.4759 1230 35.0714
78.5928 1234 35.1283
78.7097 1275 35.7071
78.8266 1335 36.5377
78.9436 1403 37.4566
79.0606 1426 37.7624
79.1776 1470 38.3406
79.2946 1462 38.2361
79.4117 1407 37.51
79.5288 1487 38.5616
79.6459 1428 37.7889
79.7631 1323 36.3731
79.8802 1346 36.6879
79.9974 1233 35.1141
80.1147 1209 34.7707
80.2319 1163 34.1028
80.3491 1198 34.6121
80.4664 1277 35.7351
80.5837 1347 36.7015
80.701 1431 37.8286
80.8183 1460 38.2099
80.9357 1440 37.9473
81.053 1587 39.8372
81.1704 1480 38.4708
81.2877 1458 38.1838
81.4051 1418 37.6563
81.5225 1320 36.3318
81.6399 1248 35.327
81.7573 1038 32.218
81.8747 1061 32.573
81.9922 1054 32.4654
82.1096 1182 34.3802
82.227 1303 36.0971
82.3444 1325 36.4005
82.4619 1385 37.2156
82.5793 1437 37.9078
82.6967 1441 37.9605
82.8142 1519 38.9744
82.9316 1445 38.0132
83.049 1477 38.4318
83.1664 1409 37.5366
83.2838 1484 38.5227
83.4012 1452 38.1051
83.5186 1340 36.606
83.636 1381 37.1618
83.7534 1243 35.2562
83.8708 1166 34.1467
83.9881 1175 34.2783
84.1055 1278 35.7491
84.2228 1306 36.1386
84.3401 1408 37.5233
84.4575 1522 39.0128
84.5747 1463 38.2492
84.692 1589 39.8623
84.8093 1517 38.9487
84.9265 1483 38.5097
85.0437 1414 37.6032
85.1609 1281 35.7911
85.2781 1128 33.5857
85.3952 1069 32.6956
85.5123 1090 33.0151
85.6294 1071 32.7261
85.7465 1222 34.9571
85.8636 1355 36.8103
85.9806 1387 37.2424
86.0976 1436 37.8946
86.2145 1475 38.4057
86.3315 1547 39.3319
86.4484 1519 38.9744
86.5652 1515 38.923
86.682 1535 39.1791
86.7988 1488 38.5746
86.9156 1540 39.2428
87.0323 1422 37.7094
87.149 1399 37.4032
87.2657 1334 36.524
87.3823 1107 33.2716
87.4988 1093 33.0606
87.6154 1022 31.9687
87.7318 1083 32.909
87.8483 1129 33.6006
87.9647 1174 34.2637
88.081 1167 34.1614
88.1973 1198 34.6121
88.3136 1130 33.6155
88.4298 1120 33.4664
88.546 1010 31.7805
88.6621 933 30.545
88.7781 667 25.8263
88.8942 0 1
89.0101 0 1
89.126 0 1
89.2419 0 1
89.3577 0 1
89.4734 0 1
89.5891 0 1
89.7047 0 1
89.8203 0 1
89.9358 0 1
92.3269 0 1
92.4424 0 1
92.558 0 1
92.6736 0 1
92.7893 0 1
92.905 0 1
93.0208 0 1
93.1366 0 1
93.2525 0 1
93.3685 0 1
93.4845 0 1
93.6005 1136 33.7046
93.7167 1239 35.1994
93.8328 1304 36.1109
93.949 1325 36.4005
94.0653 1331 36.4829
94.1816 1304 36.1109
94.2979 1253 35.3977
94.4143 1187 34.4529
94.5307 1162 34.0881
94.6472 1072 32.7414
94.7637 1101 33.1813
94.8803 1281 35.7911
94.9969 1361 36.8917
95.1135 1346 36.6879
95.2302 1350 36.7423
95.3469 1488 38.5746
95.4637 1564 39.5474
95.5805 1536 39.1918
95.6973 1521 39
95.8142 1553 39.4081
95.9311 1484 38.5227
96.048 1504 38.7814
96.1649 1533 39.1535
96.2819 1475 38.4057
96.3989 1406 37.4967
96.516 1320 36.3318
96.633 1278 35.7491
96.7501 1229 35.0571
96.8673 1246 35.2987
96.9844 1323 36.3731
97.1016 1475 38.4057
97.2188 1478 38.4448
97.336 1584 39.7995
97.4532 1589 39.8623
97.5704 1589 39.8623
97.6877 1554 39.4208
97.805 1520 38.9872
97.9223 1379 37.1349
98.0396 1226 35.0143
98.1569 1231 35.0856
98.2743 1090 33.0151
98.3916 1140 33.7639
98.509 1121 33.4813
98.6264 1340 36.606
98.7438 1412 37.5766
98.8612 1542 39.2683
98.9786 1507 38.8201
99.096 1590 39.8748
99.2134 1594 39.9249
99.3308 1601 40.0125
99.4482 1633 40.4104
99.5656 1658 40.7185
99.6831 1639 40.4846
99.8005 1561 39.5095
99.9179 1536 39.1918
100.035 1499 38.7169
100.153 1427 37.7757
100.27 1370 37.0135
100.388 1278 35.7491
100.505 1426 37.7624
100.622 1586 39.8246
100.74 1683 41.0244
100.857 1648 40.5956
100.975 1613 40.1622
101.092 1667 40.8289
101.209 1671 40.8779
101.327 1664 40.7922
101.444 1596 39.95
101.561 1414 37.6032
101.679 1275 35.7071
101.796 1197 34.5977
101.913 1148 33.8821
102.03 1195 34.5688
102.148 1365 36.9459
102.265 1504 38.7814
102.382 1555 39.4335
102.499 1599 39.9875
102.616 1647 40.5832
102.733 1669 40.8534
102.851 1726 41.5452
102.968 1711 41.3642
103.085 1754 41.8808
103.202 1663 40.7799
103.319 1636 40.4475
103.436 1571 39.6358
103.552 1522 39.0128
103.669 1515 38.923
103.786 1441 37.9605
103.903 1397 37.3765
104.02 1473 38.3797
104.137 1552 39.3954
104.253 1593 39.9124
104.37 1777 42.1545
104.487 1745 41.7732
104.603 1777 42.1545
104.72 1742 41.7373
104.836 1636 40.4475
104.953 1444 38
105.069 1302 36.0832
105.186 1210 34.7851
105.302 1145 33.8378
105.418 1078 32.8329
105.535 1108 33.2866
105.651 1106 33.2566
105.767 1099 33.1512
105.883 1040 32.249
105.999 944 30.7246
106.115 0 1
106.231 0 1
106.347 0 1
106.463 0 1
106.579 0 1
106.694 0 1
106.81 0 1
106.926 0 1
107.041 0 1
107.157 0 1
109.576 0 1
109.692 0 1
109.807 0 1
109.923 0 1
110.039 0 1
110.155 0 1
110.27 0 1
110.386 0 1
110.502 0 1
110.618 695 26.3629
110.735 942 30.692
110.851 1032 32.1248
110.967 1179 34.3366
111.083 1308 36.1663
111.199 1443 37.9868
111.316 1481 38.4838
111.432 1510 38.8587
111.549 1551 39.3827
111.665 1586 39.8246
111.782 1591 39.8873
111.898 1481 38.4838
112.015 1597 39.9625
112.132 1482 38.4968
112.248 1299 36.0416
112.365 1329 36.4555
112.482 1234 35.1283
112.599 1407 37.51
112.716 1431 37.8286
112.832 1537 39.2046
112.949 1631 40.3856
113.066 1653 40.6571
113.183 1680 40.9878
113.3 1575 39.6863
113.417 1724 41.5211
113.534 1566 39.5727
113.652 1358 36.8511
113.769 1228 35.0428
113.886 1157 34.0147
114.003 1092 33.0454
114.12 1206 34.7275
114.238 1361 36.8917
114.355 1434 37.8682
114.472 1434 37.8682
114.589 1598 39.975
114.707 1593 39.9124
114.824 1640 40.4969
114.942 1611 40.1373
115.059 1547 39.3319
115.176 1760 41.9524
115.294 1598 39.975
115.411 1584 39.7995
115.529 1524 39.0384
115.646 1471 38.3536
115.764 1430 37.8153
115.881 1371 37.027
115.999 1298 36.0278
116.116 1373 37.054
116.234 1433 37.855
116.351 1573 39.6611
116.469 1680 40.9878
116.586 1590 39.8748
116.704 1569 39.6106
116.821 1610 40.1248
116.939 1587 39.8372
117.056 1453 38.1182
117.174 1464 38.2623
117.291 1311 36.2077
117.409 1216 34.8712
117.526 1110 33.3167
117.644 1188 34.4674
117.761 1245 35.2846
117.879 1355 36.8103
117.996 1458 38.1838
118.114 1490 38.6005
118.231 1580 39.7492
118.349 1536 39.1918
118.466 1505 38.7943
118.584 1541 39.2556
118.701 1504 38.7814
118.819 1621 40.2616
118.936 1471 38.3536
119.053 1523 39.0256
119.171 1466 38.2884
119.288 1409 37.5366
119.405 1394 37.3363
119.523 1337 36.565
119.64 1334 36.524
119.757 1318 36.3043
119.875 1322 36.3593
119.992 1399 37.4032
120.109 1567 39.5854
120.226 1477 38.4318
120.343 1519 38.9744
120.46 1491 38.6135
120.578 1526 39.064
120.695 1464 38.2623
120.812 1362 36.9053
120.929 1222 34.9571
121.046 1167 34.1614
121.163 1080 32.8634
121.279 1029 32.078
121.396 1003 31.6702
121.513 1100 33.1662
121.63 1176 34.2929
121.747 1201 34.6554
121.863 1154 33.9706
121.98 1244 35.2704
122.097 1225 35
122.213 1171 34.2199
122.33 1147 33.8674
122.446 1105 33.2415
122.563 1109 33.3017
122.679 1020 31.9374
122.795 883 29.7153
122.912 917 30.282
123.028 756 27.4955
123.144 711 26.6646
123.26 590 24.2899
123.377 0 1
123.493 0 1
123.609 0 1
123.725 0 1
123.84 0 1
123.956 0 1
124.072 0 1
124.188 0 1
124.303 0 1
124.419 0 1
126.852 0 1
126.968 0 1
127.083 0 1
127.199 0 1
127.315 0 1
127.431 0 1
127.547 0 1
127.663 0 1
127.779 0 1
127.895 0 1
128.011 0 1
128.127 0 1
128.243 0 1
128.359 1443 37.9868
128.476 1459 38.1969
128.592 1437 37.9078
128.708 1373 37.054
128.825 1409 37.5366
128.941 1557 39.4588
129.058 1587 39.8372
129.174 1634 40.4228
129.291 1647 40.5832
129.408 1686 41.0609
129.524 1634 40.4228
129.641 1679 40.9756
129.758 1561 39.5095
129.875 1506 38.8072
129.992 1372 37.0405
130.108 1177 34.3074
130.225 1159 34.0441
130.342 1218 34.8999
130.459 1253 35.3977
130.576 1318 36.3043
130.693 1512 38.8844
130.81 1559 39.4842
130.928 1536 39.1918
131.045 1510 38.8587
131.162 1637 40.4599
131.279 1653 40.6571
131.396 1649 40.6079
131.513 1609 40.1123
131.631 1631 40.3856
131.748 1692 41.1339
131.865 1503 38.7685
131.983 1494 38.6523
132.1 1429 37.8021
132.217 1433 37.855
132.335 1380 37.1484
132.452 1550 39.37
132.57 1537 39.2046
132.687 1660 40.7431
132.804 1604 40.05
132.922 1611 40.1373
133.039 1711 41.3642
133.157 1659 40.7308
133.274 1683 41.0244
133.392 1560 39.4968
133.509 1541 39.2556
133.627 1365 36.9459
133.744 1285 35.8469
133.862 1213 34.8281
133.979 1270 35.6371
134.097 1400 37.4166
134.214 1441 37.9605
134.332 1487 38.5616
134.449 1549 39.3573
134.567 1560 39.4968
134.684 1640 40.4969
134.802 1617 40.2119
134.919 1666 40.8167
135.037 1575 39.6863
135.154 1573 39.6611
135.272 1582 39.7744
135.389 1571 39.6358
135.507 1521 39
135.624 1462 38.2361
135.742 1455 38.1445
135.859 1362 36.9053
135.977 1574 39.6737
136.094 1566 39.5727
136.211 1634 40.4228
136.329 1747 41.7971
136.446 1692 41.1339
136.564 1828 42.7551
136.681 1744 41.7612
136.798 1705 41.2916
136.915 1636 40.4475
137.033 1523 39.0256
137.15 1457 38.1707
137.267 1366 36.9594
137.384 1279 35.7631
137.502 1254 35.4119
137.619 1215 34.8569
137.736 1344 36.6606
137.853 1458 38.1838
137.97 1468 38.3145
138.087 1504 38.7814
138.204 1520 38.9872
138.321 1632 40.398
138.438 1612 40.1497
138.555 1708 41.328
138.672 1664 40.7922
138.788 1637 40.4599
138.905 1572 39.6485
139.022 1410 37.55
139.139 1379 37.1349
139.255 1267 35.5949
139.372 1213 34.8281
139.488 1196 34.5832
139.605 1103 33.2114
139.721 1126 33.5559
139.838 1100 33.1662
139.954 1111 33.3317
140.071 1077 32.8177
140.187 1005 31.7017
140.303 913 30.2159
140.419 839 28.9655
140.535 837 28.931
140.652 763 27.6225
140.768 0 1
140.884 0 1
141 0 1
141.115 0 1
141.231 0 1
141.347 0 1
141.463 0 1
141.578 0 1
141.694 0 1
144.104 0 1
144.219 0 1
144.335 0 1
144.45 0 1
144.566 0 1
144.682 0 1
144.798 0 1
144.914 0 1
145.03 0 1
145.146 1168 34.176
145.262 1299 36.0416
145.378 1307 36.1525
145.494 1361 36.8917
145.61 1363 36.9188
145.726 1254 35.4119
145.842 1251 35.3695
145.959 1137 33.7194
146.075 1055 32.4808
146.192 1038 32.218
146.308 1092 33.0454
146.425 1045 32.3265
146.541 1116 33.4066
146.658 1087 32.9697
146.774 1151 33.9264
146.891 1250 35.3553
147.008 1219 34.9142
147.125 1223 34.9714
147.241 1284 35.8329
147.358 1317 36.2905
147.475 1297 36.0139
147.592 1195 34.5688
147.709 1244 35.2704
147.826 1196 34.5832
147.943 1174 34.2637
148.06 1145 33.8378
148.177 1142 33.7935
148.294 1125 33.541
148.411 1166 34.1467
148.528 1159 34.0441
148.645 1268 35.609
148.762 1250 35.3553
148.88 1263 35.5387
148.997 1331 36.4829
149.114 1271 35.6511
149.231 1310 36.1939
149.349 1281 35.7911
149.466 1227 35.0286
149.583 1206 34.7275
149.701 1136 33.7046
149.818 1103 33.2114
149.935 994 31.5278
150.053 999 31.607
150.17 1115 33.3916
150.287 1106 33.2566
150.405 1135 33.6898
150.522 1209 34.7707
150.64 1123 33.5112
150.757 1229 35.0571
150.875 1198 34.6121
150.992 1260 35.4965
151.11 1287 35.8748
151.227 1248 35.327
151.344 1243 35.2562
151.462 1189 34.4819
151.579 1147 33.8674
151.697 1096 33.1059
151.814 1073 32.7567
151.932 1033 32.1403
152.049 1081 32.8786
152.167 1155 33.9853
152.284 1151 33.9264
152.402 1271 35.6511
152.519 1278 35.7491
152.636 1238 35.1852
152.754 1291 35.9305
152.871 1214 34.8425
152.989 1181 34.3657
153.106 1124 33.5261
153.223 1092 33.0454
153.341 1016 31.8748
153.458 983 31.3528
153.575 955 30.9031
153.693 1013 31.8277
153.81 1015 31.8591
153.927 1098 33.1361
154.044 1089 33
154.162 1124 33.5261
154.279 1142 33.7935
154.396 1185 34.4238
154.513 1188 34.4674
154.63 1217 34.8855
154.747 1180 34.3511
154.864 1098 33.1361
154.981 1132 33.6452
155.098 1124 33.5261
155.215 1076 32.8024
155.332 1089 33
155.449 1077 32.8177
155.566 1034 32.1559
155.683 1005 31.7017
155.8 1037 32.2025
155.917 990 31.4643
156.033 1040 32.249
156.15 0 1
156.267 0 1
156.383 0 1
156.5 0 1
156.617 0 1
156.733 0 1
156.85 0 1
156.966 0 1
157.082 0 1
157.199 0 1
157.315 0 1
157.431 0 1
157.547 0 1
157.664 0 1
157.78 0 1
157.896 0 1
158.012 0 1
158.128 0 1
158.244 0 1
158.359 0 1
158.475 0 1
158.591 0 1
158.706 0 1
