
6.15755 0 1
6.2731 0 1
6.3887 0 1
6.50437 0 1
6.62009 0 1
6.73587 0 1
6.8517 0 1
6.96759 0 1
7.08353 0 1
7.19952 0 1
7.31557 0 1
7.43166 0 1
7.54781 0 1
7.664 0 1
7.78024 0 1
7.89653 0 1
8.01286 0 1
8.12924 0 1
8.24567 0 1
8.36213 0 1
8.47864 0 1
8.59519 0 1
8.71178 0 1
8.82841 0 1
8.94508 0 1
9.06179 0 1
9.17853 0 1
9.29531 0 1
9.41212 0 1
9.52897 0 1
9.64584 0 1
9.76276 0 1
9.8797 0 1
9.99667 0 1
10.1137 0 1
10.2307 0 1
10.3478 0 1
10.4648 0 1
10.5819 0 1
10.6991 0 1
10.8162 0 1
10.9334 0 1
11.0506 0 1
11.1678 0 1
11.285 0 1
11.4023 0 1
11.5196 0 1
11.6369 0 1
11.7542 0 1
11.8715 0 1
11.9888 0 1
12.1062 0 1
12.2235 0 1
12.3409 0 1
12.4582 0 1
12.5756 0 1
12.693 0 1
12.8104 0 1
12.9278 0 1
13.0452 0 1
13.1626 0 1
13.28 0 1
13.3974 0 1
13.5149 0 1
13.6323 0 1
13.7497 0 1
13.8671 0 1
13.9845 0 1
14.1019 0 1
14.2193 0 1
14.3367 0 1
14.4541 0 1
14.5714 0 1
14.6888 0 1
14.8062 0 1
14.9235 0 1
15.0408 0 0
15.1581 0 0
15.2755 0 0
15.3927 0 0
15.51 0 0
15.6273 0 0
15.7445 0 0
15.8617 0 0
15.9789 0 0
16.0961 0 0
16.2132 0 0
16.3304 0 0
16.4475 0 0
16.5646 0 0
16.6816 0 0
16.7986 0 0
16.9156 0 0
17.0326 0 0
17.1496 0 0
17.2665 0 0
17.3833 0 0
17.5002 0 0
17.617 0 0
17.7338 0 0
17.8505 0 0
17.9672 0 0
18.0839 0 0
18.2005 0 0
18.3171 0 0
18.4337 0 0
18.5502 0 0
18.6666 0 0
18.7831 0 0
18.8994 0 0
19.0158 0 0
19.1321 0 0
19.2483 0 0
19.3645 0 0
19.4806 0 0
19.5967 0 0
19.7128 0 0
19.8288 0 0
19.9447 0 0
20.0606 0 1
20.1764 0 1
20.2922 0 1
20.4079 0 1
20.5236 0 1
20.6392 0 1
20.7548 0 1
20.8702 0 1
23.3078 0 1
23.4233 0 1
23.539 0 1
23.6547 0 1
23.7704 0 1
23.8862 0 1
24.0021 0 1
24.118 0 1
24.234 0 1
24.35 0 1
24.4661 2835 53.2447
24.5822 2956 54.3691
24.6984 2918 54.0185
24.8146 2782 52.7447
24.9309 2818 53.0848
25.0472 2842 53.3104
25.1636 2748 52.4214
25.28 2800 52.915
25.3965 2833 53.2259
25.513 2894 53.7959
25.6296 3073 55.4346
25.7462 3071 55.4166
25.8628 3082 55.5158
25.9795 3360 57.9655
26.0962 3288 57.3411
26.213 3466 58.8727
26.3298 3256 57.0614
26.4466 3347 57.8533
26.5635 3297 57.4195
26.6804 3146 56.0892
26.7973 3067 55.3805
26.9143 2938 54.2033
27.0313 3036 55.0999
27.1483 3095 55.6327
27.2653 3297 57.4195
27.3824 3351 57.8878
27.4996 3255 57.0526
27.6167 3265 57.1402
27.7339 3171 56.3116
27.8511 3088 55.5698
27.9683 3019 54.9454
28.0855 2893 53.7866
28.2028 2872 53.591
28.3201 2867 53.5444
28.4374 2716 52.1153
28.5547 2691 51.8748
28.6721 2647 51.449
28.7894 2764 52.5738
28.9068 2735 52.2972
29.0242 2805 52.9623
29.1416 2770 52.6308
29.259 2877 53.6377
29.3764 2912 53.963
29.4939 3118 55.8391
29.6113 3066 55.3715
29.7288 3096 55.6417
29.8463 3173 56.3294
29.9638 3161 56.2228
30.0812 3252 57.0263
30.1987 2959 54.3967
30.3162 2984 54.626
30.4337 2767 52.6023
30.5512 2920 54.037
30.6687 3023 54.9818
30.7862 3063 55.3444
30.9037 2986 54.6443
31.0212 3138 56.0179
31.1387 3121 55.8659
31.2562 3157 56.1872
31.3737 2995 54.7266
31.4912 2995 54.7266
31.6087 2944 54.2586
31.7262 2851 53.3948
31.8436 2823 53.1319
31.9611 2791 52.8299
32.0785 2683 51.7977
32.1959 2683 51.7977
32.3134 2691 51.8748
32.4308 2633 51.3128
32.5482 2699 51.9519
32.6655 2772 52.6498
32.7829 2770 52.6308
32.9002 2817 53.0754
33.0176 2981 54.5985
33.1349 2989 54.6717
33.2522 3048 55.2087
33.3694 3150 56.1249
33.4867 3157 56.1872
33.6039 3043 55.1634
33.7211 3128 55.9285
33.8383 3006 54.827
33.9554 2832 53.2165
34.0725 2731 52.259
34.1896 2845 53.3385
34.3067 2922 54.0555
34.4237 2855 53.4322
34.5407 3078 55.4797
34.6577 3023 54.9818
34.7746 3123 55.8838
34.8915 3043 55.1634
35.0084 3047 55.1996
35.1252 2980 54.5894
35.242 3025 55
35.3587 2860 53.479
35.4755 2854 53.4228
35.5921 2782 52.7447
35.7088 2720 52.1536
35.8254 2623 51.2152
35.9419 2605 51.0392
36.0584 2581 50.8035
36.1749 2669 51.6624
36.2913 2619 51.1762
36.4077 2691 51.8748
36.524 2705 52.0096
36.6403 2784 52.7636
36.7565 2970 54.4977
36.8727 2948 54.2955
36.9889 3064 55.3534
37.1049 2987 54.6535
37.221 0 1
37.3369 0 1
37.4529 0 1
37.5687 0 1
37.6845 0 1
37.8003 0 1
37.916 0 1
38.0316 0 1
38.1472 0 1
40.5851 0 1
40.7008 0 1
40.8164 0 1
40.9322 0 1
41.048 0 1
41.1639 0 1
41.2798 0 1
41.3958 0 1
41.5118 0 1
41.6279 0 1
41.744 2191 46.8081
41.8602 2365 48.6313
41.9765 2433 49.3254
42.0928 2423 49.224
42.2091 2470 49.6991
42.3255 2556 50.5569
42.4419 2566 50.6557
42.5584 2565 50.6458
42.675 2488 49.8799
42.7915 2294 47.8957
42.9081 2178 46.669
43.0248 2226 47.1805
43.1415 2396 48.949
43.2582 2337 48.3425
43.375 2504 50.04
43.4918 2551 50.5074
43.6087 2516 50.1597
43.7256 2473 49.7293
43.8425 2395 48.9387
43.9595 2375 48.734
44.0765 2320 48.1664
44.1935 2240 47.3286
44.3106 2173 46.6154
44.4277 2051 45.288
44.5448 1978 44.4747
44.6619 1960 44.2719
44.7791 1893 43.5086
44.8963 1808 42.5206
45.0136 1819 42.6497
45.1308 1830 42.7785
45.2481 1934 43.9773
45.3654 1917 43.7836
45.4827 2056 45.3431
45.6001 1934 43.9773
45.7174 2045 45.2217
45.8348 2054 45.3211
45.9522 2017 44.911
46.0697 2142 46.2817
46.1871 1941 44.0568
46.3046 1865 43.1856
46.422 1715 41.4126
46.5395 1727 41.5572
46.657 1826 42.7317
46.7745 1885 43.4166
46.892 1964 44.317
47.0096 1787 42.2729
47.1271 1989 44.5982
47.2446 1841 42.9069
47.3622 1849 43
47.4797 1910 43.7035
47.5973 1750 41.833
47.7149 1799 42.4146
47.8324 1635 40.4351
47.95 1525 39.0512
48.0675 1511 38.8716
48.1851 1469 38.3275
48.3027 1477 38.4318
48.4202 1310 36.1939
48.5378 1372 37.0405
48.6554 1430 37.8153
48.7729 1480 38.4708
48.8904 1469 38.3275
49.008 1568 39.598
49.1255 1630 40.3733
49.243 1672 40.8901
49.3605 1564 39.5474
49.478 1630 40.3733
49.5955 1606 40.0749
49.713 1582 39.7744
49.8304 1407 37.51
49.9479 1366 36.9594
50.0653 1441 37.9605
50.1827 1564 39.5474
50.3001 1620 40.2492
50.4175 1802 42.45
50.5348 1838 42.8719
50.6521 1839 42.8836
50.7694 1857 43.0929
50.8867 1888 43.4511
51.004 1933 43.9659
51.1212 1975 44.441
51.2384 1886 43.4281
51.3556 1975 44.441
51.4727 1934 43.9773
51.5899 1919 43.8064
51.707 1929 43.9204
51.824 1766 42.0238
51.9411 1772 42.0951
52.0581 1870 43.2435
52.175 1988 44.587
52.2919 2108 45.913
52.4088 2117 46.0109
52.5257 2279 47.7389
52.6425 2462 49.6185
52.7593 2426 49.2544
52.876 2385 48.8365
52.9927 2402 49.0102
53.1094 2554 50.5371
53.226 2436 49.3559
53.3426 2353 48.5077
53.4591 2260 47.5395
53.5756 2263 47.571
53.692 2299 47.9479
53.8084 2599 50.9804
53.9248 2567 50.6656
54.0411 2736 52.3068
54.1573 2811 53.0189
54.2735 0 1
54.3896 0 1
54.5057 0 1
54.6217 0 1
54.7377 0 1
54.8537 0 1
54.9695 0 1
55.0853 0 1
55.2011 0 1
55.3168 0 1
55.4324 0 1
57.824 0 1
57.9396 0 1
58.0553 0 1
58.1711 0 1
58.2869 0 1
58.4028 0 1
58.5187 0 1
58.6347 0 1
58.7508 0 1
58.8669 0 1
58.983 2793 52.8488
59.0992 3185 56.4358
59.2155 3270 57.1839
59.3318 3404 58.3438
59.4482 3361 57.9741
59.5646 3435 58.6089
59.681 3401 58.3181
59.7975 3356 57.931
59.9141 3185 56.4358
60.0306 3069 55.3986
60.1473 3007 54.8361
60.2639 2958 54.3875
60.3807 2770 52.6308
60.4974 2618 51.1664
60.6142 2610 51.0882
60.731 2675 51.7204
60.8479 2544 50.4381
60.9648 2677 51.7397
61.0818 2862 53.4977
61.1987 3018 54.9363
61.3158 2991 54.69
61.4328 2964 54.4426
61.5499 3092 55.6058
61.667 3005 54.8179
61.7841 2932 54.1479
61.9013 2715 52.1057
62.0185 2653 51.5073
62.1357 2630 51.2835
62.253 2593 50.9215
62.3702 2699 51.9519
62.4875 2943 54.2494
62.6049 2971 54.5069
62.7222 3060 55.3173
62.8396 3083 55.5248
62.9569 3170 56.3028
63.0743 3148 56.107
63.1918 3033 55.0727
63.3092 2985 54.6352
63.4267 2973 54.5252
63.5441 2832 53.2165
63.6616 2770 52.6308
63.7791 2679 51.7591
63.8966 2565 50.6458
64.0142 2397 48.9592
64.1317 2298 47.9375
64.2492 2265 47.592
64.3668 2320 48.1664
64.4843 2402 49.0102
64.6019 2536 50.3587
64.7195 2683 51.7977
64.837 2795 52.8678
64.9546 2816 53.066
65.0722 2728 52.2303
65.1898 2803 52.9434
65.3074 2670 51.672
65.4249 2539 50.3885
65.5425 2354 48.518
65.6601 2333 48.3011
65.7777 2228 47.2017
65.8952 2395 48.9387
66.0128 2625 51.2348
66.1304 2608 51.0686
66.2479 2821 53.1131
66.3655 2845 53.3385
66.483 2969 54.4885
66.6005 2896 53.8145
66.718 3039 55.1271
66.8355 2896 53.8145
66.953 2899 53.8424
67.0705 2843 53.3198
67.1879 2636 51.342
67.3054 2689 51.8556
67.4228 2489 49.8899
67.5402 2402 49.0102
67.6576 2188 46.7761
67.7749 2160 46.4758
67.8923 2251 47.4447
68.0096 2307 48.0312
68.1269 2580 50.7937
68.2442 2793 52.8488
68.3614 3049 55.2178
68.4787 3120 55.857
68.5958 3238 56.9034
68.713 3211 56.6657
68.8302 3317 57.5934
68.9473 3476 58.9576
69.0643 3342 57.81
69.1814 3352 57.8965
69.2984 3227 56.8067
69.4154 3373 58.0775
69.5323 3632 60.2661
69.6492 4024 63.435
69.7661 4291 65.5057
69.8829 4741 68.8549
69.9997 5018 70.8378
70.1165 5161 71.8401
70.2332 5453 73.8444
70.3499 5454 73.8512
70.4665 5580 74.6994
70.5831 5707 75.5447
70.6996 5747 75.809
70.8161 5844 76.4461
70.9326 5694 75.4586
71.049 5508 74.2159
71.1653 5340 73.0753
71.2817 5070 71.2039
71.3979 4846 69.6132
71.5141 4966 70.4699
71.6303 5221 72.2565
71.7464 4772 69.0797
71.8624 0 1
71.9784 0 1
72.0944 0 1
72.2102 0 1
72.3261 0 1
72.4418 0 1
72.5575 0 1
72.6732 0 1
75.1054 0 1
75.2209 0 1
75.3365 0 1
75.4521 0 1
75.5678 0 1
75.6835 0 1
75.7993 0 1
75.9151 0 1
76.031 0 1
76.147 5979 77.324
76.263 6441 80.2558
76.3791 6510 80.6846
76.4952 5982 77.3434
76.6113 5607 74.8799
76.7276 5111 71.4913
76.8438 5225 72.2842
76.9601 5213 72.2011
77.0765 5250 72.4569
77.1929 5598 74.8198
77.3093 5676 75.3392
77.4258 5669 75.2928
77.5423 5508 74.2159
77.6589 5486 74.0675
77.7755 5390 73.4166
77.8921 5067 71.1829
78.0088 4674 68.3667
78.1256 4244 65.146
78.2423 3632 60.2661
78.3591 3389 58.2151
78.4759 3198 56.5509
78.5928 3507 59.2199
78.7097 3802 61.6604
78.8266 3841 61.9758
78.9436 3917 62.5859
79.0606 3875 62.2495
79.1776 3910 62.53
79.2946 3803 61.6685
79.4117 3799 61.636
79.5288 3741 61.1637
79.6459 3465 58.8643
79.7631 3191 56.4889
79.8802 3068 55.3895
79.9974 2864 53.5164
80.1147 2722 52.1728
80.2319 2548 50.4777
80.3491 2347 48.4458
80.4664 2207 46.9787
80.5837 2284 47.7912
80.701 2387 48.8569
80.8183 2545 50.448
80.9357 2749 52.4309
81.053 2820 53.1037
81.1704 2780 52.7257
81.2877 2769 52.6213
81.4051 2834 53.2353
81.5225 2859 53.4696
81.6399 2604 51.0294
81.7573 2427 49.2646
81.8747 2161 46.4866
81.9922 2138 46.2385
82.1096 2142 46.2817
82.227 2309 48.0521
82.3444 2481 49.8096
82.4619 2708 52.0384
82.5793 2796 52.8772
82.6967 2835 53.2447
82.8142 2944 54.2586
82.9316 2935 54.1756
83.049 3014 54.8999
83.1664 2953 54.3415
83.2838 2857 53.4509
83.4012 2894 53.7959
83.5186 2880 53.6656
83.636 2738 52.3259
83.7534 2687 51.8363
83.8708 2458 49.5782
83.9881 2338 48.3529
84.1055 2393 48.9183
84.2228 2675 51.7204
84.3401 2786 52.7826
84.4575 2972 54.5161
84.5747 3360 57.9655
84.692 3500 59.1608
84.8093 3773 61.4248
84.9265 3530 59.4138
85.0437 3655 60.4566
85.1609 3489 59.0678
85.2781 3449 58.7282
85.3952 3172 56.3205
85.5123 3115 55.8122
85.6294 3075 55.4527
85.7465 3245 56.9649
85.8636 3617 60.1415
85.9806 3896 62.4179
86.0976 4208 64.8691
86.2145 4471 66.8655
86.3315 4546 67.424
86.4484 4721 68.7095
86.5652 4844 69.5989
86.682 4717 68.6804
86.7988 4883 69.8785
86.9156 4730 68.775
87.0323 4593 67.7717
87.149 4587 67.7274
87.2657 4393 66.2797
87.3823 4159 64.4903
87.4988 3779 61.4736
87.6154 3855 62.0886
87.7318 3942 62.7853
87.8483 4275 65.3835
87.9647 4538 67.3647
88.081 4778 69.1231
88.1973 5068 71.1899
88.3136 5085 71.3092
88.4298 5148 71.7496
88.546 5017 70.8308
88.6621 4944 70.3136
88.7781 4545 67.4166
88.8942 0 1
89.0101 0 1
89.126 0 1
89.2419 0 1
89.3577 0 1
89.4734 0 1
89.5891 0 1
89.7047 0 1
89.8203 0 1
89.9358 0 1
92.3269 0 1
92.4424 0 1
92.558 0 1
92.6736 0 1
92.7893 0 1
92.905 0 1
93.0208 0 1
93.1366 0 1
93.2525 0 1
93.3685 0 1
93.4845 0 1
93.6005 3986 63.1348
93.7167 3882 62.3057
93.8328 3853 62.0725
93.949 3839 61.9597
94.0653 3867 62.1852
94.1816 3539 59.4895
94.2979 3280 57.2713
94.4143 3045 55.1815
94.5307 2943 54.2494
94.6472 2773 52.6593
94.7637 2797 52.8867
94.8803 2891 53.768
94.9969 3115 55.8122
95.1135 3358 57.9483
95.2302 3300 57.4456
95.3469 3490 59.0762
95.4637 3417 58.4551
95.5805 3463 58.8473
95.6973 3512 59.2621
95.8142 3542 59.5147
95.9311 3386 58.1893
96.048 3406 58.3609
96.1649 3266 57.1489
96.2819 3049 55.2178
96.3989 3029 55.0364
96.516 2769 52.6213
96.633 2571 50.705
96.7501 2551 50.5074
96.8673 2633 51.3128
96.9844 2618 51.1664
97.1016 2716 52.1153
97.2188 2986 54.6443
97.336 3082 55.5158
97.4532 3218 56.7274
97.5704 3240 56.921
97.6877 3005 54.8179
97.805 2906 53.9073
97.9223 2739 52.3355
98.0396 2652 51.4976
98.1569 2492 49.9199
98.2743 2378 48.7647
98.3916 2396 48.949
98.509 2669 51.6624
98.6264 2839 53.2823
98.7438 3107 55.7405
98.8612 3109 55.7584
98.9786 3295 57.4021
99.096 3417 58.4551
99.2134 3247 56.9825
99.3308 3375 58.0948
99.4482 3382 58.155
99.5656 3404 58.3438
99.6831 3319 57.6108
99.8005 3044 55.1725
99.9179 2999 54.7631
100.035 2810 53.0094
100.153 2690 51.8652
100.27 2562 50.6162
100.388 2560 50.5964
100.505 2645 51.4296
100.622 2890 53.7587
100.74 3046 55.1906
100.857 3257 57.0701
100.975 3219 56.7362
101.092 3204 56.6039
101.209 3208 56.6392
101.327 3181 56.4004
101.444 2989 54.6717
101.561 2778 52.7067
101.679 2641 51.3907
101.796 2514 50.1398
101.913 2442 49.4166
102.03 2648 51.4587
102.148 2824 53.1413
102.265 3227 56.8067
102.382 3104 55.7136
102.499 3334 57.7408
102.616 3479 58.983
102.733 3581 59.8415
102.851 3616 60.1332
102.968 3611 60.0916
103.085 3495 59.1185
103.202 3395 58.2666
103.319 3376 58.1034
103.436 3237 56.8946
103.552 3257 57.0701
103.669 3046 55.1906
103.786 2826 53.1601
103.903 2779 52.7162
104.02 2848 53.3667
104.137 3069 55.3986
104.253 3267 57.1577
104.37 3210 56.6569
104.487 3441 58.66
104.603 3562 59.6825
104.72 3432 58.5833
104.836 3334 57.7408
104.953 3273 57.2101
105.069 2941 54.231
105.186 2904 53.8888
105.302 2674 51.7107
105.418 2773 52.6593
105.535 2953 54.3415
105.651 3201 56.5774
105.767 3531 59.4222
105.883 3529 59.4054
105.999 3672 60.597
106.115 0 1
106.231 0 1
106.347 0 1
106.463 0 1
106.579 0 1
106.694 0 1
106.81 0 1
106.926 0 1
107.041 0 1
107.157 0 1
109.576 0 1
109.692 0 1
109.807 0 1
109.923 0 1
110.039 0 1
110.155 0 1
110.27 0 1
110.386 0 1
110.502 0 1
110.618 2840 53.2917
110.735 3183 56.4181
110.851 3251 57.0175
110.967 3501 59.1692
111.083 3706 60.8769
111.199 3618 60.1498
111.316 3610 60.0833
111.432 3743 61.1801
111.549 3698 60.8112
111.665 3599 59.9917
111.782 3625 60.208
111.898 3434 58.6003
112.015 3327 57.6802
112.132 3171 56.3116
112.248 3123 55.8838
112.365 2850 53.3854
112.482 2907 53.9166
112.599 2874 53.6097
112.716 3244 56.9561
112.832 3321 57.6281
112.949 3384 58.1722
113.066 3331 57.7148
113.183 3282 57.2887
113.3 3351 57.8878
113.417 3214 56.6922
113.534 2907 53.9166
113.652 2885 53.7122
113.769 2725 52.2015
113.886 2624 51.225
114.003 2618 51.1664
114.12 2766 52.5928
114.238 3095 55.6327
114.355 3227 56.8067
114.472 3571 59.7578
114.589 3257 57.0701
114.707 3475 58.9491
114.824 3414 58.4294
114.942 3599 59.9917
115.059 3677 60.6383
115.176 3659 60.4897
115.294 3510 59.2453
115.411 3471 58.9152
115.529 3272 57.2014
115.646 3320 57.6194
115.764 3111 55.7763
115.881 2930 54.1295
115.999 2976 54.5527
116.116 3027 55.0182
116.234 3256 57.0614
116.351 3297 57.4195
116.469 3420 58.4808
116.586 3476 58.9576
116.704 3475 58.9491
116.821 3459 58.8133
116.939 3357 57.9396
117.056 3170 56.3028
117.174 2942 54.2402
117.291 2931 54.1387
117.409 2887 53.7308
117.526 2774 52.6688
117.644 2880 53.6656
117.761 3019 54.9454
117.879 3306 57.4978
117.996 3317 57.5934
118.114 3633 60.2744
118.231 3682 60.6795
118.349 3738 61.1392
118.466 3802 61.6604
118.584 3851 62.0564
118.701 3885 62.3298
118.819 3852 62.0645
118.936 3681 60.6712
119.053 3514 59.279
119.171 3498 59.1439
119.288 3260 57.0964
119.405 3112 55.7853
119.523 3135 55.9911
119.64 3081 55.5068
119.757 3196 56.5332
119.875 3321 57.6281
119.992 3296 57.4108
120.109 3588 59.8999
120.226 3335 57.7495
120.343 3579 59.8247
120.46 3506 59.2115
120.578 3313 57.5587
120.695 3125 55.9017
120.812 3025 55
120.929 2956 54.3691
121.046 2911 53.9537
121.163 2839 53.2823
121.279 2844 53.3292
121.396 3053 55.254
121.513 3288 57.3411
121.63 3438 58.6345
121.747 3618 60.1498
121.863 3777 61.4573
121.98 3587 59.8916
122.097 3836 61.9355
122.213 3750 61.2372
122.33 3767 61.3759
122.446 3844 62
122.563 3661 60.5062
122.679 3662 60.5145
122.795 3425 58.5235
122.912 3479 58.983
123.028 3442 58.6686
123.144 3247 56.9825
123.26 3160 56.2139
123.377 0 1
123.493 0 1
123.609 0 1
123.725 0 1
123.84 0 1
123.956 0 1
124.072 0 1
124.188 0 1
124.303 0 1
124.419 0 1
126.852 0 1
126.968 0 1
127.083 0 1
127.199 0 1
127.315 0 1
127.431 0 1
127.547 0 1
127.663 0 1
127.779 0 1
127.895 0 1
128.011 0 1
128.127 0 1
128.243 0 1
128.359 4500 67.082
128.476 4429 66.5507
128.592 4407 66.3852
128.708 4617 67.9485
128.825 4794 69.2387
128.941 5031 70.9295
129.058 4998 70.6965
129.174 4999 70.7036
129.291 5002 70.7248
129.408 5056 71.1056
129.524 4729 68.7677
129.641 4583 67.6979
129.758 4303 65.5973
129.875 4182 64.6684
129.992 4112 64.1249
130.108 3982 63.1031
130.225 4107 64.0859
130.342 4322 65.7419
130.459 4422 66.4981
130.576 4779 69.1303
130.693 4876 69.8284
130.81 4793 69.2315
130.928 4990 70.6399
131.045 5009 70.7743
131.162 4943 70.3065
131.279 5051 71.0704
131.396 5096 71.3863
131.513 5137 71.6729
131.631 4867 69.7639
131.748 4721 68.7095
131.865 4664 68.2935
131.983 4579 67.6683
132.1 4482 66.9477
132.217 4734 68.8041
132.335 4851 69.6491
132.452 4958 70.4131
132.57 4970 70.4982
132.687 4840 69.5701
132.804 5059 71.1266
132.922 4914 70.0999
133.039 4759 68.9855
133.157 4394 66.2873
133.274 4259 65.261
133.392 4167 64.5523
133.509 3952 62.8649
133.627 3867 62.1852
133.744 4016 63.3719
133.862 4159 64.4903
133.979 4412 66.4229
134.097 4538 67.3647
134.214 4711 68.6367
134.332 4686 68.4544
134.449 4750 68.9202
134.567 4840 69.5701
134.684 4735 68.8113
134.802 4926 70.1855
134.919 4956 70.3989
135.037 4896 69.9714
135.154 4809 69.347
135.272 4739 68.8404
135.389 4495 67.0448
135.507 4423 66.5056
135.624 4434 66.5883
135.742 4735 68.8113
135.859 4632 68.0588
135.977 4921 70.1498
136.094 4910 70.0714
136.211 4896 69.9714
136.329 4766 69.0362
136.446 4916 70.1142
136.564 4714 68.6586
136.681 4446 66.6783
136.798 4404 66.3626
136.915 4362 66.0454
137.033 4025 63.4429
137.15 4020 63.4035
137.267 4074 63.8279
137.384 4023 63.4271
137.502 4214 64.9153
137.619 4401 66.34
137.736 4399 66.325
137.853 4401 66.34
137.97 4621 67.9779
138.087 4586 67.72
138.204 4696 68.5274
138.321 4806 69.3253
138.438 4913 70.0928
138.555 4865 69.7496
138.672 4973 70.5195
138.788 4819 69.419
138.905 4792 69.2243
139.022 4607 67.8749
139.139 4500 67.082
139.255 4625 68.0074
139.372 4648 68.1762
139.488 4880 69.857
139.605 5054 71.0915
139.721 5033 70.9436
139.838 5116 71.5262
139.954 4914 70.0999
140.071 4819 69.419
140.187 4781 69.1448
140.303 4662 68.2788
140.419 4512 67.1714
140.535 4425 66.5207
140.652 4198 64.792
140.768 0 1
140.884 0 1
141 0 1
141.115 0 1
141.231 0 1
141.347 0 1
141.463 0 1
141.578 0 1
141.694 0 1
144.104 0 1
144.219 0 1
144.335 0 1
144.45 0 1
144.566 0 1
144.682 0 1
144.798 0 1
144.914 0 1
145.03 0 1
145.146 5229 72.3118
145.262 5122 71.5681
145.378 4907 70.05
145.494 4939 70.278
145.61 4668 68.3228
145.726 4599 67.8159
145.842 4639 68.1102
145.959 4414 66.4379
146.075 4541 67.3869
146.192 4886 69.8999
146.308 4986 70.6116
146.425 5053 71.0845
146.541 5145 71.7287
146.658 5175 71.9375
146.774 5163 71.854
146.891 5378 73.3348
147.008 5417 73.6003
147.125 5621 74.9733
147.241 5452 73.8377
147.358 5479 74.0203
147.475 5381 73.3553
147.592 5142 71.7077
147.709 5219 72.2426
147.826 5044 71.0211
147.943 5149 71.7565
148.06 5262 72.5396
148.177 5299 72.7942
148.294 5324 72.9657
148.411 5466 73.9324
148.528 5416 73.5935
148.645 5396 73.4575
148.762 5225 72.2842
148.88 4995 70.6753
148.997 4681 68.4178
149.114 4824 69.455
149.231 4472 66.873
149.349 4595 67.7864
149.466 4254 65.2227
149.583 4342 65.8939
149.701 4400 66.3325
149.818 4337 65.8559
149.935 4499 67.0746
150.053 4560 67.5278
150.17 4679 68.4032
150.287 4868 69.7711
150.405 4947 70.3349
150.522 4845 69.606
150.64 5062 71.1477
150.757 5161 71.8401
150.875 5041 71
150.992 5079 71.2671
151.11 4926 70.1855
151.227 4823 69.4478
151.344 4749 68.913
151.462 4736 68.8186
151.579 4935 70.2496
151.697 5001 70.7177
151.814 5106 71.4563
151.932 5240 72.3878
152.049 5159 71.8262
152.167 5244 72.4155
152.284 5079 71.2671
152.402 4994 70.6682
152.519 4926 70.1855
152.636 4715 68.6659
152.754 4628 68.0294
152.871 4673 68.3593
152.989 4437 66.6108
153.106 4242 65.1306
153.223 4333 65.8255
153.341 4406 66.3777
153.458 4518 67.2161
153.575 4550 67.4537
153.693 4525 67.2681
153.81 4744 68.8767
153.927 4943 70.3065
154.044 4946 70.3278
154.162 5126 71.5961
154.279 5075 71.239
154.396 5295 72.7668
154.513 5235 72.3533
154.63 5277 72.643
154.747 5237 72.3671
154.864 5170 71.9027
154.981 5016 70.8237
155.098 4955 70.3918
155.215 5143 71.7147
155.332 5317 72.9178
155.449 5309 72.8629
155.566 5209 72.1734
155.683 5339 73.0685
155.8 5369 73.2735
155.917 5266 72.5672
156.033 5236 72.3602
156.15 0 1
156.267 0 1
156.383 0 1
156.5 0 1
156.617 0 1
156.733 0 1
156.85 0 1
156.966 0 1
157.082 0 1
157.199 0 1
157.315 0 1
157.431 0 1
157.547 0 1
157.664 0 1
157.78 0 1
157.896 0 1
158.012 0 1
158.128 0 1
158.244 0 1
158.359 0 1
158.475 0 1
158.591 0 1
158.706 0 1
