
6.15755 0 1
6.2731 0 1
6.3887 0 1
6.50437 0 1
6.62009 0 1
6.73587 0 1
6.8517 0 1
6.96759 0 1
7.08353 0 1
7.19952 0 1
7.31557 0 1
7.43166 0 1
7.54781 0 1
7.664 0 1
7.78024 0 1
7.89653 0 1
8.01286 0 1
8.12924 0 1
8.24567 0 1
8.36213 0 1
8.47864 0 1
8.59519 0 1
8.71178 0 1
8.82841 0 1
8.94508 0 1
9.06179 0 1
9.17853 0 1
9.29531 0 1
9.41212 0 1
9.52897 0 1
9.64584 0 1
9.76276 0 1
9.8797 0 1
9.99667 0 1
10.1137 0 1
10.2307 0 1
10.3478 0 1
10.4648 0 1
10.5819 0 1
10.6991 0 1
10.8162 0 1
10.9334 0 1
11.0506 0 1
11.1678 0 1
11.285 0 1
11.4023 0 1
11.5196 0 1
11.6369 0 1
11.7542 0 1
11.8715 0 1
11.9888 0 1
12.1062 0 1
12.2235 0 1
12.3409 0 1
12.4582 0 1
12.5756 0 1
12.693 0 1
12.8104 0 1
12.9278 0 1
13.0452 0 1
13.1626 0 1
13.28 0 1
13.3974 0 1
13.5149 0 1
13.6323 0 1
13.7497 0 1
13.8671 0 1
13.9845 0 1
14.1019 0 1
14.2193 0 1
14.3367 0 1
14.4541 0 1
14.5714 0 1
14.6888 0 1
14.8062 0 1
14.9235 0 1
15.0408 1294 35.9722
15.1581 1324 36.3868
15.2755 1413 37.5899
15.3927 1414 37.6032
15.51 1389 37.2693
15.6273 1410 37.55
15.7445 1405 37.4833
15.8617 1377 37.108
15.9789 1441 37.9605
16.0961 1419 37.6696
16.2132 1421 37.6962
16.3304 1432 37.8418
16.4475 1519 38.9744
16.5646 1485 38.5357
16.6816 1562 39.5221
16.7986 1654 40.6694
16.9156 1578 39.724
17.0326 1705 41.2916
17.1496 1612 40.1497
17.2665 1656 40.694
17.3833 1681 41
17.5002 1569 39.6106
17.617 1522 39.0128
17.7338 1476 38.4187
17.8505 1438 37.921
17.9672 1478 38.4448
18.0839 1480 38.4708
18.2005 1431 37.8286
18.3171 1550 39.37
18.4337 1545 39.3065
18.5502 1559 39.4842
18.6666 1658 40.7185
18.7831 1603 40.0375
18.8994 1574 39.6737
19.0158 1633 40.4104
19.1321 1605 40.0625
19.2483 1498 38.704
19.3645 1504 38.7814
19.4806 1316 36.2767
19.5967 1286 35.8608
19.7128 1153 33.9559
19.8288 1061 32.573
19.9447 963 31.0322
20.0606 0 1
20.1764 0 1
20.2922 0 1
20.4079 0 1
20.5236 0 1
20.6392 0 1
20.7548 0 1
20.8702 0 1
23.3078 0 1
23.4233 0 1
23.539 0 1
23.6547 0 1
23.7704 0 1
23.8862 0 1
24.0021 0 1
24.118 0 1
24.234 0 1
24.35 0 1
24.4661 623 24.96
24.5822 806 28.3901
24.6984 901 30.0167
24.8146 916 30.2655
24.9309 1044 32.311
25.0472 1145 33.8378
25.1636 1250 35.3553
25.28 1343 36.647
25.3965 1530 39.1152
25.513 1607 40.0874
25.6296 1678 40.9634
25.7462 1722 41.497
25.8628 1789 42.2966
25.9795 1788 42.2847
26.0962 1731 41.6053
26.213 1722 41.497
26.3298 1642 40.5216
26.4466 1565 39.5601
26.5635 1510 38.8587
26.6804 1587 39.8372
26.7973 1505 38.7943
26.9143 1604 40.05
27.0313 1522 39.0128
27.1483 1629 40.3609
27.2653 1675 40.9268
27.3824 1670 40.8656
27.4996 1726 41.5452
27.6167 1700 41.2311
27.7339 1597 39.9625
27.8511 1527 39.0768
27.9683 1519 38.9744
28.0855 1553 39.4081
28.2028 1522 39.0128
28.3201 1460 38.2099
28.4374 1419 37.6696
28.5547 1427 37.7757
28.6721 1495 38.6652
28.7894 1539 39.2301
28.9068 1586 39.8246
29.0242 1679 40.9756
29.1416 1699 41.2189
29.259 1712 41.3763
29.3764 1751 41.845
29.4939 1705 41.2916
29.6113 1756 41.9047
29.7288 1577 39.7115
29.8463 1508 38.833
29.9638 1503 38.7685
30.0812 1414 37.6032
30.1987 1486 38.5487
30.3162 1638 40.4722
30.4337 1479 38.4578
30.5512 1590 39.8748
30.6687 1567 39.5854
30.7862 1619 40.2368
30.9037 1635 40.4351
31.0212 1595 39.9375
31.1387 1633 40.4104
31.2562 1607 40.0874
31.3737 1621 40.2616
31.4912 1546 39.3192
31.6087 1565 39.5601
31.7262 1498 38.704
31.8436 1372 37.0405
31.9611 1332 36.4966
32.0785 1420 37.6829
32.1959 1478 38.4448
32.3134 1477 38.4318
32.4308 1546 39.3192
32.5482 1608 40.0999
32.6655 1650 40.6202
32.7829 1679 40.9756
32.9002 1671 40.8779
33.0176 1681 41
33.1349 1570 39.6232
33.2522 1549 39.3573
33.3694 1611 40.1373
33.4867 1449 38.0657
33.6039 1470 38.3406
33.7211 1397 37.3765
33.8383 1339 36.5923
33.9554 1476 38.4187
34.0725 1419 37.6696
34.1896 1478 38.4448
34.3067 1550 39.37
34.4237 1580 39.7492
34.5407 1551 39.3827
34.6577 1576 39.6989
34.7746 1567 39.5854
34.8915 1563 39.5348
35.0084 1522 39.0128
35.1252 1442 37.9737
35.242 1459 38.1969
35.3587 1475 38.4057
35.4755 1397 37.3765
35.5921 1297 36.0139
35.7088 1311 36.2077
35.8254 1321 36.3456
35.9419 1346 36.6879
36.0584 1415 37.6165
36.1749 1415 37.6165
36.2913 1473 38.3797
36.4077 1398 37.3898
36.524 1385 37.2156
36.6403 1315 36.2629
36.7565 1316 36.2767
36.8727 1270 35.6371
36.9889 1180 34.3511
37.1049 1004 31.686
37.221 0 1
37.3369 0 1
37.4529 0 1
37.5687 0 1
37.6845 0 1
37.8003 0 1
37.916 0 1
38.0316 0 1
38.1472 0 1
40.5851 0 1
40.7008 0 1
40.8164 0 1
40.9322 0 1
41.048 0 1
41.1639 0 1
41.2798 0 1
41.3958 0 1
41.5118 0 1
41.6279 0 1
41.744 740 27.2029
41.8602 822 28.6705
41.9765 943 30.7083
42.0928 978 31.273
42.2091 923 30.3809
42.3255 887 29.7825
42.4419 891 29.8496
42.5584 914 30.2324
42.675 1001 31.6386
42.7915 1126 33.5559
42.9081 1167 34.1614
43.0248 1175 34.2783
43.1415 1184 34.4093
43.2582 1248 35.327
43.375 1271 35.6511
43.4918 1288 35.8887
43.6087 1251 35.3695
43.7256 1299 36.0416
43.8425 1270 35.6371
43.9595 1229 35.0571
44.0765 1230 35.0714
44.1935 1215 34.8569
44.3106 1198 34.6121
44.4277 1096 33.1059
44.5448 1098 33.1361
44.6619 1065 32.6343
44.7791 1122 33.4963
44.8963 1184 34.4093
45.0136 1279 35.7631
45.1308 1313 36.2353
45.2481 1269 35.623
45.3654 1334 36.524
45.4827 1337 36.565
45.6001 1292 35.9444
45.7174 1257 35.4542
45.8348 1194 34.5543
45.9522 1157 34.0147
46.0697 1075 32.7872
46.1871 1072 32.7414
46.3046 1111 33.3317
46.422 1133 33.6601
46.5395 1275 35.7071
46.657 1234 35.1283
46.7745 1275 35.7071
46.892 1349 36.7287
47.0096 1345 36.6742
47.1271 1313 36.2353
47.2446 1314 36.2491
47.3622 1337 36.565
47.4797 1246 35.2987
47.5973 1319 36.318
47.7149 1342 36.6333
47.8324 1177 34.3074
47.95 1131 33.6303
48.0675 1128 33.5857
48.1851 1100 33.1662
48.3027 1195 34.5688
48.4202 1231 35.0856
48.5378 1246 35.2987
48.6554 1399 37.4032
48.7729 1392 37.3095
48.8904 1396 37.3631
49.008 1384 37.2022
49.1255 1483 38.5097
49.243 1234 35.1283
49.3605 1232 35.0999
49.478 1119 33.4515
49.5955 1076 32.8024
49.713 1002 31.6544
49.8304 1087 32.9697
49.9479 1164 34.1174
50.0653 1284 35.8329
50.1827 1282 35.805
50.3001 1308 36.1663
50.4175 1362 36.9053
50.5348 1350 36.7423
50.6521 1373 37.054
50.7694 1443 37.9868
50.8867 1438 37.921
51.004 1429 37.8021
51.1212 1446 38.0263
51.2384 1432 37.8418
51.3556 1367 36.973
51.4727 1290 35.9166
51.5899 1209 34.7707
51.707 1286 35.8608
51.824 1361 36.8917
51.9411 1452 38.1051
52.0581 1574 39.6737
52.175 1705 41.2916
52.2919 1686 41.0609
52.4088 1766 42.0238
52.5257 1776 42.1426
52.6425 1797 42.391
52.7593 1856 43.0813
52.876 1721 41.4849
52.9927 1712 41.3763
53.1094 1527 39.0768
53.226 1504 38.7814
53.3426 1476 38.4187
53.4591 1466 38.2884
53.5756 1506 38.8072
53.692 1453 38.1182
53.8084 1362 36.9053
53.9248 1427 37.7757
54.0411 1284 35.8329
54.1573 1273 35.6791
54.2735 0 1
54.3896 0 1
54.5057 0 1
54.6217 0 1
54.7377 0 1
54.8537 0 1
54.9695 0 1
55.0853 0 1
55.2011 0 1
55.3168 0 1
55.4324 0 1
57.824 0 1
57.9396 0 1
58.0553 0 1
58.1711 0 1
58.2869 0 1
58.4028 0 1
58.5187 0 1
58.6347 0 1
58.7508 0 1
58.8669 0 1
58.983 1018 31.9061
59.0992 1163 34.1028
59.2155 1213 34.8281
59.3318 1360 36.8782
59.4482 1487 38.5616
59.5646 1484 38.5227
59.681 1479 38.4578
59.7975 1587 39.8372
59.9141 1449 38.0657
60.0306 1463 38.2492
60.1473 1439 37.9342
60.2639 1369 37
60.3807 1425 37.7492
60.4974 1440 37.9473
60.6142 1523 39.0256
60.731 1592 39.8999
60.8479 1709 41.3401
60.9648 1616 40.1995
61.0818 1655 40.6817
61.1987 1701 41.2432
61.3158 1724 41.5211
61.4328 1627 40.3361
61.5499 1497 38.6911
61.667 1407 37.51
61.7841 1294 35.9722
61.9013 1292 35.9444
62.0185 1336 36.5513
62.1357 1422 37.7094
62.253 1484 38.5227
62.3702 1505 38.7943
62.4875 1468 38.3145
62.6049 1623 40.2865
62.7222 1650 40.6202
62.8396 1660 40.7431
62.9569 1657 40.7063
63.0743 1730 41.5933
63.1918 1671 40.8779
63.3092 1607 40.0874
63.4267 1541 39.2556
63.5441 1561 39.5095
63.6616 1461 38.223
63.7791 1386 37.229
63.8966 1362 36.9053
64.0142 1370 37.0135
64.1317 1433 37.855
64.2492 1466 38.2884
64.3668 1705 41.2916
64.4843 1682 41.0122
64.6019 1654 40.6694
64.7195 1669 40.8534
64.837 1658 40.7185
64.9546 1642 40.5216
65.0722 1502 38.7556
65.1898 1425 37.7492
65.3074 1358 36.8511
65.4249 1271 35.6511
65.5425 1244 35.2704
65.6601 1344 36.6606
65.7777 1304 36.1109
65.8952 1489 38.5876
66.0128 1541 39.2556
66.1304 1572 39.6485
66.2479 1684 41.0366
66.3655 1664 40.7922
66.483 1636 40.4475
66.6005 1615 40.1871
66.718 1602 40.025
66.8355 1631 40.3856
66.953 1529 39.1024
67.0705 1544 39.2938
67.1879 1518 38.9615
67.3054 1389 37.2693
67.4228 1358 36.8511
67.5402 1317 36.2905
67.6576 1304 36.1109
67.7749 1408 37.5233
67.8923 1399 37.4032
68.0096 1571 39.6358
68.1269 1669 40.8534
68.2442 1558 39.4715
68.3614 1585 39.8121
68.4787 1620 40.2492
68.5958 1630 40.3733
68.713 1492 38.6264
68.8302 1390 37.2827
68.9473 1360 36.8782
69.0643 1225 35
69.1814 1221 34.9428
69.2984 1204 34.6987
69.4154 1263 35.5387
69.5323 1419 37.6696
69.6492 1465 38.2753
69.7661 1488 38.5746
69.8829 1483 38.5097
69.9997 1488 38.5746
70.1165 1436 37.8946
70.2332 1460 38.2099
70.3499 1377 37.108
70.4665 1315 36.2629
70.5831 1279 35.7631
70.6996 1186 34.4384
70.8161 1134 33.6749
70.9326 1021 31.9531
71.049 845 29.0689
71.1653 795 28.1957
71.2817 647 25.4362
71.3979 620 24.8998
71.5141 605 24.5967
71.6303 567 23.8118
71.7464 538 23.1948
71.8624 0 1
71.9784 0 1
72.0944 0 1
72.2102 0 1
72.3261 0 1
72.4418 0 1
72.5575 0 1
72.6732 0 1
75.1054 0 1
75.2209 0 1
75.3365 0 1
75.4521 0 1
75.5678 0 1
75.6835 0 1
75.7993 0 1
75.9151 0 1
76.031 0 1
76.147 974 31.209
76.263 982 31.3369
76.3791 1042 32.28
76.4952 1030 32.0936
76.6113 1074 32.7719
76.7276 1092 33.0454
76.8438 1273 35.6791
76.9601 1322 36.3593
77.0765 1331 36.4829
77.1929 1413 37.5899
77.3093 1424 37.7359
77.4258 1408 37.5233
77.5423 1379 37.1349
77.6589 1373 37.054
77.7755 1207 34.7419
77.8921 1167 34.1614
78.0088 1115 33.3916
78.1256 1024 32
78.2423 995 31.5436
78.3591 1019 31.9218
78.4759 1189 34.4819
78.5928 1166 34.1467
78.7097 1223 34.9714
78.8266 1399 37.4032
78.9436 1290 35.9166
79.0606 1405 37.4833
79.1776 1473 38.3797
79.2946 1392 37.3095
79.4117 1439 37.9342
79.5288 1431 37.8286
79.6459 1433 37.855
79.7631 1377 37.108
79.8802 1292 35.9444
79.9974 1194 34.5543
80.1147 1183 34.3948
80.2319 1123 33.5112
80.3491 1165 34.1321
80.4664 1155 33.9853
80.5837 1357 36.8375
80.701 1331 36.4829
80.8183 1461 38.223
80.9357 1431 37.8286
81.053 1450 38.0789
81.1704 1397 37.3765
81.2877 1492 38.6264
81.4051 1366 36.9594
81.5225 1259 35.4824
81.6399 1156 34
81.7573 1099 33.1512
81.8747 1007 31.7333
81.9922 989 31.4484
82.1096 1164 34.1174
82.227 1253 35.3977
82.3444 1320 36.3318
82.4619 1411 37.5633
82.5793 1432 37.8418
82.6967 1440 37.9473
82.8142 1435 37.8814
82.9316 1480 38.4708
83.049 1428 37.7889
83.1664 1501 38.7427
83.2838 1413 37.5899
83.4012 1430 37.8153
83.5186 1391 37.2961
83.636 1318 36.3043
83.7534 1275 35.7071
83.8708 1200 34.641
83.9881 1127 33.5708
84.1055 1122 33.4963
84.2228 1311 36.2077
84.3401 1351 36.756
84.4575 1421 37.6962
84.5747 1498 38.704
84.692 1485 38.5357
84.8093 1457 38.1707
84.9265 1479 38.4578
85.0437 1354 36.7967
85.1609 1302 36.0832
85.2781 1161 34.0735
85.3952 1036 32.187
85.5123 1016 31.8748
85.6294 1088 32.9848
85.7465 1182 34.3802
85.8636 1286 35.8608
85.9806 1310 36.1939
86.0976 1438 37.921
86.2145 1373 37.054
86.3315 1463 38.2492
86.4484 1525 39.0512
86.5652 1479 38.4578
86.682 1466 38.2884
86.7988 1527 39.0768
86.9156 1409 37.5366
87.0323 1478 38.4448
87.149 1333 36.5103
87.2657 1330 36.4692
87.3823 1140 33.7639
87.4988 1022 31.9687
87.6154 954 30.8869
87.7318 1031 32.1092
87.8483 1081 32.8786
87.9647 1206 34.7275
88.081 1174 34.2637
88.1973 1176 34.2929
88.3136 1088 32.9848
88.4298 1089 33
88.546 972 31.1769
88.6621 792 28.1425
88.7781 692 26.3059
88.8942 0 1
89.0101 0 1
89.126 0 1
89.2419 0 1
89.3577 0 1
89.4734 0 1
89.5891 0 1
89.7047 0 1
89.8203 0 1
89.9358 0 1
92.3269 0 1
92.4424 0 1
92.558 0 1
92.6736 0 1
92.7893 0 1
92.905 0 1
93.0208 0 1
93.1366 0 1
93.2525 0 1
93.3685 0 1
93.4845 0 1
93.6005 1120 33.4664
93.7167 1158 34.0294
93.8328 1237 35.171
93.949 1319 36.318
94.0653 1234 35.1283
94.1816 1257 35.4542
94.2979 1146 33.8526
94.4143 1198 34.6121
94.5307 1138 33.7343
94.6472 1121 33.4813
94.7637 1115 33.3916
94.8803 1225 35
94.9969 1310 36.1939
95.1135 1350 36.7423
95.2302 1390 37.2827
95.3469 1493 38.6394
95.4637 1558 39.4715
95.5805 1525 39.0512
95.6973 1598 39.975
95.8142 1526 39.064
95.9311 1469 38.3275
96.048 1476 38.4187
96.1649 1510 38.8587
96.2819 1444 38
96.3989 1387 37.2424
96.516 1293 35.9583
96.633 1297 36.0139
96.7501 1301 36.0694
96.8673 1221 34.9428
96.9844 1283 35.819
97.1016 1355 36.8103
97.2188 1483 38.5097
97.336 1584 39.7995
97.4532 1582 39.7744
97.5704 1524 39.0384
97.6877 1502 38.7556
97.805 1489 38.5876
97.9223 1423 37.7227
98.0396 1252 35.3836
98.1569 1134 33.6749
98.2743 1094 33.0757
98.3916 1076 32.8024
98.509 1177 34.3074
98.6264 1353 36.7831
98.7438 1414 37.6032
98.8612 1464 38.2623
98.9786 1502 38.7556
99.096 1531 39.128
99.2134 1584 39.7995
99.3308 1572 39.6485
99.4482 1524 39.0384
99.5656 1598 39.975
99.6831 1583 39.7869
99.8005 1576 39.6989
99.9179 1622 40.2741
100.035 1448 38.0526
100.153 1459 38.1969
100.27 1318 36.3043
100.388 1295 35.9861
100.505 1310 36.1939
100.622 1440 37.9473
100.74 1516 38.9358
100.857 1638 40.4722
100.975 1600 40
101.092 1672 40.8901
101.209 1621 40.2616
101.327 1670 40.8656
101.444 1591 39.8873
101.561 1442 37.9737
101.679 1274 35.6931
101.796 1171 34.2199
101.913 1146 33.8526
102.03 1186 34.4384
102.148 1304 36.1109
102.265 1364 36.9324
102.382 1599 39.9875
102.499 1496 38.6782
102.616 1541 39.2556
102.733 1603 40.0375
102.851 1723 41.509
102.968 1700 41.2311
103.085 1723 41.509
103.202 1619 40.2368
103.319 1654 40.6694
103.436 1675 40.9268
103.552 1532 39.1408
103.669 1536 39.1918
103.786 1359 36.8646
103.903 1399 37.4032
104.02 1392 37.3095
104.137 1507 38.8201
104.253 1596 39.95
104.37 1682 41.0122
104.487 1740 41.7133
104.603 1676 40.939
104.72 1656 40.694
104.836 1641 40.5093
104.953 1511 38.8716
105.069 1339 36.5923
105.186 1259 35.4824
105.302 1153 33.9559
105.418 1044 32.311
105.535 998 31.5911
105.651 1035 32.1714
105.767 1026 32.0312
105.883 1089 33
105.999 950 30.8221
106.115 0 1
106.231 0 1
106.347 0 1
106.463 0 1
106.579 0 1
106.694 0 1
106.81 0 1
106.926 0 1
107.041 0 1
107.157 0 1
109.576 0 1
109.692 0 1
109.807 0 1
109.923 0 1
110.039 0 1
110.155 0 1
110.27 0 1
110.386 0 1
110.502 0 1
110.618 720 26.8328
110.735 936 30.5941
110.851 1061 32.573
110.967 1187 34.4529
111.083 1337 36.565
111.199 1396 37.3631
111.316 1473 38.3797
111.432 1548 39.3446
111.549 1556 39.4462
111.665 1558 39.4715
111.782 1544 39.2938
111.898 1573 39.6611
112.015 1556 39.4462
112.132 1426 37.7624
112.248 1410 37.55
112.365 1314 36.2491
112.482 1280 35.7771
112.599 1395 37.3497
112.716 1485 38.5357
112.832 1580 39.7492
112.949 1610 40.1248
113.066 1641 40.5093
113.183 1612 40.1497
113.3 1539 39.2301
113.417 1650 40.6202
113.534 1435 37.8814
113.652 1343 36.647
113.769 1241 35.2278
113.886 1136 33.7046
114.003 1071 32.7261
114.12 1227 35.0286
114.238 1403 37.4566
114.355 1474 38.3927
114.472 1433 37.855
114.589 1604 40.05
114.707 1620 40.2492
114.824 1605 40.0625
114.942 1645 40.5586
115.059 1583 39.7869
115.176 1613 40.1622
115.294 1699 41.2189
115.411 1596 39.95
115.529 1543 39.281
115.646 1495 38.6652
115.764 1483 38.5097
115.881 1392 37.3095
115.999 1318 36.3043
116.116 1362 36.9053
116.234 1390 37.2827
116.351 1642 40.5216
116.469 1649 40.6079
116.586 1632 40.398
116.704 1645 40.5586
116.821 1613 40.1622
116.939 1538 39.2173
117.056 1585 39.8121
117.174 1482 38.4968
117.291 1295 35.9861
117.409 1208 34.7563
117.526 1155 33.9853
117.644 1148 33.8821
117.761 1287 35.8748
117.879 1323 36.3731
117.996 1404 37.47
118.114 1495 38.6652
118.231 1550 39.37
118.349 1535 39.1791
118.466 1602 40.025
118.584 1491 38.6135
118.701 1551 39.3827
118.819 1438 37.921
118.936 1531 39.128
119.053 1477 38.4318
119.171 1492 38.6264
119.288 1449 38.0657
119.405 1347 36.7015
119.523 1227 35.0286
119.64 1282 35.805
119.757 1255 35.426
119.875 1418 37.6563
119.992 1419 37.6696
120.109 1486 38.5487
120.226 1490 38.6005
120.343 1446 38.0263
120.46 1480 38.4708
120.578 1428 37.7889
120.695 1454 38.1314
120.812 1395 37.3497
120.929 1229 35.0571
121.046 1197 34.5977
121.163 1171 34.2199
121.279 961 31
121.396 1086 32.9545
121.513 1089 33
121.63 1189 34.4819
121.747 1163 34.1028
121.863 1155 33.9853
121.98 1152 33.9411
122.097 1114 33.3766
122.213 1146 33.8526
122.33 1138 33.7343
122.446 1089 33
122.563 1053 32.45
122.679 995 31.5436
122.795 944 30.7246
122.912 833 28.8617
123.028 771 27.7669
123.144 708 26.6083
123.26 554 23.5372
123.377 0 1
123.493 0 1
123.609 0 1
123.725 0 1
123.84 0 1
123.956 0 1
124.072 0 1
124.188 0 1
124.303 0 1
124.419 0 1
126.852 0 1
126.968 0 1
127.083 0 1
127.199 0 1
127.315 0 1
127.431 0 1
127.547 0 1
127.663 0 1
127.779 0 1
127.895 0 1
128.011 0 1
128.127 0 1
128.243 0 1
128.359 1411 37.5633
128.476 1488 38.5746
128.592 1420 37.6829
128.708 1340 36.606
128.825 1400 37.4166
128.941 1534 39.1663
129.058 1454 38.1314
129.174 1602 40.025
129.291 1595 39.9375
129.408 1595 39.9375
129.524 1651 40.6325
129.641 1717 41.4367
129.758 1572 39.6485
129.875 1423 37.7227
129.992 1354 36.7967
130.108 1260 35.4965
130.225 1197 34.5977
130.342 1216 34.8712
130.459 1357 36.8375
130.576 1384 37.2022
130.693 1460 38.2099
130.81 1465 38.2753
130.928 1558 39.4715
131.045 1624 40.2989
131.162 1559 39.4842
131.279 1555 39.4335
131.396 1669 40.8534
131.513 1652 40.6448
131.631 1603 40.0375
131.748 1533 39.1535
131.865 1475 38.4057
131.983 1426 37.7624
132.1 1454 38.1314
132.217 1427 37.7757
132.335 1428 37.7889
132.452 1460 38.2099
132.57 1556 39.4462
132.687 1521 39
132.804 1588 39.8497
132.922 1569 39.6106
133.039 1633 40.4104
133.157 1646 40.5709
133.274 1667 40.8289
133.392 1548 39.3446
133.509 1426 37.7624
133.627 1370 37.0135
133.744 1277 35.7351
133.862 1197 34.5977
133.979 1251 35.3695
134.097 1352 36.7696
134.214 1427 37.7757
134.332 1538 39.2173
134.449 1472 38.3667
134.567 1559 39.4842
134.684 1566 39.5727
134.802 1604 40.05
134.919 1619 40.2368
135.037 1676 40.939
135.154 1633 40.4104
135.272 1483 38.5097
135.389 1509 38.8458
135.507 1523 39.0256
135.624 1483 38.5097
135.742 1468 38.3145
135.859 1431 37.8286
135.977 1422 37.7094
136.094 1524 39.0384
136.211 1550 39.37
136.329 1577 39.7115
136.446 1650 40.6202
136.564 1662 40.7676
136.681 1659 40.7308
136.798 1630 40.3733
136.915 1601 40.0125
137.033 1492 38.6264
137.15 1377 37.108
137.267 1329 36.4555
137.384 1291 35.9305
137.502 1240 35.2136
137.619 1248 35.327
137.736 1307 36.1525
137.853 1394 37.3363
137.97 1431 37.8286
138.087 1412 37.5766
138.204 1520 38.9872
138.321 1601 40.0125
138.438 1592 39.8999
138.555 1542 39.2683
138.672 1536 39.1918
138.788 1510 38.8587
138.905 1457 38.1707
139.022 1412 37.5766
139.139 1283 35.819
139.255 1202 34.6699
139.372 1092 33.0454
139.488 1036 32.187
139.605 1026 32.0312
139.721 1039 32.2335
139.838 1035 32.1714
139.954 1102 33.1964
140.071 1053 32.45
140.187 903 30.05
140.303 848 29.1204
140.419 784 28
140.535 762 27.6043
140.652 697 26.4008
140.768 0 1
140.884 0 1
141 0 1
141.115 0 1
141.231 0 1
141.347 0 1
141.463 0 1
141.578 0 1
141.694 0 1
144.104 0 1
144.219 0 1
144.335 0 1
144.45 0 1
144.566 0 1
144.682 0 1
144.798 0 1
144.914 0 1
145.03 0 1
145.146 1201 34.6554
145.262 1168 34.176
145.378 1343 36.647
145.494 1349 36.7287
145.61 1285 35.8469
145.726 1265 35.5668
145.842 1211 34.7994
145.959 1090 33.0151
146.075 1048 32.3728
146.192 1076 32.8024
146.308 1028 32.0624
146.425 1058 32.5269
146.541 1131 33.6303
146.658 1115 33.3916
146.774 1191 34.5109
146.891 1181 34.3657
147.008 1204 34.6987
147.125 1186 34.4384
147.241 1288 35.8887
147.358 1207 34.7419
147.475 1303 36.0971
147.592 1217 34.8855
147.709 1171 34.2199
147.826 1214 34.8425
147.943 1181 34.3657
148.06 1176 34.2929
148.177 1112 33.3467
148.294 1136 33.7046
148.411 1077 32.8177
148.528 1214 34.8425
148.645 1248 35.327
148.762 1259 35.4824
148.88 1301 36.0694
148.997 1372 37.0405
149.114 1220 34.9285
149.231 1283 35.819
149.349 1227 35.0286
149.466 1165 34.1321
149.583 1178 34.322
149.701 1095 33.0908
149.818 994 31.5278
149.935 986 31.4006
150.053 956 30.9192
150.17 1034 32.1559
150.287 1129 33.6006
150.405 1124 33.5261
150.522 1160 34.0588
150.64 1142 33.7935
150.757 1247 35.3129
150.875 1295 35.9861
150.992 1236 35.1568
151.11 1223 34.9714
151.227 1216 34.8712
151.344 1198 34.6121
151.462 1165 34.1321
151.579 1145 33.8378
151.697 1074 32.7719
151.814 1083 32.909
151.932 1088 32.9848
152.049 1126 33.5559
152.167 1120 33.4664
152.284 1207 34.7419
152.402 1203 34.6843
152.519 1256 35.4401
152.636 1334 36.524
152.754 1231 35.0856
152.871 1238 35.1852
152.989 1228 35.0428
153.106 1167 34.1614
153.223 1059 32.5423
153.341 1014 31.8434
153.458 976 31.241
153.575 994 31.5278
153.693 924 30.3974
153.81 1025 32.0156
153.927 1048 32.3728
154.044 1069 32.6956
154.162 1124 33.5261
154.279 1033 32.1403
154.396 1150 33.9116
154.513 1112 33.3467
154.63 1128 33.5857
154.747 1091 33.0303
154.864 1156 34
154.981 1056 32.4962
155.098 1084 32.9242
155.215 1105 33.2415
155.332 1051 32.4191
155.449 1076 32.8024
155.566 1040 32.249
155.683 1012 31.8119
155.8 1052 32.4345
155.917 1085 32.9393
156.033 1077 32.8177
156.15 0 1
156.267 0 1
156.383 0 1
156.5 0 1
156.617 0 1
156.733 0 1
156.85 0 1
156.966 0 1
157.082 0 1
157.199 0 1
157.315 0 1
157.431 0 1
157.547 0 1
157.664 0 1
157.78 0 1
157.896 0 1
158.012 0 1
158.128 0 1
158.244 0 1
158.359 0 1
158.475 0 1
158.591 0 1
158.706 0 1
