
6.15755 0 1
6.2731 0 1
6.3887 0 1
6.50437 0 1
6.62009 0 1
6.73587 0 1
6.8517 0 1
6.96759 0 1
7.08353 0 1
7.19952 0 1
7.31557 0 1
7.43166 0 1
7.54781 0 1
7.664 0 1
7.78024 0 1
7.89653 0 1
8.01286 0 1
8.12924 0 1
8.24567 0 1
8.36213 0 1
8.47864 0 1
8.59519 0 1
8.71178 0 1
8.82841 0 1
8.94508 0 1
9.06179 0 1
9.17853 0 1
9.29531 0 1
9.41212 0 1
9.52897 0 1
9.64584 0 1
9.76276 0 1
9.8797 0 1
9.99667 0 1
10.1137 0 1
10.2307 0 1
10.3478 0 1
10.4648 0 1
10.5819 0 1
10.6991 0 1
10.8162 0 1
10.9334 0 1
11.0506 0 1
11.1678 0 1
11.285 0 1
11.4023 0 1
11.5196 0 1
11.6369 0 1
11.7542 0 1
11.8715 0 1
11.9888 0 1
12.1062 0 1
12.2235 0 1
12.3409 0 1
12.4582 0 1
12.5756 0 1
12.693 0 1
12.8104 0 1
12.9278 0 1
13.0452 0 1
13.1626 0 1
13.28 0 1
13.3974 0 1
13.5149 0 1
13.6323 0 1
13.7497 0 1
13.8671 0 1
13.9845 0 1
14.1019 0 1
14.2193 0 1
14.3367 0 1
14.4541 0 1
14.5714 0 1
14.6888 0 1
14.8062 0 1
14.9235 0 1
15.0408 0 0
15.1581 0 0
15.2755 0 0
15.3927 0 0
15.51 0 0
15.6273 0 0
15.7445 0 0
15.8617 0 0
15.9789 0 0
16.0961 0 0
16.2132 0 0
16.3304 0 0
16.4475 0 0
16.5646 0 0
16.6816 0 0
16.7986 0 0
16.9156 0 0
17.0326 0 0
17.1496 0 0
17.2665 0 0
17.3833 0 0
17.5002 0 0
17.617 0 0
17.7338 0 0
17.8505 0 0
17.9672 0 0
18.0839 0 0
18.2005 0 0
18.3171 0 0
18.4337 0 0
18.5502 0 0
18.6666 0 0
18.7831 0 0
18.8994 0 0
19.0158 0 0
19.1321 0 0
19.2483 0 0
19.3645 0 0
19.4806 0 0
19.5967 0 0
19.7128 0 0
19.8288 0 0
19.9447 0 0
20.0606 0 1
20.1764 0 1
20.2922 0 1
20.4079 0 1
20.5236 0 1
20.6392 0 1
20.7548 0 1
20.8702 0 1
23.3078 0 1
23.4233 0 1
23.539 0 1
23.6547 0 1
23.7704 0 1
23.8862 0 1
24.0021 0 1
24.118 0 1
24.234 0 1
24.35 0 1
24.4661 1554 39.4208
24.5822 1541 39.2556
24.6984 1565 39.5601
24.8146 1522 39.0128
24.9309 1475 38.4057
25.0472 1597 39.9625
25.1636 1526 39.064
25.28 1476 38.4187
25.3965 1558 39.4715
25.513 1612 40.1497
25.6296 1582 39.7744
25.7462 1708 41.328
25.8628 1648 40.5956
25.9795 1735 41.6533
26.0962 1660 40.7431
26.213 1713 41.3884
26.3298 1607 40.0874
26.4466 1581 39.7618
26.5635 1532 39.1408
26.6804 1442 37.9737
26.7973 1376 37.0945
26.9143 1488 38.5746
27.0313 1503 38.7685
27.1483 1541 39.2556
27.2653 1498 38.704
27.3824 1673 40.9023
27.4996 1584 39.7995
27.6167 1594 39.9249
27.7339 1591 39.8873
27.8511 1556 39.4462
27.9683 1670 40.8656
28.0855 1543 39.281
28.2028 1563 39.5348
28.3201 1523 39.0256
28.4374 1540 39.2428
28.5547 1532 39.1408
28.6721 1449 38.0657
28.7894 1482 38.4968
28.9068 1476 38.4187
29.0242 1472 38.3667
29.1416 1530 39.1152
29.259 1520 38.9872
29.3764 1627 40.3361
29.4939 1498 38.704
29.6113 1502 38.7556
29.7288 1482 38.4968
29.8463 1483 38.5097
29.9638 1458 38.1838
30.0812 1357 36.8375
30.1987 1327 36.428
30.3162 1320 36.3318
30.4337 1315 36.2629
30.5512 1381 37.1618
30.6687 1453 38.1182
30.7862 1448 38.0526
30.9037 1588 39.8497
31.0212 1515 38.923
31.1387 1570 39.6232
31.2562 1572 39.6485
31.3737 1601 40.0125
31.4912 1582 39.7744
31.6087 1520 38.9872
31.7262 1540 39.2428
31.8436 1584 39.7995
31.9611 1498 38.704
32.0785 1483 38.5097
32.1959 1431 37.8286
32.3134 1396 37.3631
32.4308 1347 36.7015
32.5482 1439 37.9342
32.6655 1512 38.8844
32.7829 1509 38.8458
32.9002 1399 37.4032
33.0176 1518 38.9615
33.1349 1432 37.8418
33.2522 1546 39.3192
33.3694 1461 38.223
33.4867 1418 37.6563
33.6039 1428 37.7889
33.7211 1321 36.3456
33.8383 1308 36.1663
33.9554 1267 35.5949
34.0725 1239 35.1994
34.1896 1354 36.7967
34.3067 1428 37.7889
34.4237 1378 37.1214
34.5407 1489 38.5876
34.6577 1404 37.47
34.7746 1490 38.6005
34.8915 1518 38.9615
35.0084 1546 39.3192
35.1252 1467 38.3014
35.242 1472 38.3667
35.3587 1525 39.0512
35.4755 1482 38.4968
35.5921 1527 39.0768
35.7088 1415 37.6165
35.8254 1431 37.8286
35.9419 1403 37.4566
36.0584 1413 37.5899
36.1749 1425 37.7492
36.2913 1427 37.7757
36.4077 1451 38.092
36.524 1389 37.2693
36.6403 1430 37.8153
36.7565 1418 37.6563
36.8727 1453 38.1182
36.9889 1455 38.1445
37.1049 1371 37.027
37.221 0 1
37.3369 0 1
37.4529 0 1
37.5687 0 1
37.6845 0 1
37.8003 0 1
37.916 0 1
38.0316 0 1
38.1472 0 1
40.5851 0 1
40.7008 0 1
40.8164 0 1
40.9322 0 1
41.048 0 1
41.1639 0 1
41.2798 0 1
41.3958 0 1
41.5118 0 1
41.6279 0 1
41.744 1045 32.3265
41.8602 1101 33.1813
41.9765 1136 33.7046
42.0928 1164 34.1174
42.2091 1200 34.641
42.3255 1141 33.7787
42.4419 1095 33.0908
42.5584 1016 31.8748
42.675 954 30.8869
42.7915 864 29.3939
42.9081 954 30.8869
43.0248 940 30.6594
43.1415 1090 33.0151
43.2582 1099 33.1512
43.375 1068 32.6803
43.4918 1131 33.6303
43.6087 1144 33.8231
43.7256 1127 33.5708
43.8425 1101 33.1813
43.9595 1058 32.5269
44.0765 1060 32.5576
44.1935 1055 32.4808
44.3106 1036 32.187
44.4277 995 31.5436
44.5448 933 30.545
44.6619 958 30.9516
44.7791 854 29.2233
44.8963 839 28.9655
45.0136 848 29.1204
45.1308 844 29.0517
45.2481 792 28.1425
45.3654 867 29.4449
45.4827 828 28.775
45.6001 912 30.1993
45.7174 865 29.4109
45.8348 890 29.8329
45.9522 839 28.9655
46.0697 716 26.7582
46.1871 710 26.6458
46.3046 667 25.8263
46.422 627 25.04
46.5395 732 27.0555
46.657 731 27.037
46.7745 782 27.9643
46.892 800 28.2843
47.0096 798 28.2489
47.1271 802 28.3196
47.2446 827 28.7576
47.3622 804 28.3549
47.4797 811 28.4781
47.5973 812 28.4956
47.7149 770 27.7489
47.8324 739 27.1846
47.95 730 27.0185
48.0675 703 26.5141
48.1851 665 25.7876
48.3027 632 25.1396
48.4202 631 25.1197
48.5378 599 24.4745
48.6554 639 25.2784
48.7729 642 25.3377
48.8904 634 25.1794
49.008 630 25.0998
49.1255 685 26.1725
49.243 668 25.8457
49.3605 673 25.9422
49.478 617 24.8395
49.5955 583 24.1454
49.713 499 22.3383
49.8304 467 21.6102
49.9479 565 23.7697
50.0653 546 23.3666
50.1827 606 24.6171
50.3001 742 27.2397
50.4175 689 26.2488
50.5348 725 26.9258
50.6521 758 27.5318
50.7694 750 27.3861
50.8867 893 29.8831
51.004 790 28.1069
51.1212 853 29.2062
51.2384 896 29.9333
51.3556 878 29.6311
51.4727 834 28.8791
51.5899 843 29.0345
51.707 795 28.1957
51.824 806 28.3901
51.9411 841 29
52.0581 880 29.6648
52.175 903 30.05
52.2919 970 31.1448
52.4088 938 30.6268
52.5257 936 30.5941
52.6425 1056 32.4962
52.7593 1029 32.078
52.876 1036 32.187
52.9927 1047 32.3574
53.1094 1033 32.1403
53.226 845 29.0689
53.3426 847 29.1033
53.4591 823 28.688
53.5756 872 29.5296
53.692 1010 31.7805
53.8084 1097 33.121
53.9248 1167 34.1614
54.0411 1263 35.5387
54.1573 1307 36.1525
54.2735 0 1
54.3896 0 1
54.5057 0 1
54.6217 0 1
54.7377 0 1
54.8537 0 1
54.9695 0 1
55.0853 0 1
55.2011 0 1
55.3168 0 1
55.4324 0 1
57.824 0 1
57.9396 0 1
58.0553 0 1
58.1711 0 1
58.2869 0 1
58.4028 0 1
58.5187 0 1
58.6347 0 1
58.7508 0 1
58.8669 0 1
58.983 1313 36.2353
59.0992 1404 37.47
59.2155 1468 38.3145
59.3318 1462 38.2361
59.4482 1526 39.064
59.5646 1463 38.2492
59.681 1519 38.9744
59.7975 1400 37.4166
59.9141 1422 37.7094
60.0306 1383 37.1887
60.1473 1308 36.1663
60.2639 1358 36.8511
60.3807 1263 35.5387
60.4974 1219 34.9142
60.6142 1212 34.8138
60.731 1183 34.3948
60.8479 1196 34.5832
60.9648 1195 34.5688
61.0818 1239 35.1994
61.1987 1224 34.9857
61.3158 1259 35.4824
61.4328 1229 35.0571
61.5499 1233 35.1141
61.667 1148 33.8821
61.7841 1028 32.0624
61.9013 944 30.7246
62.0185 950 30.8221
62.1357 1031 32.1092
62.253 1121 33.4813
62.3702 1204 34.6987
62.4875 1294 35.9722
62.6049 1391 37.2961
62.7222 1440 37.9473
62.8396 1469 38.3275
62.9569 1422 37.7094
63.0743 1414 37.6032
63.1918 1462 38.2361
63.3092 1405 37.4833
63.4267 1461 38.223
63.5441 1373 37.054
63.6616 1303 36.0971
63.7791 1311 36.2077
63.8966 1324 36.3868
64.0142 1283 35.819
64.1317 1248 35.327
64.2492 1262 35.5246
64.3668 1333 36.5103
64.4843 1288 35.8887
64.6019 1271 35.6511
64.7195 1263 35.5387
64.837 1337 36.565
64.9546 1314 36.2491
65.0722 1324 36.3868
65.1898 1208 34.7563
65.3074 1103 33.2114
65.4249 981 31.3209
65.5425 881 29.6816
65.6601 977 31.257
65.7777 1020 31.9374
65.8952 1174 34.2637
66.0128 1358 36.8511
66.1304 1397 37.3765
66.2479 1388 37.2559
66.3655 1494 38.6523
66.483 1545 39.3065
66.6005 1453 38.1182
66.718 1464 38.2623
66.8355 1480 38.4708
66.953 1421 37.6962
67.0705 1379 37.1349
67.1879 1285 35.8469
67.3054 1268 35.609
67.4228 1247 35.3129
67.5402 1180 34.3511
67.6576 1183 34.3948
67.7749 1168 34.176
67.8923 1216 34.8712
68.0096 1114 33.3766
68.1269 1230 35.0714
68.2442 1190 34.4964
68.3614 1253 35.3977
68.4787 1250 35.3553
68.5958 1187 34.4529
68.713 1210 34.7851
68.8302 1109 33.3017
68.9473 1025 32.0156
69.0643 898 29.9666
69.1814 826 28.7402
69.2984 861 29.3428
69.4154 957 30.9354
69.5323 1157 34.0147
69.6492 1264 35.5528
69.7661 1334 36.524
69.8829 1411 37.5633
69.9997 1387 37.2424
70.1165 1447 38.0395
70.2332 1364 36.9324
70.3499 1474 38.3927
70.4665 1408 37.5233
70.5831 1438 37.921
70.6996 1294 35.9722
70.8161 1309 36.1801
70.9326 1242 35.242
71.049 1136 33.7046
71.1653 1091 33.0303
71.2817 1054 32.4654
71.3979 1070 32.7109
71.5141 1106 33.2566
71.6303 1097 33.121
71.7464 1030 32.0936
71.8624 0 1
71.9784 0 1
72.0944 0 1
72.2102 0 1
72.3261 0 1
72.4418 0 1
72.5575 0 1
72.6732 0 1
75.1054 0 1
75.2209 0 1
75.3365 0 1
75.4521 0 1
75.5678 0 1
75.6835 0 1
75.7993 0 1
75.9151 0 1
76.031 0 1
76.147 1234 35.1283
76.263 1245 35.2846
76.3791 1159 34.0441
76.4952 1152 33.9411
76.6113 1147 33.8674
76.7276 1093 33.0606
76.8438 1074 32.7719
76.9601 1085 32.9393
77.0765 1215 34.8569
77.1929 1191 34.5109
77.3093 1186 34.4384
77.4258 1279 35.7631
77.5423 1239 35.1994
77.6589 1229 35.0571
77.7755 1124 33.5261
77.8921 962 31.0161
78.0088 806 28.3901
78.1256 789 28.0891
78.2423 816 28.5657
78.3591 863 29.3769
78.4759 982 31.3369
78.5928 1128 33.5857
78.7097 1298 36.0278
78.8266 1309 36.1801
78.9436 1367 36.973
79.0606 1334 36.524
79.1776 1353 36.7831
79.2946 1378 37.1214
79.4117 1426 37.7624
79.5288 1370 37.0135
79.6459 1385 37.2156
79.7631 1214 34.8425
79.8802 1144 33.8231
79.9974 1134 33.6749
80.1147 1086 32.9545
80.2319 1023 31.9844
80.3491 1002 31.6544
80.4664 1053 32.45
80.5837 1061 32.573
80.701 1071 32.7261
80.8183 1060 32.5576
80.9357 1105 33.2415
81.053 1115 33.3916
81.1704 1115 33.3916
81.2877 1104 33.2265
81.4051 1074 32.7719
81.5225 939 30.6431
81.6399 882 29.6985
81.7573 740 27.2029
81.8747 698 26.4197
81.9922 733 27.074
82.1096 842 29.0172
82.227 978 31.273
82.3444 1070 32.7109
82.4619 1101 33.1813
82.5793 1170 34.2053
82.6967 1201 34.6554
82.8142 1160 34.0588
82.9316 1199 34.6266
83.049 1175 34.2783
83.1664 1189 34.4819
83.2838 1120 33.4664
83.4012 1053 32.45
83.5186 1045 32.3265
83.636 940 30.6594
83.7534 921 30.348
83.8708 909 30.1496
83.9881 856 29.2575
84.1055 847 29.1033
84.2228 880 29.6648
84.3401 944 30.7246
84.4575 950 30.8221
84.5747 1004 31.686
84.692 1105 33.2415
84.8093 1006 31.7175
84.9265 996 31.5595
85.0437 936 30.5941
85.1609 819 28.6182
85.2781 731 27.037
85.3952 674 25.9615
85.5123 670 25.8844
85.6294 774 27.8209
85.7465 951 30.8383
85.8636 1068 32.6803
85.9806 1110 33.3167
86.0976 1174 34.2637
86.2145 1256 35.4401
86.3315 1274 35.6931
86.4484 1219 34.9142
86.5652 1304 36.1109
86.682 1339 36.5923
86.7988 1333 36.5103
86.9156 1250 35.3553
87.0323 1226 35.0143
87.149 1124 33.5261
87.2657 1119 33.4515
87.3823 1098 33.1361
87.4988 1013 31.8277
87.6154 988 31.4325
87.7318 1061 32.573
87.8483 1169 34.1906
87.9647 1194 34.5543
88.081 1223 34.9714
88.1973 1278 35.7491
88.3136 1315 36.2629
88.4298 1206 34.7275
88.546 1176 34.2929
88.6621 947 30.7734
88.7781 923 30.3809
88.8942 0 1
89.0101 0 1
89.126 0 1
89.2419 0 1
89.3577 0 1
89.4734 0 1
89.5891 0 1
89.7047 0 1
89.8203 0 1
89.9358 0 1
92.3269 0 1
92.4424 0 1
92.558 0 1
92.6736 0 1
92.7893 0 1
92.905 0 1
93.0208 0 1
93.1366 0 1
93.2525 0 1
93.3685 0 1
93.4845 0 1
93.6005 1221 34.9428
93.7167 1256 35.4401
93.8328 1282 35.805
93.949 1232 35.0999
94.0653 1194 34.5543
94.1816 1033 32.1403
94.2979 911 30.1828
94.4143 865 29.4109
94.5307 860 29.3258
94.6472 888 29.7993
94.7637 1002 31.6544
94.8803 1087 32.9697
94.9969 1222 34.9571
95.1135 1331 36.4829
95.2302 1394 37.3363
95.3469 1396 37.3631
95.4637 1440 37.9473
95.5805 1456 38.1576
95.6973 1454 38.1314
95.8142 1469 38.3275
95.9311 1460 38.2099
96.048 1361 36.8917
96.1649 1310 36.1939
96.2819 1249 35.3412
96.3989 1192 34.5254
96.516 1150 33.9116
96.633 1115 33.3916
96.7501 1113 33.3617
96.8673 1110 33.3167
96.9844 1122 33.4963
97.1016 1192 34.5254
97.2188 1295 35.9861
97.336 1277 35.7351
97.4532 1336 36.5513
97.5704 1238 35.1852
97.6877 1179 34.3366
97.805 1040 32.249
97.9223 988 31.4325
98.0396 880 29.6648
98.1569 852 29.189
98.2743 890 29.8329
98.3916 953 30.8707
98.509 1129 33.6006
98.6264 1190 34.4964
98.7438 1317 36.2905
98.8612 1401 37.4299
98.9786 1440 37.9473
99.096 1433 37.855
99.2134 1510 38.8587
99.3308 1428 37.7889
99.4482 1441 37.9605
99.5656 1449 38.0657
99.6831 1435 37.8814
99.8005 1355 36.8103
99.9179 1271 35.6511
100.035 1192 34.5254
100.153 1135 33.6898
100.27 1127 33.5708
100.388 1153 33.9559
100.505 1129 33.6006
100.622 1227 35.0286
100.74 1318 36.3043
100.857 1381 37.1618
100.975 1331 36.4829
101.092 1344 36.6606
101.209 1279 35.7631
101.327 1160 34.0588
101.444 1036 32.187
101.561 970 31.1448
101.679 920 30.3315
101.796 934 30.5614
101.913 944 30.7246
102.03 1104 33.2265
102.148 1228 35.0428
102.265 1361 36.8917
102.382 1496 38.6782
102.499 1488 38.5746
102.616 1536 39.1918
102.733 1559 39.4842
102.851 1631 40.3856
102.968 1561 39.5095
103.085 1550 39.37
103.202 1493 38.6394
103.319 1443 37.9868
103.436 1321 36.3456
103.552 1279 35.7631
103.669 1201 34.6554
103.786 1132 33.6452
103.903 1244 35.2704
104.02 1349 36.7287
104.137 1344 36.6606
104.253 1331 36.4829
104.37 1431 37.8286
104.487 1421 37.6962
104.603 1451 38.092
104.72 1418 37.6563
104.836 1271 35.6511
104.953 1185 34.4238
105.069 999 31.607
105.186 1001 31.6386
105.302 1055 32.4808
105.418 1099 33.1512
105.535 1343 36.647
105.651 1453 38.1182
105.767 1547 39.3319
105.883 1637 40.4599
105.999 1576 39.6989
106.115 0 1
106.231 0 1
106.347 0 1
106.463 0 1
106.579 0 1
106.694 0 1
106.81 0 1
106.926 0 1
107.041 0 1
107.157 0 1
109.576 0 1
109.692 0 1
109.807 0 1
109.923 0 1
110.039 0 1
110.155 0 1
110.27 0 1
110.386 0 1
110.502 0 1
110.618 1263 35.5387
110.735 1398 37.3898
110.851 1450 38.0789
110.967 1510 38.8587
111.083 1556 39.4462
111.199 1535 39.1791
111.316 1685 41.0488
111.432 1634 40.4228
111.549 1596 39.95
111.665 1553 39.4081
111.782 1491 38.6135
111.898 1456 38.1576
112.015 1390 37.2827
112.132 1388 37.2559
112.248 1245 35.2846
112.365 1232 35.0999
112.482 1244 35.2704
112.599 1338 36.5787
112.716 1305 36.1248
112.832 1322 36.3593
112.949 1361 36.8917
113.066 1330 36.4692
113.183 1337 36.565
113.3 1322 36.3593
113.417 1204 34.6987
113.534 1093 33.0606
113.652 1041 32.2645
113.769 977 31.257
113.886 998 31.5911
114.003 1011 31.7962
114.12 1160 34.0588
114.238 1334 36.524
114.355 1477 38.4318
114.472 1515 38.923
114.589 1599 39.9875
114.707 1566 39.5727
114.824 1652 40.6448
114.942 1515 38.923
115.059 1655 40.6817
115.176 1433 37.855
115.294 1483 38.5097
115.411 1360 36.8782
115.529 1374 37.0675
115.646 1377 37.108
115.764 1343 36.647
115.881 1274 35.6931
115.999 1219 34.9142
116.116 1316 36.2767
116.234 1362 36.9053
116.351 1317 36.2905
116.469 1381 37.1618
116.586 1383 37.1887
116.704 1381 37.1618
116.821 1375 37.081
116.939 1334 36.524
117.056 1184 34.4093
117.174 1166 34.1467
117.291 1053 32.45
117.409 1085 32.9393
117.526 1102 33.1964
117.644 1182 34.3802
117.761 1252 35.3836
117.879 1497 38.6911
117.996 1550 39.37
118.114 1492 38.6264
118.231 1533 39.1535
118.349 1624 40.2989
118.466 1630 40.3733
118.584 1644 40.5463
118.701 1631 40.3856
118.819 1617 40.2119
118.936 1538 39.2173
119.053 1537 39.2046
119.171 1419 37.6696
119.288 1376 37.0945
119.405 1368 36.9865
119.523 1221 34.9428
119.64 1334 36.524
119.757 1318 36.3043
119.875 1390 37.2827
119.992 1400 37.4166
120.109 1441 37.9605
120.226 1428 37.7889
120.343 1431 37.8286
120.46 1303 36.0971
120.578 1283 35.819
120.695 1251 35.3695
120.812 1259 35.4824
120.929 1169 34.1906
121.046 1044 32.311
121.163 1095 33.0908
121.279 1179 34.3366
121.396 1292 35.9444
121.513 1424 37.7359
121.63 1548 39.3446
121.747 1585 39.8121
121.863 1598 39.975
121.98 1586 39.8246
122.097 1610 40.1248
122.213 1577 39.7115
122.33 1562 39.5221
122.446 1611 40.1373
122.563 1539 39.2301
122.679 1452 38.1051
122.795 1437 37.9078
122.912 1467 38.3014
123.028 1402 37.4433
123.144 1289 35.9026
123.26 1227 35.0286
123.377 0 1
123.493 0 1
123.609 0 1
123.725 0 1
123.84 0 1
123.956 0 1
124.072 0 1
124.188 0 1
124.303 0 1
124.419 0 1
126.852 0 1
126.968 0 1
127.083 0 1
127.199 0 1
127.315 0 1
127.431 0 1
127.547 0 1
127.663 0 1
127.779 0 1
127.895 0 1
128.011 0 1
128.127 0 1
128.243 0 1
128.359 1453 38.1182
128.476 1398 37.3898
128.592 1330 36.4692
128.708 1416 37.6298
128.825 1559 39.4842
128.941 1590 39.8748
129.058 1548 39.3446
129.174 1598 39.975
129.291 1537 39.2046
129.408 1534 39.1663
129.524 1453 38.1182
129.641 1355 36.8103
129.758 1401 37.4299
129.875 1272 35.6651
129.992 1281 35.7911
130.108 1187 34.4529
130.225 1361 36.8917
130.342 1322 36.3593
130.459 1429 37.8021
130.576 1610 40.1248
130.693 1626 40.3237
130.81 1660 40.7431
130.928 1718 41.4488
131.045 1762 41.9762
131.162 1629 40.3609
131.279 1653 40.6571
131.396 1735 41.6533
131.513 1628 40.3485
131.631 1585 39.8121
131.748 1607 40.0874
131.865 1575 39.6863
131.983 1506 38.8072
132.1 1535 39.1791
132.217 1554 39.4208
132.335 1474 38.3927
132.452 1570 39.6232
132.57 1576 39.6989
132.687 1604 40.05
132.804 1662 40.7676
132.922 1572 39.6485
133.039 1507 38.8201
133.157 1571 39.6358
133.274 1429 37.8021
133.392 1420 37.6829
133.509 1306 36.1386
133.627 1309 36.1801
133.744 1306 36.1386
133.862 1369 37
133.979 1489 38.5876
134.097 1542 39.2683
134.214 1626 40.3237
134.332 1675 40.9268
134.449 1711 41.3642
134.567 1708 41.328
134.684 1663 40.7799
134.802 1706 41.3038
134.919 1741 41.7253
135.037 1737 41.6773
135.154 1657 40.7063
135.272 1564 39.5474
135.389 1630 40.3733
135.507 1548 39.3446
135.624 1479 38.4578
135.742 1468 38.3145
135.859 1527 39.0768
135.977 1564 39.5474
136.094 1477 38.4318
136.211 1585 39.8121
136.329 1652 40.6448
136.446 1613 40.1622
136.564 1607 40.0874
136.681 1561 39.5095
136.798 1492 38.6264
136.915 1446 38.0263
137.033 1438 37.921
137.15 1344 36.6606
137.267 1306 36.1386
137.384 1311 36.2077
137.502 1344 36.6606
137.619 1430 37.8153
137.736 1491 38.6135
137.853 1596 39.95
137.97 1601 40.0125
138.087 1584 39.7995
138.204 1655 40.6817
138.321 1709 41.3401
138.438 1689 41.0974
138.555 1675 40.9268
138.672 1661 40.7554
138.788 1631 40.3856
138.905 1631 40.3856
139.022 1576 39.6989
139.139 1490 38.6005
139.255 1466 38.2884
139.372 1426 37.7624
139.488 1534 39.1663
139.605 1577 39.7115
139.721 1579 39.7366
139.838 1524 39.0384
139.954 1560 39.4968
140.071 1542 39.2683
140.187 1611 40.1373
140.303 1586 39.8246
140.419 1499 38.7169
140.535 1478 38.4448
140.652 1382 37.1753
140.768 0 1
140.884 0 1
141 0 1
141.115 0 1
141.231 0 1
141.347 0 1
141.463 0 1
141.578 0 1
141.694 0 1
144.104 0 1
144.219 0 1
144.335 0 1
144.45 0 1
144.566 0 1
144.682 0 1
144.798 0 1
144.914 0 1
145.03 0 1
145.146 1111 33.3317
145.262 1198 34.6121
145.378 1201 34.6554
145.494 1215 34.8569
145.61 1177 34.3074
145.726 1119 33.4515
145.842 1200 34.641
145.959 1117 33.4215
146.075 1060 32.5576
146.192 1054 32.4654
146.308 1078 32.8329
146.425 1045 32.3265
146.541 1078 32.8329
146.658 1155 33.9853
146.774 1250 35.3553
146.891 1235 35.1426
147.008 1262 35.5246
147.125 1263 35.5387
147.241 1263 35.5387
147.358 1260 35.4965
147.475 1329 36.4555
147.592 1276 35.7211
147.709 1328 36.4417
147.826 1257 35.4542
147.943 1206 34.7275
148.06 1127 33.5708
148.177 1163 34.1028
148.294 1135 33.6898
148.411 1151 33.9264
148.528 1312 36.2215
148.645 1268 35.609
148.762 1292 35.9444
148.88 1298 36.0278
148.997 1260 35.4965
149.114 1273 35.6791
149.231 1253 35.3977
149.349 1234 35.1283
149.466 1292 35.9444
149.583 1136 33.7046
149.701 1218 34.8999
149.818 1132 33.6452
149.935 1137 33.7194
150.053 1143 33.8083
150.17 1123 33.5112
150.287 1163 34.1028
150.405 1148 33.8821
150.522 1217 34.8855
150.64 1289 35.9026
150.757 1388 37.2559
150.875 1294 35.9722
150.992 1336 36.5513
151.11 1339 36.5923
151.227 1337 36.565
151.344 1385 37.2156
151.462 1322 36.3593
151.579 1382 37.1753
151.697 1289 35.9026
151.814 1195 34.5688
151.932 1246 35.2987
152.049 1224 34.9857
152.167 1175 34.2783
152.284 1311 36.2077
152.402 1340 36.606
152.519 1339 36.5923
152.636 1359 36.8646
152.754 1312 36.2215
152.871 1276 35.7211
152.989 1356 36.8239
153.106 1278 35.7491
153.223 1307 36.1525
153.341 1226 35.0143
153.458 1269 35.623
153.575 1225 35
153.693 1158 34.0294
153.81 1159 34.0441
153.927 1199 34.6266
154.044 1262 35.5246
154.162 1357 36.8375
154.279 1401 37.4299
154.396 1448 38.0526
154.513 1426 37.7624
154.63 1462 38.2361
154.747 1451 38.092
154.864 1549 39.3573
154.981 1537 39.2046
155.098 1478 38.4448
155.215 1383 37.1887
155.332 1371 37.027
155.449 1403 37.4566
155.566 1364 36.9324
155.683 1393 37.3229
155.8 1415 37.6165
155.917 1422 37.7094
156.033 1432 37.8418
156.15 0 1
156.267 0 1
156.383 0 1
156.5 0 1
156.617 0 1
156.733 0 1
156.85 0 1
156.966 0 1
157.082 0 1
157.199 0 1
157.315 0 1
157.431 0 1
157.547 0 1
157.664 0 1
157.78 0 1
157.896 0 1
158.012 0 1
158.128 0 1
158.244 0 1
158.359 0 1
158.475 0 1
158.591 0 1
158.706 0 1
