
6.15755 0 1
6.2731 0 1
6.3887 0 1
6.50437 0 1
6.62009 0 1
6.73587 0 1
6.8517 0 1
6.96759 0 1
7.08353 0 1
7.19952 0 1
7.31557 0 1
7.43166 0 1
7.54781 0 1
7.664 0 1
7.78024 0 1
7.89653 0 1
8.01286 0 1
8.12924 0 1
8.24567 0 1
8.36213 0 1
8.47864 0 1
8.59519 0 1
8.71178 0 1
8.82841 0 1
8.94508 0 1
9.06179 0 1
9.17853 0 1
9.29531 0 1
9.41212 0 1
9.52897 0 1
9.64584 0 1
9.76276 0 1
9.8797 0 1
9.99667 0 1
10.1137 0 1
10.2307 0 1
10.3478 0 1
10.4648 0 1
10.5819 0 1
10.6991 0 1
10.8162 0 1
10.9334 0 1
11.0506 0 1
11.1678 0 1
11.285 0 1
11.4023 0 1
11.5196 0 1
11.6369 0 1
11.7542 0 1
11.8715 0 1
11.9888 0 1
12.1062 0 1
12.2235 0 1
12.3409 0 1
12.4582 0 1
12.5756 0 1
12.693 0 1
12.8104 0 1
12.9278 0 1
13.0452 0 1
13.1626 0 1
13.28 0 1
13.3974 0 1
13.5149 0 1
13.6323 0 1
13.7497 0 1
13.8671 0 1
13.9845 0 1
14.1019 0 1
14.2193 0 1
14.3367 0 1
14.4541 0 1
14.5714 0 1
14.6888 0 1
14.8062 0 1
14.9235 0 1
15.0408 4555 67.4907
15.1581 4855 69.6778
15.2755 4775 69.1014
15.3927 4898 69.9857
15.51 4982 70.5833
15.6273 4989 70.6329
15.7445 4988 70.6258
15.8617 4819 69.419
15.9789 4960 70.4273
16.0961 5114 71.5122
16.2132 5232 72.3326
16.3304 5333 73.0274
16.4475 5432 73.7021
16.5646 5632 75.0467
16.6816 5862 76.5637
16.7986 5996 77.4338
16.9156 6023 77.608
17.0326 6207 78.7845
17.1496 6342 79.6367
17.2665 6377 79.8561
17.3833 6636 81.4616
17.5002 6502 80.635
17.617 6529 80.8022
17.7338 6527 80.7899
17.8505 6342 79.6367
17.9672 5937 77.0519
18.0839 6121 78.2368
18.2005 6097 78.0833
18.3171 6346 79.6618
18.4337 6483 80.5171
18.5502 6635 81.4555
18.6666 6917 83.1685
18.7831 7025 83.8153
18.8994 6901 83.0723
19.0158 7013 83.7437
19.1321 6824 82.6075
19.2483 6598 81.2281
19.3645 6408 80.05
19.4806 6399 79.9937
19.5967 6294 79.3347
19.7128 6191 78.6829
19.8288 6048 77.7689
19.9447 5506 74.2024
20.0606 0 1
20.1764 0 1
20.2922 0 1
20.4079 0 1
20.5236 0 1
20.6392 0 1
20.7548 0 1
20.8702 0 1
23.3078 0 1
23.4233 0 1
23.539 0 1
23.6547 0 1
23.7704 0 1
23.8862 0 1
24.0021 0 1
24.118 0 1
24.234 0 1
24.35 0 1
24.4661 6572 81.0679
24.5822 6466 80.4114
24.6984 6453 80.3306
24.8146 6300 79.3725
24.9309 6409 80.0562
25.0472 6192 78.6893
25.1636 6323 79.5173
25.28 6545 80.9012
25.3965 6713 81.9329
25.513 6892 83.0181
25.6296 7357 85.773
25.7462 7442 86.267
25.8628 7288 85.3698
25.9795 7459 86.3655
26.0962 7369 85.8429
26.213 7370 85.8487
26.3298 7122 84.3919
26.4466 6885 82.9759
26.5635 6550 80.9321
26.6804 6504 80.6474
26.7973 6534 80.8332
26.9143 6888 82.994
27.0313 6993 83.6242
27.1483 7217 84.9529
27.2653 7411 86.0872
27.3824 7356 85.7671
27.4996 7338 85.6621
27.6167 7141 84.5044
27.7339 6958 83.4146
27.8511 6879 82.9397
27.9683 6828 82.6317
28.0855 6622 81.3757
28.2028 6448 80.2994
28.3201 6569 81.0494
28.4374 6328 79.5487
28.5547 6263 79.1391
28.6721 6410 80.0625
28.7894 6562 81.0062
28.9068 6643 81.5046
29.0242 6996 83.6421
29.1416 7014 83.7496
29.259 7127 84.4216
29.3764 7348 85.7205
29.4939 7294 85.4049
29.6113 7359 85.7846
29.7288 7065 84.0536
29.8463 7004 83.6899
29.9638 6395 79.9687
30.0812 6265 79.1518
30.1987 5968 77.2528
30.3162 6221 78.8733
30.4337 6324 79.5236
30.5512 6789 82.3954
30.6687 6776 82.3165
30.7862 7161 84.6227
30.9037 6917 83.1685
31.0212 7082 84.1546
31.1387 6852 82.7768
31.2562 6877 82.9277
31.3737 7020 83.7854
31.4912 6672 81.6823
31.6087 6570 81.0555
31.7262 6382 79.8874
31.8436 6389 79.9312
31.9611 6401 80.0062
32.0785 6246 79.0316
32.1959 6276 79.2212
32.3134 6387 79.9187
32.4308 6501 80.6288
32.5482 6643 81.5046
32.6655 6840 82.7043
32.7829 6972 83.4985
32.9002 7170 84.6759
33.0176 6940 83.3067
33.1349 7023 83.8033
33.2522 7144 84.5222
33.3694 6938 83.2947
33.4867 6781 82.3468
33.6039 6424 80.1499
33.7211 5990 77.3951
33.8383 5840 76.4199
33.9554 5802 76.1709
34.0725 5969 77.2593
34.1896 6493 80.5792
34.3067 6447 80.2932
34.4237 6446 80.287
34.5407 6571 81.0617
34.6577 6699 81.8474
34.7746 6666 81.6456
34.8915 6545 80.9012
35.0084 6596 81.2158
35.1252 6497 80.604
35.242 6494 80.5854
35.3587 6376 79.8499
35.4755 6171 78.5557
35.5921 6080 77.9744
35.7088 6061 77.8524
35.8254 5941 77.0779
35.9419 6004 77.4855
36.0584 6031 77.6595
36.1749 6005 77.4919
36.2913 6476 80.4736
36.4077 6635 81.4555
36.524 6669 81.6639
36.6403 6675 81.7007
36.7565 6941 83.3127
36.8727 6706 81.8902
36.9889 6668 81.6578
37.1049 6381 79.8812
37.221 0 1
37.3369 0 1
37.4529 0 1
37.5687 0 1
37.6845 0 1
37.8003 0 1
37.916 0 1
38.0316 0 1
38.1472 0 1
40.5851 0 1
40.7008 0 1
40.8164 0 1
40.9322 0 1
41.048 0 1
41.1639 0 1
41.2798 0 1
41.3958 0 1
41.5118 0 1
41.6279 0 1
41.744 5263 72.5465
41.8602 5584 74.7262
41.9765 5839 76.4133
42.0928 5710 75.5645
42.2091 5657 75.213
42.3255 5438 73.7428
42.4419 4941 70.2922
42.5584 4649 68.1836
42.675 4473 66.8805
42.7915 4520 67.2309
42.9081 4770 69.0652
43.0248 4896 69.9714
43.1415 5163 71.854
43.2582 5348 73.13
43.375 5252 72.4707
43.4918 5318 72.9246
43.6087 5356 73.1847
43.7256 5268 72.581
43.8425 5180 71.9722
43.9595 5159 71.8262
44.0765 5021 70.859
44.1935 4928 70.1997
44.3106 4723 68.7241
44.4277 4619 67.9632
44.5448 4516 67.2012
44.6619 4275 65.3835
44.7791 4333 65.8255
44.8963 4428 66.5432
45.0136 4429 66.5507
45.1308 4344 65.909
45.2481 4513 67.1789
45.3654 4551 67.4611
45.4827 4614 67.9264
45.6001 4618 67.9559
45.7174 4397 66.3099
45.8348 4320 65.7267
45.9522 4083 63.8984
46.0697 3782 61.498
46.1871 3375 58.0948
46.3046 3365 58.0086
46.422 3484 59.0254
46.5395 3708 60.8933
46.657 3885 62.3298
46.7745 3856 62.0967
46.892 4007 63.3009
47.0096 3948 62.8331
47.1271 4197 64.7843
47.2446 4133 64.2884
47.3622 4146 64.3894
47.4797 3982 63.1031
47.5973 3918 62.5939
47.7149 3826 61.8547
47.8324 3873 62.2334
47.95 3721 61
48.0675 3656 60.4649
48.1851 3479 58.983
48.3027 3506 59.2115
48.4202 3510 59.2453
48.5378 3467 58.8812
48.6554 3723 61.0164
48.7729 3811 61.7333
48.8904 3826 61.8547
49.008 3893 62.3939
49.1255 3806 61.6928
49.243 3784 61.5142
49.3605 3629 60.2412
49.478 3465 58.8643
49.5955 3220 56.745
49.713 3008 54.8452
49.8304 2921 54.0463
49.9479 3098 55.6597
50.0653 3485 59.0339
50.1827 3591 59.925
50.3001 3762 61.3351
50.4175 3892 62.3859
50.5348 3867 62.1852
50.6521 4048 63.6239
50.7694 4146 64.3894
50.8867 4243 65.1383
51.004 4265 65.307
51.1212 4155 64.4593
51.2384 4290 65.4981
51.3556 4240 65.1153
51.4727 4197 64.7843
51.5899 4191 64.7379
51.707 4143 64.3661
51.824 4021 63.4114
51.9411 4224 64.9923
52.0581 4338 65.8635
52.175 4683 68.4324
52.2919 4935 70.2496
52.4088 5077 71.2531
52.5257 4972 70.5124
52.6425 5112 71.4983
52.7593 5115 71.5192
52.876 4918 70.1285
52.9927 4753 68.942
53.1094 4502 67.0969
53.226 4296 65.5439
53.3426 4060 63.7181
53.4591 3975 63.0476
53.5756 4374 66.1362
53.692 4528 67.2904
53.8084 4790 69.2098
53.9248 5093 71.3653
54.0411 5158 71.8192
54.1573 5202 72.1249
54.2735 0 1
54.3896 0 1
54.5057 0 1
54.6217 0 1
54.7377 0 1
54.8537 0 1
54.9695 0 1
55.0853 0 1
55.2011 0 1
55.3168 0 1
55.4324 0 1
57.824 0 1
57.9396 0 1
58.0553 0 1
58.1711 0 1
58.2869 0 1
58.4028 0 1
58.5187 0 1
58.6347 0 1
58.7508 0 1
58.8669 0 1
58.983 5621 74.9733
59.0992 6018 77.5758
59.2155 6368 79.7997
59.3318 6284 79.2717
59.4482 6414 80.0875
59.5646 6603 81.2588
59.681 6791 82.4075
59.7975 6598 81.2281
59.9141 6606 81.2773
60.0306 6367 79.7935
60.1473 6209 78.7972
60.2639 6129 78.2879
60.3807 5826 76.3282
60.4974 5815 76.2561
60.6142 5785 76.0592
60.731 6026 77.6273
60.8479 6141 78.3645
60.9648 6110 78.1665
61.0818 6479 80.4922
61.1987 6410 80.0625
61.3158 6300 79.3725
61.4328 6180 78.613
61.5499 5912 76.8895
61.667 5664 75.2596
61.7841 5181 71.9792
61.9013 4929 70.2068
62.0185 4789 69.2026
62.1357 4892 69.9428
62.253 5284 72.6911
62.3702 5547 74.4782
62.4875 5735 75.7298
62.6049 5890 76.7463
62.7222 6096 78.0769
62.8396 6046 77.756
62.9569 6431 80.1935
63.0743 6406 80.0375
63.1918 6382 79.8874
63.3092 6390 79.9375
63.4267 6201 78.7464
63.5441 6111 78.1729
63.6616 6096 78.0769
63.7791 5846 76.4591
63.8966 5650 75.1665
64.0142 5422 73.6342
64.1317 5511 74.2361
64.2492 5506 74.2024
64.3668 5681 75.3724
64.4843 5989 77.3886
64.6019 6154 78.4474
64.7195 6070 77.9102
64.837 6246 79.0316
64.9546 6062 77.8588
65.0722 5856 76.5245
65.1898 5620 74.9667
65.3074 5236 72.3602
65.4249 4752 68.9348
65.5425 4513 67.1789
65.6601 4441 66.6408
65.7777 4641 68.1249
65.8952 5122 71.5681
66.0128 5564 74.5922
66.1304 5596 74.8064
66.2479 5787 76.0723
66.3655 5753 75.8485
66.483 6068 77.8974
66.6005 6102 78.1153
66.718 6146 78.3964
66.8355 6227 78.9113
66.953 6349 79.6806
67.0705 6090 78.0385
67.1879 6189 78.6702
67.3054 5932 77.0195
67.4228 5696 75.4718
67.5402 5463 73.9121
67.6576 5235 72.3533
67.7749 5256 72.4983
67.8923 5353 73.1642
68.0096 5691 75.4387
68.1269 5954 77.1622
68.2442 5984 77.3563
68.3614 6101 78.1089
68.4787 6107 78.1473
68.5958 6104 78.1281
68.713 5993 77.4145
68.8302 5671 75.306
68.9473 5191 72.0486
69.0643 4822 69.4406
69.1814 4718 68.6877
69.2984 4658 68.2495
69.4154 4998 70.6965
69.5323 5104 71.4423
69.6492 5532 74.3774
69.7661 5948 77.1233
69.8829 5959 77.1946
69.9997 6321 79.5047
70.1165 6423 80.1436
70.2332 6652 81.5598
70.3499 6596 81.2158
70.4665 6788 82.3893
70.5831 6645 81.5169
70.6996 6603 81.2588
70.8161 6603 81.2588
70.9326 6349 79.6806
71.049 6105 78.1345
71.1653 5710 75.5645
71.2817 5425 73.6546
71.3979 5283 72.6842
71.5141 5371 73.2871
71.6303 5259 72.519
71.7464 5238 72.374
71.8624 0 1
71.9784 0 1
72.0944 0 1
72.2102 0 1
72.3261 0 1
72.4418 0 1
72.5575 0 1
72.6732 0 1
75.1054 0 1
75.2209 0 1
75.3365 0 1
75.4521 0 1
75.5678 0 1
75.6835 0 1
75.7993 0 1
75.9151 0 1
76.031 0 1
76.147 5796 76.1315
76.263 6027 77.6338
76.3791 5882 76.6942
76.4952 5354 73.171
76.6113 5404 73.5119
76.7276 5585 74.7329
76.8438 6057 77.8267
76.9601 6384 79.8999
77.0765 6544 80.895
77.1929 6633 81.4432
77.3093 6445 80.2808
77.4258 6532 80.8208
77.5423 6237 78.9747
77.6589 5688 75.4188
77.7755 5351 73.1505
77.8921 4959 70.4202
78.0088 4714 68.6586
78.1256 4517 67.2086
78.2423 4642 68.1322
78.3591 5017 70.8308
78.4759 5557 74.5453
78.5928 5870 76.6159
78.7097 5995 77.4274
78.8266 6115 78.1985
78.9436 6631 81.431
79.0606 6506 80.6598
79.1776 6607 81.2835
79.2946 6751 82.1645
79.4117 6663 81.6272
79.5288 6577 81.0987
79.6459 6667 81.6517
79.7631 6537 80.8517
79.8802 6239 78.9873
79.9974 5861 76.5572
80.1147 5554 74.5252
80.2319 5250 72.4569
80.3491 5734 75.7232
80.4664 6128 78.2815
80.5837 6339 79.6178
80.701 6407 80.0437
80.8183 6391 79.9437
80.9357 6574 81.0802
81.053 6393 79.9562
81.1704 6250 79.0569
81.2877 5952 77.1492
81.4051 5332 73.0205
81.5225 5100 71.4143
81.6399 4563 67.55
81.7573 4557 67.5056
81.8747 4464 66.8132
81.9922 4909 70.0643
82.1096 5463 73.9121
82.227 5719 75.6241
82.3444 6022 77.6015
82.4619 6278 79.2338
82.5793 6587 81.1603
82.6967 6512 80.697
82.8142 6779 82.3347
82.9316 6553 80.9506
83.049 6847 82.7466
83.1664 6723 81.9939
83.2838 6506 80.6598
83.4012 6503 80.6412
83.5186 6221 78.8733
83.636 5842 76.433
83.7534 5342 73.089
83.8708 5317 72.9178
83.9881 5427 73.6682
84.1055 5887 76.7268
84.2228 6556 80.9691
84.3401 6518 80.7341
84.4575 6609 81.2958
84.5747 6635 81.4555
84.692 6449 80.3057
84.8093 6079 77.9679
84.9265 5658 75.2197
85.0437 5269 72.5879
85.1609 4846 69.6132
85.2781 4747 68.8985
85.3952 4604 67.8528
85.5123 4941 70.2922
85.6294 5303 72.8217
85.7465 5648 75.1532
85.8636 6117 78.2113
85.9806 6363 79.7684
86.0976 6552 80.9444
86.2145 6739 82.0914
86.3315 6953 83.3847
86.4484 6906 83.1023
86.5652 7055 83.994
86.682 7098 84.2496
86.7988 7237 85.0706
86.9156 6952 83.3787
87.0323 6638 81.4739
87.149 6375 79.8436
87.2657 6192 78.6893
87.3823 5712 75.5778
87.4988 5873 76.6355
87.6154 6335 79.5927
87.7318 6781 82.3468
87.8483 6947 83.3487
87.9647 6854 82.7889
88.081 6897 83.0482
88.1973 6710 81.9146
88.3136 6606 81.2773
88.4298 5889 76.7398
88.546 5520 74.2967
88.6621 5331 73.0137
88.7781 4974 70.5266
88.8942 0 1
89.0101 0 1
89.126 0 1
89.2419 0 1
89.3577 0 1
89.4734 0 1
89.5891 0 1
89.7047 0 1
89.8203 0 1
89.9358 0 1
92.3269 0 1
92.4424 0 1
92.558 0 1
92.6736 0 1
92.7893 0 1
92.905 0 1
93.0208 0 1
93.1366 0 1
93.2525 0 1
93.3685 0 1
93.4845 0 1
93.6005 5822 76.302
93.7167 5489 74.0878
93.8328 5247 72.4362
93.949 5052 71.0774
94.0653 4874 69.814
94.1816 4852 69.6563
94.2979 5060 71.1337
94.4143 5560 74.5654
94.5307 5747 75.809
94.6472 6080 77.9744
94.7637 6371 79.8185
94.8803 6477 80.4798
94.9969 6781 82.3468
95.1135 6789 82.3954
95.2302 7002 83.678
95.3469 6903 83.0843
95.4637 7079 84.1368
95.5805 7062 84.0357
95.6973 6966 83.4626
95.8142 7064 84.0476
95.9311 6752 82.1706
96.048 6356 79.7245
96.1649 6241 79
96.2819 5872 76.629
96.3989 5552 74.5117
96.516 5964 77.2269
96.633 6315 79.467
96.7501 6775 82.3104
96.8673 6760 82.2192
96.9844 6819 82.5772
97.1016 6866 82.8613
97.2188 6522 80.7589
97.336 6136 78.3326
97.4532 5771 75.9671
97.5704 5420 73.6206
97.6877 5231 72.3257
97.805 4900 70
97.9223 4825 69.4622
98.0396 5064 71.1618
98.1569 5504 74.1889
98.2743 5723 75.6505
98.3916 6123 78.2496
98.509 6262 79.1328
98.6264 6396 79.975
98.7438 6756 82.1949
98.8612 6820 82.5833
98.9786 6821 82.5893
99.096 6797 82.4439
99.2134 6850 82.7647
99.3308 6925 83.2166
99.4482 6683 81.7496
99.5656 6743 82.1158
99.6831 6486 80.5357
99.8005 6081 77.9808
99.9179 5736 75.7364
100.035 5643 75.1199
100.153 5997 77.4403
100.27 6345 79.6555
100.388 6626 81.4002
100.505 6596 81.2158
100.622 6665 81.6395
100.74 6585 81.148
100.857 6368 79.7997
100.975 6228 78.9177
101.092 5773 75.9803
101.209 5332 73.0205
101.327 5144 71.7217
101.444 5034 70.9507
101.561 4924 70.1712
101.679 5033 70.9436
101.796 5613 74.92
101.913 6057 77.8267
102.03 6278 79.2338
102.148 6618 81.3511
102.265 6380 79.8749
102.382 7439 86.2496
102.499 7092 84.214
102.616 7186 84.7703
102.733 7182 84.7467
102.851 7318 85.5453
102.968 7275 85.2936
103.085 7122 84.3919
103.202 7171 84.6818
103.319 6688 81.7802
103.436 6313 79.4544
103.552 6317 79.4796
103.669 6438 80.2371
103.786 6911 83.1324
103.903 7201 84.8587
104.02 7309 85.4927
104.137 7187 84.7762
104.253 7219 84.9647
104.37 7004 83.6899
104.487 6704 81.878
104.603 6169 78.543
104.72 5730 75.6968
104.836 5451 73.8309
104.953 5202 72.1249
105.069 5348 73.13
105.186 5736 75.7364
105.302 6204 78.7655
105.418 6582 81.1295
105.535 6656 81.5843
105.651 7075 84.113
105.767 7289 85.3756
105.883 7451 86.3192
105.999 7499 86.5968
106.115 0 1
106.231 0 1
106.347 0 1
106.463 0 1
106.579 0 1
106.694 0 1
106.81 0 1
106.926 0 1
107.041 0 1
107.157 0 1
109.576 0 1
109.692 0 1
109.807 0 1
109.923 0 1
110.039 0 1
110.155 0 1
110.27 0 1
110.386 0 1
110.502 0 1
110.618 5973 77.2852
110.735 6290 79.3095
110.851 6356 79.7245
110.967 6459 80.3679
111.083 6507 80.666
111.199 6747 82.1401
111.316 6685 81.7618
111.432 6619 81.3572
111.549 6594 81.2034
111.665 6466 80.4114
111.782 6069 77.9038
111.898 5790 76.092
112.015 5545 74.4648
112.132 5627 75.0133
112.248 6163 78.5048
112.365 6175 78.5812
112.482 6528 80.796
112.599 6052 77.7946
112.716 6138 78.3454
112.832 5986 77.3692
112.949 5469 73.9527
113.066 5196 72.0833
113.183 4957 70.406
113.3 4476 66.9029
113.417 4398 66.3174
113.534 4131 64.2729
113.652 4290 65.4981
113.769 4422 66.4981
113.886 4785 69.1737
114.003 4919 70.1356
114.12 5209 72.1734
114.238 5184 72
114.355 5318 72.9246
114.472 5433 73.7089
114.589 5291 72.7393
114.707 5419 73.6139
114.824 5278 72.6498
114.942 5483 74.0473
115.059 5275 72.6292
115.176 5269 72.5879
115.294 4840 69.5701
115.411 4558 67.513
115.529 4332 65.8179
115.646 4272 65.3605
115.764 4576 67.6461
115.881 4783 69.1592
115.999 4845 69.606
116.116 4581 67.6831
116.234 4555 67.4907
116.351 4483 66.9552
116.469 4321 65.7343
116.586 4067 63.773
116.704 3754 61.2699
116.821 3607 60.0583
116.939 3380 58.1378
117.056 3307 57.5065
117.174 3308 57.5152
117.291 3407 58.3695
117.409 3580 59.8331
117.526 3681 60.6712
117.644 3885 62.3298
117.761 4048 63.6239
117.879 4244 65.146
117.996 4122 64.2028
118.114 4334 65.8331
118.231 4434 66.5883
118.349 4447 66.6858
118.466 4443 66.6558
118.584 4415 66.4455
118.701 4362 66.0454
118.819 4498 67.0671
118.936 4145 64.3817
119.053 3925 62.6498
119.171 3775 61.441
119.288 3905 62.49
119.405 4307 65.6277
119.523 4418 66.468
119.64 4323 65.7495
119.757 4588 67.7348
119.875 4590 67.7495
119.992 4423 66.5056
120.109 4278 65.4064
120.226 4122 64.2028
120.343 3860 62.1289
120.46 3739 61.1474
120.578 3653 60.4401
120.695 3546 59.5483
120.812 3475 58.9491
120.929 3713 60.9344
121.046 3853 62.0725
121.163 3982 63.1031
121.279 4257 65.2457
121.396 4394 66.2873
121.513 4687 68.4617
121.63 4596 67.7938
121.747 4903 70.0214
121.863 4870 69.7854
121.98 5119 71.5472
122.097 4930 70.214
122.213 5009 70.7743
122.33 5265 72.5603
122.446 5086 71.3162
122.563 5020 70.852
122.679 5018 70.8378
122.795 4729 68.7677
122.912 4733 68.7968
123.028 4567 67.5796
123.144 4942 70.2994
123.26 5251 72.4638
123.377 0 1
123.493 0 1
123.609 0 1
123.725 0 1
123.84 0 1
123.956 0 1
124.072 0 1
124.188 0 1
124.303 0 1
124.419 0 1
126.852 0 1
126.968 0 1
127.083 0 1
127.199 0 1
127.315 0 1
127.431 0 1
127.547 0 1
127.663 0 1
127.779 0 1
127.895 0 1
128.011 0 1
128.127 0 1
128.243 0 1
128.359 5541 74.4379
128.476 5849 76.4788
128.592 6165 78.5175
128.708 6100 78.1025
128.825 6170 78.5493
128.941 6212 78.8162
129.058 6010 77.5242
129.174 5901 76.818
129.291 5665 75.2662
129.408 5282 72.6774
129.524 5240 72.3878
129.641 4748 68.9057
129.758 4818 69.4118
129.875 4672 68.352
129.992 4826 69.4694
130.108 4971 70.5053
130.225 5125 71.5891
130.342 5182 71.9861
130.459 5380 73.3485
130.576 5299 72.7942
130.693 5548 74.4849
130.81 5440 73.7564
130.928 5350 73.1437
131.045 5630 75.0333
131.162 5581 74.7061
131.279 5669 75.2928
131.396 5665 75.2662
131.513 5650 75.1665
131.631 5221 72.2565
131.748 5042 71.007
131.865 4971 70.5053
131.983 5190 72.0417
132.1 5361 73.2189
132.217 5484 74.054
132.335 5470 73.9594
132.452 5302 72.8148
132.57 5301 72.808
132.687 5119 71.5472
132.804 5005 70.746
132.922 4716 68.6731
133.039 4532 67.3201
133.157 4381 66.1891
133.274 4134 64.2962
133.392 3936 62.7375
133.509 3987 63.1427
133.627 4266 65.3146
133.744 4467 66.8356
133.862 4447 66.6858
133.979 4377 66.1589
134.097 4385 66.2193
134.214 4519 67.2235
134.332 4352 65.9697
134.449 4541 67.3869
134.567 4523 67.2533
134.684 4474 66.888
134.802 4464 66.8132
134.919 4479 66.9253
135.037 4386 66.2269
135.154 4248 65.1767
135.272 4035 63.5216
135.389 3888 62.3538
135.507 3872 62.2254
135.624 4137 64.3195
135.742 4195 64.7688
135.859 4233 65.0615
135.977 4137 64.3195
136.094 4038 63.5453
136.211 3979 63.0793
136.329 3714 60.9426
136.446 3654 60.4483
136.564 3489 59.0678
136.681 3374 58.0861
136.798 3342 57.81
136.915 3214 56.6922
137.033 3179 56.3826
137.15 3196 56.5332
137.267 3380 58.1378
137.384 3311 57.5413
137.502 3354 57.9137
137.619 3455 58.7792
137.736 3598 59.9833
137.853 3539 59.4895
137.97 3620 60.1664
138.087 3765 61.3596
138.204 3836 61.9355
138.321 3891 62.3779
138.438 3886 62.3378
138.555 3916 62.578
138.672 3987 63.1427
138.788 3895 62.4099
138.905 3929 62.6817
139.022 3703 60.8523
139.139 3881 62.2977
139.255 4153 64.4438
139.372 4297 65.5515
139.488 4412 66.4229
139.605 4369 66.0984
139.721 4493 67.0298
139.838 4528 67.2904
139.954 4427 66.5357
140.071 4168 64.56
140.187 4137 64.3195
140.303 3929 62.6817
140.419 3989 63.1585
140.535 3844 62
140.652 3713 60.9344
140.768 0 1
140.884 0 1
141 0 1
141.115 0 1
141.231 0 1
141.347 0 1
141.463 0 1
141.578 0 1
141.694 0 1
144.104 0 1
144.219 0 1
144.335 0 1
144.45 0 1
144.566 0 1
144.682 0 1
144.798 0 1
144.914 0 1
145.03 0 1
145.146 3682 60.6795
145.262 3632 60.2661
145.378 3452 58.7537
145.494 3361 57.9741
145.61 3201 56.5774
145.726 3123 55.8838
145.842 3087 55.5608
145.959 3220 56.745
146.075 3216 56.7098
146.192 3183 56.4181
146.308 3278 57.2538
146.425 3287 57.3324
146.541 3143 56.0625
146.658 3318 57.6021
146.774 3263 57.1227
146.891 3197 56.542
147.008 3312 57.55
147.125 3199 56.5597
147.241 3327 57.6802
147.358 3252 57.0263
147.475 3173 56.3294
147.592 3116 55.8211
147.709 3001 54.7814
147.826 3045 55.1815
147.943 3099 55.6687
148.06 3149 56.116
148.177 3263 57.1227
148.294 3165 56.2583
148.411 3076 55.4617
148.528 3064 55.3534
148.645 2918 54.0185
148.762 2959 54.3967
148.88 2763 52.5642
148.997 2764 52.5738
149.114 2499 49.99
149.231 2513 50.1298
149.349 2403 49.0204
149.466 2438 49.3761
149.583 2422 49.2138
149.701 2454 49.5379
149.818 2485 49.8498
149.935 2525 50.2494
150.053 2617 51.1566
150.17 2592 50.9117
150.287 2683 51.7977
150.405 2625 51.2348
150.522 2751 52.45
150.64 2815 53.0566
150.757 2717 52.1249
150.875 2845 53.3385
150.992 2809 53
151.11 2852 53.4041
151.227 2785 52.7731
151.344 2738 52.3259
151.462 2702 51.9808
151.579 2900 53.8516
151.697 2995 54.7266
151.814 3028 55.0273
151.932 2967 54.4702
152.049 3087 55.5608
152.167 3070 55.4076
152.284 3037 55.109
152.402 2902 53.8702
152.519 3034 55.0818
152.636 2751 52.45
152.754 2831 53.2071
152.871 2739 52.3355
152.989 2654 51.517
153.106 2734 52.2877
153.223 2703 51.9904
153.341 2760 52.5357
153.458 2737 52.3163
153.575 2911 53.9537
153.693 2961 54.4151
153.81 3027 55.0182
153.927 3136 56
154.044 3140 56.0357
154.162 3101 55.6866
154.279 3257 57.0701
154.396 3440 58.6515
154.513 3349 57.8705
154.63 3538 59.4811
154.747 3469 58.8982
154.864 3432 58.5833
154.981 3302 57.463
155.098 3452 58.7537
155.215 3621 60.1747
155.332 3601 60.0083
155.449 3654 60.4483
155.566 3778 61.4654
155.683 3875 62.2495
155.8 3709 60.9016
155.917 3729 61.0655
156.033 3592 59.9333
156.15 0 1
156.267 0 1
156.383 0 1
156.5 0 1
156.617 0 1
156.733 0 1
156.85 0 1
156.966 0 1
157.082 0 1
157.199 0 1
157.315 0 1
157.431 0 1
157.547 0 1
157.664 0 1
157.78 0 1
157.896 0 1
158.012 0 1
158.128 0 1
158.244 0 1
158.359 0 1
158.475 0 1
158.591 0 1
158.706 0 1
