
6.15755 0 1
6.2731 0 1
6.3887 0 1
6.50437 0 1
6.62009 0 1
6.73587 0 1
6.8517 0 1
6.96759 0 1
7.08353 0 1
7.19952 0 1
7.31557 0 1
7.43166 0 1
7.54781 0 1
7.664 0 1
7.78024 0 1
7.89653 0 1
8.01286 0 1
8.12924 0 1
8.24567 0 1
8.36213 0 1
8.47864 0 1
8.59519 0 1
8.71178 0 1
8.82841 0 1
8.94508 0 1
9.06179 0 1
9.17853 0 1
9.29531 0 1
9.41212 0 1
9.52897 0 1
9.64584 0 1
9.76276 0 1
9.8797 0 1
9.99667 0 1
10.1137 0 1
10.2307 0 1
10.3478 0 1
10.4648 0 1
10.5819 0 1
10.6991 0 1
10.8162 0 1
10.9334 0 1
11.0506 0 1
11.1678 0 1
11.285 0 1
11.4023 0 1
11.5196 0 1
11.6369 0 1
11.7542 0 1
11.8715 0 1
11.9888 0 1
12.1062 0 1
12.2235 0 1
12.3409 0 1
12.4582 0 1
12.5756 0 1
12.693 0 1
12.8104 0 1
12.9278 0 1
13.0452 0 1
13.1626 0 1
13.28 0 1
13.3974 0 1
13.5149 0 1
13.6323 0 1
13.7497 0 1
13.8671 0 1
13.9845 0 1
14.1019 0 1
14.2193 0 1
14.3367 0 1
14.4541 0 1
14.5714 0 1
14.6888 0 1
14.8062 0 1
14.9235 0 1
15.0408 1016 31.8748
15.1581 1075 32.7872
15.2755 1184 34.4093
15.3927 1079 32.8481
15.51 1149 33.8969
15.6273 1088 32.9848
15.7445 1023 31.9844
15.8617 1027 32.0468
15.9789 930 30.4959
16.0961 955 30.9031
16.2132 1004 31.686
16.3304 900 30
16.4475 932 30.5287
16.5646 991 31.4802
16.6816 940 30.6594
16.7986 932 30.5287
16.9156 952 30.8545
17.0326 893 29.8831
17.1496 832 28.8444
17.2665 927 30.4467
17.3833 854 29.2233
17.5002 904 30.0666
17.617 916 30.2655
17.7338 939 30.6431
17.8505 882 29.6985
17.9672 895 29.9166
18.0839 862 29.3598
18.2005 788 28.0713
18.3171 854 29.2233
18.4337 865 29.4109
18.5502 838 28.9482
18.6666 899 29.9833
18.7831 912 30.1993
18.8994 871 29.5127
19.0158 837 28.931
19.1321 853 29.2062
19.2483 761 27.5862
19.3645 745 27.2947
19.4806 714 26.7208
19.5967 709 26.6271
19.7128 643 25.3574
19.8288 652 25.5343
19.9447 545 23.3452
20.0606 0 1
20.1764 0 1
20.2922 0 1
20.4079 0 1
20.5236 0 1
20.6392 0 1
20.7548 0 1
20.8702 0 1
23.3078 0 1
23.4233 0 1
23.539 0 1
23.6547 0 1
23.7704 0 1
23.8862 0 1
24.0021 0 1
24.118 0 1
24.234 0 1
24.35 0 1
24.4661 369 19.2094
24.5822 484 22
24.6984 493 22.2036
24.8146 593 24.3516
24.9309 697 26.4008
25.0472 753 27.4408
25.1636 819 28.6182
25.28 855 29.2404
25.3965 920 30.3315
25.513 865 29.4109
25.6296 985 31.3847
25.7462 998 31.5911
25.8628 1007 31.7333
25.9795 915 30.249
26.0962 911 30.1828
26.213 959 30.9677
26.3298 922 30.3645
26.4466 874 29.5635
26.5635 854 29.2233
26.6804 755 27.4773
26.7973 764 27.6405
26.9143 748 27.3496
27.0313 759 27.55
27.1483 778 27.8927
27.2653 753 27.4408
27.3824 835 28.8964
27.4996 823 28.688
27.6167 845 29.0689
27.7339 813 28.5132
27.8511 827 28.7576
27.9683 886 29.7658
28.0855 864 29.3939
28.2028 871 29.5127
28.3201 805 28.3725
28.4374 887 29.7825
28.5547 826 28.7402
28.6721 834 28.8791
28.7894 868 29.4618
28.9068 862 29.3598
29.0242 836 28.9137
29.1416 843 29.0345
29.259 865 29.4109
29.3764 847 29.1033
29.4939 862 29.3598
29.6113 789 28.0891
29.7288 789 28.0891
29.8463 782 27.9643
29.9638 745 27.2947
30.0812 707 26.5895
30.1987 717 26.7769
30.3162 671 25.9037
30.4337 741 27.2213
30.5512 751 27.4044
30.6687 836 28.9137
30.7862 812 28.4956
30.9037 782 27.9643
31.0212 840 28.9828
31.1387 877 29.6142
31.2562 911 30.1828
31.3737 898 29.9666
31.4912 892 29.8664
31.6087 880 29.6648
31.7262 802 28.3196
31.8436 868 29.4618
31.9611 836 28.9137
32.0785 773 27.8029
32.1959 823 28.688
32.3134 823 28.688
32.4308 799 28.2666
32.5482 792 28.1425
32.6655 796 28.2135
32.7829 769 27.7308
32.9002 775 27.8388
33.0176 772 27.7849
33.1349 706 26.5707
33.2522 721 26.8514
33.3694 756 27.4955
33.4867 713 26.7021
33.6039 714 26.7208
33.7211 668 25.8457
33.8383 692 26.3059
33.9554 713 26.7021
34.0725 695 26.3629
34.1896 731 27.037
34.3067 706 26.5707
34.4237 737 27.1477
34.5407 742 27.2397
34.6577 815 28.5482
34.7746 833 28.8617
34.8915 776 27.8568
35.0084 842 29.0172
35.1252 847 29.1033
35.242 769 27.7308
35.3587 751 27.4044
35.4755 758 27.5318
35.5921 725 26.9258
35.7088 732 27.0555
35.8254 749 27.3679
35.9419 766 27.6767
36.0584 759 27.55
36.1749 749 27.3679
36.2913 681 26.096
36.4077 658 25.6515
36.524 629 25.0799
36.6403 623 24.96
36.7565 590 24.2899
36.8727 485 22.0227
36.9889 518 22.7596
37.1049 485 22.0227
37.221 0 1
37.3369 0 1
37.4529 0 1
37.5687 0 1
37.6845 0 1
37.8003 0 1
37.916 0 1
38.0316 0 1
38.1472 0 1
40.5851 0 1
40.7008 0 1
40.8164 0 1
40.9322 0 1
41.048 0 1
41.1639 0 1
41.2798 0 1
41.3958 0 1
41.5118 0 1
41.6279 0 1
41.744 360 18.9737
41.8602 444 21.0713
41.9765 444 21.0713
42.0928 493 22.2036
42.2091 532 23.0651
42.3255 529 23
42.4419 555 23.5584
42.5584 564 23.7487
42.675 529 23
42.7915 531 23.0434
42.9081 561 23.6854
43.0248 522 22.8473
43.1415 565 23.7697
43.2582 550 23.4521
43.375 566 23.7908
43.4918 548 23.4094
43.6087 543 23.3024
43.7256 619 24.8797
43.8425 598 24.454
43.9595 560 23.6643
44.0765 570 23.8747
44.1935 585 24.1868
44.3106 570 23.8747
44.4277 587 24.2281
44.5448 561 23.6854
44.6619 609 24.6779
44.7791 549 23.4307
44.8963 600 24.4949
45.0136 658 25.6515
45.1308 587 24.2281
45.2481 670 25.8844
45.3654 613 24.7588
45.4827 609 24.6779
45.6001 589 24.2693
45.7174 579 24.0624
45.8348 618 24.8596
45.9522 537 23.1733
46.0697 541 23.2594
46.1871 528 22.9783
46.3046 532 23.0651
46.422 562 23.7065
46.5395 533 23.0868
46.657 481 21.9317
46.7745 469 21.6564
46.892 533 23.0868
47.0096 533 23.0868
47.1271 580 24.0832
47.2446 601 24.5153
47.3622 527 22.9565
47.4797 579 24.0624
47.5973 591 24.3105
47.7149 549 23.4307
47.8324 555 23.5584
47.95 520 22.8035
48.0675 526 22.9347
48.1851 529 23
48.3027 601 24.5153
48.4202 581 24.1039
48.5378 573 23.9374
48.6554 569 23.8537
48.7729 563 23.7276
48.8904 566 23.7908
49.008 551 23.4734
49.1255 563 23.7276
49.243 553 23.516
49.3605 533 23.0868
49.478 487 22.0681
49.5955 501 22.383
49.713 472 21.7256
49.8304 511 22.6053
49.9479 502 22.4054
50.0653 505 22.4722
50.1827 522 22.8473
50.3001 476 21.8174
50.4175 531 23.0434
50.5348 506 22.4944
50.6521 547 23.388
50.7694 508 22.5389
50.8867 571 23.8956
51.004 575 23.9792
51.1212 558 23.622
51.2384 535 23.1301
51.3556 573 23.9374
51.4727 507 22.5167
51.5899 513 22.6495
51.707 556 23.5797
51.824 594 24.3721
51.9411 542 23.2809
52.0581 514 22.6716
52.175 515 22.6936
52.2919 560 23.6643
52.4088 570 23.8747
52.5257 540 23.2379
52.6425 555 23.5584
52.7593 548 23.4094
52.876 498 22.3159
52.9927 521 22.8254
53.1094 473 21.7486
53.226 461 21.4709
53.3426 489 22.1133
53.4591 514 22.6716
53.5756 481 21.9317
53.692 452 21.2603
53.8084 386 19.6469
53.9248 370 19.2354
54.0411 365 19.105
54.1573 311 17.6352
54.2735 0 1
54.3896 0 1
54.5057 0 1
54.6217 0 1
54.7377 0 1
54.8537 0 1
54.9695 0 1
55.0853 0 1
55.2011 0 1
55.3168 0 1
55.4324 0 1
57.824 0 1
57.9396 0 1
58.0553 0 1
58.1711 0 1
58.2869 0 1
58.4028 0 1
58.5187 0 1
58.6347 0 1
58.7508 0 1
58.8669 0 1
58.983 386 19.6469
59.0992 525 22.9129
59.2155 600 24.4949
59.3318 652 25.5343
59.4482 687 26.2107
59.5646 706 26.5707
59.681 715 26.7395
59.7975 810 28.4605
59.9141 788 28.0713
60.0306 770 27.7489
60.1473 777 27.8747
60.2639 838 28.9482
60.3807 869 29.4788
60.4974 872 29.5296
60.6142 815 28.5482
60.731 804 28.3549
60.8479 823 28.688
60.9648 797 28.2312
61.0818 760 27.5681
61.1987 774 27.8209
61.3158 708 26.6083
61.4328 718 26.7955
61.5499 679 26.0576
61.667 680 26.0768
61.7841 655 25.593
61.9013 706 26.5707
62.0185 674 25.9615
62.1357 691 26.2869
62.253 683 26.1343
62.3702 703 26.5141
62.4875 683 26.1343
62.6049 653 25.5539
62.7222 673 25.9422
62.8396 692 26.3059
62.9569 655 25.593
63.0743 683 26.1343
63.1918 697 26.4008
63.3092 665 25.7876
63.4267 667 25.8263
63.5441 659 25.671
63.6616 652 25.5343
63.7791 663 25.7488
63.8966 675 25.9808
64.0142 682 26.1151
64.1317 666 25.807
64.2492 644 25.3772
64.3668 684 26.1534
64.4843 653 25.5539
64.6019 628 25.0599
64.7195 597 24.4336
64.837 599 24.4745
64.9546 599 24.4745
65.0722 533 23.0868
65.1898 570 23.8747
65.3074 565 23.7697
65.4249 594 24.3721
65.5425 566 23.7908
65.6601 577 24.0208
65.7777 607 24.6374
65.8952 614 24.779
66.0128 609 24.6779
66.1304 568 23.8328
66.2479 605 24.5967
66.3655 595 24.3926
66.483 582 24.1247
66.6005 606 24.6171
66.718 652 25.5343
66.8355 619 24.8797
66.953 646 25.4165
67.0705 696 26.3818
67.1879 620 24.8998
67.3054 606 24.6171
67.4228 657 25.632
67.5402 623 24.96
67.6576 611 24.7184
67.7749 589 24.2693
67.8923 637 25.2389
68.0096 635 25.1992
68.1269 614 24.779
68.2442 629 25.0799
68.3614 562 23.7065
68.4787 602 24.5357
68.5958 533 23.0868
68.713 564 23.7487
68.8302 537 23.1733
68.9473 565 23.7697
69.0643 533 23.0868
69.1814 551 23.4734
69.2984 572 23.9165
69.4154 596 24.4131
69.5323 555 23.5584
69.6492 575 23.9792
69.7661 618 24.8596
69.8829 594 24.3721
69.9997 604 24.5764
70.1165 575 23.9792
70.2332 592 24.3311
70.3499 561 23.6854
70.4665 508 22.5389
70.5831 517 22.7376
70.6996 454 21.3073
70.8161 440 20.9762
70.9326 424 20.5913
71.049 397 19.9249
71.1653 345 18.5742
71.2817 350 18.7083
71.3979 317 17.8045
71.5141 318 17.8326
71.6303 247 15.7162
71.7464 199 14.1067
71.8624 0 1
71.9784 0 1
72.0944 0 1
72.2102 0 1
72.3261 0 1
72.4418 0 1
72.5575 0 1
72.6732 0 1
75.1054 0 1
75.2209 0 1
75.3365 0 1
75.4521 0 1
75.5678 0 1
75.6835 0 1
75.7993 0 1
75.9151 0 1
76.031 0 1
76.147 356 18.868
76.263 455 21.3307
76.3791 451 21.2368
76.4952 465 21.5639
76.6113 529 23
76.7276 530 23.0217
76.8438 542 23.2809
76.9601 538 23.1948
77.0765 545 23.3452
77.1929 532 23.0651
77.3093 536 23.1517
77.4258 530 23.0217
77.5423 466 21.587
77.6589 453 21.2838
77.7755 418 20.445
77.8921 435 20.8567
78.0088 456 21.3542
78.1256 469 21.6564
78.2423 452 21.2603
78.3591 517 22.7376
78.4759 533 23.0868
78.5928 523 22.8692
78.7097 522 22.8473
78.8266 498 22.3159
78.9436 466 21.587
79.0606 519 22.7816
79.1776 478 21.8632
79.2946 510 22.5832
79.4117 547 23.388
79.5288 488 22.0907
79.6459 519 22.7816
79.7631 514 22.6716
79.8802 495 22.2486
79.9974 552 23.4947
80.1147 535 23.1301
80.2319 557 23.6008
80.3491 524 22.891
80.4664 544 23.3238
80.5837 531 23.0434
80.701 525 22.9129
80.8183 538 23.1948
80.9357 521 22.8254
81.053 521 22.8254
81.1704 523 22.8692
81.2877 536 23.1517
81.4051 504 22.4499
81.5225 508 22.5389
81.6399 453 21.2838
81.7573 493 22.2036
81.8747 433 20.8087
81.9922 512 22.6274
82.1096 535 23.1301
82.227 500 22.3607
82.3444 546 23.3666
82.4619 537 23.1733
82.5793 553 23.516
82.6967 521 22.8254
82.8142 573 23.9374
82.9316 552 23.4947
83.049 565 23.7697
83.1664 489 22.1133
83.2838 547 23.388
83.4012 537 23.1733
83.5186 594 24.3721
83.636 571 23.8956
83.7534 556 23.5797
83.8708 588 24.2487
83.9881 564 23.7487
84.1055 626 25.02
84.2228 555 23.5584
84.3401 549 23.4307
84.4575 568 23.8328
84.5747 545 23.3452
84.692 497 22.2935
84.8093 542 23.2809
84.9265 506 22.4944
85.0437 466 21.587
85.1609 503 22.4277
85.2781 472 21.7256
85.3952 470 21.6795
85.5123 525 22.9129
85.6294 539 23.2164
85.7465 554 23.5372
85.8636 526 22.9347
85.9806 563 23.7276
86.0976 525 22.9129
86.2145 571 23.8956
86.3315 574 23.9583
86.4484 536 23.1517
86.5652 582 24.1247
86.682 573 23.9374
86.7988 571 23.8956
86.9156 550 23.4521
87.0323 540 23.2379
87.149 564 23.7487
87.2657 554 23.5372
87.3823 557 23.6008
87.4988 507 22.5167
87.6154 496 22.2711
87.7318 565 23.7697
87.8483 480 21.9089
87.9647 485 22.0227
88.081 456 21.3542
88.1973 392 19.799
88.3136 350 18.7083
88.4298 318 17.8326
88.546 307 17.5214
88.6621 277 16.6433
88.7781 256 16
88.8942 0 1
89.0101 0 1
89.126 0 1
89.2419 0 1
89.3577 0 1
89.4734 0 1
89.5891 0 1
89.7047 0 1
89.8203 0 1
89.9358 0 1
92.3269 0 1
92.4424 0 1
92.558 0 1
92.6736 0 1
92.7893 0 1
92.905 0 1
93.0208 0 1
93.1366 0 1
93.2525 0 1
93.3685 0 1
93.4845 0 1
93.6005 444 21.0713
93.7167 444 21.0713
93.8328 572 23.9165
93.949 508 22.5389
94.0653 515 22.6936
94.1816 502 22.4054
94.2979 514 22.6716
94.4143 507 22.5167
94.5307 494 22.2261
94.6472 520 22.8035
94.7637 515 22.6936
94.8803 568 23.8328
94.9969 544 23.3238
95.1135 557 23.6008
95.2302 568 23.8328
95.3469 598 24.454
95.4637 590 24.2899
95.5805 586 24.2074
95.6973 624 24.98
95.8142 554 23.5372
95.9311 537 23.1733
96.048 546 23.3666
96.1649 599 24.4745
96.2819 566 23.7908
96.3989 584 24.1661
96.516 592 24.3311
96.633 624 24.98
96.7501 626 25.02
96.8673 616 24.8193
96.9844 632 25.1396
97.1016 609 24.6779
97.2188 609 24.6779
97.336 545 23.3452
97.4532 532 23.0651
97.5704 488 22.0907
97.6877 542 23.2809
97.805 487 22.0681
97.9223 484 22
98.0396 517 22.7376
98.1569 509 22.561
98.2743 533 23.0868
98.3916 557 23.6008
98.509 616 24.8193
98.6264 584 24.1661
98.7438 643 25.3574
98.8612 579 24.0624
98.9786 576 24
99.096 598 24.454
99.2134 602 24.5357
99.3308 606 24.6171
99.4482 598 24.454
99.5656 587 24.2281
99.6831 617 24.8395
99.8005 605 24.5967
99.9179 615 24.7992
100.035 612 24.7386
100.153 688 26.2298
100.27 650 25.4951
100.388 653 25.5539
100.505 613 24.7588
100.622 598 24.454
100.74 542 23.2809
100.857 614 24.779
100.975 603 24.5561
101.092 616 24.8193
101.209 571 23.8956
101.327 574 23.9583
101.444 592 24.3311
101.561 544 23.3238
101.679 506 22.4944
101.796 553 23.516
101.913 594 24.3721
102.03 586 24.2074
102.148 696 26.3818
102.265 680 26.0768
102.382 662 25.7294
102.499 709 26.6271
102.616 634 25.1794
102.733 682 26.1151
102.851 652 25.5343
102.968 711 26.6646
103.085 631 25.1197
103.202 670 25.8844
103.319 703 26.5141
103.436 636 25.219
103.552 733 27.074
103.669 730 27.0185
103.786 689 26.2488
103.903 756 27.4955
104.02 690 26.2679
104.137 670 25.8844
104.253 685 26.1725
104.37 623 24.96
104.487 625 25
104.603 611 24.7184
104.72 619 24.8797
104.836 589 24.2693
104.953 521 22.8254
105.069 519 22.7816
105.186 493 22.2036
105.302 489 22.1133
105.418 447 21.1424
105.535 459 21.4243
105.651 461 21.4709
105.767 402 20.0499
105.883 380 19.4936
105.999 357 18.8944
106.115 0 1
106.231 0 1
106.347 0 1
106.463 0 1
106.579 0 1
106.694 0 1
106.81 0 1
106.926 0 1
107.041 0 1
107.157 0 1
109.576 0 1
109.692 0 1
109.807 0 1
109.923 0 1
110.039 0 1
110.155 0 1
110.27 0 1
110.386 0 1
110.502 0 1
110.618 314 17.72
110.735 387 19.6723
110.851 481 21.9317
110.967 557 23.6008
111.083 567 23.8118
111.199 570 23.8747
111.316 583 24.1454
111.432 588 24.2487
111.549 647 25.4362
111.665 646 25.4165
111.782 581 24.1039
111.898 611 24.7184
112.015 662 25.7294
112.132 625 25
112.248 638 25.2587
112.365 666 25.807
112.482 608 24.6577
112.599 610 24.6982
112.716 618 24.8596
112.832 654 25.5734
112.949 565 23.7697
113.066 557 23.6008
113.183 585 24.1868
113.3 550 23.4521
113.417 599 24.4745
113.534 546 23.3666
113.652 561 23.6854
113.769 566 23.7908
113.886 433 20.8087
114.003 476 21.8174
114.12 494 22.2261
114.238 539 23.2164
114.355 595 24.3926
114.472 580 24.0832
114.589 588 24.2487
114.707 584 24.1661
114.824 619 24.8797
114.942 639 25.2784
115.059 627 25.04
115.176 602 24.5357
115.294 608 24.6577
115.411 538 23.1948
115.529 546 23.3666
115.646 553 23.516
115.764 552 23.4947
115.881 556 23.5797
115.999 546 23.3666
116.116 523 22.8692
116.234 577 24.0208
116.351 557 23.6008
116.469 555 23.5584
116.586 551 23.4734
116.704 514 22.6716
116.821 530 23.0217
116.939 536 23.1517
117.056 518 22.7596
117.174 528 22.9783
117.291 521 22.8254
117.409 493 22.2036
117.526 452 21.2603
117.644 409 20.2237
117.761 435 20.8567
117.879 570 23.8747
117.996 541 23.2594
118.114 579 24.0624
118.231 528 22.9783
118.349 543 23.3024
118.466 530 23.0217
118.584 551 23.4734
118.701 561 23.6854
118.819 548 23.4094
118.936 520 22.8035
119.053 495 22.2486
119.171 496 22.2711
119.288 528 22.9783
119.405 522 22.8473
119.523 530 23.0217
119.64 527 22.9565
119.757 530 23.0217
119.875 538 23.1948
119.992 546 23.3666
120.109 532 23.0651
120.226 551 23.4734
120.343 516 22.7156
120.46 518 22.7596
120.578 537 23.1733
120.695 545 23.3452
120.812 553 23.516
120.929 484 22
121.046 419 20.4695
121.163 480 21.9089
121.279 405 20.1246
121.396 390 19.7484
121.513 429 20.7123
121.63 450 21.2132
121.747 435 20.8567
121.863 436 20.8806
121.98 448 21.166
122.097 466 21.587
122.213 483 21.9773
122.33 431 20.7605
122.446 388 19.6977
122.563 379 19.4679
122.679 377 19.4165
122.795 299 17.2916
122.912 324 18
123.028 314 17.72
123.144 300 17.3205
123.26 277 16.6433
123.377 0 1
123.493 0 1
123.609 0 1
123.725 0 1
123.84 0 1
123.956 0 1
124.072 0 1
124.188 0 1
124.303 0 1
124.419 0 1
126.852 0 1
126.968 0 1
127.083 0 1
127.199 0 1
127.315 0 1
127.431 0 1
127.547 0 1
127.663 0 1
127.779 0 1
127.895 0 1
128.011 0 1
128.127 0 1
128.243 0 1
128.359 500 22.3607
128.476 536 23.1517
128.592 562 23.7065
128.708 576 24
128.825 593 24.3516
128.941 601 24.5153
129.058 641 25.318
129.174 636 25.219
129.291 612 24.7386
129.408 609 24.6779
129.524 616 24.8193
129.641 609 24.6779
129.758 587 24.2281
129.875 618 24.8596
129.992 625 25
130.108 635 25.1992
130.225 642 25.3377
130.342 625 25
130.459 645 25.3969
130.576 719 26.8142
130.693 675 25.9808
130.81 775 27.8388
130.928 899 29.9833
131.045 895 29.9166
131.162 901 30.0167
131.279 946 30.7571
131.396 946 30.7571
131.513 896 29.9333
131.631 1034 32.1559
131.748 1219 34.9142
131.865 1473 38.3797
131.983 1786 42.2611
132.1 1898 43.566
132.217 2119 46.0326
132.335 2352 48.4974
132.452 2355 48.5283
132.57 2538 50.3786
132.687 2605 51.0392
132.804 2760 52.5357
132.922 2874 53.6097
133.039 2916 54
133.157 3046 55.1906
133.274 2959 54.3967
133.392 3132 55.9643
133.509 3122 55.8749
133.627 3057 55.2901
133.744 2989 54.6717
133.862 3123 55.8838
133.979 3049 55.2178
134.097 3149 56.116
134.214 3066 55.3715
134.332 3188 56.4624
134.449 3225 56.7891
134.567 3199 56.5597
134.684 3123 55.8838
134.802 2925 54.0833
134.919 2942 54.2402
135.037 2759 52.5262
135.154 2664 51.614
135.272 2561 50.6063
135.389 2403 49.0204
135.507 1826 42.7317
135.624 1191 34.5109
135.742 1138 33.7343
135.859 1336 36.5513
135.977 1601 40.0125
136.094 1944 44.0908
136.211 1888 43.4511
136.329 1864 43.1741
136.446 1767 42.0357
136.564 1560 39.4968
136.681 1543 39.281
136.798 1457 38.1707
136.915 1344 36.6606
137.033 1267 35.5949
137.15 1307 36.1525
137.267 1247 35.3129
137.384 1256 35.4401
137.502 1192 34.5254
137.619 1138 33.7343
137.736 1089 33
137.853 1000 31.6228
137.97 1049 32.3883
138.087 1009 31.7648
138.204 1062 32.5883
138.321 1168 34.176
138.438 1128 33.5857
138.555 1277 35.7351
138.672 1260 35.4965
138.788 1245 35.2846
138.905 1165 34.1321
139.022 1200 34.641
139.139 1081 32.8786
139.255 1095 33.0908
139.372 1015 31.8591
139.488 951 30.8383
139.605 1007 31.7333
139.721 917 30.282
139.838 989 31.4484
139.954 952 30.8545
140.071 881 29.6816
140.187 836 28.9137
140.303 837 28.931
140.419 801 28.3019
140.535 823 28.688
140.652 810 28.4605
140.768 0 1
140.884 0 1
141 0 1
141.115 0 1
141.231 0 1
141.347 0 1
141.463 0 1
141.578 0 1
141.694 0 1
144.104 0 1
144.219 0 1
144.335 0 1
144.45 0 1
144.566 0 1
144.682 0 1
144.798 0 1
144.914 0 1
145.03 0 1
145.146 2571 50.705
145.262 3620 60.1664
145.378 5713 75.5844
145.494 9748 98.732
145.61 16137 127.031
145.726 25754 160.481
145.842 38611 196.497
145.959 53310 230.89
146.075 70280 265.104
146.192 85732 292.8
146.308 100840 317.553
146.425 113940 337.55
146.541 123820 351.881
146.658 130425 361.144
146.774 134160 366.279
146.891 135200 367.696
147.008 134385 366.586
147.125 127696 357.346
147.241 121465 348.518
147.358 112460 335.351
147.475 101330 318.324
147.592 88765 297.935
147.709 77022 277.528
147.826 65151 255.247
147.943 56100 236.854
148.06 48308 219.791
148.177 42420 205.961
148.294 38311 195.732
148.411 34870 186.735
148.528 32043 179.006
148.645 29210 170.909
148.762 27170 164.833
148.88 25649 160.153
148.997 24631 156.943
149.114 22286 149.285
149.231 20790 144.187
149.349 19911 141.106
149.466 18106 134.559
149.583 17001 130.388
149.701 15473 124.391
149.818 14683 121.173
149.935 13332 115.464
150.053 12201 110.458
150.17 10586 102.888
150.287 8884 94.255
150.405 6284 79.2717
150.522 4949 70.3491
150.64 5423 73.641
150.757 6460 80.3741
150.875 6652 81.5598
150.992 6461 80.3803
151.11 6249 79.0506
151.227 5878 76.6681
151.344 5583 74.7195
151.462 5061 71.1407
151.579 4704 68.5857
151.697 4499 67.0746
151.814 4291 65.5057
151.932 3989 63.1585
152.049 3805 61.6847
152.167 3564 59.6992
152.284 3506 59.2115
152.402 3137 56.0089
152.519 3046 55.1906
152.636 2927 54.1018
152.754 2686 51.8266
152.871 2623 51.2152
152.989 2564 50.636
153.106 2515 50.1498
153.223 2466 49.6588
153.341 2369 48.6724
153.458 2308 48.0416
153.575 2119 46.0326
153.693 2117 46.0109
153.81 2010 44.833
153.927 1873 43.2782
154.044 1737 41.6773
154.162 1676 40.939
154.279 1648 40.5956
154.396 1784 42.2374
154.513 1903 43.6234
154.63 2157 46.4435
154.747 2010 44.833
154.864 2099 45.8148
154.981 2048 45.2548
155.098 2015 44.8888
155.215 2032 45.0777
155.332 1941 44.0568
155.449 2060 45.3872
155.566 1957 44.238
155.683 1957 44.238
155.8 1915 43.7607
155.917 1951 44.1701
156.033 2051 45.288
156.15 0 1
156.267 0 1
156.383 0 1
156.5 0 1
156.617 0 1
156.733 0 1
156.85 0 1
156.966 0 1
157.082 0 1
157.199 0 1
157.315 0 1
157.431 0 1
157.547 0 1
157.664 0 1
157.78 0 1
157.896 0 1
158.012 0 1
158.128 0 1
158.244 0 1
158.359 0 1
158.475 0 1
158.591 0 1
158.706 0 1
