
6.15755 0 1
6.2731 0 1
6.3887 0 1
6.50437 0 1
6.62009 0 1
6.73587 0 1
6.8517 0 1
6.96759 0 1
7.08353 0 1
7.19952 0 1
7.31557 0 1
7.43166 0 1
7.54781 0 1
7.664 0 1
7.78024 0 1
7.89653 0 1
8.01286 0 1
8.12924 0 1
8.24567 0 1
8.36213 0 1
8.47864 0 1
8.59519 0 1
8.71178 0 1
8.82841 0 1
8.94508 0 1
9.06179 0 1
9.17853 0 1
9.29531 0 1
9.41212 0 1
9.52897 0 1
9.64584 0 1
9.76276 0 1
9.8797 0 1
9.99667 0 1
10.1137 0 1
10.2307 0 1
10.3478 0 1
10.4648 0 1
10.5819 0 1
10.6991 0 1
10.8162 0 1
10.9334 0 1
11.0506 0 1
11.1678 0 1
11.285 0 1
11.4023 0 1
11.5196 0 1
11.6369 0 1
11.7542 0 1
11.8715 0 1
11.9888 0 1
12.1062 0 1
12.2235 0 1
12.3409 0 1
12.4582 0 1
12.5756 0 1
12.693 0 1
12.8104 0 1
12.9278 0 1
13.0452 0 1
13.1626 0 1
13.28 0 1
13.3974 0 1
13.5149 0 1
13.6323 0 1
13.7497 0 1
13.8671 0 1
13.9845 0 1
14.1019 0 1
14.2193 0 1
14.3367 0 1
14.4541 0 1
14.5714 0 1
14.6888 0 1
14.8062 0 1
14.9235 0 1
15.0408 0 0
15.1581 0 0
15.2755 0 0
15.3927 0 0
15.51 0 0
15.6273 0 0
15.7445 0 0
15.8617 0 0
15.9789 0 0
16.0961 0 0
16.2132 0 0
16.3304 0 0
16.4475 0 0
16.5646 0 0
16.6816 0 0
16.7986 0 0
16.9156 0 0
17.0326 0 0
17.1496 0 0
17.2665 0 0
17.3833 0 0
17.5002 0 0
17.617 0 0
17.7338 0 0
17.8505 0 0
17.9672 0 0
18.0839 0 0
18.2005 0 0
18.3171 0 0
18.4337 0 0
18.5502 0 0
18.6666 0 0
18.7831 0 0
18.8994 0 0
19.0158 0 0
19.1321 0 0
19.2483 0 0
19.3645 0 0
19.4806 0 0
19.5967 0 0
19.7128 0 0
19.8288 0 0
19.9447 0 0
20.0606 0 1
20.1764 0 1
20.2922 0 1
20.4079 0 1
20.5236 0 1
20.6392 0 1
20.7548 0 1
20.8702 0 1
23.3078 0 1
23.4233 0 1
23.539 0 1
23.6547 0 1
23.7704 0 1
23.8862 0 1
24.0021 0 1
24.118 0 1
24.234 0 1
24.35 0 1
24.4661 23870 154.499
24.5822 23550 153.46
24.6984 23459 153.163
24.8146 23458 153.16
24.9309 23606 153.642
25.0472 23347 152.797
25.1636 23017 151.714
25.28 23238 152.44
25.3965 23873 154.509
25.513 24656 157.022
25.6296 25470 159.593
25.7462 26279 162.108
25.8628 26928 164.098
25.9795 27565 166.027
26.0962 27509 165.858
26.213 27703 166.442
26.3298 27289 165.194
26.4466 27312 165.263
26.5635 27380 165.469
26.6804 27002 164.323
26.7973 25867 160.832
26.9143 25114 158.474
27.0313 25185 158.698
27.1483 26373 162.398
27.2653 26880 163.951
27.3824 27133 164.721
27.4996 27300 165.227
27.6167 26951 164.168
27.7339 26315 162.219
27.8511 26057 161.422
27.9683 25447 159.521
28.0855 24800 157.48
28.2028 24295 155.869
28.3201 24220 155.628
28.4374 23620 153.688
28.5547 22945 151.476
28.6721 22612 150.373
28.7894 22734 150.778
28.9068 22862 151.202
29.0242 23099 151.984
29.1416 23938 154.719
29.259 24075 155.161
29.3764 24581 156.783
29.4939 25419 159.433
29.6113 26127 161.638
29.7288 26184 161.815
29.8463 26147 161.7
29.9638 26816 163.756
30.0812 26296 162.16
30.1987 25286 159.016
30.3162 24539 156.649
30.4337 24225 155.644
30.5512 24190 155.531
30.6687 25104 158.442
30.7862 25629 160.091
30.9037 26514 162.831
31.0212 26478 162.721
31.1387 26483 162.736
31.2562 25929 161.025
31.3737 25971 161.155
31.4912 25309 159.088
31.6087 24500 156.525
31.7262 24381 156.144
31.8436 23811 154.308
31.9611 23647 153.776
32.0785 23088 151.947
32.1959 22630 150.433
32.3134 22389 149.63
32.4308 22409 149.696
32.5482 23037 151.779
32.6655 23595 153.607
32.7829 23703 153.958
32.9002 24510 156.557
33.0176 24999 158.111
33.1349 25546 159.831
33.2522 25628 160.087
33.3694 26327 162.256
33.4867 26264 162.062
33.6039 26403 162.49
33.7211 25914 160.978
33.8383 25317 159.113
33.9554 24313 155.926
34.0725 23396 152.958
34.1896 23581 153.561
34.3067 24388 156.167
34.4237 25052 158.278
34.5407 25777 160.552
34.6577 26075 161.478
34.7746 25933 161.037
34.8915 26051 161.403
35.0084 25401 159.377
35.1252 24992 158.089
35.242 24737 157.28
35.3587 24000 154.919
35.4755 23949 154.755
35.5921 23439 153.098
35.7088 22943 151.469
35.8254 22798 150.99
35.9419 22440 149.8
36.0584 21784 147.594
36.1749 21988 148.284
36.2913 22368 149.559
36.4077 22680 150.599
36.524 23137 152.109
36.6403 23834 154.383
36.7565 24646 156.99
36.8727 25070 158.335
36.9889 25061 158.307
37.1049 25326 159.141
37.221 0 1
37.3369 0 1
37.4529 0 1
37.5687 0 1
37.6845 0 1
37.8003 0 1
37.916 0 1
38.0316 0 1
38.1472 0 1
40.5851 0 1
40.7008 0 1
40.8164 0 1
40.9322 0 1
41.048 0 1
41.1639 0 1
41.2798 0 1
41.3958 0 1
41.5118 0 1
41.6279 0 1
41.744 18474 135.919
41.8602 19988 141.379
41.9765 20766 144.104
42.0928 21202 145.609
42.2091 21862 147.858
42.3255 22092 148.634
42.4419 21873 147.895
42.5584 21970 148.223
42.675 20896 144.554
42.7915 19455 139.481
42.9081 18938 137.615
43.0248 19557 139.846
43.1415 20119 141.841
43.2582 21147 145.42
43.375 21120 145.327
43.4918 21560 146.833
43.6087 21732 147.418
43.7256 21154 145.444
43.8425 20850 144.395
43.9595 20544 143.332
44.0765 19602 140.007
44.1935 19620 140.071
44.3106 18857 137.321
44.4277 18422 135.728
44.5448 17731 133.158
44.6619 16843 129.781
44.7791 16665 129.093
44.8963 16067 126.756
45.0136 16272 127.562
45.1308 16271 127.558
45.2481 16502 128.46
45.3654 16831 129.734
45.4827 17915 133.847
45.6001 17804 133.432
45.7174 18269 135.163
45.8348 17820 133.492
45.9522 17901 133.795
46.0697 17840 133.566
46.1871 17011 130.426
46.3046 16076 126.791
46.422 15235 123.43
46.5395 15107 122.911
46.657 15946 126.277
46.7745 16280 127.593
46.892 16542 128.616
47.0096 16653 129.047
47.1271 16942 130.161
47.2446 16587 128.791
47.3622 16328 127.781
47.4797 15995 126.471
47.5973 15787 125.646
47.7149 15193 123.26
47.8324 14791 121.618
47.95 14044 118.507
48.0675 13945 118.089
48.1851 13025 114.127
48.3027 12484 111.732
48.4202 12237 110.621
48.5378 12122 110.1
48.6554 12588 112.196
48.7729 12695 112.672
48.8904 13381 115.676
49.008 13928 118.017
49.1255 14278 119.491
49.243 14351 119.796
49.3605 14528 120.532
49.478 14434 120.142
49.5955 14381 119.921
49.713 13638 116.782
49.8304 13158 114.708
49.9479 12729 112.823
50.0653 12908 113.613
50.1827 13862 117.737
50.3001 14964 122.327
50.4175 15298 123.685
50.5348 16149 127.079
50.6521 16163 127.134
50.7694 16599 128.837
50.8867 16745 129.402
51.004 17098 130.759
51.1212 17083 130.702
51.2384 17239 131.297
51.3556 17238 131.294
51.4727 16901 130.004
51.5899 16652 129.043
51.707 16459 128.293
51.824 16222 127.366
51.9411 15934 126.23
52.0581 16482 128.382
52.175 17145 130.939
52.2919 17950 133.978
52.4088 18970 137.732
52.5257 19986 141.372
52.6425 20861 144.433
52.7593 20713 143.92
52.876 21264 145.822
52.9927 21721 147.38
53.1094 21834 147.763
53.226 21953 148.165
53.3426 21004 144.928
53.4591 19890 141.032
53.5756 19224 138.651
53.692 20080 141.704
53.8084 21100 145.258
53.9248 22431 149.77
54.0411 23801 154.276
54.1573 24745 157.305
54.2735 0 1
54.3896 0 1
54.5057 0 1
54.6217 0 1
54.7377 0 1
54.8537 0 1
54.9695 0 1
55.0853 0 1
55.2011 0 1
55.3168 0 1
55.4324 0 1
57.824 0 1
57.9396 0 1
58.0553 0 1
58.1711 0 1
58.2869 0 1
58.4028 0 1
58.5187 0 1
58.6347 0 1
58.7508 0 1
58.8669 0 1
58.983 24930 157.892
59.0992 26769 163.612
59.2155 28036 167.44
59.3318 28915 170.044
59.4482 29577 171.98
59.5646 29508 171.779
59.681 29504 171.767
59.7975 29324 171.243
59.9141 28603 169.124
60.0306 27378 165.463
60.1473 26799 163.704
60.2639 25369 159.276
60.3807 23972 154.829
60.4974 23134 152.099
60.6142 22700 150.665
60.731 22758 150.858
60.8479 22786 150.95
60.9648 23479 153.229
61.0818 24440 156.333
61.1987 25301 159.063
61.3158 26360 162.358
61.4328 26848 163.854
61.5499 26405 162.496
61.667 26067 161.453
61.7841 25105 158.446
61.9013 24234 155.673
62.0185 22933 151.436
62.1357 21831 147.753
62.253 22539 150.13
62.3702 23588 153.584
62.4875 24709 157.191
62.6049 25795 160.608
62.7222 26457 162.656
62.8396 26796 163.695
62.9569 27276 165.154
63.0743 27730 166.523
63.1918 27213 164.964
63.3092 26364 162.37
63.4267 26108 161.58
63.5441 25118 158.487
63.6616 24242 155.698
63.7791 22849 151.159
63.8966 21636 147.092
64.0142 20599 143.524
64.1317 20027 141.517
64.2492 19853 140.901
64.3668 20041 141.566
64.4843 20999 144.91
64.6019 22274 149.245
64.7195 23178 152.243
64.837 23724 154.026
64.9546 24146 155.39
65.0722 24191 155.535
65.1898 23980 154.855
65.3074 23735 154.062
65.4249 22304 149.345
65.5425 21015 144.966
65.6601 20331 142.587
65.7777 19840 140.855
65.8952 21099 145.255
66.0128 22382 149.606
66.1304 23464 153.18
66.2479 24482 156.467
66.3655 25131 158.528
66.483 25997 161.236
66.6005 25878 160.866
66.718 25880 160.873
66.8355 25516 159.737
66.953 25374 159.292
67.0705 24818 157.537
67.1879 23517 153.353
67.3054 22912 151.367
67.4228 21985 148.273
67.5402 20715 143.927
67.6576 19349 139.101
67.7749 19267 138.806
67.8923 19172 138.463
68.0096 20419 142.895
68.1269 21586 146.922
68.2442 23750 154.11
68.3614 25705 160.328
68.4787 27082 164.566
68.5958 27772 166.649
68.713 28739 169.526
68.8302 29444 171.593
68.9473 29581 171.991
69.0643 28566 169.015
69.1814 27994 167.314
69.2984 27679 166.37
69.4154 28607 169.136
69.5323 31155 176.508
69.6492 33971 184.312
69.7661 36278 190.468
69.8829 39708 199.269
69.9997 41523 203.772
70.1165 42702 206.645
70.2332 44615 211.223
70.3499 45502 213.312
70.4665 46187 214.912
70.5831 46265 215.093
70.6996 46328 215.239
70.8161 45872 214.177
70.9326 45226 212.664
71.049 44264 210.39
71.1653 42243 205.531
71.2817 39773 199.432
71.3979 37388 193.36
71.5141 38208 195.469
71.6303 38619 196.517
71.7464 37920 194.731
71.8624 0 1
71.9784 0 1
72.0944 0 1
72.2102 0 1
72.3261 0 1
72.4418 0 1
72.5575 0 1
72.6732 0 1
75.1054 0 1
75.2209 0 1
75.3365 0 1
75.4521 0 1
75.5678 0 1
75.6835 0 1
75.7993 0 1
75.9151 0 1
76.031 0 1
76.147 44777 211.606
76.263 47744 218.504
76.3791 47704 218.412
76.4952 44787 211.629
76.6113 41785 204.414
76.7276 39288 198.212
76.8438 38260 195.602
76.9601 38566 196.382
77.0765 39593 198.98
77.1929 40778 201.936
77.3093 42880 207.075
77.4258 43811 209.311
77.5423 42697 206.633
77.6589 41599 203.958
77.7755 40457 201.139
77.8921 38725 196.787
78.0088 35648 188.807
78.1256 31619 177.817
78.2423 28952 170.153
78.3591 26737 163.515
78.4759 26354 162.339
78.5928 28279 168.164
78.7097 29662 172.227
78.8266 30812 175.533
78.9436 32132 179.254
79.0606 32237 179.547
79.1776 31820 178.382
79.2946 31668 177.955
79.4117 31382 177.15
79.5288 30389 174.324
79.6459 29635 172.148
79.7631 27516 165.879
79.8802 26386 162.438
79.9974 24999 158.111
80.1147 23086 151.941
80.2319 21603 146.98
80.3491 19872 140.968
80.4664 19428 139.384
80.5837 19290 138.888
80.701 20220 142.197
80.8183 21425 146.373
80.9357 22988 151.618
81.053 23590 153.59
81.1704 23817 154.328
81.2877 24266 155.775
81.4051 23735 154.062
81.5225 23769 154.172
81.6399 22184 148.943
81.7573 21135 145.379
81.8747 19545 139.803
81.9922 19021 137.917
82.1096 19231 138.676
82.227 20533 143.293
82.3444 22004 148.337
82.4619 23975 154.839
82.5793 25086 158.386
82.6967 25286 159.016
82.8142 26112 161.592
82.9316 26414 162.524
83.049 26848 163.854
83.1664 26794 163.689
83.2838 26170 161.771
83.4012 25902 160.941
83.5186 24960 157.987
83.636 24152 155.409
83.7534 23147 152.141
83.8708 21726 147.397
83.9881 20848 144.388
84.1055 20776 144.139
84.2228 21494 146.608
84.3401 23256 152.499
84.4575 25024 158.19
84.5747 27282 165.173
84.692 28822 169.77
84.8093 30048 173.344
84.9265 30361 174.244
85.0437 30233 173.876
85.1609 29678 172.273
85.2781 27735 166.538
85.3952 26629 163.184
85.5123 25439 159.496
85.6294 25435 159.484
85.7465 26993 164.295
85.8636 29534 171.855
85.9806 32113 179.201
86.0976 34195 184.919
86.2145 35707 188.963
86.3315 36846 191.953
86.4484 38830 197.053
86.5652 38829 197.051
86.682 38840 197.079
86.7988 39239 198.088
86.9156 37943 194.79
87.0323 37051 192.486
87.149 35989 189.708
87.2657 34356 185.354
87.3823 32933 181.475
87.4988 31232 176.726
87.6154 30588 174.894
87.7318 31153 176.502
87.8483 32834 181.202
87.9647 35089 187.321
88.081 38283 195.66
88.1973 39661 199.151
88.3136 40339 200.846
88.4298 40154 200.385
88.546 40747 201.859
88.6621 39076 197.677
88.7781 36382 190.741
88.8942 0 1
89.0101 0 1
89.126 0 1
89.2419 0 1
89.3577 0 1
89.4734 0 1
89.5891 0 1
89.7047 0 1
89.8203 0 1
89.9358 0 1
92.3269 0 1
92.4424 0 1
92.558 0 1
92.6736 0 1
92.7893 0 1
92.905 0 1
93.0208 0 1
93.1366 0 1
93.2525 0 1
93.3685 0 1
93.4845 0 1
93.6005 31443 177.322
93.7167 31817 178.373
93.8328 31451 177.344
93.949 31236 176.737
94.0653 30224 173.851
94.1816 28580 169.056
94.2979 26585 163.049
94.4143 25135 158.54
94.5307 23951 154.761
94.6472 22937 151.45
94.7637 23516 153.349
94.8803 25040 158.24
94.9969 26716 163.45
95.1135 27389 165.496
95.2302 29177 170.813
95.3469 29645 172.177
95.4637 30000 173.205
95.5805 30429 174.439
95.6973 31071 176.27
95.8142 30734 175.311
95.9311 30121 173.554
96.048 28961 170.179
96.1649 28157 167.8
96.2819 26767 163.606
96.3989 25828 160.711
96.516 24554 156.697
96.633 22700 150.665
96.7501 21724 147.391
96.8673 21486 146.581
96.9844 22478 149.927
97.1016 23661 153.821
97.2188 26026 161.326
97.336 26953 164.174
97.4532 27670 166.343
97.5704 27572 166.048
97.6877 27058 164.493
97.805 25974 161.165
97.9223 24118 155.3
98.0396 22643 150.476
98.1569 21362 146.157
98.2743 21445 146.441
98.3916 21687 147.265
98.509 23231 152.417
98.6264 24765 157.369
98.7438 26026 161.326
98.8612 27569 166.039
98.9786 28750 169.558
99.096 29596 172.035
99.2134 29899 172.913
99.3308 30205 173.796
99.4482 29798 172.621
99.5656 29456 171.628
99.6831 29010 170.323
99.8005 27638 166.247
99.9179 26761 163.588
100.035 25457 159.552
100.153 24071 155.148
100.27 22492 149.973
100.388 22173 148.906
100.505 22765 150.881
100.622 24254 155.737
100.74 25650 160.156
100.857 27258 165.1
100.975 28272 168.143
101.092 27750 166.583
101.209 27894 167.015
101.327 27251 165.079
101.444 25777 160.552
101.561 24254 155.737
101.679 23035 151.773
101.796 22157 148.852
101.913 22028 148.418
102.03 23113 152.03
102.148 24973 158.028
102.265 28544 168.95
102.382 27161 164.806
102.499 29472 171.674
102.616 30540 174.757
102.733 31394 177.184
102.851 31652 177.91
102.968 31619 177.817
103.085 31004 176.08
103.202 30191 173.756
103.319 29625 172.119
103.436 28601 169.118
103.552 27295 165.212
103.669 25864 160.823
103.786 24247 155.714
103.903 23985 154.871
104.02 24818 157.537
104.137 26235 161.972
104.253 28381 168.467
104.37 28011 167.365
104.487 29565 171.945
104.603 29820 172.685
104.72 29520 171.814
104.836 29026 170.37
104.953 27263 165.115
105.069 25597 159.991
105.186 24554 156.697
105.302 23793 154.25
105.418 23903 154.606
105.535 25958 161.115
105.651 28237 168.039
105.767 30074 173.419
105.883 31634 177.859
105.999 32291 179.697
106.115 0 1
106.231 0 1
106.347 0 1
106.463 0 1
106.579 0 1
106.694 0 1
106.81 0 1
106.926 0 1
107.041 0 1
107.157 0 1
109.576 0 1
109.692 0 1
109.807 0 1
109.923 0 1
110.039 0 1
110.155 0 1
110.27 0 1
110.386 0 1
110.502 0 1
110.618 25158 158.613
110.735 27224 164.997
110.851 29417 171.514
110.967 30855 175.656
111.083 31088 176.318
111.199 32118 179.215
111.316 32618 180.605
111.432 32912 181.417
111.549 32841 181.221
111.665 32279 179.664
111.782 30654 175.083
111.898 30315 174.112
112.015 29256 171.044
112.132 27729 166.52
112.248 26123 161.626
112.365 25174 158.663
112.482 24945 157.94
112.599 25693 160.29
112.716 27179 164.861
112.832 28185 167.884
112.949 29149 170.731
113.066 29356 171.336
113.183 28892 169.976
113.3 28454 168.683
113.417 27454 165.692
113.534 25602 160.006
113.652 24430 156.301
113.769 23327 152.732
113.886 22647 150.489
114.003 23076 151.908
114.12 25153 158.597
114.238 27014 164.359
114.355 28784 169.658
114.472 31052 176.216
114.589 28862 169.888
114.707 30755 175.371
114.824 31491 177.457
114.942 31961 178.776
115.059 32489 180.247
115.176 31670 177.961
115.294 31024 176.136
115.411 30534 174.74
115.529 29290 171.143
115.646 28501 168.822
115.764 26696 163.389
115.881 25587 159.959
115.999 25346 159.204
116.116 26267 162.071
116.234 27610 166.163
116.351 28671 169.325
116.469 29145 170.719
116.586 29915 172.96
116.704 29709 172.363
116.821 29808 172.65
116.939 28623 169.183
117.056 27190 164.894
117.174 26168 161.765
117.291 24896 157.785
117.409 23878 154.525
117.526 23699 153.945
117.644 25229 158.836
117.761 26990 164.286
117.879 28538 168.932
117.996 29789 172.595
118.114 31169 176.547
118.231 31743 178.166
118.349 31955 178.76
118.466 32569 180.469
118.584 32533 180.369
118.701 33078 181.874
118.819 31969 178.799
118.936 31178 176.573
119.053 30584 174.883
119.171 30072 173.413
119.288 28501 168.822
119.405 27240 165.045
119.523 26264 162.062
119.64 26546 162.929
119.757 27111 164.654
119.875 28318 168.28
119.992 29004 170.306
120.109 29426 171.54
120.226 29844 172.754
120.343 29989 173.173
120.46 29807 172.647
120.578 28816 169.753
120.695 27364 165.421
120.812 25944 161.071
120.929 25179 158.679
121.046 24588 156.806
121.163 24087 155.2
121.279 24911 157.832
121.396 26517 162.84
121.513 28305 168.241
121.63 29175 170.807
121.747 31073 176.275
121.863 31546 177.612
121.98 32093 179.145
122.097 32756 180.986
122.213 32583 180.508
122.33 32523 180.341
122.446 32283 179.675
122.563 31694 178.028
122.679 31277 176.853
122.795 30684 175.168
122.912 29902 172.922
123.028 28920 170.059
123.144 27969 167.239
123.26 26868 163.915
123.377 0 1
123.493 0 1
123.609 0 1
123.725 0 1
123.84 0 1
123.956 0 1
124.072 0 1
124.188 0 1
124.303 0 1
124.419 0 1
126.852 0 1
126.968 0 1
127.083 0 1
127.199 0 1
127.315 0 1
127.431 0 1
127.547 0 1
127.663 0 1
127.779 0 1
127.895 0 1
128.011 0 1
128.127 0 1
128.243 0 1
128.359 36427 190.859
128.476 35771 189.132
128.592 36247 190.386
128.708 37813 194.456
128.825 39481 198.698
128.941 40542 201.35
129.058 40885 202.2
129.174 40765 201.903
129.291 40870 202.163
129.408 40262 200.654
129.524 38855 197.117
129.641 37221 192.927
129.758 35006 187.099
129.875 34010 184.418
129.992 33023 181.722
130.108 32963 181.557
130.225 34376 185.408
130.342 35904 189.484
130.459 36868 192.01
130.576 39770 199.424
130.693 39714 199.284
130.81 40580 201.445
130.928 40910 202.262
131.045 41406 203.485
131.162 41671 204.135
131.279 41905 204.707
131.396 41413 203.502
131.513 41463 203.625
131.631 40079 200.197
131.748 39497 198.739
131.865 38199 195.446
131.983 37192 192.852
132.1 37425 193.455
132.217 38168 195.366
132.335 39428 198.565
132.452 40051 200.127
132.57 40913 202.27
132.687 39400 198.494
132.804 40931 202.314
132.922 40128 200.32
133.039 38844 197.089
133.157 37171 192.798
133.274 35368 188.064
133.392 34283 185.157
133.509 33105 181.948
133.627 32872 181.306
133.744 33371 182.677
133.862 34890 186.789
133.979 36038 189.837
134.097 37711 194.193
134.214 38554 196.352
134.332 38751 196.853
134.449 39372 198.424
134.567 39840 199.6
134.684 40511 201.273
134.802 40930 202.312
134.919 40888 202.208
135.037 40427 201.065
135.154 39953 199.882
135.272 38779 196.924
135.389 38053 195.072
135.507 37158 192.764
135.624 36583 191.267
135.742 37675 194.1
135.859 38524 196.275
135.977 40004 200.01
136.094 40146 200.365
136.211 40326 200.813
136.329 40433 201.08
136.446 39918 199.795
136.564 39149 197.861
136.681 37632 193.99
136.798 36323 190.586
136.915 34911 186.845
137.033 33942 184.234
137.15 32892 181.362
137.267 32977 181.596
137.384 33427 182.831
137.502 34573 185.938
137.619 35832 189.293
137.736 36653 191.45
137.853 37354 193.272
137.97 38893 197.213
138.087 38369 195.88
138.204 39991 199.977
138.321 40290 200.724
138.438 40750 201.866
138.555 41560 203.863
138.672 41189 202.951
138.788 40511 201.273
138.905 39605 199.01
139.022 38775 196.914
139.139 38260 195.602
139.255 38473 196.145
139.372 39043 197.593
139.488 40125 200.312
139.605 41593 203.944
139.721 41819 204.497
139.838 42136 205.271
139.954 41804 204.46
140.071 41268 203.145
140.187 41173 202.911
140.303 38987 197.451
140.419 37315 193.171
140.535 36015 189.776
140.652 34999 187.08
140.768 0 1
140.884 0 1
141 0 1
141.115 0 1
141.231 0 1
141.347 0 1
141.463 0 1
141.578 0 1
141.694 0 1
144.104 0 1
144.219 0 1
144.335 0 1
144.45 0 1
144.566 0 1
144.682 0 1
144.798 0 1
144.914 0 1
145.03 0 1
145.146 43321 208.137
145.262 42521 206.206
145.378 41320 203.273
145.494 39667 199.166
145.61 38945 197.345
145.726 37422 193.448
145.842 37191 192.85
145.959 37013 192.388
146.075 38083 195.149
146.192 39659 199.146
146.308 40375 200.935
146.425 40992 202.465
146.541 41464 203.627
146.658 41994 204.924
146.774 42929 207.193
146.891 43295 208.075
147.008 43666 208.964
147.125 44851 211.781
147.241 44397 210.706
147.358 43816 209.323
147.475 43036 207.451
147.592 41397 203.463
147.709 40442 201.102
147.826 40311 200.776
147.943 41570 203.887
148.06 41568 203.882
148.177 42950 207.244
148.294 43067 207.526
148.411 43504 208.576
148.528 43116 207.644
148.645 42751 206.763
148.762 42391 205.891
148.88 41117 202.773
148.997 38946 197.347
149.114 39508 198.766
149.231 37275 193.067
149.349 36353 190.665
149.466 34618 186.059
149.583 34828 186.623
149.701 35460 188.308
149.818 36405 190.801
149.935 37603 193.915
150.053 37986 194.9
150.17 38632 196.55
150.287 39488 198.716
150.405 40064 200.16
150.522 40707 201.76
150.64 41608 203.98
150.757 42165 205.341
150.875 42019 204.985
150.992 41372 203.401
151.11 40613 201.527
151.227 39798 199.494
151.344 38981 197.436
151.462 38500 196.214
151.579 40207 200.517
151.697 41071 202.66
151.814 42088 205.154
151.932 42403 205.92
152.049 42642 206.499
152.167 42101 205.185
152.284 42303 205.677
152.402 41476 203.657
152.519 40149 200.372
152.636 38513 196.247
152.754 37927 194.749
152.871 36600 191.311
152.989 35840 189.315
153.106 34495 185.728
153.223 35121 187.406
153.341 35885 189.433
153.458 36469 190.969
153.575 37041 192.46
153.693 37693 194.147
153.81 38889 197.203
153.927 39666 199.163
154.044 40378 200.943
154.162 41100 202.731
154.279 42392 205.893
154.396 43124 207.663
154.513 43384 208.288
154.63 42913 207.155
154.747 41958 204.837
154.864 41237 203.069
154.981 40525 201.308
155.098 40541 201.348
155.215 41236 203.066
155.332 42667 206.56
155.449 42357 205.808
155.566 43566 208.725
155.683 43544 208.672
155.8 42579 206.347
155.917 42595 206.386
156.033 42178 205.373
156.15 0 1
156.267 0 1
156.383 0 1
156.5 0 1
156.617 0 1
156.733 0 1
156.85 0 1
156.966 0 1
157.082 0 1
157.199 0 1
157.315 0 1
157.431 0 1
157.547 0 1
157.664 0 1
157.78 0 1
157.896 0 1
158.012 0 1
158.128 0 1
158.244 0 1
158.359 0 1
158.475 0 1
158.591 0 1
158.706 0 1
