
6.15755 0 1
6.2731 0 1
6.3887 0 1
6.50437 0 1
6.62009 0 1
6.73587 0 1
6.8517 0 1
6.96759 0 1
7.08353 0 1
7.19952 0 1
7.31557 0 1
7.43166 0 1
7.54781 0 1
7.664 0 1
7.78024 0 1
7.89653 0 1
8.01286 0 1
8.12924 0 1
8.24567 0 1
8.36213 0 1
8.47864 0 1
8.59519 0 1
8.71178 0 1
8.82841 0 1
8.94508 0 1
9.06179 0 1
9.17853 0 1
9.29531 0 1
9.41212 0 1
9.52897 0 1
9.64584 0 1
9.76276 0 1
9.8797 0 1
9.99667 0 1
10.1137 0 1
10.2307 0 1
10.3478 0 1
10.4648 0 1
10.5819 0 1
10.6991 0 1
10.8162 0 1
10.9334 0 1
11.0506 0 1
11.1678 0 1
11.285 0 1
11.4023 0 1
11.5196 0 1
11.6369 0 1
11.7542 0 1
11.8715 0 1
11.9888 0 1
12.1062 0 1
12.2235 0 1
12.3409 0 1
12.4582 0 1
12.5756 0 1
12.693 0 1
12.8104 0 1
12.9278 0 1
13.0452 0 1
13.1626 0 1
13.28 0 1
13.3974 0 1
13.5149 0 1
13.6323 0 1
13.7497 0 1
13.8671 0 1
13.9845 0 1
14.1019 0 1
14.2193 0 1
14.3367 0 1
14.4541 0 1
14.5714 0 1
14.6888 0 1
14.8062 0 1
14.9235 0 1
15.0408 0 0
15.1581 0 0
15.2755 0 0
15.3927 0 0
15.51 0 0
15.6273 0 0
15.7445 0 0
15.8617 0 0
15.9789 0 0
16.0961 0 0
16.2132 0 0
16.3304 0 0
16.4475 0 0
16.5646 0 0
16.6816 0 0
16.7986 0 0
16.9156 0 0
17.0326 0 0
17.1496 0 0
17.2665 0 0
17.3833 0 0
17.5002 0 0
17.617 0 0
17.7338 0 0
17.8505 0 0
17.9672 0 0
18.0839 0 0
18.2005 0 0
18.3171 0 0
18.4337 0 0
18.5502 0 0
18.6666 0 0
18.7831 0 0
18.8994 0 0
19.0158 0 0
19.1321 0 0
19.2483 0 0
19.3645 0 0
19.4806 0 0
19.5967 0 0
19.7128 0 0
19.8288 0 0
19.9447 0 0
20.0606 0 1
20.1764 0 1
20.2922 0 1
20.4079 0 1
20.5236 0 1
20.6392 0 1
20.7548 0 1
20.8702 0 1
23.3078 0 1
23.4233 0 1
23.539 0 1
23.6547 0 1
23.7704 0 1
23.8862 0 1
24.0021 0 1
24.118 0 1
24.234 0 1
24.35 0 1
24.4661 359 18.9473
24.5822 459 21.4243
24.6984 484 22
24.8146 573 23.9374
24.9309 602 24.5357
25.0472 706 26.5707
25.1636 764 27.6405
25.28 787 28.0535
25.3965 910 30.1662
25.513 945 30.7409
25.6296 927 30.4467
25.7462 978 31.273
25.8628 938 30.6268
25.9795 932 30.5287
26.0962 977 31.257
26.213 981 31.3209
26.3298 872 29.5296
26.4466 876 29.5973
26.5635 788 28.0713
26.6804 773 27.8029
26.7973 774 27.8209
26.9143 794 28.178
27.0313 883 29.7153
27.1483 867 29.4449
27.2653 885 29.7489
27.3824 932 30.5287
27.4996 947 30.7734
27.6167 880 29.6648
27.7339 931 30.5123
27.8511 862 29.3598
27.9683 889 29.8161
28.0855 794 28.178
28.2028 772 27.7849
28.3201 769 27.7308
28.4374 806 28.3901
28.5547 814 28.5307
28.6721 859 29.3087
28.7894 914 30.2324
28.9068 957 30.9354
29.0242 884 29.7321
29.1416 963 31.0322
29.259 956 30.9192
29.3764 997 31.5753
29.4939 937 30.6105
29.6113 931 30.5123
29.7288 862 29.3598
29.8463 758 27.5318
29.9638 816 28.5657
30.0812 780 27.9285
30.1987 778 27.8927
30.3162 796 28.2135
30.4337 834 28.8791
30.5512 793 28.1603
30.6687 839 28.9655
30.7862 911 30.1828
30.9037 876 29.5973
31.0212 940 30.6594
31.1387 889 29.8161
31.2562 875 29.5804
31.3737 849 29.1376
31.4912 793 28.1603
31.6087 814 28.5307
31.7262 857 29.2746
31.8436 763 27.6225
31.9611 773 27.8029
32.0785 810 28.4605
32.1959 820 28.6356
32.3134 836 28.9137
32.4308 928 30.4631
32.5482 885 29.7489
32.6655 886 29.7658
32.7829 958 30.9516
32.9002 914 30.2324
33.0176 899 29.9833
33.1349 956 30.9192
33.2522 909 30.1496
33.3694 879 29.6479
33.4867 816 28.5657
33.6039 776 27.8568
33.7211 771 27.7669
33.8383 732 27.0555
33.9554 780 27.9285
34.0725 778 27.8927
34.1896 785 28.0179
34.3067 835 28.8964
34.4237 823 28.688
34.5407 833 28.8617
34.6577 904 30.0666
34.7746 884 29.7321
34.8915 846 29.0861
35.0084 823 28.688
35.1252 835 28.8964
35.242 786 28.0357
35.3587 784 28
35.4755 742 27.2397
35.5921 742 27.2397
35.7088 667 25.8263
35.8254 738 27.1662
35.9419 730 27.0185
36.0584 833 28.8617
36.1749 827 28.7576
36.2913 820 28.6356
36.4077 820 28.6356
36.524 769 27.7308
36.6403 805 28.3725
36.7565 710 26.6458
36.8727 708 26.6083
36.9889 695 26.3629
37.1049 594 24.3721
37.221 0 1
37.3369 0 1
37.4529 0 1
37.5687 0 1
37.6845 0 1
37.8003 0 1
37.916 0 1
38.0316 0 1
38.1472 0 1
40.5851 0 1
40.7008 0 1
40.8164 0 1
40.9322 0 1
41.048 0 1
41.1639 0 1
41.2798 0 1
41.3958 0 1
41.5118 0 1
41.6279 0 1
41.744 429 20.7123
41.8602 486 22.0454
41.9765 470 21.6795
42.0928 574 23.9583
42.2091 529 23
42.3255 551 23.4734
42.4419 546 23.3666
42.5584 573 23.9374
42.675 533 23.0868
42.7915 634 25.1794
42.9081 639 25.2784
43.0248 658 25.6515
43.1415 686 26.1916
43.2582 662 25.7294
43.375 684 26.1534
43.4918 682 26.1151
43.6087 754 27.4591
43.7256 678 26.0384
43.8425 714 26.7208
43.9595 644 25.3772
44.0765 645 25.3969
44.1935 601 24.5153
44.3106 614 24.779
44.4277 595 24.3926
44.5448 552 23.4947
44.6619 632 25.1396
44.7791 616 24.8193
44.8963 680 26.0768
45.0136 702 26.4953
45.1308 735 27.1109
45.2481 749 27.3679
45.3654 731 27.037
45.4827 767 27.6948
45.6001 763 27.6225
45.7174 714 26.7208
45.8348 658 25.6515
45.9522 674 25.9615
46.0697 602 24.5357
46.1871 640 25.2982
46.3046 635 25.1992
46.422 634 25.1794
46.5395 700 26.4575
46.657 752 27.4226
46.7745 705 26.5518
46.892 745 27.2947
47.0096 721 26.8514
47.1271 768 27.7128
47.2446 737 27.1477
47.3622 769 27.7308
47.4797 741 27.2213
47.5973 749 27.3679
47.7149 698 26.4197
47.8324 658 25.6515
47.95 602 24.5357
48.0675 577 24.0208
48.1851 604 24.5764
48.3027 595 24.3926
48.4202 650 25.4951
48.5378 709 26.6271
48.6554 699 26.4386
48.7729 759 27.55
48.8904 745 27.2947
49.008 721 26.8514
49.1255 767 27.6948
49.243 737 27.1477
49.3605 699 26.4386
49.478 647 25.4362
49.5955 650 25.4951
49.713 625 25
49.8304 575 23.9792
49.9479 645 25.3969
50.0653 644 25.3772
50.1827 703 26.5141
50.3001 709 26.6271
50.4175 722 26.8701
50.5348 736 27.1293
50.6521 736 27.1293
50.7694 723 26.8887
50.8867 675 25.9808
51.004 653 25.5539
51.1212 703 26.5141
51.2384 658 25.6515
51.3556 598 24.454
51.4727 605 24.5967
51.5899 536 23.1517
51.707 537 23.1733
51.824 614 24.779
51.9411 675 25.9808
52.0581 745 27.2947
52.175 759 27.55
52.2919 752 27.4226
52.4088 819 28.6182
52.5257 759 27.55
52.6425 797 28.2312
52.7593 774 27.8209
52.876 768 27.7128
52.9927 732 27.0555
53.1094 670 25.8844
53.226 689 26.2488
53.3426 607 24.6374
53.4591 607 24.6374
53.5756 627 25.04
53.692 654 25.5734
53.8084 648 25.4558
53.9248 649 25.4755
54.0411 612 24.7386
54.1573 577 24.0208
54.2735 0 1
54.3896 0 1
54.5057 0 1
54.6217 0 1
54.7377 0 1
54.8537 0 1
54.9695 0 1
55.0853 0 1
55.2011 0 1
55.3168 0 1
55.4324 0 1
57.824 0 1
57.9396 0 1
58.0553 0 1
58.1711 0 1
58.2869 0 1
58.4028 0 1
58.5187 0 1
58.6347 0 1
58.7508 0 1
58.8669 0 1
58.983 447 21.1424
59.0992 500 22.3607
59.2155 548 23.4094
59.3318 680 26.0768
59.4482 696 26.3818
59.5646 765 27.6586
59.681 775 27.8388
59.7975 744 27.2764
59.9141 843 29.0345
60.0306 799 28.2666
60.1473 756 27.4955
60.2639 646 25.4165
60.3807 632 25.1396
60.4974 716 26.7582
60.6142 747 27.3313
60.731 806 28.3901
60.8479 910 30.1662
60.9648 895 29.9166
61.0818 869 29.4788
61.1987 880 29.6648
61.3158 910 30.1662
61.4328 883 29.7153
61.5499 849 29.1376
61.667 811 28.4781
61.7841 845 29.0689
61.9013 789 28.0891
62.0185 803 28.3373
62.1357 804 28.3549
62.253 818 28.6007
62.3702 878 29.6311
62.4875 869 29.4788
62.6049 924 30.3974
62.7222 839 28.9655
62.8396 900 30
62.9569 902 30.0333
63.0743 906 30.0998
63.1918 907 30.1164
63.3092 826 28.7402
63.4267 919 30.315
63.5441 788 28.0713
63.6616 747 27.3313
63.7791 740 27.2029
63.8966 657 25.632
64.0142 655 25.593
64.1317 644 25.3772
64.2492 798 28.2489
64.3668 828 28.775
64.4843 910 30.1662
64.6019 865 29.4109
64.7195 929 30.4795
64.837 879 29.6479
64.9546 838 28.9482
65.0722 860 29.3258
65.1898 846 29.0861
65.3074 779 27.9106
65.4249 779 27.9106
65.5425 771 27.7669
65.6601 724 26.9072
65.7777 779 27.9106
65.8952 856 29.2575
66.0128 876 29.5973
66.1304 883 29.7153
66.2479 847 29.1033
66.3655 776 27.8568
66.483 881 29.6816
66.6005 860 29.3258
66.718 859 29.3087
66.8355 901 30.0167
66.953 832 28.8444
67.0705 839 28.9655
67.1879 809 28.4429
67.3054 675 25.9808
67.4228 612 24.7386
67.5402 585 24.1868
67.6576 607 24.6374
67.7749 608 24.6577
67.8923 682 26.1151
68.0096 831 28.8271
68.1269 879 29.6479
68.2442 816 28.5657
68.3614 845 29.0689
68.4787 833 28.8617
68.5958 877 29.6142
68.713 871 29.5127
68.8302 830 28.8097
68.9473 768 27.7128
69.0643 690 26.2679
69.1814 721 26.8514
69.2984 732 27.0555
69.4154 759 27.55
69.5323 802 28.3196
69.6492 823 28.688
69.7661 821 28.6531
69.8829 885 29.7489
69.9997 806 28.3901
70.1165 774 27.8209
70.2332 828 28.775
70.3499 782 27.9643
70.4665 782 27.9643
70.5831 742 27.2397
70.6996 678 26.0384
70.8161 652 25.5343
70.9326 582 24.1247
71.049 439 20.9523
71.1653 378 19.4422
71.2817 328 18.1108
71.3979 329 18.1384
71.5141 324 18
71.6303 299 17.2916
71.7464 269 16.4012
71.8624 0 1
71.9784 0 1
72.0944 0 1
72.2102 0 1
72.3261 0 1
72.4418 0 1
72.5575 0 1
72.6732 0 1
75.1054 0 1
75.2209 0 1
75.3365 0 1
75.4521 0 1
75.5678 0 1
75.6835 0 1
75.7993 0 1
75.9151 0 1
76.031 0 1
76.147 416 20.3961
76.263 448 21.166
76.3791 421 20.5183
76.4952 419 20.4695
76.6113 459 21.4243
76.7276 440 20.9762
76.8438 523 22.8692
76.9601 636 25.219
77.0765 701 26.4764
77.1929 640 25.2982
77.3093 734 27.0924
77.4258 676 26
77.5423 756 27.4955
77.6589 710 26.6458
77.7755 706 26.5707
77.8921 635 25.1992
78.0088 703 26.5141
78.1256 617 24.8395
78.2423 661 25.7099
78.3591 608 24.6577
78.4759 644 25.3772
78.5928 629 25.0799
78.7097 690 26.2679
78.8266 758 27.5318
78.9436 718 26.7955
79.0606 738 27.1662
79.1776 777 27.8747
79.2946 723 26.8887
79.4117 742 27.2397
79.5288 731 27.037
79.6459 691 26.2869
79.7631 702 26.4953
79.8802 648 25.4558
79.9974 582 24.1247
80.1147 477 21.8403
80.2319 401 20.025
80.3491 447 21.1424
80.4664 547 23.388
80.5837 638 25.2587
80.701 741 27.2213
80.8183 718 26.7955
80.9357 774 27.8209
81.053 749 27.3679
81.1704 757 27.5136
81.2877 756 27.4955
81.4051 700 26.4575
81.5225 684 26.1534
81.6399 625 25
81.7573 667 25.8263
81.8747 680 26.0768
81.9922 646 25.4165
82.1096 662 25.7294
82.227 678 26.0384
82.3444 683 26.1343
82.4619 716 26.7582
82.5793 783 27.9821
82.6967 764 27.6405
82.8142 765 27.6586
82.9316 738 27.1662
83.049 733 27.074
83.1664 709 26.6271
83.2838 756 27.4955
83.4012 720 26.8328
83.5186 627 25.04
83.636 657 25.632
83.7534 517 22.7376
83.8708 450 21.2132
83.9881 422 20.5426
84.1055 492 22.1811
84.2228 518 22.7596
84.3401 634 25.1794
84.4575 689 26.2488
84.5747 728 26.9815
84.692 739 27.1846
84.8093 745 27.2947
84.9265 790 28.1069
85.0437 775 27.8388
85.1609 655 25.593
85.2781 681 26.096
85.3952 650 25.4951
85.5123 671 25.9037
85.6294 659 25.671
85.7465 715 26.7395
85.8636 700 26.4575
85.9806 722 26.8701
86.0976 710 26.6458
86.2145 826 28.7402
86.3315 748 27.3496
86.4484 735 27.1109
86.5652 706 26.5707
86.682 768 27.7128
86.7988 709 26.6271
86.9156 726 26.9444
87.0323 733 27.074
87.149 672 25.923
87.2657 580 24.0832
87.3823 447 21.1424
87.4988 386 19.6469
87.6154 429 20.7123
87.7318 504 22.4499
87.8483 585 24.1868
87.9647 667 25.8263
88.081 674 25.9615
88.1973 646 25.4165
88.3136 679 26.0576
88.4298 643 25.3574
88.546 508 22.5389
88.6621 490 22.1359
88.7781 304 17.4356
88.8942 0 1
89.0101 0 1
89.126 0 1
89.2419 0 1
89.3577 0 1
89.4734 0 1
89.5891 0 1
89.7047 0 1
89.8203 0 1
89.9358 0 1
92.3269 0 1
92.4424 0 1
92.558 0 1
92.6736 0 1
92.7893 0 1
92.905 0 1
93.0208 0 1
93.1366 0 1
93.2525 0 1
93.3685 0 1
93.4845 0 1
93.6005 476 21.8174
93.7167 500 22.3607
93.8328 517 22.7376
93.949 557 23.6008
94.0653 568 23.8328
94.1816 612 24.7386
94.2979 666 25.807
94.4143 669 25.865
94.5307 698 26.4197
94.6472 684 26.1534
94.7637 702 26.4953
94.8803 712 26.6833
94.9969 698 26.4197
95.1135 705 26.5518
95.2302 739 27.1846
95.3469 701 26.4764
95.4637 764 27.6405
95.5805 783 27.9821
95.6973 722 26.8701
95.8142 776 27.8568
95.9311 728 26.9815
96.048 744 27.2764
96.1649 709 26.6271
96.2819 640 25.2982
96.3989 710 26.6458
96.516 534 23.1084
96.633 514 22.6716
96.7501 405 20.1246
96.8673 430 20.7364
96.9844 462 21.4942
97.1016 527 22.9565
97.2188 659 25.671
97.336 679 26.0576
97.4532 713 26.7021
97.5704 801 28.3019
97.6877 734 27.0924
97.805 701 26.4764
97.9223 698 26.4197
98.0396 670 25.8844
98.1569 641 25.318
98.2743 733 27.074
98.3916 690 26.2679
98.509 756 27.4955
98.6264 705 26.5518
98.7438 728 26.9815
98.8612 714 26.7208
98.9786 754 27.4591
99.096 725 26.9258
99.2134 758 27.5318
99.3308 732 27.0555
99.4482 767 27.6948
99.5656 788 28.0713
99.6831 723 26.8887
99.8005 699 26.4386
99.9179 695 26.3629
100.035 626 25.02
100.153 552 23.4947
100.27 444 21.0713
100.388 444 21.0713
100.505 481 21.9317
100.622 583 24.1454
100.74 680 26.0768
100.857 786 28.0357
100.975 735 27.1109
101.092 766 27.6767
101.209 779 27.9106
101.327 774 27.8209
101.444 729 27
101.561 700 26.4575
101.679 691 26.2869
101.796 704 26.533
101.913 681 26.096
102.03 736 27.1293
102.148 768 27.7128
102.265 726 26.9444
102.382 758 27.5318
102.499 731 27.037
102.616 764 27.6405
102.733 783 27.9821
102.851 777 27.8747
102.968 784 28
103.085 848 29.1204
103.202 798 28.2489
103.319 791 28.1247
103.436 684 26.1534
103.552 619 24.8797
103.669 592 24.3311
103.786 477 21.8403
103.903 466 21.587
104.02 459 21.4243
104.137 616 24.8193
104.253 726 26.9444
104.37 755 27.4773
104.487 786 28.0357
104.603 793 28.1603
104.72 789 28.0891
104.836 779 27.9106
104.953 766 27.6767
105.069 730 27.0185
105.186 678 26.0384
105.302 739 27.1846
105.418 667 25.8263
105.535 684 26.1534
105.651 748 27.3496
105.767 696 26.3818
105.883 647 25.4362
105.999 556 23.5797
106.115 0 1
106.231 0 1
106.347 0 1
106.463 0 1
106.579 0 1
106.694 0 1
106.81 0 1
106.926 0 1
107.041 0 1
107.157 0 1
109.576 0 1
109.692 0 1
109.807 0 1
109.923 0 1
110.039 0 1
110.155 0 1
110.27 0 1
110.386 0 1
110.502 0 1
110.618 280 16.7332
110.735 387 19.6723
110.851 450 21.2132
110.967 442 21.0238
111.083 492 22.1811
111.199 580 24.0832
111.316 619 24.8797
111.432 635 25.1992
111.549 650 25.4951
111.665 713 26.7021
111.782 644 25.3772
111.898 691 26.2869
112.015 663 25.7488
112.132 602 24.5357
112.248 474 21.7715
112.365 395 19.8746
112.482 407 20.1742
112.599 453 21.2838
112.716 517 22.7376
112.832 605 24.5967
112.949 662 25.7294
113.066 642 25.3377
113.183 718 26.7955
113.3 704 26.533
113.417 687 26.2107
113.534 680 26.0768
113.652 652 25.5343
113.769 627 25.04
113.886 607 24.6374
114.003 608 24.6577
114.12 640 25.2982
114.238 639 25.2784
114.355 659 25.671
114.472 699 26.4386
114.589 673 25.9422
114.707 720 26.8328
114.824 701 26.4764
114.942 689 26.2488
115.059 712 26.6833
115.176 740 27.2029
115.294 694 26.3439
115.411 691 26.2869
115.529 647 25.4362
115.646 615 24.7992
115.764 543 23.3024
115.881 451 21.2368
115.999 404 20.0998
116.116 435 20.8567
116.234 498 22.3159
116.351 583 24.1454
116.469 660 25.6905
116.586 674 25.9615
116.704 621 24.9199
116.821 677 26.0192
116.939 681 26.096
117.056 670 25.8844
117.174 653 25.5539
117.291 648 25.4558
117.409 616 24.8193
117.526 617 24.8395
117.644 640 25.2982
117.761 687 26.2107
117.879 731 27.037
117.996 661 25.7099
118.114 682 26.1151
118.231 707 26.5895
118.349 667 25.8263
118.466 697 26.4008
118.584 718 26.7955
118.701 711 26.6646
118.819 762 27.6043
118.936 691 26.2869
119.053 639 25.2784
119.171 599 24.4745
119.288 563 23.7276
119.405 468 21.6333
119.523 436 20.8806
119.64 379 19.4679
119.757 382 19.5448
119.875 426 20.6398
119.992 531 23.0434
120.109 648 25.4558
120.226 617 24.8395
120.343 630 25.0998
120.46 656 25.6125
120.578 659 25.671
120.695 625 25
120.812 666 25.807
120.929 623 24.96
121.046 627 25.04
121.163 609 24.6779
121.279 578 24.0416
121.396 670 25.8844
121.513 625 25
121.63 603 24.5561
121.747 592 24.3311
121.863 641 25.318
121.98 631 25.1197
122.097 639 25.2784
122.213 619 24.8797
122.33 622 24.9399
122.446 642 25.3377
122.563 539 23.2164
122.679 554 23.5372
122.795 511 22.6053
122.912 432 20.7846
123.028 326 18.0555
123.144 237 15.3948
123.26 199 14.1067
123.377 0 1
123.493 0 1
123.609 0 1
123.725 0 1
123.84 0 1
123.956 0 1
124.072 0 1
124.188 0 1
124.303 0 1
124.419 0 1
126.852 0 1
126.968 0 1
127.083 0 1
127.199 0 1
127.315 0 1
127.431 0 1
127.547 0 1
127.663 0 1
127.779 0 1
127.895 0 1
128.011 0 1
128.127 0 1
128.243 0 1
128.359 494 22.2261
128.476 520 22.8035
128.592 488 22.0907
128.708 372 19.2873
128.825 386 19.6469
128.941 483 21.9773
129.058 567 23.8118
129.174 628 25.0599
129.291 672 25.923
129.408 680 26.0768
129.524 677 26.0192
129.641 744 27.2764
129.758 695 26.3629
129.875 665 25.7876
129.992 690 26.2679
130.108 684 26.1534
130.225 682 26.1151
130.342 652 25.5343
130.459 685 26.1725
130.576 668 25.8457
130.693 622 24.9399
130.81 736 27.1293
130.928 693 26.3249
131.045 675 25.9808
131.162 676 26
131.279 610 24.6982
131.396 625 25
131.513 646 25.4165
131.631 646 25.4165
131.748 607 24.6374
131.865 608 24.6577
131.983 547 23.388
132.1 503 22.4277
132.217 408 20.199
132.335 402 20.0499
132.452 463 21.5174
132.57 550 23.4521
132.687 600 24.4949
132.804 639 25.2784
132.922 674 25.9615
133.039 667 25.8263
133.157 710 26.6458
133.274 671 25.9037
133.392 710 26.6458
133.509 664 25.7682
133.627 633 25.1595
133.744 687 26.2107
133.862 638 25.2587
133.979 667 25.8263
134.097 632 25.1396
134.214 621 24.9199
134.332 653 25.5539
134.449 725 26.9258
134.567 629 25.0799
134.684 689 26.2488
134.802 641 25.318
134.919 691 26.2869
135.037 614 24.779
135.154 643 25.3574
135.272 596 24.4131
135.389 608 24.6577
135.507 561 23.6854
135.624 485 22.0227
135.742 393 19.8242
135.859 400 20
135.977 400 20
136.094 490 22.1359
136.211 570 23.8747
136.329 628 25.0599
136.446 665 25.7876
136.564 668 25.8457
136.681 572 23.9165
136.798 677 26.0192
136.915 649 25.4755
137.033 675 25.9808
137.15 684 26.1534
137.267 671 25.9037
137.384 614 24.779
137.502 663 25.7488
137.619 597 24.4336
137.736 639 25.2784
137.853 594 24.3721
137.97 617 24.8395
138.087 679 26.0576
138.204 635 25.1992
138.321 690 26.2679
138.438 646 25.4165
138.555 653 25.5539
138.672 627 25.04
138.788 615 24.7992
138.905 594 24.3721
139.022 538 23.1948
139.139 568 23.8328
139.255 528 22.9783
139.372 415 20.3715
139.488 377 19.4165
139.605 387 19.6723
139.721 393 19.8242
139.838 473 21.7486
139.954 531 23.0434
140.071 512 22.6274
140.187 413 20.3224
140.303 346 18.6011
140.419 304 17.4356
140.535 325 18.0278
140.652 313 17.6918
140.768 0 1
140.884 0 1
141 0 1
141.115 0 1
141.231 0 1
141.347 0 1
141.463 0 1
141.578 0 1
141.694 0 1
144.104 0 1
144.219 0 1
144.335 0 1
144.45 0 1
144.566 0 1
144.682 0 1
144.798 0 1
144.914 0 1
145.03 0 1
145.146 379 19.4679
145.262 423 20.567
145.378 445 21.095
145.494 414 20.347
145.61 523 22.8692
145.726 488 22.0907
145.842 496 22.2711
145.959 515 22.6936
146.075 446 21.1187
146.192 502 22.4054
146.308 501 22.383
146.425 501 22.383
146.541 440 20.9762
146.658 475 21.7945
146.774 488 22.0907
146.891 491 22.1585
147.008 506 22.4944
147.125 446 21.1187
147.241 462 21.4942
147.358 459 21.4243
147.475 429 20.7123
147.592 482 21.9545
147.709 429 20.7123
147.826 392 19.799
147.943 385 19.6214
148.06 338 18.3848
148.177 320 17.8885
148.294 310 17.6068
148.411 312 17.6635
148.528 369 19.2094
148.645 370 19.2354
148.762 436 20.8806
148.88 512 22.6274
148.997 487 22.0681
149.114 475 21.7945
149.231 473 21.7486
149.349 509 22.561
149.466 483 21.9773
149.583 501 22.383
149.701 514 22.6716
149.818 472 21.7256
149.935 473 21.7486
150.053 469 21.6564
150.17 438 20.9284
150.287 431 20.7605
150.405 473 21.7486
150.522 487 22.0681
150.64 510 22.5832
150.757 466 21.587
150.875 483 21.9773
150.992 427 20.664
151.11 500 22.3607
151.227 457 21.3776
151.344 461 21.4709
151.462 432 20.7846
151.579 382 19.5448
151.697 342 18.4932
151.814 354 18.8149
151.932 275 16.5831
152.049 304 17.4356
152.167 366 19.1311
152.284 400 20
152.402 457 21.3776
152.519 473 21.7486
152.636 465 21.5639
152.754 467 21.6102
152.871 483 21.9773
152.989 476 21.8174
153.106 452 21.2603
153.223 479 21.8861
153.341 451 21.2368
153.458 439 20.9523
153.575 480 21.9089
153.693 421 20.5183
153.81 479 21.8861
153.927 430 20.7364
154.044 450 21.2132
154.162 442 21.0238
154.279 469 21.6564
154.396 471 21.7025
154.513 439 20.9523
154.63 463 21.5174
154.747 479 21.8861
154.864 491 22.1585
154.981 459 21.4243
155.098 430 20.7364
155.215 419 20.4695
155.332 370 19.2354
155.449 322 17.9444
155.566 326 18.0555
155.683 324 18
155.8 370 19.2354
155.917 408 20.199
156.033 462 21.4942
156.15 0 1
156.267 0 1
156.383 0 1
156.5 0 1
156.617 0 1
156.733 0 1
156.85 0 1
156.966 0 1
157.082 0 1
157.199 0 1
157.315 0 1
157.431 0 1
157.547 0 1
157.664 0 1
157.78 0 1
157.896 0 1
158.012 0 1
158.128 0 1
158.244 0 1
158.359 0 1
158.475 0 1
158.591 0 1
158.706 0 1
