
6.15755 0 1
6.2731 0 1
6.3887 0 1
6.50437 0 1
6.62009 0 1
6.73587 0 1
6.8517 0 1
6.96759 0 1
7.08353 0 1
7.19952 0 1
7.31557 0 1
7.43166 0 1
7.54781 0 1
7.664 0 1
7.78024 0 1
7.89653 0 1
8.01286 0 1
8.12924 0 1
8.24567 0 1
8.36213 0 1
8.47864 0 1
8.59519 0 1
8.71178 0 1
8.82841 0 1
8.94508 0 1
9.06179 0 1
9.17853 0 1
9.29531 0 1
9.41212 0 1
9.52897 0 1
9.64584 0 1
9.76276 0 1
9.8797 0 1
9.99667 0 1
10.1137 0 1
10.2307 0 1
10.3478 0 1
10.4648 0 1
10.5819 0 1
10.6991 0 1
10.8162 0 1
10.9334 0 1
11.0506 0 1
11.1678 0 1
11.285 0 1
11.4023 0 1
11.5196 0 1
11.6369 0 1
11.7542 0 1
11.8715 0 1
11.9888 0 1
12.1062 0 1
12.2235 0 1
12.3409 0 1
12.4582 0 1
12.5756 0 1
12.693 0 1
12.8104 0 1
12.9278 0 1
13.0452 0 1
13.1626 0 1
13.28 0 1
13.3974 0 1
13.5149 0 1
13.6323 0 1
13.7497 0 1
13.8671 0 1
13.9845 0 1
14.1019 0 1
14.2193 0 1
14.3367 0 1
14.4541 0 1
14.5714 0 1
14.6888 0 1
14.8062 0 1
14.9235 0 1
15.0408 663 25.7488
15.1581 710 26.6458
15.2755 702 26.4953
15.3927 739 27.1846
15.51 739 27.1846
15.6273 799 28.2666
15.7445 820 28.6356
15.8617 807 28.4077
15.9789 791 28.1247
16.0961 753 27.4408
16.2132 714 26.7208
16.3304 727 26.9629
16.4475 757 27.5136
16.5646 678 26.0384
16.6816 740 27.2029
16.7986 701 26.4764
16.9156 669 25.865
17.0326 677 26.0192
17.1496 687 26.2107
17.2665 652 25.5343
17.3833 663 25.7488
17.5002 659 25.671
17.617 622 24.9399
17.7338 656 25.6125
17.8505 636 25.219
17.9672 753 27.4408
18.0839 708 26.6083
18.2005 769 27.7308
18.3171 799 28.2666
18.4337 812 28.4956
18.5502 832 28.8444
18.6666 811 28.4781
18.7831 904 30.0666
18.8994 882 29.6985
19.0158 802 28.3196
19.1321 766 27.6767
19.2483 758 27.5318
19.3645 751 27.4044
19.4806 746 27.313
19.5967 754 27.4591
19.7128 690 26.2679
19.8288 672 25.923
19.9447 611 24.7184
20.0606 0 1
20.1764 0 1
20.2922 0 1
20.4079 0 1
20.5236 0 1
20.6392 0 1
20.7548 0 1
20.8702 0 1
23.3078 0 1
23.4233 0 1
23.539 0 1
23.6547 0 1
23.7704 0 1
23.8862 0 1
24.0021 0 1
24.118 0 1
24.234 0 1
24.35 0 1
24.4661 729 27
24.5822 750 27.3861
24.6984 709 26.6271
24.8146 659 25.671
24.9309 720 26.8328
25.0472 724 26.9072
25.1636 753 27.4408
25.28 738 27.1662
25.3965 767 27.6948
25.513 827 28.7576
25.6296 774 27.8209
25.7462 761 27.5862
25.8628 720 26.8328
25.9795 739 27.1846
26.0962 798 28.2489
26.213 752 27.4226
26.3298 752 27.4226
26.4466 765 27.6586
26.5635 743 27.258
26.6804 771 27.7669
26.7973 755 27.4773
26.9143 780 27.9285
27.0313 689 26.2488
27.1483 747 27.3313
27.2653 744 27.2764
27.3824 731 27.037
27.4996 672 25.923
27.6167 716 26.7582
27.7339 704 26.533
27.8511 674 25.9615
27.9683 704 26.533
28.0855 671 25.9037
28.2028 671 25.9037
28.3201 762 27.6043
28.4374 711 26.6646
28.5547 715 26.7395
28.6721 730 27.0185
28.7894 710 26.6458
28.9068 715 26.7395
29.0242 717 26.7769
29.1416 732 27.0555
29.259 737 27.1477
29.3764 726 26.9444
29.4939 733 27.074
29.6113 676 26
29.7288 650 25.4951
29.8463 655 25.593
29.9638 622 24.9399
30.0812 609 24.6779
30.1987 622 24.9399
30.3162 649 25.4755
30.4337 653 25.5539
30.5512 686 26.1916
30.6687 651 25.5147
30.7862 720 26.8328
30.9037 717 26.7769
31.0212 723 26.8887
31.1387 709 26.6271
31.2562 691 26.2869
31.3737 694 26.3439
31.4912 704 26.533
31.6087 741 27.2213
31.7262 725 26.9258
31.8436 700 26.4575
31.9611 681 26.096
32.0785 688 26.2298
32.1959 736 27.1293
32.3134 732 27.0555
32.4308 687 26.2107
32.5482 717 26.7769
32.6655 661 25.7099
32.7829 641 25.318
32.9002 644 25.3772
33.0176 624 24.98
33.1349 613 24.7588
33.2522 581 24.1039
33.3694 566 23.7908
33.4867 577 24.0208
33.6039 639 25.2784
33.7211 622 24.9399
33.8383 645 25.3969
33.9554 655 25.593
34.0725 688 26.2298
34.1896 668 25.8457
34.3067 625 25
34.4237 688 26.2298
34.5407 690 26.2679
34.6577 705 26.5518
34.7746 720 26.8328
34.8915 667 25.8263
35.0084 649 25.4755
35.1252 730 27.0185
35.242 697 26.4008
35.3587 731 27.037
35.4755 679 26.0576
35.5921 677 26.0192
35.7088 645 25.3969
35.8254 672 25.923
35.9419 653 25.5539
36.0584 612 24.7386
36.1749 634 25.1794
36.2913 607 24.6374
36.4077 594 24.3721
36.524 579 24.0624
36.6403 610 24.6982
36.7565 581 24.1039
36.8727 498 22.3159
36.9889 496 22.2711
37.1049 536 23.1517
37.221 0 1
37.3369 0 1
37.4529 0 1
37.5687 0 1
37.6845 0 1
37.8003 0 1
37.916 0 1
38.0316 0 1
38.1472 0 1
40.5851 0 1
40.7008 0 1
40.8164 0 1
40.9322 0 1
41.048 0 1
41.1639 0 1
41.2798 0 1
41.3958 0 1
41.5118 0 1
41.6279 0 1
41.744 435 20.8567
41.8602 443 21.0476
41.9765 481 21.9317
42.0928 428 20.6882
42.2091 441 21
42.3255 426 20.6398
42.4419 420 20.4939
42.5584 457 21.3776
42.675 427 20.664
42.7915 469 21.6564
42.9081 476 21.8174
43.0248 504 22.4499
43.1415 514 22.6716
43.2582 523 22.8692
43.375 503 22.4277
43.4918 565 23.7697
43.6087 514 22.6716
43.7256 501 22.383
43.8425 509 22.561
43.9595 523 22.8692
44.0765 495 22.2486
44.1935 480 21.9089
44.3106 457 21.3776
44.4277 498 22.3159
44.5448 430 20.7364
44.6619 462 21.4942
44.7791 444 21.0713
44.8963 386 19.6469
45.0136 412 20.2978
45.1308 436 20.8806
45.2481 393 19.8242
45.3654 380 19.4936
45.4827 397 19.9249
45.6001 395 19.8746
45.7174 340 18.4391
45.8348 348 18.6548
45.9522 314 17.72
46.0697 337 18.3576
46.1871 309 17.5784
46.3046 354 18.8149
46.422 348 18.6548
46.5395 381 19.5192
46.657 390 19.7484
46.7745 359 18.9473
46.892 356 18.868
47.0096 379 19.4679
47.1271 378 19.4422
47.2446 376 19.3907
47.3622 360 18.9737
47.4797 354 18.8149
47.5973 357 18.8944
47.7149 344 18.5472
47.8324 304 17.4356
47.95 344 18.5472
48.0675 307 17.5214
48.1851 268 16.3707
48.3027 290 17.0294
48.4202 342 18.4932
48.5378 295 17.1756
48.6554 342 18.4932
48.7729 332 18.2209
48.8904 327 18.0831
49.008 306 17.4929
49.1255 302 17.3781
49.243 290 17.0294
49.3605 300 17.3205
49.478 280 16.7332
49.5955 293 17.1172
49.713 297 17.2337
49.8304 298 17.2627
49.9479 298 17.2627
50.0653 325 18.0278
50.1827 365 19.105
50.3001 324 18
50.4175 349 18.6815
50.5348 338 18.3848
50.6521 402 20.0499
50.7694 358 18.9209
50.8867 343 18.5203
51.004 378 19.4422
51.1212 344 18.5472
51.2384 384 19.5959
51.3556 379 19.4679
51.4727 399 19.975
51.5899 377 19.4165
51.707 368 19.1833
51.824 366 19.1311
51.9411 376 19.3907
52.0581 439 20.9523
52.175 388 19.6977
52.2919 423 20.567
52.4088 409 20.2237
52.5257 411 20.2731
52.6425 366 19.1311
52.7593 432 20.7846
52.876 390 19.7484
52.9927 351 18.735
53.1094 401 20.025
53.226 411 20.2731
53.3426 356 18.868
53.4591 401 20.025
53.5756 470 21.6795
53.692 450 21.2132
53.8084 461 21.4709
53.9248 389 19.7231
54.0411 409 20.2237
54.1573 418 20.445
54.2735 0 1
54.3896 0 1
54.5057 0 1
54.6217 0 1
54.7377 0 1
54.8537 0 1
54.9695 0 1
55.0853 0 1
55.2011 0 1
55.3168 0 1
55.4324 0 1
57.824 0 1
57.9396 0 1
58.0553 0 1
58.1711 0 1
58.2869 0 1
58.4028 0 1
58.5187 0 1
58.6347 0 1
58.7508 0 1
58.8669 0 1
58.983 473 21.7486
59.0992 487 22.0681
59.2155 474 21.7715
59.3318 542 23.2809
59.4482 493 22.2036
59.5646 564 23.7487
59.681 507 22.5167
59.7975 492 22.1811
59.9141 533 23.0868
60.0306 563 23.7276
60.1473 492 22.1811
60.2639 488 22.0907
60.3807 492 22.1811
60.4974 545 23.3452
60.6142 470 21.6795
60.731 506 22.4944
60.8479 484 22
60.9648 479 21.8861
61.0818 525 22.9129
61.1987 523 22.8692
61.3158 481 21.9317
61.4328 408 20.199
61.5499 402 20.0499
61.667 410 20.2485
61.7841 426 20.6398
61.9013 411 20.2731
62.0185 419 20.4695
62.1357 463 21.5174
62.253 423 20.567
62.3702 486 22.0454
62.4875 439 20.9523
62.6049 398 19.9499
62.7222 465 21.5639
62.8396 449 21.1896
62.9569 469 21.6564
63.0743 485 22.0227
63.1918 477 21.8403
63.3092 432 20.7846
63.4267 478 21.8632
63.5441 450 21.2132
63.6616 455 21.3307
63.7791 433 20.8087
63.8966 437 20.9045
64.0142 369 19.2094
64.1317 486 22.0454
64.2492 466 21.587
64.3668 495 22.2486
64.4843 481 21.9317
64.6019 442 21.0238
64.7195 470 21.6795
64.837 406 20.1494
64.9546 391 19.7737
65.0722 386 19.6469
65.1898 370 19.2354
65.3074 351 18.735
65.4249 408 20.199
65.5425 418 20.445
65.6601 409 20.2237
65.7777 416 20.3961
65.8952 457 21.3776
66.0128 427 20.664
66.1304 415 20.3715
66.2479 404 20.0998
66.3655 445 21.095
66.483 448 21.166
66.6005 439 20.9523
66.718 458 21.4009
66.8355 443 21.0476
66.953 423 20.567
67.0705 446 21.1187
67.1879 402 20.0499
67.3054 419 20.4695
67.4228 432 20.7846
67.5402 414 20.347
67.6576 413 20.3224
67.7749 435 20.8567
67.8923 465 21.5639
68.0096 467 21.6102
68.1269 446 21.1187
68.2442 441 21
68.3614 468 21.6333
68.4787 393 19.8242
68.5958 393 19.8242
68.713 384 19.5959
68.8302 362 19.0263
68.9473 378 19.4422
69.0643 399 19.975
69.1814 396 19.8997
69.2984 452 21.2603
69.4154 449 21.1896
69.5323 462 21.4942
69.6492 429 20.7123
69.7661 396 19.8997
69.8829 408 20.199
69.9997 501 22.383
70.1165 512 22.6274
70.2332 557 23.6008
70.3499 533 23.0868
70.4665 518 22.7596
70.5831 524 22.891
70.6996 482 21.9545
70.8161 498 22.3159
70.9326 480 21.9089
71.049 447 21.1424
71.1653 409 20.2237
71.2817 463 21.5174
71.3979 468 21.6333
71.5141 446 21.1187
71.6303 468 21.6333
71.7464 452 21.2603
71.8624 0 1
71.9784 0 1
72.0944 0 1
72.2102 0 1
72.3261 0 1
72.4418 0 1
72.5575 0 1
72.6732 0 1
75.1054 0 1
75.2209 0 1
75.3365 0 1
75.4521 0 1
75.5678 0 1
75.6835 0 1
75.7993 0 1
75.9151 0 1
76.031 0 1
76.147 520 22.8035
76.263 464 21.5407
76.3791 470 21.6795
76.4952 475 21.7945
76.6113 481 21.9317
76.7276 487 22.0681
76.8438 490 22.1359
76.9601 537 23.1733
77.0765 593 24.3516
77.1929 545 23.3452
77.3093 511 22.6053
77.4258 517 22.7376
77.5423 457 21.3776
77.6589 435 20.8567
77.7755 422 20.5426
77.8921 435 20.8567
78.0088 424 20.5913
78.1256 448 21.166
78.2423 455 21.3307
78.3591 483 21.9773
78.4759 479 21.8861
78.5928 439 20.9523
78.7097 405 20.1246
78.8266 375 19.3649
78.9436 444 21.0713
79.0606 493 22.2036
79.1776 521 22.8254
79.2946 477 21.8403
79.4117 524 22.891
79.5288 527 22.9565
79.6459 494 22.2261
79.7631 557 23.6008
79.8802 457 21.3776
79.9974 462 21.4942
80.1147 473 21.7486
80.2319 469 21.6564
80.3491 490 22.1359
80.4664 444 21.0713
80.5837 498 22.3159
80.701 507 22.5167
80.8183 491 22.1585
80.9357 555 23.5584
81.053 555 23.5584
81.1704 446 21.1187
81.2877 425 20.6155
81.4051 433 20.8087
81.5225 379 19.4679
81.6399 402 20.0499
81.7573 453 21.2838
81.8747 480 21.9089
81.9922 471 21.7025
82.1096 504 22.4499
82.227 446 21.1187
82.3444 400 20
82.4619 388 19.6977
82.5793 383 19.5704
82.6967 467 21.6102
82.8142 482 21.9545
82.9316 478 21.8632
83.049 496 22.2711
83.1664 457 21.3776
83.2838 500 22.3607
83.4012 482 21.9545
83.5186 486 22.0454
83.636 449 21.1896
83.7534 461 21.4709
83.8708 430 20.7364
83.9881 437 20.9045
84.1055 478 21.8632
84.2228 516 22.7156
84.3401 499 22.3383
84.4575 479 21.8861
84.5747 473 21.7486
84.692 453 21.2838
84.8093 429 20.7123
84.9265 458 21.4009
85.0437 399 19.975
85.1609 402 20.0499
85.2781 468 21.6333
85.3952 469 21.6564
85.5123 462 21.4942
85.6294 517 22.7376
85.7465 545 23.3452
85.8636 507 22.5167
85.9806 416 20.3961
86.0976 456 21.3542
86.2145 459 21.4243
86.3315 539 23.2164
86.4484 534 23.1084
86.5652 569 23.8537
86.682 546 23.3666
86.7988 583 24.1454
86.9156 574 23.9583
87.0323 573 23.9374
87.149 539 23.2164
87.2657 542 23.2809
87.3823 564 23.7487
87.4988 560 23.6643
87.6154 580 24.0832
87.7318 603 24.5561
87.8483 596 24.4131
87.9647 654 25.5734
88.081 665 25.7876
88.1973 617 24.8395
88.3136 658 25.6515
88.4298 549 23.4307
88.546 568 23.8328
88.6621 538 23.1948
88.7781 535 23.1301
88.8942 0 1
89.0101 0 1
89.126 0 1
89.2419 0 1
89.3577 0 1
89.4734 0 1
89.5891 0 1
89.7047 0 1
89.8203 0 1
89.9358 0 1
92.3269 0 1
92.4424 0 1
92.558 0 1
92.6736 0 1
92.7893 0 1
92.905 0 1
93.0208 0 1
93.1366 0 1
93.2525 0 1
93.3685 0 1
93.4845 0 1
93.6005 716 26.7582
93.7167 713 26.7021
93.8328 722 26.8701
93.949 629 25.0799
94.0653 625 25
94.1816 611 24.7184
94.2979 573 23.9374
94.4143 625 25
94.5307 625 25
94.6472 661 25.7099
94.7637 665 25.7876
94.8803 677 26.0192
94.9969 660 25.6905
95.1135 628 25.0599
95.2302 584 24.1661
95.3469 643 25.3574
95.4637 674 25.9615
95.5805 745 27.2947
95.6973 777 27.8747
95.8142 804 28.3549
95.9311 721 26.8514
96.048 744 27.2764
96.1649 701 26.4764
96.2819 695 26.3629
96.3989 702 26.4953
96.516 735 27.1109
96.633 698 26.4197
96.7501 687 26.2107
96.8673 747 27.3313
96.9844 772 27.7849
97.1016 738 27.1662
97.2188 812 28.4956
97.336 767 27.6948
97.4532 772 27.7849
97.5704 680 26.0768
97.6877 681 26.096
97.805 676 26
97.9223 653 25.5539
98.0396 705 26.5518
98.1569 681 26.096
98.2743 708 26.6083
98.3916 723 26.8887
98.509 702 26.4953
98.6264 716 26.7582
98.7438 667 25.8263
98.8612 655 25.593
98.9786 713 26.7021
99.096 755 27.4773
99.2134 757 27.5136
99.3308 797 28.2312
99.4482 816 28.5657
99.5656 758 27.5318
99.6831 742 27.2397
99.8005 746 27.313
99.9179 725 26.9258
100.035 761 27.5862
100.153 790 28.1069
100.27 693 26.3249
100.388 736 27.1293
100.505 775 27.8388
100.622 806 28.3901
100.74 894 29.8998
100.857 847 29.1033
100.975 870 29.4958
101.092 807 28.4077
101.209 749 27.3679
101.327 770 27.7489
101.444 743 27.258
101.561 731 27.037
101.679 698 26.4197
101.796 750 27.3861
101.913 841 29
102.03 841 29
102.148 820 28.6356
102.265 756 27.4955
102.382 730 27.0185
102.499 700 26.4575
102.616 789 28.0891
102.733 891 29.8496
102.851 826 28.7402
102.968 921 30.348
103.085 884 29.7321
103.202 935 30.5778
103.319 938 30.6268
103.436 881 29.6816
103.552 821 28.6531
103.669 836 28.9137
103.786 866 29.4279
103.903 901 30.0167
104.02 925 30.4138
104.137 1002 31.6544
104.253 928 30.4631
104.37 975 31.225
104.487 981 31.3209
104.603 924 30.3974
104.72 930 30.4959
104.836 916 30.2655
104.953 907 30.1164
105.069 898 29.9666
105.186 927 30.4467
105.302 940 30.6594
105.418 950 30.8221
105.535 974 31.209
105.651 980 31.305
105.767 851 29.1719
105.883 910 30.1662
105.999 940 30.6594
106.115 0 1
106.231 0 1
106.347 0 1
106.463 0 1
106.579 0 1
106.694 0 1
106.81 0 1
106.926 0 1
107.041 0 1
107.157 0 1
109.576 0 1
109.692 0 1
109.807 0 1
109.923 0 1
110.039 0 1
110.155 0 1
110.27 0 1
110.386 0 1
110.502 0 1
110.618 999 31.607
110.735 1050 32.4037
110.851 908 30.133
110.967 890 29.8329
111.083 904 30.0666
111.199 985 31.3847
111.316 1112 33.3467
111.432 960 30.9839
111.549 1031 32.1092
111.665 955 30.9031
111.782 1038 32.218
111.898 1005 31.7017
112.015 958 30.9516
112.132 982 31.3369
112.248 941 30.6757
112.365 921 30.348
112.482 922 30.3645
112.599 959 30.9677
112.716 990 31.4643
112.832 1018 31.9061
112.949 1038 32.218
113.066 1040 32.249
113.183 999 31.607
113.3 966 31.0805
113.417 969 31.1288
113.534 966 31.0805
113.652 921 30.348
113.769 928 30.4631
113.886 981 31.3209
114.003 1003 31.6702
114.12 1012 31.8119
114.238 1002 31.6544
114.355 935 30.5778
114.472 826 28.7402
114.589 884 29.7321
114.707 878 29.6311
114.824 1084 32.9242
114.942 1021 31.9531
115.059 1009 31.7648
115.176 936 30.5941
115.294 1006 31.7175
115.411 1059 32.5423
115.529 994 31.5278
115.646 952 30.8545
115.764 972 31.1769
115.881 932 30.5287
115.999 939 30.6431
116.116 1001 31.6386
116.234 1011 31.7962
116.351 1048 32.3728
116.469 1064 32.619
116.586 1140 33.7639
116.704 1090 33.0151
116.821 1135 33.6898
116.939 1110 33.3167
117.056 1045 32.3265
117.174 985 31.3847
117.291 1042 32.28
117.409 1035 32.1714
117.526 1063 32.6037
117.644 1035 32.1714
117.761 1093 33.0606
117.879 1066 32.6497
117.996 946 30.7571
118.114 964 31.0483
118.231 996 31.5595
118.349 1072 32.7414
118.466 1110 33.3167
118.584 1075 32.7872
118.701 1095 33.0908
118.819 1053 32.45
118.936 1104 33.2265
119.053 1017 31.8904
119.171 1034 32.1559
119.288 993 31.5119
119.405 964 31.0483
119.523 1078 32.8329
119.64 996 31.5595
119.757 987 31.4166
119.875 1050 32.4037
119.992 1099 33.1512
120.109 1126 33.5559
120.226 1084 32.9242
120.343 1126 33.5559
120.46 1152 33.9411
120.578 1124 33.5261
120.695 1119 33.4515
120.812 1068 32.6803
120.929 1087 32.9697
121.046 1093 33.0606
121.163 1060 32.5576
121.279 1078 32.8329
121.396 1123 33.5112
121.513 1053 32.45
121.63 1047 32.3574
121.747 999 31.607
121.863 972 31.1769
121.98 1007 31.7333
122.097 1023 31.9844
122.213 1042 32.28
122.33 1083 32.909
122.446 1033 32.1403
122.563 1026 32.0312
122.679 1118 33.4365
122.795 1035 32.1714
122.912 991 31.4802
123.028 994 31.5278
123.144 936 30.5941
123.26 913 30.2159
123.377 0 1
123.493 0 1
123.609 0 1
123.725 0 1
123.84 0 1
123.956 0 1
124.072 0 1
124.188 0 1
124.303 0 1
124.419 0 1
126.852 0 1
126.968 0 1
127.083 0 1
127.199 0 1
127.315 0 1
127.431 0 1
127.547 0 1
127.663 0 1
127.779 0 1
127.895 0 1
128.011 0 1
128.127 0 1
128.243 0 1
128.359 1195 34.5688
128.476 1174 34.2637
128.592 1149 33.8969
128.708 1137 33.7194
128.825 1192 34.5254
128.941 1270 35.6371
129.058 1334 36.524
129.174 1233 35.1141
129.291 1329 36.4555
129.408 1222 34.9571
129.524 1322 36.3593
129.641 1313 36.2353
129.758 1293 35.9583
129.875 1284 35.8329
129.992 1305 36.1248
130.108 1332 36.4966
130.225 1404 37.47
130.342 1419 37.6696
130.459 1318 36.3043
130.576 1367 36.973
130.693 1265 35.5668
130.81 1278 35.7491
130.928 1249 35.3412
131.045 1374 37.0675
131.162 1438 37.921
131.279 1401 37.4299
131.396 1436 37.8946
131.513 1427 37.7757
131.631 1415 37.6165
131.748 1423 37.7227
131.865 1377 37.108
131.983 1305 36.1248
132.1 1291 35.9305
132.217 1416 37.6298
132.335 1314 36.2491
132.452 1282 35.805
132.57 1321 36.3456
132.687 1340 36.606
132.804 1329 36.4555
132.922 1290 35.9166
133.039 1324 36.3868
133.157 1361 36.8917
133.274 1367 36.973
133.392 1412 37.5766
133.509 1378 37.1214
133.627 1344 36.6606
133.744 1432 37.8418
133.862 1476 38.4187
133.979 1524 39.0384
134.097 1444 38
134.214 1406 37.4967
134.332 1374 37.0675
134.449 1517 38.9487
134.567 1480 38.4708
134.684 1530 39.1152
134.802 1569 39.6106
134.919 1471 38.3536
135.037 1550 39.37
135.154 1526 39.064
135.272 1511 38.8716
135.389 1383 37.1887
135.507 1464 38.2623
135.624 1414 37.6032
135.742 1358 36.8511
135.859 1417 37.6431
135.977 1371 37.027
136.094 1423 37.7227
136.211 1496 38.6782
136.329 1455 38.1445
136.446 1418 37.6563
136.564 1415 37.6165
136.681 1409 37.5366
136.798 1428 37.7889
136.915 1420 37.6829
137.033 1413 37.5899
137.15 1460 38.2099
137.267 1460 38.2099
137.384 1513 38.8973
137.502 1526 39.064
137.619 1496 38.6782
137.736 1478 38.4448
137.853 1429 37.8021
137.97 1433 37.855
138.087 1555 39.4335
138.204 1585 39.8121
138.321 1615 40.1871
138.438 1561 39.5095
138.555 1663 40.7799
138.672 1696 41.1825
138.788 1664 40.7922
138.905 1639 40.4846
139.022 1628 40.3485
139.139 1595 39.9375
139.255 1528 39.0896
139.372 1621 40.2616
139.488 1478 38.4448
139.605 1497 38.6911
139.721 1505 38.7943
139.838 1498 38.704
139.954 1451 38.092
140.071 1504 38.7814
140.187 1536 39.1918
140.303 1486 38.5487
140.419 1461 38.223
140.535 1515 38.923
140.652 1436 37.8946
140.768 0 1
140.884 0 1
141 0 1
141.115 0 1
141.231 0 1
141.347 0 1
141.463 0 1
141.578 0 1
141.694 0 1
144.104 0 1
144.219 0 1
144.335 0 1
144.45 0 1
144.566 0 1
144.682 0 1
144.798 0 1
144.914 0 1
145.03 0 1
145.146 1206 34.7275
145.262 1321 36.3456
145.378 1273 35.6791
145.494 1355 36.8103
145.61 1297 36.0139
145.726 1356 36.8239
145.842 1354 36.7967
145.959 1353 36.7831
146.075 1324 36.3868
146.192 1301 36.0694
146.308 1339 36.5923
146.425 1370 37.0135
146.541 1326 36.4143
146.658 1240 35.2136
146.774 1218 34.8999
146.891 1217 34.8855
147.008 1202 34.6699
147.125 1174 34.2637
147.241 1287 35.8748
147.358 1321 36.3456
147.475 1342 36.6333
147.592 1215 34.8569
147.709 1330 36.4692
147.826 1356 36.8239
147.943 1382 37.1753
148.06 1439 37.9342
148.177 1370 37.0135
148.294 1344 36.6606
148.411 1401 37.4299
148.528 1414 37.6032
148.645 1439 37.9342
148.762 1495 38.6652
148.88 1481 38.4838
148.997 1420 37.6829
149.114 1490 38.6005
149.231 1457 38.1707
149.349 1426 37.7624
149.466 1502 38.7556
149.583 1529 39.1024
149.701 1507 38.8201
149.818 1498 38.704
149.935 1439 37.9342
150.053 1451 38.092
150.17 1496 38.6782
150.287 1499 38.7169
150.405 1404 37.47
150.522 1368 36.9865
150.64 1343 36.647
150.757 1343 36.647
150.875 1389 37.2693
150.992 1358 36.8511
151.11 1344 36.6606
151.227 1266 35.5809
151.344 1209 34.7707
151.462 1201 34.6554
151.579 1182 34.3802
151.697 1187 34.4529
151.814 1203 34.6843
151.932 1161 34.0735
152.049 1206 34.7275
152.167 1256 35.4401
152.284 1278 35.7491
152.402 1288 35.8887
152.519 1277 35.7351
152.636 1313 36.2353
152.754 1401 37.4299
152.871 1321 36.3456
152.989 1314 36.2491
153.106 1433 37.855
153.223 1410 37.55
153.341 1525 39.0512
153.458 1467 38.3014
153.575 1483 38.5097
153.693 1535 39.1791
153.81 1491 38.6135
153.927 1514 38.9102
154.044 1490 38.6005
154.162 1497 38.6911
154.279 1468 38.3145
154.396 1543 39.281
154.513 1528 39.0896
154.63 1588 39.8497
154.747 1536 39.1918
154.864 1487 38.5616
154.981 1541 39.2556
155.098 1511 38.8716
155.215 1500 38.7298
155.332 1398 37.3898
155.449 1334 36.524
155.566 1299 36.0416
155.683 1244 35.2704
155.8 1182 34.3802
155.917 1135 33.6898
156.033 1143 33.8083
156.15 0 1
156.267 0 1
156.383 0 1
156.5 0 1
156.617 0 1
156.733 0 1
156.85 0 1
156.966 0 1
157.082 0 1
157.199 0 1
157.315 0 1
157.431 0 1
157.547 0 1
157.664 0 1
157.78 0 1
157.896 0 1
158.012 0 1
158.128 0 1
158.244 0 1
158.359 0 1
158.475 0 1
158.591 0 1
158.706 0 1
