
6.15755 0 1
6.2731 0 1
6.3887 0 1
6.50437 0 1
6.62009 0 1
6.73587 0 1
6.8517 0 1
6.96759 0 1
7.08353 0 1
7.19952 0 1
7.31557 0 1
7.43166 0 1
7.54781 0 1
7.664 0 1
7.78024 0 1
7.89653 0 1
8.01286 0 1
8.12924 0 1
8.24567 0 1
8.36213 0 1
8.47864 0 1
8.59519 0 1
8.71178 0 1
8.82841 0 1
8.94508 0 1
9.06179 0 1
9.17853 0 1
9.29531 0 1
9.41212 0 1
9.52897 0 1
9.64584 0 1
9.76276 0 1
9.8797 0 1
9.99667 0 1
10.1137 0 1
10.2307 0 1
10.3478 0 1
10.4648 0 1
10.5819 0 1
10.6991 0 1
10.8162 0 1
10.9334 0 1
11.0506 0 1
11.1678 0 1
11.285 0 1
11.4023 0 1
11.5196 0 1
11.6369 0 1
11.7542 0 1
11.8715 0 1
11.9888 0 1
12.1062 0 1
12.2235 0 1
12.3409 0 1
12.4582 0 1
12.5756 0 1
12.693 0 1
12.8104 0 1
12.9278 0 1
13.0452 0 1
13.1626 0 1
13.28 0 1
13.3974 0 1
13.5149 0 1
13.6323 0 1
13.7497 0 1
13.8671 0 1
13.9845 0 1
14.1019 0 1
14.2193 0 1
14.3367 0 1
14.4541 0 1
14.5714 0 1
14.6888 0 1
14.8062 0 1
14.9235 0 1
15.0408 770 27.7489
15.1581 758 27.5318
15.2755 805 28.3725
15.3927 798 28.2489
15.51 834 28.8791
15.6273 853 29.2062
15.7445 870 29.4958
15.8617 792 28.1425
15.9789 850 29.1548
16.0961 868 29.4618
16.2132 863 29.3769
16.3304 803 28.3373
16.4475 847 29.1033
16.5646 870 29.4958
16.6816 909 30.1496
16.7986 920 30.3315
16.9156 1012 31.8119
17.0326 904 30.0666
17.1496 941 30.6757
17.2665 959 30.9677
17.3833 917 30.282
17.5002 874 29.5635
17.617 913 30.2159
17.7338 862 29.3598
17.8505 837 28.931
17.9672 835 28.8964
18.0839 808 28.4253
18.2005 894 29.8998
18.3171 874 29.5635
18.4337 894 29.8998
18.5502 905 30.0832
18.6666 965 31.0644
18.7831 947 30.7734
18.8994 914 30.2324
19.0158 947 30.7734
19.1321 941 30.6757
19.2483 886 29.7658
19.3645 830 28.8097
19.4806 771 27.7669
19.5967 716 26.7582
19.7128 645 25.3969
19.8288 595 24.3926
19.9447 511 22.6053
20.0606 0 1
20.1764 0 1
20.2922 0 1
20.4079 0 1
20.5236 0 1
20.6392 0 1
20.7548 0 1
20.8702 0 1
23.3078 0 1
23.4233 0 1
23.539 0 1
23.6547 0 1
23.7704 0 1
23.8862 0 1
24.0021 0 1
24.118 0 1
24.234 0 1
24.35 0 1
24.4661 343 18.5203
24.5822 462 21.4942
24.6984 499 22.3383
24.8146 542 23.2809
24.9309 646 25.4165
25.0472 596 24.4131
25.1636 734 27.0924
25.28 747 27.3313
25.3965 810 28.4605
25.513 879 29.6479
25.6296 881 29.6816
25.7462 967 31.0966
25.8628 979 31.289
25.9795 991 31.4802
26.0962 957 30.9354
26.213 936 30.5941
26.3298 931 30.5123
26.4466 899 29.9833
26.5635 847 29.1033
26.6804 808 28.4253
26.7973 854 29.2233
26.9143 851 29.1719
27.0313 961 31
27.1483 960 30.9839
27.2653 982 31.3369
27.3824 910 30.1662
27.4996 920 30.3315
27.6167 967 31.0966
27.7339 861 29.3428
27.8511 900 30
27.9683 898 29.9666
28.0855 834 28.8791
28.2028 819 28.6182
28.3201 775 27.8388
28.4374 783 27.9821
28.5547 798 28.2489
28.6721 764 27.6405
28.7894 828 28.775
28.9068 851 29.1719
29.0242 914 30.2324
29.1416 938 30.6268
29.259 930 30.4959
29.3764 977 31.257
29.4939 917 30.282
29.6113 966 31.0805
29.7288 890 29.8329
29.8463 841 29
29.9638 823 28.688
30.0812 718 26.7955
30.1987 787 28.0535
30.3162 856 29.2575
30.4337 871 29.5127
30.5512 916 30.2655
30.6687 870 29.4958
30.7862 935 30.5778
30.9037 901 30.0167
31.0212 949 30.8058
31.1387 918 30.2985
31.2562 915 30.249
31.3737 891 29.8496
31.4912 868 29.4618
31.6087 841 29
31.7262 840 28.9828
31.8436 751 27.4044
31.9611 780 27.9285
32.0785 754 27.4591
32.1959 759 27.55
32.3134 760 27.5681
32.4308 857 29.2746
32.5482 896 29.9333
32.6655 889 29.8161
32.7829 931 30.5123
32.9002 892 29.8664
33.0176 894 29.8998
33.1349 908 30.133
33.2522 937 30.6105
33.3694 845 29.0689
33.4867 806 28.3901
33.6039 739 27.1846
33.7211 769 27.7308
33.8383 801 28.3019
33.9554 778 27.8927
34.0725 736 27.1293
34.1896 826 28.7402
34.3067 856 29.2575
34.4237 863 29.3769
34.5407 858 29.2916
34.6577 895 29.9166
34.7746 887 29.7825
34.8915 850 29.1548
35.0084 879 29.6479
35.1252 813 28.5132
35.242 805 28.3725
35.3587 810 28.4605
35.4755 750 27.3861
35.5921 743 27.258
35.7088 741 27.2213
35.8254 693 26.3249
35.9419 737 27.1477
36.0584 735 27.1109
36.1749 806 28.3901
36.2913 795 28.1957
36.4077 777 27.8747
36.524 815 28.5482
36.6403 759 27.55
36.7565 721 26.8514
36.8727 669 25.865
36.9889 677 26.0192
37.1049 609 24.6779
37.221 0 1
37.3369 0 1
37.4529 0 1
37.5687 0 1
37.6845 0 1
37.8003 0 1
37.916 0 1
38.0316 0 1
38.1472 0 1
40.5851 0 1
40.7008 0 1
40.8164 0 1
40.9322 0 1
41.048 0 1
41.1639 0 1
41.2798 0 1
41.3958 0 1
41.5118 0 1
41.6279 0 1
41.744 436 20.8806
41.8602 467 21.6102
41.9765 468 21.6333
42.0928 518 22.7596
42.2091 524 22.891
42.3255 499 22.3383
42.4419 504 22.4499
42.5584 552 23.4947
42.675 549 23.4307
42.7915 630 25.0998
42.9081 647 25.4362
43.0248 716 26.7582
43.1415 732 27.0555
43.2582 722 26.8701
43.375 706 26.5707
43.4918 703 26.5141
43.6087 722 26.8701
43.7256 667 25.8263
43.8425 718 26.7955
43.9595 726 26.9444
44.0765 682 26.1151
44.1935 642 25.3377
44.3106 634 25.1794
44.4277 589 24.2693
44.5448 583 24.1454
44.6619 586 24.2074
44.7791 622 24.9399
44.8963 638 25.2587
45.0136 706 26.5707
45.1308 737 27.1477
45.2481 747 27.3313
45.3654 732 27.0555
45.4827 766 27.6767
45.6001 699 26.4386
45.7174 735 27.1109
45.8348 677 26.0192
45.9522 632 25.1396
46.0697 678 26.0384
46.1871 583 24.1454
46.3046 593 24.3516
46.422 657 25.632
46.5395 679 26.0576
46.657 731 27.037
46.7745 758 27.5318
46.892 719 26.8142
47.0096 738 27.1662
47.1271 715 26.7395
47.2446 739 27.1846
47.3622 737 27.1477
47.4797 794 28.178
47.5973 719 26.8142
47.7149 706 26.5707
47.8324 678 26.0384
47.95 659 25.671
48.0675 639 25.2784
48.1851 584 24.1661
48.3027 581 24.1039
48.4202 667 25.8263
48.5378 629 25.0799
48.6554 742 27.2397
48.7729 751 27.4044
48.8904 766 27.6767
49.008 778 27.8927
49.1255 700 26.4575
49.243 738 27.1662
49.3605 692 26.3059
49.478 610 24.6982
49.5955 600 24.4949
49.713 558 23.622
49.8304 593 24.3516
49.9479 667 25.8263
50.0653 668 25.8457
50.1827 700 26.4575
50.3001 722 26.8701
50.4175 679 26.0576
50.5348 750 27.3861
50.6521 752 27.4226
50.7694 751 27.4044
50.8867 731 27.037
51.004 729 27
51.1212 690 26.2679
51.2384 686 26.1916
51.3556 680 26.0768
51.4727 649 25.4755
51.5899 625 25
51.707 632 25.1396
51.824 574 23.9583
51.9411 643 25.3574
52.0581 673 25.9422
52.175 711 26.6646
52.2919 691 26.2869
52.4088 793 28.1603
52.5257 669 25.865
52.6425 746 27.313
52.7593 788 28.0713
52.876 746 27.313
52.9927 660 25.6905
53.1094 656 25.6125
53.226 625 25
53.3426 590 24.2899
53.4591 565 23.7697
53.5756 585 24.1868
53.692 593 24.3516
53.8084 542 23.2809
53.9248 561 23.6854
54.0411 570 23.8747
54.1573 548 23.4094
54.2735 0 1
54.3896 0 1
54.5057 0 1
54.6217 0 1
54.7377 0 1
54.8537 0 1
54.9695 0 1
55.0853 0 1
55.2011 0 1
55.3168 0 1
55.4324 0 1
57.824 0 1
57.9396 0 1
58.0553 0 1
58.1711 0 1
58.2869 0 1
58.4028 0 1
58.5187 0 1
58.6347 0 1
58.7508 0 1
58.8669 0 1
58.983 529 23
59.0992 568 23.8328
59.2155 658 25.6515
59.3318 691 26.2869
59.4482 755 27.4773
59.5646 721 26.8514
59.681 846 29.0861
59.7975 878 29.6311
59.9141 810 28.4605
60.0306 817 28.5832
60.1473 800 28.2843
60.2639 804 28.3549
60.3807 737 27.1477
60.4974 728 26.9815
60.6142 787 28.0535
60.731 902 30.0333
60.8479 832 28.8444
60.9648 885 29.7489
61.0818 910 30.1662
61.1987 935 30.5778
61.3158 936 30.5941
61.4328 863 29.3769
61.5499 861 29.3428
61.667 804 28.3549
61.7841 740 27.2029
61.9013 744 27.2764
62.0185 713 26.7021
62.1357 791 28.1247
62.253 806 28.3901
62.3702 798 28.2489
62.4875 908 30.133
62.6049 933 30.545
62.7222 892 29.8664
62.8396 903 30.05
62.9569 952 30.8545
63.0743 911 30.1828
63.1918 914 30.2324
63.3092 945 30.7409
63.4267 895 29.9166
63.5441 862 29.3598
63.6616 792 28.1425
63.7791 783 27.9821
63.8966 716 26.7582
64.0142 747 27.3313
64.1317 747 27.3313
64.2492 826 28.7402
64.3668 884 29.7321
64.4843 901 30.0167
64.6019 931 30.5123
64.7195 900 30
64.837 941 30.6757
64.9546 903 30.05
65.0722 890 29.8329
65.1898 854 29.2233
65.3074 801 28.3019
65.4249 691 26.2869
65.5425 728 26.9815
65.6601 739 27.1846
65.7777 805 28.3725
65.8952 841 29
66.0128 858 29.2916
66.1304 894 29.8998
66.2479 900 30
66.3655 904 30.0666
66.483 981 31.3209
66.6005 924 30.3974
66.718 964 31.0483
66.8355 930 30.4959
66.953 954 30.8869
67.0705 909 30.1496
67.1879 897 29.95
67.3054 850 29.1548
67.4228 797 28.2312
67.5402 692 26.3059
67.6576 762 27.6043
67.7749 793 28.1603
67.8923 856 29.2575
68.0096 885 29.7489
68.1269 989 31.4484
68.2442 975 31.225
68.3614 991 31.4802
68.4787 1006 31.7175
68.5958 1013 31.8277
68.713 925 30.4138
68.8302 907 30.1164
68.9473 854 29.2233
69.0643 827 28.7576
69.1814 817 28.5832
69.2984 840 28.9828
69.4154 878 29.6311
69.5323 996 31.5595
69.6492 974 31.209
69.7661 1018 31.9061
69.8829 1019 31.9218
69.9997 1030 32.0936
70.1165 1016 31.8748
70.2332 1074 32.7719
70.3499 1026 32.0312
70.4665 975 31.225
70.5831 857 29.2746
70.6996 868 29.4618
70.8161 821 28.6531
70.9326 775 27.8388
71.049 699 26.4386
71.1653 502 22.4054
71.2817 465 21.5639
71.3979 408 20.199
71.5141 430 20.7364
71.6303 431 20.7605
71.7464 365 19.105
71.8624 0 1
71.9784 0 1
72.0944 0 1
72.2102 0 1
72.3261 0 1
72.4418 0 1
72.5575 0 1
72.6732 0 1
75.1054 0 1
75.2209 0 1
75.3365 0 1
75.4521 0 1
75.5678 0 1
75.6835 0 1
75.7993 0 1
75.9151 0 1
76.031 0 1
76.147 622 24.9399
76.263 603 24.5561
76.3791 621 24.9199
76.4952 650 25.4951
76.6113 620 24.8998
76.7276 688 26.2298
76.8438 728 26.9815
76.9601 765 27.6586
77.0765 801 28.3019
77.1929 843 29.0345
77.3093 860 29.3258
77.4258 886 29.7658
77.5423 826 28.7402
77.6589 813 28.5132
77.7755 776 27.8568
77.8921 723 26.8887
78.0088 669 25.865
78.1256 583 24.1454
78.2423 564 23.7487
78.3591 633 25.1595
78.4759 684 26.1534
78.5928 737 27.1477
78.7097 704 26.533
78.8266 747 27.3313
78.9436 845 29.0689
79.0606 809 28.4429
79.1776 866 29.4279
79.2946 840 28.9828
79.4117 853 29.2062
79.5288 823 28.688
79.6459 827 28.7576
79.7631 741 27.2213
79.8802 793 28.1603
79.9974 736 27.1293
80.1147 640 25.2982
80.2319 648 25.4558
80.3491 613 24.7588
80.4664 647 25.4362
80.5837 725 26.9258
80.701 808 28.4253
80.8183 807 28.4077
80.9357 814 28.5307
81.053 833 28.8617
81.1704 862 29.3598
81.2877 844 29.0517
81.4051 804 28.3549
81.5225 721 26.8514
81.6399 732 27.0555
81.7573 643 25.3574
81.8747 619 24.8797
81.9922 620 24.8998
82.1096 638 25.2587
82.227 698 26.4197
82.3444 737 27.1477
82.4619 747 27.3313
82.5793 837 28.931
82.6967 884 29.7321
82.8142 845 29.0689
82.9316 867 29.4449
83.049 827 28.7576
83.1664 863 29.3769
83.2838 884 29.7321
83.4012 864 29.3939
83.5186 807 28.4077
83.636 757 27.5136
83.7534 728 26.9815
83.8708 641 25.318
83.9881 636 25.219
84.1055 654 25.5734
84.2228 688 26.2298
84.3401 801 28.3019
84.4575 842 29.0172
84.5747 924 30.3974
84.692 936 30.5941
84.8093 913 30.2159
84.9265 858 29.2916
85.0437 862 29.3598
85.1609 728 26.9815
85.2781 671 25.9037
85.3952 646 25.4165
85.5123 635 25.1992
85.6294 641 25.318
85.7465 727 26.9629
85.8636 785 28.0179
85.9806 822 28.6705
86.0976 886 29.7658
86.2145 856 29.2575
86.3315 864 29.3939
86.4484 909 30.1496
86.5652 900 30
86.682 838 28.9482
86.7988 902 30.0333
86.9156 828 28.775
87.0323 834 28.8791
87.149 806 28.3901
87.2657 734 27.0924
87.3823 675 25.9808
87.4988 545 23.3452
87.6154 521 22.8254
87.7318 594 24.3721
87.8483 603 24.5561
87.9647 657 25.632
88.081 662 25.7294
88.1973 626 25.02
88.3136 657 25.632
88.4298 628 25.0599
88.546 526 22.9347
88.6621 516 22.7156
88.7781 383 19.5704
88.8942 0 1
89.0101 0 1
89.126 0 1
89.2419 0 1
89.3577 0 1
89.4734 0 1
89.5891 0 1
89.7047 0 1
89.8203 0 1
89.9358 0 1
92.3269 0 1
92.4424 0 1
92.558 0 1
92.6736 0 1
92.7893 0 1
92.905 0 1
93.0208 0 1
93.1366 0 1
93.2525 0 1
93.3685 0 1
93.4845 0 1
93.6005 600 24.4949
93.7167 654 25.5734
93.8328 665 25.7876
93.949 728 26.9815
94.0653 708 26.6083
94.1816 763 27.6225
94.2979 666 25.807
94.4143 676 26
94.5307 652 25.5343
94.6472 663 25.7488
94.7637 602 24.5357
94.8803 678 26.0384
94.9969 697 26.4008
95.1135 784 28
95.2302 795 28.1957
95.3469 864 29.3939
95.4637 858 29.2916
95.5805 888 29.7993
95.6973 906 30.0998
95.8142 860 29.3258
95.9311 843 29.0345
96.048 863 29.3769
96.1649 812 28.4956
96.2819 812 28.4956
96.3989 830 28.8097
96.516 736 27.1293
96.633 711 26.6646
96.7501 666 25.807
96.8673 635 25.1992
96.9844 657 25.632
97.1016 741 27.2213
97.2188 761 27.5862
97.336 808 28.4253
97.4532 864 29.3939
97.5704 847 29.1033
97.6877 876 29.5973
97.805 824 28.7054
97.9223 845 29.0689
98.0396 757 27.5136
98.1569 650 25.4951
98.2743 685 26.1725
98.3916 629 25.0799
98.509 703 26.5141
98.6264 743 27.258
98.7438 755 27.4773
98.8612 873 29.5466
98.9786 854 29.2233
99.096 857 29.2746
99.2134 881 29.6816
99.3308 871 29.5127
99.4482 955 30.9031
99.5656 942 30.692
99.6831 879 29.6479
99.8005 898 29.9666
99.9179 867 29.4449
100.035 847 29.1033
100.153 799 28.2666
100.27 743 27.258
100.388 726 26.9444
100.505 714 26.7208
100.622 837 28.931
100.74 818 28.6007
100.857 888 29.7993
100.975 919 30.315
101.092 907 30.1164
101.209 915 30.249
101.327 870 29.4958
101.444 869 29.4788
101.561 794 28.178
101.679 771 27.7669
101.796 676 26
101.913 668 25.8457
102.03 699 26.4386
102.148 735 27.1109
102.265 799 28.2666
102.382 829 28.7924
102.499 856 29.2575
102.616 899 29.9833
102.733 1013 31.8277
102.851 962 31.0161
102.968 969 31.1288
103.085 956 30.9192
103.202 941 30.6757
103.319 938 30.6268
103.436 890 29.8329
103.552 871 29.5127
103.669 824 28.7054
103.786 756 27.4955
103.903 738 27.1662
104.02 774 27.8209
104.137 845 29.0689
104.253 827 28.7576
104.37 930 30.4959
104.487 993 31.5119
104.603 907 30.1164
104.72 953 30.8707
104.836 895 29.9166
104.953 892 29.8664
105.069 749 27.3679
105.186 732 27.0555
105.302 635 25.1992
105.418 604 24.5764
105.535 592 24.3311
105.651 588 24.2487
105.767 648 25.4558
105.883 579 24.0624
105.999 547 23.388
106.115 0 1
106.231 0 1
106.347 0 1
106.463 0 1
106.579 0 1
106.694 0 1
106.81 0 1
106.926 0 1
107.041 0 1
107.157 0 1
109.576 0 1
109.692 0 1
109.807 0 1
109.923 0 1
110.039 0 1
110.155 0 1
110.27 0 1
110.386 0 1
110.502 0 1
110.618 363 19.0526
110.735 486 22.0454
110.851 537 23.1733
110.967 630 25.0998
111.083 681 26.096
111.199 788 28.0713
111.316 813 28.5132
111.432 817 28.5832
111.549 831 28.8271
111.665 897 29.95
111.782 872 29.5296
111.898 847 29.1033
112.015 771 27.7669
112.132 725 26.9258
112.248 754 27.4591
112.365 673 25.9422
112.482 666 25.807
112.599 683 26.1343
112.716 749 27.3679
112.832 811 28.4781
112.949 810 28.4605
113.066 854 29.2233
113.183 810 28.4605
113.3 880 29.6648
113.417 899 29.9833
113.534 828 28.775
113.652 732 27.0555
113.769 674 25.9615
113.886 665 25.7876
114.003 653 25.5539
114.12 641 25.318
114.238 710 26.6458
114.355 781 27.9464
114.472 811 28.4781
114.589 876 29.5973
114.707 838 28.9482
114.824 865 29.4109
114.942 861 29.3428
115.059 892 29.8664
115.176 917 30.282
115.294 895 29.9166
115.411 879 29.6479
115.529 840 28.9828
115.646 813 28.5132
115.764 743 27.258
115.881 732 27.0555
115.999 677 26.0192
116.116 678 26.0384
116.234 711 26.6646
116.351 768 27.7128
116.469 791 28.1247
116.586 870 29.4958
116.704 847 29.1033
116.821 893 29.8831
116.939 874 29.5635
117.056 815 28.5482
117.174 849 29.1376
117.291 740 27.2029
117.409 670 25.8844
117.526 652 25.5343
117.644 627 25.04
117.761 764 27.6405
117.879 720 26.8328
117.996 814 28.5307
118.114 792 28.1425
118.231 809 28.4429
118.349 870 29.4958
118.466 849 29.1376
118.584 863 29.3769
118.701 813 28.5132
118.819 827 28.7576
118.936 897 29.95
119.053 829 28.7924
119.171 776 27.8568
119.288 772 27.7849
119.405 740 27.2029
119.523 645 25.3969
119.64 652 25.5343
119.757 682 26.1151
119.875 709 26.6271
119.992 756 27.4955
120.109 798 28.2489
120.226 839 28.9655
120.343 810 28.4605
120.46 876 29.5973
120.578 873 29.5466
120.695 827 28.7576
120.812 772 27.7849
120.929 747 27.3313
121.046 677 26.0192
121.163 621 24.9199
121.279 602 24.5357
121.396 627 25.04
121.513 620 24.8998
121.63 733 27.074
121.747 694 26.3439
121.863 700 26.4575
121.98 724 26.9072
122.097 743 27.258
122.213 717 26.7769
122.33 651 25.5147
122.446 666 25.807
122.563 687 26.2107
122.679 594 24.3721
122.795 595 24.3926
122.912 489 22.1133
123.028 447 21.1424
123.144 400 20
123.26 361 19
123.377 0 1
123.493 0 1
123.609 0 1
123.725 0 1
123.84 0 1
123.956 0 1
124.072 0 1
124.188 0 1
124.303 0 1
124.419 0 1
126.852 0 1
126.968 0 1
127.083 0 1
127.199 0 1
127.315 0 1
127.431 0 1
127.547 0 1
127.663 0 1
127.779 0 1
127.895 0 1
128.011 0 1
128.127 0 1
128.243 0 1
128.359 856 29.2575
128.476 864 29.3939
128.592 890 29.8329
128.708 857 29.2746
128.825 872 29.5296
128.941 917 30.282
129.058 972 31.1769
129.174 982 31.3369
129.291 1049 32.3883
129.408 1076 32.8024
129.524 989 31.4484
129.641 1013 31.8277
129.758 994 31.5278
129.875 979 31.289
129.992 918 30.2985
130.108 822 28.6705
130.225 806 28.3901
130.342 843 29.0345
130.459 816 28.5657
130.576 877 29.6142
130.693 951 30.8383
130.81 950 30.8221
130.928 1026 32.0312
131.045 1046 32.3419
131.162 1038 32.218
131.279 1058 32.5269
131.396 1101 33.1813
131.513 1042 32.28
131.631 1019 31.9218
131.748 1006 31.7175
131.865 1013 31.8277
131.983 948 30.7896
132.1 851 29.1719
132.217 892 29.8664
132.335 875 29.5804
132.452 886 29.7658
132.57 935 30.5778
132.687 1014 31.8434
132.804 1026 32.0312
132.922 1036 32.187
133.039 1014 31.8434
133.157 1062 32.5883
133.274 1007 31.7333
133.392 1024 32
133.509 950 30.8221
133.627 885 29.7489
133.744 839 28.9655
133.862 853 29.2062
133.979 853 29.2062
134.097 947 30.7734
134.214 946 30.7571
134.332 982 31.3369
134.449 979 31.289
134.567 979 31.289
134.684 938 30.6268
134.802 1066 32.6497
134.919 1041 32.2645
135.037 1031 32.1092
135.154 989 31.4484
135.272 931 30.5123
135.389 1037 32.2025
135.507 973 31.1929
135.624 885 29.7489
135.742 874 29.5635
135.859 857 29.2746
135.977 881 29.6816
136.094 888 29.7993
136.211 953 30.8707
136.329 986 31.4006
136.446 987 31.4166
136.564 1009 31.7648
136.681 1033 32.1403
136.798 1042 32.28
136.915 1025 32.0156
137.033 995 31.5436
137.15 852 29.189
137.267 895 29.9166
137.384 755 27.4773
137.502 713 26.7021
137.619 736 27.1293
137.736 864 29.3939
137.853 882 29.6985
137.97 865 29.4109
138.087 871 29.5127
138.204 895 29.9166
138.321 946 30.7571
138.438 937 30.6105
138.555 945 30.7409
138.672 940 30.6594
138.788 856 29.2575
138.905 859 29.3087
139.022 811 28.4781
139.139 721 26.8514
139.255 691 26.2869
139.372 651 25.5147
139.488 605 24.5967
139.605 542 23.2809
139.721 572 23.9165
139.838 601 24.5153
139.954 634 25.1794
140.071 593 24.3516
140.187 533 23.0868
140.303 484 22
140.419 493 22.2036
140.535 409 20.2237
140.652 399 19.975
140.768 0 1
140.884 0 1
141 0 1
141.115 0 1
141.231 0 1
141.347 0 1
141.463 0 1
141.578 0 1
141.694 0 1
144.104 0 1
144.219 0 1
144.335 0 1
144.45 0 1
144.566 0 1
144.682 0 1
144.798 0 1
144.914 0 1
145.03 0 1
145.146 623 24.96
145.262 642 25.3377
145.378 698 26.4197
145.494 652 25.5343
145.61 701 26.4764
145.726 636 25.219
145.842 638 25.2587
145.959 637 25.2389
146.075 580 24.0832
146.192 535 23.1301
146.308 586 24.2074
146.425 514 22.6716
146.541 588 24.2487
146.658 649 25.4755
146.774 646 25.4165
146.891 580 24.0832
147.008 685 26.1725
147.125 666 25.807
147.241 635 25.1992
147.358 676 26
147.475 723 26.8887
147.592 672 25.923
147.709 699 26.4386
147.826 611 24.7184
147.943 625 25
148.06 579 24.0624
148.177 627 25.04
148.294 602 24.5357
148.411 592 24.3311
148.528 591 24.3105
148.645 600 24.4949
148.762 634 25.1794
148.88 740 27.2029
148.997 746 27.313
149.114 667 25.8263
149.231 691 26.2869
149.349 756 27.4955
149.466 634 25.1794
149.583 648 25.4558
149.701 599 24.4745
149.818 566 23.7908
149.935 566 23.7908
150.053 568 23.8328
150.17 546 23.3666
150.287 653 25.5539
150.405 636 25.219
150.522 660 25.6905
150.64 634 25.1794
150.757 667 25.8263
150.875 665 25.7876
150.992 698 26.4197
151.11 654 25.5734
151.227 604 24.5764
151.344 632 25.1396
151.462 630 25.0998
151.579 626 25.02
151.697 576 24
151.814 595 24.3926
151.932 552 23.4947
152.049 598 24.454
152.167 581 24.1039
152.284 612 24.7386
152.402 716 26.7582
152.519 673 25.9422
152.636 680 26.0768
152.754 673 25.9422
152.871 654 25.5734
152.989 613 24.7588
153.106 658 25.6515
153.223 564 23.7487
153.341 528 22.9783
153.458 512 22.6274
153.575 499 22.3383
153.693 525 22.9129
153.81 589 24.2693
153.927 564 23.7487
154.044 578 24.0416
154.162 638 25.2587
154.279 615 24.7992
154.396 639 25.2784
154.513 656 25.6125
154.63 620 24.8998
154.747 662 25.7294
154.864 619 24.8797
154.981 624 24.98
155.098 559 23.6432
155.215 567 23.8118
155.332 564 23.7487
155.449 560 23.6643
155.566 543 23.3024
155.683 530 23.0217
155.8 534 23.1084
155.917 558 23.622
156.033 575 23.9792
156.15 0 1
156.267 0 1
156.383 0 1
156.5 0 1
156.617 0 1
156.733 0 1
156.85 0 1
156.966 0 1
157.082 0 1
157.199 0 1
157.315 0 1
157.431 0 1
157.547 0 1
157.664 0 1
157.78 0 1
157.896 0 1
158.012 0 1
158.128 0 1
158.244 0 1
158.359 0 1
158.475 0 1
158.591 0 1
158.706 0 1
