
6.15755 0 1
6.2731 0 1
6.3887 0 1
6.50437 0 1
6.62009 0 1
6.73587 0 1
6.8517 0 1
6.96759 0 1
7.08353 0 1
7.19952 0 1
7.31557 0 1
7.43166 0 1
7.54781 0 1
7.664 0 1
7.78024 0 1
7.89653 0 1
8.01286 0 1
8.12924 0 1
8.24567 0 1
8.36213 0 1
8.47864 0 1
8.59519 0 1
8.71178 0 1
8.82841 0 1
8.94508 0 1
9.06179 0 1
9.17853 0 1
9.29531 0 1
9.41212 0 1
9.52897 0 1
9.64584 0 1
9.76276 0 1
9.8797 0 1
9.99667 0 1
10.1137 0 1
10.2307 0 1
10.3478 0 1
10.4648 0 1
10.5819 0 1
10.6991 0 1
10.8162 0 1
10.9334 0 1
11.0506 0 1
11.1678 0 1
11.285 0 1
11.4023 0 1
11.5196 0 1
11.6369 0 1
11.7542 0 1
11.8715 0 1
11.9888 0 1
12.1062 0 1
12.2235 0 1
12.3409 0 1
12.4582 0 1
12.5756 0 1
12.693 0 1
12.8104 0 1
12.9278 0 1
13.0452 0 1
13.1626 0 1
13.28 0 1
13.3974 0 1
13.5149 0 1
13.6323 0 1
13.7497 0 1
13.8671 0 1
13.9845 0 1
14.1019 0 1
14.2193 0 1
14.3367 0 1
14.4541 0 1
14.5714 0 1
14.6888 0 1
14.8062 0 1
14.9235 0 1
15.0408 8048 89.7106
15.1581 8296 91.0824
15.2755 8326 91.2469
15.3927 8392 91.6079
15.51 8522 92.3147
15.6273 8264 90.9065
15.7445 8382 91.5533
15.8617 8250 90.8295
15.9789 7954 89.1852
16.0961 7912 88.9494
16.2132 7834 88.5099
16.3304 7837 88.5268
16.4475 8092 89.9555
16.5646 8185 90.471
16.6816 8361 91.4385
16.7986 8206 90.587
16.9156 8210 90.6091
17.0326 8081 89.8944
17.1496 8269 90.934
17.2665 8169 90.3825
17.3833 7909 88.9326
17.5002 7714 87.8294
17.617 7568 86.9943
17.7338 7496 86.5794
17.8505 7854 88.6228
17.9672 8168 90.377
18.0839 8258 90.8735
18.2005 8788 93.7443
18.3171 8796 93.787
18.4337 8996 94.8472
18.5502 9197 95.901
18.6666 9173 95.7758
18.7831 9033 95.0421
18.8994 9049 95.1262
19.0158 8674 93.1343
19.1321 8554 92.4878
19.2483 8171 90.3936
19.3645 7920 88.9944
19.4806 7765 88.1192
19.5967 7407 86.0639
19.7128 7355 85.7613
19.8288 7181 84.7408
19.9447 6621 81.3695
20.0606 0 1
20.1764 0 1
20.2922 0 1
20.4079 0 1
20.5236 0 1
20.6392 0 1
20.7548 0 1
20.8702 0 1
23.3078 0 1
23.4233 0 1
23.539 0 1
23.6547 0 1
23.7704 0 1
23.8862 0 1
24.0021 0 1
24.118 0 1
24.234 0 1
24.35 0 1
24.4661 7638 87.3957
24.5822 7581 87.0689
24.6984 7383 85.9244
24.8146 7235 85.0588
24.9309 7406 86.0581
25.0472 7516 86.6949
25.1636 7912 88.9494
25.28 7971 89.2805
25.3965 8289 91.0439
25.513 8356 91.4112
25.6296 8616 92.8224
25.7462 8609 92.7847
25.8628 8441 91.8749
25.9795 8397 91.6351
26.0962 8281 91
26.213 7743 87.9943
26.3298 7749 88.0284
26.4466 7449 86.3076
26.5635 7452 86.325
26.6804 7898 88.8707
26.7973 7934 89.073
26.9143 8088 89.9333
27.0313 8438 91.8586
27.1483 8494 92.1629
27.2653 8613 92.8062
27.3824 8685 93.1933
27.4996 8886 94.2656
27.6167 8334 91.2907
27.7339 8296 91.0824
27.8511 8277 90.978
27.9683 8070 89.8332
28.0855 7696 87.7268
28.2028 7524 86.741
28.3201 7120 84.3801
28.4374 7199 84.8469
28.5547 7186 84.7703
28.6721 7301 85.4459
28.7894 7472 86.4407
28.9068 7826 88.4647
29.0242 8105 90.0278
29.1416 8022 89.5656
29.259 7865 88.6848
29.3764 7963 89.2356
29.4939 7672 87.59
29.6113 7321 85.5628
29.7288 7309 85.4927
29.8463 7064 84.0476
29.9638 7147 84.5399
30.0812 7082 84.1546
30.1987 7329 85.6096
30.3162 7577 87.046
30.4337 7654 87.4871
30.5512 7738 87.9659
30.6687 7961 89.2244
30.7862 8016 89.5321
30.9037 8040 89.666
31.0212 8035 89.6382
31.1387 8176 90.4212
31.2562 8058 89.7664
31.3737 7889 88.82
31.4912 7811 88.3799
31.6087 7789 88.2553
31.7262 7353 85.7496
31.8436 7385 85.936
31.9611 7093 84.22
32.0785 6977 83.5284
32.1959 7015 83.7556
32.3134 7271 85.2702
32.4308 7447 86.296
32.5482 7588 87.1091
32.6655 7741 87.983
32.7829 7549 86.885
32.9002 7570 87.0057
33.0176 7519 86.7122
33.1349 7580 87.0632
33.2522 7428 86.1858
33.3694 7226 85.0059
33.4867 7090 84.2021
33.6039 6777 82.3225
33.7211 6837 82.6862
33.8383 6933 83.2646
33.9554 7191 84.7998
34.0725 7342 85.6855
34.1896 7282 85.3346
34.3067 7552 86.9022
34.4237 7788 88.2496
34.5407 7843 88.5607
34.6577 7991 89.3924
34.7746 7879 88.7637
34.8915 7840 88.5438
35.0084 7842 88.5551
35.1252 7540 86.8332
35.242 7565 86.977
35.3587 7229 85.0235
35.4755 7160 84.6168
35.5921 6848 82.7526
35.7088 6675 81.7007
35.8254 6569 81.0494
35.9419 6846 82.7406
36.0584 6863 82.8432
36.1749 7013 83.7437
36.2913 7192 84.8057
36.4077 7375 85.8778
36.524 7327 85.5979
36.6403 7310 85.4985
36.7565 7364 85.8138
36.8727 7292 85.3932
36.9889 7047 83.9464
37.1049 6714 81.939
37.221 0 1
37.3369 0 1
37.4529 0 1
37.5687 0 1
37.6845 0 1
37.8003 0 1
37.916 0 1
38.0316 0 1
38.1472 0 1
40.5851 0 1
40.7008 0 1
40.8164 0 1
40.9322 0 1
41.048 0 1
41.1639 0 1
41.2798 0 1
41.3958 0 1
41.5118 0 1
41.6279 0 1
41.744 5882 76.6942
41.8602 6017 77.5693
41.9765 6164 78.5111
42.0928 6415 80.0937
42.2091 6208 78.7909
42.3255 5983 77.3499
42.4419 5687 75.4122
42.5584 5620 74.9667
42.675 5524 74.3236
42.7915 5461 73.8986
42.9081 5559 74.5587
43.0248 5790 76.092
43.1415 5944 77.0973
43.2582 6026 77.6273
43.375 6066 77.8845
43.4918 6054 77.8075
43.6087 6135 78.3262
43.7256 6100 78.1025
43.8425 5966 77.2399
43.9595 5896 76.7854
44.0765 5887 76.7268
44.1935 5609 74.8933
44.3106 5441 73.7631
44.4277 5293 72.753
44.5448 4900 70
44.6619 4569 67.5944
44.7791 4512 67.1714
44.8963 4654 68.2202
45.0136 4752 68.9348
45.1308 4758 68.9783
45.2481 4888 69.9142
45.3654 4815 69.3902
45.4827 4827 69.4766
45.6001 4892 69.9428
45.7174 4843 69.5917
45.8348 4855 69.6778
45.9522 4719 68.695
46.0697 4385 66.2193
46.1871 4310 65.6506
46.3046 4297 65.5515
46.422 4197 64.7843
46.5395 4426 66.5282
46.657 4413 66.4304
46.7745 4505 67.1193
46.892 4653 68.2129
47.0096 4697 68.5347
47.1271 4542 67.3944
47.2446 4672 68.352
47.3622 4640 68.1175
47.4797 4539 67.3721
47.5973 4504 67.1118
47.7149 4394 66.2873
47.8324 4410 66.4078
47.95 4180 64.6529
48.0675 3852 62.0645
48.1851 3770 61.4003
48.3027 3696 60.7947
48.4202 3735 61.1146
48.5378 3764 61.3514
48.6554 3780 61.4817
48.7729 3962 62.9444
48.8904 4147 64.3972
49.008 4166 64.5446
49.1255 4133 64.2884
49.243 4258 65.2534
49.3605 4231 65.0461
49.478 4148 64.405
49.5955 4071 63.8044
49.713 3951 62.857
49.8304 3849 62.0403
49.9479 3954 62.8808
50.0653 4076 63.8436
50.1827 4330 65.8027
50.3001 4490 67.0075
50.4175 4627 68.0221
50.5348 4690 68.4836
50.6521 4831 69.5054
50.7694 4867 69.7639
50.8867 5036 70.9648
51.004 5065 71.1688
51.1212 5042 71.007
51.2384 5237 72.3671
51.3556 5130 71.624
51.4727 5273 72.6154
51.5899 5033 70.9436
51.707 4956 70.3989
51.824 4911 70.0785
51.9411 4996 70.6824
52.0581 4952 70.3704
52.175 5388 73.403
52.2919 5700 75.4983
52.4088 5944 77.0973
52.5257 5903 76.831
52.6425 6130 78.2943
52.7593 6241 79
52.876 6525 80.7775
52.9927 6330 79.5613
53.1094 6221 78.8733
53.226 6174 78.5748
53.3426 5815 76.2561
53.4591 5755 75.8617
53.5756 5923 76.961
53.692 6210 78.8036
53.8084 6572 81.0679
53.9248 6870 82.8855
54.0411 6931 83.2526
54.1573 7000 83.666
54.2735 0 1
54.3896 0 1
54.5057 0 1
54.6217 0 1
54.7377 0 1
54.8537 0 1
54.9695 0 1
55.0853 0 1
55.2011 0 1
55.3168 0 1
55.4324 0 1
57.824 0 1
57.9396 0 1
58.0553 0 1
58.1711 0 1
58.2869 0 1
58.4028 0 1
58.5187 0 1
58.6347 0 1
58.7508 0 1
58.8669 0 1
58.983 7778 88.193
59.0992 8451 91.9293
59.2155 8648 92.9946
59.3318 8846 94.0532
59.4482 9011 94.9263
59.5646 9100 95.3939
59.681 9026 95.0053
59.7975 8905 94.3663
59.9141 8866 94.1594
60.0306 8912 94.4034
60.1473 8540 92.4121
60.2639 8742 93.4987
60.3807 8326 91.2469
60.4974 7957 89.202
60.6142 7486 86.5217
60.731 7502 86.6141
60.8479 7681 87.6413
60.9648 7829 88.4816
61.0818 8178 90.4323
61.1987 8164 90.3549
61.3158 8265 90.912
61.4328 8469 92.0272
61.5499 8546 92.4446
61.667 8273 90.956
61.7841 8117 90.0944
61.9013 7893 88.8426
62.0185 7624 87.3155
62.1357 7415 86.1104
62.253 7243 85.1058
62.3702 7523 86.7352
62.4875 7633 87.367
62.6049 7756 88.0682
62.7222 7826 88.4647
62.8396 8319 91.2086
62.9569 8221 90.6697
63.0743 8146 90.2552
63.1918 8012 89.5098
63.3092 8198 90.5428
63.4267 8048 89.7106
63.5441 7965 89.2468
63.6616 7792 88.2723
63.7791 7644 87.43
63.8966 7353 85.7496
64.0142 7154 84.5813
64.1317 6776 82.3165
64.2492 6850 82.7647
64.3668 6719 81.9695
64.4843 6912 83.1384
64.6019 7172 84.6877
64.7195 7491 86.5506
64.837 7457 86.3539
64.9546 7558 86.9368
65.0722 7879 88.7637
65.1898 7773 88.1646
65.3074 7815 88.4025
65.4249 7512 86.6718
65.5425 7398 86.0116
65.6601 6814 82.547
65.7777 6751 82.1645
65.8952 6819 82.5772
66.0128 6996 83.6421
66.1304 7223 84.9882
66.2479 7523 86.7352
66.3655 7467 86.4118
66.483 7728 87.909
66.6005 7983 89.3476
66.718 7971 89.2805
66.8355 7872 88.7243
66.953 8013 89.5154
67.0705 8077 89.8721
67.1879 8019 89.5489
67.3054 7814 88.3968
67.4228 7965 89.2468
67.5402 7616 87.2697
67.6576 7325 85.5862
67.7749 6920 83.1865
67.8923 6994 83.6301
68.0096 7011 83.7317
68.1269 7087 84.1843
68.2442 7463 86.3887
68.3614 7639 87.4014
68.4787 7810 88.3742
68.5958 8100 90
68.713 8263 90.901
68.8302 8684 93.188
68.9473 8500 92.1954
69.0643 8205 90.5815
69.1814 7979 89.3252
69.2984 7493 86.5621
69.4154 7412 86.093
69.5323 7020 83.7854
69.6492 7597 87.1608
69.7661 7732 87.9318
69.8829 8199 90.5483
69.9997 8088 89.9333
70.1165 8515 92.2768
70.2332 8467 92.0163
70.3499 8658 93.0484
70.4665 8791 93.7603
70.5831 8728 93.4238
70.6996 8683 93.1826
70.8161 8741 93.4933
70.9326 8547 92.45
71.049 8562 92.5311
71.1653 8271 90.945
71.2817 8048 89.7106
71.3979 7566 86.9828
71.5141 7237 85.0706
71.6303 6655 81.5782
71.7464 6527 80.7899
71.8624 0 1
71.9784 0 1
72.0944 0 1
72.2102 0 1
72.3261 0 1
72.4418 0 1
72.5575 0 1
72.6732 0 1
75.1054 0 1
75.2209 0 1
75.3365 0 1
75.4521 0 1
75.5678 0 1
75.6835 0 1
75.7993 0 1
75.9151 0 1
76.031 0 1
76.147 7683 87.6527
76.263 8267 90.923
76.3791 8222 90.6752
76.4952 8024 89.5768
76.6113 7786 88.2383
76.7276 7378 85.8953
76.8438 7237 85.0706
76.9601 7164 84.6404
77.0765 7282 85.3346
77.1929 7787 88.244
77.3093 8192 90.5097
77.4258 8147 90.2607
77.5423 8271 90.945
77.6589 8618 92.8332
77.7755 8702 93.2845
77.8921 8662 93.0699
78.0088 8439 91.864
78.1256 8063 89.7942
78.2423 7589 87.1149
78.3591 7063 84.0417
78.4759 6923 83.2046
78.5928 7131 84.4452
78.7097 7507 86.6429
78.8266 7748 88.0227
78.9436 8313 91.1757
79.0606 8300 91.1043
79.1776 8547 92.45
79.2946 8538 92.4013
79.4117 8473 92.0489
79.5288 8626 92.8763
79.6459 8384 91.5642
79.7631 8529 92.3526
79.8802 8613 92.8062
79.9974 8342 91.3345
80.1147 8338 91.3126
80.2319 7921 89
80.3491 7625 87.3212
80.4664 7133 84.4571
80.5837 7154 84.5813
80.701 7294 85.4049
80.8183 7425 86.1684
80.9357 8006 89.4763
81.053 8177 90.4268
81.1704 8358 91.4221
81.2877 8601 92.7416
81.4051 8625 92.8709
81.5225 9002 94.8789
81.6399 8742 93.4987
81.7573 8606 92.7685
81.8747 7904 88.9044
81.9922 7291 85.3874
82.1096 6934 83.2706
82.227 7008 83.7138
82.3444 7515 86.6891
82.4619 7927 89.0337
82.5793 8401 91.657
82.6967 8308 91.1482
82.8142 8561 92.5257
82.9316 8467 92.0163
83.049 8728 93.4238
83.1664 8752 93.5521
83.2838 8647 92.9892
83.4012 8861 94.1329
83.5186 8758 93.5842
83.636 8587 92.6661
83.7534 8434 91.8368
83.8708 8252 90.8405
83.9881 7586 87.0976
84.1055 7414 86.1046
84.2228 7409 86.0755
84.3401 7496 86.5794
84.4575 7768 88.1363
84.5747 8047 89.7051
84.692 8217 90.6477
84.8093 8788 93.7443
84.9265 8812 93.8723
85.0437 9235 96.0989
85.1609 9037 95.0631
85.2781 8829 93.9628
85.3952 8353 91.3947
85.5123 7878 88.7581
85.6294 7494 86.5679
85.7465 7306 85.4751
85.8636 7532 86.7871
85.9806 8087 89.9277
86.0976 8443 91.8858
86.2145 8723 93.397
86.3315 9080 95.289
86.4484 9033 95.0421
86.5652 9306 96.4676
86.682 9426 97.0876
86.7988 9307 96.4728
86.9156 9441 97.1648
87.0323 9240 96.1249
87.149 9191 95.8697
87.2657 9282 96.3431
87.3823 8946 94.5833
87.4988 8647 92.9892
87.6154 8327 91.2524
87.7318 7987 89.37
87.8483 7913 88.955
87.9647 8133 90.1831
88.081 8181 90.4489
88.1973 8696 93.2523
88.3136 8967 94.6942
88.4298 9230 96.0729
88.546 9326 96.5712
88.6621 9609 98.0255
88.7781 9447 97.1957
88.8942 0 1
89.0101 0 1
89.126 0 1
89.2419 0 1
89.3577 0 1
89.4734 0 1
89.5891 0 1
89.7047 0 1
89.8203 0 1
89.9358 0 1
92.3269 0 1
92.4424 0 1
92.558 0 1
92.6736 0 1
92.7893 0 1
92.905 0 1
93.0208 0 1
93.1366 0 1
93.2525 0 1
93.3685 0 1
93.4845 0 1
93.6005 8338 91.3126
93.7167 8802 93.819
93.8328 8824 93.9361
93.949 8873 94.1966
94.0653 8931 94.504
94.1816 8804 93.8296
94.2979 8293 91.0659
94.4143 7825 88.459
94.5307 7482 86.4986
94.6472 7129 84.4334
94.7637 7322 85.5687
94.8803 7642 87.4185
94.9969 8172 90.3991
95.1135 8172 90.3991
95.2302 8523 92.3201
95.3469 8685 93.1933
95.4637 8691 93.2255
95.5805 8918 94.4352
95.6973 8857 94.1116
95.8142 9006 94.8999
95.9311 9130 95.551
96.048 9095 95.3677
96.1649 8836 94
96.2819 8677 93.1504
96.3989 8802 93.819
96.516 8493 92.1575
96.633 7931 89.0562
96.7501 7433 86.2148
96.8673 7496 86.5794
96.9844 7635 87.3785
97.1016 7822 88.4421
97.2188 7968 89.2637
97.336 8390 91.5969
97.4532 8646 92.9839
97.5704 8844 94.0425
97.6877 8984 94.784
97.805 9001 94.8736
97.9223 8677 93.1504
98.0396 8098 89.9889
98.1569 7801 88.3233
98.2743 7371 85.8545
98.3916 7149 84.5518
98.509 7222 84.9824
98.6264 7679 87.6299
98.7438 8113 90.0722
98.8612 8291 91.0549
98.9786 8384 91.5642
99.096 8387 91.5806
99.2134 8866 94.1594
99.3308 8585 92.6553
99.4482 8469 92.0272
99.5656 8682 93.1773
99.6831 8558 92.5095
99.8005 8529 92.3526
99.9179 8335 91.2962
100.035 8318 91.2031
100.153 7874 88.7356
100.27 7752 88.0454
100.388 7325 85.5862
100.505 7230 85.0294
100.622 7524 86.741
100.74 7585 87.0919
100.857 7837 88.5268
100.975 8280 90.9945
101.092 8405 91.6788
101.209 8686 93.1987
101.327 8819 93.9095
101.444 8917 94.4299
101.561 8559 92.5149
101.679 8299 91.0988
101.796 7813 88.3912
101.913 7338 85.6621
102.03 7055 83.994
102.148 7411 86.0872
102.265 7306 85.4751
102.382 8894 94.308
102.499 8498 92.1846
102.616 8581 92.6337
102.733 8871 94.186
102.851 8998 94.8578
102.968 9087 95.3258
103.085 9097 95.3782
103.202 9109 95.4411
103.319 9091 95.3467
103.436 8992 94.8262
103.552 8959 94.652
103.669 8734 93.4559
103.786 8243 90.791
103.903 7840 88.5438
104.02 7917 88.9775
104.137 8169 90.3825
104.253 8083 89.9055
104.37 8494 92.1629
104.487 8974 94.7312
104.603 9112 95.4568
104.72 9196 95.8958
104.836 9454 97.2317
104.953 9274 96.3016
105.069 9119 95.4935
105.186 8549 92.4608
105.302 7998 89.4315
105.418 7682 87.647
105.535 7695 87.7211
105.651 8065 89.8053
105.767 8398 91.6406
105.883 8863 94.1435
105.999 8867 94.1647
106.115 0 1
106.231 0 1
106.347 0 1
106.463 0 1
106.579 0 1
106.694 0 1
106.81 0 1
106.926 0 1
107.041 0 1
107.157 0 1
109.576 0 1
109.692 0 1
109.807 0 1
109.923 0 1
110.039 0 1
110.155 0 1
110.27 0 1
110.386 0 1
110.502 0 1
110.618 6550 80.9321
110.735 7034 83.8689
110.851 7527 86.7583
110.967 7919 88.9888
111.083 7982 89.342
111.199 8387 91.5806
111.316 8357 91.4166
111.432 8555 92.4932
111.549 8322 91.225
111.665 8390 91.5969
111.782 8309 91.1537
111.898 8061 89.7831
112.015 7973 89.2917
112.132 7862 88.6679
112.248 7557 86.931
112.365 7167 84.6581
112.482 6945 83.3367
112.599 6568 81.0432
112.716 6880 82.9458
112.832 7053 83.9821
112.949 7199 84.8469
113.066 7339 85.668
113.183 7492 86.5563
113.3 7509 86.6545
113.417 7731 87.9261
113.534 7854 88.6228
113.652 7447 86.296
113.769 7080 84.1427
113.886 6473 80.455
114.003 6132 78.3071
114.12 6084 78
114.238 6152 78.4347
114.355 6565 81.0247
114.472 6885 82.9759
114.589 6898 83.0542
114.707 6940 83.3067
114.824 6897 83.0482
114.942 7076 84.119
115.059 7027 83.8272
115.176 6767 82.2618
115.294 6798 82.45
115.411 6830 82.6438
115.529 6411 80.0687
115.646 6486 80.5357
115.764 5951 77.1427
115.881 5987 77.3757
115.999 5652 75.1798
116.116 5405 73.5187
116.234 5443 73.7767
116.351 5620 74.9667
116.469 5643 75.1199
116.586 5730 75.6968
116.704 5987 77.3757
116.821 6082 77.9872
116.939 6059 77.8396
117.056 6174 78.5748
117.174 6133 78.3135
117.291 5898 76.7984
117.409 5590 74.7663
117.526 5171 71.9097
117.644 5086 71.3162
117.761 5000 70.7107
117.879 5345 73.1095
117.996 5635 75.0666
118.114 5695 75.4652
118.231 5918 76.9285
118.349 6117 78.2113
118.466 6106 78.1409
118.584 6066 77.8845
118.701 6132 78.3071
118.819 6039 77.711
118.936 6124 78.256
119.053 6008 77.5113
119.171 5991 77.4016
119.288 5874 76.642
119.405 5756 75.8683
119.523 5709 75.5579
119.64 5439 73.7496
119.757 5420 73.6206
119.875 5419 73.6139
119.992 5472 73.973
120.109 5737 75.743
120.226 5971 77.2722
120.343 6150 78.4219
120.46 6352 79.6994
120.578 6298 79.3599
120.695 6620 81.3634
120.812 6743 82.1158
120.929 6647 81.5291
121.046 6338 79.6116
121.163 5958 77.1881
121.279 5841 76.4264
121.396 5603 74.8532
121.513 5795 76.1249
121.63 6292 79.3221
121.747 6590 81.1788
121.863 6744 82.1219
121.98 6970 83.4865
122.097 7077 84.1249
122.213 7196 84.8292
122.33 7261 85.2115
122.446 7281 85.3288
122.563 7247 85.1293
122.679 7179 84.729
122.795 7135 84.4689
122.912 7079 84.1368
123.028 7107 84.303
123.144 6803 82.4803
123.26 6570 81.0555
123.377 0 1
123.493 0 1
123.609 0 1
123.725 0 1
123.84 0 1
123.956 0 1
124.072 0 1
124.188 0 1
124.303 0 1
124.419 0 1
126.852 0 1
126.968 0 1
127.083 0 1
127.199 0 1
127.315 0 1
127.431 0 1
127.547 0 1
127.663 0 1
127.779 0 1
127.895 0 1
128.011 0 1
128.127 0 1
128.243 0 1
128.359 8281 91
128.476 8070 89.8332
128.592 7950 89.1628
128.708 7703 87.7667
128.825 7297 85.4225
128.941 7456 86.3481
129.058 7688 87.6812
129.174 7710 87.8066
129.291 7712 87.818
129.408 8314 91.1811
129.524 8220 90.6642
129.641 8507 92.2334
129.758 8298 91.0934
129.875 8581 92.6337
129.992 8200 90.5539
130.108 7917 88.9775
130.225 7302 85.4517
130.342 7191 84.7998
130.459 6830 82.6438
130.576 7201 84.8587
130.693 7734 87.9432
130.81 7742 87.9886
130.928 8066 89.8109
131.045 8223 90.6808
131.162 8173 90.4046
131.279 8230 90.7193
131.396 8207 90.5925
131.513 8356 91.4112
131.631 8224 90.6863
131.748 7978 89.3197
131.865 7836 88.5212
131.983 7686 87.6698
132.1 7553 86.908
132.217 7179 84.729
132.335 7220 84.9706
132.452 7016 83.7616
132.57 7072 84.0952
132.687 7287 85.3639
132.804 7671 87.5842
132.922 7743 87.9943
133.039 7744 88
133.157 8006 89.4763
133.274 8105 90.0278
133.392 8182 90.4544
133.509 7993 89.4036
133.627 7802 88.3289
133.744 7182 84.7467
133.862 6838 82.6922
133.979 6751 82.1645
134.097 6730 82.0366
134.214 7274 85.2877
134.332 7231 85.0353
134.449 7497 86.5852
134.567 7735 87.9488
134.684 7692 87.704
134.802 7882 88.7806
134.919 7660 87.5214
135.037 7733 87.9375
135.154 7557 86.931
135.272 7293 85.3991
135.389 7201 84.8587
135.507 7087 84.1843
135.624 6756 82.1949
135.742 6512 80.697
135.859 6197 78.721
135.977 6023 77.608
136.094 6128 78.2815
136.211 6343 79.643
136.329 6406 80.0375
136.446 6446 80.287
136.564 6570 81.0555
136.681 6567 81.037
136.798 6581 81.1234
136.915 6633 81.4432
137.033 6732 82.0488
137.15 6441 80.2558
137.267 6174 78.5748
137.384 6041 77.7239
137.502 5726 75.6703
137.619 5454 73.8512
137.736 5914 76.9025
137.853 6185 78.6448
137.97 6524 80.7713
138.087 6806 82.4985
138.204 6785 82.3711
138.321 6773 82.2982
138.438 7265 85.235
138.555 7458 86.3597
138.672 7295 85.4108
138.788 7193 84.8116
138.905 7166 84.6522
139.022 7081 84.1487
139.139 7126 84.4156
139.255 7017 83.7675
139.372 6944 83.3307
139.488 6702 81.8657
139.605 6671 81.6762
139.721 6861 82.8312
139.838 7059 84.0179
139.954 7401 86.0291
140.071 7335 85.6446
140.187 7791 88.2666
140.303 7773 88.1646
140.419 7796 88.295
140.535 8105 90.0278
140.652 7998 89.4315
140.768 0 1
140.884 0 1
141 0 1
141.115 0 1
141.231 0 1
141.347 0 1
141.463 0 1
141.578 0 1
141.694 0 1
144.104 0 1
144.219 0 1
144.335 0 1
144.45 0 1
144.566 0 1
144.682 0 1
144.798 0 1
144.914 0 1
145.03 0 1
145.146 10571 102.815
145.262 11750 108.397
145.378 12367 111.207
145.494 13035 114.171
145.61 13911 117.945
145.726 14532 120.549
145.842 14749 121.445
145.959 15060 122.719
146.075 14571 120.71
146.192 14727 121.355
146.308 14485 120.354
146.425 14853 121.873
146.541 16434 128.195
146.658 17569 132.548
146.774 19023 137.924
146.891 20396 142.815
147.008 21444 146.438
147.125 22537 150.123
147.241 23016 151.71
147.358 24040 155.048
147.475 24363 156.087
147.592 24288 155.846
147.709 24349 156.042
147.826 24270 155.788
147.943 24181 155.502
148.06 23730 154.045
148.177 23253 152.489
148.294 22946 151.479
148.411 23172 152.224
148.528 23672 153.857
148.645 24243 155.702
148.762 24918 157.854
148.88 25534 159.794
148.997 26896 164
149.114 24744 157.302
149.231 25774 160.543
149.349 25255 158.918
149.466 25417 159.427
149.583 23852 154.441
149.701 22301 149.335
149.818 21460 146.492
149.935 20397 142.818
150.053 20743 144.024
150.17 21386 146.24
150.287 22449 149.83
150.405 23045 151.806
150.522 23778 154.201
150.64 24185 155.515
150.757 24761 157.356
150.875 25184 158.695
150.992 24919 157.858
151.11 25234 158.852
151.227 24844 157.62
151.344 24449 156.362
151.462 24173 155.477
151.579 23848 154.428
151.697 23477 153.222
151.814 22833 151.106
151.932 23011 151.694
152.049 23146 152.138
152.167 23699 153.945
152.284 24956 157.975
152.402 25672 160.225
152.519 26365 162.373
152.636 27103 164.63
152.754 27344 165.36
152.871 27694 166.415
152.989 27437 165.641
153.106 26823 163.777
153.223 25407 159.396
153.341 24184 155.512
153.458 23469 153.196
153.575 22305 149.349
153.693 23280 152.578
153.81 24698 157.156
153.927 25495 159.672
154.044 26246 162.006
154.162 27357 165.4
154.279 28065 167.526
154.396 29037 170.402
154.513 29368 171.371
154.63 29714 172.377
154.747 29987 173.168
154.864 29968 173.113
154.981 29259 171.053
155.098 29232 170.974
155.215 28649 169.26
155.332 28648 169.257
155.449 28328 168.309
155.566 27915 167.078
155.683 28543 168.947
155.8 29664 172.232
155.917 30460 174.528
156.033 31093 176.332
156.15 0 1
156.267 0 1
156.383 0 1
156.5 0 1
156.617 0 1
156.733 0 1
156.85 0 1
156.966 0 1
157.082 0 1
157.199 0 1
157.315 0 1
157.431 0 1
157.547 0 1
157.664 0 1
157.78 0 1
157.896 0 1
158.012 0 1
158.128 0 1
158.244 0 1
158.359 0 1
158.475 0 1
158.591 0 1
158.706 0 1
