
6.15755 0 1
6.2731 0 1
6.3887 0 1
6.50437 0 1
6.62009 0 1
6.73587 0 1
6.8517 0 1
6.96759 0 1
7.08353 0 1
7.19952 0 1
7.31557 0 1
7.43166 0 1
7.54781 0 1
7.664 0 1
7.78024 0 1
7.89653 0 1
8.01286 0 1
8.12924 0 1
8.24567 0 1
8.36213 0 1
8.47864 0 1
8.59519 0 1
8.71178 0 1
8.82841 0 1
8.94508 0 1
9.06179 0 1
9.17853 0 1
9.29531 0 1
9.41212 0 1
9.52897 0 1
9.64584 0 1
9.76276 0 1
9.8797 0 1
9.99667 0 1
10.1137 0 1
10.2307 0 1
10.3478 0 1
10.4648 0 1
10.5819 0 1
10.6991 0 1
10.8162 0 1
10.9334 0 1
11.0506 0 1
11.1678 0 1
11.285 0 1
11.4023 0 1
11.5196 0 1
11.6369 0 1
11.7542 0 1
11.8715 0 1
11.9888 0 1
12.1062 0 1
12.2235 0 1
12.3409 0 1
12.4582 0 1
12.5756 0 1
12.693 0 1
12.8104 0 1
12.9278 0 1
13.0452 0 1
13.1626 0 1
13.28 0 1
13.3974 0 1
13.5149 0 1
13.6323 0 1
13.7497 0 1
13.8671 0 1
13.9845 0 1
14.1019 0 1
14.2193 0 1
14.3367 0 1
14.4541 0 1
14.5714 0 1
14.6888 0 1
14.8062 0 1
14.9235 0 1
15.0408 38384 195.918
15.1581 39421 198.547
15.2755 40812 202.02
15.3927 41269 203.148
15.51 40944 202.346
15.6273 40062 200.155
15.7445 39879 199.697
15.8617 38946 197.347
15.9789 38761 196.878
16.0961 37913 194.713
16.2132 38946 197.347
16.3304 40683 201.7
16.4475 42448 206.029
16.5646 43649 208.923
16.6816 45490 213.284
16.7986 48518 220.268
16.9156 51221 226.321
17.0326 53665 231.657
17.1496 54329 233.086
17.2665 54867 234.237
17.3833 54568 233.598
17.5002 54816 234.128
17.617 55450 235.478
17.7338 56014 236.673
17.8505 56161 236.983
17.9672 56893 238.523
18.0839 57591 239.981
18.2005 58028 240.89
18.3171 58405 241.671
18.4337 58483 241.833
18.5502 59015 242.93
18.6666 59398 243.717
18.7831 59520 243.967
18.8994 58895 242.683
19.0158 57562 239.921
19.1321 55887 236.404
19.2483 54666 233.808
19.3645 53792 231.931
19.4806 53097 230.428
19.5967 51107 226.069
19.7128 48101 219.319
19.8288 43521 208.617
19.9447 37459 193.543
20.0606 0 1
20.1764 0 1
20.2922 0 1
20.4079 0 1
20.5236 0 1
20.6392 0 1
20.7548 0 1
20.8702 0 1
23.3078 0 1
23.4233 0 1
23.539 0 1
23.6547 0 1
23.7704 0 1
23.8862 0 1
24.0021 0 1
24.118 0 1
24.234 0 1
24.35 0 1
24.4661 51692 227.359
24.5822 52408 228.928
24.6984 52817 229.819
24.8146 52807 229.798
24.9309 51223 226.325
25.0472 47303 217.493
25.1636 43543 208.67
25.28 43494 208.552
25.3965 45698 213.771
25.513 47852 218.751
25.6296 52256 228.596
25.7462 57240 239.249
25.8628 60388 245.74
25.9795 62144 249.287
26.0962 62358 249.716
26.213 62895 250.789
26.3298 62635 250.27
26.4466 62839 250.677
26.5635 61957 248.912
26.6804 62053 249.104
26.7973 62458 249.916
26.9143 62397 249.794
27.0313 62203 249.405
27.1483 61226 247.439
27.2653 61401 247.792
27.3824 61788 248.572
27.4996 62344 249.688
27.6167 61232 247.451
27.7339 59692 244.319
27.8511 58416 241.694
27.9683 57685 240.177
28.0855 57461 239.71
28.2028 58461 241.787
28.3201 55973 236.586
28.4374 54151 232.704
28.5547 49674 222.877
28.6721 44585 211.152
28.7894 42384 205.874
28.9068 43034 207.446
29.0242 45446 213.181
29.1416 48070 219.249
29.259 51711 227.401
29.3764 56032 236.711
29.4939 59206 243.323
29.6113 59991 244.931
29.7288 60749 246.473
29.8463 61047 247.077
29.9638 61033 247.049
30.0812 60680 246.333
30.1987 60255 245.469
30.3162 60885 246.749
30.4337 60513 245.994
30.5512 59364 243.647
30.6687 58091 241.021
30.7862 59299 243.514
30.9037 59495 243.916
31.0212 60811 246.599
31.1387 60117 245.188
31.2562 58871 242.633
31.3737 57884 240.591
31.4912 57547 239.89
31.6087 57877 240.576
31.7262 57826 240.47
31.8436 56659 238.032
31.9611 55182 234.908
32.0785 50668 225.096
32.1959 45379 213.023
32.3134 42399 205.91
32.4308 42963 207.275
32.5482 44543 211.052
32.6655 47470 217.876
32.7829 51372 226.654
32.9002 55328 235.219
33.0176 58264 241.379
33.1349 59262 243.438
33.2522 59966 244.88
33.3694 58760 242.405
33.4867 59701 244.338
33.6039 59834 244.61
33.7211 59669 244.272
33.8383 59504 243.934
33.9554 59376 243.672
34.0725 58783 242.452
34.1896 57592 239.983
34.3067 56591 237.889
34.4237 56959 238.661
34.5407 57959 240.747
34.6577 58673 242.225
34.7746 58716 242.314
34.8915 57507 239.806
35.0084 56599 237.905
35.1252 56830 238.39
35.242 56117 236.89
35.3587 57343 239.464
35.4755 56901 238.539
35.5921 55558 235.707
35.7088 53212 230.677
35.8254 48673 220.62
35.9419 43871 209.454
36.0584 41224 203.037
36.1749 42338 205.762
36.2913 43118 207.649
36.4077 45189 212.577
36.524 48263 219.688
36.6403 52850 229.891
36.7565 56183 237.03
36.8727 57037 238.824
36.9889 57962 240.753
37.1049 56947 238.636
37.221 0 1
37.3369 0 1
37.4529 0 1
37.5687 0 1
37.6845 0 1
37.8003 0 1
37.916 0 1
38.0316 0 1
38.1472 0 1
40.5851 0 1
40.7008 0 1
40.8164 0 1
40.9322 0 1
41.048 0 1
41.1639 0 1
41.2798 0 1
41.3958 0 1
41.5118 0 1
41.6279 0 1
41.744 39917 199.792
41.8602 44732 211.499
41.9765 46776 216.278
42.0928 48135 219.397
42.2091 49676 222.881
42.3255 50487 224.693
42.4419 50004 223.616
42.5584 49477 222.434
42.675 49389 222.236
42.7915 48595 220.443
42.9081 47140 217.117
43.0248 46165 214.86
43.1415 45811 214.035
43.2582 46564 215.787
43.375 47567 218.099
43.4918 47378 217.665
43.6087 47496 217.936
43.7256 46628 215.935
43.8425 46225 215
43.9595 45325 212.897
44.0765 45022 212.184
44.1935 44930 211.967
44.3106 43641 208.904
44.4277 41578 203.907
44.5448 40079 200.197
44.6619 35958 189.626
44.7791 32225 179.513
44.8963 29919 172.971
45.0136 30523 174.708
45.1308 30814 175.539
45.2481 31818 178.376
45.3654 34695 186.266
45.4827 36860 191.99
45.6001 38051 195.067
45.7174 37558 193.799
45.8348 37804 194.433
45.9522 37673 194.095
46.0697 37124 192.676
46.1871 36712 191.604
46.3046 35466 188.324
46.422 34654 186.156
46.5395 33649 183.437
46.657 33260 182.373
46.7745 33736 183.674
46.892 34146 184.786
47.0096 34296 185.192
47.1271 34670 186.199
47.2446 34880 186.762
47.3622 34134 184.754
47.4797 33330 182.565
47.5973 32988 181.626
47.7149 32670 180.748
47.8324 31705 178.059
47.95 30752 175.362
48.0675 29239 170.994
48.1851 27838 166.847
48.3027 24853 157.648
48.4202 23001 151.661
48.5378 22433 149.777
48.6554 22810 151.03
48.7729 23622 153.695
48.8904 25769 160.527
49.008 28546 168.956
49.1255 29579 171.985
49.243 29896 172.905
49.3605 30110 173.522
49.478 30039 173.318
49.5955 30450 174.499
49.713 29891 172.89
49.8304 29656 172.209
49.9479 29122 170.652
50.0653 28771 169.62
50.1827 29329 171.257
50.3001 30370 174.27
50.4175 31389 177.169
50.5348 32348 179.855
50.6521 33780 183.793
50.7694 35052 187.222
50.8867 35769 189.127
51.004 36102 190.005
51.1212 37467 193.564
51.2384 37734 194.252
51.3556 37411 193.419
51.4727 37317 193.176
51.5899 36899 192.091
51.707 35368 188.064
51.824 32763 181.006
51.9411 31525 177.553
52.0581 31995 178.871
52.175 33337 182.584
52.2919 35934 189.563
52.4088 39590 198.972
52.5257 43511 208.593
52.6425 44638 211.277
52.7593 45465 213.225
52.876 46208 214.96
52.9927 46563 215.785
53.1094 47437 217.8
53.226 47724 218.458
53.3426 48244 219.645
53.4591 46925 216.622
53.5756 45264 212.753
53.692 45437 213.16
53.8084 46803 216.34
53.9248 48215 219.579
54.0411 49771 223.094
54.1573 51944 227.912
54.2735 0 1
54.3896 0 1
54.5057 0 1
54.6217 0 1
54.7377 0 1
54.8537 0 1
54.9695 0 1
55.0853 0 1
55.2011 0 1
55.3168 0 1
55.4324 0 1
57.824 0 1
57.9396 0 1
58.0553 0 1
58.1711 0 1
58.2869 0 1
58.4028 0 1
58.5187 0 1
58.6347 0 1
58.7508 0 1
58.8669 0 1
58.983 50112 223.857
59.0992 54414 233.268
59.2155 57234 239.236
59.3318 59150 243.208
59.4482 60925 246.83
59.5646 62121 249.241
59.681 62428 249.856
59.7975 61565 248.123
59.9141 59999 244.947
60.0306 58734 242.351
60.1473 57138 239.036
60.2639 55421 235.417
60.3807 51967 227.963
60.4974 49321 222.083
60.6142 47555 218.071
60.731 45759 213.914
60.8479 45752 213.897
60.9648 46923 216.617
61.0818 49243 221.908
61.1987 51843 227.691
61.3158 52919 230.041
61.4328 53882 232.125
61.5499 54062 232.512
61.667 54036 232.456
61.7841 53227 230.71
61.9013 52094 228.241
62.0185 50528 224.784
62.1357 49478 222.437
62.253 49499 222.484
62.3702 49581 222.668
62.4875 50899 225.608
62.6049 52533 229.201
62.7222 54581 233.626
62.8396 55623 235.845
62.9569 56130 236.918
63.0743 57082 238.918
63.1918 56531 237.762
63.3092 55309 235.179
63.4267 54652 233.778
63.5441 52913 230.028
63.6616 51368 226.645
63.7791 49222 221.86
63.8966 46949 216.677
64.0142 44074 209.938
64.1317 42383 205.871
64.2492 41366 203.386
64.3668 41833 204.531
64.4843 43041 207.463
64.6019 45328 212.904
64.7195 47092 217.007
64.837 48379 219.952
64.9546 48728 220.744
65.0722 49270 221.968
65.1898 48405 220.011
65.3074 49445 222.362
65.4249 47032 216.869
65.5425 45879 214.194
65.6601 44789 211.634
65.7777 44126 210.062
65.8952 44491 210.929
66.0128 45893 214.227
66.1304 47562 218.087
66.2479 49824 223.213
66.3655 51474 226.879
66.483 52673 229.506
66.6005 54037 232.459
66.718 53445 231.182
66.8355 52722 229.613
66.953 53022 230.265
67.0705 51882 227.776
67.1879 50634 225.02
67.3054 48969 221.289
67.4228 46766 216.254
67.5402 44280 210.428
67.6576 42222 205.48
67.7749 39778 199.444
67.8923 40720 201.792
68.0096 40735 201.829
68.1269 42786 206.848
68.2442 44953 212.021
68.3614 47653 218.296
68.4787 49749 223.045
68.5958 49809 223.179
68.713 51026 225.889
68.8302 50594 224.931
68.9473 50826 225.446
69.0643 49574 222.652
69.1814 47434 217.793
69.2984 46701 216.104
69.4154 46133 214.786
69.5323 46825 216.391
69.6492 49341 222.128
69.7661 51979 227.989
69.8829 54575 233.613
69.9997 56962 238.667
70.1165 58333 241.522
70.2332 59447 243.818
70.3499 59669 244.272
70.4665 59299 243.514
70.5831 59071 243.045
70.6996 57177 239.117
70.8161 56468 237.63
70.9326 54647 233.767
71.049 53044 230.313
71.1653 50184 224.018
71.2817 46781 216.289
71.3979 44171 210.169
71.5141 42177 205.37
71.6303 40222 200.554
71.7464 35797 189.201
71.8624 0 1
71.9784 0 1
72.0944 0 1
72.2102 0 1
72.3261 0 1
72.4418 0 1
72.5575 0 1
72.6732 0 1
75.1054 0 1
75.2209 0 1
75.3365 0 1
75.4521 0 1
75.5678 0 1
75.6835 0 1
75.7993 0 1
75.9151 0 1
76.031 0 1
76.147 50075 223.774
76.263 53517 231.337
76.3791 53243 230.744
76.4952 51897 227.809
76.6113 48424 220.055
76.7276 45136 212.452
76.8438 43434 208.408
76.9601 44392 210.694
77.0765 45825 214.068
77.1929 49206 221.824
77.3093 52908 230.017
77.4258 55234 235.019
77.5423 56325 237.329
77.6589 56008 236.66
77.7755 55234 235.019
77.8921 54570 233.602
78.0088 52208 228.491
78.1256 48299 219.77
78.2423 45335 212.92
78.3591 42687 206.608
78.4759 42121 205.234
78.5928 45496 213.298
78.7097 49098 221.581
78.8266 51461 226.85
78.9436 58637 242.151
79.0606 58035 240.905
79.1776 58891 242.675
79.2946 59023 242.946
79.4117 59409 243.74
79.5288 58106 241.052
79.6459 57007 238.761
79.7631 55526 235.64
79.8802 53576 231.465
79.9974 51698 227.372
80.1147 48980 221.314
80.2319 45527 213.371
80.3491 42576 206.34
80.4664 41132 202.81
80.5837 41528 203.784
80.701 42267 205.589
80.8183 44500 210.95
80.9357 47431 217.787
81.053 49507 222.502
81.1704 50907 225.626
81.2877 50007 223.622
81.4051 49284 222
81.5225 48327 219.834
81.6399 47900 218.861
81.7573 45268 212.763
81.8747 39992 199.98
81.9922 37886 194.643
82.1096 37240 192.977
82.227 39568 198.917
82.3444 43732 209.122
82.4619 47657 218.305
82.5793 51125 226.108
82.6967 50891 225.59
82.8142 51610 227.178
82.9316 51553 227.053
83.049 51198 226.27
83.1664 50449 224.609
83.2838 49236 221.892
83.4012 47570 218.105
83.5186 46440 215.499
83.636 44095 209.988
83.7534 42254 205.558
83.8708 39728 199.319
83.9881 37408 193.411
84.1055 36136 190.095
84.2228 36774 191.765
84.3401 38422 196.015
84.4575 40064 200.16
84.5747 42986 207.331
84.692 45236 212.688
84.8093 45495 213.296
84.9265 45710 213.799
85.0437 45723 213.829
85.1609 44737 211.511
85.2781 42448 206.029
85.3952 39153 197.871
85.5123 36429 190.864
85.6294 35258 187.771
85.7465 36876 192.031
85.8636 41518 203.76
85.9806 46685 216.067
86.0976 50181 224.011
86.2145 52813 229.811
86.3315 55797 236.214
86.4484 54030 232.444
86.5652 56339 237.358
86.682 56839 238.409
86.7988 55976 236.592
86.9156 54496 233.444
87.0323 53840 232.034
87.149 52113 228.283
87.2657 49922 223.432
87.3823 48206 219.559
87.4988 45512 213.335
87.6154 44188 210.209
87.7318 44388 210.685
87.8483 45873 214.18
87.9647 47926 218.92
88.081 51153 226.17
88.1973 54522 233.499
88.3136 55155 234.851
88.4298 55630 235.86
88.546 54713 233.908
88.6621 54411 233.262
88.7781 51727 227.436
88.8942 0 1
89.0101 0 1
89.126 0 1
89.2419 0 1
89.3577 0 1
89.4734 0 1
89.5891 0 1
89.7047 0 1
89.8203 0 1
89.9358 0 1
92.3269 0 1
92.4424 0 1
92.558 0 1
92.6736 0 1
92.7893 0 1
92.905 0 1
93.0208 0 1
93.1366 0 1
93.2525 0 1
93.3685 0 1
93.4845 0 1
93.6005 51647 227.26
93.7167 53952 232.276
93.8328 53517 231.337
93.949 53906 232.177
94.0653 53119 230.476
94.1816 51781 227.554
94.2979 50168 223.982
94.4143 45733 213.853
94.5307 41791 204.428
94.6472 40033 200.082
94.7637 40600 201.494
94.8803 43925 209.583
94.9969 50017 223.645
95.1135 54132 232.663
95.2302 56969 238.682
95.3469 58841 242.572
95.4637 59463 243.85
95.5805 60534 246.037
95.6973 61521 248.034
95.8142 61417 247.825
95.9311 60417 245.799
96.048 58994 242.887
96.1649 57156 239.073
96.2819 55182 234.908
96.3989 53500 231.301
96.516 50951 225.723
96.633 48654 220.577
96.7501 47370 217.647
96.8673 46953 216.686
96.9844 47506 217.959
97.1016 48700 220.681
97.2188 50887 225.581
97.336 53953 232.278
97.4532 54810 234.115
97.5704 55067 234.664
97.6877 54611 233.69
97.805 52327 228.751
97.9223 50149 223.94
98.0396 45826 214.07
98.1569 41409 203.492
98.2743 38767 196.893
98.3916 39015 197.522
98.509 41838 204.543
98.6264 48328 219.836
98.7438 53209 230.671
98.8612 55957 236.552
98.9786 58287 241.427
99.096 59458 243.84
99.2134 59814 244.569
99.3308 60906 246.791
99.4482 60694 246.362
99.5656 59460 243.844
99.6831 58011 240.855
99.8005 56366 237.415
99.9179 54501 233.454
100.035 52689 229.541
100.153 50550 224.833
100.27 48929 221.199
100.388 48500 220.227
100.505 48944 221.233
100.622 49700 222.935
100.74 52048 228.14
100.857 54080 232.551
100.975 55546 235.682
101.092 55415 235.404
101.209 55064 234.657
101.327 53964 232.302
101.444 53079 230.389
101.561 49480 222.441
101.679 44091 209.979
101.796 39925 199.812
101.913 38855 197.117
102.03 41569 203.885
102.148 48321 219.82
102.265 53537 231.381
102.382 59870 244.683
102.499 60314 245.589
102.616 62143 249.285
102.733 63392 251.778
102.851 64165 253.308
102.968 63895 252.775
103.085 63620 252.23
103.202 61877 248.751
103.319 59802 244.544
103.436 58400 241.661
103.552 56519 237.737
103.669 54313 233.051
103.786 52726 229.621
103.903 51821 227.642
104.02 52695 229.554
104.137 54308 233.041
104.253 55640 235.881
104.37 58339 241.535
104.487 59123 243.152
104.603 59972 244.892
104.72 59420 243.762
104.836 59058 243.019
104.953 57356 239.491
105.069 51758 227.504
105.186 45751 213.895
105.302 42480 206.107
105.418 42748 206.756
105.535 46899 216.562
105.651 55780 236.178
105.767 61952 248.902
105.883 66270 257.43
105.999 67721 260.233
106.115 0 1
106.231 0 1
106.347 0 1
106.463 0 1
106.579 0 1
106.694 0 1
106.81 0 1
106.926 0 1
107.041 0 1
107.157 0 1
109.576 0 1
109.692 0 1
109.807 0 1
109.923 0 1
110.039 0 1
110.155 0 1
110.27 0 1
110.386 0 1
110.502 0 1
110.618 46162 214.853
110.735 55235 235.021
110.851 60931 246.842
110.967 63538 252.067
111.083 65364 255.664
111.199 66247 257.385
111.316 67200 259.23
111.432 67879 260.536
111.549 67313 259.447
111.665 66092 257.084
111.782 64348 253.669
111.898 62062 249.122
112.015 60142 245.239
112.132 57863 240.547
112.248 56389 237.464
112.365 55980 236.601
112.482 54579 233.621
112.599 57911 240.647
112.716 57908 240.641
112.832 58460 241.785
112.949 59925 244.796
113.066 60530 246.028
113.183 59951 244.849
113.3 59445 243.813
113.417 58519 241.907
113.534 56099 236.852
113.652 50553 224.84
113.769 44726 211.485
113.886 41721 204.257
114.003 41024 202.544
114.12 44894 211.882
114.238 53715 231.765
114.355 60348 245.658
114.472 62772 250.543
114.589 65833 256.579
114.707 66652 258.17
114.824 67136 259.106
114.942 67368 259.553
115.059 68677 262.063
115.176 67513 259.833
115.294 66241 257.373
115.411 64559 254.085
115.529 62607 250.214
115.646 61017 247.016
115.764 59658 244.25
115.881 59122 243.15
115.999 58511 241.89
116.116 58776 242.438
116.234 60023 244.996
116.351 60178 245.312
116.469 61492 247.976
116.586 61952 248.902
116.704 62749 250.498
116.821 60996 246.974
116.939 60588 246.146
117.056 60080 245.112
117.174 55605 235.807
117.291 49837 223.242
117.409 45353 212.962
117.526 42809 206.903
117.644 44324 210.533
117.761 49906 223.397
117.879 58556 241.983
117.996 62661 250.322
118.114 65709 256.338
118.231 67351 259.521
118.349 67676 260.146
118.466 68077 260.916
118.584 69224 263.105
118.701 68919 262.524
118.819 67568 259.938
118.936 65472 255.875
119.053 63634 252.258
119.171 62272 249.544
119.288 60572 246.114
119.405 59692 244.319
119.523 59224 243.36
119.64 57738 240.287
119.757 58999 242.897
119.875 59176 243.261
119.992 59196 243.302
120.109 59730 244.397
120.226 60277 245.514
120.343 60552 246.073
120.46 59554 244.037
120.578 59202 243.315
120.695 59052 243.006
120.812 56317 237.312
120.929 50392 224.482
121.046 47007 216.811
121.163 44064 209.914
121.279 43231 207.921
121.396 46060 214.616
121.513 52903 230.007
121.63 60512 245.992
121.747 63060 251.118
121.863 65196 255.335
121.98 65776 256.468
122.097 66667 258.2
122.213 67031 258.903
122.33 66360 257.604
122.446 65664 256.25
122.563 64516 254
122.679 62836 250.671
122.795 61575 248.143
122.912 60448 245.862
123.028 59698 244.332
123.144 58513 241.895
123.26 57717 240.244
123.377 0 1
123.493 0 1
123.609 0 1
123.725 0 1
123.84 0 1
123.956 0 1
124.072 0 1
124.188 0 1
124.303 0 1
124.419 0 1
126.852 0 1
126.968 0 1
127.083 0 1
127.199 0 1
127.315 0 1
127.431 0 1
127.547 0 1
127.663 0 1
127.779 0 1
127.895 0 1
128.011 0 1
128.127 0 1
128.243 0 1
128.359 64602 254.169
128.476 64321 253.616
128.592 64339 253.651
128.708 65031 255.012
128.825 65224 255.39
128.941 65466 255.863
129.058 66486 257.849
129.174 66668 258.201
129.291 67011 258.865
129.408 66875 258.602
129.524 64914 254.782
129.641 65223 255.388
129.758 60683 246.339
129.875 55590 235.775
129.992 51248 226.38
130.108 48219 219.588
130.225 46859 216.469
130.342 51469 226.868
130.459 57441 239.669
130.576 67392 259.6
130.693 69641 263.896
130.81 71733 267.83
130.928 71829 268.009
131.045 71738 267.84
131.162 73067 270.309
131.279 73323 270.782
131.396 72696 269.622
131.513 72753 269.728
131.631 71446 267.294
131.748 69318 263.283
131.865 69275 263.201
131.983 69799 264.195
132.1 69360 263.363
132.217 69229 263.114
132.335 69005 262.688
132.452 68460 261.649
132.57 68752 262.206
132.687 68344 261.427
132.804 70079 264.724
132.922 69071 262.814
133.039 68171 261.096
133.157 68130 261.017
133.274 64997 254.945
133.392 58810 242.508
133.509 54126 232.65
133.627 49644 222.809
133.744 47203 217.263
133.862 48512 220.254
133.979 56189 237.042
134.097 62655 250.31
134.214 66569 258.01
134.332 71460 267.32
134.449 70621 265.746
134.567 70657 265.814
134.684 72315 268.914
134.802 72584 269.414
134.919 73286 270.714
135.037 72351 268.981
135.154 71404 267.215
135.272 70825 266.13
135.389 69834 264.261
135.507 70472 265.466
135.624 70311 265.162
135.742 69742 264.087
135.859 69149 262.962
135.977 69315 263.277
136.094 69801 264.199
136.211 69908 264.401
136.329 70083 264.732
136.446 69599 263.816
136.564 69610 263.837
136.681 69245 263.144
136.798 68261 261.268
136.915 63318 251.631
137.033 57357 239.493
137.15 53665 231.657
137.267 49738 223.02
137.384 47327 217.548
137.502 49254 221.932
137.619 55293 235.145
137.736 62063 249.124
137.853 64778 254.515
137.97 69380 263.401
138.087 69182 263.025
138.204 71267 266.959
138.321 72358 268.994
138.438 72640 269.518
138.555 73243 270.634
138.672 72988 270.163
138.788 72287 268.862
138.905 72199 268.699
139.022 72393 269.059
139.139 72246 268.786
139.255 71021 266.498
139.372 71061 266.573
139.488 71017 266.49
139.605 70953 266.37
139.721 71456 267.313
139.838 71755 267.871
139.954 71700 267.769
140.071 70448 265.42
140.187 71695 267.759
140.303 70467 265.456
140.419 69037 262.749
140.535 65321 255.58
140.652 59715 244.367
140.768 0 1
140.884 0 1
141 0 1
141.115 0 1
141.231 0 1
141.347 0 1
141.463 0 1
141.578 0 1
141.694 0 1
144.104 0 1
144.219 0 1
144.335 0 1
144.45 0 1
144.566 0 1
144.682 0 1
144.798 0 1
144.914 0 1
145.03 0 1
145.146 51244 226.371
145.262 56501 237.699
145.378 57501 239.794
145.494 56883 238.502
145.61 55101 234.736
145.726 52172 228.412
145.842 48257 219.675
145.959 45227 212.666
146.075 43127 207.67
146.192 41157 202.872
146.308 41916 204.734
146.425 44495 210.938
146.541 48606 220.468
146.658 51749 227.484
146.774 55140 234.819
146.891 57415 239.614
147.008 59549 244.027
147.125 60458 245.882
147.241 61850 248.697
147.358 62470 249.94
147.475 62127 249.253
147.592 62324 249.648
147.709 62535 250.07
147.826 63231 251.458
147.943 62497 249.994
148.06 62307 249.614
148.177 61625 248.244
148.294 60948 246.876
148.411 60877 246.733
148.528 61074 247.132
148.645 60934 246.848
148.762 61423 247.837
148.88 61310 247.609
148.997 60148 245.251
149.114 62855 250.709
149.231 61003 246.988
149.349 60192 245.341
149.466 58913 242.72
149.583 55066 234.661
149.701 51075 225.998
149.818 47829 218.698
149.935 45635 213.624
150.053 44592 211.168
150.17 46260 215.081
150.287 48937 221.217
150.405 52528 229.19
150.522 55725 236.061
150.64 58337 241.531
150.757 61924 248.845
150.875 63236 251.468
150.992 64810 254.578
151.11 66635 258.138
151.227 66107 257.113
151.344 65642 256.207
151.462 65781 256.478
151.579 66857 258.567
151.697 66221 257.334
151.814 65389 255.713
151.932 64992 254.935
152.049 64483 253.935
152.167 64181 253.34
152.284 64636 254.236
152.402 64681 254.325
152.519 64792 254.543
152.636 65049 255.047
152.754 64917 254.788
152.871 64755 254.47
152.989 63935 252.854
153.106 60851 246.68
153.223 57213 239.192
153.341 53494 231.288
153.458 50281 224.234
153.575 48212 219.572
153.693 47697 218.396
153.81 49766 223.083
153.927 52310 228.714
154.044 55269 235.094
154.162 58402 241.665
154.279 62582 250.164
154.396 64964 254.88
154.513 66862 258.577
154.63 67891 260.559
154.747 69095 262.859
154.864 69076 262.823
154.981 69799 264.195
155.098 69062 262.796
155.215 69458 263.549
155.332 68070 260.902
155.449 67817 260.417
155.566 66934 258.716
155.683 66471 257.82
155.8 66459 257.796
155.917 67577 259.956
156.033 67356 259.53
156.15 0 1
156.267 0 1
156.383 0 1
156.5 0 1
156.617 0 1
156.733 0 1
156.85 0 1
156.966 0 1
157.082 0 1
157.199 0 1
157.315 0 1
157.431 0 1
157.547 0 1
157.664 0 1
157.78 0 1
157.896 0 1
158.012 0 1
158.128 0 1
158.244 0 1
158.359 0 1
158.475 0 1
158.591 0 1
158.706 0 1
