
6.15755 0 1
6.2731 0 1
6.3887 0 1
6.50437 0 1
6.62009 0 1
6.73587 0 1
6.8517 0 1
6.96759 0 1
7.08353 0 1
7.19952 0 1
7.31557 0 1
7.43166 0 1
7.54781 0 1
7.664 0 1
7.78024 0 1
7.89653 0 1
8.01286 0 1
8.12924 0 1
8.24567 0 1
8.36213 0 1
8.47864 0 1
8.59519 0 1
8.71178 0 1
8.82841 0 1
8.94508 0 1
9.06179 0 1
9.17853 0 1
9.29531 0 1
9.41212 0 1
9.52897 0 1
9.64584 0 1
9.76276 0 1
9.8797 0 1
9.99667 0 1
10.1137 0 1
10.2307 0 1
10.3478 0 1
10.4648 0 1
10.5819 0 1
10.6991 0 1
10.8162 0 1
10.9334 0 1
11.0506 0 1
11.1678 0 1
11.285 0 1
11.4023 0 1
11.5196 0 1
11.6369 0 1
11.7542 0 1
11.8715 0 1
11.9888 0 1
12.1062 0 1
12.2235 0 1
12.3409 0 1
12.4582 0 1
12.5756 0 1
12.693 0 1
12.8104 0 1
12.9278 0 1
13.0452 0 1
13.1626 0 1
13.28 0 1
13.3974 0 1
13.5149 0 1
13.6323 0 1
13.7497 0 1
13.8671 0 1
13.9845 0 1
14.1019 0 1
14.2193 0 1
14.3367 0 1
14.4541 0 1
14.5714 0 1
14.6888 0 1
14.8062 0 1
14.9235 0 1
15.0408 0 0
15.1581 0 0
15.2755 0 0
15.3927 0 0
15.51 0 0
15.6273 0 0
15.7445 0 0
15.8617 0 0
15.9789 0 0
16.0961 0 0
16.2132 0 0
16.3304 0 0
16.4475 0 0
16.5646 0 0
16.6816 0 0
16.7986 0 0
16.9156 0 0
17.0326 0 0
17.1496 0 0
17.2665 0 0
17.3833 0 0
17.5002 0 0
17.617 0 0
17.7338 0 0
17.8505 0 0
17.9672 0 0
18.0839 0 0
18.2005 0 0
18.3171 0 0
18.4337 0 0
18.5502 0 0
18.6666 0 0
18.7831 0 0
18.8994 0 0
19.0158 0 0
19.1321 0 0
19.2483 0 0
19.3645 0 0
19.4806 0 0
19.5967 0 0
19.7128 0 0
19.8288 0 0
19.9447 0 0
20.0606 0 1
20.1764 0 1
20.2922 0 1
20.4079 0 1
20.5236 0 1
20.6392 0 1
20.7548 0 1
20.8702 0 1
23.3078 0 1
23.4233 0 1
23.539 0 1
23.6547 0 1
23.7704 0 1
23.8862 0 1
24.0021 0 1
24.118 0 1
24.234 0 1
24.35 0 1
24.4661 39550 198.872
24.5822 39684 199.208
24.6984 39431 198.572
24.8146 38502 196.219
24.9309 38155 195.333
25.0472 37716 194.206
25.1636 37292 193.111
25.28 36603 191.319
25.3965 36712 191.604
25.513 37044 192.468
25.6296 37648 194.031
25.7462 38672 196.652
25.8628 39177 197.932
25.9795 39661 199.151
26.0962 40396 200.988
26.213 41094 202.717
26.3298 40679 201.69
26.4466 41817 204.492
26.5635 42443 206.017
26.6804 42161 205.331
26.7973 41555 203.85
26.9143 41099 202.729
27.0313 41050 202.608
27.1483 41800 204.45
27.2653 42496 206.146
27.3824 43056 207.499
27.4996 42711 206.666
27.6167 42483 206.114
27.7339 41522 203.769
27.8511 40899 202.235
27.9683 40096 200.24
28.0855 39250 198.116
28.2028 39009 197.507
28.3201 37489 193.621
28.4374 37182 192.826
28.5547 36616 191.353
28.6721 35510 188.441
28.7894 35262 187.782
28.9068 34766 186.456
29.0242 35047 187.208
29.1416 35042 187.195
29.259 35562 188.579
29.3764 35716 188.987
29.4939 36597 191.303
29.6113 37678 194.108
29.7288 38280 195.653
29.8463 38907 197.249
29.9638 39687 199.216
30.0812 39889 199.722
30.1987 39593 198.98
30.3162 39052 197.616
30.4337 38803 196.985
30.5512 38731 196.802
30.6687 39155 197.876
30.7862 40381 200.95
30.9037 40397 200.99
31.0212 40192 200.479
31.1387 40388 200.968
31.2562 39511 198.774
31.3737 39179 197.937
31.4912 38377 195.9
31.6087 38141 195.297
31.7262 37219 192.922
31.8436 36729 191.648
31.9611 36041 189.845
32.0785 35540 188.521
32.1959 35275 187.816
32.3134 34354 185.348
32.4308 34345 185.324
32.5482 34394 185.456
32.6655 34454 185.618
32.7829 34930 186.896
32.9002 35140 187.457
33.0176 36105 190.013
33.1349 36912 192.125
33.2522 37840 194.525
33.3694 38215 195.487
33.4867 38764 196.886
33.6039 39148 197.859
33.7211 39613 199.03
33.8383 39415 198.532
33.9554 38674 196.657
34.0725 37623 193.966
34.1896 37515 193.688
34.3067 37900 194.679
34.4237 38420 196.01
34.5407 38901 197.233
34.6577 39534 198.832
34.7746 38659 196.619
34.8915 39091 197.714
35.0084 38022 194.992
35.1252 37347 193.254
35.242 36989 192.325
35.3587 37259 193.026
35.4755 36641 191.418
35.5921 36387 190.754
35.7088 36209 190.287
35.8254 35868 189.388
35.9419 35344 188
36.0584 34904 186.826
36.1749 34388 185.44
36.2913 34004 184.402
36.4077 34130 184.743
36.524 34521 185.798
36.6403 34839 186.652
36.7565 35146 187.473
36.8727 35942 189.584
36.9889 36358 190.678
37.1049 35576 188.616
37.221 0 1
37.3369 0 1
37.4529 0 1
37.5687 0 1
37.6845 0 1
37.8003 0 1
37.916 0 1
38.0316 0 1
38.1472 0 1
40.5851 0 1
40.7008 0 1
40.8164 0 1
40.9322 0 1
41.048 0 1
41.1639 0 1
41.2798 0 1
41.3958 0 1
41.5118 0 1
41.6279 0 1
41.744 27413 165.569
41.8602 28275 168.152
41.9765 29376 171.394
42.0928 29813 172.664
42.2091 30218 173.833
42.3255 30157 173.658
42.4419 30623 174.994
42.5584 30539 174.754
42.675 30118 173.545
42.7915 29074 170.511
42.9081 28050 167.481
43.0248 28474 168.742
43.1415 29645 172.177
43.2582 29985 173.162
43.375 30736 175.317
43.4918 30814 175.539
43.6087 30634 175.026
43.7256 30332 174.161
43.8425 30010 173.234
43.9595 29976 173.136
44.0765 29967 173.11
44.1935 30034 173.303
44.3106 30198 173.776
44.4277 29225 170.953
44.5448 28507 168.84
44.6619 27817 166.784
44.7791 26773 163.625
44.8963 25623 160.072
45.0136 25527 159.772
45.1308 25392 159.349
45.2481 24760 157.353
45.3654 24748 157.315
45.4827 25059 158.3
45.6001 25541 159.816
45.7174 25411 159.408
45.8348 25472 159.599
45.9522 25669 160.215
46.0697 25381 159.314
46.1871 24986 158.07
46.3046 24054 155.094
46.422 23625 153.704
46.5395 23110 152.02
46.657 23422 153.042
46.7745 24164 155.448
46.892 24328 155.974
47.0096 24484 156.474
47.1271 24970 158.019
47.2446 24749 157.318
47.3622 24627 156.93
47.4797 24946 157.943
47.5973 24543 156.662
47.7149 24682 157.105
47.8324 23872 154.506
47.95 23545 153.444
48.0675 22520 150.067
48.1851 22099 148.657
48.3027 21131 145.365
48.4202 20689 143.837
48.5378 19924 141.152
48.6554 19943 141.22
48.7729 20048 141.591
48.8904 20402 142.836
49.008 20763 144.094
49.1255 21095 145.241
49.243 21339 146.079
49.3605 21437 146.414
49.478 21601 146.973
49.5955 21866 147.872
49.713 21564 146.847
49.8304 20867 144.454
49.9479 20629 143.628
50.0653 20875 144.482
50.1827 22297 149.322
50.3001 23134 152.099
50.4175 24536 156.64
50.5348 24865 157.686
50.6521 26127 161.638
50.7694 26811 163.741
50.8867 27748 166.577
51.004 28814 169.747
51.1212 29761 172.514
51.2384 30488 174.608
51.3556 30904 175.795
51.4727 30840 175.613
51.5899 29845 172.757
51.707 29062 170.476
51.824 28238 168.042
51.9411 27279 165.164
52.0581 27400 165.529
52.175 27600 166.132
52.2919 27012 164.353
52.4088 26600 163.095
52.5257 27472 165.747
52.6425 28043 167.46
52.7593 28403 168.532
52.876 28738 169.523
52.9927 29287 171.134
53.1094 29647 172.183
53.226 30347 174.204
53.3426 29653 172.2
53.4591 29278 171.108
53.5756 29001 170.297
53.692 29609 172.073
53.8084 31247 176.768
53.9248 32712 180.865
54.0411 33860 184.011
54.1573 34657 186.164
54.2735 0 1
54.3896 0 1
54.5057 0 1
54.6217 0 1
54.7377 0 1
54.8537 0 1
54.9695 0 1
55.0853 0 1
55.2011 0 1
55.3168 0 1
55.4324 0 1
57.824 0 1
57.9396 0 1
58.0553 0 1
58.1711 0 1
58.2869 0 1
58.4028 0 1
58.5187 0 1
58.6347 0 1
58.7508 0 1
58.8669 0 1
58.983 37225 192.938
59.0992 39715 199.286
59.2155 41898 204.69
59.3318 44187 210.207
59.4482 46165 214.86
59.5646 47056 216.924
59.681 47336 217.568
59.7975 46841 216.428
59.9141 45942 214.341
60.0306 44371 210.644
60.1473 42123 205.239
60.2639 40092 200.23
60.3807 37965 194.846
60.4974 35716 188.987
60.6142 33325 182.551
60.731 31600 177.764
60.8479 30706 175.231
60.9648 30357 174.233
61.0818 31632 177.854
61.1987 32947 181.513
61.3158 34218 184.981
61.4328 34397 185.464
61.5499 34327 185.275
61.667 34792 186.526
61.7841 34128 184.738
61.9013 33664 183.478
62.0185 32858 181.268
62.1357 32884 181.339
62.253 33371 182.677
62.3702 34920 186.869
62.4875 37111 192.642
62.6049 38905 197.244
62.7222 41258 203.121
62.8396 43318 208.13
62.9569 44125 210.06
63.0743 44950 212.014
63.1918 44332 210.552
63.3092 43196 207.836
63.4267 42801 206.884
63.5441 41188 202.948
63.6616 39256 198.131
63.7791 36469 190.969
63.8966 34683 186.234
64.0142 31138 176.46
64.1317 28701 169.414
64.2492 27126 164.7
64.3668 27109 164.648
64.4843 27099 164.618
64.6019 28342 168.351
64.7195 29966 173.107
64.837 31222 176.697
64.9546 31344 177.042
65.0722 31486 177.443
65.1898 31760 178.213
65.3074 32165 179.346
65.4249 31177 176.57
65.5425 30454 174.511
65.6601 29833 172.722
65.7777 30341 174.187
65.8952 31418 177.251
66.0128 33675 183.507
66.1304 36904 192.104
66.2479 39988 199.97
66.3655 41585 203.924
66.483 42529 206.226
66.6005 43167 207.767
66.718 42443 206.017
66.8355 42531 206.23
66.953 42065 205.098
67.0705 40623 201.551
67.1879 38034 195.023
67.3054 35237 187.715
67.4228 31665 177.947
67.5402 28534 168.92
67.6576 26813 163.747
67.7749 25639 160.122
67.8923 25953 161.099
68.0096 25545 159.828
68.1269 26295 162.157
68.2442 28769 169.614
68.3614 30192 173.758
68.4787 31801 178.328
68.5958 32004 178.897
68.713 31635 177.862
68.8302 32151 179.307
68.9473 32312 179.755
69.0643 31152 176.499
69.1814 30419 174.41
69.2984 30085 173.45
69.4154 30758 175.38
69.5323 32902 181.389
69.6492 37075 192.549
69.7661 40279 200.696
69.8829 42648 206.514
69.9997 44448 210.827
70.1165 44779 211.61
70.2332 45371 213.005
70.3499 45270 212.767
70.4665 45129 212.436
70.5831 44132 210.076
70.6996 41512 203.745
70.8161 37731 194.245
70.9326 34728 186.355
71.049 32069 179.078
71.1653 30575 174.857
71.2817 27735 166.538
71.3979 25865 160.826
71.5141 25577 159.928
71.6303 25057 158.294
71.7464 23342 152.781
71.8624 0 1
71.9784 0 1
72.0944 0 1
72.2102 0 1
72.3261 0 1
72.4418 0 1
72.5575 0 1
72.6732 0 1
75.1054 0 1
75.2209 0 1
75.3365 0 1
75.4521 0 1
75.5678 0 1
75.6835 0 1
75.7993 0 1
75.9151 0 1
76.031 0 1
76.147 35199 187.614
76.263 35003 187.091
76.3791 32847 181.237
76.4952 30997 176.06
76.6113 29216 170.927
76.7276 27694 166.415
76.8438 26595 163.08
76.9601 26726 163.481
77.0765 27562 166.018
77.1929 29255 171.041
77.3093 32021 178.944
77.4258 33660 183.467
77.5423 34414 185.51
77.6589 33283 182.436
77.7755 32325 179.792
77.8921 32441 180.114
78.0088 31663 177.941
78.1256 30471 174.559
78.2423 29879 172.855
78.3591 29626 172.122
78.4759 30383 174.307
78.5928 34011 184.421
78.7097 38152 195.325
78.8266 42991 207.343
78.9436 42272 205.602
79.0606 45278 212.786
79.1776 44936 211.981
79.2946 45710 213.799
79.4117 44924 211.953
79.5288 43885 209.487
79.6459 42056 205.076
79.7631 39368 198.414
79.8802 36237 190.36
79.9974 33682 183.527
80.1147 31339 177.028
80.2319 28772 169.623
80.3491 26769 163.612
80.4664 25791 160.596
80.5837 25988 161.208
80.701 26427 162.564
80.8183 27538 165.946
80.9357 30016 173.251
81.053 31850 178.466
81.1704 32385 179.958
81.2877 31645 177.89
81.4051 30633 175.023
81.5225 30716 175.26
81.6399 29537 171.863
81.7573 29038 170.405
81.8747 27794 166.715
81.9922 28296 168.214
82.1096 29898 172.91
82.227 32464 180.178
82.3444 35832 189.293
82.4619 39281 198.194
82.5793 40512 201.276
82.6967 43167 207.767
82.8142 42239 205.521
82.9316 42023 204.995
83.049 41045 202.596
83.1664 39367 198.411
83.2838 37671 194.09
83.4012 34904 186.826
83.5186 32162 179.338
83.636 30108 173.517
83.7534 28265 168.122
83.8708 25882 160.879
83.9881 24210 155.596
84.1055 23492 153.271
84.2228 23679 153.88
84.3401 24529 156.617
84.4575 25813 160.664
84.5747 28652 169.269
84.692 30819 175.553
84.8093 31468 177.392
84.9265 30238 173.891
85.0437 29320 171.231
85.1609 28605 169.13
85.2781 27712 166.469
85.3952 27070 164.53
85.5123 27169 164.83
85.6294 28710 169.44
85.7465 31252 176.782
85.8636 34823 186.609
85.9806 37880 194.628
86.0976 40723 201.799
86.2145 43533 208.646
86.3315 44005 209.774
86.4484 45963 214.39
86.5652 44890 211.873
86.682 43890 209.499
86.7988 42170 205.353
86.9156 40106 200.265
87.0323 37225 192.938
87.149 35528 188.489
87.2657 33595 183.289
87.3823 31118 176.403
87.4988 29122 170.652
87.6154 27852 166.889
87.7318 27710 166.463
87.8483 28432 168.618
87.9647 30411 174.387
88.081 33424 182.822
88.1973 35936 189.568
88.3136 36414 190.825
88.4298 35643 188.794
88.546 33895 184.106
88.6621 32402 180.006
88.7781 30947 175.918
88.8942 0 1
89.0101 0 1
89.126 0 1
89.2419 0 1
89.3577 0 1
89.4734 0 1
89.5891 0 1
89.7047 0 1
89.8203 0 1
89.9358 0 1
92.3269 0 1
92.4424 0 1
92.558 0 1
92.6736 0 1
92.7893 0 1
92.905 0 1
93.0208 0 1
93.1366 0 1
93.2525 0 1
93.3685 0 1
93.4845 0 1
93.6005 43010 207.389
93.7167 45668 213.701
93.8328 47317 217.525
93.949 48865 221.054
94.0653 50499 224.72
94.1816 51514 226.967
94.2979 52386 228.88
94.4143 52629 229.41
94.5307 54844 234.188
94.6472 57484 239.758
94.7637 60997 246.976
94.8803 68252 261.251
94.9969 75254 274.325
95.1135 82067 286.473
95.2302 87958 296.577
95.3469 92630 304.352
95.4637 95885 309.653
95.5805 100173 316.501
95.6973 103229 321.293
95.8142 105596 324.955
95.9311 106128 325.773
96.048 104980 324.006
96.1649 104443 323.176
96.2819 102538 320.216
96.3989 100156 316.474
96.516 96092 309.987
96.633 90495 300.824
96.7501 86745 294.525
96.8673 87287 295.444
96.9844 91900 303.15
97.1016 99062 314.741
97.2188 107059 327.199
97.336 115908 340.453
97.4532 119707 345.987
97.5704 121171 348.096
97.6877 119364 345.491
97.805 116401 341.176
97.9223 111004 333.173
98.0396 103942 322.4
98.1569 99558 315.528
98.2743 96495 310.636
98.3916 97464 312.192
98.509 104079 322.613
98.6264 111876 334.479
98.7438 119750 346.049
98.8612 126215 355.268
98.9786 130959 361.883
99.096 133641 365.569
99.2134 134510 366.756
99.3308 135386 367.948
99.4482 134671 366.975
99.5656 133718 365.675
99.6831 130191 360.82
99.8005 125830 354.725
99.9179 121023 347.884
100.035 115845 340.36
100.153 108090 328.77
100.27 100644 317.244
100.388 97045 311.52
100.505 99897 316.065
100.622 105726 325.155
100.74 113213 336.471
100.857 120355 346.922
100.975 122555 350.079
101.092 122105 349.435
101.209 121661 348.799
101.327 118985 344.942
101.444 113961 337.581
101.561 106532 326.392
101.679 99739 315.815
101.796 95248 308.623
101.913 93829 306.315
102.03 97881 312.859
102.148 105703 325.12
102.265 120596 347.269
102.382 114921 339
102.499 123994 352.128
102.616 124734 353.177
102.733 125250 353.907
102.851 124470 352.803
102.968 122545 350.064
103.085 118927 344.858
103.202 113277 336.566
103.319 107219 327.443
103.436 100519 317.047
103.552 93277 305.413
103.669 85385 292.207
103.786 77269 277.973
103.903 72632 269.503
104.02 72339 268.959
104.137 73006 270.196
104.253 77208 277.863
104.37 75030 273.916
104.487 76157 275.966
104.603 73335 270.804
104.72 69217 263.091
104.836 64459 253.888
104.953 58613 242.101
105.069 53661 231.648
105.186 50569 224.876
105.302 49108 221.603
105.418 49465 222.407
105.535 53336 230.946
105.651 56541 237.784
105.767 59869 244.681
105.883 60739 246.453
105.999 60458 245.882
106.115 0 1
106.231 0 1
106.347 0 1
106.463 0 1
106.579 0 1
106.694 0 1
106.81 0 1
106.926 0 1
107.041 0 1
107.157 0 1
109.576 0 1
109.692 0 1
109.807 0 1
109.923 0 1
110.039 0 1
110.155 0 1
110.27 0 1
110.386 0 1
110.502 0 1
110.618 39299 198.24
110.735 43803 209.292
110.851 46709 216.123
110.967 49418 222.302
111.083 49775 223.103
111.199 50474 224.664
111.316 51051 225.945
111.432 50197 224.047
111.549 49068 221.513
111.665 46741 216.197
111.782 43649 208.923
111.898 41418 203.514
112.015 39490 198.721
112.132 37890 194.654
112.248 35205 187.63
112.365 33793 183.829
112.482 33865 184.024
112.599 33417 182.803
112.716 34987 187.048
112.832 35521 188.47
112.949 35446 188.271
113.066 35054 187.227
113.183 33935 184.215
113.3 32259 179.608
113.417 30820 175.556
113.534 30442 174.476
113.652 30662 175.106
113.769 31338 177.025
113.886 32499 180.275
114.003 33989 184.361
114.12 36883 192.049
114.238 39379 198.441
114.355 41915 204.732
114.472 43173 207.781
114.589 44190 210.214
114.707 44667 211.346
114.824 44731 211.497
114.942 44840 211.755
115.059 44027 209.826
115.176 41855 204.585
115.294 40431 201.075
115.411 39042 197.59
115.529 37766 194.335
115.646 36284 190.484
115.764 34237 185.032
115.881 33065 181.838
115.999 32499 180.275
116.116 33175 182.14
116.234 33743 183.693
116.351 34516 185.785
116.469 34798 186.542
116.586 34514 185.779
116.704 34369 185.389
116.821 33074 181.863
116.939 32492 180.255
117.056 31744 178.168
117.174 31745 178.171
117.291 32747 180.961
117.409 33662 183.472
117.526 34264 185.105
117.644 37011 192.382
117.761 39388 198.464
117.879 41613 203.993
117.996 43421 208.377
118.114 44879 211.847
118.231 45869 214.17
118.349 45992 214.457
118.466 46572 215.805
118.584 45606 213.556
118.701 44732 211.499
118.819 43465 208.483
118.936 42117 205.224
119.053 40744 201.851
119.171 39408 198.514
119.288 38166 195.361
119.405 36468 190.966
119.523 34885 186.775
119.64 34726 186.349
119.757 34754 186.424
119.875 35453 188.29
119.992 36045 189.855
120.109 35825 189.275
120.226 35661 188.841
120.343 35003 187.091
120.46 34419 185.524
120.578 33994 184.375
120.695 33574 183.232
120.812 33721 183.633
120.929 33955 184.269
121.046 33946 184.244
121.163 34304 185.213
121.279 36343 190.638
121.396 38675 196.66
121.513 40617 201.537
121.63 43321 208.137
121.747 44007 209.778
121.863 44688 211.395
121.98 45584 213.504
122.097 44900 211.896
122.213 44845 211.766
122.33 43567 208.727
122.446 43096 207.596
122.563 41902 204.7
122.679 41346 203.337
122.795 40479 201.194
122.912 39114 197.773
123.028 37350 193.261
123.144 35400 188.149
123.26 34765 186.454
123.377 0 1
123.493 0 1
123.609 0 1
123.725 0 1
123.84 0 1
123.956 0 1
124.072 0 1
124.188 0 1
124.303 0 1
124.419 0 1
126.852 0 1
126.968 0 1
127.083 0 1
127.199 0 1
127.315 0 1
127.431 0 1
127.547 0 1
127.663 0 1
127.779 0 1
127.895 0 1
128.011 0 1
128.127 0 1
128.243 0 1
128.359 41182 202.933
128.476 40325 200.811
128.592 40290 200.724
128.708 41618 204.005
128.825 43089 207.579
128.941 43165 207.762
129.058 42716 206.678
129.174 43054 207.495
129.291 42363 205.823
129.408 42014 204.973
129.524 41038 202.578
129.641 40483 201.204
129.758 39768 199.419
129.875 39334 198.328
129.992 40053 200.132
130.108 40329 200.821
130.225 42077 205.127
130.342 44307 210.492
130.459 44599 211.185
130.576 48076 219.262
130.693 47364 217.633
130.81 47743 218.502
130.928 47168 217.182
131.045 46657 216.002
131.162 46768 216.259
131.279 46794 216.319
131.396 46432 215.481
131.513 45806 214.023
131.631 44927 211.96
131.748 44142 210.1
131.865 42077 205.127
131.983 40596 201.484
132.1 40785 201.953
132.217 41514 203.75
132.335 42671 206.57
132.452 43354 208.216
132.57 42986 207.331
132.687 42045 205.049
132.804 43789 209.258
132.922 42249 205.546
133.039 40951 202.364
133.157 40191 200.477
133.274 39633 199.08
133.392 39669 199.171
133.509 39597 198.99
133.627 39903 199.757
133.744 41369 203.394
133.862 42453 206.041
133.979 44166 210.157
134.097 45180 212.556
134.214 45545 213.413
134.332 44534 211.031
134.449 45276 212.782
134.567 45344 212.941
134.684 45899 214.241
134.802 45904 214.252
134.919 46090 214.686
135.037 45925 214.301
135.154 45109 212.389
135.272 44726 211.485
135.389 42994 207.35
135.507 42515 206.192
135.624 41588 203.931
135.742 42329 205.74
135.859 44096 209.99
135.977 44695 211.412
136.094 45202 212.608
136.211 44876 211.84
136.329 45426 213.134
136.446 44403 210.72
136.564 43545 208.674
136.681 42729 206.71
136.798 41250 203.101
136.915 41129 202.803
137.033 40493 201.229
137.15 40814 202.025
137.267 40789 201.963
137.384 42336 205.757
137.502 43125 207.666
137.619 44134 210.081
137.736 45144 212.471
137.853 44434 210.794
137.97 44451 210.834
138.087 46089 214.683
138.204 45732 213.85
138.321 46205 214.953
138.438 46999 216.793
138.555 47511 217.97
138.672 47180 217.21
138.788 46381 215.362
138.905 45682 213.733
139.022 44744 211.528
139.139 43639 208.899
139.255 43314 208.12
139.372 44069 209.926
139.488 45138 212.457
139.605 45972 214.411
139.721 46286 215.142
139.838 46283 215.135
139.954 45679 213.726
140.071 44189 210.212
140.187 44122 210.052
140.303 41519 203.762
140.419 40826 202.054
140.535 40012 200.03
140.652 39135 197.826
140.768 0 1
140.884 0 1
141 0 1
141.115 0 1
141.231 0 1
141.347 0 1
141.463 0 1
141.578 0 1
141.694 0 1
144.104 0 1
144.219 0 1
144.335 0 1
144.45 0 1
144.566 0 1
144.682 0 1
144.798 0 1
144.914 0 1
145.03 0 1
145.146 40408 201.017
145.262 39701 199.251
145.378 39019 197.532
145.494 38627 196.538
145.61 38126 195.259
145.726 38047 195.056
145.842 38101 195.195
145.959 38182 195.402
146.075 39456 198.635
146.192 39733 199.331
146.308 40663 201.651
146.425 41024 202.544
146.541 41469 203.639
146.658 41377 203.413
146.774 41815 204.487
146.891 42462 206.063
147.008 43207 207.863
147.125 43586 208.773
147.241 43636 208.892
147.358 43375 208.267
147.475 42139 205.278
147.592 41377 203.413
147.709 40308 200.769
147.826 39466 198.661
147.943 41029 202.556
148.06 41484 203.676
148.177 42405 205.925
148.294 42116 205.222
148.411 41825 204.512
148.528 41068 202.652
148.645 40576 201.435
148.762 40208 200.519
148.88 38982 197.439
148.997 36891 192.07
149.114 38885 197.193
149.231 36705 191.585
149.349 36844 191.948
149.466 36268 190.442
149.583 36813 191.867
149.701 37191 192.85
149.818 37990 194.91
149.935 38777 196.919
150.053 39386 198.459
150.17 39674 199.183
150.287 40132 200.33
150.405 41007 202.502
150.522 41925 204.756
150.64 41954 204.827
150.757 42284 205.631
150.875 42399 205.91
150.992 41989 204.912
151.11 40306 200.764
151.227 40127 200.317
151.344 38241 195.553
151.462 38449 196.084
151.579 39512 198.776
151.697 40851 202.116
151.814 41024 202.544
151.932 40779 201.938
152.049 40514 201.281
152.167 39868 199.67
152.284 39816 199.539
152.402 38138 195.29
152.519 37714 194.201
152.636 37215 192.912
152.754 36955 192.237
152.871 36834 191.922
152.989 36673 191.502
153.106 36945 192.211
153.223 37389 193.362
153.341 38318 195.75
153.458 39147 197.856
153.575 39733 199.331
153.693 40539 201.343
153.81 41759 204.35
153.927 41923 204.751
154.044 43495 208.555
154.162 44133 210.079
154.279 44603 211.194
154.396 45028 212.198
154.513 45643 213.642
154.63 45366 212.993
154.747 44564 211.102
154.864 43611 208.832
154.981 42453 206.041
155.098 41983 204.898
155.215 42945 207.232
155.332 42888 207.094
155.449 43187 207.815
155.566 42393 205.896
155.683 41779 204.399
155.8 41327 203.29
155.917 40694 201.728
156.033 39295 198.23
156.15 0 1
156.267 0 1
156.383 0 1
156.5 0 1
156.617 0 1
156.733 0 1
156.85 0 1
156.966 0 1
157.082 0 1
157.199 0 1
157.315 0 1
157.431 0 1
157.547 0 1
157.664 0 1
157.78 0 1
157.896 0 1
158.012 0 1
158.128 0 1
158.244 0 1
158.359 0 1
158.475 0 1
158.591 0 1
158.706 0 1
