
6.15755 0 1
6.2731 0 1
6.3887 0 1
6.50437 0 1
6.62009 0 1
6.73587 0 1
6.8517 0 1
6.96759 0 1
7.08353 0 1
7.19952 0 1
7.31557 0 1
7.43166 0 1
7.54781 0 1
7.664 0 1
7.78024 0 1
7.89653 0 1
8.01286 0 1
8.12924 0 1
8.24567 0 1
8.36213 0 1
8.47864 0 1
8.59519 0 1
8.71178 0 1
8.82841 0 1
8.94508 0 1
9.06179 0 1
9.17853 0 1
9.29531 0 1
9.41212 0 1
9.52897 0 1
9.64584 0 1
9.76276 0 1
9.8797 0 1
9.99667 0 1
10.1137 0 1
10.2307 0 1
10.3478 0 1
10.4648 0 1
10.5819 0 1
10.6991 0 1
10.8162 0 1
10.9334 0 1
11.0506 0 1
11.1678 0 1
11.285 0 1
11.4023 0 1
11.5196 0 1
11.6369 0 1
11.7542 0 1
11.8715 0 1
11.9888 0 1
12.1062 0 1
12.2235 0 1
12.3409 0 1
12.4582 0 1
12.5756 0 1
12.693 0 1
12.8104 0 1
12.9278 0 1
13.0452 0 1
13.1626 0 1
13.28 0 1
13.3974 0 1
13.5149 0 1
13.6323 0 1
13.7497 0 1
13.8671 0 1
13.9845 0 1
14.1019 0 1
14.2193 0 1
14.3367 0 1
14.4541 0 1
14.5714 0 1
14.6888 0 1
14.8062 0 1
14.9235 0 1
15.0408 1086 32.9545
15.1581 1149 33.8969
15.2755 1209 34.7707
15.3927 1181 34.3657
15.51 1142 33.7935
15.6273 1151 33.9264
15.7445 1107 33.2716
15.8617 1139 33.7491
15.9789 1079 32.8481
16.0961 1122 33.4963
16.2132 1039 32.2335
16.3304 1145 33.8378
16.4475 1148 33.8821
16.5646 1157 34.0147
16.6816 1196 34.5832
16.7986 1267 35.5949
16.9156 1251 35.3695
17.0326 1269 35.623
17.1496 1187 34.4529
17.2665 1254 35.4119
17.3833 1260 35.4965
17.5002 1191 34.5109
17.617 1149 33.8969
17.7338 1037 32.2025
17.8505 1042 32.28
17.9672 1008 31.749
18.0839 1019 31.9218
18.2005 1049 32.3883
18.3171 1093 33.0606
18.4337 1074 32.7719
18.5502 1064 32.619
18.6666 1071 32.7261
18.7831 1199 34.6266
18.8994 1117 33.4215
19.0158 1102 33.1964
19.1321 1065 32.6343
19.2483 1053 32.45
19.3645 973 31.1929
19.4806 938 30.6268
19.5967 899 29.9833
19.7128 786 28.0357
19.8288 683 26.1343
19.9447 659 25.671
20.0606 0 1
20.1764 0 1
20.2922 0 1
20.4079 0 1
20.5236 0 1
20.6392 0 1
20.7548 0 1
20.8702 0 1
23.3078 0 1
23.4233 0 1
23.539 0 1
23.6547 0 1
23.7704 0 1
23.8862 0 1
24.0021 0 1
24.118 0 1
24.234 0 1
24.35 0 1
24.4661 394 19.8494
24.5822 450 21.2132
24.6984 509 22.561
24.8146 599 24.4745
24.9309 587 24.2281
25.0472 633 25.1595
25.1636 671 25.9037
25.28 837 28.931
25.3965 861 29.3428
25.513 936 30.5941
25.6296 910 30.1662
25.7462 1040 32.249
25.8628 969 31.1288
25.9795 1027 32.0468
26.0962 967 31.0966
26.213 937 30.6105
26.3298 908 30.133
26.4466 888 29.7993
26.5635 858 29.2916
26.6804 873 29.5466
26.7973 859 29.3087
26.9143 899 29.9833
27.0313 868 29.4618
27.1483 912 30.1993
27.2653 960 30.9839
27.3824 988 31.4325
27.4996 1004 31.686
27.6167 970 31.1448
27.7339 867 29.4449
27.8511 896 29.9333
27.9683 834 28.8791
28.0855 944 30.7246
28.2028 831 28.8271
28.3201 768 27.7128
28.4374 765 27.6586
28.5547 767 27.6948
28.6721 820 28.6356
28.7894 813 28.5132
28.9068 866 29.4279
29.0242 861 29.3428
29.1416 955 30.9031
29.259 909 30.1496
29.3764 965 31.0644
29.4939 917 30.282
29.6113 934 30.5614
29.7288 900 30
29.8463 830 28.8097
29.9638 826 28.7402
30.0812 775 27.8388
30.1987 828 28.775
30.3162 815 28.5482
30.4337 829 28.7924
30.5512 812 28.4956
30.6687 812 28.4956
30.7862 879 29.6479
30.9037 845 29.0689
31.0212 871 29.5127
31.1387 873 29.5466
31.2562 823 28.688
31.3737 879 29.6479
31.4912 731 27.037
31.6087 752 27.4226
31.7262 729 27
31.8436 755 27.4773
31.9611 770 27.7489
32.0785 691 26.2869
32.1959 740 27.2029
32.3134 782 27.9643
32.4308 802 28.3196
32.5482 846 29.0861
32.6655 865 29.4109
32.7829 821 28.6531
32.9002 821 28.6531
33.0176 889 29.8161
33.1349 823 28.688
33.2522 821 28.6531
33.3694 790 28.1069
33.4867 730 27.0185
33.6039 744 27.2764
33.7211 735 27.1109
33.8383 736 27.1293
33.9554 723 26.8887
34.0725 788 28.0713
34.1896 789 28.0891
34.3067 803 28.3373
34.4237 734 27.0924
34.5407 773 27.8029
34.6577 804 28.3549
34.7746 805 28.3725
34.8915 794 28.178
35.0084 800 28.2843
35.1252 755 27.4773
35.242 748 27.3496
35.3587 746 27.313
35.4755 675 25.9808
35.5921 662 25.7294
35.7088 647 25.4362
35.8254 627 25.04
35.9419 717 26.7769
36.0584 676 26
36.1749 765 27.6586
36.2913 737 27.1477
36.4077 729 27
36.524 734 27.0924
36.6403 687 26.2107
36.7565 692 26.3059
36.8727 628 25.0599
36.9889 603 24.5561
37.1049 531 23.0434
37.221 0 1
37.3369 0 1
37.4529 0 1
37.5687 0 1
37.6845 0 1
37.8003 0 1
37.916 0 1
38.0316 0 1
38.1472 0 1
40.5851 0 1
40.7008 0 1
40.8164 0 1
40.9322 0 1
41.048 0 1
41.1639 0 1
41.2798 0 1
41.3958 0 1
41.5118 0 1
41.6279 0 1
41.744 361 19
41.8602 403 20.0749
41.9765 437 20.9045
42.0928 489 22.1133
42.2091 449 21.1896
42.3255 532 23.0651
42.4419 508 22.5389
42.5584 509 22.561
42.675 533 23.0868
42.7915 578 24.0416
42.9081 547 23.388
43.0248 610 24.6982
43.1415 620 24.8998
43.2582 595 24.3926
43.375 683 26.1343
43.4918 656 25.6125
43.6087 689 26.2488
43.7256 655 25.593
43.8425 601 24.5153
43.9595 611 24.7184
44.0765 652 25.5343
44.1935 577 24.0208
44.3106 542 23.2809
44.4277 589 24.2693
44.5448 505 22.4722
44.6619 495 22.2486
44.7791 605 24.5967
44.8963 546 23.3666
45.0136 628 25.0599
45.1308 673 25.9422
45.2481 683 26.1343
45.3654 648 25.4558
45.4827 642 25.3377
45.6001 662 25.7294
45.7174 626 25.02
45.8348 608 24.6577
45.9522 602 24.5357
46.0697 586 24.2074
46.1871 536 23.1517
46.3046 564 23.7487
46.422 633 25.1595
46.5395 644 25.3772
46.657 626 25.02
46.7745 648 25.4558
46.892 614 24.779
47.0096 642 25.3377
47.1271 676 26
47.2446 702 26.4953
47.3622 626 25.02
47.4797 627 25.04
47.5973 620 24.8998
47.7149 651 25.5147
47.8324 616 24.8193
47.95 619 24.8797
48.0675 550 23.4521
48.1851 517 22.7376
48.3027 525 22.9129
48.4202 568 23.8328
48.5378 609 24.6779
48.6554 656 25.6125
48.7729 631 25.1197
48.8904 641 25.318
49.008 674 25.9615
49.1255 685 26.1725
49.243 626 25.02
49.3605 605 24.5967
49.478 586 24.2074
49.5955 568 23.8328
49.713 528 22.9783
49.8304 590 24.2899
49.9479 613 24.7588
50.0653 640 25.2982
50.1827 612 24.7386
50.3001 607 24.6374
50.4175 639 25.2784
50.5348 656 25.6125
50.6521 664 25.7682
50.7694 690 26.2679
50.8867 668 25.8457
51.004 626 25.02
51.1212 663 25.7488
51.2384 619 24.8797
51.3556 597 24.4336
51.4727 549 23.4307
51.5899 537 23.1733
51.707 531 23.0434
51.824 563 23.7276
51.9411 595 24.3926
52.0581 589 24.2693
52.175 645 25.3969
52.2919 699 26.4386
52.4088 700 26.4575
52.5257 744 27.2764
52.6425 698 26.4197
52.7593 690 26.2679
52.876 683 26.1343
52.9927 607 24.6374
53.1094 593 24.3516
53.226 582 24.1247
53.3426 549 23.4307
53.4591 546 23.3666
53.5756 590 24.2899
53.692 571 23.8956
53.8084 548 23.4094
53.9248 528 22.9783
54.0411 534 23.1084
54.1573 523 22.8692
54.2735 0 1
54.3896 0 1
54.5057 0 1
54.6217 0 1
54.7377 0 1
54.8537 0 1
54.9695 0 1
55.0853 0 1
55.2011 0 1
55.3168 0 1
55.4324 0 1
57.824 0 1
57.9396 0 1
58.0553 0 1
58.1711 0 1
58.2869 0 1
58.4028 0 1
58.5187 0 1
58.6347 0 1
58.7508 0 1
58.8669 0 1
58.983 437 20.9045
59.0992 547 23.388
59.2155 611 24.7184
59.3318 613 24.7588
59.4482 716 26.7582
59.5646 755 27.4773
59.681 796 28.2135
59.7975 839 28.9655
59.9141 835 28.8964
60.0306 865 29.4109
60.1473 838 28.9482
60.2639 790 28.1069
60.3807 745 27.2947
60.4974 749 27.3679
60.6142 723 26.8887
60.731 750 27.3861
60.8479 805 28.3725
60.9648 894 29.8998
61.0818 914 30.2324
61.1987 913 30.2159
61.3158 917 30.282
61.4328 949 30.8058
61.5499 962 31.0161
61.667 869 29.4788
61.7841 804 28.3549
61.9013 786 28.0357
62.0185 782 27.9643
62.1357 830 28.8097
62.253 825 28.7228
62.3702 878 29.6311
62.4875 864 29.3939
62.6049 896 29.9333
62.7222 933 30.545
62.8396 974 31.209
62.9569 992 31.496
63.0743 977 31.257
63.1918 975 31.225
63.3092 960 30.9839
63.4267 907 30.1164
63.5441 906 30.0998
63.6616 877 29.6142
63.7791 866 29.4279
63.8966 775 27.8388
64.0142 805 28.3725
64.1317 727 26.9629
64.2492 796 28.2135
64.3668 845 29.0689
64.4843 886 29.7658
64.6019 1048 32.3728
64.7195 944 30.7246
64.837 930 30.4959
64.9546 962 31.0161
65.0722 1018 31.9061
65.1898 917 30.282
65.3074 827 28.7576
65.4249 805 28.3725
65.5425 824 28.7054
65.6601 797 28.2312
65.7777 875 29.5804
65.8952 935 30.5778
66.0128 919 30.315
66.1304 970 31.1448
66.2479 1019 31.9218
66.3655 1056 32.4962
66.483 1083 32.909
66.6005 1098 33.1361
66.718 1007 31.7333
66.8355 1013 31.8277
66.953 988 31.4325
67.0705 963 31.0322
67.1879 981 31.3209
67.3054 970 31.1448
67.4228 916 30.2655
67.5402 830 28.8097
67.6576 830 28.8097
67.7749 809 28.4429
67.8923 833 28.8617
68.0096 834 28.8791
68.1269 975 31.225
68.2442 1010 31.7805
68.3614 1076 32.8024
68.4787 1137 33.7194
68.5958 1115 33.3916
68.713 1095 33.0908
68.8302 1098 33.1361
68.9473 959 30.9677
69.0643 899 29.9833
69.1814 873 29.5466
69.2984 852 29.189
69.4154 896 29.9333
69.5323 1033 32.1403
69.6492 1063 32.6037
69.7661 1084 32.9242
69.8829 1092 33.0454
69.9997 1103 33.2114
70.1165 1078 32.8329
70.2332 1015 31.8591
70.3499 1030 32.0936
70.4665 1018 31.9061
70.5831 946 30.7571
70.6996 928 30.4631
70.8161 812 28.4956
70.9326 763 27.6225
71.049 701 26.4764
71.1653 573 23.9374
71.2817 458 21.4009
71.3979 442 21.0238
71.5141 390 19.7484
71.6303 354 18.8149
71.7464 346 18.6011
71.8624 0 1
71.9784 0 1
72.0944 0 1
72.2102 0 1
72.3261 0 1
72.4418 0 1
72.5575 0 1
72.6732 0 1
75.1054 0 1
75.2209 0 1
75.3365 0 1
75.4521 0 1
75.5678 0 1
75.6835 0 1
75.7993 0 1
75.9151 0 1
76.031 0 1
76.147 733 27.074
76.263 736 27.1293
76.3791 783 27.9821
76.4952 815 28.5482
76.6113 781 27.9464
76.7276 775 27.8388
76.8438 824 28.7054
76.9601 872 29.5296
77.0765 978 31.273
77.1929 1109 33.3017
77.3093 1150 33.9116
77.4258 1133 33.6601
77.5423 1071 32.7261
77.6589 1196 34.5832
77.7755 1104 33.2265
77.8921 1037 32.2025
78.0088 934 30.5614
78.1256 903 30.05
78.2423 817 28.5832
78.3591 848 29.1204
78.4759 926 30.4302
78.5928 933 30.545
78.7097 1038 32.218
78.8266 1009 31.7648
78.9436 1096 33.1059
79.0606 1073 32.7567
79.1776 1145 33.8378
79.2946 1149 33.8969
79.4117 1129 33.6006
79.5288 1105 33.2415
79.6459 1095 33.0908
79.7631 1032 32.1248
79.8802 1049 32.3883
79.9974 1023 31.9844
80.1147 1015 31.8591
80.2319 842 29.0172
80.3491 807 28.4077
80.4664 860 29.3258
80.5837 829 28.7924
80.701 956 30.9192
80.8183 1098 33.1361
80.9357 1079 32.8481
81.053 1113 33.3617
81.1704 1078 32.8329
81.2877 1073 32.7567
81.4051 1117 33.4215
81.5225 1062 32.5883
81.6399 1014 31.8434
81.7573 942 30.692
81.8747 852 29.189
81.9922 779 27.9106
82.1096 819 28.6182
82.227 890 29.8329
82.3444 895 29.9166
82.4619 997 31.5753
82.5793 1019 31.9218
82.6967 1040 32.249
82.8142 1050 32.4037
82.9316 1076 32.8024
83.049 1122 33.4963
83.1664 1041 32.2645
83.2838 991 31.4802
83.4012 988 31.4325
83.5186 944 30.7246
83.636 932 30.5287
83.7534 898 29.9666
83.8708 877 29.6142
83.9881 727 26.9629
84.1055 759 27.55
84.2228 772 27.7849
84.3401 751 27.4044
84.4575 849 29.1376
84.5747 957 30.9354
84.692 960 30.9839
84.8093 967 31.0966
84.9265 979 31.289
85.0437 912 30.1993
85.1609 933 30.545
85.2781 804 28.3549
85.3952 776 27.8568
85.5123 694 26.3439
85.6294 730 27.0185
85.7465 778 27.8927
85.8636 781 27.9464
85.9806 817 28.5832
86.0976 898 29.9666
86.2145 875 29.5804
86.3315 869 29.4788
86.4484 936 30.5941
86.5652 943 30.7083
86.682 918 30.2985
86.7988 866 29.4279
86.9156 928 30.4631
87.0323 868 29.4618
87.149 845 29.0689
87.2657 844 29.0517
87.3823 768 27.7128
87.4988 651 25.5147
87.6154 553 23.516
87.7318 605 24.5967
87.8483 573 23.9374
87.9647 563 23.7276
88.081 595 24.3926
88.1973 615 24.7992
88.3136 626 25.02
88.4298 612 24.7386
88.546 570 23.8747
88.6621 534 23.1084
88.7781 458 21.4009
88.8942 0 1
89.0101 0 1
89.126 0 1
89.2419 0 1
89.3577 0 1
89.4734 0 1
89.5891 0 1
89.7047 0 1
89.8203 0 1
89.9358 0 1
92.3269 0 1
92.4424 0 1
92.558 0 1
92.6736 0 1
92.7893 0 1
92.905 0 1
93.0208 0 1
93.1366 0 1
93.2525 0 1
93.3685 0 1
93.4845 0 1
93.6005 510 22.5832
93.7167 583 24.1454
93.8328 610 24.6982
93.949 629 25.0799
94.0653 693 26.3249
94.1816 672 25.923
94.2979 668 25.8457
94.4143 656 25.6125
94.5307 615 24.7992
94.6472 639 25.2784
94.7637 691 26.2869
94.8803 587 24.2281
94.9969 668 25.8457
95.1135 646 25.4165
95.2302 720 26.8328
95.3469 735 27.1109
95.4637 745 27.2947
95.5805 797 28.2312
95.6973 778 27.8927
95.8142 792 28.1425
95.9311 761 27.5862
96.048 746 27.313
96.1649 731 27.037
96.2819 742 27.2397
96.3989 675 25.9808
96.516 673 25.9422
96.633 650 25.4951
96.7501 603 24.5561
96.8673 565 23.7697
96.9844 528 22.9783
97.1016 545 23.3452
97.2188 596 24.4131
97.336 631 25.1197
97.4532 712 26.6833
97.5704 761 27.5862
97.6877 776 27.8568
97.805 769 27.7308
97.9223 708 26.6083
98.0396 640 25.2982
98.1569 601 24.5153
98.2743 603 24.5561
98.3916 547 23.388
98.509 534 23.1084
98.6264 646 25.4165
98.7438 624 24.98
98.8612 589 24.2693
98.9786 705 26.5518
99.096 723 26.8887
99.2134 766 27.6767
99.3308 751 27.4044
99.4482 765 27.6586
99.5656 736 27.1293
99.6831 709 26.6271
99.8005 774 27.8209
99.9179 674 25.9615
100.035 688 26.2298
100.153 764 27.6405
100.27 657 25.632
100.388 584 24.1661
100.505 520 22.8035
100.622 582 24.1247
100.74 563 23.7276
100.857 635 25.1992
100.975 642 25.3377
101.092 758 27.5318
101.209 692 26.3059
101.327 765 27.6586
101.444 741 27.2213
101.561 664 25.7682
101.679 644 25.3772
101.796 635 25.1992
101.913 602 24.5357
102.03 582 24.1247
102.148 571 23.8956
102.265 629 25.0799
102.382 674 25.9615
102.499 659 25.671
102.616 748 27.3496
102.733 741 27.2213
102.851 760 27.5681
102.968 735 27.1109
103.085 779 27.9106
103.202 772 27.7849
103.319 798 28.2489
103.436 657 25.632
103.552 673 25.9422
103.669 685 26.1725
103.786 601 24.5153
103.903 545 23.3452
104.02 553 23.516
104.137 578 24.0416
104.253 605 24.5967
104.37 678 26.0384
104.487 729 27
104.603 722 26.8701
104.72 793 28.1603
104.836 678 26.0384
104.953 664 25.7682
105.069 622 24.9399
105.186 563 23.7276
105.302 516 22.7156
105.418 461 21.4709
105.535 452 21.2603
105.651 453 21.2838
105.767 482 21.9545
105.883 429 20.7123
105.999 413 20.3224
106.115 0 1
106.231 0 1
106.347 0 1
106.463 0 1
106.579 0 1
106.694 0 1
106.81 0 1
106.926 0 1
107.041 0 1
107.157 0 1
109.576 0 1
109.692 0 1
109.807 0 1
109.923 0 1
110.039 0 1
110.155 0 1
110.27 0 1
110.386 0 1
110.502 0 1
110.618 233 15.2643
110.735 330 18.1659
110.851 386 19.6469
110.967 443 21.0476
111.083 488 22.0907
111.199 512 22.6274
111.316 555 23.5584
111.432 597 24.4336
111.549 624 24.98
111.665 669 25.865
111.782 643 25.3574
111.898 634 25.1794
112.015 634 25.1794
112.132 544 23.3238
112.248 559 23.6432
112.365 529 23
112.482 490 22.1359
112.599 473 21.7486
112.716 505 22.4722
112.832 532 23.0651
112.949 604 24.5764
113.066 546 23.3666
113.183 615 24.7992
113.3 608 24.6577
113.417 612 24.7386
113.534 616 24.8193
113.652 596 24.4131
113.769 537 23.1733
113.886 523 22.8692
114.003 442 21.0238
114.12 457 21.3776
114.238 512 22.6274
114.355 492 22.1811
114.472 548 23.4094
114.589 636 25.219
114.707 623 24.96
114.824 576 24
114.942 646 25.4165
115.059 622 24.9399
115.176 650 25.4951
115.294 613 24.7588
115.411 583 24.1454
115.529 617 24.8395
115.646 535 23.1301
115.764 557 23.6008
115.881 486 22.0454
115.999 495 22.2486
116.116 494 22.2261
116.234 461 21.4709
116.351 461 21.4709
116.469 528 22.9783
116.586 586 24.2074
116.704 584 24.1661
116.821 576 24
116.939 647 25.4362
117.056 622 24.9399
117.174 584 24.1661
117.291 544 23.3238
117.409 535 23.1301
117.526 507 22.5167
117.644 473 21.7486
117.761 472 21.7256
117.879 465 21.5639
117.996 543 23.3024
118.114 566 23.7908
118.231 605 24.5967
118.349 629 25.0799
118.466 634 25.1794
118.584 618 24.8596
118.701 603 24.5561
118.819 599 24.4745
118.936 609 24.6779
119.053 644 25.3772
119.171 617 24.8395
119.288 544 23.3238
119.405 519 22.7816
119.523 478 21.8632
119.64 439 20.9523
119.757 430 20.7364
119.875 446 21.1187
119.992 450 21.2132
120.109 503 22.4277
120.226 513 22.6495
120.343 601 24.5153
120.46 565 23.7697
120.578 581 24.1039
120.695 532 23.0651
120.812 611 24.7184
120.929 557 23.6008
121.046 524 22.891
121.163 477 21.8403
121.279 447 21.1424
121.396 431 20.7605
121.513 466 21.587
121.63 492 22.1811
121.747 508 22.5389
121.863 469 21.6564
121.98 516 22.7156
122.097 541 23.2594
122.213 499 22.3383
122.33 477 21.8403
122.446 473 21.7486
122.563 450 21.2132
122.679 428 20.6882
122.795 374 19.3391
122.912 343 18.5203
123.028 295 17.1756
123.144 263 16.2173
123.26 231 15.1987
123.377 0 1
123.493 0 1
123.609 0 1
123.725 0 1
123.84 0 1
123.956 0 1
124.072 0 1
124.188 0 1
124.303 0 1
124.419 0 1
126.852 0 1
126.968 0 1
127.083 0 1
127.199 0 1
127.315 0 1
127.431 0 1
127.547 0 1
127.663 0 1
127.779 0 1
127.895 0 1
128.011 0 1
128.127 0 1
128.243 0 1
128.359 551 23.4734
128.476 558 23.622
128.592 554 23.5372
128.708 512 22.6274
128.825 537 23.1733
128.941 552 23.4947
129.058 548 23.4094
129.174 532 23.0651
129.291 541 23.2594
129.408 616 24.8193
129.524 629 25.0799
129.641 639 25.2784
129.758 621 24.9199
129.875 601 24.5153
129.992 586 24.2074
130.108 571 23.8956
130.225 525 22.9129
130.342 516 22.7156
130.459 472 21.7256
130.576 549 23.4307
130.693 570 23.8747
130.81 588 24.2487
130.928 605 24.5967
131.045 605 24.5967
131.162 635 25.1992
131.279 702 26.4953
131.396 664 25.7682
131.513 658 25.6515
131.631 616 24.8193
131.748 638 25.2587
131.865 604 24.5764
131.983 574 23.9583
132.1 554 23.5372
132.217 537 23.1733
132.335 539 23.2164
132.452 524 22.891
132.57 546 23.3666
132.687 535 23.1301
132.804 598 24.454
132.922 601 24.5153
133.039 658 25.6515
133.157 582 24.1247
133.274 597 24.4336
133.392 604 24.5764
133.509 600 24.4949
133.627 557 23.6008
133.744 537 23.1733
133.862 537 23.1733
133.979 516 22.7156
134.097 521 22.8254
134.214 549 23.4307
134.332 527 22.9565
134.449 592 24.3311
134.567 614 24.779
134.684 647 25.4362
134.802 646 25.4165
134.919 648 25.4558
135.037 636 25.219
135.154 619 24.8797
135.272 611 24.7184
135.389 553 23.516
135.507 609 24.6779
135.624 595 24.3926
135.742 521 22.8254
135.859 509 22.561
135.977 526 22.9347
136.094 556 23.5797
136.211 502 22.4054
136.329 574 23.9583
136.446 580 24.0832
136.564 625 25
136.681 601 24.5153
136.798 603 24.5561
136.915 631 25.1197
137.033 621 24.9199
137.15 611 24.7184
137.267 547 23.388
137.384 540 23.2379
137.502 497 22.2935
137.619 482 21.9545
137.736 545 23.3452
137.853 492 22.1811
137.97 577 24.0208
138.087 570 23.8747
138.204 596 24.4131
138.321 634 25.1794
138.438 596 24.4131
138.555 623 24.96
138.672 613 24.7588
138.788 572 23.9165
138.905 520 22.8035
139.022 534 23.1084
139.139 487 22.0681
139.255 459 21.4243
139.372 445 21.095
139.488 400 20
139.605 356 18.868
139.721 342 18.4932
139.838 357 18.8944
139.954 368 19.1833
140.071 367 19.1572
140.187 356 18.868
140.303 290 17.0294
140.419 289 17
140.535 268 16.3707
140.652 269 16.4012
140.768 0 1
140.884 0 1
141 0 1
141.115 0 1
141.231 0 1
141.347 0 1
141.463 0 1
141.578 0 1
141.694 0 1
144.104 0 1
144.219 0 1
144.335 0 1
144.45 0 1
144.566 0 1
144.682 0 1
144.798 0 1
144.914 0 1
145.03 0 1
145.146 376 19.3907
145.262 462 21.4942
145.378 435 20.8567
145.494 450 21.2132
145.61 460 21.4476
145.726 455 21.3307
145.842 443 21.0476
145.959 480 21.9089
146.075 445 21.095
146.192 405 20.1246
146.308 381 19.5192
146.425 392 19.799
146.541 400 20
146.658 427 20.664
146.774 450 21.2132
146.891 448 21.166
147.008 496 22.2711
147.125 454 21.3073
147.241 478 21.8632
147.358 483 21.9773
147.475 484 22
147.592 439 20.9523
147.709 444 21.0713
147.826 423 20.567
147.943 455 21.3307
148.06 446 21.1187
148.177 408 20.199
148.294 423 20.567
148.411 392 19.799
148.528 402 20.0499
148.645 385 19.6214
148.762 393 19.8242
148.88 447 21.1424
148.997 481 21.9317
149.114 445 21.095
149.231 478 21.8632
149.349 488 22.0907
149.466 438 20.9284
149.583 451 21.2368
149.701 440 20.9762
149.818 410 20.2485
149.935 427 20.664
150.053 432 20.7846
150.17 387 19.6723
150.287 425 20.6155
150.405 448 21.166
150.522 452 21.2603
150.64 415 20.3715
150.757 438 20.9284
150.875 444 21.0713
150.992 426 20.6398
151.11 468 21.6333
151.227 490 22.1359
151.344 443 21.0476
151.462 424 20.5913
151.579 428 20.6882
151.697 410 20.2485
151.814 439 20.9523
151.932 409 20.2237
152.049 406 20.1494
152.167 399 19.975
152.284 426 20.6398
152.402 428 20.6882
152.519 435 20.8567
152.636 499 22.3383
152.754 447 21.1424
152.871 457 21.3776
152.989 463 21.5174
153.106 482 21.9545
153.223 445 21.095
153.341 399 19.975
153.458 385 19.6214
153.575 393 19.8242
153.693 389 19.7231
153.81 408 20.199
153.927 450 21.2132
154.044 400 20
154.162 464 21.5407
154.279 404 20.0998
154.396 451 21.2368
154.513 432 20.7846
154.63 416 20.3961
154.747 448 21.166
154.864 466 21.587
154.981 467 21.6102
155.098 395 19.8746
155.215 401 20.025
155.332 383 19.5704
155.449 395 19.8746
155.566 403 20.0749
155.683 403 20.0749
155.8 398 19.9499
155.917 402 20.0499
156.033 394 19.8494
156.15 0 1
156.267 0 1
156.383 0 1
156.5 0 1
156.617 0 1
156.733 0 1
156.85 0 1
156.966 0 1
157.082 0 1
157.199 0 1
157.315 0 1
157.431 0 1
157.547 0 1
157.664 0 1
157.78 0 1
157.896 0 1
158.012 0 1
158.128 0 1
158.244 0 1
158.359 0 1
158.475 0 1
158.591 0 1
158.706 0 1
