
6.15755 0 1
6.2731 0 1
6.3887 0 1
6.50437 0 1
6.62009 0 1
6.73587 0 1
6.8517 0 1
6.96759 0 1
7.08353 0 1
7.19952 0 1
7.31557 0 1
7.43166 0 1
7.54781 0 1
7.664 0 1
7.78024 0 1
7.89653 0 1
8.01286 0 1
8.12924 0 1
8.24567 0 1
8.36213 0 1
8.47864 0 1
8.59519 0 1
8.71178 0 1
8.82841 0 1
8.94508 0 1
9.06179 0 1
9.17853 0 1
9.29531 0 1
9.41212 0 1
9.52897 0 1
9.64584 0 1
9.76276 0 1
9.8797 0 1
9.99667 0 1
10.1137 0 1
10.2307 0 1
10.3478 0 1
10.4648 0 1
10.5819 0 1
10.6991 0 1
10.8162 0 1
10.9334 0 1
11.0506 0 1
11.1678 0 1
11.285 0 1
11.4023 0 1
11.5196 0 1
11.6369 0 1
11.7542 0 1
11.8715 0 1
11.9888 0 1
12.1062 0 1
12.2235 0 1
12.3409 0 1
12.4582 0 1
12.5756 0 1
12.693 0 1
12.8104 0 1
12.9278 0 1
13.0452 0 1
13.1626 0 1
13.28 0 1
13.3974 0 1
13.5149 0 1
13.6323 0 1
13.7497 0 1
13.8671 0 1
13.9845 0 1
14.1019 0 1
14.2193 0 1
14.3367 0 1
14.4541 0 1
14.5714 0 1
14.6888 0 1
14.8062 0 1
14.9235 0 1
15.0408 0 0
15.1581 0 0
15.2755 0 0
15.3927 0 0
15.51 0 0
15.6273 0 0
15.7445 0 0
15.8617 0 0
15.9789 0 0
16.0961 0 0
16.2132 0 0
16.3304 0 0
16.4475 0 0
16.5646 0 0
16.6816 0 0
16.7986 0 0
16.9156 0 0
17.0326 0 0
17.1496 0 0
17.2665 0 0
17.3833 0 0
17.5002 0 0
17.617 0 0
17.7338 0 0
17.8505 0 0
17.9672 0 0
18.0839 0 0
18.2005 0 0
18.3171 0 0
18.4337 0 0
18.5502 0 0
18.6666 0 0
18.7831 0 0
18.8994 0 0
19.0158 0 0
19.1321 0 0
19.2483 0 0
19.3645 0 0
19.4806 0 0
19.5967 0 0
19.7128 0 0
19.8288 0 0
19.9447 0 0
20.0606 0 1
20.1764 0 1
20.2922 0 1
20.4079 0 1
20.5236 0 1
20.6392 0 1
20.7548 0 1
20.8702 0 1
23.3078 0 1
23.4233 0 1
23.539 0 1
23.6547 0 1
23.7704 0 1
23.8862 0 1
24.0021 0 1
24.118 0 1
24.234 0 1
24.35 0 1
24.4661 1361 36.8917
24.5822 1341 36.6197
24.6984 1237 35.171
24.8146 1272 35.6651
24.9309 1332 36.4966
25.0472 1224 34.9857
25.1636 1266 35.5809
25.28 1209 34.7707
25.3965 1240 35.2136
25.513 1332 36.4966
25.6296 1360 36.8782
25.7462 1447 38.0395
25.8628 1433 37.855
25.9795 1434 37.8682
26.0962 1503 38.7685
26.213 1544 39.2938
26.3298 1519 38.9744
26.4466 1471 38.3536
26.5635 1428 37.7889
26.6804 1328 36.4417
26.7973 1294 35.9722
26.9143 1397 37.3765
27.0313 1379 37.1349
27.1483 1481 38.4838
27.2653 1482 38.4968
27.3824 1481 38.4838
27.4996 1491 38.6135
27.6167 1553 39.4081
27.7339 1443 37.9868
27.8511 1521 39
27.9683 1451 38.092
28.0855 1418 37.6563
28.2028 1405 37.4833
28.3201 1287 35.8748
28.4374 1247 35.3129
28.5547 1257 35.4542
28.6721 1220 34.9285
28.7894 1193 34.5398
28.9068 1187 34.4529
29.0242 1214 34.8425
29.1416 1242 35.242
29.259 1275 35.7071
29.3764 1311 36.2077
29.4939 1404 37.47
29.6113 1413 37.5899
29.7288 1369 37
29.8463 1368 36.9865
29.9638 1366 36.9594
30.0812 1291 35.9305
30.1987 1246 35.2987
30.3162 1282 35.805
30.4337 1258 35.4683
30.5512 1300 36.0555
30.6687 1429 37.8021
30.7862 1420 37.6829
30.9037 1412 37.5766
31.0212 1416 37.6298
31.1387 1472 38.3667
31.2562 1510 38.8587
31.3737 1419 37.6696
31.4912 1411 37.5633
31.6087 1446 38.0263
31.7262 1266 35.5809
31.8436 1308 36.1663
31.9611 1303 36.0971
32.0785 1242 35.242
32.1959 1171 34.2199
32.3134 1212 34.8138
32.4308 1200 34.641
32.5482 1176 34.2929
32.6655 1185 34.4238
32.7829 1274 35.6931
32.9002 1325 36.4005
33.0176 1313 36.2353
33.1349 1377 37.108
33.2522 1357 36.8375
33.3694 1381 37.1618
33.4867 1343 36.647
33.6039 1341 36.6197
33.7211 1286 35.8608
33.8383 1211 34.7994
33.9554 1220 34.9285
34.0725 1282 35.805
34.1896 1299 36.0416
34.3067 1340 36.606
34.4237 1373 37.054
34.5407 1375 37.081
34.6577 1436 37.8946
34.7746 1496 38.6782
34.8915 1419 37.6696
35.0084 1386 37.229
35.1252 1428 37.7889
35.242 1352 36.7696
35.3587 1296 36
35.4755 1279 35.7631
35.5921 1210 34.7851
35.7088 1245 35.2846
35.8254 1094 33.0757
35.9419 1174 34.2637
36.0584 1159 34.0441
36.1749 1155 33.9853
36.2913 1116 33.4066
36.4077 1180 34.3511
36.524 1248 35.327
36.6403 1287 35.8748
36.7565 1310 36.1939
36.8727 1322 36.3593
36.9889 1344 36.6606
37.1049 1293 35.9583
37.221 0 1
37.3369 0 1
37.4529 0 1
37.5687 0 1
37.6845 0 1
37.8003 0 1
37.916 0 1
38.0316 0 1
38.1472 0 1
40.5851 0 1
40.7008 0 1
40.8164 0 1
40.9322 0 1
41.048 0 1
41.1639 0 1
41.2798 0 1
41.3958 0 1
41.5118 0 1
41.6279 0 1
41.744 976 31.241
41.8602 1042 32.28
41.9765 1110 33.3167
42.0928 1089 33
42.2091 1098 33.1361
42.3255 1140 33.7639
42.4419 1089 33
42.5584 997 31.5753
42.675 997 31.5753
42.7915 1009 31.7648
42.9081 962 31.0161
43.0248 987 31.4166
43.1415 1025 32.0156
43.2582 1014 31.8434
43.375 1093 33.0606
43.4918 1063 32.6037
43.6087 1113 33.3617
43.7256 1041 32.2645
43.8425 1074 32.7719
43.9595 1024 32
44.0765 1010 31.7805
44.1935 958 30.9516
44.3106 955 30.9031
44.4277 923 30.3809
44.5448 834 28.8791
44.6619 810 28.4605
44.7791 768 27.7128
44.8963 732 27.0555
45.0136 739 27.1846
45.1308 745 27.2947
45.2481 804 28.3549
45.3654 797 28.2312
45.4827 781 27.9464
45.6001 801 28.3019
45.7174 880 29.6648
45.8348 842 29.0172
45.9522 834 28.8791
46.0697 719 26.8142
46.1871 719 26.8142
46.3046 711 26.6646
46.422 666 25.807
46.5395 729 27
46.657 750 27.3861
46.7745 802 28.3196
46.892 792 28.1425
47.0096 789 28.0891
47.1271 853 29.2062
47.2446 804 28.3549
47.3622 816 28.5657
47.4797 789 28.0891
47.5973 772 27.7849
47.7149 785 28.0179
47.8324 696 26.3818
47.95 654 25.5734
48.0675 653 25.5539
48.1851 584 24.1661
48.3027 582 24.1247
48.4202 572 23.9165
48.5378 558 23.622
48.6554 559 23.6432
48.7729 633 25.1595
48.8904 624 24.98
49.008 674 25.9615
49.1255 630 25.0998
49.243 655 25.593
49.3605 680 26.0768
49.478 635 25.1992
49.5955 567 23.8118
49.713 586 24.2074
49.8304 539 23.2164
49.9479 550 23.4521
50.0653 647 25.4362
50.1827 656 25.6125
50.3001 710 26.6458
50.4175 775 27.8388
50.5348 749 27.3679
50.6521 803 28.3373
50.7694 778 27.8927
50.8867 795 28.1957
51.004 863 29.3769
51.1212 871 29.5127
51.2384 822 28.6705
51.3556 869 29.4788
51.4727 809 28.4429
51.5899 780 27.9285
51.707 741 27.2213
51.824 759 27.55
51.9411 707 26.5895
52.0581 781 27.9464
52.175 828 28.775
52.2919 880 29.6648
52.4088 915 30.249
52.5257 977 31.257
52.6425 992 31.496
52.7593 1024 32
52.876 1057 32.5115
52.9927 1103 33.2114
53.1094 1014 31.8434
53.226 990 31.4643
53.3426 908 30.133
53.4591 942 30.692
53.5756 967 31.0966
53.692 1021 31.9531
53.8084 1105 33.2415
53.9248 1155 33.9853
54.0411 1218 34.8999
54.1573 1193 34.5398
54.2735 0 1
54.3896 0 1
54.5057 0 1
54.6217 0 1
54.7377 0 1
54.8537 0 1
54.9695 0 1
55.0853 0 1
55.2011 0 1
55.3168 0 1
55.4324 0 1
57.824 0 1
57.9396 0 1
58.0553 0 1
58.1711 0 1
58.2869 0 1
58.4028 0 1
58.5187 0 1
58.6347 0 1
58.7508 0 1
58.8669 0 1
58.983 1352 36.7696
59.0992 1395 37.3497
59.2155 1481 38.4838
59.3318 1620 40.2492
59.4482 1543 39.281
59.5646 1545 39.3065
59.681 1525 39.0512
59.7975 1553 39.4081
59.9141 1556 39.4462
60.0306 1490 38.6005
60.1473 1403 37.4566
60.2639 1302 36.0832
60.3807 1200 34.641
60.4974 1225 35
60.6142 1193 34.5398
60.731 1138 33.7343
60.8479 1143 33.8083
60.9648 1294 35.9722
61.0818 1294 35.9722
61.1987 1266 35.5809
61.3158 1320 36.3318
61.4328 1333 36.5103
61.5499 1279 35.7631
61.667 1175 34.2783
61.7841 1173 34.2491
61.9013 1098 33.1361
62.0185 1105 33.2415
62.1357 1197 34.5977
62.253 1200 34.641
62.3702 1303 36.0971
62.4875 1342 36.6333
62.6049 1365 36.9459
62.7222 1433 37.855
62.8396 1430 37.8153
62.9569 1433 37.855
63.0743 1425 37.7492
63.1918 1430 37.8153
63.3092 1412 37.5766
63.4267 1313 36.2353
63.5441 1343 36.647
63.6616 1281 35.7911
63.7791 1166 34.1467
63.8966 1102 33.1964
64.0142 999 31.607
64.1317 1012 31.8119
64.2492 1050 32.4037
64.3668 1071 32.7261
64.4843 1128 33.5857
64.6019 1192 34.5254
64.7195 1247 35.3129
64.837 1277 35.7351
64.9546 1213 34.8281
65.0722 1114 33.3766
65.1898 1077 32.8177
65.3074 1041 32.2645
65.4249 1016 31.8748
65.5425 911 30.1828
65.6601 951 30.8383
65.7777 1064 32.619
65.8952 1101 33.1813
66.0128 1182 34.3802
66.1304 1228 35.0428
66.2479 1281 35.7911
66.3655 1342 36.6333
66.483 1291 35.9305
66.6005 1354 36.7967
66.718 1249 35.3412
66.8355 1292 35.9444
66.953 1282 35.805
67.0705 1246 35.2987
67.1879 1207 34.7419
67.3054 1137 33.7194
67.4228 1033 32.1403
67.5402 970 31.1448
67.6576 915 30.249
67.7749 929 30.4795
67.8923 987 31.4166
68.0096 951 30.8383
68.1269 1074 32.7719
68.2442 1139 33.7491
68.3614 1201 34.6554
68.4787 1134 33.6749
68.5958 1153 33.9559
68.713 1161 34.0735
68.8302 1139 33.7491
68.9473 1001 31.6386
69.0643 975 31.225
69.1814 861 29.3428
69.2984 908 30.133
69.4154 1091 33.0303
69.5323 1149 33.8969
69.6492 1277 35.7351
69.7661 1167 34.1614
69.8829 1339 36.5923
69.9997 1341 36.6197
70.1165 1353 36.7831
70.2332 1304 36.1109
70.3499 1351 36.756
70.4665 1352 36.7696
70.5831 1374 37.0675
70.6996 1270 35.6371
70.8161 1265 35.5668
70.9326 1216 34.8712
71.049 1113 33.3617
71.1653 1034 32.1559
71.2817 1048 32.3728
71.3979 922 30.3645
71.5141 898 29.9666
71.6303 990 31.4643
71.7464 929 30.4795
71.8624 0 1
71.9784 0 1
72.0944 0 1
72.2102 0 1
72.3261 0 1
72.4418 0 1
72.5575 0 1
72.6732 0 1
75.1054 0 1
75.2209 0 1
75.3365 0 1
75.4521 0 1
75.5678 0 1
75.6835 0 1
75.7993 0 1
75.9151 0 1
76.031 0 1
76.147 1135 33.6898
76.263 1199 34.6266
76.3791 1193 34.5398
76.4952 989 31.4484
76.6113 1043 32.2955
76.7276 948 30.7896
76.8438 993 31.5119
76.9601 1088 32.9848
77.0765 1093 33.0606
77.1929 1168 34.176
77.3093 1290 35.9166
77.4258 1264 35.5528
77.5423 1247 35.3129
77.6589 1283 35.819
77.7755 1099 33.1512
77.8921 1048 32.3728
78.0088 949 30.8058
78.1256 880 29.6648
78.2423 958 30.9516
78.3591 949 30.8058
78.4759 1067 32.665
78.5928 1169 34.1906
78.7097 1187 34.4529
78.8266 1245 35.2846
78.9436 1381 37.1618
79.0606 1355 36.8103
79.1776 1374 37.0675
79.2946 1412 37.5766
79.4117 1319 36.318
79.5288 1283 35.819
79.6459 1290 35.9166
79.7631 1283 35.819
79.8802 1228 35.0428
79.9974 1104 33.2265
80.1147 1019 31.9218
80.2319 951 30.8383
80.3491 919 30.315
80.4664 976 31.241
80.5837 1002 31.6544
80.701 1046 32.3419
80.8183 1074 32.7719
80.9357 1036 32.187
81.053 1179 34.3366
81.1704 1153 33.9559
81.2877 1039 32.2335
81.4051 1023 31.9844
81.5225 929 30.4795
81.6399 887 29.7825
81.7573 843 29.0345
81.8747 813 28.5132
81.9922 878 29.6311
82.1096 898 29.9666
82.227 1064 32.619
82.3444 1089 33
82.4619 1081 32.8786
82.5793 1130 33.6155
82.6967 1174 34.2637
82.8142 1173 34.2491
82.9316 1235 35.1426
83.049 1242 35.242
83.1664 1086 32.9545
83.2838 1094 33.0757
83.4012 1077 32.8177
83.5186 976 31.241
83.636 985 31.3847
83.7534 868 29.4618
83.8708 823 28.688
83.9881 811 28.4781
84.1055 791 28.1247
84.2228 825 28.7228
84.3401 940 30.6594
84.4575 914 30.2324
84.5747 1079 32.8481
84.692 1065 32.6343
84.8093 1099 33.1512
84.9265 1011 31.7962
85.0437 859 29.3087
85.1609 903 30.05
85.2781 793 28.1603
85.3952 810 28.4605
85.5123 817 28.5832
85.6294 838 28.9482
85.7465 991 31.4802
85.8636 1045 32.3265
85.9806 1148 33.8821
86.0976 1254 35.4119
86.2145 1217 34.8855
86.3315 1320 36.3318
86.4484 1325 36.4005
86.5652 1303 36.0971
86.682 1350 36.7423
86.7988 1259 35.4824
86.9156 1292 35.9444
87.0323 1209 34.7707
87.149 1134 33.6749
87.2657 1067 32.665
87.3823 1012 31.8119
87.4988 950 30.8221
87.6154 948 30.7896
87.7318 1073 32.7567
87.8483 1121 33.4813
87.9647 1191 34.5109
88.081 1309 36.1801
88.1973 1316 36.2767
88.3136 1343 36.647
88.4298 1233 35.1141
88.546 1168 34.176
88.6621 1132 33.6452
88.7781 967 31.0966
88.8942 0 1
89.0101 0 1
89.126 0 1
89.2419 0 1
89.3577 0 1
89.4734 0 1
89.5891 0 1
89.7047 0 1
89.8203 0 1
89.9358 0 1
92.3269 0 1
92.4424 0 1
92.558 0 1
92.6736 0 1
92.7893 0 1
92.905 0 1
93.0208 0 1
93.1366 0 1
93.2525 0 1
93.3685 0 1
93.4845 0 1
93.6005 1242 35.242
93.7167 1301 36.0694
93.8328 1265 35.5668
93.949 1192 34.5254
94.0653 1089 33
94.1816 1079 32.8481
94.2979 1004 31.686
94.4143 984 31.3688
94.5307 924 30.3974
94.6472 1021 31.9531
94.7637 1066 32.6497
94.8803 1143 33.8083
94.9969 1264 35.5528
95.1135 1319 36.318
95.2302 1417 37.6431
95.3469 1437 37.9078
95.4637 1428 37.7889
95.5805 1475 38.4057
95.6973 1454 38.1314
95.8142 1453 38.1182
95.9311 1439 37.9342
96.048 1342 36.6333
96.1649 1301 36.0694
96.2819 1321 36.3456
96.3989 1137 33.7194
96.516 1188 34.4674
96.633 1102 33.1964
96.7501 1037 32.2025
96.8673 1060 32.5576
96.9844 1140 33.7639
97.1016 1163 34.1028
97.2188 1223 34.9714
97.336 1308 36.1663
97.4532 1313 36.2353
97.5704 1196 34.5832
97.6877 1191 34.5109
97.805 1135 33.6898
97.9223 965 31.0644
98.0396 986 31.4006
98.1569 973 31.1929
98.2743 873 29.5466
98.3916 1020 31.9374
98.509 1139 33.7491
98.6264 1210 34.7851
98.7438 1275 35.7071
98.8612 1407 37.51
98.9786 1433 37.855
99.096 1512 38.8844
99.2134 1476 38.4187
99.3308 1422 37.7094
99.4482 1373 37.054
99.5656 1424 37.7359
99.6831 1335 36.5377
99.8005 1320 36.3318
99.9179 1295 35.9861
100.035 1157 34.0147
100.153 1141 33.7787
100.27 1075 32.7872
100.388 1136 33.7046
100.505 1193 34.5398
100.622 1185 34.4238
100.74 1222 34.9571
100.857 1316 36.2767
100.975 1294 35.9722
101.092 1304 36.1109
101.209 1256 35.4401
101.327 1131 33.6303
101.444 1116 33.4066
101.561 1004 31.686
101.679 977 31.257
101.796 919 30.315
101.913 1071 32.7261
102.03 1164 34.1174
102.148 1211 34.7994
102.265 1303 36.0971
102.382 1506 38.8072
102.499 1431 37.8286
102.616 1503 38.7685
102.733 1460 38.2099
102.851 1584 39.7995
102.968 1482 38.4968
103.085 1499 38.7169
103.202 1425 37.7492
103.319 1437 37.9078
103.436 1395 37.3497
103.552 1268 35.609
103.669 1232 35.0999
103.786 1121 33.4813
103.903 1193 34.5398
104.02 1215 34.8569
104.137 1325 36.4005
104.253 1352 36.7696
104.37 1325 36.4005
104.487 1450 38.0789
104.603 1380 37.1484
104.72 1308 36.1663
104.836 1212 34.8138
104.953 1143 33.8083
105.069 1066 32.6497
105.186 1018 31.9061
105.302 1035 32.1714
105.418 1104 33.2265
105.535 1258 35.4683
105.651 1374 37.0675
105.767 1474 38.3927
105.883 1617 40.2119
105.999 1724 41.5211
106.115 0 1
106.231 0 1
106.347 0 1
106.463 0 1
106.579 0 1
106.694 0 1
106.81 0 1
106.926 0 1
107.041 0 1
107.157 0 1
109.576 0 1
109.692 0 1
109.807 0 1
109.923 0 1
110.039 0 1
110.155 0 1
110.27 0 1
110.386 0 1
110.502 0 1
110.618 1235 35.1426
110.735 1391 37.2961
110.851 1507 38.8201
110.967 1580 39.7492
111.083 1612 40.1497
111.199 1619 40.2368
111.316 1683 41.0244
111.432 1652 40.6448
111.549 1632 40.398
111.665 1651 40.6325
111.782 1491 38.6135
111.898 1491 38.6135
112.015 1413 37.5899
112.132 1365 36.9459
112.248 1246 35.2987
112.365 1261 35.5106
112.482 1247 35.3129
112.599 1374 37.0675
112.716 1351 36.756
112.832 1361 36.8917
112.949 1384 37.2022
113.066 1374 37.0675
113.183 1285 35.8469
113.3 1245 35.2846
113.417 1156 34
113.534 1111 33.3317
113.652 1035 32.1714
113.769 1016 31.8748
113.886 974 31.209
114.003 1095 33.0908
114.12 1165 34.1321
114.238 1323 36.3731
114.355 1465 38.2753
114.472 1508 38.833
114.589 1500 38.7298
114.707 1447 38.0395
114.824 1607 40.0874
114.942 1589 39.8623
115.059 1610 40.1248
115.176 1539 39.2301
115.294 1515 38.923
115.411 1447 38.0395
115.529 1422 37.7094
115.646 1364 36.9324
115.764 1397 37.3765
115.881 1297 36.0139
115.999 1238 35.1852
116.116 1259 35.4824
116.234 1370 37.0135
116.351 1358 36.8511
116.469 1419 37.6696
116.586 1388 37.2559
116.704 1436 37.8946
116.821 1347 36.7015
116.939 1260 35.4965
117.056 1264 35.5528
117.174 1053 32.45
117.291 1056 32.4962
117.409 1041 32.2645
117.526 1145 33.8378
117.644 1195 34.5688
117.761 1412 37.5766
117.879 1455 38.1445
117.996 1456 38.1576
118.114 1572 39.6485
118.231 1562 39.5221
118.349 1469 38.3275
118.466 1638 40.4722
118.584 1569 39.6106
118.701 1612 40.1497
118.819 1546 39.3192
118.936 1544 39.2938
119.053 1524 39.0384
119.171 1479 38.4578
119.288 1431 37.8286
119.405 1378 37.1214
119.523 1261 35.5106
119.64 1260 35.4965
119.757 1362 36.9053
119.875 1384 37.2022
119.992 1341 36.6197
120.109 1438 37.921
120.226 1427 37.7757
120.343 1306 36.1386
120.46 1333 36.5103
120.578 1237 35.171
120.695 1181 34.3657
120.812 1132 33.6452
120.929 1124 33.5261
121.046 1108 33.2866
121.163 1069 32.6956
121.279 1166 34.1467
121.396 1251 35.3695
121.513 1430 37.8153
121.63 1493 38.6394
121.747 1540 39.2428
121.863 1576 39.6989
121.98 1553 39.4081
122.097 1554 39.4208
122.213 1608 40.0999
122.33 1574 39.6737
122.446 1488 38.5746
122.563 1487 38.5616
122.679 1451 38.092
122.795 1393 37.3229
122.912 1441 37.9605
123.028 1369 37
123.144 1329 36.4555
123.26 1328 36.4417
123.377 0 1
123.493 0 1
123.609 0 1
123.725 0 1
123.84 0 1
123.956 0 1
124.072 0 1
124.188 0 1
124.303 0 1
124.419 0 1
126.852 0 1
126.968 0 1
127.083 0 1
127.199 0 1
127.315 0 1
127.431 0 1
127.547 0 1
127.663 0 1
127.779 0 1
127.895 0 1
128.011 0 1
128.127 0 1
128.243 0 1
128.359 1420 37.6829
128.476 1384 37.2022
128.592 1440 37.9473
128.708 1414 37.6032
128.825 1529 39.1024
128.941 1456 38.1576
129.058 1543 39.281
129.174 1525 39.0512
129.291 1542 39.2683
129.408 1482 38.4968
129.524 1342 36.6333
129.641 1296 36
129.758 1321 36.3456
129.875 1169 34.1906
129.992 1157 34.0147
130.108 1206 34.7275
130.225 1260 35.4965
130.342 1396 37.3631
130.459 1441 37.9605
130.576 1655 40.6817
130.693 1627 40.3361
130.81 1654 40.6694
130.928 1635 40.4351
131.045 1616 40.1995
131.162 1683 41.0244
131.279 1740 41.7133
131.396 1749 41.821
131.513 1650 40.6202
131.631 1607 40.0874
131.748 1611 40.1373
131.865 1573 39.6611
131.983 1442 37.9737
132.1 1502 38.7556
132.217 1504 38.7814
132.335 1510 38.8587
132.452 1534 39.1663
132.57 1534 39.1663
132.687 1515 38.923
132.804 1496 38.6782
132.922 1473 38.3797
133.039 1440 37.9473
133.157 1357 36.8375
133.274 1290 35.9166
133.392 1266 35.5809
133.509 1245 35.2846
133.627 1255 35.426
133.744 1355 36.8103
133.862 1449 38.0657
133.979 1563 39.5348
134.097 1629 40.3609
134.214 1542 39.2683
134.332 1716 41.4246
134.449 1660 40.7431
134.567 1673 40.9023
134.684 1653 40.6571
134.802 1795 42.3674
134.919 1742 41.7373
135.037 1672 40.8901
135.154 1705 41.2916
135.272 1588 39.8497
135.389 1590 39.8748
135.507 1486 38.5487
135.624 1602 40.025
135.742 1578 39.724
135.859 1612 40.1497
135.977 1599 39.9875
136.094 1600 40
136.211 1615 40.1871
136.329 1584 39.7995
136.446 1578 39.724
136.564 1505 38.7943
136.681 1443 37.9868
136.798 1432 37.8418
136.915 1277 35.7351
137.033 1203 34.6843
137.15 1372 37.0405
137.267 1233 35.1141
137.384 1339 36.5923
137.502 1434 37.8682
137.619 1480 38.4708
137.736 1629 40.3609
137.853 1553 39.4081
137.97 1617 40.2119
138.087 1600 40
138.204 1716 41.4246
138.321 1707 41.3159
138.438 1653 40.6571
138.555 1712 41.3763
138.672 1640 40.4969
138.788 1666 40.8167
138.905 1626 40.3237
139.022 1556 39.4462
139.139 1598 39.975
139.255 1586 39.8246
139.372 1588 39.8497
139.488 1482 38.4968
139.605 1593 39.9124
139.721 1538 39.2173
139.838 1619 40.2368
139.954 1589 39.8623
140.071 1464 38.2623
140.187 1537 39.2046
140.303 1559 39.4842
140.419 1366 36.9594
140.535 1332 36.4966
140.652 1264 35.5528
140.768 0 1
140.884 0 1
141 0 1
141.115 0 1
141.231 0 1
141.347 0 1
141.463 0 1
141.578 0 1
141.694 0 1
144.104 0 1
144.219 0 1
144.335 0 1
144.45 0 1
144.566 0 1
144.682 0 1
144.798 0 1
144.914 0 1
145.03 0 1
145.146 1078 32.8329
145.262 1166 34.1467
145.378 1209 34.7707
145.494 1160 34.0588
145.61 1109 33.3017
145.726 1073 32.7567
145.842 1044 32.311
145.959 1012 31.8119
146.075 1025 32.0156
146.192 1085 32.9393
146.308 1164 34.1174
146.425 1185 34.4238
146.541 1280 35.7771
146.658 1246 35.2987
146.774 1345 36.6742
146.891 1246 35.2987
147.008 1296 36
147.125 1319 36.318
147.241 1449 38.0657
147.358 1346 36.6879
147.475 1355 36.8103
147.592 1455 38.1445
147.709 1322 36.3593
147.826 1267 35.5949
147.943 1256 35.4401
148.06 1293 35.9583
148.177 1313 36.2353
148.294 1269 35.623
148.411 1329 36.4555
148.528 1233 35.1141
148.645 1345 36.6742
148.762 1342 36.6333
148.88 1335 36.5377
148.997 1295 35.9861
149.114 1293 35.9583
149.231 1285 35.8469
149.349 1244 35.2704
149.466 1173 34.2491
149.583 1117 33.4215
149.701 1056 32.4962
149.818 1068 32.6803
149.935 1102 33.1964
150.053 1111 33.3317
150.17 1225 35
150.287 1195 34.5688
150.405 1244 35.2704
150.522 1282 35.805
150.64 1311 36.2077
150.757 1414 37.6032
150.875 1368 36.9865
150.992 1379 37.1349
151.11 1434 37.8682
151.227 1382 37.1753
151.344 1357 36.8375
151.462 1376 37.0945
151.579 1388 37.2559
151.697 1309 36.1801
151.814 1278 35.7491
151.932 1326 36.4143
152.049 1359 36.8646
152.167 1327 36.428
152.284 1314 36.2491
152.402 1299 36.0416
152.519 1312 36.2215
152.636 1305 36.1248
152.754 1264 35.5528
152.871 1224 34.9857
152.989 1190 34.4964
153.106 1224 34.9857
153.223 1183 34.3948
153.341 1168 34.176
153.458 1119 33.4515
153.575 1129 33.6006
153.693 1180 34.3511
153.81 1145 33.8378
153.927 1257 35.4542
154.044 1307 36.1525
154.162 1312 36.2215
154.279 1351 36.756
154.396 1432 37.8418
154.513 1396 37.3631
154.63 1431 37.8286
154.747 1483 38.5097
154.864 1513 38.8973
154.981 1479 38.4578
155.098 1446 38.0263
155.215 1429 37.8021
155.332 1405 37.4833
155.449 1404 37.47
155.566 1391 37.2961
155.683 1392 37.3095
155.8 1521 39
155.917 1444 38
156.033 1408 37.5233
156.15 0 1
156.267 0 1
156.383 0 1
156.5 0 1
156.617 0 1
156.733 0 1
156.85 0 1
156.966 0 1
157.082 0 1
157.199 0 1
157.315 0 1
157.431 0 1
157.547 0 1
157.664 0 1
157.78 0 1
157.896 0 1
158.012 0 1
158.128 0 1
158.244 0 1
158.359 0 1
158.475 0 1
158.591 0 1
158.706 0 1
