
6.15755 0 1
6.2731 0 1
6.3887 0 1
6.50437 0 1
6.62009 0 1
6.73587 0 1
6.8517 0 1
6.96759 0 1
7.08353 0 1
7.19952 0 1
7.31557 0 1
7.43166 0 1
7.54781 0 1
7.664 0 1
7.78024 0 1
7.89653 0 1
8.01286 0 1
8.12924 0 1
8.24567 0 1
8.36213 0 1
8.47864 0 1
8.59519 0 1
8.71178 0 1
8.82841 0 1
8.94508 0 1
9.06179 0 1
9.17853 0 1
9.29531 0 1
9.41212 0 1
9.52897 0 1
9.64584 0 1
9.76276 0 1
9.8797 0 1
9.99667 0 1
10.1137 0 1
10.2307 0 1
10.3478 0 1
10.4648 0 1
10.5819 0 1
10.6991 0 1
10.8162 0 1
10.9334 0 1
11.0506 0 1
11.1678 0 1
11.285 0 1
11.4023 0 1
11.5196 0 1
11.6369 0 1
11.7542 0 1
11.8715 0 1
11.9888 0 1
12.1062 0 1
12.2235 0 1
12.3409 0 1
12.4582 0 1
12.5756 0 1
12.693 0 1
12.8104 0 1
12.9278 0 1
13.0452 0 1
13.1626 0 1
13.28 0 1
13.3974 0 1
13.5149 0 1
13.6323 0 1
13.7497 0 1
13.8671 0 1
13.9845 0 1
14.1019 0 1
14.2193 0 1
14.3367 0 1
14.4541 0 1
14.5714 0 1
14.6888 0 1
14.8062 0 1
14.9235 0 1
15.0408 0 0
15.1581 0 0
15.2755 0 0
15.3927 0 0
15.51 0 0
15.6273 0 0
15.7445 0 0
15.8617 0 0
15.9789 0 0
16.0961 0 0
16.2132 0 0
16.3304 0 0
16.4475 0 0
16.5646 0 0
16.6816 0 0
16.7986 0 0
16.9156 0 0
17.0326 0 0
17.1496 0 0
17.2665 0 0
17.3833 0 0
17.5002 0 0
17.617 0 0
17.7338 0 0
17.8505 0 0
17.9672 0 0
18.0839 0 0
18.2005 0 0
18.3171 0 0
18.4337 0 0
18.5502 0 0
18.6666 0 0
18.7831 0 0
18.8994 0 0
19.0158 0 0
19.1321 0 0
19.2483 0 0
19.3645 0 0
19.4806 0 0
19.5967 0 0
19.7128 0 0
19.8288 0 0
19.9447 0 0
20.0606 0 1
20.1764 0 1
20.2922 0 1
20.4079 0 1
20.5236 0 1
20.6392 0 1
20.7548 0 1
20.8702 0 1
23.3078 0 1
23.4233 0 1
23.539 0 1
23.6547 0 1
23.7704 0 1
23.8862 0 1
24.0021 0 1
24.118 0 1
24.234 0 1
24.35 0 1
24.4661 1655 40.6817
24.5822 1522 39.0128
24.6984 1612 40.1497
24.8146 1648 40.5956
24.9309 1692 41.1339
25.0472 1592 39.8999
25.1636 1610 40.1248
25.28 1702 41.2553
25.3965 1734 41.6413
25.513 1692 41.1339
25.6296 1787 42.2729
25.7462 1693 41.1461
25.8628 1733 41.6293
25.9795 1688 41.0853
26.0962 1724 41.5211
26.213 1781 42.2019
26.3298 1729 41.5812
26.4466 1599 39.9875
26.5635 1565 39.5601
26.6804 1452 38.1051
26.7973 1369 37
26.9143 1399 37.4032
27.0313 1414 37.6032
27.1483 1624 40.2989
27.2653 1609 40.1123
27.3824 1687 41.0731
27.4996 1711 41.3642
27.6167 1712 41.3763
27.7339 1708 41.328
27.8511 1632 40.398
27.9683 1597 39.9625
28.0855 1608 40.0999
28.2028 1577 39.7115
28.3201 1614 40.1746
28.4374 1650 40.6202
28.5547 1598 39.975
28.6721 1648 40.5956
28.7894 1605 40.0625
28.9068 1623 40.2865
29.0242 1618 40.2244
29.1416 1616 40.1995
29.259 1763 41.9881
29.3764 1595 39.9375
29.4939 1621 40.2616
29.6113 1620 40.2492
29.7288 1629 40.3609
29.8463 1625 40.3113
29.9638 1518 38.9615
30.0812 1444 38
30.1987 1301 36.0694
30.3162 1275 35.7071
30.4337 1309 36.1801
30.5512 1452 38.1051
30.6687 1447 38.0395
30.7862 1565 39.5601
30.9037 1620 40.2492
31.0212 1684 41.0366
31.1387 1695 41.1704
31.2562 1658 40.7185
31.3737 1683 41.0244
31.4912 1711 41.3642
31.6087 1585 39.8121
31.7262 1572 39.6485
31.8436 1641 40.5093
31.9611 1614 40.1746
32.0785 1592 39.8999
32.1959 1622 40.2741
32.3134 1608 40.0999
32.4308 1668 40.8412
32.5482 1604 40.05
32.6655 1688 41.0853
32.7829 1631 40.3856
32.9002 1677 40.9512
33.0176 1651 40.6325
33.1349 1610 40.1248
33.2522 1702 41.2553
33.3694 1681 41
33.4867 1658 40.7185
33.6039 1551 39.3827
33.7211 1520 38.9872
33.8383 1367 36.973
33.9554 1287 35.8748
34.0725 1336 36.5513
34.1896 1411 37.5633
34.3067 1487 38.5616
34.4237 1595 39.9375
34.5407 1606 40.0749
34.6577 1670 40.8656
34.7746 1660 40.7431
34.8915 1734 41.6413
35.0084 1607 40.0874
35.1252 1634 40.4228
35.242 1626 40.3237
35.3587 1606 40.0749
35.4755 1561 39.5095
35.5921 1635 40.4351
35.7088 1673 40.9023
35.8254 1707 41.3159
35.9419 1656 40.694
36.0584 1609 40.1123
36.1749 1620 40.2492
36.2913 1659 40.7308
36.4077 1672 40.8901
36.524 1690 41.1096
36.6403 1688 41.0853
36.7565 1609 40.1123
36.8727 1645 40.5586
36.9889 1660 40.7431
37.1049 1625 40.3113
37.221 0 1
37.3369 0 1
37.4529 0 1
37.5687 0 1
37.6845 0 1
37.8003 0 1
37.916 0 1
38.0316 0 1
38.1472 0 1
40.5851 0 1
40.7008 0 1
40.8164 0 1
40.9322 0 1
41.048 0 1
41.1639 0 1
41.2798 0 1
41.3958 0 1
41.5118 0 1
41.6279 0 1
41.744 1452 38.1051
41.8602 1465 38.2753
41.9765 1435 37.8814
42.0928 1498 38.704
42.2091 1489 38.5876
42.3255 1445 38.0132
42.4419 1370 37.0135
42.5584 1259 35.4824
42.675 1166 34.1467
42.7915 1080 32.8634
42.9081 1128 33.5857
43.0248 1297 36.0139
43.1415 1366 36.9594
43.2582 1420 37.6829
43.375 1401 37.4299
43.4918 1436 37.8946
43.6087 1387 37.2424
43.7256 1391 37.2961
43.8425 1413 37.5899
43.9595 1430 37.8153
44.0765 1377 37.108
44.1935 1289 35.9026
44.3106 1335 36.5377
44.4277 1255 35.426
44.5448 1350 36.7423
44.6619 1279 35.7631
44.7791 1288 35.8887
44.8963 1290 35.9166
45.0136 1297 36.0139
45.1308 1335 36.5377
45.2481 1324 36.3868
45.3654 1311 36.2077
45.4827 1236 35.1568
45.6001 1350 36.7423
45.7174 1307 36.1525
45.8348 1311 36.2077
45.9522 1248 35.327
46.0697 1173 34.2491
46.1871 1055 32.4808
46.3046 1013 31.8277
46.422 956 30.9192
46.5395 1026 32.0312
46.657 1089 33
46.7745 1171 34.2199
46.892 1169 34.1906
47.0096 1258 35.4683
47.1271 1244 35.2704
47.2446 1258 35.4683
47.3622 1181 34.3657
47.4797 1169 34.1906
47.5973 1156 34
47.7149 1109 33.3017
47.8324 1055 32.4808
47.95 1013 31.8277
48.0675 1067 32.665
48.1851 1074 32.7719
48.3027 1005 31.7017
48.4202 1079 32.8481
48.5378 1120 33.4664
48.6554 1121 33.4813
48.7729 1120 33.4664
48.8904 1146 33.8526
49.008 1154 33.9706
49.1255 1213 34.8281
49.243 1190 34.4964
49.3605 1167 34.1614
49.478 1155 33.9853
49.5955 1012 31.8119
49.713 981 31.3209
49.8304 872 29.5296
49.9479 922 30.3645
50.0653 1050 32.4037
50.1827 1143 33.8083
50.3001 1184 34.4093
50.4175 1380 37.1484
50.5348 1394 37.3363
50.6521 1475 38.4057
50.7694 1387 37.2424
50.8867 1527 39.0768
51.004 1501 38.7427
51.1212 1547 39.3319
51.2384 1518 38.9615
51.3556 1511 38.8716
51.4727 1545 39.3065
51.5899 1438 37.921
51.707 1582 39.7744
51.824 1683 41.0244
51.9411 1697 41.1947
52.0581 1722 41.497
52.175 1795 42.3674
52.2919 1798 42.4028
52.4088 1825 42.72
52.5257 1873 43.2782
52.6425 1782 42.2137
52.7593 1918 43.795
52.876 1910 43.7035
52.9927 1967 44.3509
53.1094 1794 42.3556
53.226 1790 42.3084
53.3426 1557 39.4588
53.4591 1529 39.1024
53.5756 1490 38.6005
53.692 1599 39.9875
53.8084 1872 43.2666
53.9248 2016 44.8999
54.0411 2118 46.0217
54.1573 2198 46.8828
54.2735 0 1
54.3896 0 1
54.5057 0 1
54.6217 0 1
54.7377 0 1
54.8537 0 1
54.9695 0 1
55.0853 0 1
55.2011 0 1
55.3168 0 1
55.4324 0 1
57.824 0 1
57.9396 0 1
58.0553 0 1
58.1711 0 1
58.2869 0 1
58.4028 0 1
58.5187 0 1
58.6347 0 1
58.7508 0 1
58.8669 0 1
58.983 2708 52.0384
59.0992 2964 54.4426
59.2155 3026 55.0091
59.3318 2971 54.5069
59.4482 3062 55.3353
59.5646 3122 55.8749
59.681 3116 55.8211
59.7975 3031 55.0545
59.9141 2942 54.2402
60.0306 2993 54.7083
60.1473 2924 54.074
60.2639 2913 53.9722
60.3807 2921 54.0463
60.4974 2965 54.4518
60.6142 2864 53.5164
60.731 2918 54.0185
60.8479 3071 55.4166
60.9648 3258 57.0789
61.0818 3204 56.6039
61.1987 3183 56.4181
61.3158 3213 56.6833
61.4328 3254 57.0438
61.5499 3025 55
61.667 3092 55.6058
61.7841 2887 53.7308
61.9013 2619 51.1762
62.0185 2442 49.4166
62.1357 2462 49.6185
62.253 2723 52.1824
62.3702 2954 54.3507
62.4875 3019 54.9454
62.6049 3278 57.2538
62.7222 3487 59.0508
62.8396 3467 58.8812
62.9569 3370 58.0517
63.0743 3478 58.9746
63.1918 3330 57.7062
63.3092 3363 57.9914
63.4267 3300 57.4456
63.5441 3216 56.7098
63.6616 3107 55.7405
63.7791 2988 54.6626
63.8966 3123 55.8838
64.0142 3064 55.3534
64.1317 3247 56.9825
64.2492 3296 57.4108
64.3668 3460 58.8218
64.4843 3478 58.9746
64.6019 3502 59.1777
64.7195 3596 59.9667
64.837 3581 59.8415
64.9546 3624 60.1997
65.0722 3580 59.8331
65.1898 3538 59.4811
65.3074 3292 57.376
65.4249 2942 54.2402
65.5425 2690 51.8652
65.6601 2616 51.1468
65.7777 2847 53.3573
65.8952 3012 54.8817
66.0128 3243 56.9473
66.1304 3510 59.2453
66.2479 3719 60.9836
66.3655 3735 61.1146
66.483 3785 61.5224
66.6005 3738 61.1392
66.718 3844 62
66.8355 3730 61.0737
66.953 3809 61.7171
67.0705 3685 60.7042
67.1879 3605 60.0417
67.3054 3431 58.5747
67.4228 3509 59.2368
67.5402 3369 58.0431
67.6576 3453 58.7622
67.7749 3626 60.2163
67.8923 3759 61.3107
68.0096 3916 62.578
68.1269 4030 63.4823
68.2442 4063 63.7417
68.3614 4116 64.1561
68.4787 4068 63.7809
68.5958 4258 65.2534
68.713 4156 64.467
68.8302 4083 63.8984
68.9473 3913 62.554
69.0643 3556 59.6322
69.1814 3269 57.1752
69.2984 3065 55.3624
69.4154 3300 57.4456
69.5323 3535 59.4559
69.6492 3984 63.1189
69.7661 4255 65.2304
69.8829 4295 65.5362
69.9997 4543 67.4018
70.1165 4462 66.7982
70.2332 4681 68.4178
70.3499 4594 67.7791
70.4665 4655 68.2276
70.5831 4507 67.1342
70.6996 4355 65.9924
70.8161 4183 64.6761
70.9326 4032 63.498
71.049 3934 62.7216
71.1653 3783 61.5061
71.2817 3881 62.2977
71.3979 3809 61.7171
71.5141 4056 63.6867
71.6303 4086 63.9218
71.7464 4035 63.5216
71.8624 0 1
71.9784 0 1
72.0944 0 1
72.2102 0 1
72.3261 0 1
72.4418 0 1
72.5575 0 1
72.6732 0 1
75.1054 0 1
75.2209 0 1
75.3365 0 1
75.4521 0 1
75.5678 0 1
75.6835 0 1
75.7993 0 1
75.9151 0 1
76.031 0 1
76.147 4119 64.1794
76.263 4287 65.4752
76.3791 4232 65.0538
76.4952 4035 63.5216
76.6113 4077 63.8514
76.7276 4251 65.1997
76.8438 4486 66.9776
76.9601 4583 67.6979
77.0765 4781 69.1448
77.1929 4967 70.4769
77.3093 4970 70.4982
77.4258 4974 70.5266
77.5423 4883 69.8785
77.6589 4904 70.0286
77.7755 4896 69.9714
77.8921 4663 68.2862
78.0088 4245 65.1537
78.1256 3903 62.474
78.2423 3510 59.2453
78.3591 3419 58.4722
78.4759 3515 59.2874
78.5928 3905 62.49
78.7097 4284 65.4523
78.8266 4741 68.8549
78.9436 4634 68.0735
79.0606 4959 70.4202
79.1776 4889 69.9214
79.2946 4779 69.1303
79.4117 4977 70.5479
79.5288 4916 70.1142
79.6459 4659 68.2569
79.7631 4511 67.164
79.8802 4565 67.5648
79.9974 4278 65.4064
80.1147 4052 63.6553
80.2319 4088 63.9375
80.3491 4097 64.0078
80.4664 4280 65.4217
80.5837 4572 67.6166
80.701 4615 67.9338
80.8183 4792 69.2243
80.9357 4855 69.6778
81.053 4911 70.0785
81.1704 4854 69.6707
81.2877 4806 69.3253
81.4051 4810 69.3542
81.5225 4622 67.9853
81.6399 4324 65.7571
81.7573 3968 62.9921
81.8747 3560 59.6657
81.9922 3578 59.8164
82.1096 3383 58.1636
82.227 3624 60.1997
82.3444 4174 64.6065
82.4619 4343 65.9014
82.5793 4389 66.2495
82.6967 4805 69.3181
82.8142 4737 68.8259
82.9316 4668 68.3228
83.049 4647 68.1689
83.1664 4491 67.0149
83.2838 4691 68.4909
83.4012 4372 66.1211
83.5186 4158 64.4826
83.636 4000 63.2456
83.7534 3702 60.8441
83.8708 3677 60.6383
83.9881 3647 60.3904
84.1055 3906 62.498
84.2228 4038 63.5453
84.3401 4294 65.5286
84.4575 4512 67.1714
84.5747 4563 67.55
84.692 4696 68.5274
84.8093 4681 68.4178
84.9265 4631 68.0515
85.0437 4602 67.838
85.1609 4432 66.5733
85.2781 3954 62.8808
85.3952 3811 61.7333
85.5123 3482 59.0085
85.6294 3468 58.8897
85.7465 3659 60.4897
85.8636 3955 62.8888
85.9806 4411 66.4154
86.0976 4537 67.3573
86.2145 4868 69.7711
86.3315 4789 69.2026
86.4484 5102 71.4283
86.5652 5083 71.2952
86.682 5099 71.4073
86.7988 4950 70.3562
86.9156 4969 70.4911
87.0323 4954 70.3847
87.149 4755 68.9565
87.2657 4384 66.2118
87.3823 4281 65.4294
87.4988 4184 64.6838
87.6154 4337 65.8559
87.7318 4657 68.2422
87.8483 5059 71.1266
87.9647 5205 72.1457
88.081 5321 72.9452
88.1973 5449 73.8173
88.3136 5365 73.2462
88.4298 5348 73.13
88.546 5247 72.4362
88.6621 5282 72.6774
88.7781 4960 70.4273
88.8942 0 1
89.0101 0 1
89.126 0 1
89.2419 0 1
89.3577 0 1
89.4734 0 1
89.5891 0 1
89.7047 0 1
89.8203 0 1
89.9358 0 1
92.3269 0 1
92.4424 0 1
92.558 0 1
92.6736 0 1
92.7893 0 1
92.905 0 1
93.0208 0 1
93.1366 0 1
93.2525 0 1
93.3685 0 1
93.4845 0 1
93.6005 5335 73.0411
93.7167 5377 73.328
93.8328 5302 72.8148
93.949 5300 72.8011
94.0653 5153 71.7844
94.1816 5114 71.5122
94.2979 4845 69.606
94.4143 4664 68.2935
94.5307 4305 65.6125
94.6472 4148 64.405
94.7637 4145 64.3817
94.8803 4450 66.7083
94.9969 4582 67.6905
95.1135 5008 70.7672
95.2302 5045 71.0282
95.3469 5221 72.2565
95.4637 5284 72.6911
95.5805 5528 74.3505
95.6973 5671 75.306
95.8142 5691 75.4387
95.9311 5600 74.8331
96.048 5586 74.7395
96.1649 5554 74.5252
96.2819 4987 70.6187
96.3989 4932 70.2282
96.516 4794 69.2387
96.633 4505 67.1193
96.7501 4375 66.1438
96.8673 4615 67.9338
96.9844 5016 70.8237
97.1016 5414 73.5799
97.2188 5485 74.0608
97.336 5646 75.1399
97.4532 5576 74.6726
97.5704 5641 75.1066
97.6877 5611 74.9066
97.805 5531 74.3707
97.9223 5371 73.2871
98.0396 5064 71.1618
98.1569 4692 68.4982
98.2743 4473 66.8805
98.3916 4352 65.9697
98.509 4520 67.2309
98.6264 4693 68.5055
98.7438 4948 70.342
98.8612 5215 72.215
98.9786 5480 74.027
99.096 5663 75.2529
99.2134 5802 76.1709
99.3308 5960 77.201
99.4482 5808 76.2102
99.5656 5867 76.5963
99.6831 5753 75.8485
99.8005 5595 74.7997
99.9179 5251 72.4638
100.035 5186 72.0139
100.153 4958 70.4131
100.27 4545 67.4166
100.388 4546 67.424
100.505 5022 70.8661
100.622 5429 73.6817
100.74 5671 75.306
100.857 5857 76.531
100.975 6015 77.5564
101.092 5960 77.201
101.209 6041 77.7239
101.327 5786 76.0658
101.444 5727 75.6769
101.561 5724 75.6571
101.679 5367 73.2598
101.796 4914 70.0999
101.913 4645 68.1542
102.03 4561 67.5352
102.148 4999 70.7036
102.265 5598 74.8198
102.382 5302 72.8148
102.499 5564 74.5922
102.616 5821 76.2955
102.733 5952 77.1492
102.851 6237 78.9747
102.968 6165 78.5175
103.085 6176 78.5875
103.202 6132 78.3071
103.319 6094 78.0641
103.436 5863 76.5702
103.552 5706 75.5381
103.669 5166 71.8749
103.786 4819 69.419
103.903 4781 69.1448
104.02 5219 72.2426
104.137 5795 76.1249
104.253 6205 78.7718
104.37 6222 78.8797
104.487 6408 80.05
104.603 6391 79.9437
104.72 6502 80.635
104.836 6450 80.3119
104.953 6404 80.025
105.069 5943 77.0909
105.186 5718 75.6175
105.302 5155 71.7983
105.418 5166 71.8749
105.535 5259 72.519
105.651 5501 74.1687
105.767 5792 76.1052
105.883 6119 78.224
105.999 6150 78.4219
106.115 0 1
106.231 0 1
106.347 0 1
106.463 0 1
106.579 0 1
106.694 0 1
106.81 0 1
106.926 0 1
107.041 0 1
107.157 0 1
109.576 0 1
109.692 0 1
109.807 0 1
109.923 0 1
110.039 0 1
110.155 0 1
110.27 0 1
110.386 0 1
110.502 0 1
110.618 4847 69.6204
110.735 5456 73.8647
110.851 5543 74.4513
110.967 5724 75.6571
111.083 5832 76.3675
111.199 6016 77.5629
111.316 6103 78.1217
111.432 6294 79.3347
111.549 6261 79.1265
111.665 6103 78.1217
111.782 6036 77.6917
111.898 5771 75.9671
112.015 5490 74.0945
112.132 4989 70.6329
112.248 4592 67.7643
112.365 4478 66.9179
112.482 4714 68.6586
112.599 5149 71.7565
112.716 5532 74.3774
112.832 5739 75.7562
112.949 5825 76.3217
113.066 5737 75.743
113.183 5686 75.4056
113.3 5746 75.8024
113.417 5777 76.0066
113.534 5383 73.3689
113.652 5192 72.0555
113.769 4939 70.278
113.886 4683 68.4324
114.003 4459 66.7757
114.12 4630 68.0441
114.238 4751 68.9275
114.355 4840 69.5701
114.472 5007 70.7602
114.589 5029 70.9154
114.707 5158 71.8192
114.824 5401 73.4915
114.942 5381 73.3553
115.059 5537 74.411
115.176 5655 75.1997
115.294 5544 74.458
115.411 5255 72.4914
115.529 5211 72.1873
115.646 4746 68.8912
115.764 4331 65.8103
115.881 3945 62.8092
115.999 4197 64.7843
116.116 4651 68.1982
116.234 5034 70.9507
116.351 5348 73.13
116.469 5411 73.5595
116.586 5615 74.9333
116.704 5452 73.8377
116.821 5388 73.403
116.939 5536 74.4043
117.056 5495 74.1283
117.174 5204 72.1388
117.291 5129 71.617
117.409 4864 69.7424
117.526 4614 67.9264
117.644 4541 67.3869
117.761 4534 67.335
117.879 4937 70.2638
117.996 5027 70.9013
118.114 5210 72.1803
118.231 5351 73.1505
118.349 5304 72.8286
118.466 5366 73.253
118.584 5507 74.2092
118.701 5544 74.458
118.819 5727 75.6769
118.936 5482 74.0405
119.053 5411 73.5595
119.171 5244 72.4155
119.288 4870 69.7854
119.405 4153 64.4438
119.523 4083 63.8984
119.64 4190 64.7302
119.757 4605 67.8602
119.875 4951 70.3633
119.992 5152 71.7774
120.109 5419 73.6139
120.226 5410 73.5527
120.343 5508 74.2159
120.46 5519 74.29
120.578 5574 74.6592
120.695 5515 74.263
120.812 5298 72.7874
120.929 5314 72.8972
121.046 5178 71.9583
121.163 4844 69.5989
121.279 4796 69.2532
121.396 4602 67.838
121.513 4593 67.7717
121.63 4834 69.527
121.747 5071 71.211
121.863 5285 72.698
121.98 5362 73.2257
122.097 5220 72.2496
122.213 5365 73.2462
122.33 5544 74.458
122.446 5428 73.675
122.563 5362 73.2257
122.679 5511 74.2361
122.795 5277 72.643
122.912 5094 71.3723
123.028 4660 68.2642
123.144 4268 65.3299
123.26 3942 62.7853
123.377 0 1
123.493 0 1
123.609 0 1
123.725 0 1
123.84 0 1
123.956 0 1
124.072 0 1
124.188 0 1
124.303 0 1
124.419 0 1
126.852 0 1
126.968 0 1
127.083 0 1
127.199 0 1
127.315 0 1
127.431 0 1
127.547 0 1
127.663 0 1
127.779 0 1
127.895 0 1
128.011 0 1
128.127 0 1
128.243 0 1
128.359 4758 68.9783
128.476 4321 65.7343
128.592 4523 67.2533
128.708 5006 70.7531
128.825 5280 72.6636
128.941 5927 76.987
129.058 6081 77.9808
129.174 6198 78.7274
129.291 6233 78.9494
129.408 6225 78.8987
129.524 5997 77.4403
129.641 6073 77.9295
129.758 5825 76.3217
129.875 5760 75.8947
129.992 5696 75.4718
130.108 5519 74.29
130.225 5269 72.5879
130.342 5162 71.8471
130.459 4991 70.647
130.576 5446 73.797
130.693 5656 75.2064
130.81 5745 75.7958
130.928 5737 75.743
131.045 5700 75.4983
131.162 5930 77.0065
131.279 6058 77.8332
131.396 5949 77.1298
131.513 5934 77.0325
131.631 5791 76.0986
131.748 5597 74.8131
131.865 4894 69.9571
131.983 4431 66.5658
132.1 4343 65.9014
132.217 4712 68.644
132.335 5289 72.7255
132.452 5606 74.8732
132.57 5749 75.8222
132.687 5817 76.2693
132.804 6124 78.256
132.922 5797 76.138
133.039 5707 75.5447
133.157 5893 76.7659
133.274 5862 76.5637
133.392 5782 76.0395
133.509 5573 74.6525
133.627 5387 73.3962
133.744 5265 72.5603
133.862 5120 71.5542
133.979 5227 72.298
134.097 5227 72.298
134.214 5373 73.3008
134.332 5472 73.973
134.449 5597 74.8131
134.567 5532 74.3774
134.684 5595 74.7997
134.802 5624 74.9933
134.919 5707 75.5447
135.037 5817 76.2693
135.154 5714 75.591
135.272 5497 74.1418
135.389 5097 71.3933
135.507 4573 67.624
135.624 4260 65.2687
135.742 4378 66.1665
135.859 4765 69.029
135.977 5328 72.9932
136.094 5490 74.0945
136.211 5752 75.8419
136.329 5860 76.5506
136.446 5684 75.3923
136.564 5726 75.6703
136.681 5811 76.2299
136.798 5774 75.9868
136.915 5735 75.7298
137.033 5578 74.686
137.15 5657 75.213
137.267 5354 73.171
137.384 5386 73.3894
137.502 5085 71.3092
137.619 4964 70.4557
137.736 4883 69.8785
137.853 4985 70.6045
137.97 5153 71.7844
138.087 5406 73.5255
138.204 5424 73.6478
138.321 5602 74.8465
138.438 5665 75.2662
138.555 5636 75.0733
138.672 5614 74.9266
138.788 5656 75.2064
138.905 5501 74.1687
139.022 5141 71.7008
139.139 4666 68.3081
139.255 4271 65.3529
139.372 4372 66.1211
139.488 4759 68.9855
139.605 5151 71.7705
139.721 5447 73.8038
139.838 5673 75.3193
139.954 5713 75.5844
140.071 5572 74.6458
140.187 5840 76.4199
140.303 5589 74.7596
140.419 5704 75.5248
140.535 5608 74.8866
140.652 5655 75.1997
140.768 0 1
140.884 0 1
141 0 1
141.115 0 1
141.231 0 1
141.347 0 1
141.463 0 1
141.578 0 1
141.694 0 1
144.104 0 1
144.219 0 1
144.335 0 1
144.45 0 1
144.566 0 1
144.682 0 1
144.798 0 1
144.914 0 1
145.03 0 1
145.146 4888 69.9142
145.262 5014 70.8096
145.378 4907 70.05
145.494 4968 70.484
145.61 4922 70.157
145.726 4810 69.3542
145.842 4799 69.2748
145.959 4784 69.1665
146.075 4477 66.9104
146.192 4421 66.4906
146.308 4357 66.0076
146.425 4305 65.6125
146.541 4455 66.7458
146.658 4405 66.3702
146.774 4537 67.3573
146.891 4689 68.4763
147.008 4731 68.7823
147.125 4623 67.9926
147.241 4521 67.2384
147.358 4528 67.2904
147.475 4463 66.8057
147.592 4180 64.6529
147.709 3888 62.3538
147.826 3563 59.6909
147.943 3656 60.4649
148.06 3829 61.8789
148.177 4103 64.0547
148.294 4421 66.4906
148.411 4656 68.2349
148.528 4692 68.4982
148.645 4616 67.9412
148.762 4651 68.1982
148.88 4582 67.6905
148.997 4426 66.5282
149.114 4703 68.5784
149.231 4537 67.3573
149.349 4521 67.2384
149.466 4353 65.9773
149.583 4238 65.0999
149.701 4351 65.9621
149.818 4175 64.6142
149.935 4086 63.9218
150.053 4085 63.914
150.17 3976 63.0555
150.287 4274 65.3758
150.405 4209 64.8768
150.522 4369 66.0984
150.64 4444 66.6633
150.757 4341 65.8863
150.875 4352 65.9697
150.992 4239 65.1076
151.11 4049 63.6318
151.227 3927 62.6658
151.344 3673 60.6053
151.462 3330 57.7062
151.579 3408 58.3781
151.697 3613 60.1082
151.814 3956 62.8967
151.932 4290 65.4981
152.049 4429 66.5507
152.167 4400 66.3325
152.284 4524 67.2607
152.402 4405 66.3702
152.519 4365 66.0681
152.636 4586 67.72
152.754 4524 67.2607
152.871 4461 66.7907
152.989 4430 66.5582
153.106 4366 66.0757
153.223 4274 65.3758
153.341 4228 65.0231
153.458 4131 64.2729
153.575 4099 64.0234
153.693 4128 64.2495
153.81 4077 63.8514
153.927 4238 65.0999
154.044 4237 65.0922
154.162 4342 65.8939
154.279 4446 66.6783
154.396 4445 66.6708
154.513 4443 66.6558
154.63 4423 66.5056
154.747 4244 65.146
154.864 4029 63.4744
154.981 3822 61.8223
155.098 3548 59.5651
155.215 3459 58.8133
155.332 3746 61.2046
155.449 4014 63.3561
155.566 4343 65.9014
155.683 4401 66.34
155.8 4327 65.7799
155.917 4500 67.082
156.033 4441 66.6408
156.15 0 1
156.267 0 1
156.383 0 1
156.5 0 1
156.617 0 1
156.733 0 1
156.85 0 1
156.966 0 1
157.082 0 1
157.199 0 1
157.315 0 1
157.431 0 1
157.547 0 1
157.664 0 1
157.78 0 1
157.896 0 1
158.012 0 1
158.128 0 1
158.244 0 1
158.359 0 1
158.475 0 1
158.591 0 1
158.706 0 1
