
6.15755 0 1
6.2731 0 1
6.3887 0 1
6.50437 0 1
6.62009 0 1
6.73587 0 1
6.8517 0 1
6.96759 0 1
7.08353 0 1
7.19952 0 1
7.31557 0 1
7.43166 0 1
7.54781 0 1
7.664 0 1
7.78024 0 1
7.89653 0 1
8.01286 0 1
8.12924 0 1
8.24567 0 1
8.36213 0 1
8.47864 0 1
8.59519 0 1
8.71178 0 1
8.82841 0 1
8.94508 0 1
9.06179 0 1
9.17853 0 1
9.29531 0 1
9.41212 0 1
9.52897 0 1
9.64584 0 1
9.76276 0 1
9.8797 0 1
9.99667 0 1
10.1137 0 1
10.2307 0 1
10.3478 0 1
10.4648 0 1
10.5819 0 1
10.6991 0 1
10.8162 0 1
10.9334 0 1
11.0506 0 1
11.1678 0 1
11.285 0 1
11.4023 0 1
11.5196 0 1
11.6369 0 1
11.7542 0 1
11.8715 0 1
11.9888 0 1
12.1062 0 1
12.2235 0 1
12.3409 0 1
12.4582 0 1
12.5756 0 1
12.693 0 1
12.8104 0 1
12.9278 0 1
13.0452 0 1
13.1626 0 1
13.28 0 1
13.3974 0 1
13.5149 0 1
13.6323 0 1
13.7497 0 1
13.8671 0 1
13.9845 0 1
14.1019 0 1
14.2193 0 1
14.3367 0 1
14.4541 0 1
14.5714 0 1
14.6888 0 1
14.8062 0 1
14.9235 0 1
15.0408 0 0
15.1581 0 0
15.2755 0 0
15.3927 0 0
15.51 0 0
15.6273 0 0
15.7445 0 0
15.8617 0 0
15.9789 0 0
16.0961 0 0
16.2132 0 0
16.3304 0 0
16.4475 0 0
16.5646 0 0
16.6816 0 0
16.7986 0 0
16.9156 0 0
17.0326 0 0
17.1496 0 0
17.2665 0 0
17.3833 0 0
17.5002 0 0
17.617 0 0
17.7338 0 0
17.8505 0 0
17.9672 0 0
18.0839 0 0
18.2005 0 0
18.3171 0 0
18.4337 0 0
18.5502 0 0
18.6666 0 0
18.7831 0 0
18.8994 0 0
19.0158 0 0
19.1321 0 0
19.2483 0 0
19.3645 0 0
19.4806 0 0
19.5967 0 0
19.7128 0 0
19.8288 0 0
19.9447 0 0
20.0606 0 1
20.1764 0 1
20.2922 0 1
20.4079 0 1
20.5236 0 1
20.6392 0 1
20.7548 0 1
20.8702 0 1
23.3078 0 1
23.4233 0 1
23.539 0 1
23.6547 0 1
23.7704 0 1
23.8862 0 1
24.0021 0 1
24.118 0 1
24.234 0 1
24.35 0 1
24.4661 29494 171.738
24.5822 29666 172.238
24.6984 29678 172.273
24.8146 29450 171.61
24.9309 29638 172.157
25.0472 29817 172.676
25.1636 29946 173.049
25.28 29404 171.476
25.3965 29746 172.47
25.513 29944 173.043
25.6296 30340 174.184
25.7462 31241 176.751
25.8628 31230 176.72
25.9795 31066 176.255
26.0962 30887 175.747
26.213 30973 175.991
26.3298 30718 175.266
26.4466 29977 173.139
26.5635 28245 168.062
26.6804 26804 163.719
26.7973 26494 162.77
26.9143 27493 165.81
27.0313 27782 166.679
27.1483 28834 169.806
27.2653 29863 172.809
27.3824 30401 174.359
27.4996 30498 174.637
27.6167 31061 176.241
27.7339 30655 175.086
27.8511 30092 173.47
27.9683 30051 173.352
28.0855 30150 173.638
28.2028 30313 174.106
28.3201 29162 170.769
28.4374 28959 170.173
28.5547 28372 168.44
28.6721 28013 167.371
28.7894 28067 167.532
28.9068 28316 168.274
29.0242 28246 168.065
29.1416 28245 168.062
29.259 28320 168.285
29.3764 28174 167.851
29.4939 28334 168.327
29.6113 28686 169.369
29.7288 28861 169.885
29.8463 28264 168.119
29.9638 27361 165.412
30.0812 26225 161.941
30.1987 24843 157.617
30.3162 24355 156.061
30.4337 25084 158.379
30.5512 25991 161.217
30.6687 26717 163.453
30.7862 27951 167.186
30.9037 27994 167.314
31.0212 29474 171.68
31.1387 29432 171.558
31.2562 29280 171.114
31.3737 29682 172.285
31.4912 29297 171.164
31.6087 28992 170.27
31.7262 28336 168.333
31.8436 28173 167.848
31.9611 27946 167.171
32.0785 27574 166.054
32.1959 27077 164.551
32.3134 27088 164.584
32.4308 27460 165.711
32.5482 27157 164.794
32.6655 27431 165.623
32.7829 27371 165.442
32.9002 27395 165.514
33.0176 27169 164.83
33.1349 27521 165.895
33.2522 28293 168.205
33.3694 27753 166.592
33.4867 27702 166.439
33.6039 27003 164.326
33.7211 25169 158.647
33.8383 24066 155.132
33.9554 23257 152.502
34.0725 23642 153.76
34.1896 24865 157.686
34.3067 25526 159.769
34.4237 26419 162.539
34.5407 27359 165.406
34.6577 28228 168.012
34.7746 28628 169.198
34.8915 28326 168.303
35.0084 28656 169.281
35.1252 28500 168.819
35.242 27914 167.075
35.3587 28165 167.824
35.4755 27852 166.889
35.5921 27290 165.197
35.7088 26713 163.441
35.8254 26249 162.015
35.9419 26166 161.759
36.0584 25915 160.981
36.1749 25772 160.537
36.2913 25876 160.86
36.4077 25753 160.477
36.524 26148 161.703
36.6403 26086 161.512
36.7565 26405 162.496
36.8727 26693 163.38
36.9889 26608 163.12
37.1049 26355 162.342
37.221 0 1
37.3369 0 1
37.4529 0 1
37.5687 0 1
37.6845 0 1
37.8003 0 1
37.916 0 1
38.0316 0 1
38.1472 0 1
40.5851 0 1
40.7008 0 1
40.8164 0 1
40.9322 0 1
41.048 0 1
41.1639 0 1
41.2798 0 1
41.3958 0 1
41.5118 0 1
41.6279 0 1
41.744 19623 140.082
41.8602 20606 143.548
41.9765 20717 143.934
42.0928 21484 146.574
42.2091 21489 146.591
42.3255 21605 146.986
42.4419 20267 142.362
42.5584 18890 137.441
42.675 17496 132.272
42.7915 16787 129.565
42.9081 17265 131.396
43.0248 18298 135.27
43.1415 19243 138.719
43.2582 19884 141.011
43.375 20575 143.44
43.4918 20680 143.805
43.6087 20659 143.732
43.7256 20429 142.93
43.8425 20224 142.211
43.9595 20160 141.986
44.0765 19601 140.004
44.1935 19377 139.201
44.3106 18847 137.284
44.4277 18438 135.787
44.5448 17459 132.133
44.6619 16914 130.054
44.7791 16412 128.109
44.8963 15967 126.361
45.0136 15680 125.22
45.1308 15679 125.216
45.2481 15607 124.928
45.3654 15824 125.793
45.4827 15441 124.262
45.6001 16085 126.827
45.7174 15785 125.638
45.8348 15795 125.678
45.9522 15306 123.717
46.0697 14038 118.482
46.1871 12808 113.172
46.3046 11827 108.752
46.422 12029 109.677
46.5395 12713 112.752
46.657 13555 116.426
46.7745 14497 120.403
46.892 14622 120.921
47.0096 14951 122.274
47.1271 14733 121.38
47.2446 14661 121.083
47.3622 14819 121.733
47.4797 14323 119.679
47.5973 14064 118.592
47.7149 13698 117.038
47.8324 13356 115.568
47.95 13025 114.127
48.0675 12325 111.018
48.1851 12025 109.659
48.3027 11444 106.977
48.4202 11421 106.869
48.5378 11239 106.014
48.6554 11247 106.052
48.7729 11534 107.396
48.8904 11714 108.231
49.008 11854 108.876
49.1255 11837 108.798
49.243 12056 109.8
49.3605 11946 109.298
49.478 11150 105.594
49.5955 10304 101.509
49.713 9668 98.326
49.8304 9233 96.0885
49.9479 9445 97.1854
50.0653 10481 102.377
50.1827 11863 108.917
50.3001 12850 113.358
50.4175 13579 116.529
50.5348 13927 118.013
50.6521 14378 119.908
50.7694 14430 120.125
50.8867 14965 122.332
51.004 15144 123.061
51.1212 15131 123.008
51.2384 15657 125.128
51.3556 16136 127.028
51.4727 15844 125.873
51.5899 15667 125.168
51.707 15373 123.988
51.824 15439 124.254
51.9411 15682 125.228
52.0581 15931 126.218
52.175 16458 128.289
52.2919 16994 130.361
52.4088 17423 131.996
52.5257 17650 132.853
52.6425 18448 135.823
52.7593 18634 136.506
52.876 18982 137.775
52.9927 19332 139.04
53.1094 18002 134.172
53.226 16516 128.515
53.3426 15215 123.349
53.4591 14643 121.008
53.5756 15897 126.083
53.692 18393 135.621
53.8084 20313 142.524
53.9248 21572 146.874
54.0411 22795 150.98
54.1573 23272 152.552
54.2735 0 1
54.3896 0 1
54.5057 0 1
54.6217 0 1
54.7377 0 1
54.8537 0 1
54.9695 0 1
55.0853 0 1
55.2011 0 1
55.3168 0 1
55.4324 0 1
57.824 0 1
57.9396 0 1
58.0553 0 1
58.1711 0 1
58.2869 0 1
58.4028 0 1
58.5187 0 1
58.6347 0 1
58.7508 0 1
58.8669 0 1
58.983 23323 152.719
59.0992 25483 159.634
59.2155 26209 161.892
59.3318 27350 165.378
59.4482 27278 165.161
59.5646 27370 165.439
59.681 27360 165.409
59.7975 27034 164.42
59.9141 26430 162.573
60.0306 25713 160.353
60.1473 25158 158.613
60.2639 24087 155.2
60.3807 23005 151.674
60.4974 22711 150.702
60.6142 22184 148.943
60.731 22397 149.656
60.8479 22193 148.973
60.9648 22591 150.303
61.0818 22505 150.017
61.1987 23012 151.697
61.3158 22822 151.07
61.4328 22627 150.423
61.5499 21788 147.608
61.667 20522 143.255
61.7841 18738 136.887
61.9013 17322 131.613
62.0185 16895 129.981
62.1357 18398 135.639
62.253 20138 141.908
62.3702 22233 149.107
62.4875 23467 153.189
62.6049 24783 157.426
62.7222 25503 159.697
62.8396 26077 161.484
62.9569 26384 162.432
63.0743 26132 161.654
63.1918 26482 162.733
63.3092 26435 162.588
63.4267 25769 160.527
63.5441 25268 158.959
63.6616 24297 155.875
63.7791 23887 154.554
63.8966 23086 151.941
64.0142 22877 151.251
64.1317 22444 149.813
64.2492 22638 150.459
64.3668 22576 150.253
64.4843 23520 153.362
64.6019 23297 152.634
64.7195 23732 154.052
64.837 24093 155.219
64.9546 24231 155.663
65.0722 23569 153.522
65.1898 21925 148.071
65.3074 20126 141.866
65.4249 17862 133.649
65.5425 16923 130.088
65.6601 17519 132.359
65.7777 19628 140.1
65.8952 22523 150.077
66.0128 24251 155.727
66.1304 25383 159.32
66.2479 26454 162.647
66.3655 26831 163.802
66.483 27245 165.061
66.6005 27138 164.736
66.718 27394 165.511
66.8355 27338 165.342
66.953 26481 162.73
67.0705 25706 160.331
67.1879 25244 158.884
67.3054 24112 155.28
67.4228 23270 152.545
67.5402 22566 150.22
67.6576 21829 147.746
67.7749 21292 145.918
67.8923 21822 147.723
68.0096 22265 149.215
68.1269 22232 149.104
68.2442 22583 150.276
68.3614 22817 151.053
68.4787 23681 153.886
68.5958 22791 150.967
68.713 22672 150.572
68.8302 20783 144.163
68.9473 18383 135.584
69.0643 16777 129.526
69.1814 15565 124.76
69.2984 16503 128.464
69.4154 18948 137.652
69.5323 21473 146.537
69.6492 23271 152.548
69.7661 24301 155.888
69.8829 25519 159.747
69.9997 25963 161.13
70.1165 26297 162.163
70.2332 26803 163.716
70.3499 26306 162.191
70.4665 25932 161.034
70.5831 25668 160.212
70.6996 24449 156.362
70.8161 23649 153.782
70.9326 23193 152.292
71.049 22015 148.375
71.1653 20912 144.61
71.2817 20512 143.22
71.3979 20125 141.863
71.5141 19724 140.442
71.6303 19622 140.079
71.7464 18532 136.132
71.8624 0 1
71.9784 0 1
72.0944 0 1
72.2102 0 1
72.3261 0 1
72.4418 0 1
72.5575 0 1
72.6732 0 1
75.1054 0 1
75.2209 0 1
75.3365 0 1
75.4521 0 1
75.5678 0 1
75.6835 0 1
75.7993 0 1
75.9151 0 1
76.031 0 1
76.147 21542 146.772
76.263 22424 149.746
76.3791 22048 148.486
76.4952 21420 146.356
76.6113 20698 143.868
76.7276 20497 143.168
76.8438 20425 142.916
76.9601 21046 145.072
77.0765 21514 146.677
77.1929 21720 147.377
77.3093 22693 150.642
77.4258 23046 151.809
77.5423 23052 151.829
77.6589 22473 149.91
77.7755 20685 143.823
77.8921 17814 133.469
78.0088 15822 125.786
78.1256 14809 121.692
78.2423 14271 119.461
78.3591 15380 124.016
78.4759 18224 134.996
78.5928 21051 145.09
78.7097 22564 150.213
78.8266 22949 151.489
78.9436 25732 160.412
79.0606 24886 157.753
79.1776 25035 158.225
79.2946 25076 158.354
79.4117 24982 158.057
79.5288 24538 156.646
79.6459 23992 154.894
79.7631 22205 149.013
79.8802 21625 147.054
79.9974 20362 142.695
80.1147 19413 139.331
80.2319 18782 137.047
80.3491 18397 135.636
80.4664 18522 136.096
80.5837 18612 136.426
80.701 19154 138.398
80.8183 19255 138.762
80.9357 19961 141.283
81.053 20386 142.78
81.1704 20217 142.186
81.2877 19787 140.666
81.4051 19198 138.557
81.5225 16676 129.136
81.6399 15024 122.572
81.7573 13696 117.03
81.8747 12427 111.476
81.9922 13188 114.839
82.1096 16009 126.527
82.227 18448 135.823
82.3444 19594 139.979
82.4619 20759 144.08
82.5793 21471 146.53
82.6967 20924 144.651
82.8142 21662 147.18
82.9316 21590 146.935
83.049 21315 145.997
83.1664 20840 144.361
83.2838 19603 140.011
83.4012 18511 136.055
83.5186 17992 134.134
83.636 17151 130.962
83.7534 16380 127.984
83.8708 15686 125.244
83.9881 15910 126.135
84.1055 16021 126.574
84.2228 16250 127.475
84.3401 16687 129.178
84.4575 17378 131.826
84.5747 18172 134.804
84.692 18589 136.341
84.8093 18640 136.528
84.9265 17615 132.722
85.0437 15935 126.234
85.1609 13974 118.212
85.2781 12935 113.732
85.3952 12087 109.941
85.5123 12411 111.405
85.6294 14651 121.041
85.7465 17303 131.541
85.8636 19129 138.308
85.9806 20423 142.909
86.0976 21804 147.662
86.2145 22671 150.569
86.3315 23683 153.893
86.4484 22895 151.311
86.5652 23957 154.78
86.682 23536 153.414
86.7988 23590 153.59
86.9156 22416 149.72
87.0323 21429 146.386
87.149 20714 143.924
87.2657 19872 140.968
87.3823 19439 139.424
87.4988 18710 136.785
87.6154 19030 137.949
87.7318 19775 140.624
87.8483 20530 143.283
87.9647 21165 145.482
88.081 22239 149.127
88.1973 23099 151.984
88.3136 23241 152.45
88.4298 22310 149.365
88.546 20816 144.278
88.6621 18541 136.165
88.7781 16448 128.25
88.8942 0 1
89.0101 0 1
89.126 0 1
89.2419 0 1
89.3577 0 1
89.4734 0 1
89.5891 0 1
89.7047 0 1
89.8203 0 1
89.9358 0 1
92.3269 0 1
92.4424 0 1
92.558 0 1
92.6736 0 1
92.7893 0 1
92.905 0 1
93.0208 0 1
93.1366 0 1
93.2525 0 1
93.3685 0 1
93.4845 0 1
93.6005 22253 149.174
93.7167 22512 150.04
93.8328 22185 148.946
93.949 21723 147.387
94.0653 20115 141.827
94.1816 18141 134.689
94.2979 16492 128.421
94.4143 15515 124.559
94.5307 15638 125.052
94.6472 16509 128.487
94.7637 18335 135.407
94.8803 20825 144.309
94.9969 22900 151.327
95.1135 24180 155.499
95.2302 25357 159.239
95.3469 25680 160.25
95.4637 26266 162.068
95.5805 26267 162.071
95.6973 26598 163.089
95.8142 26595 163.08
95.9311 25854 160.792
96.048 25085 158.382
96.1649 23993 154.897
96.2819 22854 151.175
96.3989 22283 149.275
96.516 21120 145.327
96.633 20352 142.66
96.7501 20234 142.246
96.8673 20554 143.367
96.9844 21219 145.667
97.1016 21912 148.027
97.2188 22738 150.791
97.336 23678 153.877
97.4532 23482 153.238
97.5704 23198 152.309
97.6877 21756 147.499
97.805 19349 139.101
97.9223 17496 132.272
98.0396 16245 127.456
98.1569 15667 125.168
98.2743 16197 127.267
98.3916 18111 134.577
98.509 20452 143.01
98.6264 22303 149.342
98.7438 23955 154.774
98.8612 25612 160.037
98.9786 25956 161.109
99.096 26382 162.425
99.2134 26864 163.902
99.3308 27219 164.982
99.4482 27095 164.606
99.5656 26434 162.585
99.6831 25412 159.411
99.8005 24322 155.955
99.9179 23334 152.755
100.035 22343 149.476
100.153 21237 145.729
100.27 20817 144.281
100.388 20990 144.879
100.505 21870 147.885
100.622 22401 149.67
100.74 23399 152.967
100.857 23603 153.633
100.975 24244 155.705
101.092 24050 155.081
101.209 23220 152.381
101.327 21700 147.309
101.444 19432 139.399
101.561 17694 133.019
101.679 16956 130.215
101.796 16637 128.984
101.913 17957 134.004
102.03 20966 144.796
102.148 23363 152.85
102.265 24636 156.959
102.382 27142 164.748
102.499 27409 165.557
102.616 28248 168.071
102.733 28828 169.788
102.851 28787 169.667
102.968 28814 169.747
103.085 28229 168.015
103.202 27339 165.345
103.319 26368 162.382
103.436 25359 159.245
103.552 23857 154.457
103.669 22593 150.31
103.786 22123 148.738
103.903 22695 150.649
104.02 23633 153.73
104.137 24626 156.927
104.253 25379 159.308
104.37 26103 161.564
104.487 26260 162.049
104.603 26473 162.705
104.72 25453 159.54
104.836 23431 153.072
104.953 20745 144.031
105.069 19467 139.524
105.186 18907 137.503
105.302 19044 138
105.418 20866 144.451
105.535 24188 155.525
105.651 26794 163.689
105.767 28850 169.853
105.883 30494 174.625
105.999 31160 176.522
106.115 0 1
106.231 0 1
106.347 0 1
106.463 0 1
106.579 0 1
106.694 0 1
106.81 0 1
106.926 0 1
107.041 0 1
107.157 0 1
109.576 0 1
109.692 0 1
109.807 0 1
109.923 0 1
110.039 0 1
110.155 0 1
110.27 0 1
110.386 0 1
110.502 0 1
110.618 22870 151.228
110.735 25471 159.596
110.851 27688 166.397
110.967 28350 168.375
111.083 28908 170.024
111.199 29164 170.775
111.316 30288 174.034
111.432 30052 173.355
111.549 29530 171.843
111.665 28781 169.65
111.782 27785 166.688
111.898 26935 164.119
112.015 25693 160.29
112.132 23971 154.826
112.248 22428 149.76
112.365 22272 149.238
112.482 22226 149.084
112.599 24261 155.759
112.716 24336 156
112.832 24839 157.604
112.949 24919 157.858
113.066 24966 158.006
113.183 24463 156.407
113.3 23686 153.903
113.417 21920 148.054
113.534 19925 141.156
113.652 18773 137.015
113.769 18202 134.915
113.886 18371 135.54
114.003 19099 138.199
114.12 22107 148.684
114.238 25058 158.297
114.355 26425 162.558
114.472 26890 163.982
114.589 28194 167.911
114.707 28477 168.751
114.824 28636 169.222
114.942 28983 170.244
115.059 28967 170.197
115.176 28451 168.674
115.294 27883 166.982
115.411 27158 164.797
115.529 26174 161.784
115.646 24954 157.968
115.764 23353 152.817
115.881 23059 151.852
115.999 23187 152.273
116.116 24266 155.775
116.234 24777 157.407
116.351 25521 159.753
116.469 26081 161.496
116.586 26204 161.876
116.704 26088 161.518
116.821 25163 158.628
116.939 24188 155.525
117.056 22649 150.496
117.174 21039 145.048
117.291 20237 142.257
117.409 19816 140.769
117.526 19943 141.22
117.644 22631 150.436
117.761 25130 158.524
117.879 27414 165.572
117.996 28024 167.404
118.114 29000 170.294
118.231 30061 173.381
118.349 30550 174.786
118.466 30425 174.428
118.584 30655 175.086
118.701 30383 174.307
118.819 29999 173.202
118.936 28811 169.738
119.053 28092 167.607
119.171 27036 164.426
119.288 25913 160.975
119.405 24793 157.458
119.523 23706 153.968
119.64 23861 154.47
119.757 24621 156.911
119.875 25371 159.283
119.992 26104 161.567
120.109 26316 162.222
120.226 25902 160.941
120.343 25619 160.059
120.46 25261 158.937
120.578 24368 156.103
120.695 23250 152.48
120.812 22076 148.58
120.929 21070 145.155
121.046 20725 143.962
121.163 20508 143.206
121.279 21479 146.557
121.396 23908 154.622
121.513 25883 160.882
121.63 27866 166.931
121.747 28471 168.734
121.863 29049 170.438
121.98 29371 171.38
122.097 29966 173.107
122.213 29776 172.557
122.33 29455 171.625
122.446 28863 169.891
122.563 28337 168.336
122.679 27777 166.664
122.795 27383 165.478
122.912 26196 161.852
123.028 25139 158.553
123.144 23918 154.654
123.26 23461 153.17
123.377 0 1
123.493 0 1
123.609 0 1
123.725 0 1
123.84 0 1
123.956 0 1
124.072 0 1
124.188 0 1
124.303 0 1
124.419 0 1
126.852 0 1
126.968 0 1
127.083 0 1
127.199 0 1
127.315 0 1
127.431 0 1
127.547 0 1
127.663 0 1
127.779 0 1
127.895 0 1
128.011 0 1
128.127 0 1
128.243 0 1
128.359 26938 164.128
128.476 25912 160.972
128.592 25645 160.141
128.708 26387 162.441
128.825 27724 166.505
128.941 28296 168.214
129.058 28613 169.154
129.174 28280 168.167
129.291 27846 166.871
129.408 27317 165.279
129.524 26926 164.091
129.641 26104 161.567
129.758 25012 158.152
129.875 23810 154.305
129.992 22993 151.634
130.108 22603 150.343
130.225 23341 152.778
130.342 25431 159.471
130.459 26985 164.271
130.576 29662 172.227
130.693 29648 172.186
130.81 30382 174.304
130.928 30265 173.968
131.045 30569 174.84
131.162 30867 175.69
131.279 30782 175.448
131.396 30639 175.04
131.513 30076 173.424
131.631 29681 172.282
131.748 28876 169.929
131.865 28032 167.428
131.983 26497 162.779
132.1 26081 161.496
132.217 26603 163.104
132.335 27686 166.391
132.452 28635 169.219
132.57 28486 168.778
132.687 28424 168.594
132.804 28778 169.641
132.922 28193 167.908
133.039 27308 165.251
133.157 27276 165.154
133.274 26344 162.308
133.392 25368 159.273
133.509 24071 155.148
133.627 23481 153.235
133.744 23769 154.172
133.862 24855 157.655
133.979 26230 161.957
134.097 27982 167.278
134.214 28668 169.316
134.332 30198 173.776
134.449 29982 173.153
134.567 30360 174.241
134.684 30740 175.328
134.802 31155 176.508
134.919 31128 176.431
135.037 30717 175.263
135.154 29955 173.075
135.272 29529 171.84
135.389 28207 167.949
135.507 27256 165.094
135.624 26333 162.274
135.742 26479 162.724
135.859 27478 165.765
135.977 28574 169.038
136.094 28980 170.235
136.211 28990 170.265
136.329 29023 170.361
136.446 28602 169.121
136.564 28368 168.428
136.681 27979 167.269
136.798 27599 166.129
136.915 26618 163.15
137.033 25560 159.875
137.15 24335 155.997
137.267 23838 154.396
137.384 24017 154.974
137.502 24536 156.64
137.619 26332 162.271
137.736 27482 165.777
137.853 28128 167.714
137.97 29199 170.877
138.087 29482 171.703
138.204 29784 172.58
138.321 30304 174.08
138.438 30311 174.101
138.555 30731 175.303
138.672 30537 174.748
138.788 30076 173.424
138.905 29298 171.167
139.022 28776 169.635
139.139 27850 166.883
139.255 26621 163.159
139.372 26894 163.994
139.488 27418 165.584
139.605 28919 170.056
139.721 28849 169.85
139.838 28673 169.331
139.954 28850 169.853
140.071 28240 168.048
140.187 28374 168.446
140.303 27769 166.64
140.419 27325 165.303
140.535 26251 162.022
140.652 25190 158.714
140.768 0 1
140.884 0 1
141 0 1
141.115 0 1
141.231 0 1
141.347 0 1
141.463 0 1
141.578 0 1
141.694 0 1
144.104 0 1
144.219 0 1
144.335 0 1
144.45 0 1
144.566 0 1
144.682 0 1
144.798 0 1
144.914 0 1
145.03 0 1
145.146 19874 140.975
145.262 21418 146.349
145.378 21756 147.499
145.494 21416 146.342
145.61 21196 145.588
145.726 20969 144.807
145.842 20494 143.157
145.959 19941 141.213
146.075 19398 139.277
146.192 18903 137.488
146.308 19090 138.167
146.425 19425 139.374
146.541 20528 143.276
146.658 20709 143.906
146.774 21846 147.804
146.891 22349 149.496
147.008 23190 152.283
147.125 22933 151.436
147.241 23419 153.033
147.358 23959 154.787
147.475 23890 154.564
147.592 23779 154.204
147.709 23480 153.232
147.826 23391 152.941
147.943 22405 149.683
148.06 21703 147.319
148.177 20982 144.852
148.294 20921 144.641
148.411 21774 147.56
148.528 22669 150.562
148.645 23035 151.773
148.762 23087 151.944
148.88 22856 151.182
148.997 22474 149.913
149.114 23118 152.046
149.231 22898 151.321
149.349 22194 148.977
149.466 22623 150.409
149.583 22058 148.519
149.701 21364 146.164
149.818 20949 144.738
149.935 20414 142.878
150.053 19701 140.36
150.17 20000 141.421
150.287 20490 143.143
150.405 21301 145.949
150.522 22259 149.195
150.64 23078 151.914
150.757 23614 153.668
150.875 23898 154.59
150.992 24192 155.538
151.11 24716 157.213
151.227 24586 156.799
151.344 24281 155.824
151.462 23726 154.032
151.579 23865 154.483
151.697 22837 151.119
151.814 21858 147.845
151.932 21634 147.085
152.049 21866 147.872
152.167 22871 151.232
152.284 23740 154.078
152.402 23473 153.209
152.519 23735 154.062
152.636 23759 154.14
152.754 23893 154.574
152.871 24007 154.942
152.989 23876 154.519
153.106 23558 153.486
153.223 23516 153.349
153.341 22734 150.778
153.458 22328 149.426
153.575 21909 148.017
153.693 21736 147.431
153.81 21398 146.281
153.927 21788 147.608
154.044 22867 151.218
154.162 23633 153.73
154.279 24799 157.477
154.396 25818 160.68
154.513 26310 162.204
154.63 26881 163.954
154.747 27457 165.702
154.864 27372 165.445
154.981 27316 165.276
155.098 26866 163.909
155.215 26575 163.018
155.332 24954 157.968
155.449 24833 157.585
155.566 24728 157.251
155.683 25948 161.084
155.8 26426 162.561
155.917 26558 162.966
156.033 26380 162.419
156.15 0 1
156.267 0 1
156.383 0 1
156.5 0 1
156.617 0 1
156.733 0 1
156.85 0 1
156.966 0 1
157.082 0 1
157.199 0 1
157.315 0 1
157.431 0 1
157.547 0 1
157.664 0 1
157.78 0 1
157.896 0 1
158.012 0 1
158.128 0 1
158.244 0 1
158.359 0 1
158.475 0 1
158.591 0 1
158.706 0 1
