
6.15755 0 1
6.2731 0 1
6.3887 0 1
6.50437 0 1
6.62009 0 1
6.73587 0 1
6.8517 0 1
6.96759 0 1
7.08353 0 1
7.19952 0 1
7.31557 0 1
7.43166 0 1
7.54781 0 1
7.664 0 1
7.78024 0 1
7.89653 0 1
8.01286 0 1
8.12924 0 1
8.24567 0 1
8.36213 0 1
8.47864 0 1
8.59519 0 1
8.71178 0 1
8.82841 0 1
8.94508 0 1
9.06179 0 1
9.17853 0 1
9.29531 0 1
9.41212 0 1
9.52897 0 1
9.64584 0 1
9.76276 0 1
9.8797 0 1
9.99667 0 1
10.1137 0 1
10.2307 0 1
10.3478 0 1
10.4648 0 1
10.5819 0 1
10.6991 0 1
10.8162 0 1
10.9334 0 1
11.0506 0 1
11.1678 0 1
11.285 0 1
11.4023 0 1
11.5196 0 1
11.6369 0 1
11.7542 0 1
11.8715 0 1
11.9888 0 1
12.1062 0 1
12.2235 0 1
12.3409 0 1
12.4582 0 1
12.5756 0 1
12.693 0 1
12.8104 0 1
12.9278 0 1
13.0452 0 1
13.1626 0 1
13.28 0 1
13.3974 0 1
13.5149 0 1
13.6323 0 1
13.7497 0 1
13.8671 0 1
13.9845 0 1
14.1019 0 1
14.2193 0 1
14.3367 0 1
14.4541 0 1
14.5714 0 1
14.6888 0 1
14.8062 0 1
14.9235 0 1
15.0408 1080 32.8634
15.1581 1115 33.3916
15.2755 1126 33.5559
15.3927 1130 33.6155
15.51 1096 33.1059
15.6273 1065 32.6343
15.7445 1085 32.9393
15.8617 1069 32.6956
15.9789 1070 32.7109
16.0961 1053 32.45
16.2132 1048 32.3728
16.3304 970 31.1448
16.4475 976 31.241
16.5646 997 31.5753
16.6816 984 31.3688
16.7986 932 30.5287
16.9156 1012 31.8119
17.0326 971 31.1609
17.1496 965 31.0644
17.2665 924 30.3974
17.3833 953 30.8707
17.5002 947 30.7734
17.617 989 31.4484
17.7338 946 30.7571
17.8505 990 31.4643
17.9672 969 31.1288
18.0839 943 30.7083
18.2005 956 30.9192
18.3171 1005 31.7017
18.4337 973 31.1929
18.5502 966 31.0805
18.6666 968 31.1127
18.7831 936 30.5941
18.8994 947 30.7734
19.0158 861 29.3428
19.1321 894 29.8998
19.2483 831 28.8271
19.3645 842 29.0172
19.4806 789 28.0891
19.5967 786 28.0357
19.7128 700 26.4575
19.8288 640 25.2982
19.9447 603 24.5561
20.0606 0 1
20.1764 0 1
20.2922 0 1
20.4079 0 1
20.5236 0 1
20.6392 0 1
20.7548 0 1
20.8702 0 1
23.3078 0 1
23.4233 0 1
23.539 0 1
23.6547 0 1
23.7704 0 1
23.8862 0 1
24.0021 0 1
24.118 0 1
24.234 0 1
24.35 0 1
24.4661 398 19.9499
24.5822 493 22.2036
24.6984 492 22.1811
24.8146 549 23.4307
24.9309 637 25.2389
25.0472 683 26.1343
25.1636 761 27.5862
25.28 824 28.7054
25.3965 882 29.6985
25.513 992 31.496
25.6296 1008 31.749
25.7462 998 31.5911
25.8628 942 30.692
25.9795 1021 31.9531
26.0962 1037 32.2025
26.213 1018 31.9061
26.3298 977 31.257
26.4466 883 29.7153
26.5635 871 29.5127
26.6804 877 29.6142
26.7973 794 28.178
26.9143 813 28.5132
27.0313 799 28.2666
27.1483 811 28.4781
27.2653 841 29
27.3824 857 29.2746
27.4996 949 30.8058
27.6167 897 29.95
27.7339 797 28.2312
27.8511 792 28.1425
27.9683 846 29.0861
28.0855 917 30.282
28.2028 898 29.9666
28.3201 900 30
28.4374 829 28.7924
28.5547 843 29.0345
28.6721 806 28.3901
28.7894 831 28.8271
28.9068 923 30.3809
29.0242 806 28.3901
29.1416 912 30.1993
29.259 869 29.4788
29.3764 868 29.4618
29.4939 879 29.6479
29.6113 891 29.8496
29.7288 867 29.4449
29.8463 821 28.6531
29.9638 816 28.5657
30.0812 872 29.5296
30.1987 826 28.7402
30.3162 837 28.931
30.4337 806 28.3901
30.5512 829 28.7924
30.6687 782 27.9643
30.7862 825 28.7228
30.9037 880 29.6648
31.0212 908 30.133
31.1387 857 29.2746
31.2562 863 29.3769
31.3737 848 29.1204
31.4912 899 29.9833
31.6087 951 30.8383
31.7262 842 29.0172
31.8436 852 29.189
31.9611 792 28.1425
32.0785 797 28.2312
32.1959 793 28.1603
32.3134 775 27.8388
32.4308 781 27.9464
32.5482 772 27.7849
32.6655 815 28.5482
32.7829 803 28.3373
32.9002 798 28.2489
33.0176 781 27.9464
33.1349 770 27.7489
33.2522 761 27.5862
33.3694 816 28.5657
33.4867 763 27.6225
33.6039 793 28.1603
33.7211 767 27.6948
33.8383 778 27.8927
33.9554 821 28.6531
34.0725 751 27.4044
34.1896 732 27.0555
34.3067 734 27.0924
34.4237 782 27.9643
34.5407 759 27.55
34.6577 827 28.7576
34.7746 817 28.5832
34.8915 806 28.3901
35.0084 800 28.2843
35.1252 754 27.4591
35.242 857 29.2746
35.3587 876 29.5973
35.4755 789 28.0891
35.5921 731 27.037
35.7088 745 27.2947
35.8254 780 27.9285
35.9419 745 27.2947
36.0584 767 27.6948
36.1749 705 26.5518
36.2913 751 27.4044
36.4077 745 27.2947
36.524 721 26.8514
36.6403 697 26.4008
36.7565 635 25.1992
36.8727 643 25.3574
36.9889 565 23.7697
37.1049 495 22.2486
37.221 0 1
37.3369 0 1
37.4529 0 1
37.5687 0 1
37.6845 0 1
37.8003 0 1
37.916 0 1
38.0316 0 1
38.1472 0 1
40.5851 0 1
40.7008 0 1
40.8164 0 1
40.9322 0 1
41.048 0 1
41.1639 0 1
41.2798 0 1
41.3958 0 1
41.5118 0 1
41.6279 0 1
41.744 281 16.7631
41.8602 379 19.4679
41.9765 457 21.3776
42.0928 511 22.6053
42.2091 518 22.7596
42.3255 594 24.3721
42.4419 613 24.7588
42.5584 601 24.5153
42.675 605 24.5967
42.7915 591 24.3105
42.9081 606 24.6171
43.0248 612 24.7386
43.1415 599 24.4745
43.2582 600 24.4949
43.375 600 24.4949
43.4918 656 25.6125
43.6087 559 23.6432
43.7256 613 24.7588
43.8425 588 24.2487
43.9595 610 24.6982
44.0765 656 25.6125
44.1935 657 25.632
44.3106 613 24.7588
44.4277 600 24.4949
44.5448 544 23.3238
44.6619 522 22.8473
44.7791 582 24.1247
44.8963 600 24.4949
45.0136 588 24.2487
45.1308 621 24.9199
45.2481 581 24.1039
45.3654 634 25.1794
45.4827 654 25.5734
45.6001 643 25.3574
45.7174 651 25.5147
45.8348 631 25.1197
45.9522 686 26.1916
46.0697 640 25.2982
46.1871 648 25.4558
46.3046 606 24.6171
46.422 645 25.3969
46.5395 596 24.4131
46.657 498 22.3159
46.7745 516 22.7156
46.892 575 23.9792
47.0096 605 24.5967
47.1271 592 24.3311
47.2446 624 24.98
47.3622 554 23.5372
47.4797 601 24.5153
47.5973 612 24.7386
47.7149 538 23.1948
47.8324 552 23.4947
47.95 499 22.3383
48.0675 541 23.2594
48.1851 521 22.8254
48.3027 536 23.1517
48.4202 531 23.0434
48.5378 531 23.0434
48.6554 609 24.6779
48.7729 621 24.9199
48.8904 628 25.0599
49.008 577 24.0208
49.1255 624 24.98
49.243 589 24.2693
49.3605 609 24.6779
49.478 642 25.3377
49.5955 622 24.9399
49.713 565 23.7697
49.8304 521 22.8254
49.9479 515 22.6936
50.0653 487 22.0681
50.1827 465 21.5639
50.3001 529 23
50.4175 511 22.6053
50.5348 525 22.9129
50.6521 565 23.7697
50.7694 569 23.8537
50.8867 565 23.7697
51.004 548 23.4094
51.1212 566 23.7908
51.2384 549 23.4307
51.3556 533 23.0868
51.4727 522 22.8473
51.5899 542 23.2809
51.707 495 22.2486
51.824 493 22.2036
51.9411 495 22.2486
52.0581 532 23.0651
52.175 580 24.0832
52.2919 538 23.1948
52.4088 598 24.454
52.5257 585 24.1868
52.6425 560 23.6643
52.7593 576 24
52.876 572 23.9165
52.9927 606 24.6171
53.1094 611 24.7184
53.226 551 23.4734
53.3426 527 22.9565
53.4591 580 24.0832
53.5756 518 22.7596
53.692 445 21.095
53.8084 403 20.0749
53.9248 388 19.6977
54.0411 368 19.1833
54.1573 380 19.4936
54.2735 0 1
54.3896 0 1
54.5057 0 1
54.6217 0 1
54.7377 0 1
54.8537 0 1
54.9695 0 1
55.0853 0 1
55.2011 0 1
55.3168 0 1
55.4324 0 1
57.824 0 1
57.9396 0 1
58.0553 0 1
58.1711 0 1
58.2869 0 1
58.4028 0 1
58.5187 0 1
58.6347 0 1
58.7508 0 1
58.8669 0 1
58.983 595 24.3926
59.0992 744 27.2764
59.2155 854 29.2233
59.3318 1062 32.5883
59.4482 1135 33.6898
59.5646 1209 34.7707
59.681 1330 36.4692
59.7975 1405 37.4833
59.9141 1474 38.3927
60.0306 1458 38.1838
60.1473 1575 39.6863
60.2639 1473 38.3797
60.3807 1334 36.524
60.4974 1318 36.3043
60.6142 1500 38.7298
60.731 1927 43.8976
60.8479 2613 51.1175
60.9648 3349 57.8705
61.0818 4033 63.5059
61.1987 4670 68.3374
61.3158 5387 73.3962
61.4328 5814 76.2496
61.5499 6473 80.455
61.667 6733 82.0549
61.7841 7026 83.8212
61.9013 7032 83.857
62.0185 6595 81.2096
62.1357 5923 76.961
62.253 4911 70.0785
62.3702 4006 63.293
62.4875 3230 56.8331
62.6049 2895 53.8052
62.7222 2655 51.5267
62.8396 2459 49.5883
62.9569 2181 46.7012
63.0743 2074 45.5412
63.1918 1837 42.8602
63.3092 1642 40.5216
63.4267 1557 39.4588
63.5441 1416 37.6298
63.6616 1233 35.1141
63.7791 1138 33.7343
63.8966 979 31.289
64.0142 949 30.8058
64.1317 857 29.2746
64.2492 828 28.775
64.3668 763 27.6225
64.4843 790 28.1069
64.6019 745 27.2947
64.7195 730 27.0185
64.837 728 26.9815
64.9546 743 27.258
65.0722 723 26.8887
65.1898 719 26.8142
65.3074 719 26.8142
65.4249 775 27.8388
65.5425 712 26.6833
65.6601 762 27.6043
65.7777 687 26.2107
65.8952 661 25.7099
66.0128 639 25.2784
66.1304 696 26.3818
66.2479 664 25.7682
66.3655 714 26.7208
66.483 741 27.2213
66.6005 689 26.2488
66.718 717 26.7769
66.8355 744 27.2764
66.953 708 26.6083
67.0705 743 27.258
67.1879 737 27.1477
67.3054 655 25.593
67.4228 648 25.4558
67.5402 668 25.8457
67.6576 630 25.0998
67.7749 664 25.7682
67.8923 635 25.1992
68.0096 661 25.7099
68.1269 688 26.2298
68.2442 695 26.3629
68.3614 654 25.5734
68.4787 705 26.5518
68.5958 722 26.8701
68.713 691 26.2869
68.8302 691 26.2869
68.9473 706 26.5707
69.0643 685 26.1725
69.1814 690 26.2679
69.2984 651 25.5147
69.4154 647 25.4362
69.5323 570 23.8747
69.6492 614 24.779
69.7661 641 25.318
69.8829 644 25.3772
69.9997 685 26.1725
70.1165 718 26.7955
70.2332 734 27.0924
70.3499 633 25.1595
70.4665 652 25.5343
70.5831 603 24.5561
70.6996 586 24.2074
70.8161 519 22.7816
70.9326 428 20.6882
71.049 413 20.3224
71.1653 354 18.8149
71.2817 318 17.8326
71.3979 315 17.7482
71.5141 298 17.2627
71.6303 263 16.2173
71.7464 232 15.2315
71.8624 0 1
71.9784 0 1
72.0944 0 1
72.2102 0 1
72.3261 0 1
72.4418 0 1
72.5575 0 1
72.6732 0 1
75.1054 0 1
75.2209 0 1
75.3365 0 1
75.4521 0 1
75.5678 0 1
75.6835 0 1
75.7993 0 1
75.9151 0 1
76.031 0 1
76.147 399 19.975
76.263 458 21.4009
76.3791 454 21.3073
76.4952 460 21.4476
76.6113 454 21.3073
76.7276 445 21.095
76.8438 522 22.8473
76.9601 534 23.1084
77.0765 585 24.1868
77.1929 557 23.6008
77.3093 563 23.7276
77.4258 581 24.1039
77.5423 610 24.6982
77.6589 603 24.5561
77.7755 541 23.2594
77.8921 629 25.0799
78.0088 612 24.7386
78.1256 644 25.3772
78.2423 587 24.2281
78.3591 511 22.6053
78.4759 537 23.1733
78.5928 511 22.6053
78.7097 509 22.561
78.8266 483 21.9773
78.9436 560 23.6643
79.0606 523 22.8692
79.1776 546 23.3666
79.2946 540 23.2379
79.4117 588 24.2487
79.5288 591 24.3105
79.6459 589 24.2693
79.7631 567 23.8118
79.8802 523 22.8692
79.9974 550 23.4521
80.1147 495 22.2486
80.2319 527 22.9565
80.3491 551 23.4734
80.4664 557 23.6008
80.5837 573 23.9374
80.701 633 25.1595
80.8183 572 23.9165
80.9357 591 24.3105
81.053 544 23.3238
81.1704 565 23.7697
81.2877 609 24.6779
81.4051 591 24.3105
81.5225 606 24.6171
81.6399 629 25.0799
81.7573 597 24.4336
81.8747 573 23.9374
81.9922 602 24.5357
82.1096 513 22.6495
82.227 507 22.5167
82.3444 531 23.0434
82.4619 583 24.1454
82.5793 528 22.9783
82.6967 589 24.2693
82.8142 559 23.6432
82.9316 612 24.7386
83.049 631 25.1197
83.1664 563 23.7276
83.2838 609 24.6779
83.4012 619 24.8797
83.5186 580 24.0832
83.636 582 24.1247
83.7534 488 22.0907
83.8708 495 22.2486
83.9881 573 23.9374
84.1055 601 24.5153
84.2228 616 24.8193
84.3401 578 24.0416
84.4575 540 23.2379
84.5747 616 24.8193
84.692 574 23.9583
84.8093 603 24.5561
84.9265 645 25.3969
85.0437 624 24.98
85.1609 626 25.02
85.2781 616 24.8193
85.3952 606 24.6171
85.5123 581 24.1039
85.6294 521 22.8254
85.7465 554 23.5372
85.8636 553 23.516
85.9806 543 23.3024
86.0976 578 24.0416
86.2145 614 24.779
86.3315 631 25.1197
86.4484 594 24.3721
86.5652 579 24.0624
86.682 621 24.9199
86.7988 640 25.2982
86.9156 667 25.8263
87.0323 601 24.5153
87.149 577 24.0208
87.2657 559 23.6432
87.3823 542 23.2809
87.4988 498 22.3159
87.6154 499 22.3383
87.7318 550 23.4521
87.8483 522 22.8473
87.9647 495 22.2486
88.081 463 21.5174
88.1973 453 21.2838
88.3136 444 21.0713
88.4298 415 20.3715
88.546 370 19.2354
88.6621 352 18.7617
88.7781 317 17.8045
88.8942 0 1
89.0101 0 1
89.126 0 1
89.2419 0 1
89.3577 0 1
89.4734 0 1
89.5891 0 1
89.7047 0 1
89.8203 0 1
89.9358 0 1
92.3269 0 1
92.4424 0 1
92.558 0 1
92.6736 0 1
92.7893 0 1
92.905 0 1
93.0208 0 1
93.1366 0 1
93.2525 0 1
93.3685 0 1
93.4845 0 1
93.6005 469 21.6564
93.7167 472 21.7256
93.8328 506 22.4944
93.949 502 22.4054
94.0653 594 24.3721
94.1816 564 23.7487
94.2979 614 24.779
94.4143 573 23.9374
94.5307 584 24.1661
94.6472 588 24.2487
94.7637 560 23.6643
94.8803 533 23.0868
94.9969 572 23.9165
95.1135 562 23.7065
95.2302 555 23.5584
95.3469 549 23.4307
95.4637 607 24.6374
95.5805 663 25.7488
95.6973 617 24.8395
95.8142 563 23.7276
95.9311 644 25.3772
96.048 628 25.0599
96.1649 599 24.4745
96.2819 555 23.5584
96.3989 558 23.622
96.516 558 23.622
96.633 624 24.98
96.7501 616 24.8193
96.8673 640 25.2982
96.9844 587 24.2281
97.1016 629 25.0799
97.2188 566 23.7908
97.336 592 24.3311
97.4532 575 23.9792
97.5704 586 24.2074
97.6877 645 25.3969
97.805 651 25.5147
97.9223 585 24.1868
98.0396 624 24.98
98.1569 603 24.5561
98.2743 589 24.2693
98.3916 551 23.4734
98.509 558 23.622
98.6264 594 24.3721
98.7438 579 24.0624
98.8612 586 24.2074
98.9786 600 24.4949
99.096 672 25.923
99.2134 630 25.0998
99.3308 663 25.7488
99.4482 623 24.96
99.5656 672 25.923
99.6831 600 24.4949
99.8005 581 24.1039
99.9179 606 24.6171
100.035 608 24.6577
100.153 597 24.4336
100.27 661 25.7099
100.388 674 25.9615
100.505 628 25.0599
100.622 606 24.6171
100.74 587 24.2281
100.857 627 25.04
100.975 600 24.4949
101.092 617 24.8395
101.209 570 23.8747
101.327 645 25.3969
101.444 657 25.632
101.561 650 25.4951
101.679 612 24.7386
101.796 610 24.6982
101.913 604 24.5764
102.03 586 24.2074
102.148 568 23.8328
102.265 613 24.7588
102.382 573 23.9374
102.499 607 24.6374
102.616 650 25.4951
102.733 677 26.0192
102.851 676 26
102.968 636 25.219
103.085 625 25
103.202 598 24.454
103.319 606 24.6171
103.436 627 25.04
103.552 634 25.1794
103.669 638 25.2587
103.786 607 24.6374
103.903 679 26.0576
104.02 676 26
104.137 672 25.923
104.253 636 25.219
104.37 627 25.04
104.487 649 25.4755
104.603 679 26.0576
104.72 645 25.3969
104.836 609 24.6779
104.953 620 24.8998
105.069 589 24.2693
105.186 543 23.3024
105.302 576 24
105.418 488 22.0907
105.535 462 21.4942
105.651 415 20.3715
105.767 434 20.8327
105.883 381 19.5192
105.999 331 18.1934
106.115 0 1
106.231 0 1
106.347 0 1
106.463 0 1
106.579 0 1
106.694 0 1
106.81 0 1
106.926 0 1
107.041 0 1
107.157 0 1
109.576 0 1
109.692 0 1
109.807 0 1
109.923 0 1
110.039 0 1
110.155 0 1
110.27 0 1
110.386 0 1
110.502 0 1
110.618 314 17.72
110.735 342 18.4932
110.851 402 20.0499
110.967 472 21.7256
111.083 524 22.891
111.199 539 23.2164
111.316 553 23.516
111.432 623 24.96
111.549 678 26.0384
111.665 613 24.7588
111.782 594 24.3721
111.898 574 23.9583
112.015 590 24.2899
112.132 580 24.0832
112.248 635 25.1992
112.365 643 25.3574
112.482 636 25.219
112.599 595 24.3926
112.716 613 24.7588
112.832 577 24.0208
112.949 584 24.1661
113.066 582 24.1247
113.183 564 23.7487
113.3 549 23.4307
113.417 551 23.4734
113.534 559 23.6432
113.652 562 23.7065
113.769 571 23.8956
113.886 550 23.4521
114.003 551 23.4734
114.12 511 22.6053
114.238 480 21.9089
114.355 507 22.5167
114.472 550 23.4521
114.589 532 23.0651
114.707 512 22.6274
114.824 597 24.4336
114.942 579 24.0624
115.059 577 24.0208
115.176 560 23.6643
115.294 529 23
115.411 512 22.6274
115.529 554 23.5372
115.646 499 22.3383
115.764 551 23.4734
115.881 519 22.7816
115.999 524 22.891
116.116 559 23.6432
116.234 575 23.9792
116.351 513 22.6495
116.469 513 22.6495
116.586 530 23.0217
116.704 473 21.7486
116.821 495 22.2486
116.939 516 22.7156
117.056 501 22.383
117.174 512 22.6274
117.291 534 23.1084
117.409 531 23.0434
117.526 463 21.5174
117.644 488 22.0907
117.761 478 21.8632
117.879 510 22.5832
117.996 451 21.2368
118.114 505 22.4722
118.231 487 22.0681
118.349 513 22.6495
118.466 480 21.9089
118.584 577 24.0208
118.701 537 23.1733
118.819 494 22.2261
118.936 467 21.6102
119.053 449 21.1896
119.171 503 22.4277
119.288 482 21.9545
119.405 497 22.2935
119.523 525 22.9129
119.64 521 22.8254
119.757 522 22.8473
119.875 483 21.9773
119.992 473 21.7486
120.109 497 22.2935
120.226 501 22.383
120.343 467 21.6102
120.46 487 22.0681
120.578 479 21.8861
120.695 460 21.4476
120.812 489 22.1133
120.929 472 21.7256
121.046 465 21.5639
121.163 476 21.8174
121.279 435 20.8567
121.396 412 20.2978
121.513 428 20.6882
121.63 416 20.3961
121.747 413 20.3224
121.863 430 20.7364
121.98 433 20.8087
122.097 391 19.7737
122.213 412 20.2978
122.33 425 20.6155
122.446 363 19.0526
122.563 340 18.4391
122.679 336 18.3303
122.795 310 17.6068
122.912 277 16.6433
123.028 256 16
123.144 265 16.2788
123.26 262 16.1864
123.377 0 1
123.493 0 1
123.609 0 1
123.725 0 1
123.84 0 1
123.956 0 1
124.072 0 1
124.188 0 1
124.303 0 1
124.419 0 1
126.852 0 1
126.968 0 1
127.083 0 1
127.199 0 1
127.315 0 1
127.431 0 1
127.547 0 1
127.663 0 1
127.779 0 1
127.895 0 1
128.011 0 1
128.127 0 1
128.243 0 1
128.359 547 23.388
128.476 554 23.5372
128.592 593 24.3516
128.708 538 23.1948
128.825 552 23.4947
128.941 562 23.7065
129.058 601 24.5153
129.174 664 25.7682
129.291 605 24.5967
129.408 702 26.4953
129.524 811 28.4781
129.641 972 31.1769
129.758 1168 34.176
129.875 1494 38.6523
129.992 1725 41.5331
130.108 2265 47.592
130.225 2698 51.9423
130.342 3474 58.9406
130.459 4037 63.5374
130.576 4960 70.4273
130.693 6018 77.5758
130.81 7152 84.5695
130.928 8458 91.9674
131.045 10477 102.357
131.162 12465 111.647
131.279 14324 119.683
131.396 16105 126.905
131.513 18296 135.263
131.631 20779 144.149
131.748 24834 157.588
131.865 28905 170.015
131.983 34177 184.87
132.1 39001 197.487
132.217 44179 210.188
132.335 48653 220.574
132.452 53664 231.655
132.57 56173 237.008
132.687 58442 241.748
132.804 62062 249.122
132.922 62209 249.417
133.039 62337 249.674
133.157 62596 250.192
133.274 60948 246.876
133.392 59161 243.23
133.509 56705 238.128
133.627 53966 232.306
133.744 51630 227.222
133.862 50994 225.819
133.979 50299 224.274
134.097 50642 225.038
134.214 50750 225.278
134.332 49665 222.856
134.449 47673 218.341
134.567 44732 211.499
134.684 41318 203.268
134.802 40158 200.395
134.919 40344 200.858
135.037 39924 199.81
135.154 39005 197.497
135.272 37504 193.659
135.389 36213 190.297
135.507 34832 186.633
135.624 34127 184.735
135.742 32993 181.64
135.859 31793 178.306
135.977 30444 174.482
136.094 29216 170.927
136.211 27602 166.138
136.329 26290 162.142
136.446 24228 155.653
136.564 22754 150.844
136.681 20904 144.582
136.798 19399 139.28
136.915 18275 135.185
137.033 16909 130.035
137.15 15425 124.197
137.267 14199 119.16
137.384 12942 113.763
137.502 11423 106.878
137.619 9879 99.3932
137.736 9139 95.5981
137.853 8112 90.0666
137.97 7991 89.3924
138.087 7773 88.1646
138.204 7095 84.2318
138.321 6372 79.8248
138.438 5811 76.2299
138.555 6391 79.9437
138.672 6429 80.181
138.788 6128 78.2815
138.905 5684 75.3923
139.022 5029 70.9154
139.139 4797 69.2604
139.255 4578 67.6609
139.372 4323 65.7495
139.488 3797 61.6198
139.605 3469 58.8982
139.721 3076 55.4617
139.838 2993 54.7083
139.954 2741 52.3546
140.071 2434 49.3356
140.187 2313 48.0937
140.303 2111 45.9456
140.419 2025 45
140.535 1905 43.6463
140.652 1815 42.6028
140.768 0 1
140.884 0 1
141 0 1
141.115 0 1
141.231 0 1
141.347 0 1
141.463 0 1
141.578 0 1
141.694 0 1
144.104 0 1
144.219 0 1
144.335 0 1
144.45 0 1
144.566 0 1
144.682 0 1
144.798 0 1
144.914 0 1
145.03 0 1
145.146 1497 38.6911
145.262 1570 39.6232
145.378 1640 40.4969
145.494 1627 40.3361
145.61 1671 40.8779
145.726 1684 41.0366
145.842 1716 41.4246
145.959 1645 40.5586
146.075 1646 40.5709
146.192 1755 41.8927
146.308 1675 40.9268
146.425 1683 41.0244
146.541 1632 40.398
146.658 1648 40.5956
146.774 1626 40.3237
146.891 1690 41.1096
147.008 1791 42.3202
147.125 1747 41.7971
147.241 1758 41.9285
147.358 1973 44.4185
147.475 1914 43.7493
147.592 1926 43.8862
147.709 1720 41.4729
147.826 1656 40.694
147.943 1647 40.5832
148.06 1642 40.5216
148.177 1781 42.2019
148.294 1865 43.1856
148.411 1908 43.6807
148.528 1980 44.4972
148.645 2061 45.3982
148.762 1954 44.2041
148.88 2050 45.2769
148.997 1951 44.1701
149.114 1973 44.4185
149.231 2019 44.9333
149.349 2007 44.7996
149.466 2061 45.3982
149.583 1966 44.3396
149.701 1997 44.6878
149.818 1983 44.5309
149.935 2033 45.0888
150.053 1922 43.8406
150.17 1886 43.4281
150.287 1810 42.5441
150.405 1812 42.5676
150.522 1760 41.9524
150.64 1852 43.0349
150.757 1877 43.3244
150.875 1889 43.4626
150.992 1881 43.3705
151.11 1873 43.2782
151.227 1797 42.391
151.344 1706 41.3038
151.462 1615 40.1871
151.579 1510 38.8587
151.697 1523 39.0256
151.814 1667 40.8289
151.932 1691 41.1218
152.049 1755 41.8927
152.167 1824 42.7083
152.284 1818 42.638
152.402 1817 42.6263
152.519 1820 42.6615
152.636 1813 42.5793
152.754 1867 43.2088
152.871 1773 42.107
152.989 1754 41.8808
153.106 1814 42.5911
153.223 1746 41.7852
153.341 1768 42.0476
153.458 1727 41.5572
153.575 1642 40.5216
153.693 1559 39.4842
153.81 1472 38.3667
153.927 1550 39.37
154.044 1506 38.8072
154.162 1499 38.7169
154.279 1554 39.4208
154.396 1584 39.7995
154.513 1630 40.3733
154.63 1642 40.5216
154.747 1615 40.1871
154.864 1593 39.9124
154.981 1525 39.0512
155.098 1515 38.923
155.215 1435 37.8814
155.332 1434 37.8682
155.449 1531 39.128
155.566 1542 39.2683
155.683 1556 39.4462
155.8 1631 40.3856
155.917 1543 39.281
156.033 1579 39.7366
156.15 0 1
156.267 0 1
156.383 0 1
156.5 0 1
156.617 0 1
156.733 0 1
156.85 0 1
156.966 0 1
157.082 0 1
157.199 0 1
157.315 0 1
157.431 0 1
157.547 0 1
157.664 0 1
157.78 0 1
157.896 0 1
158.012 0 1
158.128 0 1
158.244 0 1
158.359 0 1
158.475 0 1
158.591 0 1
158.706 0 1
