
6.15755 0 1
6.2731 0 1
6.3887 0 1
6.50437 0 1
6.62009 0 1
6.73587 0 1
6.8517 0 1
6.96759 0 1
7.08353 0 1
7.19952 0 1
7.31557 0 1
7.43166 0 1
7.54781 0 1
7.664 0 1
7.78024 0 1
7.89653 0 1
8.01286 0 1
8.12924 0 1
8.24567 0 1
8.36213 0 1
8.47864 0 1
8.59519 0 1
8.71178 0 1
8.82841 0 1
8.94508 0 1
9.06179 0 1
9.17853 0 1
9.29531 0 1
9.41212 0 1
9.52897 0 1
9.64584 0 1
9.76276 0 1
9.8797 0 1
9.99667 0 1
10.1137 0 1
10.2307 0 1
10.3478 0 1
10.4648 0 1
10.5819 0 1
10.6991 0 1
10.8162 0 1
10.9334 0 1
11.0506 0 1
11.1678 0 1
11.285 0 1
11.4023 0 1
11.5196 0 1
11.6369 0 1
11.7542 0 1
11.8715 0 1
11.9888 0 1
12.1062 0 1
12.2235 0 1
12.3409 0 1
12.4582 0 1
12.5756 0 1
12.693 0 1
12.8104 0 1
12.9278 0 1
13.0452 0 1
13.1626 0 1
13.28 0 1
13.3974 0 1
13.5149 0 1
13.6323 0 1
13.7497 0 1
13.8671 0 1
13.9845 0 1
14.1019 0 1
14.2193 0 1
14.3367 0 1
14.4541 0 1
14.5714 0 1
14.6888 0 1
14.8062 0 1
14.9235 0 1
15.0408 24418 156.263
15.1581 24707 157.185
15.2755 25335 159.17
15.3927 25567 159.897
15.51 25604 160.012
15.6273 24960 157.987
15.7445 24935 157.908
15.8617 24684 157.111
15.9789 23909 154.625
16.0961 23802 154.279
16.2132 23398 152.964
16.3304 23722 154.019
16.4475 23970 154.822
16.5646 24349 156.042
16.6816 24560 156.716
16.7986 24682 157.105
16.9156 24640 156.971
17.0326 24837 157.598
17.1496 25166 158.638
17.2665 25615 160.047
17.3833 25822 160.692
17.5002 25802 160.63
17.617 26116 161.604
17.7338 26745 163.539
17.8505 27869 166.94
17.9672 28926 170.076
18.0839 29898 172.91
18.2005 31172 176.556
18.3171 31864 178.505
18.4337 31566 177.668
18.5502 31961 178.776
18.6666 31807 178.345
18.7831 31273 176.842
18.8994 30890 175.756
19.0158 29697 172.328
19.1321 28754 169.57
19.2483 27953 167.192
19.3645 27494 165.813
19.4806 26513 162.828
19.5967 25535 159.797
19.7128 25586 159.956
19.8288 24740 157.29
19.9447 22138 148.788
20.0606 0 1
20.1764 0 1
20.2922 0 1
20.4079 0 1
20.5236 0 1
20.6392 0 1
20.7548 0 1
20.8702 0 1
23.3078 0 1
23.4233 0 1
23.539 0 1
23.6547 0 1
23.7704 0 1
23.8862 0 1
24.0021 0 1
24.118 0 1
24.234 0 1
24.35 0 1
24.4661 25900 160.935
24.5822 25936 161.047
24.6984 25592 159.975
24.8146 25481 159.628
24.9309 25451 159.534
25.0472 25238 158.865
25.1636 25196 158.732
25.28 25408 159.399
25.3965 25352 159.223
25.513 26191 161.836
25.6296 26965 164.21
25.7462 27688 166.397
25.8628 27698 166.427
25.9795 27945 167.168
26.0962 28150 167.78
26.213 28224 168
26.3298 28929 170.085
26.4466 29098 170.581
26.5635 29528 171.837
26.6804 30484 174.597
26.7973 30710 175.243
26.9143 30965 175.969
27.0313 30335 174.169
27.1483 30495 174.628
27.2653 30471 174.559
27.3824 30344 174.195
27.4996 29360 171.348
27.6167 28410 168.553
27.7339 27662 166.319
27.8511 26601 163.098
27.9683 25959 161.118
28.0855 25457 159.552
28.2028 25578 159.931
28.3201 24857 157.661
28.4374 24979 158.047
28.5547 24959 157.984
28.6721 25172 158.657
28.7894 24840 157.607
28.9068 24978 158.044
29.0242 25034 158.221
29.1416 25010 158.146
29.259 25031 158.212
29.3764 25268 158.959
29.4939 25656 160.175
29.6113 25859 160.807
29.7288 26193 161.843
29.8463 26991 164.289
29.9638 27511 165.864
30.0812 28151 167.783
30.1987 28703 169.42
30.3162 29125 170.66
30.4337 29282 171.12
30.5512 29417 171.514
30.6687 29024 170.364
30.7862 29251 171.029
30.9037 28035 167.437
31.0212 27854 166.895
31.1387 27167 164.824
31.2562 26413 162.521
31.3737 25543 159.822
31.4912 24831 157.579
31.6087 24582 156.786
31.7262 23942 154.732
31.8436 23991 154.89
31.9611 24212 155.602
32.0785 24262 155.763
32.1959 24534 156.633
32.3134 24849 157.636
32.4308 24459 156.394
32.5482 24571 156.751
32.6655 25050 158.272
32.7829 24705 157.178
32.9002 24855 157.655
33.0176 24522 156.595
33.1349 24635 156.955
33.2522 24877 157.724
33.3694 25130 158.524
33.4867 25775 160.546
33.6039 26424 162.555
33.7211 26790 163.677
33.8383 27459 165.708
33.9554 27804 166.745
34.0725 27941 167.156
34.1896 27309 165.254
34.3067 27353 165.387
34.4237 27017 164.368
34.5407 26518 162.843
34.6577 25943 161.068
34.7746 25492 159.662
34.8915 24742 157.296
35.0084 23909 154.625
35.1252 23229 152.411
35.242 23131 152.089
35.3587 22706 150.685
35.4755 22760 150.864
35.5921 22822 151.07
35.7088 23466 153.186
35.8254 23486 153.251
35.9419 24214 155.608
36.0584 24601 156.847
36.1749 24520 156.589
36.2913 24102 155.248
36.4077 24041 155.052
36.524 23230 152.414
36.6403 23131 152.089
36.7565 23313 152.686
36.8727 23382 152.912
36.9889 23656 153.805
37.1049 23457 153.157
37.221 0 1
37.3369 0 1
37.4529 0 1
37.5687 0 1
37.6845 0 1
37.8003 0 1
37.916 0 1
38.0316 0 1
38.1472 0 1
40.5851 0 1
40.7008 0 1
40.8164 0 1
40.9322 0 1
41.048 0 1
41.1639 0 1
41.2798 0 1
41.3958 0 1
41.5118 0 1
41.6279 0 1
41.744 18514 136.066
41.8602 19719 140.424
41.9765 20057 141.623
42.0928 19961 141.283
42.2091 20289 142.439
42.3255 20554 143.367
42.4419 20799 144.219
42.5584 21107 145.282
42.675 21998 148.317
42.7915 21990 148.29
42.9081 22343 149.476
43.0248 22328 149.426
43.1415 22584 150.28
43.2582 22742 150.805
43.375 22571 150.236
43.4918 22531 150.103
43.6087 22727 150.755
43.7256 22293 149.308
43.8425 21839 147.78
43.9595 21482 146.567
44.0765 21220 145.671
44.1935 21097 145.248
44.3106 21117 145.317
44.4277 20809 144.253
44.5448 20572 143.429
44.6619 20185 142.074
44.7791 19870 140.961
44.8963 19703 140.367
45.0136 19407 139.309
45.1308 19209 138.597
45.2481 19009 137.873
45.3654 18874 137.383
45.4827 18141 134.689
45.6001 17695 133.023
45.7174 17516 132.348
45.8348 17270 131.415
45.9522 17161 131
46.0697 16654 129.05
46.1871 16181 127.205
46.3046 16545 128.627
46.422 16626 128.942
46.5395 16521 128.534
46.657 16621 128.922
46.7745 16523 128.542
46.892 16286 127.617
47.0096 16113 126.937
47.1271 15963 126.345
47.2446 15792 125.666
47.3622 15569 124.776
47.4797 15475 124.399
47.5973 15214 123.345
47.7149 15074 122.776
47.8324 14863 121.914
47.95 14681 121.165
48.0675 14328 119.7
48.1851 14041 118.495
48.3027 13754 117.277
48.4202 13427 115.875
48.5378 13333 115.469
48.6554 13168 114.752
48.7729 13238 115.057
48.8904 12944 113.772
49.008 13057 114.267
49.1255 12814 113.199
49.243 12853 113.371
49.3605 12801 113.142
49.478 12793 113.106
49.5955 12873 113.459
49.713 12938 113.745
49.8304 13410 115.802
49.9479 13656 116.859
50.0653 13913 117.953
50.1827 14210 119.206
50.3001 14622 120.921
50.4175 14884 122
50.5348 14874 121.959
50.6521 15105 122.902
50.7694 15163 123.138
50.8867 15734 125.435
51.004 16127 126.992
51.1212 16578 128.756
51.2384 16992 130.353
51.3556 17366 131.78
51.4727 17792 133.387
51.5899 17706 133.064
51.707 17437 132.049
51.824 17588 132.62
51.9411 17411 131.951
52.0581 17211 131.191
52.175 17332 131.651
52.2919 17466 132.159
52.4088 17182 131.08
52.5257 16922 130.085
52.6425 16757 129.449
52.7593 16774 129.514
52.876 16835 129.75
52.9927 17137 130.908
53.1094 17367 131.784
53.226 17583 132.601
53.3426 18414 135.698
53.4591 19133 138.322
53.5756 19101 138.206
53.692 19394 139.262
53.8084 20075 141.686
53.9248 20683 143.816
54.0411 21167 145.489
54.1573 21155 145.448
54.2735 0 1
54.3896 0 1
54.5057 0 1
54.6217 0 1
54.7377 0 1
54.8537 0 1
54.9695 0 1
55.0853 0 1
55.2011 0 1
55.3168 0 1
55.4324 0 1
57.824 0 1
57.9396 0 1
58.0553 0 1
58.1711 0 1
58.2869 0 1
58.4028 0 1
58.5187 0 1
58.6347 0 1
58.7508 0 1
58.8669 0 1
58.983 23048 151.816
59.0992 24471 156.432
59.2155 24775 157.401
59.3318 25230 158.84
59.4482 25886 160.891
59.5646 26715 163.447
59.681 27339 165.345
59.7975 27774 166.655
59.9141 28051 167.484
60.0306 27394 165.511
60.1473 26896 164
60.2639 26123 161.626
60.3807 24993 158.092
60.4974 24300 155.885
60.6142 23630 153.721
60.731 22589 150.296
60.8479 21442 146.431
60.9648 20813 144.267
61.0818 20400 142.829
61.1987 20136 141.901
61.3158 20569 143.419
61.4328 21206 145.623
61.5499 21125 145.344
61.667 21273 145.853
61.7841 21642 147.112
61.9013 21779 147.577
62.0185 21787 147.604
62.1357 22129 148.758
62.253 22693 150.642
62.3702 22626 150.419
62.4875 22979 151.588
62.6049 23162 152.191
62.7222 23175 152.233
62.8396 24171 155.47
62.9569 25211 158.78
63.0743 26224 161.938
63.1918 26328 162.259
63.3092 26572 163.009
63.4267 26144 161.691
63.5441 26314 162.216
63.6616 25606 160.019
63.7791 24681 157.102
63.8966 23547 153.45
64.0142 22872 151.235
64.1317 21672 147.214
64.2492 20154 141.965
64.3668 19269 138.813
64.4843 19008 137.87
64.6019 18796 137.099
64.7195 18724 136.836
64.837 18797 137.102
64.9546 19432 139.399
65.0722 19511 139.682
65.1898 19649 140.175
65.3074 20159 141.982
65.4249 20025 141.51
65.5425 20283 142.418
65.6601 20790 144.187
65.7777 21111 145.296
65.8952 21321 146.017
66.0128 21611 147.007
66.1304 22037 148.449
66.2479 22202 149.003
66.3655 23024 151.737
66.483 24191 155.535
66.6005 24842 157.613
66.718 25286 159.016
66.8355 25649 160.153
66.953 25443 159.509
67.0705 25414 159.418
67.1879 24892 157.772
67.3054 24410 156.237
67.4228 23293 152.62
67.5402 21570 146.867
67.6576 19988 141.379
67.7749 18626 136.477
67.8923 18811 137.153
68.0096 18446 135.816
68.1269 18073 134.436
68.2442 18246 135.078
68.3614 18094 134.514
68.4787 18422 135.728
68.5958 19694 140.335
68.713 20060 141.633
68.8302 20246 142.288
68.9473 20258 142.331
69.0643 20472 143.08
69.1814 20752 144.056
69.2984 21287 145.901
69.4154 21619 147.034
69.5323 22007 148.348
69.6492 22364 149.546
69.7661 23005 151.674
69.8829 24074 155.158
69.9997 24952 157.962
70.1165 25599 159.997
70.2332 26334 162.278
70.3499 26535 162.896
70.4665 27262 165.112
70.5831 26761 163.588
70.6996 26868 163.915
70.8161 26197 161.855
70.9326 25017 158.168
71.049 22781 150.934
71.1653 21151 145.434
71.2817 19661 140.218
71.3979 18937 137.612
71.5141 18389 135.606
71.6303 17974 134.067
71.7464 16912 130.046
71.8624 0 1
71.9784 0 1
72.0944 0 1
72.2102 0 1
72.3261 0 1
72.4418 0 1
72.5575 0 1
72.6732 0 1
75.1054 0 1
75.2209 0 1
75.3365 0 1
75.4521 0 1
75.5678 0 1
75.6835 0 1
75.7993 0 1
75.9151 0 1
76.031 0 1
76.147 23464 153.18
76.263 23338 152.768
76.3791 22018 148.385
76.4952 20750 144.049
76.6113 20230 142.232
76.7276 19673 140.26
76.8438 19719 140.424
76.9601 19733 140.474
77.0765 19404 139.298
77.1929 19299 138.921
77.3093 19162 138.427
77.4258 19637 140.132
77.5423 20417 142.888
77.6589 20947 144.731
77.7755 20608 143.555
77.8921 20271 142.376
78.0088 20571 143.426
78.1256 20953 144.752
78.2423 21311 145.983
78.3591 21801 147.652
78.4759 22231 149.101
78.5928 23280 152.578
78.7097 23951 154.761
78.8266 24244 155.705
78.9436 25575 159.922
79.0606 25620 160.062
79.1776 25909 160.963
79.2946 26482 162.733
79.4117 27246 165.064
79.5288 27112 164.657
79.6459 26517 162.84
79.7631 25417 159.427
79.8802 24278 155.814
79.9974 22505 150.017
80.1147 21213 145.647
80.2319 20328 142.576
80.3491 20060 141.633
80.4664 19744 140.513
80.5837 19833 140.83
80.701 19501 139.646
80.8183 19445 139.445
80.9357 19573 139.904
81.053 19491 139.61
81.1704 20525 143.265
81.2877 21084 145.203
81.4051 20990 144.879
81.5225 20803 144.232
81.6399 20164 142
81.7573 20868 144.458
81.8747 20867 144.454
81.9922 21920 148.054
82.1096 22669 150.562
82.227 23652 153.792
82.3444 24771 157.388
82.4619 25811 160.658
82.5793 26868 163.915
82.6967 26321 162.237
82.8142 26734 163.505
82.9316 27423 165.599
83.049 27552 165.988
83.1664 26756 163.573
83.2838 26346 162.315
83.4012 25080 158.367
83.5186 23253 152.489
83.636 22133 148.772
83.7534 21470 146.526
83.8708 21021 144.986
83.9881 20268 142.366
84.1055 20345 142.636
84.2228 20559 143.384
84.3401 20327 142.573
84.4575 20272 142.38
84.5747 20117 141.834
84.692 21007 144.938
84.8093 22301 149.335
84.9265 22273 149.241
85.0437 22144 148.809
85.1609 21198 145.595
85.2781 21544 146.779
85.3952 21984 148.27
85.5123 22364 149.546
85.6294 23382 152.912
85.7465 24674 157.08
85.8636 26046 161.388
85.9806 26925 164.088
86.0976 27368 165.433
86.2145 27383 165.478
86.3315 27948 167.177
86.4484 29010 170.323
86.5652 29596 172.035
86.682 29998 173.199
86.7988 28960 170.176
86.9156 28086 167.589
87.0323 26427 162.564
87.149 24841 157.61
87.2657 23784 154.221
87.3823 23401 152.974
87.4988 22837 151.119
87.6154 22047 148.482
87.7318 22335 149.449
87.8483 21886 147.939
87.9647 21626 147.058
88.081 21773 147.557
88.1973 22600 150.333
88.3136 23500 153.297
88.4298 23881 154.535
88.546 23214 152.361
88.6621 22238 149.124
88.7781 21886 147.939
88.8942 0 1
89.0101 0 1
89.126 0 1
89.2419 0 1
89.3577 0 1
89.4734 0 1
89.5891 0 1
89.7047 0 1
89.8203 0 1
89.9358 0 1
92.3269 0 1
92.4424 0 1
92.558 0 1
92.6736 0 1
92.7893 0 1
92.905 0 1
93.0208 0 1
93.1366 0 1
93.2525 0 1
93.3685 0 1
93.4845 0 1
93.6005 21747 147.469
93.7167 22129 148.758
93.8328 22023 148.401
93.949 21296 145.931
94.0653 21339 146.079
94.1816 21801 147.652
94.2979 22148 148.822
94.4143 22668 150.559
94.5307 23743 154.088
94.6472 24794 157.461
94.7637 25930 161.028
94.8803 26631 163.19
94.9969 27579 166.069
95.1135 27866 166.931
95.2302 27456 165.699
95.3469 27406 165.548
95.4637 27973 167.251
95.5805 27796 166.721
95.6973 27905 167.048
95.8142 27576 166.06
95.9311 26661 163.282
96.048 25187 158.704
96.1649 24369 156.106
96.2819 23515 153.346
96.3989 23100 151.987
96.516 22313 149.375
96.633 22118 148.721
96.7501 22025 148.408
96.8673 21309 145.976
96.9844 21258 145.801
97.1016 21382 146.226
97.2188 21834 147.763
97.336 22739 150.795
97.4532 22133 148.772
97.5704 21824 147.729
97.6877 21418 146.349
97.805 21057 145.11
97.9223 20994 144.893
98.0396 21206 145.623
98.1569 21866 147.872
98.2743 22842 151.136
98.3916 23713 153.99
98.509 24781 157.42
98.6264 25678 160.244
98.7438 26051 161.403
98.8612 26605 163.11
98.9786 26234 161.969
99.096 26955 164.18
99.2134 27655 166.298
99.3308 27775 166.658
99.4482 27343 165.357
99.5656 26082 161.499
99.6831 25096 158.417
99.8005 23815 154.321
99.9179 22970 151.559
100.035 21956 148.176
100.153 21665 147.19
100.27 21172 145.506
100.388 20708 143.903
100.505 20806 144.243
100.622 20284 142.422
100.74 20671 143.774
100.857 20924 144.651
100.975 21390 146.253
101.092 21437 146.414
101.209 20938 144.7
101.327 20313 142.524
101.444 20533 143.293
101.561 20948 144.734
101.679 21502 146.636
101.796 22139 148.792
101.913 23431 153.072
102.03 24596 156.831
102.148 26345 162.311
102.265 25669 160.215
102.382 29823 172.693
102.499 27252 165.082
102.616 27175 164.848
102.733 27982 167.278
102.851 28955 170.162
102.968 29369 171.374
103.085 28262 168.113
103.202 27022 164.384
103.319 25936 161.047
103.436 24720 157.226
103.552 23845 154.418
103.669 23523 153.372
103.786 23065 151.872
103.903 23079 151.918
104.02 22418 149.726
104.137 22308 149.359
104.253 22323 149.409
104.37 22649 150.496
104.487 23207 152.338
104.603 22718 150.725
104.72 22272 149.238
104.836 21900 147.986
104.953 22293 149.308
105.069 22534 150.113
105.186 23347 152.797
105.302 24399 156.202
105.418 25772 160.537
105.535 27331 165.321
105.651 28316 168.274
105.767 28441 168.645
105.883 27456 165.699
105.999 27093 164.6
106.115 0 1
106.231 0 1
106.347 0 1
106.463 0 1
106.579 0 1
106.694 0 1
106.81 0 1
106.926 0 1
107.041 0 1
107.157 0 1
109.576 0 1
109.692 0 1
109.807 0 1
109.923 0 1
110.039 0 1
110.155 0 1
110.27 0 1
110.386 0 1
110.502 0 1
110.618 23246 152.466
110.735 24532 156.627
110.851 24792 157.455
110.967 24379 156.138
111.083 23683 153.893
111.199 24696 157.15
111.316 25612 160.037
111.432 26324 162.247
111.549 25796 160.611
111.665 24925 157.877
111.782 24126 155.325
111.898 23101 151.99
112.015 22221 149.067
112.132 21374 146.198
112.248 21034 145.031
112.365 20576 143.443
112.482 20350 142.653
112.599 19237 138.698
112.716 18842 137.266
112.832 18573 136.283
112.949 18321 135.355
113.066 18142 134.692
113.183 17294 131.507
113.3 17455 132.117
113.417 17494 132.265
113.534 17536 132.424
113.652 18227 135.007
113.769 18758 136.96
113.886 19295 138.906
114.003 19625 140.089
114.12 20230 142.232
114.238 20888 144.527
114.355 20793 144.198
114.472 20245 142.285
114.589 18998 137.833
114.707 19623 140.082
114.824 20451 143.007
114.942 21122 145.334
115.059 20856 144.416
115.176 20420 142.899
115.294 19878 140.989
115.411 19231 138.676
115.529 18553 136.209
115.646 17869 133.675
115.764 17061 130.618
115.881 16614 128.895
115.999 16003 126.503
116.116 15364 123.952
116.234 14827 121.766
116.351 14728 121.359
116.469 14351 119.796
116.586 14254 119.39
116.704 13848 117.678
116.821 13701 117.051
116.939 13875 117.792
117.056 14193 119.134
117.174 14486 120.358
117.291 15085 122.821
117.409 15131 123.008
117.526 15516 124.563
117.644 16107 126.913
117.761 16346 127.851
117.879 16972 130.277
117.996 16221 127.362
118.114 15707 125.328
118.231 15754 125.515
118.349 16405 128.082
118.466 17407 131.936
118.584 18236 135.041
118.701 18197 134.896
118.819 18068 134.417
118.936 17784 133.357
119.053 17249 131.335
119.171 17114 130.82
119.288 16966 130.254
119.405 16186 127.224
119.523 16133 127.016
119.64 15624 124.996
119.757 15184 123.223
119.875 15063 122.731
119.992 14681 121.165
120.109 14681 121.165
120.226 14598 120.822
120.343 14361 119.837
120.46 14304 119.599
120.578 14860 121.902
120.695 15462 124.346
120.812 16089 126.842
120.929 16641 129
121.046 16946 130.177
121.163 17663 132.902
121.279 17909 133.825
121.396 18319 135.348
121.513 18436 135.779
121.63 18701 136.752
121.747 17328 131.636
121.863 16033 126.621
121.98 16873 129.896
122.097 18530 136.125
122.213 20044 141.577
122.33 20810 144.257
122.446 20834 144.34
122.563 20560 143.388
122.679 20761 144.087
122.795 20350 142.653
122.912 20133 141.891
123.028 19717 140.417
123.144 19281 138.856
123.26 18755 136.949
123.377 0 1
123.493 0 1
123.609 0 1
123.725 0 1
123.84 0 1
123.956 0 1
124.072 0 1
124.188 0 1
124.303 0 1
124.419 0 1
126.852 0 1
126.968 0 1
127.083 0 1
127.199 0 1
127.315 0 1
127.431 0 1
127.547 0 1
127.663 0 1
127.779 0 1
127.895 0 1
128.011 0 1
128.127 0 1
128.243 0 1
128.359 22472 149.907
128.476 22519 150.063
128.592 21899 147.983
128.708 20978 144.838
128.825 20863 144.44
128.941 20425 142.916
129.058 19915 141.121
129.174 19421 139.359
129.291 19436 139.413
129.408 19502 139.65
129.524 19077 138.12
129.641 19115 138.257
129.758 19219 138.633
129.875 19527 139.739
129.992 19754 140.549
130.108 20229 142.229
130.225 19996 141.407
130.342 19962 141.287
130.459 20244 142.281
130.576 19637 140.132
130.693 17615 132.722
130.81 15300 123.693
130.928 15583 124.832
131.045 18539 136.158
131.162 19903 141.078
131.279 20551 143.356
131.396 20599 143.524
131.513 20756 144.069
131.631 20199 142.123
131.748 20010 141.457
131.865 20323 142.559
131.983 19752 140.542
132.1 19318 138.989
132.217 18950 137.659
132.335 18779 137.036
132.452 18254 135.107
132.57 17718 133.109
132.687 16980 130.307
132.804 18008 134.194
132.922 17062 130.622
133.039 16939 130.15
133.157 16813 129.665
133.274 16860 129.846
133.392 17066 130.637
133.509 16975 130.288
133.627 16551 128.651
133.744 16932 130.123
133.862 17376 131.818
133.979 16832 129.738
134.097 16594 128.818
134.214 14772 121.54
134.332 12090 109.955
134.449 12509 111.844
134.567 14435 120.146
134.684 15987 126.44
134.802 16715 129.287
134.919 16614 128.895
135.037 16701 129.232
135.154 16721 129.31
135.272 16213 127.33
135.389 16265 127.534
135.507 16039 126.645
135.624 15681 125.224
135.742 15614 124.956
135.859 15385 124.036
135.977 14583 120.76
136.094 14446 120.192
136.211 14136 118.895
136.329 14077 118.647
136.446 13879 117.809
136.564 13726 117.158
136.681 13352 115.551
136.798 13424 115.862
136.915 13664 116.893
137.033 13741 117.222
137.15 13252 115.117
137.267 13231 115.026
137.384 13450 115.974
137.502 13513 116.245
137.619 13242 115.074
137.736 12734 112.845
137.853 11033 105.038
137.97 10143 100.712
138.087 10899 104.398
138.204 12672 112.57
138.321 13671 116.923
138.438 14222 119.256
138.555 14588 120.781
138.672 14892 122.033
138.788 14849 121.856
138.905 14822 121.746
139.022 14994 122.45
139.139 15139 123.041
139.255 14905 122.086
139.372 15071 122.764
139.488 14988 122.425
139.605 14845 121.84
139.721 15010 122.515
139.838 15182 123.215
139.954 15250 123.491
140.071 14860 121.902
140.187 14887 122.012
140.303 14961 122.315
140.419 14637 120.983
140.535 14939 122.225
140.652 14685 121.182
140.768 0 1
140.884 0 1
141 0 1
141.115 0 1
141.231 0 1
141.347 0 1
141.463 0 1
141.578 0 1
141.694 0 1
144.104 0 1
144.219 0 1
144.335 0 1
144.45 0 1
144.566 0 1
144.682 0 1
144.798 0 1
144.914 0 1
145.03 0 1
145.146 12506 111.83
145.262 12393 111.324
145.378 12244 110.653
145.494 12170 110.318
145.61 11929 109.22
145.726 11645 107.912
145.842 11589 107.652
145.959 11622 107.805
146.075 11603 107.717
146.192 11404 106.79
146.308 11223 105.939
146.425 10856 104.192
146.541 10417 102.064
146.658 9879 99.3932
146.774 9803 99.0101
146.891 9921 99.6042
147.008 10380 101.882
147.125 10738 103.624
147.241 10805 103.947
147.358 10670 103.296
147.475 10580 102.859
147.592 10302 101.499
147.709 10299 101.484
147.826 10047 100.235
147.943 10230 101.143
148.06 9900 99.4987
148.177 9823 99.111
148.294 9623 98.0969
148.411 9800 98.9949
148.528 9379 96.8452
148.645 9438 97.1494
148.762 9179 95.8071
148.88 8870 94.1807
148.997 8910 94.3928
149.114 8218 90.6532
149.231 8456 91.9565
149.349 8445 91.8967
149.466 8738 93.4773
149.583 8598 92.7254
149.701 8473 92.0489
149.818 8459 91.9728
149.935 8397 91.6351
150.053 8372 91.4986
150.17 8314 91.1811
150.287 8208 90.598
150.405 8256 90.8625
150.522 8647 92.9892
150.64 8868 94.1701
150.757 8914 94.414
150.875 9104 95.4149
150.992 9028 95.0158
151.11 9171 95.7653
151.227 9117 95.483
151.344 9039 95.0737
151.462 9188 95.8541
151.579 9045 95.1052
151.697 9148 95.6452
151.814 9064 95.205
151.932 9052 95.142
152.049 9264 96.2497
152.167 9092 95.352
152.284 9271 96.286
152.402 8974 94.7312
152.519 8826 93.9468
152.636 8830 93.9681
152.754 8930 94.4987
152.871 9108 95.4358
152.989 9136 95.5824
153.106 9167 95.7445
153.223 9243 96.1405
153.341 9130 95.551
153.458 8924 94.4669
153.575 8774 93.6696
153.693 9064 95.205
153.81 9478 97.355
153.927 9789 98.9394
154.044 10513 102.533
154.162 10605 102.981
154.279 10837 104.101
154.396 11106 105.385
154.513 11536 107.406
154.63 11562 107.527
154.747 11604 107.722
154.864 11712 108.222
154.981 11643 107.903
155.098 11830 108.766
155.215 11737 108.337
155.332 11760 108.444
155.449 11692 108.13
155.566 11646 107.917
155.683 11577 107.596
155.8 11207 105.863
155.917 10977 104.771
156.033 10726 103.566
156.15 0 1
156.267 0 1
156.383 0 1
156.5 0 1
156.617 0 1
156.733 0 1
156.85 0 1
156.966 0 1
157.082 0 1
157.199 0 1
157.315 0 1
157.431 0 1
157.547 0 1
157.664 0 1
157.78 0 1
157.896 0 1
158.012 0 1
158.128 0 1
158.244 0 1
158.359 0 1
158.475 0 1
158.591 0 1
158.706 0 1
