
6.15755 0 1
6.2731 0 1
6.3887 0 1
6.50437 0 1
6.62009 0 1
6.73587 0 1
6.8517 0 1
6.96759 0 1
7.08353 0 1
7.19952 0 1
7.31557 0 1
7.43166 0 1
7.54781 0 1
7.664 0 1
7.78024 0 1
7.89653 0 1
8.01286 0 1
8.12924 0 1
8.24567 0 1
8.36213 0 1
8.47864 0 1
8.59519 0 1
8.71178 0 1
8.82841 0 1
8.94508 0 1
9.06179 0 1
9.17853 0 1
9.29531 0 1
9.41212 0 1
9.52897 0 1
9.64584 0 1
9.76276 0 1
9.8797 0 1
9.99667 0 1
10.1137 0 1
10.2307 0 1
10.3478 0 1
10.4648 0 1
10.5819 0 1
10.6991 0 1
10.8162 0 1
10.9334 0 1
11.0506 0 1
11.1678 0 1
11.285 0 1
11.4023 0 1
11.5196 0 1
11.6369 0 1
11.7542 0 1
11.8715 0 1
11.9888 0 1
12.1062 0 1
12.2235 0 1
12.3409 0 1
12.4582 0 1
12.5756 0 1
12.693 0 1
12.8104 0 1
12.9278 0 1
13.0452 0 1
13.1626 0 1
13.28 0 1
13.3974 0 1
13.5149 0 1
13.6323 0 1
13.7497 0 1
13.8671 0 1
13.9845 0 1
14.1019 0 1
14.2193 0 1
14.3367 0 1
14.4541 0 1
14.5714 0 1
14.6888 0 1
14.8062 0 1
14.9235 0 1
15.0408 0 0
15.1581 0 0
15.2755 0 0
15.3927 0 0
15.51 0 0
15.6273 0 0
15.7445 0 0
15.8617 0 0
15.9789 0 0
16.0961 0 0
16.2132 0 0
16.3304 0 0
16.4475 0 0
16.5646 0 0
16.6816 0 0
16.7986 0 0
16.9156 0 0
17.0326 0 0
17.1496 0 0
17.2665 0 0
17.3833 0 0
17.5002 0 0
17.617 0 0
17.7338 0 0
17.8505 0 0
17.9672 0 0
18.0839 0 0
18.2005 0 0
18.3171 0 0
18.4337 0 0
18.5502 0 0
18.6666 0 0
18.7831 0 0
18.8994 0 0
19.0158 0 0
19.1321 0 0
19.2483 0 0
19.3645 0 0
19.4806 0 0
19.5967 0 0
19.7128 0 0
19.8288 0 0
19.9447 0 0
20.0606 0 1
20.1764 0 1
20.2922 0 1
20.4079 0 1
20.5236 0 1
20.6392 0 1
20.7548 0 1
20.8702 0 1
23.3078 0 1
23.4233 0 1
23.539 0 1
23.6547 0 1
23.7704 0 1
23.8862 0 1
24.0021 0 1
24.118 0 1
24.234 0 1
24.35 0 1
24.4661 75826 275.365
24.5822 85797 292.911
24.6984 89786 299.643
24.8146 90200 300.333
24.9309 89438 299.062
25.0472 88318 297.183
25.1636 88271 297.104
25.28 87350 295.55
25.3965 87675 296.1
25.513 86412 293.959
25.6296 86363 293.876
25.7462 86548 294.19
25.8628 85357 292.159
25.9795 84441 290.587
26.0962 82589 287.383
26.213 82093 286.519
26.3298 79560 282.064
26.4466 78892 280.877
26.5635 76592 276.753
26.6804 73630 271.348
26.7973 71147 266.734
26.9143 70380 265.292
27.0313 69772 264.144
27.1483 69658 263.928
27.2653 68871 262.433
27.3824 68526 261.775
27.4996 66287 257.463
27.6167 62568 250.136
27.7339 54541 233.54
27.8511 49494 222.472
27.9683 51081 226.011
28.0855 55272 235.1
28.2028 62429 249.858
28.3201 66424 257.729
28.4374 70108 264.779
28.5547 71712 267.791
28.6721 72542 269.336
28.7894 73250 270.647
28.9068 74872 273.627
29.0242 74970 273.807
29.1416 75710 275.155
29.259 75608 274.969
29.3764 76016 275.71
29.4939 75968 275.623
29.6113 76681 276.913
29.7288 76631 276.823
29.8463 76931 277.364
29.9638 76176 276
30.0812 75243 274.305
30.1987 74205 272.406
30.3162 74840 273.569
30.4337 74993 273.848
30.5512 74942 273.755
30.6687 73644 271.374
30.7862 74455 272.864
30.9037 71942 268.22
31.0212 70719 265.93
31.1387 65195 255.333
31.2562 58544 241.959
31.3737 58349 241.555
31.4912 57254 239.278
31.6087 56220 237.108
31.7262 58345 241.547
31.8436 61289 247.566
31.9611 62883 250.765
32.0785 63003 251.004
32.1959 62227 249.453
32.3134 61135 247.255
32.4308 60001 244.951
32.5482 59523 243.973
32.6655 58721 242.324
32.7829 57268 239.307
32.9002 57118 238.994
33.0176 56466 237.626
33.1349 55915 236.464
33.2522 55646 235.894
33.3694 55075 234.681
33.4867 53723 231.782
33.6039 52228 228.534
33.7211 51652 227.271
33.8383 50808 225.406
33.9554 51577 227.106
34.0725 52710 229.587
34.1896 51886 227.785
34.3067 50562 224.86
34.4237 50479 224.675
34.5407 49713 222.964
34.6577 50541 224.813
34.7746 49679 222.888
34.8915 48357 219.902
35.0084 44646 211.296
35.1252 41445 203.58
35.242 37653 194.044
35.3587 36038 189.837
35.4755 37614 193.943
35.5921 41000 202.485
35.7088 44267 210.397
35.8254 45909 214.264
35.9419 46153 214.832
36.0584 46116 214.746
36.1749 45779 213.96
36.2913 45776 213.953
36.4077 44809 211.681
36.524 44961 212.04
36.6403 45249 212.718
36.7565 45859 214.147
36.8727 46141 214.805
36.9889 45283 212.798
37.1049 44119 210.045
37.221 0 1
37.3369 0 1
37.4529 0 1
37.5687 0 1
37.6845 0 1
37.8003 0 1
37.916 0 1
38.0316 0 1
38.1472 0 1
40.5851 0 1
40.7008 0 1
40.8164 0 1
40.9322 0 1
41.048 0 1
41.1639 0 1
41.2798 0 1
41.3958 0 1
41.5118 0 1
41.6279 0 1
41.744 52081 228.213
41.8602 54346 233.122
41.9765 54477 233.403
42.0928 54758 234.004
42.2091 54492 233.435
42.3255 54746 233.979
42.4419 54961 234.438
42.5584 56701 238.12
42.675 58608 242.091
42.7915 59858 244.659
42.9081 58939 242.774
43.0248 58828 242.545
43.1415 58609 242.093
43.2582 58212 241.272
43.375 56473 237.64
43.4918 58086 241.01
43.6087 60443 245.852
43.7256 61747 248.489
43.8425 61956 248.91
43.9595 60854 246.686
44.0765 57046 238.843
44.1935 52240 228.561
44.3106 51177 226.223
44.4277 54090 232.573
44.5448 57294 239.362
44.6619 57721 240.252
44.7791 58503 241.874
44.8963 58735 242.353
45.0136 58251 241.352
45.1308 57167 239.096
45.2481 57326 239.428
45.3654 56641 237.994
45.4827 56543 237.788
45.6001 55342 235.249
45.7174 54184 232.775
45.8348 53264 230.79
45.9522 53371 231.022
46.0697 53993 232.364
46.1871 53749 231.838
46.3046 53916 232.198
46.422 52852 229.896
46.5395 52266 228.618
46.657 51742 227.469
46.7745 50645 225.044
46.892 48637 220.538
47.0096 48164 219.463
47.1271 50455 224.622
47.2446 52044 228.132
47.3622 51715 227.409
47.4797 51888 227.789
47.5973 51323 226.546
47.7149 48014 219.121
47.8324 44587 211.156
47.95 43739 209.139
48.0675 45219 212.648
48.1851 47325 217.543
48.3027 48228 219.609
48.4202 48411 220.025
48.5378 49439 222.349
48.6554 49415 222.295
48.7729 49151 221.7
48.8904 49807 223.175
49.008 49336 222.117
49.1255 49184 221.775
49.243 49460 222.396
49.3605 49747 223.04
49.478 50733 225.24
49.5955 51894 227.803
49.713 52550 229.238
49.8304 53004 230.226
49.9479 54016 232.413
50.0653 53209 230.671
50.1827 52802 229.787
50.3001 49977 223.555
50.4175 49065 221.506
50.5348 51465 226.859
50.6521 57788 240.391
50.7694 60926 246.832
50.8867 64292 253.559
51.004 65659 256.24
51.1212 66994 258.832
51.2384 66686 258.236
51.3556 63454 251.901
51.4727 62307 249.614
51.5899 64186 253.35
51.707 67700 260.192
51.824 70647 265.795
51.9411 72260 268.812
52.0581 73375 270.878
52.175 75740 275.209
52.2919 74834 273.558
52.4088 75718 275.169
52.5257 75612 274.976
52.6425 75180 274.19
52.7593 75319 274.443
52.876 75474 274.725
52.9927 76307 276.237
53.1094 78458 280.104
53.226 79660 282.241
53.3426 80047 282.926
53.4591 79981 282.809
53.5756 78739 280.605
53.692 77323 278.07
53.8084 74399 272.762
53.9248 71089 266.625
54.0411 71750 267.862
54.1573 76916 277.337
54.2735 0 1
54.3896 0 1
54.5057 0 1
54.6217 0 1
54.7377 0 1
54.8537 0 1
54.9695 0 1
55.0853 0 1
55.2011 0 1
55.3168 0 1
55.4324 0 1
57.824 0 1
57.9396 0 1
58.0553 0 1
58.1711 0 1
58.2869 0 1
58.4028 0 1
58.5187 0 1
58.6347 0 1
58.7508 0 1
58.8669 0 1
58.983 79780 282.454
59.0992 81336 285.195
59.2155 85929 293.136
59.3318 90358 300.596
59.4482 94692 307.721
59.5646 96589 310.788
59.681 98374 313.646
59.7975 97219 311.8
59.9141 95683 309.327
60.0306 93474 305.735
60.1473 90939 301.561
60.2639 89554 299.256
60.3807 87259 295.396
60.4974 87017 294.986
60.6142 86780 294.584
60.731 86933 294.844
60.8479 87194 295.286
60.9648 86126 293.472
61.0818 85927 293.133
61.1987 85882 293.056
61.3158 85888 293.067
61.4328 85684 292.718
61.5499 85595 292.566
61.667 84468 290.634
61.7841 84318 290.376
61.9013 82632 287.458
62.0185 80782 284.222
62.1357 76608 276.782
62.253 73582 271.26
62.3702 71398 267.204
62.4875 71913 268.166
62.6049 76022 275.721
62.7222 81279 285.095
62.8396 83616 289.164
62.9569 85898 293.084
63.0743 87660 296.074
63.1918 87763 296.248
63.3092 86232 293.653
63.4267 84919 291.409
63.5441 83148 288.354
63.6616 82135 286.592
63.7791 80558 283.827
63.8966 79733 282.37
64.0142 78478 280.139
64.1317 77846 279.009
64.2492 77257 277.951
64.3668 76249 276.132
64.4843 75687 275.113
64.6019 76139 275.933
64.7195 76470 276.532
64.837 77267 277.969
64.9546 77008 277.503
65.0722 76781 277.094
65.1898 76787 277.105
65.3074 76966 277.427
65.4249 74839 273.567
65.5425 72520 269.295
65.6601 69016 262.709
65.7777 65632 256.187
65.8952 63290 251.575
66.0128 63528 252.048
66.1304 67843 260.467
66.2479 72961 270.113
66.3655 76583 276.736
66.483 79918 282.698
66.6005 82153 286.623
66.718 83450 288.877
66.8355 83168 288.389
66.953 83247 288.526
67.0705 81293 285.119
67.1879 79477 281.917
67.3054 78555 280.277
67.4228 77392 278.194
67.5402 76522 276.626
67.6576 75591 274.938
67.7749 74246 272.481
67.8923 74434 272.826
68.0096 72768 269.755
68.1269 73263 270.671
68.2442 74835 273.56
68.3614 75683 275.105
68.4787 77103 277.674
68.5958 77324 278.072
68.713 77943 279.183
68.8302 77979 279.247
68.9473 77480 278.352
69.0643 75185 274.199
69.1814 72200 268.701
69.2984 68854 262.4
69.4154 66543 257.959
69.5323 64515 253.998
69.6492 66475 257.827
69.7661 72303 268.892
69.8829 77286 278.004
69.9997 81349 285.217
70.1165 84811 291.223
70.2332 87057 295.054
70.3499 88147 296.896
70.4665 88473 297.444
70.5831 87687 296.12
70.6996 86328 293.816
70.8161 83953 289.746
70.9326 82757 287.675
71.049 80609 283.917
71.1653 78792 280.699
71.2817 76593 276.754
71.3979 74358 272.687
71.5141 72802 269.818
71.6303 70070 264.707
71.7464 64556 254.079
71.8624 0 1
71.9784 0 1
72.0944 0 1
72.2102 0 1
72.3261 0 1
72.4418 0 1
72.5575 0 1
72.6732 0 1
75.1054 0 1
75.2209 0 1
75.3365 0 1
75.4521 0 1
75.5678 0 1
75.6835 0 1
75.7993 0 1
75.9151 0 1
76.031 0 1
76.147 75952 275.594
76.263 80577 283.861
76.3791 80235 283.258
76.4952 78750 280.624
76.6113 77205 277.858
76.7276 76842 277.204
76.8438 73873 271.796
76.9601 72911 270.02
77.0765 72721 269.668
77.1929 73497 271.103
77.3093 75412 274.612
77.4258 76952 277.402
77.5423 77273 277.98
77.6589 78019 279.319
77.7755 76613 276.791
77.8921 75857 275.421
78.0088 73305 270.749
78.1256 68912 262.511
78.2423 64090 253.16
78.3591 59995 244.939
78.4759 57642 240.087
78.5928 59330 243.578
78.7097 64555 254.077
78.8266 73343 270.819
78.9436 71681 267.733
79.0606 77371 278.156
79.1776 81366 285.247
79.2946 84384 290.489
79.4117 84995 291.539
79.5288 85402 292.236
79.6459 84162 290.107
79.7631 82497 287.223
79.8802 81984 286.328
79.9974 79480 281.922
80.1147 77818 278.959
80.2319 76270 276.17
80.3491 73551 271.203
80.4664 72257 268.807
80.5837 70755 265.998
80.701 69911 264.407
80.8183 69464 263.56
80.9357 70886 266.244
81.053 72494 269.247
81.1704 73531 271.166
81.2877 73552 271.205
81.4051 72885 269.972
81.5225 72823 269.857
81.6399 67872 260.523
81.7573 66200 257.294
81.8747 60859 246.696
81.9922 57325 239.426
82.1096 55701 236.011
82.227 56682 238.08
82.3444 61811 248.618
82.4619 67800 260.384
82.5793 69147 262.958
82.6967 74259 272.505
82.8142 76230 276.098
82.9316 78394 279.989
83.049 78374 279.954
83.1664 78255 279.741
83.2838 76532 276.644
83.4012 76421 276.443
83.5186 74416 272.793
83.636 73359 270.849
83.7534 72043 268.408
83.8708 69585 263.79
83.9881 67060 258.959
84.1055 65284 255.507
84.2228 62767 250.533
84.3401 63221 251.438
84.4575 64908 254.77
84.5747 65908 256.726
84.692 66705 258.273
84.8093 67984 260.737
84.9265 67924 260.622
85.0437 67309 259.44
85.1609 65605 256.135
85.2781 62435 249.87
85.3952 58613 242.101
85.5123 55165 234.872
85.6294 53570 231.452
85.7465 55527 235.642
85.8636 60408 245.78
85.9806 66491 257.858
86.0976 70445 265.415
86.2145 74304 272.588
86.3315 76784 277.099
86.4484 84992 291.534
86.5652 84204 290.179
86.682 84421 290.553
86.7988 84294 290.334
86.9156 83940 289.724
87.0323 82140 286.601
87.149 82433 287.111
87.2657 80091 283.004
87.3823 80189 283.177
87.4988 77504 278.395
87.6154 75054 273.96
87.7318 72524 269.303
87.8483 71680 267.731
87.9647 73127 270.42
88.081 74272 272.529
88.1973 76689 276.928
88.3136 77401 278.21
88.4298 76355 276.324
88.546 75725 275.182
88.6621 73693 271.465
88.7781 70495 265.509
88.8942 0 1
89.0101 0 1
89.126 0 1
89.2419 0 1
89.3577 0 1
89.4734 0 1
89.5891 0 1
89.7047 0 1
89.8203 0 1
89.9358 0 1
92.3269 0 1
92.4424 0 1
92.558 0 1
92.6736 0 1
92.7893 0 1
92.905 0 1
93.0208 0 1
93.1366 0 1
93.2525 0 1
93.3685 0 1
93.4845 0 1
93.6005 71660 267.694
93.7167 73358 270.847
93.8328 73606 271.304
93.949 72877 269.957
94.0653 71569 267.524
94.1816 70187 264.928
94.2979 67389 259.594
94.4143 63755 252.498
94.5307 60556 246.081
94.6472 58910 242.714
94.7637 59111 243.128
94.8803 63040 251.078
94.9969 67943 260.659
95.1135 73073 270.32
95.2302 76152 275.957
95.3469 77967 279.226
95.4637 82645 287.48
95.5805 86007 293.27
95.6973 88015 296.673
95.8142 89207 298.675
95.9311 88681 297.794
96.048 87162 295.232
96.1649 86310 293.786
96.2819 84263 290.281
96.3989 82866 287.865
96.516 81734 285.892
96.633 80309 283.388
96.7501 79049 281.157
96.8673 76159 275.969
96.9844 73221 270.594
97.1016 72341 268.963
97.2188 71838 268.026
97.336 74518 272.98
97.4532 75599 274.953
97.5704 75326 274.456
97.6877 73264 270.673
97.805 72119 268.55
97.9223 69931 264.445
98.0396 66054 257.01
98.1569 62426 249.852
98.2743 58443 241.75
98.3916 59070 243.043
98.509 62240 249.479
98.6264 67721 260.233
98.7438 73151 270.464
98.8612 76999 277.487
98.9786 80913 284.452
99.096 84651 290.948
99.2134 88685 297.8
99.3308 89659 299.431
99.4482 90257 300.428
99.5656 90138 300.23
99.6831 88816 298.02
99.8005 86951 294.875
99.9179 85733 292.802
100.035 83614 289.161
100.153 82596 287.395
100.27 82313 286.902
100.388 80515 283.752
100.505 77138 277.737
100.622 74049 272.119
100.74 73338 270.81
100.857 73934 271.908
100.975 76273 276.176
101.092 77122 277.708
101.209 76616 276.796
101.327 74641 273.205
101.444 73609 271.31
101.561 70883 266.239
101.679 66729 258.32
101.796 61965 248.928
101.913 60612 246.195
102.03 63049 251.096
102.148 68421 261.574
102.265 78424 280.043
102.382 75378 274.551
102.499 82636 287.465
102.616 87084 295.1
102.733 91075 301.786
102.851 93226 305.329
102.968 94627 307.615
103.085 93518 305.807
103.202 92568 304.25
103.319 91587 302.633
103.436 89365 298.94
103.552 87644 296.047
103.669 85785 292.891
103.786 85475 292.361
103.903 84437 290.58
104.02 81443 285.382
104.137 77596 278.561
104.253 77652 278.661
104.37 74919 273.713
104.487 78769 280.658
104.603 80646 283.982
104.72 80261 283.304
104.836 79024 281.112
104.953 77618 278.6
105.069 74459 272.872
105.186 68918 262.522
105.302 64596 254.157
105.418 64446 253.862
105.535 69791 264.18
105.651 75469 274.716
105.767 81053 284.698
105.883 85010 291.565
105.999 89451 299.084
106.115 0 1
106.231 0 1
106.347 0 1
106.463 0 1
106.579 0 1
106.694 0 1
106.81 0 1
106.926 0 1
107.041 0 1
107.157 0 1
109.576 0 1
109.692 0 1
109.807 0 1
109.923 0 1
110.039 0 1
110.155 0 1
110.27 0 1
110.386 0 1
110.502 0 1
110.618 65654 256.23
110.735 72692 269.615
110.851 77770 278.873
110.967 80943 284.505
111.083 85028 291.596
111.199 89431 299.05
111.316 91281 302.127
111.432 91431 302.376
111.549 90610 301.015
111.665 90062 300.103
111.782 88108 296.83
111.898 85809 292.932
112.015 82811 287.769
112.132 80104 283.027
112.248 78858 280.817
112.365 79126 281.293
112.482 78208 279.657
112.599 72834 269.878
112.716 69796 264.189
112.832 69010 262.698
112.949 67647 260.09
113.066 68800 262.298
113.183 69851 264.293
113.3 69467 263.566
113.417 68077 260.916
113.534 65933 256.774
113.652 63490 251.972
113.769 59121 243.148
113.886 54583 233.63
114.003 54815 234.126
114.12 57365 239.51
114.238 62033 249.064
114.355 66306 257.5
114.472 69060 262.793
114.589 73299 270.738
114.707 77484 278.359
114.824 79878 282.627
114.942 80434 283.609
115.059 80895 284.42
115.176 79954 282.761
115.294 79984 282.814
115.411 77970 279.231
115.529 76313 276.248
115.646 73400 270.924
115.764 71823 267.998
115.881 72056 268.432
115.999 72548 269.347
116.116 71727 267.819
116.234 68979 262.639
116.351 66782 258.422
116.469 65259 255.458
116.586 65071 255.09
116.704 67489 259.786
116.821 67992 260.753
116.939 67915 260.605
117.056 66776 258.411
117.174 64209 253.395
117.291 61467 247.925
117.409 57485 239.76
117.526 54239 232.893
117.644 55821 236.265
117.761 59933 244.812
117.879 64917 254.788
117.996 67579 259.96
118.114 71043 266.539
118.231 76913 277.332
118.349 78800 280.713
118.466 81680 285.797
118.584 81923 286.222
118.701 82519 287.261
118.819 81980 286.321
118.936 81048 284.689
119.053 79426 281.826
119.171 76483 276.556
119.288 73240 270.629
119.405 71748 267.858
119.523 70631 265.765
119.64 73403 270.93
119.757 73257 270.66
119.875 72013 268.352
119.992 69391 263.422
120.109 66708 258.279
120.226 66982 258.809
120.343 67509 259.825
120.46 67825 260.432
120.578 68096 260.952
120.695 67586 259.973
120.812 66023 256.949
120.929 63546 252.083
121.046 59643 244.219
121.163 56048 236.745
121.279 54713 233.908
121.396 56530 237.76
121.513 60939 246.858
121.63 65612 256.148
121.747 67607 260.013
121.863 72222 268.742
121.98 76776 277.085
122.097 79202 281.428
122.213 80959 284.533
122.33 80828 284.303
122.446 80126 283.065
122.563 80236 283.26
122.679 79135 281.309
122.795 77163 277.782
122.912 74629 273.183
123.028 71139 266.719
123.144 68759 262.219
123.26 69132 262.93
123.377 0 1
123.493 0 1
123.609 0 1
123.725 0 1
123.84 0 1
123.956 0 1
124.072 0 1
124.188 0 1
124.303 0 1
124.419 0 1
126.852 0 1
126.968 0 1
127.083 0 1
127.199 0 1
127.315 0 1
127.431 0 1
127.547 0 1
127.663 0 1
127.779 0 1
127.895 0 1
128.011 0 1
128.127 0 1
128.243 0 1
128.359 75851 275.411
128.476 74721 273.351
128.592 76823 277.17
128.708 79585 282.108
128.825 80188 283.175
128.941 79100 281.247
129.058 76187 276.02
129.174 74493 272.934
129.291 73426 270.972
129.408 72888 269.978
129.524 73787 271.638
129.641 73963 271.961
129.758 73749 271.568
129.875 70314 265.168
129.992 66428 257.736
130.108 63270 251.535
130.225 62277 249.554
130.342 61455 247.901
130.459 62798 250.595
130.576 69367 263.376
130.693 72435 269.138
130.81 78504 280.186
130.928 82897 287.918
131.045 84794 291.194
131.162 85859 293.017
131.279 85744 292.821
131.396 85296 292.055
131.513 83258 288.545
131.631 81296 285.125
131.748 78781 280.68
131.865 73887 271.822
131.983 71975 268.282
132.1 73881 271.811
132.217 76856 277.229
132.335 77289 278.009
132.452 75763 275.251
132.57 73651 271.387
132.687 70033 264.637
132.804 72243 268.781
132.922 68646 262.004
133.039 69334 263.314
133.157 68835 262.364
133.274 69414 263.465
133.392 69648 263.909
133.509 66125 257.148
133.627 63300 251.595
133.744 61376 247.742
133.862 59107 243.119
133.979 59063 243.029
134.097 62046 249.09
134.214 66415 257.711
134.332 69944 264.469
134.449 76355 276.324
134.567 79488 281.936
134.684 80695 284.069
134.802 80748 284.162
134.919 79884 282.638
135.037 80003 282.848
135.154 78581 280.323
135.272 74825 273.542
135.389 71054 266.56
135.507 68620 261.954
135.624 69306 263.26
135.742 71566 267.518
135.859 74011 272.05
135.977 73654 271.393
136.094 72215 268.728
136.211 69555 263.733
136.329 68984 262.648
136.446 67293 259.409
136.564 66121 257.14
136.681 66076 257.053
136.798 65100 255.147
136.915 66262 257.414
137.033 66953 258.753
137.15 65337 255.611
137.267 62146 249.291
137.384 60921 246.822
137.502 58579 242.031
137.619 56659 238.032
137.736 58944 242.784
137.853 60552 246.073
137.97 65170 255.284
138.087 74111 272.233
138.204 75148 274.131
138.321 76499 276.585
138.438 77468 278.331
138.555 76911 277.328
138.672 75883 275.469
138.788 74589 273.11
138.905 71306 267.032
139.022 67632 260.062
139.139 65361 255.658
139.255 66695 258.254
139.372 68909 262.505
139.488 70825 266.13
139.605 70333 265.204
139.721 68714 262.134
139.838 66658 258.182
139.954 65486 255.902
140.071 63636 252.262
140.187 63629 252.248
140.303 61518 248.028
140.419 60131 245.216
140.535 59975 244.898
140.652 59286 243.487
140.768 0 1
140.884 0 1
141 0 1
141.115 0 1
141.231 0 1
141.347 0 1
141.463 0 1
141.578 0 1
141.694 0 1
144.104 0 1
144.219 0 1
144.335 0 1
144.45 0 1
144.566 0 1
144.682 0 1
144.798 0 1
144.914 0 1
145.03 0 1
145.146 53246 230.751
145.262 54361 233.154
145.378 52699 229.563
145.494 52397 228.904
145.61 51528 226.998
145.726 52156 228.377
145.842 53745 231.83
145.959 53579 231.471
146.075 53224 230.703
146.192 52204 228.482
146.308 49586 222.679
146.425 47875 218.804
146.541 49497 222.479
146.658 53988 232.353
146.774 58712 242.306
146.891 60652 246.276
147.008 60968 246.917
147.125 60134 245.222
147.241 60044 245.039
147.358 58056 240.948
147.475 55012 234.546
147.592 52386 228.88
147.709 51559 227.066
147.826 51999 228.033
147.943 54720 233.923
148.06 55532 235.652
148.177 56122 236.901
148.294 54610 233.688
148.411 53689 231.709
148.528 52657 229.471
148.645 50918 225.65
148.762 50418 224.54
148.88 50194 224.04
148.997 48416 220.036
149.114 50781 225.346
149.231 48159 219.452
149.349 48303 219.779
149.466 48254 219.668
149.583 48696 220.672
149.701 49711 222.96
149.818 48639 220.543
149.935 47079 216.977
150.053 44598 211.182
150.17 45616 213.579
150.287 50187 224.025
150.405 54527 233.51
150.522 56034 236.715
150.64 55956 236.55
150.757 56303 237.283
150.875 55081 234.693
150.992 54400 233.238
151.11 49851 223.273
151.227 48901 221.136
151.344 48396 219.991
151.462 49781 223.117
151.579 52197 228.467
151.697 53591 231.497
151.814 53436 231.162
151.932 52296 228.683
152.049 51845 227.695
152.167 50703 225.173
152.284 49546 222.589
152.402 49173 221.75
152.519 48469 220.157
152.636 48278 219.723
152.754 47890 218.838
152.871 47328 217.55
152.989 46534 215.717
153.106 47063 216.94
153.223 47920 218.906
153.341 48672 220.617
153.458 47483 217.906
153.575 45947 214.353
153.693 44625 211.246
153.81 45872 214.177
153.927 50315 224.31
154.044 54364 233.161
154.162 55840 236.305
154.279 56489 237.674
154.396 56039 236.726
154.513 55189 234.923
154.63 53257 230.775
154.747 52071 228.191
154.864 50632 225.016
154.981 50537 224.804
155.098 51435 226.793
155.215 53699 231.73
155.332 53385 231.052
155.449 52511 229.153
155.566 51394 226.702
155.683 51148 226.159
155.8 50660 225.078
155.917 50147 223.935
156.033 49488 222.459
156.15 0 1
156.267 0 1
156.383 0 1
156.5 0 1
156.617 0 1
156.733 0 1
156.85 0 1
156.966 0 1
157.082 0 1
157.199 0 1
157.315 0 1
157.431 0 1
157.547 0 1
157.664 0 1
157.78 0 1
157.896 0 1
158.012 0 1
158.128 0 1
158.244 0 1
158.359 0 1
158.475 0 1
158.591 0 1
158.706 0 1
