
6.15755 0 1
6.2731 0 1
6.3887 0 1
6.50437 0 1
6.62009 0 1
6.73587 0 1
6.8517 0 1
6.96759 0 1
7.08353 0 1
7.19952 0 1
7.31557 0 1
7.43166 0 1
7.54781 0 1
7.664 0 1
7.78024 0 1
7.89653 0 1
8.01286 0 1
8.12924 0 1
8.24567 0 1
8.36213 0 1
8.47864 0 1
8.59519 0 1
8.71178 0 1
8.82841 0 1
8.94508 0 1
9.06179 0 1
9.17853 0 1
9.29531 0 1
9.41212 0 1
9.52897 0 1
9.64584 0 1
9.76276 0 1
9.8797 0 1
9.99667 0 1
10.1137 0 1
10.2307 0 1
10.3478 0 1
10.4648 0 1
10.5819 0 1
10.6991 0 1
10.8162 0 1
10.9334 0 1
11.0506 0 1
11.1678 0 1
11.285 0 1
11.4023 0 1
11.5196 0 1
11.6369 0 1
11.7542 0 1
11.8715 0 1
11.9888 0 1
12.1062 0 1
12.2235 0 1
12.3409 0 1
12.4582 0 1
12.5756 0 1
12.693 0 1
12.8104 0 1
12.9278 0 1
13.0452 0 1
13.1626 0 1
13.28 0 1
13.3974 0 1
13.5149 0 1
13.6323 0 1
13.7497 0 1
13.8671 0 1
13.9845 0 1
14.1019 0 1
14.2193 0 1
14.3367 0 1
14.4541 0 1
14.5714 0 1
14.6888 0 1
14.8062 0 1
14.9235 0 1
15.0408 0 0
15.1581 0 0
15.2755 0 0
15.3927 0 0
15.51 0 0
15.6273 0 0
15.7445 0 0
15.8617 0 0
15.9789 0 0
16.0961 0 0
16.2132 0 0
16.3304 0 0
16.4475 0 0
16.5646 0 0
16.6816 0 0
16.7986 0 0
16.9156 0 0
17.0326 0 0
17.1496 0 0
17.2665 0 0
17.3833 0 0
17.5002 0 0
17.617 0 0
17.7338 0 0
17.8505 0 0
17.9672 0 0
18.0839 0 0
18.2005 0 0
18.3171 0 0
18.4337 0 0
18.5502 0 0
18.6666 0 0
18.7831 0 0
18.8994 0 0
19.0158 0 0
19.1321 0 0
19.2483 0 0
19.3645 0 0
19.4806 0 0
19.5967 0 0
19.7128 0 0
19.8288 0 0
19.9447 0 0
20.0606 0 1
20.1764 0 1
20.2922 0 1
20.4079 0 1
20.5236 0 1
20.6392 0 1
20.7548 0 1
20.8702 0 1
23.3078 0 1
23.4233 0 1
23.539 0 1
23.6547 0 1
23.7704 0 1
23.8862 0 1
24.0021 0 1
24.118 0 1
24.234 0 1
24.35 0 1
24.4661 4568 67.587
24.5822 5864 76.5768
24.6984 6491 80.5667
24.8146 7407 86.0639
24.9309 7941 89.1123
25.0472 8765 93.6216
25.1636 9594 97.949
25.28 10170 100.846
25.3965 10749 103.677
25.513 11235 105.995
25.6296 11748 108.388
25.7462 12183 110.377
25.8628 12266 110.752
25.9795 12688 112.641
26.0962 12241 110.639
26.213 11941 109.275
26.3298 11230 105.972
26.4466 10374 101.853
26.5635 10099 100.494
26.6804 9978 99.8899
26.7973 10602 102.966
26.9143 11131 105.504
27.0313 11075 105.238
27.1483 11402 106.78
27.2653 11562 107.527
27.3824 11756 108.425
27.4996 11875 108.972
27.6167 11656 107.963
27.7339 11431 106.916
27.8511 11140 105.546
27.9683 10890 104.355
28.0855 10468 102.313
28.2028 10398 101.971
28.3201 10104 100.519
28.4374 10156 100.777
28.5547 10352 101.745
28.6721 10540 102.665
28.7894 10880 104.307
28.9068 11587 107.643
29.0242 11772 108.499
29.1416 11809 108.669
29.259 11778 108.526
29.3764 11748 108.388
29.4939 11738 108.342
29.6113 11495 107.215
29.7288 10917 104.484
29.8463 10271 101.346
29.9638 10222 101.104
30.0812 9962 99.8098
30.1987 10093 100.464
30.3162 10333 101.651
30.4337 10847 104.149
30.5512 10780 103.827
30.6687 10584 102.879
30.7862 11198 105.821
30.9037 11171 105.693
31.0212 11636 107.87
31.1387 11633 107.856
31.2562 11281 106.212
31.3737 11110 105.404
31.4912 10709 103.484
31.6087 10415 102.054
31.7262 10145 100.722
31.8436 9702 98.4987
31.9611 9447 97.1957
32.0785 9832 99.1564
32.1959 10317 101.573
32.3134 10632 103.112
32.4308 11107 105.39
32.5482 11419 106.86
32.6655 11410 106.818
32.7829 11644 107.907
32.9002 11456 107.033
33.0176 11395 106.747
33.1349 11278 106.198
33.2522 11131 105.504
33.3694 10587 102.893
33.4867 10144 100.717
33.6039 9613 98.0459
33.7211 9676 98.3667
33.8383 9620 98.0816
33.9554 9887 99.4334
34.0725 10248 101.232
34.1896 10404 102
34.3067 10662 103.257
34.4237 10877 104.293
34.5407 11071 105.219
34.6577 11068 105.205
34.7746 11101 105.361
34.8915 10952 104.652
35.0084 10773 103.793
35.1252 10472 102.333
35.242 10185 100.921
35.3587 9824 99.1161
35.4755 9723 98.6053
35.5921 9250 96.1769
35.7088 9034 95.0474
35.8254 9406 96.9845
35.9419 9884 99.4183
36.0584 10229 101.139
36.1749 10457 102.259
36.2913 10344 101.705
36.4077 10311 101.543
36.524 9907 99.5339
36.6403 9704 98.5089
36.7565 9305 96.4624
36.8727 8924 94.4669
36.9889 8362 91.444
37.1049 7583 87.0804
37.221 0 1
37.3369 0 1
37.4529 0 1
37.5687 0 1
37.6845 0 1
37.8003 0 1
37.916 0 1
38.0316 0 1
38.1472 0 1
40.5851 0 1
40.7008 0 1
40.8164 0 1
40.9322 0 1
41.048 0 1
41.1639 0 1
41.2798 0 1
41.3958 0 1
41.5118 0 1
41.6279 0 1
41.744 5283 72.6842
41.8602 5783 76.046
41.9765 6403 80.0187
42.0928 6675 81.7007
42.2091 6791 82.4075
42.3255 6859 82.8191
42.4419 6890 83.006
42.5584 6831 82.6499
42.675 7395 85.9942
42.7915 8086 89.9222
42.9081 8487 92.1249
43.0248 8634 92.9193
43.1415 9097 95.3782
43.2582 9114 95.4673
43.375 9391 96.9072
43.4918 9523 97.5859
43.6087 9525 97.5961
43.7256 9398 96.9433
43.8425 9370 96.7988
43.9595 9045 95.1052
44.0765 8802 93.819
44.1935 8455 91.9511
44.3106 8131 90.1721
44.4277 7875 88.7412
44.5448 7713 87.8237
44.6619 7958 89.2076
44.7791 8255 90.857
44.8963 8733 93.4505
45.0136 9197 95.901
45.1308 9458 97.2522
45.2481 9398 96.9433
45.3654 9531 97.6268
45.4827 9508 97.509
45.6001 9509 97.5141
45.7174 9249 96.1717
45.8348 9059 95.1788
45.9522 8360 91.433
46.0697 8444 91.8912
46.1871 8133 90.1831
46.3046 8442 91.8804
46.422 8660 93.0591
46.5395 8866 94.1594
46.657 9390 96.902
46.7745 9496 97.4474
46.892 9499 97.4628
47.0096 9683 98.4022
47.1271 10024 100.12
47.2446 9868 99.3378
47.3622 9803 99.0101
47.4797 9606 98.0102
47.5973 9094 95.3625
47.7149 9065 95.2103
47.8324 8723 93.397
47.95 8071 89.8387
48.0675 7963 89.2356
48.1851 7681 87.6413
48.3027 8191 90.5041
48.4202 8443 91.8858
48.5378 9144 95.6243
48.6554 9549 97.719
48.7729 9767 98.8281
48.8904 9549 97.719
49.008 9731 98.6458
49.1255 9484 97.3858
49.243 9267 96.2653
49.3605 8758 93.5842
49.478 8529 92.3526
49.5955 8375 91.515
49.713 8143 90.2386
49.8304 8274 90.9615
49.9479 8746 93.5201
50.0653 8959 94.652
50.1827 9312 96.4987
50.3001 9293 96.4002
50.4175 9568 97.8162
50.5348 9872 99.3579
50.6521 9692 98.448
50.7694 9869 99.3428
50.8867 9879 99.3932
51.004 9592 97.9388
51.1212 9315 96.5142
51.2384 9167 95.7445
51.3556 8604 92.7577
51.4727 8133 90.1831
51.5899 7605 87.2067
51.707 7752 88.0454
51.824 8061 89.7831
51.9411 8668 93.1021
52.0581 9334 96.6126
52.175 9725 98.6154
52.2919 9789 98.9394
52.4088 9816 99.0757
52.5257 9921 99.6042
52.6425 9899 99.4937
52.7593 9846 99.227
52.876 9421 97.0618
52.9927 9312 96.4987
53.1094 8809 93.8563
53.226 8369 91.4822
53.3426 8393 91.6133
53.4591 8315 91.1866
53.5756 8424 91.7824
53.692 8440 91.8695
53.8084 8338 91.3126
53.9248 8030 89.6103
54.0411 7909 88.9326
54.1573 7571 87.0115
54.2735 0 1
54.3896 0 1
54.5057 0 1
54.6217 0 1
54.7377 0 1
54.8537 0 1
54.9695 0 1
55.0853 0 1
55.2011 0 1
55.3168 0 1
55.4324 0 1
57.824 0 1
57.9396 0 1
58.0553 0 1
58.1711 0 1
58.2869 0 1
58.4028 0 1
58.5187 0 1
58.6347 0 1
58.7508 0 1
58.8669 0 1
58.983 5915 76.909
59.0992 6875 82.9156
59.2155 7727 87.9034
59.3318 8415 91.7333
59.4482 9105 95.4201
59.5646 9947 99.7346
59.681 10324 101.607
59.7975 10549 102.708
59.9141 10499 102.465
60.0306 10422 102.088
60.1473 9840 99.1968
60.2639 9128 95.5406
60.3807 9095 95.3677
60.4974 9134 95.572
60.6142 9662 98.2955
60.731 10565 102.786
60.8479 11209 105.873
60.9648 11636 107.87
61.0818 11757 108.43
61.1987 11783 108.55
61.3158 11758 108.434
61.4328 11412 106.827
61.5499 11129 105.494
61.667 10693 103.407
61.7841 10591 102.913
61.9013 10418 102.069
62.0185 10407 102.015
62.1357 10368 101.823
62.253 10819 104.014
62.3702 11224 105.943
62.4875 11591 107.662
62.6049 11910 109.133
62.7222 12106 110.027
62.8396 11978 109.444
62.9569 12278 110.806
63.0743 12379 111.261
63.1918 12225 110.567
63.3092 11895 109.064
63.4267 11420 106.864
63.5441 10896 104.384
63.6616 10278 101.38
63.7791 9458 97.2522
63.8966 8821 93.9202
64.0142 8764 93.6162
64.1317 9369 96.7936
64.2492 10096 100.479
64.3668 10703 103.455
64.4843 11367 106.616
64.6019 11241 106.024
64.7195 11566 107.545
64.837 11335 106.466
64.9546 11186 105.764
65.0722 11054 105.138
65.1898 10929 104.542
65.3074 10208 101.035
65.4249 10070 100.349
65.5425 9853 99.2623
65.6601 9959 99.7948
65.7777 10386 101.912
65.8952 10733 103.6
66.0128 11209 105.873
66.1304 11294 106.273
66.2479 11769 108.485
66.3655 11660 107.981
66.483 11984 109.471
66.6005 12169 110.313
66.718 11807 108.66
66.8355 11836 108.793
66.953 11295 106.278
67.0705 10828 104.058
67.1879 10307 101.523
67.3054 9689 98.4327
67.4228 8775 93.675
67.5402 8078 89.8777
67.6576 7968 89.2637
67.7749 8546 92.4446
67.8923 9320 96.5401
68.0096 10385 101.907
68.1269 10767 103.764
68.2442 11057 105.152
68.3614 11013 104.943
68.4787 11209 105.873
68.5958 11051 105.124
68.713 10664 103.267
68.8302 10579 102.854
68.9473 9995 99.975
69.0643 9744 98.7117
69.1814 9516 97.55
69.2984 9566 97.8059
69.4154 9798 98.9848
69.5323 10408 102.02
69.6492 10430 102.127
69.7661 10958 104.68
69.8829 11028 105.014
69.9997 10976 104.766
70.1165 10818 104.01
70.2332 10926 104.528
70.3499 10372 101.843
70.4665 10355 101.76
70.5831 9775 98.8686
70.6996 9274 96.3016
70.8161 8667 93.0967
70.9326 7663 87.5386
71.049 6433 80.206
71.1653 4993 70.6612
71.2817 4105 64.0703
71.3979 3979 63.0793
71.5141 3964 62.9603
71.6303 3956 62.8967
71.7464 3597 59.975
71.8624 0 1
71.9784 0 1
72.0944 0 1
72.2102 0 1
72.3261 0 1
72.4418 0 1
72.5575 0 1
72.6732 0 1
75.1054 0 1
75.2209 0 1
75.3365 0 1
75.4521 0 1
75.5678 0 1
75.6835 0 1
75.7993 0 1
75.9151 0 1
76.031 0 1
76.147 5689 75.4255
76.263 5953 77.1557
76.3791 5830 76.3544
76.4952 5551 74.505
76.6113 5453 73.8444
76.7276 6085 78.0064
76.8438 6709 81.9085
76.9601 8005 89.4707
77.0765 8913 94.4087
77.1929 9292 96.395
77.3093 9378 96.8401
77.4258 9413 97.0206
77.5423 9414 97.0258
77.6589 9338 96.6333
77.7755 9088 95.331
77.8921 8720 93.3809
78.0088 8488 92.1303
78.1256 8463 91.9946
78.2423 8286 91.0275
78.3591 8603 92.7524
78.4759 8768 93.6376
78.5928 9137 95.5877
78.7097 9284 96.3535
78.8266 9917 99.5841
78.9436 9735 98.6661
79.0606 9914 99.5691
79.1776 10305 101.514
79.2946 10096 100.479
79.4117 10351 101.74
79.5288 10002 100.01
79.6459 9885 99.4233
79.7631 9447 97.1957
79.8802 8969 94.7048
79.9974 8156 90.3106
80.1147 6922 83.1986
80.2319 6144 78.3837
80.3491 6142 78.3709
80.4664 6947 83.3487
80.5837 7871 88.7187
80.701 8896 94.3186
80.8183 9379 96.8452
80.9357 9720 98.5901
81.053 9784 98.9141
81.1704 9830 99.1464
81.2877 9792 98.9545
81.4051 9463 97.278
81.5225 9307 96.4728
81.6399 8936 94.5304
81.7573 8610 92.7901
81.8747 8641 92.957
81.9922 8584 92.6499
82.1096 8857 94.1116
82.227 9128 95.5406
82.3444 9588 97.9183
82.4619 9931 99.6544
82.5793 10103 100.514
82.6967 10284 101.41
82.8142 10412 102.039
82.9316 10429 102.122
83.049 10276 101.371
83.1664 10211 101.049
83.2838 9996 99.98
83.4012 9678 98.3768
83.5186 9171 95.7653
83.636 8499 92.19
83.7534 7375 85.8778
83.8708 6470 80.4363
83.9881 5962 77.214
84.1055 6327 79.5424
84.2228 7249 85.1411
84.3401 8351 91.3838
84.4575 9252 96.1873
84.5747 9693 98.453
84.692 10165 100.822
84.8093 9854 99.2673
84.9265 9842 99.2069
85.0437 9540 97.6729
85.1609 9114 95.4673
85.2781 8719 93.3756
85.3952 8796 93.787
85.5123 8690 93.2202
85.6294 8878 94.2231
85.7465 8963 94.6731
85.8636 9331 96.5971
85.9806 9645 98.209
86.0976 10105 100.524
86.2145 9998 99.99
86.3315 10378 101.872
86.4484 10417 102.064
86.5652 10402 101.99
86.682 10356 101.764
86.7988 10166 100.827
86.9156 9906 99.5289
87.0323 9687 98.4226
87.149 8912 94.4034
87.2657 8154 90.2995
87.3823 6745 82.1279
87.4988 5855 76.518
87.6154 5638 75.0866
87.7318 6201 78.7464
87.8483 7204 84.8764
87.9647 8191 90.5041
88.081 8835 93.9947
88.1973 8921 94.451
88.3136 8441 91.8749
88.4298 7978 89.3197
88.546 7305 85.4693
88.6621 6164 78.5111
88.7781 4746 68.8912
88.8942 0 1
89.0101 0 1
89.126 0 1
89.2419 0 1
89.3577 0 1
89.4734 0 1
89.5891 0 1
89.7047 0 1
89.8203 0 1
89.9358 0 1
92.3269 0 1
92.4424 0 1
92.558 0 1
92.6736 0 1
92.7893 0 1
92.905 0 1
93.0208 0 1
93.1366 0 1
93.2525 0 1
93.3685 0 1
93.4845 0 1
93.6005 5635 75.0666
93.7167 6110 78.1665
93.8328 6708 81.9024
93.949 7057 84.006
94.0653 7598 87.1665
94.1816 8083 89.9055
94.2979 8386 91.5751
94.4143 8880 94.2338
94.5307 9168 95.7497
94.6472 9093 95.3572
94.7637 9033 95.0421
94.8803 9414 97.0258
94.9969 9641 98.1886
95.1135 9790 98.9444
95.2302 10150 100.747
95.3469 10382 101.892
95.4637 10563 102.776
95.5805 10758 103.721
95.6973 10799 103.918
95.8142 10398 101.971
95.9311 10424 102.098
96.048 10156 100.777
96.1649 9904 99.5188
96.2819 9557 97.7599
96.3989 9028 95.0158
96.516 8033 89.627
96.633 6991 83.6122
96.7501 5911 76.883
96.8673 5939 77.0649
96.9844 6532 80.8208
97.1016 7387 85.9477
97.2188 8569 92.5689
97.336 9429 97.103
97.4532 9883 99.4133
97.5704 10242 101.203
97.6877 10165 100.822
97.805 10073 100.364
97.9223 9702 98.4987
98.0396 9393 96.9175
98.1569 9348 96.6851
98.2743 8952 94.615
98.3916 8985 94.7892
98.509 9316 96.5194
98.6264 9732 98.6509
98.7438 9766 98.8231
98.8612 10145 100.722
98.9786 10247 101.227
99.096 10632 103.112
99.2134 10648 103.189
99.3308 10983 104.8
99.4482 10822 104.029
99.5656 10902 104.413
99.6831 10662 103.257
99.8005 10267 101.326
99.9179 9733 98.656
100.035 9054 95.1525
100.153 7895 88.8538
100.27 6841 82.7103
100.388 6516 80.7217
100.505 6873 82.9036
100.622 7774 88.1703
100.74 9272 96.2912
100.857 9989 99.945
100.975 10255 101.267
101.092 10410 102.029
101.209 10448 102.215
101.327 10221 101.099
101.444 10167 100.832
101.561 9731 98.6458
101.679 9657 98.27
101.796 9407 96.9897
101.913 9377 96.8349
102.03 9794 98.9646
102.148 9978 99.8899
102.265 9982 99.91
102.382 10556 102.742
102.499 10705 103.465
102.616 10955 104.666
102.733 11180 105.736
102.851 11256 106.094
102.968 11232 105.981
103.085 11288 106.245
103.202 11374 106.649
103.319 10796 103.904
103.436 10068 100.339
103.552 9266 96.2601
103.669 8272 90.9505
103.786 7046 83.9405
103.903 6499 80.6164
104.02 7046 83.9405
104.137 8060 89.7775
104.253 9146 95.6347
104.37 10007 100.035
104.487 10571 102.815
104.603 10542 102.674
104.72 10499 102.465
104.836 10163 100.812
104.953 9622 98.0918
105.069 9577 97.8621
105.186 9272 96.2912
105.302 9047 95.1157
105.418 9044 95.0999
105.535 8771 93.6536
105.651 9108 95.4358
105.767 8673 93.1289
105.883 8362 91.444
105.999 7615 87.264
106.115 0 1
106.231 0 1
106.347 0 1
106.463 0 1
106.579 0 1
106.694 0 1
106.81 0 1
106.926 0 1
107.041 0 1
107.157 0 1
109.576 0 1
109.692 0 1
109.807 0 1
109.923 0 1
110.039 0 1
110.155 0 1
110.27 0 1
110.386 0 1
110.502 0 1
110.618 3970 63.0079
110.735 5000 70.7107
110.851 5512 74.2428
110.967 6367 79.7935
111.083 6911 83.1324
111.199 7834 88.5099
111.316 8361 91.4385
111.432 8807 93.8456
111.549 9117 95.483
111.665 9623 98.0969
111.782 9776 98.8737
111.898 9570 97.8264
112.015 8957 94.6414
112.132 8198 90.5428
112.248 7198 84.841
112.365 5949 77.1298
112.482 5399 73.4779
112.599 5978 77.3175
112.716 6900 83.0662
112.832 8163 90.3493
112.949 9069 95.2313
113.066 9098 95.3834
113.183 9472 97.3242
113.3 9279 96.3276
113.417 9263 96.2445
113.534 9255 96.2029
113.652 8858 94.1169
113.769 8794 93.7763
113.886 8521 92.3093
114.003 8672 93.1236
114.12 8669 93.1075
114.238 9151 95.6609
114.355 9408 96.9948
114.472 9996 99.98
114.589 9414 97.0258
114.707 10134 100.668
114.824 10045 100.225
114.942 10039 100.195
115.059 10112 100.558
115.176 10372 101.843
115.294 9990 99.95
115.411 9868 99.3378
115.529 9418 97.0464
115.646 8651 93.0108
115.764 7662 87.5329
115.881 6614 81.3265
115.999 5814 76.2496
116.116 5832 76.3675
116.234 6616 81.3388
116.351 7592 87.1321
116.469 8590 92.6823
116.586 8986 94.7945
116.704 9167 95.7445
116.821 9154 95.6765
116.939 9210 95.9687
117.056 9124 95.5196
117.174 8925 94.4722
117.291 8779 93.6963
117.409 8694 93.2416
117.526 8558 92.5095
117.644 8706 93.3059
117.761 8969 94.7048
117.879 9234 96.0937
117.996 9405 96.9794
118.114 9681 98.3921
118.231 9732 98.6509
118.349 9902 99.5088
118.466 9972 99.8599
118.584 10045 100.225
118.701 9948 99.7397
118.819 9711 98.5444
118.936 9600 97.9796
119.053 9302 96.4469
119.171 8752 93.5521
119.288 8053 89.7385
119.405 7138 84.4867
119.523 5905 76.844
119.64 5385 73.3826
119.757 5783 76.046
119.875 6442 80.2621
119.992 7238 85.0764
120.109 8204 90.5759
120.226 8370 91.4877
120.343 8598 92.7254
120.46 8715 93.3542
120.578 8742 93.4987
120.695 8618 92.8332
120.812 8655 93.0323
120.929 8319 91.2086
121.046 8060 89.7775
121.163 8308 91.1482
121.279 8226 90.6973
121.396 8283 91.011
121.513 8538 92.4013
121.63 8468 92.0217
121.747 8573 92.5905
121.863 8710 93.3274
121.98 8890 94.2868
122.097 8881 94.2391
122.213 8806 93.8403
122.33 8646 92.9839
122.446 8376 91.5205
122.563 7997 89.4259
122.679 7561 86.954
122.795 6895 83.0361
122.912 5858 76.5376
123.028 4566 67.5722
123.144 3716 60.959
123.26 2971 54.5069
123.377 0 1
123.493 0 1
123.609 0 1
123.725 0 1
123.84 0 1
123.956 0 1
124.072 0 1
124.188 0 1
124.303 0 1
124.419 0 1
126.852 0 1
126.968 0 1
127.083 0 1
127.199 0 1
127.315 0 1
127.431 0 1
127.547 0 1
127.663 0 1
127.779 0 1
127.895 0 1
128.011 0 1
128.127 0 1
128.243 0 1
128.359 7146 84.534
128.476 7177 84.7172
128.592 6762 82.2314
128.708 6009 77.5177
128.825 6074 77.9359
128.941 6517 80.7279
129.058 7585 87.0919
129.174 8603 92.7524
129.291 9144 95.6243
129.408 9424 97.0773
129.524 9538 97.6627
129.641 9680 98.387
129.758 9651 98.2395
129.875 9252 96.1873
129.992 9457 97.2471
130.108 9357 96.7316
130.225 9212 95.9792
130.342 9193 95.8801
130.459 9480 97.3653
130.576 9225 96.0469
130.693 9716 98.5698
130.81 10031 100.155
130.928 9854 99.2673
131.045 10057 100.285
131.162 9824 99.1161
131.279 10095 100.474
131.396 9982 99.91
131.513 9808 99.0353
131.631 9412 97.0155
131.748 9285 96.3587
131.865 8951 94.6097
131.983 8477 92.0706
132.1 7434 86.2206
132.217 6337 79.6053
132.335 6036 77.6917
132.452 6587 81.1603
132.57 7212 84.9235
132.687 8437 91.8531
132.804 8840 94.0213
132.922 9165 95.734
133.039 9359 96.7419
133.157 9468 97.3036
133.274 9356 96.7264
133.392 9283 96.3483
133.509 9149 95.6504
133.627 9406 96.9845
133.744 9156 95.687
133.862 9144 95.6243
133.979 9142 95.6138
134.097 9209 95.9635
134.214 9489 97.4115
134.332 9554 97.7446
134.449 9801 99
134.567 9915 99.5741
134.684 9820 99.0959
134.802 9705 98.514
134.919 9888 99.4384
135.037 9450 97.2111
135.154 9288 96.3743
135.272 9183 95.828
135.389 8900 94.3398
135.507 8481 92.0923
135.624 7711 87.8123
135.742 6640 81.4862
135.859 5954 77.1622
135.977 6302 79.3851
136.094 6975 83.5165
136.211 7920 88.9944
136.329 8663 93.0752
136.446 9057 95.1683
136.564 9181 95.8175
136.681 9131 95.5563
136.798 9210 95.9687
136.915 9289 96.3795
137.033 9236 96.1041
137.15 9329 96.5867
137.267 9163 95.7236
137.384 9100 95.3939
137.502 8880 94.2338
137.619 8897 94.3239
137.736 9121 95.5039
137.853 8865 94.1541
137.97 9042 95.0894
138.087 9521 97.5756
138.204 9334 96.6126
138.321 9515 97.5449
138.438 9163 95.7236
138.555 9361 96.7523
138.672 9445 97.1854
138.788 8738 93.4773
138.905 8522 92.3147
139.022 8351 91.3838
139.139 7780 88.2043
139.255 7129 84.4334
139.372 6270 79.1833
139.488 5286 72.7049
139.605 5310 72.8697
139.721 5491 74.1013
139.838 5991 77.4016
139.954 6305 79.404
140.071 6208 78.7909
140.187 5416 73.5935
140.303 4742 68.8622
140.419 4278 65.4064
140.535 3983 63.111
140.652 3713 60.9344
140.768 0 1
140.884 0 1
141 0 1
141.115 0 1
141.231 0 1
141.347 0 1
141.463 0 1
141.578 0 1
141.694 0 1
144.104 0 1
144.219 0 1
144.335 0 1
144.45 0 1
144.566 0 1
144.682 0 1
144.798 0 1
144.914 0 1
145.03 0 1
145.146 5355 73.1779
145.262 5986 77.3692
145.378 6557 80.9753
145.494 6839 82.6982
145.61 7129 84.4334
145.726 7182 84.7467
145.842 7034 83.8689
145.959 7120 84.3801
146.075 6991 83.6122
146.192 6960 83.4266
146.308 6886 82.9819
146.425 6981 83.5524
146.541 6876 82.9216
146.658 6955 83.3966
146.774 7046 83.9405
146.891 7106 84.2971
147.008 7375 85.8778
147.125 7136 84.4748
147.241 7241 85.0941
147.358 7100 84.2615
147.475 7176 84.7113
147.592 7151 84.5636
147.709 6893 83.0241
147.826 6328 79.5487
147.943 6270 79.1833
148.06 6023 77.608
148.177 5207 72.1595
148.294 4913 70.0928
148.411 5043 71.0141
148.528 5497 74.1418
148.645 5948 77.1233
148.762 6663 81.6272
148.88 6980 83.5464
148.997 7236 85.0647
149.114 6814 82.547
149.231 7137 84.4808
149.349 7223 84.9882
149.466 7038 83.8928
149.583 7153 84.5754
149.701 6938 83.2947
149.818 6887 82.988
149.935 6861 82.8312
150.053 6850 82.7647
150.17 7011 83.7317
150.287 6964 83.4506
150.405 6914 83.1505
150.522 7077 84.1249
150.64 7000 83.666
150.757 7137 84.4808
150.875 7220 84.9706
150.992 7190 84.7939
151.11 7211 84.9176
151.227 7085 84.1724
151.344 6886 82.9819
151.462 6641 81.4923
151.579 6376 79.8499
151.697 6007 77.5048
151.814 5634 75.06
151.932 5114 71.5122
152.049 5290 72.7324
152.167 5531 74.3707
152.284 5972 77.2787
152.402 6553 80.9506
152.519 6964 83.4506
152.636 7066 84.0595
152.754 7133 84.4571
152.871 6866 82.8613
152.989 7116 84.3564
153.106 7020 83.7854
153.223 7024 83.8093
153.341 6917 83.1685
153.458 6872 82.8975
153.575 6911 83.1324
153.693 6834 82.668
153.81 6873 82.9036
153.927 6930 83.2466
154.044 6986 83.5823
154.162 6891 83.012
154.279 6939 83.3007
154.396 7277 85.3053
154.513 7106 84.2971
154.63 7247 85.1293
154.747 7168 84.664
154.864 7072 84.0952
154.981 6781 82.3468
155.098 6339 79.6178
155.215 6256 79.0949
155.332 5821 76.2955
155.449 5440 73.7564
155.566 5168 71.8888
155.683 5365 73.2462
155.8 5611 74.9066
155.917 6092 78.0513
156.033 6266 79.1581
156.15 0 1
156.267 0 1
156.383 0 1
156.5 0 1
156.617 0 1
156.733 0 1
156.85 0 1
156.966 0 1
157.082 0 1
157.199 0 1
157.315 0 1
157.431 0 1
157.547 0 1
157.664 0 1
157.78 0 1
157.896 0 1
158.012 0 1
158.128 0 1
158.244 0 1
158.359 0 1
158.475 0 1
158.591 0 1
158.706 0 1
