
6.15755 0 1
6.2731 0 1
6.3887 0 1
6.50437 0 1
6.62009 0 1
6.73587 0 1
6.8517 0 1
6.96759 0 1
7.08353 0 1
7.19952 0 1
7.31557 0 1
7.43166 0 1
7.54781 0 1
7.664 0 1
7.78024 0 1
7.89653 0 1
8.01286 0 1
8.12924 0 1
8.24567 0 1
8.36213 0 1
8.47864 0 1
8.59519 0 1
8.71178 0 1
8.82841 0 1
8.94508 0 1
9.06179 0 1
9.17853 0 1
9.29531 0 1
9.41212 0 1
9.52897 0 1
9.64584 0 1
9.76276 0 1
9.8797 0 1
9.99667 0 1
10.1137 0 1
10.2307 0 1
10.3478 0 1
10.4648 0 1
10.5819 0 1
10.6991 0 1
10.8162 0 1
10.9334 0 1
11.0506 0 1
11.1678 0 1
11.285 0 1
11.4023 0 1
11.5196 0 1
11.6369 0 1
11.7542 0 1
11.8715 0 1
11.9888 0 1
12.1062 0 1
12.2235 0 1
12.3409 0 1
12.4582 0 1
12.5756 0 1
12.693 0 1
12.8104 0 1
12.9278 0 1
13.0452 0 1
13.1626 0 1
13.28 0 1
13.3974 0 1
13.5149 0 1
13.6323 0 1
13.7497 0 1
13.8671 0 1
13.9845 0 1
14.1019 0 1
14.2193 0 1
14.3367 0 1
14.4541 0 1
14.5714 0 1
14.6888 0 1
14.8062 0 1
14.9235 0 1
15.0408 1797 42.391
15.1581 1916 43.7721
15.2755 2000 44.7214
15.3927 2066 45.4533
15.51 2031 45.0666
15.6273 2027 45.0222
15.7445 1922 43.8406
15.8617 1936 44
15.9789 1827 42.7434
16.0961 1766 42.0238
16.2132 1658 40.7185
16.3304 1635 40.4351
16.4475 1642 40.5216
16.5646 1641 40.5093
16.6816 1697 41.1947
16.7986 1676 40.939
16.9156 1639 40.4846
17.0326 1489 38.5876
17.1496 1534 39.1663
17.2665 1521 39
17.3833 1555 39.4335
17.5002 1507 38.8201
17.617 1501 38.7427
17.7338 1506 38.8072
17.8505 1633 40.4104
17.9672 1564 39.5474
18.0839 1636 40.4475
18.2005 1683 41.0244
18.3171 1708 41.328
18.4337 1786 42.2611
18.5502 1793 42.3438
18.6666 1791 42.3202
18.7831 1845 42.9535
18.8994 1696 41.1825
19.0158 1611 40.1373
19.1321 1617 40.2119
19.2483 1497 38.6911
19.3645 1379 37.1349
19.4806 1300 36.0555
19.5967 1228 35.0428
19.7128 1037 32.2025
19.8288 1054 32.4654
19.9447 974 31.209
20.0606 0 1
20.1764 0 1
20.2922 0 1
20.4079 0 1
20.5236 0 1
20.6392 0 1
20.7548 0 1
20.8702 0 1
23.3078 0 1
23.4233 0 1
23.539 0 1
23.6547 0 1
23.7704 0 1
23.8862 0 1
24.0021 0 1
24.118 0 1
24.234 0 1
24.35 0 1
24.4661 733 27.074
24.5822 884 29.7321
24.6984 930 30.4959
24.8146 880 29.6648
24.9309 979 31.289
25.0472 1051 32.4191
25.1636 1118 33.4365
25.28 1273 35.6791
25.3965 1352 36.7696
25.513 1441 37.9605
25.6296 1477 38.4318
25.7462 1644 40.5463
25.8628 1613 40.1622
25.9795 1632 40.398
26.0962 1655 40.6817
26.213 1608 40.0999
26.3298 1639 40.4846
26.4466 1536 39.1918
26.5635 1473 38.3797
26.6804 1496 38.6782
26.7973 1525 39.0512
26.9143 1526 39.064
27.0313 1564 39.5474
27.1483 1667 40.8289
27.2653 1661 40.7554
27.3824 1578 39.724
27.4996 1639 40.4846
27.6167 1623 40.2865
27.7339 1527 39.0768
27.8511 1489 38.5876
27.9683 1436 37.8946
28.0855 1463 38.2492
28.2028 1428 37.7889
28.3201 1309 36.1801
28.4374 1242 35.242
28.5547 1245 35.2846
28.6721 1311 36.2077
28.7894 1265 35.5668
28.9068 1344 36.6606
29.0242 1342 36.6333
29.1416 1377 37.108
29.259 1414 37.6032
29.3764 1423 37.7227
29.4939 1412 37.5766
29.6113 1448 38.0526
29.7288 1484 38.5227
29.8463 1424 37.7359
29.9638 1428 37.7889
30.0812 1436 37.8946
30.1987 1461 38.223
30.3162 1472 38.3667
30.4337 1472 38.3667
30.5512 1469 38.3275
30.6687 1513 38.8973
30.7862 1533 39.1535
30.9037 1472 38.3667
31.0212 1535 39.1791
31.1387 1493 38.6394
31.2562 1454 38.1314
31.3737 1462 38.2361
31.4912 1439 37.9342
31.6087 1396 37.3631
31.7262 1283 35.819
31.8436 1243 35.2562
31.9611 1200 34.641
32.0785 1184 34.4093
32.1959 1284 35.8329
32.3134 1283 35.819
32.4308 1256 35.4401
32.5482 1303 36.0971
32.6655 1388 37.2559
32.7829 1314 36.2491
32.9002 1402 37.4433
33.0176 1383 37.1887
33.1349 1368 36.9865
33.2522 1388 37.2559
33.3694 1413 37.5899
33.4867 1384 37.2022
33.6039 1338 36.5787
33.7211 1360 36.8782
33.8383 1342 36.6333
33.9554 1425 37.7492
34.0725 1404 37.47
34.1896 1420 37.6829
34.3067 1458 38.1838
34.4237 1476 38.4187
34.5407 1455 38.1445
34.6577 1428 37.7889
34.7746 1423 37.7227
34.8915 1403 37.4566
35.0084 1349 36.7287
35.1252 1344 36.6606
35.242 1386 37.229
35.3587 1338 36.5787
35.4755 1210 34.7851
35.5921 1135 33.6898
35.7088 1136 33.7046
35.8254 1129 33.6006
35.9419 1159 34.0441
36.0584 1252 35.3836
36.1749 1241 35.2278
36.2913 1240 35.2136
36.4077 1241 35.2278
36.524 1251 35.3695
36.6403 1199 34.6266
36.7565 1196 34.5832
36.8727 1202 34.6699
36.9889 1113 33.3617
37.1049 1057 32.5115
37.221 0 1
37.3369 0 1
37.4529 0 1
37.5687 0 1
37.6845 0 1
37.8003 0 1
37.916 0 1
38.0316 0 1
38.1472 0 1
40.5851 0 1
40.7008 0 1
40.8164 0 1
40.9322 0 1
41.048 0 1
41.1639 0 1
41.2798 0 1
41.3958 0 1
41.5118 0 1
41.6279 0 1
41.744 683 26.1343
41.8602 736 27.1293
41.9765 803 28.3373
42.0928 813 28.5132
42.2091 898 29.9666
42.3255 927 30.4467
42.4419 975 31.225
42.5584 1057 32.5115
42.675 1014 31.8434
42.7915 1097 33.121
42.9081 1212 34.8138
43.0248 1224 34.9857
43.1415 1292 35.9444
43.2582 1305 36.1248
43.375 1311 36.2077
43.4918 1362 36.9053
43.6087 1354 36.7967
43.7256 1261 35.5106
43.8425 1346 36.6879
43.9595 1288 35.8887
44.0765 1336 36.5513
44.1935 1297 36.0139
44.3106 1194 34.5543
44.4277 1177 34.3074
44.5448 1031 32.1092
44.6619 1046 32.3419
44.7791 1051 32.4191
44.8963 1130 33.6155
45.0136 1174 34.2637
45.1308 1238 35.1852
45.2481 1167 34.1614
45.3654 1192 34.5254
45.4827 1216 34.8712
45.6001 1346 36.6879
45.7174 1394 37.3363
45.8348 1294 35.9722
45.9522 1243 35.2562
46.0697 1296 36
46.1871 1293 35.9583
46.3046 1308 36.1663
46.422 1378 37.1214
46.5395 1420 37.6829
46.657 1421 37.6962
46.7745 1430 37.8153
46.892 1441 37.9605
47.0096 1501 38.7427
47.1271 1532 39.1408
47.2446 1455 38.1445
47.3622 1543 39.281
47.4797 1456 38.1576
47.5973 1444 38
47.7149 1403 37.4566
47.8324 1295 35.9861
47.95 1237 35.171
48.0675 1156 34
48.1851 1185 34.4238
48.3027 1128 33.5857
48.4202 1305 36.1248
48.5378 1297 36.0139
48.6554 1318 36.3043
48.7729 1388 37.2559
48.8904 1371 37.027
49.008 1324 36.3868
49.1255 1483 38.5097
49.243 1399 37.4032
49.3605 1426 37.7624
49.478 1438 37.921
49.5955 1453 38.1182
49.713 1360 36.8782
49.8304 1492 38.6264
49.9479 1461 38.223
50.0653 1523 39.0256
50.1827 1604 40.05
50.3001 1590 39.8748
50.4175 1651 40.6325
50.5348 1705 41.2916
50.6521 1672 40.8901
50.7694 1693 41.1461
50.8867 1680 40.9878
51.004 1658 40.7185
51.1212 1605 40.0625
51.2384 1493 38.6394
51.3556 1437 37.9078
51.4727 1295 35.9861
51.5899 1361 36.8917
51.707 1328 36.4417
51.824 1357 36.8375
51.9411 1486 38.5487
52.0581 1517 38.9487
52.175 1604 40.05
52.2919 1526 39.064
52.4088 1585 39.8121
52.5257 1708 41.328
52.6425 1539 39.2301
52.7593 1584 39.7995
52.876 1636 40.4475
52.9927 1644 40.5463
53.1094 1640 40.4969
53.226 1618 40.2244
53.3426 1601 40.0125
53.4591 1636 40.4475
53.5756 1631 40.3856
53.692 1760 41.9524
53.8084 1638 40.4722
53.9248 1587 39.8372
54.0411 1564 39.5474
54.1573 1495 38.6652
54.2735 0 1
54.3896 0 1
54.5057 0 1
54.6217 0 1
54.7377 0 1
54.8537 0 1
54.9695 0 1
55.0853 0 1
55.2011 0 1
55.3168 0 1
55.4324 0 1
57.824 0 1
57.9396 0 1
58.0553 0 1
58.1711 0 1
58.2869 0 1
58.4028 0 1
58.5187 0 1
58.6347 0 1
58.7508 0 1
58.8669 0 1
58.983 1294 35.9722
59.0992 1598 39.975
59.2155 1813 42.5793
59.3318 1957 44.238
59.4482 2155 46.422
59.5646 2331 48.2804
59.681 2467 49.6689
59.7975 2494 49.94
59.9141 2431 49.3052
60.0306 2417 49.163
60.1473 2392 48.9081
60.2639 2191 46.8081
60.3807 2256 47.4974
60.4974 2177 46.6583
60.6142 2346 48.4355
60.731 2584 50.8331
60.8479 2654 51.517
60.9648 2807 52.9811
61.0818 2749 52.4309
61.1987 2896 53.8145
61.3158 2970 54.4977
61.4328 2997 54.7449
61.5499 3009 54.8544
61.667 3085 55.5428
61.7841 2977 54.5619
61.9013 2965 54.4518
62.0185 2974 54.5344
62.1357 3036 55.0999
62.253 3021 54.9636
62.3702 3155 56.1694
62.4875 3172 56.3205
62.6049 3280 57.2713
62.7222 3387 58.1979
62.8396 3403 58.3352
62.9569 3412 58.4123
63.0743 3450 58.7367
63.1918 3292 57.376
63.3092 3336 57.7581
63.4267 3216 56.7098
63.5441 2932 54.1479
63.6616 2780 52.7257
63.7791 2596 50.951
63.8966 2372 48.7032
64.0142 2417 49.163
64.1317 2647 51.449
64.2492 2707 52.0288
64.3668 3014 54.8999
64.4843 3214 56.6922
64.6019 3281 57.28
64.7195 3256 57.0614
64.837 3182 56.4092
64.9546 3285 57.3149
65.0722 3197 56.542
65.1898 3318 57.6021
65.3074 3294 57.3934
65.4249 3204 56.6039
65.5425 3209 56.648
65.6601 3091 55.5968
65.7777 3292 57.376
65.8952 3265 57.1402
66.0128 3435 58.6089
66.1304 3623 60.1914
66.2479 3603 60.025
66.3655 3534 59.4475
66.483 3646 60.3821
66.6005 3647 60.3904
66.718 3722 61.0082
66.8355 3426 58.532
66.953 3438 58.6345
67.0705 3304 57.4804
67.1879 3028 55.0273
67.3054 2745 52.3927
67.4228 2474 49.7393
67.5402 2380 48.7852
67.6576 2491 49.9099
67.7749 2648 51.4587
67.8923 3012 54.8817
68.0096 3226 56.7979
68.1269 3359 57.9569
68.2442 3325 57.6628
68.3614 3334 57.7408
68.4787 3329 57.6975
68.5958 3402 58.3267
68.713 3441 58.66
68.8302 3539 59.4895
68.9473 3425 58.5235
69.0643 3303 57.4717
69.1814 3307 57.5065
69.2984 3196 56.5332
69.4154 3222 56.7627
69.5323 3353 57.9051
69.6492 3309 57.5239
69.7661 3212 56.6745
69.8829 3518 59.3127
69.9997 3572 59.7662
70.1165 3496 59.127
70.2332 3372 58.0689
70.3499 3357 57.9396
70.4665 3255 57.0526
70.5831 3037 55.109
70.6996 2794 52.8583
70.8161 2549 50.4876
70.9326 2171 46.594
71.049 1786 42.2611
71.1653 1513 38.8973
71.2817 1384 37.2022
71.3979 1310 36.1939
71.5141 1391 37.2961
71.6303 1392 37.3095
71.7464 1204 34.6987
71.8624 0 1
71.9784 0 1
72.0944 0 1
72.2102 0 1
72.3261 0 1
72.4418 0 1
72.5575 0 1
72.6732 0 1
75.1054 0 1
75.2209 0 1
75.3365 0 1
75.4521 0 1
75.5678 0 1
75.6835 0 1
75.7993 0 1
75.9151 0 1
76.031 0 1
76.147 1771 42.0833
76.263 1779 42.1782
76.3791 1700 41.2311
76.4952 1767 42.0357
76.6113 1822 42.6849
76.7276 2096 45.7821
76.8438 2437 49.366
76.9601 2583 50.8232
77.0765 2766 52.5928
77.1929 2902 53.8702
77.3093 2971 54.5069
77.4258 3059 55.3082
77.5423 3093 55.6147
77.6589 2927 54.1018
77.7755 3016 54.9181
77.8921 3108 55.7494
78.0088 2812 53.0283
78.1256 2867 53.5444
78.2423 2857 53.4509
78.3591 2973 54.5252
78.4759 2805 52.9623
78.5928 2907 53.9166
78.7097 3032 55.0636
78.8266 3103 55.7046
78.9436 3274 57.2189
79.0606 3268 57.1664
79.1776 3241 56.9298
79.2946 3349 57.8705
79.4117 3401 58.3181
79.5288 3221 56.7539
79.6459 3183 56.4181
79.7631 2808 52.9906
79.8802 2550 50.4975
79.9974 2280 47.7493
80.1147 2011 44.8442
80.2319 2033 45.0888
80.3491 2300 47.9583
80.4664 2561 50.6063
80.5837 2736 52.3068
80.701 2977 54.5619
80.8183 3023 54.9818
80.9357 3008 54.8452
81.053 3102 55.6956
81.1704 3150 56.1249
81.2877 3095 55.6327
81.4051 3087 55.5608
81.5225 3152 56.1427
81.6399 3060 55.3173
81.7573 3033 55.0727
81.8747 2951 54.3231
81.9922 3022 54.9727
82.1096 3070 55.4076
82.227 3100 55.6776
82.3444 3030 55.0454
82.4619 3349 57.8705
82.5793 3433 58.5918
82.6967 3398 58.2924
82.8142 3484 59.0254
82.9316 3384 58.1722
83.049 3328 57.6888
83.1664 3396 58.2752
83.2838 3147 56.0981
83.4012 2843 53.3198
83.5186 2715 52.1057
83.636 2420 49.1935
83.7534 2131 46.1628
83.8708 2079 45.5961
83.9881 2301 47.9687
84.1055 2558 50.5767
84.2228 2832 53.2165
84.3401 3011 54.8726
84.4575 3109 55.7584
84.5747 3227 56.8067
84.692 3270 57.1839
84.8093 3318 57.6021
84.9265 3216 56.7098
85.0437 3252 57.0263
85.1609 3104 55.7136
85.2781 3087 55.5608
85.3952 3112 55.7853
85.5123 3137 56.0089
85.6294 2989 54.6717
85.7465 3144 56.0714
85.8636 3089 55.5788
85.9806 3195 56.5243
86.0976 3348 57.8619
86.2145 3413 58.4209
86.3315 3545 59.5399
86.4484 3382 58.155
86.5652 3471 58.9152
86.682 3385 58.1808
86.7988 3235 56.8771
86.9156 3153 56.1516
87.0323 2907 53.9166
87.149 2654 51.517
87.2657 2341 48.3839
87.3823 2246 47.392
87.4988 2192 46.8188
87.6154 2356 48.5386
87.7318 2627 51.2543
87.8483 2762 52.5547
87.9647 2793 52.8488
88.081 2900 53.8516
88.1973 2791 52.8299
88.3136 2722 52.1728
88.4298 2441 49.4065
88.546 2172 46.6047
88.6621 1867 43.2088
88.7781 1634 40.4228
88.8942 0 1
89.0101 0 1
89.126 0 1
89.2419 0 1
89.3577 0 1
89.4734 0 1
89.5891 0 1
89.7047 0 1
89.8203 0 1
89.9358 0 1
92.3269 0 1
92.4424 0 1
92.558 0 1
92.6736 0 1
92.7893 0 1
92.905 0 1
93.0208 0 1
93.1366 0 1
93.2525 0 1
93.3685 0 1
93.4845 0 1
93.6005 2230 47.2229
93.7167 2501 50.01
93.8328 2722 52.1728
93.949 2955 54.3599
94.0653 3038 55.1181
94.1816 3189 56.4712
94.2979 3314 57.5674
94.4143 3372 58.0689
94.5307 3308 57.5152
94.6472 3193 56.5066
94.7637 3310 57.5326
94.8803 3362 57.9828
94.9969 3353 57.9051
95.1135 3443 58.6771
95.2302 3482 59.0085
95.3469 3600 60
95.4637 3702 60.8441
95.5805 3669 60.5723
95.6973 3617 60.1415
95.8142 3419 58.4722
95.9311 3333 57.7321
96.048 3171 56.3116
96.1649 3010 54.8635
96.2819 2712 52.0769
96.3989 2599 50.9804
96.516 2394 48.9285
96.633 2434 49.3356
96.7501 2636 51.342
96.8673 2928 54.111
96.9844 3087 55.5608
97.1016 3258 57.0789
97.2188 3342 57.81
97.336 3356 57.931
97.4532 3490 59.0762
97.5704 3449 58.7282
97.6877 3402 58.3267
97.805 3387 58.1979
97.9223 3238 56.9034
98.0396 3196 56.5332
98.1569 3189 56.4712
98.2743 3191 56.4889
98.3916 3188 56.4624
98.509 3291 57.3672
98.6264 3330 57.7062
98.7438 3673 60.6053
98.8612 3615 60.1249
98.9786 3658 60.4814
99.096 3723 61.0164
99.2134 3743 61.1801
99.3308 3722 61.0082
99.4482 3661 60.5062
99.5656 3503 59.1861
99.6831 3259 57.0877
99.8005 3021 54.9636
99.9179 2819 53.0943
100.035 2705 52.0096
100.153 2738 52.3259
100.27 2873 53.6004
100.388 3103 55.7046
100.505 3237 56.8946
100.622 3302 57.463
100.74 3431 58.5747
100.857 3442 58.6686
100.975 3549 59.5735
101.092 3586 59.8832
101.209 3580 59.8331
101.327 3499 59.1523
101.444 3387 58.1979
101.561 3176 56.356
101.679 3226 56.7979
101.796 3214 56.6922
101.913 3307 57.5065
102.03 3323 57.6455
102.148 3524 59.3633
102.265 3594 59.95
102.382 3659 60.4897
102.499 3677 60.6383
102.616 3753 61.2617
102.733 3752 61.2536
102.851 3763 61.3433
102.968 3750 61.2372
103.085 3455 58.7792
103.202 3311 57.5413
103.319 3042 55.1543
103.436 2961 54.4151
103.552 2709 52.0481
103.669 2773 52.6593
103.786 2878 53.647
103.903 2970 54.4977
104.02 3274 57.2189
104.137 3430 58.5662
104.253 3410 58.3952
104.37 3392 58.2409
104.487 3501 59.1692
104.603 3394 58.258
104.72 3301 57.4543
104.836 3302 57.463
104.953 3067 55.3805
105.069 3073 55.4346
105.186 2918 54.0185
105.302 2923 54.0648
105.418 2728 52.2303
105.535 2758 52.5167
105.651 2595 50.9411
105.767 2498 49.98
105.883 2300 47.9583
105.999 1982 44.5197
106.115 0 1
106.231 0 1
106.347 0 1
106.463 0 1
106.579 0 1
106.694 0 1
106.81 0 1
106.926 0 1
107.041 0 1
107.157 0 1
109.576 0 1
109.692 0 1
109.807 0 1
109.923 0 1
110.039 0 1
110.155 0 1
110.27 0 1
110.386 0 1
110.502 0 1
110.618 1591 39.8873
110.735 1874 43.2897
110.851 2259 47.5289
110.967 2468 49.679
111.083 2619 51.1762
111.199 2916 54
111.316 3075 55.4527
111.432 3282 57.2887
111.549 3189 56.4712
111.665 3256 57.0614
111.782 3125 55.9017
111.898 2994 54.7175
112.015 2877 53.6377
112.132 2535 50.3488
112.248 2408 49.0714
112.365 2433 49.3254
112.482 2716 52.1153
112.599 2911 53.9537
112.716 3002 54.7905
112.832 3053 55.254
112.949 2978 54.5711
113.066 3075 55.4527
113.183 3153 56.1516
113.3 3025 55
113.417 3071 55.4166
113.534 2990 54.6809
113.652 2956 54.3691
113.769 2919 54.0278
113.886 2837 53.2635
114.003 2837 53.2635
114.12 2918 54.0185
114.238 2962 54.4243
114.355 3096 55.6417
114.472 3205 56.6127
114.589 3230 56.8331
114.707 3298 57.4282
114.824 3353 57.9051
114.942 3207 56.6304
115.059 3395 58.2666
115.176 3263 57.1227
115.294 3110 55.7674
115.411 2982 54.6077
115.529 2918 54.0185
115.646 2660 51.5752
115.764 2443 49.4267
115.881 2429 49.2849
115.999 2530 50.2991
116.116 2770 52.6308
116.234 2886 53.7215
116.351 2848 53.3667
116.469 2898 53.8331
116.586 2951 54.3231
116.704 2939 54.2125
116.821 2948 54.2955
116.939 2962 54.4243
117.056 2852 53.4041
117.174 2831 53.2071
117.291 2660 51.5752
117.409 2673 51.7011
117.526 2650 51.4782
117.644 2725 52.2015
117.761 2826 53.1601
117.879 2969 54.4885
117.996 2962 54.4243
118.114 3141 56.0446
118.231 3085 55.5428
118.349 3106 55.7315
118.466 3162 56.2317
118.584 3128 55.9285
118.701 3055 55.2721
118.819 2983 54.6168
118.936 2745 52.3927
119.053 2758 52.5167
119.171 2612 51.1077
119.288 2447 49.4672
119.405 2299 47.9479
119.523 2320 48.1664
119.64 2505 50.05
119.757 2638 51.3615
119.875 2715 52.1057
119.992 2700 51.9615
120.109 2728 52.2303
120.226 2751 52.45
120.343 2791 52.8299
120.46 2680 51.7687
120.578 2733 52.2781
120.695 2630 51.2835
120.812 2520 50.1996
120.929 2573 50.7247
121.046 2415 49.1426
121.163 2402 49.0102
121.279 2427 49.2646
121.396 2504 50.04
121.513 2552 50.5173
121.63 2645 51.4296
121.747 2682 51.788
121.863 2561 50.6063
121.98 2713 52.0865
122.097 2674 51.7107
122.213 2627 51.2543
122.33 2554 50.5371
122.446 2369 48.6724
122.563 2212 47.0319
122.679 2035 45.111
122.795 1795 42.3674
122.912 1594 39.9249
123.028 1417 37.6431
123.144 1265 35.5668
123.26 1233 35.1141
123.377 0 1
123.493 0 1
123.609 0 1
123.725 0 1
123.84 0 1
123.956 0 1
124.072 0 1
124.188 0 1
124.303 0 1
124.419 0 1
126.852 0 1
126.968 0 1
127.083 0 1
127.199 0 1
127.315 0 1
127.431 0 1
127.547 0 1
127.663 0 1
127.779 0 1
127.895 0 1
128.011 0 1
128.127 0 1
128.243 0 1
128.359 2566 50.6557
128.476 2485 49.8498
128.592 2629 51.2738
128.708 2668 51.6527
128.825 2820 53.1037
128.941 2940 54.2218
129.058 3074 55.4437
129.174 3002 54.7905
129.291 3036 55.0999
129.408 2983 54.6168
129.524 3004 54.8088
129.641 3097 55.6507
129.758 2949 54.3047
129.875 2801 52.9245
129.992 2680 51.7687
130.108 2694 51.9038
130.225 2657 51.5461
130.342 2798 52.8961
130.459 2865 53.5257
130.576 3161 56.2228
130.693 3157 56.1872
130.81 3164 56.2494
130.928 3022 54.9727
131.045 3158 56.1961
131.162 3156 56.1783
131.279 3049 55.2178
131.396 3246 56.9737
131.513 3094 55.6237
131.631 3086 55.5518
131.748 2961 54.4151
131.865 2734 52.2877
131.983 2619 51.1762
132.1 2601 51
132.217 2704 52
132.335 2956 54.3691
132.452 3068 55.3895
132.57 3085 55.5428
132.687 2915 53.9907
132.804 3076 55.4617
132.922 3023 54.9818
133.039 2961 54.4151
133.157 2991 54.69
133.274 2980 54.5894
133.392 2798 52.8961
133.509 2781 52.7352
133.627 2739 52.3355
133.744 2610 51.0882
133.862 2851 53.3948
133.979 2923 54.0648
134.097 3047 55.1996
134.214 3074 55.4437
134.332 3178 56.3738
134.449 3159 56.205
134.567 3073 55.4346
134.684 3012 54.8817
134.802 3209 56.648
134.919 3099 55.6687
135.037 3092 55.6058
135.154 3049 55.2178
135.272 2993 54.7083
135.389 2834 53.2353
135.507 2752 52.4595
135.624 2621 51.1957
135.742 2675 51.7204
135.859 2845 53.3385
135.977 2933 54.1572
136.094 3021 54.9636
136.211 2904 53.8888
136.329 2895 53.8052
136.446 2942 54.2402
136.564 2926 54.0925
136.681 2931 54.1387
136.798 2939 54.2125
136.915 2793 52.8488
137.033 2747 52.4118
137.15 2660 51.5752
137.267 2609 51.0784
137.384 2692 51.8845
137.502 2735 52.2972
137.619 2785 52.7731
137.736 3066 55.3715
137.853 2805 52.9623
137.97 2957 54.3783
138.087 2817 53.0754
138.204 2917 54.0093
138.321 2903 53.8795
138.438 2943 54.2494
138.555 2957 54.3783
138.672 2895 53.8052
138.788 2864 53.5164
138.905 2670 51.672
139.022 2576 50.7543
139.139 2305 48.0104
139.255 2330 48.2701
139.372 2225 47.1699
139.488 2305 48.0104
139.605 2347 48.4458
139.721 2320 48.1664
139.838 2091 45.7275
139.954 2011 44.8442
140.071 1802 42.45
140.187 1815 42.6028
140.303 1658 40.7185
140.419 1673 40.9023
140.535 1503 38.7685
140.652 1333 36.5103
140.768 0 1
140.884 0 1
141 0 1
141.115 0 1
141.231 0 1
141.347 0 1
141.463 0 1
141.578 0 1
141.694 0 1
144.104 0 1
144.219 0 1
144.335 0 1
144.45 0 1
144.566 0 1
144.682 0 1
144.798 0 1
144.914 0 1
145.03 0 1
145.146 1971 44.3959
145.262 2229 47.2123
145.378 2169 46.5725
145.494 2167 46.551
145.61 2195 46.8508
145.726 2112 45.9565
145.842 2045 45.2217
145.959 2009 44.8219
146.075 2018 44.9222
146.192 2087 45.6837
146.308 1987 44.5758
146.425 2153 46.4004
146.541 2167 46.551
146.658 2178 46.669
146.774 2210 47.0106
146.891 2115 45.9891
147.008 2224 47.1593
147.125 2216 47.0744
147.241 2140 46.2601
147.358 2291 47.8644
147.475 2278 47.7284
147.592 2280 47.7493
147.709 2115 45.9891
147.826 2062 45.4093
147.943 2013 44.8665
148.06 1960 44.2719
148.177 2000 44.7214
148.294 2131 46.1628
148.411 2113 45.9674
148.528 2231 47.2335
148.645 2199 46.8935
148.762 2224 47.1593
148.88 2139 46.2493
148.997 2226 47.1805
149.114 2158 46.4543
149.231 2128 46.1303
149.349 2204 46.9468
149.466 1996 44.6766
149.583 2002 44.7437
149.701 1958 44.2493
149.818 1909 43.6921
149.935 1966 44.3396
150.053 2115 45.9891
150.17 2033 45.0888
150.287 2096 45.7821
150.405 2122 46.0652
150.522 2170 46.5833
150.64 2156 46.4327
150.757 2179 46.6798
150.875 2130 46.1519
150.992 2153 46.4004
151.11 2220 47.1169
151.227 2104 45.8694
151.344 2080 45.607
151.462 1971 44.3959
151.579 1944 44.0908
151.697 1929 43.9204
151.814 1995 44.6654
151.932 2047 45.2438
152.049 2030 45.0555
152.167 2133 46.1844
152.284 2097 45.793
152.402 2102 45.8476
152.519 2113 45.9674
152.636 2095 45.7712
152.754 2081 45.618
152.871 2057 45.3542
152.989 1974 44.4297
153.106 1896 43.5431
153.223 1854 43.0581
153.341 1808 42.5206
153.458 1793 42.3438
153.575 1795 42.3674
153.693 1925 43.8748
153.81 1962 44.2945
153.927 1960 44.2719
154.044 1986 44.5646
154.162 2018 44.9222
154.279 1889 43.4626
154.396 2049 45.2659
154.513 2048 45.2548
154.63 1983 44.5309
154.747 2090 45.7165
154.864 2020 44.9444
154.981 1920 43.8178
155.098 1816 42.6146
155.215 1855 43.0697
155.332 1851 43.0232
155.449 1850 43.0116
155.566 1975 44.441
155.683 1910 43.7035
155.8 1887 43.4396
155.917 1790 42.3084
156.033 1848 42.9884
156.15 0 1
156.267 0 1
156.383 0 1
156.5 0 1
156.617 0 1
156.733 0 1
156.85 0 1
156.966 0 1
157.082 0 1
157.199 0 1
157.315 0 1
157.431 0 1
157.547 0 1
157.664 0 1
157.78 0 1
157.896 0 1
158.012 0 1
158.128 0 1
158.244 0 1
158.359 0 1
158.475 0 1
158.591 0 1
158.706 0 1
