
6.15755 0 1
6.2731 0 1
6.3887 0 1
6.50437 0 1
6.62009 0 1
6.73587 0 1
6.8517 0 1
6.96759 0 1
7.08353 0 1
7.19952 0 1
7.31557 0 1
7.43166 0 1
7.54781 0 1
7.664 0 1
7.78024 0 1
7.89653 0 1
8.01286 0 1
8.12924 0 1
8.24567 0 1
8.36213 0 1
8.47864 0 1
8.59519 0 1
8.71178 0 1
8.82841 0 1
8.94508 0 1
9.06179 0 1
9.17853 0 1
9.29531 0 1
9.41212 0 1
9.52897 0 1
9.64584 0 1
9.76276 0 1
9.8797 0 1
9.99667 0 1
10.1137 0 1
10.2307 0 1
10.3478 0 1
10.4648 0 1
10.5819 0 1
10.6991 0 1
10.8162 0 1
10.9334 0 1
11.0506 0 1
11.1678 0 1
11.285 0 1
11.4023 0 1
11.5196 0 1
11.6369 0 1
11.7542 0 1
11.8715 0 1
11.9888 0 1
12.1062 0 1
12.2235 0 1
12.3409 0 1
12.4582 0 1
12.5756 0 1
12.693 0 1
12.8104 0 1
12.9278 0 1
13.0452 0 1
13.1626 0 1
13.28 0 1
13.3974 0 1
13.5149 0 1
13.6323 0 1
13.7497 0 1
13.8671 0 1
13.9845 0 1
14.1019 0 1
14.2193 0 1
14.3367 0 1
14.4541 0 1
14.5714 0 1
14.6888 0 1
14.8062 0 1
14.9235 0 1
15.0408 0 0
15.1581 0 0
15.2755 0 0
15.3927 0 0
15.51 0 0
15.6273 0 0
15.7445 0 0
15.8617 0 0
15.9789 0 0
16.0961 0 0
16.2132 0 0
16.3304 0 0
16.4475 0 0
16.5646 0 0
16.6816 0 0
16.7986 0 0
16.9156 0 0
17.0326 0 0
17.1496 0 0
17.2665 0 0
17.3833 0 0
17.5002 0 0
17.617 0 0
17.7338 0 0
17.8505 0 0
17.9672 0 0
18.0839 0 0
18.2005 0 0
18.3171 0 0
18.4337 0 0
18.5502 0 0
18.6666 0 0
18.7831 0 0
18.8994 0 0
19.0158 0 0
19.1321 0 0
19.2483 0 0
19.3645 0 0
19.4806 0 0
19.5967 0 0
19.7128 0 0
19.8288 0 0
19.9447 0 0
20.0606 0 1
20.1764 0 1
20.2922 0 1
20.4079 0 1
20.5236 0 1
20.6392 0 1
20.7548 0 1
20.8702 0 1
23.3078 0 1
23.4233 0 1
23.539 0 1
23.6547 0 1
23.7704 0 1
23.8862 0 1
24.0021 0 1
24.118 0 1
24.234 0 1
24.35 0 1
24.4661 1914 43.7493
24.5822 1765 42.0119
24.6984 1832 42.8019
24.8146 1731 41.6053
24.9309 1651 40.6325
25.0472 1601 40.0125
25.1636 1543 39.281
25.28 1622 40.2741
25.3965 1856 43.0813
25.513 1954 44.2041
25.6296 2100 45.8258
25.7462 2295 47.9062
25.8628 2324 48.2079
25.9795 2256 47.4974
26.0962 2280 47.7493
26.213 2318 48.1456
26.3298 2244 47.3709
26.4466 2313 48.0937
26.5635 2211 47.0213
26.6804 2249 47.4236
26.7973 2222 47.1381
26.9143 2221 47.1275
27.0313 2282 47.7703
27.1483 2199 46.8935
27.2653 2270 47.6445
27.3824 2229 47.2123
27.4996 2200 46.9042
27.6167 2175 46.6369
27.7339 2050 45.2769
27.8511 2112 45.9565
27.9683 1951 44.1701
28.0855 1966 44.3396
28.2028 1908 43.6807
28.3201 1700 41.2311
28.4374 1583 39.7869
28.5547 1519 38.9744
28.6721 1394 37.3363
28.7894 1494 38.6523
28.9068 1624 40.2989
29.0242 1804 42.4735
29.1416 1818 42.638
29.259 1989 44.5982
29.3764 2134 46.1952
29.4939 2072 45.5192
29.6113 2178 46.669
29.7288 2203 46.9361
29.8463 2197 46.8722
29.9638 2152 46.3897
30.0812 2238 47.3075
30.1987 2256 47.4974
30.3162 2219 47.1063
30.4337 2151 46.3789
30.5512 2100 45.8258
30.6687 2107 45.9021
30.7862 2275 47.697
30.9037 2209 47
31.0212 2182 46.7119
31.1387 2055 45.3321
31.2562 2127 46.1194
31.3737 2022 44.9667
31.4912 1989 44.5982
31.6087 1810 42.5441
31.7262 1912 43.7264
31.8436 1695 41.1704
31.9611 1629 40.3609
32.0785 1387 37.2424
32.1959 1395 37.3497
32.3134 1443 37.9868
32.4308 1477 38.4318
32.5482 1684 41.0366
32.6655 1826 42.7317
32.7829 2040 45.1664
32.9002 2050 45.2769
33.0176 2070 45.4973
33.1349 2037 45.1331
33.2522 2139 46.2493
33.3694 2087 45.6837
33.4867 2085 45.6618
33.6039 2138 46.2385
33.7211 2065 45.4423
33.8383 2101 45.8367
33.9554 2114 45.9783
34.0725 2055 45.3321
34.1896 2117 46.0109
34.3067 1984 44.5421
34.4237 1994 44.6542
34.5407 2117 46.0109
34.6577 2087 45.6837
34.7746 2089 45.7056
34.8915 2033 45.0888
35.0084 2006 44.7884
35.1252 1843 42.9302
35.242 1869 43.2319
35.3587 1778 42.1663
35.4755 1653 40.6571
35.5921 1542 39.2683
35.7088 1401 37.4299
35.8254 1291 35.9305
35.9419 1226 35.0143
36.0584 1350 36.7423
36.1749 1415 37.6165
36.2913 1546 39.3192
36.4077 1750 41.833
36.524 1879 43.3474
36.6403 1991 44.6206
36.7565 1955 44.2154
36.8727 2050 45.2769
36.9889 2041 45.1774
37.1049 2038 45.1442
37.221 0 1
37.3369 0 1
37.4529 0 1
37.5687 0 1
37.6845 0 1
37.8003 0 1
37.916 0 1
38.0316 0 1
38.1472 0 1
40.5851 0 1
40.7008 0 1
40.8164 0 1
40.9322 0 1
41.048 0 1
41.1639 0 1
41.2798 0 1
41.3958 0 1
41.5118 0 1
41.6279 0 1
41.744 1475 38.4057
41.8602 1533 39.1535
41.9765 1564 39.5474
42.0928 1668 40.8412
42.2091 1675 40.9268
42.3255 1709 41.3401
42.4419 1698 41.2068
42.5584 1638 40.4722
42.675 1625 40.3113
42.7915 1572 39.6485
42.9081 1613 40.1622
43.0248 1527 39.0768
43.1415 1494 38.6523
43.2582 1549 39.3573
43.375 1537 39.2046
43.4918 1461 38.223
43.6087 1480 38.4708
43.7256 1397 37.3765
43.8425 1367 36.973
43.9595 1308 36.1663
44.0765 1226 35.0143
44.1935 1187 34.4529
44.3106 1114 33.3766
44.4277 1072 32.7414
44.5448 916 30.2655
44.6619 824 28.7054
44.7791 793 28.1603
44.8963 795 28.1957
45.0136 895 29.9166
45.1308 969 31.1288
45.2481 1058 32.5269
45.3654 1172 34.2345
45.4827 1110 33.3167
45.6001 1120 33.4664
45.7174 1178 34.322
45.8348 1179 34.3366
45.9522 1109 33.3017
46.0697 1090 33.0151
46.1871 1090 33.0151
46.3046 1056 32.4962
46.422 1016 31.8748
46.5395 1069 32.6956
46.657 999 31.607
46.7745 1012 31.8119
46.892 1048 32.3728
47.0096 1043 32.2955
47.1271 942 30.692
47.2446 939 30.6431
47.3622 920 30.3315
47.4797 932 30.5287
47.5973 830 28.8097
47.7149 832 28.8444
47.8324 728 26.9815
47.95 740 27.2029
48.0675 667 25.8263
48.1851 594 24.3721
48.3027 584 24.1661
48.4202 563 23.7276
48.5378 601 24.5153
48.6554 626 25.02
48.7729 728 26.9815
48.8904 775 27.8388
49.008 807 28.4077
49.1255 771 27.7669
49.243 838 28.9482
49.3605 813 28.5132
49.478 793 28.1603
49.5955 828 28.775
49.713 841 29
49.8304 851 29.1719
49.9479 781 27.9464
50.0653 820 28.6356
50.1827 879 29.6479
50.3001 909 30.1496
50.4175 900 30
50.5348 969 31.1288
50.6521 993 31.5119
50.7694 946 30.7571
50.8867 968 31.1127
51.004 962 31.0161
51.1212 1013 31.8277
51.2384 1018 31.9061
51.3556 884 29.7321
51.4727 950 30.8221
51.5899 744 27.2764
51.707 640 25.2982
51.824 685 26.1725
51.9411 754 27.4591
52.0581 861 29.3428
52.175 984 31.3688
52.2919 1186 34.4384
52.4088 1309 36.1801
52.5257 1254 35.4119
52.6425 1394 37.3363
52.7593 1408 37.5233
52.876 1390 37.2827
52.9927 1377 37.108
53.1094 1424 37.7359
53.226 1503 38.7685
53.3426 1483 38.5097
53.4591 1536 39.1918
53.5756 1554 39.4208
53.692 1529 39.1024
53.8084 1566 39.5727
53.9248 1651 40.6325
54.0411 1589 39.8623
54.1573 1666 40.8167
54.2735 0 1
54.3896 0 1
54.5057 0 1
54.6217 0 1
54.7377 0 1
54.8537 0 1
54.9695 0 1
55.0853 0 1
55.2011 0 1
55.3168 0 1
55.4324 0 1
57.824 0 1
57.9396 0 1
58.0553 0 1
58.1711 0 1
58.2869 0 1
58.4028 0 1
58.5187 0 1
58.6347 0 1
58.7508 0 1
58.8669 0 1
58.983 1922 43.8406
59.0992 1903 43.6234
59.2155 1990 44.6094
59.3318 1923 43.852
59.4482 2009 44.8219
59.5646 1845 42.9535
59.681 1868 43.2204
59.7975 1802 42.45
59.9141 1760 41.9524
60.0306 1694 41.1582
60.1473 1500 38.7298
60.2639 1258 35.4683
60.3807 1063 32.6037
60.4974 1026 32.0312
60.6142 1053 32.45
60.731 1154 33.9706
60.8479 1256 35.4401
60.9648 1544 39.2938
61.0818 1628 40.3485
61.1987 1758 41.9285
61.3158 1703 41.2674
61.4328 1764 42
61.5499 1756 41.9047
61.667 1776 42.1426
61.7841 1806 42.4971
61.9013 1728 41.5692
62.0185 1739 41.7013
62.1357 1748 41.8091
62.253 1716 41.4246
62.3702 1700 41.2311
62.4875 1743 41.7493
62.6049 1719 41.4608
62.7222 1754 41.8808
62.8396 1756 41.9047
62.9569 1710 41.3521
63.0743 1641 40.5093
63.1918 1714 41.4005
63.3092 1601 40.0125
63.4267 1527 39.0768
63.5441 1424 37.7359
63.6616 1255 35.426
63.7791 1128 33.5857
63.8966 958 30.9516
64.0142 871 29.5127
64.1317 892 29.8664
64.2492 979 31.289
64.3668 1068 32.6803
64.4843 1321 36.3456
64.6019 1450 38.0789
64.7195 1481 38.4838
64.837 1590 39.8748
64.9546 1548 39.3446
65.0722 1565 39.5601
65.1898 1564 39.5474
65.3074 1582 39.7744
65.4249 1515 38.923
65.5425 1576 39.6989
65.6601 1471 38.3536
65.7777 1561 39.5095
65.8952 1516 38.9358
66.0128 1552 39.3954
66.1304 1632 40.398
66.2479 1591 39.8873
66.3655 1581 39.7618
66.483 1583 39.7869
66.6005 1613 40.1622
66.718 1581 39.7618
66.8355 1571 39.6358
66.953 1532 39.1408
67.0705 1433 37.855
67.1879 1319 36.318
67.3054 1274 35.6931
67.4228 1021 31.9531
67.5402 807 28.4077
67.6576 738 27.1662
67.7749 834 28.8791
67.8923 905 30.0832
68.0096 997 31.5753
68.1269 1239 35.1994
68.2442 1475 38.4057
68.3614 1506 38.8072
68.4787 1603 40.0375
68.5958 1528 39.0896
68.713 1537 39.2046
68.8302 1609 40.1123
68.9473 1621 40.2616
69.0643 1609 40.1123
69.1814 1634 40.4228
69.2984 1604 40.05
69.4154 1700 41.2311
69.5323 1670 40.8656
69.6492 1543 39.281
69.7661 1757 41.9166
69.8829 1741 41.7253
69.9997 1733 41.6293
70.1165 1805 42.4853
70.2332 1800 42.4264
70.3499 1739 41.7013
70.4665 1805 42.4853
70.5831 1766 42.0238
70.6996 1743 41.7493
70.8161 1615 40.1871
70.9326 1449 38.0657
71.049 1225 35
71.1653 1032 32.1248
71.2817 765 27.6586
71.3979 794 28.178
71.5141 823 28.688
71.6303 951 30.8383
71.7464 989 31.4484
71.8624 0 1
71.9784 0 1
72.0944 0 1
72.2102 0 1
72.3261 0 1
72.4418 0 1
72.5575 0 1
72.6732 0 1
75.1054 0 1
75.2209 0 1
75.3365 0 1
75.4521 0 1
75.5678 0 1
75.6835 0 1
75.7993 0 1
75.9151 0 1
76.031 0 1
76.147 1415 37.6165
76.263 1572 39.6485
76.3791 1342 36.6333
76.4952 1239 35.1994
76.6113 916 30.2655
76.7276 830 28.8097
76.8438 854 29.2233
76.9601 1004 31.686
77.0765 1200 34.641
77.1929 1454 38.1314
77.3093 1637 40.4599
77.4258 1659 40.7308
77.5423 1653 40.6571
77.6589 1660 40.7431
77.7755 1741 41.7253
77.8921 1682 41.0122
78.0088 1663 40.7799
78.1256 1691 41.1218
78.2423 1656 40.694
78.3591 1634 40.4228
78.4759 1629 40.3609
78.5928 1711 41.3642
78.7097 1592 39.8999
78.8266 1617 40.2119
78.9436 1759 41.9404
79.0606 1733 41.6293
79.1776 1753 41.8688
79.2946 1747 41.7971
79.4117 1676 40.939
79.5288 1638 40.4722
79.6459 1652 40.6448
79.7631 1558 39.4715
79.8802 1394 37.3363
79.9974 1307 36.1525
80.1147 1144 33.8231
80.2319 879 29.6479
80.3491 719 26.8142
80.4664 774 27.8209
80.5837 926 30.4302
80.701 1072 32.7414
80.8183 1301 36.0694
80.9357 1507 38.8201
81.053 1476 38.4187
81.1704 1519 38.9744
81.2877 1393 37.3229
81.4051 1440 37.9473
81.5225 1427 37.7757
81.6399 1364 36.9324
81.7573 1450 38.0789
81.8747 1426 37.7624
81.9922 1427 37.7757
82.1096 1428 37.7889
82.227 1421 37.6962
82.3444 1532 39.1408
82.4619 1470 38.3406
82.5793 1596 39.95
82.6967 1476 38.4187
82.8142 1448 38.0526
82.9316 1418 37.6563
83.049 1412 37.5766
83.1664 1393 37.3229
83.2838 1364 36.9324
83.4012 1333 36.5103
83.5186 1143 33.8083
83.636 1181 34.3657
83.7534 973 31.1929
83.8708 746 27.313
83.9881 595 24.3926
84.1055 606 24.6171
84.2228 719 26.8142
84.3401 839 28.9655
84.4575 1060 32.5576
84.5747 1208 34.7563
84.692 1350 36.7423
84.8093 1327 36.428
84.9265 1333 36.5103
85.0437 1365 36.9459
85.1609 1340 36.606
85.2781 1374 37.0675
85.3952 1394 37.3363
85.5123 1332 36.4966
85.6294 1398 37.3898
85.7465 1468 38.3145
85.8636 1401 37.4299
85.9806 1413 37.5899
86.0976 1470 38.3406
86.2145 1490 38.6005
86.3315 1595 39.9375
86.4484 1532 39.1408
86.5652 1666 40.8167
86.682 1554 39.4208
86.7988 1554 39.4208
86.9156 1638 40.4722
87.0323 1534 39.1663
87.149 1483 38.5097
87.2657 1290 35.9166
87.3823 1100 33.1662
87.4988 885 29.7489
87.6154 729 27
87.7318 823 28.688
87.8483 995 31.5436
87.9647 1299 36.0416
88.081 1519 38.9744
88.1973 1630 40.3733
88.3136 1646 40.5709
88.4298 1656 40.694
88.546 1623 40.2865
88.6621 1732 41.6173
88.7781 1657 40.7063
88.8942 0 1
89.0101 0 1
89.126 0 1
89.2419 0 1
89.3577 0 1
89.4734 0 1
89.5891 0 1
89.7047 0 1
89.8203 0 1
89.9358 0 1
92.3269 0 1
92.4424 0 1
92.558 0 1
92.6736 0 1
92.7893 0 1
92.905 0 1
93.0208 0 1
93.1366 0 1
93.2525 0 1
93.3685 0 1
93.4845 0 1
93.6005 1571 39.6358
93.7167 1649 40.6079
93.8328 1644 40.5463
93.949 1668 40.8412
94.0653 1656 40.694
94.1816 1625 40.3113
94.2979 1613 40.1622
94.4143 1669 40.8534
94.5307 1644 40.5463
94.6472 1702 41.2553
94.7637 1608 40.0999
94.8803 1703 41.2674
94.9969 1716 41.4246
95.1135 1665 40.8044
95.2302 1761 41.9643
95.3469 1756 41.9047
95.4637 1770 42.0714
95.5805 1774 42.1189
95.6973 1717 41.4367
95.8142 1792 42.332
95.9311 1773 42.107
96.048 1723 41.509
96.1649 1664 40.7922
96.2819 1588 39.8497
96.3989 1503 38.7685
96.516 1335 36.5377
96.633 1116 33.4066
96.7501 955 30.9031
96.8673 864 29.3939
96.9844 927 30.4467
97.1016 1129 33.6006
97.2188 1280 35.7771
97.336 1516 38.9358
97.4532 1609 40.1123
97.5704 1636 40.4475
97.6877 1632 40.398
97.805 1579 39.7366
97.9223 1634 40.4228
98.0396 1656 40.694
98.1569 1587 39.8372
98.2743 1595 39.9375
98.3916 1626 40.3237
98.509 1597 39.9625
98.6264 1652 40.6448
98.7438 1619 40.2368
98.8612 1708 41.328
98.9786 1719 41.4608
99.096 1762 41.9762
99.2134 1683 41.0244
99.3308 1662 40.7676
99.4482 1748 41.8091
99.5656 1795 42.3674
99.6831 1663 40.7799
99.8005 1672 40.8901
99.9179 1535 39.1791
100.035 1399 37.4032
100.153 1293 35.9583
100.27 1030 32.0936
100.388 907 30.1164
100.505 921 30.348
100.622 1088 32.9848
100.74 1263 35.5387
100.857 1454 38.1314
100.975 1666 40.8167
101.092 1673 40.9023
101.209 1643 40.5339
101.327 1594 39.9249
101.444 1740 41.7133
101.561 1635 40.4351
101.679 1556 39.4462
101.796 1710 41.3521
101.913 1703 41.2674
102.03 1621 40.2616
102.148 1665 40.8044
102.265 1572 39.6485
102.382 1792 42.332
102.499 1662 40.7676
102.616 1712 41.3763
102.733 1783 42.2256
102.851 1798 42.4028
102.968 1875 43.3013
103.085 1836 42.8486
103.202 1818 42.638
103.319 1697 41.1947
103.436 1672 40.8901
103.552 1579 39.7366
103.669 1386 37.229
103.786 1182 34.3802
103.903 963 31.0322
104.02 994 31.5278
104.137 1228 35.0428
104.253 1370 37.0135
104.37 1640 40.4969
104.487 1761 41.9643
104.603 1778 42.1663
104.72 1890 43.4741
104.836 1821 42.6732
104.953 1748 41.8091
105.069 1853 43.0465
105.186 1799 42.4146
105.302 1850 43.0116
105.418 1878 43.3359
105.535 1808 42.5206
105.651 1989 44.5982
105.767 1935 43.9886
105.883 1940 44.0454
105.999 1931 43.9431
106.115 0 1
106.231 0 1
106.347 0 1
106.463 0 1
106.579 0 1
106.694 0 1
106.81 0 1
106.926 0 1
107.041 0 1
107.157 0 1
109.576 0 1
109.692 0 1
109.807 0 1
109.923 0 1
110.039 0 1
110.155 0 1
110.27 0 1
110.386 0 1
110.502 0 1
110.618 1802 42.45
110.735 1919 43.8064
110.851 1976 44.4522
110.967 1943 44.0795
111.083 1953 44.1928
111.199 1914 43.7493
111.316 1977 44.4635
111.432 1978 44.4747
111.549 1966 44.3396
111.665 1897 43.5546
111.782 1877 43.3244
111.898 1803 42.4617
112.015 1755 41.8927
112.132 1700 41.2311
112.248 1510 38.8587
112.365 1217 34.8855
112.482 1029 32.078
112.599 1199 34.6266
112.716 1208 34.7563
112.832 1415 37.6165
112.949 1721 41.4849
113.066 1819 42.6497
113.183 1745 41.7732
113.3 1778 42.1663
113.417 1834 42.8252
113.534 1753 41.8688
113.652 1783 42.2256
113.769 1752 41.8569
113.886 1843 42.9302
114.003 1856 43.0813
114.12 1842 42.9185
114.238 1950 44.1588
114.355 1951 44.1701
114.472 1828 42.7551
114.589 1975 44.441
114.707 2002 44.7437
114.824 1946 44.1135
114.942 2083 45.6399
115.059 2048 45.2548
115.176 2111 45.9456
115.294 2082 45.6289
115.411 2049 45.2659
115.529 1919 43.8064
115.646 1858 43.1045
115.764 1697 41.1947
115.881 1531 39.128
115.999 1216 34.8712
116.116 1285 35.8469
116.234 1389 37.2693
116.351 1590 39.8748
116.469 1864 43.1741
116.586 2078 45.5851
116.704 2122 46.0652
116.821 2095 45.7712
116.939 2095 45.7712
117.056 2121 46.0543
117.174 2073 45.5302
117.291 2094 45.7602
117.409 2152 46.3897
117.526 2019 44.9333
117.644 2023 44.9778
117.761 2091 45.7275
117.879 2142 46.2817
117.996 2178 46.669
118.114 2079 45.5961
118.231 2125 46.0977
118.349 2151 46.3789
118.466 2137 46.2277
118.584 2198 46.8828
118.701 2207 46.9787
118.819 2183 46.7226
118.936 2141 46.2709
119.053 2157 46.4435
119.171 2109 45.9239
119.288 1964 44.317
119.405 1769 42.0595
119.523 1601 40.0125
119.64 1342 36.6333
119.757 1354 36.7967
119.875 1480 38.4708
119.992 1628 40.3485
120.109 1942 44.0681
120.226 1973 44.4185
120.343 2054 45.3211
120.46 2069 45.4863
120.578 1991 44.6206
120.695 2086 45.6727
120.812 2073 45.5302
120.929 2027 45.0222
121.046 2119 46.0326
121.163 2001 44.7325
121.279 2073 45.5302
121.396 2087 45.6837
121.513 2066 45.4533
121.63 2030 45.0555
121.747 2147 46.3357
121.863 2092 45.7384
121.98 2078 45.5851
122.097 2164 46.5188
122.213 2174 46.6262
122.33 2115 45.9891
122.446 2117 46.0109
122.563 2107 45.9021
122.679 2068 45.4753
122.795 2073 45.5302
122.912 1978 44.4747
123.028 1877 43.3244
123.144 1720 41.4729
123.26 1523 39.0256
123.377 0 1
123.493 0 1
123.609 0 1
123.725 0 1
123.84 0 1
123.956 0 1
124.072 0 1
124.188 0 1
124.303 0 1
124.419 0 1
126.852 0 1
126.968 0 1
127.083 0 1
127.199 0 1
127.315 0 1
127.431 0 1
127.547 0 1
127.663 0 1
127.779 0 1
127.895 0 1
128.011 0 1
128.127 0 1
128.243 0 1
128.359 1976 44.4522
128.476 1685 41.0488
128.592 1504 38.7814
128.708 1593 39.9124
128.825 1659 40.7308
128.941 1800 42.4264
129.058 1967 44.3509
129.174 2151 46.3789
129.291 2149 46.3573
129.408 2188 46.7761
129.524 2211 47.0213
129.641 2125 46.0977
129.758 2190 46.7974
129.875 2257 47.5079
129.992 2173 46.6154
130.108 2107 45.9021
130.225 2138 46.2385
130.342 2215 47.0638
130.459 2092 45.7384
130.576 2156 46.4327
130.693 2140 46.2601
130.81 2188 46.7761
130.928 2197 46.8722
131.045 2277 47.7179
131.162 2164 46.5188
131.279 2240 47.3286
131.396 2325 48.2183
131.513 2223 47.1487
131.631 2183 46.7226
131.748 2089 45.7056
131.865 2000 44.7214
131.983 1794 42.3556
132.1 1608 40.0999
132.217 1526 39.064
132.335 1660 40.7431
132.452 1798 42.4028
132.57 2060 45.3872
132.687 2182 46.7119
132.804 2260 47.5395
132.922 2194 46.8402
133.039 2308 48.0416
133.157 2265 47.592
133.274 2325 48.2183
133.392 2191 46.8081
133.509 2319 48.156
133.627 2188 46.7761
133.744 2240 47.3286
133.862 2217 47.085
133.979 2127 46.1194
134.097 2097 45.793
134.214 2174 46.6262
134.332 2282 47.7703
134.449 2243 47.3603
134.567 2287 47.8226
134.684 2289 47.8435
134.802 2149 46.3573
134.919 2222 47.1381
135.037 2241 47.3392
135.154 2198 46.8828
135.272 2062 45.4093
135.389 2022 44.9667
135.507 1874 43.2897
135.624 1668 40.8412
135.742 1581 39.7618
135.859 1688 41.0853
135.977 1761 41.9643
136.094 1903 43.6234
136.211 2081 45.618
136.329 2131 46.1628
136.446 2235 47.2758
136.564 2246 47.392
136.681 2241 47.3392
136.798 2213 47.0425
136.915 2261 47.55
137.033 2204 46.9468
137.15 2160 46.4758
137.267 2218 47.0956
137.384 2108 45.913
137.502 2083 45.6399
137.619 2105 45.8803
137.736 2114 45.9783
137.853 2031 45.0666
137.97 2142 46.2817
138.087 2133 46.1844
138.204 2266 47.6025
138.321 2152 46.3897
138.438 2179 46.6798
138.555 2258 47.5184
138.672 2236 47.2864
138.788 2129 46.1411
138.905 2034 45.0999
139.022 1984 44.5421
139.139 2002 44.7437
139.255 1788 42.2847
139.372 1669 40.8534
139.488 1626 40.3237
139.605 1768 42.0476
139.721 1955 44.2154
139.838 2142 46.2817
139.954 2349 48.4665
140.071 2231 47.2335
140.187 2259 47.5289
140.303 2188 46.7761
140.419 2233 47.2546
140.535 2185 46.744
140.652 2155 46.422
140.768 0 1
140.884 0 1
141 0 1
141.115 0 1
141.231 0 1
141.347 0 1
141.463 0 1
141.578 0 1
141.694 0 1
144.104 0 1
144.219 0 1
144.335 0 1
144.45 0 1
144.566 0 1
144.682 0 1
144.798 0 1
144.914 0 1
145.03 0 1
145.146 1600 40
145.262 1726 41.5452
145.378 1726 41.5452
145.494 1767 42.0357
145.61 1846 42.9651
145.726 1709 41.3401
145.842 1718 41.4488
145.959 1724 41.5211
146.075 1745 41.7732
146.192 1693 41.1461
146.308 1679 40.9756
146.425 1693 41.1461
146.541 1753 41.8688
146.658 1725 41.5331
146.774 1797 42.391
146.891 1789 42.2966
147.008 1855 43.0697
147.125 1819 42.6497
147.241 1846 42.9651
147.358 1910 43.7035
147.475 1924 43.8634
147.592 1886 43.4281
147.709 1826 42.7317
147.826 1883 43.3935
147.943 1632 40.398
148.06 1683 41.0244
148.177 1601 40.0125
148.294 1506 38.8072
148.411 1670 40.8656
148.528 1660 40.7431
148.645 1776 42.1426
148.762 1900 43.589
148.88 1930 43.9318
148.997 1896 43.5431
149.114 2019 44.9333
149.231 1936 44
149.349 1958 44.2493
149.466 1984 44.5421
149.583 1867 43.2088
149.701 1908 43.6807
149.818 1869 43.2319
149.935 1759 41.9404
150.053 1741 41.7253
150.17 1720 41.4729
150.287 1799 42.4146
150.405 1896 43.5431
150.522 1905 43.6463
150.64 1864 43.1741
150.757 1915 43.7607
150.875 1972 44.4072
150.992 2012 44.8553
151.11 1987 44.5758
151.227 1931 43.9431
151.344 1875 43.3013
151.462 1823 42.6966
151.579 1848 42.9884
151.697 1763 41.9881
151.814 1645 40.5586
151.932 1589 39.8623
152.049 1605 40.0625
152.167 1672 40.8901
152.284 1779 42.1782
152.402 1848 42.9884
152.519 1892 43.4971
152.636 1973 44.4185
152.754 1962 44.2945
152.871 1965 44.3283
152.989 1896 43.5431
153.106 1921 43.8292
153.223 1781 42.2019
153.341 1704 41.2795
153.458 1696 41.1825
153.575 1744 41.7612
153.693 1729 41.5812
153.81 1705 41.2916
153.927 1781 42.2019
154.044 1803 42.4617
154.162 1849 43
154.279 1973 44.4185
154.396 1955 44.2154
154.513 1967 44.3509
154.63 1953 44.1928
154.747 2038 45.1442
154.864 2113 45.9674
154.981 2098 45.8039
155.098 2017 44.911
155.215 1903 43.6234
155.332 1890 43.4741
155.449 1871 43.2551
155.566 1872 43.2666
155.683 1892 43.4971
155.8 1970 44.3847
155.917 2059 45.3762
156.033 2106 45.8912
156.15 0 1
156.267 0 1
156.383 0 1
156.5 0 1
156.617 0 1
156.733 0 1
156.85 0 1
156.966 0 1
157.082 0 1
157.199 0 1
157.315 0 1
157.431 0 1
157.547 0 1
157.664 0 1
157.78 0 1
157.896 0 1
158.012 0 1
158.128 0 1
158.244 0 1
158.359 0 1
158.475 0 1
158.591 0 1
158.706 0 1
