
6.15755 0 1
6.2731 0 1
6.3887 0 1
6.50437 0 1
6.62009 0 1
6.73587 0 1
6.8517 0 1
6.96759 0 1
7.08353 0 1
7.19952 0 1
7.31557 0 1
7.43166 0 1
7.54781 0 1
7.664 0 1
7.78024 0 1
7.89653 0 1
8.01286 0 1
8.12924 0 1
8.24567 0 1
8.36213 0 1
8.47864 0 1
8.59519 0 1
8.71178 0 1
8.82841 0 1
8.94508 0 1
9.06179 0 1
9.17853 0 1
9.29531 0 1
9.41212 0 1
9.52897 0 1
9.64584 0 1
9.76276 0 1
9.8797 0 1
9.99667 0 1
10.1137 0 1
10.2307 0 1
10.3478 0 1
10.4648 0 1
10.5819 0 1
10.6991 0 1
10.8162 0 1
10.9334 0 1
11.0506 0 1
11.1678 0 1
11.285 0 1
11.4023 0 1
11.5196 0 1
11.6369 0 1
11.7542 0 1
11.8715 0 1
11.9888 0 1
12.1062 0 1
12.2235 0 1
12.3409 0 1
12.4582 0 1
12.5756 0 1
12.693 0 1
12.8104 0 1
12.9278 0 1
13.0452 0 1
13.1626 0 1
13.28 0 1
13.3974 0 1
13.5149 0 1
13.6323 0 1
13.7497 0 1
13.8671 0 1
13.9845 0 1
14.1019 0 1
14.2193 0 1
14.3367 0 1
14.4541 0 1
14.5714 0 1
14.6888 0 1
14.8062 0 1
14.9235 0 1
15.0408 1803 42.4617
15.1581 1903 43.6234
15.2755 1959 44.2606
15.3927 1929 43.9204
15.51 2029 45.0444
15.6273 1936 44
15.7445 2138 46.2385
15.8617 2049 45.2659
15.9789 1986 44.5646
16.0961 1987 44.5758
16.2132 1948 44.1362
16.3304 2025 45
16.4475 2126 46.1086
16.5646 2119 46.0326
16.6816 2200 46.9042
16.7986 2315 48.1144
16.9156 2329 48.2597
17.0326 2422 49.2138
17.1496 2314 48.1041
17.2665 2363 48.6107
17.3833 2290 47.8539
17.5002 2353 48.5077
17.617 2132 46.1736
17.7338 2140 46.2601
17.8505 2044 45.2106
17.9672 2048 45.2548
18.0839 2022 44.9667
18.2005 2093 45.7493
18.3171 2169 46.5725
18.4337 2124 46.0869
18.5502 2276 47.7074
18.6666 2311 48.0729
18.7831 2310 48.0625
18.8994 2368 48.6621
19.0158 2331 48.2804
19.1321 2304 48
19.2483 2074 45.5412
19.3645 2061 45.3982
19.4806 1888 43.4511
19.5967 1665 40.8044
19.7128 1648 40.5956
19.8288 1548 39.3446
19.9447 1433 37.855
20.0606 0 1
20.1764 0 1
20.2922 0 1
20.4079 0 1
20.5236 0 1
20.6392 0 1
20.7548 0 1
20.8702 0 1
23.3078 0 1
23.4233 0 1
23.539 0 1
23.6547 0 1
23.7704 0 1
23.8862 0 1
24.0021 0 1
24.118 0 1
24.234 0 1
24.35 0 1
24.4661 925 30.4138
24.5822 1135 33.6898
24.6984 1259 35.4824
24.8146 1452 38.1051
24.9309 1544 39.2938
25.0472 1669 40.8534
25.1636 1852 43.0349
25.28 2085 45.6618
25.3965 2182 46.7119
25.513 2229 47.2123
25.6296 2365 48.6313
25.7462 2501 50.01
25.8628 2507 50.07
25.9795 2508 50.0799
26.0962 2505 50.05
26.213 2392 48.9081
26.3298 2382 48.8057
26.4466 2165 46.5296
26.5635 2188 46.7761
26.6804 2125 46.0977
26.7973 2230 47.2229
26.9143 2277 47.7179
27.0313 2327 48.239
27.1483 2320 48.1664
27.2653 2431 49.3052
27.3824 2484 49.8397
27.4996 2545 50.448
27.6167 2432 49.3153
27.7339 2314 48.1041
27.8511 2278 47.7284
27.9683 2194 46.8402
28.0855 2191 46.8081
28.2028 2096 45.7821
28.3201 1967 44.3509
28.4374 2043 45.1996
28.5547 2025 45
28.6721 2170 46.5833
28.7894 2208 46.9894
28.9068 2327 48.239
29.0242 2425 49.2443
29.1416 2420 49.1935
29.259 2381 48.7955
29.3764 2459 49.5883
29.4939 2473 49.7293
29.6113 2341 48.3839
29.7288 2243 47.3603
29.8463 2255 47.4868
29.9638 2104 45.8694
30.0812 2141 46.2709
30.1987 2063 45.4203
30.3162 2063 45.4203
30.4337 2110 45.9347
30.5512 2215 47.0638
30.6687 2252 47.4552
30.7862 2119 46.0326
30.9037 2290 47.8539
31.0212 2253 47.4658
31.1387 2321 48.1768
31.2562 2282 47.7703
31.3737 2276 47.7074
31.4912 2217 47.085
31.6087 2156 46.4327
31.7262 2081 45.618
31.8436 1958 44.2493
31.9611 1994 44.6542
32.0785 2022 44.9667
32.1959 2077 45.5741
32.3134 2154 46.4112
32.4308 2293 47.8853
32.5482 2419 49.1833
32.6655 2330 48.2701
32.7829 2383 48.816
32.9002 2260 47.5395
33.0176 2285 47.8017
33.1349 2332 48.2908
33.2522 2302 47.9792
33.3694 2158 46.4543
33.4867 2140 46.2601
33.6039 1973 44.4185
33.7211 1960 44.2719
33.8383 1965 44.3283
33.9554 2044 45.2106
34.0725 2087 45.6837
34.1896 2079 45.5961
34.3067 2173 46.6154
34.4237 2179 46.6798
34.5407 2229 47.2123
34.6577 2206 46.9681
34.7746 2228 47.2017
34.8915 2212 47.0319
35.0084 2258 47.5184
35.1252 2054 45.3211
35.242 2142 46.2817
35.3587 1990 44.6094
35.4755 1924 43.8634
35.5921 1994 44.6542
35.7088 1863 43.1625
35.8254 1942 44.0681
35.9419 1903 43.6234
36.0584 2012 44.8553
36.1749 2027 45.0222
36.2913 1984 44.5421
36.4077 2173 46.6154
36.524 2010 44.833
36.6403 1904 43.6348
36.7565 1927 43.8976
36.8727 1806 42.4971
36.9889 1635 40.4351
37.1049 1490 38.6005
37.221 0 1
37.3369 0 1
37.4529 0 1
37.5687 0 1
37.6845 0 1
37.8003 0 1
37.916 0 1
38.0316 0 1
38.1472 0 1
40.5851 0 1
40.7008 0 1
40.8164 0 1
40.9322 0 1
41.048 0 1
41.1639 0 1
41.2798 0 1
41.3958 0 1
41.5118 0 1
41.6279 0 1
41.744 1033 32.1403
41.8602 1169 34.1906
41.9765 1384 37.2022
42.0928 1272 35.6651
42.2091 1290 35.9166
42.3255 1294 35.9722
42.4419 1265 35.5668
42.5584 1295 35.9861
42.675 1459 38.1969
42.7915 1533 39.1535
42.9081 1699 41.2189
43.0248 1715 41.4126
43.1415 1860 43.1277
43.2582 1753 41.8688
43.375 1807 42.5088
43.4918 1882 43.382
43.6087 1779 42.1782
43.7256 1781 42.2019
43.8425 1828 42.7551
43.9595 1776 42.1426
44.0765 1631 40.3856
44.1935 1674 40.9145
44.3106 1602 40.025
44.4277 1505 38.7943
44.5448 1551 39.3827
44.6619 1667 40.8289
44.7791 1663 40.7799
44.8963 1735 41.6533
45.0136 1785 42.2493
45.1308 1894 43.5201
45.2481 1910 43.7035
45.3654 1895 43.5316
45.4827 1889 43.4626
45.6001 1785 42.2493
45.7174 1797 42.391
45.8348 1693 41.1461
45.9522 1650 40.6202
46.0697 1505 38.7943
46.1871 1503 38.7685
46.3046 1550 39.37
46.422 1618 40.2244
46.5395 1689 41.0974
46.657 1688 41.0853
46.7745 1840 42.8952
46.892 1816 42.6146
47.0096 1894 43.5201
47.1271 1892 43.4971
47.2446 1952 44.1814
47.3622 1885 43.4166
47.4797 1810 42.5441
47.5973 1846 42.9651
47.7149 1760 41.9524
47.8324 1717 41.4367
47.95 1717 41.4367
48.0675 1639 40.4846
48.1851 1576 39.6989
48.3027 1655 40.6817
48.4202 1676 40.939
48.5378 1812 42.5676
48.6554 1935 43.9886
48.7729 1888 43.4511
48.8904 1962 44.2945
49.008 1936 44
49.1255 1925 43.8748
49.243 1889 43.4626
49.3605 1695 41.1704
49.478 1561 39.5095
49.5955 1422 37.7094
49.713 1427 37.7757
49.8304 1519 38.9744
49.9479 1576 39.6989
50.0653 1727 41.5572
50.1827 1743 41.7493
50.3001 1735 41.6533
50.4175 1806 42.4971
50.5348 1915 43.7607
50.6521 1912 43.7264
50.7694 1895 43.5316
50.8867 1881 43.3705
51.004 1931 43.9431
51.1212 1846 42.9651
51.2384 1956 44.2267
51.3556 1868 43.2204
51.4727 1761 41.9643
51.5899 1668 40.8412
51.707 1692 41.1339
51.824 1741 41.7253
51.9411 1911 43.715
52.0581 1979 44.486
52.175 2168 46.5618
52.2919 2188 46.7761
52.4088 2348 48.4562
52.5257 2290 47.8539
52.6425 2420 49.1935
52.7593 2332 48.2908
52.876 2146 46.3249
52.9927 2197 46.8722
53.1094 1985 44.5533
53.226 1958 44.2493
53.3426 1887 43.4396
53.4591 1850 43.0116
53.5756 1924 43.8634
53.692 1891 43.4856
53.8084 1889 43.4626
53.9248 1896 43.5431
54.0411 1792 42.332
54.1573 1731 41.6053
54.2735 0 1
54.3896 0 1
54.5057 0 1
54.6217 0 1
54.7377 0 1
54.8537 0 1
54.9695 0 1
55.0853 0 1
55.2011 0 1
55.3168 0 1
55.4324 0 1
57.824 0 1
57.9396 0 1
58.0553 0 1
58.1711 0 1
58.2869 0 1
58.4028 0 1
58.5187 0 1
58.6347 0 1
58.7508 0 1
58.8669 0 1
58.983 1488 38.5746
59.0992 1685 41.0488
59.2155 1846 42.9651
59.3318 2002 44.7437
59.4482 2083 45.6399
59.5646 2114 45.9783
59.681 2092 45.7384
59.7975 2261 47.55
59.9141 2259 47.5289
60.0306 2195 46.8508
60.1473 2066 45.4533
60.2639 2072 45.5192
60.3807 2007 44.7996
60.4974 2042 45.1885
60.6142 2182 46.7119
60.731 2360 48.5798
60.8479 2290 47.8539
60.9648 2357 48.5489
61.0818 2366 48.6415
61.1987 2319 48.156
61.3158 2301 47.9687
61.4328 2299 47.9479
61.5499 2103 45.8585
61.667 1946 44.1135
61.7841 1882 43.382
61.9013 1770 42.0714
62.0185 1822 42.6849
62.1357 1925 43.8748
62.253 2089 45.7056
62.3702 2154 46.4112
62.4875 2282 47.7703
62.6049 2305 48.0104
62.7222 2335 48.3218
62.8396 2402 49.0102
62.9569 2269 47.634
63.0743 2403 49.0204
63.1918 2374 48.7237
63.3092 2345 48.4252
63.4267 2227 47.1911
63.5441 2094 45.7602
63.6616 2127 46.1194
63.7791 1869 43.2319
63.8966 2044 45.2106
64.0142 1889 43.4626
64.1317 2052 45.299
64.2492 2174 46.6262
64.3668 2302 47.9792
64.4843 2336 48.3322
64.6019 2361 48.5901
64.7195 2405 49.0408
64.837 2391 48.8979
64.9546 2307 48.0312
65.0722 2180 46.6905
65.1898 2065 45.4423
65.3074 1781 42.2019
65.4249 1804 42.4735
65.5425 1714 41.4005
65.6601 1753 41.8688
65.7777 1929 43.9204
65.8952 1966 44.3396
66.0128 2061 45.3982
66.1304 2129 46.1411
66.2479 2130 46.1519
66.3655 2247 47.4025
66.483 2271 47.655
66.6005 2372 48.7032
66.718 2253 47.4658
66.8355 2265 47.592
66.953 2245 47.3814
67.0705 2129 46.1411
67.1879 2055 45.3321
67.3054 2052 45.299
67.4228 1930 43.9318
67.5402 1850 43.0116
67.6576 1790 42.3084
67.7749 1996 44.6766
67.8923 2085 45.6618
68.0096 2186 46.7547
68.1269 2207 46.9787
68.2442 2336 48.3322
68.3614 2202 46.9255
68.4787 2227 47.1911
68.5958 2207 46.9787
68.713 2179 46.6798
68.8302 1945 44.1022
68.9473 1816 42.6146
69.0643 1680 40.9878
69.1814 1585 39.8121
69.2984 1692 41.1339
69.4154 1809 42.5323
69.5323 1909 43.6921
69.6492 2061 45.3982
69.7661 2152 46.3897
69.8829 2133 46.1844
69.9997 2143 46.2925
70.1165 2015 44.8888
70.2332 1878 43.3359
70.3499 1892 43.4971
70.4665 1835 42.8369
70.5831 1688 41.0853
70.6996 1698 41.2068
70.8161 1509 38.8458
70.9326 1438 37.921
71.049 1250 35.3553
71.1653 1054 32.4654
71.2817 949 30.8058
71.3979 861 29.3428
71.5141 870 29.4958
71.6303 799 28.2666
71.7464 745 27.2947
71.8624 0 1
71.9784 0 1
72.0944 0 1
72.2102 0 1
72.3261 0 1
72.4418 0 1
72.5575 0 1
72.6732 0 1
75.1054 0 1
75.2209 0 1
75.3365 0 1
75.4521 0 1
75.5678 0 1
75.6835 0 1
75.7993 0 1
75.9151 0 1
76.031 0 1
76.147 1310 36.1939
76.263 1381 37.1618
76.3791 1444 38
76.4952 1439 37.9342
76.6113 1506 38.8072
76.7276 1553 39.4081
76.8438 1664 40.7922
76.9601 1793 42.3438
77.0765 1954 44.2041
77.1929 1940 44.0454
77.3093 1946 44.1135
77.4258 1975 44.441
77.5423 1922 43.8406
77.6589 1920 43.8178
77.7755 1685 41.0488
77.8921 1541 39.2556
78.0088 1541 39.2556
78.1256 1255 35.426
78.2423 1313 36.2353
78.3591 1429 37.8021
78.4759 1577 39.7115
78.5928 1731 41.6053
78.7097 1764 42
78.8266 1877 43.3244
78.9436 1877 43.3244
79.0606 1914 43.7493
79.1776 1944 44.0908
79.2946 1934 43.9773
79.4117 1938 44.0227
79.5288 1978 44.4747
79.6459 1981 44.5084
79.7631 1928 43.909
79.8802 1811 42.5558
79.9974 1650 40.6202
80.1147 1603 40.0375
80.2319 1570 39.6232
80.3491 1633 40.4104
80.4664 1751 41.845
80.5837 1848 42.9884
80.701 1982 44.5197
80.8183 1953 44.1928
80.9357 2029 45.0444
81.053 1990 44.6094
81.1704 1912 43.7264
81.2877 2064 45.4313
81.4051 1912 43.7264
81.5225 1709 41.3401
81.6399 1625 40.3113
81.7573 1502 38.7556
81.8747 1432 37.8418
81.9922 1427 37.7757
82.1096 1631 40.3856
82.227 1689 41.0974
82.3444 1868 43.2204
82.4619 1961 44.2832
82.5793 1977 44.4635
82.6967 2039 45.1553
82.8142 2011 44.8442
82.9316 2045 45.2217
83.049 2074 45.5412
83.1664 2056 45.3431
83.2838 1938 44.0227
83.4012 2040 45.1664
83.5186 1869 43.2319
83.636 1871 43.2551
83.7534 1666 40.8167
83.8708 1582 39.7744
83.9881 1594 39.9249
84.1055 1699 41.2189
84.2228 1768 42.0476
84.3401 1927 43.8976
84.4575 1942 44.0681
84.5747 1999 44.7102
84.692 2038 45.1442
84.8093 2096 45.7821
84.9265 2071 45.5082
85.0437 1952 44.1814
85.1609 1740 41.7133
85.2781 1600 40
85.3952 1463 38.2492
85.5123 1442 37.9737
85.6294 1473 38.3797
85.7465 1655 40.6817
85.8636 1822 42.6849
85.9806 1854 43.0581
86.0976 1935 43.9886
86.2145 1906 43.6578
86.3315 1957 44.238
86.4484 2095 45.7712
86.5652 2055 45.3321
86.682 2099 45.8148
86.7988 2064 45.4313
86.9156 2063 45.4203
87.0323 1968 44.3621
87.149 1952 44.1814
87.2657 1811 42.5558
87.3823 1669 40.8534
87.4988 1413 37.5899
87.6154 1431 37.8286
87.7318 1433 37.855
87.8483 1546 39.3192
87.9647 1584 39.7995
88.081 1643 40.5339
88.1973 1627 40.3361
88.3136 1644 40.5463
88.4298 1498 38.704
88.546 1359 36.8646
88.6621 1192 34.5254
88.7781 921 30.348
88.8942 0 1
89.0101 0 1
89.126 0 1
89.2419 0 1
89.3577 0 1
89.4734 0 1
89.5891 0 1
89.7047 0 1
89.8203 0 1
89.9358 0 1
92.3269 0 1
92.4424 0 1
92.558 0 1
92.6736 0 1
92.7893 0 1
92.905 0 1
93.0208 0 1
93.1366 0 1
93.2525 0 1
93.3685 0 1
93.4845 0 1
93.6005 1620 40.2492
93.7167 1697 41.1947
93.8328 1798 42.4028
93.949 1798 42.4028
94.0653 1771 42.0833
94.1816 1838 42.8719
94.2979 1694 41.1582
94.4143 1618 40.2244
94.5307 1570 39.6232
94.6472 1468 38.3145
94.7637 1551 39.3827
94.8803 1658 40.7185
94.9969 1798 42.4028
95.1135 1831 42.7902
95.2302 1858 43.1045
95.3469 1950 44.1588
95.4637 2037 45.1331
95.5805 1960 44.2719
95.6973 2136 46.2169
95.8142 2151 46.3789
95.9311 2051 45.288
96.048 2117 46.0109
96.1649 2058 45.3652
96.2819 2124 46.0869
96.3989 1898 43.566
96.516 1809 42.5323
96.633 1698 41.2068
96.7501 1686 41.0609
96.8673 1741 41.7253
96.9844 1807 42.5088
97.1016 1916 43.7721
97.2188 2043 45.1996
97.336 2109 45.9239
97.4532 2112 45.9565
97.5704 2109 45.9239
97.6877 2155 46.422
97.805 2089 45.7056
97.9223 1871 43.2551
98.0396 1750 41.833
98.1569 1611 40.1373
98.2743 1530 39.1152
98.3916 1410 37.55
98.509 1615 40.1871
98.6264 1757 41.9166
98.7438 1935 43.9886
98.8612 2019 44.9333
98.9786 2124 46.0869
99.096 2203 46.9361
99.2134 2234 47.2652
99.3308 2217 47.085
99.4482 2181 46.7012
99.5656 2240 47.3286
99.6831 2177 46.6583
99.8005 2129 46.1411
99.9179 2114 45.9783
100.035 2008 44.8107
100.153 1917 43.7836
100.27 1874 43.2897
100.388 1779 42.1782
100.505 1883 43.3935
100.622 2065 45.4423
100.74 2241 47.3392
100.857 2277 47.7179
100.975 2239 47.3181
101.092 2215 47.0638
101.209 2279 47.7389
101.327 2243 47.3603
101.444 2178 46.669
101.561 1913 43.7379
101.679 1822 42.6849
101.796 1609 40.1123
101.913 1553 39.4081
102.03 1641 40.5093
102.148 1809 42.5323
102.265 1933 43.9659
102.382 2131 46.1628
102.499 2193 46.8295
102.616 2199 46.8935
102.733 2227 47.1911
102.851 2329 48.2597
102.968 2250 47.4342
103.085 2358 48.5592
103.202 2294 47.8957
103.319 2279 47.7389
103.436 2270 47.6445
103.552 2202 46.9255
103.669 2122 46.0652
103.786 1960 44.2719
103.903 1901 43.6005
104.02 1961 44.2832
104.137 2161 46.4866
104.253 2105 45.8803
104.37 2419 49.1833
104.487 2416 49.1528
104.603 2379 48.775
104.72 2305 48.0104
104.836 2249 47.4236
104.953 2045 45.2217
105.069 1751 41.845
105.186 1636 40.4475
105.302 1561 39.5095
105.418 1410 37.55
105.535 1459 38.1969
105.651 1449 38.0657
105.767 1457 38.1707
105.883 1389 37.2693
105.999 1340 36.606
106.115 0 1
106.231 0 1
106.347 0 1
106.463 0 1
106.579 0 1
106.694 0 1
106.81 0 1
106.926 0 1
107.041 0 1
107.157 0 1
109.576 0 1
109.692 0 1
109.807 0 1
109.923 0 1
110.039 0 1
110.155 0 1
110.27 0 1
110.386 0 1
110.502 0 1
110.618 991 31.4802
110.735 1278 35.7491
110.851 1503 38.7685
110.967 1735 41.6533
111.083 1783 42.2256
111.199 1890 43.4741
111.316 2102 45.8476
111.432 2181 46.7012
111.549 2147 46.3357
111.665 2155 46.422
111.782 2184 46.7333
111.898 2158 46.4543
112.015 2145 46.3141
112.132 1898 43.566
112.248 1856 43.0813
112.365 1831 42.7902
112.482 1740 41.7133
112.599 1982 44.5197
112.716 2002 44.7437
112.832 2088 45.6946
112.949 2154 46.4112
113.066 2169 46.5725
113.183 2175 46.6369
113.3 2242 47.3498
113.417 2186 46.7547
113.534 1992 44.6318
113.652 1789 42.2966
113.769 1609 40.1123
113.886 1574 39.6737
114.003 1490 38.6005
114.12 1670 40.8656
114.238 1803 42.4617
114.355 1856 43.0813
114.472 1923 43.852
114.589 2068 45.4753
114.707 2073 45.5302
114.824 2182 46.7119
114.942 2223 47.1487
115.059 2199 46.8935
115.176 2154 46.4112
115.294 2182 46.7119
115.411 2157 46.4435
115.529 2115 45.9891
115.646 2138 46.2385
115.764 1947 44.1248
115.881 1914 43.7493
115.999 1830 42.7785
116.116 1746 41.7852
116.234 2033 45.0888
116.351 1969 44.3734
116.469 2245 47.3814
116.586 2186 46.7547
116.704 2221 47.1275
116.821 2221 47.1275
116.939 2203 46.9361
117.056 2053 45.31
117.174 1973 44.4185
117.291 1839 42.8836
117.409 1606 40.0749
117.526 1573 39.6611
117.644 1583 39.7869
117.761 1652 40.6448
117.879 1811 42.5558
117.996 1928 43.909
118.114 2047 45.2438
118.231 2181 46.7012
118.349 2055 45.3321
118.466 2125 46.0977
118.584 2054 45.3211
118.701 2189 46.7868
118.819 2097 45.793
118.936 2123 46.076
119.053 2021 44.9555
119.171 1915 43.7607
119.288 1948 44.1362
119.405 1892 43.4971
119.523 1821 42.6732
119.64 1829 42.7668
119.757 1748 41.8091
119.875 1887 43.4396
119.992 1915 43.7607
120.109 2013 44.8665
120.226 2080 45.607
120.343 2003 44.7549
120.46 2108 45.913
120.578 1977 44.4635
120.695 2064 45.4313
120.812 1955 44.2154
120.929 1716 41.4246
121.046 1587 39.8372
121.163 1551 39.3827
121.279 1457 38.1707
121.396 1418 37.6563
121.513 1554 39.4208
121.63 1652 40.6448
121.747 1607 40.0874
121.863 1638 40.4722
121.98 1656 40.694
122.097 1685 41.0488
122.213 1603 40.0375
122.33 1650 40.6202
122.446 1543 39.281
122.563 1519 38.9744
122.679 1396 37.3631
122.795 1273 35.6791
122.912 1210 34.7851
123.028 1039 32.2335
123.144 983 31.3528
123.26 910 30.1662
123.377 0 1
123.493 0 1
123.609 0 1
123.725 0 1
123.84 0 1
123.956 0 1
124.072 0 1
124.188 0 1
124.303 0 1
124.419 0 1
126.852 0 1
126.968 0 1
127.083 0 1
127.199 0 1
127.315 0 1
127.431 0 1
127.547 0 1
127.663 0 1
127.779 0 1
127.895 0 1
128.011 0 1
128.127 0 1
128.243 0 1
128.359 1975 44.441
128.476 1975 44.441
128.592 1909 43.6921
128.708 1993 44.643
128.825 1963 44.3058
128.941 1984 44.5421
129.058 2152 46.3897
129.174 2158 46.4543
129.291 2167 46.551
129.408 2328 48.2494
129.524 2220 47.1169
129.641 2257 47.5079
129.758 2194 46.8402
129.875 1965 44.3283
129.992 1854 43.0581
130.108 1761 41.9643
130.225 1615 40.1871
130.342 1661 40.7554
130.459 1675 40.9268
130.576 1909 43.6921
130.693 1987 44.5758
130.81 2043 45.1996
130.928 2050 45.2769
131.045 2124 46.0869
131.162 2223 47.1487
131.279 2248 47.4131
131.396 2277 47.7179
131.513 2174 46.6262
131.631 2214 47.0532
131.748 2018 44.9222
131.865 2080 45.607
131.983 1996 44.6766
132.1 2044 45.2106
132.217 1963 44.3058
132.335 1990 44.6094
132.452 2049 45.2659
132.57 2148 46.3465
132.687 2349 48.4665
132.804 2184 46.7333
132.922 2237 47.2969
133.039 2262 47.5605
133.157 2228 47.2017
133.274 2275 47.697
133.392 2156 46.4327
133.509 1956 44.2267
133.627 1826 42.7317
133.744 1811 42.5558
133.862 1667 40.8289
133.979 1740 41.7133
134.097 1875 43.3013
134.214 1970 44.3847
134.332 2148 46.3465
134.449 2190 46.7974
134.567 2221 47.1275
134.684 2353 48.5077
134.802 2203 46.9361
134.919 2246 47.392
135.037 2238 47.3075
135.154 2294 47.8957
135.272 2136 46.2169
135.389 2187 46.7654
135.507 2142 46.2817
135.624 2050 45.2769
135.742 1938 44.0227
135.859 2021 44.9555
135.977 2088 45.6946
136.094 2037 45.1331
136.211 2204 46.9468
136.329 2247 47.4025
136.446 2348 48.4562
136.564 2347 48.4458
136.681 2297 47.927
136.798 2261 47.55
136.915 2298 47.9375
137.033 2081 45.618
137.15 1993 44.643
137.267 1847 42.9767
137.384 1731 41.6053
137.502 1660 40.7431
137.619 1639 40.4846
137.736 1853 43.0465
137.853 1933 43.9659
137.97 1983 44.5309
138.087 2069 45.4863
138.204 2154 46.4112
138.321 2101 45.8367
138.438 2208 46.9894
138.555 2263 47.571
138.672 2224 47.1593
138.788 2103 45.8585
138.905 1951 44.1701
139.022 2060 45.3872
139.139 1828 42.7551
139.255 1691 41.1218
139.372 1599 39.9875
139.488 1504 38.7814
139.605 1489 38.5876
139.721 1506 38.8072
139.838 1487 38.5616
139.954 1400 37.4166
140.071 1420 37.6829
140.187 1302 36.0832
140.303 1238 35.1852
140.419 1129 33.6006
140.535 1140 33.7639
140.652 998 31.5911
140.768 0 1
140.884 0 1
141 0 1
141.115 0 1
141.231 0 1
141.347 0 1
141.463 0 1
141.578 0 1
141.694 0 1
144.104 0 1
144.219 0 1
144.335 0 1
144.45 0 1
144.566 0 1
144.682 0 1
144.798 0 1
144.914 0 1
145.03 0 1
145.146 1616 40.1995
145.262 1714 41.4005
145.378 1754 41.8808
145.494 1786 42.2611
145.61 1747 41.7971
145.726 1791 42.3202
145.842 1543 39.281
145.959 1518 38.9615
146.075 1432 37.8418
146.192 1328 36.4417
146.308 1327 36.428
146.425 1358 36.8511
146.541 1480 38.4708
146.658 1548 39.3446
146.774 1629 40.3609
146.891 1632 40.398
147.008 1617 40.2119
147.125 1714 41.4005
147.241 1748 41.8091
147.358 1756 41.9047
147.475 1744 41.7612
147.592 1775 42.1307
147.709 1735 41.6533
147.826 1514 38.9102
147.943 1595 39.9375
148.06 1502 38.7556
148.177 1527 39.0768
148.294 1551 39.3827
148.411 1499 38.7169
148.528 1709 41.3401
148.645 1764 42
148.762 1706 41.3038
148.88 1779 42.1782
148.997 1816 42.6146
149.114 1799 42.4146
149.231 1785 42.2493
149.349 1722 41.497
149.466 1680 40.9878
149.583 1570 39.6232
149.701 1480 38.4708
149.818 1454 38.1314
149.935 1392 37.3095
150.053 1395 37.3497
150.17 1424 37.7359
150.287 1545 39.3065
150.405 1568 39.598
150.522 1605 40.0625
150.64 1688 41.0853
150.757 1635 40.4351
150.875 1719 41.4608
150.992 1759 41.9404
151.11 1724 41.5211
151.227 1627 40.3361
151.344 1687 41.0731
151.462 1621 40.2616
151.579 1615 40.1871
151.697 1520 38.9872
151.814 1530 39.1152
151.932 1559 39.4842
152.049 1520 38.9872
152.167 1618 40.2244
152.284 1602 40.025
152.402 1646 40.5709
152.519 1644 40.5463
152.636 1705 41.2916
152.754 1760 41.9524
152.871 1686 41.0609
152.989 1650 40.6202
153.106 1627 40.3361
153.223 1526 39.064
153.341 1449 38.0657
153.458 1295 35.9861
153.575 1244 35.2704
153.693 1332 36.4966
153.81 1365 36.9459
153.927 1391 37.2961
154.044 1450 38.0789
154.162 1481 38.4838
154.279 1490 38.6005
154.396 1533 39.1535
154.513 1467 38.3014
154.63 1597 39.9625
154.747 1587 39.8372
154.864 1548 39.3446
154.981 1531 39.128
155.098 1495 38.6652
155.215 1428 37.7889
155.332 1439 37.9342
155.449 1452 38.1051
155.566 1377 37.108
155.683 1406 37.4967
155.8 1460 38.2099
155.917 1515 38.923
156.033 1462 38.2361
156.15 0 1
156.267 0 1
156.383 0 1
156.5 0 1
156.617 0 1
156.733 0 1
156.85 0 1
156.966 0 1
157.082 0 1
157.199 0 1
157.315 0 1
157.431 0 1
157.547 0 1
157.664 0 1
157.78 0 1
157.896 0 1
158.012 0 1
158.128 0 1
158.244 0 1
158.359 0 1
158.475 0 1
158.591 0 1
158.706 0 1
