
6.15755 0 1
6.2731 0 1
6.3887 0 1
6.50437 0 1
6.62009 0 1
6.73587 0 1
6.8517 0 1
6.96759 0 1
7.08353 0 1
7.19952 0 1
7.31557 0 1
7.43166 0 1
7.54781 0 1
7.664 0 1
7.78024 0 1
7.89653 0 1
8.01286 0 1
8.12924 0 1
8.24567 0 1
8.36213 0 1
8.47864 0 1
8.59519 0 1
8.71178 0 1
8.82841 0 1
8.94508 0 1
9.06179 0 1
9.17853 0 1
9.29531 0 1
9.41212 0 1
9.52897 0 1
9.64584 0 1
9.76276 0 1
9.8797 0 1
9.99667 0 1
10.1137 0 1
10.2307 0 1
10.3478 0 1
10.4648 0 1
10.5819 0 1
10.6991 0 1
10.8162 0 1
10.9334 0 1
11.0506 0 1
11.1678 0 1
11.285 0 1
11.4023 0 1
11.5196 0 1
11.6369 0 1
11.7542 0 1
11.8715 0 1
11.9888 0 1
12.1062 0 1
12.2235 0 1
12.3409 0 1
12.4582 0 1
12.5756 0 1
12.693 0 1
12.8104 0 1
12.9278 0 1
13.0452 0 1
13.1626 0 1
13.28 0 1
13.3974 0 1
13.5149 0 1
13.6323 0 1
13.7497 0 1
13.8671 0 1
13.9845 0 1
14.1019 0 1
14.2193 0 1
14.3367 0 1
14.4541 0 1
14.5714 0 1
14.6888 0 1
14.8062 0 1
14.9235 0 1
15.0408 4045 63.6003
15.1581 4355 65.9924
15.2755 4343 65.9014
15.3927 4408 66.3928
15.51 4524 67.2607
15.6273 4488 66.9925
15.7445 4157 64.4748
15.8617 4148 64.405
15.9789 3992 63.1823
16.0961 3957 62.9047
16.2132 4005 63.2851
16.3304 3996 63.2139
16.4475 4026 63.4508
16.5646 3903 62.474
16.6816 3836 61.9355
16.7986 3853 62.0725
16.9156 3741 61.1637
17.0326 3661 60.5062
17.1496 3757 61.2944
17.2665 3688 60.7289
17.3833 3734 61.1065
17.5002 3494 59.1101
17.617 3599 59.9917
17.7338 3568 59.7327
17.8505 3551 59.5903
17.9672 3391 58.2323
18.0839 3385 58.1808
18.2005 3467 58.8812
18.3171 3682 60.6795
18.4337 3450 58.7367
18.5502 3585 59.8749
18.6666 3551 59.5903
18.7831 3607 60.0583
18.8994 3569 59.7411
19.0158 3554 59.6154
19.1321 3503 59.1861
19.2483 3406 58.3609
19.3645 3136 56
19.4806 2852 53.4041
19.5967 2848 53.3667
19.7128 2724 52.192
19.8288 2621 51.1957
19.9447 2283 47.7807
20.0606 0 1
20.1764 0 1
20.2922 0 1
20.4079 0 1
20.5236 0 1
20.6392 0 1
20.7548 0 1
20.8702 0 1
23.3078 0 1
23.4233 0 1
23.539 0 1
23.6547 0 1
23.7704 0 1
23.8862 0 1
24.0021 0 1
24.118 0 1
24.234 0 1
24.35 0 1
24.4661 1615 40.1871
24.5822 1820 42.6615
24.6984 2198 46.8828
24.8146 2513 50.1298
24.9309 2988 54.6626
25.0472 3191 56.4889
25.1636 3657 60.4731
25.28 3817 61.7819
25.3965 3862 62.145
25.513 3942 62.7853
25.6296 4097 64.0078
25.7462 4187 64.707
25.8628 4123 64.2106
25.9795 4067 63.773
26.0962 4018 63.3877
26.213 3734 61.1065
26.3298 3623 60.1914
26.4466 3521 59.338
26.5635 3289 57.3498
26.6804 3329 57.6975
26.7973 3278 57.2538
26.9143 3267 57.1577
27.0313 3251 57.0175
27.1483 3308 57.5152
27.2653 3290 57.3585
27.3824 3342 57.81
27.4996 3692 60.7618
27.6167 3637 60.3075
27.7339 3671 60.5888
27.8511 3665 60.5392
27.9683 3692 60.7618
28.0855 3742 61.1719
28.2028 3537 59.4727
28.3201 3621 60.1747
28.4374 3673 60.6053
28.5547 3710 60.9098
28.6721 3843 61.9919
28.7894 3889 62.3618
28.9068 3754 61.2699
29.0242 3801 61.6523
29.1416 3663 60.5227
29.259 3494 59.1101
29.3764 3520 59.3296
29.4939 3444 58.6856
29.6113 3338 57.7754
29.7288 3290 57.3585
29.8463 3183 56.4181
29.9638 2999 54.7631
30.0812 2934 54.1664
30.1987 2916 54
30.3162 3127 55.9196
30.4337 3234 56.8683
30.5512 3155 56.1694
30.6687 3206 56.6216
30.7862 3278 57.2538
30.9037 3410 58.3952
31.0212 3547 59.5567
31.1387 3613 60.1082
31.2562 3514 59.279
31.3737 3595 59.9583
31.4912 3496 59.127
31.6087 3575 59.7913
31.7262 3398 58.2924
31.8436 3382 58.155
31.9611 3371 58.0603
32.0785 3378 58.1206
32.1959 3499 59.1523
32.3134 3372 58.0689
32.4308 3244 56.9561
32.5482 3261 57.1052
32.6655 3069 55.3986
32.7829 3069 55.3986
32.9002 3082 55.5158
33.0176 2915 53.9907
33.1349 3024 54.9909
33.2522 2894 53.7959
33.3694 2814 53.0471
33.4867 2717 52.1249
33.6039 2764 52.5738
33.7211 2845 53.3385
33.8383 2937 54.1941
33.9554 2964 54.4426
34.0725 3083 55.5248
34.1896 2977 54.5619
34.3067 3029 55.0364
34.4237 2983 54.6168
34.5407 3158 56.1961
34.6577 3287 57.3324
34.7746 3213 56.6833
34.8915 3184 56.4269
35.0084 3105 55.7225
35.1252 3018 54.9363
35.242 2959 54.3967
35.3587 3061 55.3263
35.4755 3010 54.8635
35.5921 3148 56.107
35.7088 3048 55.2087
35.8254 3136 56
35.9419 3010 54.8635
36.0584 2882 53.6843
36.1749 2786 52.7826
36.2913 2784 52.7636
36.4077 2782 52.7447
36.524 2605 51.0392
36.6403 2378 48.7647
36.7565 2147 46.3357
36.8727 2071 45.5082
36.9889 1823 42.6966
37.1049 1745 41.7732
37.221 0 1
37.3369 0 1
37.4529 0 1
37.5687 0 1
37.6845 0 1
37.8003 0 1
37.916 0 1
38.0316 0 1
38.1472 0 1
40.5851 0 1
40.7008 0 1
40.8164 0 1
40.9322 0 1
41.048 0 1
41.1639 0 1
41.2798 0 1
41.3958 0 1
41.5118 0 1
41.6279 0 1
41.744 1322 36.3593
41.8602 1627 40.3361
41.9765 1814 42.5911
42.0928 1869 43.2319
42.2091 1965 44.3283
42.3255 1955 44.2154
42.4419 2123 46.076
42.5584 2195 46.8508
42.675 2411 49.1019
42.7915 2390 48.8876
42.9081 2407 49.0612
43.0248 2136 46.2169
43.1415 2204 46.9468
43.2582 2180 46.6905
43.375 2336 48.3322
43.4918 2403 49.0204
43.6087 2305 48.0104
43.7256 2308 48.0416
43.8425 2264 47.5815
43.9595 2205 46.9574
44.0765 2217 47.085
44.1935 2367 48.6518
44.3106 2279 47.7389
44.4277 2285 47.8017
44.5448 2390 48.8876
44.6619 2317 48.1352
44.7791 2339 48.3632
44.8963 2411 49.1019
45.0136 2347 48.4458
45.1308 2344 48.4149
45.2481 2301 47.9687
45.3654 2366 48.6415
45.4827 2245 47.3814
45.6001 2397 48.9592
45.7174 2208 46.9894
45.8348 2152 46.3897
45.9522 2146 46.3249
46.0697 2160 46.4758
46.1871 2238 47.3075
46.3046 2316 48.1248
46.422 2258 47.5184
46.5395 2170 46.5833
46.657 2182 46.7119
46.7745 2013 44.8665
46.892 2164 46.5188
47.0096 2321 48.1768
47.1271 2462 49.6185
47.2446 2356 48.5386
47.3622 2270 47.6445
47.4797 2287 47.8226
47.5973 2240 47.3286
47.7149 2297 47.927
47.8324 2218 47.0956
47.95 2246 47.392
48.0675 2166 46.5403
48.1851 2292 47.8748
48.3027 2322 48.1871
48.4202 2332 48.2908
48.5378 2240 47.3286
48.6554 2351 48.4871
48.7729 2295 47.9062
48.8904 2219 47.1063
49.008 2157 46.4435
49.1255 2143 46.2925
49.243 2109 45.9239
49.3605 1976 44.4522
49.478 1919 43.8064
49.5955 1961 44.2832
49.713 2103 45.8585
49.8304 2091 45.7275
49.9479 2139 46.2493
50.0653 2042 45.1885
50.1827 1946 44.1135
50.3001 1987 44.5758
50.4175 2024 44.9889
50.5348 2083 45.6399
50.6521 2278 47.7284
50.7694 2147 46.3357
50.8867 2037 45.1331
51.004 2087 45.6837
51.1212 2135 46.2061
51.2384 2215 47.0638
51.3556 2236 47.2864
51.4727 2138 46.2385
51.5899 2274 47.6865
51.707 2218 47.0956
51.824 2257 47.5079
51.9411 2303 47.9896
52.0581 2218 47.0956
52.175 2138 46.2385
52.2919 2222 47.1381
52.4088 2160 46.4758
52.5257 2119 46.0326
52.6425 2079 45.5961
52.7593 1947 44.1248
52.876 1933 43.9659
52.9927 1884 43.4051
53.1094 1830 42.7785
53.226 1928 43.909
53.3426 1892 43.4971
53.4591 1879 43.3474
53.5756 1845 42.9535
53.692 1746 41.7852
53.8084 1687 41.0731
53.9248 1541 39.2556
54.0411 1395 37.3497
54.1573 1256 35.4401
54.2735 0 1
54.3896 0 1
54.5057 0 1
54.6217 0 1
54.7377 0 1
54.8537 0 1
54.9695 0 1
55.0853 0 1
55.2011 0 1
55.3168 0 1
55.4324 0 1
57.824 0 1
57.9396 0 1
58.0553 0 1
58.1711 0 1
58.2869 0 1
58.4028 0 1
58.5187 0 1
58.6347 0 1
58.7508 0 1
58.8669 0 1
58.983 1935 43.9886
59.0992 2218 47.0956
59.2155 2473 49.7293
59.3318 2670 51.672
59.4482 2831 53.2071
59.5646 2908 53.9259
59.681 3064 55.3534
59.7975 3043 55.1634
59.9141 3203 56.5951
60.0306 3318 57.6021
60.1473 3359 57.9569
60.2639 3382 58.155
60.3807 3442 58.6686
60.4974 3449 58.7282
60.6142 3359 57.9569
60.731 3306 57.4978
60.8479 3362 57.9828
60.9648 3170 56.3028
61.0818 3108 55.7494
61.1987 3017 54.9272
61.3158 3024 54.9909
61.4328 2912 53.963
61.5499 2827 53.1695
61.667 2746 52.4023
61.7841 2845 53.3385
61.9013 2791 52.8299
62.0185 2826 53.1601
62.1357 2803 52.9434
62.253 2770 52.6308
62.3702 2812 53.0283
62.4875 2797 52.8867
62.6049 2676 51.7301
62.7222 2719 52.144
62.8396 2570 50.6952
62.9569 2736 52.3068
63.0743 2682 51.788
63.1918 2525 50.2494
63.3092 2584 50.8331
63.4267 2573 50.7247
63.5441 2647 51.449
63.6616 2767 52.6023
63.7791 2669 51.6624
63.8966 2670 51.672
64.0142 2551 50.5074
64.1317 2676 51.7301
64.2492 2688 51.8459
64.3668 2630 51.2835
64.4843 2584 50.8331
64.6019 2604 51.0294
64.7195 2502 50.02
64.837 2356 48.5386
64.9546 2347 48.4458
65.0722 2177 46.6583
65.1898 2287 47.8226
65.3074 2194 46.8402
65.4249 2266 47.6025
65.5425 2306 48.0208
65.6601 2389 48.8774
65.7777 2314 48.1041
65.8952 2438 49.3761
66.0128 2479 49.7896
66.1304 2507 50.07
66.2479 2483 49.8297
66.3655 2441 49.4065
66.483 2519 50.1896
66.6005 2543 50.4282
66.718 2505 50.05
66.8355 2388 48.8672
66.953 2427 49.2646
67.0705 2438 49.3761
67.1879 2618 51.1664
67.3054 2631 51.2933
67.4228 2643 51.4101
67.5402 2613 51.1175
67.6576 2583 50.8232
67.7749 2501 50.01
67.8923 2573 50.7247
68.0096 2542 50.4183
68.1269 2449 49.4874
68.2442 2491 49.9099
68.3614 2432 49.3153
68.4787 2338 48.3529
68.5958 2249 47.4236
68.713 2086 45.6727
68.8302 2092 45.7384
68.9473 2167 46.551
69.0643 2248 47.4131
69.1814 2203 46.9361
69.2984 2267 47.613
69.4154 2359 48.5695
69.5323 2472 49.7192
69.6492 2457 49.5681
69.7661 2328 48.2494
69.8829 2383 48.816
69.9997 2227 47.1911
70.1165 2283 47.7807
70.2332 2290 47.8539
70.3499 2120 46.0435
70.4665 2045 45.2217
70.5831 1882 43.382
70.6996 1755 41.8927
70.8161 1783 42.2256
70.9326 1683 41.0244
71.049 1612 40.1497
71.1653 1428 37.7889
71.2817 1423 37.7227
71.3979 1359 36.8646
71.5141 1263 35.5387
71.6303 1052 32.4345
71.7464 928 30.4631
71.8624 0 1
71.9784 0 1
72.0944 0 1
72.2102 0 1
72.3261 0 1
72.4418 0 1
72.5575 0 1
72.6732 0 1
75.1054 0 1
75.2209 0 1
75.3365 0 1
75.4521 0 1
75.5678 0 1
75.6835 0 1
75.7993 0 1
75.9151 0 1
76.031 0 1
76.147 1403 37.4566
76.263 1812 42.5676
76.3791 1924 43.8634
76.4952 2086 45.6727
76.6113 2135 46.2061
76.7276 2163 46.5081
76.8438 2118 46.0217
76.9601 2164 46.5188
77.0765 2107 45.9021
77.1929 2133 46.1844
77.3093 2105 45.8803
77.4258 2013 44.8665
77.5423 1986 44.5646
77.6589 1964 44.317
77.7755 1896 43.5431
77.8921 1758 41.9285
78.0088 1722 41.497
78.1256 1825 42.72
78.2423 1913 43.7379
78.3591 1998 44.699
78.4759 2036 45.1221
78.5928 2055 45.3321
78.7097 2188 46.7761
78.8266 2146 46.3249
78.9436 2225 47.1699
79.0606 2093 45.7493
79.1776 2029 45.0444
79.2946 2130 46.1519
79.4117 2243 47.3603
79.5288 2059 45.3762
79.6459 2036 45.1221
79.7631 2121 46.0543
79.8802 2152 46.3897
79.9974 2274 47.6865
80.1147 2346 48.4355
80.2319 2230 47.2229
80.3491 2193 46.8295
80.4664 2289 47.8435
80.5837 2276 47.7074
80.701 2256 47.4974
80.8183 2232 47.244
80.9357 2160 46.4758
81.053 2162 46.4973
81.1704 2160 46.4758
81.2877 2107 45.9021
81.4051 2004 44.7661
81.5225 2035 45.111
81.6399 1804 42.4735
81.7573 1915 43.7607
81.8747 1910 43.7035
81.9922 2044 45.2106
82.1096 2084 45.6508
82.227 2177 46.6583
82.3444 2220 47.1169
82.4619 2215 47.0638
82.5793 2269 47.634
82.6967 2211 47.0213
82.8142 2205 46.9574
82.9316 2243 47.3603
83.049 2237 47.2969
83.1664 2267 47.613
83.2838 2127 46.1194
83.4012 2129 46.1411
83.5186 2185 46.744
83.636 2320 48.1664
83.7534 2460 49.5984
83.8708 2368 48.6621
83.9881 2420 49.1935
84.1055 2383 48.816
84.2228 2363 48.6107
84.3401 2296 47.9166
84.4575 2278 47.7284
84.5747 2233 47.2546
84.692 2266 47.6025
84.8093 2165 46.5296
84.9265 2163 46.5081
85.0437 2033 45.0888
85.1609 1937 44.0114
85.2781 2074 45.5412
85.3952 1978 44.4747
85.5123 2017 44.911
85.6294 2234 47.2652
85.7465 2372 48.7032
85.8636 2300 47.9583
85.9806 2416 49.1528
86.0976 2326 48.2286
86.2145 2285 47.8017
86.3315 2318 48.1456
86.4484 2289 47.8435
86.5652 2316 48.1248
86.682 2280 47.7493
86.7988 2346 48.4355
86.9156 2223 47.1487
87.0323 2281 47.7598
87.149 2332 48.2908
87.2657 2399 48.9796
87.3823 2313 48.0937
87.4988 2254 47.4763
87.6154 2215 47.0638
87.7318 2189 46.7868
87.8483 2131 46.1628
87.9647 1956 44.2267
88.081 1826 42.7317
88.1973 1651 40.6325
88.3136 1486 38.5487
88.4298 1400 37.4166
88.546 1270 35.6371
88.6621 1198 34.6121
88.7781 1096 33.1059
88.8942 0 1
89.0101 0 1
89.126 0 1
89.2419 0 1
89.3577 0 1
89.4734 0 1
89.5891 0 1
89.7047 0 1
89.8203 0 1
89.9358 0 1
92.3269 0 1
92.4424 0 1
92.558 0 1
92.6736 0 1
92.7893 0 1
92.905 0 1
93.0208 0 1
93.1366 0 1
93.2525 0 1
93.3685 0 1
93.4845 0 1
93.6005 1890 43.4741
93.7167 1995 44.6654
93.8328 2176 46.6476
93.949 2280 47.7493
94.0653 2256 47.4974
94.1816 2261 47.55
94.2979 2116 46
94.4143 1965 44.3283
94.5307 1961 44.2832
94.6472 2034 45.0999
94.7637 2266 47.6025
94.8803 2323 48.1975
94.9969 2390 48.8876
95.1135 2383 48.816
95.2302 2496 49.96
95.3469 2490 49.8999
95.4637 2406 49.051
95.5805 2481 49.8096
95.6973 2417 49.163
95.8142 2461 49.6085
95.9311 2368 48.6621
96.048 2370 48.6826
96.1649 2383 48.816
96.2819 2429 49.2849
96.3989 2428 49.2747
96.516 2445 49.4469
96.633 2581 50.8035
96.7501 2492 49.9199
96.8673 2606 51.049
96.9844 2549 50.4876
97.1016 2490 49.8999
97.2188 2482 49.8197
97.336 2459 49.5883
97.4532 2341 48.3839
97.5704 2357 48.5489
97.6877 2297 47.927
97.805 2247 47.4025
97.9223 2268 47.6235
98.0396 2192 46.8188
98.1569 2122 46.0652
98.2743 2329 48.2597
98.3916 2310 48.0625
98.509 2557 50.5668
98.6264 2500 50
98.7438 2533 50.3289
98.8612 2570 50.6952
98.9786 2660 51.5752
99.096 2644 51.4198
99.2134 2704 52
99.3308 2756 52.4976
99.4482 2699 51.9519
99.5656 2743 52.3737
99.6831 2718 52.1344
99.8005 2774 52.6688
99.9179 2761 52.5452
100.035 2875 53.619
100.153 2887 53.7308
100.27 2813 53.0377
100.388 2870 53.5724
100.505 2836 53.2541
100.622 2779 52.7162
100.74 2680 51.7687
100.857 2791 52.8299
100.975 2783 52.7541
101.092 2669 51.6624
101.209 2761 52.5452
101.327 2655 51.5267
101.444 2579 50.7839
101.561 2447 49.4672
101.679 2434 49.3356
101.796 2396 48.949
101.913 2339 48.3632
102.03 2601 51
102.148 2799 52.9056
102.265 2976 54.5527
102.382 2852 53.4041
102.499 2883 53.6936
102.616 3059 55.3082
102.733 2988 54.6626
102.851 2873 53.6004
102.968 3158 56.1961
103.085 3066 55.3715
103.202 2960 54.4059
103.319 2875 53.619
103.436 2883 53.6936
103.552 2976 54.5527
103.669 2986 54.6443
103.786 3075 55.4527
103.903 3065 55.3624
104.02 3136 56
104.137 3186 56.4447
104.253 3081 55.5068
104.37 2933 54.1572
104.487 2999 54.7631
104.603 2957 54.3783
104.72 2901 53.8609
104.836 2840 53.2917
104.953 2693 51.8941
105.069 2538 50.3786
105.186 2354 48.518
105.302 2279 47.7389
105.418 2116 46
105.535 2113 45.9674
105.651 1931 43.9431
105.767 1835 42.8369
105.883 1690 41.1096
105.999 1560 39.4968
106.115 0 1
106.231 0 1
106.347 0 1
106.463 0 1
106.579 0 1
106.694 0 1
106.81 0 1
106.926 0 1
107.041 0 1
107.157 0 1
109.576 0 1
109.692 0 1
109.807 0 1
109.923 0 1
110.039 0 1
110.155 0 1
110.27 0 1
110.386 0 1
110.502 0 1
110.618 1275 35.7071
110.735 1594 39.9249
110.851 1917 43.7836
110.967 2248 47.4131
111.083 2416 49.1528
111.199 2463 49.6286
111.316 2601 51
111.432 2738 52.3259
111.549 2837 53.2635
111.665 2822 53.1225
111.782 2764 52.5738
111.898 2728 52.2303
112.015 2634 51.3225
112.132 2585 50.8429
112.248 2675 51.7204
112.365 2735 52.2972
112.482 2833 53.2259
112.599 2750 52.4404
112.716 2693 51.8941
112.832 2698 51.9423
112.949 2615 51.1371
113.066 2510 50.0999
113.183 2572 50.7149
113.3 2523 50.2295
113.417 2594 50.9313
113.534 2592 50.9117
113.652 2508 50.0799
113.769 2438 49.3761
113.886 2392 48.9081
114.003 2238 47.3075
114.12 2104 45.8694
114.238 2232 47.244
114.355 2205 46.9574
114.472 2335 48.3218
114.589 2416 49.1528
114.707 2364 48.621
114.824 2404 49.0306
114.942 2532 50.319
115.059 2514 50.1398
115.176 2523 50.2295
115.294 2420 49.1935
115.411 2369 48.6724
115.529 2269 47.634
115.646 2292 47.8748
115.764 2259 47.5289
115.881 2281 47.7598
115.999 2318 48.1456
116.116 2395 48.9387
116.234 2394 48.9285
116.351 2306 48.0208
116.469 2322 48.1871
116.586 2248 47.4131
116.704 2143 46.2925
116.821 2268 47.6235
116.939 2285 47.8017
117.056 2260 47.5395
117.174 2286 47.8121
117.291 2424 49.2341
117.409 2243 47.3603
117.526 2083 45.6399
117.644 2018 44.9222
117.761 1865 43.1856
117.879 1916 43.7721
117.996 2055 45.3321
118.114 2074 45.5412
118.231 2167 46.551
118.349 2219 47.1063
118.466 2185 46.744
118.584 2285 47.8017
118.701 2319 48.156
118.819 2315 48.1144
118.936 2246 47.392
119.053 2189 46.7868
119.171 2126 46.1086
119.288 2095 45.7712
119.405 2038 45.1442
119.523 2139 46.2493
119.64 2195 46.8508
119.757 2108 45.913
119.875 2152 46.3897
119.992 2189 46.7868
120.109 2050 45.2769
120.226 2133 46.1844
120.343 2044 45.2106
120.46 2011 44.8442
120.578 2136 46.2169
120.695 2107 45.9021
120.812 2120 46.0435
120.929 2155 46.422
121.046 2114 45.9783
121.163 1998 44.699
121.279 1898 43.566
121.396 1805 42.4853
121.513 1680 40.9878
121.63 1748 41.8091
121.747 1706 41.3038
121.863 1712 41.3763
121.98 1680 40.9878
122.097 1702 41.2553
122.213 1666 40.8167
122.33 1684 41.0366
122.446 1744 41.7612
122.563 1540 39.2428
122.679 1453 38.1182
122.795 1443 37.9868
122.912 1309 36.1801
123.028 1139 33.7491
123.144 1138 33.7343
123.26 1097 33.121
123.377 0 1
123.493 0 1
123.609 0 1
123.725 0 1
123.84 0 1
123.956 0 1
124.072 0 1
124.188 0 1
124.303 0 1
124.419 0 1
126.852 0 1
126.968 0 1
127.083 0 1
127.199 0 1
127.315 0 1
127.431 0 1
127.547 0 1
127.663 0 1
127.779 0 1
127.895 0 1
128.011 0 1
128.127 0 1
128.243 0 1
128.359 2197 46.8722
128.476 2197 46.8722
128.592 2148 46.3465
128.708 2221 47.1275
128.825 2252 47.4552
128.941 2318 48.1456
129.058 2349 48.4665
129.174 2302 47.9792
129.291 2330 48.2701
129.408 2267 47.613
129.524 2175 46.6369
129.641 2235 47.2758
129.758 2327 48.239
129.875 2299 47.9479
129.992 2395 48.9387
130.108 2376 48.7442
130.225 2364 48.621
130.342 2321 48.1768
130.459 2261 47.55
130.576 2336 48.3322
130.693 2171 46.594
130.81 2254 47.4763
130.928 2321 48.1768
131.045 2576 50.7543
131.162 2927 54.1018
131.279 3021 54.9636
131.396 3111 55.7763
131.513 3178 56.3738
131.631 3152 56.1427
131.748 3185 56.4358
131.865 3193 56.5066
131.983 3178 56.3738
132.1 3252 57.0263
132.217 3462 58.8388
132.335 3667 60.5558
132.452 3845 62.0081
132.57 3957 62.9047
132.687 4064 63.7495
132.804 4132 64.2806
132.922 4235 65.0769
133.039 4258 65.2534
133.157 4274 65.3758
133.274 4362 66.0454
133.392 4498 67.0671
133.509 4523 67.2533
133.627 4582 67.6905
133.744 4334 65.8331
133.862 4327 65.7799
133.979 4119 64.1794
134.097 4070 63.7966
134.214 3827 61.8628
134.332 3592 59.9333
134.449 3676 60.63
134.567 4062 63.7338
134.684 4444 66.6633
134.802 4623 67.9926
134.919 4766 69.0362
135.037 4807 69.3325
135.154 4859 69.7065
135.272 4667 68.3154
135.389 4507 67.1342
135.507 4448 66.6933
135.624 4453 66.7308
135.742 4512 67.1714
135.859 4844 69.5989
135.977 4820 69.4262
136.094 4969 70.4911
136.211 5154 71.7914
136.329 5225 72.2842
136.446 5252 72.4707
136.564 5233 72.3395
136.681 5287 72.7118
136.798 5368 73.2666
136.915 5335 73.0411
137.033 5266 72.5672
137.15 5321 72.9452
137.267 5579 74.6927
137.384 5287 72.7118
137.502 5184 72
137.619 5142 71.7077
137.736 4989 70.6329
137.853 4181 64.6607
137.97 4082 63.8905
138.087 4302 65.5896
138.204 5138 71.6798
138.321 5763 75.9144
138.438 5974 77.2917
138.555 6317 79.4796
138.672 6296 79.3473
138.788 6476 80.4736
138.905 6449 80.3057
139.022 6225 78.8987
139.139 5855 76.518
139.255 5204 72.1388
139.372 4477 66.9104
139.488 4182 64.6684
139.605 4255 65.2304
139.721 4864 69.7424
139.838 5341 73.0821
139.954 5571 74.6391
140.071 5015 70.8167
140.187 4411 66.4154
140.303 4257 65.2457
140.419 4005 63.2851
140.535 3703 60.8523
140.652 3489 59.0678
140.768 0 1
140.884 0 1
141 0 1
141.115 0 1
141.231 0 1
141.347 0 1
141.463 0 1
141.578 0 1
141.694 0 1
144.104 0 1
144.219 0 1
144.335 0 1
144.45 0 1
144.566 0 1
144.682 0 1
144.798 0 1
144.914 0 1
145.03 0 1
145.146 5711 75.5712
145.262 6033 77.6724
145.378 6203 78.7591
145.494 6296 79.3473
145.61 6291 79.3158
145.726 6463 80.3928
145.842 6383 79.8937
145.959 6793 82.4197
146.075 6786 82.3772
146.192 6899 83.0602
146.308 6594 81.2034
146.425 6112 78.1793
146.541 5402 73.4983
146.658 4655 68.2276
146.774 4564 67.5574
146.891 5137 71.6729
147.008 6150 78.4219
147.125 6629 81.4187
147.241 7055 83.994
147.358 7020 83.7854
147.475 6970 83.4865
147.592 7177 84.7172
147.709 6994 83.6301
147.826 6755 82.1888
147.943 6803 82.4803
148.06 6665 81.6395
148.177 6590 81.1788
148.294 6825 82.6136
148.411 7071 84.0892
148.528 7151 84.5636
148.645 7069 84.0773
148.762 7192 84.8057
148.88 7341 85.6796
148.997 7602 87.1894
149.114 7174 84.6995
149.231 7204 84.8764
149.349 7380 85.9069
149.466 7323 85.5745
149.583 7389 85.9593
149.701 7400 86.0233
149.818 7409 86.0755
149.935 7357 85.773
150.053 7086 84.1784
150.17 6318 79.4858
150.287 5251 72.4638
150.405 4926 70.1855
150.522 5399 73.4779
150.64 6387 79.9187
150.757 6820 82.5833
150.875 7395 85.9942
150.992 7236 85.0647
151.11 7184 84.7585
151.227 7156 84.5931
151.344 7082 84.1546
151.462 6940 83.3067
151.579 6535 80.8393
151.697 6958 83.4146
151.814 6833 82.662
151.932 6828 82.6317
152.049 7034 83.8689
152.167 7046 83.9405
152.284 7003 83.6839
152.402 7261 85.2115
152.519 7181 84.7408
152.636 7286 85.3581
152.754 7202 84.8646
152.871 7148 84.5458
152.989 7129 84.4334
153.106 7329 85.6096
153.223 7247 85.1293
153.341 7248 85.1352
153.458 7260 85.2056
153.575 6992 83.6182
153.693 6643 81.5046
153.81 5790 76.092
153.927 5384 73.3757
154.044 5614 74.9266
154.162 5871 76.6225
154.279 6466 80.4114
154.396 6707 81.8963
154.513 6872 82.8975
154.63 6789 82.3954
154.747 6973 83.5045
154.864 6884 82.9699
154.981 6732 82.0488
155.098 6686 81.768
155.215 6765 82.2496
155.332 6881 82.9518
155.449 6986 83.5823
155.566 7369 85.8429
155.683 7511 86.666
155.8 7734 87.9432
155.917 8072 89.8443
156.033 8308 91.1482
156.15 0 1
156.267 0 1
156.383 0 1
156.5 0 1
156.617 0 1
156.733 0 1
156.85 0 1
156.966 0 1
157.082 0 1
157.199 0 1
157.315 0 1
157.431 0 1
157.547 0 1
157.664 0 1
157.78 0 1
157.896 0 1
158.012 0 1
158.128 0 1
158.244 0 1
158.359 0 1
158.475 0 1
158.591 0 1
158.706 0 1
