
6.15755 0 1
6.2731 0 1
6.3887 0 1
6.50437 0 1
6.62009 0 1
6.73587 0 1
6.8517 0 1
6.96759 0 1
7.08353 0 1
7.19952 0 1
7.31557 0 1
7.43166 0 1
7.54781 0 1
7.664 0 1
7.78024 0 1
7.89653 0 1
8.01286 0 1
8.12924 0 1
8.24567 0 1
8.36213 0 1
8.47864 0 1
8.59519 0 1
8.71178 0 1
8.82841 0 1
8.94508 0 1
9.06179 0 1
9.17853 0 1
9.29531 0 1
9.41212 0 1
9.52897 0 1
9.64584 0 1
9.76276 0 1
9.8797 0 1
9.99667 0 1
10.1137 0 1
10.2307 0 1
10.3478 0 1
10.4648 0 1
10.5819 0 1
10.6991 0 1
10.8162 0 1
10.9334 0 1
11.0506 0 1
11.1678 0 1
11.285 0 1
11.4023 0 1
11.5196 0 1
11.6369 0 1
11.7542 0 1
11.8715 0 1
11.9888 0 1
12.1062 0 1
12.2235 0 1
12.3409 0 1
12.4582 0 1
12.5756 0 1
12.693 0 1
12.8104 0 1
12.9278 0 1
13.0452 0 1
13.1626 0 1
13.28 0 1
13.3974 0 1
13.5149 0 1
13.6323 0 1
13.7497 0 1
13.8671 0 1
13.9845 0 1
14.1019 0 1
14.2193 0 1
14.3367 0 1
14.4541 0 1
14.5714 0 1
14.6888 0 1
14.8062 0 1
14.9235 0 1
15.0408 962 31.0161
15.1581 1049 32.3883
15.2755 1099 33.1512
15.3927 1077 32.8177
15.51 1169 34.1906
15.6273 1149 33.8969
15.7445 1057 32.5115
15.8617 1094 33.0757
15.9789 1090 33.0151
16.0961 1058 32.5269
16.2132 1172 34.2345
16.3304 1118 33.4365
16.4475 1183 34.3948
16.5646 1157 34.0147
16.6816 1209 34.7707
16.7986 1334 36.524
16.9156 1316 36.2767
17.0326 1276 35.7211
17.1496 1299 36.0416
17.2665 1335 36.5377
17.3833 1316 36.2767
17.5002 1282 35.805
17.617 1171 34.2199
17.7338 1239 35.1994
17.8505 1145 33.8378
17.9672 1165 34.1321
18.0839 1119 33.4515
18.2005 1213 34.8281
18.3171 1222 34.9571
18.4337 1178 34.322
18.5502 1206 34.7275
18.6666 1297 36.0139
18.7831 1217 34.8855
18.8994 1337 36.565
19.0158 1330 36.4692
19.1321 1246 35.2987
19.2483 1253 35.3977
19.3645 1121 33.4813
19.4806 1055 32.4808
19.5967 1020 31.9374
19.7128 929 30.4795
19.8288 817 28.5832
19.9447 779 27.9106
20.0606 0 1
20.1764 0 1
20.2922 0 1
20.4079 0 1
20.5236 0 1
20.6392 0 1
20.7548 0 1
20.8702 0 1
23.3078 0 1
23.4233 0 1
23.539 0 1
23.6547 0 1
23.7704 0 1
23.8862 0 1
24.0021 0 1
24.118 0 1
24.234 0 1
24.35 0 1
24.4661 538 23.1948
24.5822 639 25.2784
24.6984 688 26.2298
24.8146 844 29.0517
24.9309 802 28.3196
25.0472 826 28.7402
25.1636 999 31.607
25.28 1173 34.2491
25.3965 1149 33.8969
25.513 1236 35.1568
25.6296 1271 35.6511
25.7462 1315 36.2629
25.8628 1435 37.8814
25.9795 1390 37.2827
26.0962 1409 37.5366
26.213 1304 36.1109
26.3298 1246 35.2987
26.4466 1218 34.8999
26.5635 1152 33.9411
26.6804 1167 34.1614
26.7973 1174 34.2637
26.9143 1293 35.9583
27.0313 1270 35.6371
27.1483 1247 35.3129
27.2653 1308 36.1663
27.3824 1305 36.1248
27.4996 1328 36.4417
27.6167 1273 35.6791
27.7339 1259 35.4824
27.8511 1316 36.2767
27.9683 1205 34.7131
28.0855 1199 34.6266
28.2028 1174 34.2637
28.3201 1097 33.121
28.4374 1031 32.1092
28.5547 1103 33.2114
28.6721 1073 32.7567
28.7894 1202 34.6699
28.9068 1288 35.8887
29.0242 1272 35.6651
29.1416 1300 36.0555
29.259 1321 36.3456
29.3764 1360 36.8782
29.4939 1322 36.3593
29.6113 1335 36.5377
29.7288 1223 34.9714
29.8463 1220 34.9285
29.9638 1120 33.4664
30.0812 1107 33.2716
30.1987 1126 33.5559
30.3162 1203 34.6843
30.4337 1204 34.6987
30.5512 1183 34.3948
30.6687 1250 35.3553
30.7862 1216 34.8712
30.9037 1262 35.5246
31.0212 1253 35.3977
31.1387 1234 35.1283
31.2562 1289 35.9026
31.3737 1206 34.7275
31.4912 1215 34.8569
31.6087 1161 34.0735
31.7262 1168 34.176
31.8436 1128 33.5857
31.9611 1099 33.1512
32.0785 1038 32.218
32.1959 1047 32.3574
32.3134 1227 35.0286
32.4308 1189 34.4819
32.5482 1304 36.1109
32.6655 1274 35.6931
32.7829 1268 35.609
32.9002 1315 36.2629
33.0176 1252 35.3836
33.1349 1282 35.805
33.2522 1306 36.1386
33.3694 1219 34.9142
33.4867 1182 34.3802
33.6039 1101 33.1813
33.7211 1067 32.665
33.8383 1095 33.0908
33.9554 1080 32.8634
34.0725 1153 33.9559
34.1896 1112 33.3467
34.3067 1193 34.5398
34.4237 1197 34.5977
34.5407 1282 35.805
34.6577 1248 35.327
34.7746 1240 35.2136
34.8915 1230 35.0714
35.0084 1193 34.5398
35.1252 1160 34.0588
35.242 1164 34.1174
35.3587 1117 33.4215
35.4755 1123 33.5112
35.5921 1077 32.8177
35.7088 978 31.273
35.8254 1073 32.7567
35.9419 1032 32.1248
36.0584 1098 33.1361
36.1749 1108 33.2866
36.2913 1132 33.6452
36.4077 1117 33.4215
36.524 1154 33.9706
36.6403 1157 34.0147
36.7565 1042 32.28
36.8727 933 30.545
36.9889 862 29.3598
37.1049 850 29.1548
37.221 0 1
37.3369 0 1
37.4529 0 1
37.5687 0 1
37.6845 0 1
37.8003 0 1
37.916 0 1
38.0316 0 1
38.1472 0 1
40.5851 0 1
40.7008 0 1
40.8164 0 1
40.9322 0 1
41.048 0 1
41.1639 0 1
41.2798 0 1
41.3958 0 1
41.5118 0 1
41.6279 0 1
41.744 620 24.8998
41.8602 678 26.0384
41.9765 731 27.037
42.0928 744 27.2764
42.2091 719 26.8142
42.3255 700 26.4575
42.4419 713 26.7021
42.5584 662 25.7294
42.675 752 27.4226
42.7915 852 29.189
42.9081 956 30.9192
43.0248 900 30
43.1415 999 31.607
43.2582 994 31.5278
43.375 1001 31.6386
43.4918 1018 31.9061
43.6087 975 31.225
43.7256 958 30.9516
43.8425 919 30.315
43.9595 961 31
44.0765 999 31.607
44.1935 899 29.9833
44.3106 834 28.8791
44.4277 842 29.0172
44.5448 853 29.2062
44.6619 857 29.2746
44.7791 869 29.4788
44.8963 947 30.7734
45.0136 1015 31.8591
45.1308 1010 31.7805
45.2481 998 31.5911
45.3654 1053 32.45
45.4827 1133 33.6601
45.6001 1048 32.3728
45.7174 962 31.0161
45.8348 959 30.9677
45.9522 880 29.6648
46.0697 826 28.7402
46.1871 809 28.4429
46.3046 849 29.1376
46.422 903 30.05
46.5395 955 30.9031
46.657 957 30.9354
46.7745 1041 32.2645
46.892 1061 32.573
47.0096 1052 32.4345
47.1271 1032 32.1248
47.2446 1051 32.4191
47.3622 1086 32.9545
47.4797 1024 32
47.5973 1003 31.6702
47.7149 1058 32.5269
47.8324 950 30.8221
47.95 934 30.5614
48.0675 833 28.8617
48.1851 880 29.6648
48.3027 838 28.9482
48.4202 908 30.133
48.5378 949 30.8058
48.6554 1064 32.619
48.7729 1056 32.4962
48.8904 1055 32.4808
49.008 1019 31.9218
49.1255 956 30.9192
49.243 985 31.3847
49.3605 916 30.2655
49.478 865 29.4109
49.5955 889 29.8161
49.713 825 28.7228
49.8304 832 28.8444
49.9479 876 29.5973
50.0653 962 31.0161
50.1827 999 31.607
50.3001 1040 32.249
50.4175 1040 32.249
50.5348 1085 32.9393
50.6521 1108 33.2866
50.7694 1165 34.1321
50.8867 1103 33.2114
51.004 1156 34
51.1212 1093 33.0606
51.2384 1079 32.8481
51.3556 1028 32.0624
51.4727 1022 31.9687
51.5899 950 30.8221
51.707 956 30.9192
51.824 1057 32.5115
51.9411 1165 34.1321
52.0581 1224 34.9857
52.175 1424 37.7359
52.2919 1408 37.5233
52.4088 1487 38.5616
52.5257 1448 38.0526
52.6425 1521 39
52.7593 1572 39.6485
52.876 1484 38.5227
52.9927 1426 37.7624
53.1094 1307 36.1525
53.226 1336 36.5513
53.3426 1207 34.7419
53.4591 1211 34.7994
53.5756 1221 34.9428
53.692 1315 36.2629
53.8084 1268 35.609
53.9248 1254 35.4119
54.0411 1239 35.1994
54.1573 1120 33.4664
54.2735 0 1
54.3896 0 1
54.5057 0 1
54.6217 0 1
54.7377 0 1
54.8537 0 1
54.9695 0 1
55.0853 0 1
55.2011 0 1
55.3168 0 1
55.4324 0 1
57.824 0 1
57.9396 0 1
58.0553 0 1
58.1711 0 1
58.2869 0 1
58.4028 0 1
58.5187 0 1
58.6347 0 1
58.7508 0 1
58.8669 0 1
58.983 756 27.4955
59.0992 902 30.0333
59.2155 977 31.257
59.3318 1072 32.7414
59.4482 1040 32.249
59.5646 1077 32.8177
59.681 1193 34.5398
59.7975 1145 33.8378
59.9141 1145 33.8378
60.0306 1239 35.1994
60.1473 1168 34.176
60.2639 1096 33.1059
60.3807 1051 32.4191
60.4974 1161 34.0735
60.6142 1167 34.1614
60.731 1242 35.242
60.8479 1301 36.0694
60.9648 1391 37.2961
61.0818 1265 35.5668
61.1987 1316 36.2767
61.3158 1363 36.9188
61.4328 1284 35.8329
61.5499 1250 35.3553
61.667 1165 34.1321
61.7841 1014 31.8434
61.9013 981 31.3209
62.0185 1093 33.0606
62.1357 1002 31.6544
62.253 1155 33.9853
62.3702 1264 35.5528
62.4875 1124 33.5261
62.6049 1317 36.2905
62.7222 1341 36.6197
62.8396 1267 35.5949
62.9569 1262 35.5246
63.0743 1308 36.1663
63.1918 1248 35.327
63.3092 1231 35.0856
63.4267 1194 34.5543
63.5441 1209 34.7707
63.6616 1115 33.3916
63.7791 1151 33.9264
63.8966 995 31.5436
64.0142 1018 31.9061
64.1317 1090 33.0151
64.2492 1149 33.8969
64.3668 1306 36.1386
64.4843 1294 35.9722
64.6019 1359 36.8646
64.7195 1294 35.9722
64.837 1308 36.1663
64.9546 1235 35.1426
65.0722 1224 34.9857
65.1898 1130 33.6155
65.3074 1080 32.8634
65.4249 995 31.5436
65.5425 944 30.7246
65.6601 1018 31.9061
65.7777 1017 31.8904
65.8952 1118 33.4365
66.0128 1114 33.3766
66.1304 1227 35.0286
66.2479 1236 35.1568
66.3655 1256 35.4401
66.483 1209 34.7707
66.6005 1270 35.6371
66.718 1270 35.6371
66.8355 1254 35.4119
66.953 1191 34.5109
67.0705 1176 34.2929
67.1879 1132 33.6452
67.3054 1138 33.7343
67.4228 1053 32.45
67.5402 1016 31.8748
67.6576 1027 32.0468
67.7749 1020 31.9374
67.8923 1105 33.2415
68.0096 1261 35.5106
68.1269 1226 35.0143
68.2442 1292 35.9444
68.3614 1240 35.2136
68.4787 1167 34.1614
68.5958 1222 34.9571
68.713 1175 34.2783
68.8302 1067 32.665
68.9473 1060 32.5576
69.0643 931 30.5123
69.1814 916 30.2655
69.2984 899 29.9833
69.4154 996 31.5595
69.5323 1011 31.7962
69.6492 1183 34.3948
69.7661 1110 33.3167
69.8829 1182 34.3802
69.9997 1160 34.0588
70.1165 1142 33.7935
70.2332 1123 33.5112
70.3499 1081 32.8786
70.4665 1036 32.187
70.5831 969 31.1288
70.6996 858 29.2916
70.8161 882 29.6985
70.9326 820 28.6356
71.049 636 25.219
71.1653 565 23.7697
71.2817 509 22.561
71.3979 478 21.8632
71.5141 426 20.6398
71.6303 445 21.095
71.7464 437 20.9045
71.8624 0 1
71.9784 0 1
72.0944 0 1
72.2102 0 1
72.3261 0 1
72.4418 0 1
72.5575 0 1
72.6732 0 1
75.1054 0 1
75.2209 0 1
75.3365 0 1
75.4521 0 1
75.5678 0 1
75.6835 0 1
75.7993 0 1
75.9151 0 1
76.031 0 1
76.147 732 27.0555
76.263 746 27.313
76.3791 789 28.0891
76.4952 756 27.4955
76.6113 756 27.4955
76.7276 862 29.3598
76.8438 889 29.8161
76.9601 1028 32.0624
77.0765 1073 32.7567
77.1929 1122 33.4963
77.3093 1066 32.6497
77.4258 1085 32.9393
77.5423 1104 33.2265
77.6589 1058 32.5269
77.7755 1016 31.8748
77.8921 889 29.8161
78.0088 851 29.1719
78.1256 739 27.1846
78.2423 756 27.4955
78.3591 810 28.4605
78.4759 862 29.3598
78.5928 987 31.4166
78.7097 927 30.4467
78.8266 1076 32.8024
78.9436 1069 32.6956
79.0606 1107 33.2716
79.1776 1075 32.7872
79.2946 1093 33.0606
79.4117 1049 32.3883
79.5288 1076 32.8024
79.6459 1071 32.7261
79.7631 987 31.4166
79.8802 995 31.5436
79.9974 982 31.3369
80.1147 865 29.4109
80.2319 855 29.2404
80.3491 800 28.2843
80.4664 928 30.4631
80.5837 923 30.3809
80.701 1126 33.5559
80.8183 1146 33.8526
80.9357 1117 33.4215
81.053 1098 33.1361
81.1704 1149 33.8969
81.2877 1081 32.8786
81.4051 1129 33.6006
81.5225 955 30.9031
81.6399 920 30.3315
81.7573 784 28
81.8747 765 27.6586
81.9922 738 27.1662
82.1096 906 30.0998
82.227 959 30.9677
82.3444 1014 31.8434
82.4619 1086 32.9545
82.5793 1144 33.8231
82.6967 1135 33.6898
82.8142 1120 33.4664
82.9316 1187 34.4529
83.049 1111 33.3317
83.1664 1133 33.6601
83.2838 1073 32.7567
83.4012 1117 33.4215
83.5186 1078 32.8329
83.636 1084 32.9242
83.7534 982 31.3369
83.8708 899 29.9833
83.9881 848 29.1204
84.1055 876 29.5973
84.2228 966 31.0805
84.3401 1061 32.573
84.4575 1147 33.8674
84.5747 1171 34.2199
84.692 1172 34.2345
84.8093 1113 33.3617
84.9265 1197 34.5977
85.0437 1078 32.8329
85.1609 954 30.8869
85.2781 902 30.0333
85.3952 851 29.1719
85.5123 780 27.9285
85.6294 837 28.931
85.7465 942 30.692
85.8636 967 31.0966
85.9806 1049 32.3883
86.0976 1079 32.8481
86.2145 1169 34.1906
86.3315 1126 33.5559
86.4484 1139 33.7491
86.5652 1137 33.7194
86.682 1185 34.4238
86.7988 1178 34.322
86.9156 1140 33.7639
87.0323 1088 32.9848
87.149 1125 33.541
87.2657 975 31.225
87.3823 891 29.8496
87.4988 831 28.8271
87.6154 778 27.8927
87.7318 731 27.037
87.8483 859 29.3087
87.9647 850 29.1548
88.081 900 30
88.1973 890 29.8329
88.3136 864 29.3939
88.4298 833 28.8617
88.546 762 27.6043
88.6621 685 26.1725
88.7781 524 22.891
88.8942 0 1
89.0101 0 1
89.126 0 1
89.2419 0 1
89.3577 0 1
89.4734 0 1
89.5891 0 1
89.7047 0 1
89.8203 0 1
89.9358 0 1
92.3269 0 1
92.4424 0 1
92.558 0 1
92.6736 0 1
92.7893 0 1
92.905 0 1
93.0208 0 1
93.1366 0 1
93.2525 0 1
93.3685 0 1
93.4845 0 1
93.6005 859 29.3087
93.7167 897 29.95
93.8328 933 30.545
93.949 908 30.133
94.0653 987 31.4166
94.1816 979 31.289
94.2979 958 30.9516
94.4143 940 30.6594
94.5307 925 30.4138
94.6472 893 29.8831
94.7637 891 29.8496
94.8803 905 30.0832
94.9969 1017 31.8904
95.1135 1080 32.8634
95.2302 1116 33.4066
95.3469 1159 34.0441
95.4637 1126 33.5559
95.5805 1155 33.9853
95.6973 1200 34.641
95.8142 1201 34.6554
95.9311 1130 33.6155
96.048 1177 34.3074
96.1649 1115 33.3916
96.2819 1088 32.9848
96.3989 1063 32.6037
96.516 1021 31.9531
96.633 1026 32.0312
96.7501 890 29.8329
96.8673 981 31.3209
96.9844 973 31.1929
97.1016 1010 31.7805
97.2188 1132 33.6452
97.336 1197 34.5977
97.4532 1164 34.1174
97.5704 1158 34.0294
97.6877 1214 34.8425
97.805 1187 34.4529
97.9223 1101 33.1813
98.0396 988 31.4325
98.1569 858 29.2916
98.2743 864 29.3939
98.3916 850 29.1548
98.509 882 29.6985
98.6264 1023 31.9844
98.7438 1104 33.2265
98.8612 1139 33.7491
98.9786 1179 34.3366
99.096 1178 34.322
99.2134 1213 34.8281
99.3308 1226 35.0143
99.4482 1261 35.5106
99.5656 1187 34.4529
99.6831 1225 35
99.8005 1213 34.8281
99.9179 1177 34.3074
100.035 1161 34.0735
100.153 1146 33.8526
100.27 1035 32.1714
100.388 973 31.1929
100.505 1033 32.1403
100.622 1044 32.311
100.74 1166 34.1467
100.857 1280 35.7771
100.975 1224 34.9857
101.092 1252 35.3836
101.209 1267 35.5949
101.327 1301 36.0694
101.444 1235 35.1426
101.561 1053 32.45
101.679 976 31.241
101.796 986 31.4006
101.913 895 29.9166
102.03 960 30.9839
102.148 1037 32.2025
102.265 1124 33.5261
102.382 1155 33.9853
102.499 1208 34.7563
102.616 1239 35.1994
102.733 1240 35.2136
102.851 1304 36.1109
102.968 1306 36.1386
103.085 1311 36.2077
103.202 1340 36.606
103.319 1281 35.7911
103.436 1267 35.5949
103.552 1259 35.4824
103.669 1158 34.0294
103.786 1100 33.1662
103.903 1068 32.6803
104.02 1101 33.1813
104.137 1141 33.7787
104.253 1230 35.0714
104.37 1287 35.8748
104.487 1286 35.8608
104.603 1327 36.428
104.72 1377 37.108
104.836 1277 35.7351
104.953 1251 35.3695
105.069 1148 33.8821
105.186 1003 31.6702
105.302 928 30.4631
105.418 823 28.688
105.535 784 28
105.651 841 29
105.767 891 29.8496
105.883 841 29
105.999 807 28.4077
106.115 0 1
106.231 0 1
106.347 0 1
106.463 0 1
106.579 0 1
106.694 0 1
106.81 0 1
106.926 0 1
107.041 0 1
107.157 0 1
109.576 0 1
109.692 0 1
109.807 0 1
109.923 0 1
110.039 0 1
110.155 0 1
110.27 0 1
110.386 0 1
110.502 0 1
110.618 503 22.4277
110.735 729 27
110.851 814 28.5307
110.967 911 30.1828
111.083 1055 32.4808
111.199 1075 32.7872
111.316 1125 33.541
111.432 1152 33.9411
111.549 1188 34.4674
111.665 1259 35.4824
111.782 1205 34.7131
111.898 1211 34.7994
112.015 1229 35.0571
112.132 1119 33.4515
112.248 1080 32.8634
112.365 1051 32.4191
112.482 940 30.6594
112.599 1055 32.4808
112.716 1142 33.7935
112.832 1280 35.7771
112.949 1205 34.7131
113.066 1257 35.4542
113.183 1269 35.623
113.3 1248 35.327
113.417 1235 35.1426
113.534 1214 34.8425
113.652 1082 32.8938
113.769 1058 32.5269
113.886 904 30.0666
114.003 908 30.133
114.12 954 30.8869
114.238 1034 32.1559
114.355 1115 33.3916
114.472 1111 33.3317
114.589 1273 35.6791
114.707 1242 35.242
114.824 1251 35.3695
114.942 1281 35.7911
115.059 1272 35.6651
115.176 1341 36.6197
115.294 1228 35.0428
115.411 1286 35.8608
115.529 1260 35.4965
115.646 1208 34.7563
115.764 1137 33.7194
115.881 1060 32.5576
115.999 1065 32.6343
116.116 1053 32.45
116.234 1134 33.6749
116.351 1252 35.3836
116.469 1283 35.819
116.586 1271 35.6511
116.704 1228 35.0428
116.821 1250 35.3553
116.939 1292 35.9444
117.056 1196 34.5832
117.174 1187 34.4529
117.291 1049 32.3883
117.409 985 31.3847
117.526 908 30.133
117.644 920 30.3315
117.761 997 31.5753
117.879 1040 32.249
117.996 1028 32.0624
118.114 1173 34.2491
118.231 1216 34.8712
118.349 1244 35.2704
118.466 1255 35.426
118.584 1167 34.1614
118.701 1202 34.6699
118.819 1177 34.3074
118.936 1246 35.2987
119.053 1150 33.9116
119.171 1143 33.8083
119.288 1111 33.3317
119.405 1023 31.9844
119.523 973 31.1929
119.64 949 30.8058
119.757 1025 32.0156
119.875 1011 31.7962
119.992 1087 32.9697
120.109 1065 32.6343
120.226 1186 34.4384
120.343 1193 34.5398
120.46 1201 34.6554
120.578 1120 33.4664
120.695 1120 33.4664
120.812 1161 34.0735
120.929 1040 32.249
121.046 927 30.4467
121.163 886 29.7658
121.279 848 29.1204
121.396 811 28.4781
121.513 844 29.0517
121.63 910 30.1662
121.747 927 30.4467
121.863 917 30.282
121.98 962 31.0161
122.097 995 31.5436
122.213 939 30.6431
122.33 955 30.9031
122.446 859 29.3087
122.563 854 29.2233
122.679 799 28.2666
122.795 725 26.9258
122.912 648 25.4558
123.028 577 24.0208
123.144 518 22.7596
123.26 468 21.6333
123.377 0 1
123.493 0 1
123.609 0 1
123.725 0 1
123.84 0 1
123.956 0 1
124.072 0 1
124.188 0 1
124.303 0 1
124.419 0 1
126.852 0 1
126.968 0 1
127.083 0 1
127.199 0 1
127.315 0 1
127.431 0 1
127.547 0 1
127.663 0 1
127.779 0 1
127.895 0 1
128.011 0 1
128.127 0 1
128.243 0 1
128.359 1115 33.3916
128.476 1124 33.5261
128.592 1124 33.5261
128.708 1028 32.0624
128.825 1109 33.3017
128.941 1073 32.7567
129.058 1189 34.4819
129.174 1274 35.6931
129.291 1263 35.5387
129.408 1264 35.5528
129.524 1309 36.1801
129.641 1285 35.8469
129.758 1212 34.8138
129.875 1160 34.0588
129.992 1060 32.5576
130.108 1045 32.3265
130.225 968 31.1127
130.342 891 29.8496
130.459 1003 31.6702
130.576 1012 31.8119
130.693 1096 33.1059
130.81 1150 33.9116
130.928 1120 33.4664
131.045 1176 34.2929
131.162 1285 35.8469
131.279 1303 36.0971
131.396 1241 35.2278
131.513 1243 35.2562
131.631 1189 34.4819
131.748 1185 34.4238
131.865 1226 35.0143
131.983 1146 33.8526
132.1 1066 32.6497
132.217 1107 33.2716
132.335 1095 33.0908
132.452 1121 33.4813
132.57 1203 34.6843
132.687 1274 35.6931
132.804 1251 35.3695
132.922 1320 36.3318
133.039 1235 35.1426
133.157 1258 35.4683
133.274 1292 35.9444
133.392 1198 34.6121
133.509 1142 33.7935
133.627 1066 32.6497
133.744 969 31.1288
133.862 948 30.7896
133.979 1019 31.9218
134.097 1067 32.665
134.214 1137 33.7194
134.332 1188 34.4674
134.449 1194 34.5543
134.567 1221 34.9428
134.684 1227 35.0286
134.802 1300 36.0555
134.919 1299 36.0416
135.037 1294 35.9722
135.154 1236 35.1568
135.272 1256 35.4401
135.389 1226 35.0143
135.507 1205 34.7131
135.624 1197 34.5977
135.742 1145 33.8378
135.859 1045 32.3265
135.977 1124 33.5261
136.094 1185 34.4238
136.211 1246 35.2987
136.329 1234 35.1283
136.446 1230 35.0714
136.564 1244 35.2704
136.681 1316 36.2767
136.798 1276 35.7211
136.915 1278 35.7491
137.033 1258 35.4683
137.15 1098 33.1361
137.267 1060 32.5576
137.384 1001 31.6386
137.502 997 31.5753
137.619 968 31.1127
137.736 1084 32.9242
137.853 1062 32.5883
137.97 1108 33.2866
138.087 1143 33.8083
138.204 1159 34.0441
138.321 1266 35.5809
138.438 1237 35.171
138.555 1281 35.7911
138.672 1264 35.5528
138.788 1180 34.3511
138.905 1113 33.3617
139.022 1148 33.8821
139.139 1103 33.2114
139.255 941 30.6757
139.372 934 30.5614
139.488 845 29.0689
139.605 812 28.4956
139.721 830 28.8097
139.838 788 28.0713
139.954 858 29.2916
140.071 867 29.4449
140.187 758 27.5318
140.303 684 26.1534
140.419 694 26.3439
140.535 603 24.5561
140.652 567 23.8118
140.768 0 1
140.884 0 1
141 0 1
141.115 0 1
141.231 0 1
141.347 0 1
141.463 0 1
141.578 0 1
141.694 0 1
144.104 0 1
144.219 0 1
144.335 0 1
144.45 0 1
144.566 0 1
144.682 0 1
144.798 0 1
144.914 0 1
145.03 0 1
145.146 947 30.7734
145.262 974 31.209
145.378 1023 31.9844
145.494 1058 32.5269
145.61 1065 32.6343
145.726 1004 31.686
145.842 961 31
145.959 938 30.6268
146.075 800 28.2843
146.192 781 27.9464
146.308 766 27.6767
146.425 758 27.5318
146.541 831 28.8271
146.658 845 29.0689
146.774 871 29.5127
146.891 951 30.8383
147.008 992 31.496
147.125 986 31.4006
147.241 1003 31.6702
147.358 975 31.225
147.475 1000 31.6228
147.592 964 31.0483
147.709 957 30.9354
147.826 954 30.8869
147.943 926 30.4302
148.06 849 29.1376
148.177 847 29.1033
148.294 882 29.6985
148.411 888 29.7993
148.528 876 29.5973
148.645 902 30.0333
148.762 1003 31.6702
148.88 979 31.289
148.997 1017 31.8904
149.114 973 31.1929
149.231 1044 32.311
149.349 918 30.2985
149.466 1005 31.7017
149.583 904 30.0666
149.701 841 29
149.818 798 28.2489
149.935 774 27.8209
150.053 804 28.3549
150.17 807 28.4077
150.287 856 29.2575
150.405 869 29.4788
150.522 880 29.6648
150.64 922 30.3645
150.757 933 30.545
150.875 946 30.7571
150.992 924 30.3974
151.11 1022 31.9687
151.227 998 31.5911
151.344 913 30.2159
151.462 878 29.6311
151.579 865 29.4109
151.697 843 29.0345
151.814 858 29.2916
151.932 839 28.9655
152.049 774 27.8209
152.167 882 29.6985
152.284 862 29.3598
152.402 900 30
152.519 947 30.7734
152.636 965 31.0644
152.754 1019 31.9218
152.871 963 31.0322
152.989 925 30.4138
153.106 854 29.2233
153.223 873 29.5466
153.341 774 27.8209
153.458 717 26.7769
153.575 744 27.2764
153.693 732 27.0555
153.81 720 26.8328
153.927 742 27.2397
154.044 801 28.3019
154.162 845 29.0689
154.279 872 29.5296
154.396 893 29.8831
154.513 868 29.4618
154.63 883 29.7153
154.747 880 29.6648
154.864 824 28.7054
154.981 872 29.5296
155.098 843 29.0345
155.215 819 28.6182
155.332 833 28.8617
155.449 755 27.4773
155.566 771 27.7669
155.683 781 27.9464
155.8 773 27.8029
155.917 814 28.5307
156.033 793 28.1603
156.15 0 1
156.267 0 1
156.383 0 1
156.5 0 1
156.617 0 1
156.733 0 1
156.85 0 1
156.966 0 1
157.082 0 1
157.199 0 1
157.315 0 1
157.431 0 1
157.547 0 1
157.664 0 1
157.78 0 1
157.896 0 1
158.012 0 1
158.128 0 1
158.244 0 1
158.359 0 1
158.475 0 1
158.591 0 1
158.706 0 1
