
6.15755 0 1
6.2731 0 1
6.3887 0 1
6.50437 0 1
6.62009 0 1
6.73587 0 1
6.8517 0 1
6.96759 0 1
7.08353 0 1
7.19952 0 1
7.31557 0 1
7.43166 0 1
7.54781 0 1
7.664 0 1
7.78024 0 1
7.89653 0 1
8.01286 0 1
8.12924 0 1
8.24567 0 1
8.36213 0 1
8.47864 0 1
8.59519 0 1
8.71178 0 1
8.82841 0 1
8.94508 0 1
9.06179 0 1
9.17853 0 1
9.29531 0 1
9.41212 0 1
9.52897 0 1
9.64584 0 1
9.76276 0 1
9.8797 0 1
9.99667 0 1
10.1137 0 1
10.2307 0 1
10.3478 0 1
10.4648 0 1
10.5819 0 1
10.6991 0 1
10.8162 0 1
10.9334 0 1
11.0506 0 1
11.1678 0 1
11.285 0 1
11.4023 0 1
11.5196 0 1
11.6369 0 1
11.7542 0 1
11.8715 0 1
11.9888 0 1
12.1062 0 1
12.2235 0 1
12.3409 0 1
12.4582 0 1
12.5756 0 1
12.693 0 1
12.8104 0 1
12.9278 0 1
13.0452 0 1
13.1626 0 1
13.28 0 1
13.3974 0 1
13.5149 0 1
13.6323 0 1
13.7497 0 1
13.8671 0 1
13.9845 0 1
14.1019 0 1
14.2193 0 1
14.3367 0 1
14.4541 0 1
14.5714 0 1
14.6888 0 1
14.8062 0 1
14.9235 0 1
15.0408 456 21.3542
15.1581 413 20.3224
15.2755 469 21.6564
15.3927 488 22.0907
15.51 461 21.4709
15.6273 498 22.3159
15.7445 440 20.9762
15.8617 499 22.3383
15.9789 436 20.8806
16.0961 435 20.8567
16.2132 508 22.5389
16.3304 480 21.9089
16.4475 498 22.3159
16.5646 516 22.7156
16.6816 571 23.8956
16.7986 488 22.0907
16.9156 486 22.0454
17.0326 534 23.1084
17.1496 554 23.5372
17.2665 524 22.891
17.3833 493 22.2036
17.5002 501 22.383
17.617 520 22.8035
17.7338 537 23.1733
17.8505 420 20.4939
17.9672 449 21.1896
18.0839 480 21.9089
18.2005 478 21.8632
18.3171 500 22.3607
18.4337 465 21.5639
18.5502 466 21.587
18.6666 523 22.8692
18.7831 511 22.6053
18.8994 515 22.6936
19.0158 489 22.1133
19.1321 463 21.5174
19.2483 446 21.1187
19.3645 482 21.9545
19.4806 477 21.8403
19.5967 443 21.0476
19.7128 394 19.8494
19.8288 341 18.4662
19.9447 331 18.1934
20.0606 0 1
20.1764 0 1
20.2922 0 1
20.4079 0 1
20.5236 0 1
20.6392 0 1
20.7548 0 1
20.8702 0 1
23.3078 0 1
23.4233 0 1
23.539 0 1
23.6547 0 1
23.7704 0 1
23.8862 0 1
24.0021 0 1
24.118 0 1
24.234 0 1
24.35 0 1
24.4661 197 14.0357
24.5822 218 14.7648
24.6984 237 15.3948
24.8146 278 16.6733
24.9309 307 17.5214
25.0472 386 19.6469
25.1636 420 20.4939
25.28 478 21.8632
25.3965 483 21.9773
25.513 509 22.561
25.6296 546 23.3666
25.7462 581 24.1039
25.8628 579 24.0624
25.9795 568 23.8328
26.0962 537 23.1733
26.213 620 24.8998
26.3298 582 24.1247
26.4466 531 23.0434
26.5635 529 23
26.6804 508 22.5389
26.7973 507 22.5167
26.9143 478 21.8632
27.0313 462 21.4942
27.1483 479 21.8861
27.2653 543 23.3024
27.3824 492 22.1811
27.4996 552 23.4947
27.6167 526 22.9347
27.7339 522 22.8473
27.8511 528 22.9783
27.9683 499 22.3383
28.0855 482 21.9545
28.2028 468 21.6333
28.3201 507 22.5167
28.4374 502 22.4054
28.5547 473 21.7486
28.6721 529 23
28.7894 532 23.0651
28.9068 511 22.6053
29.0242 573 23.9374
29.1416 526 22.9347
29.259 525 22.9129
29.3764 536 23.1517
29.4939 492 22.1811
29.6113 543 23.3024
29.7288 544 23.3238
29.8463 531 23.0434
29.9638 530 23.0217
30.0812 489 22.1133
30.1987 506 22.4944
30.3162 459 21.4243
30.4337 468 21.6333
30.5512 478 21.8632
30.6687 485 22.0227
30.7862 459 21.4243
30.9037 534 23.1084
31.0212 504 22.4499
31.1387 493 22.2036
31.2562 523 22.8692
31.3737 507 22.5167
31.4912 482 21.9545
31.6087 470 21.6795
31.7262 466 21.587
31.8436 509 22.561
31.9611 503 22.4277
32.0785 505 22.4722
32.1959 524 22.891
32.3134 539 23.2164
32.4308 527 22.9565
32.5482 504 22.4499
32.6655 543 23.3024
32.7829 553 23.516
32.9002 503 22.4277
33.0176 506 22.4944
33.1349 522 22.8473
33.2522 519 22.7816
33.3694 491 22.1585
33.4867 561 23.6854
33.6039 532 23.0651
33.7211 524 22.891
33.8383 459 21.4243
33.9554 477 21.8403
34.0725 450 21.2132
34.1896 446 21.1187
34.3067 418 20.445
34.4237 473 21.7486
34.5407 438 20.9284
34.6577 497 22.2935
34.7746 497 22.2935
34.8915 481 21.9317
35.0084 466 21.587
35.1252 456 21.3542
35.242 453 21.2838
35.3587 441 21
35.4755 421 20.5183
35.5921 450 21.2132
35.7088 478 21.8632
35.8254 488 22.0907
35.9419 520 22.8035
36.0584 525 22.9129
36.1749 522 22.8473
36.2913 548 23.4094
36.4077 500 22.3607
36.524 464 21.5407
36.6403 449 21.1896
36.7565 405 20.1246
36.8727 443 21.0476
36.9889 350 18.7083
37.1049 296 17.2047
37.221 0 1
37.3369 0 1
37.4529 0 1
37.5687 0 1
37.6845 0 1
37.8003 0 1
37.916 0 1
38.0316 0 1
38.1472 0 1
40.5851 0 1
40.7008 0 1
40.8164 0 1
40.9322 0 1
41.048 0 1
41.1639 0 1
41.2798 0 1
41.3958 0 1
41.5118 0 1
41.6279 0 1
41.744 190 13.784
41.8602 219 14.7986
41.9765 279 16.7033
42.0928 309 17.5784
42.2091 333 18.2483
42.3255 369 19.2094
42.4419 407 20.1742
42.5584 425 20.6155
42.675 405 20.1246
42.7915 385 19.6214
42.9081 405 20.1246
43.0248 403 20.0749
43.1415 401 20.025
43.2582 409 20.2237
43.375 378 19.4422
43.4918 394 19.8494
43.6087 426 20.6398
43.7256 422 20.5426
43.8425 399 19.975
43.9595 394 19.8494
44.0765 379 19.4679
44.1935 364 19.0788
44.3106 388 19.6977
44.4277 437 20.9045
44.5448 437 20.9045
44.6619 406 20.1494
44.7791 434 20.8327
44.8963 442 21.0238
45.0136 447 21.1424
45.1308 465 21.5639
45.2481 409 20.2237
45.3654 428 20.6882
45.4827 403 20.0749
45.6001 434 20.8327
45.7174 449 21.1896
45.8348 427 20.664
45.9522 433 20.8087
46.0697 425 20.6155
46.1871 447 21.1424
46.3046 433 20.8087
46.422 421 20.5183
46.5395 391 19.7737
46.657 420 20.4939
46.7745 421 20.5183
46.892 419 20.4695
47.0096 417 20.4206
47.1271 399 19.975
47.2446 437 20.9045
47.3622 439 20.9523
47.4797 415 20.3715
47.5973 399 19.975
47.7149 416 20.3961
47.8324 410 20.2485
47.95 460 21.4476
48.0675 461 21.4709
48.1851 449 21.1896
48.3027 436 20.8806
48.4202 468 21.6333
48.5378 424 20.5913
48.6554 445 21.095
48.7729 436 20.8806
48.8904 427 20.664
49.008 448 21.166
49.1255 479 21.8861
49.243 492 22.1811
49.3605 416 20.3961
49.478 439 20.9523
49.5955 439 20.9523
49.713 445 21.095
49.8304 435 20.8567
49.9479 426 20.6398
50.0653 396 19.8997
50.1827 407 20.1742
50.3001 396 19.8997
50.4175 374 19.3391
50.5348 390 19.7484
50.6521 424 20.5913
50.7694 415 20.3715
50.8867 373 19.3132
51.004 432 20.7846
51.1212 425 20.6155
51.2384 405 20.1246
51.3556 403 20.0749
51.4727 440 20.9762
51.5899 430 20.7364
51.707 406 20.1494
51.824 443 21.0476
51.9411 413 20.3224
52.0581 429 20.7123
52.175 434 20.8327
52.2919 451 21.2368
52.4088 477 21.8403
52.5257 474 21.7715
52.6425 434 20.8327
52.7593 417 20.4206
52.876 450 21.2132
52.9927 458 21.4009
53.1094 426 20.6398
53.226 448 21.166
53.3426 393 19.8242
53.4591 433 20.8087
53.5756 424 20.5913
53.692 397 19.9249
53.8084 361 19
53.9248 316 17.7764
54.0411 304 17.4356
54.1573 237 15.3948
54.2735 0 1
54.3896 0 1
54.5057 0 1
54.6217 0 1
54.7377 0 1
54.8537 0 1
54.9695 0 1
55.0853 0 1
55.2011 0 1
55.3168 0 1
55.4324 0 1
57.824 0 1
57.9396 0 1
58.0553 0 1
58.1711 0 1
58.2869 0 1
58.4028 0 1
58.5187 0 1
58.6347 0 1
58.7508 0 1
58.8669 0 1
58.983 247 15.7162
59.0992 306 17.4929
59.2155 356 18.868
59.3318 402 20.0499
59.4482 429 20.7123
59.5646 490 22.1359
59.681 491 22.1585
59.7975 506 22.4944
59.9141 533 23.0868
60.0306 561 23.6854
60.1473 558 23.622
60.2639 592 24.3311
60.3807 524 22.891
60.4974 564 23.7487
60.6142 556 23.5797
60.731 566 23.7908
60.8479 534 23.1084
60.9648 571 23.8956
61.0818 538 23.1948
61.1987 539 23.2164
61.3158 598 24.454
61.4328 579 24.0624
61.5499 556 23.5797
61.667 536 23.1517
61.7841 542 23.2809
61.9013 543 23.3024
62.0185 542 23.2809
62.1357 539 23.2164
62.253 545 23.3452
62.3702 536 23.1517
62.4875 529 23
62.6049 514 22.6716
62.7222 499 22.3383
62.8396 557 23.6008
62.9569 599 24.4745
63.0743 572 23.9165
63.1918 508 22.5389
63.3092 535 23.1301
63.4267 523 22.8692
63.5441 498 22.3159
63.6616 585 24.1868
63.7791 568 23.8328
63.8966 563 23.7276
64.0142 544 23.3238
64.1317 521 22.8254
64.2492 552 23.4947
64.3668 517 22.7376
64.4843 527 22.9565
64.6019 568 23.8328
64.7195 548 23.4094
64.837 534 23.1084
64.9546 559 23.6432
65.0722 578 24.0416
65.1898 565 23.7697
65.3074 518 22.7596
65.4249 498 22.3159
65.5425 608 24.6577
65.6601 581 24.1039
65.7777 590 24.2899
65.8952 533 23.0868
66.0128 547 23.388
66.1304 537 23.1733
66.2479 522 22.8473
66.3655 486 22.0454
66.483 529 23
66.6005 488 22.0907
66.718 480 21.9089
66.8355 518 22.7596
66.953 512 22.6274
67.0705 570 23.8747
67.1879 517 22.7376
67.3054 514 22.6716
67.4228 550 23.4521
67.5402 513 22.6495
67.6576 531 23.0434
67.7749 546 23.3666
67.8923 542 23.2809
68.0096 555 23.5584
68.1269 515 22.6936
68.2442 578 24.0416
68.3614 524 22.891
68.4787 559 23.6432
68.5958 588 24.2487
68.713 546 23.3666
68.8302 525 22.9129
68.9473 547 23.388
69.0643 514 22.6716
69.1814 514 22.6716
69.2984 529 23
69.4154 548 23.4094
69.5323 520 22.8035
69.6492 511 22.6053
69.7661 480 21.9089
69.8829 497 22.2935
69.9997 475 21.7945
70.1165 494 22.2261
70.2332 518 22.7596
70.3499 490 22.1359
70.4665 461 21.4709
70.5831 491 22.1585
70.6996 402 20.0499
70.8161 367 19.1572
70.9326 308 17.5499
71.049 285 16.8819
71.1653 292 17.088
71.2817 234 15.2971
71.3979 217 14.7309
71.5141 200 14.1421
71.6303 203 14.2478
71.7464 168 12.9615
71.8624 0 1
71.9784 0 1
72.0944 0 1
72.2102 0 1
72.3261 0 1
72.4418 0 1
72.5575 0 1
72.6732 0 1
75.1054 0 1
75.2209 0 1
75.3365 0 1
75.4521 0 1
75.5678 0 1
75.6835 0 1
75.7993 0 1
75.9151 0 1
76.031 0 1
76.147 311 17.6352
76.263 336 18.3303
76.3791 413 20.3224
76.4952 447 21.1424
76.6113 489 22.1133
76.7276 466 21.587
76.8438 444 21.0713
76.9601 448 21.166
77.0765 452 21.2603
77.1929 428 20.6882
77.3093 478 21.8632
77.4258 494 22.2261
77.5423 481 21.9317
77.6589 452 21.2603
77.7755 427 20.664
77.8921 500 22.3607
78.0088 427 20.664
78.1256 438 20.9284
78.2423 467 21.6102
78.3591 465 21.5639
78.4759 482 21.9545
78.5928 447 21.1424
78.7097 473 21.7486
78.8266 451 21.2368
78.9436 438 20.9284
79.0606 428 20.6882
79.1776 432 20.7846
79.2946 474 21.7715
79.4117 489 22.1133
79.5288 484 22
79.6459 482 21.9545
79.7631 488 22.0907
79.8802 490 22.1359
79.9974 554 23.5372
80.1147 456 21.3542
80.2319 523 22.8692
80.3491 503 22.4277
80.4664 450 21.2132
80.5837 492 22.1811
80.701 556 23.5797
80.8183 527 22.9565
80.9357 522 22.8473
81.053 543 23.3024
81.1704 491 22.1585
81.2877 510 22.5832
81.4051 527 22.9565
81.5225 531 23.0434
81.6399 519 22.7816
81.7573 475 21.7945
81.8747 460 21.4476
81.9922 484 22
82.1096 477 21.8403
82.227 479 21.8861
82.3444 504 22.4499
82.4619 506 22.4944
82.5793 521 22.8254
82.6967 451 21.2368
82.8142 466 21.587
82.9316 470 21.6795
83.049 482 21.9545
83.1664 481 21.9317
83.2838 429 20.7123
83.4012 492 22.1811
83.5186 463 21.5174
83.636 479 21.8861
83.7534 466 21.587
83.8708 449 21.1896
83.9881 446 21.1187
84.1055 441 21
84.2228 447 21.1424
84.3401 453 21.2838
84.4575 422 20.5426
84.5747 447 21.1424
84.692 427 20.664
84.8093 454 21.3073
84.9265 438 20.9284
85.0437 428 20.6882
85.1609 417 20.4206
85.2781 439 20.9523
85.3952 421 20.5183
85.5123 389 19.7231
85.6294 377 19.4165
85.7465 381 19.5192
85.8636 392 19.799
85.9806 381 19.5192
86.0976 370 19.2354
86.2145 341 18.4662
86.3315 328 18.1108
86.4484 334 18.2757
86.5652 367 19.1572
86.682 363 19.0526
86.7988 330 18.1659
86.9156 325 18.0278
87.0323 343 18.5203
87.149 370 19.2354
87.2657 322 17.9444
87.3823 341 18.4662
87.4988 309 17.5784
87.6154 325 18.0278
87.7318 281 16.7631
87.8483 324 18
87.9647 262 16.1864
88.081 233 15.2643
88.1973 176 13.2665
88.3136 152 12.3288
88.4298 156 12.49
88.546 138 11.7473
88.6621 123 11.0905
88.7781 117 10.8167
88.8942 0 1
89.0101 0 1
89.126 0 1
89.2419 0 1
89.3577 0 1
89.4734 0 1
89.5891 0 1
89.7047 0 1
89.8203 0 1
89.9358 0 1
92.3269 0 1
92.4424 0 1
92.558 0 1
92.6736 0 1
92.7893 0 1
92.905 0 1
93.0208 0 1
93.1366 0 1
93.2525 0 1
93.3685 0 1
93.4845 0 1
93.6005 197 14.0357
93.7167 238 15.4272
93.8328 292 17.088
93.949 281 16.7631
94.0653 297 17.2337
94.1816 317 17.8045
94.2979 306 17.4929
94.4143 310 17.6068
94.5307 316 17.7764
94.6472 340 18.4391
94.7637 350 18.7083
94.8803 356 18.868
94.9969 372 19.2873
95.1135 352 18.7617
95.2302 362 19.0263
95.3469 337 18.3576
95.4637 336 18.3303
95.5805 338 18.3848
95.6973 376 19.3907
95.8142 361 19
95.9311 346 18.6011
96.048 343 18.5203
96.1649 351 18.735
96.2819 362 19.0263
96.3989 403 20.0749
96.516 413 20.3224
96.633 414 20.347
96.7501 407 20.1742
96.8673 372 19.2873
96.9844 408 20.199
97.1016 394 19.8494
97.2188 417 20.4206
97.336 426 20.6398
97.4532 425 20.6155
97.5704 434 20.8327
97.6877 420 20.4939
97.805 424 20.5913
97.9223 425 20.6155
98.0396 436 20.8806
98.1569 475 21.7945
98.2743 412 20.2978
98.3916 433 20.8087
98.509 431 20.7605
98.6264 393 19.8242
98.7438 459 21.4243
98.8612 446 21.1187
98.9786 402 20.0499
99.096 446 21.1187
99.2134 425 20.6155
99.3308 432 20.7846
99.4482 456 21.3542
99.5656 446 21.1187
99.6831 444 21.0713
99.8005 488 22.0907
99.9179 489 22.1133
100.035 476 21.8174
100.153 462 21.4942
100.27 454 21.3073
100.388 403 20.0749
100.505 469 21.6564
100.622 462 21.4942
100.74 440 20.9762
100.857 463 21.5174
100.975 504 22.4499
101.092 486 22.0454
101.209 504 22.4499
101.327 499 22.3383
101.444 485 22.0227
101.561 514 22.6716
101.679 503 22.4277
101.796 491 22.1585
101.913 455 21.3307
102.03 494 22.2261
102.148 497 22.2935
102.265 463 21.5174
102.382 499 22.3383
102.499 461 21.4709
102.616 513 22.6495
102.733 505 22.4722
102.851 496 22.2711
102.968 528 22.9783
103.085 507 22.5167
103.202 512 22.6274
103.319 507 22.5167
103.436 509 22.561
103.552 537 23.1733
103.669 499 22.3383
103.786 529 23
103.903 493 22.2036
104.02 562 23.7065
104.137 553 23.516
104.253 519 22.7816
104.37 553 23.516
104.487 520 22.8035
104.603 476 21.8174
104.72 504 22.4499
104.836 521 22.8254
104.953 498 22.3159
105.069 482 21.9545
105.186 529 23
105.302 481 21.9317
105.418 446 21.1187
105.535 388 19.6977
105.651 340 18.4391
105.767 309 17.5784
105.883 268 16.3707
105.999 228 15.0997
106.115 0 1
106.231 0 1
106.347 0 1
106.463 0 1
106.579 0 1
106.694 0 1
106.81 0 1
106.926 0 1
107.041 0 1
107.157 0 1
109.576 0 1
109.692 0 1
109.807 0 1
109.923 0 1
110.039 0 1
110.155 0 1
110.27 0 1
110.386 0 1
110.502 0 1
110.618 287 16.9411
110.735 340 18.4391
110.851 359 18.9473
110.967 362 19.0263
111.083 387 19.6723
111.199 432 20.7846
111.316 435 20.8567
111.432 455 21.3307
111.549 511 22.6053
111.665 457 21.3776
111.782 449 21.1896
111.898 427 20.664
112.015 461 21.4709
112.132 465 21.5639
112.248 510 22.5832
112.365 469 21.6564
112.482 459 21.4243
112.599 482 21.9545
112.716 481 21.9317
112.832 467 21.6102
112.949 473 21.7486
113.066 480 21.9089
113.183 473 21.7486
113.3 519 22.7816
113.417 497 22.2935
113.534 479 21.8861
113.652 443 21.0476
113.769 500 22.3607
113.886 459 21.4243
114.003 471 21.7025
114.12 485 22.0227
114.238 465 21.5639
114.355 466 21.587
114.472 442 21.0238
114.589 520 22.8035
114.707 450 21.2132
114.824 454 21.3073
114.942 441 21
115.059 437 20.9045
115.176 472 21.7256
115.294 469 21.6564
115.411 414 20.347
115.529 485 22.0227
115.646 484 22
115.764 485 22.0227
115.881 432 20.7846
115.999 515 22.6936
116.116 492 22.1811
116.234 501 22.383
116.351 453 21.2838
116.469 480 21.9089
116.586 454 21.3073
116.704 458 21.4009
116.821 446 21.1187
116.939 513 22.6495
117.056 456 21.3542
117.174 436 20.8806
117.291 436 20.8806
117.409 492 22.1811
117.526 471 21.7025
117.644 472 21.7256
117.761 486 22.0454
117.879 470 21.6795
117.996 426 20.6398
118.114 468 21.6333
118.231 477 21.8403
118.349 446 21.1187
118.466 446 21.1187
118.584 480 21.9089
118.701 426 20.6398
118.819 465 21.5639
118.936 457 21.3776
119.053 421 20.5183
119.171 437 20.9045
119.288 416 20.3961
119.405 431 20.7605
119.523 428 20.6882
119.64 485 22.0227
119.757 492 22.1811
119.875 432 20.7846
119.992 407 20.1742
120.109 439 20.9523
120.226 469 21.6564
120.343 417 20.4206
120.46 458 21.4009
120.578 438 20.9284
120.695 449 21.1896
120.812 398 19.9499
120.929 446 21.1187
121.046 469 21.6564
121.163 430 20.7364
121.279 439 20.9523
121.396 422 20.5426
121.513 415 20.3715
121.63 441 21
121.747 417 20.4206
121.863 417 20.4206
121.98 401 20.025
122.097 405 20.1246
122.213 393 19.8242
122.33 370 19.2354
122.446 312 17.6635
122.563 276 16.6132
122.679 268 16.3707
122.795 235 15.3297
122.912 232 15.2315
123.028 209 14.4568
123.144 216 14.6969
123.26 211 14.5258
123.377 0 1
123.493 0 1
123.609 0 1
123.725 0 1
123.84 0 1
123.956 0 1
124.072 0 1
124.188 0 1
124.303 0 1
124.419 0 1
126.852 0 1
126.968 0 1
127.083 0 1
127.199 0 1
127.315 0 1
127.431 0 1
127.547 0 1
127.663 0 1
127.779 0 1
127.895 0 1
128.011 0 1
128.127 0 1
128.243 0 1
128.359 405 20.1246
128.476 490 22.1359
128.592 488 22.0907
128.708 486 22.0454
128.825 493 22.2036
128.941 485 22.0227
129.058 520 22.8035
129.174 495 22.2486
129.291 490 22.1359
129.408 519 22.7816
129.524 490 22.1359
129.641 521 22.8254
129.758 530 23.0217
129.875 478 21.8632
129.992 519 22.7816
130.108 488 22.0907
130.225 489 22.1133
130.342 454 21.3073
130.459 441 21
130.576 456 21.3542
130.693 431 20.7605
130.81 474 21.7715
130.928 406 20.1494
131.045 445 21.095
131.162 499 22.3383
131.279 502 22.4054
131.396 471 21.7025
131.513 475 21.7945
131.631 467 21.6102
131.748 490 22.1359
131.865 463 21.5174
131.983 501 22.383
132.1 460 21.4476
132.217 459 21.4243
132.335 497 22.2935
132.452 485 22.0227
132.57 540 23.2379
132.687 505 22.4722
132.804 507 22.5167
132.922 534 23.1084
133.039 567 23.8118
133.157 466 21.587
133.274 550 23.4521
133.392 469 21.6564
133.509 529 23
133.627 558 23.622
133.744 540 23.2379
133.862 505 22.4722
133.979 484 22
134.097 481 21.9317
134.214 478 21.8632
134.332 461 21.4709
134.449 456 21.3542
134.567 448 21.166
134.684 489 22.1133
134.802 492 22.1811
134.919 510 22.5832
135.037 461 21.4709
135.154 531 23.0434
135.272 448 21.166
135.389 478 21.8632
135.507 444 21.0713
135.624 419 20.4695
135.742 465 21.5639
135.859 480 21.9089
135.977 478 21.8632
136.094 456 21.3542
136.211 496 22.2711
136.329 499 22.3383
136.446 507 22.5167
136.564 521 22.8254
136.681 458 21.4009
136.798 493 22.2036
136.915 510 22.5832
137.033 544 23.3238
137.15 516 22.7156
137.267 530 23.0217
137.384 453 21.2838
137.502 485 22.0227
137.619 455 21.3307
137.736 451 21.2368
137.853 457 21.3776
137.97 453 21.2838
138.087 459 21.4243
138.204 426 20.6398
138.321 457 21.3776
138.438 450 21.2132
138.555 501 22.383
138.672 461 21.4709
138.788 450 21.2132
138.905 434 20.8327
139.022 423 20.567
139.139 427 20.664
139.255 392 19.799
139.372 418 20.445
139.488 416 20.3961
139.605 349 18.6815
139.721 362 19.0263
139.838 323 17.9722
139.954 281 16.7631
140.071 285 16.8819
140.187 233 15.2643
140.303 254 15.9374
140.419 245 15.6525
140.535 218 14.7648
140.652 202 14.2127
140.768 0 1
140.884 0 1
141 0 1
141.115 0 1
141.231 0 1
141.347 0 1
141.463 0 1
141.578 0 1
141.694 0 1
144.104 0 1
144.219 0 1
144.335 0 1
144.45 0 1
144.566 0 1
144.682 0 1
144.798 0 1
144.914 0 1
145.03 0 1
145.146 371 19.2614
145.262 367 19.1572
145.378 363 19.0526
145.494 389 19.7231
145.61 392 19.799
145.726 386 19.6469
145.842 391 19.7737
145.959 420 20.4939
146.075 388 19.6977
146.192 397 19.9249
146.308 409 20.2237
146.425 379 19.4679
146.541 368 19.1833
146.658 350 18.7083
146.774 368 19.1833
146.891 330 18.1659
147.008 370 19.2354
147.125 398 19.9499
147.241 350 18.7083
147.358 330 18.1659
147.475 342 18.4932
147.592 346 18.6011
147.709 364 19.0788
147.826 323 17.9722
147.943 366 19.1311
148.06 369 19.2094
148.177 356 18.868
148.294 347 18.6279
148.411 383 19.5704
148.528 389 19.7231
148.645 354 18.8149
148.762 389 19.7231
148.88 370 19.2354
148.997 402 20.0499
149.114 395 19.8746
149.231 403 20.0749
149.349 357 18.8944
149.466 332 18.2209
149.583 341 18.4662
149.701 375 19.3649
149.818 369 19.2094
149.935 365 19.105
150.053 359 18.9473
150.17 359 18.9473
150.287 346 18.6011
150.405 336 18.3303
150.522 324 18
150.64 335 18.303
150.757 344 18.5472
150.875 347 18.6279
150.992 341 18.4662
151.11 349 18.6815
151.227 340 18.4391
151.344 366 19.1311
151.462 331 18.1934
151.579 337 18.3576
151.697 354 18.8149
151.814 342 18.4932
151.932 354 18.8149
152.049 344 18.5472
152.167 332 18.2209
152.284 374 19.3391
152.402 368 19.1833
152.519 393 19.8242
152.636 379 19.4679
152.754 365 19.105
152.871 376 19.3907
152.989 390 19.7484
153.106 372 19.2873
153.223 345 18.5742
153.341 371 19.2614
153.458 317 17.8045
153.575 359 18.9473
153.693 327 18.0831
153.81 329 18.1384
153.927 333 18.2483
154.044 336 18.3303
154.162 338 18.3848
154.279 368 19.1833
154.396 332 18.2209
154.513 362 19.0263
154.63 335 18.303
154.747 326 18.0555
154.864 329 18.1384
154.981 340 18.4391
155.098 318 17.8326
155.215 326 18.0555
155.332 337 18.3576
155.449 332 18.2209
155.566 361 19
155.683 319 17.8606
155.8 347 18.6279
155.917 336 18.3303
156.033 335 18.303
156.15 0 1
156.267 0 1
156.383 0 1
156.5 0 1
156.617 0 1
156.733 0 1
156.85 0 1
156.966 0 1
157.082 0 1
157.199 0 1
157.315 0 1
157.431 0 1
157.547 0 1
157.664 0 1
157.78 0 1
157.896 0 1
158.012 0 1
158.128 0 1
158.244 0 1
158.359 0 1
158.475 0 1
158.591 0 1
158.706 0 1
