
6.15755 0 1
6.2731 0 1
6.3887 0 1
6.50437 0 1
6.62009 0 1
6.73587 0 1
6.8517 0 1
6.96759 0 1
7.08353 0 1
7.19952 0 1
7.31557 0 1
7.43166 0 1
7.54781 0 1
7.664 0 1
7.78024 0 1
7.89653 0 1
8.01286 0 1
8.12924 0 1
8.24567 0 1
8.36213 0 1
8.47864 0 1
8.59519 0 1
8.71178 0 1
8.82841 0 1
8.94508 0 1
9.06179 0 1
9.17853 0 1
9.29531 0 1
9.41212 0 1
9.52897 0 1
9.64584 0 1
9.76276 0 1
9.8797 0 1
9.99667 0 1
10.1137 0 1
10.2307 0 1
10.3478 0 1
10.4648 0 1
10.5819 0 1
10.6991 0 1
10.8162 0 1
10.9334 0 1
11.0506 0 1
11.1678 0 1
11.285 0 1
11.4023 0 1
11.5196 0 1
11.6369 0 1
11.7542 0 1
11.8715 0 1
11.9888 0 1
12.1062 0 1
12.2235 0 1
12.3409 0 1
12.4582 0 1
12.5756 0 1
12.693 0 1
12.8104 0 1
12.9278 0 1
13.0452 0 1
13.1626 0 1
13.28 0 1
13.3974 0 1
13.5149 0 1
13.6323 0 1
13.7497 0 1
13.8671 0 1
13.9845 0 1
14.1019 0 1
14.2193 0 1
14.3367 0 1
14.4541 0 1
14.5714 0 1
14.6888 0 1
14.8062 0 1
14.9235 0 1
15.0408 0 0
15.1581 0 0
15.2755 0 0
15.3927 0 0
15.51 0 0
15.6273 0 0
15.7445 0 0
15.8617 0 0
15.9789 0 0
16.0961 0 0
16.2132 0 0
16.3304 0 0
16.4475 0 0
16.5646 0 0
16.6816 0 0
16.7986 0 0
16.9156 0 0
17.0326 0 0
17.1496 0 0
17.2665 0 0
17.3833 0 0
17.5002 0 0
17.617 0 0
17.7338 0 0
17.8505 0 0
17.9672 0 0
18.0839 0 0
18.2005 0 0
18.3171 0 0
18.4337 0 0
18.5502 0 0
18.6666 0 0
18.7831 0 0
18.8994 0 0
19.0158 0 0
19.1321 0 0
19.2483 0 0
19.3645 0 0
19.4806 0 0
19.5967 0 0
19.7128 0 0
19.8288 0 0
19.9447 0 0
20.0606 0 1
20.1764 0 1
20.2922 0 1
20.4079 0 1
20.5236 0 1
20.6392 0 1
20.7548 0 1
20.8702 0 1
23.3078 0 1
23.4233 0 1
23.539 0 1
23.6547 0 1
23.7704 0 1
23.8862 0 1
24.0021 0 1
24.118 0 1
24.234 0 1
24.35 0 1
24.4661 22047 148.482
24.5822 22195 148.98
24.6984 21955 148.172
24.8146 21823 147.726
24.9309 21788 147.608
25.0472 20813 144.267
25.1636 21180 145.534
25.28 21376 146.205
25.3965 22185 148.946
25.513 22827 151.086
25.6296 23837 154.392
25.7462 24644 156.984
25.8628 24924 157.873
25.9795 25127 158.515
26.0962 24929 157.889
26.213 24957 157.978
26.3298 24153 155.412
26.4466 23342 152.781
26.5635 22369 149.563
26.6804 21919 148.051
26.7973 22211 149.034
26.9143 23010 151.69
27.0313 23733 154.055
27.1483 23933 154.703
27.2653 24639 156.968
27.3824 24951 157.959
27.4996 24843 157.617
27.6167 24466 156.416
27.7339 24454 156.378
27.8511 23981 154.858
27.9683 23595 153.607
28.0855 22787 150.954
28.2028 22467 149.89
28.3201 22492 149.973
28.4374 21272 145.849
28.5547 20650 143.701
28.6721 20389 142.79
28.7894 20859 144.426
28.9068 21116 145.313
29.0242 21962 148.196
29.1416 22298 149.325
29.259 23031 151.76
29.3764 23609 153.652
29.4939 24010 154.952
29.6113 24008 154.945
29.7288 23608 153.649
29.8463 22983 151.601
29.9638 22362 149.539
30.0812 21476 146.547
30.1987 20792 144.194
30.3162 20852 144.402
30.4337 21707 147.333
30.5512 22538 150.127
30.6687 23055 151.839
30.7862 23383 152.915
30.9037 23902 154.603
31.0212 24509 156.554
31.1387 24297 155.875
31.2562 24052 155.087
31.3737 23432 153.075
31.4912 23280 152.578
31.6087 22932 151.433
31.7262 22512 150.04
31.8436 21982 148.263
31.9611 21426 146.376
32.0785 20678 143.798
32.1959 20211 142.165
32.3134 20512 143.22
32.4308 20976 144.831
32.5482 21421 146.359
32.6655 22377 149.589
32.7829 23044 151.803
32.9002 23316 152.696
33.0176 23505 153.313
33.1349 23138 152.112
33.2522 23112 152.026
33.3694 23653 153.795
33.4867 23240 152.447
33.6039 22066 148.546
33.7211 21181 145.537
33.8383 20595 143.51
33.9554 20364 142.702
34.0725 21618 147.031
34.1896 22045 148.476
34.3067 23006 151.677
34.4237 23120 152.053
34.5407 23488 153.258
34.6577 23542 153.434
34.7746 24130 155.338
34.8915 23954 154.771
35.0084 23487 153.255
35.1252 23241 152.45
35.242 23167 152.207
35.3587 22450 149.833
35.4755 22376 149.586
35.5921 21627 147.061
35.7088 20987 144.869
35.8254 20339 142.615
35.9419 19929 141.17
36.0584 20155 141.968
36.1749 20454 143.017
36.2913 20966 144.796
36.4077 21347 146.106
36.524 22711 150.702
36.6403 22628 150.426
36.7565 23080 151.921
36.8727 22718 150.725
36.9889 23033 151.766
37.1049 22266 149.218
37.221 0 1
37.3369 0 1
37.4529 0 1
37.5687 0 1
37.6845 0 1
37.8003 0 1
37.916 0 1
38.0316 0 1
38.1472 0 1
40.5851 0 1
40.7008 0 1
40.8164 0 1
40.9322 0 1
41.048 0 1
41.1639 0 1
41.2798 0 1
41.3958 0 1
41.5118 0 1
41.6279 0 1
41.744 17941 133.944
41.8602 18680 136.675
41.9765 19071 138.098
42.0928 19804 140.727
42.2091 19446 139.449
42.3255 18912 137.521
42.4419 18421 135.724
42.5584 17583 132.601
42.675 17231 131.267
42.7915 17570 132.552
42.9081 18432 135.765
43.0248 18951 137.663
43.1415 19252 138.752
43.2582 19660 140.214
43.375 20226 142.218
43.4918 20353 142.664
43.6087 19759 140.567
43.7256 19644 140.157
43.8425 19490 139.607
43.9595 19280 138.852
44.0765 18730 136.858
44.1935 18200 134.907
44.3106 17647 132.842
44.4277 17231 131.267
44.5448 16154 127.098
44.6619 15226 123.394
44.7791 15107 122.911
44.8963 15364 123.952
45.0136 15415 124.157
45.1308 16094 126.862
45.2481 16553 128.658
45.3654 16725 129.325
45.4827 16908 130.031
45.6001 16528 128.561
45.7174 16707 129.256
45.8348 16473 128.347
45.9522 15652 125.108
46.0697 14894 122.041
46.1871 14205 119.185
46.3046 13933 118.038
46.422 14352 119.8
46.5395 14971 122.356
46.657 15700 125.3
46.7745 15715 125.359
46.892 15739 125.455
47.0096 16115 126.945
47.1271 16083 126.819
47.2446 15948 126.285
47.3622 15567 124.768
47.4797 15360 123.935
47.5973 14933 122.201
47.7149 14417 120.071
47.8324 14185 119.101
47.95 13309 115.365
48.0675 12695 112.672
48.1851 12070 109.864
48.3027 11523 107.345
48.4202 11724 108.277
48.5378 11883 109.009
48.6554 12289 110.856
48.7729 12850 113.358
48.8904 13152 114.682
49.008 13296 115.308
49.1255 13330 115.456
49.243 13172 114.769
49.3605 13048 114.228
49.478 12407 111.387
49.5955 11967 109.394
49.713 11563 107.531
49.8304 11663 107.995
49.9479 12018 109.627
50.0653 13263 115.165
50.1827 13768 117.337
50.3001 14247 119.361
50.4175 14871 121.947
50.5348 15213 123.341
50.6521 15470 124.378
50.7694 15908 126.127
50.8867 15811 125.742
51.004 15957 126.321
51.1212 16111 126.929
51.2384 16188 127.232
51.3556 16222 127.366
51.4727 15825 125.797
51.5899 15452 124.306
51.707 14775 121.552
51.824 14852 121.869
51.9411 15104 122.898
52.0581 15837 125.845
52.175 16813 129.665
52.2919 17400 131.909
52.4088 18148 134.715
52.5257 18314 135.329
52.6425 18687 136.7
52.7593 19014 137.891
52.876 19077 138.12
52.9927 18689 136.708
53.1094 18345 135.444
53.226 17396 131.894
53.3426 16962 130.238
53.4591 17336 131.666
53.5756 18498 136.007
53.692 19899 141.064
53.8084 20773 144.128
53.9248 21505 146.646
54.0411 22185 148.946
54.1573 22639 150.463
54.2735 0 1
54.3896 0 1
54.5057 0 1
54.6217 0 1
54.7377 0 1
54.8537 0 1
54.9695 0 1
55.0853 0 1
55.2011 0 1
55.3168 0 1
55.4324 0 1
57.824 0 1
57.9396 0 1
58.0553 0 1
58.1711 0 1
58.2869 0 1
58.4028 0 1
58.5187 0 1
58.6347 0 1
58.7508 0 1
58.8669 0 1
58.983 24052 155.087
59.0992 25336 159.173
59.2155 26201 161.867
59.3318 27067 164.521
59.4482 27200 164.924
59.5646 27380 165.469
59.681 26819 163.765
59.7975 26819 163.765
59.9141 26062 161.437
60.0306 24935 157.908
60.1473 23856 154.454
60.2639 22635 150.449
60.3807 21531 146.734
60.4974 21107 145.282
60.6142 20556 143.374
60.731 21122 145.334
60.8479 21575 146.884
60.9648 22392 149.64
61.0818 23372 152.879
61.1987 23603 153.633
61.3158 23765 154.159
61.4328 23099 151.984
61.5499 22762 150.871
61.667 21665 147.19
61.7841 20875 144.482
61.9013 20330 142.583
62.0185 20216 142.183
62.1357 20955 144.758
62.253 21845 147.801
62.3702 22948 151.486
62.4875 23461 153.17
62.6049 24331 155.984
62.7222 24871 157.705
62.8396 24807 157.502
62.9569 25213 158.786
63.0743 25124 158.506
63.1918 24945 157.94
63.3092 24088 155.203
63.4267 23553 153.47
63.5441 22668 150.559
63.6616 21658 147.167
63.7791 20430 142.934
63.8966 19385 139.23
64.0142 18496 136
64.1317 18412 135.691
64.2492 18527 136.114
64.3668 19564 139.871
64.4843 20370 142.724
64.6019 20999 144.91
64.7195 21361 146.154
64.837 21334 146.062
64.9546 21188 145.561
65.0722 20742 144.021
65.1898 19703 140.367
65.3074 19209 138.597
65.4249 18181 134.837
65.5425 17898 133.783
65.6601 18366 135.521
65.7777 19446 139.449
65.8952 20490 143.143
66.0128 21412 146.328
66.1304 22156 148.849
66.2479 22845 151.146
66.3655 23188 152.276
66.483 23490 153.264
66.6005 23539 153.424
66.718 23654 153.799
66.8355 23357 152.83
66.953 22974 151.572
67.0705 22335 149.449
67.1879 21151 145.434
67.3054 20359 142.685
67.4228 18961 137.699
67.5402 18050 134.35
67.6576 17197 131.137
67.7749 17621 132.744
67.8923 17677 132.955
68.0096 18953 137.67
68.1269 20040 141.563
68.2442 21046 145.072
68.3614 21381 146.222
68.4787 21700 147.309
68.5958 21396 146.274
68.713 21437 146.414
68.8302 20602 143.534
68.9473 19516 139.7
69.0643 18713 136.795
69.1814 18407 135.672
69.2984 18729 136.854
69.4154 19982 141.358
69.5323 21585 146.918
69.6492 22578 150.26
69.7661 23524 153.375
69.8829 24561 156.719
69.9997 25626 160.081
70.1165 25550 159.844
70.2332 25707 160.334
70.3499 25411 159.408
70.4665 25963 161.13
70.5831 24993 158.092
70.6996 24245 155.708
70.8161 23445 153.118
70.9326 22526 150.087
71.049 21069 145.152
71.1653 19830 140.819
71.2817 18469 135.901
71.3979 17764 133.282
71.5141 18062 134.395
71.6303 18335 135.407
71.7464 17846 133.589
71.8624 0 1
71.9784 0 1
72.0944 0 1
72.2102 0 1
72.3261 0 1
72.4418 0 1
72.5575 0 1
72.6732 0 1
75.1054 0 1
75.2209 0 1
75.3365 0 1
75.4521 0 1
75.5678 0 1
75.6835 0 1
75.7993 0 1
75.9151 0 1
76.031 0 1
76.147 21747 147.469
76.263 22686 150.619
76.3791 21987 148.28
76.4952 20520 143.248
76.6113 19268 138.809
76.7276 18778 137.033
76.8438 18984 137.782
76.9601 19967 141.305
77.0765 21104 145.272
77.1929 22644 150.479
77.3093 23584 153.571
77.4258 23906 154.616
77.5423 23790 154.24
77.6589 23795 154.256
77.7755 22531 150.103
77.8921 21191 145.571
78.0088 20235 142.25
78.1256 19187 138.517
78.2423 18523 136.099
78.3591 18732 136.865
78.4759 20420 142.899
78.5928 21829 147.746
78.7097 23096 151.974
78.8266 23925 154.677
78.9436 24940 157.924
79.0606 24919 157.858
79.1776 25305 159.075
79.2946 25485 159.64
79.4117 25751 160.471
79.5288 25244 158.884
79.6459 24836 157.594
79.7631 23500 153.297
79.8802 22345 149.482
79.9974 21099 145.255
80.1147 19849 140.886
80.2319 18474 135.919
80.3491 17411 131.951
80.4664 17665 132.91
80.5837 18414 135.698
80.701 19201 138.568
80.8183 20627 143.621
80.9357 21443 146.434
81.053 21750 147.479
81.1704 21381 146.222
81.2877 21518 146.69
81.4051 20748 144.042
81.5225 20150 141.951
81.6399 18476 135.926
81.7573 17659 132.887
81.8747 16761 129.464
81.9922 16590 128.802
82.1096 18184 134.848
82.227 19415 139.338
82.3444 20632 143.638
82.4619 21413 146.332
82.5793 22463 149.877
82.6967 22071 148.563
82.8142 22573 150.243
82.9316 22329 149.429
83.049 22309 149.362
83.1664 21785 147.597
83.2838 21065 145.138
83.4012 20362 142.695
83.5186 19444 139.442
83.636 18725 136.839
83.7534 17592 132.635
83.8708 15875 125.996
83.9881 15080 122.801
84.1055 15138 123.037
84.2228 15989 126.448
84.3401 16922 130.085
84.4575 18110 134.573
84.5747 19258 138.773
84.692 19960 141.28
84.8093 20111 141.813
84.9265 20067 141.658
85.0437 19060 138.058
85.1609 17666 132.914
85.2781 16578 128.756
85.3952 16057 126.716
85.5123 16077 126.795
85.6294 16741 129.387
85.7465 18419 135.717
85.8636 20081 141.707
85.9806 21246 145.76
86.0976 22208 149.023
86.2145 23170 152.217
86.3315 23417 153.026
86.4484 24466 156.416
86.5652 24431 156.304
86.682 24728 157.251
86.7988 24368 156.103
86.9156 23400 152.971
87.0323 23243 152.457
87.149 22345 149.482
87.2657 21360 146.151
87.3823 20042 141.57
87.4988 18702 136.755
87.6154 18458 135.86
87.7318 19079 138.127
87.8483 20264 142.352
87.9647 22061 148.529
88.081 23514 153.343
88.1973 24276 155.808
88.3136 24379 156.138
88.4298 24550 156.684
88.546 23892 154.57
88.6621 22969 151.555
88.7781 21442 146.431
88.8942 0 1
89.0101 0 1
89.126 0 1
89.2419 0 1
89.3577 0 1
89.4734 0 1
89.5891 0 1
89.7047 0 1
89.8203 0 1
89.9358 0 1
92.3269 0 1
92.4424 0 1
92.558 0 1
92.6736 0 1
92.7893 0 1
92.905 0 1
93.0208 0 1
93.1366 0 1
93.2525 0 1
93.3685 0 1
93.4845 0 1
93.6005 34834 186.639
93.7167 36660 191.468
93.8328 37544 193.763
93.949 38276 195.643
94.0653 38296 195.694
94.1816 37580 193.856
94.2979 36118 190.047
94.4143 35458 188.303
94.5307 35426 188.218
94.6472 36176 190.2
94.7637 38613 196.502
94.8803 41932 204.773
94.9969 45278 212.786
95.1135 47635 218.254
95.2302 50221 224.1
95.3469 51939 227.901
95.4637 53330 230.933
95.5805 54779 234.049
95.6973 56112 236.88
95.8142 56641 237.994
95.9311 56226 237.12
96.048 55354 235.274
96.1649 54298 233.019
96.2819 52739 229.65
96.3989 50818 225.428
96.516 48650 220.567
96.633 45216 212.641
96.7501 43677 208.99
96.8673 44606 211.201
96.9844 46911 216.589
97.1016 50055 223.73
97.2188 54344 233.118
97.336 55852 236.33
97.4532 56264 237.2
97.5704 55615 235.828
97.6877 54295 233.013
97.805 52028 228.096
97.9223 47755 218.529
98.0396 44800 211.66
98.1569 42766 206.799
98.2743 42502 206.16
98.3916 43532 208.643
98.509 47442 217.812
98.6264 50027 223.667
98.7438 52890 229.978
98.8612 54140 232.68
98.9786 55962 236.563
99.096 57237 239.243
99.2134 57190 239.144
99.3308 57799 240.414
99.4482 57506 239.804
99.5656 56714 238.147
99.6831 56289 237.253
99.8005 53892 232.147
99.9179 52374 228.854
100.035 49858 223.289
100.153 47383 217.676
100.27 43816 209.323
100.388 43084 207.567
100.505 44773 211.596
100.622 48296 219.764
100.74 51387 226.687
100.857 53376 231.032
100.975 54249 232.914
101.092 53778 231.901
101.209 53275 230.814
101.327 51182 226.234
101.444 47930 218.929
101.561 44187 210.207
101.679 40952 202.366
101.796 39792 199.479
101.913 38793 196.959
102.03 40767 201.908
102.148 43599 208.804
102.265 48849 221.018
102.382 44026 209.824
102.499 47684 218.367
102.616 48016 219.126
102.733 47891 218.84
102.851 46772 216.268
102.968 46380 215.36
103.085 44953 212.021
103.202 42480 206.107
103.319 40813 202.022
103.436 38948 197.352
103.552 36150 190.132
103.669 33662 183.472
103.786 30139 173.606
103.903 28925 170.074
104.02 28849 169.85
104.137 30107 173.514
104.253 31592 177.741
104.37 31273 176.842
104.487 32340 179.833
104.603 31306 176.935
104.72 30637 175.034
104.836 29381 171.409
104.953 26802 163.713
105.069 25337 159.176
105.186 24131 155.342
105.302 23231 152.417
105.418 23228 152.407
105.535 25016 158.164
105.651 27107 164.642
105.767 28564 169.009
105.883 29709 172.363
105.999 30383 174.307
106.115 0 1
106.231 0 1
106.347 0 1
106.463 0 1
106.579 0 1
106.694 0 1
106.81 0 1
106.926 0 1
107.041 0 1
107.157 0 1
109.576 0 1
109.692 0 1
109.807 0 1
109.923 0 1
110.039 0 1
110.155 0 1
110.27 0 1
110.386 0 1
110.502 0 1
110.618 23478 153.225
110.735 25811 160.658
110.851 27198 164.918
110.967 28525 168.893
111.083 29315 171.216
111.199 29723 172.404
111.316 30459 174.525
111.432 30027 173.283
111.549 30133 173.589
111.665 29628 172.128
111.782 28839 169.82
111.898 28036 167.44
112.015 27007 164.338
112.132 25540 159.812
112.248 23765 154.159
112.365 22591 150.303
112.482 22487 149.957
112.599 22587 150.29
112.716 24208 155.589
112.832 25906 160.953
112.949 26407 162.502
113.066 26306 162.191
113.183 26250 162.019
113.3 26085 161.509
113.417 24845 157.623
113.534 24078 155.171
113.652 22755 150.848
113.769 22009 148.354
113.886 21572 146.874
114.003 21707 147.333
114.12 23497 153.287
114.238 25446 159.518
114.355 26962 164.201
114.472 29824 172.696
114.589 27795 166.718
114.707 29095 170.573
114.824 29286 171.132
114.942 29808 172.65
115.059 30110 173.522
115.176 29553 171.91
115.294 29459 171.636
115.411 28558 168.991
115.529 27614 166.175
115.646 26836 163.817
115.764 25544 159.825
115.881 23759 154.14
115.999 22901 151.331
116.116 22944 151.473
116.234 24479 156.458
116.351 25631 160.097
116.469 26933 164.113
116.586 27123 164.691
116.704 26933 164.113
116.821 26997 164.308
116.939 26453 162.644
117.056 25689 160.278
117.174 24702 157.169
117.291 23506 153.317
117.409 22860 151.195
117.526 22742 150.805
117.644 23684 153.896
117.761 25384 159.324
117.879 27152 164.779
117.996 28217 167.979
118.114 29244 171.009
118.231 30068 173.401
118.349 30042 173.326
118.466 30789 175.468
118.584 31097 176.343
118.701 30784 175.454
118.819 30198 173.776
118.936 29654 172.203
119.053 28959 170.173
119.171 28252 168.083
119.288 27569 166.039
119.405 25687 160.272
119.523 24036 155.035
119.64 23306 152.663
119.757 23738 154.071
119.875 24403 156.215
119.992 25734 160.418
120.109 26998 164.311
120.226 27288 165.191
120.343 27001 164.32
120.46 26819 163.765
120.578 26731 163.496
120.695 25866 160.829
120.812 25249 158.899
120.929 24229 155.657
121.046 23728 154.039
121.163 23395 152.954
121.279 23652 153.792
121.396 24818 157.537
121.513 26453 162.644
121.63 27640 166.253
121.747 29209 170.906
121.863 29869 172.827
121.98 29934 173.014
122.097 30828 175.579
122.213 30331 174.158
122.33 30481 174.588
122.446 30100 173.494
122.563 29614 172.087
122.679 29260 171.056
122.795 28310 168.256
122.912 27669 166.34
123.028 26773 163.625
123.144 25349 159.214
123.26 23625 153.704
123.377 0 1
123.493 0 1
123.609 0 1
123.725 0 1
123.84 0 1
123.956 0 1
124.072 0 1
124.188 0 1
124.303 0 1
124.419 0 1
126.852 0 1
126.968 0 1
127.083 0 1
127.199 0 1
127.315 0 1
127.431 0 1
127.547 0 1
127.663 0 1
127.779 0 1
127.895 0 1
128.011 0 1
128.127 0 1
128.243 0 1
128.359 28029 167.419
128.476 26603 163.104
128.592 25769 160.527
128.708 26159 161.737
128.825 26915 164.058
128.941 28388 168.487
129.058 29523 171.823
129.174 29756 172.499
129.291 29629 172.131
129.408 29476 171.686
129.524 29703 172.346
129.641 28708 169.434
129.758 27457 165.702
129.875 26177 161.793
129.992 25729 160.403
130.108 25337 159.176
130.225 25837 160.739
130.342 26835 163.814
130.459 28071 167.544
130.576 30448 174.494
130.693 30543 174.766
130.81 31062 176.244
130.928 31487 177.446
131.045 31063 176.247
131.162 32055 179.039
131.279 32000 178.885
131.396 31518 177.533
131.513 31220 176.692
131.631 30602 174.934
131.748 30089 173.462
131.865 29242 171.003
131.983 27758 166.607
132.1 25981 161.186
132.217 25964 161.133
132.335 26773 163.625
132.452 27315 165.273
132.57 28901 170.003
132.687 28731 169.502
132.804 30357 174.233
132.922 29526 171.831
133.039 28955 170.162
133.157 29161 170.766
133.274 27896 167.021
133.392 26953 164.174
133.509 25980 161.183
133.627 25463 159.571
133.744 25743 160.446
133.862 26292 162.148
133.979 27948 167.177
134.097 28690 169.381
134.214 29549 171.898
134.332 29945 173.046
134.449 30463 174.537
134.567 30877 175.719
134.684 31303 176.927
134.802 31725 178.115
134.919 31801 178.328
135.037 31373 177.124
135.154 30764 175.397
135.272 30030 173.292
135.389 29545 171.887
135.507 28873 169.921
135.624 26885 163.966
135.742 26118 161.611
135.859 26399 162.478
135.977 26996 164.305
136.094 28174 167.851
136.211 29036 170.4
136.329 29623 172.113
136.446 29641 172.166
136.564 29431 171.555
136.681 29314 171.213
136.798 28598 169.109
136.915 28021 167.395
137.033 26820 163.768
137.15 25919 160.994
137.267 25454 159.543
137.384 25225 158.824
137.502 26094 161.536
137.619 27472 165.747
137.736 28273 168.146
137.853 28858 169.876
137.97 30034 173.303
138.087 29575 171.974
138.204 30588 174.894
138.321 30942 175.903
138.438 31290 176.89
138.555 31735 178.143
138.672 31503 177.491
138.788 31269 176.83
138.905 30776 175.431
139.022 29627 172.125
139.139 29035 170.397
139.255 27969 167.239
139.372 26932 164.11
139.488 26825 163.783
139.605 27342 165.354
139.721 28952 170.153
139.838 29870 172.829
139.954 30271 173.986
140.071 29941 173.035
140.187 29946 173.049
140.303 29274 171.096
140.419 28687 169.372
140.535 27723 166.502
140.652 26391 162.453
140.768 0 1
140.884 0 1
141 0 1
141.115 0 1
141.231 0 1
141.347 0 1
141.463 0 1
141.578 0 1
141.694 0 1
144.104 0 1
144.219 0 1
144.335 0 1
144.45 0 1
144.566 0 1
144.682 0 1
144.798 0 1
144.914 0 1
145.03 0 1
145.146 27056 164.487
145.262 27411 165.563
145.378 27086 164.578
145.494 26565 162.988
145.61 25460 159.562
145.726 24632 156.946
145.842 24199 155.56
145.959 23746 154.097
146.075 24011 154.955
146.192 24907 157.82
146.308 25890 160.904
146.425 26403 162.49
146.541 27383 165.478
146.658 27828 166.817
146.774 28230 168.018
146.891 28205 167.943
147.008 28724 169.482
147.125 29185 170.836
147.241 29319 171.228
147.358 28700 169.411
147.475 28415 168.567
147.592 27985 167.287
147.709 27162 164.809
147.826 26140 161.679
147.943 25338 159.179
148.06 24422 156.275
148.177 25329 159.151
148.294 26412 162.518
148.411 27306 165.245
148.528 27985 167.287
148.645 27865 166.928
148.762 27958 167.206
148.88 27486 165.789
148.997 27131 164.715
149.114 27657 166.304
149.231 26412 162.518
149.349 25749 160.465
149.466 24248 155.718
149.583 24358 156.07
149.701 23997 154.91
149.818 25098 158.423
149.935 25850 160.779
150.053 26748 163.548
150.17 27386 165.487
150.287 27982 167.278
150.405 28302 168.232
150.522 28831 169.797
150.64 29245 171.012
150.757 29977 173.139
150.875 29674 172.261
150.992 29507 171.776
151.11 29078 170.523
151.227 28453 168.68
151.344 27550 165.982
151.462 26717 163.453
151.579 26471 162.699
151.697 25248 158.896
151.814 26036 161.357
151.932 26770 163.615
152.049 27841 166.856
152.167 28571 169.03
152.284 29101 170.59
152.402 28488 168.784
152.519 28700 169.411
152.636 28383 168.473
152.754 27663 166.322
152.871 26885 163.966
152.989 25806 160.642
153.106 25314 159.104
153.223 25047 158.262
153.341 25200 158.745
153.458 25422 159.443
153.575 26496 162.776
153.693 27184 164.876
153.81 28032 167.428
153.927 28208 167.952
154.044 29152 170.74
154.162 29070 170.499
154.279 30204 173.793
154.396 30527 174.72
154.513 30894 175.767
154.63 30593 174.909
154.747 30519 174.697
154.864 29792 172.604
154.981 29089 170.555
155.098 28455 168.686
155.215 27384 165.481
155.332 26914 164.055
155.449 27287 165.188
155.566 28049 167.478
155.683 28937 170.109
155.8 29397 171.456
155.917 29373 171.386
156.033 29189 170.848
156.15 0 1
156.267 0 1
156.383 0 1
156.5 0 1
156.617 0 1
156.733 0 1
156.85 0 1
156.966 0 1
157.082 0 1
157.199 0 1
157.315 0 1
157.431 0 1
157.547 0 1
157.664 0 1
157.78 0 1
157.896 0 1
158.012 0 1
158.128 0 1
158.244 0 1
158.359 0 1
158.475 0 1
158.591 0 1
158.706 0 1
