
6.15755 0 1
6.2731 0 1
6.3887 0 1
6.50437 0 1
6.62009 0 1
6.73587 0 1
6.8517 0 1
6.96759 0 1
7.08353 0 1
7.19952 0 1
7.31557 0 1
7.43166 0 1
7.54781 0 1
7.664 0 1
7.78024 0 1
7.89653 0 1
8.01286 0 1
8.12924 0 1
8.24567 0 1
8.36213 0 1
8.47864 0 1
8.59519 0 1
8.71178 0 1
8.82841 0 1
8.94508 0 1
9.06179 0 1
9.17853 0 1
9.29531 0 1
9.41212 0 1
9.52897 0 1
9.64584 0 1
9.76276 0 1
9.8797 0 1
9.99667 0 1
10.1137 0 1
10.2307 0 1
10.3478 0 1
10.4648 0 1
10.5819 0 1
10.6991 0 1
10.8162 0 1
10.9334 0 1
11.0506 0 1
11.1678 0 1
11.285 0 1
11.4023 0 1
11.5196 0 1
11.6369 0 1
11.7542 0 1
11.8715 0 1
11.9888 0 1
12.1062 0 1
12.2235 0 1
12.3409 0 1
12.4582 0 1
12.5756 0 1
12.693 0 1
12.8104 0 1
12.9278 0 1
13.0452 0 1
13.1626 0 1
13.28 0 1
13.3974 0 1
13.5149 0 1
13.6323 0 1
13.7497 0 1
13.8671 0 1
13.9845 0 1
14.1019 0 1
14.2193 0 1
14.3367 0 1
14.4541 0 1
14.5714 0 1
14.6888 0 1
14.8062 0 1
14.9235 0 1
15.0408 11033 105.038
15.1581 11479 107.14
15.2755 12077 109.895
15.3927 12343 111.099
15.51 12172 110.327
15.6273 11755 108.42
15.7445 11655 107.958
15.8617 11536 107.406
15.9789 11332 106.452
16.0961 11356 106.565
16.2132 11152 105.603
16.3304 11110 105.404
16.4475 11111 105.409
16.5646 11192 105.792
16.6816 11228 105.962
16.7986 11353 106.55
16.9156 11217 105.91
17.0326 11286 106.236
17.1496 11098 105.347
17.2665 11025 105
17.3833 11043 105.086
17.5002 10932 104.556
17.617 11298 106.292
17.7338 11282 106.217
17.8505 11292 106.264
17.9672 11471 107.103
18.0839 11615 107.773
18.2005 11814 108.692
18.3171 11898 109.078
18.4337 11794 108.6
18.5502 12042 109.736
18.6666 12412 111.409
18.7831 12332 111.05
18.8994 12204 110.472
19.0158 11944 109.289
19.1321 11368 106.621
19.2483 10986 104.814
19.3645 10417 102.064
19.4806 10150 100.747
19.5967 9634 98.1529
19.7128 9338 96.6333
19.8288 8668 93.1021
19.9447 7979 89.3252
20.0606 0 1
20.1764 0 1
20.2922 0 1
20.4079 0 1
20.5236 0 1
20.6392 0 1
20.7548 0 1
20.8702 0 1
23.3078 0 1
23.4233 0 1
23.539 0 1
23.6547 0 1
23.7704 0 1
23.8862 0 1
24.0021 0 1
24.118 0 1
24.234 0 1
24.35 0 1
24.4661 4942 70.2994
24.5822 5285 72.698
24.6984 6000 77.4597
24.8146 6617 81.3449
24.9309 7358 85.7788
25.0472 8091 89.95
25.1636 9020 94.9737
25.28 9949 99.7447
25.3965 10818 104.01
25.513 11473 107.112
25.6296 12054 109.791
25.7462 12625 112.361
25.8628 12654 112.49
25.9795 12719 112.779
26.0962 12959 113.838
26.213 13127 114.573
26.3298 12977 113.917
26.4466 12797 113.124
26.5635 12737 112.858
26.6804 12725 112.805
26.7973 12938 113.745
26.9143 12994 113.991
27.0313 12673 112.574
27.1483 13338 115.49
27.2653 13098 114.446
27.3824 13211 114.939
27.4996 13318 115.404
27.6167 12921 113.671
27.7339 12554 112.045
27.8511 12110 110.045
27.9683 11831 108.77
28.0855 11619 107.791
28.2028 11544 107.443
28.3201 11634 107.861
28.4374 11767 108.476
28.5547 12052 109.782
28.6721 12125 110.114
28.7894 12471 111.674
28.9068 12577 112.147
29.0242 12866 113.428
29.1416 12685 112.628
29.259 12669 112.557
29.3764 12992 113.982
29.4939 12799 113.133
29.6113 12577 112.147
29.7288 13007 114.048
29.8463 13080 114.368
29.9638 12973 113.899
30.0812 12992 113.982
30.1987 13326 115.438
30.3162 13113 114.512
30.4337 13083 114.381
30.5512 13132 114.595
30.6687 13184 114.822
30.7862 13095 114.433
30.9037 13342 115.508
31.0212 13382 115.681
31.1387 13175 114.782
31.2562 13021 114.11
31.3737 12562 112.08
31.4912 12079 109.905
31.6087 11915 109.156
31.7262 12005 109.567
31.8436 11810 108.674
31.9611 12239 110.63
32.0785 12525 111.915
32.1959 12471 111.674
32.3134 12961 113.846
32.4308 12802 113.146
32.5482 13028 114.14
32.6655 13009 114.057
32.7829 13075 114.346
32.9002 13024 114.123
33.0176 13124 114.56
33.1349 13294 115.3
33.2522 13199 114.887
33.3694 13383 115.685
33.4867 13359 115.581
33.6039 13142 114.639
33.7211 13458 116.009
33.8383 13372 115.637
33.9554 13496 116.172
34.0725 13632 116.756
34.1896 13612 116.67
34.3067 13501 116.194
34.4237 13797 117.461
34.5407 13559 116.443
34.6577 13337 115.486
34.7746 13558 116.439
34.8915 13294 115.3
35.0084 12861 113.406
35.1252 12492 111.768
35.242 12113 110.059
35.3587 11768 108.48
35.4755 12009 109.586
35.5921 12045 109.75
35.7088 12392 111.319
35.8254 12726 112.81
35.9419 12912 113.631
36.0584 12744 112.889
36.1749 13220 114.978
36.2913 12889 113.53
36.4077 13023 114.118
36.524 12610 112.294
36.6403 12141 110.186
36.7565 11848 108.849
36.8727 11237 106.005
36.9889 10289 101.435
37.1049 9481 97.3704
37.221 0 1
37.3369 0 1
37.4529 0 1
37.5687 0 1
37.6845 0 1
37.8003 0 1
37.916 0 1
38.0316 0 1
38.1472 0 1
40.5851 0 1
40.7008 0 1
40.8164 0 1
40.9322 0 1
41.048 0 1
41.1639 0 1
41.2798 0 1
41.3958 0 1
41.5118 0 1
41.6279 0 1
41.744 5602 74.8465
41.8602 6374 79.8373
41.9765 7212 84.9235
42.0928 7924 89.0169
42.2091 9038 95.0684
42.3255 9829 99.1413
42.4419 10602 102.966
42.5584 11244 106.038
42.675 12077 109.895
42.7915 12188 110.399
42.9081 12437 111.521
43.0248 12817 113.212
43.1415 12858 113.393
43.2582 12762 112.969
43.375 12769 113
43.4918 13283 115.252
43.6087 13205 114.913
43.7256 12919 113.662
43.8425 12724 112.801
43.9595 12248 110.671
44.0765 11896 109.069
44.1935 11785 108.559
44.3106 12168 110.309
44.4277 12257 110.711
44.5448 12535 111.96
44.6619 12631 112.388
44.7791 12910 113.622
44.8963 13027 114.136
45.0136 13102 114.464
45.1308 13213 114.948
45.2481 13194 114.865
45.3654 13204 114.909
45.4827 13197 114.878
45.6001 13033 114.162
45.7174 13241 115.07
45.8348 13138 114.621
45.9522 13367 115.616
46.0697 13435 115.909
46.1871 13641 116.795
46.3046 13728 117.167
46.422 13878 117.805
46.5395 14128 118.861
46.657 14087 118.689
46.7745 14226 119.273
46.892 14166 119.021
47.0096 14648 121.029
47.1271 14531 120.545
47.2446 14639 120.992
47.3622 14431 120.129
47.4797 13708 117.081
47.5973 13391 115.719
47.7149 12936 113.737
47.8324 13075 114.346
47.95 13162 114.726
48.0675 13419 115.84
48.1851 13737 117.205
48.3027 14045 118.512
48.4202 14194 119.139
48.5378 14081 118.663
48.6554 14100 118.743
48.7729 14106 118.769
48.8904 14008 118.355
49.008 13751 117.265
49.1255 13917 117.97
49.243 14087 118.689
49.3605 13905 117.919
49.478 13989 118.275
49.5955 13883 117.826
49.713 14213 119.218
49.8304 14425 120.104
49.9479 14614 120.888
50.0653 14964 122.327
50.1827 15036 122.621
50.3001 15030 122.597
50.4175 15151 123.089
50.5348 15156 123.11
50.6521 15148 123.077
50.7694 15326 123.798
50.8867 14763 121.503
51.004 14444 120.183
51.1212 13946 118.093
51.2384 13700 117.047
51.3556 13716 117.115
51.4727 13991 118.284
51.5899 14373 119.887
51.707 14665 121.099
51.824 14755 121.47
51.9411 15052 122.687
52.0581 14947 122.258
52.175 14685 121.182
52.2919 14519 120.495
52.4088 14596 120.814
52.5257 14492 120.383
52.6425 14383 119.929
52.7593 14051 118.537
52.876 14350 119.791
52.9927 14100 118.743
53.1094 14266 119.44
53.226 14330 119.708
53.3426 14605 120.851
53.4591 14448 120.2
53.5756 14754 121.466
53.692 14607 120.859
53.8084 14270 119.457
53.9248 13621 116.709
54.0411 12652 112.481
54.1573 11353 106.55
54.2735 0 1
54.3896 0 1
54.5057 0 1
54.6217 0 1
54.7377 0 1
54.8537 0 1
54.9695 0 1
55.0853 0 1
55.2011 0 1
55.3168 0 1
55.4324 0 1
57.824 0 1
57.9396 0 1
58.0553 0 1
58.1711 0 1
58.2869 0 1
58.4028 0 1
58.5187 0 1
58.6347 0 1
58.7508 0 1
58.8669 0 1
58.983 9553 97.7394
59.0992 11166 105.669
59.2155 12671 112.566
59.3318 14205 119.185
59.4482 15530 124.619
59.5646 16545 128.627
59.681 17206 131.172
59.7975 17339 131.678
59.9141 17764 133.282
60.0306 17820 133.492
60.1473 18227 135.007
60.2639 18831 137.226
60.3807 19301 138.928
60.4974 19943 141.22
60.6142 20285 142.425
60.731 20274 142.387
60.8479 20075 141.686
60.9648 20145 141.933
61.0818 20040 141.563
61.1987 19990 141.386
61.3158 20297 142.468
61.4328 20067 141.658
61.5499 19666 140.236
61.667 20052 141.605
61.7841 20089 141.736
61.9013 20340 142.618
62.0185 20384 142.773
62.1357 20791 144.191
62.253 21542 146.772
62.3702 21764 147.526
62.4875 22266 149.218
62.6049 22269 149.228
62.7222 22543 150.143
62.8396 22797 150.987
62.9569 22967 151.549
63.0743 22281 149.268
63.1918 21460 146.492
63.3092 20803 144.232
63.4267 20341 142.622
63.5441 19637 140.132
63.6616 20499 143.175
63.7791 20518 143.241
63.8966 21098 145.252
64.0142 21234 145.719
64.1317 21196 145.588
64.2492 21214 145.65
64.3668 21091 145.227
64.4843 20974 144.824
64.6019 20902 144.575
64.7195 20835 144.343
64.837 20640 143.666
64.9546 20644 143.68
65.0722 20625 143.614
65.1898 20741 144.017
65.3074 20776 144.139
65.4249 20999 144.91
65.5425 20896 144.554
65.6601 21397 146.277
65.7777 21990 148.29
65.8952 22473 149.91
66.0128 22844 151.142
66.1304 23176 152.237
66.2479 23226 152.401
66.3655 23384 152.918
66.483 23643 153.763
66.6005 23473 153.209
66.718 22856 151.182
66.8355 21830 147.75
66.953 21210 145.637
67.0705 20636 143.652
67.1879 20498 143.171
67.3054 20857 144.42
67.4228 21078 145.183
67.5402 21114 145.307
67.6576 21449 146.455
67.7749 21434 146.404
67.8923 21139 145.393
68.0096 21402 146.294
68.1269 21836 147.77
68.2442 22279 149.262
68.3614 21981 148.26
68.4787 21835 147.767
68.5958 21563 146.843
68.713 21278 145.87
68.8302 21601 146.973
68.9473 21454 146.472
69.0643 21944 148.135
69.1814 21866 147.872
69.2984 22205 149.013
69.4154 22402 149.673
69.5323 22404 149.68
69.6492 22877 151.251
69.7661 23341 152.778
69.8829 23234 152.427
69.9997 23745 154.094
70.1165 23534 153.408
70.2332 23231 152.417
70.3499 22587 150.29
70.4665 21070 145.155
70.5831 19725 140.446
70.6996 18070 134.425
70.8161 16711 129.271
70.9326 15621 124.984
71.049 13898 117.89
71.1653 12573 112.129
71.2817 11309 106.344
71.3979 10680 103.344
71.5141 10119 100.593
71.6303 9287 96.3691
71.7464 8251 90.835
71.8624 0 1
71.9784 0 1
72.0944 0 1
72.2102 0 1
72.3261 0 1
72.4418 0 1
72.5575 0 1
72.6732 0 1
75.1054 0 1
75.2209 0 1
75.3365 0 1
75.4521 0 1
75.5678 0 1
75.6835 0 1
75.7993 0 1
75.9151 0 1
76.031 0 1
76.147 11258 106.104
76.263 13303 115.339
76.3791 15532 124.627
76.4952 17505 132.306
76.6113 19265 138.798
76.7276 19927 141.163
76.8438 20846 144.381
76.9601 21412 146.328
77.0765 21531 146.734
77.1929 21956 148.176
77.3093 22368 149.559
77.4258 22588 150.293
77.5423 22715 150.715
77.6589 22926 151.413
77.7755 22887 151.285
77.8921 22656 150.519
78.0088 23065 151.872
78.1256 23229 152.411
78.2423 23241 152.45
78.3591 23670 153.851
78.4759 24273 155.798
78.5928 24466 156.416
78.7097 24947 157.946
78.8266 25270 158.965
78.9436 25860 160.81
79.0606 25436 159.487
79.1776 25141 158.559
79.2946 25561 159.878
79.4117 25379 159.308
79.5288 24141 155.374
79.6459 22981 151.595
79.7631 22304 149.345
79.8802 22472 149.907
79.9974 22893 151.304
80.1147 23294 152.624
80.2319 23847 154.425
80.3491 24305 155.901
80.4664 24585 156.796
80.5837 25040 158.24
80.701 25085 158.382
80.8183 25452 159.537
80.9357 25686 160.269
81.053 25821 160.689
81.1704 26347 162.318
81.2877 26226 161.944
81.4051 26085 161.509
81.5225 25830 160.717
81.6399 26421 162.545
81.7573 25839 160.745
81.8747 26907 164.034
81.9922 26536 162.899
82.1096 27438 165.644
82.227 27905 167.048
82.3444 28504 168.831
82.4619 29411 171.496
82.5793 29594 172.029
82.6967 28536 168.926
82.8142 29036 170.4
82.9316 28965 170.191
83.049 28487 168.781
83.1664 26991 164.289
83.2838 25692 160.287
83.4012 24493 156.502
83.5186 24586 156.799
83.636 25363 159.258
83.7534 25569 159.903
83.8708 26428 162.567
83.9881 26966 164.213
84.1055 27615 166.178
84.2228 28104 167.642
84.3401 28553 168.976
84.4575 28634 169.216
84.5747 29312 171.207
84.692 29535 171.857
84.8093 30067 173.398
84.9265 29606 172.064
85.0437 29429 171.549
85.1609 29544 171.884
85.2781 29340 171.289
85.3952 29265 171.07
85.5123 29778 172.563
85.6294 30129 173.577
85.7465 30634 175.026
85.8636 31113 176.389
85.9806 31368 177.11
86.0976 31810 178.354
86.2145 31758 178.208
86.3315 31781 178.272
86.4484 31759 178.211
86.5652 31761 178.216
86.682 31291 176.893
86.7988 29815 172.67
86.9156 28466 168.719
87.0323 27803 166.742
87.149 28153 167.789
87.2657 28314 168.268
87.3823 29352 171.324
87.4988 29567 171.951
87.6154 29909 172.942
87.7318 30547 174.777
87.8483 30670 175.129
87.9647 29753 172.491
88.081 28337 168.336
88.1973 26026 161.326
88.3136 23466 153.186
88.4298 20909 144.599
88.546 17961 134.019
88.6621 16128 126.996
88.7781 14406 120.025
88.8942 0 1
89.0101 0 1
89.126 0 1
89.2419 0 1
89.3577 0 1
89.4734 0 1
89.5891 0 1
89.7047 0 1
89.8203 0 1
89.9358 0 1
92.3269 0 1
92.4424 0 1
92.558 0 1
92.6736 0 1
92.7893 0 1
92.905 0 1
93.0208 0 1
93.1366 0 1
93.2525 0 1
93.3685 0 1
93.4845 0 1
93.6005 19628 140.1
93.7167 23132 152.092
93.8328 26902 164.018
93.949 30241 173.899
94.0653 31967 178.793
94.1816 33541 183.142
94.2979 34539 185.847
94.4143 34923 186.877
94.5307 35137 187.449
94.6472 35255 187.763
94.7637 35767 189.122
94.8803 35756 189.093
94.9969 36194 190.247
95.1135 36728 191.646
95.2302 36394 190.772
95.3469 36614 191.348
95.4637 37056 192.499
95.5805 36605 191.324
95.6973 36970 192.276
95.8142 36639 191.413
95.9311 35328 187.957
96.048 33979 184.334
96.1649 33036 181.758
96.2819 32036 178.986
96.3989 31623 177.829
96.516 31680 177.989
96.633 32047 179.017
96.7501 32649 180.69
96.8673 33733 183.665
96.9844 35104 187.361
97.1016 35609 188.703
97.2188 35937 189.571
97.336 36777 191.773
97.4532 37155 192.756
97.5704 37872 194.607
97.6877 37641 194.013
97.805 37494 193.634
97.9223 37254 193.013
98.0396 37107 192.632
98.1569 37204 192.883
98.2743 37505 193.662
98.3916 37458 193.541
98.509 37894 194.664
98.6264 38848 197.099
98.7438 38702 196.728
98.8612 38077 195.133
98.9786 38721 196.777
99.096 38376 195.898
99.2134 38621 196.522
99.3308 39769 199.422
99.4482 40388 200.968
99.5656 39612 199.028
99.6831 38679 196.67
99.8005 37720 194.216
99.9179 36215 190.302
100.035 35511 188.444
100.153 35261 187.779
100.27 35637 188.778
100.388 36633 191.397
100.505 37430 193.468
100.622 38007 194.954
100.74 38407 195.977
100.857 38956 197.373
100.975 38710 196.749
101.092 39709 199.271
101.209 40022 200.055
101.327 40195 200.487
101.444 39729 199.321
101.561 39361 198.396
101.679 39690 199.223
101.796 39805 199.512
101.913 39716 199.289
102.03 40474 201.182
102.148 40923 202.294
102.265 39939 199.847
102.382 41181 202.931
102.499 40519 201.293
102.616 40687 201.71
102.733 40708 201.762
102.851 41766 204.367
102.968 42090 205.158
103.085 42029 205.01
103.202 40826 202.054
103.319 39924 199.81
103.436 38106 195.208
103.552 36707 191.591
103.669 36477 190.99
103.786 36730 191.651
103.903 37464 193.556
104.02 38561 196.37
104.137 39784 199.459
104.253 39797 199.492
104.37 41313 203.256
104.487 41104 202.741
104.603 40914 202.272
104.72 41476 203.657
104.836 40799 201.988
104.953 40343 200.856
105.069 39989 199.972
105.186 39411 198.522
105.302 38832 197.058
105.418 36982 192.307
105.535 34193 184.913
105.651 31400 177.2
105.767 28261 168.11
105.883 24643 156.981
105.999 21274 145.856
106.115 0 1
106.231 0 1
106.347 0 1
106.463 0 1
106.579 0 1
106.694 0 1
106.81 0 1
106.926 0 1
107.041 0 1
107.157 0 1
109.576 0 1
109.692 0 1
109.807 0 1
109.923 0 1
110.039 0 1
110.155 0 1
110.27 0 1
110.386 0 1
110.502 0 1
110.618 17595 132.646
110.735 21140 145.396
110.851 23526 153.382
110.967 25760 160.499
111.083 27550 165.982
111.199 29969 173.116
111.316 32162 179.338
111.432 34349 185.335
111.549 35206 187.633
111.665 35192 187.595
111.782 34553 185.884
111.898 33078 181.874
112.015 32017 178.933
112.132 30629 175.011
112.248 30447 174.491
112.365 30627 175.006
112.482 31192 176.613
112.599 33312 182.516
112.716 33822 183.908
112.832 34038 184.494
112.949 33902 184.125
113.066 34040 184.499
113.183 33709 183.6
113.3 34218 184.981
113.417 34414 185.51
113.534 33591 183.278
113.652 33815 183.889
113.769 33908 184.141
113.886 33788 183.815
114.003 33701 183.578
114.12 34162 184.83
114.238 34141 184.773
114.355 33942 184.234
114.472 31790 178.298
114.589 34501 185.744
114.707 33339 182.59
114.824 34192 184.911
114.942 34510 185.769
115.059 35876 189.41
115.176 35902 189.478
115.294 34556 185.892
115.411 33322 182.543
115.529 31746 178.174
115.646 30459 174.525
115.764 29222 170.944
115.881 29545 171.887
115.999 29734 172.435
116.116 30628 175.009
116.234 31515 177.525
116.351 32157 179.324
116.469 32241 179.558
116.586 31580 177.708
116.704 32118 179.215
116.821 32078 179.103
116.939 32227 179.519
117.056 31928 178.684
117.174 31586 177.725
117.291 31833 178.418
117.409 31687 178.008
117.526 31969 178.799
117.644 31917 178.653
117.761 32079 179.106
117.879 31880 178.55
117.996 31261 176.808
118.114 31191 176.61
118.231 31625 177.834
118.349 31659 177.93
118.466 32504 180.289
118.584 32753 180.978
118.701 32972 181.582
118.819 32553 180.424
118.936 31700 178.045
119.053 30355 174.227
119.171 29071 170.502
119.288 27680 166.373
119.405 26667 163.3
119.523 27000 164.317
119.64 27748 166.577
119.757 28387 168.484
119.875 28988 170.259
119.992 29278 171.108
120.109 29293 171.152
120.226 28773 169.626
120.343 29086 170.546
120.46 29286 171.132
120.578 29264 171.067
120.695 28943 170.126
120.812 28816 169.753
120.929 28581 169.059
121.046 29006 170.311
121.163 29021 170.356
121.279 28921 170.062
121.396 28736 169.517
121.513 28615 169.16
121.63 28001 167.335
121.747 27194 164.906
121.863 26923 164.082
121.98 26625 163.172
122.097 26393 162.459
122.213 26190 161.833
122.33 25031 158.212
122.446 24100 155.242
122.563 22402 149.673
122.679 20299 142.475
122.795 17949 133.974
122.912 15805 125.718
123.028 13922 117.992
123.144 12979 113.925
123.26 12336 111.068
123.377 0 1
123.493 0 1
123.609 0 1
123.725 0 1
123.84 0 1
123.956 0 1
124.072 0 1
124.188 0 1
124.303 0 1
124.419 0 1
126.852 0 1
126.968 0 1
127.083 0 1
127.199 0 1
127.315 0 1
127.431 0 1
127.547 0 1
127.663 0 1
127.779 0 1
127.895 0 1
128.011 0 1
128.127 0 1
128.243 0 1
128.359 26407 162.502
128.476 26882 163.957
128.592 26955 164.18
128.708 27337 165.339
128.825 28383 168.473
128.941 29359 171.345
129.058 29770 172.54
129.174 30043 173.329
129.291 29976 173.136
129.408 30115 173.537
129.524 30288 174.034
129.641 30340 174.184
129.758 30013 173.243
129.875 30089 173.462
129.992 30492 174.62
130.108 30461 174.531
130.225 30559 174.811
130.342 30673 175.137
130.459 29724 172.406
130.576 29727 172.415
130.693 29026 170.37
130.81 28911 170.032
130.928 28744 169.541
131.045 29058 170.464
131.162 30137 173.6
131.279 30723 175.28
131.396 31135 176.451
131.513 30826 175.573
131.631 30068 173.401
131.748 28831 169.797
131.865 27883 166.982
131.983 26653 163.257
132.1 26783 163.655
132.217 27170 164.833
132.335 27874 166.955
132.452 28036 167.44
132.57 28570 169.027
132.687 29708 172.36
132.804 28977 170.226
132.922 28915 170.044
133.039 29107 170.608
133.157 29370 171.377
133.274 29133 170.684
133.392 29232 170.974
133.509 29477 171.689
133.627 29669 172.247
133.744 29984 173.159
133.862 29332 171.266
133.979 29244 171.009
134.097 28653 169.272
134.214 28462 168.707
134.332 27609 166.16
134.449 27788 166.697
134.567 27807 166.754
134.684 28983 170.244
134.802 29666 172.238
134.919 29850 172.772
135.037 29975 173.133
135.154 29349 171.315
135.272 28111 167.663
135.389 27503 165.84
135.507 26760 163.585
135.624 26173 161.781
135.742 26365 162.373
135.859 26898 164.006
135.977 27224 164.997
136.094 27862 166.919
136.211 28268 168.131
136.329 28694 169.393
136.446 28422 168.588
136.564 28076 167.559
136.681 28619 169.172
136.798 28654 169.275
136.915 28876 169.929
137.033 28833 169.803
137.15 28662 169.299
137.267 28592 169.092
137.384 28369 168.431
137.502 28062 167.517
137.619 27411 165.563
137.736 27326 165.306
137.853 25859 160.807
137.97 26031 161.341
138.087 25738 160.431
138.204 26357 162.348
138.321 27400 165.529
138.438 27740 166.553
138.555 28269 168.134
138.672 27913 167.072
138.788 27236 165.033
138.905 25993 161.223
139.022 24414 156.25
139.139 23121 152.056
139.255 22195 148.98
139.372 21482 146.567
139.488 20993 144.89
139.605 20135 141.898
139.721 19651 140.182
139.838 18680 136.675
139.954 17564 132.529
140.071 16387 128.012
140.187 15022 122.564
140.303 13921 117.987
140.419 13347 115.529
140.535 12481 111.718
140.652 11864 108.922
140.768 0 1
140.884 0 1
141 0 1
141.115 0 1
141.231 0 1
141.347 0 1
141.463 0 1
141.578 0 1
141.694 0 1
144.104 0 1
144.219 0 1
144.335 0 1
144.45 0 1
144.566 0 1
144.682 0 1
144.798 0 1
144.914 0 1
145.03 0 1
145.146 19096 138.188
145.262 20335 142.601
145.378 20613 143.572
145.494 20987 144.869
145.61 21089 145.221
145.726 21199 145.599
145.842 21242 145.746
145.959 21346 146.103
146.075 21240 145.739
146.192 20609 143.558
146.308 20657 143.725
146.425 20476 143.094
146.541 19844 140.869
146.658 19593 139.975
146.774 19430 139.392
146.891 19388 139.241
147.008 20524 143.262
147.125 20703 143.885
147.241 21335 146.065
147.358 21489 146.591
147.475 21278 145.87
147.592 21256 145.794
147.709 20573 143.433
147.826 20029 141.524
147.943 19332 139.04
148.06 19323 139.007
148.177 19277 138.842
148.294 19730 140.464
148.411 19791 140.68
148.528 20238 142.26
148.645 20618 143.59
148.762 20750 144.049
148.88 20818 144.284
148.997 21272 145.849
149.114 20384 142.773
149.231 20840 144.361
149.349 20543 143.328
149.466 20430 142.934
149.583 20613 143.572
149.701 20183 142.067
149.818 19945 141.227
149.935 19769 140.602
150.053 19590 139.964
150.17 19342 139.076
150.287 19192 138.535
150.405 19323 139.007
150.522 19343 139.079
150.64 19927 141.163
150.757 20525 143.265
150.875 20365 142.706
150.992 20666 143.757
151.11 21067 145.145
151.227 20652 143.708
151.344 20330 142.583
151.462 19380 139.212
151.579 19031 137.953
151.697 18996 137.826
151.814 19050 138.022
151.932 19291 138.892
152.049 19358 139.133
152.167 19335 139.05
152.284 19966 141.301
152.402 20021 141.496
152.519 20148 141.944
152.636 20024 141.506
152.754 19897 141.057
152.871 19804 140.727
152.989 20013 141.467
153.106 19984 141.365
153.223 19909 141.099
153.341 19092 138.174
153.458 18962 137.703
153.575 18819 137.182
153.693 18337 135.414
153.81 18165 134.778
153.927 18409 135.68
154.044 18272 135.174
154.162 18627 136.481
154.279 19171 138.459
154.396 19678 140.278
154.513 19967 141.305
154.63 20193 142.102
154.747 19922 141.145
154.864 19859 140.922
154.981 18823 137.197
155.098 18316 135.337
155.215 18088 134.492
155.332 18204 134.922
155.449 17903 133.802
155.566 17665 132.91
155.683 17754 133.244
155.8 17720 133.116
155.917 17739 133.188
156.033 17629 132.774
156.15 0 1
156.267 0 1
156.383 0 1
156.5 0 1
156.617 0 1
156.733 0 1
156.85 0 1
156.966 0 1
157.082 0 1
157.199 0 1
157.315 0 1
157.431 0 1
157.547 0 1
157.664 0 1
157.78 0 1
157.896 0 1
158.012 0 1
158.128 0 1
158.244 0 1
158.359 0 1
158.475 0 1
158.591 0 1
158.706 0 1
