
6.15755 0 1
6.2731 0 1
6.3887 0 1
6.50437 0 1
6.62009 0 1
6.73587 0 1
6.8517 0 1
6.96759 0 1
7.08353 0 1
7.19952 0 1
7.31557 0 1
7.43166 0 1
7.54781 0 1
7.664 0 1
7.78024 0 1
7.89653 0 1
8.01286 0 1
8.12924 0 1
8.24567 0 1
8.36213 0 1
8.47864 0 1
8.59519 0 1
8.71178 0 1
8.82841 0 1
8.94508 0 1
9.06179 0 1
9.17853 0 1
9.29531 0 1
9.41212 0 1
9.52897 0 1
9.64584 0 1
9.76276 0 1
9.8797 0 1
9.99667 0 1
10.1137 0 1
10.2307 0 1
10.3478 0 1
10.4648 0 1
10.5819 0 1
10.6991 0 1
10.8162 0 1
10.9334 0 1
11.0506 0 1
11.1678 0 1
11.285 0 1
11.4023 0 1
11.5196 0 1
11.6369 0 1
11.7542 0 1
11.8715 0 1
11.9888 0 1
12.1062 0 1
12.2235 0 1
12.3409 0 1
12.4582 0 1
12.5756 0 1
12.693 0 1
12.8104 0 1
12.9278 0 1
13.0452 0 1
13.1626 0 1
13.28 0 1
13.3974 0 1
13.5149 0 1
13.6323 0 1
13.7497 0 1
13.8671 0 1
13.9845 0 1
14.1019 0 1
14.2193 0 1
14.3367 0 1
14.4541 0 1
14.5714 0 1
14.6888 0 1
14.8062 0 1
14.9235 0 1
15.0408 0 0
15.1581 0 0
15.2755 0 0
15.3927 0 0
15.51 0 0
15.6273 0 0
15.7445 0 0
15.8617 0 0
15.9789 0 0
16.0961 0 0
16.2132 0 0
16.3304 0 0
16.4475 0 0
16.5646 0 0
16.6816 0 0
16.7986 0 0
16.9156 0 0
17.0326 0 0
17.1496 0 0
17.2665 0 0
17.3833 0 0
17.5002 0 0
17.617 0 0
17.7338 0 0
17.8505 0 0
17.9672 0 0
18.0839 0 0
18.2005 0 0
18.3171 0 0
18.4337 0 0
18.5502 0 0
18.6666 0 0
18.7831 0 0
18.8994 0 0
19.0158 0 0
19.1321 0 0
19.2483 0 0
19.3645 0 0
19.4806 0 0
19.5967 0 0
19.7128 0 0
19.8288 0 0
19.9447 0 0
20.0606 0 1
20.1764 0 1
20.2922 0 1
20.4079 0 1
20.5236 0 1
20.6392 0 1
20.7548 0 1
20.8702 0 1
23.3078 0 1
23.4233 0 1
23.539 0 1
23.6547 0 1
23.7704 0 1
23.8862 0 1
24.0021 0 1
24.118 0 1
24.234 0 1
24.35 0 1
24.4661 3829 61.8789
24.5822 4237 65.0922
24.6984 4682 68.4251
24.8146 5507 74.2092
24.9309 6598 81.2281
25.0472 7807 88.3572
25.1636 8265 90.912
25.28 8471 92.038
25.3965 8192 90.5097
25.513 7944 89.1291
25.6296 7786 88.2383
25.7462 7427 86.18
25.8628 7169 84.6699
25.9795 7080 84.1427
26.0962 6893 83.0241
26.213 6766 82.2557
26.3298 6878 82.9337
26.4466 6433 80.206
26.5635 6229 78.924
26.6804 6075 77.9423
26.7973 5755 75.8617
26.9143 5595 74.7997
27.0313 5466 73.9324
27.1483 5364 73.2393
27.2653 5228 72.3049
27.3824 5092 71.3583
27.4996 4768 69.0507
27.6167 4591 67.7569
27.7339 4577 67.6535
27.8511 5027 70.9013
27.9683 5228 72.3049
28.0855 5590 74.7663
28.2028 5713 75.5844
28.3201 5845 76.4526
28.4374 5874 76.642
28.5547 5890 76.7463
28.6721 6110 78.1665
28.7894 6006 77.4984
28.9068 6035 77.6853
29.0242 6238 78.981
29.1416 6123 78.2496
29.259 6337 79.6053
29.3764 6124 78.256
29.4939 6032 77.666
29.6113 5954 77.1622
29.7288 5680 75.3658
29.8463 5689 75.4255
29.9638 5582 74.7128
30.0812 5637 75.08
30.1987 5543 74.4513
30.3162 5457 73.8715
30.4337 5589 74.7596
30.5512 5600 74.8331
30.6687 5509 74.2226
30.7862 5465 73.9256
30.9037 5052 71.0774
31.0212 4949 70.3491
31.1387 5082 71.2881
31.2562 5060 71.1337
31.3737 5399 73.4779
31.4912 5569 74.6257
31.6087 6009 77.5177
31.7262 5812 76.2365
31.8436 6075 77.9423
31.9611 5864 76.5768
32.0785 5852 76.4984
32.1959 5711 75.5712
32.3134 5788 76.0789
32.4308 5428 73.675
32.5482 5590 74.7663
32.6655 5177 71.9514
32.7829 5101 71.4213
32.9002 5009 70.7743
33.0176 4739 68.8404
33.1349 4730 68.775
33.2522 4662 68.2788
33.3694 4741 68.8549
33.4867 4756 68.9638
33.6039 4759 68.9855
33.7211 4801 69.2892
33.8383 4939 70.278
33.9554 5083 71.2952
34.0725 5060 71.1337
34.1896 5190 72.0417
34.3067 5377 73.328
34.4237 5273 72.6154
34.5407 5171 71.9097
34.6577 4963 70.4486
34.7746 5113 71.5052
34.8915 5085 71.3092
35.0084 5442 73.7699
35.1252 5652 75.1798
35.242 5660 75.233
35.3587 5320 72.9383
35.4755 5424 73.6478
35.5921 5200 72.111
35.7088 4983 70.5904
35.8254 4811 69.3614
35.9419 4732 68.7895
36.0584 4508 67.1416
36.1749 4310 65.6506
36.2913 4270 65.3452
36.4077 4004 63.2772
36.524 3791 61.5711
36.6403 3294 57.3934
36.7565 2803 52.9434
36.8727 2510 50.0999
36.9889 2457 49.5681
37.1049 2350 48.4768
37.221 0 1
37.3369 0 1
37.4529 0 1
37.5687 0 1
37.6845 0 1
37.8003 0 1
37.916 0 1
38.0316 0 1
38.1472 0 1
40.5851 0 1
40.7008 0 1
40.8164 0 1
40.9322 0 1
41.048 0 1
41.1639 0 1
41.2798 0 1
41.3958 0 1
41.5118 0 1
41.6279 0 1
41.744 2068 45.4753
41.8602 2531 50.309
41.9765 3089 55.5788
42.0928 3438 58.6345
42.2091 3602 60.0167
42.3255 3544 59.5315
42.4419 3717 60.9672
42.5584 3753 61.2617
42.675 3975 63.0476
42.7915 4216 64.9307
42.9081 4545 67.4166
43.0248 4634 68.0735
43.1415 4747 68.8985
43.2582 4623 67.9926
43.375 4405 66.3702
43.4918 4417 66.4605
43.6087 4418 66.468
43.7256 4438 66.6183
43.8425 4497 67.0597
43.9595 4439 66.6258
44.0765 4394 66.2873
44.1935 4397 66.3099
44.3106 4267 65.3223
44.4277 4360 66.0303
44.5448 4354 65.9848
44.6619 4373 66.1287
44.7791 4466 66.8281
44.8963 4485 66.9701
45.0136 4567 67.5796
45.1308 4696 68.5274
45.2481 4860 69.7137
45.3654 5126 71.5961
45.4827 5303 72.8217
45.6001 5354 73.171
45.7174 5625 75
45.8348 6055 77.8139
45.9522 6211 78.8099
46.0697 6650 81.5475
46.1871 7043 83.9226
46.3046 7262 85.2174
46.422 7599 87.1722
46.5395 7508 86.6487
46.657 7560 86.9483
46.7745 7317 85.5395
46.892 6549 80.9259
47.0096 6332 79.5739
47.1271 6393 79.9562
47.2446 6626 81.4002
47.3622 6729 82.0305
47.4797 6769 82.2739
47.5973 6872 82.8975
47.7149 6996 83.6421
47.8324 7160 84.6168
47.95 6952 83.3787
48.0675 7159 84.6109
48.1851 7258 85.1939
48.3027 7277 85.3053
48.4202 7122 84.3919
48.5378 7129 84.4334
48.6554 6752 82.1706
48.7729 6630 81.4248
48.8904 6513 80.7032
49.008 6499 80.6164
49.1255 6504 80.6474
49.243 6683 81.7496
49.3605 6690 81.7924
49.478 6820 82.5833
49.5955 6971 83.4925
49.713 6955 83.3966
49.8304 6860 82.8251
49.9479 6732 82.0488
50.0653 6779 82.3347
50.1827 6425 80.1561
50.3001 5450 73.8241
50.4175 4550 67.4537
50.5348 4075 63.8357
50.6521 4281 65.4294
50.7694 4562 67.5426
50.8867 4814 69.383
51.004 4868 69.7711
51.1212 4703 68.5784
51.2384 4541 67.3869
51.3556 4383 66.2042
51.4727 4119 64.1794
51.5899 4131 64.2729
51.707 4003 63.2693
51.824 3992 63.1823
51.9411 3884 62.3217
52.0581 4123 64.2106
52.175 3961 62.9365
52.2919 3915 62.57
52.4088 3720 60.9918
52.5257 3723 61.0164
52.6425 3491 59.0847
52.7593 3472 58.9237
52.876 3511 59.2537
52.9927 3528 59.397
53.1094 3546 59.5483
53.226 3490 59.0762
53.3426 3357 57.9396
53.4591 3241 56.9298
53.5756 2908 53.9259
53.692 2508 50.0799
53.8084 2299 47.9479
53.9248 1947 44.1248
54.0411 1631 40.3856
54.1573 1555 39.4335
54.2735 0 1
54.3896 0 1
54.5057 0 1
54.6217 0 1
54.7377 0 1
54.8537 0 1
54.9695 0 1
55.0853 0 1
55.2011 0 1
55.3168 0 1
55.4324 0 1
57.824 0 1
57.9396 0 1
58.0553 0 1
58.1711 0 1
58.2869 0 1
58.4028 0 1
58.5187 0 1
58.6347 0 1
58.7508 0 1
58.8669 0 1
58.983 3079 55.4887
59.0992 3027 55.0182
59.2155 3011 54.8726
59.3318 3240 56.921
59.4482 3479 58.983
59.5646 3834 61.9193
59.681 4244 65.146
59.7975 4033 63.5059
59.9141 4140 64.3428
60.0306 4114 64.1405
60.1473 4327 65.7799
60.2639 4159 64.4903
60.3807 4120 64.1872
60.4974 4181 64.6607
60.6142 4172 64.591
60.731 4311 65.6582
60.8479 4477 66.9104
60.9648 4486 66.9776
61.0818 4512 67.1714
61.1987 4433 66.5808
61.3158 4232 65.0538
61.4328 4058 63.7024
61.5499 4003 63.2693
61.667 4021 63.4114
61.7841 4042 63.5767
61.9013 4162 64.5136
62.0185 4218 64.9461
62.1357 4291 65.5057
62.253 4183 64.6761
62.3702 4101 64.0391
62.4875 3830 61.887
62.6049 3611 60.0916
62.7222 3631 60.2578
62.8396 3836 61.9355
62.9569 4014 63.3561
63.0743 4188 64.7148
63.1918 4273 65.3682
63.3092 4330 65.8027
63.4267 4306 65.6201
63.5441 4191 64.7379
63.6616 4364 66.0606
63.7791 4157 64.4748
63.8966 4197 64.7843
64.0142 4115 64.1483
64.1317 4348 65.9394
64.2492 4371 66.1135
64.3668 4353 65.9773
64.4843 4310 65.6506
64.6019 4295 65.5362
64.7195 4084 63.9062
64.837 4194 64.7611
64.9546 4156 64.467
65.0722 4453 66.7308
65.1898 4626 68.0147
65.3074 5020 70.852
65.4249 5360 73.212
65.5425 6112 78.1793
65.6601 6663 81.6272
65.7777 7388 85.9535
65.8952 8034 89.6326
66.0128 8116 90.0888
66.1304 7728 87.909
66.2479 7886 88.8032
66.3655 8691 93.2255
66.483 10554 102.733
66.6005 12064 109.836
66.718 13166 114.743
66.8355 14059 118.571
66.953 14670 121.12
67.0705 15108 122.915
67.1879 15439 124.254
67.3054 15582 124.828
67.4228 15715 125.359
67.5402 15935 126.234
67.6576 16062 126.736
67.7749 16295 127.652
67.8923 16488 128.406
68.0096 16322 127.758
68.1269 16719 129.302
68.2442 16619 128.915
68.3614 16734 129.36
68.4787 16654 129.05
68.5958 17050 130.576
68.713 16974 130.284
68.8302 16886 129.946
68.9473 17248 131.332
69.0643 17512 132.333
69.1814 17702 133.049
69.2984 18032 134.283
69.4154 18070 134.425
69.5323 18380 135.573
69.6492 17319 131.602
69.7661 15134 123.02
69.8829 13511 116.237
69.9997 14081 118.663
70.1165 15990 126.452
70.2332 16523 128.542
70.3499 15333 123.826
70.4665 13364 115.603
70.5831 11944 109.289
70.6996 10886 104.336
70.8161 10541 102.669
70.9326 10001 100.005
71.049 9519 97.5654
71.1653 9193 95.8801
71.2817 8643 92.9677
71.3979 8099 89.9944
71.5141 7522 86.7295
71.6303 7197 84.8351
71.7464 6874 82.9096
71.8624 0 1
71.9784 0 1
72.0944 0 1
72.2102 0 1
72.3261 0 1
72.4418 0 1
72.5575 0 1
72.6732 0 1
75.1054 0 1
75.2209 0 1
75.3365 0 1
75.4521 0 1
75.5678 0 1
75.6835 0 1
75.7993 0 1
75.9151 0 1
76.031 0 1
76.147 19040 137.986
76.263 20641 143.67
76.3791 20356 142.674
76.4952 19741 140.503
76.6113 19118 138.268
76.7276 18378 135.565
76.8438 17951 133.981
76.9601 17015 130.442
77.0765 16573 128.736
77.1929 15651 125.104
77.3093 14993 122.446
77.4258 14769 121.528
77.5423 14152 118.962
77.6589 13679 116.957
77.7755 13514 116.25
77.8921 13122 114.551
78.0088 12846 113.34
78.1256 12777 113.035
78.2423 12816 113.208
78.3591 12554 112.045
78.4759 12290 110.86
78.5928 11946 109.298
78.7097 10281 101.395
78.8266 8247 90.813
78.9436 6644 81.5107
79.0606 7097 84.2437
79.1776 8851 94.0798
79.2946 10738 103.624
79.4117 11644 107.907
79.5288 11913 109.147
79.6459 11851 108.862
79.7631 11905 109.11
79.8802 11700 108.167
79.9974 11862 108.913
80.1147 11567 107.55
80.2319 11514 107.303
80.3491 11278 106.198
80.4664 11068 105.205
80.5837 10853 104.178
80.701 10599 102.951
80.8183 10594 102.927
80.9357 10365 101.809
81.053 10006 100.03
81.1704 9949 99.7447
81.2877 9547 97.7088
81.4051 9415 97.0309
81.5225 9371 96.8039
81.6399 9149 95.6504
81.7573 9105 95.4201
81.8747 8999 94.8631
81.9922 8969 94.7048
82.1096 9129 95.5458
82.227 9000 94.8683
82.3444 7994 89.4092
82.4619 6883 82.9638
82.5793 5862 76.5637
82.6967 5739 75.7562
82.8142 6914 83.1505
82.9316 8264 90.9065
83.049 8967 94.6942
83.1664 9200 95.9166
83.2838 9013 94.9368
83.4012 9135 95.5772
83.5186 9253 96.1925
83.636 8980 94.7629
83.7534 8922 94.4563
83.8708 8761 93.6002
83.9881 8633 92.9139
84.1055 8620 92.844
84.2228 8452 91.9348
84.3401 8418 91.7497
84.4575 8180 90.4434
84.5747 7791 88.2666
84.692 7550 86.8907
84.8093 7259 85.1998
84.9265 6846 82.7406
85.0437 6505 80.6536
85.1609 6105 78.1345
85.2781 5963 77.2205
85.3952 5819 76.2824
85.5123 5603 74.8532
85.6294 5545 74.4648
85.7465 5185 72.0069
85.8636 5012 70.7955
85.9806 4406 66.3777
86.0976 3931 62.6977
86.2145 3822 61.8223
86.3315 4167 64.5523
86.4484 5198 72.0972
86.5652 5669 75.2928
86.682 5902 76.8245
86.7988 5984 77.3563
86.9156 5979 77.324
87.0323 6054 77.8075
87.149 6201 78.7464
87.2657 6293 79.3284
87.3823 6210 78.8036
87.4988 6012 77.5371
87.6154 5788 76.0789
87.7318 5538 74.4177
87.8483 4966 70.4699
87.9647 4941 70.2922
88.081 4660 68.2642
88.1973 4600 67.8233
88.3136 4702 68.5711
88.4298 4682 68.4251
88.546 4714 68.6586
88.6621 4627 68.0221
88.7781 4673 68.3593
88.8942 0 1
89.0101 0 1
89.126 0 1
89.2419 0 1
89.3577 0 1
89.4734 0 1
89.5891 0 1
89.7047 0 1
89.8203 0 1
89.9358 0 1
92.3269 0 1
92.4424 0 1
92.558 0 1
92.6736 0 1
92.7893 0 1
92.905 0 1
93.0208 0 1
93.1366 0 1
93.2525 0 1
93.3685 0 1
93.4845 0 1
93.6005 10084 100.419
93.7167 10597 102.942
93.8328 10844 104.135
93.949 11190 105.783
94.0653 11349 106.532
94.1816 11733 108.319
94.2979 11947 109.302
94.4143 12213 110.512
94.5307 12600 112.25
94.6472 12509 111.844
94.7637 12172 110.327
94.8803 11489 107.187
94.9969 10619 103.049
95.1135 9613 98.0459
95.2302 10032 100.16
95.3469 11188 105.773
95.4637 12304 110.923
95.5805 12680 112.606
95.6973 13299 115.321
95.8142 13472 116.069
95.9311 13283 115.252
96.048 13319 115.408
96.1649 12976 113.912
96.2819 12652 112.481
96.3989 12268 110.761
96.516 11861 108.908
96.633 12216 110.526
96.7501 12217 110.531
96.8673 12379 111.261
96.9844 12409 111.396
97.1016 12514 111.866
97.2188 12609 112.29
97.336 13150 114.673
97.4532 13804 117.49
97.5704 14294 119.558
97.6877 14693 121.215
97.805 15314 123.75
97.9223 16093 126.858
98.0396 16064 126.744
98.1569 16256 127.499
98.2743 15628 125.012
98.3916 14761 121.495
98.509 13131 114.591
98.6264 11962 109.371
98.7438 12106 110.027
98.8612 13778 117.38
98.9786 15470 124.378
99.096 16217 127.346
99.2134 16322 127.758
99.3308 16505 128.472
99.4482 16702 129.236
99.5656 16680 129.151
99.6831 16520 128.53
99.8005 16255 127.495
99.9179 15805 125.718
100.035 15192 123.256
100.153 15042 122.646
100.27 15284 123.628
100.388 15294 123.669
100.505 15444 124.274
100.622 15448 124.29
100.74 15427 124.205
100.857 15403 124.109
100.975 16119 126.961
101.092 16743 129.395
101.209 17013 130.434
101.327 17092 130.736
101.444 17243 131.313
101.561 17397 131.898
101.679 17467 132.163
101.796 17332 131.651
101.913 16948 130.184
102.03 16111 126.929
102.148 13898 117.89
102.265 12253 110.693
102.382 13853 117.699
102.499 15167 123.154
102.616 16894 129.977
102.733 17640 132.816
102.851 17583 132.601
102.968 17695 133.023
103.085 17979 134.086
103.202 17777 133.33
103.319 18138 134.677
103.436 18112 134.581
103.552 18243 135.067
103.669 18279 135.2
103.786 18028 134.268
103.903 18374 135.551
104.02 18317 135.34
104.137 18355 135.481
104.253 18663 136.613
104.37 17647 132.842
104.487 17632 132.786
104.603 17186 131.095
104.72 16676 129.136
104.836 15483 124.431
104.953 14017 118.393
105.069 12798 113.128
105.186 11468 107.089
105.302 11042 105.081
105.418 10380 101.882
105.535 9832 99.1564
105.651 8932 94.5093
105.767 7912 88.9494
105.883 6704 81.878
105.999 6238 78.981
106.115 0 1
106.231 0 1
106.347 0 1
106.463 0 1
106.579 0 1
106.694 0 1
106.81 0 1
106.926 0 1
107.041 0 1
107.157 0 1
109.576 0 1
109.692 0 1
109.807 0 1
109.923 0 1
110.039 0 1
110.155 0 1
110.27 0 1
110.386 0 1
110.502 0 1
110.618 24392 156.179
110.735 25786 160.58
110.851 25042 158.247
110.967 24277 155.811
111.083 24206 155.583
111.199 25318 159.116
111.316 25973 161.161
111.432 27019 164.375
111.549 27841 166.856
111.665 27794 166.715
111.782 27580 166.072
111.898 26913 164.052
112.015 26573 163.012
112.132 25981 161.186
112.248 25941 161.062
112.365 26318 162.228
112.482 25880 160.873
112.599 28170 167.839
112.716 28542 168.944
112.832 29794 172.609
112.949 31630 177.848
113.066 32809 181.133
113.183 32441 180.114
113.3 32327 179.797
113.417 32642 180.671
113.534 32379 179.942
113.652 32265 179.625
113.769 31939 178.715
113.886 32253 179.591
114.003 31873 178.53
114.12 32445 180.125
114.238 32294 179.705
114.355 31293 176.898
114.472 29459 171.636
114.589 29797 172.618
114.707 29668 172.244
114.824 31866 178.511
114.942 33858 184.005
115.059 34105 184.675
115.176 34469 185.658
115.294 33976 184.326
115.411 34166 184.84
115.529 33799 183.845
115.646 32838 181.213
115.764 32077 179.101
115.881 31226 176.709
115.999 31108 176.375
116.116 31016 176.114
116.234 32358 179.883
116.351 33991 184.366
116.469 34722 186.338
116.586 36175 190.197
116.704 37118 192.66
116.821 37275 193.067
116.939 36237 190.36
117.056 35073 187.278
117.174 33601 183.306
117.291 32606 180.571
117.409 33102 181.94
117.526 33335 182.579
117.644 33961 184.285
117.761 34237 185.032
117.879 33547 183.158
117.996 31599 177.761
118.114 30034 173.303
118.231 29968 173.113
118.349 30830 175.585
118.466 31797 178.317
118.584 32641 180.668
118.701 32210 179.471
118.819 31597 177.755
118.936 30452 174.505
119.053 29538 171.866
119.171 28501 168.822
119.288 27598 166.126
119.405 26603 163.104
119.523 26297 162.163
119.64 26183 161.812
119.757 27183 164.873
119.875 28154 167.792
119.992 29694 172.319
120.109 30691 175.188
120.226 31814 178.365
120.343 31437 177.305
120.46 30655 175.086
120.578 29215 170.924
120.695 27763 166.622
120.812 26772 163.622
120.929 25863 160.82
121.046 25347 159.207
121.163 25473 159.603
121.279 25450 159.531
121.396 25640 160.125
121.513 25451 159.534
121.63 23852 154.441
121.747 22077 148.583
121.863 19619 140.068
121.98 18145 134.703
122.097 17482 132.22
122.213 17609 132.699
122.33 17147 130.947
122.446 16394 128.039
122.563 15578 124.812
122.679 14859 121.897
122.795 14180 119.08
122.912 13093 114.425
123.028 12206 110.481
123.144 11420 106.864
123.26 10763 103.745
123.377 0 1
123.493 0 1
123.609 0 1
123.725 0 1
123.84 0 1
123.956 0 1
124.072 0 1
124.188 0 1
124.303 0 1
124.419 0 1
126.852 0 1
126.968 0 1
127.083 0 1
127.199 0 1
127.315 0 1
127.431 0 1
127.547 0 1
127.663 0 1
127.779 0 1
127.895 0 1
128.011 0 1
128.127 0 1
128.243 0 1
128.359 16890 129.962
128.476 16677 129.139
128.592 16468 128.328
128.708 16745 129.402
128.825 16903 130.012
128.941 16959 130.227
129.058 17406 131.932
129.174 18273 135.178
129.291 19206 138.586
129.408 20014 141.471
129.524 21904 148
129.641 22955 151.509
129.758 23524 153.375
129.875 24384 156.154
129.992 24341 156.016
130.108 24587 156.802
130.225 24146 155.39
130.342 23723 154.023
130.459 22236 149.117
130.576 22107 148.684
130.693 20467 143.063
130.81 19361 139.144
130.928 19026 137.935
131.045 19792 140.684
131.162 19982 141.358
131.279 20757 144.073
131.396 20753 144.059
131.513 20769 144.115
131.631 20919 144.634
131.748 20614 143.576
131.865 20792 144.194
131.983 20610 143.562
132.1 20682 143.812
132.217 20798 144.215
132.335 21116 145.313
132.452 21119 145.324
132.57 21089 145.221
132.687 20348 142.646
132.804 21775 147.564
132.922 20890 144.534
133.039 20819 144.288
133.157 20886 144.52
133.274 21076 145.176
133.392 21330 146.048
133.509 21393 146.263
133.627 22099 148.657
133.744 22394 149.646
133.862 22307 149.355
133.979 22697 150.655
134.097 22352 149.506
134.214 22090 148.627
134.332 21393 146.263
134.449 21817 147.706
134.567 22208 149.023
134.684 23037 151.779
134.802 23727 154.036
134.919 24159 155.432
135.037 24256 155.743
135.154 23859 154.464
135.272 23187 152.273
135.389 23321 152.712
135.507 22777 150.921
135.624 22552 150.173
135.742 22140 148.795
135.859 22059 148.523
135.977 21301 145.949
136.094 21199 145.599
136.211 20931 144.675
136.329 20776 144.139
136.446 20784 144.167
136.564 20583 143.468
136.681 21071 145.159
136.798 20996 144.9
136.915 20975 144.827
137.033 20926 144.658
137.15 21131 145.365
137.267 21179 145.53
137.384 21075 145.172
137.502 20666 143.757
137.619 20251 142.306
137.736 19582 139.936
137.853 18785 137.058
137.97 18400 135.647
138.087 17189 131.107
138.204 17785 133.36
138.321 18448 135.823
138.438 18957 137.684
138.555 19222 138.643
138.672 19076 138.116
138.788 19156 138.405
138.905 19042 137.993
139.022 18504 136.029
139.139 17878 133.709
139.255 17282 131.461
139.372 16292 127.64
139.488 15438 124.25
139.605 14868 121.934
139.721 14188 119.113
139.838 13937 118.055
139.954 13094 114.429
140.071 12685 112.628
140.187 12913 113.635
140.303 12764 112.978
140.419 13267 115.182
140.535 14051 118.537
140.652 14009 118.36
140.768 0 1
140.884 0 1
141 0 1
141.115 0 1
141.231 0 1
141.347 0 1
141.463 0 1
141.578 0 1
141.694 0 1
144.104 0 1
144.219 0 1
144.335 0 1
144.45 0 1
144.566 0 1
144.682 0 1
144.798 0 1
144.914 0 1
145.03 0 1
145.146 23695 153.932
145.262 24346 156.032
145.378 24579 156.777
145.494 24946 157.943
145.61 24749 157.318
145.726 25261 158.937
145.842 25787 160.583
145.959 25749 160.465
146.075 25904 160.947
146.192 25825 160.702
146.308 25123 158.502
146.425 24759 157.35
146.541 23717 154.003
146.658 21258 145.801
146.774 19546 139.807
146.891 18916 137.535
147.008 19794 140.691
147.125 22785 150.947
147.241 24365 156.093
147.358 25295 159.044
147.475 26096 161.543
147.592 27088 164.584
147.709 26736 163.511
147.826 27320 165.288
147.943 27580 166.072
148.06 27671 166.346
148.177 27996 167.32
148.294 27867 166.934
148.411 27059 164.496
148.528 27354 165.39
148.645 27161 164.806
148.762 27394 165.511
148.88 27418 165.584
148.997 26610 163.126
149.114 28875 169.926
149.231 27726 166.511
149.349 28107 167.651
149.466 27361 165.412
149.583 27856 166.901
149.701 27651 166.286
149.818 27875 166.958
149.935 27561 166.015
150.053 27455 165.696
150.17 26645 163.233
150.287 25095 158.414
150.405 22842 151.136
150.522 21279 145.873
150.64 21221 145.674
150.757 22660 150.532
150.875 24084 155.19
150.992 24502 156.531
151.11 23717 154.003
151.227 23264 152.525
151.344 22577 150.256
151.462 22330 149.432
151.579 22930 151.427
151.697 23481 153.235
151.814 24086 155.197
151.932 24582 156.786
152.049 24656 157.022
152.167 24530 156.621
152.284 24947 157.946
152.402 24866 157.69
152.519 24772 157.391
152.636 24919 157.858
152.754 24997 158.104
152.871 25127 158.515
152.989 25283 159.006
153.106 25664 160.2
153.223 25594 159.981
153.341 26092 161.53
153.458 25975 161.168
153.575 26845 163.844
153.693 26982 164.262
153.81 26541 162.914
153.927 25352 159.223
154.044 23129 152.082
154.162 21540 146.765
154.279 22235 149.114
154.396 23699 153.945
154.513 25252 158.909
154.63 25573 159.916
154.747 25316 159.11
154.864 24786 157.436
154.981 24411 156.24
155.098 23491 153.268
155.215 22673 150.576
155.332 21618 147.031
155.449 20489 143.14
155.566 19580 139.929
155.683 18672 136.646
155.8 17707 133.068
155.917 17143 130.931
156.033 16281 127.597
156.15 0 1
156.267 0 1
156.383 0 1
156.5 0 1
156.617 0 1
156.733 0 1
156.85 0 1
156.966 0 1
157.082 0 1
157.199 0 1
157.315 0 1
157.431 0 1
157.547 0 1
157.664 0 1
157.78 0 1
157.896 0 1
158.012 0 1
158.128 0 1
158.244 0 1
158.359 0 1
158.475 0 1
158.591 0 1
158.706 0 1
