
6.15755 0 1
6.2731 0 1
6.3887 0 1
6.50437 0 1
6.62009 0 1
6.73587 0 1
6.8517 0 1
6.96759 0 1
7.08353 0 1
7.19952 0 1
7.31557 0 1
7.43166 0 1
7.54781 0 1
7.664 0 1
7.78024 0 1
7.89653 0 1
8.01286 0 1
8.12924 0 1
8.24567 0 1
8.36213 0 1
8.47864 0 1
8.59519 0 1
8.71178 0 1
8.82841 0 1
8.94508 0 1
9.06179 0 1
9.17853 0 1
9.29531 0 1
9.41212 0 1
9.52897 0 1
9.64584 0 1
9.76276 0 1
9.8797 0 1
9.99667 0 1
10.1137 0 1
10.2307 0 1
10.3478 0 1
10.4648 0 1
10.5819 0 1
10.6991 0 1
10.8162 0 1
10.9334 0 1
11.0506 0 1
11.1678 0 1
11.285 0 1
11.4023 0 1
11.5196 0 1
11.6369 0 1
11.7542 0 1
11.8715 0 1
11.9888 0 1
12.1062 0 1
12.2235 0 1
12.3409 0 1
12.4582 0 1
12.5756 0 1
12.693 0 1
12.8104 0 1
12.9278 0 1
13.0452 0 1
13.1626 0 1
13.28 0 1
13.3974 0 1
13.5149 0 1
13.6323 0 1
13.7497 0 1
13.8671 0 1
13.9845 0 1
14.1019 0 1
14.2193 0 1
14.3367 0 1
14.4541 0 1
14.5714 0 1
14.6888 0 1
14.8062 0 1
14.9235 0 1
15.0408 1765 42.0119
15.1581 1792 42.332
15.2755 1859 43.1161
15.3927 1929 43.9204
15.51 2006 44.7884
15.6273 1856 43.0813
15.7445 1997 44.6878
15.8617 1960 44.2719
15.9789 1924 43.8634
16.0961 1964 44.317
16.2132 1892 43.4971
16.3304 1959 44.2606
16.4475 2046 45.2327
16.5646 2127 46.1194
16.6816 2257 47.5079
16.7986 2277 47.7179
16.9156 2305 48.0104
17.0326 2367 48.6518
17.1496 2278 47.7284
17.2665 2291 47.8644
17.3833 2298 47.9375
17.5002 2202 46.9255
17.617 2095 45.7712
17.7338 2101 45.8367
17.8505 1940 44.0454
17.9672 1990 44.6094
18.0839 1997 44.6878
18.2005 2113 45.9674
18.3171 2096 45.7821
18.4337 2163 46.5081
18.5502 2094 45.7602
18.6666 2240 47.3286
18.7831 2237 47.2969
18.8994 2190 46.7974
19.0158 2313 48.0937
19.1321 2241 47.3392
19.2483 2069 45.4863
19.3645 1999 44.7102
19.4806 1840 42.8952
19.5967 1704 41.2795
19.7128 1630 40.3733
19.8288 1554 39.4208
19.9447 1311 36.2077
20.0606 0 1
20.1764 0 1
20.2922 0 1
20.4079 0 1
20.5236 0 1
20.6392 0 1
20.7548 0 1
20.8702 0 1
23.3078 0 1
23.4233 0 1
23.539 0 1
23.6547 0 1
23.7704 0 1
23.8862 0 1
24.0021 0 1
24.118 0 1
24.234 0 1
24.35 0 1
24.4661 916 30.2655
24.5822 1170 34.2053
24.6984 1223 34.9714
24.8146 1455 38.1445
24.9309 1447 38.0395
25.0472 1647 40.5832
25.1636 1815 42.6028
25.28 1912 43.7264
25.3965 2090 45.7165
25.513 2225 47.1699
25.6296 2285 47.8017
25.7462 2378 48.7647
25.8628 2403 49.0204
25.9795 2421 49.2037
26.0962 2481 49.8096
26.213 2291 47.8644
26.3298 2247 47.4025
26.4466 2061 45.3982
26.5635 2043 45.1996
26.6804 2070 45.4973
26.7973 2156 46.4327
26.9143 2142 46.2817
27.0313 2203 46.9361
27.1483 2184 46.7333
27.2653 2337 48.3425
27.3824 2368 48.6621
27.4996 2342 48.3942
27.6167 2277 47.7179
27.7339 2286 47.8121
27.8511 2215 47.0638
27.9683 2126 46.1086
28.0855 2083 45.6399
28.2028 2010 44.833
28.3201 1953 44.1928
28.4374 1995 44.6654
28.5547 1993 44.643
28.6721 2122 46.0652
28.7894 2179 46.6798
28.9068 2220 47.1169
29.0242 2292 47.8748
29.1416 2443 49.4267
29.259 2392 48.9081
29.3764 2342 48.3942
29.4939 2343 48.4045
29.6113 2358 48.5592
29.7288 2182 46.7119
29.8463 2100 45.8258
29.9638 2043 45.1996
30.0812 1987 44.5758
30.1987 2014 44.8776
30.3162 2065 45.4423
30.4337 2035 45.111
30.5512 2160 46.4758
30.6687 2197 46.8722
30.7862 2205 46.9574
30.9037 2235 47.2758
31.0212 2284 47.7912
31.1387 2219 47.1063
31.2562 2138 46.2385
31.3737 2156 46.4327
31.4912 2117 46.0109
31.6087 2013 44.8665
31.7262 2013 44.8665
31.8436 1945 44.1022
31.9611 2011 44.8442
32.0785 1959 44.2606
32.1959 2027 45.0222
32.3134 2078 45.5851
32.4308 2157 46.4435
32.5482 2241 47.3392
32.6655 2269 47.634
32.7829 2194 46.8402
32.9002 2349 48.4665
33.0176 2253 47.4658
33.1349 2245 47.3814
33.2522 2248 47.4131
33.3694 2232 47.244
33.4867 2036 45.1221
33.6039 1879 43.3474
33.7211 1778 42.1663
33.8383 1794 42.3556
33.9554 1826 42.7317
34.0725 1994 44.6542
34.1896 2014 44.8776
34.3067 2050 45.2769
34.4237 2096 45.7821
34.5407 2124 46.0869
34.6577 2157 46.4435
34.7746 2148 46.3465
34.8915 2138 46.2385
35.0084 2061 45.3982
35.1252 2017 44.911
35.242 1992 44.6318
35.3587 1941 44.0568
35.4755 1830 42.7785
35.5921 1903 43.6234
35.7088 1772 42.0951
35.8254 1870 43.2435
35.9419 1909 43.6921
36.0584 2043 45.1996
36.1749 1968 44.3621
36.2913 1987 44.5758
36.4077 1973 44.4185
36.524 2034 45.0999
36.6403 1921 43.8292
36.7565 1815 42.6028
36.8727 1786 42.2611
36.9889 1691 41.1218
37.1049 1505 38.7943
37.221 0 1
37.3369 0 1
37.4529 0 1
37.5687 0 1
37.6845 0 1
37.8003 0 1
37.916 0 1
38.0316 0 1
38.1472 0 1
40.5851 0 1
40.7008 0 1
40.8164 0 1
40.9322 0 1
41.048 0 1
41.1639 0 1
41.2798 0 1
41.3958 0 1
41.5118 0 1
41.6279 0 1
41.744 1029 32.078
41.8602 1161 34.0735
41.9765 1220 34.9285
42.0928 1309 36.1801
42.2091 1285 35.8469
42.3255 1214 34.8425
42.4419 1199 34.6266
42.5584 1294 35.9722
42.675 1349 36.7287
42.7915 1525 39.0512
42.9081 1588 39.8497
43.0248 1679 40.9756
43.1415 1673 40.9023
43.2582 1783 42.2256
43.375 1752 41.8569
43.4918 1721 41.4849
43.6087 1690 41.1096
43.7256 1732 41.6173
43.8425 1698 41.2068
43.9595 1659 40.7308
44.0765 1522 39.0128
44.1935 1611 40.1373
44.3106 1536 39.1918
44.4277 1480 38.4708
44.5448 1515 38.923
44.6619 1571 39.6358
44.7791 1590 39.8748
44.8963 1666 40.8167
45.0136 1797 42.391
45.1308 1804 42.4735
45.2481 1792 42.332
45.3654 1794 42.3556
45.4827 1806 42.4971
45.6001 1783 42.2256
45.7174 1761 41.9643
45.8348 1609 40.1123
45.9522 1491 38.6135
46.0697 1467 38.3014
46.1871 1405 37.4833
46.3046 1497 38.6911
46.422 1515 38.923
46.5395 1596 39.95
46.657 1674 40.9145
46.7745 1675 40.9268
46.892 1779 42.1782
47.0096 1781 42.2019
47.1271 1838 42.8719
47.2446 1831 42.7902
47.3622 1770 42.0714
47.4797 1723 41.509
47.5973 1733 41.6293
47.7149 1694 41.1582
47.8324 1652 40.6448
47.95 1569 39.6106
48.0675 1543 39.281
48.1851 1542 39.2683
48.3027 1628 40.3485
48.4202 1642 40.5216
48.5378 1757 41.9166
48.6554 1800 42.4264
48.7729 1825 42.72
48.8904 1913 43.7379
49.008 1875 43.3013
49.1255 1835 42.8369
49.243 1737 41.6773
49.3605 1620 40.2492
49.478 1493 38.6394
49.5955 1417 37.6431
49.713 1416 37.6298
49.8304 1433 37.855
49.9479 1443 37.9868
50.0653 1585 39.8121
50.1827 1699 41.2189
50.3001 1774 42.1189
50.4175 1705 41.2916
50.5348 1795 42.3674
50.6521 1745 41.7732
50.7694 1817 42.6263
50.8867 1850 43.0116
51.004 1705 41.2916
51.1212 1782 42.2137
51.2384 1728 41.5692
51.3556 1732 41.6173
51.4727 1646 40.5709
51.5899 1686 41.0609
51.707 1521 39
51.824 1712 41.3763
51.9411 1814 42.5911
52.0581 1937 44.0114
52.175 2128 46.1303
52.2919 2112 45.9565
52.4088 2232 47.244
52.5257 2256 47.4974
52.6425 2230 47.2229
52.7593 2202 46.9255
52.876 2239 47.3181
52.9927 2095 45.7712
53.1094 1941 44.0568
53.226 1922 43.8406
53.3426 1821 42.6732
53.4591 1814 42.5911
53.5756 1840 42.8952
53.692 1845 42.9535
53.8084 1792 42.332
53.9248 1894 43.5201
54.0411 1796 42.3792
54.1573 1635 40.4351
54.2735 0 1
54.3896 0 1
54.5057 0 1
54.6217 0 1
54.7377 0 1
54.8537 0 1
54.9695 0 1
55.0853 0 1
55.2011 0 1
55.3168 0 1
55.4324 0 1
57.824 0 1
57.9396 0 1
58.0553 0 1
58.1711 0 1
58.2869 0 1
58.4028 0 1
58.5187 0 1
58.6347 0 1
58.7508 0 1
58.8669 0 1
58.983 1512 38.8844
59.0992 1691 41.1218
59.2155 1861 43.1393
59.3318 1959 44.2606
59.4482 2087 45.6837
59.5646 2090 45.7165
59.681 2083 45.6399
59.7975 2112 45.9565
59.9141 2074 45.5412
60.0306 2111 45.9456
60.1473 1994 44.6542
60.2639 2008 44.8107
60.3807 1808 42.5206
60.4974 1917 43.7836
60.6142 2065 45.4423
60.731 2141 46.2709
60.8479 2283 47.7807
60.9648 2300 47.9583
61.0818 2298 47.9375
61.1987 2310 48.0625
61.3158 2266 47.6025
61.4328 2242 47.3498
61.5499 2091 45.7275
61.667 1924 43.8634
61.7841 1824 42.7083
61.9013 1737 41.6773
62.0185 1752 41.8569
62.1357 1878 43.3359
62.253 2008 44.8107
62.3702 2028 45.0333
62.4875 2154 46.4112
62.6049 2205 46.9574
62.7222 2137 46.2277
62.8396 2213 47.0425
62.9569 2231 47.2335
63.0743 2278 47.7284
63.1918 2272 47.6655
63.3092 2156 46.4327
63.4267 2111 45.9456
63.5441 2003 44.7549
63.6616 2025 45
63.7791 1824 42.7083
63.8966 1805 42.4853
64.0142 1795 42.3674
64.1317 1966 44.3396
64.2492 2050 45.2769
64.3668 2098 45.8039
64.4843 2276 47.7074
64.6019 2221 47.1275
64.7195 2259 47.5289
64.837 2322 48.1871
64.9546 2190 46.7974
65.0722 2124 46.0869
65.1898 1977 44.4635
65.3074 1811 42.5558
65.4249 1690 41.1096
65.5425 1641 40.5093
65.6601 1626 40.3237
65.7777 1836 42.8486
65.8952 1999 44.7102
66.0128 1924 43.8634
66.1304 2078 45.5851
66.2479 2120 46.0435
66.3655 2151 46.3789
66.483 2147 46.3357
66.6005 2199 46.8935
66.718 2120 46.0435
66.8355 2126 46.1086
66.953 2037 45.1331
67.0705 2025 45
67.1879 2004 44.7661
67.3054 1792 42.332
67.4228 1747 41.7971
67.5402 1706 41.3038
67.6576 1709 41.3401
67.7749 1900 43.589
67.8923 1919 43.8064
68.0096 1953 44.1928
68.1269 2095 45.7712
68.2442 2139 46.2493
68.3614 2249 47.4236
68.4787 2133 46.1844
68.5958 2136 46.2169
68.713 2042 45.1885
68.8302 1866 43.1972
68.9473 1788 42.2847
69.0643 1672 40.8901
69.1814 1594 39.9249
69.2984 1648 40.5956
69.4154 1728 41.5692
69.5323 1867 43.2088
69.6492 1937 44.0114
69.7661 1970 44.3847
69.8829 2040 45.1664
69.9997 2003 44.7549
70.1165 1995 44.6654
70.2332 1878 43.3359
70.3499 1837 42.8602
70.4665 1692 41.1339
70.5831 1696 41.1825
70.6996 1570 39.6232
70.8161 1487 38.5616
70.9326 1391 37.2961
71.049 1187 34.4529
71.1653 996 31.5595
71.2817 882 29.6985
71.3979 828 28.775
71.5141 865 29.4109
71.6303 795 28.1957
71.7464 726 26.9444
71.8624 0 1
71.9784 0 1
72.0944 0 1
72.2102 0 1
72.3261 0 1
72.4418 0 1
72.5575 0 1
72.6732 0 1
75.1054 0 1
75.2209 0 1
75.3365 0 1
75.4521 0 1
75.5678 0 1
75.6835 0 1
75.7993 0 1
75.9151 0 1
76.031 0 1
76.147 1275 35.7071
76.263 1337 36.565
76.3791 1340 36.606
76.4952 1299 36.0416
76.6113 1410 37.55
76.7276 1496 38.6782
76.8438 1659 40.7308
76.9601 1768 42.0476
77.0765 1819 42.6497
77.1929 1917 43.7836
77.3093 1843 42.9302
77.4258 1891 43.4856
77.5423 1889 43.4626
77.6589 1770 42.0714
77.7755 1647 40.5832
77.8921 1471 38.3536
78.0088 1341 36.6197
78.1256 1253 35.3977
78.2423 1291 35.9305
78.3591 1416 37.6298
78.4759 1504 38.7814
78.5928 1602 40.025
78.7097 1716 41.4246
78.8266 1782 42.2137
78.9436 1770 42.0714
79.0606 1838 42.8719
79.1776 1838 42.8719
79.2946 1867 43.2088
79.4117 1850 43.0116
79.5288 1843 42.9302
79.6459 1876 43.3128
79.7631 1817 42.6263
79.8802 1815 42.6028
79.9974 1675 40.9268
80.1147 1489 38.5876
80.2319 1437 37.9078
80.3491 1569 39.6106
80.4664 1590 39.8748
80.5837 1724 41.5211
80.701 1751 41.845
80.8183 1885 43.4166
80.9357 1914 43.7493
81.053 1919 43.8064
81.1704 1887 43.4396
81.2877 1949 44.1475
81.4051 1920 43.8178
81.5225 1701 41.2432
81.6399 1545 39.3065
81.7573 1499 38.7169
81.8747 1306 36.1386
81.9922 1291 35.9305
82.1096 1485 38.5357
82.227 1668 40.8412
82.3444 1669 40.8534
82.4619 1822 42.6849
82.5793 1876 43.3128
82.6967 1875 43.3013
82.8142 1989 44.5982
82.9316 1928 43.909
83.049 1898 43.566
83.1664 1850 43.0116
83.2838 1958 44.2493
83.4012 1800 42.4264
83.5186 1739 41.7013
83.636 1652 40.6448
83.7534 1614 40.1746
83.8708 1524 39.0384
83.9881 1479 38.4578
84.1055 1619 40.2368
84.2228 1696 41.1825
84.3401 1924 43.8634
84.4575 1935 43.9886
84.5747 2004 44.7661
84.692 1939 44.0341
84.8093 2008 44.8107
84.9265 1887 43.4396
85.0437 1742 41.7373
85.1609 1623 40.2865
85.2781 1486 38.5487
85.3952 1469 38.3275
85.5123 1360 36.8782
85.6294 1413 37.5899
85.7465 1559 39.4842
85.8636 1685 41.0488
85.9806 1762 41.9762
86.0976 1707 41.3159
86.2145 1834 42.8252
86.3315 1894 43.5201
86.4484 1875 43.3013
86.5652 1869 43.2319
86.682 1810 42.5441
86.7988 1965 44.3283
86.9156 1903 43.6234
87.0323 1870 43.2435
87.149 1802 42.45
87.2657 1759 41.9404
87.3823 1496 38.6782
87.4988 1373 37.054
87.6154 1295 35.9861
87.7318 1397 37.3765
87.8483 1461 38.223
87.9647 1464 38.2623
88.081 1521 39
88.1973 1503 38.7685
88.3136 1429 37.8021
88.4298 1412 37.5766
88.546 1334 36.524
88.6621 1092 33.0454
88.7781 899 29.9833
88.8942 0 1
89.0101 0 1
89.126 0 1
89.2419 0 1
89.3577 0 1
89.4734 0 1
89.5891 0 1
89.7047 0 1
89.8203 0 1
89.9358 0 1
92.3269 0 1
92.4424 0 1
92.558 0 1
92.6736 0 1
92.7893 0 1
92.905 0 1
93.0208 0 1
93.1366 0 1
93.2525 0 1
93.3685 0 1
93.4845 0 1
93.6005 1568 39.598
93.7167 1619 40.2368
93.8328 1635 40.4351
93.949 1721 41.4849
94.0653 1743 41.7493
94.1816 1724 41.5211
94.2979 1587 39.8372
94.4143 1537 39.2046
94.5307 1451 38.092
94.6472 1412 37.5766
94.7637 1403 37.4566
94.8803 1562 39.5221
94.9969 1756 41.9047
95.1135 1792 42.332
95.2302 1864 43.1741
95.3469 1839 42.8836
95.4637 1918 43.795
95.5805 1986 44.5646
95.6973 1953 44.1928
95.8142 2008 44.8107
95.9311 1907 43.6692
96.048 1970 44.3847
96.1649 1895 43.5316
96.2819 1838 42.8719
96.3989 1733 41.6293
96.516 1721 41.4849
96.633 1616 40.1995
96.7501 1576 39.6989
96.8673 1631 40.3856
96.9844 1664 40.7922
97.1016 1782 42.2137
97.2188 1854 43.0581
97.336 1953 44.1928
97.4532 2001 44.7325
97.5704 2025 45
97.6877 2070 45.4973
97.805 1900 43.589
97.9223 1804 42.4735
98.0396 1621 40.2616
98.1569 1586 39.8246
98.2743 1452 38.1051
98.3916 1365 36.9459
98.509 1506 38.8072
98.6264 1734 41.6413
98.7438 1769 42.0595
98.8612 1932 43.9545
98.9786 1968 44.3621
99.096 2051 45.288
99.2134 2066 45.4533
99.3308 2166 46.5403
99.4482 2010 44.833
99.5656 2029 45.0444
99.6831 2068 45.4753
99.8005 2012 44.8553
99.9179 2014 44.8776
100.035 1919 43.8064
100.153 1868 43.2204
100.27 1746 41.7852
100.388 1719 41.4608
100.505 1775 42.1307
100.622 1918 43.795
100.74 2091 45.7275
100.857 2108 45.913
100.975 2049 45.2659
101.092 2033 45.0888
101.209 2132 46.1736
101.327 2084 45.6508
101.444 2009 44.8219
101.561 1953 44.1928
101.679 1722 41.497
101.796 1625 40.3113
101.913 1528 39.0896
102.03 1533 39.1535
102.148 1747 41.7971
102.265 1939 44.0341
102.382 2046 45.2327
102.499 2052 45.299
102.616 2031 45.0666
102.733 2103 45.8585
102.851 2142 46.2817
102.968 2114 45.9783
103.085 2236 47.2864
103.202 2135 46.2061
103.319 2146 46.3249
103.436 2120 46.0435
103.552 2090 45.7165
103.669 1940 44.0454
103.786 1828 42.7551
103.903 1838 42.8719
104.02 1852 43.0349
104.137 2031 45.0666
104.253 2072 45.5192
104.37 2329 48.2597
104.487 2213 47.0425
104.603 2314 48.1041
104.72 2225 47.1699
104.836 2098 45.8039
104.953 1848 42.9884
105.069 1754 41.8808
105.186 1622 40.2741
105.302 1426 37.7624
105.418 1338 36.5787
105.535 1309 36.1801
105.651 1436 37.8946
105.767 1466 38.2884
105.883 1428 37.7889
105.999 1349 36.7287
106.115 0 1
106.231 0 1
106.347 0 1
106.463 0 1
106.579 0 1
106.694 0 1
106.81 0 1
106.926 0 1
107.041 0 1
107.157 0 1
109.576 0 1
109.692 0 1
109.807 0 1
109.923 0 1
110.039 0 1
110.155 0 1
110.27 0 1
110.386 0 1
110.502 0 1
110.618 929 30.4795
110.735 1172 34.2345
110.851 1365 36.9459
110.967 1564 39.5474
111.083 1769 42.0595
111.199 1762 41.9762
111.316 1964 44.317
111.432 2007 44.7996
111.549 1998 44.699
111.665 1995 44.6654
111.782 2117 46.0109
111.898 2033 45.0888
112.015 1957 44.238
112.132 1882 43.382
112.248 1702 41.2553
112.365 1648 40.5956
112.482 1613 40.1622
112.599 1817 42.6263
112.716 1923 43.852
112.832 2035 45.111
112.949 2027 45.0222
113.066 2102 45.8476
113.183 2088 45.6946
113.3 2074 45.5412
113.417 1982 44.5197
113.534 1984 44.5421
113.652 1720 41.4729
113.769 1594 39.9249
113.886 1493 38.6394
114.003 1434 37.8682
114.12 1483 38.5097
114.238 1647 40.5832
114.355 1797 42.391
114.472 1760 41.9524
114.589 2067 45.4643
114.707 2051 45.288
114.824 1983 44.5309
114.942 2050 45.2769
115.059 2052 45.299
115.176 2183 46.7226
115.294 2008 44.8107
115.411 2000 44.7214
115.529 2035 45.111
115.646 1944 44.0908
115.764 1950 44.1588
115.881 1726 41.5452
115.999 1723 41.509
116.116 1820 42.6615
116.234 1900 43.589
116.351 1982 44.5197
116.469 2117 46.0109
116.586 2063 45.4203
116.704 2114 45.9783
116.821 1999 44.7102
116.939 2156 46.4327
117.056 2046 45.2327
117.174 1882 43.382
117.291 1661 40.7554
117.409 1558 39.4715
117.526 1425 37.7492
117.644 1412 37.5766
117.761 1600 40
117.879 1641 40.5093
117.996 1795 42.3674
118.114 1909 43.6921
118.231 2003 44.7549
118.349 1938 44.0227
118.466 2035 45.111
118.584 2048 45.2548
118.701 1999 44.7102
118.819 1944 44.0908
118.936 1997 44.6878
119.053 2013 44.8665
119.171 1767 42.0357
119.288 1831 42.7902
119.405 1772 42.0951
119.523 1627 40.3361
119.64 1698 41.2068
119.757 1675 40.9268
119.875 1835 42.8369
119.992 1925 43.8748
120.109 1993 44.643
120.226 1961 44.2832
120.343 1979 44.486
120.46 1947 44.1248
120.578 1978 44.4747
120.695 1953 44.1928
120.812 1732 41.6173
120.929 1621 40.2616
121.046 1548 39.3446
121.163 1387 37.2424
121.279 1311 36.2077
121.396 1345 36.6742
121.513 1499 38.7169
121.63 1546 39.3192
121.747 1545 39.3065
121.863 1588 39.8497
121.98 1596 39.95
122.097 1554 39.4208
122.213 1568 39.598
122.33 1544 39.2938
122.446 1492 38.6264
122.563 1396 37.3631
122.679 1300 36.0555
122.795 1227 35.0286
122.912 1120 33.4664
123.028 1037 32.2025
123.144 920 30.3315
123.26 859 29.3087
123.377 0 1
123.493 0 1
123.609 0 1
123.725 0 1
123.84 0 1
123.956 0 1
124.072 0 1
124.188 0 1
124.303 0 1
124.419 0 1
126.852 0 1
126.968 0 1
127.083 0 1
127.199 0 1
127.315 0 1
127.431 0 1
127.547 0 1
127.663 0 1
127.779 0 1
127.895 0 1
128.011 0 1
128.127 0 1
128.243 0 1
128.359 1879 43.3474
128.476 1902 43.6119
128.592 1867 43.2088
128.708 1864 43.1741
128.825 1921 43.8292
128.941 1962 44.2945
129.058 2023 44.9778
129.174 2141 46.2709
129.291 2184 46.7333
129.408 2134 46.1952
129.524 2208 46.9894
129.641 2212 47.0319
129.758 2022 44.9667
129.875 1899 43.5775
129.992 1719 41.4608
130.108 1709 41.3401
130.225 1560 39.4968
130.342 1542 39.2683
130.459 1679 40.9756
130.576 1707 41.3159
130.693 1890 43.4741
130.81 1912 43.7264
130.928 2022 44.9667
131.045 2027 45.0222
131.162 2090 45.7165
131.279 2044 45.2106
131.396 2066 45.4533
131.513 2238 47.3075
131.631 2011 44.8442
131.748 1989 44.5982
131.865 1969 44.3734
131.983 1931 43.9431
132.1 1881 43.3705
132.217 1903 43.6234
132.335 1812 42.5676
132.452 1921 43.8292
132.57 1987 44.5758
132.687 2140 46.2601
132.804 2150 46.3681
132.922 2108 45.913
133.039 2131 46.1628
133.157 2244 47.3709
133.274 2217 47.085
133.392 2115 45.9891
133.509 1893 43.5086
133.627 1748 41.8091
133.744 1592 39.8999
133.862 1595 39.9375
133.979 1529 39.1024
134.097 1780 42.19
134.214 1910 43.7035
134.332 1944 44.0908
134.449 1967 44.3509
134.567 2034 45.0999
134.684 2050 45.2769
134.802 2140 46.2601
134.919 2201 46.9148
135.037 2055 45.3321
135.154 2129 46.1411
135.272 2070 45.4973
135.389 2009 44.8219
135.507 1999 44.7102
135.624 1925 43.8748
135.742 1883 43.3935
135.859 1863 43.1625
135.977 1920 43.8178
136.094 1962 44.2945
136.211 2153 46.4004
136.329 2226 47.1805
136.446 2167 46.551
136.564 2112 45.9565
136.681 2192 46.8188
136.798 2251 47.4447
136.915 2071 45.5082
137.033 2100 45.8258
137.15 1796 42.3792
137.267 1741 41.7253
137.384 1678 40.9634
137.502 1558 39.4715
137.619 1614 40.1746
137.736 1713 41.3884
137.853 1814 42.5911
137.97 1954 44.2041
138.087 1912 43.7264
138.204 2017 44.911
138.321 2058 45.3652
138.438 2115 45.9891
138.555 2125 46.0977
138.672 2154 46.4112
138.788 1993 44.643
138.905 1836 42.8486
139.022 1891 43.4856
139.139 1739 41.7013
139.255 1639 40.4846
139.372 1517 38.9487
139.488 1440 37.9473
139.605 1381 37.1618
139.721 1386 37.229
139.838 1445 38.0132
139.954 1452 38.1051
140.071 1313 36.2353
140.187 1287 35.8748
140.303 1204 34.6987
140.419 1135 33.6898
140.535 1073 32.7567
140.652 958 30.9516
140.768 0 1
140.884 0 1
141 0 1
141.115 0 1
141.231 0 1
141.347 0 1
141.463 0 1
141.578 0 1
141.694 0 1
144.104 0 1
144.219 0 1
144.335 0 1
144.45 0 1
144.566 0 1
144.682 0 1
144.798 0 1
144.914 0 1
145.03 0 1
145.146 1402 37.4433
145.262 1609 40.1123
145.378 1686 41.0609
145.494 1720 41.4729
145.61 1682 41.0122
145.726 1692 41.1339
145.842 1547 39.3319
145.959 1458 38.1838
146.075 1395 37.3497
146.192 1314 36.2491
146.308 1271 35.6511
146.425 1343 36.647
146.541 1362 36.9053
146.658 1421 37.6962
146.774 1560 39.4968
146.891 1626 40.3237
147.008 1659 40.7308
147.125 1555 39.4335
147.241 1558 39.4715
147.358 1639 40.4846
147.475 1603 40.0375
147.592 1623 40.2865
147.709 1606 40.0749
147.826 1457 38.1707
147.943 1484 38.5227
148.06 1429 37.8021
148.177 1418 37.6563
148.294 1372 37.0405
148.411 1500 38.7298
148.528 1563 39.5348
148.645 1699 41.2189
148.762 1692 41.1339
148.88 1667 40.8289
148.997 1718 41.4488
149.114 1662 40.7676
149.231 1713 41.3884
149.349 1603 40.0375
149.466 1592 39.8999
149.583 1518 38.9615
149.701 1418 37.6563
149.818 1296 36
149.935 1317 36.2905
150.053 1316 36.2767
150.17 1394 37.3363
150.287 1414 37.6032
150.405 1485 38.5357
150.522 1553 39.4081
150.64 1499 38.7169
150.757 1586 39.8246
150.875 1580 39.7492
150.992 1552 39.3954
151.11 1667 40.8289
151.227 1597 39.9625
151.344 1560 39.4968
151.462 1534 39.1663
151.579 1451 38.092
151.697 1434 37.8682
151.814 1399 37.4032
151.932 1379 37.1349
152.049 1484 38.5227
152.167 1471 38.3536
152.284 1485 38.5357
152.402 1533 39.1535
152.519 1626 40.3237
152.636 1653 40.6571
152.754 1628 40.3485
152.871 1590 39.8748
152.989 1522 39.0128
153.106 1534 39.1663
153.223 1484 38.5227
153.341 1288 35.8887
153.458 1304 36.1109
153.575 1222 34.9571
153.693 1203 34.6843
153.81 1259 35.4824
153.927 1403 37.4566
154.044 1405 37.4833
154.162 1389 37.2693
154.279 1421 37.6962
154.396 1457 38.1707
154.513 1463 38.2492
154.63 1509 38.8458
154.747 1451 38.092
154.864 1391 37.2961
154.981 1369 37
155.098 1397 37.3765
155.215 1417 37.6431
155.332 1336 36.5513
155.449 1319 36.318
155.566 1309 36.1801
155.683 1325 36.4005
155.8 1432 37.8418
155.917 1380 37.1484
156.033 1390 37.2827
156.15 0 1
156.267 0 1
156.383 0 1
156.5 0 1
156.617 0 1
156.733 0 1
156.85 0 1
156.966 0 1
157.082 0 1
157.199 0 1
157.315 0 1
157.431 0 1
157.547 0 1
157.664 0 1
157.78 0 1
157.896 0 1
158.012 0 1
158.128 0 1
158.244 0 1
158.359 0 1
158.475 0 1
158.591 0 1
158.706 0 1
