
6.15755 0 1
6.2731 0 1
6.3887 0 1
6.50437 0 1
6.62009 0 1
6.73587 0 1
6.8517 0 1
6.96759 0 1
7.08353 0 1
7.19952 0 1
7.31557 0 1
7.43166 0 1
7.54781 0 1
7.664 0 1
7.78024 0 1
7.89653 0 1
8.01286 0 1
8.12924 0 1
8.24567 0 1
8.36213 0 1
8.47864 0 1
8.59519 0 1
8.71178 0 1
8.82841 0 1
8.94508 0 1
9.06179 0 1
9.17853 0 1
9.29531 0 1
9.41212 0 1
9.52897 0 1
9.64584 0 1
9.76276 0 1
9.8797 0 1
9.99667 0 1
10.1137 0 1
10.2307 0 1
10.3478 0 1
10.4648 0 1
10.5819 0 1
10.6991 0 1
10.8162 0 1
10.9334 0 1
11.0506 0 1
11.1678 0 1
11.285 0 1
11.4023 0 1
11.5196 0 1
11.6369 0 1
11.7542 0 1
11.8715 0 1
11.9888 0 1
12.1062 0 1
12.2235 0 1
12.3409 0 1
12.4582 0 1
12.5756 0 1
12.693 0 1
12.8104 0 1
12.9278 0 1
13.0452 0 1
13.1626 0 1
13.28 0 1
13.3974 0 1
13.5149 0 1
13.6323 0 1
13.7497 0 1
13.8671 0 1
13.9845 0 1
14.1019 0 1
14.2193 0 1
14.3367 0 1
14.4541 0 1
14.5714 0 1
14.6888 0 1
14.8062 0 1
14.9235 0 1
15.0408 0 0
15.1581 0 0
15.2755 0 0
15.3927 0 0
15.51 0 0
15.6273 0 0
15.7445 0 0
15.8617 0 0
15.9789 0 0
16.0961 0 0
16.2132 0 0
16.3304 0 0
16.4475 0 0
16.5646 0 0
16.6816 0 0
16.7986 0 0
16.9156 0 0
17.0326 0 0
17.1496 0 0
17.2665 0 0
17.3833 0 0
17.5002 0 0
17.617 0 0
17.7338 0 0
17.8505 0 0
17.9672 0 0
18.0839 0 0
18.2005 0 0
18.3171 0 0
18.4337 0 0
18.5502 0 0
18.6666 0 0
18.7831 0 0
18.8994 0 0
19.0158 0 0
19.1321 0 0
19.2483 0 0
19.3645 0 0
19.4806 0 0
19.5967 0 0
19.7128 0 0
19.8288 0 0
19.9447 0 0
20.0606 0 1
20.1764 0 1
20.2922 0 1
20.4079 0 1
20.5236 0 1
20.6392 0 1
20.7548 0 1
20.8702 0 1
23.3078 0 1
23.4233 0 1
23.539 0 1
23.6547 0 1
23.7704 0 1
23.8862 0 1
24.0021 0 1
24.118 0 1
24.234 0 1
24.35 0 1
24.4661 1289 35.9026
24.5822 1335 36.5377
24.6984 1220 34.9285
24.8146 1221 34.9428
24.9309 1217 34.8855
25.0472 1191 34.5109
25.1636 1249 35.3412
25.28 1290 35.9166
25.3965 1311 36.2077
25.513 1399 37.4032
25.6296 1441 37.9605
25.7462 1439 37.9342
25.8628 1457 38.1707
25.9795 1488 38.5746
26.0962 1491 38.6135
26.213 1483 38.5097
26.3298 1428 37.7889
26.4466 1463 38.2492
26.5635 1411 37.5633
26.6804 1306 36.1386
26.7973 1264 35.5528
26.9143 1343 36.647
27.0313 1361 36.8917
27.1483 1371 37.027
27.2653 1459 38.1969
27.3824 1449 38.0657
27.4996 1444 38
27.6167 1468 38.3145
27.7339 1362 36.9053
27.8511 1349 36.7287
27.9683 1351 36.756
28.0855 1348 36.7151
28.2028 1331 36.4829
28.3201 1206 34.7275
28.4374 1164 34.1174
28.5547 1127 33.5708
28.6721 1219 34.9142
28.7894 1231 35.0856
28.9068 1285 35.8469
29.0242 1324 36.3868
29.1416 1298 36.0278
29.259 1381 37.1618
29.3764 1376 37.0945
29.4939 1416 37.6298
29.6113 1451 38.092
29.7288 1358 36.8511
29.8463 1386 37.229
29.9638 1371 37.027
30.0812 1367 36.973
30.1987 1449 38.0657
30.3162 1328 36.4417
30.4337 1335 36.5377
30.5512 1330 36.4692
30.6687 1372 37.0405
30.7862 1388 37.2559
30.9037 1471 38.3536
31.0212 1457 38.1707
31.1387 1464 38.2623
31.2562 1440 37.9473
31.3737 1418 37.6563
31.4912 1367 36.973
31.6087 1349 36.7287
31.7262 1272 35.6651
31.8436 1272 35.6651
31.9611 1200 34.641
32.0785 1205 34.7131
32.1959 1191 34.5109
32.3134 1197 34.5977
32.4308 1292 35.9444
32.5482 1328 36.4417
32.6655 1345 36.6742
32.7829 1421 37.6962
32.9002 1438 37.921
33.0176 1450 38.0789
33.1349 1502 38.7556
33.2522 1410 37.55
33.3694 1455 38.1445
33.4867 1524 39.0384
33.6039 1380 37.1484
33.7211 1381 37.1618
33.8383 1391 37.2961
33.9554 1328 36.4417
34.0725 1320 36.3318
34.1896 1340 36.606
34.3067 1348 36.7151
34.4237 1427 37.7757
34.5407 1495 38.6652
34.6577 1460 38.2099
34.7746 1489 38.5876
34.8915 1499 38.7169
35.0084 1392 37.3095
35.1252 1315 36.2629
35.242 1339 36.5923
35.3587 1239 35.1994
35.4755 1223 34.9714
35.5921 1206 34.7275
35.7088 1149 33.8969
35.8254 1134 33.6749
35.9419 1250 35.3553
36.0584 1137 33.7194
36.1749 1244 35.2704
36.2913 1322 36.3593
36.4077 1316 36.2767
36.524 1370 37.0135
36.6403 1357 36.8375
36.7565 1391 37.2961
36.8727 1463 38.2492
36.9889 1382 37.1753
37.1049 1460 38.2099
37.221 0 1
37.3369 0 1
37.4529 0 1
37.5687 0 1
37.6845 0 1
37.8003 0 1
37.916 0 1
38.0316 0 1
38.1472 0 1
40.5851 0 1
40.7008 0 1
40.8164 0 1
40.9322 0 1
41.048 0 1
41.1639 0 1
41.2798 0 1
41.3958 0 1
41.5118 0 1
41.6279 0 1
41.744 1233 35.1141
41.8602 1240 35.2136
41.9765 1322 36.3593
42.0928 1332 36.4966
42.2091 1306 36.1386
42.3255 1237 35.171
42.4419 1284 35.8329
42.5584 1285 35.8469
42.675 1209 34.7707
42.7915 1182 34.3802
42.9081 1204 34.6987
43.0248 1285 35.8469
43.1415 1275 35.7071
43.2582 1259 35.4824
43.375 1266 35.5809
43.4918 1289 35.9026
43.6087 1287 35.8748
43.7256 1263 35.5387
43.8425 1206 34.7275
43.9595 1182 34.3802
44.0765 1251 35.3695
44.1935 1175 34.2783
44.3106 1051 32.4191
44.4277 1061 32.573
44.5448 990 31.4643
44.6619 927 30.4467
44.7791 939 30.6431
44.8963 959 30.9677
45.0136 1059 32.5423
45.1308 1022 31.9687
45.2481 1179 34.3366
45.3654 1122 33.4963
45.4827 1196 34.5832
45.6001 1119 33.4515
45.7174 1119 33.4515
45.8348 1122 33.4963
45.9522 1088 32.9848
46.0697 1066 32.6497
46.1871 969 31.1288
46.3046 981 31.3209
46.422 940 30.6594
46.5395 1005 31.7017
46.657 983 31.3528
46.7745 977 31.257
46.892 1069 32.6956
47.0096 1034 32.1559
47.1271 975 31.225
47.2446 1027 32.0468
47.3622 1000 31.6228
47.4797 954 30.8869
47.5973 945 30.7409
47.7149 926 30.4302
47.8324 881 29.6816
47.95 785 28.0179
48.0675 755 27.4773
48.1851 687 26.2107
48.3027 711 26.6646
48.4202 770 27.7489
48.5378 766 27.6767
48.6554 835 28.8964
48.7729 864 29.3939
48.8904 943 30.7083
49.008 957 30.9354
49.1255 936 30.5941
49.243 977 31.257
49.3605 938 30.6268
49.478 945 30.7409
49.5955 883 29.7153
49.713 878 29.6311
49.8304 878 29.6311
49.9479 882 29.6985
50.0653 892 29.8664
50.1827 999 31.607
50.3001 1005 31.7017
50.4175 1071 32.7261
50.5348 1067 32.665
50.6521 1126 33.5559
50.7694 1133 33.6601
50.8867 1129 33.6006
51.004 1154 33.9706
51.1212 1165 34.1321
51.2384 1142 33.7935
51.3556 1049 32.3883
51.4727 1056 32.4962
51.5899 963 31.0322
51.707 996 31.5595
51.824 940 30.6594
51.9411 1032 32.1248
52.0581 1092 33.0454
52.175 1227 35.0286
52.2919 1214 34.8425
52.4088 1430 37.8153
52.5257 1361 36.8917
52.6425 1272 35.6651
52.7593 1389 37.2693
52.876 1406 37.4967
52.9927 1416 37.6298
53.1094 1407 37.51
53.226 1374 37.0675
53.3426 1385 37.2156
53.4591 1290 35.9166
53.5756 1299 36.0416
53.692 1446 38.0263
53.8084 1486 38.5487
53.9248 1493 38.6394
54.0411 1532 39.1408
54.1573 1526 39.064
54.2735 0 1
54.3896 0 1
54.5057 0 1
54.6217 0 1
54.7377 0 1
54.8537 0 1
54.9695 0 1
55.0853 0 1
55.2011 0 1
55.3168 0 1
55.4324 0 1
57.824 0 1
57.9396 0 1
58.0553 0 1
58.1711 0 1
58.2869 0 1
58.4028 0 1
58.5187 0 1
58.6347 0 1
58.7508 0 1
58.8669 0 1
58.983 1863 43.1625
59.0992 1912 43.7264
59.2155 1996 44.6766
59.3318 1920 43.8178
59.4482 1979 44.486
59.5646 1994 44.6542
59.681 2030 45.0555
59.7975 1870 43.2435
59.9141 1802 42.45
60.0306 1719 41.4608
60.1473 1603 40.0375
60.2639 1466 38.2884
60.3807 1434 37.8682
60.4974 1440 37.9473
60.6142 1489 38.5876
60.731 1630 40.3733
60.8479 1700 41.2311
60.9648 1892 43.4971
61.0818 1916 43.7721
61.1987 1931 43.9431
61.3158 1981 44.5084
61.4328 1925 43.8748
61.5499 1908 43.6807
61.667 1922 43.8406
61.7841 1821 42.6732
61.9013 1776 42.1426
62.0185 1846 42.9651
62.1357 1807 42.5088
62.253 1873 43.2782
62.3702 1901 43.6005
62.4875 1989 44.5982
62.6049 1984 44.5421
62.7222 1985 44.5533
62.8396 2035 45.111
62.9569 2053 45.31
63.0743 1956 44.2267
63.1918 1916 43.7721
63.3092 1951 44.1701
63.4267 1919 43.8064
63.5441 1676 40.939
63.6616 1633 40.4104
63.7791 1482 38.4968
63.8966 1451 38.092
64.0142 1465 38.2753
64.1317 1528 39.0896
64.2492 1650 40.6202
64.3668 1664 40.7922
64.4843 1821 42.6732
64.6019 1902 43.6119
64.7195 1975 44.441
64.837 1863 43.1625
64.9546 1940 44.0454
65.0722 1907 43.6692
65.1898 1957 44.238
65.3074 2007 44.7996
65.4249 1847 42.9767
65.5425 1793 42.3438
65.6601 1835 42.8369
65.7777 1916 43.7721
65.8952 2020 44.9444
66.0128 1973 44.4185
66.1304 2023 44.9778
66.2479 2071 45.5082
66.3655 2079 45.5961
66.483 2087 45.6837
66.6005 2133 46.1844
66.718 2157 46.4435
66.8355 2099 45.8148
66.953 2004 44.7661
67.0705 1927 43.8976
67.1879 1827 42.7434
67.3054 1708 41.328
67.4228 1532 39.1408
67.5402 1304 36.1109
67.6576 1378 37.1214
67.7749 1484 38.5227
67.8923 1732 41.6173
68.0096 1872 43.2666
68.1269 2061 45.3982
68.2442 2082 45.6289
68.3614 2118 46.0217
68.4787 2144 46.3033
68.5958 2166 46.5403
68.713 2158 46.4543
68.8302 2205 46.9574
68.9473 2087 45.6837
69.0643 2055 45.3321
69.1814 2054 45.3211
69.2984 2102 45.8476
69.4154 2042 45.1885
69.5323 2224 47.1593
69.6492 2245 47.3814
69.7661 2361 48.5901
69.8829 2347 48.4458
69.9997 2414 49.1325
70.1165 2412 49.1121
70.2332 2415 49.1426
70.3499 2326 48.2286
70.4665 2333 48.3011
70.5831 2286 47.8121
70.6996 2240 47.3286
70.8161 2159 46.465
70.9326 2002 44.7437
71.049 1920 43.8178
71.1653 1612 40.1497
71.2817 1410 37.55
71.3979 1493 38.6394
71.5141 1590 39.8748
71.6303 1772 42.0951
71.7464 1739 41.7013
71.8624 0 1
71.9784 0 1
72.0944 0 1
72.2102 0 1
72.3261 0 1
72.4418 0 1
72.5575 0 1
72.6732 0 1
75.1054 0 1
75.2209 0 1
75.3365 0 1
75.4521 0 1
75.5678 0 1
75.6835 0 1
75.7993 0 1
75.9151 0 1
76.031 0 1
76.147 2097 45.793
76.263 2216 47.0744
76.3791 1997 44.6878
76.4952 1664 40.7922
76.6113 1715 41.4126
76.7276 1723 41.509
76.8438 1925 43.8748
76.9601 2215 47.0638
77.0765 2359 48.5695
77.1929 2613 51.1175
77.3093 2687 51.8363
77.4258 2728 52.2303
77.5423 2738 52.3259
77.6589 2698 51.9423
77.7755 2712 52.0769
77.8921 2710 52.0577
78.0088 2666 51.6333
78.1256 2490 49.8999
78.2423 2562 50.6162
78.3591 2520 50.1996
78.4759 2574 50.7346
78.5928 2660 51.5752
78.7097 2822 53.1225
78.8266 2971 54.5069
78.9436 2731 52.259
79.0606 2938 54.2033
79.1776 2869 53.563
79.2946 2914 53.9815
79.4117 2875 53.619
79.5288 2846 53.3479
79.6459 2875 53.619
79.7631 2605 51.0392
79.8802 2577 50.7642
79.9974 2400 48.9898
80.1147 2065 45.4423
80.2319 1823 42.6966
80.3491 1885 43.4166
80.4664 2030 45.0555
80.5837 2343 48.4045
80.701 2599 50.9804
80.8183 2809 53
80.9357 2927 54.1018
81.053 2960 54.4059
81.1704 2905 53.8981
81.2877 2943 54.2494
81.4051 3050 55.2268
81.5225 2950 54.3139
81.6399 2775 52.6783
81.7573 2834 53.2353
81.8747 2783 52.7541
81.9922 2715 52.1057
82.1096 2832 53.2165
82.227 2920 54.037
82.3444 2917 54.0093
82.4619 3001 54.7814
82.5793 2986 54.6443
82.6967 3179 56.3826
82.8142 3106 55.7315
82.9316 3023 54.9818
83.049 3019 54.9454
83.1664 2946 54.2771
83.2838 2918 54.0185
83.4012 2734 52.2877
83.5186 2681 51.7784
83.636 2442 49.4166
83.7534 2194 46.8402
83.8708 1877 43.3244
83.9881 1812 42.5676
84.1055 2090 45.7165
84.2228 2288 47.833
84.3401 2625 51.2348
84.4575 2842 53.3104
84.5747 3106 55.7315
84.692 3075 55.4527
84.8093 3042 55.1543
84.9265 3219 56.7362
85.0437 3121 55.8659
85.1609 3136 56
85.2781 3056 55.2811
85.3952 3013 54.8908
85.5123 2965 54.4518
85.6294 3073 55.4346
85.7465 3115 55.8122
85.8636 3331 57.7148
85.9806 3306 57.4978
86.0976 3261 57.1052
86.2145 3494 59.1101
86.3315 3423 58.5064
86.4484 3633 60.2744
86.5652 3541 59.5063
86.682 3560 59.6657
86.7988 3606 60.05
86.9156 3470 58.9067
87.0323 3350 57.8792
87.149 3140 56.0357
87.2657 2805 52.9623
87.3823 2515 50.1498
87.4988 2314 48.1041
87.6154 2405 49.0408
87.7318 2714 52.0961
87.8483 3138 56.0179
87.9647 3551 59.5903
88.081 3915 62.57
88.1973 3888 62.3538
88.3136 3886 62.3378
88.4298 3805 61.6847
88.546 3899 62.442
88.6621 3859 62.1208
88.7781 3727 61.0492
88.8942 0 1
89.0101 0 1
89.126 0 1
89.2419 0 1
89.3577 0 1
89.4734 0 1
89.5891 0 1
89.7047 0 1
89.8203 0 1
89.9358 0 1
92.3269 0 1
92.4424 0 1
92.558 0 1
92.6736 0 1
92.7893 0 1
92.905 0 1
93.0208 0 1
93.1366 0 1
93.2525 0 1
93.3685 0 1
93.4845 0 1
93.6005 4045 63.6003
93.7167 4106 64.0781
93.8328 4127 64.2417
93.949 4195 64.7688
94.0653 4070 63.7966
94.1816 4162 64.5136
94.2979 4120 64.1872
94.4143 3980 63.0872
94.5307 4025 63.4429
94.6472 3999 63.2376
94.7637 3961 62.9365
94.8803 4122 64.2028
94.9969 4109 64.1015
95.1135 4091 63.9609
95.2302 4394 66.2873
95.3469 4405 66.3702
95.4637 4334 65.8331
95.5805 4523 67.2533
95.6973 4477 66.9104
95.8142 4482 66.9477
95.9311 4367 66.0833
96.048 4164 64.5291
96.1649 4272 65.3605
96.2819 3930 62.6897
96.3989 3673 60.6053
96.516 3194 56.5155
96.633 2838 53.2729
96.7501 2675 51.7204
96.8673 3117 55.8301
96.9844 3391 58.2323
97.1016 3969 63
97.2188 4356 66
97.336 4729 68.7677
97.4532 4679 68.4032
97.5704 4717 68.6804
97.6877 4706 68.6003
97.805 4738 68.8331
97.9223 4535 67.3424
98.0396 4466 66.8281
98.1569 4556 67.4981
98.2743 4386 66.2269
98.3916 4393 66.2797
98.509 4394 66.2873
98.6264 4381 66.1891
98.7438 4457 66.7608
98.8612 4545 67.4166
98.9786 4793 69.2315
99.096 4732 68.7895
99.2134 4836 69.5414
99.3308 4898 69.9857
99.4482 4886 69.8999
99.5656 4775 69.1014
99.6831 4790 69.2098
99.8005 4535 67.3424
99.9179 4361 66.0379
100.035 3959 62.9206
100.153 3445 58.6941
100.27 3085 55.5428
100.388 3165 56.2583
100.505 3687 60.7207
100.622 4166 64.5446
100.74 4759 68.9855
100.857 4982 70.5833
100.975 4922 70.157
101.092 5049 71.0563
101.209 5047 71.0422
101.327 4942 70.2994
101.444 5233 72.3395
101.561 5024 70.8802
101.679 5124 71.5821
101.796 4874 69.814
101.913 4874 69.814
102.03 4795 69.2459
102.148 4644 68.1469
102.265 5158 71.8192
102.382 4780 69.1375
102.499 5159 71.8262
102.616 5353 73.1642
102.733 5308 72.856
102.851 5314 72.8972
102.968 5480 74.027
103.085 5364 73.2393
103.202 5202 72.1249
103.319 5116 71.5262
103.436 4784 69.1665
103.552 4400 66.3325
103.669 3685 60.7042
103.786 3406 58.3609
103.903 3518 59.3127
104.02 4075 63.8357
104.137 4689 68.4763
104.253 5361 73.2189
104.37 5340 73.0753
104.487 5662 75.2463
104.603 5638 75.0866
104.72 5423 73.641
104.836 5630 75.0333
104.953 5541 74.4379
105.069 5534 74.3909
105.186 5483 74.0473
105.302 5506 74.2024
105.418 5161 71.8401
105.535 5266 72.5672
105.651 5176 71.9444
105.767 5503 74.1822
105.883 5591 74.773
105.999 5551 74.505
106.115 0 1
106.231 0 1
106.347 0 1
106.463 0 1
106.579 0 1
106.694 0 1
106.81 0 1
106.926 0 1
107.041 0 1
107.157 0 1
109.576 0 1
109.692 0 1
109.807 0 1
109.923 0 1
110.039 0 1
110.155 0 1
110.27 0 1
110.386 0 1
110.502 0 1
110.618 4829 69.491
110.735 4960 70.4273
110.851 5013 70.8025
110.967 5137 71.6729
111.083 5299 72.7942
111.199 5208 72.1665
111.316 5356 73.1847
111.432 5453 73.8444
111.549 5233 72.3395
111.665 5294 72.7599
111.782 5043 71.0141
111.898 4634 68.0735
112.015 4140 64.3428
112.132 3774 61.4329
112.248 3197 56.542
112.365 3275 57.2276
112.482 3747 61.2127
112.599 4090 63.9531
112.716 4702 68.5711
112.832 4846 69.6132
112.949 4953 70.3776
113.066 4877 69.8355
113.183 4907 70.05
113.3 4993 70.6612
113.417 4948 70.342
113.534 4720 68.7023
113.652 4641 68.1249
113.769 4710 68.6294
113.886 4599 67.8159
114.003 4553 67.4759
114.12 4359 66.0227
114.238 4416 66.453
114.355 4451 66.7158
114.472 4441 66.6408
114.589 4519 67.2235
114.707 4707 68.6076
114.824 4557 67.5056
114.942 4563 67.55
115.059 4621 67.9779
115.176 4707 68.6076
115.294 4581 67.6831
115.411 4298 65.5591
115.529 4025 63.4429
115.646 3715 60.9508
115.764 3185 56.4358
115.881 2869 53.563
115.999 3088 55.5698
116.116 3516 59.2959
116.234 4208 64.8691
116.351 4443 66.6558
116.469 4531 67.3127
116.586 4551 67.4611
116.704 4639 68.1102
116.821 4609 67.8896
116.939 4720 68.7023
117.056 4648 68.1762
117.174 4504 67.1118
117.291 4491 67.0149
117.409 4563 67.55
117.526 4420 66.4831
117.644 4405 66.3702
117.761 4211 64.8922
117.879 4285 65.4599
117.996 4217 64.9384
118.114 4424 66.5132
118.231 4563 67.55
118.349 4628 68.0294
118.466 4602 67.838
118.584 4599 67.8159
118.701 4799 69.2748
118.819 4633 68.0661
118.936 4388 66.242
119.053 4238 65.0999
119.171 4012 63.3404
119.288 3601 60.0083
119.405 3063 55.3444
119.523 2898 53.8331
119.64 3186 56.4447
119.757 3530 59.4138
119.875 3840 61.9677
119.992 4255 65.2304
120.109 4423 66.5056
120.226 4410 66.4078
120.343 4483 66.9552
120.46 4366 66.0757
120.578 4333 65.8255
120.695 4500 67.082
120.812 4518 67.2161
120.929 4291 65.5057
121.046 4267 65.3223
121.163 4358 66.0151
121.279 4193 64.7534
121.396 4252 65.2074
121.513 4124 64.2184
121.63 4233 65.0615
121.747 4066 63.7652
121.863 4230 65.0385
121.98 4358 66.0151
122.097 4323 65.7495
122.213 4351 65.9621
122.33 4383 66.2042
122.446 4365 66.0681
122.563 4368 66.0908
122.679 4182 64.6684
122.795 3912 62.546
122.912 3830 61.887
123.028 3383 58.1636
123.144 2987 54.6535
123.26 2779 52.7162
123.377 0 1
123.493 0 1
123.609 0 1
123.725 0 1
123.84 0 1
123.956 0 1
124.072 0 1
124.188 0 1
124.303 0 1
124.419 0 1
126.852 0 1
126.968 0 1
127.083 0 1
127.199 0 1
127.315 0 1
127.431 0 1
127.547 0 1
127.663 0 1
127.779 0 1
127.895 0 1
128.011 0 1
128.127 0 1
128.243 0 1
128.359 3312 57.55
128.476 3013 54.8908
128.592 3168 56.285
128.708 3639 60.3241
128.825 4183 64.6761
128.941 4458 66.7683
129.058 4597 67.8012
129.174 4631 68.0515
129.291 4742 68.8622
129.408 4631 68.0515
129.524 4476 66.9029
129.641 4634 68.0735
129.758 4852 69.6563
129.875 4565 67.5648
129.992 4567 67.5796
130.108 4541 67.3869
130.225 4464 66.8132
130.342 4375 66.1438
130.459 4089 63.9453
130.576 4388 66.242
130.693 4324 65.7571
130.81 4396 66.3023
130.928 4523 67.2533
131.045 4434 66.5883
131.162 4503 67.1044
131.279 4645 68.1542
131.396 4576 67.6461
131.513 4398 66.3174
131.631 4237 65.0922
131.748 3942 62.7853
131.865 3622 60.1831
131.983 3048 55.2087
132.1 3005 54.8179
132.217 3358 57.9483
132.335 3841 61.9758
132.452 4128 64.2495
132.57 4433 66.5808
132.687 4282 65.437
132.804 4551 67.4611
132.922 4347 65.9318
133.039 4398 66.3174
133.157 4403 66.3551
133.274 4409 66.4003
133.392 4318 65.7115
133.509 4280 65.4217
133.627 4244 65.146
133.744 4215 64.923
133.862 4216 64.9307
133.979 4262 65.284
134.097 4144 64.3739
134.214 4387 66.2344
134.332 4070 63.7966
134.449 4305 65.6125
134.567 4185 64.6916
134.684 4229 65.0308
134.802 4338 65.8635
134.919 4228 65.0231
135.037 4296 65.5439
135.154 4138 64.3273
135.272 3903 62.474
135.389 3535 59.4559
135.507 3214 56.6922
135.624 2905 53.8981
135.742 3065 55.3624
135.859 3384 58.1722
135.977 3793 61.5873
136.094 4199 64.7997
136.211 4232 65.0538
136.329 4150 64.4205
136.446 4363 66.053
136.564 4315 65.6887
136.681 4344 65.909
136.798 4190 64.7302
136.915 4217 64.9384
137.033 4222 64.9769
137.15 4168 64.56
137.267 4224 64.9923
137.384 4094 63.9844
137.502 4049 63.6318
137.619 4094 63.9844
137.736 3955 62.8888
137.853 3891 62.3779
137.97 3955 62.8888
138.087 4012 63.3404
138.204 4121 64.195
138.321 4099 64.0234
138.438 4148 64.405
138.555 4228 65.0231
138.672 4078 63.8592
138.788 4002 63.2614
138.905 3865 62.1691
139.022 3581 59.8415
139.139 3227 56.8067
139.255 3036 55.0999
139.372 3046 55.1906
139.488 3174 56.3383
139.605 3504 59.1946
139.721 3947 62.8252
139.838 4091 63.9609
139.954 4147 64.3972
140.071 4103 64.0547
140.187 4072 63.8122
140.303 4053 63.6632
140.419 4037 63.5374
140.535 4037 63.5374
140.652 3893 62.3939
140.768 0 1
140.884 0 1
141 0 1
141.115 0 1
141.231 0 1
141.347 0 1
141.463 0 1
141.578 0 1
141.694 0 1
144.104 0 1
144.219 0 1
144.335 0 1
144.45 0 1
144.566 0 1
144.682 0 1
144.798 0 1
144.914 0 1
145.03 0 1
145.146 3537 59.4727
145.262 3456 58.7878
145.378 3496 59.127
145.494 3563 59.6909
145.61 3485 59.0339
145.726 3454 58.7707
145.842 3314 57.5674
145.959 3340 57.7927
146.075 3333 57.7321
146.192 3295 57.4021
146.308 3324 57.6541
146.425 3430 58.5662
146.541 3389 58.2151
146.658 3335 57.7495
146.774 3407 58.3695
146.891 3319 57.6108
147.008 3337 57.7668
147.125 3309 57.5239
147.241 3343 57.8187
147.358 3270 57.1839
147.475 3074 55.4437
147.592 2916 54
147.709 2780 52.7257
147.826 2514 50.1398
147.943 2522 50.2195
148.06 2702 51.9808
148.177 2794 52.8583
148.294 3215 56.701
148.411 3167 56.2761
148.528 3325 57.6628
148.645 3328 57.6888
148.762 3285 57.3149
148.88 3242 56.9386
148.997 3195 56.5243
149.114 3337 57.7668
149.231 3208 56.6392
149.349 3026 55.0091
149.466 3058 55.2992
149.583 3032 55.0636
149.701 2995 54.7266
149.818 3037 55.109
149.935 3058 55.2992
150.053 3152 56.1427
150.17 3103 55.7046
150.287 3050 55.2268
150.405 3117 55.8301
150.522 3032 55.0636
150.64 3141 56.0446
150.757 3127 55.9196
150.875 3070 55.4076
150.992 3112 55.7853
151.11 2902 53.8702
151.227 2827 53.1695
151.344 2586 50.8527
151.462 2427 49.2646
151.579 2402 49.0102
151.697 2586 50.8527
151.814 2670 51.672
151.932 2930 54.1295
152.049 3131 55.9553
152.167 3093 55.6147
152.284 3118 55.8391
152.402 3125 55.9017
152.519 3190 56.4801
152.636 3051 55.2359
152.754 3107 55.7405
152.871 3037 55.109
152.989 3082 55.5158
153.106 2909 53.9351
153.223 2932 54.1479
153.341 2926 54.0925
153.458 3046 55.1906
153.575 2966 54.461
153.693 2948 54.2955
153.81 3063 55.3444
153.927 3172 56.3205
154.044 2997 54.7449
154.162 3072 55.4256
154.279 3155 56.1694
154.396 3185 56.4358
154.513 3200 56.5685
154.63 3162 56.2317
154.747 2955 54.3599
154.864 2926 54.0925
154.981 2883 53.6936
155.098 2585 50.8429
155.215 2607 51.0588
155.332 2691 51.8748
155.449 2922 54.0555
155.566 3219 56.7362
155.683 3205 56.6127
155.8 3253 57.0351
155.917 3287 57.3324
156.033 3280 57.2713
156.15 0 1
156.267 0 1
156.383 0 1
156.5 0 1
156.617 0 1
156.733 0 1
156.85 0 1
156.966 0 1
157.082 0 1
157.199 0 1
157.315 0 1
157.431 0 1
157.547 0 1
157.664 0 1
157.78 0 1
157.896 0 1
158.012 0 1
158.128 0 1
158.244 0 1
158.359 0 1
158.475 0 1
158.591 0 1
158.706 0 1
