
6.15755 0 1
6.2731 0 1
6.3887 0 1
6.50437 0 1
6.62009 0 1
6.73587 0 1
6.8517 0 1
6.96759 0 1
7.08353 0 1
7.19952 0 1
7.31557 0 1
7.43166 0 1
7.54781 0 1
7.664 0 1
7.78024 0 1
7.89653 0 1
8.01286 0 1
8.12924 0 1
8.24567 0 1
8.36213 0 1
8.47864 0 1
8.59519 0 1
8.71178 0 1
8.82841 0 1
8.94508 0 1
9.06179 0 1
9.17853 0 1
9.29531 0 1
9.41212 0 1
9.52897 0 1
9.64584 0 1
9.76276 0 1
9.8797 0 1
9.99667 0 1
10.1137 0 1
10.2307 0 1
10.3478 0 1
10.4648 0 1
10.5819 0 1
10.6991 0 1
10.8162 0 1
10.9334 0 1
11.0506 0 1
11.1678 0 1
11.285 0 1
11.4023 0 1
11.5196 0 1
11.6369 0 1
11.7542 0 1
11.8715 0 1
11.9888 0 1
12.1062 0 1
12.2235 0 1
12.3409 0 1
12.4582 0 1
12.5756 0 1
12.693 0 1
12.8104 0 1
12.9278 0 1
13.0452 0 1
13.1626 0 1
13.28 0 1
13.3974 0 1
13.5149 0 1
13.6323 0 1
13.7497 0 1
13.8671 0 1
13.9845 0 1
14.1019 0 1
14.2193 0 1
14.3367 0 1
14.4541 0 1
14.5714 0 1
14.6888 0 1
14.8062 0 1
14.9235 0 1
15.0408 2334 48.3115
15.1581 2574 50.7346
15.2755 2445 49.4469
15.3927 2514 50.1398
15.51 2540 50.3984
15.6273 2576 50.7543
15.7445 2461 49.6085
15.8617 2451 49.5076
15.9789 2479 49.7896
16.0961 2397 48.9592
16.2132 2330 48.2701
16.3304 2328 48.2494
16.4475 2266 47.6025
16.5646 2359 48.5695
16.6816 2366 48.6415
16.7986 2294 47.8957
16.9156 2393 48.9183
17.0326 2350 48.4768
17.1496 2349 48.4665
17.2665 2297 47.927
17.3833 2290 47.8539
17.5002 2365 48.6313
17.617 2237 47.2969
17.7338 2338 48.3529
17.8505 2244 47.3709
17.9672 2398 48.9694
18.0839 2366 48.6415
18.2005 2507 50.07
18.3171 2552 50.5173
18.4337 2619 51.1762
18.5502 2668 51.6527
18.6666 2598 50.9706
18.7831 2691 51.8748
18.8994 2696 51.923
19.0158 2535 50.3488
19.1321 2525 50.2494
19.2483 2506 50.06
19.3645 2346 48.4355
19.4806 2342 48.3942
19.5967 2234 47.2652
19.7128 2168 46.5618
19.8288 2073 45.5302
19.9447 1893 43.5086
20.0606 0 1
20.1764 0 1
20.2922 0 1
20.4079 0 1
20.5236 0 1
20.6392 0 1
20.7548 0 1
20.8702 0 1
23.3078 0 1
23.4233 0 1
23.539 0 1
23.6547 0 1
23.7704 0 1
23.8862 0 1
24.0021 0 1
24.118 0 1
24.234 0 1
24.35 0 1
24.4661 2266 47.6025
24.5822 2103 45.8585
24.6984 2109 45.9239
24.8146 2145 46.3141
24.9309 2110 45.9347
25.0472 2147 46.3357
25.1636 2177 46.6583
25.28 2176 46.6476
25.3965 2260 47.5395
25.513 2436 49.3559
25.6296 2314 48.1041
25.7462 2379 48.775
25.8628 2430 49.295
25.9795 2336 48.3322
26.0962 2371 48.6929
26.213 2189 46.7868
26.3298 2133 46.1844
26.4466 2151 46.3789
26.5635 2095 45.7712
26.6804 2243 47.3603
26.7973 2324 48.2079
26.9143 2372 48.7032
27.0313 2392 48.9081
27.1483 2515 50.1498
27.2653 2505 50.05
27.3824 2410 49.0918
27.4996 2419 49.1833
27.6167 2420 49.1935
27.7339 2287 47.8226
27.8511 2362 48.6004
27.9683 2326 48.2286
28.0855 2309 48.0521
28.2028 2256 47.4974
28.3201 2150 46.3681
28.4374 2029 45.0444
28.5547 2086 45.6727
28.6721 2101 45.8367
28.7894 2086 45.6727
28.9068 2044 45.2106
29.0242 2170 46.5833
29.1416 2161 46.4866
29.259 2156 46.4327
29.3764 2201 46.9148
29.4939 2119 46.0326
29.6113 2189 46.7868
29.7288 2109 45.9239
29.8463 2066 45.4533
29.9638 2062 45.4093
30.0812 2076 45.5631
30.1987 1921 43.8292
30.3162 2149 46.3573
30.4337 2167 46.551
30.5512 2232 47.244
30.6687 2212 47.0319
30.7862 2348 48.4562
30.9037 2336 48.3322
31.0212 2319 48.156
31.1387 2313 48.0937
31.2562 2312 48.0833
31.3737 2374 48.7237
31.4912 2228 47.2017
31.6087 2152 46.3897
31.7262 2133 46.1844
31.8436 2108 45.913
31.9611 2049 45.2659
32.0785 1936 44
32.1959 2039 45.1553
32.3134 2022 44.9667
32.4308 2077 45.5741
32.5482 2033 45.0888
32.6655 2037 45.1331
32.7829 2157 46.4435
32.9002 2057 45.3542
33.0176 2138 46.2385
33.1349 2083 45.6399
33.2522 2141 46.2709
33.3694 2106 45.8912
33.4867 1989 44.5982
33.6039 1971 44.3959
33.7211 1974 44.4297
33.8383 1910 43.7035
33.9554 1923 43.852
34.0725 2073 45.5302
34.1896 2073 45.5302
34.3067 2210 47.0106
34.4237 2135 46.2061
34.5407 2182 46.7119
34.6577 2276 47.7074
34.7746 2291 47.8644
34.8915 2243 47.3603
35.0084 2247 47.4025
35.1252 2149 46.3573
35.242 2196 46.8615
35.3587 2147 46.3357
35.4755 2050 45.2769
35.5921 1966 44.3396
35.7088 1966 44.3396
35.8254 1867 43.2088
35.9419 2006 44.7884
36.0584 2046 45.2327
36.1749 1912 43.7264
36.2913 1922 43.8406
36.4077 1979 44.486
36.524 1996 44.6766
36.6403 1983 44.5309
36.7565 2036 45.1221
36.8727 2110 45.9347
36.9889 2063 45.4203
37.1049 1928 43.909
37.221 0 1
37.3369 0 1
37.4529 0 1
37.5687 0 1
37.6845 0 1
37.8003 0 1
37.916 0 1
38.0316 0 1
38.1472 0 1
40.5851 0 1
40.7008 0 1
40.8164 0 1
40.9322 0 1
41.048 0 1
41.1639 0 1
41.2798 0 1
41.3958 0 1
41.5118 0 1
41.6279 0 1
41.744 1555 39.4335
41.8602 1626 40.3237
41.9765 1751 41.845
42.0928 1839 42.8836
42.2091 1699 41.2189
42.3255 1749 41.821
42.4419 1669 40.8534
42.5584 1725 41.5331
42.675 1590 39.8748
42.7915 1636 40.4475
42.9081 1618 40.2244
43.0248 1665 40.8044
43.1415 1722 41.497
43.2582 1719 41.4608
43.375 1828 42.7551
43.4918 1831 42.7902
43.6087 1751 41.845
43.7256 1841 42.9069
43.8425 1813 42.5793
43.9595 1675 40.9268
44.0765 1695 41.1704
44.1935 1638 40.4722
44.3106 1582 39.7744
44.4277 1550 39.37
44.5448 1479 38.4578
44.6619 1451 38.092
44.7791 1429 37.8021
44.8963 1340 36.606
45.0136 1420 37.6829
45.1308 1355 36.8103
45.2481 1362 36.9053
45.3654 1367 36.973
45.4827 1337 36.565
45.6001 1445 38.0132
45.7174 1441 37.9605
45.8348 1408 37.5233
45.9522 1314 36.2491
46.0697 1280 35.7771
46.1871 1282 35.805
46.3046 1250 35.3553
46.422 1204 34.6987
46.5395 1258 35.4683
46.657 1305 36.1248
46.7745 1352 36.7696
46.892 1330 36.4692
47.0096 1314 36.2491
47.1271 1358 36.8511
47.2446 1369 37
47.3622 1344 36.6606
47.4797 1345 36.6742
47.5973 1347 36.7015
47.7149 1233 35.1141
47.8324 1301 36.0694
47.95 1197 34.5977
48.0675 1181 34.3657
48.1851 1139 33.7491
48.3027 1094 33.0757
48.4202 1114 33.3766
48.5378 1114 33.3766
48.6554 1180 34.3511
48.7729 1183 34.3948
48.8904 1147 33.8674
49.008 1243 35.2562
49.1255 1269 35.623
49.243 1186 34.4384
49.3605 1312 36.2215
49.478 1234 35.1283
49.5955 1167 34.1614
49.713 1162 34.0881
49.8304 1184 34.4093
49.9479 1168 34.176
50.0653 1222 34.9571
50.1827 1172 34.2345
50.3001 1348 36.7151
50.4175 1316 36.2767
50.5348 1410 37.55
50.6521 1464 38.2623
50.7694 1502 38.7556
50.8867 1445 38.0132
51.004 1506 38.8072
51.1212 1430 37.8153
51.2384 1462 38.2361
51.3556 1552 39.3954
51.4727 1447 38.0395
51.5899 1494 38.6523
51.707 1451 38.092
51.824 1413 37.5899
51.9411 1506 38.8072
52.0581 1487 38.5616
52.175 1513 38.8973
52.2919 1619 40.2368
52.4088 1637 40.4599
52.5257 1718 41.4488
52.6425 1729 41.5812
52.7593 1780 42.19
52.876 1840 42.8952
52.9927 1825 42.72
53.1094 1800 42.4264
53.226 1760 41.9524
53.3426 1712 41.3763
53.4591 1648 40.5956
53.5756 1675 40.9268
53.692 1737 41.6773
53.8084 1816 42.6146
53.9248 1897 43.5546
54.0411 1901 43.6005
54.1573 1896 43.5431
54.2735 0 1
54.3896 0 1
54.5057 0 1
54.6217 0 1
54.7377 0 1
54.8537 0 1
54.9695 0 1
55.0853 0 1
55.2011 0 1
55.3168 0 1
55.4324 0 1
57.824 0 1
57.9396 0 1
58.0553 0 1
58.1711 0 1
58.2869 0 1
58.4028 0 1
58.5187 0 1
58.6347 0 1
58.7508 0 1
58.8669 0 1
58.983 2089 45.7056
59.0992 2343 48.4045
59.2155 2358 48.5592
59.3318 2413 49.1223
59.4482 2565 50.6458
59.5646 2514 50.1398
59.681 2508 50.0799
59.7975 2477 49.7695
59.9141 2540 50.3984
60.0306 2454 49.5379
60.1473 2350 48.4768
60.2639 2433 49.3254
60.3807 2273 47.676
60.4974 2190 46.7974
60.6142 2281 47.7598
60.731 2113 45.9674
60.8479 2215 47.0638
60.9648 2249 47.4236
61.0818 2280 47.7493
61.1987 2307 48.0312
61.3158 2403 49.0204
61.4328 2482 49.8197
61.5499 2391 48.8979
61.667 2353 48.5077
61.7841 2332 48.2908
61.9013 2232 47.244
62.0185 2227 47.1911
62.1357 2113 45.9674
62.253 2074 45.5412
62.3702 2096 45.7821
62.4875 2251 47.4447
62.6049 2180 46.6905
62.7222 2242 47.3498
62.8396 2420 49.1935
62.9569 2344 48.4149
63.0743 2248 47.4131
63.1918 2409 49.0816
63.3092 2253 47.4658
63.4267 2199 46.8935
63.5441 2236 47.2864
63.6616 2255 47.4868
63.7791 2204 46.9468
63.8966 2228 47.2017
64.0142 2009 44.8219
64.1317 2093 45.7493
64.2492 2000 44.7214
64.3668 1977 44.4635
64.4843 1997 44.6878
64.6019 2078 45.5851
64.7195 2122 46.0652
64.837 2177 46.6583
64.9546 2094 45.7602
65.0722 2239 47.3181
65.1898 2248 47.4131
65.3074 2281 47.7598
65.4249 2207 46.9787
65.5425 2033 45.0888
65.6601 2011 44.8442
65.7777 1856 43.0813
65.8952 1966 44.3396
66.0128 2046 45.2327
66.1304 2013 44.8665
66.2479 2216 47.0744
66.3655 2330 48.2701
66.483 2231 47.2335
66.6005 2345 48.4252
66.718 2347 48.4458
66.8355 2307 48.0312
66.953 2295 47.9062
67.0705 2364 48.621
67.1879 2207 46.9787
67.3054 2235 47.2758
67.4228 2287 47.8226
67.5402 2221 47.1275
67.6576 2126 46.1086
67.7749 2068 45.4753
67.8923 2057 45.3542
68.0096 2108 45.913
68.1269 2135 46.2061
68.2442 2146 46.3249
68.3614 2253 47.4658
68.4787 2239 47.3181
68.5958 2351 48.4871
68.713 2501 50.01
68.8302 2416 49.1528
68.9473 2397 48.9592
69.0643 2293 47.8853
69.1814 2246 47.392
69.2984 2199 46.8935
69.4154 2115 45.9891
69.5323 1973 44.4185
69.6492 2134 46.1952
69.7661 2360 48.5798
69.8829 2316 48.1248
69.9997 2374 48.7237
70.1165 2390 48.8876
70.2332 2598 50.9706
70.3499 2364 48.621
70.4665 2446 49.4571
70.5831 2453 49.5278
70.6996 2491 49.9099
70.8161 2447 49.4672
70.9326 2564 50.636
71.049 2383 48.816
71.1653 2357 48.5489
71.2817 2263 47.571
71.3979 2152 46.3897
71.5141 2030 45.0555
71.6303 2092 45.7384
71.7464 1951 44.1701
71.8624 0 1
71.9784 0 1
72.0944 0 1
72.2102 0 1
72.3261 0 1
72.4418 0 1
72.5575 0 1
72.6732 0 1
75.1054 0 1
75.2209 0 1
75.3365 0 1
75.4521 0 1
75.5678 0 1
75.6835 0 1
75.7993 0 1
75.9151 0 1
76.031 0 1
76.147 2137 46.2277
76.263 2331 48.2804
76.3791 2425 49.2443
76.4952 2412 49.1121
76.6113 2260 47.5395
76.7276 2116 46
76.8438 2220 47.1169
76.9601 2265 47.592
77.0765 2228 47.2017
77.1929 2267 47.613
77.3093 2340 48.3735
77.4258 2386 48.8467
77.5423 2446 49.4571
77.6589 2492 49.9199
77.7755 2516 50.1597
77.8921 2501 50.01
78.0088 2414 49.1325
78.1256 2423 49.224
78.2423 2136 46.2169
78.3591 2044 45.2106
78.4759 2069 45.4863
78.5928 2104 45.8694
78.7097 2224 47.1593
78.8266 2291 47.8644
78.9436 2315 48.1144
79.0606 2395 48.9387
79.1776 2421 49.2037
79.2946 2392 48.9081
79.4117 2543 50.4282
79.5288 2478 49.7795
79.6459 2477 49.7695
79.7631 2462 49.6185
79.8802 2423 49.224
79.9974 2395 48.9387
80.1147 2433 49.3254
80.2319 2408 49.0714
80.3491 2175 46.6369
80.4664 2204 46.9468
80.5837 2227 47.1911
80.701 2236 47.2864
80.8183 2455 49.548
80.9357 2371 48.6929
81.053 2388 48.8672
81.1704 2415 49.1426
81.2877 2499 49.99
81.4051 2505 50.05
81.5225 2628 51.264
81.6399 2441 49.4065
81.7573 2242 47.3498
81.8747 2234 47.2652
81.9922 2044 45.2106
82.1096 1992 44.6318
82.227 1995 44.6654
82.3444 2227 47.1911
82.4619 2339 48.3632
82.5793 2414 49.1325
82.6967 2359 48.5695
82.8142 2447 49.4672
82.9316 2481 49.8096
83.049 2493 49.93
83.1664 2531 50.309
83.2838 2549 50.4876
83.4012 2510 50.0999
83.5186 2414 49.1325
83.636 2478 49.7795
83.7534 2294 47.8957
83.8708 2408 49.0714
83.9881 2307 48.0312
84.1055 2204 46.9468
84.2228 2293 47.8853
84.3401 2306 48.0208
84.4575 2284 47.7912
84.5747 2378 48.7647
84.692 2540 50.3984
84.8093 2466 49.6588
84.9265 2541 50.4083
85.0437 2698 51.9423
85.1609 2526 50.2593
85.2781 2462 49.6185
85.3952 2387 48.8569
85.5123 2241 47.3392
85.6294 2106 45.8912
85.7465 2103 45.8585
85.8636 2269 47.634
85.9806 2263 47.571
86.0976 2460 49.5984
86.2145 2496 49.96
86.3315 2575 50.7445
86.4484 2676 51.7301
86.5652 2671 51.6817
86.682 2622 51.2055
86.7988 2614 51.1273
86.9156 2842 53.3104
87.0323 2641 51.3907
87.149 2620 51.1859
87.2657 2704 52
87.3823 2513 50.1298
87.4988 2605 51.0392
87.6154 2382 48.8057
87.7318 2491 49.9099
87.8483 2451 49.5076
87.9647 2577 50.7642
88.081 2684 51.8073
88.1973 2553 50.5272
88.3136 2614 51.1273
88.4298 2779 52.7162
88.546 2752 52.4595
88.6621 2794 52.8583
88.7781 2677 51.7397
88.8942 0 1
89.0101 0 1
89.126 0 1
89.2419 0 1
89.3577 0 1
89.4734 0 1
89.5891 0 1
89.7047 0 1
89.8203 0 1
89.9358 0 1
92.3269 0 1
92.4424 0 1
92.558 0 1
92.6736 0 1
92.7893 0 1
92.905 0 1
93.0208 0 1
93.1366 0 1
93.2525 0 1
93.3685 0 1
93.4845 0 1
93.6005 2522 50.2195
93.7167 2549 50.4876
93.8328 2587 50.8626
93.949 2625 51.2348
94.0653 2638 51.3615
94.1816 2472 49.7192
94.2979 2314 48.1041
94.4143 2305 48.0104
94.5307 2037 45.1331
94.6472 2067 45.4643
94.7637 2305 48.0104
94.8803 2291 47.8644
94.9969 2396 48.949
95.1135 2354 48.518
95.2302 2504 50.04
95.3469 2560 50.5964
95.4637 2500 50
95.5805 2547 50.4678
95.6973 2496 49.96
95.8142 2590 50.892
95.9311 2674 51.7107
96.048 2560 50.5964
96.1649 2587 50.8626
96.2819 2612 51.1077
96.3989 2604 51.0294
96.516 2418 49.1732
96.633 2363 48.6107
96.7501 2261 47.55
96.8673 2360 48.5798
96.9844 2438 49.3761
97.1016 2375 48.734
97.2188 2481 49.8096
97.336 2499 49.99
97.4532 2496 49.96
97.5704 2593 50.9215
97.6877 2605 51.0392
97.805 2465 49.6488
97.9223 2425 49.2443
98.0396 2273 47.676
98.1569 2229 47.2123
98.2743 2144 46.3033
98.3916 2175 46.6369
98.509 2245 47.3814
98.6264 2235 47.2758
98.7438 2380 48.7852
98.8612 2448 49.4773
98.9786 2421 49.2037
99.096 2419 49.1833
99.2134 2516 50.1597
99.3308 2510 50.0999
99.4482 2532 50.319
99.5656 2417 49.163
99.6831 2478 49.7795
99.8005 2498 49.98
99.9179 2421 49.2037
100.035 2432 49.3153
100.153 2405 49.0408
100.27 2289 47.8435
100.388 2234 47.2652
100.505 2257 47.5079
100.622 2368 48.6621
100.74 2434 49.3356
100.857 2478 49.7795
100.975 2426 49.2544
101.092 2554 50.5371
101.209 2564 50.636
101.327 2666 51.6333
101.444 2592 50.9117
101.561 2410 49.0918
101.679 2339 48.3632
101.796 2180 46.6905
101.913 2159 46.465
102.03 2197 46.8722
102.148 2247 47.4025
102.265 2241 47.3392
102.382 2729 52.2398
102.499 2536 50.3587
102.616 2627 51.2543
102.733 2659 51.5655
102.851 2624 51.225
102.968 2690 51.8652
103.085 2628 51.264
103.202 2628 51.264
103.319 2698 51.9423
103.436 2676 51.7301
103.552 2596 50.951
103.669 2588 50.8724
103.786 2476 49.7594
103.903 2478 49.7795
104.02 2462 49.6185
104.137 2597 50.9608
104.253 2571 50.705
104.37 2668 51.6527
104.487 2749 52.4309
104.603 2766 52.5928
104.72 2764 52.5738
104.836 2795 52.8678
104.953 2685 51.817
105.069 2568 50.6754
105.186 2461 49.6085
105.302 2349 48.4665
105.418 2435 49.3457
105.535 2368 48.6621
105.651 2518 50.1797
105.767 2428 49.2747
105.883 2603 51.0196
105.999 2588 50.8724
106.115 0 1
106.231 0 1
106.347 0 1
106.463 0 1
106.579 0 1
106.694 0 1
106.81 0 1
106.926 0 1
107.041 0 1
107.157 0 1
109.576 0 1
109.692 0 1
109.807 0 1
109.923 0 1
110.039 0 1
110.155 0 1
110.27 0 1
110.386 0 1
110.502 0 1
110.618 2168 46.5618
110.735 2310 48.0625
110.851 2342 48.3942
110.967 2336 48.3322
111.083 2409 49.0816
111.199 2489 49.8899
111.316 2526 50.2593
111.432 2406 49.051
111.549 2576 50.7543
111.665 2444 49.4368
111.782 2475 49.7494
111.898 2432 49.3153
112.015 2291 47.8644
112.132 2308 48.0416
112.248 2196 46.8615
112.365 2119 46.0326
112.482 2163 46.5081
112.599 2125 46.0977
112.716 2303 47.9896
112.832 2244 47.3709
112.949 2346 48.4355
113.066 2227 47.1911
113.183 2270 47.6445
113.3 2247 47.4025
113.417 2163 46.5081
113.534 2201 46.9148
113.652 2052 45.299
113.769 1987 44.5758
113.886 1874 43.2897
114.003 1831 42.7902
114.12 1925 43.8748
114.238 1997 44.6878
114.355 1955 44.2154
114.472 2146 46.3249
114.589 1998 44.699
114.707 2155 46.422
114.824 2082 45.6289
114.942 2165 46.5296
115.059 2113 45.9674
115.176 2098 45.8039
115.294 2107 45.9021
115.411 1990 44.6094
115.529 1972 44.4072
115.646 1860 43.1277
115.764 1825 42.72
115.881 1658 40.7185
115.999 1671 40.8779
116.116 1716 41.4246
116.234 1750 41.833
116.351 1770 42.0714
116.469 1800 42.4264
116.586 1856 43.0813
116.704 1792 42.332
116.821 1906 43.6578
116.939 1877 43.3244
117.056 1796 42.3792
117.174 1715 41.4126
117.291 1644 40.5463
117.409 1614 40.1746
117.526 1511 38.8716
117.644 1563 39.5348
117.761 1584 39.7995
117.879 1641 40.5093
117.996 1713 41.3884
118.114 1766 42.0238
118.231 1787 42.2729
118.349 1797 42.391
118.466 1906 43.6578
118.584 1922 43.8406
118.701 1809 42.5323
118.819 1788 42.2847
118.936 1722 41.497
119.053 1802 42.45
119.171 1771 42.0833
119.288 1736 41.6653
119.405 1631 40.3856
119.523 1617 40.2119
119.64 1686 41.0609
119.757 1615 40.1871
119.875 1724 41.5211
119.992 1830 42.7785
120.109 1854 43.0581
120.226 1837 42.8602
120.343 1823 42.6966
120.46 1948 44.1362
120.578 1935 43.9886
120.695 2018 44.9222
120.812 1856 43.0813
120.929 1773 42.107
121.046 1745 41.7732
121.163 1724 41.5211
121.279 1739 41.7013
121.396 1695 41.1704
121.513 1871 43.2551
121.63 2009 44.8219
121.747 1984 44.5421
121.863 2077 45.5741
121.98 2059 45.3762
122.097 2081 45.618
122.213 2146 46.3249
122.33 2129 46.1411
122.446 2169 46.5725
122.563 2154 46.4112
122.679 2155 46.422
122.795 2162 46.4973
122.912 2063 45.4203
123.028 2060 45.3872
123.144 1975 44.441
123.26 1903 43.6234
123.377 0 1
123.493 0 1
123.609 0 1
123.725 0 1
123.84 0 1
123.956 0 1
124.072 0 1
124.188 0 1
124.303 0 1
124.419 0 1
126.852 0 1
126.968 0 1
127.083 0 1
127.199 0 1
127.315 0 1
127.431 0 1
127.547 0 1
127.663 0 1
127.779 0 1
127.895 0 1
128.011 0 1
128.127 0 1
128.243 0 1
128.359 2524 50.2394
128.476 2449 49.4874
128.592 2252 47.4552
128.708 2230 47.2229
128.825 2312 48.0833
128.941 2406 49.051
129.058 2568 50.6754
129.174 2494 49.94
129.291 2429 49.2849
129.408 2470 49.6991
129.524 2506 50.06
129.641 2430 49.295
129.758 2405 49.0408
129.875 2389 48.8774
129.992 2388 48.8672
130.108 2264 47.5815
130.225 2121 46.0543
130.342 2261 47.55
130.459 2221 47.1275
130.576 2342 48.3942
130.693 2386 48.8467
130.81 2447 49.4672
130.928 2407 49.0612
131.045 2451 49.5076
131.162 2553 50.5272
131.279 2479 49.7896
131.396 2431 49.3052
131.513 2463 49.6286
131.631 2527 50.2693
131.748 2422 49.2138
131.865 2323 48.1975
131.983 2216 47.0744
132.1 2139 46.2493
132.217 2096 45.7821
132.335 2106 45.8912
132.452 2257 47.5079
132.57 2324 48.2079
132.687 2324 48.2079
132.804 2373 48.7134
132.922 2325 48.2183
133.039 2420 49.1935
133.157 2362 48.6004
133.274 2326 48.2286
133.392 2294 47.8957
133.509 2203 46.9361
133.627 2120 46.0435
133.744 2096 45.7821
133.862 2139 46.2493
133.979 2112 45.9565
134.097 2184 46.7333
134.214 2323 48.1975
134.332 2209 47
134.449 2398 48.9694
134.567 2332 48.2908
134.684 2329 48.2597
134.802 2478 49.7795
134.919 2334 48.3115
135.037 2292 47.8748
135.154 2227 47.1911
135.272 2230 47.2229
135.389 2120 46.0435
135.507 2026 45.0111
135.624 1995 44.6654
135.742 1905 43.6463
135.859 1848 42.9884
135.977 1948 44.1362
136.094 1959 44.2606
136.211 1999 44.7102
136.329 1992 44.6318
136.446 1918 43.795
136.564 2065 45.4423
136.681 1976 44.4522
136.798 2043 45.1996
136.915 2013 44.8665
137.033 1857 43.0929
137.15 1853 43.0465
137.267 1805 42.4853
137.384 1755 41.8927
137.502 1714 41.4005
137.619 1888 43.4511
137.736 1866 43.1972
137.853 1936 44
137.97 2002 44.7437
138.087 2030 45.0555
138.204 2125 46.0977
138.321 2163 46.5081
138.438 2196 46.8615
138.555 2206 46.9681
138.672 2269 47.634
138.788 2242 47.3498
138.905 2201 46.9148
139.022 2167 46.551
139.139 2110 45.9347
139.255 1973 44.4185
139.372 2083 45.6399
139.488 2049 45.2659
139.605 2178 46.669
139.721 2203 46.9361
139.838 2365 48.6313
139.954 2277 47.7179
140.071 2328 48.2494
140.187 2409 49.0816
140.303 2310 48.0625
140.419 2365 48.6313
140.535 2410 49.0918
140.652 2218 47.0956
140.768 0 1
140.884 0 1
141 0 1
141.115 0 1
141.231 0 1
141.347 0 1
141.463 0 1
141.578 0 1
141.694 0 1
144.104 0 1
144.219 0 1
144.335 0 1
144.45 0 1
144.566 0 1
144.682 0 1
144.798 0 1
144.914 0 1
145.03 0 1
145.146 3415 58.438
145.262 3618 60.1498
145.378 3897 62.426
145.494 4055 63.6789
145.61 4235 65.0769
145.726 4286 65.4675
145.842 4171 64.5833
145.959 4373 66.1287
146.075 4307 65.6277
146.192 4330 65.8027
146.308 4735 68.8113
146.425 4951 70.3633
146.541 5497 74.1418
146.658 5847 76.4657
146.774 6122 78.2432
146.891 6396 79.975
147.008 6706 81.8902
147.125 6981 83.5524
147.241 7161 84.6227
147.358 7601 87.1837
147.475 7563 86.9655
147.592 7531 86.7813
147.709 7616 87.2697
147.826 7397 86.0058
147.943 7292 85.3932
148.06 7061 84.0298
148.177 7043 83.9226
148.294 7033 83.863
148.411 7375 85.8778
148.528 7632 87.3613
148.645 7919 88.9888
148.762 8017 89.5377
148.88 7978 89.3197
148.997 8181 90.4489
149.114 7427 86.18
149.231 7655 87.4929
149.349 7159 84.6109
149.466 7152 84.5695
149.583 6708 81.9024
149.701 6343 79.643
149.818 6300 79.3725
149.935 6551 80.9382
150.053 6633 81.4432
150.17 6894 83.0301
150.287 6985 83.5763
150.405 7334 85.6388
150.522 7492 86.5563
150.64 7503 86.6199
150.757 7535 86.8044
150.875 7676 87.6128
150.992 7735 87.9488
151.11 7699 87.7439
151.227 7461 86.3771
151.344 7605 87.2067
151.462 7357 85.773
151.579 7029 83.8391
151.697 6961 83.4326
151.814 6940 83.3067
151.932 7239 85.0823
152.049 7636 87.3842
152.167 7938 89.0955
152.284 8195 90.5262
152.402 8167 90.3715
152.519 8377 91.526
152.636 8351 91.3838
152.754 8352 91.3893
152.871 8257 90.868
152.989 7705 87.7781
153.106 7566 86.9828
153.223 7149 84.5518
153.341 6861 82.8312
153.458 6919 83.1805
153.575 7173 84.6936
153.693 7562 86.9598
153.81 7678 87.6242
153.927 8085 89.9166
154.044 8287 91.033
154.162 8235 90.7469
154.279 8741 93.4933
154.396 8975 94.7365
154.513 8998 94.8578
154.63 9410 97.0052
154.747 9256 96.2081
154.864 9125 95.5249
154.981 8997 94.8525
155.098 8653 93.0215
155.215 8664 93.0806
155.332 8344 91.3455
155.449 8541 92.4175
155.566 8867 94.1647
155.683 9231 96.0781
155.8 9677 98.3717
155.917 9937 99.6845
156.033 10127 100.633
156.15 0 1
156.267 0 1
156.383 0 1
156.5 0 1
156.617 0 1
156.733 0 1
156.85 0 1
156.966 0 1
157.082 0 1
157.199 0 1
157.315 0 1
157.431 0 1
157.547 0 1
157.664 0 1
157.78 0 1
157.896 0 1
158.012 0 1
158.128 0 1
158.244 0 1
158.359 0 1
158.475 0 1
158.591 0 1
158.706 0 1
