
6.15755 0 1
6.2731 0 1
6.3887 0 1
6.50437 0 1
6.62009 0 1
6.73587 0 1
6.8517 0 1
6.96759 0 1
7.08353 0 1
7.19952 0 1
7.31557 0 1
7.43166 0 1
7.54781 0 1
7.664 0 1
7.78024 0 1
7.89653 0 1
8.01286 0 1
8.12924 0 1
8.24567 0 1
8.36213 0 1
8.47864 0 1
8.59519 0 1
8.71178 0 1
8.82841 0 1
8.94508 0 1
9.06179 0 1
9.17853 0 1
9.29531 0 1
9.41212 0 1
9.52897 0 1
9.64584 0 1
9.76276 0 1
9.8797 0 1
9.99667 0 1
10.1137 0 1
10.2307 0 1
10.3478 0 1
10.4648 0 1
10.5819 0 1
10.6991 0 1
10.8162 0 1
10.9334 0 1
11.0506 0 1
11.1678 0 1
11.285 0 1
11.4023 0 1
11.5196 0 1
11.6369 0 1
11.7542 0 1
11.8715 0 1
11.9888 0 1
12.1062 0 1
12.2235 0 1
12.3409 0 1
12.4582 0 1
12.5756 0 1
12.693 0 1
12.8104 0 1
12.9278 0 1
13.0452 0 1
13.1626 0 1
13.28 0 1
13.3974 0 1
13.5149 0 1
13.6323 0 1
13.7497 0 1
13.8671 0 1
13.9845 0 1
14.1019 0 1
14.2193 0 1
14.3367 0 1
14.4541 0 1
14.5714 0 1
14.6888 0 1
14.8062 0 1
14.9235 0 1
15.0408 0 0
15.1581 0 0
15.2755 0 0
15.3927 0 0
15.51 0 0
15.6273 0 0
15.7445 0 0
15.8617 0 0
15.9789 0 0
16.0961 0 0
16.2132 0 0
16.3304 0 0
16.4475 0 0
16.5646 0 0
16.6816 0 0
16.7986 0 0
16.9156 0 0
17.0326 0 0
17.1496 0 0
17.2665 0 0
17.3833 0 0
17.5002 0 0
17.617 0 0
17.7338 0 0
17.8505 0 0
17.9672 0 0
18.0839 0 0
18.2005 0 0
18.3171 0 0
18.4337 0 0
18.5502 0 0
18.6666 0 0
18.7831 0 0
18.8994 0 0
19.0158 0 0
19.1321 0 0
19.2483 0 0
19.3645 0 0
19.4806 0 0
19.5967 0 0
19.7128 0 0
19.8288 0 0
19.9447 0 0
20.0606 0 1
20.1764 0 1
20.2922 0 1
20.4079 0 1
20.5236 0 1
20.6392 0 1
20.7548 0 1
20.8702 0 1
23.3078 0 1
23.4233 0 1
23.539 0 1
23.6547 0 1
23.7704 0 1
23.8862 0 1
24.0021 0 1
24.118 0 1
24.234 0 1
24.35 0 1
24.4661 5051 71.0704
24.5822 5511 74.2361
24.6984 6228 78.9177
24.8146 6423 80.1436
24.9309 7031 83.8511
25.0472 7338 85.6621
25.1636 7771 88.1533
25.28 8255 90.857
25.3965 8812 93.8723
25.513 9451 97.2163
25.6296 9816 99.0757
25.7462 9982 99.91
25.8628 9985 99.925
25.9795 10069 100.344
26.0962 10069 100.344
26.213 10000 100
26.3298 9700 98.4886
26.4466 9603 97.9949
26.5635 9137 95.5877
26.6804 8908 94.3822
26.7973 8774 93.6696
26.9143 8803 93.8243
27.0313 9286 96.3639
27.1483 9285 96.3587
27.2653 9688 98.4276
27.3824 9622 98.0918
27.4996 9635 98.158
27.6167 9326 96.5712
27.7339 9198 95.9062
27.8511 9112 95.4568
27.9683 9131 95.5563
28.0855 8765 93.6216
28.2028 8671 93.1182
28.3201 8365 91.4604
28.4374 8340 91.3236
28.5547 8294 91.0714
28.6721 8561 92.5257
28.7894 8579 92.6229
28.9068 8974 94.7312
29.0242 9279 96.3276
29.1416 9567 97.811
29.259 9918 99.5892
29.3764 9689 98.4327
29.4939 10264 101.311
29.6113 9873 99.363
29.7288 10014 100.07
29.8463 9654 98.2548
29.9638 9620 98.0816
30.0812 9296 96.4158
30.1987 8644 92.9731
30.3162 8394 91.6188
30.4337 8531 92.3634
30.5512 8968 94.6995
30.6687 9067 95.2208
30.7862 9353 96.7109
30.9037 9379 96.8452
31.0212 9617 98.0663
31.1387 9386 96.8814
31.2562 9465 97.2882
31.3737 9219 96.0156
31.4912 9205 95.9427
31.6087 8928 94.4881
31.7262 8797 93.7923
31.8436 8518 92.293
31.9611 8504 92.2171
32.0785 8242 90.7855
32.1959 8312 91.1702
32.3134 8428 91.8041
32.4308 8663 93.0752
32.5482 8827 93.9521
32.6655 9340 96.6437
32.7829 9585 97.903
32.9002 9670 98.3362
33.0176 9722 98.6002
33.1349 9810 99.0454
33.2522 9695 98.4632
33.3694 9631 98.1377
33.4867 9827 99.1312
33.6039 9551 97.7292
33.7211 9268 96.2705
33.8383 8583 92.6445
33.9554 8364 91.4549
34.0725 8242 90.7855
34.1896 8168 90.377
34.3067 8562 92.5311
34.4237 8718 93.3702
34.5407 8928 94.4881
34.6577 9092 95.352
34.7746 9168 95.7497
34.8915 9042 95.0894
35.0084 9013 94.9368
35.1252 8823 93.9308
35.242 8688 93.2094
35.3587 8623 92.8601
35.4755 8394 91.6188
35.5921 8247 90.813
35.7088 8131 90.1721
35.8254 7860 88.6566
35.9419 7621 87.2983
36.0584 7872 88.7243
36.1749 7896 88.8594
36.2913 7801 88.3233
36.4077 7593 87.1378
36.524 7808 88.3629
36.6403 7630 87.3499
36.7565 7396 86
36.8727 7218 84.9588
36.9889 6931 83.2526
37.1049 6415 80.0937
37.221 0 1
37.3369 0 1
37.4529 0 1
37.5687 0 1
37.6845 0 1
37.8003 0 1
37.916 0 1
38.0316 0 1
38.1472 0 1
40.5851 0 1
40.7008 0 1
40.8164 0 1
40.9322 0 1
41.048 0 1
41.1639 0 1
41.2798 0 1
41.3958 0 1
41.5118 0 1
41.6279 0 1
41.744 5387 73.3962
41.8602 5804 76.184
41.9765 6224 78.8923
42.0928 6465 80.4052
42.2091 6946 83.3427
42.3255 6877 82.9277
42.4419 6756 82.1949
42.5584 6689 81.7863
42.675 6429 80.181
42.7915 6621 81.3695
42.9081 6993 83.6242
43.0248 7038 83.8928
43.1415 7300 85.44
43.2582 7619 87.2869
43.375 7709 87.8009
43.4918 7913 88.955
43.6087 7782 88.2156
43.7256 7716 87.8408
43.8425 7549 86.885
43.9595 7505 86.6314
44.0765 7295 85.4108
44.1935 7317 85.5395
44.3106 7004 83.6899
44.4277 6900 83.0662
44.5448 6689 81.7863
44.6619 6689 81.7863
44.7791 6917 83.1685
44.8963 7154 84.5813
45.0136 7364 85.8138
45.1308 7647 87.4471
45.2481 7837 88.5268
45.3654 8089 89.9389
45.4827 8127 90.1499
45.6001 8176 90.4212
45.7174 8158 90.3216
45.8348 8103 90.0167
45.9522 7969 89.2693
46.0697 7652 87.4757
46.1871 6960 83.4266
46.3046 6672 81.6823
46.422 6596 81.2158
46.5395 7023 83.8033
46.657 7266 85.2408
46.7745 7365 85.8196
46.892 7790 88.261
47.0096 7979 89.3252
47.1271 8077 89.8721
47.2446 8085 89.9166
47.3622 8057 89.7608
47.4797 7770 88.1476
47.5973 7738 87.9659
47.7149 7520 86.7179
47.8324 7422 86.151
47.95 7204 84.8764
48.0675 6998 83.654
48.1851 6764 82.2435
48.3027 6715 81.9451
48.4202 6813 82.5409
48.5378 7210 84.9117
48.6554 7401 86.0291
48.7729 7755 88.0625
48.8904 8043 89.6828
49.008 7957 89.202
49.1255 8132 90.1776
49.243 8003 89.4595
49.3605 8050 89.7218
49.478 7848 88.5889
49.5955 7442 86.267
49.713 6941 83.3127
49.8304 6439 80.2434
49.9479 6024 77.6144
50.0653 6239 78.9873
50.1827 6566 81.0309
50.3001 7007 83.7078
50.4175 7308 85.4868
50.5348 7554 86.9138
50.6521 7739 87.9716
50.7694 7654 87.4871
50.8867 7801 88.3233
51.004 7728 87.909
51.1212 7574 87.0287
51.2384 7417 86.122
51.3556 7228 85.0176
51.4727 7014 83.7496
51.5899 6798 82.45
51.707 6622 81.3757
51.824 6578 81.1049
51.9411 6609 81.2958
52.0581 6870 82.8855
52.175 7183 84.7526
52.2919 7503 86.6199
52.4088 7899 88.8763
52.5257 8036 89.6437
52.6425 7969 89.2693
52.7593 7938 89.0955
52.876 7977 89.3141
52.9927 7836 88.5212
53.1094 7686 87.6698
53.226 7305 85.4693
53.3426 6697 81.8352
53.4591 6141 78.3645
53.5756 5719 75.6241
53.692 5503 74.1822
53.8084 5320 72.9383
53.9248 5250 72.4569
54.0411 5183 71.9931
54.1573 4845 69.606
54.2735 0 1
54.3896 0 1
54.5057 0 1
54.6217 0 1
54.7377 0 1
54.8537 0 1
54.9695 0 1
55.0853 0 1
55.2011 0 1
55.3168 0 1
55.4324 0 1
57.824 0 1
57.9396 0 1
58.0553 0 1
58.1711 0 1
58.2869 0 1
58.4028 0 1
58.5187 0 1
58.6347 0 1
58.7508 0 1
58.8669 0 1
58.983 6182 78.6257
59.0992 7191 84.7998
59.2155 7651 87.47
59.3318 8069 89.8276
59.4482 8496 92.1737
59.5646 8642 92.9624
59.681 8664 93.0806
59.7975 8858 94.1169
59.9141 9027 95.0105
60.0306 8700 93.2738
60.1473 8491 92.1466
60.2639 8206 90.587
60.3807 8043 89.6828
60.4974 8144 90.2441
60.6142 8625 92.8709
60.731 8941 94.5569
60.8479 9288 96.3743
60.9648 9626 98.1122
61.0818 9650 98.2344
61.1987 9752 98.7522
61.3158 9571 97.8315
61.4328 9464 97.2831
61.5499 9380 96.8504
61.667 9112 95.4568
61.7841 8665 93.086
61.9013 8013 89.5154
62.0185 7742 87.9886
62.1357 7824 88.4534
62.253 8219 90.6587
62.3702 8634 92.9193
62.4875 8876 94.2125
62.6049 9321 96.5453
62.7222 9533 97.6371
62.8396 9420 97.0567
62.9569 9475 97.3396
63.0743 9468 97.3036
63.1918 9338 96.6333
63.3092 9139 95.5981
63.4267 8935 94.5251
63.5441 8748 93.5307
63.6616 8438 91.8586
63.7791 7967 89.2581
63.8966 8036 89.6437
64.0142 8125 90.1388
64.1317 8119 90.1055
64.2492 8489 92.1358
64.3668 8955 94.6309
64.4843 9120 95.4987
64.6019 9353 96.7109
64.7195 9574 97.8468
64.837 9586 97.9081
64.9546 9519 97.5654
65.0722 9646 98.2141
65.1898 9206 95.9479
65.3074 9099 95.3887
65.4249 8165 90.3604
65.5425 7741 87.983
65.6601 7292 85.3932
65.7777 7259 85.1998
65.8952 7422 86.151
66.0128 8182 90.4544
66.1304 8565 92.5473
66.2479 8636 92.9301
66.3655 9056 95.163
66.483 9222 96.0312
66.6005 9297 96.421
66.718 9383 96.8659
66.8355 9170 95.7601
66.953 8981 94.7681
67.0705 8824 93.9361
67.1879 8583 92.6445
67.3054 8381 91.5478
67.4228 8165 90.3604
67.5402 7619 87.2869
67.6576 7506 86.6372
67.7749 7699 87.7439
67.8923 8177 90.4268
68.0096 8422 91.7715
68.1269 8696 93.2523
68.2442 8943 94.5674
68.3614 9103 95.4096
68.4787 9105 95.4201
68.5958 9109 95.4411
68.713 9142 95.6138
68.8302 9056 95.163
68.9473 8801 93.8136
69.0643 8479 92.0815
69.1814 7635 87.3785
69.2984 7216 84.947
69.4154 6933 83.2646
69.5323 7297 85.4225
69.6492 7472 86.4407
69.7661 7818 88.4195
69.8829 7887 88.8088
69.9997 8055 89.7497
70.1165 7959 89.2132
70.2332 7813 88.3912
70.3499 7601 87.1837
70.4665 7244 85.1117
70.5831 6809 82.5167
70.6996 6531 80.8146
70.8161 6016 77.5629
70.9326 5659 75.2263
71.049 5122 71.5681
71.1653 4609 67.8896
71.2817 4135 64.304
71.3979 3718 60.9754
71.5141 3385 58.1808
71.6303 3238 56.9034
71.7464 2924 54.074
71.8624 0 1
71.9784 0 1
72.0944 0 1
72.2102 0 1
72.3261 0 1
72.4418 0 1
72.5575 0 1
72.6732 0 1
75.1054 0 1
75.2209 0 1
75.3365 0 1
75.4521 0 1
75.5678 0 1
75.6835 0 1
75.7993 0 1
75.9151 0 1
76.031 0 1
76.147 6055 77.8139
76.263 6583 81.1357
76.3791 6539 80.8641
76.4952 6675 81.7007
76.6113 6726 82.0122
76.7276 7051 83.9702
76.8438 7495 86.5737
76.9601 7764 88.1136
77.0765 8256 90.8625
77.1929 8445 91.8967
77.3093 8434 91.8368
77.4258 8553 92.4824
77.5423 8487 92.1249
77.6589 8373 91.5041
77.7755 8130 90.1665
77.8921 7594 87.1436
78.0088 7358 85.7788
78.1256 6667 81.6517
78.2423 6361 79.7559
78.3591 6180 78.613
78.4759 6473 80.455
78.5928 7018 83.7735
78.7097 7526 86.7525
78.8266 7858 88.6454
78.9436 8016 89.5321
79.0606 8410 91.7061
79.1776 8386 91.5751
79.2946 8349 91.3729
79.4117 8546 92.4446
79.5288 8542 92.4229
79.6459 8405 91.6788
79.7631 8245 90.802
79.8802 7942 89.1179
79.9974 7788 88.2496
80.1147 7308 85.4868
80.2319 7162 84.6286
80.3491 7121 84.386
80.4664 7621 87.2983
80.5837 8010 89.4986
80.701 8436 91.8477
80.8183 8768 93.6376
80.9357 8844 94.0425
81.053 8645 92.9785
81.1704 8697 93.2577
81.2877 8974 94.7312
81.4051 8797 93.7923
81.5225 8659 93.0537
81.6399 7961 89.2244
81.7573 7502 86.6141
81.8747 6837 82.6862
81.9922 6532 80.8208
82.1096 6387 79.9187
82.227 6845 82.7345
82.3444 7246 85.1234
82.4619 7905 88.9101
82.5793 8568 92.5635
82.6967 8198 90.5428
82.8142 8593 92.6984
82.9316 8857 94.1116
83.049 8825 93.9415
83.1664 8847 94.0585
83.2838 8600 92.7362
83.4012 8538 92.4013
83.5186 8508 92.2388
83.636 8157 90.3161
83.7534 7819 88.4251
83.8708 7531 86.7813
83.9881 7412 86.093
84.1055 7327 85.5979
84.2228 7597 87.1608
84.3401 8222 90.6752
84.4575 8509 92.2442
84.5747 8809 93.8563
84.692 9043 95.0947
84.8093 9065 95.2103
84.9265 8949 94.5992
85.0437 8981 94.7681
85.1609 8734 93.4559
85.2781 8039 89.6605
85.3952 7435 86.2264
85.5123 6981 83.5524
85.6294 6648 81.5353
85.7465 6609 81.2958
85.8636 7090 84.2021
85.9806 7366 85.8254
86.0976 7884 88.7919
86.2145 8352 91.3893
86.3315 8253 90.846
86.4484 8866 94.1594
86.5652 8846 94.0532
86.682 8823 93.9308
86.7988 8618 92.8332
86.9156 8773 93.6643
87.0323 8403 91.6679
87.149 8078 89.8777
87.2657 7848 88.5889
87.3823 7239 85.0823
87.4988 6627 81.4064
87.6154 5922 76.9545
87.7318 6104 78.1281
87.8483 6132 78.3071
87.9647 6090 78.0385
88.081 6349 79.6806
88.1973 6222 78.8797
88.3136 6104 78.1281
88.4298 5859 76.5441
88.546 5490 74.0945
88.6621 4866 69.7567
88.7781 4299 65.5668
88.8942 0 1
89.0101 0 1
89.126 0 1
89.2419 0 1
89.3577 0 1
89.4734 0 1
89.5891 0 1
89.7047 0 1
89.8203 0 1
89.9358 0 1
92.3269 0 1
92.4424 0 1
92.558 0 1
92.6736 0 1
92.7893 0 1
92.905 0 1
93.0208 0 1
93.1366 0 1
93.2525 0 1
93.3685 0 1
93.4845 0 1
93.6005 8608 92.7793
93.7167 8852 94.0851
93.8328 8709 93.322
93.949 8694 93.2416
94.0653 8098 89.9889
94.1816 7584 87.0862
94.2979 7366 85.8254
94.4143 7370 85.8487
94.5307 7670 87.5785
94.6472 7964 89.2412
94.7637 8552 92.477
94.8803 8641 92.957
94.9969 9176 95.7914
95.1135 9265 96.2549
95.2302 9636 98.1631
95.3469 9586 97.9081
95.4637 9630 98.1326
95.5805 9347 96.6799
95.6973 9321 96.5453
95.8142 9251 96.1821
95.9311 8811 93.8669
96.048 8582 92.6391
96.1649 8366 91.4658
96.2819 8084 89.9111
96.3989 8448 91.913
96.516 8831 93.9734
96.633 9149 95.6504
96.7501 9582 97.8877
96.8673 9729 98.6357
96.9844 9683 98.4022
97.1016 9605 98.0051
97.2188 9484 97.3858
97.336 9079 95.2838
97.4532 8635 92.9247
97.5704 7880 88.7694
97.6877 7401 86.0291
97.805 7007 83.7078
97.9223 7005 83.6959
98.0396 7404 86.0465
98.1569 7898 88.8707
98.2743 8366 91.4658
98.3916 8788 93.7443
98.509 8800 93.8083
98.6264 9278 96.3224
98.7438 9269 96.2756
98.8612 9386 96.8814
98.9786 9358 96.7368
99.096 9523 97.5859
99.2134 9361 96.7523
99.3308 8911 94.3981
99.4482 8870 94.1807
99.5656 8345 91.351
99.6831 8170 90.3881
99.8005 7987 89.37
99.9179 8278 90.9835
100.035 8600 92.7362
100.153 8869 94.1754
100.27 9247 96.1613
100.388 9199 95.9114
100.505 9235 96.0989
100.622 9371 96.8039
100.74 9332 96.6023
100.857 9215 95.9948
100.975 8629 92.8924
101.092 8428 91.8041
101.209 7755 88.0625
101.327 7038 83.8928
101.444 6735 82.067
101.561 6578 81.1049
101.679 6940 83.3067
101.796 7493 86.5621
101.913 7777 88.1873
102.03 8173 90.4046
102.148 8500 92.1954
102.265 8414 91.7279
102.382 9018 94.9632
102.499 8778 93.691
102.616 8781 93.707
102.733 8892 94.2974
102.851 8882 94.2444
102.968 8716 93.3595
103.085 8722 93.3916
103.202 8328 91.2579
103.319 7972 89.2861
103.436 7609 87.2296
103.552 7663 87.5386
103.669 7713 87.8237
103.786 8160 90.3327
103.903 8324 91.236
104.02 8832 93.9787
104.137 8949 94.5992
104.253 8898 94.3292
104.37 8479 92.0815
104.487 8248 90.8185
104.603 7948 89.1516
104.72 7599 87.1722
104.836 7111 84.3267
104.953 6480 80.4984
105.069 5946 77.1103
105.186 5495 74.1283
105.302 5211 72.1873
105.418 5081 71.2811
105.535 4882 69.8713
105.651 4859 69.7065
105.767 4741 68.8549
105.883 4372 66.1211
105.999 4024 63.435
106.115 0 1
106.231 0 1
106.347 0 1
106.463 0 1
106.579 0 1
106.694 0 1
106.81 0 1
106.926 0 1
107.041 0 1
107.157 0 1
109.576 0 1
109.692 0 1
109.807 0 1
109.923 0 1
110.039 0 1
110.155 0 1
110.27 0 1
110.386 0 1
110.502 0 1
110.618 5748 75.8156
110.735 6865 82.8553
110.851 7518 86.7064
110.967 8191 90.5041
111.083 8761 93.6002
111.199 9248 96.1665
111.316 9532 97.632
111.432 9579 97.8724
111.549 9631 98.1377
111.665 9589 97.9234
111.782 9543 97.6883
111.898 9321 96.5453
112.015 9038 95.0684
112.132 8775 93.675
112.248 8565 92.5473
112.365 8799 93.803
112.482 8835 93.9947
112.599 9482 97.3756
112.716 9953 99.7647
112.832 9933 99.6644
112.949 9720 98.5901
113.066 9819 99.0909
113.183 9850 99.2472
113.3 9626 98.1122
113.417 9500 97.4679
113.534 8913 94.4087
113.652 8157 90.3161
113.769 7771 88.1533
113.886 7278 85.3112
114.003 7042 83.9166
114.12 7588 87.1091
114.238 8002 89.4539
114.355 8573 92.5905
114.472 8424 91.7824
114.589 9430 97.1082
114.707 9183 95.828
114.824 9457 97.2471
114.942 9567 97.811
115.059 9659 98.2802
115.176 9472 97.3242
115.294 9446 97.1905
115.411 9286 96.3639
115.529 9174 95.781
115.646 8778 93.691
115.764 8520 92.3038
115.881 8416 91.7388
115.999 8459 91.9728
116.116 8624 92.8655
116.234 8904 94.361
116.351 9357 96.7316
116.469 9220 96.0208
116.586 9232 96.0833
116.704 9454 97.2317
116.821 9535 97.6473
116.939 9244 96.1457
117.056 8983 94.7787
117.174 8345 91.351
117.291 7684 87.6584
117.409 7238 85.0764
117.526 6719 81.9695
117.644 6578 81.1049
117.761 6947 83.3487
117.879 7481 86.4928
117.996 7779 88.1986
118.114 7939 89.1011
118.231 8437 91.8531
118.349 8280 90.9945
118.466 8483 92.1032
118.584 8727 93.4184
118.701 8727 93.4184
118.819 8714 93.3488
118.936 8474 92.0543
119.053 8308 91.1482
119.171 8169 90.3825
119.288 7859 88.651
119.405 7709 87.8009
119.523 7454 86.3366
119.64 7501 86.6083
119.757 7660 87.5214
119.875 8048 89.7106
119.992 8219 90.6587
120.109 8387 91.5806
120.226 8510 92.2497
120.343 8350 91.3783
120.46 8567 92.5581
120.578 8241 90.78
120.695 8085 89.9166
120.812 7786 88.2383
120.929 7273 85.2819
121.046 6882 82.9578
121.163 6439 80.2434
121.279 6234 78.9557
121.396 5989 77.3886
121.513 6180 78.613
121.63 6298 79.3599
121.747 6322 79.511
121.863 6506 80.6598
121.98 6418 80.1124
122.097 6392 79.95
122.213 6457 80.3555
122.33 6132 78.3071
122.446 6041 77.7239
122.563 5706 75.5381
122.679 5396 73.4575
122.795 5108 71.4703
122.912 4720 68.7023
123.028 4453 66.7308
123.144 4062 63.7338
123.26 3804 61.6766
123.377 0 1
123.493 0 1
123.609 0 1
123.725 0 1
123.84 0 1
123.956 0 1
124.072 0 1
124.188 0 1
124.303 0 1
124.419 0 1
126.852 0 1
126.968 0 1
127.083 0 1
127.199 0 1
127.315 0 1
127.431 0 1
127.547 0 1
127.663 0 1
127.779 0 1
127.895 0 1
128.011 0 1
128.127 0 1
128.243 0 1
128.359 7615 87.264
128.476 7895 88.8538
128.592 8235 90.7469
128.708 8489 92.1358
128.825 8697 93.2577
128.941 8886 94.2656
129.058 9052 95.142
129.174 9121 95.5039
129.291 9080 95.289
129.408 8781 93.707
129.524 8568 92.5635
129.641 8284 91.0165
129.758 7800 88.3176
129.875 7315 85.5278
129.992 7158 84.605
130.108 6885 82.9759
130.225 7199 84.8469
130.342 7271 85.2702
130.459 7233 85.047
130.576 8147 90.2607
130.693 7922 89.0056
130.81 8254 90.8515
130.928 8486 92.1195
131.045 8667 93.0967
131.162 8769 93.6429
131.279 8985 94.7892
131.396 8811 93.8669
131.513 8704 93.2952
131.631 8518 92.293
131.748 8419 91.7551
131.865 7995 89.4148
131.983 8271 90.945
132.1 8253 90.846
132.217 8322 91.225
132.335 8665 93.086
132.452 8694 93.2416
132.57 8971 94.7154
132.687 8597 92.72
132.804 9364 96.7678
132.922 9174 95.781
133.039 8905 94.3663
133.157 8692 93.2309
133.274 8215 90.6366
133.392 7867 88.6961
133.509 7414 86.1046
133.627 7023 83.8033
133.744 6911 83.1324
133.862 6943 83.3247
133.979 7237 85.0706
134.097 7567 86.9885
134.214 7946 89.1403
134.332 7953 89.1796
134.449 8328 91.2579
134.567 8415 91.7333
134.684 8613 92.8062
134.802 8667 93.0967
134.919 8792 93.7657
135.037 8557 92.5041
135.154 8480 92.0869
135.272 8295 91.0769
135.389 8356 91.4112
135.507 7894 88.8482
135.624 7820 88.4308
135.742 7912 88.9494
135.859 8264 90.9065
135.977 8575 92.6013
136.094 8649 93
136.211 8824 93.9361
136.329 8732 93.4452
136.446 8808 93.8509
136.564 8633 92.9139
136.681 8883 94.2497
136.798 8618 92.8332
136.915 8343 91.34
137.033 7664 87.5443
137.15 7370 85.8487
137.267 6983 83.5643
137.384 6791 82.4075
137.502 6570 81.0555
137.619 6693 81.8108
137.736 7169 84.6699
137.853 7312 85.5102
137.97 7773 88.1646
138.087 7507 86.6429
138.204 7922 89.0056
138.321 7991 89.3924
138.438 8150 90.2774
138.555 8375 91.515
138.672 8360 91.433
138.788 7983 89.3476
138.905 7771 88.1533
139.022 7374 85.872
139.139 6921 83.1925
139.255 6640 81.4862
139.372 6451 80.3181
139.488 6389 79.9312
139.605 6473 80.455
139.721 6160 78.4857
139.838 6309 79.4292
139.954 5922 76.9545
140.071 5386 73.3894
140.187 5205 72.1457
140.303 4836 69.5414
140.419 4587 67.7274
140.535 4139 64.3351
140.652 3713 60.9344
140.768 0 1
140.884 0 1
141 0 1
141.115 0 1
141.231 0 1
141.347 0 1
141.463 0 1
141.578 0 1
141.694 0 1
144.104 0 1
144.219 0 1
144.335 0 1
144.45 0 1
144.566 0 1
144.682 0 1
144.798 0 1
144.914 0 1
145.03 0 1
145.146 6654 81.5721
145.262 6788 82.3893
145.378 6927 83.2286
145.494 6648 81.5353
145.61 6355 79.7183
145.726 5963 77.2205
145.842 5722 75.6439
145.959 5727 75.6769
146.075 5593 74.7864
146.192 5641 75.1066
146.308 5807 76.2037
146.425 5920 76.9415
146.541 6095 78.0705
146.658 6290 79.3095
146.774 6407 80.0437
146.891 6620 81.3634
147.008 6690 81.7924
147.125 6889 83
147.241 6957 83.4086
147.358 6978 83.5344
147.475 6751 82.1645
147.592 6535 80.8393
147.709 6401 80.0062
147.826 6317 79.4796
147.943 6274 79.2086
148.06 6468 80.4239
148.177 6672 81.6823
148.294 6949 83.3607
148.411 7052 83.9762
148.528 7166 84.6522
148.645 7210 84.9117
148.762 7223 84.9882
148.88 7165 84.6463
148.997 6856 82.801
149.114 7182 84.7467
149.231 6786 82.3772
149.349 6547 80.9135
149.466 5939 77.0649
149.583 5862 76.5637
149.701 5577 74.6793
149.818 5669 75.2928
149.935 5717 75.6108
150.053 5670 75.2994
150.17 6002 77.4726
150.287 6052 77.7946
150.405 6148 78.4092
150.522 6435 80.2185
150.64 6578 81.1049
150.757 6583 81.1357
150.875 6746 82.134
150.992 6855 82.7949
151.11 6529 80.8022
151.227 6630 81.4248
151.344 6359 79.7433
151.462 6204 78.7655
151.579 6047 77.7625
151.697 6228 78.9177
151.814 6220 78.867
151.932 6614 81.3265
152.049 6899 83.0602
152.167 6933 83.2646
152.284 6928 83.2346
152.402 6951 83.3727
152.519 6906 83.1023
152.636 6955 83.3966
152.754 6815 82.553
152.871 6566 81.0309
152.989 6197 78.721
153.106 6016 77.5629
153.223 5580 74.6994
153.341 5419 73.6139
153.458 5285 72.698
153.575 5386 73.3894
153.693 5458 73.8783
153.81 5614 74.9266
153.927 5729 75.6902
154.044 6125 78.2624
154.162 5909 76.87
154.279 6162 78.4984
154.396 6387 79.9187
154.513 6318 79.4858
154.63 6631 81.431
154.747 6521 80.7527
154.864 6355 79.7183
154.981 6210 78.8036
155.098 6050 77.7817
155.215 6025 77.6209
155.332 5924 76.9675
155.449 6115 78.1985
155.566 6074 77.9359
155.683 6470 80.4363
155.8 6472 80.4487
155.917 6386 79.9125
156.033 6193 78.6956
156.15 0 1
156.267 0 1
156.383 0 1
156.5 0 1
156.617 0 1
156.733 0 1
156.85 0 1
156.966 0 1
157.082 0 1
157.199 0 1
157.315 0 1
157.431 0 1
157.547 0 1
157.664 0 1
157.78 0 1
157.896 0 1
158.012 0 1
158.128 0 1
158.244 0 1
158.359 0 1
158.475 0 1
158.591 0 1
158.706 0 1
