
6.15755 0 1
6.2731 0 1
6.3887 0 1
6.50437 0 1
6.62009 0 1
6.73587 0 1
6.8517 0 1
6.96759 0 1
7.08353 0 1
7.19952 0 1
7.31557 0 1
7.43166 0 1
7.54781 0 1
7.664 0 1
7.78024 0 1
7.89653 0 1
8.01286 0 1
8.12924 0 1
8.24567 0 1
8.36213 0 1
8.47864 0 1
8.59519 0 1
8.71178 0 1
8.82841 0 1
8.94508 0 1
9.06179 0 1
9.17853 0 1
9.29531 0 1
9.41212 0 1
9.52897 0 1
9.64584 0 1
9.76276 0 1
9.8797 0 1
9.99667 0 1
10.1137 0 1
10.2307 0 1
10.3478 0 1
10.4648 0 1
10.5819 0 1
10.6991 0 1
10.8162 0 1
10.9334 0 1
11.0506 0 1
11.1678 0 1
11.285 0 1
11.4023 0 1
11.5196 0 1
11.6369 0 1
11.7542 0 1
11.8715 0 1
11.9888 0 1
12.1062 0 1
12.2235 0 1
12.3409 0 1
12.4582 0 1
12.5756 0 1
12.693 0 1
12.8104 0 1
12.9278 0 1
13.0452 0 1
13.1626 0 1
13.28 0 1
13.3974 0 1
13.5149 0 1
13.6323 0 1
13.7497 0 1
13.8671 0 1
13.9845 0 1
14.1019 0 1
14.2193 0 1
14.3367 0 1
14.4541 0 1
14.5714 0 1
14.6888 0 1
14.8062 0 1
14.9235 0 1
15.0408 10421 102.083
15.1581 10717 103.523
15.2755 10803 103.937
15.3927 10737 103.619
15.51 10731 103.591
15.6273 10516 102.548
15.7445 10158 100.787
15.8617 10267 101.326
15.9789 10555 102.738
16.0961 10753 103.697
16.2132 11426 106.892
16.3304 11892 109.05
16.4475 12278 110.806
16.5646 12261 110.729
16.6816 12229 110.585
16.7986 12193 110.422
16.9156 12060 109.818
17.0326 12111 110.05
17.1496 12094 109.973
17.2665 12025 109.659
17.3833 11906 109.115
17.5002 12045 109.75
17.617 12036 109.709
17.7338 12420 111.445
17.8505 12531 111.942
17.9672 12776 113.031
18.0839 13108 114.49
18.2005 13219 114.974
18.3171 13591 116.58
18.4337 13623 116.718
18.5502 14292 119.549
18.6666 14149 118.95
18.7831 14342 119.758
18.8994 14097 118.731
19.0158 13936 118.051
19.1321 13381 115.676
19.2483 12966 113.868
19.3645 12626 112.365
19.4806 12668 112.552
19.5967 12995 113.996
19.7128 13779 117.384
19.8288 13896 117.881
19.9447 13000 114.018
20.0606 0 1
20.1764 0 1
20.2922 0 1
20.4079 0 1
20.5236 0 1
20.6392 0 1
20.7548 0 1
20.8702 0 1
23.3078 0 1
23.4233 0 1
23.539 0 1
23.6547 0 1
23.7704 0 1
23.8862 0 1
24.0021 0 1
24.118 0 1
24.234 0 1
24.35 0 1
24.4661 13019 114.101
24.5822 13238 115.057
24.6984 13319 115.408
24.8146 13804 117.49
24.9309 14245 119.352
25.0472 15012 122.523
25.1636 15070 122.76
25.28 15231 123.414
25.3965 15096 122.866
25.513 15054 122.695
25.6296 14928 122.18
25.7462 14850 121.861
25.8628 14716 121.31
25.9795 14490 120.374
26.0962 14397 119.987
26.213 14496 120.399
26.3298 15233 123.422
26.4466 15476 124.403
26.5635 15857 125.925
26.6804 16159 127.118
26.7973 16622 128.926
26.9143 16653 129.047
27.0313 16874 129.9
27.1483 17011 130.426
27.2653 17311 131.571
27.3824 17351 131.723
27.4996 16775 129.518
27.6167 16382 127.992
27.7339 15944 126.27
27.8511 15651 125.104
27.9683 14995 122.454
28.0855 14726 121.351
28.2028 14477 120.32
28.3201 14522 120.507
28.4374 15093 122.854
28.5547 15507 124.527
28.6721 15823 125.79
28.7894 16345 127.848
28.9068 16125 126.984
29.0242 15778 125.611
29.1416 15450 124.298
29.259 14969 122.348
29.3764 14577 120.735
29.4939 14403 120.012
29.6113 14352 119.8
29.7288 14505 120.437
29.8463 15001 122.479
29.9638 15205 123.309
30.0812 15518 124.571
30.1987 15904 126.111
30.3162 16382 127.992
30.4337 16875 129.904
30.5512 16916 130.062
30.6687 17374 131.81
30.7862 17556 132.499
30.9037 17355 131.738
31.0212 17546 132.461
31.1387 17027 130.488
31.2562 16685 129.17
31.3737 16184 127.216
31.4912 15917 126.163
31.6087 15596 124.884
31.7262 15404 124.113
31.8436 15007 122.503
31.9611 15203 123.3
32.0785 15981 126.416
32.1959 16280 127.593
32.3134 16867 129.873
32.4308 16942 130.161
32.5482 16612 128.888
32.6655 16177 127.189
32.7829 16169 127.157
32.9002 15334 123.831
33.0176 15074 122.776
33.1349 15000 122.474
33.2522 14882 121.992
33.3694 15158 123.118
33.4867 15387 124.044
33.6039 16007 126.519
33.7211 16185 127.22
33.8383 16717 129.294
33.9554 17305 131.548
34.0725 17459 132.133
34.1896 17502 132.295
34.3067 17863 133.653
34.4237 18005 134.183
34.5407 18120 134.611
34.6577 18548 136.191
34.7746 18031 134.28
34.8915 17390 131.871
35.0084 16846 129.792
35.1252 16756 129.445
35.242 15963 126.345
35.3587 15829 125.813
35.4755 15430 124.218
35.5921 15667 125.168
35.7088 16045 126.669
35.8254 16476 128.359
35.9419 16957 130.219
36.0584 17256 131.362
36.1749 17555 132.495
36.2913 16871 129.888
36.4077 16517 128.518
36.524 15950 126.293
36.6403 15316 123.758
36.7565 15160 123.126
36.8727 14854 121.877
36.9889 15120 122.963
37.1049 15130 123.004
37.221 0 1
37.3369 0 1
37.4529 0 1
37.5687 0 1
37.6845 0 1
37.8003 0 1
37.916 0 1
38.0316 0 1
38.1472 0 1
40.5851 0 1
40.7008 0 1
40.8164 0 1
40.9322 0 1
41.048 0 1
41.1639 0 1
41.2798 0 1
41.3958 0 1
41.5118 0 1
41.6279 0 1
41.744 12594 112.223
41.8602 13044 114.21
41.9765 12958 113.833
42.0928 13202 114.9
42.2091 13324 115.43
42.3255 13945 118.089
42.4419 14303 119.595
42.5584 14855 121.881
42.675 15304 123.709
42.7915 15679 125.216
42.9081 16348 127.859
43.0248 16412 128.109
43.1415 16368 127.937
43.2582 16317 127.738
43.375 16636 128.981
43.4918 16570 128.725
43.6087 16671 129.116
43.7256 15653 125.112
43.8425 15388 124.048
43.9595 14965 122.332
44.0765 14594 120.806
44.1935 13978 118.229
44.3106 13561 116.452
44.4277 13853 117.699
44.5448 13754 117.277
44.6619 14428 120.117
44.7791 14513 120.47
44.8963 14255 119.394
45.0136 13933 118.038
45.1308 13450 115.974
45.2481 12901 113.583
45.3654 11972 109.417
45.4827 11521 107.336
45.6001 11652 107.944
45.7174 11371 106.635
45.8348 11819 108.715
45.9522 12242 110.644
46.0697 12516 111.875
46.1871 12874 113.464
46.3046 13329 115.451
46.422 13706 117.073
46.5395 14041 118.495
46.657 14126 118.853
46.7745 14212 119.214
46.892 13932 118.034
47.0096 14111 118.79
47.1271 13973 118.207
47.2446 13613 116.675
47.3622 13117 114.529
47.4797 12940 113.754
47.5973 12411 111.405
47.7149 12023 109.649
47.8324 11763 108.457
47.95 11616 107.778
48.0675 11588 107.648
48.1851 11863 108.917
48.3027 11948 109.307
48.4202 11984 109.471
48.5378 11778 108.526
48.6554 11330 106.442
48.7729 10560 102.762
48.8904 10084 100.419
49.008 9701 98.4937
49.1255 9668 98.326
49.243 9461 97.2677
49.3605 9786 98.9242
49.478 10419 102.074
49.5955 10756 103.711
49.713 11240 106.019
49.8304 11470 107.098
49.9479 12208 110.49
50.0653 12561 112.076
50.1827 13133 114.599
50.3001 13170 114.761
50.4175 13310 115.369
50.5348 13364 115.603
50.6521 13331 115.46
50.7694 13220 114.978
50.8867 13454 115.991
51.004 13409 115.797
51.1212 13077 114.355
51.2384 13119 114.538
51.3556 12877 113.477
51.4727 13178 114.795
51.5899 13529 116.314
51.707 14198 119.155
51.824 14632 120.963
51.9411 15056 122.703
52.0581 15084 122.817
52.175 14976 122.376
52.2919 14288 119.532
52.4088 13577 116.52
52.5257 13076 114.35
52.6425 12896 113.561
52.7593 12887 113.521
52.876 13296 115.308
52.9927 13906 117.924
53.1094 15016 122.54
53.226 15875 125.996
53.3426 17040 130.537
53.4591 17879 133.712
53.5756 18588 136.338
53.692 19171 138.459
53.8084 19692 140.328
53.9248 19892 141.039
54.0411 19899 141.064
54.1573 20487 143.133
54.2735 0 1
54.3896 0 1
54.5057 0 1
54.6217 0 1
54.7377 0 1
54.8537 0 1
54.9695 0 1
55.0853 0 1
55.2011 0 1
55.3168 0 1
55.4324 0 1
57.824 0 1
57.9396 0 1
58.0553 0 1
58.1711 0 1
58.2869 0 1
58.4028 0 1
58.5187 0 1
58.6347 0 1
58.7508 0 1
58.8669 0 1
58.983 22465 149.883
59.0992 23720 154.013
59.2155 24141 155.374
59.3318 24395 156.189
59.4482 24130 155.338
59.5646 23867 154.489
59.681 23546 153.447
59.7975 23139 152.115
59.9141 22769 150.894
60.0306 22426 149.753
60.1473 22447 149.823
60.2639 22274 149.245
60.3807 22324 149.412
60.4974 22490 149.967
60.6142 22441 149.803
60.731 21552 146.806
60.8479 20243 142.278
60.9648 19407 139.309
61.0818 18449 135.827
61.1987 17770 133.304
61.3158 17478 132.204
61.4328 17403 131.92
61.5499 18089 134.495
61.667 18710 136.785
61.7841 19800 140.712
61.9013 20659 143.732
62.0185 21642 147.112
62.1357 22385 149.616
62.253 22708 150.692
62.3702 23077 151.911
62.4875 23451 153.137
62.6049 23711 153.984
62.7222 23700 153.948
62.8396 23367 152.863
62.9569 23228 152.407
63.0743 22891 151.298
63.1918 22437 149.79
63.3092 21988 148.284
63.4267 22041 148.462
63.5441 21399 146.284
63.6616 21530 146.731
63.7791 21369 146.181
63.8966 21604 146.983
64.0142 21478 146.554
64.1317 21536 146.751
64.2492 21004 144.928
64.3668 20031 141.531
64.4843 18617 136.444
64.6019 17776 133.327
64.7195 17093 130.74
64.837 16482 128.382
64.9546 16463 128.308
65.0722 16953 130.204
65.1898 17555 132.495
65.3074 18750 136.931
65.4249 19742 140.506
65.5425 20937 144.696
65.6601 21786 147.601
65.7777 22424 149.746
65.8952 23036 151.776
66.0128 23309 152.673
66.1304 23348 152.801
66.2479 23725 154.029
66.3655 23412 153.01
66.483 23264 152.525
66.6005 23394 152.951
66.718 23048 151.816
66.8355 23000 151.658
66.953 22614 150.38
67.0705 22321 149.402
67.1879 22135 148.778
67.3054 22072 148.566
67.4228 22420 149.733
67.5402 22298 149.325
67.6576 22714 150.712
67.7749 22345 149.482
67.8923 22085 148.61
68.0096 21047 145.076
68.1269 20015 141.474
68.2442 18729 136.854
68.3614 18274 135.181
68.4787 17636 132.801
68.5958 17447 132.087
68.713 18227 135.007
68.8302 19137 138.337
68.9473 20685 143.823
69.0643 22001 148.327
69.1814 23530 153.395
69.2984 24791 157.452
69.4154 25857 160.801
69.5323 26538 162.905
69.6492 26830 163.799
69.7661 27612 166.169
69.8829 28085 167.586
69.9997 28287 168.187
70.1165 28086 167.589
70.2332 28144 167.762
70.3499 27823 166.802
70.4665 27677 166.364
70.5831 27648 166.277
70.6996 27124 164.694
70.8161 26708 163.426
70.9326 26737 163.515
71.049 26548 162.936
71.1653 26817 163.759
71.2817 27018 164.372
71.3979 26635 163.202
71.5141 25859 160.807
71.6303 24009 154.948
71.7464 20287 142.432
71.8624 0 1
71.9784 0 1
72.0944 0 1
72.2102 0 1
72.3261 0 1
72.4418 0 1
72.5575 0 1
72.6732 0 1
75.1054 0 1
75.2209 0 1
75.3365 0 1
75.4521 0 1
75.5678 0 1
75.6835 0 1
75.7993 0 1
75.9151 0 1
76.031 0 1
76.147 26314 162.216
76.263 28109 167.657
76.3791 29284 171.126
76.4952 29730 172.424
76.6113 30866 175.687
76.7276 31114 176.392
76.8438 30099 173.491
76.9601 29170 170.792
77.0765 26756 163.573
77.1929 24703 157.172
77.3093 22607 150.356
77.4258 21328 146.041
77.5423 20892 144.541
77.6589 21258 145.801
77.7755 22616 150.386
77.8921 24715 157.21
78.0088 27075 164.545
78.1256 29266 171.073
78.2423 31464 177.381
78.3591 32776 181.041
78.4759 33515 183.071
78.5928 34172 184.857
78.7097 33928 184.196
78.8266 33065 181.838
78.9436 35448 188.276
79.0606 33945 184.242
79.1776 33970 184.31
79.2946 33119 181.986
79.4117 33052 181.802
79.5288 32560 180.444
79.6459 32225 179.513
79.7631 31414 177.24
79.8802 31309 176.943
79.9974 30910 175.812
80.1147 31338 177.025
80.2319 32311 179.753
80.3491 32443 180.119
80.4664 32101 179.168
80.5837 31029 176.151
80.701 28744 169.541
80.8183 26054 161.413
80.9357 23691 153.919
81.053 21827 147.74
81.1704 20732 143.986
81.2877 20778 144.146
81.4051 21500 146.629
81.5225 23459 153.163
81.6399 26519 162.847
81.7573 28835 169.809
81.8747 29895 172.902
81.9922 32068 179.075
82.1096 32731 180.917
82.227 33152 182.077
82.3444 33377 182.694
82.4619 33450 182.893
82.5793 34103 184.67
82.6967 32558 180.438
82.8142 32888 181.35
82.9316 32387 179.964
83.049 31843 178.446
83.1664 31540 177.595
83.2838 31150 176.494
83.4012 30646 175.06
83.5186 29890 172.887
83.636 29119 170.643
83.7534 29822 172.69
83.8708 30495 174.628
83.9881 31070 176.267
84.1055 31031 176.156
84.2228 29720 172.395
84.3401 27747 166.574
84.4575 25227 158.83
84.5747 23139 152.115
84.692 21526 146.717
84.8093 20255 142.32
84.9265 20381 142.762
85.0437 21775 147.564
85.1609 24140 155.371
85.2781 26711 163.435
85.3952 28838 169.818
85.5123 31346 177.048
85.6294 33378 182.696
85.7465 35093 187.331
85.8636 36452 190.924
85.9806 37123 192.673
86.0976 37168 192.79
86.2145 38089 195.164
86.3315 39238 198.086
86.4484 37054 192.494
86.5652 38513 196.247
86.682 38624 196.53
86.7988 38600 196.469
86.9156 38282 195.658
87.0323 38472 196.143
87.149 38346 195.821
87.2657 38440 196.061
87.3823 39375 198.431
87.4988 40015 200.037
87.6154 40984 202.445
87.7318 39932 199.83
87.8483 37754 194.304
87.9647 35318 187.931
88.081 32702 180.837
88.1973 29772 172.546
88.3136 28037 167.443
88.4298 27423 165.599
88.546 27810 166.763
88.6621 30339 174.181
88.7781 32629 180.635
88.8942 0 1
89.0101 0 1
89.126 0 1
89.2419 0 1
89.3577 0 1
89.4734 0 1
89.5891 0 1
89.7047 0 1
89.8203 0 1
89.9358 0 1
92.3269 0 1
92.4424 0 1
92.558 0 1
92.6736 0 1
92.7893 0 1
92.905 0 1
93.0208 0 1
93.1366 0 1
93.2525 0 1
93.3685 0 1
93.4845 0 1
93.6005 30830 175.585
93.7167 29921 172.977
93.8328 30217 173.83
93.949 31368 177.11
94.0653 33523 183.093
94.1816 36724 191.635
94.2979 39816 199.539
94.4143 43024 207.422
94.5307 45668 213.701
94.6472 48076 219.262
94.7637 49210 221.833
94.8803 49671 222.87
94.9969 49831 223.229
95.1135 50326 224.335
95.2302 50812 225.415
95.3469 50491 224.702
95.4637 50707 225.182
95.5805 50264 224.196
95.6973 50760 225.3
95.8142 50632 225.016
95.9311 49950 223.495
96.048 49108 221.603
96.1649 48244 219.645
96.2819 47988 219.062
96.3989 48045 219.192
96.516 49167 221.736
96.633 49278 221.986
96.7501 49664 222.854
96.8673 47690 218.38
96.9844 45128 212.434
97.1016 41720 204.255
97.2188 38288 195.673
97.336 35430 188.229
97.4532 32263 179.619
97.5704 31513 177.519
97.6877 31682 177.994
97.805 33869 184.035
97.9223 37420 193.442
98.0396 41082 202.687
98.1569 44395 210.701
98.2743 46609 215.891
98.3916 49558 222.616
98.509 50998 225.827
98.6264 51752 227.491
98.7438 52739 229.65
98.8612 52456 229.033
98.9786 52961 230.133
99.096 51920 227.86
99.2134 51591 227.137
99.3308 52040 228.123
99.4482 52217 228.51
99.5656 51894 227.803
99.6831 51535 227.013
99.8005 49965 223.529
99.9179 50374 224.442
100.035 49928 223.446
100.153 50954 225.73
100.27 51630 227.222
100.388 51519 226.978
100.505 50211 224.078
100.622 46223 214.995
100.74 43128 207.673
100.857 39320 198.293
100.975 35607 188.698
101.092 33550 183.167
101.209 33044 181.78
101.327 33741 183.687
101.444 36257 190.413
101.561 40657 201.636
101.679 44516 210.988
101.796 47958 218.993
101.913 51248 226.38
102.03 52799 229.78
102.148 53770 231.884
102.265 52496 229.12
102.382 55912 236.457
102.499 55093 234.719
102.616 54805 234.105
102.733 53791 231.929
102.851 53979 232.334
102.968 54396 233.23
103.085 54342 233.114
103.202 53718 231.771
103.319 52469 229.061
103.436 51984 228
103.552 52062 228.171
103.669 52389 228.886
103.786 54225 232.863
103.903 54520 233.495
104.02 52761 229.698
104.137 49654 222.832
104.253 46546 215.745
104.37 43083 207.564
104.487 38898 197.226
104.603 36685 191.533
104.72 35822 189.267
104.836 36779 191.779
104.953 39123 197.795
105.069 43118 207.649
105.186 46873 216.502
105.302 50888 225.584
105.418 54693 233.865
105.535 56270 237.213
105.651 57126 239.01
105.767 58093 241.025
105.883 58365 241.588
105.999 58800 242.487
106.115 0 1
106.231 0 1
106.347 0 1
106.463 0 1
106.579 0 1
106.694 0 1
106.81 0 1
106.926 0 1
107.041 0 1
107.157 0 1
109.576 0 1
109.692 0 1
109.807 0 1
109.923 0 1
110.039 0 1
110.155 0 1
110.27 0 1
110.386 0 1
110.502 0 1
110.618 51251 226.387
110.735 52590 229.325
110.851 54007 232.394
110.967 54444 233.332
111.083 54529 233.514
111.199 53710 231.754
111.316 53504 231.309
111.432 54911 234.331
111.549 54008 232.396
111.665 52934 230.074
111.782 52096 228.245
111.898 51249 226.382
112.015 51208 226.292
112.132 52039 228.121
112.248 52401 228.913
112.365 52432 228.98
112.482 49304 222.045
112.599 48771 220.842
112.716 44898 211.891
112.832 41307 203.241
112.949 37557 193.796
113.066 35264 187.787
113.183 33872 184.043
113.3 34219 184.984
113.417 35519 188.465
113.534 37904 194.689
113.652 41071 202.66
113.769 44028 209.829
113.886 47500 217.945
114.003 48380 219.955
114.12 49999 223.605
114.238 50862 225.526
114.355 50416 224.535
114.472 50574 224.887
114.589 51280 226.451
114.707 49791 223.139
114.824 49184 221.775
114.942 50060 223.741
115.059 50720 225.211
115.176 50228 224.116
115.294 49723 222.987
115.411 48644 220.554
115.529 48407 220.016
115.646 48665 220.601
115.764 49995 223.596
115.881 50177 224.002
115.999 49287 222.007
116.116 47841 218.726
116.234 45804 214.019
116.351 42298 205.665
116.469 40021 200.052
116.586 37040 192.458
116.704 34724 186.344
116.821 33720 183.63
116.939 33785 183.807
117.056 35317 187.928
117.174 37977 194.877
117.291 40442 201.102
117.409 43991 209.74
117.526 46143 214.809
117.644 48044 219.189
117.761 48794 220.894
117.879 50056 223.732
117.996 49280 221.991
118.114 49755 223.058
118.231 49616 222.746
118.349 48357 219.902
118.466 47881 218.817
118.584 48686 220.649
118.701 49447 222.367
118.819 48892 221.115
118.936 48220 219.591
119.053 47083 216.986
119.171 46551 215.757
119.288 47251 217.373
119.405 47683 218.364
119.523 48120 219.363
119.64 47521 217.993
119.757 46528 215.704
119.875 44402 210.718
119.992 41903 204.702
120.109 39768 199.419
120.226 36884 192.052
120.343 34535 185.836
120.46 33462 182.926
120.578 33234 182.302
120.695 33652 183.445
120.812 35462 188.314
120.929 37661 194.064
121.046 40232 200.579
121.163 42626 206.461
121.279 44881 211.851
121.396 46061 214.618
121.513 46487 215.608
121.63 48030 219.157
121.747 47370 217.647
121.863 47305 217.497
121.98 46704 216.111
122.097 45936 214.327
122.213 45754 213.902
122.33 45929 214.311
122.446 46304 215.184
122.563 45729 213.843
122.679 44930 211.967
122.795 44344 210.58
122.912 43620 208.854
123.028 43776 209.227
123.144 44600 211.187
123.26 44513 210.981
123.377 0 1
123.493 0 1
123.609 0 1
123.725 0 1
123.84 0 1
123.956 0 1
124.072 0 1
124.188 0 1
124.303 0 1
124.419 0 1
126.852 0 1
126.968 0 1
127.083 0 1
127.199 0 1
127.315 0 1
127.431 0 1
127.547 0 1
127.663 0 1
127.779 0 1
127.895 0 1
128.011 0 1
128.127 0 1
128.243 0 1
128.359 47709 218.424
128.476 47445 217.819
128.592 47032 216.869
128.708 46047 214.586
128.825 44346 210.585
128.941 42292 205.65
129.058 40224 200.559
129.174 37787 194.389
129.291 36969 192.273
129.408 36455 190.932
129.524 36529 191.126
129.641 37651 194.039
129.758 39359 198.391
129.875 41804 204.46
129.992 43747 209.158
130.108 44944 212
130.225 45876 214.187
130.342 47353 217.607
130.459 46363 215.321
130.576 48367 219.925
130.693 46543 215.738
130.81 45996 214.467
130.928 46032 214.551
131.045 45813 214.04
131.162 47367 217.64
131.279 47353 217.607
131.396 47771 218.566
131.513 46543 215.738
131.631 46636 215.954
131.748 46878 216.513
131.865 47693 218.387
131.983 46882 216.523
132.1 47325 217.543
132.217 45928 214.308
132.335 44769 211.587
132.452 42798 206.877
132.57 40644 201.604
132.687 38234 195.535
132.804 37114 192.65
132.922 36363 190.691
133.039 35673 188.873
133.157 36456 190.935
133.274 37640 194.01
133.392 39269 198.164
133.509 41588 203.931
133.627 43249 207.964
133.744 44114 210.033
133.862 44800 211.66
133.979 45195 212.591
134.097 45255 212.732
134.214 44731 211.497
134.332 45241 212.699
134.449 43594 208.792
134.567 43918 209.566
134.684 44773 211.596
134.802 45326 212.899
134.919 45823 214.063
135.037 45072 212.302
135.154 44376 210.656
135.272 44558 211.088
135.389 44688 211.395
135.507 45213 212.633
135.624 45492 213.289
135.742 45133 212.445
135.859 43816 209.323
135.977 42495 206.143
136.094 40717 201.785
136.211 39152 197.869
136.329 36889 192.065
136.446 35830 189.288
136.564 35237 187.715
136.681 35139 187.454
136.798 35809 189.233
136.915 36762 191.734
137.033 38329 195.778
137.15 39731 199.326
137.267 41342 203.327
137.384 42093 205.166
137.502 42737 206.729
137.619 42468 206.078
137.736 43128 207.673
137.853 42490 206.131
137.97 42165 205.341
138.087 40678 201.688
138.204 41602 203.966
138.321 42267 205.589
138.438 43272 208.019
138.555 43820 209.332
138.672 43239 207.94
138.788 42590 206.373
138.905 42981 207.319
139.022 44198 210.233
139.139 44088 209.971
139.255 44164 210.152
139.372 43563 208.718
139.488 42735 206.724
139.605 42035 205.024
139.721 40414 201.032
139.838 38870 197.155
139.954 37320 193.184
140.071 35457 188.3
140.187 35488 188.383
140.303 34893 186.797
140.419 34729 186.357
140.535 35346 188.005
140.652 35360 188.043
140.768 0 1
140.884 0 1
141 0 1
141.115 0 1
141.231 0 1
141.347 0 1
141.463 0 1
141.578 0 1
141.694 0 1
144.104 0 1
144.219 0 1
144.335 0 1
144.45 0 1
144.566 0 1
144.682 0 1
144.798 0 1
144.914 0 1
145.03 0 1
145.146 24583 156.79
145.262 26711 163.435
145.378 27466 165.729
145.494 27765 166.628
145.61 28504 168.831
145.726 29569 171.956
145.842 30299 174.066
145.959 31029 176.151
146.075 31349 177.056
146.192 32132 179.254
146.308 32043 179.006
146.425 32204 179.455
146.541 32094 179.148
146.658 31542 177.601
146.774 31231 176.723
146.891 31241 176.751
147.008 31676 177.978
147.125 31368 177.11
147.241 32700 180.831
147.358 33194 182.192
147.475 33094 181.918
147.592 32840 181.218
147.709 32969 181.574
147.826 33444 182.877
147.943 33844 183.967
148.06 33806 183.864
148.177 33207 182.228
148.294 32780 181.052
148.411 32321 179.78
148.528 31886 178.567
148.645 30812 175.533
148.762 29882 172.864
148.88 29215 170.924
148.997 28486 168.778
149.114 29216 170.927
149.231 29234 170.98
149.349 28868 169.906
149.466 29982 173.153
149.583 30574 174.854
149.701 31400 177.2
149.818 32022 178.947
149.935 32332 179.811
150.053 32784 181.064
150.17 32265 179.625
150.287 32577 180.491
150.405 32258 179.605
150.522 31153 176.502
150.64 31352 177.065
150.757 31949 178.743
150.875 32528 180.355
150.992 33007 181.678
151.11 33929 184.198
151.227 33542 183.145
151.344 33532 183.117
151.462 33322 182.543
151.579 33995 184.377
151.697 33845 183.97
151.814 33479 182.973
151.932 33287 182.447
152.049 32714 180.87
152.167 32535 180.375
152.284 31538 177.589
152.402 30765 175.4
152.519 30251 173.928
152.636 29986 173.165
152.754 29748 172.476
152.871 29852 172.777
152.989 30251 173.928
153.106 30185 173.738
153.223 31269 176.83
153.341 31731 178.132
153.458 32116 179.209
153.575 32688 180.798
153.693 32979 181.601
153.81 33397 182.748
153.927 32811 181.138
154.044 32477 180.214
154.162 31566 177.668
154.279 32056 179.042
154.396 32358 179.883
154.513 33785 183.807
154.63 34318 185.251
154.747 34858 186.703
154.864 34635 186.105
154.981 35445 188.268
155.098 35117 187.395
155.215 34976 187.019
155.332 35107 187.369
155.449 34526 185.812
155.566 34661 186.175
155.683 33590 183.276
155.8 33501 183.033
155.917 33183 182.162
156.033 32482 180.228
156.15 0 1
156.267 0 1
156.383 0 1
156.5 0 1
156.617 0 1
156.733 0 1
156.85 0 1
156.966 0 1
157.082 0 1
157.199 0 1
157.315 0 1
157.431 0 1
157.547 0 1
157.664 0 1
157.78 0 1
157.896 0 1
158.012 0 1
158.128 0 1
158.244 0 1
158.359 0 1
158.475 0 1
158.591 0 1
158.706 0 1
