
6.15755 0 1
6.2731 0 1
6.3887 0 1
6.50437 0 1
6.62009 0 1
6.73587 0 1
6.8517 0 1
6.96759 0 1
7.08353 0 1
7.19952 0 1
7.31557 0 1
7.43166 0 1
7.54781 0 1
7.664 0 1
7.78024 0 1
7.89653 0 1
8.01286 0 1
8.12924 0 1
8.24567 0 1
8.36213 0 1
8.47864 0 1
8.59519 0 1
8.71178 0 1
8.82841 0 1
8.94508 0 1
9.06179 0 1
9.17853 0 1
9.29531 0 1
9.41212 0 1
9.52897 0 1
9.64584 0 1
9.76276 0 1
9.8797 0 1
9.99667 0 1
10.1137 0 1
10.2307 0 1
10.3478 0 1
10.4648 0 1
10.5819 0 1
10.6991 0 1
10.8162 0 1
10.9334 0 1
11.0506 0 1
11.1678 0 1
11.285 0 1
11.4023 0 1
11.5196 0 1
11.6369 0 1
11.7542 0 1
11.8715 0 1
11.9888 0 1
12.1062 0 1
12.2235 0 1
12.3409 0 1
12.4582 0 1
12.5756 0 1
12.693 0 1
12.8104 0 1
12.9278 0 1
13.0452 0 1
13.1626 0 1
13.28 0 1
13.3974 0 1
13.5149 0 1
13.6323 0 1
13.7497 0 1
13.8671 0 1
13.9845 0 1
14.1019 0 1
14.2193 0 1
14.3367 0 1
14.4541 0 1
14.5714 0 1
14.6888 0 1
14.8062 0 1
14.9235 0 1
15.0408 0 0
15.1581 0 0
15.2755 0 0
15.3927 0 0
15.51 0 0
15.6273 0 0
15.7445 0 0
15.8617 0 0
15.9789 0 0
16.0961 0 0
16.2132 0 0
16.3304 0 0
16.4475 0 0
16.5646 0 0
16.6816 0 0
16.7986 0 0
16.9156 0 0
17.0326 0 0
17.1496 0 0
17.2665 0 0
17.3833 0 0
17.5002 0 0
17.617 0 0
17.7338 0 0
17.8505 0 0
17.9672 0 0
18.0839 0 0
18.2005 0 0
18.3171 0 0
18.4337 0 0
18.5502 0 0
18.6666 0 0
18.7831 0 0
18.8994 0 0
19.0158 0 0
19.1321 0 0
19.2483 0 0
19.3645 0 0
19.4806 0 0
19.5967 0 0
19.7128 0 0
19.8288 0 0
19.9447 0 0
20.0606 0 1
20.1764 0 1
20.2922 0 1
20.4079 0 1
20.5236 0 1
20.6392 0 1
20.7548 0 1
20.8702 0 1
23.3078 0 1
23.4233 0 1
23.539 0 1
23.6547 0 1
23.7704 0 1
23.8862 0 1
24.0021 0 1
24.118 0 1
24.234 0 1
24.35 0 1
24.4661 32346 179.85
24.5822 32333 179.814
24.6984 31938 178.712
24.8146 31852 178.471
24.9309 31529 177.564
25.0472 31727 178.121
25.1636 31741 178.16
25.28 32158 179.327
25.3965 33021 181.717
25.513 34215 184.973
25.6296 35694 188.929
25.7462 37286 193.096
25.8628 38046 195.054
25.9795 38944 197.342
26.0962 39148 197.859
26.213 39880 199.7
26.3298 39206 198.005
26.4466 39137 197.831
26.5635 39304 198.252
26.6804 38329 195.778
26.7973 36698 191.567
26.9143 36414 190.825
27.0313 36538 191.149
27.1483 38314 195.74
27.2653 39084 197.697
27.3824 39408 198.514
27.4996 39057 197.628
27.6167 38375 195.895
27.7339 37812 194.453
27.8511 36688 191.541
27.9683 35781 189.159
28.0855 34734 186.371
28.2028 33491 183.005
28.3201 33353 182.628
28.4374 32219 179.497
28.5547 31403 177.209
28.6721 31197 176.627
28.7894 31520 177.539
28.9068 32150 179.304
29.0242 33105 181.948
29.1416 34518 185.79
29.259 35786 189.172
29.3764 36854 191.974
29.4939 37921 194.733
29.6113 38249 195.574
29.7288 38674 196.657
29.8463 39106 197.752
29.9638 39059 197.633
30.0812 38888 197.2
30.1987 37485 193.61
30.3162 35699 188.942
30.4337 34821 186.604
30.5512 35590 188.653
30.6687 37601 193.91
30.7862 37991 194.913
30.9037 38876 197.17
31.0212 38820 197.028
31.1387 38810 197.003
31.2562 38268 195.622
31.3737 37423 193.45
31.4912 36585 191.272
31.6087 35484 188.372
31.7262 34805 186.561
31.8436 33430 182.839
31.9611 32590 180.527
32.0785 32148 179.299
32.1959 31373 177.124
32.3134 31407 177.22
32.4308 31631 177.851
32.5482 32675 180.762
32.6655 33998 184.385
32.7829 35124 187.414
32.9002 36611 191.34
33.0176 37641 194.013
33.1349 38278 195.648
33.2522 37967 194.851
33.3694 39228 198.061
33.4867 38912 197.261
33.6039 39076 197.677
33.7211 38589 196.441
33.8383 37212 192.904
33.9554 35773 189.138
34.0725 34078 184.602
34.1896 34598 186.005
34.3067 36373 190.717
34.4237 37755 194.306
34.5407 38379 195.906
34.6577 38811 197.005
34.7746 38365 195.87
34.8915 38364 195.867
35.0084 37963 194.841
35.1252 36827 191.904
35.242 35492 188.393
35.3587 35087 187.315
35.4755 33838 183.951
35.5921 32912 181.417
35.7088 32188 179.41
35.8254 31411 177.231
35.9419 30731 175.303
36.0584 30939 175.895
36.1749 31316 176.963
36.2913 32024 178.953
36.4077 33080 181.879
36.524 34827 186.62
36.6403 35972 189.663
36.7565 36887 192.06
36.8727 37971 194.861
36.9889 38568 196.387
37.1049 38338 195.801
37.221 0 1
37.3369 0 1
37.4529 0 1
37.5687 0 1
37.6845 0 1
37.8003 0 1
37.916 0 1
38.0316 0 1
38.1472 0 1
40.5851 0 1
40.7008 0 1
40.8164 0 1
40.9322 0 1
41.048 0 1
41.1639 0 1
41.2798 0 1
41.3958 0 1
41.5118 0 1
41.6279 0 1
41.744 30216 173.828
41.8602 32429 180.081
41.9765 34355 185.351
42.0928 35398 188.144
42.2091 35374 188.08
42.3255 36666 191.484
42.4419 36252 190.4
42.5584 35436 188.245
42.675 33197 182.2
42.7915 30743 175.337
42.9081 29553 171.91
43.0248 30781 175.445
43.1415 32393 179.981
43.2582 33436 182.855
43.375 34034 184.483
43.4918 34056 184.543
43.6087 33221 182.266
43.7256 32650 180.693
43.8425 31797 178.317
43.9595 31368 177.11
44.0765 29946 173.049
44.1935 28557 168.988
44.3106 27693 166.412
44.4277 26590 163.064
44.5448 25197 158.736
44.6619 23796 154.26
44.7791 22853 151.172
44.8963 22487 149.957
45.0136 22965 151.542
45.1308 23681 153.886
45.2481 24111 155.277
45.3654 24647 156.994
45.4827 25682 160.256
45.6001 25800 160.624
45.7174 25851 160.782
45.8348 26106 161.574
45.9522 25517 159.74
46.0697 25323 159.132
46.1871 24192 155.538
46.3046 22096 148.647
46.422 20845 144.378
46.5395 20325 142.566
46.657 21276 145.863
46.7745 22698 150.659
46.892 23137 152.109
47.0096 23058 151.849
47.1271 23040 151.789
47.2446 22772 150.904
47.3622 22199 148.993
47.4797 21977 148.246
47.5973 21122 145.334
47.7149 20438 142.962
47.8324 19885 141.014
47.95 18743 136.905
48.0675 18242 135.063
48.1851 17134 130.897
48.3027 16589 128.798
48.4202 16428 128.172
48.5378 16364 127.922
48.6554 16909 130.035
48.7729 17283 131.465
48.8904 18495 135.996
49.008 19001 137.844
49.1255 19980 141.351
49.243 19986 141.372
49.3605 19999 141.418
49.478 20333 142.594
49.5955 20326 142.569
49.713 19104 138.217
49.8304 17750 133.229
49.9479 16864 129.861
50.0653 16988 130.338
50.1827 18516 136.074
50.3001 20402 142.836
50.4175 21421 146.359
50.5348 22578 150.26
50.6521 22830 151.096
50.7694 23616 153.675
50.8867 23941 154.729
51.004 23870 154.499
51.1212 24469 156.426
51.2384 24177 155.49
51.3556 23973 154.832
51.4727 23820 154.337
51.5899 23238 152.44
51.707 22841 151.132
51.824 22206 149.017
51.9411 22299 149.328
52.0581 23325 152.725
52.175 24775 157.401
52.2919 26284 162.123
52.4088 27853 166.892
52.5257 29782 172.575
52.6425 31082 176.301
52.7593 31293 176.898
52.876 32106 179.181
52.9927 32525 180.347
53.1094 32755 180.983
53.226 32549 180.413
53.3426 30727 175.291
53.4591 28964 170.188
53.5756 27246 165.064
53.692 28176 167.857
53.8084 30353 174.221
53.9248 32815 181.149
54.0411 34331 185.286
54.1573 35437 188.247
54.2735 0 1
54.3896 0 1
54.5057 0 1
54.6217 0 1
54.7377 0 1
54.8537 0 1
54.9695 0 1
55.0853 0 1
55.2011 0 1
55.3168 0 1
55.4324 0 1
57.824 0 1
57.9396 0 1
58.0553 0 1
58.1711 0 1
58.2869 0 1
58.4028 0 1
58.5187 0 1
58.6347 0 1
58.7508 0 1
58.8669 0 1
58.983 35052 187.222
59.0992 37977 194.877
59.2155 40555 201.383
59.3318 41412 203.499
59.4482 42594 206.383
59.5646 42159 205.327
59.681 41709 204.228
59.7975 41341 203.325
59.9141 40208 200.519
60.0306 38918 197.276
60.1473 37163 192.777
60.2639 35500 188.414
60.3807 33786 183.81
60.4974 31951 178.748
60.6142 31002 176.074
60.731 31276 176.85
60.8479 32493 180.258
60.9648 33742 183.69
61.0818 35472 188.34
61.1987 37241 192.979
61.3158 38264 195.612
61.4328 38427 196.028
61.5499 38421 196.013
61.667 38449 196.084
61.7841 36986 192.317
61.9013 35271 187.806
62.0185 32814 181.146
62.1357 31360 177.088
62.253 31564 177.663
62.3702 33290 182.455
62.4875 35136 187.446
62.6049 36512 191.081
62.7222 37835 194.512
62.8396 38316 195.745
62.9569 38574 196.403
63.0743 38904 197.241
63.1918 38236 195.54
63.3092 37956 194.823
63.4267 37039 192.455
63.5441 35785 189.169
63.6616 33962 184.288
63.7791 32487 180.242
63.8966 30594 174.911
64.0142 28796 169.694
64.1317 27983 167.281
64.2492 28073 167.55
64.3668 29339 171.286
64.4843 30351 174.215
64.6019 32627 180.629
64.7195 34300 185.203
64.837 35370 188.069
64.9546 35799 189.206
65.0722 35505 188.428
65.1898 35600 188.68
65.3074 35404 188.16
65.4249 32770 181.025
65.5425 30370 174.27
65.6601 28763 169.597
65.7777 28210 167.958
65.8952 29039 170.408
66.0128 31389 177.169
66.1304 33249 182.343
66.2479 34921 186.872
66.3655 35809 189.233
66.483 36328 190.599
66.6005 36863 191.997
66.718 36614 191.348
66.8355 36408 190.809
66.953 35808 189.23
67.0705 35366 188.059
67.1879 33915 184.16
67.3054 32562 180.449
67.4228 30592 174.906
67.5402 28895 169.985
67.6576 27367 165.43
67.7749 26622 163.162
67.8923 26688 163.365
68.0096 28337 168.336
68.1269 30182 173.73
68.2442 32410 180.028
68.3614 34009 184.415
68.4787 35510 188.441
68.5958 35669 188.862
68.713 36170 190.184
68.8302 36027 189.808
68.9473 35955 189.618
69.0643 34000 184.391
69.1814 31729 178.126
69.2984 29927 172.994
69.4154 29661 172.224
69.5323 30795 175.485
69.6492 33155 182.085
69.7661 34963 186.984
69.8829 37268 193.049
69.9997 38465 196.125
70.1165 39179 197.937
70.2332 39722 199.304
70.3499 39554 198.882
70.4665 39426 198.56
70.5831 38660 196.621
70.6996 38217 195.492
70.8161 36909 192.117
70.9326 35588 188.648
71.049 33907 184.139
71.1653 31550 177.623
71.2817 28979 170.232
71.3979 27097 164.612
71.5141 26733 163.502
71.6303 27201 164.927
71.7464 26104 161.567
71.8624 0 1
71.9784 0 1
72.0944 0 1
72.2102 0 1
72.3261 0 1
72.4418 0 1
72.5575 0 1
72.6732 0 1
75.1054 0 1
75.2209 0 1
75.3365 0 1
75.4521 0 1
75.5678 0 1
75.6835 0 1
75.7993 0 1
75.9151 0 1
76.031 0 1
76.147 33374 182.686
76.263 35221 187.673
76.3791 34859 186.706
76.4952 32954 181.532
76.6113 30597 174.92
76.7276 28276 168.155
76.8438 28400 168.523
76.9601 29119 170.643
77.0765 30990 176.04
77.1929 33429 182.836
77.3093 35796 189.198
77.4258 37711 194.193
77.5423 38036 195.028
77.6589 38369 195.88
77.7755 37576 193.845
77.8921 37988 194.905
78.0088 36606 191.327
78.1256 33535 183.126
78.2423 30910 175.812
78.3591 29054 170.452
78.4759 28416 168.57
78.5928 30218 173.833
78.7097 32232 179.533
78.8266 34176 184.868
78.9436 36685 191.533
79.0606 37337 193.228
79.1776 38132 195.274
79.2946 38529 196.288
79.4117 38671 196.649
79.5288 38656 196.611
79.6459 37835 194.512
79.7631 37029 192.429
79.8802 35500 188.414
79.9974 33979 184.334
80.1147 32243 179.563
80.2319 29443 171.59
80.3491 27740 166.553
80.4664 26637 163.208
80.5837 27169 164.83
80.701 28665 169.307
80.8183 30709 175.24
80.9357 33223 182.272
81.053 34318 185.251
81.1704 34389 185.443
81.2877 34822 186.607
81.4051 35292 187.862
81.5225 34858 186.703
81.6399 32716 180.876
81.7573 31441 177.316
81.8747 28119 167.687
81.9922 26755 163.57
82.1096 26227 161.948
82.227 27232 165.021
82.3444 29073 170.508
82.4619 31102 176.358
82.5793 32846 181.235
82.6967 33135 182.03
82.8142 33903 184.128
82.9316 34351 185.34
83.049 34483 185.696
83.1664 34115 184.702
83.2838 33543 183.147
83.4012 32657 180.712
83.5186 31643 177.885
83.636 30132 173.586
83.7534 28416 168.57
83.8708 26733 163.502
83.9881 24594 156.825
84.1055 24033 155.026
84.2228 24762 157.359
84.3401 25782 160.568
84.4575 27827 166.814
84.5747 30247 173.917
84.692 31247 176.768
84.8093 32281 179.669
84.9265 32320 179.778
85.0437 32588 180.521
85.1609 31992 178.863
85.2781 29662 172.227
85.3952 27817 166.784
85.5123 25876 160.86
85.6294 25418 159.43
85.7465 26183 161.812
85.8636 28800 169.706
85.9806 30985 176.026
86.0976 32695 180.818
86.2145 35021 187.139
86.3315 35813 189.243
86.4484 37101 192.616
86.5652 37560 193.804
86.682 38028 195.008
86.7988 38097 195.185
86.9156 37471 193.574
87.0323 36522 191.107
87.149 35726 189.013
87.2657 34420 185.526
87.3823 33186 182.17
87.4988 30323 174.135
87.6154 29233 170.977
87.7318 29812 172.662
87.8483 31430 177.285
87.9647 33586 183.265
88.081 36271 190.449
88.1973 38482 196.168
88.3136 39118 197.783
88.4298 39292 198.222
88.546 39512 198.776
88.6621 38736 196.815
88.7781 37375 193.326
88.8942 0 1
89.0101 0 1
89.126 0 1
89.2419 0 1
89.3577 0 1
89.4734 0 1
89.5891 0 1
89.7047 0 1
89.8203 0 1
89.9358 0 1
92.3269 0 1
92.4424 0 1
92.558 0 1
92.6736 0 1
92.7893 0 1
92.905 0 1
93.0208 0 1
93.1366 0 1
93.2525 0 1
93.3685 0 1
93.4845 0 1
93.6005 37214 192.909
93.7167 38473 196.145
93.8328 38799 196.975
93.949 38745 196.837
94.0653 38130 195.269
94.1816 37379 193.336
94.2979 35830 189.288
94.4143 33899 184.117
94.5307 32108 179.187
94.6472 31258 176.799
94.7637 30897 175.775
94.8803 32543 180.397
94.9969 34208 184.954
95.1135 35524 188.478
95.2302 37397 193.383
95.3469 38508 196.235
95.4637 39937 199.842
95.5805 40847 202.106
95.6973 41091 202.709
95.8142 41750 204.328
95.9311 41452 203.598
96.048 40608 201.514
96.1649 39744 199.359
96.2819 38868 197.15
96.3989 37556 193.794
96.516 36047 189.86
96.633 33810 183.875
96.7501 31872 178.527
96.8673 31421 177.26
96.9844 32537 180.38
97.1016 34063 184.562
97.2188 36403 190.796
97.336 38417 196.003
97.4532 39412 198.525
97.5704 39491 198.723
97.6877 38564 196.377
97.805 37806 194.438
97.9223 36681 191.523
98.0396 34090 184.635
98.1569 32321 179.78
98.2743 30891 175.758
98.3916 30432 174.448
98.509 31360 177.088
98.6264 33449 182.891
98.7438 35480 188.361
98.8612 36778 191.776
98.9786 38513 196.247
99.096 39855 199.637
99.2134 40284 200.709
99.3308 40924 202.297
99.4482 41244 203.086
99.5656 41061 202.635
99.6831 40512 201.276
99.8005 39616 199.038
99.9179 38872 197.16
100.035 36977 192.294
100.153 35431 188.231
100.27 32962 181.554
100.388 32469 180.192
100.505 33202 182.214
100.622 34473 185.669
100.74 36764 191.739
100.857 38381 195.911
100.975 39612 199.028
101.092 39869 199.672
101.209 39897 199.742
101.327 39648 199.118
101.444 38544 196.326
101.561 36569 191.23
101.679 34546 185.866
101.796 32301 179.725
101.913 31347 177.051
102.03 32080 179.109
102.148 33659 183.464
102.265 38069 195.113
102.382 35657 188.831
102.499 39124 197.798
102.616 40587 201.462
102.733 41815 204.487
102.851 42209 205.448
102.968 42640 206.495
103.085 42844 206.988
103.202 41857 204.59
103.319 41622 204.015
103.436 40893 202.22
103.552 39460 198.645
103.669 37415 193.43
103.786 35076 187.286
103.903 34002 184.396
104.02 34459 185.631
104.137 36394 190.772
104.253 39671 199.176
104.37 39425 198.557
104.487 42096 205.173
104.603 42174 205.363
104.72 41875 204.634
104.836 41442 203.573
104.953 40250 200.624
105.069 38084 195.151
105.186 35811 189.238
105.302 34462 185.639
105.418 33731 183.66
105.535 34961 186.979
105.651 36902 192.099
105.767 39368 198.414
105.883 40978 202.43
105.999 42592 206.378
106.115 0 1
106.231 0 1
106.347 0 1
106.463 0 1
106.579 0 1
106.694 0 1
106.81 0 1
106.926 0 1
107.041 0 1
107.157 0 1
109.576 0 1
109.692 0 1
109.807 0 1
109.923 0 1
110.039 0 1
110.155 0 1
110.27 0 1
110.386 0 1
110.502 0 1
110.618 34191 184.908
110.735 36766 191.745
110.851 38518 196.26
110.967 40372 200.928
111.083 41715 204.243
111.199 42946 207.234
111.316 43521 208.617
111.432 44433 210.791
111.549 43809 209.306
111.665 43853 209.411
111.782 43034 207.446
111.898 42051 205.063
112.015 41078 202.677
112.132 39706 199.264
112.248 37324 193.194
112.365 36051 189.871
112.482 36180 190.21
112.599 36911 192.122
112.716 38628 196.54
112.832 40566 201.41
112.949 40960 202.386
113.066 41234 203.062
113.183 41254 203.111
113.3 41295 203.212
113.417 40725 201.804
113.534 38728 196.794
113.652 36791 191.81
113.769 35285 187.843
113.886 34125 184.73
114.003 33227 182.283
114.12 34352 185.343
114.238 36076 189.937
114.355 37467 193.564
114.472 40925 202.299
114.589 38182 195.402
114.707 41141 202.832
114.824 42009 204.961
114.942 42614 206.432
115.059 43774 209.222
115.176 43208 207.865
115.294 42645 206.507
115.411 42441 206.012
115.529 41276 203.165
115.646 40285 200.711
115.764 38598 196.464
115.881 36969 192.273
115.999 36614 191.348
116.116 37052 192.489
116.234 38758 196.871
116.351 40490 201.221
116.469 40933 202.319
116.586 41690 204.181
116.704 41448 203.588
116.821 41361 203.374
116.939 40663 201.651
117.056 39668 199.168
117.174 38068 195.11
117.291 36867 192.008
117.409 35371 188.072
117.526 34609 186.035
117.644 35080 187.297
117.761 36012 189.768
117.879 37467 193.564
117.996 38134 195.279
118.114 39785 199.462
118.231 40663 201.651
118.349 41149 202.852
118.466 41937 204.785
118.584 42619 206.444
118.701 42728 206.708
118.819 42472 206.087
118.936 42229 205.497
119.053 41039 202.581
119.171 40172 200.43
119.288 39645 199.111
119.405 37288 193.101
119.523 36273 190.455
119.64 36490 191.024
119.757 37057 192.502
119.875 38496 196.204
119.992 39164 197.899
120.109 39941 199.852
120.226 40264 200.659
120.343 40037 200.092
120.46 40441 201.099
120.578 39959 199.897
120.695 38867 197.147
120.812 37806 194.438
120.929 36514 191.086
121.046 35444 188.266
121.163 34124 184.727
121.279 34081 184.61
121.396 35096 187.339
121.513 36433 190.874
121.63 37566 193.82
121.747 38789 196.949
121.863 39160 197.889
121.98 39612 199.028
122.097 41003 202.492
122.213 41154 202.864
122.33 41677 204.149
122.446 41386 203.435
122.563 40377 200.94
122.679 40239 200.597
122.795 39555 198.884
122.912 38847 197.096
123.028 37732 194.247
123.144 36375 190.722
123.26 35253 187.758
123.377 0 1
123.493 0 1
123.609 0 1
123.725 0 1
123.84 0 1
123.956 0 1
124.072 0 1
124.188 0 1
124.303 0 1
124.419 0 1
126.852 0 1
126.968 0 1
127.083 0 1
127.199 0 1
127.315 0 1
127.431 0 1
127.547 0 1
127.663 0 1
127.779 0 1
127.895 0 1
128.011 0 1
128.127 0 1
128.243 0 1
128.359 40370 200.923
128.476 40137 200.342
128.592 40607 201.512
128.708 41866 204.612
128.825 42656 206.533
128.941 44247 210.35
129.058 44382 210.67
129.174 44694 211.41
129.291 44429 210.782
129.408 44021 209.812
129.524 43071 207.536
129.641 42038 205.032
129.758 40684 201.703
129.875 39903 199.757
129.992 38768 196.896
130.108 38190 195.423
130.225 38334 195.791
130.342 39035 197.573
130.459 39263 198.149
130.576 41734 204.289
130.693 41902 204.7
130.81 42797 206.874
130.928 43179 207.796
131.045 44077 209.945
131.162 44964 212.047
131.279 45368 212.998
131.396 45266 212.758
131.513 44469 210.877
131.631 43547 208.679
131.748 43096 207.596
131.865 42354 205.801
131.983 41561 203.865
132.1 42093 205.166
132.217 42707 206.657
132.335 44063 209.912
132.452 44113 210.031
132.57 45078 212.316
132.687 43562 208.715
132.804 46249 215.056
132.922 44652 211.31
133.039 43846 209.394
133.157 43070 207.533
133.274 41600 203.961
133.392 40758 201.886
133.509 39345 198.356
133.627 38884 197.19
133.744 38845 197.091
133.862 39520 198.796
133.979 40375 200.935
134.097 41064 202.643
134.214 41878 204.641
134.332 42392 205.893
134.449 43048 207.48
134.567 43603 208.813
134.684 44580 211.14
134.802 45336 212.923
134.919 45031 212.205
135.037 44667 211.346
135.154 43704 209.055
135.272 42804 206.891
135.389 42704 206.649
135.507 41963 204.849
135.624 41848 204.568
135.742 42619 206.444
135.859 44089 209.974
135.977 44691 211.402
136.094 44747 211.535
136.211 45122 212.419
136.329 44890 211.873
136.446 44923 211.95
136.564 44486 210.917
136.681 43659 208.947
136.798 42583 206.356
136.915 41294 203.209
137.033 40771 201.918
137.15 39244 198.101
137.267 38673 196.655
137.384 38647 196.588
137.502 39646 199.113
137.619 39927 199.817
137.736 40908 202.257
137.853 40468 201.167
137.97 42364 205.825
138.087 42002 204.944
138.204 43198 207.841
138.321 43962 209.671
138.438 45155 212.497
138.555 45942 214.341
138.672 45639 213.633
138.788 44489 210.924
138.905 43422 208.379
139.022 42916 207.162
139.139 43055 207.497
139.255 43630 208.878
139.372 44436 210.798
139.488 45207 212.619
139.605 46422 215.458
139.721 45990 214.453
139.838 46233 215.019
139.954 45966 214.397
140.071 45577 213.488
140.187 46033 214.553
140.303 44351 210.597
140.419 43122 207.658
140.535 41787 204.419
140.652 40804 202
140.768 0 1
140.884 0 1
141 0 1
141.115 0 1
141.231 0 1
141.347 0 1
141.463 0 1
141.578 0 1
141.694 0 1
144.104 0 1
144.219 0 1
144.335 0 1
144.45 0 1
144.566 0 1
144.682 0 1
144.798 0 1
144.914 0 1
145.03 0 1
145.146 41164 202.889
145.262 40761 201.894
145.378 39550 198.872
145.494 39196 197.98
145.61 38078 195.136
145.726 37644 194.021
145.842 36930 192.172
145.959 36809 191.857
146.075 37122 192.671
146.192 37427 193.461
146.308 38143 195.302
146.425 38454 196.097
146.541 38682 196.677
146.658 38976 197.423
146.774 39686 199.213
146.891 40693 201.725
147.008 40638 201.589
147.125 41871 204.624
147.241 41929 204.766
147.358 40730 201.817
147.475 40231 200.577
147.592 38819 197.025
147.709 38978 197.428
147.826 39346 198.358
147.943 41005 202.497
148.06 41370 203.396
148.177 41913 204.727
148.294 42253 205.555
148.411 42378 205.859
148.528 41909 204.717
148.645 42220 205.475
148.762 41470 203.642
148.88 40602 201.499
148.997 39066 197.651
149.114 40024 200.06
149.231 38445 196.074
149.349 38184 195.407
149.466 36795 191.82
149.583 36886 192.057
149.701 36283 190.481
149.818 37365 193.3
149.935 37272 193.06
150.053 38516 196.255
150.17 37909 194.702
150.287 38554 196.352
150.405 39199 197.987
150.522 40081 200.202
150.64 40876 202.178
150.757 41183 202.936
150.875 41274 203.16
150.992 40741 201.844
151.11 39972 199.93
151.227 38919 197.279
151.344 38525 196.278
151.462 38422 196.015
151.579 40307 200.766
151.697 41500 203.715
151.814 42177 205.37
151.932 42469 206.08
152.049 42519 206.201
152.167 42197 205.419
152.284 42171 205.356
152.402 41636 204.049
152.519 40856 202.129
152.636 40293 200.731
152.754 39300 198.242
152.871 38830 197.053
152.989 38550 196.342
153.106 37739 194.265
153.223 37575 193.843
153.341 37874 194.612
153.458 37737 194.26
153.575 38186 195.412
153.693 37930 194.756
153.81 38827 197.046
153.927 39542 198.852
154.044 40182 200.454
154.162 40316 200.788
154.279 41647 204.076
154.396 42507 206.172
154.513 42726 206.703
154.63 42287 205.638
154.747 41504 203.725
154.864 40675 201.68
154.981 40343 200.856
155.098 41026 202.549
155.215 41946 204.807
155.332 43297 208.079
155.449 43172 207.779
155.566 43145 207.714
155.683 43831 209.359
155.8 43123 207.661
155.917 42522 206.209
156.033 42475 206.095
156.15 0 1
156.267 0 1
156.383 0 1
156.5 0 1
156.617 0 1
156.733 0 1
156.85 0 1
156.966 0 1
157.082 0 1
157.199 0 1
157.315 0 1
157.431 0 1
157.547 0 1
157.664 0 1
157.78 0 1
157.896 0 1
158.012 0 1
158.128 0 1
158.244 0 1
158.359 0 1
158.475 0 1
158.591 0 1
158.706 0 1
