
6.15755 0 1
6.2731 0 1
6.3887 0 1
6.50437 0 1
6.62009 0 1
6.73587 0 1
6.8517 0 1
6.96759 0 1
7.08353 0 1
7.19952 0 1
7.31557 0 1
7.43166 0 1
7.54781 0 1
7.664 0 1
7.78024 0 1
7.89653 0 1
8.01286 0 1
8.12924 0 1
8.24567 0 1
8.36213 0 1
8.47864 0 1
8.59519 0 1
8.71178 0 1
8.82841 0 1
8.94508 0 1
9.06179 0 1
9.17853 0 1
9.29531 0 1
9.41212 0 1
9.52897 0 1
9.64584 0 1
9.76276 0 1
9.8797 0 1
9.99667 0 1
10.1137 0 1
10.2307 0 1
10.3478 0 1
10.4648 0 1
10.5819 0 1
10.6991 0 1
10.8162 0 1
10.9334 0 1
11.0506 0 1
11.1678 0 1
11.285 0 1
11.4023 0 1
11.5196 0 1
11.6369 0 1
11.7542 0 1
11.8715 0 1
11.9888 0 1
12.1062 0 1
12.2235 0 1
12.3409 0 1
12.4582 0 1
12.5756 0 1
12.693 0 1
12.8104 0 1
12.9278 0 1
13.0452 0 1
13.1626 0 1
13.28 0 1
13.3974 0 1
13.5149 0 1
13.6323 0 1
13.7497 0 1
13.8671 0 1
13.9845 0 1
14.1019 0 1
14.2193 0 1
14.3367 0 1
14.4541 0 1
14.5714 0 1
14.6888 0 1
14.8062 0 1
14.9235 0 1
15.0408 73466 271.046
15.1581 77291 278.013
15.2755 79688 282.291
15.3927 81087 284.758
15.51 82034 286.416
15.6273 81576 285.615
15.7445 80791 284.238
15.8617 78795 280.704
15.9789 76059 275.788
16.0961 76621 276.805
16.2132 78571 280.305
16.3304 83171 288.394
16.4475 86243 293.672
16.5646 88683 297.797
16.6816 89190 298.647
16.7986 88757 297.921
16.9156 88696 297.819
17.0326 88370 297.271
17.1496 88328 297.2
17.2665 87233 295.352
17.3833 83644 289.213
17.5002 80866 284.369
17.617 77819 278.961
17.7338 76258 276.149
17.8505 76914 277.334
17.9672 80805 284.262
18.0839 83059 288.2
18.2005 85711 292.764
18.3171 86589 294.26
18.4337 88539 297.555
18.5502 91010 301.679
18.6666 92388 303.954
18.7831 92498 304.135
18.8994 91593 302.643
19.0158 89812 299.687
19.1321 87049 295.041
19.2483 82581 287.369
19.3645 79540 282.028
19.4806 76640 276.839
19.5967 76002 275.685
19.7128 78615 280.384
19.8288 81431 285.361
19.9447 77354 278.126
20.0606 0 1
20.1764 0 1
20.2922 0 1
20.4079 0 1
20.5236 0 1
20.6392 0 1
20.7548 0 1
20.8702 0 1
23.3078 0 1
23.4233 0 1
23.539 0 1
23.6547 0 1
23.7704 0 1
23.8862 0 1
24.0021 0 1
24.118 0 1
24.234 0 1
24.35 0 1
24.4661 77414 278.234
24.5822 76555 276.686
24.6984 78500 280.179
24.8146 82646 287.482
24.9309 86594 294.269
25.0472 90124 300.207
25.1636 92599 304.301
25.28 93024 304.998
25.3965 93013 304.98
25.513 93487 305.756
25.6296 94522 307.444
25.7462 95249 308.624
25.8628 94144 306.829
25.9795 90805 301.339
26.0962 85983 293.229
26.213 82163 286.641
26.3298 79301 281.604
26.4466 78592 280.343
26.5635 81521 285.519
26.6804 84681 291
26.7973 86424 293.98
26.9143 88032 296.702
27.0313 90069 300.115
27.1483 92625 304.344
27.2653 93715 306.129
27.3824 94271 307.036
27.4996 94674 307.691
27.6167 91748 302.899
27.7339 89303 298.836
27.8511 85752 292.834
27.9683 80743 284.153
28.0855 76546 276.669
28.2028 76235 276.107
28.3201 78048 279.371
28.4374 83663 289.246
28.5547 87411 295.654
28.6721 90780 301.297
28.7894 91300 302.159
28.9068 91977 303.277
29.0242 90555 300.924
29.1416 89752 299.586
29.259 89540 299.232
29.3764 87437 295.697
29.4939 83745 289.387
29.6113 78456 280.1
29.7288 74948 273.766
29.8463 72540 269.333
29.9638 71434 267.271
30.0812 72962 270.115
30.1987 76384 276.377
30.3162 79443 281.856
30.4337 81028 284.654
30.5512 83711 289.329
30.6687 85101 291.721
30.7862 88217 297.013
30.9037 87490 295.787
31.0212 88431 297.374
31.1387 87356 295.56
31.2562 85296 292.055
31.3737 82455 287.15
31.4912 78231 279.698
31.6087 74076 272.169
31.7262 72506 269.269
31.8436 74506 272.958
31.9611 78610 280.375
32.0785 82839 287.818
32.1959 85978 293.22
32.3134 86766 294.561
32.4308 86528 294.156
32.5482 86460 294.041
32.6655 86257 293.695
32.7829 85214 291.914
32.9002 85243 291.964
33.0176 85016 291.575
33.1349 81360 285.237
33.2522 77319 278.063
33.3694 71385 267.18
33.4867 69417 263.471
33.6039 67311 259.444
33.7211 66816 258.488
33.8383 69854 264.299
33.9554 73300 270.74
34.0725 76164 275.978
34.1896 77566 278.507
34.3067 79986 282.818
34.4237 80748 284.162
34.5407 81986 286.332
34.6577 82452 287.145
34.7746 82454 287.148
34.8915 81594 285.647
35.0084 79299 281.601
35.1252 75318 274.441
35.242 71661 267.696
35.3587 67863 260.505
35.4755 67985 260.739
35.5921 70962 266.387
35.7088 74510 272.965
35.8254 78682 280.503
35.9419 81627 285.704
36.0584 81945 286.26
36.1749 82358 286.981
36.2913 81758 285.934
36.4077 81161 284.888
36.524 81103 284.786
36.6403 80478 283.686
36.7565 78002 279.288
36.8727 73368 270.865
36.9889 68940 262.564
37.1049 64936 254.825
37.221 0 1
37.3369 0 1
37.4529 0 1
37.5687 0 1
37.6845 0 1
37.8003 0 1
37.916 0 1
38.0316 0 1
38.1472 0 1
40.5851 0 1
40.7008 0 1
40.8164 0 1
40.9322 0 1
41.048 0 1
41.1639 0 1
41.2798 0 1
41.3958 0 1
41.5118 0 1
41.6279 0 1
41.744 61953 248.904
41.8602 65723 256.365
41.9765 65195 255.333
42.0928 61992 248.982
42.2091 57851 240.522
42.3255 53968 232.31
42.4419 50769 225.32
42.5584 49342 222.131
42.675 50021 223.654
42.7915 53325 230.922
42.9081 56198 237.061
43.0248 57925 240.676
43.1415 58616 242.107
43.2582 59362 243.643
43.375 59951 244.849
43.4918 59848 244.639
43.6087 60196 245.349
43.7256 59228 243.368
43.8425 57617 240.035
43.9595 54623 233.716
44.0765 53069 230.367
44.1935 49499 222.484
44.3106 46838 216.421
44.4277 45827 214.072
44.5448 47097 217.018
44.6619 49227 221.872
44.7791 50826 225.446
44.8963 51467 226.863
45.0136 49997 223.6
45.1308 49581 222.668
45.2481 49167 221.736
45.3654 47957 218.991
45.4827 47439 217.805
45.6001 45675 213.717
45.7174 42747 206.753
45.8348 39711 199.276
45.9522 37188 192.842
46.0697 35318 187.931
46.1871 34528 185.817
46.3046 36337 190.623
46.422 38125 195.256
46.5395 39408 198.514
46.657 40485 201.209
46.7745 40447 201.114
46.892 40642 201.599
47.0096 40818 202.035
47.1271 40679 201.69
47.2446 40809 202.012
47.3622 39723 199.306
47.4797 38716 196.764
47.5973 37289 193.104
47.7149 35903 189.481
47.8324 34434 185.564
47.95 32787 181.072
48.0675 33429 182.836
48.1851 34987 187.048
48.3027 36926 192.161
48.4202 37619 193.956
48.5378 38011 194.964
48.6554 37804 194.433
48.7729 38288 195.673
48.8904 38779 196.924
49.008 38237 195.543
49.1255 37260 193.028
49.243 35670 188.865
49.3605 33461 182.923
49.478 32316 179.767
49.5955 31293 176.898
49.713 31176 176.567
49.8304 33297 182.475
49.9479 36748 191.698
50.0653 39405 198.507
50.1827 42141 205.283
50.3001 44162 210.148
50.4175 44775 211.601
50.5348 46802 216.338
50.6521 48741 220.774
50.7694 49358 222.167
50.8867 50841 225.479
51.004 51585 227.123
51.1212 51832 227.666
51.2384 51155 226.175
51.3556 50634 225.02
51.4727 50412 224.526
51.5899 52631 229.414
51.707 56560 237.823
51.824 61545 248.083
51.9411 65446 255.824
52.0581 67637 260.071
52.175 69536 263.697
52.2919 70841 266.16
52.4088 72474 269.21
52.5257 73699 271.476
52.6425 74850 273.587
52.7593 73852 271.757
52.876 69201 263.061
52.9927 64282 253.539
53.1094 60773 246.522
53.226 57957 240.743
53.3426 57681 240.169
53.4591 62587 250.174
53.5756 69652 263.917
53.692 75409 274.607
53.8084 79620 282.17
53.9248 82613 287.425
54.0411 84595 290.852
54.1573 86196 293.592
54.2735 0 1
54.3896 0 1
54.5057 0 1
54.6217 0 1
54.7377 0 1
54.8537 0 1
54.9695 0 1
55.0853 0 1
55.2011 0 1
55.3168 0 1
55.4324 0 1
57.824 0 1
57.9396 0 1
58.0553 0 1
58.1711 0 1
58.2869 0 1
58.4028 0 1
58.5187 0 1
58.6347 0 1
58.7508 0 1
58.8669 0 1
58.983 80306 283.383
59.0992 86587 294.257
59.2155 89226 298.707
59.3318 90345 300.574
59.4482 91295 302.151
59.5646 91396 302.318
59.681 91643 302.726
59.7975 90516 300.859
59.9141 89263 298.769
60.0306 88053 296.737
60.1473 85143 291.793
60.2639 81599 285.655
60.3807 82220 286.74
60.4974 82863 287.859
60.6142 87732 296.196
60.731 89858 299.763
60.8479 91670 302.771
60.9648 91464 302.43
61.0818 91713 302.842
61.1987 89972 299.953
61.3158 89171 298.615
61.4328 86064 293.367
61.5499 80703 284.083
61.667 73700 271.477
61.7841 67878 260.534
61.9013 63754 252.496
62.0185 63231 251.458
62.1357 66873 258.598
62.253 72636 269.511
62.3702 77218 277.881
62.4875 81707 285.844
62.6049 83747 289.391
62.7222 83624 289.178
62.8396 85284 292.034
62.9569 84964 291.486
63.0743 85374 292.188
63.1918 84458 290.617
63.3092 84598 290.857
63.4267 83362 288.725
63.5441 81433 285.365
63.6616 78586 280.332
63.7791 75487 274.749
63.8966 73011 270.205
64.0142 74598 273.126
64.1317 77978 279.245
64.2492 80653 283.995
64.3668 81925 286.225
64.4843 81662 285.766
64.6019 81488 285.461
64.7195 80806 284.264
64.837 80635 283.963
64.9546 79067 281.189
65.0722 75022 273.901
65.1898 68197 261.146
65.3074 63976 252.935
65.4249 58196 241.238
65.5425 55477 235.536
65.6601 55786 236.191
65.7777 60200 245.357
65.8952 66724 258.31
66.0128 72893 269.987
66.1304 75767 275.258
66.2479 77549 278.476
66.3655 79246 281.507
66.483 80344 283.45
66.6005 81529 285.533
66.718 83483 288.934
66.8355 83905 289.664
66.953 84792 291.191
67.0705 83807 289.494
67.1879 84073 289.953
67.3054 81783 285.977
67.4228 80157 283.12
67.5402 77381 278.174
67.6576 79720 282.347
67.7749 83496 288.957
67.8923 90412 300.686
68.0096 93332 305.503
68.1269 95912 309.697
68.2442 96110 310.016
68.3614 96399 310.482
68.4787 96423 310.521
68.5958 97540 312.314
68.713 94759 307.829
68.8302 88408 297.335
68.9473 80948 284.514
69.0643 74659 273.238
69.1814 70257 265.06
69.2984 68893 262.475
69.4154 74189 272.377
69.5323 83318 288.649
69.6492 91679 302.785
69.7661 98161 313.307
69.8829 100122 316.421
69.9997 102849 320.701
70.1165 103255 321.333
70.2332 104754 323.657
70.3499 105271 324.455
70.4665 107418 327.747
70.5831 107312 327.585
70.6996 106257 325.971
70.8161 105987 325.556
70.9326 104586 323.398
71.049 101430 318.481
71.1653 94474 307.366
71.2817 89936 299.893
71.3979 90357 300.594
71.5141 92154 303.569
71.6303 96124 310.039
71.7464 94102 306.76
71.8624 0 1
71.9784 0 1
72.0944 0 1
72.2102 0 1
72.3261 0 1
72.4418 0 1
72.5575 0 1
72.6732 0 1
75.1054 0 1
75.2209 0 1
75.3365 0 1
75.4521 0 1
75.5678 0 1
75.6835 0 1
75.7993 0 1
75.9151 0 1
76.031 0 1
76.147 76222 276.083
76.263 80142 283.094
76.3791 76875 277.263
76.4952 73258 270.662
76.6113 73926 271.893
76.7276 76973 277.44
76.8438 82490 287.211
76.9601 83546 289.043
77.0765 83743 289.384
77.1929 83175 288.401
77.3093 82739 287.644
77.4258 82289 286.861
77.5423 80579 283.864
77.6589 75229 274.279
77.7755 68661 262.032
77.8921 61654 248.302
78.0088 56540 237.781
78.1256 52775 229.728
78.2423 51553 227.053
78.3591 55111 234.757
78.4759 62940 250.878
78.5928 69526 263.678
78.7097 72238 268.771
78.8266 72802 269.818
78.9436 77562 278.5
79.0606 75495 274.764
79.1776 76935 277.372
79.2946 77859 279.032
79.4117 79256 281.524
79.5288 79161 281.356
79.6459 80238 283.263
79.7631 78854 280.81
79.8802 78146 279.546
79.9974 75076 274
80.1147 70481 265.483
80.2319 69846 264.284
80.3491 72636 269.511
80.4664 78090 279.446
80.5837 80375 283.505
80.701 80253 283.29
80.8183 80611 283.921
80.9357 79876 282.623
81.053 79430 281.833
81.1704 79855 282.586
81.2877 78094 279.453
81.4051 73144 270.451
81.5225 66017 256.938
81.6399 58685 242.25
81.7573 55325 235.213
81.8747 51508 226.954
81.9922 54038 232.461
82.1096 61189 247.364
82.227 68434 261.599
82.3444 70909 266.287
82.4619 74378 272.723
82.5793 76751 277.04
82.6967 75523 274.814
82.8142 77796 278.919
82.9316 79829 282.54
83.049 80747 284.16
83.1664 80610 283.919
83.2838 81508 285.496
83.4012 82029 286.407
83.5186 81106 284.791
83.636 78276 279.778
83.7534 74163 272.329
83.8708 72659 269.553
83.9881 74274 272.533
84.1055 78937 280.957
84.2228 84702 291.036
84.3401 85126 291.764
84.4575 85815 292.942
84.5747 85646 292.653
84.692 85367 292.176
84.8093 84922 291.414
84.9265 80556 283.824
85.0437 73192 270.54
85.1609 66235 257.362
85.2781 60763 246.502
85.3952 57310 239.395
85.5123 56630 237.971
85.6294 60985 246.951
85.7465 69118 262.903
85.8636 75771 275.265
85.9806 78907 280.904
86.0976 81767 285.949
86.2145 84209 290.188
86.3315 86545 294.185
86.4484 90558 300.929
86.5652 92583 304.275
86.682 93635 305.998
86.7988 94778 307.86
86.9156 95817 309.543
87.0323 96337 310.382
87.149 95258 308.639
87.2657 92830 304.68
87.3823 89205 298.672
87.4988 90025 300.042
87.6154 94673 307.69
87.7318 102557 320.245
87.8483 106656 326.582
87.9647 108568 329.497
88.081 109817 331.386
88.1973 111201 333.468
88.3136 112076 334.778
88.4298 110131 331.86
88.546 104067 322.594
88.6621 95098 308.38
88.7781 86874 294.744
88.8942 0 1
89.0101 0 1
89.126 0 1
89.2419 0 1
89.3577 0 1
89.4734 0 1
89.5891 0 1
89.7047 0 1
89.8203 0 1
89.9358 0 1
92.3269 0 1
92.4424 0 1
92.558 0 1
92.6736 0 1
92.7893 0 1
92.905 0 1
93.0208 0 1
93.1366 0 1
93.2525 0 1
93.3685 0 1
93.4845 0 1
93.6005 127944 357.693
93.7167 126232 355.291
93.8328 120126 346.592
93.949 110373 332.224
94.0653 101994 319.365
94.1816 95394 308.859
94.2979 91801 302.987
94.4143 91104 301.834
94.5307 94831 307.946
94.6472 103836 322.236
94.7637 112052 334.742
94.8803 116300 341.028
94.9969 121236 348.19
95.1135 126999 356.369
95.2302 130374 361.073
95.3469 134870 367.247
95.4637 137406 370.683
95.5805 140235 374.48
95.6973 142900 378.021
95.8142 144118 379.629
95.9311 143605 378.953
96.048 141608 376.308
96.1649 139740 373.818
96.2819 135158 367.638
96.3989 130790 361.649
96.516 129370 359.68
96.633 131647 362.832
96.7501 137367 370.631
96.8673 143214 378.436
96.9844 144048 379.537
97.1016 143872 379.305
97.2188 141874 376.662
97.336 141146 375.694
97.4532 136591 369.582
97.5704 129650 360.069
97.6877 116928 341.947
97.805 105779 325.237
97.9223 96810 311.143
98.0396 90064 300.107
98.1569 87165 295.237
98.2743 89797 299.661
98.3916 96738 311.027
98.509 102777 320.589
98.6264 106897 326.951
98.7438 111457 333.852
98.8612 115136 339.317
98.9786 118160 343.744
99.096 118824 344.709
99.2134 119521 345.718
99.3308 119178 345.222
99.4482 118404 344.099
99.5656 116616 341.491
99.6831 114606 338.535
99.8005 111738 334.272
99.9179 108229 328.982
100.035 103446 321.63
100.153 102441 320.064
100.27 105260 324.438
100.388 108793 329.838
100.505 112450 335.336
100.622 112451 335.337
100.74 111136 333.371
100.857 110782 332.839
100.975 109598 331.056
101.092 108382 329.214
101.209 104042 322.555
101.327 95015 308.245
101.444 87296 295.459
101.561 81074 284.735
101.679 76358 276.33
101.796 73653 271.391
101.913 76132 275.92
102.03 82866 287.865
102.148 87734 296.199
102.265 85312 292.082
102.382 103061 321.031
102.499 101127 318.005
102.616 103396 321.552
102.733 104994 324.028
102.851 105081 324.162
102.968 106959 327.046
103.085 106061 325.67
103.202 104597 323.415
103.319 102366 319.947
103.436 99544 315.506
103.552 95043 308.29
103.669 93267 305.396
103.786 96210 310.177
103.903 99640 315.658
104.02 102438 320.059
104.137 102294 319.834
104.253 101640 318.81
104.37 101189 318.102
104.487 100785 317.467
104.603 98849 314.403
104.72 94261 307.02
104.836 86100 293.428
104.953 78270 279.768
105.069 73152 270.466
105.186 67665 260.125
105.302 65658 256.238
105.418 68830 262.355
105.535 72951 270.094
105.651 76558 276.691
105.767 80153 283.113
105.883 83870 289.603
105.999 86213 293.621
106.115 0 1
106.231 0 1
106.347 0 1
106.463 0 1
106.579 0 1
106.694 0 1
106.81 0 1
106.926 0 1
107.041 0 1
107.157 0 1
109.576 0 1
109.692 0 1
109.807 0 1
109.923 0 1
110.039 0 1
110.155 0 1
110.27 0 1
110.386 0 1
110.502 0 1
110.618 61140 247.265
110.735 66833 258.521
110.851 70894 266.259
110.967 74550 273.038
111.083 76993 277.476
111.199 80056 282.942
111.316 81185 284.93
111.432 82375 287.01
111.549 82242 286.779
111.665 82004 286.363
111.782 81222 284.995
111.898 78901 280.893
112.015 76010 275.699
112.132 74520 272.984
112.248 75060 273.971
112.365 76571 276.715
112.482 81523 285.522
112.599 80229 283.247
112.716 82206 286.716
112.832 82612 287.423
112.949 81916 286.21
113.066 82334 286.939
113.183 81668 285.776
113.3 80064 282.956
113.417 74538 273.016
113.534 68271 261.287
113.652 63180 251.356
113.769 58846 242.582
113.886 56039 236.726
114.003 57581 239.96
114.12 61688 248.371
114.238 66105 257.109
114.355 70194 264.942
114.472 74623 273.172
114.589 74268 272.522
114.707 78130 279.517
114.824 78961 281
114.942 80083 282.989
115.059 80475 283.681
115.176 79645 282.214
115.294 79083 281.217
115.411 76811 277.148
115.529 72900 270
115.646 70428 265.383
115.764 69832 264.257
115.881 70904 266.278
115.999 72932 270.059
116.116 74082 272.18
116.234 74865 273.615
116.351 74876 273.635
116.469 73802 271.665
116.586 73485 271.081
116.704 73795 271.652
116.821 73245 270.638
116.939 71164 266.766
117.056 65636 256.195
117.174 59427 243.777
117.291 54828 234.154
117.409 51546 227.037
117.526 49558 222.616
117.644 52782 229.743
117.761 57536 239.867
117.879 61808 248.612
117.996 63538 252.067
118.114 66728 258.318
118.231 70187 264.928
118.349 71004 266.466
118.466 73164 270.488
118.584 74834 273.558
118.701 75146 274.128
118.819 74776 273.452
118.936 73847 271.748
119.053 72733 269.691
119.171 71265 266.955
119.288 70372 265.277
119.405 70988 266.436
119.523 72768 269.755
119.64 75087 274.02
119.757 77700 278.747
119.875 78536 280.243
119.992 79370 281.727
120.109 80630 283.954
120.226 80409 283.565
120.343 81483 285.452
120.46 81486 285.458
120.578 81680 285.797
120.695 78167 279.584
120.812 71971 268.274
120.929 65891 256.692
121.046 61258 247.504
121.163 57547 239.89
121.279 57994 240.819
121.396 63306 251.607
121.513 70415 265.358
121.63 75619 274.989
121.747 79082 281.215
121.863 82516 287.256
121.98 85986 293.234
122.097 87270 295.415
122.213 88770 297.943
122.33 90719 301.196
122.446 90671 301.116
122.563 90214 300.356
122.679 90044 300.073
122.795 87831 296.363
122.912 86799 294.617
123.028 85489 292.385
123.144 85417 292.262
123.26 86171 293.549
123.377 0 1
123.493 0 1
123.609 0 1
123.725 0 1
123.84 0 1
123.956 0 1
124.072 0 1
124.188 0 1
124.303 0 1
124.419 0 1
126.852 0 1
126.968 0 1
127.083 0 1
127.199 0 1
127.315 0 1
127.431 0 1
127.547 0 1
127.663 0 1
127.779 0 1
127.895 0 1
128.011 0 1
128.127 0 1
128.243 0 1
128.359 95386 308.846
128.476 93927 306.475
128.592 95396 308.862
128.708 96965 311.392
128.825 99466 315.382
128.941 100740 317.396
129.058 100301 316.703
129.174 100178 316.509
129.291 99597 315.59
129.408 99025 314.682
129.524 98376 313.649
129.641 96431 310.533
129.758 92854 304.72
129.875 85492 292.39
129.992 76698 276.944
130.108 70491 265.501
130.225 64579 254.124
130.342 64746 254.452
130.459 69455 263.543
130.576 75034 273.923
130.693 80551 283.815
130.81 83008 288.111
130.928 84927 291.422
131.045 86549 294.192
131.162 88057 296.744
131.279 89084 298.469
131.396 88931 298.213
131.513 88542 297.56
131.631 85773 292.87
131.748 84218 290.203
131.865 82790 287.733
131.983 82152 286.622
132.1 81825 286.051
132.217 83594 289.126
132.335 84314 290.369
132.452 85305 292.07
132.57 84426 290.562
132.687 81783 285.977
132.804 86211 293.617
132.922 83181 288.411
133.039 82085 286.505
133.157 82025 286.4
133.274 79781 282.455
133.392 74175 272.351
133.509 67550 259.904
133.627 61595 248.183
133.744 55941 236.518
133.862 53568 231.448
133.979 55599 235.794
134.097 61224 247.435
134.214 66590 258.05
134.332 67478 259.765
134.449 70019 264.611
134.567 70948 266.361
134.684 71512 267.417
134.802 72111 268.535
134.919 72154 268.615
135.037 71302 267.024
135.154 68998 262.675
135.272 67332 259.484
135.389 66637 258.141
135.507 65701 256.322
135.624 65687 256.295
135.742 66483 257.843
135.859 65881 256.673
135.977 66826 258.507
136.094 67092 259.021
136.211 66991 258.826
136.329 66017 256.938
136.446 65741 256.4
136.564 65385 255.705
136.681 64470 253.909
136.798 65665 256.252
136.915 63416 251.825
137.033 58955 242.807
137.15 54551 233.562
137.267 50001 223.609
137.384 46527 215.701
137.502 45400 213.073
137.619 47656 218.303
137.736 52555 229.249
137.853 56039 236.726
137.97 60018 244.986
138.087 62808 250.615
138.204 63789 252.565
138.321 65384 255.703
138.438 67703 260.198
138.555 68139 261.034
138.672 68093 260.946
138.788 67786 260.357
138.905 67128 259.091
139.022 66741 258.343
139.139 67825 260.432
139.255 68944 262.572
139.372 69945 264.471
139.488 71928 268.194
139.605 73549 271.199
139.721 74437 272.831
139.838 75417 274.622
139.954 75748 275.224
140.071 74904 273.686
140.187 77963 279.219
140.303 76392 276.391
140.419 76864 277.244
140.535 76108 275.877
140.652 71935 268.207
140.768 0 1
140.884 0 1
141 0 1
141.115 0 1
141.231 0 1
141.347 0 1
141.463 0 1
141.578 0 1
141.694 0 1
144.104 0 1
144.219 0 1
144.335 0 1
144.45 0 1
144.566 0 1
144.682 0 1
144.798 0 1
144.914 0 1
145.03 0 1
145.146 65128 255.202
145.262 66289 257.467
145.378 65649 256.221
145.494 65429 255.791
145.61 64528 254.024
145.726 62041 249.08
145.842 57644 240.092
145.959 53276 230.816
146.075 49613 222.74
146.192 46445 215.511
146.308 44385 210.677
146.425 46743 216.201
146.541 49590 222.688
146.658 52167 228.401
146.774 53974 232.323
146.891 55917 236.468
147.008 55806 236.233
147.125 56788 238.302
147.241 56039 236.726
147.358 55302 235.164
147.475 54590 233.645
147.592 53189 230.627
147.709 52268 228.622
147.826 51485 226.903
147.943 51902 227.82
148.06 52156 228.377
148.177 52409 228.93
148.294 52807 229.798
148.411 52585 229.314
148.528 52476 229.076
148.645 51860 227.728
148.762 51709 227.396
148.88 50934 225.686
148.997 52929 230.063
149.114 48371 219.934
149.231 49912 223.41
149.349 48331 219.843
149.466 46840 216.426
149.583 42671 206.57
149.701 39913 199.782
149.818 38299 195.701
149.935 37651 194.039
150.053 39227 198.058
150.17 41772 204.382
150.287 44036 209.848
150.405 45433 213.15
150.522 47336 217.568
150.64 48637 220.538
150.757 48851 221.023
150.875 48843 221.005
150.992 48292 219.754
151.11 48887 221.104
151.227 47574 218.115
151.344 46936 216.647
151.462 47643 218.273
151.579 47827 218.694
151.697 49011 221.384
151.814 50029 223.672
151.932 51235 226.351
152.049 51346 226.597
152.167 51534 227.011
152.284 52646 229.447
152.402 52477 229.079
152.519 52870 229.935
152.636 53268 230.799
152.754 53186 230.621
152.871 53115 230.467
152.989 51108 226.071
153.106 48810 220.93
153.223 45296 212.829
153.341 43395 208.315
153.458 41559 203.86
153.575 41720 204.255
153.693 44541 211.047
153.81 47166 217.177
153.927 49061 221.497
154.044 51222 226.323
154.162 52941 230.089
154.279 55003 234.527
154.396 56979 238.703
154.513 57816 240.45
154.63 59012 242.924
154.747 58804 242.495
154.864 58885 242.662
154.981 57953 240.734
155.098 58528 241.926
155.215 59461 243.846
155.332 61743 248.481
155.449 62846 250.691
155.566 64057 253.095
155.683 65053 255.055
155.8 65667 256.256
155.917 66373 257.63
156.033 66801 258.459
156.15 0 1
156.267 0 1
156.383 0 1
156.5 0 1
156.617 0 1
156.733 0 1
156.85 0 1
156.966 0 1
157.082 0 1
157.199 0 1
157.315 0 1
157.431 0 1
157.547 0 1
157.664 0 1
157.78 0 1
157.896 0 1
158.012 0 1
158.128 0 1
158.244 0 1
158.359 0 1
158.475 0 1
158.591 0 1
158.706 0 1
