
6.15755 0 1
6.2731 0 1
6.3887 0 1
6.50437 0 1
6.62009 0 1
6.73587 0 1
6.8517 0 1
6.96759 0 1
7.08353 0 1
7.19952 0 1
7.31557 0 1
7.43166 0 1
7.54781 0 1
7.664 0 1
7.78024 0 1
7.89653 0 1
8.01286 0 1
8.12924 0 1
8.24567 0 1
8.36213 0 1
8.47864 0 1
8.59519 0 1
8.71178 0 1
8.82841 0 1
8.94508 0 1
9.06179 0 1
9.17853 0 1
9.29531 0 1
9.41212 0 1
9.52897 0 1
9.64584 0 1
9.76276 0 1
9.8797 0 1
9.99667 0 1
10.1137 0 1
10.2307 0 1
10.3478 0 1
10.4648 0 1
10.5819 0 1
10.6991 0 1
10.8162 0 1
10.9334 0 1
11.0506 0 1
11.1678 0 1
11.285 0 1
11.4023 0 1
11.5196 0 1
11.6369 0 1
11.7542 0 1
11.8715 0 1
11.9888 0 1
12.1062 0 1
12.2235 0 1
12.3409 0 1
12.4582 0 1
12.5756 0 1
12.693 0 1
12.8104 0 1
12.9278 0 1
13.0452 0 1
13.1626 0 1
13.28 0 1
13.3974 0 1
13.5149 0 1
13.6323 0 1
13.7497 0 1
13.8671 0 1
13.9845 0 1
14.1019 0 1
14.2193 0 1
14.3367 0 1
14.4541 0 1
14.5714 0 1
14.6888 0 1
14.8062 0 1
14.9235 0 1
15.0408 2766 52.5928
15.1581 2779 52.7162
15.2755 2776 52.6878
15.3927 2851 53.3948
15.51 2929 54.1202
15.6273 2794 52.8583
15.7445 2868 53.5537
15.8617 2795 52.8678
15.9789 2775 52.6783
16.0961 2811 53.0189
16.2132 2752 52.4595
16.3304 2755 52.4881
16.4475 2715 52.1057
16.5646 2774 52.6688
16.6816 2767 52.6023
16.7986 2822 53.1225
16.9156 2685 51.817
17.0326 2808 52.9906
17.1496 2794 52.8583
17.2665 2756 52.4976
17.3833 2638 51.3615
17.5002 2599 50.9804
17.617 2544 50.4381
17.7338 2600 50.9902
17.8505 2722 52.1728
17.9672 2771 52.6403
18.0839 2856 53.4416
18.2005 2906 53.9073
18.3171 3054 55.263
18.4337 3084 55.5338
18.5502 3115 55.8122
18.6666 3114 55.8032
18.7831 3068 55.3895
18.8994 2999 54.7631
19.0158 3092 55.6058
19.1321 2955 54.3599
19.2483 2954 54.3507
19.3645 2866 53.535
19.4806 2704 52
19.5967 2544 50.4381
19.7128 2455 49.548
19.8288 2460 49.5984
19.9447 2210 47.0106
20.0606 0 1
20.1764 0 1
20.2922 0 1
20.4079 0 1
20.5236 0 1
20.6392 0 1
20.7548 0 1
20.8702 0 1
23.3078 0 1
23.4233 0 1
23.539 0 1
23.6547 0 1
23.7704 0 1
23.8862 0 1
24.0021 0 1
24.118 0 1
24.234 0 1
24.35 0 1
24.4661 2733 52.2781
24.5822 2578 50.774
24.6984 2574 50.7346
24.8146 2431 49.3052
24.9309 2603 51.0196
25.0472 2558 50.5767
25.1636 2626 51.2445
25.28 2787 52.792
25.3965 2801 52.9245
25.513 2907 53.9166
25.6296 2954 54.3507
25.7462 2912 53.963
25.8628 2940 54.2218
25.9795 2907 53.9166
26.0962 2921 54.0463
26.213 2772 52.6498
26.3298 2666 51.6333
26.4466 2609 51.0784
26.5635 2481 49.8096
26.6804 2711 52.0673
26.7973 2710 52.0577
26.9143 2825 53.1507
27.0313 2898 53.8331
27.1483 2967 54.4702
27.2653 2959 54.3967
27.3824 2953 54.3415
27.4996 2918 54.0185
27.6167 2861 53.4883
27.7339 2906 53.9073
27.8511 2748 52.4214
27.9683 2782 52.7447
28.0855 2701 51.9711
28.2028 2637 51.3517
28.3201 2562 50.6162
28.4374 2559 50.5866
28.5547 2419 49.1833
28.6721 2555 50.547
28.7894 2615 51.1371
28.9068 2655 51.5267
29.0242 2773 52.6593
29.1416 2780 52.7257
29.259 2802 52.9339
29.3764 2809 53
29.4939 2727 52.2207
29.6113 2586 50.8527
29.7288 2596 50.951
29.8463 2442 49.4166
29.9638 2447 49.4672
30.0812 2495 49.95
30.1987 2461 49.6085
30.3162 2467 49.6689
30.4337 2656 51.5364
30.5512 2713 52.0865
30.6687 2732 52.2685
30.7862 2918 54.0185
30.9037 2813 53.0377
31.0212 2921 54.0463
31.1387 2873 53.6004
31.2562 2810 53.0094
31.3737 2827 53.1695
31.4912 2711 52.0673
31.6087 2641 51.3907
31.7262 2561 50.6063
31.8436 2442 49.4166
31.9611 2397 48.9592
32.0785 2365 48.6313
32.1959 2486 49.8598
32.3134 2586 50.8527
32.4308 2586 50.8527
32.5482 2655 51.5267
32.6655 2629 51.2738
32.7829 2571 50.705
32.9002 2680 51.7687
33.0176 2499 49.99
33.1349 2636 51.342
33.2522 2623 51.2152
33.3694 2567 50.6656
33.4867 2517 50.1697
33.6039 2427 49.2646
33.7211 2281 47.7598
33.8383 2414 49.1325
33.9554 2414 49.1325
34.0725 2514 50.1398
34.1896 2528 50.2792
34.3067 2616 51.1468
34.4237 2601 51
34.5407 2709 52.0481
34.6577 2779 52.7162
34.7746 2708 52.0384
34.8915 2685 51.817
35.0084 2640 51.3809
35.1252 2565 50.6458
35.242 2605 51.0392
35.3587 2537 50.3686
35.4755 2377 48.7545
35.5921 2350 48.4768
35.7088 2215 47.0638
35.8254 2311 48.0729
35.9419 2378 48.7647
36.0584 2277 47.7179
36.1749 2373 48.7134
36.2913 2464 49.6387
36.4077 2528 50.2792
36.524 2552 50.5173
36.6403 2569 50.6853
36.7565 2563 50.6261
36.8727 2656 51.5364
36.9889 2457 49.5681
37.1049 2359 48.5695
37.221 0 1
37.3369 0 1
37.4529 0 1
37.5687 0 1
37.6845 0 1
37.8003 0 1
37.916 0 1
38.0316 0 1
38.1472 0 1
40.5851 0 1
40.7008 0 1
40.8164 0 1
40.9322 0 1
41.048 0 1
41.1639 0 1
41.2798 0 1
41.3958 0 1
41.5118 0 1
41.6279 0 1
41.744 2027 45.0222
41.8602 2075 45.5522
41.9765 2159 46.465
42.0928 2196 46.8615
42.2091 2142 46.2817
42.3255 2086 45.6727
42.4419 2025 45
42.5584 1909 43.6921
42.675 1984 44.5421
42.7915 1876 43.3128
42.9081 1967 44.3509
43.0248 2034 45.0999
43.1415 2028 45.0333
43.2582 2049 45.2659
43.375 2103 45.8585
43.4918 2198 46.8828
43.6087 2226 47.1805
43.7256 2213 47.0425
43.8425 2123 46.076
43.9595 2000 44.7214
44.0765 2061 45.3982
44.1935 1969 44.3734
44.3106 1943 44.0795
44.4277 1893 43.5086
44.5448 1761 41.9643
44.6619 1616 40.1995
44.7791 1670 40.8656
44.8963 1663 40.7799
45.0136 1727 41.5572
45.1308 1718 41.4488
45.2481 1774 42.1189
45.3654 1670 40.8656
45.4827 1591 39.8873
45.6001 1679 40.9756
45.7174 1713 41.3884
45.8348 1691 41.1218
45.9522 1615 40.1871
46.0697 1585 39.8121
46.1871 1517 38.9487
46.3046 1509 38.8458
46.422 1486 38.5487
46.5395 1564 39.5474
46.657 1527 39.0768
46.7745 1631 40.3856
46.892 1638 40.4722
47.0096 1650 40.6202
47.1271 1600 40
47.2446 1589 39.8623
47.3622 1662 40.7676
47.4797 1508 38.833
47.5973 1511 38.8716
47.7149 1540 39.2428
47.8324 1472 38.3667
47.95 1426 37.7624
48.0675 1442 37.9737
48.1851 1311 36.2077
48.3027 1335 36.5377
48.4202 1267 35.5949
48.5378 1307 36.1525
48.6554 1344 36.6606
48.7729 1443 37.9868
48.8904 1392 37.3095
49.008 1397 37.3765
49.1255 1453 38.1182
49.243 1544 39.2938
49.3605 1391 37.2961
49.478 1378 37.1214
49.5955 1317 36.2905
49.713 1329 36.4555
49.8304 1356 36.8239
49.9479 1377 37.108
50.0653 1468 38.3145
50.1827 1559 39.4842
50.3001 1542 39.2683
50.4175 1557 39.4588
50.5348 1625 40.3113
50.6521 1664 40.7922
50.7694 1700 41.2311
50.8867 1811 42.5558
51.004 1834 42.8252
51.1212 1813 42.5793
51.2384 1796 42.3792
51.3556 1781 42.2019
51.4727 1854 43.0581
51.5899 1720 41.4729
51.707 1641 40.5093
51.824 1651 40.6325
51.9411 1746 41.7852
52.0581 1769 42.0595
52.175 1917 43.7836
52.2919 1923 43.852
52.4088 2107 45.9021
52.5257 2066 45.4533
52.6425 2072 45.5192
52.7593 2121 46.0543
52.876 2185 46.744
52.9927 2216 47.0744
53.1094 2139 46.2493
53.226 2173 46.6154
53.3426 2024 44.9889
53.4591 1953 44.1928
53.5756 2052 45.299
53.692 2110 45.9347
53.8084 2189 46.7868
53.9248 2337 48.3425
54.0411 2446 49.4571
54.1573 2468 49.679
54.2735 0 1
54.3896 0 1
54.5057 0 1
54.6217 0 1
54.7377 0 1
54.8537 0 1
54.9695 0 1
55.0853 0 1
55.2011 0 1
55.3168 0 1
55.4324 0 1
57.824 0 1
57.9396 0 1
58.0553 0 1
58.1711 0 1
58.2869 0 1
58.4028 0 1
58.5187 0 1
58.6347 0 1
58.7508 0 1
58.8669 0 1
58.983 2757 52.5071
59.0992 2939 54.2125
59.2155 3126 55.9106
59.3318 3060 55.3173
59.4482 3078 55.4797
59.5646 3037 55.109
59.681 3142 56.0535
59.7975 3155 56.1694
59.9141 3207 56.6304
60.0306 3112 55.7853
60.1473 2984 54.626
60.2639 3004 54.8088
60.3807 2849 53.376
60.4974 2758 52.5167
60.6142 2712 52.0769
60.731 2723 52.1824
60.8479 2625 51.2348
60.9648 2719 52.144
61.0818 2810 53.0094
61.1987 2922 54.0555
61.3158 2884 53.7029
61.4328 2984 54.626
61.5499 2886 53.7215
61.667 2904 53.8888
61.7841 2810 53.0094
61.9013 2751 52.45
62.0185 2639 51.3712
62.1357 2546 50.4579
62.253 2475 49.7494
62.3702 2553 50.5272
62.4875 2750 52.4404
62.6049 2766 52.5928
62.7222 2799 52.9056
62.8396 2896 53.8145
62.9569 2842 53.3104
63.0743 2741 52.3546
63.1918 2899 53.8424
63.3092 2982 54.6077
63.4267 2919 54.0278
63.5441 2857 53.4509
63.6616 2856 53.4416
63.7791 2668 51.6527
63.8966 2668 51.6527
64.0142 2522 50.2195
64.1317 2352 48.4974
64.2492 2351 48.4871
64.3668 2396 48.949
64.4843 2456 49.558
64.6019 2525 50.2494
64.7195 2586 50.8527
64.837 2643 51.4101
64.9546 2685 51.817
65.0722 2782 52.7447
65.1898 2738 52.3259
65.3074 2807 52.9811
65.4249 2618 51.1664
65.5425 2625 51.2348
65.6601 2457 49.5681
65.7777 2302 47.9792
65.8952 2379 48.775
66.0128 2445 49.4469
66.1304 2585 50.8429
66.2479 2654 51.517
66.3655 2690 51.8652
66.483 2734 52.2877
66.6005 2787 52.792
66.718 2844 53.3292
66.8355 2748 52.4214
66.953 2784 52.7636
67.0705 2911 53.9537
67.1879 2775 52.6783
67.3054 2731 52.259
67.4228 2758 52.5167
67.5402 2605 51.0392
67.6576 2500 50
67.7749 2367 48.6518
67.8923 2331 48.2804
68.0096 2447 49.4672
68.1269 2517 50.1697
68.2442 2588 50.8724
68.3614 2650 51.4782
68.4787 2805 52.9623
68.5958 2851 53.3948
68.713 2920 54.037
68.8302 2914 53.9815
68.9473 2968 54.4794
69.0643 2976 54.5527
69.1814 2779 52.7162
69.2984 2580 50.7937
69.4154 2542 50.4183
69.5323 2408 49.0714
69.6492 2649 51.4684
69.7661 2671 51.6817
69.8829 2743 52.3737
69.9997 2835 53.2447
70.1165 2902 53.8702
70.2332 3072 55.4256
70.3499 3101 55.6866
70.4665 3011 54.8726
70.5831 3079 55.4887
70.6996 3033 55.0727
70.8161 3050 55.2268
70.9326 2975 54.5436
71.049 2956 54.3691
71.1653 2818 53.0848
71.2817 2796 52.8772
71.3979 2638 51.3615
71.5141 2432 49.3153
71.6303 2421 49.2037
71.7464 2257 47.5079
71.8624 0 1
71.9784 0 1
72.0944 0 1
72.2102 0 1
72.3261 0 1
72.4418 0 1
72.5575 0 1
72.6732 0 1
75.1054 0 1
75.2209 0 1
75.3365 0 1
75.4521 0 1
75.5678 0 1
75.6835 0 1
75.7993 0 1
75.9151 0 1
76.031 0 1
76.147 2736 52.3068
76.263 2781 52.7352
76.3791 2953 54.3415
76.4952 2799 52.9056
76.6113 2734 52.2877
76.7276 2616 51.1468
76.8438 2519 50.1896
76.9601 2582 50.8134
77.0765 2661 51.5849
77.1929 2751 52.45
77.3093 2796 52.8772
77.4258 2825 53.1507
77.5423 2907 53.9166
77.6589 2927 54.1018
77.7755 2990 54.6809
77.8921 2998 54.754
78.0088 2982 54.6077
78.1256 2801 52.9245
78.2423 2653 51.5073
78.3591 2548 50.4777
78.4759 2372 48.7032
78.5928 2544 50.4381
78.7097 2667 51.643
78.8266 2711 52.0673
78.9436 2888 53.7401
79.0606 2877 53.6377
79.1776 2901 53.8609
79.2946 3029 55.0364
79.4117 3093 55.6147
79.5288 2955 54.3599
79.6459 2958 54.3875
79.7631 2974 54.5344
79.8802 2972 54.5161
79.9974 2983 54.6168
80.1147 2918 54.0185
80.2319 2836 53.2541
80.3491 2663 51.6043
80.4664 2550 50.4975
80.5837 2554 50.5371
80.701 2527 50.2693
80.8183 2702 51.9808
80.9357 2812 53.0283
81.053 2854 53.4228
81.1704 2916 54
81.2877 2962 54.4243
81.4051 3050 55.2268
81.5225 3094 55.6237
81.6399 2963 54.4334
81.7573 2978 54.5711
81.8747 2574 50.7346
81.9922 2423 49.224
82.1096 2320 48.1664
82.227 2482 49.8197
82.3444 2610 51.0882
82.4619 2827 53.1695
82.5793 2799 52.9056
82.6967 2945 54.2679
82.8142 2969 54.4885
82.9316 2950 54.3139
83.049 3026 55.0091
83.1664 3092 55.6058
83.2838 2954 54.3507
83.4012 3057 55.2901
83.5186 2966 54.461
83.636 3041 55.1453
83.7534 2983 54.6168
83.8708 2778 52.7067
83.9881 2644 51.4198
84.1055 2579 50.7839
84.2228 2551 50.5074
84.3401 2620 51.1859
84.4575 2731 52.259
84.5747 2742 52.3641
84.692 2914 53.9815
84.8093 2993 54.7083
84.9265 3031 55.0545
85.0437 3283 57.2975
85.1609 3087 55.5608
85.2781 3008 54.8452
85.3952 2868 53.5537
85.5123 2683 51.7977
85.6294 2579 50.7839
85.7465 2499 49.99
85.8636 2693 51.8941
85.9806 2834 53.2353
86.0976 2983 54.6168
86.2145 3075 55.4527
86.3315 3135 55.9911
86.4484 3252 57.0263
86.5652 3370 58.0517
86.682 3264 57.1314
86.7988 3306 57.4978
86.9156 3357 57.9396
87.0323 3162 56.2317
87.149 3147 56.0981
87.2657 3139 56.0268
87.3823 3049 55.2178
87.4988 2965 54.4518
87.6154 2800 52.915
87.7318 2633 51.3128
87.8483 2704 52
87.9647 2867 53.5444
88.081 2884 53.7029
88.1973 3003 54.7996
88.3136 3191 56.4889
88.4298 3170 56.3028
88.546 3299 57.4369
88.6621 3359 57.9569
88.7781 3291 57.3672
88.8942 0 1
89.0101 0 1
89.126 0 1
89.2419 0 1
89.3577 0 1
89.4734 0 1
89.5891 0 1
89.7047 0 1
89.8203 0 1
89.9358 0 1
92.3269 0 1
92.4424 0 1
92.558 0 1
92.6736 0 1
92.7893 0 1
92.905 0 1
93.0208 0 1
93.1366 0 1
93.2525 0 1
93.3685 0 1
93.4845 0 1
93.6005 3008 54.8452
93.7167 3031 55.0545
93.8328 3187 56.4535
93.949 3211 56.6657
94.0653 3183 56.4181
94.1816 2993 54.7083
94.2979 2990 54.6809
94.4143 2681 51.7784
94.5307 2528 50.2792
94.6472 2595 50.9411
94.7637 2575 50.7445
94.8803 2718 52.1344
94.9969 2828 53.1789
95.1135 2957 54.3783
95.2302 2919 54.0278
95.3469 3067 55.3805
95.4637 3126 55.9106
95.5805 3056 55.2811
95.6973 3227 56.8067
95.8142 3074 55.4437
95.9311 3048 55.2087
96.048 3246 56.9737
96.1649 3131 55.9553
96.2819 3063 55.3444
96.3989 3036 55.0999
96.516 2935 54.1756
96.633 2752 52.4595
96.7501 2602 51.0098
96.8673 2716 52.1153
96.9844 2637 51.3517
97.1016 2739 52.3355
97.2188 2813 53.0377
97.336 3002 54.7905
97.4532 3024 54.9909
97.5704 3225 56.7891
97.6877 3199 56.5597
97.805 3095 55.6327
97.9223 2989 54.6717
98.0396 2795 52.8678
98.1569 2638 51.3615
98.2743 2524 50.2394
98.3916 2550 50.4975
98.509 2579 50.7839
98.6264 2705 52.0096
98.7438 2961 54.4151
98.8612 2929 54.1202
98.9786 2975 54.5436
99.096 2916 54
99.2134 3057 55.2901
99.3308 3083 55.5248
99.4482 2978 54.5711
99.5656 3039 55.1271
99.6831 3052 55.2449
99.8005 3070 55.4076
99.9179 2850 53.3854
100.035 2893 53.7866
100.153 2740 52.345
100.27 2517 50.1697
100.388 2516 50.1597
100.505 2526 50.2593
100.622 2586 50.8527
100.74 2715 52.1057
100.857 2808 52.9906
100.975 2827 53.1695
101.092 3063 55.3444
101.209 2928 54.111
101.327 3027 55.0182
101.444 3126 55.9106
101.561 2914 53.9815
101.679 2777 52.6972
101.796 2676 51.7301
101.913 2537 50.3686
102.03 2511 50.1099
102.148 2691 51.8748
102.265 2683 51.7977
102.382 3179 56.3826
102.499 3020 54.9545
102.616 3066 55.3715
102.733 3085 55.5428
102.851 3119 55.848
102.968 3248 56.9912
103.085 3277 57.2451
103.202 3216 56.7098
103.319 3185 56.4358
103.436 3238 56.9034
103.552 3114 55.8032
103.669 3024 54.9909
103.786 2861 53.4883
103.903 2766 52.5928
104.02 2821 53.1131
104.137 2864 53.5164
104.253 2968 54.4794
104.37 3069 55.3986
104.487 3153 56.1516
104.603 3232 56.8507
104.72 3224 56.7803
104.836 3316 57.5847
104.953 3354 57.9137
105.069 3063 55.3444
105.186 2925 54.0833
105.302 2726 52.2111
105.418 2617 51.1566
105.535 2696 51.923
105.651 2847 53.3573
105.767 3022 54.9727
105.883 3065 55.3624
105.999 3138 56.0179
106.115 0 1
106.231 0 1
106.347 0 1
106.463 0 1
106.579 0 1
106.694 0 1
106.81 0 1
106.926 0 1
107.041 0 1
107.157 0 1
109.576 0 1
109.692 0 1
109.807 0 1
109.923 0 1
110.039 0 1
110.155 0 1
110.27 0 1
110.386 0 1
110.502 0 1
110.618 2367 48.6518
110.735 2506 50.06
110.851 2734 52.2877
110.967 2709 52.0481
111.083 2888 53.7401
111.199 2893 53.7866
111.316 2946 54.2771
111.432 2922 54.0555
111.549 2950 54.3139
111.665 2886 53.7215
111.782 2942 54.2402
111.898 2793 52.8488
112.015 2730 52.2494
112.132 2684 51.8073
112.248 2611 51.0979
112.365 2425 49.2443
112.482 2448 49.4773
112.599 2417 49.163
112.716 2341 48.3839
112.832 2330 48.2701
112.949 2537 50.3686
113.066 2533 50.3289
113.183 2643 51.4101
113.3 2697 51.9326
113.417 2636 51.342
113.534 2659 51.5655
113.652 2542 50.4183
113.769 2474 49.7393
113.886 2225 47.1699
114.003 2099 45.8148
114.12 2179 46.6798
114.238 2269 47.634
114.355 2277 47.7179
114.472 2385 48.8365
114.589 2442 49.4166
114.707 2455 49.548
114.824 2441 49.4065
114.942 2401 49
115.059 2548 50.4777
115.176 2352 48.4974
115.294 2470 49.6991
115.411 2370 48.6826
115.529 2332 48.2908
115.646 2215 47.0638
115.764 2152 46.3897
115.881 2085 45.6618
115.999 1930 43.9318
116.116 1901 43.6005
116.234 1910 43.7035
116.351 2059 45.3762
116.469 2026 45.0111
116.586 2044 45.2106
116.704 2087 45.6837
116.821 2172 46.6047
116.939 2162 46.4973
117.056 2122 46.0652
117.174 2156 46.4327
117.291 2140 46.2601
117.409 1902 43.6119
117.526 1830 42.7785
117.644 1765 42.0119
117.761 1890 43.4741
117.879 1865 43.1856
117.996 2010 44.833
118.114 2060 45.3872
118.231 2004 44.7661
118.349 2148 46.3465
118.466 2150 46.3681
118.584 2151 46.3789
118.701 2145 46.3141
118.819 2072 45.5192
118.936 2219 47.1063
119.053 2029 45.0444
119.171 2070 45.4973
119.288 2036 45.1221
119.405 2043 45.1996
119.523 1888 43.4511
119.64 1872 43.2666
119.757 1897 43.5546
119.875 1964 44.317
119.992 1872 43.2666
120.109 2075 45.5522
120.226 2162 46.4973
120.343 2106 45.8912
120.46 2241 47.3392
120.578 2247 47.4025
120.695 2377 48.7545
120.812 2327 48.239
120.929 2302 47.9792
121.046 2190 46.7974
121.163 2062 45.4093
121.279 1968 44.3621
121.396 2008 44.8107
121.513 2063 45.4203
121.63 2227 47.1911
121.747 2333 48.3011
121.863 2352 48.4974
121.98 2481 49.8096
122.097 2457 49.5681
122.213 2542 50.4183
122.33 2558 50.5767
122.446 2540 50.3984
122.563 2589 50.8822
122.679 2553 50.5272
122.795 2523 50.2295
122.912 2485 49.8498
123.028 2536 50.3587
123.144 2339 48.3632
123.26 2309 48.0521
123.377 0 1
123.493 0 1
123.609 0 1
123.725 0 1
123.84 0 1
123.956 0 1
124.072 0 1
124.188 0 1
124.303 0 1
124.419 0 1
126.852 0 1
126.968 0 1
127.083 0 1
127.199 0 1
127.315 0 1
127.431 0 1
127.547 0 1
127.663 0 1
127.779 0 1
127.895 0 1
128.011 0 1
128.127 0 1
128.243 0 1
128.359 2776 52.6878
128.476 2774 52.6688
128.592 2589 50.8822
128.708 2608 51.0686
128.825 2624 51.225
128.941 2610 51.0882
129.058 2765 52.5833
129.174 2719 52.144
129.291 2785 52.7731
129.408 2817 53.0754
129.524 2937 54.1941
129.641 3023 54.9818
129.758 2942 54.2402
129.875 2962 54.4243
129.992 2710 52.0577
130.108 2688 51.8459
130.225 2563 50.6261
130.342 2414 49.1325
130.459 2530 50.2991
130.576 2538 50.3786
130.693 2631 51.2933
130.81 2750 52.4404
130.928 2838 53.2729
131.045 2799 52.9056
131.162 2922 54.0555
131.279 2832 53.2165
131.396 2849 53.376
131.513 2974 54.5344
131.631 2818 53.0848
131.748 2741 52.3546
131.865 2792 52.8394
131.983 2663 51.6043
132.1 2681 51.7784
132.217 2573 50.7247
132.335 2389 48.8774
132.452 2524 50.2394
132.57 2675 51.7204
132.687 2534 50.3389
132.804 2809 53
132.922 2756 52.4976
133.039 2766 52.5928
133.157 2824 53.1413
133.274 2839 53.2823
133.392 2799 52.9056
133.509 2704 52
133.627 2520 50.1996
133.744 2445 49.4469
133.862 2376 48.7442
133.979 2254 47.4763
134.097 2399 48.9796
134.214 2544 50.4381
134.332 2603 51.0196
134.449 2633 51.3128
134.567 2714 52.0961
134.684 2628 51.264
134.802 2700 51.9615
134.919 2782 52.7447
135.037 2608 51.0686
135.154 2640 51.3809
135.272 2519 50.1896
135.389 2417 49.163
135.507 2462 49.6185
135.624 2368 48.6621
135.742 2248 47.4131
135.859 2114 45.9783
135.977 2151 46.3789
136.094 2113 45.9674
136.211 2164 46.5188
136.329 2294 47.8957
136.446 2379 48.775
136.564 2312 48.0833
136.681 2361 48.5901
136.798 2319 48.156
136.915 2410 49.0918
137.033 2360 48.5798
137.15 2284 47.7912
137.267 2146 46.3249
137.384 2089 45.7056
137.502 1956 44.2267
137.619 1943 44.0795
137.736 2123 46.076
137.853 2107 45.9021
137.97 2335 48.3218
138.087 2457 49.5681
138.204 2455 49.548
138.321 2409 49.0816
138.438 2415 49.1426
138.555 2485 49.8498
138.672 2546 50.4579
138.788 2541 50.4083
138.905 2499 49.99
139.022 2569 50.6853
139.139 2377 48.7545
139.255 2421 49.2037
139.372 2323 48.1975
139.488 2259 47.5289
139.605 2268 47.6235
139.721 2468 49.679
139.838 2513 50.1298
139.954 2556 50.5569
140.071 2606 51.049
140.187 2729 52.2398
140.303 2784 52.7636
140.419 2871 53.5817
140.535 2826 53.1601
140.652 2744 52.3832
140.768 0 1
140.884 0 1
141 0 1
141.115 0 1
141.231 0 1
141.347 0 1
141.463 0 1
141.578 0 1
141.694 0 1
144.104 0 1
144.219 0 1
144.335 0 1
144.45 0 1
144.566 0 1
144.682 0 1
144.798 0 1
144.914 0 1
145.03 0 1
145.146 3743 61.1801
145.262 4237 65.0922
145.378 4607 67.8749
145.494 4740 68.8477
145.61 4938 70.2709
145.726 5083 71.2952
145.842 5274 72.6223
145.959 5026 70.8943
146.075 5185 72.0069
146.192 5076 71.2461
146.308 5119 71.5472
146.425 5350 73.1437
146.541 5860 76.5506
146.658 6454 80.3368
146.774 6663 81.6272
146.891 6969 83.4805
147.008 7440 86.2554
147.125 7782 88.2156
147.241 8265 90.912
147.358 8297 91.0879
147.475 8607 92.7739
147.592 8486 92.1195
147.709 8394 91.6188
147.826 8335 91.2962
147.943 8242 90.7855
148.06 7994 89.4092
148.177 7827 88.4703
148.294 7788 88.2496
148.411 7945 89.1347
148.528 8000 89.4427
148.645 8376 91.5205
148.762 8593 92.6984
148.88 8704 93.2952
148.997 9263 96.2445
149.114 8406 91.6842
149.231 8872 94.1913
149.349 8496 92.1737
149.466 8418 91.7497
149.583 7812 88.3855
149.701 7419 86.1336
149.818 7267 85.2467
149.935 6971 83.4925
150.053 7019 83.7795
150.17 7102 84.2734
150.287 7691 87.6983
150.405 7837 88.5268
150.522 8134 90.1887
150.64 8431 91.8205
150.757 8366 91.4658
150.875 8480 92.0869
150.992 8530 92.358
151.11 8605 92.7631
151.227 8563 92.5365
151.344 8159 90.3272
151.462 7989 89.3812
151.579 8015 89.5265
151.697 7826 88.4647
151.814 7787 88.244
151.932 7546 86.8677
152.049 7893 88.8426
152.167 8251 90.835
152.284 8512 92.2605
152.402 9022 94.9842
152.519 9006 94.8999
152.636 9010 94.921
152.754 9376 96.8297
152.871 9340 96.6437
152.989 9392 96.9123
153.106 8922 94.4563
153.223 8400 91.6515
153.341 7958 89.2076
153.458 7570 87.0057
153.575 7680 87.6356
153.693 7948 89.1516
153.81 8046 89.6995
153.927 8686 93.1987
154.044 8999 94.8631
154.162 9105 95.4201
154.279 9681 98.3921
154.396 9820 99.0959
154.513 9948 99.7397
154.63 10186 100.926
154.747 10141 100.703
154.864 10044 100.22
154.981 9929 99.6444
155.098 9962 99.8098
155.215 9843 99.2119
155.332 9655 98.2599
155.449 9407 96.9897
155.566 9527 97.6064
155.683 9719 98.585
155.8 10010 100.05
155.917 10570 102.811
156.033 10910 104.451
156.15 0 1
156.267 0 1
156.383 0 1
156.5 0 1
156.617 0 1
156.733 0 1
156.85 0 1
156.966 0 1
157.082 0 1
157.199 0 1
157.315 0 1
157.431 0 1
157.547 0 1
157.664 0 1
157.78 0 1
157.896 0 1
158.012 0 1
158.128 0 1
158.244 0 1
158.359 0 1
158.475 0 1
158.591 0 1
158.706 0 1
