
6.15755 0 1
6.2731 0 1
6.3887 0 1
6.50437 0 1
6.62009 0 1
6.73587 0 1
6.8517 0 1
6.96759 0 1
7.08353 0 1
7.19952 0 1
7.31557 0 1
7.43166 0 1
7.54781 0 1
7.664 0 1
7.78024 0 1
7.89653 0 1
8.01286 0 1
8.12924 0 1
8.24567 0 1
8.36213 0 1
8.47864 0 1
8.59519 0 1
8.71178 0 1
8.82841 0 1
8.94508 0 1
9.06179 0 1
9.17853 0 1
9.29531 0 1
9.41212 0 1
9.52897 0 1
9.64584 0 1
9.76276 0 1
9.8797 0 1
9.99667 0 1
10.1137 0 1
10.2307 0 1
10.3478 0 1
10.4648 0 1
10.5819 0 1
10.6991 0 1
10.8162 0 1
10.9334 0 1
11.0506 0 1
11.1678 0 1
11.285 0 1
11.4023 0 1
11.5196 0 1
11.6369 0 1
11.7542 0 1
11.8715 0 1
11.9888 0 1
12.1062 0 1
12.2235 0 1
12.3409 0 1
12.4582 0 1
12.5756 0 1
12.693 0 1
12.8104 0 1
12.9278 0 1
13.0452 0 1
13.1626 0 1
13.28 0 1
13.3974 0 1
13.5149 0 1
13.6323 0 1
13.7497 0 1
13.8671 0 1
13.9845 0 1
14.1019 0 1
14.2193 0 1
14.3367 0 1
14.4541 0 1
14.5714 0 1
14.6888 0 1
14.8062 0 1
14.9235 0 1
15.0408 0 0
15.1581 0 0
15.2755 0 0
15.3927 0 0
15.51 0 0
15.6273 0 0
15.7445 0 0
15.8617 0 0
15.9789 0 0
16.0961 0 0
16.2132 0 0
16.3304 0 0
16.4475 0 0
16.5646 0 0
16.6816 0 0
16.7986 0 0
16.9156 0 0
17.0326 0 0
17.1496 0 0
17.2665 0 0
17.3833 0 0
17.5002 0 0
17.617 0 0
17.7338 0 0
17.8505 0 0
17.9672 0 0
18.0839 0 0
18.2005 0 0
18.3171 0 0
18.4337 0 0
18.5502 0 0
18.6666 0 0
18.7831 0 0
18.8994 0 0
19.0158 0 0
19.1321 0 0
19.2483 0 0
19.3645 0 0
19.4806 0 0
19.5967 0 0
19.7128 0 0
19.8288 0 0
19.9447 0 0
20.0606 0 1
20.1764 0 1
20.2922 0 1
20.4079 0 1
20.5236 0 1
20.6392 0 1
20.7548 0 1
20.8702 0 1
23.3078 0 1
23.4233 0 1
23.539 0 1
23.6547 0 1
23.7704 0 1
23.8862 0 1
24.0021 0 1
24.118 0 1
24.234 0 1
24.35 0 1
24.4661 1113 33.3617
24.5822 1191 34.5109
24.6984 1146 33.8526
24.8146 1111 33.3317
24.9309 1182 34.3802
25.0472 1122 33.4963
25.1636 1042 32.28
25.28 1153 33.9559
25.3965 1137 33.7194
25.513 1140 33.7639
25.6296 1140 33.7639
25.7462 1226 35.0143
25.8628 1288 35.8887
25.9795 1251 35.3695
26.0962 1299 36.0416
26.213 1300 36.0555
26.3298 1329 36.4555
26.4466 1259 35.4824
26.5635 1241 35.2278
26.6804 1202 34.6699
26.7973 1182 34.3802
26.9143 1223 34.9714
27.0313 1190 34.4964
27.1483 1369 37
27.2653 1320 36.3318
27.3824 1283 35.819
27.4996 1299 36.0416
27.6167 1343 36.647
27.7339 1339 36.5923
27.8511 1289 35.9026
27.9683 1288 35.8887
28.0855 1188 34.4674
28.2028 1277 35.7351
28.3201 1181 34.3657
28.4374 1173 34.2491
28.5547 1049 32.3883
28.6721 1045 32.3265
28.7894 1072 32.7414
28.9068 1117 33.4215
29.0242 1055 32.4808
29.1416 1092 33.0454
29.259 1179 34.3366
29.3764 1290 35.9166
29.4939 1243 35.2562
29.6113 1180 34.3511
29.7288 1251 35.3695
29.8463 1206 34.7275
29.9638 1206 34.7275
30.0812 1118 33.4365
30.1987 1134 33.6749
30.3162 1123 33.5112
30.4337 1193 34.5398
30.5512 1186 34.4384
30.6687 1199 34.6266
30.7862 1263 35.5387
30.9037 1282 35.805
31.0212 1254 35.4119
31.1387 1344 36.6606
31.2562 1292 35.9444
31.3737 1276 35.7211
31.4912 1174 34.2637
31.6087 1272 35.6651
31.7262 1235 35.1426
31.8436 1047 32.3574
31.9611 1134 33.6749
32.0785 1098 33.1361
32.1959 1074 32.7719
32.3134 1063 32.6037
32.4308 1001 31.6386
32.5482 1019 31.9218
32.6655 1091 33.0303
32.7829 1166 34.1467
32.9002 1186 34.4384
33.0176 1133 33.6601
33.1349 1161 34.0735
33.2522 1221 34.9428
33.3694 1261 35.5106
33.4867 1154 33.9706
33.6039 1137 33.7194
33.7211 1120 33.4664
33.8383 1071 32.7261
33.9554 1113 33.3617
34.0725 1068 32.6803
34.1896 1154 33.9706
34.3067 1219 34.9142
34.4237 1172 34.2345
34.5407 1206 34.7275
34.6577 1174 34.2637
34.7746 1223 34.9714
34.8915 1207 34.7419
35.0084 1213 34.8281
35.1252 1260 35.4965
35.242 1233 35.1141
35.3587 1155 33.9853
35.4755 1145 33.8378
35.5921 1099 33.1512
35.7088 1003 31.6702
35.8254 1026 32.0312
35.9419 1011 31.7962
36.0584 1018 31.9061
36.1749 1032 32.1248
36.2913 991 31.4802
36.4077 1025 32.0156
36.524 1053 32.45
36.6403 1111 33.3317
36.7565 1176 34.2929
36.8727 1172 34.2345
36.9889 1098 33.1361
37.1049 1202 34.6699
37.221 0 1
37.3369 0 1
37.4529 0 1
37.5687 0 1
37.6845 0 1
37.8003 0 1
37.916 0 1
38.0316 0 1
38.1472 0 1
40.5851 0 1
40.7008 0 1
40.8164 0 1
40.9322 0 1
41.048 0 1
41.1639 0 1
41.2798 0 1
41.3958 0 1
41.5118 0 1
41.6279 0 1
41.744 825 28.7228
41.8602 895 29.9166
41.9765 922 30.3645
42.0928 881 29.6816
42.2091 934 30.5614
42.3255 957 30.9354
42.4419 892 29.8664
42.5584 903 30.05
42.675 839 28.9655
42.7915 804 28.3549
42.9081 837 28.931
43.0248 884 29.7321
43.1415 843 29.0345
43.2582 905 30.0832
43.375 925 30.4138
43.4918 959 30.9677
43.6087 928 30.4631
43.7256 926 30.4302
43.8425 912 30.1993
43.9595 923 30.3809
44.0765 837 28.931
44.1935 835 28.8964
44.3106 889 29.8161
44.4277 798 28.2489
44.5448 735 27.1109
44.6619 674 25.9615
44.7791 690 26.2679
44.8963 664 25.7682
45.0136 660 25.6905
45.1308 696 26.3818
45.2481 739 27.1846
45.3654 756 27.4955
45.4827 724 26.9072
45.6001 734 27.0924
45.7174 657 25.632
45.8348 729 27
45.9522 743 27.258
46.0697 671 25.9037
46.1871 620 24.8998
46.3046 607 24.6374
46.422 585 24.1868
46.5395 682 26.1151
46.657 594 24.3721
46.7745 677 26.0192
46.892 683 26.1343
47.0096 751 27.4044
47.1271 684 26.1534
47.2446 661 25.7099
47.3622 686 26.1916
47.4797 669 25.865
47.5973 686 26.1916
47.7149 638 25.2587
47.8324 648 25.4558
47.95 577 24.0208
48.0675 552 23.4947
48.1851 518 22.7596
48.3027 491 22.1585
48.4202 477 21.8403
48.5378 479 21.8861
48.6554 522 22.8473
48.7729 512 22.6274
48.8904 560 23.6643
49.008 553 23.516
49.1255 566 23.7908
49.243 553 23.516
49.3605 558 23.622
49.478 501 22.383
49.5955 504 22.4499
49.713 453 21.2838
49.8304 487 22.0681
49.9479 509 22.561
50.0653 538 23.1948
50.1827 573 23.9374
50.3001 634 25.1794
50.4175 589 24.2693
50.5348 637 25.2389
50.6521 689 26.2488
50.7694 721 26.8514
50.8867 661 25.7099
51.004 738 27.1662
51.1212 692 26.3059
51.2384 726 26.9444
51.3556 735 27.1109
51.4727 693 26.3249
51.5899 695 26.3629
51.707 650 25.4951
51.824 653 25.5539
51.9411 639 25.2784
52.0581 653 25.5539
52.175 721 26.8514
52.2919 786 28.0357
52.4088 816 28.5657
52.5257 889 29.8161
52.6425 825 28.7228
52.7593 895 29.9166
52.876 829 28.7924
52.9927 922 30.3645
53.1094 864 29.3939
53.226 783 27.9821
53.3426 783 27.9821
53.4591 777 27.8747
53.5756 891 29.8496
53.692 902 30.0333
53.8084 986 31.4006
53.9248 1014 31.8434
54.0411 1088 32.9848
54.1573 1106 33.2566
54.2735 0 1
54.3896 0 1
54.5057 0 1
54.6217 0 1
54.7377 0 1
54.8537 0 1
54.9695 0 1
55.0853 0 1
55.2011 0 1
55.3168 0 1
55.4324 0 1
57.824 0 1
57.9396 0 1
58.0553 0 1
58.1711 0 1
58.2869 0 1
58.4028 0 1
58.5187 0 1
58.6347 0 1
58.7508 0 1
58.8669 0 1
58.983 1174 34.2637
59.0992 1246 35.2987
59.2155 1230 35.0714
59.3318 1248 35.327
59.4482 1332 36.4966
59.5646 1383 37.1887
59.681 1425 37.7492
59.7975 1308 36.1663
59.9141 1319 36.318
60.0306 1225 35
60.1473 1236 35.1568
60.2639 1109 33.3017
60.3807 1090 33.0151
60.4974 1026 32.0312
60.6142 970 31.1448
60.731 1046 32.3419
60.8479 1100 33.1662
60.9648 1147 33.8674
61.0818 1174 34.2637
61.1987 1209 34.7707
61.3158 1147 33.8674
61.4328 1180 34.3511
61.5499 1122 33.4963
61.667 1086 32.9545
61.7841 996 31.5595
61.9013 974 31.209
62.0185 940 30.6594
62.1357 925 30.4138
62.253 1086 32.9545
62.3702 1146 33.8526
62.4875 1154 33.9706
62.6049 1197 34.5977
62.7222 1210 34.7851
62.8396 1279 35.7631
62.9569 1318 36.3043
63.0743 1230 35.0714
63.1918 1269 35.623
63.3092 1275 35.7071
63.4267 1174 34.2637
63.5441 1141 33.7787
63.6616 1102 33.1964
63.7791 1015 31.8591
63.8966 961 31
64.0142 939 30.6431
64.1317 858 29.2916
64.2492 958 30.9516
64.3668 952 30.8545
64.4843 974 31.209
64.6019 1074 32.7719
64.7195 1028 32.0624
64.837 1087 32.9697
64.9546 1074 32.7719
65.0722 970 31.1448
65.1898 917 30.282
65.3074 875 29.5804
65.4249 848 29.1204
65.5425 852 29.189
65.6601 788 28.0713
65.7777 902 30.0333
65.8952 971 31.1609
66.0128 1008 31.749
66.1304 1098 33.1361
66.2479 1059 32.5423
66.3655 1128 33.5857
66.483 1151 33.9264
66.6005 1085 32.9393
66.718 1136 33.7046
66.8355 1097 33.121
66.953 1069 32.6956
67.0705 1073 32.7567
67.1879 984 31.3688
67.3054 986 31.4006
67.4228 919 30.315
67.5402 816 28.5657
67.6576 769 27.7308
67.7749 802 28.3196
67.8923 829 28.7924
68.0096 874 29.5635
68.1269 877 29.6142
68.2442 960 30.9839
68.3614 978 31.273
68.4787 946 30.7571
68.5958 1020 31.9374
68.713 980 31.305
68.8302 994 31.5278
68.9473 895 29.9166
69.0643 785 28.0179
69.1814 785 28.0179
69.2984 764 27.6405
69.4154 902 30.0333
69.5323 992 31.496
69.6492 1077 32.8177
69.7661 1024 32
69.8829 1147 33.8674
69.9997 1173 34.2491
70.1165 1177 34.3074
70.2332 1183 34.3948
70.3499 1215 34.8569
70.4665 1188 34.4674
70.5831 1170 34.2053
70.6996 1122 33.4963
70.8161 1089 33
70.9326 1004 31.686
71.049 970 31.1448
71.1653 904 30.0666
71.2817 855 29.2404
71.3979 783 27.9821
71.5141 779 27.9106
71.6303 838 28.9482
71.7464 814 28.5307
71.8624 0 1
71.9784 0 1
72.0944 0 1
72.2102 0 1
72.3261 0 1
72.4418 0 1
72.5575 0 1
72.6732 0 1
75.1054 0 1
75.2209 0 1
75.3365 0 1
75.4521 0 1
75.5678 0 1
75.6835 0 1
75.7993 0 1
75.9151 0 1
76.031 0 1
76.147 967 31.0966
76.263 1047 32.3574
76.3791 996 31.5595
76.4952 931 30.5123
76.6113 873 29.5466
76.7276 832 28.8444
76.8438 808 28.4253
76.9601 894 29.8998
77.0765 959 30.9677
77.1929 1035 32.1714
77.3093 1045 32.3265
77.4258 1102 33.1964
77.5423 1076 32.8024
77.6589 1052 32.4345
77.7755 953 30.8707
77.8921 884 29.7321
78.0088 830 28.8097
78.1256 813 28.5132
78.2423 762 27.6043
78.3591 825 28.7228
78.4759 891 29.8496
78.5928 927 30.4467
78.7097 975 31.225
78.8266 1083 32.909
78.9436 1202 34.6699
79.0606 1100 33.1662
79.1776 1164 34.1174
79.2946 1166 34.1467
79.4117 1175 34.2783
79.5288 1137 33.7194
79.6459 1178 34.322
79.7631 1028 32.0624
79.8802 1059 32.5423
79.9974 1034 32.1559
80.1147 872 29.5296
80.2319 848 29.1204
80.3491 811 28.4781
80.4664 811 28.4781
80.5837 848 29.1204
80.701 924 30.3974
80.8183 932 30.5287
80.9357 981 31.3209
81.053 975 31.225
81.1704 986 31.4006
81.2877 944 30.7246
81.4051 853 29.2062
81.5225 805 28.3725
81.6399 802 28.3196
81.7573 715 26.7395
81.8747 734 27.0924
81.9922 732 27.0555
82.1096 803 28.3373
82.227 923 30.3809
82.3444 940 30.6594
82.4619 903 30.05
82.5793 1014 31.8434
82.6967 1054 32.4654
82.8142 1034 32.1559
82.9316 1026 32.0312
83.049 997 31.5753
83.1664 1098 33.1361
83.2838 935 30.5778
83.4012 937 30.6105
83.5186 916 30.2655
83.636 829 28.7924
83.7534 819 28.6182
83.8708 759 27.55
83.9881 682 26.1151
84.1055 767 27.6948
84.2228 738 27.1662
84.3401 746 27.313
84.4575 840 28.9828
84.5747 900 30
84.692 948 30.7896
84.8093 948 30.7896
84.9265 901 30.0167
85.0437 809 28.4429
85.1609 719 26.8142
85.2781 656 25.6125
85.3952 652 25.5343
85.5123 702 26.4953
85.6294 742 27.2397
85.7465 878 29.6311
85.8636 884 29.7321
85.9806 984 31.3688
86.0976 1014 31.8434
86.2145 1098 33.1361
86.3315 1179 34.3366
86.4484 1119 33.4515
86.5652 1150 33.9116
86.682 1133 33.6601
86.7988 1101 33.1813
86.9156 1065 32.6343
87.0323 1068 32.6803
87.149 997 31.5753
87.2657 954 30.8869
87.3823 882 29.6985
87.4988 876 29.5973
87.6154 883 29.7153
87.7318 945 30.7409
87.8483 948 30.7896
87.9647 998 31.5911
88.081 1105 33.2415
88.1973 1073 32.7567
88.3136 1173 34.2491
88.4298 1085 32.9393
88.546 1039 32.2335
88.6621 907 30.1164
88.7781 871 29.5127
88.8942 0 1
89.0101 0 1
89.126 0 1
89.2419 0 1
89.3577 0 1
89.4734 0 1
89.5891 0 1
89.7047 0 1
89.8203 0 1
89.9358 0 1
92.3269 0 1
92.4424 0 1
92.558 0 1
92.6736 0 1
92.7893 0 1
92.905 0 1
93.0208 0 1
93.1366 0 1
93.2525 0 1
93.3685 0 1
93.4845 0 1
93.6005 1090 33.0151
93.7167 1125 33.541
93.8328 1069 32.6956
93.949 1023 31.9844
94.0653 944 30.7246
94.1816 904 30.0666
94.2979 819 28.6182
94.4143 790 28.1069
94.5307 816 28.5657
94.6472 848 29.1204
94.7637 929 30.4795
94.8803 973 31.1929
94.9969 1100 33.1662
95.1135 1235 35.1426
95.2302 1225 35
95.3469 1256 35.4401
95.4637 1265 35.5668
95.5805 1227 35.0286
95.6973 1348 36.7151
95.8142 1291 35.9305
95.9311 1243 35.2562
96.048 1177 34.3074
96.1649 1163 34.1028
96.2819 1091 33.0303
96.3989 1025 32.0156
96.516 1053 32.45
96.633 937 30.6105
96.7501 950 30.8221
96.8673 930 30.4959
96.9844 993 31.5119
97.1016 1019 31.9218
97.2188 1075 32.7872
97.336 1079 32.8481
97.4532 1093 33.0606
97.5704 1174 34.2637
97.6877 1008 31.749
97.805 936 30.5941
97.9223 865 29.4109
98.0396 824 28.7054
98.1569 772 27.7849
98.2743 783 27.9821
98.3916 954 30.8869
98.509 997 31.5753
98.6264 1053 32.45
98.7438 1124 33.5261
98.8612 1197 34.5977
98.9786 1247 35.3129
99.096 1304 36.1109
99.2134 1231 35.0856
99.3308 1231 35.0856
99.4482 1212 34.8138
99.5656 1246 35.2987
99.6831 1214 34.8425
99.8005 1204 34.6987
99.9179 1175 34.2783
100.035 1049 32.3883
100.153 1014 31.8434
100.27 946 30.7571
100.388 914 30.2324
100.505 955 30.9031
100.622 1002 31.6544
100.74 1103 33.2114
100.857 1106 33.2566
100.975 1156 34
101.092 1098 33.1361
101.209 1141 33.7787
101.327 967 31.0966
101.444 892 29.8664
101.561 823 28.688
101.679 821 28.6531
101.796 794 28.178
101.913 832 28.8444
102.03 987 31.4166
102.148 1034 32.1559
102.265 1152 33.9411
102.382 1237 35.171
102.499 1281 35.7911
102.616 1340 36.606
102.733 1332 36.4966
102.851 1315 36.2629
102.968 1304 36.1109
103.085 1292 35.9444
103.202 1176 34.2929
103.319 1172 34.2345
103.436 1179 34.3366
103.552 1135 33.6898
103.669 1090 33.0151
103.786 970 31.1448
103.903 998 31.5911
104.02 1048 32.3728
104.137 1099 33.1512
104.253 1178 34.322
104.37 1193 34.5398
104.487 1224 34.9857
104.603 1179 34.3366
104.72 1114 33.3766
104.836 1074 32.7719
104.953 994 31.5278
105.069 944 30.7246
105.186 845 29.0689
105.302 877 29.6142
105.418 963 31.0322
105.535 1092 33.0454
105.651 1282 35.805
105.767 1341 36.6197
105.883 1445 38.0132
105.999 1495 38.6652
106.115 0 1
106.231 0 1
106.347 0 1
106.463 0 1
106.579 0 1
106.694 0 1
106.81 0 1
106.926 0 1
107.041 0 1
107.157 0 1
109.576 0 1
109.692 0 1
109.807 0 1
109.923 0 1
110.039 0 1
110.155 0 1
110.27 0 1
110.386 0 1
110.502 0 1
110.618 1126 33.5559
110.735 1286 35.8608
110.851 1343 36.647
110.967 1422 37.7094
111.083 1319 36.318
111.199 1371 37.027
111.316 1396 37.3631
111.432 1426 37.7624
111.549 1402 37.4433
111.665 1434 37.8682
111.782 1296 36
111.898 1287 35.8748
112.015 1193 34.5398
112.132 1149 33.8969
112.248 1111 33.3317
112.365 1048 32.3728
112.482 1028 32.0624
112.599 1181 34.3657
112.716 1145 33.8378
112.832 1192 34.5254
112.949 1189 34.4819
113.066 1195 34.5688
113.183 1208 34.7563
113.3 1112 33.3467
113.417 981 31.3209
113.534 923 30.3809
113.652 861 29.3428
113.769 859 29.3087
113.886 881 29.6816
114.003 972 31.1769
114.12 1083 32.909
114.238 1127 33.5708
114.355 1239 35.1994
114.472 1264 35.5528
114.589 1330 36.4692
114.707 1312 36.2215
114.824 1390 37.2827
114.942 1289 35.9026
115.059 1318 36.3043
115.176 1314 36.2491
115.294 1285 35.8469
115.411 1284 35.8329
115.529 1289 35.9026
115.646 1178 34.322
115.764 1160 34.0588
115.881 1065 32.6343
115.999 1102 33.1964
116.116 1181 34.3657
116.234 1150 33.9116
116.351 1223 34.9714
116.469 1220 34.9285
116.586 1239 35.1994
116.704 1196 34.5832
116.821 1211 34.7994
116.939 1093 33.0606
117.056 1027 32.0468
117.174 977 31.257
117.291 939 30.6431
117.409 919 30.315
117.526 949 30.8058
117.644 1050 32.4037
117.761 1193 34.5398
117.879 1264 35.5528
117.996 1311 36.2077
118.114 1325 36.4005
118.231 1340 36.606
118.349 1411 37.5633
118.466 1363 36.9188
118.584 1390 37.2827
118.701 1440 37.9473
118.819 1451 38.092
118.936 1349 36.7287
119.053 1291 35.9305
119.171 1249 35.3412
119.288 1230 35.0714
119.405 1181 34.3657
119.523 1124 33.5261
119.64 1229 35.0571
119.757 1184 34.4093
119.875 1195 34.5688
119.992 1206 34.7275
120.109 1218 34.8999
120.226 1225 35
120.343 1200 34.641
120.46 1151 33.9264
120.578 1167 34.1614
120.695 1088 32.9848
120.812 971 31.1609
120.929 1034 32.1559
121.046 998 31.5911
121.163 976 31.241
121.279 1013 31.8277
121.396 1114 33.3766
121.513 1232 35.0999
121.63 1344 36.6606
121.747 1360 36.8782
121.863 1322 36.3593
121.98 1324 36.3868
122.097 1412 37.5766
122.213 1359 36.8646
122.33 1423 37.7227
122.446 1358 36.8511
122.563 1292 35.9444
122.679 1273 35.6791
122.795 1210 34.7851
122.912 1261 35.5106
123.028 1172 34.2345
123.144 1160 34.0588
123.26 1171 34.2199
123.377 0 1
123.493 0 1
123.609 0 1
123.725 0 1
123.84 0 1
123.956 0 1
124.072 0 1
124.188 0 1
124.303 0 1
124.419 0 1
126.852 0 1
126.968 0 1
127.083 0 1
127.199 0 1
127.315 0 1
127.431 0 1
127.547 0 1
127.663 0 1
127.779 0 1
127.895 0 1
128.011 0 1
128.127 0 1
128.243 0 1
128.359 1258 35.4683
128.476 1227 35.0286
128.592 1275 35.7071
128.708 1216 34.8712
128.825 1315 36.2629
128.941 1339 36.5923
129.058 1288 35.8887
129.174 1246 35.2987
129.291 1353 36.7831
129.408 1203 34.6843
129.524 1187 34.4529
129.641 1116 33.4066
129.758 1034 32.1559
129.875 1013 31.8277
129.992 1006 31.7175
130.108 1061 32.573
130.225 1108 33.2866
130.342 1192 34.5254
130.459 1237 35.171
130.576 1398 37.3898
130.693 1437 37.9078
130.81 1357 36.8375
130.928 1368 36.9865
131.045 1434 37.8682
131.162 1417 37.6431
131.279 1383 37.1887
131.396 1446 38.0263
131.513 1463 38.2492
131.631 1470 38.3406
131.748 1397 37.3765
131.865 1343 36.647
131.983 1319 36.318
132.1 1341 36.6197
132.217 1292 35.9444
132.335 1350 36.7423
132.452 1357 36.8375
132.57 1422 37.7094
132.687 1327 36.428
132.804 1399 37.4032
132.922 1349 36.7287
133.039 1256 35.4401
133.157 1186 34.4384
133.274 1149 33.8969
133.392 1078 32.8329
133.509 1068 32.6803
133.627 1065 32.6343
133.744 1145 33.8378
133.862 1231 35.0856
133.979 1295 35.9861
134.097 1354 36.7967
134.214 1425 37.7492
134.332 1496 38.6782
134.449 1427 37.7757
134.567 1468 38.3145
134.684 1442 37.9737
134.802 1443 37.9868
134.919 1453 38.1182
135.037 1481 38.4838
135.154 1403 37.4566
135.272 1437 37.9078
135.389 1321 36.3456
135.507 1345 36.6742
135.624 1347 36.7015
135.742 1378 37.1214
135.859 1402 37.4433
135.977 1314 36.2491
136.094 1410 37.55
136.211 1333 36.5103
136.329 1389 37.2693
136.446 1348 36.7151
136.564 1317 36.2905
136.681 1243 35.2562
136.798 1207 34.7419
136.915 1105 33.2415
137.033 1125 33.541
137.15 1094 33.0757
137.267 1086 32.9545
137.384 1187 34.4529
137.502 1246 35.2987
137.619 1356 36.8239
137.736 1407 37.51
137.853 1306 36.1386
137.97 1400 37.4166
138.087 1446 38.0263
138.204 1497 38.6911
138.321 1438 37.921
138.438 1476 38.4187
138.555 1484 38.5227
138.672 1495 38.6652
138.788 1501 38.7427
138.905 1383 37.1887
139.022 1414 37.6032
139.139 1338 36.5787
139.255 1372 37.0405
139.372 1330 36.4692
139.488 1393 37.3229
139.605 1458 38.1838
139.721 1391 37.2961
139.838 1471 38.3536
139.954 1350 36.7423
140.071 1286 35.8608
140.187 1382 37.1753
140.303 1263 35.5387
140.419 1222 34.9571
140.535 1167 34.1614
140.652 1043 32.2955
140.768 0 1
140.884 0 1
141 0 1
141.115 0 1
141.231 0 1
141.347 0 1
141.463 0 1
141.578 0 1
141.694 0 1
144.104 0 1
144.219 0 1
144.335 0 1
144.45 0 1
144.566 0 1
144.682 0 1
144.798 0 1
144.914 0 1
145.03 0 1
145.146 952 30.8545
145.262 1074 32.7719
145.378 1059 32.5423
145.494 968 31.1127
145.61 1000 31.6228
145.726 895 29.9166
145.842 938 30.6268
145.959 897 29.95
146.075 893 29.8831
146.192 1010 31.7805
146.308 964 31.0483
146.425 1014 31.8434
146.541 1006 31.7175
146.658 1061 32.573
146.774 1139 33.7491
146.891 1101 33.1813
147.008 1127 33.5708
147.125 1182 34.3802
147.241 1143 33.8083
147.358 1196 34.5832
147.475 1126 33.5559
147.592 1164 34.1174
147.709 1136 33.7046
147.826 1132 33.6452
147.943 1111 33.3317
148.06 1140 33.7639
148.177 1090 33.0151
148.294 1060 32.5576
148.411 1105 33.2415
148.528 1143 33.8083
148.645 1074 32.7719
148.762 1096 33.1059
148.88 1130 33.6155
148.997 1090 33.0151
149.114 1110 33.3167
149.231 1066 32.6497
149.349 993 31.5119
149.466 962 31.0161
149.583 1001 31.6386
149.701 988 31.4325
149.818 892 29.8664
149.935 899 29.9833
150.053 999 31.607
150.17 991 31.4802
150.287 1050 32.4037
150.405 1105 33.2415
150.522 1072 32.7414
150.64 1057 32.5115
150.757 1119 33.4515
150.875 1180 34.3511
150.992 1194 34.5543
151.11 1208 34.7563
151.227 1247 35.3129
151.344 1152 33.9411
151.462 1115 33.3916
151.579 1141 33.7787
151.697 1106 33.2566
151.814 1130 33.6155
151.932 1131 33.6303
152.049 1118 33.4365
152.167 1134 33.6749
152.284 1125 33.541
152.402 1050 32.4037
152.519 1178 34.322
152.636 1134 33.6749
152.754 1175 34.2783
152.871 1126 33.5559
152.989 984 31.3688
153.106 1015 31.8591
153.223 974 31.209
153.341 1004 31.686
153.458 954 30.8869
153.575 1011 31.7962
153.693 990 31.4643
153.81 1078 32.8329
153.927 1062 32.5883
154.044 1120 33.4664
154.162 1179 34.3366
154.279 1183 34.3948
154.396 1222 34.9571
154.513 1235 35.1426
154.63 1240 35.2136
154.747 1286 35.8608
154.864 1319 36.318
154.981 1225 35
155.098 1211 34.7994
155.215 1228 35.0428
155.332 1158 34.0294
155.449 1226 35.0143
155.566 1213 34.8281
155.683 1260 35.4965
155.8 1229 35.0571
155.917 1242 35.242
156.033 1222 34.9571
156.15 0 1
156.267 0 1
156.383 0 1
156.5 0 1
156.617 0 1
156.733 0 1
156.85 0 1
156.966 0 1
157.082 0 1
157.199 0 1
157.315 0 1
157.431 0 1
157.547 0 1
157.664 0 1
157.78 0 1
157.896 0 1
158.012 0 1
158.128 0 1
158.244 0 1
158.359 0 1
158.475 0 1
158.591 0 1
158.706 0 1
