
6.15755 0 1
6.2731 0 1
6.3887 0 1
6.50437 0 1
6.62009 0 1
6.73587 0 1
6.8517 0 1
6.96759 0 1
7.08353 0 1
7.19952 0 1
7.31557 0 1
7.43166 0 1
7.54781 0 1
7.664 0 1
7.78024 0 1
7.89653 0 1
8.01286 0 1
8.12924 0 1
8.24567 0 1
8.36213 0 1
8.47864 0 1
8.59519 0 1
8.71178 0 1
8.82841 0 1
8.94508 0 1
9.06179 0 1
9.17853 0 1
9.29531 0 1
9.41212 0 1
9.52897 0 1
9.64584 0 1
9.76276 0 1
9.8797 0 1
9.99667 0 1
10.1137 0 1
10.2307 0 1
10.3478 0 1
10.4648 0 1
10.5819 0 1
10.6991 0 1
10.8162 0 1
10.9334 0 1
11.0506 0 1
11.1678 0 1
11.285 0 1
11.4023 0 1
11.5196 0 1
11.6369 0 1
11.7542 0 1
11.8715 0 1
11.9888 0 1
12.1062 0 1
12.2235 0 1
12.3409 0 1
12.4582 0 1
12.5756 0 1
12.693 0 1
12.8104 0 1
12.9278 0 1
13.0452 0 1
13.1626 0 1
13.28 0 1
13.3974 0 1
13.5149 0 1
13.6323 0 1
13.7497 0 1
13.8671 0 1
13.9845 0 1
14.1019 0 1
14.2193 0 1
14.3367 0 1
14.4541 0 1
14.5714 0 1
14.6888 0 1
14.8062 0 1
14.9235 0 1
15.0408 0 0
15.1581 0 0
15.2755 0 0
15.3927 0 0
15.51 0 0
15.6273 0 0
15.7445 0 0
15.8617 0 0
15.9789 0 0
16.0961 0 0
16.2132 0 0
16.3304 0 0
16.4475 0 0
16.5646 0 0
16.6816 0 0
16.7986 0 0
16.9156 0 0
17.0326 0 0
17.1496 0 0
17.2665 0 0
17.3833 0 0
17.5002 0 0
17.617 0 0
17.7338 0 0
17.8505 0 0
17.9672 0 0
18.0839 0 0
18.2005 0 0
18.3171 0 0
18.4337 0 0
18.5502 0 0
18.6666 0 0
18.7831 0 0
18.8994 0 0
19.0158 0 0
19.1321 0 0
19.2483 0 0
19.3645 0 0
19.4806 0 0
19.5967 0 0
19.7128 0 0
19.8288 0 0
19.9447 0 0
20.0606 0 1
20.1764 0 1
20.2922 0 1
20.4079 0 1
20.5236 0 1
20.6392 0 1
20.7548 0 1
20.8702 0 1
23.3078 0 1
23.4233 0 1
23.539 0 1
23.6547 0 1
23.7704 0 1
23.8862 0 1
24.0021 0 1
24.118 0 1
24.234 0 1
24.35 0 1
24.4661 1698 41.2068
24.5822 1611 40.1373
24.6984 1628 40.3485
24.8146 1632 40.398
24.9309 1665 40.8044
25.0472 1505 38.7943
25.1636 1450 38.0789
25.28 1475 38.4057
25.3965 1423 37.7227
25.513 1424 37.7359
25.6296 1654 40.6694
25.7462 1741 41.7253
25.8628 1763 41.9881
25.9795 1821 42.6732
26.0962 1860 43.1277
26.213 1779 42.1782
26.3298 1858 43.1045
26.4466 1777 42.1545
26.5635 1670 40.8656
26.6804 1579 39.7366
26.7973 1715 41.4126
26.9143 1754 41.8808
27.0313 1710 41.3521
27.1483 1744 41.7612
27.2653 1771 42.0833
27.3824 1855 43.0697
27.4996 1821 42.6732
27.6167 1795 42.3674
27.7339 1835 42.8369
27.8511 1677 40.9512
27.9683 1699 41.2189
28.0855 1685 41.0488
28.2028 1701 41.2432
28.3201 1641 40.5093
28.4374 1575 39.6863
28.5547 1625 40.3113
28.6721 1469 38.3275
28.7894 1449 38.0657
28.9068 1432 37.8418
29.0242 1420 37.6829
29.1416 1450 38.0789
29.259 1619 40.2368
29.3764 1686 41.0609
29.4939 1699 41.2189
29.6113 1794 42.3556
29.7288 1707 41.3159
29.8463 1694 41.1582
29.9638 1760 41.9524
30.0812 1642 40.5216
30.1987 1642 40.5216
30.3162 1569 39.6106
30.4337 1606 40.0749
30.5512 1647 40.5832
30.6687 1670 40.8656
30.7862 1727 41.5572
30.9037 1721 41.4849
31.0212 1836 42.8486
31.1387 1806 42.4971
31.2562 1687 41.0731
31.3737 1642 40.5216
31.4912 1682 41.0122
31.6087 1706 41.3038
31.7262 1687 41.0731
31.8436 1758 41.9285
31.9611 1632 40.398
32.0785 1596 39.95
32.1959 1382 37.1753
32.3134 1424 37.7359
32.4308 1485 38.5357
32.5482 1419 37.6696
32.6655 1601 40.0125
32.7829 1654 40.6694
32.9002 1655 40.6817
33.0176 1726 41.5452
33.1349 1723 41.509
33.2522 1783 42.2256
33.3694 1696 41.1825
33.4867 1747 41.7971
33.6039 1668 40.8412
33.7211 1678 40.9634
33.8383 1549 39.3573
33.9554 1612 40.1497
34.0725 1559 39.4842
34.1896 1623 40.2865
34.3067 1696 41.1825
34.4237 1713 41.3884
34.5407 1671 40.8779
34.6577 1715 41.4126
34.7746 1791 42.3202
34.8915 1752 41.8569
35.0084 1748 41.8091
35.1252 1716 41.4246
35.242 1726 41.5452
35.3587 1738 41.6893
35.4755 1672 40.8901
35.5921 1654 40.6694
35.7088 1579 39.7366
35.8254 1493 38.6394
35.9419 1432 37.8418
36.0584 1391 37.2961
36.1749 1385 37.2156
36.2913 1380 37.1484
36.4077 1429 37.8021
36.524 1519 38.9744
36.6403 1681 41
36.7565 1674 40.9145
36.8727 1573 39.6611
36.9889 1572 39.6485
37.1049 1683 41.0244
37.221 0 1
37.3369 0 1
37.4529 0 1
37.5687 0 1
37.6845 0 1
37.8003 0 1
37.916 0 1
38.0316 0 1
38.1472 0 1
40.5851 0 1
40.7008 0 1
40.8164 0 1
40.9322 0 1
41.048 0 1
41.1639 0 1
41.2798 0 1
41.3958 0 1
41.5118 0 1
41.6279 0 1
41.744 1227 35.0286
41.8602 1356 36.8239
41.9765 1323 36.3731
42.0928 1402 37.4433
42.2091 1387 37.2424
42.3255 1362 36.9053
42.4419 1296 36
42.5584 1291 35.9305
42.675 1215 34.8569
42.7915 1112 33.3467
42.9081 1188 34.4674
43.0248 1336 36.5513
43.1415 1239 35.1994
43.2582 1344 36.6606
43.375 1337 36.565
43.4918 1308 36.1663
43.6087 1333 36.5103
43.7256 1375 37.081
43.8425 1237 35.171
43.9595 1366 36.9594
44.0765 1301 36.0694
44.1935 1345 36.6742
44.3106 1277 35.7351
44.4277 1202 34.6699
44.5448 1125 33.541
44.6619 1117 33.4215
44.7791 1011 31.7962
44.8963 1000 31.6228
45.0136 956 30.9192
45.1308 1029 32.078
45.2481 1108 33.2866
45.3654 1109 33.3017
45.4827 1093 33.0606
45.6001 1126 33.5559
45.7174 1107 33.2716
45.8348 1077 32.8177
45.9522 989 31.4484
46.0697 951 30.8383
46.1871 884 29.7321
46.3046 884 29.7321
46.422 852 29.189
46.5395 945 30.7409
46.657 977 31.257
46.7745 934 30.5614
46.892 992 31.496
47.0096 1029 32.078
47.1271 1074 32.7719
47.2446 1036 32.187
47.3622 1004 31.686
47.4797 1017 31.8904
47.5973 973 31.1929
47.7149 973 31.1929
47.8324 969 31.1288
47.95 938 30.6268
48.0675 859 29.3087
48.1851 879 29.6479
48.3027 783 27.9821
48.4202 765 27.6586
48.5378 823 28.688
48.6554 836 28.9137
48.7729 889 29.8161
48.8904 872 29.5296
49.008 893 29.8831
49.1255 886 29.7658
49.243 914 30.2324
49.3605 937 30.6105
49.478 884 29.7321
49.5955 822 28.6705
49.713 707 26.5895
49.8304 715 26.7395
49.9479 693 26.3249
50.0653 790 28.1069
50.1827 810 28.4605
50.3001 899 29.9833
50.4175 967 31.0966
50.5348 953 30.8707
50.6521 973 31.1929
50.7694 1094 33.0757
50.8867 1022 31.9687
51.004 1048 32.3728
51.1212 1092 33.0454
51.2384 1081 32.8786
51.3556 1111 33.3317
51.4727 1035 32.1714
51.5899 1006 31.7175
51.707 992 31.496
51.824 911 30.1828
51.9411 987 31.4166
52.0581 1021 31.9531
52.175 1159 34.0441
52.2919 1198 34.6121
52.4088 1155 33.9853
52.5257 1216 34.8712
52.6425 1223 34.9714
52.7593 1253 35.3977
52.876 1191 34.5109
52.9927 1185 34.4238
53.1094 1103 33.2114
53.226 1069 32.6956
53.3426 1048 32.3728
53.4591 986 31.4006
53.5756 1019 31.9218
53.692 1121 33.4813
53.8084 1172 34.2345
53.9248 1245 35.2846
54.0411 1247 35.3129
54.1573 1388 37.2559
54.2735 0 1
54.3896 0 1
54.5057 0 1
54.6217 0 1
54.7377 0 1
54.8537 0 1
54.9695 0 1
55.0853 0 1
55.2011 0 1
55.3168 0 1
55.4324 0 1
57.824 0 1
57.9396 0 1
58.0553 0 1
58.1711 0 1
58.2869 0 1
58.4028 0 1
58.5187 0 1
58.6347 0 1
58.7508 0 1
58.8669 0 1
58.983 1408 37.5233
59.0992 1584 39.7995
59.2155 1603 40.0375
59.3318 1610 40.1248
59.4482 1573 39.6611
59.5646 1706 41.3038
59.681 1637 40.4599
59.7975 1675 40.9268
59.9141 1563 39.5348
60.0306 1517 38.9487
60.1473 1436 37.8946
60.2639 1430 37.8153
60.3807 1266 35.5809
60.4974 1297 36.0139
60.6142 1258 35.4683
60.731 1418 37.6563
60.8479 1448 38.0526
60.9648 1403 37.4566
61.0818 1485 38.5357
61.1987 1506 38.8072
61.3158 1436 37.8946
61.4328 1438 37.921
61.5499 1410 37.55
61.667 1374 37.0675
61.7841 1203 34.6843
61.9013 1167 34.1614
62.0185 1220 34.9285
62.1357 1252 35.3836
62.253 1340 36.606
62.3702 1484 38.5227
62.4875 1536 39.1918
62.6049 1597 39.9625
62.7222 1740 41.7133
62.8396 1732 41.6173
62.9569 1746 41.7852
63.0743 1748 41.8091
63.1918 1714 41.4005
63.3092 1708 41.328
63.4267 1731 41.6053
63.5441 1601 40.0125
63.6616 1546 39.3192
63.7791 1444 38
63.8966 1404 37.47
64.0142 1525 39.0512
64.1317 1508 38.833
64.2492 1603 40.0375
64.3668 1595 39.9375
64.4843 1649 40.6079
64.6019 1657 40.7063
64.7195 1730 41.5933
64.837 1729 41.5812
64.9546 1632 40.398
65.0722 1538 39.2173
65.1898 1427 37.7757
65.3074 1357 36.8375
65.4249 1200 34.641
65.5425 1182 34.3802
65.6601 1299 36.0416
65.7777 1329 36.4555
65.8952 1416 37.6298
66.0128 1484 38.5227
66.1304 1529 39.1024
66.2479 1624 40.2989
66.3655 1823 42.6966
66.483 1708 41.328
66.6005 1689 41.0974
66.718 1729 41.5812
66.8355 1739 41.7013
66.953 1736 41.6653
67.0705 1613 40.1622
67.1879 1682 41.0122
67.3054 1548 39.3446
67.4228 1323 36.3731
67.5402 1377 37.108
67.6576 1330 36.4692
67.7749 1371 37.027
67.8923 1438 37.921
68.0096 1401 37.4299
68.1269 1379 37.1349
68.2442 1398 37.3898
68.3614 1354 36.7967
68.4787 1482 38.4968
68.5958 1349 36.7287
68.713 1316 36.2767
68.8302 1159 34.0441
68.9473 1120 33.4664
69.0643 996 31.5595
69.1814 1006 31.7175
69.2984 1049 32.3883
69.4154 1109 33.3017
69.5323 1185 34.4238
69.6492 1366 36.9594
69.7661 1413 37.5899
69.8829 1498 38.704
69.9997 1516 38.9358
70.1165 1571 39.6358
70.2332 1576 39.6989
70.3499 1481 38.4838
70.4665 1563 39.5348
70.5831 1497 38.6911
70.6996 1412 37.5766
70.8161 1365 36.9459
70.9326 1306 36.1386
71.049 1261 35.5106
71.1653 1180 34.3511
71.2817 1225 35
71.3979 1219 34.9142
71.5141 1195 34.5688
71.6303 1217 34.8855
71.7464 1151 33.9264
71.8624 0 1
71.9784 0 1
72.0944 0 1
72.2102 0 1
72.3261 0 1
72.4418 0 1
72.5575 0 1
72.6732 0 1
75.1054 0 1
75.2209 0 1
75.3365 0 1
75.4521 0 1
75.5678 0 1
75.6835 0 1
75.7993 0 1
75.9151 0 1
76.031 0 1
76.147 1237 35.171
76.263 1220 34.9285
76.3791 1248 35.327
76.4952 1190 34.4964
76.6113 1292 35.9444
76.7276 1319 36.318
76.8438 1273 35.6791
76.9601 1328 36.4417
77.0765 1320 36.3318
77.1929 1279 35.7631
77.3093 1297 36.0139
77.4258 1330 36.4692
77.5423 1300 36.0555
77.6589 1281 35.7911
77.7755 1184 34.4093
77.8921 981 31.3209
78.0088 979 31.289
78.1256 885 29.7489
78.2423 836 28.9137
78.3591 1038 32.218
78.4759 1083 32.909
78.5928 1144 33.8231
78.7097 1297 36.0139
78.8266 1391 37.2961
78.9436 1452 38.1051
79.0606 1478 38.4448
79.1776 1440 37.9473
79.2946 1468 38.3145
79.4117 1506 38.8072
79.5288 1520 38.9872
79.6459 1420 37.6829
79.7631 1272 35.6651
79.8802 1192 34.5254
79.9974 1166 34.1467
80.1147 1192 34.5254
80.2319 1194 34.5543
80.3491 1192 34.5254
80.4664 1132 33.6452
80.5837 1222 34.9571
80.701 1184 34.4093
80.8183 1219 34.9142
80.9357 1196 34.5832
81.053 1256 35.4401
81.1704 1222 34.9571
81.2877 1179 34.3366
81.4051 1116 33.4066
81.5225 914 30.2324
81.6399 861 29.3428
81.7573 803 28.3373
81.8747 768 27.7128
81.9922 823 28.688
82.1096 985 31.3847
82.227 1116 33.4066
82.3444 1125 33.541
82.4619 1266 35.5809
82.5793 1353 36.7831
82.6967 1256 35.4401
82.8142 1264 35.5528
82.9316 1314 36.2491
83.049 1256 35.4401
83.1664 1268 35.609
83.2838 1168 34.176
83.4012 1157 34.0147
83.5186 1068 32.6803
83.636 1072 32.7414
83.7534 1097 33.121
83.8708 1046 32.3419
83.9881 1061 32.573
84.1055 1093 33.0606
84.2228 1082 32.8938
84.3401 1101 33.1813
84.4575 1101 33.1813
84.5747 1106 33.2566
84.692 1157 34.0147
84.8093 1196 34.5832
84.9265 1079 32.8481
85.0437 898 29.9666
85.1609 786 28.0357
85.2781 728 26.9815
85.3952 734 27.0924
85.5123 703 26.5141
85.6294 939 30.6431
85.7465 1029 32.078
85.8636 1216 34.8712
85.9806 1196 34.5832
86.0976 1330 36.4692
86.2145 1315 36.2629
86.3315 1395 37.3497
86.4484 1338 36.5787
86.5652 1467 38.3014
86.682 1379 37.1349
86.7988 1338 36.5787
86.9156 1329 36.4555
87.0323 1201 34.6554
87.149 1198 34.6121
87.2657 1236 35.1568
87.3823 1274 35.6931
87.4988 1244 35.2704
87.6154 1299 36.0416
87.7318 1224 34.9857
87.8483 1267 35.5949
87.9647 1298 36.0278
88.081 1332 36.4966
88.1973 1285 35.8469
88.3136 1332 36.4966
88.4298 1282 35.805
88.546 1158 34.0294
88.6621 939 30.6431
88.7781 856 29.2575
88.8942 0 1
89.0101 0 1
89.126 0 1
89.2419 0 1
89.3577 0 1
89.4734 0 1
89.5891 0 1
89.7047 0 1
89.8203 0 1
89.9358 0 1
92.3269 0 1
92.4424 0 1
92.558 0 1
92.6736 0 1
92.7893 0 1
92.905 0 1
93.0208 0 1
93.1366 0 1
93.2525 0 1
93.3685 0 1
93.4845 0 1
93.6005 1346 36.6879
93.7167 1340 36.606
93.8328 1347 36.7015
93.949 1221 34.9428
94.0653 1123 33.5112
94.1816 936 30.5941
94.2979 881 29.6816
94.4143 809 28.4429
94.5307 899 29.9833
94.6472 898 29.9666
94.7637 1117 33.4215
94.8803 1280 35.7771
94.9969 1454 38.1314
95.1135 1411 37.5633
95.2302 1453 38.1182
95.3469 1505 38.7943
95.4637 1513 38.8973
95.5805 1482 38.4968
95.6973 1618 40.2244
95.8142 1581 39.7618
95.9311 1597 39.9625
96.048 1491 38.6135
96.1649 1413 37.5899
96.2819 1380 37.1484
96.3989 1395 37.3497
96.516 1487 38.5616
96.633 1414 37.6032
96.7501 1323 36.3731
96.8673 1471 38.3536
96.9844 1435 37.8814
97.1016 1367 36.973
97.2188 1437 37.9078
97.336 1428 37.7889
97.4532 1407 37.51
97.5704 1403 37.4566
97.6877 1192 34.5254
97.805 987 31.4166
97.9223 884 29.7321
98.0396 852 29.189
98.1569 832 28.8444
98.2743 912 30.1993
98.3916 1099 33.1512
98.509 1226 35.0143
98.6264 1409 37.5366
98.7438 1455 38.1445
98.8612 1480 38.4708
98.9786 1553 39.4081
99.096 1502 38.7556
99.2134 1629 40.3609
99.3308 1611 40.1373
99.4482 1579 39.7366
99.5656 1533 39.1535
99.6831 1492 38.6264
99.8005 1459 38.1969
99.9179 1551 39.3827
100.035 1437 37.9078
100.153 1484 38.5227
100.27 1454 38.1314
100.388 1429 37.8021
100.505 1452 38.1051
100.622 1409 37.5366
100.74 1462 38.2361
100.857 1472 38.3667
100.975 1520 38.9872
101.092 1459 38.1969
101.209 1303 36.0971
101.327 1224 34.9857
101.444 958 30.9516
101.561 902 30.0333
101.679 865 29.4109
101.796 825 28.7228
101.913 992 31.496
102.03 1274 35.6931
102.148 1394 37.3363
102.265 1523 39.0256
102.382 1716 41.4246
102.499 1620 40.2492
102.616 1616 40.1995
102.733 1663 40.7799
102.851 1697 41.1947
102.968 1689 41.0974
103.085 1686 41.0609
103.202 1647 40.5832
103.319 1642 40.5216
103.436 1632 40.398
103.552 1601 40.0125
103.669 1569 39.6106
103.786 1563 39.5348
103.903 1574 39.6737
104.02 1533 39.1535
104.137 1499 38.7169
104.253 1562 39.5221
104.37 1527 39.0768
104.487 1529 39.1024
104.603 1599 39.9875
104.72 1451 38.092
104.836 1235 35.1426
104.953 1052 32.4345
105.069 961 31
105.186 968 31.1127
105.302 1013 31.8277
105.418 1163 34.1028
105.535 1435 37.8814
105.651 1606 40.0749
105.767 1725 41.5331
105.883 1755 41.8927
105.999 1816 42.6146
106.115 0 1
106.231 0 1
106.347 0 1
106.463 0 1
106.579 0 1
106.694 0 1
106.81 0 1
106.926 0 1
107.041 0 1
107.157 0 1
109.576 0 1
109.692 0 1
109.807 0 1
109.923 0 1
110.039 0 1
110.155 0 1
110.27 0 1
110.386 0 1
110.502 0 1
110.618 1316 36.2767
110.735 1506 38.8072
110.851 1706 41.3038
110.967 1679 40.9756
111.083 1624 40.2989
111.199 1706 41.3038
111.316 1747 41.7971
111.432 1709 41.3401
111.549 1716 41.4246
111.665 1698 41.2068
111.782 1680 40.9878
111.898 1624 40.2989
112.015 1552 39.3954
112.132 1647 40.5832
112.248 1595 39.9375
112.365 1608 40.0999
112.482 1433 37.855
112.599 1626 40.3237
112.716 1566 39.5727
112.832 1529 39.1024
112.949 1559 39.4842
113.066 1542 39.2683
113.183 1520 38.9872
113.3 1291 35.9305
113.417 1089 33
113.534 1008 31.749
113.652 953 30.8707
113.769 873 29.5466
113.886 864 29.3939
114.003 1104 33.2265
114.12 1316 36.2767
114.238 1418 37.6563
114.355 1555 39.4335
114.472 1593 39.9124
114.589 1628 40.3485
114.707 1595 39.9375
114.824 1580 39.7492
114.942 1593 39.9124
115.059 1671 40.8779
115.176 1705 41.2916
115.294 1600 40
115.411 1640 40.4969
115.529 1563 39.5348
115.646 1539 39.2301
115.764 1501 38.7427
115.881 1423 37.7227
115.999 1405 37.4833
116.116 1473 38.3797
116.234 1459 38.1969
116.351 1472 38.3667
116.469 1475 38.4057
116.586 1477 38.4318
116.704 1453 38.1182
116.821 1336 36.5513
116.939 1232 35.0999
117.056 1032 32.1248
117.174 1008 31.749
117.291 883 29.7153
117.409 933 30.545
117.526 1082 32.8938
117.644 1160 34.0588
117.761 1376 37.0945
117.879 1496 38.6782
117.996 1531 39.128
118.114 1617 40.2119
118.231 1639 40.4846
118.349 1675 40.9268
118.466 1585 39.8121
118.584 1624 40.2989
118.701 1595 39.9375
118.819 1606 40.0749
118.936 1554 39.4208
119.053 1562 39.5221
119.171 1514 38.9102
119.288 1529 39.1024
119.405 1573 39.6611
119.523 1454 38.1314
119.64 1428 37.7889
119.757 1482 38.4968
119.875 1460 38.2099
119.992 1459 38.1969
120.109 1429 37.8021
120.226 1405 37.4833
120.343 1335 36.5377
120.46 1395 37.3497
120.578 1223 34.9714
120.695 1056 32.4962
120.812 1032 32.1248
120.929 974 31.209
121.046 913 30.2159
121.163 978 31.273
121.279 1092 33.0454
121.396 1259 35.4824
121.513 1329 36.4555
121.63 1510 38.8587
121.747 1454 38.1314
121.863 1558 39.4715
121.98 1515 38.923
122.097 1606 40.0749
122.213 1565 39.5601
122.33 1599 39.9875
122.446 1560 39.4968
122.563 1496 38.6782
122.679 1543 39.281
122.795 1479 38.4578
122.912 1420 37.6829
123.028 1483 38.5097
123.144 1440 37.9473
123.26 1416 37.6298
123.377 0 1
123.493 0 1
123.609 0 1
123.725 0 1
123.84 0 1
123.956 0 1
124.072 0 1
124.188 0 1
124.303 0 1
124.419 0 1
126.852 0 1
126.968 0 1
127.083 0 1
127.199 0 1
127.315 0 1
127.431 0 1
127.547 0 1
127.663 0 1
127.779 0 1
127.895 0 1
128.011 0 1
128.127 0 1
128.243 0 1
128.359 1689 41.0974
128.476 1613 40.1622
128.592 1585 39.8121
128.708 1644 40.5463
128.825 1646 40.5709
128.941 1658 40.7185
129.058 1519 38.9744
129.174 1643 40.5339
129.291 1550 39.37
129.408 1413 37.5899
129.524 1330 36.4692
129.641 1258 35.4683
129.758 1230 35.0714
129.875 1061 32.573
129.992 1111 33.3317
130.108 1057 32.5115
130.225 1159 34.0441
130.342 1370 37.0135
130.459 1436 37.8946
130.576 1591 39.8873
130.693 1589 39.8623
130.81 1603 40.0375
130.928 1621 40.2616
131.045 1631 40.3856
131.162 1747 41.7971
131.279 1726 41.5452
131.396 1757 41.9166
131.513 1689 41.0974
131.631 1596 39.95
131.748 1644 40.5463
131.865 1633 40.4104
131.983 1579 39.7366
132.1 1623 40.2865
132.217 1591 39.8873
132.335 1554 39.4208
132.452 1650 40.6202
132.57 1584 39.7995
132.687 1592 39.8999
132.804 1506 38.8072
132.922 1514 38.9102
133.039 1399 37.4032
133.157 1254 35.4119
133.274 1152 33.9411
133.392 1074 32.7719
133.509 1044 32.311
133.627 1059 32.5423
133.744 1102 33.1964
133.862 1276 35.7211
133.979 1382 37.1753
134.097 1431 37.8286
134.214 1415 37.6165
134.332 1516 38.9358
134.449 1560 39.4968
134.567 1568 39.598
134.684 1662 40.7676
134.802 1668 40.8412
134.919 1698 41.2068
135.037 1674 40.9145
135.154 1584 39.7995
135.272 1702 41.2553
135.389 1704 41.2795
135.507 1650 40.6202
135.624 1590 39.8748
135.742 1599 39.9875
135.859 1561 39.5095
135.977 1582 39.7744
136.094 1517 38.9487
136.211 1541 39.2556
136.329 1616 40.1995
136.446 1593 39.9124
136.564 1478 38.4448
136.681 1341 36.6197
136.798 1276 35.7211
136.915 1128 33.5857
137.033 1085 32.9393
137.15 982 31.3369
137.267 999 31.607
137.384 1103 33.2114
137.502 1242 35.242
137.619 1232 35.0999
137.736 1358 36.8511
137.853 1405 37.4833
137.97 1461 38.223
138.087 1543 39.281
138.204 1573 39.6611
138.321 1679 40.9756
138.438 1686 41.0609
138.555 1761 41.9643
138.672 1737 41.6773
138.788 1752 41.8569
138.905 1681 41
139.022 1757 41.9166
139.139 1701 41.2432
139.255 1696 41.1825
139.372 1687 41.0731
139.488 1763 41.9881
139.605 1665 40.8044
139.721 1696 41.1825
139.838 1673 40.9023
139.954 1668 40.8412
140.071 1655 40.6817
140.187 1574 39.6737
140.303 1522 39.0128
140.419 1363 36.9188
140.535 1177 34.3074
140.652 1141 33.7787
140.768 0 1
140.884 0 1
141 0 1
141.115 0 1
141.231 0 1
141.347 0 1
141.463 0 1
141.578 0 1
141.694 0 1
144.104 0 1
144.219 0 1
144.335 0 1
144.45 0 1
144.566 0 1
144.682 0 1
144.798 0 1
144.914 0 1
145.03 0 1
145.146 1068 32.6803
145.262 1208 34.7563
145.378 1132 33.6452
145.494 1090 33.0151
145.61 1003 31.6702
145.726 941 30.6757
145.842 942 30.692
145.959 906 30.0998
146.075 893 29.8831
146.192 842 29.0172
146.308 919 30.315
146.425 971 31.1609
146.541 985 31.3847
146.658 1134 33.6749
146.774 1192 34.5254
146.891 1162 34.0881
147.008 1270 35.6371
147.125 1306 36.1386
147.241 1291 35.9305
147.358 1286 35.8608
147.475 1253 35.3977
147.592 1338 36.5787
147.709 1259 35.4824
147.826 1260 35.4965
147.943 1288 35.8887
148.06 1263 35.5387
148.177 1251 35.3695
148.294 1288 35.8887
148.411 1245 35.2846
148.528 1289 35.9026
148.645 1267 35.5949
148.762 1270 35.6371
148.88 1273 35.6791
148.997 1160 34.0588
149.114 1207 34.7419
149.231 1143 33.8083
149.349 1092 33.0454
149.466 997 31.5753
149.583 961 31
149.701 863 29.3769
149.818 883 29.7153
149.935 851 29.1719
150.053 889 29.8161
150.17 941 30.6757
150.287 981 31.3209
150.405 1020 31.9374
150.522 1186 34.4384
150.64 1257 35.4542
150.757 1248 35.327
150.875 1329 36.4555
150.992 1295 35.9861
151.11 1250 35.3553
151.227 1275 35.7071
151.344 1297 36.0139
151.462 1169 34.1906
151.579 1296 36
151.697 1258 35.4683
151.814 1297 36.0139
151.932 1313 36.2353
152.049 1250 35.3553
152.167 1282 35.805
152.284 1247 35.3129
152.402 1245 35.2846
152.519 1290 35.9166
152.636 1296 36
152.754 1264 35.5528
152.871 1115 33.3916
152.989 1099 33.1512
153.106 1105 33.2415
153.223 950 30.8221
153.341 932 30.5287
153.458 866 29.4279
153.575 880 29.6648
153.693 933 30.545
153.81 1024 32
153.927 1031 32.1092
154.044 1156 34
154.162 1233 35.1141
154.279 1327 36.428
154.396 1362 36.9053
154.513 1382 37.1753
154.63 1443 37.9868
154.747 1445 38.0132
154.864 1463 38.2492
154.981 1480 38.4708
155.098 1454 38.1314
155.215 1369 37
155.332 1437 37.9078
155.449 1375 37.081
155.566 1366 36.9594
155.683 1436 37.8946
155.8 1390 37.2827
155.917 1442 37.9737
156.033 1384 37.2022
156.15 0 1
156.267 0 1
156.383 0 1
156.5 0 1
156.617 0 1
156.733 0 1
156.85 0 1
156.966 0 1
157.082 0 1
157.199 0 1
157.315 0 1
157.431 0 1
157.547 0 1
157.664 0 1
157.78 0 1
157.896 0 1
158.012 0 1
158.128 0 1
158.244 0 1
158.359 0 1
158.475 0 1
158.591 0 1
158.706 0 1
