
6.15755 0 1
6.2731 0 1
6.3887 0 1
6.50437 0 1
6.62009 0 1
6.73587 0 1
6.8517 0 1
6.96759 0 1
7.08353 0 1
7.19952 0 1
7.31557 0 1
7.43166 0 1
7.54781 0 1
7.664 0 1
7.78024 0 1
7.89653 0 1
8.01286 0 1
8.12924 0 1
8.24567 0 1
8.36213 0 1
8.47864 0 1
8.59519 0 1
8.71178 0 1
8.82841 0 1
8.94508 0 1
9.06179 0 1
9.17853 0 1
9.29531 0 1
9.41212 0 1
9.52897 0 1
9.64584 0 1
9.76276 0 1
9.8797 0 1
9.99667 0 1
10.1137 0 1
10.2307 0 1
10.3478 0 1
10.4648 0 1
10.5819 0 1
10.6991 0 1
10.8162 0 1
10.9334 0 1
11.0506 0 1
11.1678 0 1
11.285 0 1
11.4023 0 1
11.5196 0 1
11.6369 0 1
11.7542 0 1
11.8715 0 1
11.9888 0 1
12.1062 0 1
12.2235 0 1
12.3409 0 1
12.4582 0 1
12.5756 0 1
12.693 0 1
12.8104 0 1
12.9278 0 1
13.0452 0 1
13.1626 0 1
13.28 0 1
13.3974 0 1
13.5149 0 1
13.6323 0 1
13.7497 0 1
13.8671 0 1
13.9845 0 1
14.1019 0 1
14.2193 0 1
14.3367 0 1
14.4541 0 1
14.5714 0 1
14.6888 0 1
14.8062 0 1
14.9235 0 1
15.0408 951 30.8383
15.1581 1057 32.5115
15.2755 1081 32.8786
15.3927 1039 32.2335
15.51 984 31.3688
15.6273 1003 31.6702
15.7445 1040 32.249
15.8617 989 31.4484
15.9789 994 31.5278
16.0961 1022 31.9687
16.2132 925 30.4138
16.3304 969 31.1288
16.4475 924 30.3974
16.5646 949 30.8058
16.6816 899 29.9833
16.7986 966 31.0805
16.9156 966 31.0805
17.0326 965 31.0644
17.1496 940 30.6594
17.2665 949 30.8058
17.3833 966 31.0805
17.5002 958 30.9516
17.617 987 31.4166
17.7338 1030 32.0936
17.8505 1004 31.686
17.9672 983 31.3528
18.0839 886 29.7658
18.2005 952 30.8545
18.3171 827 28.7576
18.4337 877 29.6142
18.5502 888 29.7993
18.6666 908 30.133
18.7831 881 29.6816
18.8994 902 30.0333
19.0158 926 30.4302
19.1321 931 30.5123
19.2483 787 28.0535
19.3645 804 28.3549
19.4806 820 28.6356
19.5967 716 26.7582
19.7128 652 25.5343
19.8288 611 24.7184
19.9447 542 23.2809
20.0606 0 1
20.1764 0 1
20.2922 0 1
20.4079 0 1
20.5236 0 1
20.6392 0 1
20.7548 0 1
20.8702 0 1
23.3078 0 1
23.4233 0 1
23.539 0 1
23.6547 0 1
23.7704 0 1
23.8862 0 1
24.0021 0 1
24.118 0 1
24.234 0 1
24.35 0 1
24.4661 336 18.3303
24.5822 414 20.347
24.6984 468 21.6333
24.8146 565 23.7697
24.9309 643 25.3574
25.0472 742 27.2397
25.1636 757 27.5136
25.28 852 29.189
25.3965 913 30.2159
25.513 947 30.7734
25.6296 947 30.7734
25.7462 961 31
25.8628 985 31.3847
25.9795 996 31.5595
26.0962 946 30.7571
26.213 976 31.241
26.3298 864 29.3939
26.4466 938 30.6268
26.5635 875 29.5804
26.6804 840 28.9828
26.7973 781 27.9464
26.9143 740 27.2029
27.0313 747 27.3313
27.1483 774 27.8209
27.2653 781 27.9464
27.3824 846 29.0861
27.4996 892 29.8664
27.6167 856 29.2575
27.7339 924 30.3974
27.8511 847 29.1033
27.9683 887 29.7825
28.0855 876 29.5973
28.2028 864 29.3939
28.3201 858 29.2916
28.4374 817 28.5832
28.5547 796 28.2135
28.6721 828 28.775
28.7894 857 29.2746
28.9068 838 28.9482
29.0242 884 29.7321
29.1416 880 29.6648
29.259 856 29.2575
29.3764 842 29.0172
29.4939 883 29.7153
29.6113 833 28.8617
29.7288 865 29.4109
29.8463 816 28.5657
29.9638 863 29.3769
30.0812 843 29.0345
30.1987 762 27.6043
30.3162 787 28.0535
30.4337 756 27.4955
30.5512 743 27.258
30.6687 788 28.0713
30.7862 843 29.0345
30.9037 843 29.0345
31.0212 868 29.4618
31.1387 867 29.4449
31.2562 893 29.8831
31.3737 961 31
31.4912 865 29.4109
31.6087 871 29.5127
31.7262 923 30.3809
31.8436 848 29.1204
31.9611 808 28.4253
32.0785 736 27.1293
32.1959 799 28.2666
32.3134 739 27.1846
32.4308 798 28.2489
32.5482 809 28.4429
32.6655 794 28.178
32.7829 816 28.5657
32.9002 781 27.9464
33.0176 780 27.9285
33.1349 792 28.1425
33.2522 796 28.2135
33.3694 758 27.5318
33.4867 835 28.8964
33.6039 761 27.5862
33.7211 814 28.5307
33.8383 796 28.2135
33.9554 756 27.4955
34.0725 737 27.1477
34.1896 722 26.8701
34.3067 728 26.9815
34.4237 802 28.3196
34.5407 814 28.5307
34.6577 846 29.0861
34.7746 871 29.5127
34.8915 802 28.3196
35.0084 858 29.2916
35.1252 887 29.7825
35.242 817 28.5832
35.3587 797 28.2312
35.4755 728 26.9815
35.5921 742 27.2397
35.7088 729 27
35.8254 715 26.7395
35.9419 696 26.3818
36.0584 709 26.6271
36.1749 816 28.5657
36.2913 826 28.7402
36.4077 729 27
36.524 704 26.533
36.6403 691 26.2869
36.7565 668 25.8457
36.8727 622 24.9399
36.9889 573 23.9374
37.1049 560 23.6643
37.221 0 1
37.3369 0 1
37.4529 0 1
37.5687 0 1
37.6845 0 1
37.8003 0 1
37.916 0 1
38.0316 0 1
38.1472 0 1
40.5851 0 1
40.7008 0 1
40.8164 0 1
40.9322 0 1
41.048 0 1
41.1639 0 1
41.2798 0 1
41.3958 0 1
41.5118 0 1
41.6279 0 1
41.744 323 17.9722
41.8602 371 19.2614
41.9765 493 22.2036
42.0928 494 22.2261
42.2091 552 23.4947
42.3255 557 23.6008
42.4419 578 24.0416
42.5584 581 24.1039
42.675 548 23.4094
42.7915 535 23.1301
42.9081 547 23.388
43.0248 510 22.5832
43.1415 477 21.8403
43.2582 554 23.5372
43.375 559 23.6432
43.4918 587 24.2281
43.6087 634 25.1794
43.7256 587 24.2281
43.8425 579 24.0624
43.9595 589 24.2693
44.0765 580 24.0832
44.1935 597 24.4336
44.3106 548 23.4094
44.4277 515 22.6936
44.5448 470 21.6795
44.6619 551 23.4734
44.7791 549 23.4307
44.8963 564 23.7487
45.0136 609 24.6779
45.1308 664 25.7682
45.2481 608 24.6577
45.3654 620 24.8998
45.4827 640 25.2982
45.6001 671 25.9037
45.7174 631 25.1197
45.8348 638 25.2587
45.9522 685 26.1725
46.0697 601 24.5153
46.1871 582 24.1247
46.3046 525 22.9129
46.422 538 23.1948
46.5395 482 21.9545
46.657 537 23.1733
46.7745 506 22.4944
46.892 577 24.0208
47.0096 568 23.8328
47.1271 595 24.3926
47.2446 593 24.3516
47.3622 587 24.2281
47.4797 590 24.2899
47.5973 574 23.9583
47.7149 515 22.6936
47.8324 555 23.5584
47.95 538 23.1948
48.0675 535 23.1301
48.1851 510 22.5832
48.3027 519 22.7816
48.4202 533 23.0868
48.5378 561 23.6854
48.6554 586 24.2074
48.7729 607 24.6374
48.8904 538 23.1948
49.008 601 24.5153
49.1255 593 24.3516
49.243 590 24.2899
49.3605 595 24.3926
49.478 606 24.6171
49.5955 547 23.388
49.713 475 21.7945
49.8304 502 22.4054
49.9479 444 21.0713
50.0653 459 21.4243
50.1827 458 21.4009
50.3001 503 22.4277
50.4175 517 22.7376
50.5348 502 22.4054
50.6521 575 23.9792
50.7694 555 23.5584
50.8867 555 23.5584
51.004 563 23.7276
51.1212 549 23.4307
51.2384 573 23.9374
51.3556 584 24.1661
51.4727 487 22.0681
51.5899 445 21.095
51.707 510 22.5832
51.824 515 22.6936
51.9411 525 22.9129
52.0581 524 22.891
52.175 545 23.3452
52.2919 546 23.3666
52.4088 583 24.1454
52.5257 565 23.7697
52.6425 523 22.8692
52.7593 555 23.5584
52.876 589 24.2693
52.9927 605 24.5967
53.1094 531 23.0434
53.226 532 23.0651
53.3426 485 22.0227
53.4591 484 22
53.5756 424 20.5913
53.692 436 20.8806
53.8084 405 20.1246
53.9248 388 19.6977
54.0411 351 18.735
54.1573 348 18.6548
54.2735 0 1
54.3896 0 1
54.5057 0 1
54.6217 0 1
54.7377 0 1
54.8537 0 1
54.9695 0 1
55.0853 0 1
55.2011 0 1
55.3168 0 1
55.4324 0 1
57.824 0 1
57.9396 0 1
58.0553 0 1
58.1711 0 1
58.2869 0 1
58.4028 0 1
58.5187 0 1
58.6347 0 1
58.7508 0 1
58.8669 0 1
58.983 494 22.2261
59.0992 609 24.6779
59.2155 747 27.3313
59.3318 863 29.3769
59.4482 864 29.3939
59.5646 948 30.7896
59.681 982 31.3369
59.7975 907 30.1164
59.9141 1016 31.8748
60.0306 1051 32.4191
60.1473 979 31.289
60.2639 989 31.4484
60.3807 958 30.9516
60.4974 1025 32.0156
60.6142 936 30.5941
60.731 994 31.5278
60.8479 978 31.273
60.9648 968 31.1127
61.0818 1011 31.7962
61.1987 945 30.7409
61.3158 942 30.692
61.4328 894 29.8998
61.5499 890 29.8329
61.667 876 29.5973
61.7841 833 28.8617
61.9013 785 28.0179
62.0185 700 26.4575
62.1357 695 26.3629
62.253 717 26.7769
62.3702 691 26.2869
62.4875 699 26.4386
62.6049 729 27
62.7222 746 27.313
62.8396 760 27.5681
62.9569 726 26.9444
63.0743 702 26.4953
63.1918 713 26.7021
63.3092 672 25.923
63.4267 653 25.5539
63.5441 602 24.5357
63.6616 608 24.6577
63.7791 556 23.5797
63.8966 581 24.1039
64.0142 628 25.0599
64.1317 622 24.9399
64.2492 641 25.318
64.3668 622 24.9399
64.4843 670 25.8844
64.6019 625 25
64.7195 567 23.8118
64.837 592 24.3311
64.9546 627 25.04
65.0722 642 25.3377
65.1898 592 24.3311
65.3074 578 24.0416
65.4249 569 23.8537
65.5425 553 23.516
65.6601 575 23.9792
65.7777 488 22.0907
65.8952 531 23.0434
66.0128 558 23.622
66.1304 562 23.7065
66.2479 644 25.3772
66.3655 596 24.4131
66.483 611 24.7184
66.6005 568 23.8328
66.718 586 24.2074
66.8355 615 24.7992
66.953 585 24.1868
67.0705 619 24.8797
67.1879 598 24.454
67.3054 591 24.3105
67.4228 590 24.2899
67.5402 567 23.8118
67.6576 592 24.3311
67.7749 576 24
67.8923 654 25.5734
68.0096 567 23.8118
68.1269 598 24.454
68.2442 584 24.1661
68.3614 576 24
68.4787 596 24.4131
68.5958 627 25.04
68.713 561 23.6854
68.8302 566 23.7908
68.9473 599 24.4745
69.0643 589 24.2693
69.1814 589 24.2693
69.2984 559 23.6432
69.4154 495 22.2486
69.5323 540 23.2379
69.6492 528 22.9783
69.7661 596 24.4131
69.8829 564 23.7487
69.9997 603 24.5561
70.1165 548 23.4094
70.2332 565 23.7697
70.3499 547 23.388
70.4665 524 22.891
70.5831 540 23.2379
70.6996 449 21.1896
70.8161 398 19.9499
70.9326 380 19.4936
71.049 316 17.7764
71.1653 322 17.9444
71.2817 310 17.6068
71.3979 289 17
71.5141 278 16.6733
71.6303 269 16.4012
71.7464 206 14.3527
71.8624 0 1
71.9784 0 1
72.0944 0 1
72.2102 0 1
72.3261 0 1
72.4418 0 1
72.5575 0 1
72.6732 0 1
75.1054 0 1
75.2209 0 1
75.3365 0 1
75.4521 0 1
75.5678 0 1
75.6835 0 1
75.7993 0 1
75.9151 0 1
76.031 0 1
76.147 316 17.7764
76.263 395 19.8746
76.3791 433 20.8087
76.4952 426 20.6398
76.6113 462 21.4942
76.7276 522 22.8473
76.8438 503 22.4277
76.9601 488 22.0907
77.0765 497 22.2935
77.1929 491 22.1585
77.3093 503 22.4277
77.4258 473 21.7486
77.5423 495 22.2486
77.6589 517 22.7376
77.7755 509 22.561
77.8921 503 22.4277
78.0088 460 21.4476
78.1256 438 20.9284
78.2423 435 20.8567
78.3591 433 20.8087
78.4759 443 21.0476
78.5928 499 22.3383
78.7097 441 21
78.8266 497 22.2935
78.9436 527 22.9565
79.0606 480 21.9089
79.1776 514 22.6716
79.2946 473 21.7486
79.4117 477 21.8403
79.5288 482 21.9545
79.6459 504 22.4499
79.7631 482 21.9545
79.8802 454 21.3073
79.9974 477 21.8403
80.1147 545 23.3452
80.2319 492 22.1811
80.3491 520 22.8035
80.4664 493 22.2036
80.5837 509 22.561
80.701 514 22.6716
80.8183 501 22.383
80.9357 520 22.8035
81.053 562 23.7065
81.1704 547 23.388
81.2877 506 22.4944
81.4051 537 23.1733
81.5225 512 22.6274
81.6399 523 22.8692
81.7573 534 23.1084
81.8747 470 21.6795
81.9922 484 22
82.1096 433 20.8087
82.227 457 21.3776
82.3444 428 20.6882
82.4619 497 22.2935
82.5793 499 22.3383
82.6967 530 23.0217
82.8142 535 23.1301
82.9316 568 23.8328
83.049 518 22.7596
83.1664 526 22.9347
83.2838 434 20.8327
83.4012 489 22.1133
83.5186 486 22.0454
83.636 524 22.891
83.7534 521 22.8254
83.8708 533 23.0868
83.9881 542 23.2809
84.1055 524 22.891
84.2228 510 22.5832
84.3401 527 22.9565
84.4575 540 23.2379
84.5747 536 23.1517
84.692 515 22.6936
84.8093 522 22.8473
84.9265 584 24.1661
85.0437 521 22.8254
85.1609 504 22.4499
85.2781 489 22.1133
85.3952 476 21.8174
85.5123 514 22.6716
85.6294 455 21.3307
85.7465 507 22.5167
85.8636 499 22.3383
85.9806 497 22.2935
86.0976 534 23.1084
86.2145 570 23.8747
86.3315 591 24.3105
86.4484 537 23.1733
86.5652 487 22.0681
86.682 545 23.3452
86.7988 490 22.1359
86.9156 492 22.1811
87.0323 571 23.8956
87.149 518 22.7596
87.2657 527 22.9565
87.3823 512 22.6274
87.4988 519 22.7816
87.6154 522 22.8473
87.7318 496 22.2711
87.8483 510 22.5832
87.9647 492 22.1811
88.081 466 21.587
88.1973 386 19.6469
88.3136 395 19.8746
88.4298 323 17.9722
88.546 328 18.1108
88.6621 321 17.9165
88.7781 289 17
88.8942 0 1
89.0101 0 1
89.126 0 1
89.2419 0 1
89.3577 0 1
89.4734 0 1
89.5891 0 1
89.7047 0 1
89.8203 0 1
89.9358 0 1
92.3269 0 1
92.4424 0 1
92.558 0 1
92.6736 0 1
92.7893 0 1
92.905 0 1
93.0208 0 1
93.1366 0 1
93.2525 0 1
93.3685 0 1
93.4845 0 1
93.6005 402 20.0499
93.7167 468 21.6333
93.8328 508 22.5389
93.949 532 23.0651
94.0653 551 23.4734
94.1816 535 23.1301
94.2979 532 23.0651
94.4143 539 23.2164
94.5307 514 22.6716
94.6472 503 22.4277
94.7637 511 22.6053
94.8803 520 22.8035
94.9969 478 21.8632
95.1135 532 23.0651
95.2302 584 24.1661
95.3469 531 23.0434
95.4637 561 23.6854
95.5805 553 23.516
95.6973 557 23.6008
95.8142 579 24.0624
95.9311 566 23.7908
96.048 517 22.7376
96.1649 517 22.7376
96.2819 535 23.1301
96.3989 554 23.5372
96.516 596 24.4131
96.633 584 24.1661
96.7501 566 23.7908
96.8673 596 24.4131
96.9844 601 24.5153
97.1016 558 23.622
97.2188 512 22.6274
97.336 580 24.0832
97.4532 506 22.4944
97.5704 571 23.8956
97.6877 619 24.8797
97.805 607 24.6374
97.9223 559 23.6432
98.0396 570 23.8747
98.1569 560 23.6643
98.2743 540 23.2379
98.3916 520 22.8035
98.509 531 23.0434
98.6264 523 22.8692
98.7438 577 24.0208
98.8612 561 23.6854
98.9786 607 24.6374
99.096 637 25.2389
99.2134 618 24.8596
99.3308 590 24.2899
99.4482 602 24.5357
99.5656 583 24.1454
99.6831 584 24.1661
99.8005 614 24.779
99.9179 641 25.318
100.035 655 25.593
100.153 656 25.6125
100.27 626 25.02
100.388 638 25.2587
100.505 574 23.9583
100.622 632 25.1396
100.74 614 24.779
100.857 584 24.1661
100.975 613 24.7588
101.092 590 24.2899
101.209 635 25.1992
101.327 625 25
101.444 603 24.5561
101.561 588 24.2487
101.679 626 25.02
101.796 628 25.0599
101.913 591 24.3105
102.03 617 24.8395
102.148 636 25.219
102.265 624 24.98
102.382 609 24.6779
102.499 670 25.8844
102.616 653 25.5539
102.733 690 26.2679
102.851 678 26.0384
102.968 688 26.2298
103.085 699 26.4386
103.202 634 25.1794
103.319 643 25.3574
103.436 643 25.3574
103.552 664 25.7682
103.669 723 26.8887
103.786 668 25.8457
103.903 721 26.8514
104.02 659 25.671
104.137 692 26.3059
104.253 702 26.4953
104.37 631 25.1197
104.487 620 24.8998
104.603 612 24.7386
104.72 652 25.5343
104.836 652 25.5343
104.953 633 25.1595
105.069 615 24.7992
105.186 591 24.3105
105.302 536 23.1517
105.418 467 21.6102
105.535 521 22.8254
105.651 452 21.2603
105.767 386 19.6469
105.883 382 19.5448
105.999 314 17.72
106.115 0 1
106.231 0 1
106.347 0 1
106.463 0 1
106.579 0 1
106.694 0 1
106.81 0 1
106.926 0 1
107.041 0 1
107.157 0 1
109.576 0 1
109.692 0 1
109.807 0 1
109.923 0 1
110.039 0 1
110.155 0 1
110.27 0 1
110.386 0 1
110.502 0 1
110.618 338 18.3848
110.735 398 19.9499
110.851 436 20.8806
110.967 466 21.587
111.083 511 22.6053
111.199 559 23.6432
111.316 617 24.8395
111.432 594 24.3721
111.549 657 25.632
111.665 620 24.8998
111.782 584 24.1661
111.898 603 24.5561
112.015 611 24.7184
112.132 590 24.2899
112.248 636 25.219
112.365 623 24.96
112.482 644 25.3772
112.599 641 25.318
112.716 635 25.1992
112.832 608 24.6577
112.949 653 25.5539
113.066 665 25.7876
113.183 655 25.593
113.3 598 24.454
113.417 595 24.3926
113.534 579 24.0624
113.652 639 25.2784
113.769 608 24.6577
113.886 626 25.02
114.003 579 24.0624
114.12 540 23.2379
114.238 567 23.8118
114.355 572 23.9165
114.472 541 23.2594
114.589 532 23.0651
114.707 527 22.9565
114.824 586 24.2074
114.942 615 24.7992
115.059 603 24.5561
115.176 599 24.4745
115.294 608 24.6577
115.411 604 24.5764
115.529 591 24.3105
115.646 528 22.9783
115.764 607 24.6374
115.881 642 25.3377
115.999 580 24.0832
116.116 604 24.5764
116.234 557 23.6008
116.351 593 24.3516
116.469 562 23.7065
116.586 549 23.4307
116.704 556 23.5797
116.821 562 23.7065
116.939 563 23.7276
117.056 558 23.622
117.174 532 23.0651
117.291 522 22.8473
117.409 554 23.5372
117.526 505 22.4722
117.644 532 23.0651
117.761 528 22.9783
117.879 497 22.2935
117.996 450 21.2132
118.114 497 22.2935
118.231 534 23.1084
118.349 556 23.5797
118.466 568 23.8328
118.584 551 23.4734
118.701 577 24.0208
118.819 558 23.622
118.936 568 23.8328
119.053 590 24.2899
119.171 533 23.0868
119.288 530 23.0217
119.405 524 22.891
119.523 554 23.5372
119.64 569 23.8537
119.757 524 22.891
119.875 522 22.8473
119.992 539 23.2164
120.109 551 23.4734
120.226 539 23.2164
120.343 492 22.1811
120.46 513 22.6495
120.578 529 23
120.695 581 24.1039
120.812 533 23.0868
120.929 500 22.3607
121.046 533 23.0868
121.163 516 22.7156
121.279 485 22.0227
121.396 491 22.1585
121.513 472 21.7256
121.63 473 21.7486
121.747 444 21.0713
121.863 430 20.7364
121.98 429 20.7123
122.097 471 21.7025
122.213 440 20.9762
122.33 411 20.2731
122.446 432 20.7846
122.563 381 19.5192
122.679 375 19.3649
122.795 310 17.6068
122.912 364 19.0788
123.028 310 17.6068
123.144 274 16.5529
123.26 295 17.1756
123.377 0 1
123.493 0 1
123.609 0 1
123.725 0 1
123.84 0 1
123.956 0 1
124.072 0 1
124.188 0 1
124.303 0 1
124.419 0 1
126.852 0 1
126.968 0 1
127.083 0 1
127.199 0 1
127.315 0 1
127.431 0 1
127.547 0 1
127.663 0 1
127.779 0 1
127.895 0 1
128.011 0 1
128.127 0 1
128.243 0 1
128.359 535 23.1301
128.476 551 23.4734
128.592 565 23.7697
128.708 607 24.6374
128.825 608 24.6577
128.941 582 24.1247
129.058 599 24.4745
129.174 629 25.0799
129.291 587 24.2281
129.408 543 23.3024
129.524 567 23.8118
129.641 591 24.3105
129.758 571 23.8956
129.875 588 24.2487
129.992 595 24.3926
130.108 603 24.5561
130.225 601 24.5153
130.342 606 24.6171
130.459 577 24.0208
130.576 597 24.4336
130.693 591 24.3105
130.81 549 23.4307
130.928 623 24.96
131.045 620 24.8998
131.162 676 26
131.279 755 27.4773
131.396 811 28.4781
131.513 763 27.6225
131.631 824 28.7054
131.748 776 27.8568
131.865 800 28.2843
131.983 779 27.9106
132.1 792 28.1425
132.217 880 29.6648
132.335 885 29.7489
132.452 971 31.1609
132.57 978 31.273
132.687 1025 32.0156
132.804 1052 32.4345
132.922 1080 32.8634
133.039 1107 33.2716
133.157 1091 33.0303
133.274 1124 33.5261
133.392 1152 33.9411
133.509 1091 33.0303
133.627 1142 33.7935
133.744 1068 32.6803
133.862 1109 33.3017
133.979 1024 32
134.097 986 31.4006
134.214 1076 32.8024
134.332 996 31.5595
134.449 956 30.9192
134.567 980 31.305
134.684 1027 32.0468
134.802 1063 32.6037
134.919 1134 33.6749
135.037 1095 33.0908
135.154 1149 33.8969
135.272 1082 32.8938
135.389 1063 32.6037
135.507 1010 31.7805
135.624 1004 31.686
135.742 1005 31.7017
135.859 1099 33.1512
135.977 1093 33.0606
136.094 1086 32.9545
136.211 1099 33.1512
136.329 1127 33.5708
136.446 1096 33.1059
136.564 1201 34.6554
136.681 1171 34.2199
136.798 1101 33.1813
136.915 1173 34.2491
137.033 1061 32.573
137.15 1168 34.176
137.267 1151 33.9264
137.384 1145 33.8378
137.502 1077 32.8177
137.619 1126 33.5559
137.736 1083 32.909
137.853 950 30.8221
137.97 1028 32.0624
138.087 1028 32.0624
138.204 1019 31.9218
138.321 1032 32.1248
138.438 1123 33.5112
138.555 1081 32.8786
138.672 1145 33.8378
138.788 1149 33.8969
138.905 1178 34.322
139.022 1093 33.0606
139.139 982 31.3369
139.255 944 30.7246
139.372 919 30.315
139.488 894 29.8998
139.605 878 29.6311
139.721 884 29.7321
139.838 859 29.3087
139.954 775 27.8388
140.071 753 27.4408
140.187 703 26.5141
140.303 706 26.5707
140.419 649 25.4755
140.535 646 25.4165
140.652 604 24.5764
140.768 0 1
140.884 0 1
141 0 1
141.115 0 1
141.231 0 1
141.347 0 1
141.463 0 1
141.578 0 1
141.694 0 1
144.104 0 1
144.219 0 1
144.335 0 1
144.45 0 1
144.566 0 1
144.682 0 1
144.798 0 1
144.914 0 1
145.03 0 1
145.146 1336 36.5513
145.262 1367 36.973
145.378 1468 38.3145
145.494 1419 37.6696
145.61 1511 38.8716
145.726 1551 39.3827
145.842 1614 40.1746
145.959 1628 40.3485
146.075 1663 40.7799
146.192 1702 41.2553
146.308 1782 42.2137
146.425 1840 42.8952
146.541 1781 42.2019
146.658 1724 41.5211
146.774 1799 42.4146
146.891 1855 43.0697
147.008 1855 43.0697
147.125 1777 42.1545
147.241 1608 40.0999
147.358 1885 43.4166
147.475 2069 45.4863
147.592 2104 45.8694
147.709 2035 45.111
147.826 2050 45.2769
147.943 1965 44.3283
148.06 2005 44.7772
148.177 1948 44.1362
148.294 1965 44.3283
148.411 2045 45.2217
148.528 2058 45.3652
148.645 2086 45.6727
148.762 2060 45.3872
148.88 2017 44.911
148.997 2091 45.7275
149.114 1891 43.4856
149.231 2011 44.8442
149.349 2055 45.3321
149.466 2077 45.5741
149.583 1992 44.6318
149.701 1922 43.8406
149.818 1928 43.909
149.935 1972 44.4072
150.053 1824 42.7083
150.17 1739 41.7013
150.287 1778 42.1663
150.405 1707 41.3159
150.522 1747 41.7971
150.64 1623 40.2865
150.757 1694 41.1582
150.875 1585 39.8121
150.992 1760 41.9524
151.11 1697 41.1947
151.227 1796 42.3792
151.344 1821 42.6732
151.462 1733 41.6293
151.579 1763 41.9881
151.697 1678 40.9634
151.814 1647 40.5832
151.932 1734 41.6413
152.049 1729 41.5812
152.167 1655 40.6817
152.284 1696 41.1825
152.402 1748 41.8091
152.519 1701 41.2432
152.636 1729 41.5812
152.754 1724 41.5211
152.871 1699 41.2189
152.989 1694 41.1582
153.106 1770 42.0714
153.223 1643 40.5339
153.341 1673 40.9023
153.458 1664 40.7922
153.575 1586 39.8246
153.693 1528 39.0896
153.81 1441 37.9605
153.927 1496 38.6782
154.044 1516 38.9358
154.162 1531 39.128
154.279 1478 38.4448
154.396 1391 37.2961
154.513 1417 37.6431
154.63 1634 40.4228
154.747 1662 40.7676
154.864 1644 40.5463
154.981 1658 40.7185
155.098 1539 39.2301
155.215 1640 40.4969
155.332 1541 39.2556
155.449 1645 40.5586
155.566 1675 40.9268
155.683 1711 41.3642
155.8 1593 39.9124
155.917 1737 41.6773
156.033 1638 40.4722
156.15 0 1
156.267 0 1
156.383 0 1
156.5 0 1
156.617 0 1
156.733 0 1
156.85 0 1
156.966 0 1
157.082 0 1
157.199 0 1
157.315 0 1
157.431 0 1
157.547 0 1
157.664 0 1
157.78 0 1
157.896 0 1
158.012 0 1
158.128 0 1
158.244 0 1
158.359 0 1
158.475 0 1
158.591 0 1
158.706 0 1
