
6.15755 0 1
6.2731 0 1
6.3887 0 1
6.50437 0 1
6.62009 0 1
6.73587 0 1
6.8517 0 1
6.96759 0 1
7.08353 0 1
7.19952 0 1
7.31557 0 1
7.43166 0 1
7.54781 0 1
7.664 0 1
7.78024 0 1
7.89653 0 1
8.01286 0 1
8.12924 0 1
8.24567 0 1
8.36213 0 1
8.47864 0 1
8.59519 0 1
8.71178 0 1
8.82841 0 1
8.94508 0 1
9.06179 0 1
9.17853 0 1
9.29531 0 1
9.41212 0 1
9.52897 0 1
9.64584 0 1
9.76276 0 1
9.8797 0 1
9.99667 0 1
10.1137 0 1
10.2307 0 1
10.3478 0 1
10.4648 0 1
10.5819 0 1
10.6991 0 1
10.8162 0 1
10.9334 0 1
11.0506 0 1
11.1678 0 1
11.285 0 1
11.4023 0 1
11.5196 0 1
11.6369 0 1
11.7542 0 1
11.8715 0 1
11.9888 0 1
12.1062 0 1
12.2235 0 1
12.3409 0 1
12.4582 0 1
12.5756 0 1
12.693 0 1
12.8104 0 1
12.9278 0 1
13.0452 0 1
13.1626 0 1
13.28 0 1
13.3974 0 1
13.5149 0 1
13.6323 0 1
13.7497 0 1
13.8671 0 1
13.9845 0 1
14.1019 0 1
14.2193 0 1
14.3367 0 1
14.4541 0 1
14.5714 0 1
14.6888 0 1
14.8062 0 1
14.9235 0 1
15.0408 1509 38.8458
15.1581 1510 38.8587
15.2755 1653 40.6571
15.3927 1694 41.1582
15.51 1602 40.025
15.6273 1587 39.8372
15.7445 1625 40.3113
15.8617 1661 40.7554
15.9789 1734 41.6413
16.0961 1718 41.4488
16.2132 1634 40.4228
16.3304 1608 40.0999
16.4475 1683 41.0244
16.5646 1779 42.1782
16.6816 1801 42.4382
16.7986 1865 43.1856
16.9156 1877 43.3244
17.0326 1928 43.909
17.1496 1938 44.0227
17.2665 1894 43.5201
17.3833 1923 43.852
17.5002 1862 43.1509
17.617 1751 41.845
17.7338 1785 42.2493
17.8505 1776 42.1426
17.9672 1697 41.1947
18.0839 1655 40.6817
18.2005 1773 42.107
18.3171 1743 41.7493
18.4337 1800 42.4264
18.5502 1971 44.3959
18.6666 1892 43.4971
18.7831 1882 43.382
18.8994 1928 43.909
19.0158 1767 42.0357
19.1321 1861 43.1393
19.2483 1777 42.1545
19.3645 1687 41.0731
19.4806 1578 39.724
19.5967 1477 38.4318
19.7128 1372 37.0405
19.8288 1278 35.7491
19.9447 1140 33.7639
20.0606 0 1
20.1764 0 1
20.2922 0 1
20.4079 0 1
20.5236 0 1
20.6392 0 1
20.7548 0 1
20.8702 0 1
23.3078 0 1
23.4233 0 1
23.539 0 1
23.6547 0 1
23.7704 0 1
23.8862 0 1
24.0021 0 1
24.118 0 1
24.234 0 1
24.35 0 1
24.4661 753 27.4408
24.5822 1005 31.7017
24.6984 1037 32.2025
24.8146 1107 33.2716
24.9309 1368 36.9865
25.0472 1381 37.1618
25.1636 1518 38.9615
25.28 1699 41.2189
25.3965 1765 42.0119
25.513 1843 42.9302
25.6296 2008 44.8107
25.7462 2027 45.0222
25.8628 2033 45.0888
25.9795 2128 46.1303
26.0962 2062 45.4093
26.213 1961 44.2832
26.3298 1906 43.6578
26.4466 1844 42.9418
26.5635 1731 41.6053
26.6804 1751 41.845
26.7973 1845 42.9535
26.9143 1886 43.4281
27.0313 1838 42.8719
27.1483 1860 43.1277
27.2653 2008 44.8107
27.3824 1988 44.587
27.4996 1966 44.3396
27.6167 2047 45.2438
27.7339 1895 43.5316
27.8511 1832 42.8019
27.9683 1895 43.5316
28.0855 1783 42.2256
28.2028 1700 41.2311
28.3201 1667 40.8289
28.4374 1722 41.497
28.5547 1742 41.7373
28.6721 1739 41.7013
28.7894 1896 43.5431
28.9068 1987 44.5758
29.0242 1968 44.3621
29.1416 2001 44.7325
29.259 2038 45.1442
29.3764 2087 45.6837
29.4939 1983 44.5309
29.6113 1962 44.2945
29.7288 1852 43.0349
29.8463 1819 42.6497
29.9638 1735 41.6533
30.0812 1684 41.0366
30.1987 1748 41.8091
30.3162 1728 41.5692
30.4337 1708 41.328
30.5512 1863 43.1625
30.6687 1857 43.0929
30.7862 1881 43.3705
30.9037 1833 42.8135
31.0212 1894 43.5201
31.1387 1920 43.8178
31.2562 1855 43.0697
31.3737 1844 42.9418
31.4912 1775 42.1307
31.6087 1680 40.9878
31.7262 1649 40.6079
31.8436 1598 39.975
31.9611 1663 40.7799
32.0785 1626 40.3237
32.1959 1703 41.2674
32.3134 1833 42.8135
32.4308 1878 43.3359
32.5482 1951 44.1701
32.6655 1959 44.2606
32.7829 1989 44.5982
32.9002 1967 44.3509
33.0176 1945 44.1022
33.1349 1883 43.3935
33.2522 1959 44.2606
33.3694 1882 43.382
33.4867 1740 41.7133
33.6039 1586 39.8246
33.7211 1597 39.9625
33.8383 1605 40.0625
33.9554 1616 40.1995
34.0725 1628 40.3485
34.1896 1652 40.6448
34.3067 1673 40.9023
34.4237 1797 42.391
34.5407 1840 42.8952
34.6577 1797 42.391
34.7746 1763 41.9881
34.8915 1882 43.382
35.0084 1811 42.5558
35.1252 1743 41.7493
35.242 1780 42.19
35.3587 1680 40.9878
35.4755 1629 40.3609
35.5921 1511 38.8716
35.7088 1681 41
35.8254 1547 39.3319
35.9419 1602 40.025
36.0584 1657 40.7063
36.1749 1734 41.6413
36.2913 1765 42.0119
36.4077 1719 41.4608
36.524 1669 40.8534
36.6403 1637 40.4599
36.7565 1545 39.3065
36.8727 1442 37.9737
36.9889 1366 36.9594
37.1049 1227 35.0286
37.221 0 1
37.3369 0 1
37.4529 0 1
37.5687 0 1
37.6845 0 1
37.8003 0 1
37.916 0 1
38.0316 0 1
38.1472 0 1
40.5851 0 1
40.7008 0 1
40.8164 0 1
40.9322 0 1
41.048 0 1
41.1639 0 1
41.2798 0 1
41.3958 0 1
41.5118 0 1
41.6279 0 1
41.744 853 29.2062
41.8602 1007 31.7333
41.9765 1103 33.2114
42.0928 1074 32.7719
42.2091 1076 32.8024
42.3255 1127 33.5708
42.4419 1092 33.0454
42.5584 1108 33.2866
42.675 1234 35.1283
42.7915 1274 35.6931
42.9081 1390 37.2827
43.0248 1386 37.229
43.1415 1494 38.6523
43.2582 1448 38.0526
43.375 1598 39.975
43.4918 1463 38.2492
43.6087 1532 39.1408
43.7256 1457 38.1707
43.8425 1447 38.0395
43.9595 1426 37.7624
44.0765 1374 37.0675
44.1935 1345 36.6742
44.3106 1310 36.1939
44.4277 1218 34.8999
44.5448 1211 34.7994
44.6619 1290 35.9166
44.7791 1380 37.1484
44.8963 1476 38.4187
45.0136 1524 39.0384
45.1308 1575 39.6863
45.2481 1539 39.2301
45.3654 1540 39.2428
45.4827 1552 39.3954
45.6001 1473 38.3797
45.7174 1442 37.9737
45.8348 1462 38.2361
45.9522 1299 36.0416
46.0697 1275 35.7071
46.1871 1304 36.1109
46.3046 1293 35.9583
46.422 1314 36.2491
46.5395 1402 37.4433
46.657 1434 37.8682
46.7745 1451 38.092
46.892 1589 39.8623
47.0096 1467 38.3014
47.1271 1552 39.3954
47.2446 1582 39.7744
47.3622 1551 39.3827
47.4797 1526 39.064
47.5973 1419 37.6696
47.7149 1368 36.9865
47.8324 1385 37.2156
47.95 1354 36.7967
48.0675 1378 37.1214
48.1851 1258 35.4683
48.3027 1350 36.7423
48.4202 1438 37.921
48.5378 1499 38.7169
48.6554 1561 39.5095
48.7729 1486 38.5487
48.8904 1626 40.3237
49.008 1549 39.3573
49.1255 1632 40.398
49.243 1528 39.0896
49.3605 1397 37.3765
49.478 1249 35.3412
49.5955 1242 35.242
49.713 1145 33.8378
49.8304 1231 35.0856
49.9479 1304 36.1109
50.0653 1344 36.6606
50.1827 1438 37.921
50.3001 1448 38.0526
50.4175 1530 39.1152
50.5348 1633 40.4104
50.6521 1566 39.5727
50.7694 1586 39.8246
50.8867 1547 39.3319
51.004 1642 40.5216
51.1212 1573 39.6611
51.2384 1557 39.4588
51.3556 1589 39.8623
51.4727 1446 38.0263
51.5899 1452 38.1051
51.707 1401 37.4299
51.824 1412 37.5766
51.9411 1616 40.1995
52.0581 1773 42.107
52.175 1809 42.5323
52.2919 1853 43.0465
52.4088 1905 43.6463
52.5257 1881 43.3705
52.6425 1954 44.2041
52.7593 2045 45.2217
52.876 1951 44.1701
52.9927 1765 42.0119
53.1094 1683 41.0244
53.226 1544 39.2938
53.3426 1551 39.3827
53.4591 1572 39.6485
53.5756 1683 41.0244
53.692 1630 40.3733
53.8084 1558 39.4715
53.9248 1521 39
54.0411 1482 38.4968
54.1573 1371 37.027
54.2735 0 1
54.3896 0 1
54.5057 0 1
54.6217 0 1
54.7377 0 1
54.8537 0 1
54.9695 0 1
55.0853 0 1
55.2011 0 1
55.3168 0 1
55.4324 0 1
57.824 0 1
57.9396 0 1
58.0553 0 1
58.1711 0 1
58.2869 0 1
58.4028 0 1
58.5187 0 1
58.6347 0 1
58.7508 0 1
58.8669 0 1
58.983 1205 34.7131
59.0992 1406 37.4967
59.2155 1452 38.1051
59.3318 1642 40.5216
59.4482 1641 40.5093
59.5646 1690 41.1096
59.681 1767 42.0357
59.7975 1827 42.7434
59.9141 1756 41.9047
60.0306 1714 41.4005
60.1473 1725 41.5331
60.2639 1684 41.0366
60.3807 1636 40.4475
60.4974 1646 40.5709
60.6142 1754 41.8808
60.731 1797 42.391
60.8479 1880 43.359
60.9648 1948 44.1362
61.0818 1965 44.3283
61.1987 1996 44.6766
61.3158 1910 43.7035
61.4328 1851 43.0232
61.5499 1791 42.3202
61.667 1672 40.8901
61.7841 1572 39.6485
61.9013 1532 39.1408
62.0185 1561 39.5095
62.1357 1519 38.9744
62.253 1621 40.2616
62.3702 1753 41.8688
62.4875 1879 43.3474
62.6049 1861 43.1393
62.7222 1842 42.9185
62.8396 1914 43.7493
62.9569 1947 44.1248
63.0743 1853 43.0465
63.1918 1849 43
63.3092 1868 43.2204
63.4267 1815 42.6028
63.5441 1763 41.9881
63.6616 1763 41.9881
63.7791 1639 40.4846
63.8966 1543 39.281
64.0142 1556 39.4462
64.1317 1682 41.0122
64.2492 1749 41.821
64.3668 1892 43.4971
64.4843 1920 43.8178
64.6019 1889 43.4626
64.7195 1905 43.6463
64.837 1915 43.7607
64.9546 1847 42.9767
65.0722 1747 41.7971
65.1898 1634 40.4228
65.3074 1546 39.3192
65.4249 1457 38.1707
65.5425 1491 38.6135
65.6601 1442 37.9737
65.7777 1562 39.5221
65.8952 1666 40.8167
66.0128 1665 40.8044
66.1304 1820 42.6615
66.2479 1835 42.8369
66.3655 1818 42.638
66.483 1827 42.7434
66.6005 1907 43.6692
66.718 1853 43.0465
66.8355 1771 42.0833
66.953 1897 43.5546
67.0705 1750 41.833
67.1879 1734 41.6413
67.3054 1669 40.8534
67.4228 1508 38.833
67.5402 1539 39.2301
67.6576 1495 38.6652
67.7749 1607 40.0874
67.8923 1658 40.7185
68.0096 1767 42.0357
68.1269 1895 43.5316
68.2442 1905 43.6463
68.3614 1825 42.72
68.4787 1833 42.8135
68.5958 1798 42.4028
68.713 1794 42.3556
68.8302 1631 40.3856
68.9473 1500 38.7298
69.0643 1456 38.1576
69.1814 1370 37.0135
69.2984 1343 36.647
69.4154 1475 38.4057
69.5323 1564 39.5474
69.6492 1639 40.4846
69.7661 1699 41.2189
69.8829 1765 42.0119
69.9997 1739 41.7013
70.1165 1621 40.2616
70.2332 1611 40.1373
70.3499 1625 40.3113
70.4665 1518 38.9615
70.5831 1380 37.1484
70.6996 1317 36.2905
70.8161 1303 36.0971
70.9326 1165 34.1321
71.049 977 31.257
71.1653 802 28.3196
71.2817 763 27.6225
71.3979 755 27.4773
71.5141 701 26.4764
71.6303 646 25.4165
71.7464 654 25.5734
71.8624 0 1
71.9784 0 1
72.0944 0 1
72.2102 0 1
72.3261 0 1
72.4418 0 1
72.5575 0 1
72.6732 0 1
75.1054 0 1
75.2209 0 1
75.3365 0 1
75.4521 0 1
75.5678 0 1
75.6835 0 1
75.7993 0 1
75.9151 0 1
76.031 0 1
76.147 1044 32.311
76.263 1151 33.9264
76.3791 1114 33.3766
76.4952 1148 33.8821
76.6113 1202 34.6699
76.7276 1228 35.0428
76.8438 1470 38.3406
76.9601 1512 38.8844
77.0765 1544 39.2938
77.1929 1571 39.6358
77.3093 1611 40.1373
77.4258 1598 39.975
77.5423 1510 38.8587
77.6589 1535 39.1791
77.7755 1419 37.6696
77.8921 1285 35.8469
78.0088 1238 35.1852
78.1256 1054 32.4654
78.2423 1127 33.5708
78.3591 1203 34.6843
78.4759 1289 35.9026
78.5928 1397 37.3765
78.7097 1450 38.0789
78.8266 1421 37.6962
78.9436 1562 39.5221
79.0606 1536 39.1918
79.1776 1562 39.5221
79.2946 1559 39.4842
79.4117 1623 40.2865
79.5288 1605 40.0625
79.6459 1619 40.2368
79.7631 1641 40.5093
79.8802 1518 38.9615
79.9974 1431 37.8286
80.1147 1296 36
80.2319 1280 35.7771
80.3491 1333 36.5103
80.4664 1431 37.8286
80.5837 1588 39.8497
80.701 1680 40.9878
80.8183 1653 40.6571
80.9357 1590 39.8748
81.053 1648 40.5956
81.1704 1634 40.4228
81.2877 1654 40.6694
81.4051 1643 40.5339
81.5225 1479 38.4578
81.6399 1323 36.3731
81.7573 1216 34.8712
81.8747 1158 34.0294
81.9922 1154 33.9706
82.1096 1296 36
82.227 1348 36.7151
82.3444 1485 38.5357
82.4619 1514 38.9102
82.5793 1641 40.5093
82.6967 1536 39.1918
82.8142 1638 40.4722
82.9316 1715 41.4126
83.049 1712 41.3763
83.1664 1715 41.4126
83.2838 1654 40.6694
83.4012 1600 40
83.5186 1528 39.0896
83.636 1482 38.4968
83.7534 1383 37.1887
83.8708 1294 35.9722
83.9881 1302 36.0832
84.1055 1380 37.1484
84.2228 1452 38.1051
84.3401 1559 39.4842
84.4575 1603 40.0375
84.5747 1737 41.6773
84.692 1627 40.3361
84.8093 1707 41.3159
84.9265 1572 39.6485
85.0437 1532 39.1408
85.1609 1408 37.5233
85.2781 1284 35.8329
85.3952 1230 35.0714
85.5123 1159 34.0441
85.6294 1178 34.322
85.7465 1313 36.2353
85.8636 1456 38.1576
85.9806 1507 38.8201
86.0976 1587 39.8372
86.2145 1652 40.6448
86.3315 1702 41.2553
86.4484 1694 41.1582
86.5652 1628 40.3485
86.682 1663 40.7799
86.7988 1673 40.9023
86.9156 1641 40.5093
87.0323 1596 39.95
87.149 1575 39.6863
87.2657 1463 38.2492
87.3823 1277 35.7351
87.4988 1193 34.5398
87.6154 1193 34.5398
87.7318 1191 34.5109
87.8483 1284 35.8329
87.9647 1322 36.3593
88.081 1315 36.2629
88.1973 1319 36.318
88.3136 1243 35.2562
88.4298 1200 34.641
88.546 1100 33.1662
88.6621 957 30.9354
88.7781 755 27.4773
88.8942 0 1
89.0101 0 1
89.126 0 1
89.2419 0 1
89.3577 0 1
89.4734 0 1
89.5891 0 1
89.7047 0 1
89.8203 0 1
89.9358 0 1
92.3269 0 1
92.4424 0 1
92.558 0 1
92.6736 0 1
92.7893 0 1
92.905 0 1
93.0208 0 1
93.1366 0 1
93.2525 0 1
93.3685 0 1
93.4845 0 1
93.6005 1267 35.5949
93.7167 1372 37.0405
93.8328 1426 37.7624
93.949 1465 38.2753
94.0653 1529 39.1024
94.1816 1406 37.4967
94.2979 1450 38.0789
94.4143 1336 36.5513
94.5307 1229 35.0571
94.6472 1187 34.4529
94.7637 1220 34.9285
94.8803 1326 36.4143
94.9969 1402 37.4433
95.1135 1542 39.2683
95.2302 1628 40.3485
95.3469 1624 40.2989
95.4637 1640 40.4969
95.5805 1699 41.2189
95.6973 1682 41.0122
95.8142 1752 41.8569
95.9311 1705 41.2916
96.048 1637 40.4599
96.1649 1671 40.8779
96.2819 1583 39.7869
96.3989 1541 39.2556
96.516 1563 39.5348
96.633 1349 36.7287
96.7501 1319 36.318
96.8673 1434 37.8682
96.9844 1435 37.8814
97.1016 1617 40.2119
97.2188 1643 40.5339
97.336 1811 42.5558
97.4532 1730 41.5933
97.5704 1723 41.509
97.6877 1773 42.107
97.805 1677 40.9512
97.9223 1528 39.0896
98.0396 1384 37.2022
98.1569 1294 35.9722
98.2743 1227 35.0286
98.3916 1261 35.5106
98.509 1244 35.2704
98.6264 1457 38.1707
98.7438 1574 39.6737
98.8612 1636 40.4475
98.9786 1602 40.025
99.096 1731 41.6053
99.2134 1704 41.2795
99.3308 1820 42.6615
99.4482 1816 42.6146
99.5656 1788 42.2847
99.6831 1778 42.1663
99.8005 1728 41.5692
99.9179 1742 41.7373
100.035 1692 41.1339
100.153 1535 39.1791
100.27 1520 38.9872
100.388 1528 39.0896
100.505 1462 38.2361
100.622 1586 39.8246
100.74 1834 42.8252
100.857 1829 42.7668
100.975 1819 42.6497
101.092 1859 43.1161
101.209 1822 42.6849
101.327 1846 42.9651
101.444 1693 41.1461
101.561 1530 39.1152
101.679 1459 38.1969
101.796 1333 36.5103
101.913 1270 35.6371
102.03 1331 36.4829
102.148 1482 38.4968
102.265 1593 39.9124
102.382 1755 41.8927
102.499 1741 41.7253
102.616 1775 42.1307
102.733 1767 42.0357
102.851 1877 43.3244
102.968 1910 43.7035
103.085 1913 43.7379
103.202 1917 43.7836
103.319 1858 43.1045
103.436 1813 42.5793
103.552 1794 42.3556
103.669 1677 40.9512
103.786 1588 39.8497
103.903 1545 39.3065
104.02 1726 41.5452
104.137 1766 42.0238
104.253 1870 43.2435
104.37 2041 45.1774
104.487 1962 44.2945
104.603 2034 45.0999
104.72 1935 43.9886
104.836 1842 42.9185
104.953 1728 41.5692
105.069 1543 39.281
105.186 1356 36.8239
105.302 1243 35.2562
105.418 1191 34.5109
105.535 1142 33.7935
105.651 1240 35.2136
105.767 1198 34.6121
105.883 1205 34.7131
105.999 1159 34.0441
106.115 0 1
106.231 0 1
106.347 0 1
106.463 0 1
106.579 0 1
106.694 0 1
106.81 0 1
106.926 0 1
107.041 0 1
107.157 0 1
109.576 0 1
109.692 0 1
109.807 0 1
109.923 0 1
110.039 0 1
110.155 0 1
110.27 0 1
110.386 0 1
110.502 0 1
110.618 797 28.2312
110.735 987 31.4166
110.851 1201 34.6554
110.967 1354 36.7967
111.083 1517 38.9487
111.199 1603 40.0375
111.316 1648 40.5956
111.432 1718 41.4488
111.549 1786 42.2611
111.665 1736 41.6653
111.782 1726 41.5452
111.898 1820 42.6615
112.015 1696 41.1825
112.132 1640 40.4969
112.248 1525 39.0512
112.365 1500 38.7298
112.482 1460 38.2099
112.599 1660 40.7431
112.716 1707 41.3159
112.832 1727 41.5572
112.949 1809 42.5323
113.066 1681 41
113.183 1804 42.4735
113.3 1812 42.5676
113.417 1725 41.5331
113.534 1655 40.6817
113.652 1477 38.4318
113.769 1323 36.3731
113.886 1301 36.0694
114.003 1244 35.2704
114.12 1357 36.8375
114.238 1491 38.6135
114.355 1580 39.7492
114.472 1608 40.0999
114.589 1756 41.9047
114.707 1781 42.2019
114.824 1761 41.9643
114.942 1855 43.0697
115.059 1780 42.19
115.176 1891 43.4856
115.294 1802 42.45
115.411 1769 42.0595
115.529 1727 41.5572
115.646 1724 41.5211
115.764 1641 40.5093
115.881 1562 39.5221
115.999 1510 38.8587
116.116 1552 39.3954
116.234 1617 40.2119
116.351 1710 41.3521
116.469 1822 42.6849
116.586 1755 41.8927
116.704 1870 43.2435
116.821 1869 43.2319
116.939 1766 42.0238
117.056 1726 41.5452
117.174 1642 40.5216
117.291 1381 37.1618
117.409 1321 36.3456
117.526 1248 35.327
117.644 1319 36.318
117.761 1361 36.8917
117.879 1527 39.0768
117.996 1574 39.6737
118.114 1680 40.9878
118.231 1692 41.1339
118.349 1760 41.9524
118.466 1796 42.3792
118.584 1759 41.9404
118.701 1793 42.3438
118.819 1775 42.1307
118.936 1761 41.9643
119.053 1746 41.7852
119.171 1619 40.2368
119.288 1602 40.025
119.405 1512 38.8844
119.523 1440 37.9473
119.64 1419 37.6696
119.757 1479 38.4578
119.875 1531 39.128
119.992 1583 39.7869
120.109 1708 41.328
120.226 1665 40.8044
120.343 1727 41.5572
120.46 1685 41.0488
120.578 1619 40.2368
120.695 1606 40.0749
120.812 1596 39.95
120.929 1404 37.47
121.046 1256 35.4401
121.163 1210 34.7851
121.279 1226 35.0143
121.396 1191 34.5109
121.513 1249 35.3412
121.63 1357 36.8375
121.747 1289 35.9026
121.863 1343 36.647
121.98 1318 36.3043
122.097 1294 35.9722
122.213 1389 37.2693
122.33 1292 35.9444
122.446 1355 36.8103
122.563 1130 33.6155
122.679 1144 33.8231
122.795 1032 32.1248
122.912 972 31.1769
123.028 818 28.6007
123.144 772 27.7849
123.26 672 25.923
123.377 0 1
123.493 0 1
123.609 0 1
123.725 0 1
123.84 0 1
123.956 0 1
124.072 0 1
124.188 0 1
124.303 0 1
124.419 0 1
126.852 0 1
126.968 0 1
127.083 0 1
127.199 0 1
127.315 0 1
127.431 0 1
127.547 0 1
127.663 0 1
127.779 0 1
127.895 0 1
128.011 0 1
128.127 0 1
128.243 0 1
128.359 1695 41.1704
128.476 1645 40.5586
128.592 1577 39.7115
128.708 1595 39.9375
128.825 1582 39.7744
128.941 1703 41.2674
129.058 1765 42.0119
129.174 1808 42.5206
129.291 1789 42.2966
129.408 1900 43.589
129.524 1859 43.1161
129.641 1877 43.3244
129.758 1807 42.5088
129.875 1585 39.8121
129.992 1523 39.0256
130.108 1478 38.4448
130.225 1335 36.5377
130.342 1277 35.7351
130.459 1394 37.3363
130.576 1532 39.1408
130.693 1639 40.4846
130.81 1718 41.4488
130.928 1657 40.7063
131.045 1797 42.391
131.162 1879 43.3474
131.279 1851 43.0232
131.396 1854 43.0581
131.513 1877 43.3244
131.631 1835 42.8369
131.748 1809 42.5323
131.865 1676 40.939
131.983 1642 40.5216
132.1 1691 41.1218
132.217 1553 39.4081
132.335 1621 40.2616
132.452 1632 40.398
132.57 1833 42.8135
132.687 1803 42.4617
132.804 1890 43.4741
132.922 1896 43.5431
133.039 1957 44.238
133.157 1907 43.6692
133.274 1879 43.3474
133.392 1675 40.9268
133.509 1568 39.598
133.627 1511 38.8716
133.744 1432 37.8418
133.862 1303 36.0971
133.979 1383 37.1887
134.097 1548 39.3446
134.214 1638 40.4722
134.332 1676 40.939
134.449 1708 41.328
134.567 1730 41.5933
134.684 1799 42.4146
134.802 1750 41.833
134.919 1829 42.7668
135.037 1838 42.8719
135.154 1804 42.4735
135.272 1836 42.8486
135.389 1717 41.4367
135.507 1665 40.8044
135.624 1669 40.8534
135.742 1638 40.4722
135.859 1603 40.0375
135.977 1619 40.2368
136.094 1707 41.3159
136.211 1772 42.0951
136.329 1860 43.1277
136.446 1823 42.6966
136.564 1806 42.4971
136.681 1924 43.8634
136.798 1902 43.6119
136.915 1858 43.1045
137.033 1703 41.2674
137.15 1647 40.5832
137.267 1562 39.5221
137.384 1455 38.1445
137.502 1405 37.4833
137.619 1395 37.3497
137.736 1512 38.8844
137.853 1571 39.6358
137.97 1690 41.1096
138.087 1701 41.2432
138.204 1737 41.6773
138.321 1760 41.9524
138.438 1792 42.332
138.555 1805 42.4853
138.672 1829 42.7668
138.788 1766 42.0238
138.905 1636 40.4475
139.022 1563 39.5348
139.139 1588 39.8497
139.255 1407 37.51
139.372 1358 36.8511
139.488 1208 34.7563
139.605 1241 35.2278
139.721 1153 33.9559
139.838 1246 35.2987
139.954 1196 34.5832
140.071 1169 34.1906
140.187 1076 32.8024
140.303 1026 32.0312
140.419 939 30.6431
140.535 936 30.5941
140.652 844 29.0517
140.768 0 1
140.884 0 1
141 0 1
141.115 0 1
141.231 0 1
141.347 0 1
141.463 0 1
141.578 0 1
141.694 0 1
144.104 0 1
144.219 0 1
144.335 0 1
144.45 0 1
144.566 0 1
144.682 0 1
144.798 0 1
144.914 0 1
145.03 0 1
145.146 1328 36.4417
145.262 1387 37.2424
145.378 1445 38.0132
145.494 1430 37.8153
145.61 1538 39.2173
145.726 1459 38.1969
145.842 1331 36.4829
145.959 1294 35.9722
146.075 1228 35.0428
146.192 1138 33.7343
146.308 1031 32.1092
146.425 1180 34.3511
146.541 1267 35.5949
146.658 1250 35.3553
146.774 1314 36.2491
146.891 1368 36.9865
147.008 1432 37.8418
147.125 1469 38.3275
147.241 1434 37.8682
147.358 1494 38.6523
147.475 1432 37.8418
147.592 1416 37.6298
147.709 1365 36.9459
147.826 1459 38.1969
147.943 1314 36.2491
148.06 1294 35.9722
148.177 1216 34.8712
148.294 1287 35.8748
148.411 1306 36.1386
148.528 1358 36.8511
148.645 1352 36.7696
148.762 1438 37.921
148.88 1442 37.9737
148.997 1501 38.7427
149.114 1395 37.3497
149.231 1459 38.1969
149.349 1418 37.6563
149.466 1348 36.7151
149.583 1321 36.3456
149.701 1244 35.2704
149.818 1113 33.3617
149.935 1126 33.5559
150.053 1096 33.1059
150.17 1149 33.8969
150.287 1280 35.7771
150.405 1303 36.0971
150.522 1310 36.1939
150.64 1346 36.6879
150.757 1290 35.9166
150.875 1367 36.973
150.992 1403 37.4566
151.11 1390 37.2827
151.227 1322 36.3593
151.344 1320 36.3318
151.462 1318 36.3043
151.579 1252 35.3836
151.697 1241 35.2278
151.814 1320 36.3318
151.932 1243 35.2562
152.049 1318 36.3043
152.167 1306 36.1386
152.284 1331 36.4829
152.402 1268 35.609
152.519 1417 37.6431
152.636 1384 37.2022
152.754 1415 37.6165
152.871 1417 37.6431
152.989 1307 36.1525
153.106 1248 35.327
153.223 1169 34.1906
153.341 1148 33.8821
153.458 1085 32.9393
153.575 1099 33.1512
153.693 1111 33.3317
153.81 1134 33.6749
153.927 1176 34.2929
154.044 1212 34.8138
154.162 1233 35.1141
154.279 1253 35.3977
154.396 1364 36.9324
154.513 1308 36.1663
154.63 1359 36.8646
154.747 1344 36.6606
154.864 1260 35.4965
154.981 1190 34.4964
155.098 1242 35.242
155.215 1253 35.3977
155.332 1127 33.5708
155.449 1166 34.1467
155.566 1165 34.1321
155.683 1211 34.7994
155.8 1156 34
155.917 1182 34.3802
156.033 1175 34.2783
156.15 0 1
156.267 0 1
156.383 0 1
156.5 0 1
156.617 0 1
156.733 0 1
156.85 0 1
156.966 0 1
157.082 0 1
157.199 0 1
157.315 0 1
157.431 0 1
157.547 0 1
157.664 0 1
157.78 0 1
157.896 0 1
158.012 0 1
158.128 0 1
158.244 0 1
158.359 0 1
158.475 0 1
158.591 0 1
158.706 0 1
