
6.15755 0 1
6.2731 0 1
6.3887 0 1
6.50437 0 1
6.62009 0 1
6.73587 0 1
6.8517 0 1
6.96759 0 1
7.08353 0 1
7.19952 0 1
7.31557 0 1
7.43166 0 1
7.54781 0 1
7.664 0 1
7.78024 0 1
7.89653 0 1
8.01286 0 1
8.12924 0 1
8.24567 0 1
8.36213 0 1
8.47864 0 1
8.59519 0 1
8.71178 0 1
8.82841 0 1
8.94508 0 1
9.06179 0 1
9.17853 0 1
9.29531 0 1
9.41212 0 1
9.52897 0 1
9.64584 0 1
9.76276 0 1
9.8797 0 1
9.99667 0 1
10.1137 0 1
10.2307 0 1
10.3478 0 1
10.4648 0 1
10.5819 0 1
10.6991 0 1
10.8162 0 1
10.9334 0 1
11.0506 0 1
11.1678 0 1
11.285 0 1
11.4023 0 1
11.5196 0 1
11.6369 0 1
11.7542 0 1
11.8715 0 1
11.9888 0 1
12.1062 0 1
12.2235 0 1
12.3409 0 1
12.4582 0 1
12.5756 0 1
12.693 0 1
12.8104 0 1
12.9278 0 1
13.0452 0 1
13.1626 0 1
13.28 0 1
13.3974 0 1
13.5149 0 1
13.6323 0 1
13.7497 0 1
13.8671 0 1
13.9845 0 1
14.1019 0 1
14.2193 0 1
14.3367 0 1
14.4541 0 1
14.5714 0 1
14.6888 0 1
14.8062 0 1
14.9235 0 1
15.0408 580 24.0832
15.1581 625 25
15.2755 605 24.5967
15.3927 660 25.6905
15.51 642 25.3377
15.6273 603 24.5561
15.7445 626 25.02
15.8617 632 25.1396
15.9789 603 24.5561
16.0961 611 24.7184
16.2132 557 23.6008
16.3304 610 24.6982
16.4475 547 23.388
16.5646 592 24.3311
16.6816 635 25.1992
16.7986 672 25.923
16.9156 686 26.1916
17.0326 645 25.3969
17.1496 704 26.533
17.2665 677 26.0192
17.3833 623 24.96
17.5002 631 25.1197
17.617 626 25.02
17.7338 600 24.4949
17.8505 500 22.3607
17.9672 556 23.5797
18.0839 576 24
18.2005 628 25.0599
18.3171 619 24.8797
18.4337 633 25.1595
18.5502 644 25.3772
18.6666 677 26.0192
18.7831 623 24.96
18.8994 639 25.2784
19.0158 630 25.0998
19.1321 594 24.3721
19.2483 596 24.4131
19.3645 517 22.7376
19.4806 533 23.0868
19.5967 498 22.3159
19.7128 405 20.1246
19.8288 388 19.6977
19.9447 369 19.2094
20.0606 0 1
20.1764 0 1
20.2922 0 1
20.4079 0 1
20.5236 0 1
20.6392 0 1
20.7548 0 1
20.8702 0 1
23.3078 0 1
23.4233 0 1
23.539 0 1
23.6547 0 1
23.7704 0 1
23.8862 0 1
24.0021 0 1
24.118 0 1
24.234 0 1
24.35 0 1
24.4661 218 14.7648
24.5822 300 17.3205
24.6984 301 17.3494
24.8146 343 18.5203
24.9309 358 18.9209
25.0472 371 19.2614
25.1636 375 19.3649
25.28 466 21.587
25.3965 483 21.9773
25.513 533 23.0868
25.6296 552 23.4947
25.7462 570 23.8747
25.8628 573 23.9374
25.9795 559 23.6432
26.0962 530 23.0217
26.213 586 24.2074
26.3298 565 23.7697
26.4466 520 22.8035
26.5635 455 21.3307
26.6804 453 21.2838
26.7973 493 22.2036
26.9143 534 23.1084
27.0313 546 23.3666
27.1483 554 23.5372
27.2653 542 23.2809
27.3824 548 23.4094
27.4996 522 22.8473
27.6167 526 22.9347
27.7339 514 22.6716
27.8511 534 23.1084
27.9683 542 23.2809
28.0855 494 22.2261
28.2028 467 21.6102
28.3201 457 21.3776
28.4374 438 20.9284
28.5547 464 21.5407
28.6721 469 21.6564
28.7894 489 22.1133
28.9068 486 22.0454
29.0242 507 22.5167
29.1416 490 22.1359
29.259 552 23.4947
29.3764 526 22.9347
29.4939 575 23.9792
29.6113 518 22.7596
29.7288 493 22.2036
29.8463 470 21.6795
29.9638 501 22.383
30.0812 431 20.7605
30.1987 442 21.0238
30.3162 461 21.4709
30.4337 489 22.1133
30.5512 457 21.3776
30.6687 528 22.9783
30.7862 505 22.4722
30.9037 483 21.9773
31.0212 486 22.0454
31.1387 455 21.3307
31.2562 515 22.6936
31.3737 445 21.095
31.4912 469 21.6564
31.6087 392 19.799
31.7262 459 21.4243
31.8436 417 20.4206
31.9611 432 20.7846
32.0785 415 20.3715
32.1959 414 20.347
32.3134 457 21.3776
32.4308 432 20.7846
32.5482 483 21.9773
32.6655 503 22.4277
32.7829 502 22.4054
32.9002 475 21.7945
33.0176 523 22.8692
33.1349 482 21.9545
33.2522 488 22.0907
33.3694 483 21.9773
33.4867 450 21.2132
33.6039 402 20.0499
33.7211 396 19.8997
33.8383 415 20.3715
33.9554 421 20.5183
34.0725 432 20.7846
34.1896 424 20.5913
34.3067 438 20.9284
34.4237 449 21.1896
34.5407 443 21.0476
34.6577 448 21.166
34.7746 493 22.2036
34.8915 431 20.7605
35.0084 419 20.4695
35.1252 450 21.2132
35.242 411 20.2731
35.3587 413 20.3224
35.4755 399 19.975
35.5921 403 20.0749
35.7088 369 19.2094
35.8254 364 19.0788
35.9419 371 19.2614
36.0584 373 19.3132
36.1749 440 20.9762
36.2913 450 21.2132
36.4077 378 19.4422
36.524 425 20.6155
36.6403 395 19.8746
36.7565 391 19.7737
36.8727 382 19.5448
36.9889 352 18.7617
37.1049 313 17.6918
37.221 0 1
37.3369 0 1
37.4529 0 1
37.5687 0 1
37.6845 0 1
37.8003 0 1
37.916 0 1
38.0316 0 1
38.1472 0 1
40.5851 0 1
40.7008 0 1
40.8164 0 1
40.9322 0 1
41.048 0 1
41.1639 0 1
41.2798 0 1
41.3958 0 1
41.5118 0 1
41.6279 0 1
41.744 229 15.1327
41.8602 249 15.7797
41.9765 294 17.1464
42.0928 274 16.5529
42.2091 263 16.2173
42.3255 285 16.8819
42.4419 250 15.8114
42.5584 278 16.6733
42.675 254 15.9374
42.7915 282 16.7929
42.9081 320 17.8885
43.0248 350 18.7083
43.1415 345 18.5742
43.2582 362 19.0263
43.375 356 18.868
43.4918 379 19.4679
43.6087 371 19.2614
43.7256 372 19.2873
43.8425 376 19.3907
43.9595 345 18.5742
44.0765 351 18.735
44.1935 360 18.9737
44.3106 342 18.4932
44.4277 298 17.2627
44.5448 294 17.1464
44.6619 294 17.1464
44.7791 309 17.5784
44.8963 310 17.6068
45.0136 372 19.2873
45.1308 393 19.8242
45.2481 376 19.3907
45.3654 384 19.5959
45.4827 382 19.5448
45.6001 374 19.3391
45.7174 426 20.6398
45.8348 369 19.2094
45.9522 312 17.6635
46.0697 353 18.7883
46.1871 297 17.2337
46.3046 280 16.7332
46.422 356 18.868
46.5395 326 18.0555
46.657 350 18.7083
46.7745 372 19.2873
46.892 375 19.3649
47.0096 369 19.2094
47.1271 386 19.6469
47.2446 381 19.5192
47.3622 396 19.8997
47.4797 371 19.2614
47.5973 381 19.5192
47.7149 365 19.105
47.8324 347 18.6279
47.95 356 18.868
48.0675 337 18.3576
48.1851 327 18.0831
48.3027 331 18.1934
48.4202 344 18.5472
48.5378 323 17.9722
48.6554 360 18.9737
48.7729 379 19.4679
48.8904 414 20.347
49.008 418 20.445
49.1255 390 19.7484
49.243 353 18.7883
49.3605 307 17.5214
49.478 346 18.6011
49.5955 286 16.9115
49.713 311 17.6352
49.8304 287 16.9411
49.9479 317 17.8045
50.0653 296 17.2047
50.1827 365 19.105
50.3001 331 18.1934
50.4175 345 18.5742
50.5348 373 19.3132
50.6521 385 19.6214
50.7694 397 19.9249
50.8867 365 19.105
51.004 366 19.1311
51.1212 378 19.4422
51.2384 390 19.7484
51.3556 340 18.4391
51.4727 335 18.303
51.5899 316 17.7764
51.707 283 16.8226
51.824 307 17.5214
51.9411 308 17.5499
52.0581 315 17.7482
52.175 372 19.2873
52.2919 383 19.5704
52.4088 390 19.7484
52.5257 407 20.1742
52.6425 398 19.9499
52.7593 424 20.5913
52.876 377 19.4165
52.9927 354 18.8149
53.1094 355 18.8414
53.226 340 18.4391
53.3426 290 17.0294
53.4591 325 18.0278
53.5756 299 17.2916
53.692 301 17.3494
53.8084 310 17.6068
53.9248 316 17.7764
54.0411 275 16.5831
54.1573 265 16.2788
54.2735 0 1
54.3896 0 1
54.5057 0 1
54.6217 0 1
54.7377 0 1
54.8537 0 1
54.9695 0 1
55.0853 0 1
55.2011 0 1
55.3168 0 1
55.4324 0 1
57.824 0 1
57.9396 0 1
58.0553 0 1
58.1711 0 1
58.2869 0 1
58.4028 0 1
58.5187 0 1
58.6347 0 1
58.7508 0 1
58.8669 0 1
58.983 248 15.748
59.0992 280 16.7332
59.2155 335 18.303
59.3318 347 18.6279
59.4482 389 19.7231
59.5646 415 20.3715
59.681 425 20.6155
59.7975 447 21.1424
59.9141 450 21.2132
60.0306 440 20.9762
60.1473 425 20.6155
60.2639 444 21.0713
60.3807 421 20.5183
60.4974 377 19.4165
60.6142 384 19.5959
60.731 392 19.799
60.8479 452 21.2603
60.9648 472 21.7256
61.0818 489 22.1133
61.1987 473 21.7486
61.3158 499 22.3383
61.4328 464 21.5407
61.5499 432 20.7846
61.667 436 20.8806
61.7841 435 20.8567
61.9013 383 19.5704
62.0185 356 18.868
62.1357 397 19.9249
62.253 413 20.3224
62.3702 428 20.6882
62.4875 456 21.3542
62.6049 464 21.5407
62.7222 510 22.5832
62.8396 455 21.3307
62.9569 463 21.5174
63.0743 470 21.6795
63.1918 456 21.3542
63.3092 447 21.1424
63.4267 464 21.5407
63.5441 414 20.347
63.6616 425 20.6155
63.7791 407 20.1742
63.8966 379 19.4679
64.0142 372 19.2873
64.1317 355 18.8414
64.2492 378 19.4422
64.3668 402 20.0499
64.4843 436 20.8806
64.6019 464 21.5407
64.7195 443 21.0476
64.837 465 21.5639
64.9546 457 21.3776
65.0722 437 20.9045
65.1898 429 20.7123
65.3074 390 19.7484
65.4249 413 20.3224
65.5425 351 18.735
65.6601 362 19.0263
65.7777 386 19.6469
65.8952 405 20.1246
66.0128 446 21.1187
66.1304 446 21.1187
66.2479 490 22.1359
66.3655 467 21.6102
66.483 451 21.2368
66.6005 506 22.4944
66.718 489 22.1133
66.8355 503 22.4277
66.953 428 20.6882
67.0705 436 20.8806
67.1879 428 20.6882
67.3054 432 20.7846
67.4228 439 20.9523
67.5402 417 20.4206
67.6576 370 19.2354
67.7749 356 18.868
67.8923 381 19.5192
68.0096 411 20.2731
68.1269 459 21.4243
68.2442 533 23.0868
68.3614 531 23.0434
68.4787 620 24.8998
68.5958 593 24.3516
68.713 595 24.3926
68.8302 563 23.7276
68.9473 528 22.9783
69.0643 554 23.5372
69.1814 533 23.0868
69.2984 577 24.0208
69.4154 594 24.3721
69.5323 613 24.7588
69.6492 647 25.4362
69.7661 699 26.4386
69.8829 692 26.3059
69.9997 737 27.1477
70.1165 716 26.7582
70.2332 736 27.1293
70.3499 697 26.4008
70.4665 710 26.6458
70.5831 672 25.923
70.6996 612 24.7386
70.8161 595 24.3926
70.9326 584 24.1661
71.049 536 23.1517
71.1653 424 20.5913
71.2817 323 17.9722
71.3979 267 16.3401
71.5141 213 14.5945
71.6303 243 15.5885
71.7464 180 13.4164
71.8624 0 1
71.9784 0 1
72.0944 0 1
72.2102 0 1
72.3261 0 1
72.4418 0 1
72.5575 0 1
72.6732 0 1
75.1054 0 1
75.2209 0 1
75.3365 0 1
75.4521 0 1
75.5678 0 1
75.6835 0 1
75.7993 0 1
75.9151 0 1
76.031 0 1
76.147 354 18.8149
76.263 397 19.9249
76.3791 401 20.025
76.4952 392 19.799
76.6113 348 18.6548
76.7276 347 18.6279
76.8438 357 18.8944
76.9601 425 20.6155
77.0765 439 20.9523
77.1929 470 21.6795
77.3093 528 22.9783
77.4258 558 23.622
77.5423 514 22.6716
77.6589 567 23.8118
77.7755 522 22.8473
77.8921 485 22.0227
78.0088 510 22.5832
78.1256 494 22.2261
78.2423 456 21.3542
78.3591 459 21.4243
78.4759 487 22.0681
78.5928 504 22.4499
78.7097 645 25.3969
78.8266 634 25.1794
78.9436 704 26.533
79.0606 657 25.632
79.1776 721 26.8514
79.2946 789 28.0891
79.4117 747 27.3313
79.5288 797 28.2312
79.6459 771 27.7669
79.7631 829 28.7924
79.8802 826 28.7402
79.9974 794 28.178
80.1147 762 27.6043
80.2319 676 26
80.3491 659 25.671
80.4664 760 27.5681
80.5837 796 28.2135
80.701 779 27.9106
80.8183 915 30.249
80.9357 963 31.0322
81.053 956 30.9192
81.1704 917 30.282
81.2877 957 30.9354
81.4051 907 30.1164
81.5225 927 30.4467
81.6399 930 30.4959
81.7573 786 28.0357
81.8747 753 27.4408
81.9922 692 26.3059
82.1096 708 26.6083
82.227 821 28.6531
82.3444 864 29.3939
82.4619 926 30.4302
82.5793 902 30.0333
82.6967 934 30.5614
82.8142 967 31.0966
82.9316 905 30.0832
83.049 902 30.0333
83.1664 812 28.4956
83.2838 857 29.2746
83.4012 834 28.8791
83.5186 820 28.6356
83.636 721 26.8514
83.7534 760 27.5681
83.8708 637 25.2389
83.9881 649 25.4755
84.1055 628 25.0599
84.2228 616 24.8193
84.3401 594 24.3721
84.4575 645 25.3969
84.5747 696 26.3818
84.692 700 26.4575
84.8093 723 26.8887
84.9265 685 26.1725
85.0437 644 25.3772
85.1609 566 23.7908
85.2781 519 22.7816
85.3952 426 20.6398
85.5123 426 20.6398
85.6294 391 19.7737
85.7465 407 20.1742
85.8636 451 21.2368
85.9806 495 22.2486
86.0976 469 21.6564
86.2145 429 20.7123
86.3315 496 22.2711
86.4484 447 21.1424
86.5652 468 21.6333
86.682 474 21.7715
86.7988 459 21.4243
86.9156 440 20.9762
87.0323 419 20.4695
87.149 397 19.9249
87.2657 421 20.5183
87.3823 408 20.199
87.4988 295 17.1756
87.6154 304 17.4356
87.7318 260 16.1245
87.8483 304 17.4356
87.9647 277 16.6433
88.081 339 18.412
88.1973 335 18.303
88.3136 338 18.3848
88.4298 330 18.1659
88.546 296 17.2047
88.6621 264 16.2481
88.7781 221 14.8661
88.8942 0 1
89.0101 0 1
89.126 0 1
89.2419 0 1
89.3577 0 1
89.4734 0 1
89.5891 0 1
89.7047 0 1
89.8203 0 1
89.9358 0 1
92.3269 0 1
92.4424 0 1
92.558 0 1
92.6736 0 1
92.7893 0 1
92.905 0 1
93.0208 0 1
93.1366 0 1
93.2525 0 1
93.3685 0 1
93.4845 0 1
93.6005 313 17.6918
93.7167 328 18.1108
93.8328 342 18.4932
93.949 358 18.9209
94.0653 368 19.1833
94.1816 354 18.8149
94.2979 391 19.7737
94.4143 391 19.7737
94.5307 368 19.1833
94.6472 326 18.0555
94.7637 327 18.0831
94.8803 352 18.7617
94.9969 403 20.0749
95.1135 415 20.3715
95.2302 433 20.8087
95.3469 450 21.2132
95.4637 488 22.0907
95.5805 458 21.4009
95.6973 429 20.7123
95.8142 454 21.3073
95.9311 479 21.8861
96.048 463 21.5174
96.1649 499 22.3383
96.2819 471 21.7025
96.3989 437 20.9045
96.516 450 21.2132
96.633 437 20.9045
96.7501 411 20.2731
96.8673 383 19.5704
96.9844 378 19.4422
97.1016 402 20.0499
97.2188 411 20.2731
97.336 440 20.9762
97.4532 512 22.6274
97.5704 490 22.1359
97.6877 479 21.8861
97.805 536 23.1517
97.9223 483 21.9773
98.0396 469 21.6564
98.1569 444 21.0713
98.2743 420 20.4939
98.3916 367 19.1572
98.509 413 20.3224
98.6264 392 19.799
98.7438 439 20.9523
98.8612 474 21.7715
98.9786 499 22.3383
99.096 497 22.2935
99.2134 501 22.383
99.3308 508 22.5389
99.4482 575 23.9792
99.5656 487 22.0681
99.6831 535 23.1301
99.8005 555 23.5584
99.9179 503 22.4277
100.035 484 22
100.153 440 20.9762
100.27 466 21.587
100.388 403 20.0749
100.505 378 19.4422
100.622 409 20.2237
100.74 409 20.2237
100.857 437 20.9045
100.975 508 22.5389
101.092 495 22.2486
101.209 512 22.6274
101.327 491 22.1585
101.444 515 22.6936
101.561 471 21.7025
101.679 433 20.8087
101.796 436 20.8806
101.913 400 20
102.03 371 19.2614
102.148 418 20.445
102.265 451 21.2368
102.382 476 21.8174
102.499 463 21.5174
102.616 516 22.7156
102.733 463 21.5174
102.851 499 22.3383
102.968 557 23.6008
103.085 491 22.1585
103.202 492 22.1811
103.319 502 22.4054
103.436 468 21.6333
103.552 520 22.8035
103.669 470 21.6795
103.786 467 21.6102
103.903 410 20.2485
104.02 376 19.3907
104.137 405 20.1246
104.253 439 20.9523
104.37 460 21.4476
104.487 523 22.8692
104.603 571 23.8956
104.72 513 22.6495
104.836 527 22.9565
104.953 462 21.4942
105.069 527 22.9565
105.186 485 22.0227
105.302 427 20.664
105.418 408 20.199
105.535 371 19.2614
105.651 450 21.2132
105.767 445 21.095
105.883 461 21.4709
105.999 442 21.0238
106.115 0 1
106.231 0 1
106.347 0 1
106.463 0 1
106.579 0 1
106.694 0 1
106.81 0 1
106.926 0 1
107.041 0 1
107.157 0 1
109.576 0 1
109.692 0 1
109.807 0 1
109.923 0 1
110.039 0 1
110.155 0 1
110.27 0 1
110.386 0 1
110.502 0 1
110.618 297 17.2337
110.735 403 20.0749
110.851 510 22.5832
110.967 509 22.561
111.083 578 24.0416
111.199 650 25.4951
111.316 759 27.55
111.432 789 28.0891
111.549 768 27.7128
111.665 797 28.2312
111.782 831 28.8271
111.898 828 28.775
112.015 818 28.6007
112.132 821 28.6531
112.248 832 28.8444
112.365 669 25.865
112.482 538 23.1948
112.599 612 24.7386
112.716 568 23.8328
112.832 641 25.318
112.949 678 26.0384
113.066 853 29.2062
113.183 859 29.3087
113.3 866 29.4279
113.417 858 29.2916
113.534 900 30
113.652 835 28.8964
113.769 838 28.9482
113.886 761 27.5862
114.003 706 26.5707
114.12 671 25.9037
114.238 772 27.7849
114.355 795 28.1957
114.472 756 27.4955
114.589 880 29.6648
114.707 832 28.8444
114.824 906 30.0998
114.942 871 29.5127
115.059 899 29.9833
115.176 867 29.4449
115.294 825 28.7228
115.411 787 28.0535
115.529 804 28.3549
115.646 741 27.2213
115.764 742 27.2397
115.881 696 26.3818
115.999 586 24.2074
116.116 496 22.2711
116.234 504 22.4499
116.351 509 22.561
116.469 618 24.8596
116.586 664 25.7682
116.704 681 26.096
116.821 689 26.2488
116.939 670 25.8844
117.056 653 25.5539
117.174 651 25.5147
117.291 629 25.0799
117.409 529 23
117.526 486 22.0454
117.644 475 21.7945
117.761 447 21.1424
117.879 467 21.6102
117.996 523 22.8692
118.114 505 22.4722
118.231 467 21.6102
118.349 468 21.6333
118.466 554 23.5372
118.584 539 23.2164
118.701 523 22.8692
118.819 511 22.6053
118.936 452 21.2603
119.053 476 21.8174
119.171 495 22.2486
119.288 411 20.2731
119.405 404 20.0998
119.523 413 20.3224
119.64 348 18.6548
119.757 384 19.5959
119.875 363 19.0526
119.992 369 19.2094
120.109 380 19.4936
120.226 418 20.445
120.343 450 21.2132
120.46 438 20.9284
120.578 436 20.8806
120.695 414 20.347
120.812 389 19.7231
120.929 345 18.5742
121.046 378 19.4422
121.163 329 18.1384
121.279 327 18.0831
121.396 327 18.0831
121.513 300 17.3205
121.63 314 17.72
121.747 289 17
121.863 349 18.6815
121.98 349 18.6815
122.097 348 18.6548
122.213 337 18.3576
122.33 326 18.0555
122.446 311 17.6352
122.563 316 17.7764
122.679 269 16.4012
122.795 259 16.0935
122.912 242 15.5563
123.028 201 14.1774
123.144 160 12.6491
123.26 150 12.2474
123.377 0 1
123.493 0 1
123.609 0 1
123.725 0 1
123.84 0 1
123.956 0 1
124.072 0 1
124.188 0 1
124.303 0 1
124.419 0 1
126.852 0 1
126.968 0 1
127.083 0 1
127.199 0 1
127.315 0 1
127.431 0 1
127.547 0 1
127.663 0 1
127.779 0 1
127.895 0 1
128.011 0 1
128.127 0 1
128.243 0 1
128.359 348 18.6548
128.476 425 20.6155
128.592 419 20.4695
128.708 371 19.2614
128.825 408 20.199
128.941 370 19.2354
129.058 415 20.3715
129.174 414 20.347
129.291 447 21.1424
129.408 514 22.6716
129.524 513 22.6495
129.641 503 22.4277
129.758 520 22.8035
129.875 545 23.3452
129.992 417 20.4206
130.108 444 21.0713
130.225 425 20.6155
130.342 397 19.9249
130.459 388 19.6977
130.576 419 20.4695
130.693 480 21.9089
130.81 505 22.4722
130.928 493 22.2036
131.045 508 22.5389
131.162 517 22.7376
131.279 474 21.7715
131.396 515 22.6936
131.513 501 22.383
131.631 529 23
131.748 493 22.2036
131.865 495 22.2486
131.983 494 22.2261
132.1 468 21.6333
132.217 467 21.6102
132.335 481 21.9317
132.452 411 20.2731
132.57 384 19.5959
132.687 453 21.2838
132.804 483 21.9773
132.922 483 21.9773
133.039 513 22.6495
133.157 555 23.5584
133.274 516 22.7156
133.392 471 21.7025
133.509 485 22.0227
133.627 430 20.7364
133.744 385 19.6214
133.862 372 19.2873
133.979 372 19.2873
134.097 436 20.8806
134.214 436 20.8806
134.332 474 21.7715
134.449 522 22.8473
134.567 467 21.6102
134.684 454 21.3073
134.802 459 21.4243
134.919 502 22.4054
135.037 454 21.3073
135.154 427 20.664
135.272 462 21.4942
135.389 499 22.3383
135.507 455 21.3307
135.624 426 20.6398
135.742 445 21.095
135.859 421 20.5183
135.977 399 19.975
136.094 416 20.3961
136.211 419 20.4695
136.329 415 20.3715
136.446 451 21.2368
136.564 449 21.1896
136.681 491 22.1585
136.798 504 22.4499
136.915 518 22.7596
137.033 479 21.8861
137.15 429 20.7123
137.267 388 19.6977
137.384 369 19.2094
137.502 363 19.0526
137.619 323 17.9722
137.736 392 19.799
137.853 391 19.7737
137.97 403 20.0749
138.087 420 20.4939
138.204 435 20.8567
138.321 428 20.6882
138.438 443 21.0476
138.555 463 21.5174
138.672 450 21.2132
138.788 417 20.4206
138.905 365 19.105
139.022 394 19.8494
139.139 372 19.2873
139.255 365 19.105
139.372 363 19.0526
139.488 307 17.5214
139.605 303 17.4069
139.721 289 17
139.838 274 16.5529
139.954 245 15.6525
140.071 268 16.3707
140.187 245 15.6525
140.303 255 15.9687
140.419 254 15.9374
140.535 244 15.6205
140.652 245 15.6525
140.768 0 1
140.884 0 1
141 0 1
141.115 0 1
141.231 0 1
141.347 0 1
141.463 0 1
141.578 0 1
141.694 0 1
144.104 0 1
144.219 0 1
144.335 0 1
144.45 0 1
144.566 0 1
144.682 0 1
144.798 0 1
144.914 0 1
145.03 0 1
145.146 249 15.7797
145.262 309 17.5784
145.378 317 17.8045
145.494 335 18.303
145.61 318 17.8326
145.726 330 18.1659
145.842 315 17.7482
145.959 306 17.4929
146.075 272 16.4924
146.192 250 15.8114
146.308 253 15.906
146.425 243 15.5885
146.541 261 16.1555
146.658 252 15.8745
146.774 271 16.4621
146.891 294 17.1464
147.008 284 16.8523
147.125 250 15.8114
147.241 259 16.0935
147.358 300 17.3205
147.475 316 17.7764
147.592 250 15.8114
147.709 293 17.1172
147.826 290 17.0294
147.943 276 16.6132
148.06 282 16.7929
148.177 261 16.1555
148.294 233 15.2643
148.411 257 16.0312
148.528 218 14.7648
148.645 252 15.8745
148.762 262 16.1864
148.88 280 16.7332
148.997 307 17.5214
149.114 308 17.5499
149.231 309 17.5784
149.349 334 18.2757
149.466 292 17.088
149.583 291 17.0587
149.701 282 16.7929
149.818 286 16.9115
149.935 221 14.8661
150.053 227 15.0665
150.17 263 16.2173
150.287 255 15.9687
150.405 272 16.4924
150.522 299 17.2916
150.64 293 17.1172
150.757 288 16.9706
150.875 318 17.8326
150.992 332 18.2209
151.11 321 17.9165
151.227 303 17.4069
151.344 281 16.7631
151.462 279 16.7033
151.579 270 16.4317
151.697 255 15.9687
151.814 261 16.1555
151.932 248 15.748
152.049 253 15.906
152.167 254 15.9374
152.284 276 16.6132
152.402 274 16.5529
152.519 281 16.7631
152.636 288 16.9706
152.754 271 16.4621
152.871 287 16.9411
152.989 248 15.748
153.106 295 17.1756
153.223 259 16.0935
153.341 267 16.3401
153.458 265 16.2788
153.575 220 14.8324
153.693 243 15.5885
153.81 229 15.1327
153.927 262 16.1864
154.044 267 16.3401
154.162 293 17.1172
154.279 273 16.5227
154.396 276 16.6132
154.513 268 16.3707
154.63 277 16.6433
154.747 287 16.9411
154.864 265 16.2788
154.981 253 15.906
155.098 262 16.1864
155.215 257 16.0312
155.332 263 16.2173
155.449 269 16.4012
155.566 251 15.843
155.683 263 16.2173
155.8 215 14.6629
155.917 230 15.1658
156.033 256 16
156.15 0 1
156.267 0 1
156.383 0 1
156.5 0 1
156.617 0 1
156.733 0 1
156.85 0 1
156.966 0 1
157.082 0 1
157.199 0 1
157.315 0 1
157.431 0 1
157.547 0 1
157.664 0 1
157.78 0 1
157.896 0 1
158.012 0 1
158.128 0 1
158.244 0 1
158.359 0 1
158.475 0 1
158.591 0 1
158.706 0 1
