
6.15755 0 1
6.2731 0 1
6.3887 0 1
6.50437 0 1
6.62009 0 1
6.73587 0 1
6.8517 0 1
6.96759 0 1
7.08353 0 1
7.19952 0 1
7.31557 0 1
7.43166 0 1
7.54781 0 1
7.664 0 1
7.78024 0 1
7.89653 0 1
8.01286 0 1
8.12924 0 1
8.24567 0 1
8.36213 0 1
8.47864 0 1
8.59519 0 1
8.71178 0 1
8.82841 0 1
8.94508 0 1
9.06179 0 1
9.17853 0 1
9.29531 0 1
9.41212 0 1
9.52897 0 1
9.64584 0 1
9.76276 0 1
9.8797 0 1
9.99667 0 1
10.1137 0 1
10.2307 0 1
10.3478 0 1
10.4648 0 1
10.5819 0 1
10.6991 0 1
10.8162 0 1
10.9334 0 1
11.0506 0 1
11.1678 0 1
11.285 0 1
11.4023 0 1
11.5196 0 1
11.6369 0 1
11.7542 0 1
11.8715 0 1
11.9888 0 1
12.1062 0 1
12.2235 0 1
12.3409 0 1
12.4582 0 1
12.5756 0 1
12.693 0 1
12.8104 0 1
12.9278 0 1
13.0452 0 1
13.1626 0 1
13.28 0 1
13.3974 0 1
13.5149 0 1
13.6323 0 1
13.7497 0 1
13.8671 0 1
13.9845 0 1
14.1019 0 1
14.2193 0 1
14.3367 0 1
14.4541 0 1
14.5714 0 1
14.6888 0 1
14.8062 0 1
14.9235 0 1
15.0408 8466 92.0109
15.1581 8715 93.3542
15.2755 8882 94.2444
15.3927 9065 95.2103
15.51 9057 95.1683
15.6273 8815 93.8882
15.7445 8836 94
15.8617 8884 94.255
15.9789 8823 93.9308
16.0961 8576 92.6067
16.2132 8431 91.8205
16.3304 8477 92.0706
16.4475 8606 92.7685
16.5646 9010 94.921
16.6816 9071 95.2418
16.7986 9012 94.9316
16.9156 8990 94.8156
17.0326 8952 94.615
17.1496 8879 94.2284
17.2665 8690 93.2202
17.3833 8750 93.5414
17.5002 8314 91.1811
17.617 8204 90.5759
17.7338 8276 90.9725
17.8505 8494 92.1629
17.9672 8906 94.3716
18.0839 8984 94.784
18.2005 9232 96.0833
18.3171 9556 97.7548
18.4337 9803 99.0101
18.5502 9896 99.4786
18.6666 9949 99.7447
18.7831 10020 100.1
18.8994 9801 99
19.0158 9636 98.1631
19.1321 9319 96.535
19.2483 9137 95.5877
19.3645 8791 93.7603
19.4806 8436 91.8477
19.5967 8332 91.2798
19.7128 7995 89.4148
19.8288 7908 88.9269
19.9447 7197 84.8351
20.0606 0 1
20.1764 0 1
20.2922 0 1
20.4079 0 1
20.5236 0 1
20.6392 0 1
20.7548 0 1
20.8702 0 1
23.3078 0 1
23.4233 0 1
23.539 0 1
23.6547 0 1
23.7704 0 1
23.8862 0 1
24.0021 0 1
24.118 0 1
24.234 0 1
24.35 0 1
24.4661 8350 91.3783
24.5822 8369 91.4822
24.6984 8168 90.377
24.8146 8027 89.5935
24.9309 8051 89.7274
25.0472 8145 90.2497
25.1636 8475 92.0598
25.28 8791 93.7603
25.3965 8875 94.2072
25.513 9045 95.1052
25.6296 9273 96.2964
25.7462 9566 97.8059
25.8628 9362 96.7574
25.9795 9236 96.1041
26.0962 9103 95.4096
26.213 8682 93.1773
26.3298 8614 92.8116
26.4466 8196 90.5318
26.5635 8433 91.8314
26.6804 8520 92.3038
26.7973 8880 94.2338
26.9143 9045 95.1052
27.0313 9184 95.8332
27.1483 9400 96.9536
27.2653 9498 97.4577
27.3824 9513 97.5346
27.4996 9507 97.5038
27.6167 9254 96.1977
27.7339 9281 96.3379
27.8511 9120 95.4987
27.9683 8789 93.7497
28.0855 8590 92.6823
28.2028 8506 92.228
28.3201 8084 89.9111
28.4374 7884 88.7919
28.5547 7880 88.7694
28.6721 8082 89.8999
28.7894 8352 91.3893
28.9068 8513 92.2659
29.0242 8877 94.2178
29.1416 8813 93.8776
29.259 8666 93.0914
29.3764 8736 93.4666
29.4939 8632 92.9086
29.6113 8399 91.6461
29.7288 8228 90.7083
29.8463 7959 89.2132
29.9638 7685 87.6641
30.0812 7692 87.704
30.1987 7879 88.7637
30.3162 8328 91.2579
30.4337 8383 91.5587
30.5512 8667 93.0967
30.6687 8863 94.1435
30.7862 8900 94.3398
30.9037 9145 95.6295
31.0212 9139 95.5981
31.1387 9080 95.289
31.2562 9017 94.9579
31.3737 9066 95.2155
31.4912 8820 93.9149
31.6087 8646 92.9839
31.7262 8441 91.8749
31.8436 7951 89.1684
31.9611 7898 88.8707
32.0785 7779 88.1986
32.1959 7891 88.8313
32.3134 8150 90.2774
32.4308 8166 90.3659
32.5482 8562 92.5311
32.6655 8456 91.9565
32.7829 8491 92.1466
32.9002 8422 91.7715
33.0176 8535 92.3851
33.1349 8520 92.3038
33.2522 8558 92.5095
33.3694 8106 90.0333
33.4867 7944 89.1291
33.6039 7596 87.155
33.7211 7606 87.2124
33.8383 7725 87.892
33.9554 8007 89.4818
34.0725 8382 91.5533
34.1896 8167 90.3715
34.3067 8498 92.1846
34.4237 8703 93.2899
34.5407 8497 92.1792
34.6577 8847 94.0585
34.7746 8744 93.5094
34.8915 8853 94.0904
35.0084 8791 93.7603
35.1252 8474 92.0543
35.242 8334 91.2907
35.3587 8039 89.6605
35.4755 7893 88.8426
35.5921 7819 88.4251
35.7088 7355 85.7613
35.8254 7407 86.0639
35.9419 7495 86.5737
36.0584 7517 86.7006
36.1749 7898 88.8707
36.2913 8088 89.9333
36.4077 8120 90.111
36.524 8200 90.5539
36.6403 8114 90.0777
36.7565 8288 91.0385
36.8727 8218 90.6532
36.9889 7880 88.7694
37.1049 7671 87.5842
37.221 0 1
37.3369 0 1
37.4529 0 1
37.5687 0 1
37.6845 0 1
37.8003 0 1
37.916 0 1
38.0316 0 1
38.1472 0 1
40.5851 0 1
40.7008 0 1
40.8164 0 1
40.9322 0 1
41.048 0 1
41.1639 0 1
41.2798 0 1
41.3958 0 1
41.5118 0 1
41.6279 0 1
41.744 6494 80.5854
41.8602 6921 83.1925
41.9765 7018 83.7735
42.0928 6875 82.9156
42.2091 7019 83.7795
42.3255 6785 82.3711
42.4419 6514 80.7094
42.5584 6300 79.3725
42.675 6295 79.341
42.7915 6230 78.9303
42.9081 6482 80.5109
43.0248 6567 81.037
43.1415 6825 82.6136
43.2582 6990 83.6062
43.375 6932 83.2586
43.4918 6892 83.0181
43.6087 6891 83.012
43.7256 7098 84.2496
43.8425 6829 82.6378
43.9595 6636 81.4616
44.0765 6449 80.3057
44.1935 6205 78.7718
44.3106 6159 78.4793
44.4277 5860 76.5506
44.5448 5723 75.6505
44.6619 5400 73.4847
44.7791 5159 71.8262
44.8963 5267 72.5741
45.0136 5437 73.736
45.1308 5404 73.5119
45.2481 5434 73.7157
45.3654 5683 75.3857
45.4827 5573 74.6525
45.6001 5423 73.641
45.7174 5603 74.8532
45.8348 5431 73.6953
45.9522 5308 72.856
46.0697 5119 71.5472
46.1871 4904 70.0286
46.3046 4791 69.217
46.422 4740 68.8477
46.5395 5083 71.2952
46.657 5032 70.9366
46.7745 5168 71.8888
46.892 5213 72.2011
47.0096 5216 72.2219
47.1271 5344 73.1027
47.2446 5283 72.6842
47.3622 5351 73.1505
47.4797 5163 71.854
47.5973 5099 71.4073
47.7149 4774 69.0941
47.8324 4876 69.8284
47.95 4821 69.4334
48.0675 4540 67.3795
48.1851 4290 65.4981
48.3027 4132 64.2806
48.4202 4197 64.7843
48.5378 4458 66.7683
48.6554 4428 66.5432
48.7729 4553 67.4759
48.8904 4638 68.1029
49.008 4843 69.5917
49.1255 4850 69.6419
49.243 4929 70.2068
49.3605 4759 68.9855
49.478 4789 69.2026
49.5955 4601 67.8307
49.713 4530 67.3053
49.8304 4462 66.7982
49.9479 4475 66.8954
50.0653 4636 68.0882
50.1827 4860 69.7137
50.3001 5143 71.7147
50.4175 5271 72.6017
50.5348 5340 73.0753
50.6521 5654 75.1931
50.7694 5764 75.921
50.8867 5786 76.0658
51.004 5879 76.6746
51.1212 5907 76.857
51.2384 5895 76.7789
51.3556 5892 76.7594
51.4727 5777 76.0066
51.5899 5735 75.7298
51.707 5756 75.8683
51.824 5566 74.6056
51.9411 5763 75.9144
52.0581 5901 76.818
52.175 6267 79.1644
52.2919 6478 80.486
52.4088 6770 82.28
52.5257 6826 82.6196
52.6425 6881 82.9518
52.7593 7285 85.3522
52.876 7259 85.1998
52.9927 7094 84.2259
53.1094 7201 84.8587
53.226 6954 83.3906
53.3426 6698 81.8413
53.4591 6452 80.3243
53.5756 6691 81.7985
53.692 7060 84.0238
53.8084 7469 86.4234
53.9248 7525 86.7468
54.0411 7706 87.7838
54.1573 7895 88.8538
54.2735 0 1
54.3896 0 1
54.5057 0 1
54.6217 0 1
54.7377 0 1
54.8537 0 1
54.9695 0 1
55.0853 0 1
55.2011 0 1
55.3168 0 1
55.4324 0 1
57.824 0 1
57.9396 0 1
58.0553 0 1
58.1711 0 1
58.2869 0 1
58.4028 0 1
58.5187 0 1
58.6347 0 1
58.7508 0 1
58.8669 0 1
58.983 8646 92.9839
59.0992 9218 96.0104
59.2155 9866 99.3277
59.3318 9909 99.544
59.4482 9964 99.8198
59.5646 10315 101.563
59.681 10258 101.282
59.7975 10283 101.405
59.9141 10166 100.827
60.0306 9976 99.8799
60.1473 9825 99.1211
60.2639 9611 98.0357
60.3807 9232 96.0833
60.4974 8802 93.819
60.6142 8592 92.693
60.731 8419 91.7551
60.8479 8658 93.0484
60.9648 8937 94.5357
61.0818 9243 96.1405
61.1987 9455 97.2368
61.3158 9482 97.3756
61.4328 9489 97.4115
61.5499 9333 96.6075
61.667 9529 97.6166
61.7841 9390 96.902
61.9013 8725 93.4077
62.0185 8369 91.4822
62.1357 8293 91.0659
62.253 8225 90.6918
62.3702 8404 91.6733
62.4875 8770 93.6483
62.6049 8890 94.2868
62.7222 9177 95.7967
62.8396 9151 95.6609
62.9569 9354 96.7161
63.0743 9435 97.1339
63.1918 9404 96.9742
63.3092 9184 95.8332
63.4267 9116 95.4777
63.5441 8844 94.0425
63.6616 9072 95.247
63.7791 8790 93.755
63.8966 8492 92.152
64.0142 7955 89.1908
64.1317 7798 88.3063
64.2492 7544 86.8562
64.3668 7698 87.7382
64.4843 7961 89.2244
64.6019 8195 90.5262
64.7195 8556 92.4986
64.837 8491 92.1466
64.9546 8631 92.9032
65.0722 8894 94.308
65.1898 8882 94.2444
65.3074 9032 95.0368
65.4249 8424 91.7824
65.5425 8163 90.3493
65.6601 7667 87.5614
65.7777 7741 87.983
65.8952 7557 86.931
66.0128 7983 89.3476
66.1304 8259 90.879
66.2479 8566 92.5527
66.3655 8824 93.9361
66.483 8845 94.0479
66.6005 9006 94.8999
66.718 9107 95.4306
66.8355 9018 94.9632
66.953 9103 95.4096
67.0705 9128 95.5406
67.1879 8954 94.6256
67.3054 8903 94.3557
67.4228 8854 94.0957
67.5402 8641 92.957
67.6576 8331 91.2743
67.7749 7773 88.1646
67.8923 7921 89
68.0096 7979 89.3252
68.1269 8191 90.5041
68.2442 8358 91.4221
68.3614 8708 93.3167
68.4787 8913 94.4087
68.5958 9084 95.31
68.713 9443 97.1751
68.8302 9486 97.3961
68.9473 9677 98.3717
69.0643 9302 96.4469
69.1814 8984 94.784
69.2984 8672 93.1236
69.4154 8230 90.7193
69.5323 7963 89.2356
69.6492 8404 91.6733
69.7661 8929 94.4934
69.8829 9025 95
69.9997 9486 97.3961
70.1165 9532 97.632
70.2332 9747 98.7269
70.3499 9863 99.3126
70.4665 9839 99.1917
70.5831 9946 99.7296
70.6996 9980 99.8999
70.8161 9885 99.4233
70.9326 9647 98.2191
71.049 9340 96.6437
71.1653 9408 96.9948
71.2817 8983 94.7787
71.3979 8341 91.3291
71.5141 7780 88.2043
71.6303 7795 88.2893
71.7464 7408 86.0697
71.8624 0 1
71.9784 0 1
72.0944 0 1
72.2102 0 1
72.3261 0 1
72.4418 0 1
72.5575 0 1
72.6732 0 1
75.1054 0 1
75.2209 0 1
75.3365 0 1
75.4521 0 1
75.5678 0 1
75.6835 0 1
75.7993 0 1
75.9151 0 1
76.031 0 1
76.147 8775 93.675
76.263 9377 96.8349
76.3791 9578 97.8673
76.4952 9232 96.0833
76.6113 8911 94.3981
76.7276 8302 91.1153
76.8438 8077 89.8721
76.9601 8093 89.9611
77.0765 8388 91.586
77.1929 8817 93.8989
77.3093 9062 95.1945
77.4258 9497 97.4526
77.5423 9277 96.3172
77.6589 9765 98.818
77.7755 9829 99.1413
77.8921 9755 98.7674
78.0088 9632 98.1428
78.1256 8992 94.8262
78.2423 8665 93.086
78.3591 8120 90.111
78.4759 7919 88.9888
78.5928 8169 90.3825
78.7097 8638 92.9408
78.8266 8677 93.1504
78.9436 9433 97.1236
79.0606 9451 97.2163
79.1776 9549 97.719
79.2946 9790 98.9444
79.4117 9781 98.8989
79.5288 9813 99.0606
79.6459 9862 99.3076
79.7631 9587 97.9132
79.8802 9666 98.3158
79.9974 9726 98.6205
80.1147 9421 97.0618
80.2319 9147 95.6399
80.3491 8573 92.5905
80.4664 8169 90.3825
80.5837 8296 91.0824
80.701 8359 91.4276
80.8183 8682 93.1773
80.9357 9056 95.163
81.053 9217 96.0052
81.1704 9431 97.1133
81.2877 9733 98.656
81.4051 9921 99.6042
81.5225 10064 100.319
81.6399 9806 99.0252
81.7573 9601 97.9847
81.8747 8803 93.8243
81.9922 8195 90.5262
82.1096 7784 88.227
82.227 8114 90.0777
82.3444 8272 90.9505
82.4619 9010 94.921
82.5793 9445 97.1854
82.6967 9180 95.8123
82.8142 9730 98.6408
82.9316 9864 99.3177
83.049 9835 99.1716
83.1664 9852 99.2572
83.2838 9915 99.5741
83.4012 9958 99.7898
83.5186 9910 99.549
83.636 9661 98.2904
83.7534 9601 97.9847
83.8708 9209 95.9635
83.9881 8883 94.2497
84.1055 8352 91.3893
84.2228 8475 92.0598
84.3401 8397 91.6351
84.4575 8612 92.8009
84.5747 9055 95.1578
84.692 9635 98.158
84.8093 9894 99.4686
84.9265 10204 101.015
85.0437 10402 101.99
85.1609 10372 101.843
85.2781 9734 98.661
85.3952 9390 96.902
85.5123 8888 94.2762
85.6294 8358 91.4221
85.7465 8419 91.7551
85.8636 8505 92.2226
85.9806 9051 95.1367
86.0976 9750 98.7421
86.2145 10059 100.295
86.3315 9962 99.8098
86.4484 10332 101.646
86.5652 10704 103.46
86.682 10670 103.296
86.7988 10719 103.533
86.9156 10486 102.401
87.0323 10531 102.621
87.149 10429 102.122
87.2657 10509 102.513
87.3823 10142 100.707
87.4988 9781 98.8989
87.6154 9230 96.0729
87.7318 8810 93.8616
87.8483 8815 93.8882
87.9647 9093 95.3572
88.081 9548 97.7139
88.1973 10058 100.29
88.3136 10163 100.812
88.4298 10530 102.616
88.546 10761 103.735
88.6621 10793 103.889
88.7781 10825 104.043
88.8942 0 1
89.0101 0 1
89.126 0 1
89.2419 0 1
89.3577 0 1
89.4734 0 1
89.5891 0 1
89.7047 0 1
89.8203 0 1
89.9358 0 1
92.3269 0 1
92.4424 0 1
92.558 0 1
92.6736 0 1
92.7893 0 1
92.905 0 1
93.0208 0 1
93.1366 0 1
93.2525 0 1
93.3685 0 1
93.4845 0 1
93.6005 9595 97.9541
93.7167 9978 99.8899
93.8328 10063 100.315
93.949 10381 101.887
94.0653 10148 100.737
94.1816 9757 98.7775
94.2979 9559 97.7701
94.4143 8817 93.8989
94.5307 8363 91.4494
94.6472 8225 90.6918
94.7637 8473 92.0489
94.8803 8875 94.2072
94.9969 9295 96.4106
95.1135 9678 98.3768
95.2302 9790 98.9444
95.3469 9951 99.7547
95.4637 10184 100.916
95.5805 10048 100.24
95.6973 10368 101.823
95.8142 10387 101.917
95.9311 10161 100.802
96.048 10205 101.02
96.1649 10105 100.524
96.2819 9993 99.965
96.3989 9907 99.5339
96.516 9601 97.9847
96.633 9057 95.1683
96.7501 8819 93.9095
96.8673 8525 92.3309
96.9844 8566 92.5527
97.1016 8885 94.2603
97.2188 9071 95.2418
97.336 9329 96.5867
97.4532 9893 99.4636
97.5704 10024 100.12
97.6877 10305 101.514
97.805 10068 100.339
97.9223 9893 99.4636
98.0396 9001 94.8736
98.1569 8739 93.4826
98.2743 8231 90.7249
98.3916 8137 90.2053
98.509 8279 90.989
98.6264 8601 92.7416
98.7438 9430 97.1082
98.8612 9649 98.2293
98.9786 9677 98.3717
99.096 9695 98.4632
99.2134 9955 99.7747
99.3308 9879 99.3932
99.4482 9958 99.7898
99.5656 9836 99.1766
99.6831 9584 97.8979
99.8005 9772 98.8534
99.9179 9617 98.0663
100.035 9512 97.5295
100.153 9123 95.5144
100.27 8475 92.0598
100.388 8134 90.1887
100.505 8184 90.4655
100.622 8529 92.3526
100.74 8766 93.6269
100.857 9172 95.7706
100.975 9378 96.8401
101.092 9579 97.8724
101.209 9756 98.7725
101.327 10046 100.23
101.444 10253 101.257
101.561 9800 98.9949
101.679 9476 97.3447
101.796 8732 93.4452
101.913 8368 91.4768
102.03 8265 90.912
102.148 8826 93.9468
102.265 8513 92.2659
102.382 10046 100.23
102.499 9855 99.2724
102.616 10235 101.168
102.733 10169 100.841
102.851 10347 101.72
102.968 10403 101.995
103.085 10499 102.465
103.202 10412 102.039
103.319 10462 102.284
103.436 10393 101.946
103.552 10055 100.275
103.669 9840 99.1968
103.786 9550 97.7241
103.903 8901 94.3451
104.02 9074 95.2575
104.137 9181 95.8175
104.253 9179 95.8071
104.37 9656 98.2649
104.487 10235 101.168
104.603 10665 103.271
104.72 10418 102.069
104.836 10802 103.933
104.953 10698 103.431
105.069 10323 101.602
105.186 9683 98.4022
105.302 8904 94.361
105.418 8475 92.0598
105.535 8684 93.188
105.651 9105 95.4201
105.767 9582 97.8877
105.883 10122 100.608
105.999 10315 101.563
106.115 0 1
106.231 0 1
106.347 0 1
106.463 0 1
106.579 0 1
106.694 0 1
106.81 0 1
106.926 0 1
107.041 0 1
107.157 0 1
109.576 0 1
109.692 0 1
109.807 0 1
109.923 0 1
110.039 0 1
110.155 0 1
110.27 0 1
110.386 0 1
110.502 0 1
110.618 7644 87.43
110.735 8298 91.0934
110.851 8727 93.4184
110.967 9003 94.8841
111.083 9360 96.7471
111.199 9606 98.0102
111.316 9475 97.3396
111.432 9479 97.3602
111.549 9697 98.4733
111.665 9389 96.8969
111.782 9218 96.0104
111.898 9241 96.1301
112.015 9072 95.247
112.132 8865 94.1541
112.248 8710 93.3274
112.365 8106 90.0333
112.482 7843 88.5607
112.599 7705 87.7781
112.716 7811 88.3799
112.832 7961 89.2244
112.949 8178 90.4323
113.066 8529 92.3526
113.183 8740 93.488
113.3 8811 93.8669
113.417 8977 94.747
113.534 9016 94.9526
113.652 8414 91.7279
113.769 8137 90.2053
113.886 7393 85.9826
114.003 6948 83.3547
114.12 6923 83.2046
114.238 7138 84.4867
114.355 7578 87.0517
114.472 7833 88.5042
114.589 7982 89.342
114.707 8045 89.6939
114.824 8113 90.0722
114.942 8182 90.4544
115.059 8064 89.7998
115.176 8021 89.56
115.294 7904 88.9044
115.411 7760 88.0909
115.529 7564 86.9713
115.646 7311 85.5044
115.764 7107 84.303
115.881 6797 82.4439
115.999 6432 80.1998
116.116 6239 78.9873
116.234 6307 79.4166
116.351 6427 80.1686
116.469 6373 79.8311
116.586 6557 80.9753
116.704 6921 83.1925
116.821 7116 84.3564
116.939 6972 83.4985
117.056 7003 83.6839
117.174 6868 82.8734
117.291 6680 81.7313
117.409 6305 79.404
117.526 6012 77.5371
117.644 5686 75.4056
117.761 5945 77.1038
117.879 6152 78.4347
117.996 6443 80.2683
118.114 6752 82.1706
118.231 6821 82.5893
118.349 6829 82.6378
118.466 6888 82.994
118.584 7084 84.1665
118.701 7061 84.0298
118.819 7161 84.6227
118.936 7063 84.0417
119.053 6837 82.6862
119.171 6863 82.8432
119.288 6840 82.7043
119.405 6687 81.7741
119.523 6485 80.5295
119.64 6081 77.9808
119.757 6124 78.256
119.875 6353 79.7057
119.992 6506 80.6598
120.109 6853 82.7828
120.226 6942 83.3187
120.343 7161 84.6227
120.46 7185 84.7644
120.578 7475 86.4581
120.695 7469 86.4234
120.812 7757 88.0738
120.929 7307 85.481
121.046 7175 84.7054
121.163 6740 82.0975
121.279 6579 81.111
121.396 6466 80.4114
121.513 6773 82.2982
121.63 7295 85.4108
121.747 7567 86.9885
121.863 7673 87.5957
121.98 8179 90.4378
122.097 8125 90.1388
122.213 8229 90.7138
122.33 8171 90.3936
122.446 8209 90.6035
122.563 8280 90.9945
122.679 8249 90.824
122.795 8147 90.2607
122.912 8140 90.2219
123.028 7995 89.4148
123.144 7763 88.1079
123.26 7469 86.4234
123.377 0 1
123.493 0 1
123.609 0 1
123.725 0 1
123.84 0 1
123.956 0 1
124.072 0 1
124.188 0 1
124.303 0 1
124.419 0 1
126.852 0 1
126.968 0 1
127.083 0 1
127.199 0 1
127.315 0 1
127.431 0 1
127.547 0 1
127.663 0 1
127.779 0 1
127.895 0 1
128.011 0 1
128.127 0 1
128.243 0 1
128.359 9489 97.4115
128.476 9340 96.6437
128.592 8939 94.5463
128.708 8651 93.0108
128.825 8364 91.4549
128.941 8803 93.8243
129.058 8861 94.1329
129.174 8984 94.784
129.291 9186 95.8436
129.408 9532 97.632
129.524 9530 97.6217
129.641 9850 99.2472
129.758 9723 98.6053
129.875 9692 98.448
129.992 9330 96.5919
130.108 8634 92.9193
130.225 8388 91.586
130.342 8111 90.0611
130.459 8014 89.5209
130.576 8315 91.1866
130.693 8721 93.3863
130.81 9202 95.9271
130.928 8988 94.8051
131.045 9225 96.0469
131.162 9407 96.9897
131.279 9584 97.8979
131.396 9482 97.3756
131.513 9517 97.5551
131.631 9462 97.2728
131.748 9225 96.0469
131.865 9255 96.2029
131.983 8868 94.1701
132.1 8446 91.9021
132.217 8311 91.1647
132.335 8122 90.1221
132.452 8172 90.3991
132.57 8250 90.8295
132.687 8198 90.5428
132.804 9084 95.31
132.922 8967 94.6942
133.039 9067 95.2208
133.157 9357 96.7316
133.274 9201 95.9218
133.392 9272 96.2912
133.509 9122 95.5092
133.627 8453 91.9402
133.744 8138 90.2109
133.862 7881 88.775
133.979 7643 87.4243
134.097 7856 88.6341
134.214 8428 91.8041
134.332 8255 90.857
134.449 8716 93.3595
134.567 8742 93.4987
134.684 8752 93.5521
134.802 8675 93.1397
134.919 8776 93.6803
135.037 8654 93.0269
135.154 8568 92.5635
135.272 8148 90.2663
135.389 8343 91.34
135.507 7849 88.5946
135.624 7751 88.0398
135.742 7487 86.5275
135.859 7129 84.4334
135.977 6892 83.0181
136.094 6913 83.1445
136.211 7139 84.4926
136.329 7229 85.0235
136.446 7416 86.1162
136.564 7501 86.6083
136.681 7415 86.1104
136.798 7718 87.8521
136.915 7567 86.9885
137.033 7593 87.1378
137.15 7340 85.6738
137.267 6958 83.4146
137.384 6619 81.3572
137.502 6394 79.9625
137.619 6327 79.5424
137.736 6808 82.5106
137.853 6988 83.5943
137.97 7308 85.4868
138.087 7545 86.862
138.204 7901 88.8876
138.321 7910 88.9382
138.438 7959 89.2132
138.555 8149 90.2718
138.672 8308 91.1482
138.788 8374 91.5096
138.905 8227 90.7028
139.022 8132 90.1776
139.139 7918 88.9831
139.255 7979 89.3252
139.372 7790 88.261
139.488 7669 87.5728
139.605 7644 87.43
139.721 7909 88.9326
139.838 8047 89.7051
139.954 8335 91.2962
140.071 8486 92.1195
140.187 8961 94.6626
140.303 9000 94.8683
140.419 9034 95.0474
140.535 9033 95.0421
140.652 9063 95.1998
140.768 0 1
140.884 0 1
141 0 1
141.115 0 1
141.231 0 1
141.347 0 1
141.463 0 1
141.578 0 1
141.694 0 1
144.104 0 1
144.219 0 1
144.335 0 1
144.45 0 1
144.566 0 1
144.682 0 1
144.798 0 1
144.914 0 1
145.03 0 1
145.146 13202 114.9
145.262 14198 119.155
145.378 14994 122.45
145.494 16098 126.878
145.61 16658 129.066
145.726 17251 131.343
145.842 17686 132.989
145.959 17666 132.914
146.075 17348 131.712
146.192 17398 131.901
146.308 17026 130.484
146.425 18065 134.406
146.541 19041 137.989
146.658 20852 144.402
146.774 21955 148.172
146.891 23207 152.338
147.008 24404 156.218
147.125 25307 159.082
147.241 26054 161.413
147.358 26469 162.693
147.475 26773 163.625
147.592 26329 162.262
147.709 26349 162.324
147.826 26228 161.951
147.943 25876 160.86
148.06 25017 158.168
148.177 24296 155.872
148.294 24305 155.901
148.411 24206 155.583
148.528 24987 158.073
148.645 25113 158.471
148.762 26257 162.04
148.88 26644 163.23
148.997 28083 167.58
149.114 25463 159.571
149.231 26467 162.687
149.349 25955 161.106
149.466 26367 162.379
149.583 24470 156.429
149.701 23166 152.204
149.818 22111 148.698
149.935 21684 147.255
150.053 21413 146.332
150.17 22212 149.037
150.287 23279 152.575
150.405 24172 155.473
150.522 24671 157.07
150.64 25397 159.364
150.757 25755 160.484
150.875 26033 161.347
150.992 25874 160.854
151.11 26211 161.898
151.227 25636 160.112
151.344 25454 159.543
151.462 25136 158.543
151.579 24637 156.962
151.697 24548 156.678
151.814 23583 153.568
151.932 23474 153.212
152.049 24411 156.24
152.167 24953 157.965
152.284 25863 160.82
152.402 26903 164.021
152.519 27589 166.099
152.636 28071 167.544
152.754 28352 168.381
152.871 28812 169.741
152.989 28405 168.538
153.106 27522 165.898
153.223 26013 161.285
153.341 24880 157.734
153.458 23969 154.819
153.575 23471 153.202
153.693 24385 156.157
153.81 25410 159.405
153.927 26328 162.259
154.044 27285 165.182
154.162 28142 167.756
154.279 29204 170.892
154.396 30107 173.514
154.513 30568 174.837
154.63 30840 175.613
154.747 31219 176.689
154.864 30721 175.274
154.981 30238 173.891
155.098 30321 174.129
155.215 29767 172.531
155.332 29087 170.549
155.449 29019 170.35
155.566 29052 170.446
155.683 29416 171.511
155.8 30578 174.866
155.917 31458 177.364
156.033 32924 181.45
156.15 0 1
156.267 0 1
156.383 0 1
156.5 0 1
156.617 0 1
156.733 0 1
156.85 0 1
156.966 0 1
157.082 0 1
157.199 0 1
157.315 0 1
157.431 0 1
157.547 0 1
157.664 0 1
157.78 0 1
157.896 0 1
158.012 0 1
158.128 0 1
158.244 0 1
158.359 0 1
158.475 0 1
158.591 0 1
158.706 0 1
