
6.15755 0 1
6.2731 0 1
6.3887 0 1
6.50437 0 1
6.62009 0 1
6.73587 0 1
6.8517 0 1
6.96759 0 1
7.08353 0 1
7.19952 0 1
7.31557 0 1
7.43166 0 1
7.54781 0 1
7.664 0 1
7.78024 0 1
7.89653 0 1
8.01286 0 1
8.12924 0 1
8.24567 0 1
8.36213 0 1
8.47864 0 1
8.59519 0 1
8.71178 0 1
8.82841 0 1
8.94508 0 1
9.06179 0 1
9.17853 0 1
9.29531 0 1
9.41212 0 1
9.52897 0 1
9.64584 0 1
9.76276 0 1
9.8797 0 1
9.99667 0 1
10.1137 0 1
10.2307 0 1
10.3478 0 1
10.4648 0 1
10.5819 0 1
10.6991 0 1
10.8162 0 1
10.9334 0 1
11.0506 0 1
11.1678 0 1
11.285 0 1
11.4023 0 1
11.5196 0 1
11.6369 0 1
11.7542 0 1
11.8715 0 1
11.9888 0 1
12.1062 0 1
12.2235 0 1
12.3409 0 1
12.4582 0 1
12.5756 0 1
12.693 0 1
12.8104 0 1
12.9278 0 1
13.0452 0 1
13.1626 0 1
13.28 0 1
13.3974 0 1
13.5149 0 1
13.6323 0 1
13.7497 0 1
13.8671 0 1
13.9845 0 1
14.1019 0 1
14.2193 0 1
14.3367 0 1
14.4541 0 1
14.5714 0 1
14.6888 0 1
14.8062 0 1
14.9235 0 1
15.0408 0 0
15.1581 0 0
15.2755 0 0
15.3927 0 0
15.51 0 0
15.6273 0 0
15.7445 0 0
15.8617 0 0
15.9789 0 0
16.0961 0 0
16.2132 0 0
16.3304 0 0
16.4475 0 0
16.5646 0 0
16.6816 0 0
16.7986 0 0
16.9156 0 0
17.0326 0 0
17.1496 0 0
17.2665 0 0
17.3833 0 0
17.5002 0 0
17.617 0 0
17.7338 0 0
17.8505 0 0
17.9672 0 0
18.0839 0 0
18.2005 0 0
18.3171 0 0
18.4337 0 0
18.5502 0 0
18.6666 0 0
18.7831 0 0
18.8994 0 0
19.0158 0 0
19.1321 0 0
19.2483 0 0
19.3645 0 0
19.4806 0 0
19.5967 0 0
19.7128 0 0
19.8288 0 0
19.9447 0 0
20.0606 0 1
20.1764 0 1
20.2922 0 1
20.4079 0 1
20.5236 0 1
20.6392 0 1
20.7548 0 1
20.8702 0 1
23.3078 0 1
23.4233 0 1
23.539 0 1
23.6547 0 1
23.7704 0 1
23.8862 0 1
24.0021 0 1
24.118 0 1
24.234 0 1
24.35 0 1
24.4661 21995 148.307
24.5822 21598 146.963
24.6984 21502 146.636
24.8146 21423 146.366
24.9309 21765 147.53
25.0472 20977 144.834
25.1636 20767 144.108
25.28 20938 144.7
25.3965 21268 145.836
25.513 21681 147.245
25.6296 22662 150.539
25.7462 24025 155
25.8628 24447 156.355
25.9795 25025 158.193
26.0962 24899 157.794
26.213 24747 157.312
26.3298 24392 156.179
26.4466 24034 155.029
26.5635 23200 152.315
26.6804 22352 149.506
26.7973 22311 149.369
26.9143 22749 150.828
27.0313 23373 152.882
27.1483 24008 154.945
27.2653 24534 156.633
27.3824 24471 156.432
27.4996 24206 155.583
27.6167 24596 156.831
27.7339 24345 156.029
27.8511 23659 153.815
27.9683 23233 152.424
28.0855 22656 150.519
28.2028 22041 148.462
28.3201 21059 145.117
28.4374 20577 143.447
28.5547 20297 142.468
28.6721 19660 140.214
28.7894 19688 140.314
28.9068 19925 141.156
29.0242 20185 142.074
29.1416 20236 142.253
29.259 21390 146.253
29.3764 21932 148.095
29.4939 22492 149.973
29.6113 22549 150.163
29.7288 22773 150.907
29.8463 22598 150.326
29.9638 21807 147.672
30.0812 20951 144.745
30.1987 20574 143.436
30.3162 20300 142.478
30.4337 21144 145.41
30.5512 21717 147.367
30.6687 22113 148.704
30.7862 23089 151.951
30.9037 22725 150.748
31.0212 23294 152.624
31.1387 23300 152.643
31.2562 22843 151.139
31.3737 22732 150.771
31.4912 22398 149.66
31.6087 21663 147.184
31.7262 21254 145.788
31.8436 20590 143.492
31.9611 20126 141.866
32.0785 19501 139.646
32.1959 19186 138.514
32.3134 18990 137.804
32.4308 19224 138.651
32.5482 19395 139.266
32.6655 20072 141.676
32.7829 20439 142.965
32.9002 21217 145.661
33.0176 21538 146.758
33.1349 21545 146.782
33.2522 21771 147.55
33.3694 21668 147.201
33.4867 21783 147.591
33.6039 21411 146.325
33.7211 20562 143.395
33.8383 19596 139.986
33.9554 19462 139.506
34.0725 19668 140.243
34.1896 20799 144.219
34.3067 21243 145.75
34.4237 21384 146.233
34.5407 21820 147.716
34.6577 22460 149.867
34.7746 22449 149.83
34.8915 22212 149.037
35.0084 22001 148.327
35.1252 21846 147.804
35.242 21739 147.442
35.3587 20818 144.284
35.4755 20163 141.996
35.5921 19623 140.082
35.7088 19112 138.246
35.8254 18303 135.289
35.9419 17946 133.963
36.0584 17769 133.3
36.1749 18087 134.488
36.2913 18394 135.624
36.4077 18766 136.989
36.524 19433 139.402
36.6403 20363 142.699
36.7565 20720 143.944
36.8727 20678 143.798
36.9889 21060 145.121
37.1049 20722 143.951
37.221 0 1
37.3369 0 1
37.4529 0 1
37.5687 0 1
37.6845 0 1
37.8003 0 1
37.916 0 1
38.0316 0 1
38.1472 0 1
40.5851 0 1
40.7008 0 1
40.8164 0 1
40.9322 0 1
41.048 0 1
41.1639 0 1
41.2798 0 1
41.3958 0 1
41.5118 0 1
41.6279 0 1
41.744 14680 121.161
41.8602 15588 124.852
41.9765 16227 127.385
42.0928 16331 127.793
42.2091 16893 129.973
42.3255 16626 128.942
42.4419 16277 127.581
42.5584 15395 124.077
42.675 14727 121.355
42.7915 14255 119.394
42.9081 14513 120.47
43.0248 15090 122.841
43.1415 15403 124.109
43.2582 15684 125.236
43.375 16548 128.639
43.4918 16551 128.651
43.6087 16333 127.801
43.7256 15994 126.467
43.8425 15614 124.956
43.9595 15672 125.188
44.0765 15064 122.735
44.1935 14425 120.104
44.3106 14156 118.979
44.4277 13491 116.151
44.5448 12548 112.018
44.6619 11614 107.768
44.7791 11175 105.712
44.8963 11329 106.438
45.0136 11346 106.518
45.1308 11458 107.042
45.2481 11594 107.675
45.3654 12080 109.909
45.4827 12150 110.227
45.6001 12710 112.739
45.7174 12345 111.108
45.8348 12608 112.285
45.9522 12242 110.644
46.0697 11356 106.565
46.1871 10609 103
46.3046 10206 101.025
46.422 10387 101.917
46.5395 10642 103.16
46.657 11100 105.357
46.7745 11146 105.575
46.892 11812 108.683
47.0096 11657 107.968
47.1271 11797 108.614
47.2446 11826 108.747
47.3622 11482 107.154
47.4797 11296 106.283
47.5973 11114 105.423
47.7149 10915 104.475
47.8324 10772 103.788
47.95 10034 100.17
48.0675 9242 96.1353
48.1851 8895 94.3133
48.3027 8506 92.228
48.4202 8246 90.8075
48.5378 8316 91.1921
48.6554 8438 91.8586
48.7729 8697 93.2577
48.8904 9223 96.0365
49.008 9372 96.8091
49.1255 9607 98.0153
49.243 9855 99.2724
49.3605 9711 98.5444
49.478 9188 95.8541
49.5955 8505 92.2226
49.713 8325 91.2414
49.8304 8231 90.7249
49.9479 8141 90.2275
50.0653 8801 93.8136
50.1827 9520 97.5705
50.3001 10191 100.95
50.4175 10629 103.097
50.5348 11066 105.195
50.6521 11230 105.972
50.7694 11470 107.098
50.8867 11516 107.313
51.004 11638 107.88
51.1212 11941 109.275
51.2384 12126 110.118
51.3556 11848 108.849
51.4727 11883 109.009
51.5899 11294 106.273
51.707 10807 103.957
51.824 10505 102.494
51.9411 11123 105.466
52.0581 11487 107.177
52.175 11968 109.398
52.2919 12678 112.597
52.4088 13437 115.918
52.5257 13844 117.661
52.6425 14177 119.067
52.7593 14344 119.766
52.876 14637 120.983
52.9927 14720 121.326
53.1094 13980 118.237
53.226 13455 115.996
53.3426 13191 114.852
53.4591 13056 114.263
53.5756 13503 116.202
53.692 14619 120.909
53.8084 15636 125.044
53.9248 16903 130.012
54.0411 17081 130.694
54.1573 17447 132.087
54.2735 0 1
54.3896 0 1
54.5057 0 1
54.6217 0 1
54.7377 0 1
54.8537 0 1
54.9695 0 1
55.0853 0 1
55.2011 0 1
55.3168 0 1
55.4324 0 1
57.824 0 1
57.9396 0 1
58.0553 0 1
58.1711 0 1
58.2869 0 1
58.4028 0 1
58.5187 0 1
58.6347 0 1
58.7508 0 1
58.8669 0 1
58.983 18150 134.722
59.0992 19703 140.367
59.2155 20451 143.007
59.3318 21054 145.1
59.4482 21232 145.712
59.5646 21465 146.509
59.681 21412 146.328
59.7975 21207 145.626
59.9141 20506 143.199
60.0306 19528 139.743
60.1473 18861 137.335
60.2639 17753 133.24
60.3807 16308 127.703
60.4974 15742 125.467
60.6142 15446 124.282
60.731 15912 126.143
60.8479 16135 127.024
60.9648 16596 128.825
61.0818 17308 131.56
61.1987 17825 133.51
61.3158 17904 133.806
61.4328 17750 133.229
61.5499 17398 131.901
61.667 16409 128.098
61.7841 15944 126.27
61.9013 15141 123.049
62.0185 15113 122.935
62.1357 15494 124.475
62.253 16589 128.798
62.3702 17997 134.153
62.4875 18657 136.591
62.6049 19182 138.499
62.7222 20065 141.651
62.8396 20267 142.362
62.9569 20676 143.792
63.0743 20724 143.958
63.1918 20973 144.821
63.3092 20518 143.241
63.4267 20501 143.182
63.5441 19842 140.862
63.6616 18675 136.657
63.7791 17740 133.192
63.8966 16508 128.483
64.0142 16068 126.76
64.1317 15822 125.786
64.2492 16586 128.787
64.3668 17157 130.985
64.4843 17974 134.067
64.6019 18576 136.294
64.7195 19001 137.844
64.837 19257 138.77
64.9546 19239 138.705
65.0722 18869 137.364
65.1898 17785 133.36
65.3074 17247 131.328
65.4249 15574 124.796
65.5425 15031 122.601
65.6601 15364 123.952
65.7777 16519 128.526
65.8952 18251 135.096
66.0128 19065 138.076
66.1304 19841 140.858
66.2479 20640 143.666
66.3655 20857 144.42
66.483 21474 146.54
66.6005 21396 146.274
66.718 21295 145.928
66.8355 21252 145.781
66.953 21068 145.148
67.0705 20136 141.901
67.1879 19629 140.104
67.3054 18475 135.923
67.4228 17149 130.954
67.5402 15757 125.527
67.6576 15028 122.589
67.7749 14729 121.363
67.8923 15636 125.044
68.0096 15849 125.893
68.1269 16938 130.146
68.2442 17269 131.412
68.3614 17724 133.132
68.4787 17812 133.462
68.5958 17441 132.064
68.713 17134 130.897
68.8302 16205 127.299
68.9473 15211 123.333
69.0643 13898 117.89
69.1814 13520 116.276
69.2984 14128 118.861
69.4154 15482 124.427
69.5323 16645 129.016
69.6492 17916 133.851
69.7661 18703 136.759
69.8829 19259 138.777
69.9997 19620 140.071
70.1165 19649 140.175
70.2332 19892 141.039
70.3499 20161 141.989
70.4665 19827 140.808
70.5831 19656 140.2
70.6996 18962 137.703
70.8161 18176 134.818
70.9326 17283 131.465
71.049 16299 127.668
71.1653 14981 122.397
71.2817 14022 118.415
71.3979 13568 116.482
71.5141 13742 117.226
71.6303 13898 117.89
71.7464 13753 117.273
71.8624 0 1
71.9784 0 1
72.0944 0 1
72.2102 0 1
72.3261 0 1
72.4418 0 1
72.5575 0 1
72.6732 0 1
75.1054 0 1
75.2209 0 1
75.3365 0 1
75.4521 0 1
75.5678 0 1
75.6835 0 1
75.7993 0 1
75.9151 0 1
76.031 0 1
76.147 16483 128.386
76.263 17424 132
76.3791 17031 130.503
76.4952 15596 124.884
76.6113 14562 120.673
76.7276 14018 118.398
76.8438 14046 118.516
76.9601 14763 121.503
77.0765 16105 126.905
77.1929 16810 129.653
77.3093 17556 132.499
77.4258 17525 132.382
77.5423 17400 131.909
77.6589 17290 131.491
77.7755 16325 127.769
77.8921 14536 120.565
78.0088 13288 115.274
78.1256 12627 112.37
78.2423 12521 111.897
78.3591 12996 114
78.4759 14688 121.194
78.5928 16381 127.988
78.7097 16941 130.158
78.8266 17255 131.358
78.9436 19024 137.928
79.0606 18771 137.007
79.1776 18879 137.401
79.2946 18891 137.445
79.4117 18843 137.27
79.5288 18461 135.871
79.6459 18339 135.422
79.7631 17353 131.731
79.8802 16834 129.746
79.9974 15689 125.256
80.1147 14384 119.933
80.2319 13215 114.957
80.3491 12796 113.119
80.4664 13168 114.752
80.5837 13830 117.601
80.701 14581 120.752
80.8183 14890 122.025
80.9357 15218 123.361
81.053 15653 125.112
81.1704 15617 124.968
81.2877 15004 122.491
81.4051 14712 121.293
81.5225 12996 114
81.6399 11956 109.343
81.7573 11480 107.145
81.8747 10807 103.957
81.9922 11350 106.536
82.1096 12801 113.142
82.227 14027 118.436
82.3444 15114 122.939
82.4619 15844 125.873
82.5793 16520 128.53
82.6967 16129 127
82.8142 16505 128.472
82.9316 16388 128.016
83.049 16281 127.597
83.1664 16008 126.523
83.2838 15383 124.028
83.4012 14617 120.901
83.5186 13943 118.08
83.636 13174 114.778
83.7534 12196 110.436
83.8708 11251 106.071
83.9881 11265 106.137
84.1055 11425 106.888
84.2228 11719 108.254
84.3401 12410 111.4
84.4575 13284 115.256
84.5747 13734 117.192
84.692 14347 119.779
84.8093 14190 119.122
84.9265 13625 116.726
85.0437 12044 109.745
85.1609 11143 105.56
85.2781 10529 102.611
85.3952 10240 101.193
85.5123 10562 102.772
85.6294 11933 109.238
85.7465 13364 115.603
85.8636 14424 120.1
85.9806 15549 124.696
86.0976 16372 127.953
86.2145 16938 130.146
86.3315 18101 134.54
86.4484 17281 131.457
86.5652 18250 135.093
86.682 18081 134.466
86.7988 17669 132.925
86.9156 17388 131.864
87.0323 16582 128.771
87.149 15859 125.933
87.2657 15414 124.153
87.3823 14269 119.453
87.4988 13422 115.853
87.6154 13944 118.085
87.7318 14302 119.591
87.8483 15348 123.887
87.9647 16078 126.799
88.081 16824 129.707
88.1973 17602 132.673
88.3136 17602 132.673
88.4298 16748 129.414
88.546 15993 126.463
88.6621 14248 119.365
88.7781 13268 115.187
88.8942 0 1
89.0101 0 1
89.126 0 1
89.2419 0 1
89.3577 0 1
89.4734 0 1
89.5891 0 1
89.7047 0 1
89.8203 0 1
89.9358 0 1
92.3269 0 1
92.4424 0 1
92.558 0 1
92.6736 0 1
92.7893 0 1
92.905 0 1
93.0208 0 1
93.1366 0 1
93.2525 0 1
93.3685 0 1
93.4845 0 1
93.6005 17069 130.648
93.7167 17181 131.076
93.8328 17323 131.617
93.949 16517 128.518
94.0653 15619 124.976
94.1816 14506 120.441
94.2979 13370 115.629
94.4143 12938 113.745
94.5307 12992 113.982
94.6472 13458 116.009
94.7637 14490 120.374
94.8803 16304 127.687
94.9969 17476 132.197
95.1135 18276 135.189
95.2302 19124 138.29
95.3469 19317 138.986
95.4637 19826 140.805
95.5805 20008 141.45
95.6973 20110 141.81
95.8142 19992 141.393
95.9311 19619 140.068
96.048 19130 138.311
96.1649 18330 135.388
96.2819 17510 132.325
96.3989 17168 131.027
96.516 16213 127.33
96.633 15494 124.475
96.7501 15285 123.633
96.8673 15509 124.535
96.9844 16065 126.748
97.1016 16705 129.248
97.2188 17685 132.985
97.336 18322 135.359
97.4532 18168 134.789
97.5704 17923 133.877
97.6877 16674 129.128
97.805 15070 122.76
97.9223 13617 116.692
98.0396 12983 113.943
98.1569 12924 113.684
98.2743 12949 113.794
98.3916 14110 118.786
98.509 15823 125.79
98.6264 17193 131.122
98.7438 18518 136.081
98.8612 19420 139.356
98.9786 19883 141.007
99.096 20223 142.208
99.2134 20632 143.638
99.3308 20800 144.222
99.4482 20633 143.642
99.5656 20312 142.52
99.6831 19048 138.014
99.8005 18752 136.938
99.9179 18281 135.207
100.035 17643 132.827
100.153 16611 128.884
100.27 15908 126.127
100.388 15964 126.349
100.505 16491 128.417
100.622 17348 131.712
100.74 17630 132.778
100.857 18395 135.628
100.975 18564 136.25
101.092 18484 135.956
101.209 17775 133.323
101.327 16606 128.864
101.444 15103 122.894
101.561 13711 117.094
101.679 13484 116.121
101.796 13358 115.577
101.913 14318 119.658
102.03 16005 126.511
102.148 18037 134.302
102.265 19030 137.949
102.382 20971 144.814
102.499 21131 145.365
102.616 21644 147.119
102.733 21954 148.169
102.851 22493 149.977
102.968 22288 149.292
103.085 21574 146.881
103.202 21018 144.976
103.319 20818 144.284
103.436 20012 141.464
103.552 19485 139.589
103.669 18089 134.495
103.786 17662 132.898
103.903 17875 133.697
104.02 18279 135.2
104.137 18644 136.543
104.253 19639 140.139
104.37 20340 142.618
104.487 20470 143.073
104.603 20694 143.854
104.72 19594 139.979
104.836 17694 133.019
104.953 16176 127.185
105.069 15069 122.756
105.186 14659 121.074
105.302 15277 123.6
105.418 16657 129.062
105.535 18973 137.743
105.651 20926 144.658
105.767 22533 150.11
105.883 23655 153.802
105.999 23725 154.029
106.115 0 1
106.231 0 1
106.347 0 1
106.463 0 1
106.579 0 1
106.694 0 1
106.81 0 1
106.926 0 1
107.041 0 1
107.157 0 1
109.576 0 1
109.692 0 1
109.807 0 1
109.923 0 1
110.039 0 1
110.155 0 1
110.27 0 1
110.386 0 1
110.502 0 1
110.618 17465 132.155
110.735 19591 139.968
110.851 21226 145.691
110.967 21663 147.184
111.083 22433 149.777
111.199 22305 149.349
111.316 23154 152.164
111.432 23034 151.77
111.549 22641 150.469
111.665 22019 148.388
111.782 21307 145.969
111.898 20518 143.241
112.015 19762 140.577
112.132 18791 137.08
112.248 17794 133.394
112.365 17894 133.768
112.482 17157 130.985
112.599 18633 136.503
112.716 18927 137.575
112.832 19082 138.138
112.949 19203 138.575
113.066 19136 138.333
113.183 18805 137.131
113.3 17873 133.69
113.417 16634 128.973
113.534 15024 122.572
113.652 14272 119.465
113.769 13762 117.312
113.886 13689 117
114.003 14703 121.256
114.12 16901 130.004
114.238 19028 137.942
114.355 20077 141.693
114.472 20537 143.307
114.589 21679 147.238
114.707 21782 147.587
114.824 21972 148.23
114.942 22410 149.7
115.059 22311 149.369
115.176 21758 147.506
115.294 21214 145.65
115.411 20718 143.937
115.529 20121 141.849
115.646 19535 139.768
115.764 18667 136.627
115.881 18098 134.529
115.999 18027 134.265
116.116 18445 135.812
116.234 19152 138.391
116.351 19448 139.456
116.469 19866 140.947
116.586 19890 141.032
116.704 19893 141.043
116.821 19029 137.946
116.939 18094 134.514
117.056 16313 127.722
117.174 15481 124.423
117.291 14811 121.7
117.409 14813 121.709
117.526 15372 123.984
117.644 17164 131.011
117.761 19036 137.971
117.879 21108 145.286
117.996 21347 146.106
118.114 22156 148.849
118.231 22744 150.811
118.349 23332 152.748
118.466 23070 151.888
118.584 23474 153.212
118.701 23043 151.799
118.819 22838 151.122
118.936 22197 148.987
119.053 21380 146.219
119.171 21134 145.375
119.288 19952 141.252
119.405 19414 139.334
119.523 18900 137.477
119.64 18962 137.703
119.757 19421 139.359
119.875 19692 140.328
119.992 19733 140.474
120.109 19823 140.794
120.226 20005 141.439
120.343 19928 141.167
120.46 19294 138.903
120.578 18118 134.603
120.695 16982 130.315
120.812 16119 126.961
120.929 15690 125.26
121.046 15401 124.101
121.163 15386 124.04
121.279 16775 129.518
121.396 18694 136.726
121.513 20116 141.831
121.63 21506 146.649
121.747 21687 147.265
121.863 22141 148.799
121.98 22507 150.023
122.097 22861 151.199
122.213 22665 150.549
122.33 22467 149.89
122.446 22253 149.174
122.563 21625 147.054
122.679 21148 145.424
122.795 20816 144.278
122.912 20258 142.331
123.028 19582 139.936
123.144 18926 137.572
123.26 18548 136.191
123.377 0 1
123.493 0 1
123.609 0 1
123.725 0 1
123.84 0 1
123.956 0 1
124.072 0 1
124.188 0 1
124.303 0 1
124.419 0 1
126.852 0 1
126.968 0 1
127.083 0 1
127.199 0 1
127.315 0 1
127.431 0 1
127.547 0 1
127.663 0 1
127.779 0 1
127.895 0 1
128.011 0 1
128.127 0 1
128.243 0 1
128.359 21103 145.269
128.476 20630 143.631
128.592 21194 145.582
128.708 21348 146.11
128.825 21768 147.54
128.941 21857 147.841
129.058 22042 148.465
129.174 21340 146.082
129.291 21468 146.52
129.408 20615 143.579
129.524 19855 140.908
129.641 18828 137.215
129.758 17717 133.105
129.875 17198 131.141
129.992 16896 129.985
130.108 16453 128.269
130.225 17932 133.91
130.342 19856 140.911
130.459 20882 144.506
130.576 22538 150.127
130.693 22308 149.359
130.81 23196 152.302
130.928 22998 151.651
131.045 23474 153.212
131.162 23373 152.882
131.279 23571 153.528
131.396 23346 152.794
131.513 23031 151.76
131.631 22408 149.693
131.748 21502 146.636
131.865 20900 144.568
131.983 20954 144.755
132.1 21393 146.263
132.217 21405 146.304
132.335 21814 147.696
132.452 21620 147.037
132.57 21967 148.213
132.687 21424 146.369
132.804 21854 147.831
132.922 20959 144.772
133.039 20258 142.331
133.157 19288 138.881
133.274 18135 134.666
133.392 17285 131.472
133.509 16881 129.927
133.627 16439 128.215
133.744 17521 132.367
133.862 19022 137.92
133.979 20631 143.635
134.097 21231 145.709
134.214 21825 147.733
134.332 22372 149.573
134.449 22962 151.532
134.567 22992 151.631
134.684 22778 150.924
134.802 23378 152.899
134.919 23583 153.568
135.037 23347 152.797
135.154 22647 150.489
135.272 21976 148.243
135.389 21185 145.551
135.507 21211 145.64
135.624 21387 146.243
135.742 22272 149.238
135.859 22156 148.849
135.977 22304 149.345
136.094 22493 149.977
136.211 22112 148.701
136.329 22327 149.422
136.446 21725 147.394
136.564 21200 145.602
136.681 20311 142.517
136.798 19265 138.798
136.915 18131 134.651
137.033 17509 132.322
137.15 16684 129.167
137.267 16774 129.514
137.384 17805 133.435
137.502 19183 138.503
137.619 20101 141.778
137.736 21040 145.052
137.853 21166 145.485
137.97 22473 149.91
138.087 22014 148.371
138.204 22716 150.718
138.321 22848 151.156
138.438 23369 152.869
138.555 23397 152.961
138.672 23306 152.663
138.788 22904 151.341
138.905 22021 148.395
139.022 21872 147.892
139.139 21979 148.253
139.255 21973 148.233
139.372 22221 149.067
139.488 22318 149.392
139.605 22389 149.63
139.721 22507 150.023
139.838 22730 150.765
139.954 22322 149.405
140.071 21620 147.037
140.187 21641 147.109
140.303 20447 142.993
140.419 19640 140.143
140.535 18686 136.697
140.652 17641 132.819
140.768 0 1
140.884 0 1
141 0 1
141.115 0 1
141.231 0 1
141.347 0 1
141.463 0 1
141.578 0 1
141.694 0 1
144.104 0 1
144.219 0 1
144.335 0 1
144.45 0 1
144.566 0 1
144.682 0 1
144.798 0 1
144.914 0 1
145.03 0 1
145.146 15128 122.996
145.262 16251 127.479
145.378 15987 126.44
145.494 15549 124.696
145.61 15172 123.175
145.726 14675 121.14
145.842 14035 118.469
145.959 13668 116.91
146.075 13490 116.146
146.192 14004 118.338
146.308 14916 122.131
146.425 15690 125.26
146.541 16268 127.546
146.658 16567 128.713
146.774 16998 130.376
146.891 17309 131.564
147.008 17915 133.847
147.125 18003 134.175
147.241 18459 135.864
147.358 18582 136.316
147.475 18729 136.854
147.592 18529 136.121
147.709 18146 134.707
147.826 17958 134.007
147.943 17742 133.199
148.06 17925 133.884
148.177 17697 133.03
148.294 18002 134.172
148.411 18233 135.03
148.528 18167 134.785
148.645 18285 135.222
148.762 18073 134.436
148.88 17714 133.094
148.997 17566 132.537
149.114 17981 134.093
149.231 17023 130.472
149.349 16191 127.244
149.466 16036 126.633
149.583 15370 123.976
149.701 15058 122.711
149.818 14546 120.607
149.935 14460 120.25
150.053 15291 123.657
150.17 16008 126.523
150.287 16420 128.141
150.405 17089 130.725
150.522 17605 132.684
150.64 18159 134.755
150.757 18750 136.931
150.875 18919 137.546
150.992 19435 139.409
151.11 19484 139.585
151.227 19406 139.305
151.344 19061 138.062
151.462 18594 136.36
151.579 19046 138.007
151.697 18770 137.004
151.814 18408 135.676
151.932 18790 137.077
152.049 18646 136.55
152.167 18913 137.525
152.284 18994 137.819
152.402 18957 137.684
152.519 19141 138.351
152.636 18912 137.521
152.754 18767 136.993
152.871 17868 133.671
152.989 17221 131.229
153.106 16469 128.332
153.223 16154 127.098
153.341 15817 125.766
153.458 15415 124.157
153.575 15649 125.096
153.693 16488 128.406
153.81 17124 130.859
153.927 17886 133.739
154.044 18724 136.836
154.162 19065 138.076
154.279 19954 141.259
154.396 20754 144.062
154.513 21034 145.031
154.63 21401 146.291
154.747 21679 147.238
154.864 21792 147.621
154.981 21865 147.868
155.098 21843 147.794
155.215 21517 146.687
155.332 21606 146.99
155.449 21566 146.854
155.566 21162 145.472
155.683 21602 146.976
155.8 21365 146.168
155.917 21314 145.993
156.033 21469 146.523
156.15 0 1
156.267 0 1
156.383 0 1
156.5 0 1
156.617 0 1
156.733 0 1
156.85 0 1
156.966 0 1
157.082 0 1
157.199 0 1
157.315 0 1
157.431 0 1
157.547 0 1
157.664 0 1
157.78 0 1
157.896 0 1
158.012 0 1
158.128 0 1
158.244 0 1
158.359 0 1
158.475 0 1
158.591 0 1
158.706 0 1
