
6.15755 0 1
6.2731 0 1
6.3887 0 1
6.50437 0 1
6.62009 0 1
6.73587 0 1
6.8517 0 1
6.96759 0 1
7.08353 0 1
7.19952 0 1
7.31557 0 1
7.43166 0 1
7.54781 0 1
7.664 0 1
7.78024 0 1
7.89653 0 1
8.01286 0 1
8.12924 0 1
8.24567 0 1
8.36213 0 1
8.47864 0 1
8.59519 0 1
8.71178 0 1
8.82841 0 1
8.94508 0 1
9.06179 0 1
9.17853 0 1
9.29531 0 1
9.41212 0 1
9.52897 0 1
9.64584 0 1
9.76276 0 1
9.8797 0 1
9.99667 0 1
10.1137 0 1
10.2307 0 1
10.3478 0 1
10.4648 0 1
10.5819 0 1
10.6991 0 1
10.8162 0 1
10.9334 0 1
11.0506 0 1
11.1678 0 1
11.285 0 1
11.4023 0 1
11.5196 0 1
11.6369 0 1
11.7542 0 1
11.8715 0 1
11.9888 0 1
12.1062 0 1
12.2235 0 1
12.3409 0 1
12.4582 0 1
12.5756 0 1
12.693 0 1
12.8104 0 1
12.9278 0 1
13.0452 0 1
13.1626 0 1
13.28 0 1
13.3974 0 1
13.5149 0 1
13.6323 0 1
13.7497 0 1
13.8671 0 1
13.9845 0 1
14.1019 0 1
14.2193 0 1
14.3367 0 1
14.4541 0 1
14.5714 0 1
14.6888 0 1
14.8062 0 1
14.9235 0 1
15.0408 787 28.0535
15.1581 836 28.9137
15.2755 959 30.9677
15.3927 921 30.348
15.51 906 30.0998
15.6273 907 30.1164
15.7445 941 30.6757
15.8617 911 30.1828
15.9789 873 29.5466
16.0961 876 29.5973
16.2132 958 30.9516
16.3304 925 30.4138
16.4475 947 30.7734
16.5646 949 30.8058
16.6816 1010 31.7805
16.7986 1096 33.1059
16.9156 1054 32.4654
17.0326 1126 33.5559
17.1496 1079 32.8481
17.2665 1076 32.8024
17.3833 1019 31.9218
17.5002 1027 32.0468
17.617 993 31.5119
17.7338 933 30.545
17.8505 923 30.3809
17.9672 986 31.4006
18.0839 907 30.1164
18.2005 929 30.4795
18.3171 1019 31.9218
18.4337 989 31.4484
18.5502 984 31.3688
18.6666 1003 31.6702
18.7831 1028 32.0624
18.8994 1066 32.6497
19.0158 1057 32.5115
19.1321 1069 32.6956
19.2483 1023 31.9844
19.3645 953 30.8707
19.4806 892 29.8664
19.5967 832 28.8444
19.7128 739 27.1846
19.8288 652 25.5343
19.9447 614 24.779
20.0606 0 1
20.1764 0 1
20.2922 0 1
20.4079 0 1
20.5236 0 1
20.6392 0 1
20.7548 0 1
20.8702 0 1
23.3078 0 1
23.4233 0 1
23.539 0 1
23.6547 0 1
23.7704 0 1
23.8862 0 1
24.0021 0 1
24.118 0 1
24.234 0 1
24.35 0 1
24.4661 452 21.2603
24.5822 535 23.1301
24.6984 599 24.4745
24.8146 576 24
24.9309 712 26.6833
25.0472 772 27.7849
25.1636 849 29.1376
25.28 906 30.0998
25.3965 982 31.3369
25.513 1086 32.9545
25.6296 1109 33.3017
25.7462 1146 33.8526
25.8628 1110 33.3167
25.9795 1127 33.5708
26.0962 1139 33.7491
26.213 1127 33.5708
26.3298 1141 33.7787
26.4466 1002 31.6544
26.5635 978 31.273
26.6804 999 31.607
26.7973 1014 31.8434
26.9143 1013 31.8277
27.0313 1001 31.6386
27.1483 1118 33.4365
27.2653 1126 33.5559
27.3824 1026 32.0312
27.4996 1129 33.6006
27.6167 1084 32.9242
27.7339 1092 33.0454
27.8511 1029 32.078
27.9683 1008 31.749
28.0855 995 31.5436
28.2028 963 31.0322
28.3201 923 30.3809
28.4374 874 29.5635
28.5547 933 30.545
28.6721 929 30.4795
28.7894 985 31.3847
28.9068 1011 31.7962
29.0242 1033 32.1403
29.1416 1152 33.9411
29.259 1092 33.0454
29.3764 1112 33.3467
29.4939 1065 32.6343
29.6113 1089 33
29.7288 990 31.4643
29.8463 1018 31.9061
29.9638 987 31.4166
30.0812 970 31.1448
30.1987 901 30.0167
30.3162 1004 31.686
30.4337 993 31.5119
30.5512 973 31.1929
30.6687 1058 32.5269
30.7862 1038 32.218
30.9037 1045 32.3265
31.0212 1030 32.0936
31.1387 1032 32.1248
31.2562 1062 32.5883
31.3737 1018 31.9061
31.4912 971 31.1609
31.6087 984 31.3688
31.7262 925 30.4138
31.8436 891 29.8496
31.9611 918 30.2985
32.0785 818 28.6007
32.1959 889 29.8161
32.3134 976 31.241
32.4308 1006 31.7175
32.5482 1034 32.1559
32.6655 1031 32.1092
32.7829 1055 32.4808
32.9002 1086 32.9545
33.0176 1084 32.9242
33.1349 995 31.5436
33.2522 988 31.4325
33.3694 1042 32.28
33.4867 959 30.9677
33.6039 914 30.2324
33.7211 850 29.1548
33.8383 901 30.0167
33.9554 862 29.3598
34.0725 901 30.0167
34.1896 909 30.1496
34.3067 914 30.2324
34.4237 1021 31.9531
34.5407 1059 32.5423
34.6577 1006 31.7175
34.7746 1038 32.218
34.8915 1000 31.6228
35.0084 983 31.3528
35.1252 977 31.257
35.242 950 30.8221
35.3587 879 29.6479
35.4755 898 29.9666
35.5921 863 29.3769
35.7088 836 28.9137
35.8254 860 29.3258
35.9419 861 29.3428
36.0584 895 29.9166
36.1749 962 31.0161
36.2913 982 31.3369
36.4077 937 30.6105
36.524 885 29.7489
36.6403 861 29.3428
36.7565 859 29.3087
36.8727 831 28.8271
36.9889 821 28.6531
37.1049 703 26.5141
37.221 0 1
37.3369 0 1
37.4529 0 1
37.5687 0 1
37.6845 0 1
37.8003 0 1
37.916 0 1
38.0316 0 1
38.1472 0 1
40.5851 0 1
40.7008 0 1
40.8164 0 1
40.9322 0 1
41.048 0 1
41.1639 0 1
41.2798 0 1
41.3958 0 1
41.5118 0 1
41.6279 0 1
41.744 480 21.9089
41.8602 528 22.9783
41.9765 572 23.9165
42.0928 611 24.7184
42.2091 597 24.4336
42.3255 569 23.8537
42.4419 626 25.02
42.5584 580 24.0832
42.675 657 25.632
42.7915 680 26.0768
42.9081 807 28.4077
43.0248 786 28.0357
43.1415 784 28
43.2582 777 27.8747
43.375 861 29.3428
43.4918 813 28.5132
43.6087 820 28.6356
43.7256 851 29.1719
43.8425 839 28.9655
43.9595 774 27.8209
44.0765 815 28.5482
44.1935 743 27.258
44.3106 734 27.0924
44.4277 695 26.3629
44.5448 674 25.9615
44.6619 665 25.7876
44.7791 700 26.4575
44.8963 813 28.5132
45.0136 814 28.5307
45.1308 853 29.2062
45.2481 831 28.8271
45.3654 828 28.775
45.4827 881 29.6816
45.6001 887 29.7825
45.7174 829 28.7924
45.8348 790 28.1069
45.9522 705 26.5518
46.0697 691 26.2869
46.1871 663 25.7488
46.3046 727 26.9629
46.422 714 26.7208
46.5395 778 27.8927
46.657 844 29.0517
46.7745 824 28.7054
46.892 834 28.8791
47.0096 854 29.2233
47.1271 877 29.6142
47.2446 898 29.9666
47.3622 871 29.5127
47.4797 857 29.2746
47.5973 802 28.3196
47.7149 771 27.7669
47.8324 775 27.8388
47.95 702 26.4953
48.0675 729 27
48.1851 706 26.5707
48.3027 691 26.2869
48.4202 738 27.1662
48.5378 805 28.3725
48.6554 866 29.4279
48.7729 876 29.5973
48.8904 898 29.9666
49.008 898 29.9666
49.1255 833 28.8617
49.243 836 28.9137
49.3605 762 27.6043
49.478 761 27.5862
49.5955 688 26.2298
49.713 661 25.7099
49.8304 707 26.5895
49.9479 766 27.6767
50.0653 806 28.3901
50.1827 788 28.0713
50.3001 824 28.7054
50.4175 840 28.9828
50.5348 856 29.2575
50.6521 914 30.2324
50.7694 928 30.4631
50.8867 898 29.9666
51.004 924 30.3974
51.1212 910 30.1662
51.2384 923 30.3809
51.3556 906 30.0998
51.4727 865 29.4109
51.5899 793 28.1603
51.707 852 29.189
51.824 898 29.9666
51.9411 926 30.4302
52.0581 1062 32.5883
52.175 1140 33.7639
52.2919 1172 34.2345
52.4088 1245 35.2846
52.5257 1284 35.8329
52.6425 1248 35.327
52.7593 1244 35.2704
52.876 1192 34.5254
52.9927 1212 34.8138
53.1094 1148 33.8821
53.226 1067 32.665
53.3426 1076 32.8024
53.4591 999 31.607
53.5756 1051 32.4191
53.692 1045 32.3265
53.8084 1016 31.8748
53.9248 942 30.692
54.0411 940 30.6594
54.1573 942 30.692
54.2735 0 1
54.3896 0 1
54.5057 0 1
54.6217 0 1
54.7377 0 1
54.8537 0 1
54.9695 0 1
55.0853 0 1
55.2011 0 1
55.3168 0 1
55.4324 0 1
57.824 0 1
57.9396 0 1
58.0553 0 1
58.1711 0 1
58.2869 0 1
58.4028 0 1
58.5187 0 1
58.6347 0 1
58.7508 0 1
58.8669 0 1
58.983 602 24.5357
59.0992 689 26.2488
59.2155 817 28.5832
59.3318 824 28.7054
59.4482 859 29.3087
59.5646 968 31.1127
59.681 977 31.257
59.7975 959 30.9677
59.9141 983 31.3528
60.0306 957 30.9354
60.1473 938 30.6268
60.2639 951 30.8383
60.3807 932 30.5287
60.4974 915 30.249
60.6142 960 30.9839
60.731 961 31
60.8479 1053 32.45
60.9648 1106 33.2566
61.0818 1088 32.9848
61.1987 1050 32.4037
61.3158 1093 33.0606
61.4328 1041 32.2645
61.5499 987 31.4166
61.667 963 31.0322
61.7841 838 28.9482
61.9013 844 29.0517
62.0185 852 29.189
62.1357 887 29.7825
62.253 933 30.545
62.3702 976 31.241
62.4875 970 31.1448
62.6049 1058 32.5269
62.7222 1017 31.8904
62.8396 1044 32.311
62.9569 1122 33.4963
63.0743 1053 32.45
63.1918 1080 32.8634
63.3092 1076 32.8024
63.4267 988 31.4325
63.5441 986 31.4006
63.6616 878 29.6311
63.7791 966 31.0805
63.8966 800 28.2843
64.0142 837 28.931
64.1317 873 29.5466
64.2492 978 31.273
64.3668 990 31.4643
64.4843 1044 32.311
64.6019 1055 32.4808
64.7195 1066 32.6497
64.837 1008 31.749
64.9546 1011 31.7962
65.0722 962 31.0161
65.1898 945 30.7409
65.3074 898 29.9666
65.4249 855 29.2404
65.5425 827 28.7576
65.6601 813 28.5132
65.7777 845 29.0689
65.8952 875 29.5804
66.0128 993 31.5119
66.1304 997 31.5753
66.2479 985 31.3847
66.3655 1012 31.8119
66.483 949 30.8058
66.6005 1125 33.541
66.718 1049 32.3883
66.8355 1028 32.0624
66.953 1053 32.45
67.0705 994 31.5278
67.1879 970 31.1448
67.3054 936 30.5941
67.4228 880 29.6648
67.5402 791 28.1247
67.6576 831 28.8271
67.7749 848 29.1204
67.8923 919 30.315
68.0096 1049 32.3883
68.1269 1050 32.4037
68.2442 1013 31.8277
68.3614 1010 31.7805
68.4787 1005 31.7017
68.5958 1026 32.0312
68.713 975 31.225
68.8302 985 31.3847
68.9473 863 29.3769
69.0643 824 28.7054
69.1814 746 27.313
69.2984 769 27.7308
69.4154 863 29.3769
69.5323 919 30.315
69.6492 911 30.1828
69.7661 1014 31.8434
69.8829 1006 31.7175
69.9997 940 30.6594
70.1165 923 30.3809
70.2332 917 30.282
70.3499 899 29.9833
70.4665 840 28.9828
70.5831 841 29
70.6996 764 27.6405
70.8161 703 26.5141
70.9326 680 26.0768
71.049 531 23.0434
71.1653 469 21.6564
71.2817 398 19.9499
71.3979 422 20.5426
71.5141 390 19.7484
71.6303 371 19.2614
71.7464 366 19.1311
71.8624 0 1
71.9784 0 1
72.0944 0 1
72.2102 0 1
72.3261 0 1
72.4418 0 1
72.5575 0 1
72.6732 0 1
75.1054 0 1
75.2209 0 1
75.3365 0 1
75.4521 0 1
75.5678 0 1
75.6835 0 1
75.7993 0 1
75.9151 0 1
76.031 0 1
76.147 625 25
76.263 627 25.04
76.3791 605 24.5967
76.4952 627 25.04
76.6113 667 25.8263
76.7276 698 26.4197
76.8438 739 27.1846
76.9601 862 29.3598
77.0765 847 29.1033
77.1929 911 30.1828
77.3093 910 30.1662
77.4258 890 29.8329
77.5423 888 29.7993
77.6589 840 28.9828
77.7755 784 28
77.8921 756 27.4955
78.0088 740 27.2029
78.1256 651 25.5147
78.2423 696 26.3818
78.3591 657 25.632
78.4759 729 27
78.5928 836 28.9137
78.7097 818 28.6007
78.8266 858 29.2916
78.9436 917 30.282
79.0606 889 29.8161
79.1776 893 29.8831
79.2946 910 30.1662
79.4117 884 29.7321
79.5288 891 29.8496
79.6459 918 30.2985
79.7631 897 29.95
79.8802 811 28.4781
79.9974 781 27.9464
80.1147 757 27.5136
80.2319 695 26.3629
80.3491 712 26.6833
80.4664 757 27.5136
80.5837 807 28.4077
80.701 898 29.9666
80.8183 929 30.4795
80.9357 915 30.249
81.053 931 30.5123
81.1704 943 30.7083
81.2877 943 30.7083
81.4051 918 30.2985
81.5225 805 28.3725
81.6399 786 28.0357
81.7573 716 26.7582
81.8747 661 25.7099
81.9922 638 25.2587
82.1096 732 27.0555
82.227 791 28.1247
82.3444 845 29.0689
82.4619 896 29.9333
82.5793 893 29.8831
82.6967 882 29.6985
82.8142 891 29.8496
82.9316 932 30.5287
83.049 903 30.05
83.1664 920 30.3315
83.2838 866 29.4279
83.4012 913 30.2159
83.5186 878 29.6311
83.636 856 29.2575
83.7534 767 27.6948
83.8708 738 27.1662
83.9881 705 26.5518
84.1055 720 26.8328
84.2228 791 28.1247
84.3401 884 29.7321
84.4575 960 30.9839
84.5747 927 30.4467
84.692 980 31.305
84.8093 954 30.8869
84.9265 874 29.5635
85.0437 949 30.8058
85.1609 860 29.3258
85.2781 721 26.8514
85.3952 710 26.6458
85.5123 646 25.4165
85.6294 650 25.4951
85.7465 761 27.5862
85.8636 857 29.2746
85.9806 840 28.9828
86.0976 864 29.3939
86.2145 890 29.8329
86.3315 948 30.7896
86.4484 926 30.4302
86.5652 983 31.3528
86.682 948 30.7896
86.7988 927 30.4467
86.9156 896 29.9333
87.0323 859 29.3087
87.149 894 29.8998
87.2657 844 29.0517
87.3823 729 27
87.4988 673 25.9422
87.6154 642 25.3377
87.7318 651 25.5147
87.8483 632 25.1396
87.9647 740 27.2029
88.081 757 27.5136
88.1973 793 28.1603
88.3136 736 27.1293
88.4298 722 26.8701
88.546 662 25.7294
88.6621 583 24.1454
88.7781 421 20.5183
88.8942 0 1
89.0101 0 1
89.126 0 1
89.2419 0 1
89.3577 0 1
89.4734 0 1
89.5891 0 1
89.7047 0 1
89.8203 0 1
89.9358 0 1
92.3269 0 1
92.4424 0 1
92.558 0 1
92.6736 0 1
92.7893 0 1
92.905 0 1
93.0208 0 1
93.1366 0 1
93.2525 0 1
93.3685 0 1
93.4845 0 1
93.6005 738 27.1662
93.7167 714 26.7208
93.8328 793 28.1603
93.949 808 28.4253
94.0653 787 28.0535
94.1816 866 29.4279
94.2979 854 29.2233
94.4143 751 27.4044
94.5307 747 27.3313
94.6472 747 27.3313
94.7637 731 27.037
94.8803 716 26.7582
94.9969 779 27.9106
95.1135 847 29.1033
95.2302 891 29.8496
95.3469 957 30.9354
95.4637 918 30.2985
95.5805 935 30.5778
95.6973 981 31.3209
95.8142 959 30.9677
95.9311 934 30.5614
96.048 977 31.257
96.1649 956 30.9192
96.2819 960 30.9839
96.3989 950 30.8221
96.516 795 28.1957
96.633 849 29.1376
96.7501 758 27.5318
96.8673 745 27.2947
96.9844 772 27.7849
97.1016 834 28.8791
97.2188 911 30.1828
97.336 964 31.0483
97.4532 1000 31.6228
97.5704 1011 31.7962
97.6877 971 31.1609
97.805 1004 31.686
97.9223 930 30.4959
98.0396 759 27.55
98.1569 785 28.0179
98.2743 758 27.5318
98.3916 754 27.4591
98.509 791 28.1247
98.6264 819 28.6182
98.7438 917 30.282
98.8612 923 30.3809
98.9786 959 30.9677
99.096 971 31.1609
99.2134 987 31.4166
99.3308 1041 32.2645
99.4482 1029 32.078
99.5656 993 31.5119
99.6831 977 31.257
99.8005 998 31.5911
99.9179 939 30.6431
100.035 909 30.1496
100.153 888 29.7993
100.27 876 29.5973
100.388 858 29.2916
100.505 904 30.0666
100.622 890 29.8329
100.74 982 31.3369
100.857 1039 32.2335
100.975 1008 31.749
101.092 1011 31.7962
101.209 1051 32.4191
101.327 1025 32.0156
101.444 1002 31.6544
101.561 903 30.05
101.679 833 28.8617
101.796 730 27.0185
101.913 714 26.7208
102.03 756 27.4955
102.148 826 28.7402
102.265 890 29.8329
102.382 1014 31.8434
102.499 1013 31.8277
102.616 985 31.3847
102.733 1070 32.7109
102.851 1103 33.2114
102.968 1115 33.3916
103.085 1119 33.4515
103.202 1039 32.2335
103.319 1108 33.2866
103.436 1046 32.3419
103.552 991 31.4802
103.669 986 31.4006
103.786 866 29.4279
103.903 810 28.4605
104.02 895 29.9166
104.137 963 31.0322
104.253 994 31.5278
104.37 1068 32.6803
104.487 1112 33.3467
104.603 1133 33.6601
104.72 1153 33.9559
104.836 1058 32.5269
104.953 978 31.273
105.069 844 29.0517
105.186 761 27.5862
105.302 717 26.7769
105.418 699 26.4386
105.535 631 25.1197
105.651 683 26.1343
105.767 711 26.6646
105.883 686 26.1916
105.999 652 25.5343
106.115 0 1
106.231 0 1
106.347 0 1
106.463 0 1
106.579 0 1
106.694 0 1
106.81 0 1
106.926 0 1
107.041 0 1
107.157 0 1
109.576 0 1
109.692 0 1
109.807 0 1
109.923 0 1
110.039 0 1
110.155 0 1
110.27 0 1
110.386 0 1
110.502 0 1
110.618 456 21.3542
110.735 576 24
110.851 685 26.1725
110.967 741 27.2213
111.083 812 28.4956
111.199 967 31.0966
111.316 972 31.1769
111.432 1007 31.7333
111.549 1013 31.8277
111.665 1034 32.1559
111.782 1014 31.8434
111.898 1051 32.4191
112.015 1005 31.7017
112.132 947 30.7734
112.248 905 30.0832
112.365 818 28.6007
112.482 811 28.4781
112.599 907 30.1164
112.716 954 30.8869
112.832 1020 31.9374
112.949 1011 31.7962
113.066 1038 32.218
113.183 1028 32.0624
113.3 1100 33.1662
113.417 1112 33.3467
113.534 1014 31.8434
113.652 868 29.4618
113.769 859 29.3087
113.886 775 27.8388
114.003 684 26.1534
114.12 846 29.0861
114.238 883 29.7153
114.355 891 29.8496
114.472 906 30.0998
114.589 1064 32.619
114.707 1107 33.2716
114.824 1114 33.3766
114.942 1070 32.7109
115.059 1052 32.4345
115.176 1104 33.2265
115.294 1110 33.3167
115.411 1051 32.4191
115.529 1092 33.0454
115.646 995 31.5436
115.764 995 31.5436
115.881 958 30.9516
115.999 909 30.1496
116.116 919 30.315
116.234 910 30.1662
116.351 1013 31.8277
116.469 1001 31.6386
116.586 1040 32.249
116.704 1043 32.2955
116.821 1036 32.187
116.939 1028 32.0624
117.056 1065 32.6343
117.174 927 30.4467
117.291 883 29.7153
117.409 808 28.4253
117.526 681 26.096
117.644 781 27.9464
117.761 786 28.0357
117.879 877 29.6142
117.996 932 30.5287
118.114 943 30.7083
118.231 979 31.289
118.349 979 31.289
118.466 1031 32.1092
118.584 988 31.4325
118.701 1012 31.8119
118.819 1000 31.6228
118.936 957 30.9354
119.053 970 31.1448
119.171 930 30.4959
119.288 906 30.0998
119.405 854 29.2233
119.523 754 27.4591
119.64 798 28.2489
119.757 792 28.1425
119.875 848 29.1204
119.992 932 30.5287
120.109 931 30.5123
120.226 895 29.9166
120.343 925 30.4138
120.46 935 30.5778
120.578 938 30.6268
120.695 897 29.95
120.812 887 29.7825
120.929 796 28.2135
121.046 726 26.9444
121.163 706 26.5707
121.279 636 25.219
121.396 676 26
121.513 664 25.7682
121.63 720 26.8328
121.747 788 28.0713
121.863 736 27.1293
121.98 759 27.55
122.097 723 26.8887
122.213 746 27.313
122.33 708 26.6083
122.446 682 26.1151
122.563 674 25.9615
122.679 631 25.1197
122.795 577 24.0208
122.912 542 23.2809
123.028 456 21.3542
123.144 402 20.0499
123.26 380 19.4936
123.377 0 1
123.493 0 1
123.609 0 1
123.725 0 1
123.84 0 1
123.956 0 1
124.072 0 1
124.188 0 1
124.303 0 1
124.419 0 1
126.852 0 1
126.968 0 1
127.083 0 1
127.199 0 1
127.315 0 1
127.431 0 1
127.547 0 1
127.663 0 1
127.779 0 1
127.895 0 1
128.011 0 1
128.127 0 1
128.243 0 1
128.359 880 29.6648
128.476 853 29.2062
128.592 903 30.05
128.708 810 28.4605
128.825 869 29.4788
128.941 931 30.5123
129.058 940 30.6594
129.174 1035 32.1714
129.291 1099 33.1512
129.408 1066 32.6497
129.524 1004 31.686
129.641 1074 32.7719
129.758 1054 32.4654
129.875 922 30.3645
129.992 924 30.3974
130.108 825 28.7228
130.225 738 27.1662
130.342 766 27.6767
130.459 786 28.0357
130.576 855 29.2404
130.693 916 30.2655
130.81 952 30.8545
130.928 978 31.273
131.045 932 30.5287
131.162 1018 31.9061
131.279 1026 32.0312
131.396 1069 32.6956
131.513 1040 32.249
131.631 1013 31.8277
131.748 1026 32.0312
131.865 983 31.3528
131.983 894 29.8998
132.1 914 30.2324
132.217 894 29.8998
132.335 931 30.5123
132.452 921 30.348
132.57 975 31.225
132.687 1021 31.9531
132.804 988 31.4325
132.922 1036 32.187
133.039 991 31.4802
133.157 1102 33.1964
133.274 1003 31.6702
133.392 1029 32.078
133.509 963 31.0322
133.627 913 30.2159
133.744 827 28.7576
133.862 810 28.4605
133.979 817 28.5832
134.097 887 29.7825
134.214 919 30.315
134.332 971 31.1609
134.449 985 31.3847
134.567 972 31.1769
134.684 1045 32.3265
134.802 1046 32.3419
134.919 1056 32.4962
135.037 1071 32.7261
135.154 1000 31.6228
135.272 1054 32.4654
135.389 1030 32.0936
135.507 983 31.3528
135.624 932 30.5287
135.742 894 29.8998
135.859 949 30.8058
135.977 912 30.1993
136.094 957 30.9354
136.211 1001 31.6386
136.329 1099 33.1512
136.446 1063 32.6037
136.564 1009 31.7648
136.681 1092 33.0454
136.798 1033 32.1403
136.915 1066 32.6497
137.033 1011 31.7962
137.15 965 31.0644
137.267 891 29.8496
137.384 848 29.1204
137.502 830 28.8097
137.619 805 28.3725
137.736 899 29.9833
137.853 902 30.0333
137.97 908 30.133
138.087 1029 32.078
138.204 960 30.9839
138.321 1006 31.7175
138.438 1035 32.1714
138.555 1040 32.249
138.672 1051 32.4191
138.788 967 31.0966
138.905 970 31.1448
139.022 877 29.6142
139.139 853 29.2062
139.255 765 27.6586
139.372 762 27.6043
139.488 716 26.7582
139.605 704 26.533
139.721 698 26.4197
139.838 684 26.1534
139.954 692 26.3059
140.071 665 25.7876
140.187 624 24.98
140.303 569 23.8537
140.419 582 24.1247
140.535 507 22.5167
140.652 464 21.5407
140.768 0 1
140.884 0 1
141 0 1
141.115 0 1
141.231 0 1
141.347 0 1
141.463 0 1
141.578 0 1
141.694 0 1
144.104 0 1
144.219 0 1
144.335 0 1
144.45 0 1
144.566 0 1
144.682 0 1
144.798 0 1
144.914 0 1
145.03 0 1
145.146 752 27.4226
145.262 828 28.775
145.378 887 29.7825
145.494 866 29.4279
145.61 844 29.0517
145.726 935 30.5778
145.842 784 28
145.959 747 27.3313
146.075 679 26.0576
146.192 660 25.6905
146.308 658 25.6515
146.425 725 26.9258
146.541 733 27.074
146.658 734 27.0924
146.774 710 26.6458
146.891 765 27.6586
147.008 824 28.7054
147.125 731 27.037
147.241 800 28.2843
147.358 850 29.1548
147.475 792 28.1425
147.592 830 28.8097
147.709 829 28.7924
147.826 789 28.0891
147.943 722 26.8701
148.06 765 27.6586
148.177 721 26.8514
148.294 649 25.4755
148.411 721 26.8514
148.528 731 27.037
148.645 750 27.3861
148.762 850 29.1548
148.88 850 29.1548
148.997 851 29.1719
149.114 804 28.3549
149.231 860 29.3258
149.349 845 29.0689
149.466 794 28.178
149.583 736 27.1293
149.701 702 26.4953
149.818 706 26.5707
149.935 675 25.9808
150.053 651 25.5147
150.17 669 25.865
150.287 756 27.4955
150.405 691 26.2869
150.522 726 26.9444
150.64 776 27.8568
150.757 777 27.8747
150.875 765 27.6586
150.992 793 28.1603
151.11 789 28.0891
151.227 805 28.3725
151.344 727 26.9629
151.462 743 27.258
151.579 719 26.8142
151.697 709 26.6271
151.814 662 25.7294
151.932 679 26.0576
152.049 667 25.8263
152.167 684 26.1534
152.284 757 27.5136
152.402 753 27.4408
152.519 805 28.3725
152.636 776 27.8568
152.754 768 27.7128
152.871 755 27.4773
152.989 767 27.6948
153.106 812 28.4956
153.223 752 27.4226
153.341 679 26.0576
153.458 661 25.7099
153.575 627 25.04
153.693 681 26.096
153.81 612 24.7386
153.927 628 25.0599
154.044 638 25.2587
154.162 717 26.7769
154.279 651 25.5147
154.396 766 27.6767
154.513 732 27.0555
154.63 705 26.5518
154.747 745 27.2947
154.864 721 26.8514
154.981 650 25.4951
155.098 677 26.0192
155.215 704 26.533
155.332 641 25.318
155.449 632 25.1396
155.566 666 25.807
155.683 645 25.3969
155.8 654 25.5734
155.917 659 25.671
156.033 659 25.671
156.15 0 1
156.267 0 1
156.383 0 1
156.5 0 1
156.617 0 1
156.733 0 1
156.85 0 1
156.966 0 1
157.082 0 1
157.199 0 1
157.315 0 1
157.431 0 1
157.547 0 1
157.664 0 1
157.78 0 1
157.896 0 1
158.012 0 1
158.128 0 1
158.244 0 1
158.359 0 1
158.475 0 1
158.591 0 1
158.706 0 1
