
6.15755 0 1
6.2731 0 1
6.3887 0 1
6.50437 0 1
6.62009 0 1
6.73587 0 1
6.8517 0 1
6.96759 0 1
7.08353 0 1
7.19952 0 1
7.31557 0 1
7.43166 0 1
7.54781 0 1
7.664 0 1
7.78024 0 1
7.89653 0 1
8.01286 0 1
8.12924 0 1
8.24567 0 1
8.36213 0 1
8.47864 0 1
8.59519 0 1
8.71178 0 1
8.82841 0 1
8.94508 0 1
9.06179 0 1
9.17853 0 1
9.29531 0 1
9.41212 0 1
9.52897 0 1
9.64584 0 1
9.76276 0 1
9.8797 0 1
9.99667 0 1
10.1137 0 1
10.2307 0 1
10.3478 0 1
10.4648 0 1
10.5819 0 1
10.6991 0 1
10.8162 0 1
10.9334 0 1
11.0506 0 1
11.1678 0 1
11.285 0 1
11.4023 0 1
11.5196 0 1
11.6369 0 1
11.7542 0 1
11.8715 0 1
11.9888 0 1
12.1062 0 1
12.2235 0 1
12.3409 0 1
12.4582 0 1
12.5756 0 1
12.693 0 1
12.8104 0 1
12.9278 0 1
13.0452 0 1
13.1626 0 1
13.28 0 1
13.3974 0 1
13.5149 0 1
13.6323 0 1
13.7497 0 1
13.8671 0 1
13.9845 0 1
14.1019 0 1
14.2193 0 1
14.3367 0 1
14.4541 0 1
14.5714 0 1
14.6888 0 1
14.8062 0 1
14.9235 0 1
15.0408 1179 34.3366
15.1581 1272 35.6651
15.2755 1277 35.7351
15.3927 1326 36.4143
15.51 1267 35.5949
15.6273 1277 35.7351
15.7445 1265 35.5668
15.8617 1303 36.0971
15.9789 1284 35.8329
16.0961 1214 34.8425
16.2132 1232 35.0999
16.3304 1321 36.3456
16.4475 1295 35.9861
16.5646 1266 35.5809
16.6816 1388 37.2559
16.7986 1418 37.6563
16.9156 1421 37.6962
17.0326 1403 37.4566
17.1496 1421 37.6962
17.2665 1403 37.4566
17.3833 1328 36.4417
17.5002 1368 36.9865
17.617 1305 36.1248
17.7338 1183 34.3948
17.8505 1156 34
17.9672 1167 34.1614
18.0839 1173 34.2491
18.2005 1217 34.8855
18.3171 1259 35.4824
18.4337 1260 35.4965
18.5502 1259 35.4824
18.6666 1258 35.4683
18.7831 1351 36.756
18.8994 1324 36.3868
19.0158 1293 35.9583
19.1321 1166 34.1467
19.2483 1180 34.3511
19.3645 1166 34.1467
19.4806 1091 33.0303
19.5967 1003 31.6702
19.7128 849 29.1376
19.8288 890 29.8329
19.9447 761 27.5862
20.0606 0 1
20.1764 0 1
20.2922 0 1
20.4079 0 1
20.5236 0 1
20.6392 0 1
20.7548 0 1
20.8702 0 1
23.3078 0 1
23.4233 0 1
23.539 0 1
23.6547 0 1
23.7704 0 1
23.8862 0 1
24.0021 0 1
24.118 0 1
24.234 0 1
24.35 0 1
24.4661 433 20.8087
24.5822 509 22.561
24.6984 551 23.4734
24.8146 650 25.4951
24.9309 732 27.0555
25.0472 847 29.1033
25.1636 861 29.3428
25.28 942 30.692
25.3965 1073 32.7567
25.513 1012 31.8119
25.6296 1093 33.0606
25.7462 1150 33.9116
25.8628 1204 34.6987
25.9795 1194 34.5543
26.0962 1198 34.6121
26.213 1167 34.1614
26.3298 1100 33.1662
26.4466 1022 31.9687
26.5635 1082 32.8938
26.6804 987 31.4166
26.7973 1081 32.8786
26.9143 1029 32.078
27.0313 1107 33.2716
27.1483 1079 32.8481
27.2653 1115 33.3916
27.3824 1151 33.9264
27.4996 1082 32.8938
27.6167 1101 33.1813
27.7339 1002 31.6544
27.8511 1035 32.1714
27.9683 998 31.5911
28.0855 953 30.8707
28.2028 892 29.8664
28.3201 915 30.249
28.4374 942 30.692
28.5547 924 30.3974
28.6721 938 30.6268
28.7894 939 30.6431
28.9068 1026 32.0312
29.0242 1032 32.1248
29.1416 1025 32.0156
29.259 1100 33.1662
29.3764 1018 31.9061
29.4939 1053 32.45
29.6113 1084 32.9242
29.7288 1036 32.187
29.8463 989 31.4484
29.9638 957 30.9354
30.0812 926 30.4302
30.1987 961 31
30.3162 918 30.2985
30.4337 907 30.1164
30.5512 911 30.1828
30.6687 966 31.0805
30.7862 932 30.5287
30.9037 939 30.6431
31.0212 960 30.9839
31.1387 995 31.5436
31.2562 987 31.4166
31.3737 989 31.4484
31.4912 927 30.4467
31.6087 911 30.1828
31.7262 882 29.6985
31.8436 831 28.8271
31.9611 786 28.0357
32.0785 779 27.9106
32.1959 811 28.4781
32.3134 911 30.1828
32.4308 950 30.8221
32.5482 967 31.0966
32.6655 925 30.4138
32.7829 941 30.6757
32.9002 1004 31.686
33.0176 940 30.6594
33.1349 982 31.3369
33.2522 973 31.1929
33.3694 877 29.6142
33.4867 874 29.5635
33.6039 842 29.0172
33.7211 837 28.931
33.8383 814 28.5307
33.9554 857 29.2746
34.0725 829 28.7924
34.1896 843 29.0345
34.3067 891 29.8496
34.4237 915 30.249
34.5407 907 30.1164
34.6577 880 29.6648
34.7746 896 29.9333
34.8915 929 30.4795
35.0084 890 29.8329
35.1252 897 29.95
35.242 775 27.8388
35.3587 802 28.3196
35.4755 811 28.4781
35.5921 802 28.3196
35.7088 723 26.8887
35.8254 770 27.7489
35.9419 791 28.1247
36.0584 740 27.2029
36.1749 796 28.2135
36.2913 817 28.5832
36.4077 818 28.6007
36.524 806 28.3901
36.6403 791 28.1247
36.7565 761 27.5862
36.8727 741 27.2213
36.9889 685 26.1725
37.1049 640 25.2982
37.221 0 1
37.3369 0 1
37.4529 0 1
37.5687 0 1
37.6845 0 1
37.8003 0 1
37.916 0 1
38.0316 0 1
38.1472 0 1
40.5851 0 1
40.7008 0 1
40.8164 0 1
40.9322 0 1
41.048 0 1
41.1639 0 1
41.2798 0 1
41.3958 0 1
41.5118 0 1
41.6279 0 1
41.744 391 19.7737
41.8602 411 20.2731
41.9765 469 21.6564
42.0928 552 23.4947
42.2091 513 22.6495
42.3255 541 23.2594
42.4419 502 22.4054
42.5584 540 23.2379
42.675 592 24.3311
42.7915 579 24.0624
42.9081 639 25.2784
43.0248 671 25.9037
43.1415 782 27.9643
43.2582 671 25.9037
43.375 756 27.4955
43.4918 743 27.258
43.6087 757 27.5136
43.7256 637 25.2389
43.8425 742 27.2397
43.9595 678 26.0384
44.0765 681 26.096
44.1935 672 25.923
44.3106 629 25.0799
44.4277 616 24.8193
44.5448 577 24.0208
44.6619 586 24.2074
44.7791 579 24.0624
44.8963 661 25.7099
45.0136 626 25.02
45.1308 729 27
45.2481 719 26.8142
45.3654 736 27.1293
45.4827 738 27.1662
45.6001 738 27.1662
45.7174 714 26.7208
45.8348 738 27.1662
45.9522 686 26.1916
46.0697 680 26.0768
46.1871 623 24.96
46.3046 619 24.8797
46.422 689 26.2488
46.5395 672 25.923
46.657 714 26.7208
46.7745 703 26.5141
46.892 739 27.1846
47.0096 755 27.4773
47.1271 754 27.4591
47.2446 760 27.5681
47.3622 707 26.5895
47.4797 773 27.8029
47.5973 722 26.8701
47.7149 660 25.6905
47.8324 717 26.7769
47.95 670 25.8844
48.0675 602 24.5357
48.1851 627 25.04
48.3027 576 24
48.4202 631 25.1197
48.5378 641 25.318
48.6554 690 26.2679
48.7729 722 26.8701
48.8904 737 27.1477
49.008 782 27.9643
49.1255 736 27.1293
49.243 734 27.0924
49.3605 685 26.1725
49.478 679 26.0576
49.5955 675 25.9808
49.713 565 23.7697
49.8304 594 24.3721
49.9479 636 25.219
50.0653 654 25.5734
50.1827 699 26.4386
50.3001 721 26.8514
50.4175 725 26.9258
50.5348 783 27.9821
50.6521 751 27.4044
50.7694 748 27.3496
50.8867 686 26.1916
51.004 695 26.3629
51.1212 674 25.9615
51.2384 647 25.4362
51.3556 686 26.1916
51.4727 614 24.779
51.5899 640 25.2982
51.707 598 24.454
51.824 579 24.0624
51.9411 596 24.4131
52.0581 642 25.3377
52.175 753 27.4408
52.2919 762 27.6043
52.4088 785 28.0179
52.5257 746 27.313
52.6425 714 26.7208
52.7593 739 27.1846
52.876 732 27.0555
52.9927 696 26.3818
53.1094 681 26.096
53.226 599 24.4745
53.3426 628 25.0599
53.4591 669 25.865
53.5756 600 24.4949
53.692 640 25.2982
53.8084 608 24.6577
53.9248 623 24.96
54.0411 598 24.454
54.1573 507 22.5167
54.2735 0 1
54.3896 0 1
54.5057 0 1
54.6217 0 1
54.7377 0 1
54.8537 0 1
54.9695 0 1
55.0853 0 1
55.2011 0 1
55.3168 0 1
55.4324 0 1
57.824 0 1
57.9396 0 1
58.0553 0 1
58.1711 0 1
58.2869 0 1
58.4028 0 1
58.5187 0 1
58.6347 0 1
58.7508 0 1
58.8669 0 1
58.983 467 21.6102
59.0992 588 24.2487
59.2155 585 24.1868
59.3318 700 26.4575
59.4482 749 27.3679
59.5646 829 28.7924
59.681 855 29.2404
59.7975 843 29.0345
59.9141 901 30.0167
60.0306 864 29.3939
60.1473 899 29.9833
60.2639 804 28.3549
60.3807 824 28.7054
60.4974 786 28.0357
60.6142 809 28.4429
60.731 876 29.5973
60.8479 862 29.3598
60.9648 904 30.0666
61.0818 966 31.0805
61.1987 1002 31.6544
61.3158 1032 32.1248
61.4328 982 31.3369
61.5499 948 30.7896
61.667 933 30.545
61.7841 861 29.3428
61.9013 803 28.3373
62.0185 808 28.4253
62.1357 867 29.4449
62.253 917 30.282
62.3702 952 30.8545
62.4875 938 30.6268
62.6049 989 31.4484
62.7222 987 31.4166
62.8396 1023 31.9844
62.9569 992 31.496
63.0743 1084 32.9242
63.1918 999 31.607
63.3092 1048 32.3728
63.4267 1008 31.749
63.5441 956 30.9192
63.6616 977 31.257
63.7791 916 30.2655
63.8966 821 28.6531
64.0142 781 27.9464
64.1317 785 28.0179
64.2492 867 29.4449
64.3668 907 30.1164
64.4843 1015 31.8591
64.6019 1016 31.8748
64.7195 1014 31.8434
64.837 1117 33.4215
64.9546 1068 32.6803
65.0722 1071 32.7261
65.1898 1018 31.9061
65.3074 1016 31.8748
65.4249 892 29.8664
65.5425 879 29.6479
65.6601 896 29.9333
65.7777 904 30.0666
65.8952 899 29.9833
66.0128 960 30.9839
66.1304 1051 32.4191
66.2479 1083 32.909
66.3655 1118 33.4365
66.483 1126 33.5559
66.6005 1081 32.8786
66.718 1133 33.6601
66.8355 1124 33.5261
66.953 1094 33.0757
67.0705 1097 33.121
67.1879 992 31.496
67.3054 966 31.0805
67.4228 877 29.6142
67.5402 897 29.95
67.6576 872 29.5296
67.7749 799 28.2666
67.8923 915 30.249
68.0096 961 31
68.1269 979 31.289
68.2442 1087 32.9697
68.3614 1145 33.8378
68.4787 1083 32.909
68.5958 1159 34.0441
68.713 1084 32.9242
68.8302 1093 33.0606
68.9473 1044 32.311
69.0643 940 30.6594
69.1814 938 30.6268
69.2984 928 30.4631
69.4154 970 31.1448
69.5323 964 31.0483
69.6492 1032 32.1248
69.7661 1139 33.7491
69.8829 1131 33.6303
69.9997 1144 33.8231
70.1165 1085 32.9393
70.2332 1050 32.4037
70.3499 1084 32.9242
70.4665 1003 31.6702
70.5831 984 31.3688
70.6996 916 30.2655
70.8161 850 29.1548
70.9326 807 28.4077
71.049 700 26.4575
71.1653 645 25.3969
71.2817 516 22.7156
71.3979 402 20.0499
71.5141 387 19.6723
71.6303 386 19.6469
71.7464 331 18.1934
71.8624 0 1
71.9784 0 1
72.0944 0 1
72.2102 0 1
72.3261 0 1
72.4418 0 1
72.5575 0 1
72.6732 0 1
75.1054 0 1
75.2209 0 1
75.3365 0 1
75.4521 0 1
75.5678 0 1
75.6835 0 1
75.7993 0 1
75.9151 0 1
76.031 0 1
76.147 688 26.2298
76.263 717 26.7769
76.3791 778 27.8927
76.4952 735 27.1109
76.6113 749 27.3679
76.7276 746 27.313
76.8438 779 27.9106
76.9601 858 29.2916
77.0765 1001 31.6386
77.1929 993 31.5119
77.3093 1069 32.6956
77.4258 1087 32.9697
77.5423 1085 32.9393
77.6589 1092 33.0454
77.7755 1077 32.8177
77.8921 988 31.4325
78.0088 937 30.6105
78.1256 856 29.2575
78.2423 844 29.0517
78.3591 813 28.5132
78.4759 867 29.4449
78.5928 965 31.0644
78.7097 954 30.8869
78.8266 1040 32.249
78.9436 1048 32.3728
79.0606 1106 33.2566
79.1776 1072 32.7414
79.2946 1078 32.8329
79.4117 1145 33.8378
79.5288 1038 32.218
79.6459 1060 32.5576
79.7631 1089 33
79.8802 1013 31.8277
79.9974 1055 32.4808
80.1147 925 30.4138
80.2319 871 29.5127
80.3491 763 27.6225
80.4664 729 27
80.5837 850 29.1548
80.701 872 29.5296
80.8183 1015 31.8591
80.9357 1095 33.0908
81.053 1062 32.5883
81.1704 972 31.1769
81.2877 1045 32.3265
81.4051 1014 31.8434
81.5225 1078 32.8329
81.6399 990 31.4643
81.7573 839 28.9655
81.8747 840 28.9828
81.9922 809 28.4429
82.1096 812 28.4956
82.227 842 29.0172
82.3444 873 29.5466
82.4619 964 31.0483
82.5793 1052 32.4345
82.6967 1019 31.9218
82.8142 1032 32.1248
82.9316 1036 32.187
83.049 1010 31.7805
83.1664 1017 31.8904
83.2838 963 31.0322
83.4012 940 30.6594
83.5186 908 30.133
83.636 877 29.6142
83.7534 903 30.05
83.8708 780 27.9285
83.9881 715 26.7395
84.1055 715 26.7395
84.2228 750 27.3861
84.3401 759 27.55
84.4575 749 27.3679
84.5747 910 30.1662
84.692 919 30.315
84.8093 961 31
84.9265 915 30.249
85.0437 947 30.7734
85.1609 841 29
85.2781 861 29.3428
85.3952 768 27.7128
85.5123 682 26.1151
85.6294 692 26.3059
85.7465 749 27.3679
85.8636 783 27.9821
85.9806 817 28.5832
86.0976 882 29.6985
86.2145 899 29.9833
86.3315 893 29.8831
86.4484 844 29.0517
86.5652 819 28.6182
86.682 912 30.1993
86.7988 860 29.3258
86.9156 819 28.6182
87.0323 875 29.5804
87.149 805 28.3725
87.2657 796 28.2135
87.3823 745 27.2947
87.4988 576 24
87.6154 511 22.6053
87.7318 574 23.9583
87.8483 534 23.1084
87.9647 568 23.8328
88.081 610 24.6982
88.1973 640 25.2982
88.3136 575 23.9792
88.4298 568 23.8328
88.546 545 23.3452
88.6621 476 21.8174
88.7781 439 20.9523
88.8942 0 1
89.0101 0 1
89.126 0 1
89.2419 0 1
89.3577 0 1
89.4734 0 1
89.5891 0 1
89.7047 0 1
89.8203 0 1
89.9358 0 1
92.3269 0 1
92.4424 0 1
92.558 0 1
92.6736 0 1
92.7893 0 1
92.905 0 1
93.0208 0 1
93.1366 0 1
93.2525 0 1
93.3685 0 1
93.4845 0 1
93.6005 490 22.1359
93.7167 561 23.6854
93.8328 600 24.4949
93.949 602 24.5357
94.0653 656 25.6125
94.1816 657 25.632
94.2979 649 25.4755
94.4143 619 24.8797
94.5307 653 25.5539
94.6472 615 24.7992
94.7637 563 23.7276
94.8803 578 24.0416
94.9969 630 25.0998
95.1135 646 25.4165
95.2302 692 26.3059
95.3469 753 27.4408
95.4637 748 27.3496
95.5805 745 27.2947
95.6973 777 27.8747
95.8142 706 26.5707
95.9311 765 27.6586
96.048 744 27.2764
96.1649 753 27.4408
96.2819 721 26.8514
96.3989 686 26.1916
96.516 692 26.3059
96.633 683 26.1343
96.7501 602 24.5357
96.8673 553 23.516
96.9844 517 22.7376
97.1016 566 23.7908
97.2188 598 24.454
97.336 622 24.9399
97.4532 694 26.3439
97.5704 712 26.6833
97.6877 773 27.8029
97.805 751 27.4044
97.9223 723 26.8887
98.0396 669 25.865
98.1569 635 25.1992
98.2743 576 24
98.3916 592 24.3311
98.509 550 23.4521
98.6264 637 25.2389
98.7438 611 24.7184
98.8612 677 26.0192
98.9786 725 26.9258
99.096 710 26.6458
99.2134 689 26.2488
99.3308 740 27.2029
99.4482 780 27.9285
99.5656 728 26.9815
99.6831 722 26.8701
99.8005 718 26.7955
99.9179 689 26.2488
100.035 656 25.6125
100.153 715 26.7395
100.27 623 24.96
100.388 571 23.8956
100.505 628 25.0599
100.622 569 23.8537
100.74 578 24.0416
100.857 629 25.0799
100.975 684 26.1534
101.092 743 27.258
101.209 763 27.6225
101.327 736 27.1293
101.444 760 27.5681
101.561 729 27
101.679 666 25.807
101.796 608 24.6577
101.913 594 24.3721
102.03 546 23.3666
102.148 571 23.8956
102.265 647 25.4362
102.382 705 26.5518
102.499 708 26.6083
102.616 731 27.037
102.733 743 27.258
102.851 782 27.9643
102.968 734 27.0924
103.085 745 27.2947
103.202 772 27.7849
103.319 694 26.3439
103.436 673 25.9422
103.552 711 26.6646
103.669 672 25.923
103.786 609 24.6779
103.903 551 23.4734
104.02 574 23.9583
104.137 592 24.3311
104.253 569 23.8537
104.37 596 24.4131
104.487 699 26.4386
104.603 803 28.3373
104.72 733 27.074
104.836 721 26.8514
104.953 704 26.533
105.069 657 25.632
105.186 608 24.6577
105.302 498 22.3159
105.418 493 22.2036
105.535 444 21.0713
105.651 505 22.4722
105.767 489 22.1133
105.883 461 21.4709
105.999 429 20.7123
106.115 0 1
106.231 0 1
106.347 0 1
106.463 0 1
106.579 0 1
106.694 0 1
106.81 0 1
106.926 0 1
107.041 0 1
107.157 0 1
109.576 0 1
109.692 0 1
109.807 0 1
109.923 0 1
110.039 0 1
110.155 0 1
110.27 0 1
110.386 0 1
110.502 0 1
110.618 230 15.1658
110.735 339 18.412
110.851 399 19.975
110.967 452 21.2603
111.083 503 22.4277
111.199 526 22.9347
111.316 601 24.5153
111.432 592 24.3311
111.549 646 25.4165
111.665 640 25.2982
111.782 631 25.1197
111.898 593 24.3516
112.015 629 25.0799
112.132 644 25.3772
112.248 536 23.1517
112.365 532 23.0651
112.482 499 22.3383
112.599 493 22.2036
112.716 489 22.1133
112.832 461 21.4709
112.949 556 23.5797
113.066 556 23.5797
113.183 613 24.7588
113.3 693 26.3249
113.417 599 24.4745
113.534 617 24.8395
113.652 604 24.5764
113.769 490 22.1359
113.886 557 23.6008
114.003 512 22.6274
114.12 491 22.1585
114.238 485 22.0227
114.355 540 23.2379
114.472 518 22.7596
114.589 622 24.9399
114.707 627 25.04
114.824 655 25.593
114.942 630 25.0998
115.059 683 26.1343
115.176 665 25.7876
115.294 631 25.1197
115.411 667 25.8263
115.529 589 24.2693
115.646 609 24.6779
115.764 589 24.2693
115.881 578 24.0416
115.999 503 22.4277
116.116 463 21.5174
116.234 462 21.4942
116.351 508 22.5389
116.469 517 22.7376
116.586 580 24.0832
116.704 567 23.8118
116.821 616 24.8193
116.939 649 25.4755
117.056 619 24.8797
117.174 623 24.96
117.291 592 24.3311
117.409 550 23.4521
117.526 524 22.891
117.644 446 21.1187
117.761 489 22.1133
117.879 548 23.4094
117.996 561 23.6854
118.114 580 24.0832
118.231 644 25.3772
118.349 623 24.96
118.466 597 24.4336
118.584 639 25.2784
118.701 626 25.02
118.819 609 24.6779
118.936 629 25.0799
119.053 572 23.9165
119.171 630 25.0998
119.288 603 24.5561
119.405 574 23.9583
119.523 509 22.561
119.64 489 22.1133
119.757 463 21.5174
119.875 448 21.166
119.992 544 23.3238
120.109 528 22.9783
120.226 529 23
120.343 576 24
120.46 606 24.6171
120.578 569 23.8537
120.695 621 24.9199
120.812 612 24.7386
120.929 526 22.9347
121.046 507 22.5167
121.163 481 21.9317
121.279 479 21.8861
121.396 459 21.4243
121.513 487 22.0681
121.63 503 22.4277
121.747 485 22.0227
121.863 531 23.0434
121.98 554 23.5372
122.097 508 22.5389
122.213 506 22.4944
122.33 458 21.4009
122.446 440 20.9762
122.563 438 20.9284
122.679 425 20.6155
122.795 381 19.5192
122.912 359 18.9473
123.028 317 17.8045
123.144 281 16.7631
123.26 234 15.2971
123.377 0 1
123.493 0 1
123.609 0 1
123.725 0 1
123.84 0 1
123.956 0 1
124.072 0 1
124.188 0 1
124.303 0 1
124.419 0 1
126.852 0 1
126.968 0 1
127.083 0 1
127.199 0 1
127.315 0 1
127.431 0 1
127.547 0 1
127.663 0 1
127.779 0 1
127.895 0 1
128.011 0 1
128.127 0 1
128.243 0 1
128.359 505 22.4722
128.476 534 23.1084
128.592 529 23
128.708 554 23.5372
128.825 470 21.6795
128.941 519 22.7816
129.058 552 23.4947
129.174 613 24.7588
129.291 564 23.7487
129.408 642 25.3377
129.524 670 25.8844
129.641 610 24.6982
129.758 626 25.02
129.875 686 26.1916
129.992 604 24.5764
130.108 553 23.516
130.225 523 22.8692
130.342 496 22.2711
130.459 532 23.0651
130.576 521 22.8254
130.693 547 23.388
130.81 607 24.6374
130.928 657 25.632
131.045 589 24.2693
131.162 610 24.6982
131.279 620 24.8998
131.396 605 24.5967
131.513 653 25.5539
131.631 643 25.3574
131.748 652 25.5343
131.865 632 25.1396
131.983 562 23.7065
132.1 564 23.7487
132.217 549 23.4307
132.335 503 22.4277
132.452 526 22.9347
132.57 539 23.2164
132.687 595 24.3926
132.804 580 24.0832
132.922 588 24.2487
133.039 603 24.5561
133.157 635 25.1992
133.274 617 24.8395
133.392 646 25.4165
133.509 634 25.1794
133.627 569 23.8537
133.744 566 23.7908
133.862 525 22.9129
133.979 535 23.1301
134.097 507 22.5167
134.214 568 23.8328
134.332 587 24.2281
134.449 579 24.0624
134.567 605 24.5967
134.684 662 25.7294
134.802 651 25.5147
134.919 627 25.04
135.037 658 25.6515
135.154 618 24.8596
135.272 622 24.9399
135.389 642 25.3377
135.507 619 24.8797
135.624 574 23.9583
135.742 552 23.4947
135.859 512 22.6274
135.977 533 23.0868
136.094 517 22.7376
136.211 545 23.3452
136.329 579 24.0624
136.446 593 24.3516
136.564 594 24.3721
136.681 688 26.2298
136.798 613 24.7588
136.915 685 26.1725
137.033 655 25.593
137.15 618 24.8596
137.267 616 24.8193
137.384 534 23.1084
137.502 523 22.8692
137.619 525 22.9129
137.736 521 22.8254
137.853 549 23.4307
137.97 567 23.8118
138.087 561 23.6854
138.204 610 24.6982
138.321 611 24.7184
138.438 651 25.5147
138.555 615 24.7992
138.672 632 25.1396
138.788 598 24.454
138.905 576 24
139.022 504 22.4499
139.139 512 22.6274
139.255 459 21.4243
139.372 445 21.095
139.488 447 21.1424
139.605 394 19.8494
139.721 317 17.8045
139.838 351 18.735
139.954 386 19.6469
140.071 340 18.4391
140.187 377 19.4165
140.303 318 17.8326
140.419 257 16.0312
140.535 256 16
140.652 266 16.3095
140.768 0 1
140.884 0 1
141 0 1
141.115 0 1
141.231 0 1
141.347 0 1
141.463 0 1
141.578 0 1
141.694 0 1
144.104 0 1
144.219 0 1
144.335 0 1
144.45 0 1
144.566 0 1
144.682 0 1
144.798 0 1
144.914 0 1
145.03 0 1
145.146 378 19.4422
145.262 436 20.8806
145.378 429 20.7123
145.494 473 21.7486
145.61 522 22.8473
145.726 501 22.383
145.842 511 22.6053
145.959 458 21.4009
146.075 450 21.2132
146.192 404 20.0998
146.308 401 20.025
146.425 407 20.1742
146.541 442 21.0238
146.658 432 20.7846
146.774 420 20.4939
146.891 450 21.2132
147.008 466 21.587
147.125 452 21.2603
147.241 440 20.9762
147.358 480 21.9089
147.475 520 22.8035
147.592 466 21.587
147.709 473 21.7486
147.826 442 21.0238
147.943 459 21.4243
148.06 452 21.2603
148.177 403 20.0749
148.294 393 19.8242
148.411 424 20.5913
148.528 396 19.8997
148.645 441 21
148.762 412 20.2978
148.88 448 21.166
148.997 481 21.9317
149.114 470 21.6795
149.231 474 21.7715
149.349 493 22.2036
149.466 487 22.0681
149.583 494 22.2261
149.701 406 20.1494
149.818 390 19.7484
149.935 422 20.5426
150.053 418 20.445
150.17 382 19.5448
150.287 417 20.4206
150.405 431 20.7605
150.522 483 21.9773
150.64 484 22
150.757 445 21.095
150.875 446 21.1187
150.992 475 21.7945
151.11 476 21.8174
151.227 416 20.3961
151.344 490 22.1359
151.462 472 21.7256
151.579 436 20.8806
151.697 424 20.5913
151.814 415 20.3715
151.932 399 19.975
152.049 378 19.4422
152.167 424 20.5913
152.284 413 20.3224
152.402 450 21.2132
152.519 427 20.664
152.636 442 21.0238
152.754 507 22.5167
152.871 464 21.5407
152.989 472 21.7256
153.106 417 20.4206
153.223 423 20.567
153.341 452 21.2603
153.458 409 20.2237
153.575 379 19.4679
153.693 371 19.2614
153.81 424 20.5913
153.927 430 20.7364
154.044 478 21.8632
154.162 437 20.9045
154.279 443 21.0476
154.396 448 21.166
154.513 458 21.4009
154.63 492 22.1811
154.747 435 20.8567
154.864 445 21.095
154.981 414 20.347
155.098 444 21.0713
155.215 402 20.0499
155.332 410 20.2485
155.449 395 19.8746
155.566 358 18.9209
155.683 374 19.3391
155.8 379 19.4679
155.917 409 20.2237
156.033 400 20
156.15 0 1
156.267 0 1
156.383 0 1
156.5 0 1
156.617 0 1
156.733 0 1
156.85 0 1
156.966 0 1
157.082 0 1
157.199 0 1
157.315 0 1
157.431 0 1
157.547 0 1
157.664 0 1
157.78 0 1
157.896 0 1
158.012 0 1
158.128 0 1
158.244 0 1
158.359 0 1
158.475 0 1
158.591 0 1
158.706 0 1
