
6.15755 0 1
6.2731 0 1
6.3887 0 1
6.50437 0 1
6.62009 0 1
6.73587 0 1
6.8517 0 1
6.96759 0 1
7.08353 0 1
7.19952 0 1
7.31557 0 1
7.43166 0 1
7.54781 0 1
7.664 0 1
7.78024 0 1
7.89653 0 1
8.01286 0 1
8.12924 0 1
8.24567 0 1
8.36213 0 1
8.47864 0 1
8.59519 0 1
8.71178 0 1
8.82841 0 1
8.94508 0 1
9.06179 0 1
9.17853 0 1
9.29531 0 1
9.41212 0 1
9.52897 0 1
9.64584 0 1
9.76276 0 1
9.8797 0 1
9.99667 0 1
10.1137 0 1
10.2307 0 1
10.3478 0 1
10.4648 0 1
10.5819 0 1
10.6991 0 1
10.8162 0 1
10.9334 0 1
11.0506 0 1
11.1678 0 1
11.285 0 1
11.4023 0 1
11.5196 0 1
11.6369 0 1
11.7542 0 1
11.8715 0 1
11.9888 0 1
12.1062 0 1
12.2235 0 1
12.3409 0 1
12.4582 0 1
12.5756 0 1
12.693 0 1
12.8104 0 1
12.9278 0 1
13.0452 0 1
13.1626 0 1
13.28 0 1
13.3974 0 1
13.5149 0 1
13.6323 0 1
13.7497 0 1
13.8671 0 1
13.9845 0 1
14.1019 0 1
14.2193 0 1
14.3367 0 1
14.4541 0 1
14.5714 0 1
14.6888 0 1
14.8062 0 1
14.9235 0 1
15.0408 0 0
15.1581 0 0
15.2755 0 0
15.3927 0 0
15.51 0 0
15.6273 0 0
15.7445 0 0
15.8617 0 0
15.9789 0 0
16.0961 0 0
16.2132 0 0
16.3304 0 0
16.4475 0 0
16.5646 0 0
16.6816 0 0
16.7986 0 0
16.9156 0 0
17.0326 0 0
17.1496 0 0
17.2665 0 0
17.3833 0 0
17.5002 0 0
17.617 0 0
17.7338 0 0
17.8505 0 0
17.9672 0 0
18.0839 0 0
18.2005 0 0
18.3171 0 0
18.4337 0 0
18.5502 0 0
18.6666 0 0
18.7831 0 0
18.8994 0 0
19.0158 0 0
19.1321 0 0
19.2483 0 0
19.3645 0 0
19.4806 0 0
19.5967 0 0
19.7128 0 0
19.8288 0 0
19.9447 0 0
20.0606 0 1
20.1764 0 1
20.2922 0 1
20.4079 0 1
20.5236 0 1
20.6392 0 1
20.7548 0 1
20.8702 0 1
23.3078 0 1
23.4233 0 1
23.539 0 1
23.6547 0 1
23.7704 0 1
23.8862 0 1
24.0021 0 1
24.118 0 1
24.234 0 1
24.35 0 1
24.4661 1736 41.6653
24.5822 1714 41.4005
24.6984 1673 40.9023
24.8146 1640 40.4969
24.9309 1541 39.2556
25.0472 1536 39.1918
25.1636 1561 39.5095
25.28 1632 40.398
25.3965 1644 40.5463
25.513 1865 43.1856
25.6296 1930 43.9318
25.7462 1925 43.8748
25.8628 1949 44.1475
25.9795 1967 44.3509
26.0962 1992 44.6318
26.213 1964 44.317
26.3298 1892 43.4971
26.4466 1930 43.9318
26.5635 1889 43.4626
26.6804 1815 42.6028
26.7973 1747 41.7971
26.9143 1846 42.9651
27.0313 1883 43.3935
27.1483 1944 44.0908
27.2653 1904 43.6348
27.3824 1869 43.2319
27.4996 1977 44.4635
27.6167 1937 44.0114
27.7339 1951 44.1701
27.8511 1935 43.9886
27.9683 1903 43.6234
28.0855 1810 42.5441
28.2028 1676 40.939
28.3201 1574 39.6737
28.4374 1516 38.9358
28.5547 1462 38.2361
28.6721 1448 38.0526
28.7894 1534 39.1663
28.9068 1636 40.4475
29.0242 1659 40.7308
29.1416 1828 42.7551
29.259 1862 43.1509
29.3764 1874 43.2897
29.4939 1975 44.441
29.6113 1921 43.8292
29.7288 1907 43.6692
29.8463 1903 43.6234
29.9638 1877 43.3244
30.0812 1816 42.6146
30.1987 1851 43.0232
30.3162 1709 41.3401
30.4337 1756 41.9047
30.5512 1887 43.4396
30.6687 1910 43.7035
30.7862 1865 43.1856
30.9037 1900 43.589
31.0212 1969 44.3734
31.1387 1948 44.1362
31.2562 1959 44.2606
31.3737 1960 44.2719
31.4912 1866 43.1972
31.6087 1888 43.4511
31.7262 1734 41.6413
31.8436 1616 40.1995
31.9611 1586 39.8246
32.0785 1449 38.0657
32.1959 1503 38.7685
32.3134 1553 39.4081
32.4308 1596 39.95
32.5482 1723 41.509
32.6655 1772 42.0951
32.7829 1816 42.6146
32.9002 1878 43.3359
33.0176 1809 42.5323
33.1349 1957 44.238
33.2522 1866 43.1972
33.3694 2021 44.9555
33.4867 1857 43.0929
33.6039 1957 44.238
33.7211 1884 43.4051
33.8383 1895 43.5316
33.9554 1802 42.45
34.0725 1738 41.6893
34.1896 1798 42.4028
34.3067 1884 43.4051
34.4237 2003 44.7549
34.5407 1932 43.9545
34.6577 1936 44
34.7746 1966 44.3396
34.8915 2059 45.3762
35.0084 1874 43.2897
35.1252 1911 43.715
35.242 1883 43.3935
35.3587 1817 42.6263
35.4755 1694 41.1582
35.5921 1564 39.5474
35.7088 1514 38.9102
35.8254 1484 38.5227
35.9419 1457 38.1707
36.0584 1527 39.0768
36.1749 1698 41.2068
36.2913 1805 42.4853
36.4077 1757 41.9166
36.524 1884 43.4051
36.6403 1937 44.0114
36.7565 1962 44.2945
36.8727 1959 44.2606
36.9889 1968 44.3621
37.1049 1928 43.909
37.221 0 1
37.3369 0 1
37.4529 0 1
37.5687 0 1
37.6845 0 1
37.8003 0 1
37.916 0 1
38.0316 0 1
38.1472 0 1
40.5851 0 1
40.7008 0 1
40.8164 0 1
40.9322 0 1
41.048 0 1
41.1639 0 1
41.2798 0 1
41.3958 0 1
41.5118 0 1
41.6279 0 1
41.744 1687 41.0731
41.8602 1674 40.9145
41.9765 1755 41.8927
42.0928 1760 41.9524
42.2091 1765 42.0119
42.3255 1722 41.497
42.4419 1693 41.1461
42.5584 1682 41.0122
42.675 1619 40.2368
42.7915 1617 40.2119
42.9081 1709 41.3401
43.0248 1795 42.3674
43.1415 1843 42.9302
43.2582 1816 42.6146
43.375 1719 41.4608
43.4918 1785 42.2493
43.6087 1766 42.0238
43.7256 1717 41.4367
43.8425 1754 41.8808
43.9595 1694 41.1582
44.0765 1731 41.6053
44.1935 1621 40.2616
44.3106 1393 37.3229
44.4277 1368 36.9865
44.5448 1186 34.4384
44.6619 1138 33.7343
44.7791 1158 34.0294
44.8963 1222 34.9571
45.0136 1429 37.8021
45.1308 1519 38.9744
45.2481 1532 39.1408
45.3654 1548 39.3446
45.4827 1580 39.7492
45.6001 1515 38.923
45.7174 1595 39.9375
45.8348 1562 39.5221
45.9522 1489 38.5876
46.0697 1425 37.7492
46.1871 1414 37.6032
46.3046 1445 38.0132
46.422 1431 37.8286
46.5395 1398 37.3898
46.657 1408 37.5233
46.7745 1414 37.6032
46.892 1455 38.1445
47.0096 1484 38.5227
47.1271 1424 37.7359
47.2446 1496 38.6782
47.3622 1436 37.8946
47.4797 1388 37.2559
47.5973 1360 36.8782
47.7149 1329 36.4555
47.8324 1265 35.5668
47.95 1130 33.6155
48.0675 1035 32.1714
48.1851 935 30.5778
48.3027 1024 32
48.4202 1060 32.5576
48.5378 1171 34.2199
48.6554 1188 34.4674
48.7729 1315 36.2629
48.8904 1338 36.5787
49.008 1323 36.3731
49.1255 1294 35.9722
49.243 1383 37.1887
49.3605 1406 37.4967
49.478 1337 36.565
49.5955 1333 36.5103
49.713 1357 36.8375
49.8304 1334 36.524
49.9479 1354 36.7967
50.0653 1381 37.1618
50.1827 1391 37.2961
50.3001 1538 39.2173
50.4175 1545 39.3065
50.5348 1597 39.9625
50.6521 1701 41.2432
50.7694 1633 40.4104
50.8867 1619 40.2368
51.004 1744 41.7612
51.1212 1768 42.0476
51.2384 1769 42.0595
51.3556 1705 41.2916
51.4727 1558 39.4715
51.5899 1344 36.6606
51.707 1299 36.0416
51.824 1417 37.6431
51.9411 1474 38.3927
52.0581 1698 41.2068
52.175 1919 43.8064
52.2919 2019 44.9333
52.4088 2075 45.5522
52.5257 2051 45.288
52.6425 2134 46.1952
52.7593 2156 46.4327
52.876 2155 46.422
52.9927 2222 47.1381
53.1094 2234 47.2652
53.226 2184 46.7333
53.3426 2136 46.2169
53.4591 2188 46.7761
53.5756 2242 47.3498
53.692 2227 47.1911
53.8084 2297 47.927
53.9248 2383 48.816
54.0411 2418 49.1732
54.1573 2487 49.8698
54.2735 0 1
54.3896 0 1
54.5057 0 1
54.6217 0 1
54.7377 0 1
54.8537 0 1
54.9695 0 1
55.0853 0 1
55.2011 0 1
55.3168 0 1
55.4324 0 1
57.824 0 1
57.9396 0 1
58.0553 0 1
58.1711 0 1
58.2869 0 1
58.4028 0 1
58.5187 0 1
58.6347 0 1
58.7508 0 1
58.8669 0 1
58.983 3213 56.6833
59.0992 3183 56.4181
59.2155 3280 57.2713
59.3318 3363 57.9914
59.4482 3474 58.9406
59.5646 3397 58.2838
59.681 3274 57.2189
59.7975 3228 56.8155
59.9141 3121 55.8659
60.0306 3031 55.0545
60.1473 2887 53.7308
60.2639 2429 49.2849
60.3807 2261 47.55
60.4974 2325 48.2183
60.6142 2474 49.7393
60.731 2849 53.376
60.8479 3120 55.857
60.9648 3272 57.2014
61.0818 3352 57.8965
61.1987 3440 58.6515
61.3158 3457 58.7963
61.4328 3394 58.258
61.5499 3495 59.1185
61.667 3410 58.3952
61.7841 3409 58.3866
61.9013 3421 58.4893
62.0185 3425 58.5235
62.1357 3365 58.0086
62.253 3397 58.2838
62.3702 3500 59.1608
62.4875 3420 58.4808
62.6049 3568 59.7327
62.7222 3561 59.6741
62.8396 3624 60.1997
62.9569 3561 59.6741
63.0743 3597 59.975
63.1918 3595 59.9583
63.3092 3582 59.8498
63.4267 3390 58.2237
63.5441 3249 57
63.6616 3045 55.1815
63.7791 2551 50.5074
63.8966 2435 49.3457
64.0142 2458 49.5782
64.1317 2702 51.9808
64.2492 3013 54.8908
64.3668 3259 57.0877
64.4843 3528 59.397
64.6019 3663 60.5227
64.7195 3705 60.8687
64.837 3747 61.2127
64.9546 3680 60.663
65.0722 3766 61.3677
65.1898 3676 60.63
65.3074 3823 61.8304
65.4249 3616 60.1332
65.5425 3671 60.5888
65.6601 3644 60.3656
65.7777 3679 60.6548
65.8952 3655 60.4566
66.0128 3770 61.4003
66.1304 3723 61.0164
66.2479 3843 61.9919
66.3655 3946 62.8172
66.483 3858 62.1128
66.6005 3969 63
66.718 3950 62.849
66.8355 3852 62.0645
66.953 3647 60.3904
67.0705 3443 58.6771
67.1879 3487 59.0508
67.3054 3195 56.5243
67.4228 2759 52.5262
67.5402 2494 49.94
67.6576 2685 51.817
67.7749 2818 53.0848
67.8923 3372 58.0689
68.0096 3727 61.0492
68.1269 3877 62.2656
68.2442 4111 64.1171
68.3614 4115 64.1483
68.4787 4088 63.9375
68.5958 4257 65.2457
68.713 4211 64.8922
68.8302 4216 64.9307
68.9473 4184 64.6838
69.0643 4207 64.8614
69.1814 4182 64.6684
69.2984 4215 64.923
69.4154 4159 64.4903
69.5323 4280 65.4217
69.6492 4237 65.0922
69.7661 4401 66.34
69.8829 4337 65.8559
69.9997 4486 66.9776
70.1165 4485 66.9701
70.2332 4541 67.3869
70.3499 4581 67.6831
70.4665 4526 67.2756
70.5831 4333 65.8255
70.6996 4167 64.5523
70.8161 4094 63.9844
70.9326 3770 61.4003
71.049 3365 58.0086
71.1653 2921 54.0463
71.2817 2853 53.4135
71.3979 2822 53.1225
71.5141 3178 56.3738
71.6303 3569 59.7411
71.7464 3575 59.7913
71.8624 0 1
71.9784 0 1
72.0944 0 1
72.2102 0 1
72.3261 0 1
72.4418 0 1
72.5575 0 1
72.6732 0 1
75.1054 0 1
75.2209 0 1
75.3365 0 1
75.4521 0 1
75.5678 0 1
75.6835 0 1
75.7993 0 1
75.9151 0 1
76.031 0 1
76.147 3634 60.2827
76.263 3720 60.9918
76.3791 3481 59
76.4952 3084 55.5338
76.6113 2985 54.6352
76.7276 3209 56.648
76.8438 3665 60.5392
76.9601 4047 63.616
77.0765 4499 67.0746
77.1929 4704 68.5857
77.3093 4742 68.8622
77.4258 4958 70.4131
77.5423 4751 68.9275
77.6589 4866 69.7567
77.7755 4740 68.8477
77.8921 4674 68.3667
78.0088 4887 69.9071
78.1256 4709 68.6222
78.2423 4709 68.6222
78.3591 4730 68.775
78.4759 4583 67.6979
78.5928 4645 68.1542
78.7097 4778 69.1231
78.8266 4840 69.5701
78.9436 4545 67.4166
79.0606 4771 69.0724
79.1776 4869 69.7782
79.2946 4861 69.7209
79.4117 4881 69.8642
79.5288 4811 69.3614
79.6459 4481 66.9403
79.7631 4256 65.238
79.8802 4052 63.6553
79.9974 3767 61.3759
80.1147 3300 57.4456
80.2319 3075 55.4527
80.3491 3127 55.9196
80.4664 3474 58.9406
80.5837 3941 62.7774
80.701 4459 66.7757
80.8183 4589 67.7422
80.9357 4692 68.4982
81.053 4732 68.7895
81.1704 4641 68.1249
81.2877 4639 68.1102
81.4051 4692 68.4982
81.5225 4822 69.4406
81.6399 4527 67.283
81.7573 4784 69.1665
81.8747 4682 68.4251
81.9922 4497 67.0597
82.1096 4524 67.2607
82.227 4476 66.9029
82.3444 4332 65.8179
82.4619 4512 67.1714
82.5793 4444 66.6633
82.6967 4655 68.2276
82.8142 4681 68.4178
82.9316 4522 67.2458
83.049 4563 67.55
83.1664 4487 66.9851
83.2838 4207 64.8614
83.4012 4059 63.7103
83.5186 3643 60.3573
83.636 3452 58.7537
83.7534 3148 56.107
83.8708 2790 52.8205
83.9881 2866 53.535
84.1055 3106 55.7315
84.2228 3508 59.2284
84.3401 4026 63.4508
84.4575 4301 65.582
84.5747 4377 66.1589
84.692 4438 66.6183
84.8093 4551 67.4611
84.9265 4626 68.0147
85.0437 4590 67.7495
85.1609 4544 67.4092
85.2781 4584 67.7052
85.3952 4443 66.6558
85.5123 4539 67.3721
85.6294 4548 67.4389
85.7465 4499 67.0746
85.8636 4635 68.0808
85.9806 4624 68
86.0976 4823 69.4478
86.2145 4663 68.2862
86.3315 4639 68.1102
86.4484 5052 71.0774
86.5652 4917 70.1213
86.682 4769 69.0579
86.7988 5036 70.9648
86.9156 4649 68.1836
87.0323 4212 64.8999
87.149 4124 64.2184
87.2657 3895 62.4099
87.3823 3568 59.7327
87.4988 3347 57.8533
87.6154 3453 58.7622
87.7318 3926 62.6578
87.8483 4516 67.2012
87.9647 4809 69.347
88.081 5215 72.215
88.1973 5101 71.4213
88.3136 5229 72.3118
88.4298 5338 73.0616
88.546 5195 72.0763
88.6621 5277 72.643
88.7781 5142 71.7077
88.8942 0 1
89.0101 0 1
89.126 0 1
89.2419 0 1
89.3577 0 1
89.4734 0 1
89.5891 0 1
89.7047 0 1
89.8203 0 1
89.9358 0 1
92.3269 0 1
92.4424 0 1
92.558 0 1
92.6736 0 1
92.7893 0 1
92.905 0 1
93.0208 0 1
93.1366 0 1
93.2525 0 1
93.3685 0 1
93.4845 0 1
93.6005 5113 71.5052
93.7167 5178 71.9583
93.8328 5167 71.8818
93.949 5358 73.1984
94.0653 5181 71.9792
94.1816 5189 72.0347
94.2979 5192 72.0555
94.4143 5127 71.6031
94.5307 5044 71.0211
94.6472 5242 72.4017
94.7637 5059 71.1266
94.8803 5230 72.3187
94.9969 5193 72.0625
95.1135 5207 72.1595
95.2302 5190 72.0417
95.3469 5337 73.0548
95.4637 5337 73.0548
95.5805 5434 73.7157
95.6973 5406 73.5255
95.8142 5363 73.2325
95.9311 5254 72.4845
96.048 5240 72.3878
96.1649 4855 69.6778
96.2819 4572 67.6166
96.3989 4151 64.4283
96.516 3769 61.3922
96.633 3628 60.2329
96.7501 3754 61.2699
96.8673 3896 62.4179
96.9844 4401 66.34
97.1016 4929 70.2068
97.2188 5397 73.4643
97.336 5544 74.458
97.4532 5567 74.6123
97.5704 5525 74.3303
97.6877 5534 74.3909
97.805 5555 74.5319
97.9223 5422 73.6342
98.0396 5496 74.135
98.1569 5565 74.5989
98.2743 5377 73.328
98.3916 5485 74.0608
98.509 5507 74.2092
98.6264 5517 74.2765
98.7438 5359 73.2052
98.8612 5422 73.6342
98.9786 5504 74.1889
99.096 5746 75.8024
99.2134 5594 74.793
99.3308 5655 75.1997
99.4482 5687 75.4122
99.5656 5613 74.92
99.6831 5517 74.2765
99.8005 5133 71.645
99.9179 4840 69.5701
100.035 4494 67.0373
100.153 4021 63.4114
100.27 3874 62.2415
100.388 4095 63.9922
100.505 4557 67.5056
100.622 5136 71.6659
100.74 5557 74.5453
100.857 5756 75.8683
100.975 5852 76.4984
101.092 5862 76.5637
101.209 5945 77.1038
101.327 5855 76.518
101.444 5627 75.0133
101.561 5643 75.1199
101.679 5866 76.5898
101.796 5834 76.3806
101.913 5838 76.4068
102.03 5876 76.6551
102.148 5846 76.4591
102.265 6046 77.756
102.382 5657 75.213
102.499 6014 77.55
102.616 6049 77.7753
102.733 6096 78.0769
102.851 6233 78.9494
102.968 6222 78.8797
103.085 6074 77.9359
103.202 5819 76.2824
103.319 5657 75.213
103.436 5393 73.437
103.552 4714 68.6586
103.669 4288 65.4828
103.786 4133 64.2884
103.903 4298 65.5591
104.02 4871 69.7925
104.137 5338 73.0616
104.253 5972 77.2787
104.37 6073 77.9295
104.487 6250 79.0569
104.603 6279 79.2401
104.72 6257 79.1012
104.836 6407 80.0437
104.953 6227 78.9113
105.069 6337 79.6053
105.186 6221 78.8733
105.302 6234 78.9557
105.418 6365 79.781
105.535 6350 79.6869
105.651 6361 79.7559
105.767 6413 80.0812
105.883 6460 80.3741
105.999 6475 80.4674
106.115 0 1
106.231 0 1
106.347 0 1
106.463 0 1
106.579 0 1
106.694 0 1
106.81 0 1
106.926 0 1
107.041 0 1
107.157 0 1
109.576 0 1
109.692 0 1
109.807 0 1
109.923 0 1
110.039 0 1
110.155 0 1
110.27 0 1
110.386 0 1
110.502 0 1
110.618 5855 76.518
110.735 6125 78.2624
110.851 6100 78.1025
110.967 6064 77.8717
111.083 6058 77.8332
111.199 6132 78.3071
111.316 6068 77.8974
111.432 6098 78.0897
111.549 6138 78.3454
111.665 6002 77.4726
111.782 5549 74.4916
111.898 5386 73.3894
112.015 4724 68.7314
112.132 4167 64.5523
112.248 4039 63.5531
112.365 4147 64.3972
112.482 4567 67.5796
112.599 4871 69.7925
112.716 5436 73.7292
112.832 5699 75.4917
112.949 5554 74.5252
113.066 5683 75.3857
113.183 5760 75.8947
113.3 5595 74.7997
113.417 5570 74.6324
113.534 5604 74.8599
113.652 5429 73.6817
113.769 5486 74.0675
113.886 5334 73.0342
114.003 5294 72.7599
114.12 5545 74.4648
114.238 5204 72.1388
114.355 5232 72.3326
114.472 5354 73.171
114.589 5398 73.4711
114.707 5351 73.1505
114.824 5205 72.1457
114.942 5472 73.973
115.059 5190 72.0417
115.176 5369 73.2735
115.294 5123 71.5751
115.411 5000 70.7107
115.529 4620 67.9706
115.646 4130 64.2651
115.764 3721 61
115.881 3719 60.9836
115.999 4000 63.2456
116.116 4515 67.1937
116.234 4999 70.7036
116.351 5218 72.2357
116.469 5271 72.6017
116.586 5350 73.1437
116.704 5516 74.2698
116.821 5336 73.0479
116.939 5330 73.0068
117.056 5290 72.7324
117.174 5266 72.5672
117.291 5361 73.2189
117.409 5367 73.2598
117.526 5401 73.4915
117.644 5448 73.8106
117.761 5360 73.212
117.879 5355 73.1779
117.996 5278 72.6498
118.114 5415 73.5867
118.231 5422 73.6342
118.349 5332 73.0205
118.466 5369 73.2735
118.584 5485 74.0608
118.701 5384 73.3757
118.819 5456 73.8647
118.936 5253 72.4776
119.053 4950 70.3562
119.171 4558 67.513
119.288 4123 64.2106
119.405 3905 62.49
119.523 3656 60.4649
119.64 3968 62.9921
119.757 4465 66.8207
119.875 4786 69.1809
119.992 5164 71.861
120.109 5250 72.4569
120.226 5428 73.675
120.343 5274 72.6223
120.46 5246 72.4293
120.578 5277 72.643
120.695 5388 73.403
120.812 5311 72.8766
120.929 5434 73.7157
121.046 5321 72.9452
121.163 5229 72.3118
121.279 5176 71.9444
121.396 5223 72.2703
121.513 5207 72.1595
121.63 5364 73.2393
121.747 5347 73.1232
121.863 5254 72.4845
121.98 5291 72.7393
122.097 5188 72.0278
122.213 5350 73.1437
122.33 5289 72.7255
122.446 5329 73
122.563 5052 71.0774
122.679 5010 70.7814
122.795 4790 69.2098
122.912 4548 67.4389
123.028 4114 64.1405
123.144 3908 62.514
123.26 3675 60.6218
123.377 0 1
123.493 0 1
123.609 0 1
123.725 0 1
123.84 0 1
123.956 0 1
124.072 0 1
124.188 0 1
124.303 0 1
124.419 0 1
126.852 0 1
126.968 0 1
127.083 0 1
127.199 0 1
127.315 0 1
127.431 0 1
127.547 0 1
127.663 0 1
127.779 0 1
127.895 0 1
128.011 0 1
128.127 0 1
128.243 0 1
128.359 4376 66.1513
128.476 4222 64.9769
128.592 4433 66.5808
128.708 5031 70.9295
128.825 5496 74.135
128.941 5720 75.6307
129.058 5845 76.4526
129.174 6028 77.6402
129.291 6024 77.6144
129.408 6055 77.8139
129.524 5921 76.948
129.641 5989 77.3886
129.758 5978 77.3175
129.875 5763 75.9144
129.992 5816 76.2627
130.108 5905 76.844
130.225 5677 75.3459
130.342 5683 75.3857
130.459 5498 74.1485
130.576 5857 76.531
130.693 5854 76.5114
130.81 5706 75.5381
130.928 5742 75.776
131.045 5736 75.7364
131.162 5859 76.5441
131.279 5747 75.809
131.396 5761 75.9013
131.513 5435 73.7225
131.631 5300 72.8011
131.748 4941 70.2922
131.865 4645 68.1542
131.983 4212 64.8999
132.1 4228 65.0231
132.217 4731 68.7823
132.335 5089 71.3372
132.452 5416 73.5935
132.57 5644 75.1266
132.687 5507 74.2092
132.804 5858 76.5376
132.922 5724 75.6571
133.039 5806 76.1971
133.157 5719 75.6241
133.274 5827 76.3348
133.392 5479 74.0203
133.509 5690 75.4321
133.627 5646 75.1399
133.744 5631 75.04
133.862 5513 74.2496
133.979 5598 74.8198
134.097 5524 74.3236
134.214 5611 74.9066
134.332 5513 74.2496
134.449 5549 74.4916
134.567 5443 73.7767
134.684 5640 75.0999
134.802 5737 75.743
134.919 5517 74.2765
135.037 5610 74.8999
135.154 5269 72.5879
135.272 5122 71.5681
135.389 4637 68.0955
135.507 4398 66.3174
135.624 4135 64.304
135.742 4323 65.7495
135.859 4785 69.1737
135.977 5207 72.1595
136.094 5534 74.3909
136.211 5611 74.9066
136.329 5654 75.1931
136.446 5628 75.02
136.564 5785 76.0592
136.681 5606 74.8732
136.798 5561 74.5721
136.915 5642 75.1132
137.033 5471 73.9662
137.15 5611 74.9066
137.267 5402 73.4983
137.384 5407 73.5323
137.502 5484 74.054
137.619 5504 74.1889
137.736 5375 73.3144
137.853 5280 72.6636
137.97 5328 72.9932
138.087 5476 74
138.204 5363 73.2325
138.321 5542 74.4446
138.438 5778 76.0132
138.555 5528 74.3505
138.672 5371 73.2871
138.788 5454 73.8512
138.905 5077 71.2531
139.022 4844 69.5989
139.139 4543 67.4018
139.255 4258 65.2534
139.372 4279 65.4141
139.488 4656 68.2349
139.605 5035 70.9577
139.721 5527 74.3438
139.838 5541 74.4379
139.954 5544 74.458
140.071 5486 74.0675
140.187 5662 75.2463
140.303 5492 74.108
140.419 5572 74.6458
140.535 5463 73.9121
140.652 5303 72.8217
140.768 0 1
140.884 0 1
141 0 1
141.115 0 1
141.231 0 1
141.347 0 1
141.463 0 1
141.578 0 1
141.694 0 1
144.104 0 1
144.219 0 1
144.335 0 1
144.45 0 1
144.566 0 1
144.682 0 1
144.798 0 1
144.914 0 1
145.03 0 1
145.146 4799 69.2748
145.262 4775 69.1014
145.378 4993 70.6612
145.494 4921 70.1498
145.61 4815 69.3902
145.726 4774 69.0941
145.842 4793 69.2315
145.959 4719 68.695
146.075 4713 68.6513
146.192 4642 68.1322
146.308 4622 67.9853
146.425 4659 68.2569
146.541 4572 67.6166
146.658 4704 68.5857
146.774 4599 67.8159
146.891 4609 67.8896
147.008 4792 69.2243
147.125 4652 68.2056
147.241 4726 68.7459
147.358 4638 68.1029
147.475 4381 66.1891
147.592 4152 64.436
147.709 3831 61.8951
147.826 3485 59.0339
147.943 3614 60.1166
148.06 3851 62.0564
148.177 4192 64.7457
148.294 4526 67.2756
148.411 4606 67.8675
148.528 4656 68.2349
148.645 4608 67.8823
148.762 4557 67.5056
148.88 4552 67.4685
148.997 4384 66.2118
149.114 4899 69.9929
149.231 4510 67.1565
149.349 4367 66.0833
149.466 4269 65.3376
149.583 4304 65.6049
149.701 4234 65.0692
149.818 4203 64.8305
149.935 4352 65.9697
150.053 4234 65.0692
150.17 4172 64.591
150.287 4325 65.7647
150.405 4318 65.7115
150.522 4392 66.2722
150.64 4447 66.6858
150.757 4610 67.897
150.875 4509 67.1491
150.992 4330 65.8027
151.11 4085 63.914
151.227 4007 63.3009
151.344 3764 61.3514
151.462 3424 58.515
151.579 3520 59.3296
151.697 3810 61.7252
151.814 4066 63.7652
151.932 4240 65.1153
152.049 4412 66.4229
152.167 4509 67.1491
152.284 4564 67.5574
152.402 4393 66.2797
152.519 4585 67.7126
152.636 4564 67.5574
152.754 4494 67.0373
152.871 4381 66.1891
152.989 4340 65.8787
153.106 4260 65.2687
153.223 4197 64.7843
153.341 4263 65.2917
153.458 4064 63.7495
153.575 4118 64.1716
153.693 4255 65.2304
153.81 4414 66.4379
153.927 4256 65.238
154.044 4384 66.2118
154.162 4449 66.7008
154.279 4478 66.9179
154.396 4612 67.9117
154.513 4484 66.9627
154.63 4444 66.6633
154.747 4411 66.4154
154.864 4262 65.284
154.981 3845 62.0081
155.098 3687 60.7207
155.215 3787 61.5386
155.332 3998 63.2297
155.449 4254 65.2227
155.566 4355 65.9924
155.683 4563 67.55
155.8 4615 67.9338
155.917 4612 67.9117
156.033 4691 68.4909
156.15 0 1
156.267 0 1
156.383 0 1
156.5 0 1
156.617 0 1
156.733 0 1
156.85 0 1
156.966 0 1
157.082 0 1
157.199 0 1
157.315 0 1
157.431 0 1
157.547 0 1
157.664 0 1
157.78 0 1
157.896 0 1
158.012 0 1
158.128 0 1
158.244 0 1
158.359 0 1
158.475 0 1
158.591 0 1
158.706 0 1
