
6.15755 0 1
6.2731 0 1
6.3887 0 1
6.50437 0 1
6.62009 0 1
6.73587 0 1
6.8517 0 1
6.96759 0 1
7.08353 0 1
7.19952 0 1
7.31557 0 1
7.43166 0 1
7.54781 0 1
7.664 0 1
7.78024 0 1
7.89653 0 1
8.01286 0 1
8.12924 0 1
8.24567 0 1
8.36213 0 1
8.47864 0 1
8.59519 0 1
8.71178 0 1
8.82841 0 1
8.94508 0 1
9.06179 0 1
9.17853 0 1
9.29531 0 1
9.41212 0 1
9.52897 0 1
9.64584 0 1
9.76276 0 1
9.8797 0 1
9.99667 0 1
10.1137 0 1
10.2307 0 1
10.3478 0 1
10.4648 0 1
10.5819 0 1
10.6991 0 1
10.8162 0 1
10.9334 0 1
11.0506 0 1
11.1678 0 1
11.285 0 1
11.4023 0 1
11.5196 0 1
11.6369 0 1
11.7542 0 1
11.8715 0 1
11.9888 0 1
12.1062 0 1
12.2235 0 1
12.3409 0 1
12.4582 0 1
12.5756 0 1
12.693 0 1
12.8104 0 1
12.9278 0 1
13.0452 0 1
13.1626 0 1
13.28 0 1
13.3974 0 1
13.5149 0 1
13.6323 0 1
13.7497 0 1
13.8671 0 1
13.9845 0 1
14.1019 0 1
14.2193 0 1
14.3367 0 1
14.4541 0 1
14.5714 0 1
14.6888 0 1
14.8062 0 1
14.9235 0 1
15.0408 0 0
15.1581 0 0
15.2755 0 0
15.3927 0 0
15.51 0 0
15.6273 0 0
15.7445 0 0
15.8617 0 0
15.9789 0 0
16.0961 0 0
16.2132 0 0
16.3304 0 0
16.4475 0 0
16.5646 0 0
16.6816 0 0
16.7986 0 0
16.9156 0 0
17.0326 0 0
17.1496 0 0
17.2665 0 0
17.3833 0 0
17.5002 0 0
17.617 0 0
17.7338 0 0
17.8505 0 0
17.9672 0 0
18.0839 0 0
18.2005 0 0
18.3171 0 0
18.4337 0 0
18.5502 0 0
18.6666 0 0
18.7831 0 0
18.8994 0 0
19.0158 0 0
19.1321 0 0
19.2483 0 0
19.3645 0 0
19.4806 0 0
19.5967 0 0
19.7128 0 0
19.8288 0 0
19.9447 0 0
20.0606 0 1
20.1764 0 1
20.2922 0 1
20.4079 0 1
20.5236 0 1
20.6392 0 1
20.7548 0 1
20.8702 0 1
23.3078 0 1
23.4233 0 1
23.539 0 1
23.6547 0 1
23.7704 0 1
23.8862 0 1
24.0021 0 1
24.118 0 1
24.234 0 1
24.35 0 1
24.4661 13365 115.607
24.5822 13462 116.026
24.6984 13512 116.241
24.8146 13699 117.043
24.9309 14195 119.143
25.0472 14334 119.725
25.1636 14832 121.787
25.28 14891 122.029
25.3965 15046 122.662
25.513 15264 123.548
25.6296 15250 123.491
25.7462 15327 123.802
25.8628 15149 123.081
25.9795 15404 124.113
26.0962 15320 123.774
26.213 15347 123.883
26.3298 15029 122.593
26.4466 15156 123.11
26.5635 14821 121.742
26.6804 14594 120.806
26.7973 14448 120.2
26.9143 14467 120.279
27.0313 13911 117.945
27.1483 14086 118.684
27.2653 14406 120.025
27.3824 14573 120.719
27.4996 14526 120.524
27.6167 14005 118.343
27.7339 13711 117.094
27.8511 13277 115.226
27.9683 13054 114.254
28.0855 13101 114.46
28.2028 13061 114.285
28.3201 12963 113.855
28.4374 13559 116.443
28.5547 13834 117.618
28.6721 13931 118.03
28.7894 13904 117.915
28.9068 14146 118.937
29.0242 13853 117.699
29.1416 14110 118.786
29.259 14252 119.382
29.3764 14075 118.638
29.4939 14435 120.146
29.6113 14209 119.202
29.7288 14315 119.645
29.8463 14450 120.208
29.9638 14279 119.495
30.0812 14345 119.771
30.1987 14132 118.878
30.3162 13994 118.296
30.4337 13633 116.76
30.5512 13490 116.146
30.6687 13252 115.117
30.7862 13509 116.228
30.9037 13764 117.32
31.0212 13770 117.346
31.1387 13742 117.226
31.2562 13389 115.711
31.3737 13069 114.32
31.4912 12824 113.243
31.6087 12804 113.155
31.7262 12685 112.628
31.8436 13120 114.543
31.9611 13247 115.096
32.0785 13586 116.559
32.1959 13898 117.89
32.3134 13534 116.336
32.4308 13730 117.175
32.5482 13794 117.448
32.6655 13936 118.051
32.7829 13930 118.025
32.9002 14018 118.398
33.0176 14172 119.046
33.1349 14194 119.139
33.2522 14172 119.046
33.3694 14407 120.029
33.4867 14464 120.266
33.6039 14282 119.507
33.7211 14407 120.029
33.8383 14331 119.712
33.9554 13935 118.047
34.0725 13999 118.317
34.1896 13510 116.233
34.3067 13306 115.352
34.4237 13084 114.385
34.5407 13497 116.177
34.6577 13575 116.512
34.7746 13394 115.732
34.8915 13178 114.795
35.0084 12764 112.978
35.1252 12507 111.835
35.242 12474 111.687
35.3587 12783 113.062
35.4755 12966 113.868
35.5921 13515 116.254
35.7088 13544 116.379
35.8254 13828 117.593
35.9419 13690 117.004
36.0584 13814 117.533
36.1749 13615 116.683
36.2913 13566 116.473
36.4077 13454 115.991
36.524 13373 115.642
36.6403 13741 117.222
36.7565 13692 117.013
36.8727 13885 117.835
36.9889 13931 118.03
37.1049 13885 117.835
37.221 0 1
37.3369 0 1
37.4529 0 1
37.5687 0 1
37.6845 0 1
37.8003 0 1
37.916 0 1
38.0316 0 1
38.1472 0 1
40.5851 0 1
40.7008 0 1
40.8164 0 1
40.9322 0 1
41.048 0 1
41.1639 0 1
41.2798 0 1
41.3958 0 1
41.5118 0 1
41.6279 0 1
41.744 11033 105.038
41.8602 11196 105.811
41.9765 11386 106.705
42.0928 11543 107.438
42.2091 11993 109.513
42.3255 11866 108.931
42.4419 11926 109.206
42.5584 12031 109.686
42.675 12285 110.838
42.7915 12052 109.782
42.9081 11933 109.238
43.0248 11699 108.162
43.1415 11132 105.508
43.2582 11288 106.245
43.375 11508 107.275
43.4918 11538 107.415
43.6087 11398 106.761
43.7256 10990 104.833
43.8425 10671 103.301
43.9595 10418 102.069
44.0765 10274 101.361
44.1935 10740 103.634
44.3106 10985 104.809
44.4277 11256 106.094
44.5448 10921 104.504
44.6619 10749 103.677
44.7791 10468 102.313
44.8963 10321 101.592
45.0136 10142 100.707
45.1308 10115 100.573
45.2481 10013 100.065
45.3654 9677 98.3717
45.4827 9884 99.4183
45.6001 10009 100.045
45.7174 10260 101.292
45.8348 10429 102.122
45.9522 10167 100.832
46.0697 10301 101.494
46.1871 10280 101.39
46.3046 10082 100.409
46.422 10203 101.01
46.5395 10078 100.389
46.657 9785 98.9192
46.7745 9526 97.6012
46.892 9400 96.9536
47.0096 9460 97.2625
47.1271 9416 97.0361
47.2446 9267 96.2653
47.3622 9179 95.8071
47.4797 8639 92.9462
47.5973 8558 92.5095
47.7149 8609 92.7847
47.8324 8830 93.9681
47.95 8875 94.2072
48.0675 8811 93.8669
48.1851 8530 92.358
48.3027 8238 90.7634
48.4202 8263 90.901
48.5378 8109 90.05
48.6554 8078 89.8777
48.7729 8027 89.5935
48.8904 8188 90.4876
49.008 8176 90.4212
49.1255 8427 91.7987
49.243 8682 93.1773
49.3605 8708 93.3167
49.478 8831 93.9734
49.5955 8995 94.842
49.713 9102 95.4044
49.8304 9336 96.623
49.9479 9502 97.4782
50.0653 9660 98.2853
50.1827 9669 98.3311
50.3001 9226 96.0521
50.4175 9223 96.0365
50.5348 9189 95.8593
50.6521 9840 99.1968
50.7694 9795 98.9697
50.8867 9997 99.985
51.004 9857 99.2824
51.1212 10286 101.42
51.2384 10583 102.874
51.3556 11428 106.902
51.4727 11362 106.593
51.5899 11416 106.846
51.707 11543 107.438
51.824 11450 107.005
51.9411 11289 106.25
52.0581 11333 106.457
52.175 11174 105.707
52.2919 10894 104.374
52.4088 11103 105.371
52.5257 11330 106.442
52.6425 11507 107.271
52.7593 11888 109.032
52.876 12477 111.7
52.9927 12885 113.512
53.1094 12711 112.743
53.226 13197 114.878
53.3426 13336 115.482
53.4591 13527 116.306
53.5756 13684 116.979
53.692 13887 117.843
53.8084 13996 118.305
53.9248 13725 117.154
54.0411 13364 115.603
54.1573 13246 115.091
54.2735 0 1
54.3896 0 1
54.5057 0 1
54.6217 0 1
54.7377 0 1
54.8537 0 1
54.9695 0 1
55.0853 0 1
55.2011 0 1
55.3168 0 1
55.4324 0 1
57.824 0 1
57.9396 0 1
58.0553 0 1
58.1711 0 1
58.2869 0 1
58.4028 0 1
58.5187 0 1
58.6347 0 1
58.7508 0 1
58.8669 0 1
58.983 16148 127.075
59.0992 16133 127.016
59.2155 15701 125.304
59.3318 15681 125.224
59.4482 15551 124.704
59.5646 15659 125.136
59.681 15707 125.328
59.7975 15683 125.232
59.9141 16263 127.526
60.0306 16187 127.228
60.1473 15915 126.155
60.2639 15871 125.98
60.3807 15591 124.864
60.4974 15116 122.947
60.6142 14917 122.135
60.731 14312 119.633
60.8479 14265 119.436
60.9648 14209 119.202
61.0818 14348 119.783
61.1987 14268 119.449
61.3158 14646 121.021
61.4328 14680 121.161
61.5499 14579 120.744
61.667 14944 122.246
61.7841 14699 121.239
61.9013 14988 122.425
62.0185 15044 122.654
62.1357 15073 122.772
62.253 15357 123.923
62.3702 15333 123.826
62.4875 15462 124.346
62.6049 15031 122.601
62.7222 15109 122.919
62.8396 14866 121.926
62.9569 14698 121.235
63.0743 14461 120.254
63.1918 14430 120.125
63.3092 14653 121.05
63.4267 14982 122.401
63.5441 14859 121.897
63.6616 14491 120.379
63.7791 13872 117.779
63.8966 13904 117.915
64.0142 13801 117.478
64.1317 13294 115.3
64.2492 13069 114.32
64.3668 12856 113.384
64.4843 12847 113.345
64.6019 13170 114.761
64.7195 13042 114.202
64.837 13289 115.278
64.9546 13302 115.334
65.0722 13308 115.36
65.1898 13264 115.169
65.3074 13695 117.026
65.4249 13448 115.966
65.5425 13842 117.652
65.6601 13793 117.444
65.7777 13993 118.292
65.8952 14227 119.277
66.0128 14390 119.958
66.1304 14709 121.281
66.2479 14131 118.874
66.3655 13670 116.919
66.483 13255 115.13
66.6005 13271 115.2
66.718 13118 114.534
66.8355 13735 117.196
66.953 14113 118.798
67.0705 14075 118.638
67.1879 14022 118.415
67.3054 13417 115.832
67.4228 13108 114.49
67.5402 12857 113.389
67.6576 12602 112.259
67.7749 12405 111.378
67.8923 12698 112.685
68.0096 12434 111.508
68.1269 12598 112.241
68.2442 12904 113.596
68.3614 13067 114.311
68.4787 13240 115.065
68.5958 13079 114.363
68.713 12972 113.895
68.8302 13224 114.996
68.9473 13100 114.455
69.0643 13416 115.827
69.1814 13318 115.404
69.2984 13634 116.765
69.4154 14129 118.865
69.5323 13959 118.148
69.6492 14324 119.683
69.7661 14600 120.83
69.8829 14765 121.511
69.9997 14546 120.607
70.1165 13928 118.017
70.2332 13724 117.149
70.3499 13490 116.146
70.4665 13775 117.367
70.5831 13936 118.051
70.6996 14165 119.017
70.8161 13514 116.25
70.9326 13193 114.861
71.049 12861 113.406
71.1653 12685 112.628
71.2817 12451 111.584
71.3979 12201 110.458
71.5141 11817 108.706
71.6303 11753 108.411
71.7464 10940 104.594
71.8624 0 1
71.9784 0 1
72.0944 0 1
72.2102 0 1
72.3261 0 1
72.4418 0 1
72.5575 0 1
72.6732 0 1
75.1054 0 1
75.2209 0 1
75.3365 0 1
75.4521 0 1
75.5678 0 1
75.6835 0 1
75.7993 0 1
75.9151 0 1
76.031 0 1
76.147 11275 106.184
76.263 11865 108.927
76.3791 11625 107.819
76.4952 11592 107.666
76.6113 11377 106.663
76.7276 11522 107.341
76.8438 11070 105.214
76.9601 11415 106.841
77.0765 11262 106.123
77.1929 11353 106.55
77.3093 12063 109.832
77.4258 12164 110.291
77.5423 12155 110.25
77.6589 11497 107.224
77.7755 11216 105.906
77.8921 11294 106.273
78.0088 11137 105.532
78.1256 11002 104.89
78.2423 11254 106.085
78.3591 11316 106.377
78.4759 11417 106.85
78.5928 11563 107.531
78.7097 11860 108.904
78.8266 12591 112.21
78.9436 11777 108.522
79.0606 11930 109.225
79.1776 11091 105.314
79.2946 10288 101.43
79.4117 11171 105.693
79.5288 12142 110.191
79.6459 11992 109.508
79.7631 11541 107.429
79.8802 10951 104.647
79.9974 10565 102.786
80.1147 10197 100.98
80.2319 10005 100.025
80.3491 10232 101.153
80.4664 10057 100.285
80.5837 10029 100.145
80.701 9947 99.7346
80.8183 10276 101.371
80.9357 10795 103.899
81.053 11032 105.033
81.1704 11029 105.019
81.2877 10841 104.12
81.4051 10367 101.818
81.5225 10337 101.671
81.6399 10038 100.19
81.7573 10149 100.742
81.8747 9899 99.4937
81.9922 9882 99.4082
82.1096 10339 101.681
82.227 10034 100.17
82.3444 10515 102.543
82.4619 10794 103.894
82.5793 10366 101.814
82.6967 10482 102.382
82.8142 9588 97.9183
82.9316 8874 94.2019
83.049 8508 92.2388
83.1664 8590 92.6823
83.2838 7781 88.21
83.4012 6879 82.9397
83.5186 6430 80.1873
83.636 6227 78.9113
83.7534 6530 80.8084
83.8708 7032 83.857
83.9881 7486 86.5217
84.1055 7802 88.3289
84.2228 8195 90.5262
84.3401 8425 91.7878
84.4575 9222 96.0312
84.5747 10020 100.1
84.692 10653 103.213
84.8093 10526 102.596
84.9265 10593 102.922
85.0437 10358 101.774
85.1609 10393 101.946
85.2781 10301 101.494
85.3952 10685 103.368
85.5123 10933 104.561
85.6294 11169 105.683
85.7465 11365 106.607
85.8636 12001 109.549
85.9806 12447 111.566
86.0976 13405 115.78
86.2145 13573 116.503
86.3315 13339 115.495
86.4484 13424 115.862
86.5652 13364 115.603
86.682 14938 122.221
86.7988 15458 124.33
86.9156 15349 123.891
87.0323 15161 123.13
87.149 15461 124.342
87.2657 15706 125.324
87.3823 16222 127.366
87.4988 16507 128.48
87.6154 16819 129.688
87.7318 17190 131.111
87.8483 17712 133.086
87.9647 18196 134.893
88.081 19132 138.318
88.1973 20296 142.464
88.3136 21184 145.547
88.4298 20646 143.687
88.546 20299 142.475
88.6621 20510 143.213
88.7781 20210 142.162
88.8942 0 1
89.0101 0 1
89.126 0 1
89.2419 0 1
89.3577 0 1
89.4734 0 1
89.5891 0 1
89.7047 0 1
89.8203 0 1
89.9358 0 1
92.3269 0 1
92.4424 0 1
92.558 0 1
92.6736 0 1
92.7893 0 1
92.905 0 1
93.0208 0 1
93.1366 0 1
93.2525 0 1
93.3685 0 1
93.4845 0 1
93.6005 22037 148.449
93.7167 22433 149.777
93.8328 22309 149.362
93.949 21992 148.297
94.0653 21491 146.598
94.1816 21746 147.465
94.2979 21139 145.393
94.4143 21403 146.298
94.5307 21335 146.065
94.6472 21416 146.342
94.7637 21072 145.162
94.8803 21387 146.243
94.9969 21504 146.642
95.1135 21933 148.098
95.2302 21888 147.946
95.3469 22046 148.479
95.4637 21326 146.034
95.5805 19907 141.092
95.6973 18823 137.197
95.8142 18552 136.206
95.9311 19152 138.391
96.048 20177 142.046
96.1649 19981 141.354
96.2819 19583 139.939
96.3989 19466 139.521
96.516 19252 138.752
96.633 18597 136.371
96.7501 18339 135.422
96.8673 17817 133.48
96.9844 17722 133.124
97.1016 17502 132.295
97.2188 17442 132.068
97.336 17895 133.772
97.4532 18155 134.74
97.5704 17894 133.768
97.6877 17478 132.204
97.805 16572 128.732
97.9223 16202 127.287
98.0396 15808 125.73
98.1569 15784 125.634
98.2743 15424 124.193
98.3916 15246 123.475
98.509 15610 124.94
98.6264 15138 123.037
98.7438 15386 124.04
98.8612 15736 125.443
98.9786 16142 127.051
99.096 15406 124.121
99.2134 14835 121.799
99.3308 14611 120.876
99.4482 14966 122.336
99.5656 15131 123.008
99.6831 14708 121.277
99.8005 13896 117.881
99.9179 13660 116.876
100.035 13510 116.233
100.153 12938 113.745
100.27 12697 112.681
100.388 12673 112.574
100.505 12337 111.072
100.622 12351 111.135
100.74 12357 111.162
100.857 12667 112.548
100.975 12928 113.701
101.092 13135 114.608
101.209 13068 114.315
101.327 12478 111.705
101.444 12122 110.1
101.561 11971 109.412
101.679 11969 109.403
101.796 11937 109.257
101.913 12019 109.631
102.03 11926 109.206
102.148 11951 109.321
102.265 13079 114.363
102.382 12539 111.978
102.499 13389 115.711
102.616 13404 115.776
102.733 13193 114.861
102.851 12636 112.41
102.968 12399 111.351
103.085 12171 110.322
103.202 11914 109.151
103.319 11615 107.773
103.436 11102 105.366
103.552 10754 103.701
103.669 10323 101.602
103.786 10307 101.523
103.903 9949 99.7447
104.02 9746 98.7218
104.137 9641 98.1886
104.253 9921 99.6042
104.37 9874 99.368
104.487 10677 103.33
104.603 10655 103.223
104.72 10404 102
104.836 10035 100.175
104.953 9688 98.4276
105.069 9731 98.6458
105.186 9621 98.0867
105.302 9651 98.2395
105.418 9704 98.5089
105.535 9674 98.3565
105.651 10043 100.215
105.767 10594 102.927
105.883 10893 104.37
105.999 11047 105.105
106.115 0 1
106.231 0 1
106.347 0 1
106.463 0 1
106.579 0 1
106.694 0 1
106.81 0 1
106.926 0 1
107.041 0 1
107.157 0 1
109.576 0 1
109.692 0 1
109.807 0 1
109.923 0 1
110.039 0 1
110.155 0 1
110.27 0 1
110.386 0 1
110.502 0 1
110.618 6687 81.7741
110.735 7196 84.8292
110.851 7884 88.7919
110.967 8316 91.1921
111.083 8591 92.6876
111.199 8972 94.7206
111.316 8791 93.7603
111.432 9022 94.9842
111.549 8368 91.4768
111.665 7773 88.1646
111.782 7219 84.9647
111.898 6972 83.4985
112.015 6779 82.3347
112.132 6272 79.196
112.248 6292 79.3221
112.365 6070 77.9102
112.482 5995 77.4274
112.599 5686 75.4056
112.716 5718 75.6175
112.832 5651 75.1731
112.949 5718 75.6175
113.066 5995 77.4274
113.183 5884 76.7072
113.3 5608 74.8866
113.417 5749 75.8222
113.534 5706 75.5381
113.652 5810 76.2234
113.769 5972 77.2787
113.886 5868 76.6029
114.003 5879 76.6746
114.12 6342 79.6367
114.238 6496 80.5978
114.355 6738 82.0853
114.472 6670 81.6701
114.589 7058 84.0119
114.707 7176 84.7113
114.824 7643 87.4243
114.942 7838 88.5325
115.059 7891 88.8313
115.176 7582 87.0747
115.294 7365 85.8196
115.411 6774 82.3043
115.529 6432 80.1998
115.646 6386 79.9125
115.764 6166 78.5239
115.881 6096 78.0769
115.999 6037 77.6981
116.116 5850 76.4853
116.234 5718 75.6175
116.351 5683 75.3857
116.469 5661 75.2396
116.586 5755 75.8617
116.704 5801 76.1643
116.821 5819 76.2824
116.939 5906 76.8505
117.056 5881 76.6877
117.174 6076 77.9487
117.291 6303 79.3914
117.409 6422 80.1374
117.526 6581 81.1234
117.644 6906 83.1023
117.761 7134 84.463
117.879 7473 86.4465
117.996 7471 86.4349
118.114 7133 84.4571
118.231 7125 84.4097
118.349 7681 87.6413
118.466 8468 92.0217
118.584 8694 93.2416
118.701 8894 94.308
118.819 8855 94.101
118.936 8442 91.8804
119.053 8117 90.0944
119.171 7776 88.1816
119.288 7508 86.6487
119.405 7355 85.7613
119.523 7201 84.8587
119.64 7161 84.6227
119.757 6962 83.4386
119.875 6796 82.4379
119.992 6699 81.8474
120.109 6323 79.5173
120.226 6401 80.0062
120.343 6299 79.3662
120.46 6231 78.9367
120.578 6207 78.7845
120.695 6402 80.0125
120.812 6789 82.3954
120.929 7054 83.9881
121.046 7314 85.5219
121.163 7780 88.2043
121.279 7997 89.4259
121.396 8208 90.598
121.513 8250 90.8295
121.63 8442 91.8804
121.747 7957 89.202
121.863 7795 88.2893
121.98 7687 87.6755
122.097 8068 89.822
122.213 8934 94.5198
122.33 9330 96.5919
122.446 9539 97.6678
122.563 9227 96.0573
122.679 9433 97.1236
122.795 9237 96.1093
122.912 9123 95.5144
123.028 8786 93.7337
123.144 8521 92.3093
123.26 8485 92.1141
123.377 0 1
123.493 0 1
123.609 0 1
123.725 0 1
123.84 0 1
123.956 0 1
124.072 0 1
124.188 0 1
124.303 0 1
124.419 0 1
126.852 0 1
126.968 0 1
127.083 0 1
127.199 0 1
127.315 0 1
127.431 0 1
127.547 0 1
127.663 0 1
127.779 0 1
127.895 0 1
128.011 0 1
128.127 0 1
128.243 0 1
128.359 11377 106.663
128.476 11070 105.214
128.592 10563 102.776
128.708 10770 103.779
128.825 10398 101.971
128.941 10254 101.262
129.058 10063 100.315
129.174 9565 97.8008
129.291 9516 97.55
129.408 9293 96.4002
129.524 9533 97.6371
129.641 9576 97.857
129.758 10149 100.742
129.875 10680 103.344
129.992 10833 104.082
130.108 11303 106.316
130.225 11439 106.953
130.342 11490 107.191
130.459 11066 105.195
130.576 11265 106.137
130.693 10554 102.733
130.81 10295 101.464
130.928 10455 102.25
131.045 10557 102.747
131.162 11189 105.778
131.279 12043 109.741
131.396 12353 111.144
131.513 12696 112.677
131.631 12466 111.651
131.748 12552 112.036
131.865 12326 111.023
131.983 12016 109.618
132.1 11887 109.028
132.217 11542 107.434
132.335 11467 107.084
132.452 11179 105.731
132.57 11002 104.89
132.687 10510 102.518
132.804 10998 104.871
132.922 10486 102.401
133.039 10390 101.931
133.157 10319 101.582
133.274 10793 103.889
133.392 11139 105.541
133.509 11648 107.926
133.627 11791 108.586
133.744 12372 111.229
133.862 12160 110.272
133.979 12278 110.806
134.097 11838 108.803
134.214 11605 107.727
134.332 11112 105.413
134.449 11575 107.587
134.567 11848 108.849
134.684 12124 110.109
134.802 12712 112.748
134.919 13503 116.202
135.037 13783 117.401
135.154 14138 118.903
135.272 14147 118.941
135.389 14189 119.118
135.507 14373 119.887
135.624 14327 119.695
135.742 13916 117.966
135.859 13723 117.145
135.977 13642 116.799
136.094 13243 115.078
136.211 12911 113.627
136.329 12432 111.499
136.446 12042 109.736
136.564 11565 107.541
136.681 11634 107.861
136.798 11827 108.752
136.915 12241 110.639
137.033 12315 110.973
137.15 13261 115.156
137.267 13773 117.358
137.384 13954 118.127
137.502 14023 118.419
137.619 13944 118.085
137.736 13522 116.284
137.853 13089 114.407
137.97 12960 113.842
138.087 13763 117.316
138.204 13740 117.218
138.321 14325 119.687
138.438 14848 121.852
138.555 15318 123.766
138.672 15418 124.169
138.788 15807 125.726
138.905 15970 126.372
139.022 16301 127.675
139.139 16325 127.769
139.255 16097 126.874
139.372 16247 127.464
139.488 15785 125.638
139.605 15598 124.892
139.721 15306 123.717
139.838 14979 122.389
139.954 14280 119.499
140.071 13755 117.282
140.187 13696 117.03
140.303 13102 114.464
140.419 12990 113.974
140.535 13214 114.952
140.652 13441 115.935
140.768 0 1
140.884 0 1
141 0 1
141.115 0 1
141.231 0 1
141.347 0 1
141.463 0 1
141.578 0 1
141.694 0 1
144.104 0 1
144.219 0 1
144.335 0 1
144.45 0 1
144.566 0 1
144.682 0 1
144.798 0 1
144.914 0 1
145.03 0 1
145.146 13164 114.734
145.262 13120 114.543
145.378 12819 113.221
145.494 13092 114.42
145.61 13139 114.625
145.726 13480 116.103
145.842 13889 117.852
145.959 14174 119.055
146.075 14223 119.26
146.192 13831 117.605
146.308 13601 116.623
146.425 13403 115.771
146.541 13254 115.126
146.658 13132 114.595
146.774 13437 115.918
146.891 13782 117.397
147.008 14130 118.87
147.125 14166 119.021
147.241 14624 120.93
147.358 14432 120.133
147.475 14236 119.315
147.592 14553 120.636
147.709 14660 121.078
147.826 14928 122.18
147.943 15105 122.902
148.06 14894 122.041
148.177 14903 122.078
148.294 14414 120.058
148.411 14076 118.642
148.528 14237 119.319
148.645 13445 115.953
148.762 13019 114.101
148.88 12881 113.494
148.997 12273 110.784
149.114 13253 115.122
149.231 12921 113.671
149.349 13114 114.516
149.466 13291 115.287
149.583 13500 116.19
149.701 13489 116.142
149.818 13273 115.209
149.935 12864 113.42
150.053 12841 113.318
150.17 12621 112.343
150.287 12957 113.829
150.405 13170 114.761
150.522 13542 116.37
150.64 13851 117.69
150.757 14286 119.524
150.875 14261 119.419
150.992 14062 118.583
151.11 13736 117.201
151.227 14152 118.962
151.344 14107 118.773
151.462 14211 119.21
151.579 14885 122.004
151.697 14616 120.897
151.814 14775 121.552
151.932 14772 121.54
152.049 14576 120.731
152.167 14239 119.327
152.284 13810 117.516
152.402 13903 117.911
152.519 13185 114.826
152.636 13436 115.914
152.754 13043 114.206
152.871 13363 115.598
152.989 13588 116.568
153.106 13759 117.299
153.223 13604 116.636
153.341 13681 116.966
153.458 13509 116.228
153.575 13402 115.767
153.693 13328 115.447
153.81 13540 116.362
153.927 13511 116.237
154.044 14155 118.975
154.162 14374 119.892
154.279 15015 122.536
154.396 15320 123.774
154.513 15317 123.762
154.63 15419 124.173
154.747 15117 122.951
154.864 14912 122.115
154.981 15372 123.984
155.098 15411 124.141
155.215 15317 123.762
155.332 15562 124.748
155.449 15515 124.559
155.566 15548 124.692
155.683 15526 124.603
155.8 15178 123.199
155.917 15154 123.102
156.033 14713 121.297
156.15 0 1
156.267 0 1
156.383 0 1
156.5 0 1
156.617 0 1
156.733 0 1
156.85 0 1
156.966 0 1
157.082 0 1
157.199 0 1
157.315 0 1
157.431 0 1
157.547 0 1
157.664 0 1
157.78 0 1
157.896 0 1
158.012 0 1
158.128 0 1
158.244 0 1
158.359 0 1
158.475 0 1
158.591 0 1
158.706 0 1
