
6.15755 0 1
6.2731 0 1
6.3887 0 1
6.50437 0 1
6.62009 0 1
6.73587 0 1
6.8517 0 1
6.96759 0 1
7.08353 0 1
7.19952 0 1
7.31557 0 1
7.43166 0 1
7.54781 0 1
7.664 0 1
7.78024 0 1
7.89653 0 1
8.01286 0 1
8.12924 0 1
8.24567 0 1
8.36213 0 1
8.47864 0 1
8.59519 0 1
8.71178 0 1
8.82841 0 1
8.94508 0 1
9.06179 0 1
9.17853 0 1
9.29531 0 1
9.41212 0 1
9.52897 0 1
9.64584 0 1
9.76276 0 1
9.8797 0 1
9.99667 0 1
10.1137 0 1
10.2307 0 1
10.3478 0 1
10.4648 0 1
10.5819 0 1
10.6991 0 1
10.8162 0 1
10.9334 0 1
11.0506 0 1
11.1678 0 1
11.285 0 1
11.4023 0 1
11.5196 0 1
11.6369 0 1
11.7542 0 1
11.8715 0 1
11.9888 0 1
12.1062 0 1
12.2235 0 1
12.3409 0 1
12.4582 0 1
12.5756 0 1
12.693 0 1
12.8104 0 1
12.9278 0 1
13.0452 0 1
13.1626 0 1
13.28 0 1
13.3974 0 1
13.5149 0 1
13.6323 0 1
13.7497 0 1
13.8671 0 1
13.9845 0 1
14.1019 0 1
14.2193 0 1
14.3367 0 1
14.4541 0 1
14.5714 0 1
14.6888 0 1
14.8062 0 1
14.9235 0 1
15.0408 0 0
15.1581 0 0
15.2755 0 0
15.3927 0 0
15.51 0 0
15.6273 0 0
15.7445 0 0
15.8617 0 0
15.9789 0 0
16.0961 0 0
16.2132 0 0
16.3304 0 0
16.4475 0 0
16.5646 0 0
16.6816 0 0
16.7986 0 0
16.9156 0 0
17.0326 0 0
17.1496 0 0
17.2665 0 0
17.3833 0 0
17.5002 0 0
17.617 0 0
17.7338 0 0
17.8505 0 0
17.9672 0 0
18.0839 0 0
18.2005 0 0
18.3171 0 0
18.4337 0 0
18.5502 0 0
18.6666 0 0
18.7831 0 0
18.8994 0 0
19.0158 0 0
19.1321 0 0
19.2483 0 0
19.3645 0 0
19.4806 0 0
19.5967 0 0
19.7128 0 0
19.8288 0 0
19.9447 0 0
20.0606 0 1
20.1764 0 1
20.2922 0 1
20.4079 0 1
20.5236 0 1
20.6392 0 1
20.7548 0 1
20.8702 0 1
23.3078 0 1
23.4233 0 1
23.539 0 1
23.6547 0 1
23.7704 0 1
23.8862 0 1
24.0021 0 1
24.118 0 1
24.234 0 1
24.35 0 1
24.4661 1344 36.6606
24.5822 1470 38.3406
24.6984 1592 39.8999
24.8146 1793 42.3438
24.9309 2090 45.7165
25.0472 2342 48.3942
25.1636 2546 50.4579
25.28 2716 52.1153
25.3965 2829 53.1883
25.513 2829 53.1883
25.6296 2878 53.647
25.7462 2767 52.6023
25.8628 2871 53.5817
25.9795 2874 53.6097
26.0962 2890 53.7587
26.213 2854 53.4228
26.3298 2921 54.0463
26.4466 2996 54.7357
26.5635 2896 53.8145
26.6804 2854 53.4228
26.7973 2757 52.5071
26.9143 2725 52.2015
27.0313 2786 52.7826
27.1483 2722 52.1728
27.2653 2567 50.6656
27.3824 2536 50.3587
27.4996 2335 48.3218
27.6167 2322 48.1871
27.7339 2335 48.3218
27.8511 2400 48.9898
27.9683 2618 51.1664
28.0855 2680 51.7687
28.2028 2643 51.4101
28.3201 2512 50.1199
28.4374 2631 51.2933
28.5547 2644 51.4198
28.6721 2699 51.9519
28.7894 2594 50.9313
28.9068 2620 51.1859
29.0242 2732 52.2685
29.1416 2760 52.5357
29.259 2787 52.792
29.3764 2622 51.2055
29.4939 2556 50.5569
29.6113 2494 49.94
29.7288 2525 50.2494
29.8463 2561 50.6063
29.9638 2498 49.98
30.0812 2544 50.4381
30.1987 2633 51.3128
30.3162 2546 50.4579
30.4337 2572 50.7149
30.5512 2638 51.3615
30.6687 2768 52.6118
30.7862 2658 51.5558
30.9037 2405 49.0408
31.0212 2404 49.0306
31.1387 2408 49.0714
31.2562 2420 49.1935
31.3737 2553 50.5272
31.4912 2658 51.5558
31.6087 2732 52.2685
31.7262 2748 52.4214
31.8436 2733 52.2781
31.9611 2595 50.9411
32.0785 2615 51.1371
32.1959 2638 51.3615
32.3134 2599 50.9804
32.4308 2565 50.6458
32.5482 2489 49.8899
32.6655 2394 48.9285
32.7829 2482 49.8197
32.9002 2421 49.2037
33.0176 2278 47.7284
33.1349 2339 48.3632
33.2522 2373 48.7134
33.3694 2240 47.3286
33.4867 2356 48.5386
33.6039 2338 48.3529
33.7211 2455 49.548
33.8383 2506 50.06
33.9554 2459 49.5883
34.0725 2557 50.5668
34.1896 2648 51.4587
34.3067 2567 50.6656
34.4237 2519 50.1896
34.5407 2471 49.7092
34.6577 2410 49.0918
34.7746 2481 49.8096
34.8915 2344 48.4149
35.0084 2487 49.8698
35.1252 2577 50.7642
35.242 2601 51
35.3587 2724 52.192
35.4755 2619 51.1762
35.5921 2593 50.9215
35.7088 2521 50.2096
35.8254 2457 49.5681
35.9419 2364 48.621
36.0584 2199 46.8935
36.1749 2210 47.0106
36.2913 2254 47.4763
36.4077 2164 46.5188
36.524 2032 45.0777
36.6403 1738 41.6893
36.7565 1631 40.3856
36.8727 1561 39.5095
36.9889 1475 38.4057
37.1049 1483 38.5097
37.221 0 1
37.3369 0 1
37.4529 0 1
37.5687 0 1
37.6845 0 1
37.8003 0 1
37.916 0 1
38.0316 0 1
38.1472 0 1
40.5851 0 1
40.7008 0 1
40.8164 0 1
40.9322 0 1
41.048 0 1
41.1639 0 1
41.2798 0 1
41.3958 0 1
41.5118 0 1
41.6279 0 1
41.744 1946 44.1135
41.8602 2508 50.0799
41.9765 3086 55.5518
42.0928 3316 57.5847
42.2091 3305 57.4891
42.3255 3375 58.0948
42.4419 3380 58.1378
42.5584 3439 58.643
42.675 3439 58.643
42.7915 3494 59.1101
42.9081 3666 60.5475
43.0248 3632 60.2661
43.1415 3596 59.9667
43.2582 3500 59.1608
43.375 3243 56.9473
43.4918 3218 56.7274
43.6087 3445 58.6941
43.7256 3434 58.6003
43.8425 3570 59.7495
43.9595 3520 59.3296
44.0765 3412 58.4123
44.1935 3407 58.3695
44.3106 3424 58.515
44.4277 3260 57.0964
44.5448 3161 56.2228
44.6619 3045 55.1815
44.7791 2928 54.111
44.8963 2862 53.4977
45.0136 2708 52.0384
45.1308 2603 51.0196
45.2481 2474 49.7393
45.3654 2351 48.4871
45.4827 2243 47.3603
45.6001 2159 46.465
45.7174 2136 46.2169
45.8348 2087 45.6837
45.9522 2112 45.9565
46.0697 2111 45.9456
46.1871 2174 46.6262
46.3046 2192 46.8188
46.422 2291 47.8644
46.5395 2254 47.4763
46.657 2234 47.2652
46.7745 2275 47.697
46.892 1992 44.6318
47.0096 2007 44.7996
47.1271 2143 46.2925
47.2446 2185 46.744
47.3622 2123 46.076
47.4797 2262 47.5605
47.5973 2159 46.465
47.7149 2155 46.422
47.8324 2265 47.592
47.95 2187 46.7654
48.0675 2091 45.7275
48.1851 2156 46.4327
48.3027 2186 46.7547
48.4202 2095 45.7712
48.5378 1984 44.5421
48.6554 2045 45.2217
48.7729 1951 44.1701
48.8904 1948 44.1362
49.008 1896 43.5431
49.1255 1901 43.6005
49.243 1899 43.5775
49.3605 1976 44.4522
49.478 1938 44.0227
49.5955 2126 46.1086
49.713 2075 45.5522
49.8304 2099 45.8148
49.9479 2133 46.1844
50.0653 2145 46.3141
50.1827 2145 46.3141
50.3001 2097 45.793
50.4175 1751 41.845
50.5348 1681 41
50.6521 1879 43.3474
50.7694 1917 43.7836
50.8867 1973 44.4185
51.004 2164 46.5188
51.1212 2188 46.7761
51.2384 2205 46.9574
51.3556 2269 47.634
51.4727 2135 46.2061
51.5899 2119 46.0326
51.707 2123 46.076
51.824 2188 46.7761
51.9411 2127 46.1194
52.0581 2021 44.9555
52.175 2090 45.7165
52.2919 2016 44.8999
52.4088 1966 44.3396
52.5257 1944 44.0908
52.6425 1906 43.6578
52.7593 1881 43.3705
52.876 1903 43.6234
52.9927 1917 43.7836
53.1094 1963 44.3058
53.226 1880 43.359
53.3426 1876 43.3128
53.4591 1956 44.2267
53.5756 1722 41.497
53.692 1493 38.6394
53.8084 1419 37.6696
53.9248 1255 35.426
54.0411 1181 34.3657
54.1573 1076 32.8024
54.2735 0 1
54.3896 0 1
54.5057 0 1
54.6217 0 1
54.7377 0 1
54.8537 0 1
54.9695 0 1
55.0853 0 1
55.2011 0 1
55.3168 0 1
55.4324 0 1
57.824 0 1
57.9396 0 1
58.0553 0 1
58.1711 0 1
58.2869 0 1
58.4028 0 1
58.5187 0 1
58.6347 0 1
58.7508 0 1
58.8669 0 1
58.983 1747 41.7971
59.0992 1751 41.845
59.2155 1802 42.45
59.3318 1865 43.1856
59.4482 2058 45.3652
59.5646 2257 47.5079
59.681 2390 48.8876
59.7975 2561 50.6063
59.9141 2487 49.8698
60.0306 2495 49.95
60.1473 2535 50.3488
60.2639 2506 50.06
60.3807 2490 49.8999
60.4974 2500 50
60.6142 2554 50.5371
60.731 2528 50.2792
60.8479 2644 51.4198
60.9648 2631 51.2933
61.0818 2535 50.3488
61.1987 2640 51.3809
61.3158 2520 50.1996
61.4328 2469 49.689
61.5499 2354 48.518
61.667 2441 49.4065
61.7841 2456 49.558
61.9013 2507 50.07
62.0185 2516 50.1597
62.1357 2575 50.7445
62.253 2578 50.774
62.3702 2561 50.6063
62.4875 2249 47.4236
62.6049 2161 46.4866
62.7222 2181 46.7012
62.8396 2328 48.2494
62.9569 2525 50.2494
63.0743 2667 51.643
63.1918 2687 51.8363
63.3092 2704 52
63.4267 2657 51.5461
63.5441 2677 51.7397
63.6616 2599 50.9804
63.7791 2641 51.3907
63.8966 2511 50.1099
64.0142 2553 50.5272
64.1317 2465 49.6488
64.2492 2680 51.7687
64.3668 2585 50.8429
64.4843 2478 49.7795
64.6019 2480 49.7996
64.7195 2427 49.2646
64.837 2481 49.8096
64.9546 2360 48.5798
65.0722 2367 48.6518
65.1898 2464 49.6387
65.3074 2533 50.3289
65.4249 2405 49.0408
65.5425 2462 49.6185
65.6601 2396 48.949
65.7777 2448 49.4773
65.8952 2388 48.8672
66.0128 2367 48.6518
66.1304 2193 46.8295
66.2479 1947 44.1248
66.3655 2066 45.4533
66.483 2270 47.6445
66.6005 2448 49.4773
66.718 2530 50.2991
66.8355 2496 49.96
66.953 2563 50.6261
67.0705 2513 50.1298
67.1879 2599 50.9804
67.3054 2519 50.1896
67.4228 2535 50.3488
67.5402 2478 49.7795
67.6576 2470 49.6991
67.7749 2410 49.0918
67.8923 2432 49.3153
68.0096 2402 49.0102
68.1269 2466 49.6588
68.2442 2496 49.96
68.3614 2472 49.7192
68.4787 2251 47.4447
68.5958 2390 48.8876
68.713 2414 49.1325
68.8302 2247 47.4025
68.9473 2277 47.7179
69.0643 2308 48.0416
69.1814 2262 47.5605
69.2984 2501 50.01
69.4154 2405 49.0408
69.5323 2395 48.9387
69.6492 2190 46.7974
69.7661 1946 44.1135
69.8829 1848 42.9884
69.9997 1885 43.4166
70.1165 2086 45.6727
70.2332 2128 46.1303
70.3499 1978 44.4747
70.4665 1813 42.5793
70.5831 1785 42.2493
70.6996 1676 40.939
70.8161 1595 39.9375
70.9326 1458 38.1838
71.049 1491 38.6135
71.1653 1384 37.2022
71.2817 1371 37.027
71.3979 1293 35.9583
71.5141 1276 35.7211
71.6303 1202 34.6699
71.7464 1137 33.7194
71.8624 0 1
71.9784 0 1
72.0944 0 1
72.2102 0 1
72.3261 0 1
72.4418 0 1
72.5575 0 1
72.6732 0 1
75.1054 0 1
75.2209 0 1
75.3365 0 1
75.4521 0 1
75.5678 0 1
75.6835 0 1
75.7993 0 1
75.9151 0 1
76.031 0 1
76.147 1934 43.9773
76.263 2185 46.744
76.3791 2149 46.3573
76.4952 2246 47.392
76.6113 2230 47.2229
76.7276 2260 47.5395
76.8438 2262 47.5605
76.9601 2229 47.2123
77.0765 2400 48.9898
77.1929 2298 47.9375
77.3093 2352 48.4974
77.4258 2267 47.613
77.5423 2182 46.7119
77.6589 2286 47.8121
77.7755 2252 47.4552
77.8921 2181 46.7012
78.0088 2300 47.9583
78.1256 2237 47.2969
78.2423 2374 48.7237
78.3591 2325 48.2183
78.4759 2345 48.4252
78.5928 2240 47.3286
78.7097 2020 44.9444
78.8266 1737 41.6773
78.9436 1518 38.9615
79.0606 1591 39.8873
79.1776 1932 43.9545
79.2946 2164 46.5188
79.4117 2344 48.4149
79.5288 2483 49.8297
79.6459 2462 49.6185
79.7631 2398 48.9694
79.8802 2339 48.3632
79.9974 2471 49.7092
80.1147 2395 48.9387
80.2319 2336 48.3322
80.3491 2247 47.4025
80.4664 2473 49.7293
80.5837 2505 50.05
80.701 2501 50.01
80.8183 2440 49.3964
80.9357 2474 49.7393
81.053 2494 49.94
81.1704 2495 49.95
81.2877 2380 48.7852
81.4051 2367 48.6518
81.5225 2382 48.8057
81.6399 2422 49.2138
81.7573 2514 50.1398
81.8747 2550 50.4975
81.9922 2607 51.0588
82.1096 2793 52.8488
82.227 2744 52.3832
82.3444 2488 49.8799
82.4619 2301 47.9687
82.5793 2133 46.1844
82.6967 2217 47.085
82.8142 2798 52.8961
82.9316 3223 56.7715
83.049 3599 59.9917
83.1664 3801 61.6523
83.2838 3930 62.6897
83.4012 3937 62.7455
83.5186 4095 63.9922
83.636 4265 65.307
83.7534 4227 65.0154
83.8708 4266 65.3146
83.9881 4382 66.1967
84.1055 4465 66.8207
84.2228 4328 65.7875
84.3401 4446 66.6783
84.4575 4506 67.1267
84.5747 4558 67.513
84.692 4346 65.9242
84.8093 4489 67
84.9265 4408 66.3928
85.0437 4405 66.3702
85.1609 4286 65.4675
85.2781 4388 66.242
85.3952 4347 65.9318
85.5123 4399 66.325
85.6294 4139 64.3351
85.7465 4230 65.0385
85.8636 3893 62.3939
85.9806 3393 58.2495
86.0976 2857 53.4509
86.2145 2700 51.9615
86.3315 3059 55.3082
86.4484 3943 62.7933
86.5652 4192 64.7457
86.682 4333 65.8255
86.7988 4298 65.5591
86.9156 4318 65.7115
87.0323 4243 65.1383
87.149 4227 65.0154
87.2657 4355 65.9924
87.3823 4254 65.2227
87.4988 4052 63.6553
87.6154 3699 60.8194
87.7318 3346 57.8446
87.8483 3166 56.2672
87.9647 3140 56.0357
88.081 3057 55.2901
88.1973 2949 54.3047
88.3136 2826 53.1601
88.4298 2702 51.9808
88.546 2525 50.2494
88.6621 2458 49.5782
88.7781 2516 50.1597
88.8942 0 1
89.0101 0 1
89.126 0 1
89.2419 0 1
89.3577 0 1
89.4734 0 1
89.5891 0 1
89.7047 0 1
89.8203 0 1
89.9358 0 1
92.3269 0 1
92.4424 0 1
92.558 0 1
92.6736 0 1
92.7893 0 1
92.905 0 1
93.0208 0 1
93.1366 0 1
93.2525 0 1
93.3685 0 1
93.4845 0 1
93.6005 4455 66.7458
93.7167 4520 67.2309
93.8328 4419 66.4756
93.949 4330 65.8027
94.0653 4316 65.6963
94.1816 4419 66.4756
94.2979 4470 66.8581
94.4143 4439 66.6258
94.5307 4523 67.2533
94.6472 4332 65.8179
94.7637 4262 65.284
94.8803 3907 62.506
94.9969 3438 58.6345
95.1135 3035 55.0908
95.2302 3186 56.4447
95.3469 3705 60.8687
95.4637 4175 64.6142
95.5805 4526 67.2756
95.6973 4526 67.2756
95.8142 4510 67.1565
95.9311 4607 67.8749
96.048 4603 67.8454
96.1649 4605 67.8602
96.2819 4589 67.7422
96.3989 4490 67.0075
96.516 4509 67.1491
96.633 4564 67.5574
96.7501 4552 67.4685
96.8673 4710 68.6294
96.9844 4645 68.1542
97.1016 4741 68.8549
97.2188 4683 68.4324
97.336 4563 67.55
97.4532 4601 67.8307
97.5704 4510 67.1565
97.6877 4596 67.7938
97.805 4691 68.4909
97.9223 4562 67.5426
98.0396 4432 66.5733
98.1569 4464 66.8132
98.2743 4487 66.9851
98.3916 4008 63.3088
98.509 3499 59.1523
98.6264 2990 54.6809
98.7438 3275 57.2276
98.8612 3589 59.9083
98.9786 4114 64.1405
99.096 4235 65.0769
99.2134 4129 64.2573
99.3308 4167 64.5523
99.4482 3985 63.1269
99.5656 3948 62.8331
99.6831 3803 61.6685
99.8005 3806 61.6928
99.9179 3631 60.2578
100.035 3736 61.1228
100.153 3539 59.4895
100.27 3412 58.4123
100.388 3531 59.4222
100.505 3492 59.0931
100.622 3312 57.55
100.74 3282 57.2887
100.857 3143 56.0625
100.975 3142 56.0535
101.092 3083 55.5248
101.209 3040 55.1362
101.327 3106 55.7315
101.444 3126 55.9106
101.561 3116 55.8211
101.679 3144 56.0714
101.796 3093 55.6147
101.913 2958 54.3875
102.03 2836 53.2541
102.148 2390 48.8876
102.265 2224 47.1593
102.382 2500 50
102.499 2611 51.0979
102.616 2867 53.5444
102.733 2962 54.4243
102.851 2929 54.1202
102.968 3013 54.8908
103.085 2853 53.4135
103.202 2830 53.1977
103.319 2878 53.647
103.436 2798 52.8961
103.552 2813 53.0377
103.669 2845 53.3385
103.786 2763 52.5642
103.903 2815 53.0566
104.02 2804 52.9528
104.137 2839 53.2823
104.253 3046 55.1906
104.37 2832 53.2165
104.487 2841 53.301
104.603 2795 52.8678
104.72 2691 51.8748
104.836 2462 49.6185
104.953 2256 47.4974
105.069 1966 44.3396
105.186 1767 42.0357
105.302 1707 41.3159
105.418 1599 39.9875
105.535 1465 38.2753
105.651 1257 35.4542
105.767 1008 31.749
105.883 870 29.4958
105.999 894 29.8998
106.115 0 1
106.231 0 1
106.347 0 1
106.463 0 1
106.579 0 1
106.694 0 1
106.81 0 1
106.926 0 1
107.041 0 1
107.157 0 1
109.576 0 1
109.692 0 1
109.807 0 1
109.923 0 1
110.039 0 1
110.155 0 1
110.27 0 1
110.386 0 1
110.502 0 1
110.618 2843 53.3198
110.735 3008 54.8452
110.851 2828 53.1789
110.967 2443 49.4267
111.083 2383 48.816
111.199 2659 51.5655
111.316 2951 54.3231
111.432 3118 55.8391
111.549 3060 55.3173
111.665 3163 56.2406
111.782 3165 56.2583
111.898 3158 56.1961
112.015 3114 55.8032
112.132 3137 56.0089
112.248 3105 55.7225
112.365 3129 55.9375
112.482 3040 55.1362
112.599 3254 57.0438
112.716 3231 56.8419
112.832 3413 58.4209
112.949 3413 58.4209
113.066 3554 59.6154
113.183 3386 58.1893
113.3 3420 58.4808
113.417 3495 59.1185
113.534 3424 58.515
113.652 3406 58.3609
113.769 3427 58.5406
113.886 3452 58.7537
114.003 3364 58
114.12 3526 59.3801
114.238 3251 57.0175
114.355 3025 55
114.472 2703 51.9904
114.589 2525 50.2494
114.707 2727 52.2207
114.824 3046 55.1906
114.942 3108 55.7494
115.059 3401 58.3181
115.176 3308 57.5152
115.294 3242 56.9386
115.411 3225 56.7891
115.529 3232 56.8507
115.646 3271 57.1927
115.764 3065 55.3624
115.881 3235 56.8771
115.999 3174 56.3383
116.116 3178 56.3738
116.234 3183 56.4181
116.351 3445 58.6941
116.469 3426 58.532
116.586 3557 59.6406
116.704 3595 59.9583
116.821 3575 59.7913
116.939 3459 58.8133
117.056 3619 60.1581
117.174 3489 59.0678
117.291 3454 58.7707
117.409 3478 58.9746
117.526 3446 58.7026
117.644 3528 59.397
117.761 3416 58.4466
117.879 3286 57.3236
117.996 3030 55.0454
118.114 2727 52.2207
118.231 2710 52.0577
118.349 2826 53.1601
118.466 3064 55.3534
118.584 3218 56.7274
118.701 3206 56.6216
118.819 3156 56.1783
118.936 3210 56.6569
119.053 3179 56.3826
119.171 3104 55.7136
119.288 3039 55.1271
119.405 3121 55.8659
119.523 3181 56.4004
119.64 3038 55.1181
119.757 3029 55.0364
119.875 3133 55.9732
119.992 3135 55.9911
120.109 3204 56.6039
120.226 3198 56.5509
120.343 3264 57.1314
120.46 3347 57.8533
120.578 3370 58.0517
120.695 3227 56.8067
120.812 3247 56.9825
120.929 3297 57.4195
121.046 3257 57.0701
121.163 3159 56.205
121.279 3192 56.4978
121.396 3154 56.1605
121.513 3119 55.848
121.63 2726 52.2111
121.747 2508 50.0799
121.863 2252 47.4552
121.98 2218 47.0956
122.097 2168 46.5618
122.213 2230 47.2229
122.33 2305 48.0104
122.446 2155 46.422
122.563 2127 46.1194
122.679 2068 45.4753
122.795 2058 45.3652
122.912 2010 44.833
123.028 1910 43.7035
123.144 1793 42.3438
123.26 1883 43.3935
123.377 0 1
123.493 0 1
123.609 0 1
123.725 0 1
123.84 0 1
123.956 0 1
124.072 0 1
124.188 0 1
124.303 0 1
124.419 0 1
126.852 0 1
126.968 0 1
127.083 0 1
127.199 0 1
127.315 0 1
127.431 0 1
127.547 0 1
127.663 0 1
127.779 0 1
127.895 0 1
128.011 0 1
128.127 0 1
128.243 0 1
128.359 3690 60.7454
128.476 3676 60.63
128.592 3664 60.531
128.708 3685 60.7042
128.825 3680 60.663
128.941 3711 60.918
129.058 3703 60.8523
129.174 3843 61.9919
129.291 3983 63.111
129.408 3864 62.1611
129.524 4050 63.6396
129.641 4166 64.5446
129.758 4227 65.0154
129.875 4261 65.2763
129.992 4437 66.6108
130.108 4442 66.6483
130.225 4468 66.8431
130.342 4413 66.4304
130.459 4192 64.7457
130.576 4210 64.8845
130.693 3876 62.2575
130.81 3776 61.4492
130.928 3906 62.498
131.045 3897 62.426
131.162 4056 63.6867
131.279 4157 64.4748
131.396 4261 65.2763
131.513 4039 63.5531
131.631 4098 64.0156
131.748 4158 64.4826
131.865 4232 65.0538
131.983 4203 64.8305
132.1 4123 64.2106
132.217 4060 63.7181
132.335 4123 64.2106
132.452 3976 63.0555
132.57 4031 63.4902
132.687 3825 61.8466
132.804 4320 65.7267
132.922 4146 64.3894
133.039 4133 64.2884
133.157 4238 65.0999
133.274 4241 65.123
133.392 4310 65.6506
133.509 4456 66.7533
133.627 4495 67.0448
133.744 4562 67.5426
133.862 4555 67.4907
133.979 4496 67.0522
134.097 4648 68.1762
134.214 4406 66.3777
134.332 4248 65.1767
134.449 4267 65.3223
134.567 4232 65.0538
134.684 4406 66.3777
134.802 4434 66.5883
134.919 4466 66.8281
135.037 4549 67.4463
135.154 4509 67.1491
135.272 4518 67.2161
135.389 4617 67.9485
135.507 4441 66.6408
135.624 4392 66.2722
135.742 4150 64.4205
135.859 4141 64.3506
135.977 4188 64.7148
136.094 4197 64.7843
136.211 4120 64.1872
136.329 4300 65.5744
136.446 4211 64.8922
136.564 4196 64.7765
136.681 4297 65.5515
136.798 4266 65.3146
136.915 4331 65.8103
137.033 4281 65.4294
137.15 4467 66.8356
137.267 4445 66.6708
137.384 4368 66.0908
137.502 4385 66.2193
137.619 4368 66.0908
137.736 4200 64.8074
137.853 4035 63.5216
137.97 4043 63.5846
138.087 4017 63.3798
138.204 4152 64.436
138.321 4217 64.9384
138.438 4281 65.4294
138.555 4271 65.3529
138.672 4360 66.0303
138.788 4246 65.1613
138.905 4180 64.6529
139.022 4018 63.3877
139.139 3847 62.0242
139.255 3730 61.0737
139.372 3487 59.0508
139.488 3576 59.7997
139.605 3283 57.2975
139.721 3290 57.3585
139.838 3166 56.2672
139.954 3057 55.2901
140.071 3011 54.8726
140.187 3136 56
140.303 2933 54.1572
140.419 3006 54.827
140.535 3047 55.1996
140.652 3163 56.2406
140.768 0 1
140.884 0 1
141 0 1
141.115 0 1
141.231 0 1
141.347 0 1
141.463 0 1
141.578 0 1
141.694 0 1
144.104 0 1
144.219 0 1
144.335 0 1
144.45 0 1
144.566 0 1
144.682 0 1
144.798 0 1
144.914 0 1
145.03 0 1
145.146 8613 92.8062
145.262 8934 94.5198
145.378 9025 95
145.494 9035 95.0526
145.61 9092 95.352
145.726 9161 95.7131
145.842 9156 95.687
145.959 9215 95.9948
146.075 9035 95.0526
146.192 9296 96.4158
146.308 9290 96.3846
146.425 8966 94.689
146.541 8257 90.868
146.658 6998 83.654
146.774 6053 77.801
146.891 5959 77.1946
147.008 6681 81.7374
147.125 7854 88.6228
147.241 8809 93.8563
147.358 9081 95.2943
147.475 8997 94.8525
147.592 8932 94.5093
147.709 8968 94.6995
147.826 9084 95.31
147.943 8993 94.8314
148.06 9105 95.4201
148.177 9033 95.0421
148.294 9022 94.9842
148.411 9127 95.5353
148.528 9199 95.9114
148.645 9119 95.4935
148.762 9271 96.286
148.88 9223 96.0365
148.997 9058 95.1735
149.114 9662 98.2955
149.231 9287 96.3691
149.349 9568 97.8162
149.466 9128 95.5406
149.583 9284 96.3535
149.701 9409 97
149.818 9558 97.765
149.935 9425 97.0824
150.053 9142 95.6138
150.17 8926 94.4775
150.287 7992 89.398
150.405 6948 83.3547
150.522 6153 78.4411
150.64 6635 81.4555
150.757 7800 88.3176
150.875 8579 92.6229
150.992 8878 94.2231
151.11 8836 94
151.227 9069 95.2313
151.344 9120 95.4987
151.462 8892 94.2974
151.579 9066 95.2155
151.697 9244 96.1457
151.814 9029 95.0211
151.932 9146 95.6347
152.049 9242 96.1353
152.167 9186 95.8436
152.284 9117 95.483
152.402 9231 96.0781
152.519 9203 95.9323
152.636 9404 96.9742
152.754 9391 96.9072
152.871 9268 96.2705
152.989 9486 97.3961
153.106 9651 98.2395
153.223 9487 97.4012
153.341 9414 97.0258
153.458 9702 98.4987
153.575 9704 98.5089
153.693 9633 98.1478
153.81 8982 94.7734
153.927 8108 90.0444
154.044 6976 83.5225
154.162 6668 81.6578
154.279 7191 84.7998
154.396 8300 91.1043
154.513 9023 94.9895
154.63 9346 96.6747
154.747 9443 97.1751
154.864 9157 95.6922
154.981 8916 94.4246
155.098 9053 95.1473
155.215 9116 95.4777
155.332 8836 94
155.449 8645 92.9785
155.566 8491 92.1466
155.683 8312 91.1702
155.8 8369 91.4822
155.917 8083 89.9055
156.033 7802 88.3289
156.15 0 1
156.267 0 1
156.383 0 1
156.5 0 1
156.617 0 1
156.733 0 1
156.85 0 1
156.966 0 1
157.082 0 1
157.199 0 1
157.315 0 1
157.431 0 1
157.547 0 1
157.664 0 1
157.78 0 1
157.896 0 1
158.012 0 1
158.128 0 1
158.244 0 1
158.359 0 1
158.475 0 1
158.591 0 1
158.706 0 1
