
6.15755 0 1
6.2731 0 1
6.3887 0 1
6.50437 0 1
6.62009 0 1
6.73587 0 1
6.8517 0 1
6.96759 0 1
7.08353 0 1
7.19952 0 1
7.31557 0 1
7.43166 0 1
7.54781 0 1
7.664 0 1
7.78024 0 1
7.89653 0 1
8.01286 0 1
8.12924 0 1
8.24567 0 1
8.36213 0 1
8.47864 0 1
8.59519 0 1
8.71178 0 1
8.82841 0 1
8.94508 0 1
9.06179 0 1
9.17853 0 1
9.29531 0 1
9.41212 0 1
9.52897 0 1
9.64584 0 1
9.76276 0 1
9.8797 0 1
9.99667 0 1
10.1137 0 1
10.2307 0 1
10.3478 0 1
10.4648 0 1
10.5819 0 1
10.6991 0 1
10.8162 0 1
10.9334 0 1
11.0506 0 1
11.1678 0 1
11.285 0 1
11.4023 0 1
11.5196 0 1
11.6369 0 1
11.7542 0 1
11.8715 0 1
11.9888 0 1
12.1062 0 1
12.2235 0 1
12.3409 0 1
12.4582 0 1
12.5756 0 1
12.693 0 1
12.8104 0 1
12.9278 0 1
13.0452 0 1
13.1626 0 1
13.28 0 1
13.3974 0 1
13.5149 0 1
13.6323 0 1
13.7497 0 1
13.8671 0 1
13.9845 0 1
14.1019 0 1
14.2193 0 1
14.3367 0 1
14.4541 0 1
14.5714 0 1
14.6888 0 1
14.8062 0 1
14.9235 0 1
15.0408 0 0
15.1581 0 0
15.2755 0 0
15.3927 0 0
15.51 0 0
15.6273 0 0
15.7445 0 0
15.8617 0 0
15.9789 0 0
16.0961 0 0
16.2132 0 0
16.3304 0 0
16.4475 0 0
16.5646 0 0
16.6816 0 0
16.7986 0 0
16.9156 0 0
17.0326 0 0
17.1496 0 0
17.2665 0 0
17.3833 0 0
17.5002 0 0
17.617 0 0
17.7338 0 0
17.8505 0 0
17.9672 0 0
18.0839 0 0
18.2005 0 0
18.3171 0 0
18.4337 0 0
18.5502 0 0
18.6666 0 0
18.7831 0 0
18.8994 0 0
19.0158 0 0
19.1321 0 0
19.2483 0 0
19.3645 0 0
19.4806 0 0
19.5967 0 0
19.7128 0 0
19.8288 0 0
19.9447 0 0
20.0606 0 1
20.1764 0 1
20.2922 0 1
20.4079 0 1
20.5236 0 1
20.6392 0 1
20.7548 0 1
20.8702 0 1
23.3078 0 1
23.4233 0 1
23.539 0 1
23.6547 0 1
23.7704 0 1
23.8862 0 1
24.0021 0 1
24.118 0 1
24.234 0 1
24.35 0 1
24.4661 10563 102.776
24.5822 10331 101.642
24.6984 10351 101.74
24.8146 10535 102.64
24.9309 10463 102.289
25.0472 10220 101.094
25.1636 10294 101.459
25.28 10574 102.83
25.3965 10955 104.666
25.513 11233 105.986
25.6296 11800 108.628
25.7462 12223 110.558
25.8628 12086 109.936
25.9795 12180 110.363
26.0962 12229 110.585
26.213 12079 109.905
26.3298 11855 108.881
26.4466 11599 107.699
26.5635 10973 104.752
26.6804 10695 103.417
26.7973 10534 102.635
26.9143 10768 103.769
27.0313 10903 104.417
27.1483 11484 107.163
27.2653 11694 108.139
27.3824 11906 109.115
27.4996 11850 108.858
27.6167 11575 107.587
27.7339 11531 107.382
27.8511 11202 105.84
27.9683 10885 104.331
28.0855 10923 104.513
28.2028 10542 102.674
28.3201 10464 102.294
28.4374 10124 100.618
28.5547 9942 99.7096
28.6721 9988 99.94
28.7894 10348 101.725
28.9068 10704 103.46
29.0242 10868 104.25
29.1416 11197 105.816
29.259 11488 107.182
29.3764 11624 107.815
29.4939 11653 107.949
29.6113 11770 108.49
29.7288 11711 108.217
29.8463 11485 107.168
29.9638 10686 103.373
30.0812 10317 101.573
30.1987 9804 99.0152
30.3162 9911 99.554
30.4337 10125 100.623
30.5512 10607 102.99
30.6687 10859 104.207
30.7862 11043 105.086
30.9037 11305 106.325
31.0212 11348 106.527
31.1387 11570 107.564
31.2562 11348 106.527
31.3737 11021 104.981
31.4912 10864 104.231
31.6087 10599 102.951
31.7262 10523 102.582
31.8436 10321 101.592
31.9611 10122 100.608
32.0785 9904 99.5188
32.1959 9972 99.8599
32.3134 10158 100.787
32.4308 10486 102.401
32.5482 11072 105.224
32.6655 11181 105.74
32.7829 11346 106.518
32.9002 11402 106.78
33.0176 11652 107.944
33.1349 11600 107.703
33.2522 11381 106.682
33.3694 11621 107.801
33.4867 11451 107.009
33.6039 10676 103.325
33.7211 10169 100.841
33.8383 9868 99.3378
33.9554 9524 97.591
34.0725 9890 99.4485
34.1896 10557 102.747
34.3067 10429 102.122
34.4237 10785 103.851
34.5407 10928 104.537
34.6577 11199 105.825
34.7746 11303 106.316
34.8915 11023 104.99
35.0084 11143 105.56
35.1252 10914 104.47
35.242 10809 103.966
35.3587 10695 103.417
35.4755 10438 102.167
35.5921 10189 100.941
35.7088 9948 99.7397
35.8254 9717 98.5748
35.9419 9808 99.0353
36.0584 10075 100.374
36.1749 10137 100.683
36.2913 10781 103.832
36.4077 10888 104.346
36.524 11326 106.424
36.6403 11275 106.184
36.7565 11401 106.775
36.8727 11422 106.874
36.9889 11232 105.981
37.1049 10896 104.384
37.221 0 1
37.3369 0 1
37.4529 0 1
37.5687 0 1
37.6845 0 1
37.8003 0 1
37.916 0 1
38.0316 0 1
38.1472 0 1
40.5851 0 1
40.7008 0 1
40.8164 0 1
40.9322 0 1
41.048 0 1
41.1639 0 1
41.2798 0 1
41.3958 0 1
41.5118 0 1
41.6279 0 1
41.744 8905 94.3663
41.8602 8962 94.6678
41.9765 9156 95.687
42.0928 9394 96.9226
42.2091 8867 94.1647
42.3255 8803 93.8243
42.4419 8077 89.8721
42.5584 7841 88.5494
42.675 7374 85.872
42.7915 7519 86.7122
42.9081 8133 90.1831
43.0248 8410 91.7061
43.1415 8428 91.8041
43.2582 8772 93.659
43.375 8814 93.8829
43.4918 8947 94.5886
43.6087 8768 93.6376
43.7256 8673 93.1289
43.8425 8439 91.864
43.9595 8268 90.9285
44.0765 7943 89.1235
44.1935 7878 88.7581
44.3106 7490 86.5448
44.4277 7207 84.8941
44.5448 6933 83.2646
44.6619 7049 83.9583
44.7791 7038 83.8928
44.8963 7414 86.1046
45.0136 7359 85.7846
45.1308 7671 87.5842
45.2481 7929 89.0449
45.3654 7806 88.3516
45.4827 7843 88.5607
45.6001 7501 86.6083
45.7174 7769 88.1419
45.8348 7428 86.1858
45.9522 6664 81.6333
46.0697 6271 79.1896
46.1871 5899 76.8049
46.3046 5819 76.2824
46.422 6016 77.5629
46.5395 6337 79.6053
46.657 6654 81.5721
46.7745 6684 81.7557
46.892 6765 82.2496
47.0096 6730 82.0366
47.1271 6850 82.7647
47.2446 6779 82.3347
47.3622 6683 81.7496
47.4797 6382 79.8874
47.5973 6268 79.1707
47.7149 6003 77.479
47.8324 5839 76.4133
47.95 5623 74.9867
48.0675 5464 73.9189
48.1851 5040 70.993
48.3027 5277 72.643
48.4202 5389 73.4098
48.5378 5721 75.6373
48.6554 5762 75.9078
48.7729 6076 77.9487
48.8904 5982 77.3434
49.008 5979 77.324
49.1255 5958 77.1881
49.243 5865 76.5833
49.3605 5554 74.5252
49.478 5163 71.854
49.5955 4694 68.5128
49.713 4637 68.0955
49.8304 4524 67.2607
49.9479 5038 70.9789
50.0653 5398 73.4711
50.1827 5655 75.1997
50.3001 5852 76.4984
50.4175 6248 79.0443
50.5348 6309 79.4292
50.6521 6378 79.8624
50.7694 6465 80.4052
50.8867 6467 80.4177
51.004 6683 81.7496
51.1212 6665 81.6395
51.2384 6611 81.3081
51.3556 6594 81.2034
51.4727 6544 80.895
51.5899 6327 79.5424
51.707 6325 79.5299
51.824 6703 81.8719
51.9411 7061 84.0298
52.0581 7436 86.2322
52.175 7924 89.0169
52.2919 8025 89.5824
52.4088 8393 91.6133
52.5257 8534 92.3797
52.6425 8638 92.9408
52.7593 8604 92.7577
52.876 8359 91.4276
52.9927 7811 88.3799
53.1094 7374 85.872
53.226 6984 83.5703
53.3426 6768 82.2679
53.4591 7024 83.8093
53.5756 7648 87.4528
53.692 8229 90.7138
53.8084 8736 93.4666
53.9248 9091 95.3467
54.0411 9342 96.654
54.1573 9558 97.765
54.2735 0 1
54.3896 0 1
54.5057 0 1
54.6217 0 1
54.7377 0 1
54.8537 0 1
54.9695 0 1
55.0853 0 1
55.2011 0 1
55.3168 0 1
55.4324 0 1
57.824 0 1
57.9396 0 1
58.0553 0 1
58.1711 0 1
58.2869 0 1
58.4028 0 1
58.5187 0 1
58.6347 0 1
58.7508 0 1
58.8669 0 1
58.983 10366 101.814
59.0992 11030 105.024
59.2155 11223 105.939
59.3318 11386 106.705
59.4482 11591 107.662
59.5646 11466 107.079
59.681 11320 106.395
59.7975 11302 106.311
59.9141 11021 104.981
60.0306 10392 101.941
60.1473 10112 100.558
60.2639 9821 99.101
60.3807 9698 98.4784
60.4974 9774 98.8635
60.6142 9820 99.0959
60.731 10469 102.318
60.8479 10614 103.024
60.9648 10686 103.373
61.0818 10719 103.533
61.1987 10491 102.426
61.3158 10472 102.333
61.4328 9955 99.7747
61.5499 9212 95.9792
61.667 8696 93.2523
61.7841 8286 91.0275
61.9013 8139 90.2164
62.0185 8145 90.2497
62.1357 8605 92.7631
62.253 9137 95.5877
62.3702 9480 97.3653
62.4875 9809 99.0404
62.6049 10115 100.573
62.7222 10383 101.897
62.8396 10248 101.232
62.9569 10361 101.789
63.0743 10474 102.343
63.1918 10165 100.822
63.3092 10037 100.185
63.4267 9595 97.9541
63.5441 9129 95.5458
63.6616 8945 94.578
63.7791 8574 92.5959
63.8966 8519 92.2984
64.0142 8791 93.7603
64.1317 8939 94.5463
64.2492 9203 95.9323
64.3668 9602 97.9898
64.4843 9835 99.1716
64.6019 9835 99.1716
64.7195 9801 99
64.837 9637 98.1682
64.9546 9257 96.2133
65.0722 8564 92.5419
65.1898 7990 89.3868
65.3074 7486 86.5217
65.4249 6977 83.5284
65.5425 7020 83.7854
65.6601 7461 86.3771
65.7777 7938 89.0955
65.8952 8324 91.236
66.0128 8914 94.414
66.1304 9081 95.2943
66.2479 9393 96.9175
66.3655 9664 98.3056
66.483 9615 98.0561
66.6005 9704 98.5089
66.718 9581 97.8826
66.8355 9503 97.4833
66.953 9422 97.067
67.0705 9183 95.828
67.1879 8806 93.8403
67.3054 8465 92.0054
67.4228 8226 90.6973
67.5402 8260 90.8845
67.6576 8435 91.8423
67.7749 8919 94.4405
67.8923 9315 96.5142
68.0096 9499 97.4628
68.1269 9906 99.5289
68.2442 10097 100.484
68.3614 9892 99.4585
68.4787 10071 100.354
68.5958 9723 98.6053
68.713 9367 96.7833
68.8302 8677 93.1504
68.9473 8334 91.2907
69.0643 8176 90.4212
69.1814 8138 90.2109
69.2984 8877 94.2178
69.4154 9811 99.0505
69.5323 10490 102.421
69.6492 11326 106.424
69.7661 11893 109.055
69.8829 12530 111.937
69.9997 12717 112.77
70.1165 13416 115.827
70.2332 13535 116.34
70.3499 13390 115.715
70.4665 13858 117.72
70.5831 13901 117.903
70.6996 13737 117.205
70.8161 13540 116.362
70.9326 12823 113.239
71.049 12429 111.485
71.1653 12166 110.3
71.2817 12286 110.842
71.3979 13116 114.525
71.5141 13706 117.073
71.6303 14060 118.575
71.7464 13179 114.8
71.8624 0 1
71.9784 0 1
72.0944 0 1
72.2102 0 1
72.3261 0 1
72.4418 0 1
72.5575 0 1
72.6732 0 1
75.1054 0 1
75.2209 0 1
75.3365 0 1
75.4521 0 1
75.5678 0 1
75.6835 0 1
75.7993 0 1
75.9151 0 1
76.031 0 1
76.147 13675 116.94
76.263 14024 118.423
76.3791 13576 116.516
76.4952 13132 114.595
76.6113 13344 115.516
76.7276 13691 117.009
76.8438 14406 120.025
76.9601 14694 121.219
77.0765 14984 122.409
77.1929 14766 121.515
77.3093 14698 121.235
77.4258 14313 119.637
77.5423 13604 116.636
77.6589 12432 111.499
77.7755 10942 104.604
77.8921 9934 99.6695
78.0088 9006 94.8999
78.1256 8220 90.6642
78.2423 8366 91.4658
78.3591 9074 95.2575
78.4759 10133 100.663
78.5928 10615 103.029
78.7097 10942 104.604
78.8266 11177 105.721
78.9436 11427 106.897
79.0606 11364 106.602
79.1776 11223 105.939
79.2946 11054 105.138
79.4117 10811 103.976
79.5288 10606 102.985
79.6459 10330 101.637
79.7631 9921 99.6042
79.8802 9333 96.6075
79.9974 8829 93.9628
80.1147 8373 91.5041
80.2319 8084 89.9111
80.3491 8479 92.0815
80.4664 9076 95.268
80.5837 9194 95.8853
80.701 9486 97.3961
80.8183 9293 96.4002
80.9357 9233 96.0885
81.053 9245 96.1509
81.1704 8912 94.4034
81.2877 8541 92.4175
81.4051 7849 88.5946
81.5225 7294 85.4049
81.6399 6448 80.2994
81.7573 6314 79.4607
81.8747 6128 78.2815
81.9922 6689 81.7863
82.1096 7403 86.0407
82.227 7748 88.0227
82.3444 8107 90.0389
82.4619 8548 92.4554
82.5793 8803 93.8243
82.6967 8543 92.4284
82.8142 8967 94.6942
82.9316 9096 95.373
83.049 8985 94.7892
83.1664 8934 94.5198
83.2838 8713 93.3435
83.4012 8419 91.7551
83.5186 8003 89.4595
83.636 7624 87.3155
83.7534 7225 85
83.8708 7348 85.7205
83.9881 7760 88.0909
84.1055 8106 90.0333
84.2228 8969 94.7048
84.3401 9205 95.9427
84.4575 9185 95.8384
84.5747 9491 97.4218
84.692 9429 97.103
84.8093 9179 95.8071
84.9265 8263 90.901
85.0437 7647 87.4471
85.1609 7046 83.9405
85.2781 6820 82.5833
85.3952 6618 81.3511
85.5123 7302 85.4517
85.6294 8131 90.1721
85.7465 8955 94.6309
85.8636 9545 97.6985
85.9806 10077 100.384
86.0976 10379 101.877
86.2145 10845 104.139
86.3315 11133 105.513
86.4484 11628 107.833
86.5652 11581 107.615
86.682 11687 108.106
86.7988 11787 108.568
86.9156 11437 106.944
87.0323 11060 105.167
87.149 10694 103.412
87.2657 10410 102.029
87.3823 10010 100.05
87.4988 10330 101.637
87.6154 11300 106.301
87.7318 11827 108.752
87.8483 12215 110.521
87.9647 12272 110.779
88.081 12615 112.317
88.1973 12398 111.346
88.3136 12292 110.869
88.4298 11501 107.243
88.546 10429 102.122
88.6621 9471 97.3191
88.7781 8882 94.2444
88.8942 0 1
89.0101 0 1
89.126 0 1
89.2419 0 1
89.3577 0 1
89.4734 0 1
89.5891 0 1
89.7047 0 1
89.8203 0 1
89.9358 0 1
92.3269 0 1
92.4424 0 1
92.558 0 1
92.6736 0 1
92.7893 0 1
92.905 0 1
93.0208 0 1
93.1366 0 1
93.2525 0 1
93.3685 0 1
93.4845 0 1
93.6005 11184 105.754
93.7167 11428 106.902
93.8328 10595 102.932
93.949 9970 99.8499
94.0653 8987 94.7998
94.1816 8452 91.9348
94.2979 8026 89.5879
94.4143 7600 87.178
94.5307 7891 88.8313
94.6472 8610 92.7901
94.7637 9231 96.0781
94.8803 9687 98.4226
94.9969 9909 99.544
95.1135 10280 101.39
95.2302 10508 102.509
95.3469 10756 103.711
95.4637 10762 103.74
95.5805 10719 103.533
95.6973 11136 105.527
95.8142 11168 105.679
95.9311 11090 105.309
96.048 10850 104.163
96.1649 10267 101.326
96.2819 9991 99.955
96.3989 9497 97.4526
96.516 9203 95.9323
96.633 9399 96.9484
96.7501 9621 98.0867
96.8673 10132 100.658
96.9844 10675 103.32
97.1016 10671 103.301
97.2188 10795 103.899
97.336 10643 103.165
97.4532 10263 101.306
97.5704 9480 97.3653
97.6877 8945 94.578
97.805 8142 90.233
97.9223 7637 87.3899
98.0396 7284 85.3464
98.1569 7271 85.2702
98.2743 7728 87.909
98.3916 8515 92.2768
98.509 9326 96.5712
98.6264 9601 97.9847
98.7438 9980 99.8999
98.8612 10229 101.139
98.9786 10514 102.538
99.096 10903 104.417
99.2134 10850 104.163
99.3308 11016 104.957
99.4482 10745 103.658
99.5656 10619 103.049
99.6831 10747 103.668
99.8005 10074 100.369
99.9179 9570 97.8264
100.035 9458 97.2522
100.153 9417 97.0412
100.27 9695 98.4632
100.388 10322 101.597
100.505 10784 103.846
100.622 10761 103.735
100.74 10885 104.331
100.857 10857 104.197
100.975 10743 103.648
101.092 10313 101.553
101.209 9595 97.9541
101.327 8721 93.3863
101.444 8235 90.7469
101.561 7570 87.0057
101.679 7519 86.7122
101.796 7724 87.8863
101.913 8284 91.0165
102.03 9192 95.8749
102.148 9864 99.3177
102.265 10927 104.532
102.382 9890 99.4485
102.499 10982 104.795
102.616 10927 104.532
102.733 11415 106.841
102.851 11427 106.897
102.968 11564 107.536
103.085 11491 107.196
103.202 11144 105.565
103.319 10962 104.7
103.436 10640 103.15
103.552 9999 99.995
103.669 9878 99.3881
103.786 10223 101.109
103.903 10793 103.889
104.02 11193 105.797
104.137 11358 106.574
104.253 11965 109.385
104.37 11032 105.033
104.487 11710 108.213
104.603 11017 104.962
104.72 10395 101.956
104.836 9515 97.5449
104.953 8815 93.8882
105.069 8149 90.2718
105.186 8169 90.3825
105.302 8654 93.0269
105.418 9339 96.6385
105.535 10167 100.832
105.651 10757 103.716
105.767 11152 105.603
105.883 11581 107.615
105.999 11933 109.238
106.115 0 1
106.231 0 1
106.347 0 1
106.463 0 1
106.579 0 1
106.694 0 1
106.81 0 1
106.926 0 1
107.041 0 1
107.157 0 1
109.576 0 1
109.692 0 1
109.807 0 1
109.923 0 1
110.039 0 1
110.155 0 1
110.27 0 1
110.386 0 1
110.502 0 1
110.618 9753 98.7573
110.735 10607 102.99
110.851 11059 105.162
110.967 11140 105.546
111.083 11471 107.103
111.199 11722 108.268
111.316 12073 109.877
111.432 11792 108.591
111.549 11917 109.165
111.665 12024 109.654
111.782 11486 107.173
111.898 11047 105.105
112.015 10468 102.313
112.132 9972 99.8599
112.248 10353 101.75
112.365 10628 103.092
112.482 11251 106.071
112.599 11329 106.438
112.716 11614 107.768
112.832 11343 106.504
112.949 11581 107.615
113.066 11042 105.081
113.183 10635 103.126
113.3 9735 98.6661
113.417 8930 94.4987
113.534 8435 91.8423
113.652 7709 87.8009
113.769 7704 87.7724
113.886 8072 89.8443
114.003 8659 93.0537
114.12 9344 96.6644
114.238 9774 98.8635
114.355 10310 101.538
114.472 11166 105.669
114.589 10174 100.866
114.707 10932 104.556
114.824 11119 105.447
114.942 11509 107.28
115.059 11450 107.005
115.176 11512 107.294
115.294 11172 105.698
115.411 11182 105.745
115.529 10920 104.499
115.646 10190 100.946
115.764 10220 101.094
115.881 10597 102.942
115.999 10796 103.904
116.116 11169 105.683
116.234 11363 106.597
116.351 11589 107.652
116.469 11244 106.038
116.586 11403 106.785
116.704 11111 105.409
116.821 10284 101.41
116.939 9412 97.0155
117.056 9021 94.9789
117.174 8495 92.1683
117.291 8183 90.4599
117.409 7945 89.1347
117.526 8562 92.5311
117.644 9333 96.6075
117.761 9731 98.6458
117.879 10137 100.683
117.996 10482 102.382
118.114 10793 103.889
118.231 11235 105.995
118.349 11487 107.177
118.466 11452 107.014
118.584 11357 106.569
118.701 11635 107.866
118.819 11686 108.102
118.936 11323 106.41
119.053 11142 105.556
119.171 10734 103.605
119.288 10421 102.083
119.405 10369 101.828
119.523 10420 102.078
119.64 11015 104.952
119.757 11089 105.304
119.875 11392 106.733
119.992 11294 106.273
120.109 11557 107.503
120.226 11269 106.156
120.343 10934 104.566
120.46 10572 102.82
120.578 9928 99.6393
120.695 9244 96.1457
120.812 8751 93.5468
120.929 8280 90.9945
121.046 8032 89.6214
121.163 8255 90.857
121.279 8967 94.6942
121.396 9536 97.6524
121.513 10228 101.134
121.63 10376 101.863
121.747 10862 104.221
121.863 10954 104.661
121.98 11357 106.569
122.097 11432 106.921
122.213 11444 106.977
122.33 11369 106.626
122.446 11461 107.056
122.563 11507 107.271
122.679 11138 105.537
122.795 11255 106.09
122.912 10556 102.742
123.028 10408 102.02
123.144 10304 101.509
123.26 10594 102.927
123.377 0 1
123.493 0 1
123.609 0 1
123.725 0 1
123.84 0 1
123.956 0 1
124.072 0 1
124.188 0 1
124.303 0 1
124.419 0 1
126.852 0 1
126.968 0 1
127.083 0 1
127.199 0 1
127.315 0 1
127.431 0 1
127.547 0 1
127.663 0 1
127.779 0 1
127.895 0 1
128.011 0 1
128.127 0 1
128.243 0 1
128.359 12212 110.508
128.476 12646 112.454
128.592 13351 115.547
128.708 13968 118.186
128.825 13824 117.576
128.941 14034 118.465
129.058 14245 119.352
129.174 14161 119
129.291 13580 116.533
129.408 12974 113.903
129.524 12167 110.304
129.641 11407 106.804
129.758 10823 104.034
129.875 10432 102.137
129.992 10074 100.369
130.108 10465 102.299
130.225 10952 104.652
130.342 11671 108.032
130.459 11998 109.535
130.576 12676 112.588
130.693 12782 113.058
130.81 13013 114.075
130.928 13339 115.495
131.045 13354 115.56
131.162 13585 116.555
131.279 13876 117.796
131.396 13836 117.627
131.513 13706 117.073
131.631 13342 115.508
131.748 13069 114.32
131.865 12610 112.294
131.983 12871 113.45
132.1 13284 115.256
132.217 13639 116.786
132.335 13861 117.733
132.452 13982 118.246
132.57 13858 117.72
132.687 13528 116.31
132.804 14036 118.474
132.922 12983 113.943
133.039 12059 109.813
133.157 11683 108.088
133.274 10980 104.785
133.392 10542 102.674
133.509 10193 100.96
133.627 10292 101.449
133.744 10806 103.952
133.862 11120 105.451
133.979 11832 108.775
134.097 11886 109.023
134.214 12602 112.259
134.332 12344 111.104
134.449 13074 114.342
134.567 13218 114.97
134.684 13489 116.142
134.802 13516 116.258
134.919 13394 115.732
135.037 13369 115.624
135.154 13008 114.053
135.272 12783 113.062
135.389 12728 112.818
135.507 12574 112.134
135.624 12656 112.499
135.742 13163 114.73
135.859 13573 116.503
135.977 13522 116.284
136.094 13686 116.987
136.211 13735 117.196
136.329 13455 115.996
136.446 13330 115.456
136.564 12956 113.824
136.681 11901 109.092
136.798 11422 106.874
136.915 11084 105.281
137.033 10403 101.995
137.15 9978 99.8899
137.267 10256 101.272
137.384 10551 102.718
137.502 11207 105.863
137.619 11461 107.056
137.736 11761 108.448
137.853 11943 109.284
137.97 12461 111.629
138.087 12267 110.756
138.204 12927 113.697
138.321 13030 114.149
138.438 13282 115.248
138.555 13494 116.164
138.672 13230 115.022
138.788 13306 115.352
138.905 13027 114.136
139.022 12838 113.305
139.139 12968 113.877
139.255 13097 114.442
139.372 13477 116.09
139.488 13677 116.949
139.605 13944 118.085
139.721 14006 118.347
139.838 14058 118.566
139.954 13958 118.144
140.071 13518 116.267
140.187 13262 115.161
140.303 12557 112.058
140.419 11818 108.711
140.535 11361 106.588
140.652 10715 103.513
140.768 0 1
140.884 0 1
141 0 1
141.115 0 1
141.231 0 1
141.347 0 1
141.463 0 1
141.578 0 1
141.694 0 1
144.104 0 1
144.219 0 1
144.335 0 1
144.45 0 1
144.566 0 1
144.682 0 1
144.798 0 1
144.914 0 1
145.03 0 1
145.146 12307 110.937
145.262 12320 110.995
145.378 11832 108.775
145.494 11477 107.131
145.61 11082 105.271
145.726 10454 102.245
145.842 10346 101.715
145.959 10532 102.626
146.075 11012 104.938
146.192 11299 106.297
146.308 11366 106.611
146.425 11779 108.531
146.541 12023 109.649
146.658 12354 111.149
146.774 12483 111.727
146.891 12529 111.933
147.008 12997 114.004
147.125 13044 114.21
147.241 13284 115.256
147.358 12729 112.823
147.475 12584 112.178
147.592 12342 111.095
147.709 12152 110.236
147.826 12289 110.856
147.943 12929 113.706
148.06 12837 113.3
148.177 13145 114.652
148.294 13162 114.726
148.411 13066 114.307
148.528 13302 115.334
148.645 12963 113.855
148.762 12590 112.205
148.88 12413 111.414
148.997 11582 107.62
149.114 11639 107.884
149.231 10829 104.062
149.349 10679 103.339
149.466 9977 99.8849
149.583 10041 100.205
149.701 10089 100.444
149.818 10504 102.489
149.935 10811 103.976
150.053 11103 105.371
150.17 11223 105.939
150.287 11320 106.395
150.405 11682 108.083
150.522 11945 109.293
150.64 12100 110
150.757 12421 111.45
150.875 12402 111.364
150.992 11932 109.234
151.11 11936 109.252
151.227 11636 107.87
151.344 11366 106.611
151.462 11508 107.275
151.579 11932 109.234
151.697 12306 110.932
151.814 12469 111.665
151.932 12646 112.454
152.049 12453 111.593
152.167 12661 112.521
152.284 12632 112.392
152.402 12102 110.009
152.519 11994 109.517
152.636 11482 107.154
152.754 11136 105.527
152.871 10460 102.274
152.989 10302 101.499
153.106 9928 99.6393
153.223 9821 99.101
153.341 10112 100.558
153.458 10384 101.902
153.575 10741 103.639
153.693 10791 103.88
153.81 11029 105.019
153.927 11483 107.159
154.044 11862 108.913
154.162 11828 108.757
154.279 12168 110.309
154.396 12380 111.265
154.513 12475 111.692
154.63 12561 112.076
154.747 12427 111.476
154.864 12124 110.109
154.981 11866 108.931
155.098 11810 108.674
155.215 12042 109.736
155.332 12414 111.418
155.449 12529 111.933
155.566 12836 113.296
155.683 12583 112.174
155.8 12604 112.268
155.917 12745 112.894
156.033 12467 111.656
156.15 0 1
156.267 0 1
156.383 0 1
156.5 0 1
156.617 0 1
156.733 0 1
156.85 0 1
156.966 0 1
157.082 0 1
157.199 0 1
157.315 0 1
157.431 0 1
157.547 0 1
157.664 0 1
157.78 0 1
157.896 0 1
158.012 0 1
158.128 0 1
158.244 0 1
158.359 0 1
158.475 0 1
158.591 0 1
158.706 0 1
