
6.15755 0 1
6.2731 0 1
6.3887 0 1
6.50437 0 1
6.62009 0 1
6.73587 0 1
6.8517 0 1
6.96759 0 1
7.08353 0 1
7.19952 0 1
7.31557 0 1
7.43166 0 1
7.54781 0 1
7.664 0 1
7.78024 0 1
7.89653 0 1
8.01286 0 1
8.12924 0 1
8.24567 0 1
8.36213 0 1
8.47864 0 1
8.59519 0 1
8.71178 0 1
8.82841 0 1
8.94508 0 1
9.06179 0 1
9.17853 0 1
9.29531 0 1
9.41212 0 1
9.52897 0 1
9.64584 0 1
9.76276 0 1
9.8797 0 1
9.99667 0 1
10.1137 0 1
10.2307 0 1
10.3478 0 1
10.4648 0 1
10.5819 0 1
10.6991 0 1
10.8162 0 1
10.9334 0 1
11.0506 0 1
11.1678 0 1
11.285 0 1
11.4023 0 1
11.5196 0 1
11.6369 0 1
11.7542 0 1
11.8715 0 1
11.9888 0 1
12.1062 0 1
12.2235 0 1
12.3409 0 1
12.4582 0 1
12.5756 0 1
12.693 0 1
12.8104 0 1
12.9278 0 1
13.0452 0 1
13.1626 0 1
13.28 0 1
13.3974 0 1
13.5149 0 1
13.6323 0 1
13.7497 0 1
13.8671 0 1
13.9845 0 1
14.1019 0 1
14.2193 0 1
14.3367 0 1
14.4541 0 1
14.5714 0 1
14.6888 0 1
14.8062 0 1
14.9235 0 1
15.0408 8807 93.8456
15.1581 9206 95.9479
15.2755 9452 97.2214
15.3927 9472 97.3242
15.51 9518 97.5602
15.6273 9420 97.0567
15.7445 9205 95.9427
15.8617 9237 96.1093
15.9789 9472 97.3242
16.0961 9604 98
16.2132 9607 98.0153
16.3304 10082 100.409
16.4475 10246 101.223
16.5646 10724 103.557
16.6816 11102 105.366
16.7986 11293 106.269
16.9156 11582 107.62
17.0326 12021 109.64
17.1496 12220 110.544
17.2665 12146 110.209
17.3833 12416 111.427
17.5002 12422 111.454
17.617 12686 112.632
17.7338 12701 112.699
17.8505 12776 113.031
17.9672 12794 113.111
18.0839 11817 108.706
18.2005 11579 107.606
18.3171 11558 107.508
18.4337 12083 109.923
18.5502 12869 113.442
18.6666 12758 112.951
18.7831 13167 114.748
18.8994 13210 114.935
19.0158 12610 112.294
19.1321 12672 112.57
19.2483 12225 110.567
19.3645 12137 110.168
19.4806 11962 109.371
19.5967 11777 108.522
19.7128 11599 107.699
19.8288 11120 105.451
19.9447 10127 100.633
20.0606 0 1
20.1764 0 1
20.2922 0 1
20.4079 0 1
20.5236 0 1
20.6392 0 1
20.7548 0 1
20.8702 0 1
23.3078 0 1
23.4233 0 1
23.539 0 1
23.6547 0 1
23.7704 0 1
23.8862 0 1
24.0021 0 1
24.118 0 1
24.234 0 1
24.35 0 1
24.4661 11696 108.148
24.5822 11619 107.791
24.6984 11658 107.972
24.8146 11492 107.201
24.9309 11507 107.271
25.0472 11422 106.874
25.1636 11405 106.794
25.28 11865 108.927
25.3965 11928 109.215
25.513 12301 110.91
25.6296 13135 114.608
25.7462 13222 114.987
25.8628 13318 115.404
25.9795 13543 116.374
26.0962 13735 117.196
26.213 13559 116.443
26.3298 13829 117.597
26.4466 13899 117.894
26.5635 13235 115.043
26.6804 12881 113.494
26.7973 12081 109.914
26.9143 11805 108.651
27.0313 12386 111.292
27.1483 13024 114.123
27.2653 13174 114.778
27.3824 13375 115.65
27.4996 13233 115.035
27.6167 13020 114.105
27.7339 12916 113.649
27.8511 12704 112.712
27.9683 12443 111.548
28.0855 12098 109.991
28.2028 11816 108.701
28.3201 11835 108.789
28.4374 11534 107.396
28.5547 11558 107.508
28.6721 11456 107.033
28.7894 11548 107.462
28.9068 11502 107.247
29.0242 11789 108.577
29.1416 12157 110.259
29.259 12432 111.499
29.3764 12768 112.996
29.4939 13009 114.057
29.6113 13220 114.978
29.7288 13200 114.891
29.8463 13270 115.195
29.9638 13361 115.59
30.0812 12981 113.934
30.1987 12568 112.107
30.3162 11668 108.019
30.4337 11088 105.3
30.5512 11381 106.682
30.6687 11813 108.688
30.7862 12536 111.964
30.9037 12646 112.454
31.0212 12927 113.697
31.1387 12837 113.3
31.2562 12396 111.337
31.3737 12214 110.517
31.4912 12130 110.136
31.6087 12010 109.59
31.7262 11760 108.444
31.8436 11504 107.257
31.9611 11327 106.428
32.0785 11083 105.276
32.1959 11183 105.75
32.3134 10981 104.79
32.4308 11258 106.104
32.5482 11461 107.056
32.6655 11698 108.157
32.7829 12079 109.905
32.9002 12224 110.562
33.0176 12519 111.888
33.1349 12808 113.172
33.2522 12888 113.525
33.3694 12947 113.785
33.4867 12908 113.613
33.6039 12800 113.137
33.7211 12982 113.939
33.8383 12205 110.476
33.9554 11551 107.476
34.0725 10813 103.986
34.1896 10527 102.601
34.3067 11197 105.816
34.4237 11586 107.638
34.5407 11992 109.508
34.6577 12295 110.883
34.7746 12179 110.359
34.8915 12089 109.95
35.0084 11857 108.89
35.1252 11690 108.12
35.242 11616 107.778
35.3587 11369 106.626
35.4755 11352 106.546
35.5921 11145 105.57
35.7088 10846 104.144
35.8254 10747 103.668
35.9419 10661 103.252
36.0584 10704 103.46
36.1749 10677 103.33
36.2913 10927 104.532
36.4077 11334 106.461
36.524 11336 106.471
36.6403 11682 108.083
36.7565 12219 110.54
36.8727 12285 110.838
36.9889 12203 110.467
37.1049 12028 109.672
37.221 0 1
37.3369 0 1
37.4529 0 1
37.5687 0 1
37.6845 0 1
37.8003 0 1
37.916 0 1
38.0316 0 1
38.1472 0 1
40.5851 0 1
40.7008 0 1
40.8164 0 1
40.9322 0 1
41.048 0 1
41.1639 0 1
41.2798 0 1
41.3958 0 1
41.5118 0 1
41.6279 0 1
41.744 8483 92.1032
41.8602 9391 96.9072
41.9765 9937 99.6845
42.0928 10350 101.735
42.2091 10245 101.218
42.3255 10168 100.837
42.4419 10288 101.43
42.5584 10154 100.767
42.675 9887 99.4334
42.7915 9131 95.5563
42.9081 8475 92.0598
43.0248 8351 91.3838
43.1415 8522 92.3147
43.2582 8863 94.1435
43.375 9434 97.1288
43.4918 9549 97.719
43.6087 9539 97.6678
43.7256 9542 97.6832
43.8425 9390 96.902
43.9595 9139 95.5981
44.0765 9040 95.0789
44.1935 8583 92.6445
44.3106 8506 92.228
44.4277 8251 90.835
44.5448 7929 89.0449
44.6619 7754 88.0568
44.7791 7350 85.7321
44.8963 7395 85.9942
45.0136 7120 84.3801
45.1308 7212 84.9235
45.2481 7460 86.3713
45.3654 7442 86.267
45.4827 7648 87.4528
45.6001 7919 88.9888
45.7174 7848 88.5889
45.8348 7771 88.1533
45.9522 7793 88.278
46.0697 7814 88.3968
46.1871 7609 87.2296
46.3046 7081 84.1487
46.422 6722 81.9878
46.5395 6342 79.6367
46.657 6334 79.5864
46.7745 6539 80.8641
46.892 6796 82.4379
47.0096 6868 82.8734
47.1271 7105 84.2912
47.2446 6964 83.4506
47.3622 6924 83.2106
47.4797 6764 82.2435
47.5973 6714 81.939
47.7149 6597 81.2219
47.8324 6436 80.2247
47.95 6330 79.5613
48.0675 6191 78.6829
48.1851 6102 78.1153
48.3027 5821 76.2955
48.4202 5763 75.9144
48.5378 5683 75.3857
48.6554 5741 75.7694
48.7729 5836 76.3937
48.8904 6067 77.8909
49.008 6343 79.643
49.1255 6409 80.0562
49.243 6698 81.8413
49.3605 6826 82.6196
49.478 6798 82.45
49.5955 6767 82.2618
49.713 6683 81.7496
49.8304 6263 79.1391
49.9479 6005 77.4919
50.0653 5552 74.5117
50.1827 5659 75.2263
50.3001 5965 77.2334
50.4175 6421 80.1311
50.5348 6548 80.9197
50.6521 7074 84.1071
50.7694 7250 85.1469
50.8867 7324 85.5804
51.004 7380 85.9069
51.1212 7551 86.8965
51.2384 7583 87.0804
51.3556 7704 87.7724
51.4727 7515 86.6891
51.5899 7600 87.178
51.707 7480 86.487
51.824 7415 86.1104
51.9411 7395 85.9942
52.0581 7234 85.0529
52.175 7501 86.6083
52.2919 7743 87.9943
52.4088 8188 90.4876
52.5257 8351 91.3838
52.6425 9124 95.5196
52.7593 9161 95.7131
52.876 9395 96.9278
52.9927 9456 97.242
53.1094 9533 97.6371
53.226 9607 98.0153
53.3426 9686 98.4175
53.4591 9087 95.3258
53.5756 8531 92.3634
53.692 7847 88.5833
53.8084 7889 88.82
53.9248 8338 91.3126
54.0411 8993 94.8314
54.1573 9296 96.4158
54.2735 0 1
54.3896 0 1
54.5057 0 1
54.6217 0 1
54.7377 0 1
54.8537 0 1
54.9695 0 1
55.0853 0 1
55.2011 0 1
55.3168 0 1
55.4324 0 1
57.824 0 1
57.9396 0 1
58.0553 0 1
58.1711 0 1
58.2869 0 1
58.4028 0 1
58.5187 0 1
58.6347 0 1
58.7508 0 1
58.8669 0 1
58.983 9408 96.9948
59.0992 10250 101.242
59.2155 10924 104.518
59.3318 11543 107.438
59.4482 11603 107.717
59.5646 12010 109.59
59.681 12014 109.608
59.7975 11888 109.032
59.9141 12028 109.672
60.0306 12146 110.209
60.1473 11353 106.55
60.2639 11574 107.583
60.3807 11018 104.967
60.4974 10664 103.267
60.6142 10378 101.872
60.731 10149 100.742
60.8479 10186 100.926
60.9648 10173 100.861
61.0818 10461 102.279
61.1987 10534 102.635
61.3158 11120 105.451
61.4328 11579 107.606
61.5499 11749 108.393
61.667 11667 108.014
61.7841 11666 108.009
61.9013 11418 106.855
62.0185 10924 104.518
62.1357 10259 101.287
62.253 9585 97.903
62.3702 9410 97.0052
62.4875 9431 97.1133
62.6049 9810 99.0454
62.7222 10495 102.445
62.8396 10974 104.757
62.9569 11385 106.701
63.0743 11434 106.93
63.1918 11453 107.019
63.3092 11568 107.555
63.4267 11527 107.364
63.5441 11156 105.622
63.6616 11041 105.076
63.7791 10815 103.995
63.8966 10444 102.196
64.0142 10088 100.439
64.1317 9771 98.8484
64.2492 9344 96.6644
64.3668 9041 95.0842
64.4843 9369 96.7936
64.6019 9646 98.2141
64.7195 10098 100.489
64.837 10328 101.627
64.9546 10877 104.293
65.0722 11021 104.981
65.1898 10925 104.523
65.3074 11156 105.622
65.4249 10988 104.824
65.5425 10726 103.566
65.6601 9914 99.5691
65.7777 9558 97.765
65.8952 8760 93.5949
66.0128 8754 93.5628
66.1304 9005 94.8947
66.2479 9775 98.8686
66.3655 10270 101.341
66.483 10534 102.635
66.6005 10847 104.149
66.718 11080 105.262
66.8355 11316 106.377
66.953 11075 105.238
67.0705 11027 105.01
67.1879 11121 105.456
67.3054 10724 103.557
67.4228 10500 102.47
67.5402 10194 100.965
67.6576 9967 99.8349
67.7749 9330 96.5919
67.8923 9007 94.9052
68.0096 8984 94.784
68.1269 9153 95.6713
68.2442 9485 97.391
68.3614 10025 100.125
68.4787 10312 101.548
68.5958 10804 103.942
68.713 11179 105.731
68.8302 11328 106.433
68.9473 11179 105.731
69.0643 11378 106.668
69.1814 11067 105.2
69.2984 10814 103.99
69.4154 9895 99.4736
69.5323 9245 96.1509
69.6492 8863 94.1435
69.7661 9372 96.8091
69.8829 10115 100.573
69.9997 10505 102.494
70.1165 11350 106.536
70.2332 11451 107.009
70.3499 11749 108.393
70.4665 11989 109.494
70.5831 12012 109.599
70.6996 11793 108.596
70.8161 11714 108.231
70.9326 11620 107.796
71.049 11596 107.685
71.1653 11083 105.276
71.2817 10483 102.387
71.3979 10211 101.049
71.5141 9589 97.9234
71.6303 8900 94.3398
71.7464 8267 90.923
71.8624 0 1
71.9784 0 1
72.0944 0 1
72.2102 0 1
72.3261 0 1
72.4418 0 1
72.5575 0 1
72.6732 0 1
75.1054 0 1
75.2209 0 1
75.3365 0 1
75.4521 0 1
75.5678 0 1
75.6835 0 1
75.7993 0 1
75.9151 0 1
76.031 0 1
76.147 10651 103.204
76.263 11156 105.622
76.3791 11150 105.594
76.4952 10713 103.504
76.6113 10313 101.553
76.7276 9698 98.4784
76.8438 9397 96.9381
76.9601 9443 97.1751
77.0765 9754 98.7623
77.1929 10323 101.602
77.3093 10956 104.671
77.4258 11452 107.014
77.5423 11792 108.591
77.6589 11799 108.623
77.7755 12103 110.014
77.8921 11924 109.197
78.0088 11295 106.278
78.1256 10602 102.966
78.2423 9762 98.8028
78.3591 8987 94.7998
78.4759 8628 92.887
78.5928 8778 93.691
78.7097 9763 98.8079
78.8266 10046 100.23
78.9436 10998 104.871
79.0606 11355 106.56
79.1776 11574 107.583
79.2946 11830 108.766
79.4117 11736 108.333
79.5288 11880 108.995
79.6459 11643 107.903
79.7631 11439 106.953
79.8802 11390 106.724
79.9974 10971 104.743
80.1147 10727 103.571
80.2319 10191 100.95
80.3491 9655 98.2599
80.4664 9269 96.2756
80.5837 9192 95.8749
80.701 9494 97.4372
80.8183 10363 101.799
80.9357 10829 104.062
81.053 11406 106.799
81.1704 11632 107.852
81.2877 11746 108.379
81.4051 11737 108.337
81.5225 11387 106.71
81.6399 11119 105.447
81.7573 10615 103.029
81.8747 9918 99.5892
81.9922 9222 96.0312
82.1096 8713 93.3435
82.227 8899 94.3345
82.3444 9755 98.7674
82.4619 10407 102.015
82.5793 10991 104.838
82.6967 10888 104.346
82.8142 11520 107.331
82.9316 11549 107.466
83.049 11821 108.724
83.1664 11628 107.833
83.2838 11866 108.931
83.4012 11777 108.522
83.5186 11276 106.189
83.636 11199 105.825
83.7534 10641 103.155
83.8708 10468 102.313
83.9881 9822 99.106
84.1055 9244 96.1457
84.2228 9446 97.1905
84.3401 9620 98.0816
84.4575 10165 100.822
84.5747 10984 104.805
84.692 11645 107.912
84.8093 12019 109.631
84.9265 12127 110.123
85.0437 12181 110.368
85.1609 12131 110.141
85.2781 11458 107.042
85.3952 10354 101.755
85.5123 9906 99.5289
85.6294 9252 96.1873
85.7465 9000 94.8683
85.8636 9600 97.9796
85.9806 10607 102.99
86.0976 11074 105.233
86.2145 11781 108.54
86.3315 11895 109.064
86.4484 12324 111.014
86.5652 12553 112.04
86.682 12589 112.201
86.7988 12665 112.539
86.9156 12549 112.022
87.0323 12267 110.756
87.149 12243 110.648
87.2657 12198 110.445
87.3823 11652 107.944
87.4988 11158 105.631
87.6154 10279 101.385
87.7318 10009 100.045
87.8483 10170 100.846
87.9647 10935 104.571
88.081 11528 107.369
88.1973 12427 111.476
88.3136 12716 112.765
88.4298 12829 113.265
88.546 12785 113.071
88.6621 12556 112.054
88.7781 12113 110.059
88.8942 0 1
89.0101 0 1
89.126 0 1
89.2419 0 1
89.3577 0 1
89.4734 0 1
89.5891 0 1
89.7047 0 1
89.8203 0 1
89.9358 0 1
92.3269 0 1
92.4424 0 1
92.558 0 1
92.6736 0 1
92.7893 0 1
92.905 0 1
93.0208 0 1
93.1366 0 1
93.2525 0 1
93.3685 0 1
93.4845 0 1
93.6005 12053 109.786
93.7167 12446 111.562
93.8328 12247 110.666
93.949 11931 109.229
94.0653 11617 107.782
94.1816 10848 104.154
94.2979 10208 101.035
94.4143 10011 100.055
94.5307 9749 98.737
94.6472 9788 98.9343
94.7637 10529 102.611
94.8803 11145 105.57
94.9969 11610 107.75
95.1135 12093 109.968
95.2302 12152 110.236
95.3469 12335 111.063
95.4637 12615 112.317
95.5805 12969 113.882
95.6973 12881 113.494
95.8142 12938 113.745
95.9311 12711 112.743
96.048 12614 112.312
96.1649 12266 110.752
96.2819 11737 108.337
96.3989 11001 104.886
96.516 10520 102.567
96.633 10106 100.529
96.7501 9973 99.8649
96.8673 10499 102.465
96.9844 11376 106.658
97.1016 11890 109.041
97.2188 12290 110.86
97.336 12804 113.155
97.4532 12800 113.137
97.5704 12414 111.418
97.6877 12244 110.653
97.805 11519 107.327
97.9223 10793 103.889
98.0396 10130 100.648
98.1569 9809 99.0404
98.2743 9701 98.4937
98.3916 10206 101.025
98.509 10531 102.621
98.6264 11137 105.532
98.7438 11743 108.365
98.8612 12091 109.959
98.9786 12232 110.598
99.096 12244 110.653
99.2134 12573 112.129
99.3308 12514 111.866
99.4482 12442 111.544
99.5656 12429 111.485
99.6831 12121 110.095
99.8005 11911 109.138
99.9179 11506 107.266
100.035 10858 104.202
100.153 10162 100.807
100.27 9731 98.6458
100.388 9792 98.9545
100.505 10617 103.039
100.622 11544 107.443
100.74 12075 109.886
100.857 12259 110.72
100.975 12562 112.08
101.092 12307 110.937
101.209 12466 111.651
101.327 12106 110.027
101.444 11410 106.818
101.561 10633 103.116
101.679 9876 99.3781
101.796 9665 98.3107
101.913 9647 98.2191
102.03 10305 101.514
102.148 11251 106.071
102.265 10805 103.947
102.382 12992 113.982
102.499 12451 111.584
102.616 12802 113.146
102.733 13123 114.556
102.851 13084 114.385
102.968 13298 115.317
103.085 13413 115.815
103.202 12810 113.181
103.319 12873 113.459
103.436 12498 111.794
103.552 11884 109.014
103.669 11013 104.943
103.786 10488 102.411
103.903 10867 104.245
104.02 11393 106.738
104.137 12518 111.884
104.253 12963 113.855
104.37 13210 114.935
104.487 13435 115.909
104.603 13486 116.129
104.72 13180 114.804
104.836 12693 112.663
104.953 12045 109.75
105.069 11072 105.224
105.186 10643 103.165
105.302 10307 101.523
105.418 10770 103.779
105.535 11372 106.64
105.651 12052 109.782
105.767 12602 112.259
105.883 13029 114.145
105.999 13290 115.282
106.115 0 1
106.231 0 1
106.347 0 1
106.463 0 1
106.579 0 1
106.694 0 1
106.81 0 1
106.926 0 1
107.041 0 1
107.157 0 1
109.576 0 1
109.692 0 1
109.807 0 1
109.923 0 1
110.039 0 1
110.155 0 1
110.27 0 1
110.386 0 1
110.502 0 1
110.618 10337 101.671
110.735 10576 102.84
110.851 11297 106.287
110.967 11570 107.564
111.083 11757 108.43
111.199 12033 109.695
111.316 11974 109.426
111.432 12023 109.649
111.549 11974 109.426
111.665 11480 107.145
111.782 11349 106.532
111.898 11017 104.962
112.015 10393 101.946
112.132 9458 97.2522
112.248 9026 95.0053
112.365 9140 95.6033
112.482 9887 99.4334
112.599 10312 101.548
112.716 10982 104.795
112.832 10880 104.307
112.949 10759 103.726
113.066 10648 103.189
113.183 10637 103.136
113.3 10330 101.637
113.417 9501 97.4731
113.534 8769 93.6429
113.652 8404 91.6733
113.769 8001 89.4483
113.886 8076 89.8666
114.003 8340 91.3236
114.12 8828 93.9574
114.238 9174 95.781
114.355 9356 96.7264
114.472 9695 98.4632
114.589 9407 96.9897
114.707 9621 98.0867
114.824 9681 98.3921
114.942 9781 98.8989
115.059 9347 96.6799
115.176 9234 96.0937
115.294 9021 94.9789
115.411 8801 93.8136
115.529 8328 91.2579
115.646 7809 88.3685
115.764 7249 85.1411
115.881 7113 84.3386
115.999 7209 84.9058
116.116 7977 89.3141
116.234 8269 90.934
116.351 8328 91.2579
116.469 8211 90.6146
116.586 8136 90.1998
116.704 7966 89.2525
116.821 7748 88.0227
116.939 7439 86.2496
117.056 7043 83.9226
117.174 6584 81.1419
117.291 6435 80.2185
117.409 6260 79.1202
117.526 6399 79.9937
117.644 6783 82.359
117.761 7155 84.5872
117.879 7367 85.8312
117.996 7247 85.1293
118.114 7467 86.4118
118.231 7702 87.761
118.349 7729 87.9147
118.466 7994 89.4092
118.584 7994 89.4092
118.701 7873 88.7299
118.819 7904 88.9044
118.936 7799 88.3119
119.053 7736 87.9545
119.171 7260 85.2056
119.288 6906 83.1023
119.405 6753 82.1766
119.523 6802 82.4742
119.64 7279 85.3171
119.757 7515 86.6891
119.875 7934 89.073
119.992 8081 89.8944
120.109 8159 90.3272
120.226 8221 90.6697
120.343 8228 90.7083
120.46 8331 91.2743
120.578 7681 87.6413
120.695 7703 87.7667
120.812 7270 85.2643
120.929 6873 82.9036
121.046 6838 82.6922
121.163 6983 83.5643
121.279 7413 86.0988
121.396 7698 87.7382
121.513 8114 90.0777
121.63 8407 91.6897
121.747 8503 92.2117
121.863 8807 93.8456
121.98 9011 94.9263
122.097 9282 96.3431
122.213 9309 96.4832
122.33 9331 96.5971
122.446 9320 96.5401
122.563 9521 97.5756
122.679 9243 96.1405
122.795 9116 95.4777
122.912 8716 93.3595
123.028 8309 91.1537
123.144 7852 88.6115
123.26 8070 89.8332
123.377 0 1
123.493 0 1
123.609 0 1
123.725 0 1
123.84 0 1
123.956 0 1
124.072 0 1
124.188 0 1
124.303 0 1
124.419 0 1
126.852 0 1
126.968 0 1
127.083 0 1
127.199 0 1
127.315 0 1
127.431 0 1
127.547 0 1
127.663 0 1
127.779 0 1
127.895 0 1
128.011 0 1
128.127 0 1
128.243 0 1
128.359 9474 97.3345
128.476 9390 96.902
128.592 9669 98.3311
128.708 10256 101.272
128.825 10921 104.504
128.941 11244 106.038
129.058 11162 105.65
129.174 11106 105.385
129.291 10990 104.833
129.408 10983 104.8
129.524 10355 101.76
129.641 10036 100.18
129.758 9509 97.5141
129.875 9272 96.2912
129.992 8759 93.5895
130.108 8632 92.9086
130.225 8715 93.3542
130.342 9393 96.9175
130.459 9321 96.5453
130.576 9466 97.2934
130.693 9567 97.811
130.81 9903 99.5138
130.928 9849 99.2421
131.045 9862 99.3076
131.162 10125 100.623
131.279 10131 100.653
131.396 9948 99.7397
131.513 9749 98.737
131.631 9648 98.2242
131.748 9326 96.5712
131.865 8740 93.488
131.983 8443 91.8858
132.1 8309 91.1537
132.217 8838 94.0106
132.335 9391 96.9072
132.452 9715 98.5647
132.57 9588 97.9183
132.687 9362 96.7574
132.804 9710 98.5393
132.922 9168 95.7497
133.039 8877 94.2178
133.157 8458 91.9674
133.274 8082 89.8999
133.392 7726 87.8977
133.509 7593 87.1378
133.627 7358 85.7788
133.744 7476 86.4639
133.862 7866 88.6905
133.979 7657 87.5043
134.097 7913 88.955
134.214 8173 90.4046
134.332 7876 88.7468
134.449 7942 89.1179
134.567 8125 90.1388
134.684 8097 89.9833
134.802 7978 89.3197
134.919 8020 89.5545
135.037 7959 89.2132
135.154 7685 87.6641
135.272 7212 84.9235
135.389 7160 84.6168
135.507 6501 80.6288
135.624 6547 80.9135
135.742 6829 82.6378
135.859 7180 84.7349
135.977 7234 85.0529
136.094 7508 86.6487
136.211 7269 85.2584
136.329 7102 84.2734
136.446 7024 83.8093
136.564 6952 83.3787
136.681 6528 80.796
136.798 6362 79.7621
136.915 6106 78.1409
137.033 5858 76.5376
137.15 5676 75.3392
137.267 5622 74.98
137.384 5696 75.4718
137.502 6087 78.0192
137.619 6037 77.6981
137.736 6432 80.1998
137.853 6303 79.3914
137.97 6545 80.9012
138.087 6681 81.7374
138.204 6836 82.6801
138.321 6942 83.3187
138.438 7076 84.119
138.555 7256 85.1822
138.672 7339 85.668
138.788 7088 84.1903
138.905 7052 83.9762
139.022 6706 81.8902
139.139 6546 80.9074
139.255 6681 81.7374
139.372 7103 84.2793
139.488 7611 87.241
139.605 8035 89.6382
139.721 8132 90.1776
139.838 8218 90.6532
139.954 8169 90.3825
140.071 8215 90.6366
140.187 8315 91.1866
140.303 7825 88.459
140.419 7551 86.8965
140.535 7592 87.1321
140.652 7124 84.4038
140.768 0 1
140.884 0 1
141 0 1
141.115 0 1
141.231 0 1
141.347 0 1
141.463 0 1
141.578 0 1
141.694 0 1
144.104 0 1
144.219 0 1
144.335 0 1
144.45 0 1
144.566 0 1
144.682 0 1
144.798 0 1
144.914 0 1
145.03 0 1
145.146 6930 83.2466
145.262 6705 81.8841
145.378 6557 80.9753
145.494 6349 79.6806
145.61 5947 77.1168
145.726 6096 78.0769
145.842 5751 75.8353
145.959 5871 76.6225
146.075 5756 75.8683
146.192 5834 76.3806
146.308 5818 76.2758
146.425 5941 77.0779
146.541 6000 77.4597
146.658 5948 77.1233
146.774 5984 77.3563
146.891 5978 77.3175
147.008 5845 76.4526
147.125 5818 76.2758
147.241 5784 76.0526
147.358 5832 76.3675
147.475 5776 76
147.592 5460 73.8918
147.709 5274 72.6223
147.826 5106 71.4563
147.943 5149 71.7565
148.06 5295 72.7668
148.177 5623 74.9867
148.294 5558 74.552
148.411 5576 74.6726
148.528 5541 74.4379
148.645 5563 74.5855
148.762 5290 72.7324
148.88 5213 72.2011
148.997 5232 72.3326
149.114 4498 67.0671
149.231 4575 67.6387
149.349 4522 67.2458
149.466 4417 66.4605
149.583 4283 65.4446
149.701 4464 66.8132
149.818 4467 66.8356
149.935 4579 67.6683
150.053 4511 67.164
150.17 4695 68.5201
150.287 4825 69.4622
150.405 4844 69.5989
150.522 4772 69.0797
150.64 4963 70.4486
150.757 4987 70.6187
150.875 5021 70.859
150.992 5015 70.8167
151.11 4962 70.4415
151.227 4671 68.3447
151.344 4673 68.3593
151.462 4498 67.0671
151.579 4752 68.9348
151.697 4926 70.1855
151.814 5272 72.6085
151.932 5220 72.2496
152.049 5410 73.5527
152.167 5522 74.3102
152.284 5561 74.5721
152.402 5416 73.5935
152.519 5380 73.3485
152.636 5139 71.6868
152.754 5070 71.2039
152.871 4936 70.2567
152.989 4890 69.9285
153.106 4734 68.8041
153.223 4835 69.5342
153.341 4930 70.214
153.458 5022 70.8661
153.575 5278 72.6498
153.693 5272 72.6085
153.81 5399 73.4779
153.927 5423 73.641
154.044 5473 73.9797
154.162 5545 74.4648
154.279 5895 76.7789
154.396 5922 76.9545
154.513 6061 77.8524
154.63 5896 76.7854
154.747 5973 77.2852
154.864 6010 77.5242
154.981 5708 75.5513
155.098 5699 75.4917
155.215 5968 77.2528
155.332 6365 79.781
155.449 6468 80.4239
155.566 6522 80.7589
155.683 6725 82.0061
155.8 6702 81.8657
155.917 6660 81.6088
156.033 6700 81.8535
156.15 0 1
156.267 0 1
156.383 0 1
156.5 0 1
156.617 0 1
156.733 0 1
156.85 0 1
156.966 0 1
157.082 0 1
157.199 0 1
157.315 0 1
157.431 0 1
157.547 0 1
157.664 0 1
157.78 0 1
157.896 0 1
158.012 0 1
158.128 0 1
158.244 0 1
158.359 0 1
158.475 0 1
158.591 0 1
158.706 0 1
