
6.15755 0 1
6.2731 0 1
6.3887 0 1
6.50437 0 1
6.62009 0 1
6.73587 0 1
6.8517 0 1
6.96759 0 1
7.08353 0 1
7.19952 0 1
7.31557 0 1
7.43166 0 1
7.54781 0 1
7.664 0 1
7.78024 0 1
7.89653 0 1
8.01286 0 1
8.12924 0 1
8.24567 0 1
8.36213 0 1
8.47864 0 1
8.59519 0 1
8.71178 0 1
8.82841 0 1
8.94508 0 1
9.06179 0 1
9.17853 0 1
9.29531 0 1
9.41212 0 1
9.52897 0 1
9.64584 0 1
9.76276 0 1
9.8797 0 1
9.99667 0 1
10.1137 0 1
10.2307 0 1
10.3478 0 1
10.4648 0 1
10.5819 0 1
10.6991 0 1
10.8162 0 1
10.9334 0 1
11.0506 0 1
11.1678 0 1
11.285 0 1
11.4023 0 1
11.5196 0 1
11.6369 0 1
11.7542 0 1
11.8715 0 1
11.9888 0 1
12.1062 0 1
12.2235 0 1
12.3409 0 1
12.4582 0 1
12.5756 0 1
12.693 0 1
12.8104 0 1
12.9278 0 1
13.0452 0 1
13.1626 0 1
13.28 0 1
13.3974 0 1
13.5149 0 1
13.6323 0 1
13.7497 0 1
13.8671 0 1
13.9845 0 1
14.1019 0 1
14.2193 0 1
14.3367 0 1
14.4541 0 1
14.5714 0 1
14.6888 0 1
14.8062 0 1
14.9235 0 1
15.0408 0 0
15.1581 0 0
15.2755 0 0
15.3927 0 0
15.51 0 0
15.6273 0 0
15.7445 0 0
15.8617 0 0
15.9789 0 0
16.0961 0 0
16.2132 0 0
16.3304 0 0
16.4475 0 0
16.5646 0 0
16.6816 0 0
16.7986 0 0
16.9156 0 0
17.0326 0 0
17.1496 0 0
17.2665 0 0
17.3833 0 0
17.5002 0 0
17.617 0 0
17.7338 0 0
17.8505 0 0
17.9672 0 0
18.0839 0 0
18.2005 0 0
18.3171 0 0
18.4337 0 0
18.5502 0 0
18.6666 0 0
18.7831 0 0
18.8994 0 0
19.0158 0 0
19.1321 0 0
19.2483 0 0
19.3645 0 0
19.4806 0 0
19.5967 0 0
19.7128 0 0
19.8288 0 0
19.9447 0 0
20.0606 0 1
20.1764 0 1
20.2922 0 1
20.4079 0 1
20.5236 0 1
20.6392 0 1
20.7548 0 1
20.8702 0 1
23.3078 0 1
23.4233 0 1
23.539 0 1
23.6547 0 1
23.7704 0 1
23.8862 0 1
24.0021 0 1
24.118 0 1
24.234 0 1
24.35 0 1
24.4661 13113 114.512
24.5822 12921 113.671
24.6984 13122 114.551
24.8146 13337 115.486
24.9309 13629 116.743
25.0472 13828 117.593
25.1636 14258 119.407
25.28 14798 121.647
25.3965 15255 123.511
25.513 15479 124.415
25.6296 16002 126.499
25.7462 16384 128
25.8628 16410 128.102
25.9795 16386 128.008
26.0962 16431 128.183
26.213 16685 129.17
26.3298 16305 127.691
26.4466 16373 127.957
26.5635 16201 127.283
26.6804 15830 125.817
26.7973 15405 124.117
26.9143 14778 121.565
27.0313 14229 119.285
27.1483 14161 119
27.2653 14324 119.683
27.3824 13993 118.292
27.4996 13958 118.144
27.6167 13375 115.65
27.7339 12885 113.512
27.8511 12272 110.779
27.9683 11726 108.287
28.0855 11608 107.74
28.2028 11366 106.611
28.3201 11153 105.608
28.4374 11356 106.565
28.5547 11469 107.093
28.6721 11647 107.921
28.7894 11632 107.852
28.9068 11818 108.711
29.0242 11834 108.784
29.1416 11821 108.724
29.259 11957 109.348
29.3764 11820 108.72
29.4939 11687 108.106
29.6113 11635 107.866
29.7288 11864 108.922
29.8463 11527 107.364
29.9638 11287 106.24
30.0812 11485 107.168
30.1987 11183 105.75
30.3162 11158 105.631
30.4337 10935 104.571
30.5512 10545 102.689
30.6687 10331 101.642
30.7862 10651 103.204
30.9037 10391 101.936
31.0212 10281 101.395
31.1387 10302 101.499
31.2562 10013 100.065
31.3737 9806 99.0252
31.4912 9558 97.765
31.6087 9483 97.3807
31.7262 9291 96.3898
31.8436 9378 96.8401
31.9611 9584 97.8979
32.0785 9358 96.7368
32.1959 9770 98.8433
32.3134 9989 99.945
32.4308 10175 100.871
32.5482 10655 103.223
32.6655 10567 102.796
32.7829 10655 103.223
32.9002 10772 103.788
33.0176 10725 103.562
33.1349 10763 103.745
33.2522 10809 103.966
33.3694 10965 104.714
33.4867 10884 104.326
33.6039 10795 103.899
33.7211 10920 104.499
33.8383 10702 103.45
33.9554 10394 101.951
34.0725 10423 102.093
34.1896 10023 100.115
34.3067 9793 98.9596
34.4237 9819 99.0909
34.5407 9947 99.7346
34.6577 10017 100.085
34.7746 9728 98.6306
34.8915 9739 98.6864
35.0084 9565 97.8008
35.1252 9254 96.1977
35.242 9152 95.6661
35.3587 8960 94.6573
35.4755 8965 94.6837
35.5921 9048 95.121
35.7088 9238 96.1145
35.8254 9591 97.9337
35.9419 9676 98.3667
36.0584 10005 100.025
36.1749 10012 100.06
36.2913 10200 100.995
36.4077 10411 102.034
36.524 10340 101.686
36.6403 10308 101.528
36.7565 10445 102.201
36.8727 10319 101.582
36.9889 10417 102.064
37.1049 10277 101.376
37.221 0 1
37.3369 0 1
37.4529 0 1
37.5687 0 1
37.6845 0 1
37.8003 0 1
37.916 0 1
38.0316 0 1
38.1472 0 1
40.5851 0 1
40.7008 0 1
40.8164 0 1
40.9322 0 1
41.048 0 1
41.1639 0 1
41.2798 0 1
41.3958 0 1
41.5118 0 1
41.6279 0 1
41.744 8244 90.7965
41.8602 8520 92.3038
41.9765 8532 92.3688
42.0928 8489 92.1358
42.2091 8660 93.0591
42.3255 8673 93.1289
42.4419 8598 92.7254
42.5584 8659 93.0537
42.675 8677 93.1504
42.7915 8642 92.9624
42.9081 8276 90.9725
43.0248 8018 89.5433
43.1415 7915 88.9663
43.2582 7939 89.1011
43.375 7979 89.3252
43.4918 8099 89.9944
43.6087 7928 89.0393
43.7256 7703 87.7667
43.8425 7426 86.1742
43.9595 7126 84.4156
44.0765 7090 84.2021
44.1935 7088 84.1903
44.3106 7049 83.9583
44.4277 7063 84.0417
44.5448 7252 85.1587
44.6619 7270 85.2643
44.7791 7499 86.5968
44.8963 7558 86.9368
45.0136 7637 87.3899
45.1308 7484 86.5101
45.2481 7599 87.1722
45.3654 7464 86.3944
45.4827 7291 85.3874
45.6001 7230 85.0294
45.7174 7445 86.2844
45.8348 7157 84.5991
45.9522 7044 83.9285
46.0697 7155 84.5872
46.1871 7045 83.9345
46.3046 6775 82.3104
46.422 6546 80.9074
46.5395 6420 80.1249
46.657 6223 78.886
46.7745 6151 78.4283
46.892 6126 78.2688
47.0096 6041 77.7239
47.1271 6108 78.1537
47.2446 6085 78.0064
47.3622 5695 75.4652
47.4797 5531 74.3707
47.5973 5500 74.162
47.7149 5187 72.0208
47.8324 5345 73.1095
47.95 5315 72.904
48.0675 5415 73.5867
48.1851 5364 73.2393
48.3027 5597 74.8131
48.4202 5831 76.361
48.5378 5819 76.2824
48.6554 5838 76.4068
48.7729 5772 75.9737
48.8904 5884 76.7072
49.008 5765 75.9276
49.1255 5876 76.6551
49.243 5948 77.1233
49.3605 5754 75.8551
49.478 5959 77.1946
49.5955 6043 77.7367
49.713 6090 78.0385
49.8304 6005 77.4919
49.9479 6060 77.846
50.0653 5924 76.9675
50.1827 5958 77.1881
50.3001 5859 76.5441
50.4175 5757 75.8749
50.5348 6064 77.8717
50.6521 6285 79.278
50.7694 6474 80.4612
50.8867 6443 80.2683
51.004 6422 80.1374
51.1212 6609 81.2958
51.2384 6512 80.697
51.3556 6746 82.134
51.4727 6943 83.3247
51.5899 7328 85.6037
51.707 7624 87.3155
51.824 7753 88.0511
51.9411 8144 90.2441
52.0581 8207 90.5925
52.175 8280 90.9945
52.2919 8404 91.6733
52.4088 8604 92.7577
52.5257 8709 93.322
52.6425 8447 91.9076
52.7593 8581 92.6337
52.876 8710 93.3274
52.9927 8758 93.5842
53.1094 8834 93.9894
53.226 8893 94.3027
53.3426 9040 95.0789
53.4591 9168 95.7497
53.5756 8855 94.101
53.692 8714 93.3488
53.8084 8551 92.4716
53.9248 8231 90.7249
54.0411 8424 91.7824
54.1573 8552 92.477
54.2735 0 1
54.3896 0 1
54.5057 0 1
54.6217 0 1
54.7377 0 1
54.8537 0 1
54.9695 0 1
55.0853 0 1
55.2011 0 1
55.3168 0 1
55.4324 0 1
57.824 0 1
57.9396 0 1
58.0553 0 1
58.1711 0 1
58.2869 0 1
58.4028 0 1
58.5187 0 1
58.6347 0 1
58.7508 0 1
58.8669 0 1
58.983 9776 98.8737
59.0992 9966 99.8299
59.2155 9752 98.7522
59.3318 9866 99.3277
59.4482 10085 100.424
59.5646 10059 100.295
59.681 9943 99.7146
59.7975 10031 100.155
59.9141 10060 100.3
60.0306 10010 100.05
60.1473 10136 100.678
60.2639 10426 102.108
60.3807 10663 103.262
60.4974 10690 103.392
60.6142 10720 103.537
60.731 10580 102.859
60.8479 10795 103.899
60.9648 10525 102.591
61.0818 10646 103.179
61.1987 10574 102.83
61.3158 10554 102.733
61.4328 10337 101.671
61.5499 10418 102.069
61.667 10211 101.049
61.7841 10529 102.611
61.9013 10411 102.034
62.0185 10228 101.134
62.1357 10212 101.054
62.253 9909 99.544
62.3702 9617 98.0663
62.4875 9413 97.0206
62.6049 9147 95.6399
62.7222 9369 96.7936
62.8396 9505 97.4936
62.9569 9349 96.6902
63.0743 9274 96.3016
63.1918 9322 96.5505
63.3092 9115 95.4725
63.4267 9241 96.1301
63.5441 9579 97.8724
63.6616 9659 98.2802
63.7791 9845 99.222
63.8966 10099 100.494
64.0142 9915 99.5741
64.1317 10054 100.27
64.2492 9899 99.4937
64.3668 9750 98.7421
64.4843 9731 98.6458
64.6019 9813 99.0606
64.7195 9846 99.227
64.837 9711 98.5444
64.9546 9611 98.0357
65.0722 9639 98.1784
65.1898 9551 97.7292
65.3074 9522 97.5807
65.4249 9639 98.1784
65.5425 9348 96.6851
65.6601 9524 97.591
65.7777 9544 97.6934
65.8952 9137 95.5877
66.0128 8746 93.5201
66.1304 8483 92.1032
66.2479 8293 91.0659
66.3655 8677 93.1504
66.483 8799 93.803
66.6005 8904 94.361
66.718 8816 93.8936
66.8355 8753 93.5575
66.953 8850 94.0744
67.0705 8912 94.4034
67.1879 9137 95.5877
67.3054 9500 97.4679
67.4228 9511 97.5244
67.5402 9512 97.5295
67.6576 9483 97.3807
67.7749 9261 96.2341
67.8923 9584 97.8979
68.0096 9557 97.7599
68.1269 9567 97.811
68.2442 9598 97.9694
68.3614 9432 97.1185
68.4787 9444 97.1802
68.5958 9631 98.1377
68.713 9762 98.8028
68.8302 9703 98.5038
68.9473 9597 97.9643
69.0643 9771 98.8484
69.1814 9628 98.1224
69.2984 9689 98.4327
69.4154 9728 98.6306
69.5323 9550 97.7241
69.6492 9392 96.9123
69.7661 9054 95.1525
69.8829 8785 93.7283
69.9997 8576 92.6067
70.1165 8938 94.541
70.2332 9188 95.8541
70.3499 9203 95.9323
70.4665 8858 94.1169
70.5831 9046 95.1105
70.6996 9400 96.9536
70.8161 9517 97.5551
70.9326 9788 98.9343
71.049 9760 98.7927
71.1653 9886 99.4284
71.2817 9676 98.3667
71.3979 9411 97.0103
71.5141 9541 97.678
71.6303 9020 94.9737
71.7464 8411 91.7115
71.8624 0 1
71.9784 0 1
72.0944 0 1
72.2102 0 1
72.3261 0 1
72.4418 0 1
72.5575 0 1
72.6732 0 1
75.1054 0 1
75.2209 0 1
75.3365 0 1
75.4521 0 1
75.5678 0 1
75.6835 0 1
75.7993 0 1
75.9151 0 1
76.031 0 1
76.147 8390 91.5969
76.263 9465 97.2882
76.3791 9347 96.6799
76.4952 9491 97.4218
76.6113 9699 98.4835
76.7276 9615 98.0561
76.8438 9619 98.0765
76.9601 9635 98.158
77.0765 9282 96.3431
77.1929 9599 97.9745
77.3093 9477 97.3499
77.4258 9645 98.209
77.5423 9439 97.1545
77.6589 9621 98.0867
77.7755 9458 97.2522
77.8921 9367 96.7833
78.0088 9318 96.5298
78.1256 9384 96.871
78.2423 9289 96.3795
78.3591 9244 96.1457
78.4759 9174 95.781
78.5928 9128 95.5406
78.7097 8725 93.4077
78.8266 8488 92.1303
78.9436 6921 83.1925
79.0606 7108 84.309
79.1776 7464 86.3944
79.2946 7990 89.3868
79.4117 8304 91.1263
79.5288 8527 92.3418
79.6459 8922 94.4563
79.7631 9069 95.2313
79.8802 9071 95.2418
79.9974 8902 94.3504
80.1147 9096 95.373
80.2319 8983 94.7787
80.3491 8893 94.3027
80.4664 8894 94.308
80.5837 8875 94.2072
80.701 8712 93.3381
80.8183 8613 92.8062
80.9357 8737 93.4719
81.053 8804 93.8296
81.1704 8677 93.1504
81.2877 8734 93.4559
81.4051 8458 91.9674
81.5225 8529 92.3526
81.6399 8264 90.9065
81.7573 8478 92.0761
81.8747 8374 91.5096
81.9922 8378 91.5314
82.1096 8415 91.7333
82.227 8289 91.0439
82.3444 7985 89.3588
82.4619 7659 87.5157
82.5793 6842 82.7164
82.6967 6531 80.8146
82.8142 6720 81.9756
82.9316 7017 83.7675
83.049 7373 85.8662
83.1664 7467 86.4118
83.2838 7784 88.227
83.4012 8021 89.56
83.5186 7880 88.7694
83.636 7651 87.47
83.7534 7875 88.7412
83.8708 7802 88.3289
83.9881 7726 87.8977
84.1055 7659 87.5157
84.2228 7688 87.6812
84.3401 7750 88.0341
84.4575 7828 88.476
84.5747 7781 88.21
84.692 7711 87.8123
84.8093 7528 86.764
84.9265 7701 87.7553
85.0437 7677 87.6185
85.1609 7812 88.3855
85.2781 7799 88.3119
85.3952 7725 87.892
85.5123 7714 87.8294
85.6294 7613 87.2525
85.7465 7744 88
85.8636 7660 87.5214
85.9806 7664 87.5443
86.0976 6980 83.5464
86.2145 6251 79.0633
86.3315 5782 76.0395
86.4484 6427 80.1686
86.5652 6985 83.5763
86.682 7509 86.6545
86.7988 7808 88.3629
86.9156 7849 88.5946
87.0323 7787 88.244
87.149 8004 89.4651
87.2657 7932 89.0618
87.3823 7922 89.0056
87.4988 7780 88.2043
87.6154 7896 88.8594
87.7318 7966 89.2525
87.8483 7847 88.5833
87.9647 7850 88.6002
88.081 7869 88.7074
88.1973 7976 89.3085
88.3136 7892 88.8369
88.4298 7793 88.278
88.546 7733 87.9375
88.6621 7703 87.7667
88.7781 7620 87.2926
88.8942 0 1
89.0101 0 1
89.126 0 1
89.2419 0 1
89.3577 0 1
89.4734 0 1
89.5891 0 1
89.7047 0 1
89.8203 0 1
89.9358 0 1
92.3269 0 1
92.4424 0 1
92.558 0 1
92.6736 0 1
92.7893 0 1
92.905 0 1
93.0208 0 1
93.1366 0 1
93.2525 0 1
93.3685 0 1
93.4845 0 1
93.6005 6116 78.2049
93.7167 6195 78.7083
93.8328 6043 77.7367
93.949 5899 76.8049
94.0653 5898 76.7984
94.1816 5573 74.6525
94.2979 5707 75.5447
94.4143 5518 74.2832
94.5307 5490 74.0945
94.6472 5543 74.4513
94.7637 5635 75.0666
94.8803 5577 74.6793
94.9969 5368 73.2666
95.1135 5360 73.212
95.2302 5087 71.3232
95.3469 4647 68.1689
95.4637 3850 62.0484
95.5805 3634 60.2827
95.6973 4500 67.082
95.8142 4956 70.3989
95.9311 5099 71.4073
96.048 5069 71.1969
96.1649 5003 70.7319
96.2819 4756 68.9638
96.3989 4740 68.8477
96.516 4641 68.1249
96.633 4562 67.5426
96.7501 4528 67.2904
96.8673 4309 65.643
96.9844 4291 65.5057
97.1016 4166 64.5446
97.2188 4183 64.6761
97.336 3993 63.1902
97.4532 3967 62.9841
97.5704 3934 62.7216
97.6877 3675 60.6218
97.805 3617 60.1415
97.9223 3467 58.8812
98.0396 3354 57.9137
98.1569 3385 58.1808
98.2743 3267 57.1577
98.3916 3077 55.4707
98.509 3084 55.5338
98.6264 2958 54.3875
98.7438 2953 54.3415
98.8612 2656 51.5364
98.9786 2503 50.03
99.096 2023 44.9778
99.2134 1843 42.9302
99.3308 2338 48.3529
99.4482 2396 48.949
99.5656 2449 49.4874
99.6831 2350 48.4768
99.8005 2185 46.744
99.9179 2114 45.9783
100.035 2102 45.8476
100.153 2073 45.5302
100.27 2093 45.7493
100.388 2107 45.9021
100.505 2122 46.0652
100.622 2057 45.3542
100.74 1976 44.4522
100.857 2167 46.551
100.975 2306 48.0208
101.092 2337 48.3425
101.209 2501 50.01
101.327 2486 49.8598
101.444 2540 50.3984
101.561 2637 51.3517
101.679 2678 51.7494
101.796 2672 51.6914
101.913 2856 53.4416
102.03 2942 54.2402
102.148 3179 56.3826
102.265 3508 59.2284
102.382 3154 56.1605
102.499 3257 57.0701
102.616 2572 50.7149
102.733 2267 47.613
102.851 3276 57.2364
102.968 3935 62.7296
103.085 3973 63.0317
103.202 4142 64.3584
103.319 4293 65.521
103.436 4427 66.5357
103.552 4262 65.284
103.669 4327 65.7799
103.786 4556 67.4981
103.903 4560 67.5278
104.02 4655 68.2276
104.137 4691 68.4909
104.253 4819 69.419
104.37 4802 69.2965
104.487 5045 71.0282
104.603 5276 72.6361
104.72 5160 71.8331
104.836 5362 73.2257
104.953 5465 73.9256
105.069 5480 74.027
105.186 5599 74.8265
105.302 5639 75.0933
105.418 5656 75.2064
105.535 5596 74.8064
105.651 5899 76.8049
105.767 5840 76.4199
105.883 5460 73.8918
105.999 4383 66.2042
106.115 0 1
106.231 0 1
106.347 0 1
106.463 0 1
106.579 0 1
106.694 0 1
106.81 0 1
106.926 0 1
107.041 0 1
107.157 0 1
109.576 0 1
109.692 0 1
109.807 0 1
109.923 0 1
110.039 0 1
110.155 0 1
110.27 0 1
110.386 0 1
110.502 0 1
110.618 5622 74.98
110.735 5803 76.1774
110.851 5679 75.3591
110.967 5057 71.1126
111.083 4289 65.4905
111.199 4070 63.7966
111.316 4690 68.4836
111.432 5538 74.4177
111.549 5917 76.922
111.665 6007 77.5048
111.782 6065 77.8781
111.898 5828 76.3413
112.015 5757 75.8749
112.132 5898 76.7984
112.248 5808 76.2102
112.365 5568 74.619
112.482 5706 75.5381
112.599 5365 73.2462
112.716 5467 73.9392
112.832 5456 73.8647
112.949 5357 73.1915
113.066 5293 72.753
113.183 5145 71.7287
113.3 5216 72.2219
113.417 4970 70.4982
113.534 5101 71.4213
113.652 4985 70.6045
113.769 4998 70.6965
113.886 4775 69.1014
114.003 4886 69.8999
114.12 4789 69.2026
114.238 4707 68.6076
114.355 4550 67.4537
114.472 4091 63.9609
114.589 3564 59.6992
114.707 3219 56.7362
114.824 3201 56.5774
114.942 3619 60.1581
115.059 4119 64.1794
115.176 4309 65.643
115.294 4221 64.9692
115.411 4297 65.5515
115.529 4076 63.8436
115.646 4052 63.6553
115.764 4210 64.8845
115.881 4080 63.8749
115.999 3947 62.8252
116.116 3904 62.482
116.234 3868 62.1932
116.351 3705 60.8687
116.469 3806 61.6928
116.586 3681 60.6712
116.704 3593 59.9416
116.821 3610 60.0833
116.939 3575 59.7913
117.056 3513 59.2706
117.174 3275 57.2276
117.291 3423 58.5064
117.409 3355 57.9224
117.526 3290 57.3585
117.644 3320 57.6194
117.761 3197 56.542
117.879 3194 56.5155
117.996 3197 56.542
118.114 3050 55.2268
118.231 2865 53.5257
118.349 2579 50.7839
118.466 2435 49.3457
118.584 2645 51.4296
118.701 2934 54.1664
118.819 3060 55.3173
118.936 3083 55.5248
119.053 2996 54.7357
119.171 3043 55.1634
119.288 2960 54.4059
119.405 2916 54
119.523 2850 53.3854
119.64 2917 54.0093
119.757 2853 53.4135
119.875 2783 52.7541
119.992 2717 52.1249
120.109 2789 52.811
120.226 2791 52.8299
120.343 2769 52.6213
120.46 2792 52.8394
120.578 2795 52.8678
120.695 2653 51.5073
120.812 2693 51.8941
120.929 2792 52.8394
121.046 2678 51.7494
121.163 2702 51.9808
121.279 2643 51.4101
121.396 2516 50.1597
121.513 2249 47.4236
121.63 2097 45.793
121.747 2087 45.6837
121.863 2434 49.3356
121.98 2556 50.5569
122.097 2619 51.1762
122.213 2492 49.9199
122.33 2531 50.309
122.446 2771 52.6403
122.563 2853 53.4135
122.679 2893 53.7866
122.795 2784 52.7636
122.912 2866 53.535
123.028 2823 53.1319
123.144 2828 53.1789
123.26 2885 53.7122
123.377 0 1
123.493 0 1
123.609 0 1
123.725 0 1
123.84 0 1
123.956 0 1
124.072 0 1
124.188 0 1
124.303 0 1
124.419 0 1
126.852 0 1
126.968 0 1
127.083 0 1
127.199 0 1
127.315 0 1
127.431 0 1
127.547 0 1
127.663 0 1
127.779 0 1
127.895 0 1
128.011 0 1
128.127 0 1
128.243 0 1
128.359 4077 63.8514
128.476 4020 63.4035
128.592 4134 64.2962
128.708 4154 64.4515
128.825 4137 64.3195
128.941 4304 65.6049
129.058 4139 64.3351
129.174 4343 65.9014
129.291 4328 65.7875
129.408 4438 66.6183
129.524 4402 66.3476
129.641 4431 66.5658
129.758 4487 66.9851
129.875 4514 67.1863
129.992 4467 66.8356
130.108 4338 65.8635
130.225 3964 62.9603
130.342 3674 60.6135
130.459 3027 55.0182
130.576 2519 50.1896
130.693 2491 49.9099
130.81 3274 57.2189
130.928 4257 65.2457
131.045 4723 68.7241
131.162 4987 70.6187
131.279 4912 70.0857
131.396 4962 70.4415
131.513 4972 70.5124
131.631 5036 70.9648
131.748 5192 72.0555
131.865 5184 72
131.983 5011 70.7884
132.1 5134 71.6519
132.217 5168 71.8888
132.335 5071 71.211
132.452 5228 72.3049
132.57 5274 72.6223
132.687 5015 70.8167
132.804 5408 73.5391
132.922 5408 73.5391
133.039 5287 72.7118
133.157 5346 73.1163
133.274 5442 73.7699
133.392 5515 74.263
133.509 5452 73.8377
133.627 5307 72.8492
133.744 5105 71.4493
133.862 4473 66.8805
133.979 4009 63.3167
134.097 3494 59.1101
134.214 3162 56.2317
134.332 3173 56.3294
134.449 4053 63.6632
134.567 4973 70.5195
134.684 5649 75.1598
134.802 5822 76.302
134.919 5885 76.7138
135.037 5937 77.0519
135.154 5776 76
135.272 5923 76.961
135.389 6071 77.9166
135.507 6038 77.7046
135.624 6055 77.8139
135.742 6155 78.4538
135.859 6109 78.1601
135.977 5961 77.2075
136.094 6107 78.1473
136.211 6249 79.0506
136.329 6087 78.0192
136.446 6140 78.3582
136.564 6427 80.1686
136.681 6399 79.9937
136.798 6253 79.0759
136.915 6303 79.3914
137.033 6309 79.4292
137.15 6179 78.6066
137.267 5897 76.7919
137.384 5493 74.1148
137.502 5196 72.0833
137.619 4742 68.8622
137.736 4371 66.1135
137.853 3984 63.1189
137.97 4040 63.561
138.087 4622 67.9853
138.204 5450 73.8241
138.321 6199 78.7337
138.438 6738 82.0853
138.555 6867 82.8674
138.672 6886 82.9819
138.788 6899 83.0602
138.905 6800 82.4621
139.022 6942 83.3187
139.139 6956 83.4026
139.255 7030 83.8451
139.372 7063 84.0417
139.488 6990 83.6062
139.605 7041 83.9107
139.721 7108 84.309
139.838 7087 84.1843
139.954 7150 84.5577
140.071 6965 83.4566
140.187 7120 84.3801
140.303 7006 83.7019
140.419 7026 83.8212
140.535 7146 84.534
140.652 6911 83.1324
140.768 0 1
140.884 0 1
141 0 1
141.115 0 1
141.231 0 1
141.347 0 1
141.463 0 1
141.578 0 1
141.694 0 1
144.104 0 1
144.219 0 1
144.335 0 1
144.45 0 1
144.566 0 1
144.682 0 1
144.798 0 1
144.914 0 1
145.03 0 1
145.146 6954 83.3906
145.262 7039 83.8987
145.378 6949 83.3607
145.494 7025 83.8153
145.61 6689 81.7863
145.726 6736 82.0731
145.842 6420 80.1249
145.959 6116 78.2049
146.075 5746 75.8024
146.192 5485 74.0608
146.308 5203 72.1318
146.425 4929 70.2068
146.541 4892 69.9428
146.658 4996 70.6824
146.774 5380 73.3485
146.891 5900 76.8115
147.008 6592 81.1911
147.125 7001 83.672
147.241 7078 84.1309
147.358 7165 84.6463
147.475 7233 85.047
147.592 7053 83.9821
147.709 7176 84.7113
147.826 7157 84.5991
147.943 7182 84.7467
148.06 7076 84.119
148.177 7130 84.4393
148.294 7198 84.841
148.411 7213 84.9294
148.528 7068 84.0714
148.645 6978 83.5344
148.762 7010 83.7257
148.88 7034 83.8689
148.997 6632 81.4371
149.114 7118 84.3682
149.231 6888 82.994
149.349 6705 81.8841
149.466 6419 80.1187
149.583 6239 78.9873
149.701 5741 75.7694
149.818 5563 74.5855
149.935 5317 72.9178
150.053 5220 72.2496
150.17 5242 72.4017
150.287 5384 73.3757
150.405 5657 75.213
150.522 6070 77.9102
150.64 6571 81.0617
150.757 6844 82.7285
150.875 7210 84.9117
150.992 7228 85.0176
151.11 7282 85.3346
151.227 7380 85.9069
151.344 7236 85.0647
151.462 7251 85.1528
151.579 7311 85.5044
151.697 7494 86.5679
151.814 7208 84.8999
151.932 7400 86.0233
152.049 7444 86.2786
152.167 7255 85.1763
152.284 7330 85.6154
152.402 7283 85.3405
152.519 7442 86.267
152.636 7276 85.2995
152.754 7136 84.4748
152.871 6957 83.4086
152.989 6922 83.1986
153.106 6556 80.9691
153.223 6225 78.8987
153.341 5969 77.2593
153.458 5668 75.2861
153.575 5461 73.8986
153.693 5693 75.452
153.81 5798 76.1446
153.927 5860 76.5506
154.044 6095 78.0705
154.162 6642 81.4985
154.279 7048 83.9524
154.396 7229 85.0235
154.513 7690 87.6926
154.63 7596 87.155
154.747 7629 87.3441
154.864 7711 87.8123
154.981 7722 87.8749
155.098 7770 88.1476
155.215 7785 88.2326
155.332 7712 87.818
155.449 7744 88
155.566 7741 87.983
155.683 7733 87.9375
155.8 7686 87.6698
155.917 7853 88.6172
156.033 7805 88.3459
156.15 0 1
156.267 0 1
156.383 0 1
156.5 0 1
156.617 0 1
156.733 0 1
156.85 0 1
156.966 0 1
157.082 0 1
157.199 0 1
157.315 0 1
157.431 0 1
157.547 0 1
157.664 0 1
157.78 0 1
157.896 0 1
158.012 0 1
158.128 0 1
158.244 0 1
158.359 0 1
158.475 0 1
158.591 0 1
158.706 0 1
