
6.15755 0 1
6.2731 0 1
6.3887 0 1
6.50437 0 1
6.62009 0 1
6.73587 0 1
6.8517 0 1
6.96759 0 1
7.08353 0 1
7.19952 0 1
7.31557 0 1
7.43166 0 1
7.54781 0 1
7.664 0 1
7.78024 0 1
7.89653 0 1
8.01286 0 1
8.12924 0 1
8.24567 0 1
8.36213 0 1
8.47864 0 1
8.59519 0 1
8.71178 0 1
8.82841 0 1
8.94508 0 1
9.06179 0 1
9.17853 0 1
9.29531 0 1
9.41212 0 1
9.52897 0 1
9.64584 0 1
9.76276 0 1
9.8797 0 1
9.99667 0 1
10.1137 0 1
10.2307 0 1
10.3478 0 1
10.4648 0 1
10.5819 0 1
10.6991 0 1
10.8162 0 1
10.9334 0 1
11.0506 0 1
11.1678 0 1
11.285 0 1
11.4023 0 1
11.5196 0 1
11.6369 0 1
11.7542 0 1
11.8715 0 1
11.9888 0 1
12.1062 0 1
12.2235 0 1
12.3409 0 1
12.4582 0 1
12.5756 0 1
12.693 0 1
12.8104 0 1
12.9278 0 1
13.0452 0 1
13.1626 0 1
13.28 0 1
13.3974 0 1
13.5149 0 1
13.6323 0 1
13.7497 0 1
13.8671 0 1
13.9845 0 1
14.1019 0 1
14.2193 0 1
14.3367 0 1
14.4541 0 1
14.5714 0 1
14.6888 0 1
14.8062 0 1
14.9235 0 1
15.0408 0 0
15.1581 0 0
15.2755 0 0
15.3927 0 0
15.51 0 0
15.6273 0 0
15.7445 0 0
15.8617 0 0
15.9789 0 0
16.0961 0 0
16.2132 0 0
16.3304 0 0
16.4475 0 0
16.5646 0 0
16.6816 0 0
16.7986 0 0
16.9156 0 0
17.0326 0 0
17.1496 0 0
17.2665 0 0
17.3833 0 0
17.5002 0 0
17.617 0 0
17.7338 0 0
17.8505 0 0
17.9672 0 0
18.0839 0 0
18.2005 0 0
18.3171 0 0
18.4337 0 0
18.5502 0 0
18.6666 0 0
18.7831 0 0
18.8994 0 0
19.0158 0 0
19.1321 0 0
19.2483 0 0
19.3645 0 0
19.4806 0 0
19.5967 0 0
19.7128 0 0
19.8288 0 0
19.9447 0 0
20.0606 0 1
20.1764 0 1
20.2922 0 1
20.4079 0 1
20.5236 0 1
20.6392 0 1
20.7548 0 1
20.8702 0 1
23.3078 0 1
23.4233 0 1
23.539 0 1
23.6547 0 1
23.7704 0 1
23.8862 0 1
24.0021 0 1
24.118 0 1
24.234 0 1
24.35 0 1
24.4661 536 23.1517
24.5822 592 24.3311
24.6984 714 26.7208
24.8146 744 27.2764
24.9309 795 28.1957
25.0472 841 29
25.1636 842 29.0172
25.28 884 29.7321
25.3965 903 30.05
25.513 995 31.5436
25.6296 1011 31.7962
25.7462 1044 32.311
25.8628 1156 34
25.9795 1049 32.3883
26.0962 1022 31.9687
26.213 1092 33.0454
26.3298 1110 33.3167
26.4466 1131 33.6303
26.5635 1056 32.4962
26.6804 1027 32.0468
26.7973 930 30.4959
26.9143 896 29.9333
27.0313 928 30.4631
27.1483 986 31.4006
27.2653 1041 32.2645
27.3824 1065 32.6343
27.4996 1020 31.9374
27.6167 1021 31.9531
27.7339 1015 31.8591
27.8511 987 31.4166
27.9683 951 30.8383
28.0855 1005 31.7017
28.2028 970 31.1448
28.3201 950 30.8221
28.4374 882 29.6985
28.5547 911 30.1828
28.6721 859 29.3087
28.7894 924 30.3974
28.9068 877 29.6142
29.0242 957 30.9354
29.1416 878 29.6311
29.259 943 30.7083
29.3764 1019 31.9218
29.4939 1033 32.1403
29.6113 1055 32.4808
29.7288 1047 32.3574
29.8463 1065 32.6343
29.9638 1021 31.9531
30.0812 923 30.3809
30.1987 885 29.7489
30.3162 919 30.315
30.4337 857 29.2746
30.5512 897 29.95
30.6687 961 31
30.7862 1026 32.0312
30.9037 951 30.8383
31.0212 979 31.289
31.1387 995 31.5436
31.2562 999 31.607
31.3737 924 30.3974
31.4912 980 31.305
31.6087 998 31.5911
31.7262 921 30.348
31.8436 895 29.9166
31.9611 879 29.6479
32.0785 886 29.7658
32.1959 782 27.9643
32.3134 847 29.1033
32.4308 841 29
32.5482 902 30.0333
32.6655 946 30.7571
32.7829 1004 31.686
32.9002 942 30.692
33.0176 959 30.9677
33.1349 974 31.209
33.2522 940 30.6594
33.3694 979 31.289
33.4867 982 31.3369
33.6039 957 30.9354
33.7211 860 29.3258
33.8383 907 30.1164
33.9554 800 28.2843
34.0725 785 28.0179
34.1896 835 28.8964
34.3067 882 29.6985
34.4237 904 30.0666
34.5407 984 31.3688
34.6577 888 29.7993
34.7746 964 31.0483
34.8915 955 30.9031
35.0084 977 31.257
35.1252 961 31
35.242 891 29.8496
35.3587 892 29.8664
35.4755 869 29.4788
35.5921 755 27.4773
35.7088 831 28.8271
35.8254 802 28.3196
35.9419 743 27.258
36.0584 701 26.4764
36.1749 746 27.313
36.2913 743 27.258
36.4077 724 26.9072
36.524 727 26.9629
36.6403 716 26.7582
36.7565 690 26.2679
36.8727 642 25.3377
36.9889 656 25.6125
37.1049 590 24.2899
37.221 0 1
37.3369 0 1
37.4529 0 1
37.5687 0 1
37.6845 0 1
37.8003 0 1
37.916 0 1
38.0316 0 1
38.1472 0 1
40.5851 0 1
40.7008 0 1
40.8164 0 1
40.9322 0 1
41.048 0 1
41.1639 0 1
41.2798 0 1
41.3958 0 1
41.5118 0 1
41.6279 0 1
41.744 512 22.6274
41.8602 563 23.7276
41.9765 627 25.04
42.0928 657 25.632
42.2091 708 26.6083
42.3255 648 25.4558
42.4419 717 26.7769
42.5584 724 26.9072
42.675 702 26.4953
42.7915 669 25.865
42.9081 699 26.4386
43.0248 708 26.6083
43.1415 733 27.074
43.2582 755 27.4773
43.375 829 28.7924
43.4918 813 28.5132
43.6087 815 28.5482
43.7256 804 28.3549
43.8425 783 27.9821
43.9595 798 28.2489
44.0765 778 27.8927
44.1935 747 27.3313
44.3106 771 27.7669
44.4277 704 26.533
44.5448 650 25.4951
44.6619 677 26.0192
44.7791 639 25.2784
44.8963 642 25.3377
45.0136 657 25.632
45.1308 683 26.1343
45.2481 763 27.6225
45.3654 771 27.7669
45.4827 793 28.1603
45.6001 754 27.4591
45.7174 813 28.5132
45.8348 839 28.9655
45.9522 793 28.1603
46.0697 806 28.3901
46.1871 772 27.7849
46.3046 647 25.4362
46.422 661 25.7099
46.5395 669 25.865
46.657 762 27.6043
46.7745 769 27.7308
46.892 734 27.0924
47.0096 789 28.0891
47.1271 800 28.2843
47.2446 850 29.1548
47.3622 758 27.5318
47.4797 783 27.9821
47.5973 765 27.6586
47.7149 779 27.9106
47.8324 772 27.7849
47.95 762 27.6043
48.0675 694 26.3439
48.1851 655 25.593
48.3027 625 25
48.4202 674 25.9615
48.5378 667 25.8263
48.6554 710 26.6458
48.7729 726 26.9444
48.8904 776 27.8568
49.008 795 28.1957
49.1255 786 28.0357
49.243 777 27.8747
49.3605 800 28.2843
49.478 809 28.4429
49.5955 757 27.5136
49.713 700 26.4575
49.8304 665 25.7876
49.9479 596 24.4131
50.0653 630 25.0998
50.1827 696 26.3818
50.3001 722 26.8701
50.4175 754 27.4591
50.5348 794 28.178
50.6521 785 28.0179
50.7694 795 28.1957
50.8867 825 28.7228
51.004 743 27.258
51.1212 788 28.0713
51.2384 802 28.3196
51.3556 781 27.9464
51.4727 695 26.3629
51.5899 691 26.2869
51.707 684 26.1534
51.824 690 26.2679
51.9411 655 25.593
52.0581 642 25.3377
52.175 692 26.3059
52.2919 743 27.258
52.4088 749 27.3679
52.5257 796 28.2135
52.6425 777 27.8747
52.7593 742 27.2397
52.876 795 28.1957
52.9927 754 27.4591
53.1094 774 27.8209
53.226 725 26.9258
53.3426 661 25.7099
53.4591 557 23.6008
53.5756 602 24.5357
53.692 542 23.2809
53.8084 570 23.8747
53.9248 587 24.2281
54.0411 510 22.5832
54.1573 506 22.4944
54.2735 0 1
54.3896 0 1
54.5057 0 1
54.6217 0 1
54.7377 0 1
54.8537 0 1
54.9695 0 1
55.0853 0 1
55.2011 0 1
55.3168 0 1
55.4324 0 1
57.824 0 1
57.9396 0 1
58.0553 0 1
58.1711 0 1
58.2869 0 1
58.4028 0 1
58.5187 0 1
58.6347 0 1
58.7508 0 1
58.8669 0 1
58.983 584 24.1661
59.0992 613 24.7588
59.2155 686 26.1916
59.3318 711 26.6646
59.4482 839 28.9655
59.5646 849 29.1376
59.681 857 29.2746
59.7975 851 29.1719
59.9141 872 29.5296
60.0306 861 29.3428
60.1473 867 29.4449
60.2639 784 28
60.3807 721 26.8514
60.4974 771 27.7669
60.6142 791 28.1247
60.731 818 28.6007
60.8479 856 29.2575
60.9648 864 29.3939
61.0818 879 29.6479
61.1987 984 31.3688
61.3158 984 31.3688
61.4328 907 30.1164
61.5499 892 29.8664
61.667 934 30.5614
61.7841 893 29.8831
61.9013 839 28.9655
62.0185 866 29.4279
62.1357 745 27.2947
62.253 854 29.2233
62.3702 903 30.05
62.4875 909 30.1496
62.6049 947 30.7734
62.7222 974 31.209
62.8396 982 31.3369
62.9569 965 31.0644
63.0743 991 31.4802
63.1918 983 31.3528
63.3092 947 30.7734
63.4267 953 30.8707
63.5441 933 30.545
63.6616 863 29.3769
63.7791 804 28.3549
63.8966 736 27.1293
64.0142 740 27.2029
64.1317 746 27.313
64.2492 790 28.1069
64.3668 805 28.3725
64.4843 857 29.2746
64.6019 945 30.7409
64.7195 891 29.8496
64.837 918 30.2985
64.9546 912 30.1993
65.0722 1012 31.8119
65.1898 907 30.1164
65.3074 933 30.545
65.4249 829 28.7924
65.5425 731 27.037
65.6601 735 27.1109
65.7777 774 27.8209
65.8952 755 27.4773
66.0128 839 28.9655
66.1304 915 30.249
66.2479 962 31.0161
66.3655 928 30.4631
66.483 923 30.3809
66.6005 933 30.545
66.718 901 30.0167
66.8355 900 30
66.953 946 30.7571
67.0705 879 29.6479
67.1879 852 29.189
67.3054 849 29.1376
67.4228 768 27.7128
67.5402 694 26.3439
67.6576 681 26.096
67.7749 668 25.8457
67.8923 696 26.3818
68.0096 822 28.6705
68.1269 843 29.0345
68.2442 848 29.1204
68.3614 882 29.6985
68.4787 872 29.5296
68.5958 905 30.0832
68.713 871 29.5127
68.8302 856 29.2575
68.9473 847 29.1033
69.0643 811 28.4781
69.1814 748 27.3496
69.2984 709 26.6271
69.4154 677 26.0192
69.5323 720 26.8328
69.6492 798 28.2489
69.7661 849 29.1376
69.8829 863 29.3769
69.9997 812 28.4956
70.1165 803 28.3373
70.2332 756 27.4955
70.3499 741 27.2213
70.4665 728 26.9815
70.5831 685 26.1725
70.6996 575 23.9792
70.8161 594 24.3721
70.9326 560 23.6643
71.049 510 22.5832
71.1653 387 19.6723
71.2817 334 18.2757
71.3979 297 17.2337
71.5141 288 16.9706
71.6303 305 17.4642
71.7464 285 16.8819
71.8624 0 1
71.9784 0 1
72.0944 0 1
72.2102 0 1
72.3261 0 1
72.4418 0 1
72.5575 0 1
72.6732 0 1
75.1054 0 1
75.2209 0 1
75.3365 0 1
75.4521 0 1
75.5678 0 1
75.6835 0 1
75.7993 0 1
75.9151 0 1
76.031 0 1
76.147 563 23.7276
76.263 626 25.02
76.3791 665 25.7876
76.4952 639 25.2784
76.6113 627 25.04
76.7276 627 25.04
76.8438 658 25.6515
76.9601 762 27.6043
77.0765 765 27.6586
77.1929 770 27.7489
77.3093 813 28.5132
77.4258 862 29.3598
77.5423 865 29.4109
77.6589 833 28.8617
77.7755 840 28.9828
77.8921 840 28.9828
78.0088 780 27.9285
78.1256 728 26.9815
78.2423 692 26.3059
78.3591 651 25.5147
78.4759 679 26.0576
78.5928 709 26.6271
78.7097 763 27.6225
78.8266 813 28.5132
78.9436 830 28.8097
79.0606 883 29.7153
79.1776 880 29.6648
79.2946 894 29.8998
79.4117 855 29.2404
79.5288 817 28.5832
79.6459 816 28.5657
79.7631 810 28.4605
79.8802 835 28.8964
79.9974 734 27.0924
80.1147 726 26.9444
80.2319 648 25.4558
80.3491 701 26.4764
80.4664 655 25.593
80.5837 723 26.8887
80.701 770 27.7489
80.8183 904 30.0666
80.9357 825 28.7228
81.053 870 29.4958
81.1704 833 28.8617
81.2877 905 30.0832
81.4051 908 30.133
81.5225 907 30.1164
81.6399 793 28.1603
81.7573 778 27.8927
81.8747 732 27.0555
81.9922 677 26.0192
82.1096 634 25.1794
82.227 723 26.8887
82.3444 823 28.688
82.4619 863 29.3769
82.5793 888 29.7993
82.6967 875 29.5804
82.8142 894 29.8998
82.9316 955 30.9031
83.049 915 30.249
83.1664 878 29.6311
83.2838 909 30.1496
83.4012 885 29.7489
83.5186 819 28.6182
83.636 742 27.2397
83.7534 695 26.3629
83.8708 726 26.9444
83.9881 688 26.2298
84.1055 649 25.4755
84.2228 759 27.55
84.3401 756 27.4955
84.4575 865 29.4109
84.5747 906 30.0998
84.692 885 29.7489
84.8093 970 31.1448
84.9265 906 30.0998
85.0437 882 29.6985
85.1609 891 29.8496
85.2781 845 29.0689
85.3952 741 27.2213
85.5123 665 25.7876
85.6294 707 26.5895
85.7465 755 27.4773
85.8636 756 27.4955
85.9806 838 28.9482
86.0976 879 29.6479
86.2145 835 28.8964
86.3315 923 30.3809
86.4484 988 31.4325
86.5652 977 31.257
86.682 925 30.4138
86.7988 888 29.7993
86.9156 865 29.4109
87.0323 829 28.7924
87.149 846 29.0861
87.2657 725 26.9258
87.3823 658 25.6515
87.4988 600 24.4949
87.6154 591 24.3105
87.7318 609 24.6779
87.8483 641 25.318
87.9647 631 25.1197
88.081 700 26.4575
88.1973 695 26.3629
88.3136 594 24.3721
88.4298 556 23.5797
88.546 479 21.8861
88.6621 403 20.0749
88.7781 402 20.0499
88.8942 0 1
89.0101 0 1
89.126 0 1
89.2419 0 1
89.3577 0 1
89.4734 0 1
89.5891 0 1
89.7047 0 1
89.8203 0 1
89.9358 0 1
92.3269 0 1
92.4424 0 1
92.558 0 1
92.6736 0 1
92.7893 0 1
92.905 0 1
93.0208 0 1
93.1366 0 1
93.2525 0 1
93.3685 0 1
93.4845 0 1
93.6005 868 29.4618
93.7167 865 29.4109
93.8328 945 30.7409
93.949 941 30.6757
94.0653 906 30.0998
94.1816 819 28.6182
94.2979 789 28.0891
94.4143 780 27.9285
94.5307 826 28.7402
94.6472 837 28.931
94.7637 947 30.7734
94.8803 938 30.6268
94.9969 979 31.289
95.1135 994 31.5278
95.2302 1026 32.0312
95.3469 990 31.4643
95.4637 1025 32.0156
95.5805 1019 31.9218
95.6973 1032 32.1248
95.8142 909 30.1496
95.9311 898 29.9666
96.048 845 29.0689
96.1649 798 28.2489
96.2819 785 28.0179
96.3989 807 28.4077
96.516 841 29
96.633 933 30.545
96.7501 978 31.273
96.8673 1061 32.573
96.9844 980 31.305
97.1016 1012 31.8119
97.2188 911 30.1828
97.336 905 30.0832
97.4532 870 29.4958
97.5704 782 27.9643
97.6877 778 27.8927
97.805 786 28.0357
97.9223 815 28.5482
98.0396 799 28.2666
98.1569 815 28.5482
98.2743 917 30.282
98.3916 933 30.545
98.509 1023 31.9844
98.6264 960 30.9839
98.7438 1015 31.8591
98.8612 959 30.9677
98.9786 1018 31.9061
99.096 1005 31.7017
99.2134 980 31.305
99.3308 863 29.3769
99.4482 844 29.0517
99.5656 775 27.8388
99.6831 760 27.5681
99.8005 777 27.8747
99.9179 841 29
100.035 880 29.6648
100.153 879 29.6479
100.27 915 30.249
100.388 951 30.8383
100.505 988 31.4325
100.622 910 30.1662
100.74 941 30.6757
100.857 896 29.9333
100.975 850 29.1548
101.092 779 27.9106
101.209 744 27.2764
101.327 727 26.9629
101.444 813 28.5132
101.561 819 28.6182
101.679 832 28.8444
101.796 925 30.4138
101.913 920 30.3315
102.03 950 30.8221
102.148 988 31.4325
102.265 953 30.8707
102.382 1074 32.7719
102.499 980 31.305
102.616 1015 31.8591
102.733 1011 31.7962
102.851 1025 32.0156
102.968 930 30.4959
103.085 893 29.8831
103.202 876 29.5973
103.319 739 27.1846
103.436 808 28.4253
103.552 853 29.2062
103.669 991 31.4802
103.786 1099 33.1512
103.903 1141 33.7787
104.02 1185 34.4238
104.137 1159 34.0441
104.253 1243 35.2562
104.37 1195 34.5688
104.487 1121 33.4813
104.603 1128 33.5857
104.72 1133 33.6601
104.836 1104 33.2265
104.953 1047 32.3574
105.069 1028 32.0624
105.186 1027 32.0468
105.302 1031 32.1092
105.418 1078 32.8329
105.535 1042 32.28
105.651 1012 31.8119
105.767 911 30.1828
105.883 833 28.8617
105.999 750 27.3861
106.115 0 1
106.231 0 1
106.347 0 1
106.463 0 1
106.579 0 1
106.694 0 1
106.81 0 1
106.926 0 1
107.041 0 1
107.157 0 1
109.576 0 1
109.692 0 1
109.807 0 1
109.923 0 1
110.039 0 1
110.155 0 1
110.27 0 1
110.386 0 1
110.502 0 1
110.618 1305 36.1248
110.735 1572 39.6485
110.851 1882 43.382
110.967 2111 45.9456
111.083 2212 47.0319
111.199 2356 48.5386
111.316 2526 50.2593
111.432 2535 50.3488
111.549 2631 51.2933
111.665 2614 51.1273
111.782 2587 50.8626
111.898 2521 50.2096
112.015 2447 49.4672
112.132 2186 46.7547
112.248 2182 46.7119
112.365 2127 46.1194
112.482 2033 45.0888
112.599 2329 48.2597
112.716 2570 50.6952
112.832 2550 50.4975
112.949 2588 50.8724
113.066 2554 50.5371
113.183 2635 51.3323
113.3 2599 50.9804
113.417 2562 50.6162
113.534 2372 48.7032
113.652 2285 47.8017
113.769 2145 46.3141
113.886 2007 44.7996
114.003 1911 43.715
114.12 2013 44.8665
114.238 2173 46.6154
114.355 2253 47.4658
114.472 2295 47.9062
114.589 2472 49.7192
114.707 2400 48.9898
114.824 2351 48.4871
114.942 2470 49.6991
115.059 2353 48.5077
115.176 2373 48.7134
115.294 2371 48.6929
115.411 2069 45.4863
115.529 2057 45.3542
115.646 1979 44.486
115.764 1813 42.5793
115.881 1720 41.4729
115.999 1626 40.3237
116.116 1792 42.332
116.234 1832 42.8019
116.351 1908 43.6807
116.469 1905 43.6463
116.586 1920 43.8178
116.704 1818 42.638
116.821 1767 42.0357
116.939 1668 40.8412
117.056 1609 40.1123
117.174 1520 38.9872
117.291 1394 37.3363
117.409 1313 36.2353
117.526 1209 34.7707
117.644 1135 33.6898
117.761 1234 35.1283
117.879 1234 35.1283
117.996 1284 35.8329
118.114 1243 35.2562
118.231 1247 35.3129
118.349 1214 34.8425
118.466 1230 35.0714
118.584 1195 34.5688
118.701 1171 34.2199
118.819 1132 33.6452
118.936 1112 33.3467
119.053 1071 32.7261
119.171 1031 32.1092
119.288 925 30.4138
119.405 846 29.0861
119.523 840 28.9828
119.64 810 28.4605
119.757 888 29.7993
119.875 898 29.9666
119.992 980 31.305
120.109 931 30.5123
120.226 985 31.3847
120.343 937 30.6105
120.46 964 31.0483
120.578 924 30.3974
120.695 829 28.7924
120.812 850 29.1548
120.929 810 28.4605
121.046 768 27.7128
121.163 693 26.3249
121.279 697 26.4008
121.396 723 26.8887
121.513 674 25.9615
121.63 746 27.313
121.747 747 27.3313
121.863 742 27.2397
121.98 727 26.9629
122.097 706 26.5707
122.213 762 27.6043
122.33 704 26.533
122.446 704 26.533
122.563 643 25.3574
122.679 613 24.7588
122.795 539 23.2164
122.912 438 20.9284
123.028 435 20.8567
123.144 375 19.3649
123.26 337 18.3576
123.377 0 1
123.493 0 1
123.609 0 1
123.725 0 1
123.84 0 1
123.956 0 1
124.072 0 1
124.188 0 1
124.303 0 1
124.419 0 1
126.852 0 1
126.968 0 1
127.083 0 1
127.199 0 1
127.315 0 1
127.431 0 1
127.547 0 1
127.663 0 1
127.779 0 1
127.895 0 1
128.011 0 1
128.127 0 1
128.243 0 1
128.359 753 27.4408
128.476 687 26.2107
128.592 780 27.9285
128.708 795 28.1957
128.825 847 29.1033
128.941 917 30.282
129.058 896 29.9333
129.174 953 30.8707
129.291 928 30.4631
129.408 922 30.3645
129.524 918 30.2985
129.641 827 28.7576
129.758 803 28.3373
129.875 786 28.0357
129.992 759 27.55
130.108 747 27.3313
130.225 774 27.8209
130.342 764 27.6405
130.459 833 28.8617
130.576 918 30.2985
130.693 906 30.0998
130.81 866 29.4279
130.928 935 30.5778
131.045 834 28.8791
131.162 886 29.7658
131.279 988 31.4325
131.396 866 29.4279
131.513 922 30.3645
131.631 873 29.5466
131.748 855 29.2404
131.865 772 27.7849
131.983 708 26.6083
132.1 752 27.4226
132.217 796 28.2135
132.335 850 29.1548
132.452 884 29.7321
132.57 895 29.9166
132.687 862 29.3598
132.804 907 30.1164
132.922 845 29.0689
133.039 873 29.5466
133.157 926 30.4302
133.274 875 29.5804
133.392 795 28.1957
133.509 743 27.258
133.627 721 26.8514
133.744 766 27.6767
133.862 751 27.4044
133.979 770 27.7489
134.097 823 28.688
134.214 786 28.0357
134.332 784 28
134.449 903 30.05
134.567 887 29.7825
134.684 932 30.5287
134.802 941 30.6757
134.919 915 30.249
135.037 915 30.249
135.154 851 29.1719
135.272 835 28.8964
135.389 812 28.4956
135.507 799 28.2666
135.624 742 27.2397
135.742 725 26.9258
135.859 796 28.2135
135.977 826 28.7402
136.094 852 29.189
136.211 896 29.9333
136.329 868 29.4618
136.446 848 29.1204
136.564 899 29.9833
136.681 825 28.7228
136.798 883 29.7153
136.915 794 28.178
137.033 773 27.8029
137.15 758 27.5318
137.267 785 28.0179
137.384 756 27.4955
137.502 716 26.7582
137.619 765 27.6586
137.736 788 28.0713
137.853 821 28.6531
137.97 858 29.2916
138.087 824 28.7054
138.204 861 29.3428
138.321 815 28.5482
138.438 908 30.133
138.555 869 29.4788
138.672 844 29.0517
138.788 815 28.5482
138.905 746 27.313
139.022 711 26.6646
139.139 680 26.0768
139.255 622 24.9399
139.372 594 24.3721
139.488 598 24.454
139.605 640 25.2982
139.721 650 25.4951
139.838 595 24.3926
139.954 603 24.5561
140.071 496 22.2711
140.187 504 22.4499
140.303 450 21.2132
140.419 405 20.1246
140.535 373 19.3132
140.652 331 18.1934
140.768 0 1
140.884 0 1
141 0 1
141.115 0 1
141.231 0 1
141.347 0 1
141.463 0 1
141.578 0 1
141.694 0 1
144.104 0 1
144.219 0 1
144.335 0 1
144.45 0 1
144.566 0 1
144.682 0 1
144.798 0 1
144.914 0 1
145.03 0 1
145.146 642 25.3377
145.262 705 26.5518
145.378 715 26.7395
145.494 700 26.4575
145.61 641 25.318
145.726 706 26.5707
145.842 656 25.6125
145.959 636 25.219
146.075 570 23.8747
146.192 627 25.04
146.308 664 25.7682
146.425 673 25.9422
146.541 645 25.3969
146.658 683 26.1343
146.774 665 25.7876
146.891 672 25.923
147.008 693 26.3249
147.125 754 27.4591
147.241 765 27.6586
147.358 660 25.6905
147.475 680 26.0768
147.592 675 25.9808
147.709 713 26.7021
147.826 653 25.5539
147.943 618 24.8596
148.06 617 24.8395
148.177 608 24.6577
148.294 702 26.4953
148.411 748 27.3496
148.528 738 27.1662
148.645 741 27.2213
148.762 754 27.4591
148.88 720 26.8328
148.997 680 26.0768
149.114 753 27.4408
149.231 702 26.4953
149.349 651 25.5147
149.466 625 25
149.583 631 25.1197
149.701 609 24.6779
149.818 627 25.04
149.935 638 25.2587
150.053 627 25.04
150.17 625 25
150.287 663 25.7488
150.405 666 25.807
150.522 659 25.671
150.64 755 27.4773
150.757 669 25.865
150.875 678 26.0384
150.992 737 27.1477
151.11 721 26.8514
151.227 724 26.9072
151.344 689 26.2488
151.462 610 24.6982
151.579 613 24.7588
151.697 613 24.7588
151.814 616 24.8193
151.932 726 26.9444
152.049 695 26.3629
152.167 709 26.6271
152.284 688 26.2298
152.402 717 26.7769
152.519 710 26.6458
152.636 693 26.3249
152.754 685 26.1725
152.871 671 25.9037
152.989 664 25.7682
153.106 617 24.8395
153.223 625 25
153.341 581 24.1039
153.458 616 24.8193
153.575 635 25.1992
153.693 650 25.4951
153.81 649 25.4755
153.927 635 25.1992
154.044 642 25.3377
154.162 712 26.6833
154.279 703 26.5141
154.396 662 25.7294
154.513 689 26.2488
154.63 761 27.5862
154.747 713 26.7021
154.864 706 26.5707
154.981 671 25.9037
155.098 624 24.98
155.215 655 25.593
155.332 600 24.4949
155.449 658 25.6515
155.566 652 25.5343
155.683 738 27.1662
155.8 673 25.9422
155.917 730 27.0185
156.033 644 25.3772
156.15 0 1
156.267 0 1
156.383 0 1
156.5 0 1
156.617 0 1
156.733 0 1
156.85 0 1
156.966 0 1
157.082 0 1
157.199 0 1
157.315 0 1
157.431 0 1
157.547 0 1
157.664 0 1
157.78 0 1
157.896 0 1
158.012 0 1
158.128 0 1
158.244 0 1
158.359 0 1
158.475 0 1
158.591 0 1
158.706 0 1
