
6.15755 0 1
6.2731 0 1
6.3887 0 1
6.50437 0 1
6.62009 0 1
6.73587 0 1
6.8517 0 1
6.96759 0 1
7.08353 0 1
7.19952 0 1
7.31557 0 1
7.43166 0 1
7.54781 0 1
7.664 0 1
7.78024 0 1
7.89653 0 1
8.01286 0 1
8.12924 0 1
8.24567 0 1
8.36213 0 1
8.47864 0 1
8.59519 0 1
8.71178 0 1
8.82841 0 1
8.94508 0 1
9.06179 0 1
9.17853 0 1
9.29531 0 1
9.41212 0 1
9.52897 0 1
9.64584 0 1
9.76276 0 1
9.8797 0 1
9.99667 0 1
10.1137 0 1
10.2307 0 1
10.3478 0 1
10.4648 0 1
10.5819 0 1
10.6991 0 1
10.8162 0 1
10.9334 0 1
11.0506 0 1
11.1678 0 1
11.285 0 1
11.4023 0 1
11.5196 0 1
11.6369 0 1
11.7542 0 1
11.8715 0 1
11.9888 0 1
12.1062 0 1
12.2235 0 1
12.3409 0 1
12.4582 0 1
12.5756 0 1
12.693 0 1
12.8104 0 1
12.9278 0 1
13.0452 0 1
13.1626 0 1
13.28 0 1
13.3974 0 1
13.5149 0 1
13.6323 0 1
13.7497 0 1
13.8671 0 1
13.9845 0 1
14.1019 0 1
14.2193 0 1
14.3367 0 1
14.4541 0 1
14.5714 0 1
14.6888 0 1
14.8062 0 1
14.9235 0 1
15.0408 0 0
15.1581 0 0
15.2755 0 0
15.3927 0 0
15.51 0 0
15.6273 0 0
15.7445 0 0
15.8617 0 0
15.9789 0 0
16.0961 0 0
16.2132 0 0
16.3304 0 0
16.4475 0 0
16.5646 0 0
16.6816 0 0
16.7986 0 0
16.9156 0 0
17.0326 0 0
17.1496 0 0
17.2665 0 0
17.3833 0 0
17.5002 0 0
17.617 0 0
17.7338 0 0
17.8505 0 0
17.9672 0 0
18.0839 0 0
18.2005 0 0
18.3171 0 0
18.4337 0 0
18.5502 0 0
18.6666 0 0
18.7831 0 0
18.8994 0 0
19.0158 0 0
19.1321 0 0
19.2483 0 0
19.3645 0 0
19.4806 0 0
19.5967 0 0
19.7128 0 0
19.8288 0 0
19.9447 0 0
20.0606 0 1
20.1764 0 1
20.2922 0 1
20.4079 0 1
20.5236 0 1
20.6392 0 1
20.7548 0 1
20.8702 0 1
23.3078 0 1
23.4233 0 1
23.539 0 1
23.6547 0 1
23.7704 0 1
23.8862 0 1
24.0021 0 1
24.118 0 1
24.234 0 1
24.35 0 1
24.4661 50323 224.328
24.5822 56998 238.743
24.6984 63247 251.49
24.8146 68644 262
24.9309 74656 273.233
25.0472 79195 281.416
25.1636 82660 287.507
25.28 87353 295.555
25.3965 91717 302.848
25.513 93874 306.389
25.6296 97667 312.517
25.7462 99187 314.94
25.8628 100573 317.132
25.9795 102645 320.383
26.0962 103919 322.365
26.213 103754 322.109
26.3298 102932 320.83
26.4466 103178 321.213
26.5635 103018 320.964
26.6804 103113 321.112
26.7973 103709 322.039
26.9143 103908 322.348
27.0313 103220 321.279
27.1483 106268 325.988
27.2653 107214 327.435
27.3824 108076 328.749
27.4996 107543 327.937
27.6167 106213 325.903
27.7339 103724 322.062
27.8511 101970 319.327
27.9683 98507 313.858
28.0855 96580 310.773
28.2028 95242 308.613
28.3201 95131 308.433
28.4374 93181 305.256
28.5547 92161 303.58
28.6721 90580 300.965
28.7894 90132 300.22
28.9068 89770 299.616
29.0242 88930 298.211
29.1416 88175 296.943
29.259 88904 298.168
29.3764 88753 297.914
29.4939 89626 299.376
29.6113 90227 300.378
29.7288 90488 300.812
29.8463 91249 302.074
29.9638 91053 301.75
30.0812 92753 304.554
30.1987 93199 305.285
30.3162 93705 306.113
30.4337 93647 306.018
30.5512 94195 306.912
30.6687 95473 308.987
30.7862 96669 310.916
30.9037 97424 312.128
31.0212 98694 314.156
31.1387 98348 313.605
31.2562 95879 309.643
31.3737 94645 307.644
31.4912 93284 305.424
31.6087 90832 301.383
31.7262 89906 299.843
31.8436 88515 297.515
31.9611 86766 294.561
32.0785 85948 293.169
32.1959 84857 291.302
32.3134 84736 291.094
32.4308 83326 288.662
32.5482 82750 287.663
32.6655 82120 286.566
32.7829 82368 286.998
32.9002 83170 288.392
33.0176 83588 289.116
33.1349 83968 289.772
33.2522 83797 289.477
33.3694 84209 290.188
33.4867 85207 291.902
33.6039 85508 292.418
33.7211 86024 293.298
33.8383 87051 295.044
33.9554 87646 296.051
34.0725 88348 297.234
34.1896 88787 297.971
34.3067 89647 299.411
34.4237 91388 302.304
34.5407 92041 303.383
34.6577 93156 305.215
34.7746 93142 305.192
34.8915 91474 302.447
35.0084 90037 300.062
35.1252 88930 298.211
35.242 87596 295.966
35.3587 85808 292.93
35.4755 85480 292.37
35.5921 83599 289.135
35.7088 82479 287.192
35.8254 80603 283.907
35.9419 78897 280.886
36.0584 77077 277.627
36.1749 75202 274.23
36.2913 72285 268.859
36.4077 69914 264.413
36.524 68684 262.076
36.6403 66976 258.797
36.7565 65414 255.762
36.8727 63649 252.288
36.9889 62017 249.032
37.1049 59106 243.117
37.221 0 1
37.3369 0 1
37.4529 0 1
37.5687 0 1
37.6845 0 1
37.8003 0 1
37.916 0 1
38.0316 0 1
38.1472 0 1
40.5851 0 1
40.7008 0 1
40.8164 0 1
40.9322 0 1
41.048 0 1
41.1639 0 1
41.2798 0 1
41.3958 0 1
41.5118 0 1
41.6279 0 1
41.744 32996 181.648
41.8602 37026 192.421
41.9765 40568 201.415
42.0928 43543 208.67
42.2091 47002 216.799
42.3255 50552 224.838
42.4419 53571 231.454
42.5584 57568 239.933
42.675 60646 246.264
42.7915 62689 250.378
42.9081 65168 255.28
43.0248 66680 258.225
43.1415 69429 263.494
43.2582 71140 266.721
43.375 73052 270.281
43.4918 74361 272.692
43.6087 74721 273.351
43.7256 73494 271.098
43.8425 73027 270.235
43.9595 72274 268.838
44.0765 70984 266.428
44.1935 69710 264.027
44.3106 68634 261.981
44.4277 68001 260.77
44.5448 66918 258.685
44.6619 65414 255.762
44.7791 64889 254.733
44.8963 63348 251.69
45.0136 62393 249.786
45.1308 60269 245.497
45.2481 59234 243.38
45.3654 59306 243.528
45.4827 59201 243.313
45.6001 59615 244.162
45.7174 60889 246.757
45.8348 62216 249.431
45.9522 64278 253.531
46.0697 66008 256.92
46.1871 67793 260.371
46.3046 69424 263.484
46.422 70700 265.895
46.5395 70723 265.938
46.657 72265 268.822
46.7745 73215 270.583
46.892 74194 272.386
47.0096 75885 275.472
47.1271 76626 276.814
47.2446 76322 276.264
47.3622 75677 275.095
47.4797 74580 273.093
47.5973 72936 270.067
47.7149 72103 268.52
47.8324 70327 265.192
47.95 69190 263.04
48.0675 69401 263.441
48.1851 67739 260.267
48.3027 66410 257.701
48.4202 64724 254.409
48.5378 62197 249.393
48.6554 61034 247.051
48.7729 58596 242.066
48.8904 57561 239.919
49.008 57653 240.11
49.1255 58084 241.006
49.243 58220 241.288
49.3605 60598 246.167
49.478 62563 250.126
49.5955 64342 253.657
49.713 66225 257.342
49.8304 67920 260.615
49.9479 68866 262.423
50.0653 69800 264.197
50.1827 70933 266.332
50.3001 70966 266.394
50.4175 73355 270.841
50.5348 74696 273.306
50.6521 75114 274.069
50.7694 74934 273.741
50.8867 74499 272.945
51.004 73310 270.758
51.1212 71892 268.127
51.2384 71397 267.202
51.3556 70015 264.603
51.4727 69143 262.951
51.5899 67842 260.465
51.707 67626 260.05
51.824 66682 258.229
51.9411 66173 257.241
52.0581 63903 252.79
52.175 61433 247.857
52.2919 59983 244.914
52.4088 58587 242.048
52.5257 59162 243.232
52.6425 59603 244.137
52.7593 59415 243.752
52.876 60747 246.469
52.9927 61874 248.745
53.1094 63299 251.593
53.226 64814 254.586
53.3426 65512 255.953
53.4591 65446 255.824
53.5756 63804 252.595
53.692 62829 250.657
53.8084 61057 247.097
53.9248 59419 243.76
54.0411 57662 240.129
54.1573 55189 234.923
54.2735 0 1
54.3896 0 1
54.5057 0 1
54.6217 0 1
54.7377 0 1
54.8537 0 1
54.9695 0 1
55.0853 0 1
55.2011 0 1
55.3168 0 1
55.4324 0 1
57.824 0 1
57.9396 0 1
58.0553 0 1
58.1711 0 1
58.2869 0 1
58.4028 0 1
58.5187 0 1
58.6347 0 1
58.7508 0 1
58.8669 0 1
58.983 47792 218.614
59.0992 55320 235.202
59.2155 61680 248.355
59.3318 67424 259.661
59.4482 72031 268.386
59.5646 75722 275.176
59.681 78535 280.241
59.7975 80599 283.9
59.9141 82276 286.838
60.0306 83245 288.522
60.1473 84410 290.534
60.2639 84287 290.322
60.3807 84857 291.302
60.4974 83880 289.62
60.6142 82178 286.667
60.731 80313 283.395
60.8479 77203 277.854
60.9648 74404 272.771
61.0818 71454 267.309
61.1987 70533 265.58
61.3158 69922 264.428
61.4328 70462 265.447
61.5499 72083 268.483
61.667 75088 274.022
61.7841 78312 279.843
61.9013 80752 284.169
62.0185 83906 289.665
62.1357 86037 293.321
62.253 88223 297.024
62.3702 90243 300.405
62.4875 90719 301.196
62.6049 92187 303.623
62.7222 94131 306.808
62.8396 94654 307.659
62.9569 95890 309.661
63.0743 94187 306.899
63.1918 93581 305.91
63.3092 91469 302.438
63.4267 91178 301.957
63.5441 89920 299.867
63.6616 88208 296.998
63.7791 86648 294.36
63.8966 85511 292.423
64.0142 83435 288.851
64.1317 82150 286.618
64.2492 80185 283.17
64.3668 76642 276.843
64.4843 73257 270.66
64.6019 70677 265.851
64.7195 68516 261.756
64.837 67321 259.463
64.9546 67414 259.642
65.0722 69273 263.198
65.1898 71158 266.755
65.3074 73446 271.009
65.4249 77905 279.115
65.5425 80331 283.427
65.6601 83989 289.809
65.7777 86372 293.891
65.8952 87108 295.141
66.0128 88315 297.178
66.1304 89919 299.865
66.2479 90647 301.076
66.3655 91226 302.036
66.483 92657 304.396
66.6005 92062 303.417
66.718 92089 303.462
66.8355 90381 300.634
66.953 89473 299.12
67.0705 88221 297.02
67.1879 87115 295.153
67.3054 85416 292.26
67.4228 84626 290.905
67.5402 83353 288.709
67.6576 81773 285.96
67.7749 79615 282.161
67.8923 77335 278.092
68.0096 74055 272.13
68.1269 70558 265.628
68.2442 67135 259.104
68.3614 65151 255.247
68.4787 64224 253.425
68.5958 64056 253.093
68.713 65247 255.435
68.8302 67531 259.867
68.9473 71314 267.047
69.0643 74624 273.174
69.1814 78082 279.432
69.2984 81305 285.14
69.4154 82679 287.54
69.5323 84514 290.713
69.6492 84228 290.221
69.7661 84641 290.931
69.8829 84107 290.012
69.9997 83401 288.792
70.1165 83662 289.244
70.2332 82462 287.162
70.3499 79859 282.593
70.4665 77490 278.37
70.5831 73890 271.827
70.6996 70187 264.928
70.8161 67122 259.079
70.9326 63925 252.834
71.049 59761 244.461
71.1653 55749 236.112
71.2817 52368 228.841
71.3979 47637 218.259
71.5141 41980 204.89
71.6303 37561 193.807
71.7464 30130 173.58
71.8624 0 1
71.9784 0 1
72.0944 0 1
72.2102 0 1
72.3261 0 1
72.4418 0 1
72.5575 0 1
72.6732 0 1
75.1054 0 1
75.2209 0 1
75.3365 0 1
75.4521 0 1
75.5678 0 1
75.6835 0 1
75.7993 0 1
75.9151 0 1
76.031 0 1
76.147 53811 231.972
76.263 58498 241.864
76.3791 60623 246.217
76.4952 63218 251.432
76.6113 64495 253.959
76.7276 65118 255.182
76.8438 64343 253.659
76.9601 63328 251.651
77.0765 61192 247.37
77.1929 59197 243.304
77.3093 57402 239.587
77.4258 55909 236.451
77.5423 56454 237.601
77.6589 56279 237.232
77.7755 57974 240.778
77.8921 60821 246.619
78.0088 63560 252.111
78.1256 67087 259.012
78.2423 70913 266.295
78.3591 73786 271.636
78.4759 74819 273.531
78.5928 76231 276.1
78.7097 76663 276.881
78.8266 79367 281.721
78.9436 77718 278.779
79.0606 79648 282.22
79.1776 80854 284.348
79.2946 80278 283.334
79.4117 80915 284.456
79.5288 79328 281.652
79.6459 78335 279.884
79.7631 77928 279.156
79.8802 77102 277.672
79.9974 75576 274.911
80.1147 74315 272.608
80.2319 73556 271.212
80.3491 72900 270
80.4664 71512 267.417
80.5837 68970 262.621
80.701 65987 256.879
80.8183 62622 250.244
80.9357 58466 241.797
81.053 57193 239.151
81.1704 55575 235.744
81.2877 56604 237.916
81.4051 56341 237.363
81.5225 59333 243.584
81.6399 62416 249.832
81.7573 65302 255.543
81.8747 70337 265.211
81.9922 72043 268.408
82.1096 75443 274.669
82.227 75084 274.015
82.3444 76613 276.791
82.4619 78718 280.567
82.5793 78618 280.389
82.6967 80548 283.81
82.8142 80171 283.145
82.9316 80755 284.174
83.049 80588 283.88
83.1664 79654 282.23
83.2838 78963 281.004
83.4012 78977 281.028
83.5186 77634 278.629
83.636 77072 277.618
83.7534 75628 275.005
83.8708 74855 273.596
83.9881 73131 270.427
84.1055 71269 266.963
84.2228 69438 263.511
84.3401 65349 255.635
84.4575 62356 249.712
84.5747 58815 242.518
84.692 56053 236.755
84.8093 54264 232.946
84.9265 54601 233.669
85.0437 56344 237.369
85.1609 59121 243.148
85.2781 62702 250.404
85.3952 66493 257.862
85.5123 70141 264.841
85.6294 73521 271.148
85.7465 75870 275.445
85.8636 77592 278.553
85.9806 78733 280.594
86.0976 79709 282.328
86.2145 80813 284.276
86.3315 80782 284.222
86.4484 82936 287.986
86.5652 83029 288.148
86.682 82338 286.946
86.7988 81225 285
86.9156 79940 282.737
87.0323 76974 277.442
87.149 75497 274.767
87.2657 73839 271.733
87.3823 71717 267.8
87.4988 68341 261.421
87.6154 65729 256.377
87.7318 63447 251.887
87.8483 59433 243.789
87.9647 54149 232.699
88.081 50198 224.049
88.1973 45953 214.367
88.3136 41979 204.888
88.4298 39514 198.781
88.546 38238 195.545
88.6621 37405 193.404
88.7781 36173 190.192
88.8942 0 1
89.0101 0 1
89.126 0 1
89.2419 0 1
89.3577 0 1
89.4734 0 1
89.5891 0 1
89.7047 0 1
89.8203 0 1
89.9358 0 1
92.3269 0 1
92.4424 0 1
92.558 0 1
92.6736 0 1
92.7893 0 1
92.905 0 1
93.0208 0 1
93.1366 0 1
93.2525 0 1
93.3685 0 1
93.4845 0 1
93.6005 46882 216.523
93.7167 46852 216.453
93.8328 48050 219.203
93.949 49346 222.14
94.0653 50580 224.9
94.1816 53381 231.043
94.2979 56555 237.813
94.4143 61124 247.233
94.5307 65575 256.076
94.6472 69858 264.307
94.7637 73767 271.601
94.8803 77094 277.658
94.9969 79438 281.847
95.1135 81238 285.023
95.2302 82208 286.719
95.3469 83837 289.546
95.4637 84416 290.544
95.5805 85003 291.553
95.6973 86001 293.259
95.8142 85329 292.111
95.9311 83924 289.696
96.048 83070 288.219
96.1649 82670 287.524
96.2819 81884 286.154
96.3989 81248 285.04
96.516 80226 283.242
96.633 79673 282.264
96.7501 78608 280.371
96.8673 77268 277.971
96.9844 74822 273.536
97.1016 72383 269.041
97.2188 68575 261.868
97.336 64304 253.582
97.4532 60754 246.483
97.5704 58494 241.855
97.6877 57850 240.52
97.805 58168 241.18
97.9223 59654 244.242
98.0396 63026 251.05
98.1569 67397 259.609
98.2743 70881 266.235
98.3916 74225 272.443
98.509 78474 280.132
98.6264 80234 283.256
98.7438 82088 286.51
98.8612 83794 289.472
98.9786 84876 291.335
99.096 86003 293.263
99.2134 86926 294.832
99.3308 87750 296.226
99.4482 88076 296.776
99.5656 87292 295.452
99.6831 86657 294.376
99.8005 85964 293.196
99.9179 84774 291.16
100.035 84305 290.353
100.153 83062 288.205
100.27 82372 287.005
100.388 81764 285.944
100.505 79681 282.278
100.622 77256 277.95
100.74 73620 271.33
100.857 69861 264.312
100.975 65220 255.382
101.092 63440 251.873
101.209 62282 249.564
101.327 61803 248.602
101.444 63857 252.699
101.561 65943 256.794
101.679 70215 264.981
101.796 74353 272.677
101.913 78110 279.482
102.03 80388 283.528
102.148 82872 287.875
102.265 82595 287.393
102.382 88014 296.672
102.499 87269 295.413
102.616 88258 297.082
102.733 89057 298.424
102.851 91196 301.987
102.968 90058 300.097
103.085 90218 300.363
103.202 89751 299.585
103.319 88311 297.172
103.436 86868 294.734
103.552 85926 293.131
103.669 84846 291.283
103.786 84537 290.752
103.903 84090 289.983
104.02 81620 285.692
104.137 79661 282.243
104.253 76204 276.051
104.37 71691 267.752
104.487 68442 261.614
104.603 65116 255.178
104.72 63258 251.511
104.836 63323 251.641
104.953 62963 250.924
105.069 64307 253.588
105.186 65523 255.975
105.302 67249 259.324
105.418 68346 261.431
105.535 67744 260.277
105.651 66675 258.215
105.767 65281 255.501
105.883 61550 248.093
105.999 57742 240.296
106.115 0 1
106.231 0 1
106.347 0 1
106.463 0 1
106.579 0 1
106.694 0 1
106.81 0 1
106.926 0 1
107.041 0 1
107.157 0 1
109.576 0 1
109.692 0 1
109.807 0 1
109.923 0 1
110.039 0 1
110.155 0 1
110.27 0 1
110.386 0 1
110.502 0 1
110.618 37655 194.049
110.735 44516 210.988
110.851 50177 224.002
110.967 55314 235.189
111.083 60587 246.144
111.199 65380 255.695
111.316 69462 263.556
111.432 72566 269.381
111.549 74179 272.358
111.665 75916 275.529
111.782 76394 276.395
111.898 76049 275.77
112.015 76435 276.469
112.132 75219 274.261
112.248 74869 273.622
112.365 73614 271.319
112.482 73725 271.523
112.599 71807 267.968
112.716 69138 262.941
112.832 66564 258
112.949 63158 251.313
113.066 60593 246.156
113.183 58185 241.216
113.3 57046 238.843
113.417 56654 238.021
113.534 56996 238.738
113.652 58925 242.745
113.769 61642 248.278
113.886 64431 253.833
114.003 67739 260.267
114.12 70286 265.115
114.238 71768 267.896
114.355 73642 271.371
114.472 76830 277.182
114.589 72511 269.279
114.707 75903 275.505
114.824 77585 278.541
114.942 78591 280.341
115.059 78846 280.795
115.176 78390 279.982
115.294 77366 278.147
115.411 76315 276.252
115.529 75659 275.062
115.646 74000 272.029
115.764 72459 269.182
115.881 72394 269.061
115.999 70377 265.287
116.116 69478 263.587
116.234 68214 261.178
116.351 65781 256.478
116.469 63098 251.193
116.586 60072 245.096
116.704 58429 241.721
116.821 56472 237.638
116.939 55510 235.606
117.056 56201 237.068
117.174 57075 238.904
117.291 60224 245.406
117.409 62115 249.229
117.526 64036 253.053
117.644 66064 257.029
117.761 68584 261.885
117.879 69860 264.31
117.996 70823 266.126
118.114 72161 268.628
118.231 72925 270.046
118.349 73771 271.608
118.466 74913 273.702
118.584 74963 273.794
118.701 75833 275.378
118.819 74849 273.585
118.936 73171 270.501
119.053 71864 268.075
119.171 70472 265.466
119.288 70104 264.772
119.405 68723 262.151
119.523 68252 261.251
119.64 66471 257.82
119.757 65424 255.781
119.875 64034 253.049
119.992 62054 249.106
120.109 59727 244.391
120.226 58357 241.572
120.343 56279 237.232
120.46 54953 234.421
120.578 54533 233.523
120.695 54674 233.825
120.812 54987 234.493
120.929 56570 237.844
121.046 57708 240.225
121.163 58648 242.173
121.279 60364 245.691
121.396 61321 247.631
121.513 61835 248.666
121.63 62118 249.235
121.747 62198 249.395
121.863 61730 248.455
121.98 62123 249.245
122.097 61654 248.302
122.213 60543 246.055
122.33 59528 243.984
122.446 57561 239.919
122.563 54922 234.354
122.679 52181 228.432
122.795 49287 222.007
122.912 46318 215.216
123.028 43043 207.468
123.144 39609 199.02
123.26 36644 191.426
123.377 0 1
123.493 0 1
123.609 0 1
123.725 0 1
123.84 0 1
123.956 0 1
124.072 0 1
124.188 0 1
124.303 0 1
124.419 0 1
126.852 0 1
126.968 0 1
127.083 0 1
127.199 0 1
127.315 0 1
127.431 0 1
127.547 0 1
127.663 0 1
127.779 0 1
127.895 0 1
128.011 0 1
128.127 0 1
128.243 0 1
128.359 65735 256.388
128.476 67834 260.45
128.592 68597 261.91
128.708 69304 263.257
128.825 69483 263.596
128.941 69148 262.96
129.058 69104 262.876
129.174 67648 260.092
129.291 66938 258.724
129.408 64980 254.912
129.524 64184 253.346
129.641 63161 251.319
129.758 62958 250.914
129.875 63425 251.843
129.992 64128 253.235
130.108 65498 255.926
130.225 66668 258.201
130.342 69523 263.672
130.459 71307 267.034
130.576 71177 266.79
130.693 73064 270.304
130.81 74372 272.712
130.928 76055 275.781
131.045 76444 276.485
131.162 77788 278.905
131.279 78996 281.062
131.396 79685 282.285
131.513 79140 281.318
131.631 77793 278.914
131.748 76906 277.319
131.865 75629 275.007
131.983 75021 273.9
132.1 73500 271.109
132.217 72609 269.461
132.335 72510 269.277
132.452 70875 266.224
132.57 70724 265.94
132.687 69694 263.996
132.804 66422 257.725
132.922 65669 256.26
133.039 64694 254.35
133.157 64611 254.187
133.274 64301 253.576
133.392 64192 253.361
133.509 64970 254.892
133.627 65797 256.509
133.744 67031 258.903
133.862 68104 260.967
133.979 70575 265.66
134.097 71272 266.968
134.214 72463 269.19
134.332 73488 271.087
134.449 74573 273.081
134.567 75830 275.372
134.684 76819 277.162
134.802 78173 279.594
134.919 78900 280.891
135.037 78780 280.678
135.154 77368 278.151
135.272 76340 276.297
135.389 75513 274.796
135.507 73794 271.651
135.624 73099 270.368
135.742 72532 269.318
135.859 71277 266.978
135.977 70415 265.358
136.094 69954 264.488
136.211 69083 262.836
136.329 67669 260.133
136.446 66777 258.412
136.564 65721 256.361
136.681 64361 253.695
136.798 65483 255.896
136.915 64244 253.464
137.033 64293 253.561
137.15 64785 254.529
137.267 65481 255.893
137.384 66500 257.876
137.502 67715 260.221
137.619 68474 261.675
137.736 68965 262.612
137.853 67943 260.659
137.97 69547 263.718
138.087 73733 271.538
138.204 73453 271.022
138.321 74237 272.465
138.438 74704 273.32
138.555 75360 274.518
138.672 74217 272.428
138.788 72347 268.974
138.905 69257 263.167
139.022 66501 257.878
139.139 64276 253.527
139.255 61867 248.731
139.372 59316 243.549
139.488 55935 236.506
139.605 53003 230.224
139.721 50248 224.161
139.838 47622 218.225
139.954 44760 211.566
140.071 42279 205.619
140.187 37453 193.528
140.303 34733 186.368
140.419 32123 179.229
140.535 29836 172.731
140.652 27718 166.487
140.768 0 1
140.884 0 1
141 0 1
141.115 0 1
141.231 0 1
141.347 0 1
141.463 0 1
141.578 0 1
141.694 0 1
144.104 0 1
144.219 0 1
144.335 0 1
144.45 0 1
144.566 0 1
144.682 0 1
144.798 0 1
144.914 0 1
145.03 0 1
145.146 46152 214.83
145.262 47910 218.884
145.378 49401 222.263
145.494 49513 222.515
145.61 50250 224.165
145.726 50092 223.812
145.842 50208 224.071
145.959 50707 225.182
146.075 51115 226.086
146.192 51606 227.17
146.308 51534 227.011
146.425 51938 227.899
146.541 52821 229.828
146.658 52926 230.057
146.774 53153 230.549
146.891 53969 232.312
147.008 55811 236.244
147.125 55488 235.559
147.241 56738 238.197
147.358 57925 240.676
147.475 57158 239.077
147.592 57095 238.946
147.709 55643 235.888
147.826 54700 233.88
147.943 53165 230.575
148.06 53076 230.382
148.177 52115 228.287
148.294 51593 227.141
148.411 52208 228.491
148.528 51748 227.482
148.645 51712 227.403
148.762 51803 227.603
148.88 51281 226.453
148.997 51600 227.156
149.114 49617 222.749
149.231 50670 225.1
149.349 50686 225.136
149.466 50043 223.703
149.583 50064 223.75
149.701 49870 223.316
149.818 49634 222.787
149.935 50896 225.601
150.053 51049 225.94
150.17 51355 226.616
150.287 51881 227.774
150.405 52382 228.871
150.522 53212 230.677
150.64 54453 233.352
150.757 54490 233.431
150.875 55385 235.34
150.992 56413 237.514
151.11 55376 235.321
151.227 55115 234.766
151.344 54314 233.054
151.462 53143 230.528
151.579 52725 229.619
151.697 51515 226.969
151.814 50986 225.801
151.932 50829 225.453
152.049 50421 224.546
152.167 50246 224.156
152.284 49906 223.397
152.402 49604 222.72
152.519 49706 222.948
152.636 48714 220.712
152.754 48960 221.269
152.871 48851 221.023
152.989 48597 220.447
153.106 48063 219.233
153.223 48116 219.354
153.341 48109 219.338
153.458 48176 219.49
153.575 48735 220.76
153.693 48636 220.536
153.81 49160 221.721
153.927 49313 222.065
154.044 50577 224.893
154.162 50854 225.508
154.279 51688 227.35
154.396 52287 228.664
154.513 53082 230.395
154.63 53126 230.491
154.747 52881 229.959
154.864 51977 227.985
154.981 50328 224.339
155.098 49654 222.832
155.215 49844 223.258
155.332 48277 219.72
155.449 47899 218.858
155.566 46922 216.615
155.683 46760 216.241
155.8 45696 213.766
155.917 44695 211.412
156.033 43536 208.653
156.15 0 1
156.267 0 1
156.383 0 1
156.5 0 1
156.617 0 1
156.733 0 1
156.85 0 1
156.966 0 1
157.082 0 1
157.199 0 1
157.315 0 1
157.431 0 1
157.547 0 1
157.664 0 1
157.78 0 1
157.896 0 1
158.012 0 1
158.128 0 1
158.244 0 1
158.359 0 1
158.475 0 1
158.591 0 1
158.706 0 1
