
6.15755 0 1
6.2731 0 1
6.3887 0 1
6.50437 0 1
6.62009 0 1
6.73587 0 1
6.8517 0 1
6.96759 0 1
7.08353 0 1
7.19952 0 1
7.31557 0 1
7.43166 0 1
7.54781 0 1
7.664 0 1
7.78024 0 1
7.89653 0 1
8.01286 0 1
8.12924 0 1
8.24567 0 1
8.36213 0 1
8.47864 0 1
8.59519 0 1
8.71178 0 1
8.82841 0 1
8.94508 0 1
9.06179 0 1
9.17853 0 1
9.29531 0 1
9.41212 0 1
9.52897 0 1
9.64584 0 1
9.76276 0 1
9.8797 0 1
9.99667 0 1
10.1137 0 1
10.2307 0 1
10.3478 0 1
10.4648 0 1
10.5819 0 1
10.6991 0 1
10.8162 0 1
10.9334 0 1
11.0506 0 1
11.1678 0 1
11.285 0 1
11.4023 0 1
11.5196 0 1
11.6369 0 1
11.7542 0 1
11.8715 0 1
11.9888 0 1
12.1062 0 1
12.2235 0 1
12.3409 0 1
12.4582 0 1
12.5756 0 1
12.693 0 1
12.8104 0 1
12.9278 0 1
13.0452 0 1
13.1626 0 1
13.28 0 1
13.3974 0 1
13.5149 0 1
13.6323 0 1
13.7497 0 1
13.8671 0 1
13.9845 0 1
14.1019 0 1
14.2193 0 1
14.3367 0 1
14.4541 0 1
14.5714 0 1
14.6888 0 1
14.8062 0 1
14.9235 0 1
15.0408 2835 53.2447
15.1581 2942 54.2402
15.2755 2935 54.1756
15.3927 2935 54.1756
15.51 3022 54.9727
15.6273 2816 53.066
15.7445 2906 53.9073
15.8617 2712 52.0769
15.9789 2873 53.6004
16.0961 2981 54.5985
16.2132 3050 55.2268
16.3304 3354 57.9137
16.4475 3429 58.5577
16.5646 3424 58.515
16.6816 3331 57.7148
16.7986 3265 57.1402
16.9156 3302 57.463
17.0326 3282 57.2887
17.1496 3271 57.1927
17.2665 3193 56.5066
17.3833 3318 57.6021
17.5002 3318 57.6021
17.617 3424 58.515
17.7338 3396 58.2752
17.8505 3460 58.8218
17.9672 3474 58.9406
18.0839 3691 60.7536
18.2005 3814 61.7576
18.3171 3694 60.7783
18.4337 3854 62.0806
18.5502 3844 62
18.6666 3943 62.7933
18.7831 3827 61.8628
18.8994 3858 62.1128
19.0158 3785 61.5224
19.1321 3785 61.5224
19.2483 3577 59.808
19.3645 3428 58.5491
19.4806 3533 59.439
19.5967 3630 60.2495
19.7128 3740 61.1555
19.8288 3834 61.9193
19.9447 3544 59.5315
20.0606 0 1
20.1764 0 1
20.2922 0 1
20.4079 0 1
20.5236 0 1
20.6392 0 1
20.7548 0 1
20.8702 0 1
23.3078 0 1
23.4233 0 1
23.539 0 1
23.6547 0 1
23.7704 0 1
23.8862 0 1
24.0021 0 1
24.118 0 1
24.234 0 1
24.35 0 1
24.4661 3600 60
24.5822 3695 60.7865
24.6984 3688 60.7289
24.8146 3681 60.6712
24.9309 3946 62.8172
25.0472 4142 64.3584
25.1636 4102 64.0469
25.28 4221 64.9692
25.3965 4138 64.3273
25.513 4071 63.8044
25.6296 4132 64.2806
25.7462 4008 63.3088
25.8628 4012 63.3404
25.9795 3988 63.1506
26.0962 3992 63.1823
26.213 4055 63.6789
26.3298 4055 63.6789
26.4466 4225 65
26.5635 4397 66.3099
26.6804 4264 65.2993
26.7973 4523 67.2533
26.9143 4644 68.1469
27.0313 4720 68.7023
27.1483 4888 69.9142
27.2653 4762 69.0072
27.3824 4841 69.5773
27.4996 4674 68.3667
27.6167 4674 68.3667
27.7339 4315 65.6887
27.8511 4293 65.521
27.9683 4121 64.195
28.0855 4043 63.5846
28.2028 4004 63.2772
28.3201 3978 63.0714
28.4374 4209 64.8768
28.5547 4183 64.6761
28.6721 4432 66.5733
28.7894 4495 67.0448
28.9068 4531 67.3127
29.0242 4375 66.1438
29.1416 4190 64.7302
29.259 4108 64.0937
29.3764 4022 63.4192
29.4939 3895 62.4099
29.6113 3921 62.6179
29.7288 4015 63.364
29.8463 4058 63.7024
29.9638 4289 65.4905
30.0812 4214 64.9153
30.1987 4399 66.325
30.3162 4598 67.8086
30.4337 4577 67.6535
30.5512 4639 68.1102
30.6687 4792 69.2243
30.7862 4898 69.9857
30.9037 4694 68.5128
31.0212 4895 69.9643
31.1387 4650 68.1909
31.2562 4720 68.7023
31.3737 4545 67.4166
31.4912 4391 66.2646
31.6087 4139 64.3351
31.7262 4221 64.9692
31.8436 4134 64.2962
31.9611 4285 65.4599
32.0785 4507 67.1342
32.1959 4514 67.1863
32.3134 4662 68.2788
32.4308 4621 67.9779
32.5482 4514 67.1863
32.6655 4548 67.4389
32.7829 4472 66.873
32.9002 4203 64.8305
33.0176 4143 64.3661
33.1349 4073 63.8201
33.2522 4172 64.591
33.3694 4079 63.867
33.4867 4246 65.1613
33.6039 4293 65.521
33.7211 4571 67.6092
33.8383 4640 68.1175
33.9554 4674 68.3667
34.0725 4698 68.542
34.1896 4859 69.7065
34.3067 4963 70.4486
34.4237 5047 71.0422
34.5407 4948 70.342
34.6577 5061 71.1407
34.7746 4906 70.0428
34.8915 4725 68.7386
35.0084 4645 68.1542
35.1252 4604 67.8528
35.242 4428 66.5432
35.3587 4406 66.3777
35.4755 4273 65.3682
35.5921 4191 64.7379
35.7088 4366 66.0757
35.8254 4598 67.8086
35.9419 4968 70.484
36.0584 4899 69.9929
36.1749 4766 69.0362
36.2913 4623 67.9926
36.4077 4394 66.2873
36.524 4433 66.5808
36.6403 4266 65.3146
36.7565 4231 65.0461
36.8727 4120 64.1872
36.9889 4250 65.192
37.1049 4173 64.5988
37.221 0 1
37.3369 0 1
37.4529 0 1
37.5687 0 1
37.6845 0 1
37.8003 0 1
37.916 0 1
38.0316 0 1
38.1472 0 1
40.5851 0 1
40.7008 0 1
40.8164 0 1
40.9322 0 1
41.048 0 1
41.1639 0 1
41.2798 0 1
41.3958 0 1
41.5118 0 1
41.6279 0 1
41.744 3547 59.5567
41.8602 3587 59.8916
41.9765 3616 60.1332
42.0928 3625 60.208
42.2091 3608 60.0666
42.3255 3800 61.6441
42.4419 4060 63.7181
42.5584 4102 64.0469
42.675 4084 63.9062
42.7915 4310 65.6506
42.9081 4454 66.7383
43.0248 4624 68
43.1415 4458 66.7683
43.2582 4594 67.7791
43.375 4663 68.2862
43.4918 4636 68.0882
43.6087 4555 67.4907
43.7256 4273 65.3682
43.8425 4379 66.174
43.9595 4193 64.7534
44.0765 4098 64.0156
44.1935 3864 62.1611
44.3106 3788 61.5467
44.4277 3857 62.1048
44.5448 3903 62.474
44.6619 3881 62.2977
44.7791 4042 63.5767
44.8963 4006 63.293
45.0136 3940 62.7694
45.1308 3631 60.2578
45.2481 3633 60.2744
45.3654 3386 58.1893
45.4827 3287 57.3324
45.6001 3239 56.9122
45.7174 3184 56.4269
45.8348 3201 56.5774
45.9522 3368 58.0345
46.0697 3489 59.0678
46.1871 3587 59.8916
46.3046 3716 60.959
46.422 3817 61.7819
46.5395 3862 62.145
46.657 3953 62.8729
46.7745 3915 62.57
46.892 3955 62.8888
47.0096 3884 62.3217
47.1271 3933 62.7136
47.2446 3720 60.9918
47.3622 3671 60.5888
47.4797 3582 59.8498
47.5973 3516 59.2959
47.7149 3473 58.9322
47.8324 3192 56.4978
47.95 3226 56.7979
48.0675 3262 57.1139
48.1851 3222 56.7627
48.3027 3228 56.8155
48.4202 3370 58.0517
48.5378 3234 56.8683
48.6554 3105 55.7225
48.7729 3038 55.1181
48.8904 2778 52.7067
49.008 2649 51.4684
49.1255 2755 52.4881
49.243 2650 51.4782
49.3605 2757 52.5071
49.478 2815 53.0566
49.5955 3061 55.3263
49.713 3202 56.5862
49.8304 3291 57.3672
49.9479 3421 58.4893
50.0653 3518 59.3127
50.1827 3672 60.597
50.3001 3681 60.6712
50.4175 3684 60.696
50.5348 3838 61.9516
50.6521 3655 60.4566
50.7694 3658 60.4814
50.8867 3685 60.7042
51.004 3715 60.9508
51.1212 3677 60.6383
51.2384 3679 60.6548
51.3556 3531 59.4222
51.4727 3594 59.95
51.5899 3648 60.3987
51.707 3923 62.6339
51.824 3981 63.0952
51.9411 4215 64.923
52.0581 4276 65.3911
52.175 4142 64.3584
52.2919 4003 63.2693
52.4088 3759 61.3107
52.5257 3551 59.5903
52.6425 3690 60.7454
52.7593 3546 59.5483
52.876 3694 60.7783
52.9927 3922 62.6259
53.1094 4187 64.707
53.226 4373 66.1287
53.3426 4657 68.2422
53.4591 5021 70.859
53.5756 5115 71.5192
53.692 5385 73.3826
53.8084 5495 74.1283
53.9248 5406 73.5255
54.0411 5539 74.4245
54.1573 5570 74.6324
54.2735 0 1
54.3896 0 1
54.5057 0 1
54.6217 0 1
54.7377 0 1
54.8537 0 1
54.9695 0 1
55.0853 0 1
55.2011 0 1
55.3168 0 1
55.4324 0 1
57.824 0 1
57.9396 0 1
58.0553 0 1
58.1711 0 1
58.2869 0 1
58.4028 0 1
58.5187 0 1
58.6347 0 1
58.7508 0 1
58.8669 0 1
58.983 6463 80.3928
59.0992 6640 81.4862
59.2155 6771 82.2861
59.3318 6898 83.0542
59.4482 6729 82.0305
59.5646 6606 81.2773
59.681 6538 80.8579
59.7975 6442 80.2621
59.9141 6568 81.0432
60.0306 6427 80.1686
60.1473 6254 79.0822
60.2639 6156 78.4602
60.3807 6461 80.3803
60.4974 6356 79.7245
60.6142 6168 78.5366
60.731 6143 78.3773
60.8479 5830 76.3544
60.9648 5444 73.7835
61.0818 5127 71.6031
61.1987 5070 71.2039
61.3158 4903 70.0214
61.4328 4883 69.8785
61.5499 5045 71.0282
61.667 5306 72.8423
61.7841 5542 74.4446
61.9013 5926 76.9805
62.0185 6006 77.4984
62.1357 6287 79.2906
62.253 6416 80.0999
62.3702 6452 80.3243
62.4875 6724 82
62.6049 6654 81.5721
62.7222 6855 82.7949
62.8396 6808 82.5106
62.9569 6731 82.0427
63.0743 6565 81.0247
63.1918 6343 79.643
63.3092 6214 78.8289
63.4267 6087 78.0192
63.5441 6146 78.3964
63.6616 5850 76.4853
63.7791 5970 77.2658
63.8966 6009 77.5177
64.0142 6060 77.846
64.1317 5975 77.2981
64.2492 5807 76.2037
64.3668 5751 75.8353
64.4843 5328 72.9932
64.6019 5040 70.993
64.7195 4731 68.7823
64.837 4557 67.5056
64.9546 4706 68.6003
65.0722 4761 69
65.1898 4855 69.6778
65.3074 5319 72.9315
65.4249 5597 74.8131
65.5425 5763 75.9144
65.6601 6119 78.224
65.7777 6253 79.0759
65.8952 6526 80.7837
66.0128 6593 81.1973
66.1304 6685 81.7618
66.2479 6637 81.4678
66.3655 6684 81.7557
66.483 6712 81.9268
66.6005 6626 81.4002
66.718 6674 81.6946
66.8355 6417 80.1062
66.953 6443 80.2683
67.0705 6153 78.4411
67.1879 6292 79.3221
67.3054 6266 79.1581
67.4228 6416 80.0999
67.5402 6495 80.5916
67.6576 6424 80.1499
67.7749 6542 80.8826
67.8923 6425 80.1561
68.0096 6012 77.5371
68.1269 5632 75.0467
68.2442 5407 73.5323
68.3614 5135 71.6589
68.4787 4901 70.0071
68.5958 4827 69.4766
68.713 5123 71.5751
68.8302 5418 73.6071
68.9473 5882 76.6942
69.0643 6085 78.0064
69.1814 6653 81.5659
69.2984 6950 83.3667
69.4154 7337 85.6563
69.5323 7491 86.5506
69.6492 7713 87.8237
69.7661 7752 88.0454
69.8829 8025 89.5824
69.9997 8057 89.7608
70.1165 8083 89.9055
70.2332 8051 89.7274
70.3499 8138 90.2109
70.4665 7916 88.9719
70.5831 8013 89.5154
70.6996 7676 87.6128
70.8161 7471 86.4349
70.9326 7569 87
71.049 7468 86.4176
71.1653 7722 87.8749
71.2817 7585 87.0919
71.3979 7674 87.6014
71.5141 7495 86.5737
71.6303 6783 82.359
71.7464 5842 76.433
71.8624 0 1
71.9784 0 1
72.0944 0 1
72.2102 0 1
72.3261 0 1
72.4418 0 1
72.5575 0 1
72.6732 0 1
75.1054 0 1
75.2209 0 1
75.3365 0 1
75.4521 0 1
75.5678 0 1
75.6835 0 1
75.7993 0 1
75.9151 0 1
76.031 0 1
76.147 7681 87.6413
76.263 7990 89.3868
76.3791 8187 90.482
76.4952 8656 93.0376
76.6113 9020 94.9737
76.7276 8993 94.8314
76.8438 8493 92.1575
76.9601 8238 90.7634
77.0765 7617 87.2754
77.1929 7006 83.7019
77.3093 6320 79.4984
77.4258 6131 78.3007
77.5423 5974 77.2917
77.6589 6248 79.0443
77.7755 6588 81.1665
77.8921 7220 84.9706
78.0088 7795 88.2893
78.1256 8403 91.6679
78.2423 8964 94.6784
78.3591 9473 97.3293
78.4759 9682 98.3972
78.5928 9646 98.2141
78.7097 9819 99.0909
78.8266 9693 98.453
78.9436 10157 100.782
79.0606 9863 99.3126
79.1776 9679 98.3819
79.2946 9601 97.9847
79.4117 9575 97.8519
79.5288 9406 96.9845
79.6459 9115 95.4725
79.7631 9142 95.6138
79.8802 8902 94.3504
79.9974 8766 93.6269
80.1147 9123 95.5144
80.2319 9312 96.4987
80.3491 9279 96.3276
80.4664 9134 95.572
80.5837 8775 93.675
80.701 8225 90.6918
80.8183 7497 86.5852
80.9357 6719 81.9695
81.053 6329 79.555
81.1704 6013 77.5435
81.2877 6009 77.5177
81.4051 6217 78.848
81.5225 6605 81.2712
81.6399 7607 87.2181
81.7573 8465 92.0054
81.8747 8769 93.6429
81.9922 9451 97.2163
82.1096 9281 96.3379
82.227 9462 97.2728
82.3444 9716 98.5698
82.4619 9664 98.3056
82.5793 9831 99.1514
82.6967 9376 96.8297
82.8142 9514 97.5397
82.9316 9315 96.5142
83.049 9271 96.286
83.1664 8987 94.7998
83.2838 8699 93.2684
83.4012 8785 93.7283
83.5186 8585 92.6553
83.636 8631 92.9032
83.7534 8693 93.2363
83.8708 9014 94.9421
83.9881 9162 95.7183
84.1055 9021 94.9789
84.2228 8747 93.5254
84.3401 7970 89.2749
84.4575 7128 84.4275
84.5747 6599 81.2342
84.692 6260 79.1202
84.8093 5874 76.642
84.9265 5953 77.1557
85.0437 6198 78.7274
85.1609 6968 83.4745
85.2781 7786 88.2383
85.3952 8254 90.8515
85.5123 9233 96.0885
85.6294 9738 98.6813
85.7465 10440 102.176
85.8636 10659 103.242
85.9806 10857 104.197
86.0976 10811 103.976
86.2145 10874 104.278
86.3315 11376 106.658
86.4484 10728 103.576
86.5652 11303 106.316
86.682 11085 105.285
86.7988 11200 105.83
86.9156 11439 106.953
87.0323 11043 105.086
87.149 11259 106.108
87.2657 11222 105.934
87.3823 11468 107.089
87.4988 11500 107.238
87.6154 12102 110.009
87.7318 11691 108.125
87.8483 11130 105.499
87.9647 10177 100.881
88.081 9425 97.0824
88.1973 8585 92.6553
88.3136 8079 89.8833
88.4298 8019 89.5489
88.546 8040 89.666
88.6621 8795 93.7817
88.7781 9661 98.2904
88.8942 0 1
89.0101 0 1
89.126 0 1
89.2419 0 1
89.3577 0 1
89.4734 0 1
89.5891 0 1
89.7047 0 1
89.8203 0 1
89.9358 0 1
92.3269 0 1
92.4424 0 1
92.558 0 1
92.6736 0 1
92.7893 0 1
92.905 0 1
93.0208 0 1
93.1366 0 1
93.2525 0 1
93.3685 0 1
93.4845 0 1
93.6005 8990 94.8156
93.7167 8604 92.7577
93.8328 8945 94.578
93.949 8890 94.2868
94.0653 9743 98.7066
94.1816 10610 103.005
94.2979 11713 108.227
94.4143 12683 112.619
94.5307 13245 115.087
94.6472 14089 118.697
94.7637 14288 119.532
94.8803 14492 120.383
94.9969 14934 122.205
95.1135 14699 121.239
95.2302 14833 121.791
95.3469 14766 121.515
95.4637 14737 121.396
95.5805 14628 120.946
95.6973 14537 120.569
95.8142 14648 121.029
95.9311 14426 120.108
96.048 14458 120.241
96.1649 13970 118.195
96.2819 13964 118.169
96.3989 14285 119.52
96.516 14463 120.262
96.633 14394 119.975
96.7501 14467 120.279
96.8673 14265 119.436
96.9844 13141 114.634
97.1016 12082 109.918
97.2188 10984 104.805
97.336 10094 100.469
97.4532 9507 97.5038
97.5704 9234 96.0937
97.6877 9401 96.9588
97.805 9912 99.559
97.9223 11096 105.338
98.0396 12149 110.223
98.1569 12859 113.398
98.2743 13495 116.168
98.3916 14640 120.996
98.509 14939 122.225
98.6264 15265 123.552
98.7438 15334 123.831
98.8612 15557 124.728
98.9786 15473 124.391
99.096 15209 123.325
99.2134 15028 122.589
99.3308 15270 123.572
99.4482 15128 122.996
99.5656 15208 123.321
99.6831 15076 122.784
99.8005 14845 121.84
99.9179 14617 120.901
100.035 14738 121.4
100.153 15201 123.292
100.27 15405 124.117
100.388 15144 123.061
100.505 14641 121
100.622 13569 116.486
100.74 12614 112.312
100.857 11368 106.621
100.975 10361 101.789
101.092 9588 97.9183
101.209 9659 98.2802
101.327 9904 99.5188
101.444 10842 104.125
101.561 12140 110.182
101.679 13101 114.46
101.796 14136 118.895
101.913 15206 123.313
102.03 15637 125.048
102.148 15712 125.348
102.265 15387 124.044
102.382 16464 128.312
102.499 15949 126.289
102.616 16032 126.618
102.733 15607 124.928
102.851 15883 126.028
102.968 15824 125.793
103.085 15893 126.067
103.202 15719 125.375
103.319 15890 126.056
103.436 15250 123.491
103.552 15314 123.75
103.669 15543 124.672
103.786 15760 125.539
103.903 16034 126.625
104.02 15378 124.008
104.137 14456 120.233
104.253 13604 116.636
104.37 12684 112.623
104.487 11521 107.336
104.603 10849 104.159
104.72 10482 102.382
104.836 10685 103.368
104.953 11356 106.565
105.069 12718 112.774
105.186 13875 117.792
105.302 14879 121.98
105.418 15830 125.817
105.535 16494 128.429
105.651 16865 129.865
105.767 17038 130.53
105.883 17191 131.114
105.999 17120 130.843
106.115 0 1
106.231 0 1
106.347 0 1
106.463 0 1
106.579 0 1
106.694 0 1
106.81 0 1
106.926 0 1
107.041 0 1
107.157 0 1
109.576 0 1
109.692 0 1
109.807 0 1
109.923 0 1
110.039 0 1
110.155 0 1
110.27 0 1
110.386 0 1
110.502 0 1
110.618 14948 122.262
110.735 15551 124.704
110.851 15582 124.828
110.967 15737 125.447
111.083 15865 125.956
111.199 15640 125.06
111.316 15733 125.431
111.432 15759 125.535
111.549 15774 125.595
111.665 15484 124.435
111.782 14855 121.881
111.898 14873 121.955
112.015 15033 122.609
112.132 15059 122.715
112.248 15310 123.734
112.365 15309 123.73
112.482 14232 119.298
112.599 14290 119.541
112.716 13067 114.311
112.832 11986 109.481
112.949 11009 104.924
113.066 10269 101.336
113.183 9734 98.661
113.3 9761 98.7978
113.417 10308 101.528
113.534 11116 105.432
113.652 11835 108.789
113.769 12958 113.833
113.886 13783 117.401
114.003 14237 119.319
114.12 14338 119.741
114.238 14905 122.086
114.355 14805 121.676
114.472 14742 121.417
114.589 14899 122.061
114.707 14476 120.316
114.824 14347 119.779
114.942 14488 120.366
115.059 14859 121.897
115.176 14570 120.706
115.294 14453 120.221
115.411 13935 118.047
115.529 14161 119
115.646 14198 119.155
115.764 14357 119.821
115.881 14435 120.146
115.999 14316 119.649
116.116 13999 118.317
116.234 13097 114.442
116.351 12368 111.212
116.469 11575 107.587
116.586 10655 103.223
116.704 10086 100.429
116.821 9822 99.106
116.939 9868 99.3378
117.056 10436 102.157
117.174 11078 105.252
117.291 11880 108.995
117.409 12645 112.45
117.526 13405 115.78
117.644 13803 117.486
117.761 14143 118.924
117.879 14472 120.3
117.996 13995 118.3
118.114 14301 119.587
118.231 14327 119.695
118.349 13957 118.14
118.466 13866 117.754
118.584 14096 118.727
118.701 14235 119.311
118.819 13995 118.3
118.936 13926 118.008
119.053 13521 116.28
119.171 13337 115.486
119.288 13726 117.158
119.405 13874 117.788
119.523 13868 117.762
119.64 13557 116.435
119.757 13470 116.06
119.875 12725 112.805
119.992 12178 110.354
120.109 11408 106.808
120.226 10814 103.99
120.343 9915 99.5741
120.46 9740 98.6914
120.578 9634 98.1529
120.695 9847 99.2321
120.812 10296 101.469
120.929 10926 104.528
121.046 11592 107.666
121.163 12572 112.125
121.279 12907 113.609
121.396 13352 115.551
121.513 13498 116.181
121.63 13824 117.576
121.747 13411 115.806
121.863 13862 117.737
121.98 13475 116.082
122.097 13427 115.875
122.213 13170 114.761
122.33 13413 115.815
122.446 13665 116.897
122.563 13190 114.848
122.679 13230 115.022
122.795 12887 113.521
122.912 12719 112.779
123.028 12653 112.486
123.144 12909 113.618
123.26 12892 113.543
123.377 0 1
123.493 0 1
123.609 0 1
123.725 0 1
123.84 0 1
123.956 0 1
124.072 0 1
124.188 0 1
124.303 0 1
124.419 0 1
126.852 0 1
126.968 0 1
127.083 0 1
127.199 0 1
127.315 0 1
127.431 0 1
127.547 0 1
127.663 0 1
127.779 0 1
127.895 0 1
128.011 0 1
128.127 0 1
128.243 0 1
128.359 13584 116.55
128.476 13693 117.017
128.592 13783 117.401
128.708 13309 115.365
128.825 12841 113.318
128.941 12102 110.009
129.058 11447 106.991
129.174 11103 105.371
129.291 10690 103.392
129.408 10565 102.786
129.524 10555 102.738
129.641 10861 104.216
129.758 11220 105.925
129.875 12042 109.736
129.992 12615 112.317
130.108 13056 114.263
130.225 13319 115.408
130.342 13490 116.146
130.459 13335 115.477
130.576 13937 118.055
130.693 13600 116.619
130.81 13177 114.791
130.928 13105 114.477
131.045 12977 113.917
131.162 13621 116.709
131.279 13742 117.226
131.396 13588 116.568
131.513 13295 115.304
131.631 13254 115.126
131.748 13287 115.269
131.865 13695 117.026
131.983 13486 116.129
132.1 13641 116.795
132.217 13289 115.278
132.335 12680 112.606
132.452 12336 111.068
132.57 11522 107.341
132.687 10929 104.542
132.804 10767 103.764
132.922 10026 100.13
133.039 10169 100.841
133.157 10273 101.356
133.274 10862 104.221
133.392 11289 106.25
133.509 11930 109.225
133.627 12235 110.612
133.744 12720 112.783
133.862 12870 113.446
133.979 12830 113.27
134.097 13118 114.534
134.214 12756 112.942
134.332 12761 112.965
134.449 12372 111.229
134.567 12648 112.463
134.684 13048 114.228
134.802 13247 115.096
134.919 13264 115.169
135.037 12944 113.772
135.154 12786 113.075
135.272 12646 112.454
135.389 12782 113.058
135.507 13039 114.188
135.624 12939 113.75
135.742 12874 113.464
135.859 12576 112.143
135.977 12185 110.386
136.094 11542 107.434
136.211 11168 105.679
136.329 10639 103.146
136.446 10236 101.173
136.564 10203 101.01
136.681 10061 100.305
136.798 10337 101.671
136.915 10430 102.127
137.033 11151 105.598
137.15 11320 106.395
137.267 11662 107.991
137.384 12001 109.549
137.502 12137 110.168
137.619 12236 110.616
137.736 12213 110.512
137.853 12151 110.232
137.97 12117 110.077
138.087 11556 107.499
138.204 12052 109.782
138.321 12029 109.677
138.438 12444 111.553
138.555 12498 111.794
138.672 12618 112.33
138.788 12406 111.382
138.905 12193 110.422
139.022 12586 112.187
139.139 12774 113.022
139.255 12724 112.801
139.372 12425 111.467
139.488 12256 110.707
139.605 11878 108.986
139.721 11635 107.866
139.838 11225 105.948
139.954 10644 103.17
140.071 10158 100.787
140.187 10071 100.354
140.303 9925 99.6243
140.419 9889 99.4435
140.535 10032 100.16
140.652 10196 100.975
140.768 0 1
140.884 0 1
141 0 1
141.115 0 1
141.231 0 1
141.347 0 1
141.463 0 1
141.578 0 1
141.694 0 1
144.104 0 1
144.219 0 1
144.335 0 1
144.45 0 1
144.566 0 1
144.682 0 1
144.798 0 1
144.914 0 1
145.03 0 1
145.146 7118 84.3682
145.262 7745 88.0057
145.378 7877 88.7525
145.494 7814 88.3968
145.61 7970 89.2749
145.726 8204 90.5759
145.842 8570 92.5743
145.959 8998 94.8578
146.075 8946 94.5833
146.192 9268 96.2705
146.308 9260 96.2289
146.425 9222 96.0312
146.541 9277 96.3172
146.658 8972 94.7206
146.774 8831 93.9734
146.891 8673 93.1289
147.008 8936 94.5304
147.125 9150 95.6556
147.241 9422 97.067
147.358 9561 97.7804
147.475 9551 97.7292
147.592 9393 96.9175
147.709 9534 97.6422
147.826 9401 96.9588
147.943 9501 97.4731
148.06 9518 97.5602
148.177 9509 97.5141
148.294 9425 97.0824
148.411 9198 95.9062
148.528 9063 95.1998
148.645 8718 93.3702
148.762 8498 92.1846
148.88 8361 91.4385
148.997 8151 90.2829
149.114 8317 91.1976
149.231 8261 90.89
149.349 8249 90.824
149.466 8537 92.3959
149.583 8629 92.8924
149.701 8844 94.0425
149.818 9007 94.9052
149.935 9340 96.6437
150.053 9132 95.5615
150.17 9316 96.5194
150.287 9348 96.6851
150.405 9196 95.8958
150.522 9022 94.9842
150.64 8903 94.3557
150.757 9025 95
150.875 9221 96.026
150.992 9506 97.4987
151.11 9590 97.9285
151.227 9626 98.1122
151.344 9391 96.9072
151.462 9463 97.278
151.579 9524 97.591
151.697 9722 98.6002
151.814 9590 97.9285
151.932 9407 96.9897
152.049 9277 96.3172
152.167 9029 95.0211
152.284 9037 95.0631
152.402 8605 92.7631
152.519 8586 92.6607
152.636 8594 92.7038
152.754 8451 91.9293
152.871 8445 91.8967
152.989 8593 92.6984
153.106 8489 92.1358
153.223 8873 94.1966
153.341 8960 94.6573
153.458 9126 95.5301
153.575 9234 96.0937
153.693 9273 96.2964
153.81 9536 97.6524
153.927 9235 96.0989
154.044 9330 96.5919
154.162 9037 95.0631
154.279 8928 94.4881
154.396 9120 95.4987
154.513 9444 97.1802
154.63 9677 98.3717
154.747 9941 99.7046
154.864 10005 100.025
154.981 10129 100.643
155.098 9825 99.1211
155.215 10106 100.529
155.332 10002 100.01
155.449 9844 99.2169
155.566 9917 99.5841
155.683 9784 98.9141
155.8 9409 97
155.917 9232 96.0833
156.033 9130 95.551
156.15 0 1
156.267 0 1
156.383 0 1
156.5 0 1
156.617 0 1
156.733 0 1
156.85 0 1
156.966 0 1
157.082 0 1
157.199 0 1
157.315 0 1
157.431 0 1
157.547 0 1
157.664 0 1
157.78 0 1
157.896 0 1
158.012 0 1
158.128 0 1
158.244 0 1
158.359 0 1
158.475 0 1
158.591 0 1
158.706 0 1
