
6.15755 0 1
6.2731 0 1
6.3887 0 1
6.50437 0 1
6.62009 0 1
6.73587 0 1
6.8517 0 1
6.96759 0 1
7.08353 0 1
7.19952 0 1
7.31557 0 1
7.43166 0 1
7.54781 0 1
7.664 0 1
7.78024 0 1
7.89653 0 1
8.01286 0 1
8.12924 0 1
8.24567 0 1
8.36213 0 1
8.47864 0 1
8.59519 0 1
8.71178 0 1
8.82841 0 1
8.94508 0 1
9.06179 0 1
9.17853 0 1
9.29531 0 1
9.41212 0 1
9.52897 0 1
9.64584 0 1
9.76276 0 1
9.8797 0 1
9.99667 0 1
10.1137 0 1
10.2307 0 1
10.3478 0 1
10.4648 0 1
10.5819 0 1
10.6991 0 1
10.8162 0 1
10.9334 0 1
11.0506 0 1
11.1678 0 1
11.285 0 1
11.4023 0 1
11.5196 0 1
11.6369 0 1
11.7542 0 1
11.8715 0 1
11.9888 0 1
12.1062 0 1
12.2235 0 1
12.3409 0 1
12.4582 0 1
12.5756 0 1
12.693 0 1
12.8104 0 1
12.9278 0 1
13.0452 0 1
13.1626 0 1
13.28 0 1
13.3974 0 1
13.5149 0 1
13.6323 0 1
13.7497 0 1
13.8671 0 1
13.9845 0 1
14.1019 0 1
14.2193 0 1
14.3367 0 1
14.4541 0 1
14.5714 0 1
14.6888 0 1
14.8062 0 1
14.9235 0 1
15.0408 3301 57.4543
15.1581 3489 59.0678
15.2755 3554 59.6154
15.3927 3689 60.7371
15.51 3576 59.7997
15.6273 3569 59.7411
15.7445 3526 59.3801
15.8617 3558 59.649
15.9789 3530 59.4138
16.0961 3526 59.3801
16.2132 3414 58.4294
16.3304 3492 59.0931
16.4475 3524 59.3633
16.5646 3496 59.127
16.6816 3524 59.3633
16.7986 3557 59.6406
16.9156 3732 61.0901
17.0326 3680 60.663
17.1496 3703 60.8523
17.2665 3672 60.597
17.3833 3769 61.3922
17.5002 3731 61.0819
17.617 3760 61.3188
17.7338 3775 61.441
17.8505 3700 60.8276
17.9672 3621 60.1747
18.0839 3671 60.5888
18.2005 3782 61.498
18.3171 3805 61.6847
18.4337 3869 62.2013
18.5502 3996 63.2139
18.6666 3962 62.9444
18.7831 4016 63.3719
18.8994 3836 61.9355
19.0158 3755 61.2781
19.1321 3633 60.2744
19.2483 3516 59.2959
19.3645 3388 58.2065
19.4806 3434 58.6003
19.5967 3251 57.0175
19.7128 3162 56.2317
19.8288 2859 53.4696
19.9447 2552 50.5173
20.0606 0 1
20.1764 0 1
20.2922 0 1
20.4079 0 1
20.5236 0 1
20.6392 0 1
20.7548 0 1
20.8702 0 1
23.3078 0 1
23.4233 0 1
23.539 0 1
23.6547 0 1
23.7704 0 1
23.8862 0 1
24.0021 0 1
24.118 0 1
24.234 0 1
24.35 0 1
24.4661 2023 44.9778
24.5822 2240 47.3286
24.6984 2630 51.2835
24.8146 2937 54.1941
24.9309 3172 56.3205
25.0472 3339 57.7841
25.1636 3344 57.8273
25.28 3498 59.1439
25.3965 3653 60.4401
25.513 3807 61.7009
25.6296 3929 62.6817
25.7462 4092 63.9687
25.8628 4048 63.6239
25.9795 4104 64.0625
26.0962 4206 64.8537
26.213 4241 65.123
26.3298 4269 65.3376
26.4466 4229 65.0308
26.5635 4231 65.0461
26.6804 4192 64.7457
26.7973 4053 63.6632
26.9143 4204 64.8383
27.0313 4335 65.8407
27.1483 4429 66.5507
27.2653 4582 67.6905
27.3824 4703 68.5784
27.4996 4534 67.335
27.6167 4487 66.9851
27.7339 4454 66.7383
27.8511 4405 66.3702
27.9683 4241 65.123
28.0855 4393 66.2797
28.2028 4355 65.9924
28.3201 4235 65.0769
28.4374 4226 65.0077
28.5547 4240 65.1153
28.6721 3991 63.1744
28.7894 3963 62.9524
28.9068 3986 63.1348
29.0242 3862 62.145
29.1416 3851 62.0564
29.259 3942 62.7853
29.3764 4042 63.5767
29.4939 3968 62.9921
29.6113 4025 63.4429
29.7288 4223 64.9846
29.8463 4228 65.0231
29.9638 4260 65.2687
30.0812 4202 64.8228
30.1987 4135 64.304
30.3162 4217 64.9384
30.4337 4159 64.4903
30.5512 4303 65.5973
30.6687 4443 66.6558
30.7862 4578 67.6609
30.9037 4629 68.0368
31.0212 4480 66.9328
31.1387 4497 67.0597
31.2562 4584 67.7052
31.3737 4286 65.4675
31.4912 4257 65.2457
31.6087 4448 66.6933
31.7262 4362 66.0454
31.8436 4282 65.437
31.9611 4337 65.8559
32.0785 4230 65.0385
32.1959 4069 63.7887
32.3134 3912 62.546
32.4308 3828 61.8708
32.5482 3806 61.6928
32.6655 3923 62.6339
32.7829 3863 62.153
32.9002 4096 64
33.0176 4189 64.7225
33.1349 4220 64.9615
33.2522 4201 64.8151
33.3694 4204 64.8383
33.4867 4330 65.8027
33.6039 4296 65.5439
33.7211 4192 64.7457
33.8383 4402 66.3476
33.9554 4368 66.0908
34.0725 4351 65.9621
34.1896 4392 66.2722
34.3067 4378 66.1665
34.4237 4672 68.352
34.5407 4658 68.2495
34.6577 4512 67.1714
34.7746 4687 68.4617
34.8915 4538 67.3647
35.0084 4392 66.2722
35.1252 4446 66.6783
35.242 4469 66.8506
35.3587 4492 67.0224
35.4755 4497 67.0597
35.5921 4403 66.3551
35.7088 4219 64.9538
35.8254 4156 64.467
35.9419 3967 62.9841
36.0584 3718 60.9754
36.1749 3718 60.9754
36.2913 3592 59.9333
36.4077 3317 57.5934
36.524 3290 57.3585
36.6403 3369 58.0431
36.7565 3234 56.8683
36.8727 3158 56.1961
36.9889 3203 56.5951
37.1049 2938 54.2033
37.221 0 1
37.3369 0 1
37.4529 0 1
37.5687 0 1
37.6845 0 1
37.8003 0 1
37.916 0 1
38.0316 0 1
38.1472 0 1
40.5851 0 1
40.7008 0 1
40.8164 0 1
40.9322 0 1
41.048 0 1
41.1639 0 1
41.2798 0 1
41.3958 0 1
41.5118 0 1
41.6279 0 1
41.744 2018 44.9222
41.8602 2233 47.2546
41.9765 2416 49.1528
42.0928 2710 52.0577
42.2091 3091 55.5968
42.3255 3278 57.2538
42.4419 3466 58.8727
42.5584 3639 60.3241
42.675 3775 61.441
42.7915 3812 61.7414
42.9081 3934 62.7216
43.0248 4089 63.9453
43.1415 4318 65.7115
43.2582 4590 67.7495
43.375 4612 67.9117
43.4918 4726 68.7459
43.6087 4769 69.0579
43.7256 4671 68.3447
43.8425 4505 67.1193
43.9595 4558 67.513
44.0765 4409 66.4003
44.1935 4473 66.8805
44.3106 4502 67.0969
44.4277 4523 67.2533
44.5448 4350 65.9545
44.6619 4372 66.1211
44.7791 4166 64.5446
44.8963 3824 61.8385
45.0136 3746 61.2046
45.1308 3633 60.2744
45.2481 3483 59.0169
45.3654 3632 60.2661
45.4827 3667 60.5558
45.6001 3812 61.7414
45.7174 4063 63.7417
45.8348 4253 65.215
45.9522 4469 66.8506
46.0697 4529 67.2978
46.1871 4541 67.3869
46.3046 4561 67.5352
46.422 4541 67.3869
46.5395 4601 67.8307
46.657 4611 67.9043
46.7745 4934 70.2424
46.892 5011 70.7884
47.0096 5004 70.739
47.1271 5259 72.519
47.2446 5179 71.9653
47.3622 5004 70.739
47.4797 5199 72.1041
47.5973 4932 70.2282
47.7149 4973 70.5195
47.8324 5009 70.7743
47.95 5027 70.9013
48.0675 4777 69.1158
48.1851 4812 69.3686
48.3027 4530 67.3053
48.4202 4335 65.8407
48.5378 3951 62.857
48.6554 3753 61.2617
48.7729 3587 59.8916
48.8904 3712 60.9262
49.008 3703 60.8523
49.1255 3975 63.0476
49.243 4290 65.4981
49.3605 4553 67.4759
49.478 4715 68.6659
49.5955 4889 69.9214
49.713 4881 69.8642
49.8304 4881 69.8642
49.9479 4852 69.6563
50.0653 4899 69.9929
50.1827 5087 71.3232
50.3001 5171 71.9097
50.4175 5376 73.3212
50.5348 5381 73.3553
50.6521 5424 73.6478
50.7694 5389 73.4098
50.8867 5333 73.0274
51.004 5219 72.2426
51.1212 5213 72.2011
51.2384 5271 72.6017
51.3556 5238 72.374
51.4727 5257 72.5052
51.5899 5107 71.4633
51.707 5100 71.4143
51.824 4786 69.1809
51.9411 4374 66.1362
52.0581 3948 62.8331
52.175 3823 61.8304
52.2919 3693 60.7701
52.4088 3624 60.1997
52.5257 3783 61.5061
52.6425 4110 64.1093
52.7593 4347 65.9318
52.876 4558 67.513
52.9927 4599 67.8159
53.1094 4763 69.0145
53.226 4776 69.1086
53.3426 4766 69.0362
53.4591 4607 67.8749
53.5756 4357 66.0076
53.692 4311 65.6582
53.8084 4234 65.0692
53.9248 4127 64.2417
54.0411 3881 62.2977
54.1573 3748 61.2209
54.2735 0 1
54.3896 0 1
54.5057 0 1
54.6217 0 1
54.7377 0 1
54.8537 0 1
54.9695 0 1
55.0853 0 1
55.2011 0 1
55.3168 0 1
55.4324 0 1
57.824 0 1
57.9396 0 1
58.0553 0 1
58.1711 0 1
58.2869 0 1
58.4028 0 1
58.5187 0 1
58.6347 0 1
58.7508 0 1
58.8669 0 1
58.983 4165 64.5368
59.0992 4799 69.2748
59.2155 5192 72.0555
59.3318 5507 74.2092
59.4482 5974 77.2917
59.5646 6206 78.7782
59.681 6456 80.3492
59.7975 6535 80.8393
59.9141 6608 81.2896
60.0306 6808 82.5106
60.1473 7008 83.7138
60.2639 7050 83.9643
60.3807 6985 83.5763
60.4974 6842 82.7164
60.6142 6301 79.3788
60.731 5803 76.1774
60.8479 5233 72.3395
60.9648 4738 68.8331
61.0818 4797 69.2604
61.1987 4849 69.6348
61.3158 4983 70.5904
61.4328 5609 74.8933
61.5499 6225 78.8987
61.667 6839 82.6982
61.7841 7410 86.0814
61.9013 7405 86.0523
62.0185 7343 85.6913
62.1357 7595 87.1493
62.253 7433 86.2148
62.3702 7480 86.487
62.4875 7614 87.2582
62.6049 8026 89.5879
62.7222 8092 89.9555
62.8396 8063 89.7942
62.9569 8125 90.1388
63.0743 8064 89.7998
63.1918 8124 90.1332
63.3092 8039 89.6605
63.4267 7810 88.3742
63.5441 7892 88.8369
63.6616 8211 90.6146
63.7791 7901 88.8876
63.8966 7726 87.8977
64.0142 7307 85.481
64.1317 6716 81.9512
64.2492 6175 78.5812
64.3668 5356 73.1847
64.4843 5065 71.1688
64.6019 4735 68.8113
64.7195 4841 69.5773
64.837 5083 71.2952
64.9546 5524 74.3236
65.0722 6243 79.0127
65.1898 7089 84.1962
65.3074 7469 86.4234
65.4249 7739 87.9716
65.5425 7967 89.2581
65.6601 7985 89.3588
65.7777 8067 89.8165
65.8952 8068 89.822
66.0128 8119 90.1055
66.1304 8108 90.0444
66.2479 8407 91.6897
66.3655 8523 92.3201
66.483 8632 92.9086
66.6005 8621 92.8493
66.718 8767 93.6323
66.8355 8787 93.739
66.953 8547 92.45
67.0705 8394 91.6188
67.1879 8260 90.8845
67.3054 8529 92.3526
67.4228 8402 91.6624
67.5402 8173 90.4046
67.6576 7820 88.4308
67.7749 7157 84.5991
67.8923 6287 79.2906
68.0096 5458 73.8783
68.1269 4966 70.4699
68.2442 4819 69.419
68.3614 4708 68.6149
68.4787 5163 71.854
68.5958 5800 76.1577
68.713 6667 81.6517
68.8302 7530 86.7756
68.9473 8199 90.5483
69.0643 8491 92.1466
69.1814 8732 93.4452
69.2984 8521 92.3093
69.4154 8354 91.4002
69.5323 7954 89.1852
69.6492 7987 89.37
69.7661 7980 89.3308
69.8829 8190 90.4986
69.9997 8246 90.8075
70.1165 8189 90.4931
70.2332 8130 90.1665
70.3499 7999 89.4371
70.4665 7751 88.0398
70.5831 7318 85.5453
70.6996 7045 83.9345
70.8161 6707 81.8963
70.9326 6641 81.4923
71.049 6275 79.2149
71.1653 5808 76.2102
71.2817 5367 73.2598
71.3979 4687 68.4617
71.5141 4189 64.7225
71.6303 3160 56.2139
71.7464 2217 47.085
71.8624 0 1
71.9784 0 1
72.0944 0 1
72.2102 0 1
72.3261 0 1
72.4418 0 1
72.5575 0 1
72.6732 0 1
75.1054 0 1
75.2209 0 1
75.3365 0 1
75.4521 0 1
75.5678 0 1
75.6835 0 1
75.7993 0 1
75.9151 0 1
76.031 0 1
76.147 6396 79.975
76.263 7054 83.9881
76.3791 7304 85.4634
76.4952 7361 85.7963
76.6113 7124 84.4038
76.7276 6574 81.0802
76.8438 6080 77.9744
76.9601 5485 74.0608
77.0765 4856 69.685
77.1929 4664 68.2935
77.3093 4657 68.2422
77.4258 4777 69.1158
77.5423 5411 73.5595
77.6589 6472 80.4487
77.7755 7678 87.6242
77.8921 8855 94.101
78.0088 9158 95.6974
78.1256 9756 98.7725
78.2423 10017 100.085
78.3591 9488 97.4064
78.4759 9585 97.903
78.5928 9462 97.2728
78.7097 9476 97.3447
78.8266 9622 98.0918
78.9436 10147 100.732
79.0606 10307 101.523
79.1776 10441 102.181
79.2946 10475 102.347
79.4117 10673 103.31
79.5288 10508 102.509
79.6459 10360 101.784
79.7631 10290 101.44
79.8802 10414 102.049
79.9974 10447 102.211
80.1147 10640 103.15
80.2319 10270 101.341
80.3491 9602 97.9898
80.4664 8679 93.1612
80.5837 7413 86.0988
80.701 6252 79.0696
80.8183 5523 74.3169
80.9357 5277 72.643
81.053 5174 71.9305
81.1704 5921 76.948
81.2877 6902 83.0783
81.4051 8397 91.6351
81.5225 10001 100.005
81.6399 10893 104.37
81.7573 11416 106.846
81.8747 11661 107.986
81.9922 11508 107.275
82.1096 11245 106.042
82.227 11373 106.644
82.3444 11292 106.264
82.4619 11527 107.364
82.5793 11796 108.609
82.6967 12212 110.508
82.8142 12359 111.171
82.9316 12497 111.79
83.049 12547 112.013
83.1664 12358 111.167
83.2838 12440 111.535
83.4012 12206 110.481
83.5186 12106 110.027
83.636 12022 109.645
83.7534 12126 110.118
83.8708 11600 107.703
83.9881 10466 102.303
84.1055 9518 97.5602
84.2228 8651 93.0108
84.3401 7155 84.5872
84.4575 6206 78.7782
84.5747 5982 77.3434
84.692 5909 76.87
84.8093 6652 81.5598
84.9265 8190 90.4986
85.0437 9742 98.7016
85.1609 11189 105.778
85.2781 12505 111.826
85.3952 13289 115.278
85.5123 13616 116.688
85.6294 13493 116.159
85.7465 13139 114.625
85.8636 12900 113.578
85.9806 13164 114.734
86.0976 13402 115.767
86.2145 13868 117.762
86.3315 14244 119.348
86.4484 13780 117.388
86.5652 14238 119.323
86.682 14160 118.996
86.7988 13671 116.923
86.9156 13025 114.127
87.0323 12725 112.805
87.149 12430 111.49
87.2657 12388 111.301
87.3823 12481 111.718
87.4988 11871 108.954
87.6154 10626 103.082
87.7318 9286 96.3639
87.8483 7988 89.3756
87.9647 6483 80.5171
88.081 5420 73.6206
88.1973 5102 71.4283
88.3136 4835 69.5342
88.4298 5410 73.5527
88.546 6482 80.5109
88.6621 7433 86.2148
88.7781 8172 90.3991
88.8942 0 1
89.0101 0 1
89.126 0 1
89.2419 0 1
89.3577 0 1
89.4734 0 1
89.5891 0 1
89.7047 0 1
89.8203 0 1
89.9358 0 1
92.3269 0 1
92.4424 0 1
92.558 0 1
92.6736 0 1
92.7893 0 1
92.905 0 1
93.0208 0 1
93.1366 0 1
93.2525 0 1
93.3685 0 1
93.4845 0 1
93.6005 5645 75.1332
93.7167 6118 78.2176
93.8328 7162 84.6286
93.949 8536 92.3905
94.0653 10522 102.577
94.1816 12526 111.92
94.2979 13961 118.157
94.4143 14957 122.299
94.5307 15844 125.873
94.6472 15917 126.163
94.7637 16294 127.648
94.8803 16268 127.546
94.9969 16245 127.456
95.1135 16200 127.279
95.2302 16542 128.616
95.3469 16973 130.28
95.4637 17356 131.742
95.5805 17675 132.947
95.6973 17048 130.568
95.8142 16934 130.131
95.9311 16997 130.373
96.048 17044 130.553
96.1649 16740 129.383
96.2819 16478 128.367
96.3989 16256 127.499
96.516 15953 126.305
96.633 15049 122.674
96.7501 13379 115.668
96.8673 11985 109.476
96.9844 10677 103.33
97.1016 9447 97.1957
97.2188 8398 91.6406
97.336 7941 89.1123
97.4532 8154 90.2995
97.5704 9346 96.6747
97.6877 11343 106.504
97.805 13382 115.681
97.9223 15071 122.764
98.0396 16504 128.468
98.1569 17430 132.023
98.2743 17622 132.748
98.3916 17464 132.151
98.509 17333 131.655
98.6264 16879 129.919
98.7438 17031 130.503
98.8612 17507 132.314
98.9786 17949 133.974
99.096 18109 134.57
99.2134 18155 134.74
99.3308 18391 135.613
99.4482 18128 134.64
99.5656 18342 135.433
99.6831 17906 133.813
99.8005 17619 132.737
99.9179 17570 132.552
100.035 17280 131.453
100.153 16960 130.231
100.27 15612 124.948
100.388 13910 117.941
100.505 11968 109.398
100.622 10721 103.542
100.74 9565 97.8008
100.857 8764 93.6162
100.975 8790 93.755
101.092 9365 96.7729
101.209 10996 104.862
101.327 13232 115.03
101.444 15667 125.168
101.561 17396 131.894
101.679 18112 134.581
101.796 18207 134.933
101.913 18598 136.374
102.03 18184 134.848
102.148 17596 132.65
102.265 17847 133.593
102.382 17703 133.053
102.499 18260 135.13
102.616 18389 135.606
102.733 18806 137.135
102.851 18701 136.752
102.968 18863 137.343
103.085 18506 136.037
103.202 18475 135.923
103.319 17975 134.071
103.436 18035 134.294
103.552 17623 132.752
103.669 17276 131.438
103.786 16959 130.227
103.903 15472 124.386
104.02 13331 115.46
104.137 11564 107.536
104.253 10260 101.292
104.37 9145 95.6295
104.487 8942 94.5621
104.603 9114 95.4673
104.72 9787 98.9293
104.836 11244 106.038
104.953 12540 111.982
105.069 13798 117.465
105.186 14220 119.248
105.302 14803 121.668
105.418 14132 118.878
105.535 13927 118.013
105.651 13146 114.656
105.767 12165 110.295
105.883 10963 104.704
105.999 10367 101.818
106.115 0 1
106.231 0 1
106.347 0 1
106.463 0 1
106.579 0 1
106.694 0 1
106.81 0 1
106.926 0 1
107.041 0 1
107.157 0 1
109.576 0 1
109.692 0 1
109.807 0 1
109.923 0 1
110.039 0 1
110.155 0 1
110.27 0 1
110.386 0 1
110.502 0 1
110.618 10345 101.71
110.735 11160 105.641
110.851 11776 108.517
110.967 12267 110.756
111.083 13086 114.394
111.199 14136 118.895
111.316 14867 121.93
111.432 15701 125.304
111.549 15859 125.933
111.665 16139 127.039
111.782 16129 127
111.898 16117 126.953
112.015 15911 126.139
112.132 16022 126.578
112.248 16012 126.539
112.365 16024 126.586
112.482 15506 124.523
112.599 13488 116.138
112.716 11857 108.89
112.832 10259 101.287
112.949 9171 95.7653
113.066 8383 91.5587
113.183 8137 90.2053
113.3 8370 91.4877
113.417 9075 95.2628
113.534 10892 104.365
113.652 12798 113.128
113.769 14439 120.162
113.886 15346 123.879
114.003 15762 125.547
114.12 16271 127.558
114.238 15763 125.551
114.355 15249 123.487
114.472 15031 122.601
114.589 14922 122.156
114.707 15429 124.214
114.824 15473 124.391
114.942 15917 126.163
115.059 16037 126.637
115.176 15752 125.507
115.294 15639 125.056
115.411 15282 123.62
115.529 14970 122.352
115.646 14795 121.635
115.764 14512 120.466
115.881 14355 119.812
115.999 14268 119.449
116.116 13526 116.301
116.234 12178 110.354
116.351 10688 103.383
116.469 9455 97.2368
116.586 8624 92.8655
116.704 7971 89.2805
116.821 7896 88.8594
116.939 8215 90.6366
117.056 9161 95.7131
117.174 10815 103.995
117.291 12352 111.14
117.409 13342 115.508
117.526 14192 119.13
117.644 14157 118.983
117.761 14532 120.549
117.879 14102 118.752
117.996 13677 116.949
118.114 13380 115.672
118.231 13557 116.435
118.349 13993 118.292
118.466 13973 118.207
118.584 13975 118.216
118.701 14163 119.008
118.819 14227 119.277
118.936 13935 118.047
119.053 13768 117.337
119.171 13210 114.935
119.288 12935 113.732
119.405 12880 113.49
119.523 12750 112.916
119.64 12711 112.743
119.757 12313 110.964
119.875 11322 106.405
119.992 9790 98.9444
120.109 8691 93.2255
120.226 8112 90.0666
120.343 7514 86.6833
120.46 7304 85.4634
120.578 7447 86.296
120.695 7861 88.6623
120.812 8871 94.186
120.929 10092 100.459
121.046 10943 104.609
121.163 11202 105.84
121.279 11429 106.907
121.396 11609 107.745
121.513 11131 105.504
121.63 10916 104.48
121.747 10604 102.976
121.863 10487 102.406
121.98 10607 102.99
122.097 10556 102.742
122.213 10459 102.269
122.33 10293 101.454
122.446 10094 100.469
122.563 9618 98.0714
122.679 8964 94.6784
122.795 8690 93.2202
122.912 7968 89.2637
123.028 7290 85.3815
123.144 6914 83.1505
123.26 6623 81.3818
123.377 0 1
123.493 0 1
123.609 0 1
123.725 0 1
123.84 0 1
123.956 0 1
124.072 0 1
124.188 0 1
124.303 0 1
124.419 0 1
126.852 0 1
126.968 0 1
127.083 0 1
127.199 0 1
127.315 0 1
127.431 0 1
127.547 0 1
127.663 0 1
127.779 0 1
127.895 0 1
128.011 0 1
128.127 0 1
128.243 0 1
128.359 11717 108.245
128.476 11924 109.197
128.592 11944 109.289
128.708 12175 110.34
128.825 12408 111.391
128.941 11847 108.844
129.058 10898 104.393
129.174 10162 100.807
129.291 9334 96.6126
129.408 8819 93.9095
129.524 8404 91.6733
129.641 8496 92.1737
129.758 8476 92.0652
129.875 9088 95.331
129.992 10439 102.171
130.108 11123 105.466
130.225 11870 108.95
130.342 12635 112.406
130.459 12587 112.192
130.576 13071 114.328
130.693 12499 111.799
130.81 12174 110.336
130.928 12419 111.441
131.045 12927 113.697
131.162 13113 114.512
131.279 13258 115.143
131.396 13125 114.564
131.513 13171 114.765
131.631 13257 115.139
131.748 12858 113.393
131.865 12672 112.57
131.983 12397 111.342
132.1 12126 110.118
132.217 12220 110.544
132.335 12190 110.408
132.452 11917 109.165
132.57 11261 106.118
132.687 10369 101.828
132.804 10065 100.324
132.922 9218 96.0104
133.039 8883 94.2497
133.157 8595 92.7092
133.274 8700 93.2738
133.392 8819 93.9095
133.509 9664 98.3056
133.627 10404 102
133.744 11242 106.028
133.862 11746 108.379
133.979 12118 110.082
134.097 12356 111.158
134.214 12034 109.7
134.332 11969 109.403
134.449 12075 109.886
134.567 12392 111.319
134.684 12466 111.651
134.802 12560 112.071
134.919 12970 113.886
135.037 12644 112.446
135.154 12584 112.178
135.272 12382 111.274
135.389 12433 111.503
135.507 12224 110.562
135.624 11827 108.752
135.742 11954 109.334
135.859 11621 107.801
135.977 11880 108.995
136.094 11462 107.061
136.211 10873 104.274
136.329 10290 101.44
136.446 9748 98.732
136.564 9328 96.5816
136.681 9086 95.3205
136.798 8678 93.1558
136.915 8658 93.0484
137.033 8821 93.9202
137.15 9367 96.7833
137.267 10081 100.404
137.384 10714 103.508
137.502 11073 105.228
137.619 11203 105.844
137.736 11513 107.299
137.853 11016 104.957
137.97 11288 106.245
138.087 11066 105.195
138.204 11411 106.822
138.321 11464 107.07
138.438 11634 107.861
138.555 11491 107.196
138.672 11242 106.028
138.788 11026 105.005
138.905 10759 103.726
139.022 10229 101.139
139.139 9904 99.5188
139.255 9199 95.9114
139.372 8892 94.2974
139.488 8799 93.803
139.605 8474 92.0543
139.721 7946 89.1403
139.838 7443 86.2728
139.954 6631 81.431
140.071 6127 78.2752
140.187 5496 74.135
140.303 5055 71.0985
140.419 4689 68.4763
140.535 4305 65.6125
140.652 3918 62.5939
140.768 0 1
140.884 0 1
141 0 1
141.115 0 1
141.231 0 1
141.347 0 1
141.463 0 1
141.578 0 1
141.694 0 1
144.104 0 1
144.219 0 1
144.335 0 1
144.45 0 1
144.566 0 1
144.682 0 1
144.798 0 1
144.914 0 1
145.03 0 1
145.146 6653 81.5659
145.262 7000 83.666
145.378 6682 81.7435
145.494 6739 82.0914
145.61 6545 80.9012
145.726 6524 80.7713
145.842 6620 81.3634
145.959 6780 82.3408
146.075 7024 83.8093
146.192 7362 85.8021
146.308 7663 87.5386
146.425 7606 87.2124
146.541 7873 88.7299
146.658 7653 87.4814
146.774 7728 87.909
146.891 7540 86.8332
147.008 7903 88.8988
147.125 7969 89.2693
147.241 8412 91.717
147.358 8443 91.8858
147.475 8252 90.8405
147.592 8148 90.2663
147.709 8335 91.2962
147.826 7950 89.1628
147.943 7921 89
148.06 7641 87.4128
148.177 7683 87.6527
148.294 7898 88.8707
148.411 7799 88.3119
148.528 7952 89.174
148.645 7590 87.1206
148.762 7527 86.7583
148.88 7361 85.7963
148.997 7264 85.2291
149.114 7028 83.8332
149.231 7034 83.8689
149.349 6909 83.1204
149.466 6620 81.3634
149.583 6644 81.5107
149.701 6672 81.6823
149.818 6656 81.5843
149.935 7103 84.2793
150.053 7080 84.1427
150.17 7413 86.0988
150.287 7595 87.1493
150.405 7314 85.5219
150.522 7241 85.0941
150.64 7275 85.2936
150.757 7665 87.55
150.875 7985 89.3588
150.992 7823 88.4477
151.11 7940 89.1067
151.227 8067 89.8165
151.344 7913 88.955
151.462 7655 87.4929
151.579 7365 85.8196
151.697 7239 85.0823
151.814 7241 85.0941
151.932 7290 85.3815
152.049 7324 85.5804
152.167 7272 85.276
152.284 7507 86.6429
152.402 7106 84.2971
152.519 7004 83.6899
152.636 7005 83.6959
152.754 6712 81.9268
152.871 6568 81.0432
152.989 6405 80.0312
153.106 6499 80.6164
153.223 6290 79.3095
153.341 6465 80.4052
153.458 6465 80.4052
153.575 6524 80.7713
153.693 6744 82.1219
153.81 6635 81.4555
153.927 6855 82.7949
154.044 6728 82.0244
154.162 6655 81.5782
154.279 6781 82.3468
154.396 7033 83.863
154.513 7070 84.0833
154.63 7216 84.947
154.747 7170 84.6759
154.864 7143 84.5163
154.981 6884 82.9699
155.098 6906 83.1023
155.215 6813 82.5409
155.332 6617 81.3449
155.449 6532 80.8208
155.566 6590 81.1788
155.683 6702 81.8657
155.8 6423 80.1436
155.917 6354 79.712
156.033 6083 77.9936
156.15 0 1
156.267 0 1
156.383 0 1
156.5 0 1
156.617 0 1
156.733 0 1
156.85 0 1
156.966 0 1
157.082 0 1
157.199 0 1
157.315 0 1
157.431 0 1
157.547 0 1
157.664 0 1
157.78 0 1
157.896 0 1
158.012 0 1
158.128 0 1
158.244 0 1
158.359 0 1
158.475 0 1
158.591 0 1
158.706 0 1
