
6.15755 0 1
6.2731 0 1
6.3887 0 1
6.50437 0 1
6.62009 0 1
6.73587 0 1
6.8517 0 1
6.96759 0 1
7.08353 0 1
7.19952 0 1
7.31557 0 1
7.43166 0 1
7.54781 0 1
7.664 0 1
7.78024 0 1
7.89653 0 1
8.01286 0 1
8.12924 0 1
8.24567 0 1
8.36213 0 1
8.47864 0 1
8.59519 0 1
8.71178 0 1
8.82841 0 1
8.94508 0 1
9.06179 0 1
9.17853 0 1
9.29531 0 1
9.41212 0 1
9.52897 0 1
9.64584 0 1
9.76276 0 1
9.8797 0 1
9.99667 0 1
10.1137 0 1
10.2307 0 1
10.3478 0 1
10.4648 0 1
10.5819 0 1
10.6991 0 1
10.8162 0 1
10.9334 0 1
11.0506 0 1
11.1678 0 1
11.285 0 1
11.4023 0 1
11.5196 0 1
11.6369 0 1
11.7542 0 1
11.8715 0 1
11.9888 0 1
12.1062 0 1
12.2235 0 1
12.3409 0 1
12.4582 0 1
12.5756 0 1
12.693 0 1
12.8104 0 1
12.9278 0 1
13.0452 0 1
13.1626 0 1
13.28 0 1
13.3974 0 1
13.5149 0 1
13.6323 0 1
13.7497 0 1
13.8671 0 1
13.9845 0 1
14.1019 0 1
14.2193 0 1
14.3367 0 1
14.4541 0 1
14.5714 0 1
14.6888 0 1
14.8062 0 1
14.9235 0 1
15.0408 800 28.2843
15.1581 847 29.1033
15.2755 853 29.2062
15.3927 915 30.249
15.51 811 28.4781
15.6273 788 28.0713
15.7445 729 27
15.8617 783 27.9821
15.9789 724 26.9072
16.0961 794 28.178
16.2132 763 27.6225
16.3304 735 27.1109
16.4475 738 27.1662
16.5646 745 27.2947
16.6816 728 26.9815
16.7986 717 26.7769
16.9156 683 26.1343
17.0326 711 26.6646
17.1496 631 25.1197
17.2665 651 25.5147
17.3833 671 25.9037
17.5002 661 25.7099
17.617 702 26.4953
17.7338 649 25.4755
17.8505 647 25.4362
17.9672 676 26
18.0839 689 26.2488
18.2005 691 26.2869
18.3171 700 26.4575
18.4337 662 25.7294
18.5502 672 25.923
18.6666 672 25.923
18.7831 641 25.318
18.8994 663 25.7488
19.0158 651 25.5147
19.1321 628 25.0599
19.2483 582 24.1247
19.3645 562 23.7065
19.4806 523 22.8692
19.5967 529 23
19.7128 511 22.6053
19.8288 539 23.2164
19.9447 449 21.1896
20.0606 0 1
20.1764 0 1
20.2922 0 1
20.4079 0 1
20.5236 0 1
20.6392 0 1
20.7548 0 1
20.8702 0 1
23.3078 0 1
23.4233 0 1
23.539 0 1
23.6547 0 1
23.7704 0 1
23.8862 0 1
24.0021 0 1
24.118 0 1
24.234 0 1
24.35 0 1
24.4661 277 16.6433
24.5822 335 18.303
24.6984 367 19.1572
24.8146 394 19.8494
24.9309 504 22.4499
25.0472 547 23.388
25.1636 610 24.6982
25.28 652 25.5343
25.3965 680 26.0768
25.513 688 26.2298
25.6296 744 27.2764
25.7462 709 26.6271
25.8628 705 26.5518
25.9795 727 26.9629
26.0962 674 25.9615
26.213 677 26.0192
26.3298 705 26.5518
26.4466 641 25.318
26.5635 568 23.8328
26.6804 551 23.4734
26.7973 616 24.8193
26.9143 609 24.6779
27.0313 565 23.7697
27.1483 610 24.6982
27.2653 586 24.2074
27.3824 614 24.779
27.4996 663 25.7488
27.6167 634 25.1794
27.7339 602 24.5357
27.8511 587 24.2281
27.9683 608 24.6577
28.0855 541 23.2594
28.2028 576 24
28.3201 610 24.6982
28.4374 645 25.3969
28.5547 669 25.865
28.6721 650 25.4951
28.7894 630 25.0998
28.9068 587 24.2281
29.0242 653 25.5539
29.1416 600 24.4949
29.259 640 25.2982
29.3764 638 25.2587
29.4939 611 24.7184
29.6113 552 23.4947
29.7288 607 24.6374
29.8463 553 23.516
29.9638 503 22.4277
30.0812 547 23.388
30.1987 536 23.1517
30.3162 574 23.9583
30.4337 521 22.8254
30.5512 554 23.5372
30.6687 520 22.8035
30.7862 565 23.7697
30.9037 564 23.7487
31.0212 621 24.9199
31.1387 630 25.0998
31.2562 588 24.2487
31.3737 571 23.8956
31.4912 541 23.2594
31.6087 585 24.1868
31.7262 532 23.0651
31.8436 595 24.3926
31.9611 581 24.1039
32.0785 548 23.4094
32.1959 586 24.2074
32.3134 564 23.7487
32.4308 579 24.0624
32.5482 547 23.388
32.6655 553 23.516
32.7829 551 23.4734
32.9002 506 22.4944
33.0176 481 21.9317
33.1349 509 22.561
33.2522 516 22.7156
33.3694 512 22.6274
33.4867 457 21.3776
33.6039 523 22.8692
33.7211 515 22.6936
33.8383 464 21.5407
33.9554 492 22.1811
34.0725 492 22.1811
34.1896 496 22.2711
34.3067 491 22.1585
34.4237 514 22.6716
34.5407 541 23.2594
34.6577 566 23.7908
34.7746 533 23.0868
34.8915 547 23.388
35.0084 532 23.0651
35.1252 536 23.1517
35.242 490 22.1359
35.3587 501 22.383
35.4755 487 22.0681
35.5921 501 22.383
35.7088 486 22.0454
35.8254 534 23.1084
35.9419 500 22.3607
36.0584 509 22.561
36.1749 515 22.6936
36.2913 497 22.2935
36.4077 466 21.587
36.524 440 20.9762
36.6403 412 20.2978
36.7565 433 20.8087
36.8727 340 18.4391
36.9889 351 18.735
37.1049 351 18.735
37.221 0 1
37.3369 0 1
37.4529 0 1
37.5687 0 1
37.6845 0 1
37.8003 0 1
37.916 0 1
38.0316 0 1
38.1472 0 1
40.5851 0 1
40.7008 0 1
40.8164 0 1
40.9322 0 1
41.048 0 1
41.1639 0 1
41.2798 0 1
41.3958 0 1
41.5118 0 1
41.6279 0 1
41.744 250 15.8114
41.8602 299 17.2916
41.9765 316 17.7764
42.0928 359 18.9473
42.2091 382 19.5448
42.3255 389 19.7231
42.4419 370 19.2354
42.5584 381 19.5192
42.675 389 19.7231
42.7915 394 19.8494
42.9081 358 18.9209
43.0248 365 19.105
43.1415 382 19.5448
43.2582 376 19.3907
43.375 398 19.9499
43.4918 442 21.0238
43.6087 437 20.9045
43.7256 410 20.2485
43.8425 421 20.5183
43.9595 382 19.5448
44.0765 418 20.445
44.1935 401 20.025
44.3106 382 19.5448
44.4277 351 18.735
44.5448 382 19.5448
44.6619 379 19.4679
44.7791 405 20.1246
44.8963 365 19.105
45.0136 435 20.8567
45.1308 433 20.8087
45.2481 429 20.7123
45.3654 424 20.5913
45.4827 431 20.7605
45.6001 436 20.8806
45.7174 480 21.9089
45.8348 438 20.9284
45.9522 459 21.4243
46.0697 468 21.6333
46.1871 437 20.9045
46.3046 424 20.5913
46.422 391 19.7737
46.5395 370 19.2354
46.657 363 19.0526
46.7745 411 20.2731
46.892 436 20.8806
47.0096 434 20.8327
47.1271 409 20.2237
47.2446 412 20.2978
47.3622 427 20.664
47.4797 396 19.8997
47.5973 427 20.664
47.7149 380 19.4936
47.8324 362 19.0263
47.95 435 20.8567
48.0675 374 19.3391
48.1851 413 20.3224
48.3027 417 20.4206
48.4202 375 19.3649
48.5378 395 19.8746
48.6554 440 20.9762
48.7729 412 20.2978
48.8904 403 20.0749
49.008 397 19.9249
49.1255 405 20.1246
49.243 416 20.3961
49.3605 421 20.5183
49.478 390 19.7484
49.5955 379 19.4679
49.713 390 19.7484
49.8304 383 19.5704
49.9479 346 18.6011
50.0653 317 17.8045
50.1827 340 18.4391
50.3001 333 18.2483
50.4175 413 20.3224
50.5348 363 19.0526
50.6521 379 19.4679
50.7694 410 20.2485
50.8867 481 21.9317
51.004 403 20.0749
51.1212 414 20.347
51.2384 403 20.0749
51.3556 421 20.5183
51.4727 411 20.2731
51.5899 452 21.2603
51.707 521 22.8254
51.824 522 22.8473
51.9411 593 24.3516
52.0581 618 24.8596
52.175 663 25.7488
52.2919 738 27.1662
52.4088 710 26.6458
52.5257 690 26.2679
52.6425 645 25.3969
52.7593 640 25.2982
52.876 724 26.9072
52.9927 674 25.9615
53.1094 731 27.037
53.226 659 25.671
53.3426 629 25.0799
53.4591 633 25.1595
53.5756 687 26.2107
53.692 989 31.4484
53.8084 1354 36.7967
53.9248 1929 43.9204
54.0411 2634 51.3225
54.1573 3344 57.8273
54.2735 0 1
54.3896 0 1
54.5057 0 1
54.6217 0 1
54.7377 0 1
54.8537 0 1
54.9695 0 1
55.0853 0 1
55.2011 0 1
55.3168 0 1
55.4324 0 1
57.824 0 1
57.9396 0 1
58.0553 0 1
58.1711 0 1
58.2869 0 1
58.4028 0 1
58.5187 0 1
58.6347 0 1
58.7508 0 1
58.8669 0 1
58.983 14201 119.168
59.0992 15857 125.925
59.2155 15799 125.694
59.3318 15318 123.766
59.4482 14337 119.737
59.5646 13336 115.482
59.681 12137 110.168
59.7975 11260 106.113
59.9141 9700 98.4886
60.0306 8548 92.4554
60.1473 7422 86.151
60.2639 6492 80.5729
60.3807 5953 77.1557
60.4974 5392 73.4302
60.6142 4647 68.1689
60.731 4125 64.2262
60.8479 3602 60.0167
60.9648 2979 54.5802
61.0818 2565 50.6458
61.1987 2143 46.2925
61.3158 1629 40.3609
61.4328 1429 37.8021
61.5499 1190 34.4964
61.667 1026 32.0312
61.7841 865 29.4109
61.9013 787 28.0535
62.0185 706 26.5707
62.1357 647 25.4362
62.253 606 24.6171
62.3702 664 25.7682
62.4875 647 25.4362
62.6049 628 25.0599
62.7222 584 24.1661
62.8396 652 25.5343
62.9569 684 26.1534
63.0743 652 25.5343
63.1918 641 25.318
63.3092 625 25
63.4267 551 23.4734
63.5441 529 23
63.6616 497 22.2935
63.7791 513 22.6495
63.8966 477 21.8403
64.0142 508 22.5389
64.1317 513 22.6495
64.2492 503 22.4277
64.3668 463 21.5174
64.4843 523 22.8692
64.6019 452 21.2603
64.7195 458 21.4009
64.837 458 21.4009
64.9546 487 22.0681
65.0722 465 21.5639
65.1898 465 21.5639
65.3074 474 21.7715
65.4249 441 21
65.5425 425 20.6155
65.6601 430 20.7364
65.7777 420 20.4939
65.8952 427 20.664
66.0128 434 20.8327
66.1304 448 21.166
66.2479 407 20.1742
66.3655 492 22.1811
66.483 429 20.7123
66.6005 517 22.7376
66.718 506 22.4944
66.8355 495 22.2486
66.953 494 22.2261
67.0705 468 21.6333
67.1879 496 22.2711
67.3054 458 21.4009
67.4228 466 21.587
67.5402 455 21.3307
67.6576 496 22.2711
67.7749 461 21.4709
67.8923 481 21.9317
68.0096 479 21.8861
68.1269 490 22.1359
68.2442 437 20.9045
68.3614 438 20.9284
68.4787 458 21.4009
68.5958 479 21.8861
68.713 431 20.7605
68.8302 421 20.5183
68.9473 414 20.347
69.0643 451 21.2368
69.1814 449 21.1896
69.2984 405 20.1246
69.4154 408 20.199
69.5323 492 22.1811
69.6492 453 21.2838
69.7661 452 21.2603
69.8829 423 20.567
69.9997 440 20.9762
70.1165 447 21.1424
70.2332 425 20.6155
70.3499 403 20.0749
70.4665 389 19.7231
70.5831 354 18.8149
70.6996 333 18.2483
70.8161 308 17.5499
70.9326 308 17.5499
71.049 270 16.4317
71.1653 275 16.5831
71.2817 276 16.6132
71.3979 258 16.0624
71.5141 226 15.0333
71.6303 226 15.0333
71.7464 216 14.6969
71.8624 0 1
71.9784 0 1
72.0944 0 1
72.2102 0 1
72.3261 0 1
72.4418 0 1
72.5575 0 1
72.6732 0 1
75.1054 0 1
75.2209 0 1
75.3365 0 1
75.4521 0 1
75.5678 0 1
75.6835 0 1
75.7993 0 1
75.9151 0 1
76.031 0 1
76.147 303 17.4069
76.263 350 18.7083
76.3791 354 18.8149
76.4952 361 19
76.6113 384 19.5959
76.7276 393 19.8242
76.8438 410 20.2485
76.9601 365 19.105
77.0765 383 19.5704
77.1929 389 19.7231
77.3093 365 19.105
77.4258 404 20.0998
77.5423 377 19.4165
77.6589 373 19.3132
77.7755 364 19.0788
77.8921 348 18.6548
78.0088 333 18.2483
78.1256 331 18.1934
78.2423 356 18.868
78.3591 375 19.3649
78.4759 398 19.9499
78.5928 374 19.3391
78.7097 342 18.4932
78.8266 333 18.2483
78.9436 403 20.0749
79.0606 392 19.799
79.1776 424 20.5913
79.2946 362 19.0263
79.4117 417 20.4206
79.5288 407 20.1742
79.6459 427 20.664
79.7631 433 20.8087
79.8802 441 21
79.9974 378 19.4422
80.1147 406 20.1494
80.2319 435 20.8567
80.3491 396 19.8997
80.4664 394 19.8494
80.5837 402 20.0499
80.701 407 20.1742
80.8183 410 20.2485
80.9357 403 20.0749
81.053 384 19.5959
81.1704 395 19.8746
81.2877 393 19.8242
81.4051 393 19.8242
81.5225 397 19.9249
81.6399 375 19.3649
81.7573 370 19.2354
81.8747 373 19.3132
81.9922 399 19.975
82.1096 394 19.8494
82.227 386 19.6469
82.3444 364 19.0788
82.4619 412 20.2978
82.5793 371 19.2614
82.6967 374 19.3391
82.8142 432 20.7846
82.9316 403 20.0749
83.049 423 20.567
83.1664 399 19.975
83.2838 371 19.2614
83.4012 432 20.7846
83.5186 446 21.1187
83.636 421 20.5183
83.7534 420 20.4939
83.8708 429 20.7123
83.9881 448 21.166
84.1055 463 21.5174
84.2228 455 21.3307
84.3401 411 20.2731
84.4575 446 21.1187
84.5747 403 20.0749
84.692 429 20.7123
84.8093 414 20.347
84.9265 415 20.3715
85.0437 403 20.0749
85.1609 380 19.4936
85.2781 378 19.4422
85.3952 381 19.5192
85.5123 413 20.3224
85.6294 410 20.2485
85.7465 465 21.5639
85.8636 424 20.5913
85.9806 431 20.7605
86.0976 368 19.1833
86.2145 405 20.1246
86.3315 408 20.199
86.4484 471 21.7025
86.5652 479 21.8861
86.682 427 20.664
86.7988 436 20.8806
86.9156 442 21.0238
87.0323 446 21.1187
87.149 403 20.0749
87.2657 394 19.8494
87.3823 431 20.7605
87.4988 419 20.4695
87.6154 417 20.4206
87.7318 405 20.1246
87.8483 381 19.5192
87.9647 313 17.6918
88.081 318 17.8326
88.1973 303 17.4069
88.3136 305 17.4642
88.4298 271 16.4621
88.546 244 15.6205
88.6621 225 15
88.7781 200 14.1421
88.8942 0 1
89.0101 0 1
89.126 0 1
89.2419 0 1
89.3577 0 1
89.4734 0 1
89.5891 0 1
89.7047 0 1
89.8203 0 1
89.9358 0 1
92.3269 0 1
92.4424 0 1
92.558 0 1
92.6736 0 1
92.7893 0 1
92.905 0 1
93.0208 0 1
93.1366 0 1
93.2525 0 1
93.3685 0 1
93.4845 0 1
93.6005 354 18.8149
93.7167 378 19.4422
93.8328 387 19.6723
93.949 385 19.6214
94.0653 375 19.3649
94.1816 384 19.5959
94.2979 361 19
94.4143 380 19.4936
94.5307 395 19.8746
94.6472 430 20.7364
94.7637 401 20.025
94.8803 414 20.347
94.9969 469 21.6564
95.1135 458 21.4009
95.2302 450 21.2132
95.3469 398 19.9499
95.4637 410 20.2485
95.5805 411 20.2731
95.6973 452 21.2603
95.8142 445 21.095
95.9311 479 21.8861
96.048 394 19.8494
96.1649 445 21.095
96.2819 434 20.8327
96.3989 442 21.0238
96.516 422 20.5426
96.633 447 21.1424
96.7501 417 20.4206
96.8673 478 21.8632
96.9844 493 22.2036
97.1016 425 20.6155
97.2188 420 20.4939
97.336 404 20.0998
97.4532 399 19.975
97.5704 408 20.199
97.6877 407 20.1742
97.805 434 20.8327
97.9223 419 20.4695
98.0396 410 20.2485
98.1569 435 20.8567
98.2743 464 21.5407
98.3916 426 20.6398
98.509 438 20.9284
98.6264 483 21.9773
98.7438 454 21.3073
98.8612 434 20.8327
98.9786 468 21.6333
99.096 467 21.6102
99.2134 512 22.6274
99.3308 435 20.8567
99.4482 455 21.3307
99.5656 472 21.7256
99.6831 508 22.5389
99.8005 494 22.2261
99.9179 501 22.383
100.035 502 22.4054
100.153 475 21.7945
100.27 465 21.5639
100.388 515 22.6936
100.505 479 21.8861
100.622 491 22.1585
100.74 479 21.8861
100.857 469 21.6564
100.975 448 21.166
101.092 488 22.0907
101.209 457 21.3776
101.327 430 20.7364
101.444 436 20.8806
101.561 417 20.4206
101.679 439 20.9523
101.796 484 22
101.913 487 22.0681
102.03 540 23.2379
102.148 496 22.2711
102.265 480 21.9089
102.382 497 22.2935
102.499 509 22.561
102.616 497 22.2935
102.733 518 22.7596
102.851 528 22.9783
102.968 513 22.6495
103.085 490 22.1359
103.202 560 23.6643
103.319 527 22.9565
103.436 554 23.5372
103.552 581 24.1039
103.669 589 24.2693
103.786 604 24.5764
103.903 569 23.8537
104.02 618 24.8596
104.137 614 24.779
104.253 651 25.5147
104.37 737 27.1477
104.487 689 26.2488
104.603 678 26.0384
104.72 696 26.3818
104.836 727 26.9629
104.953 729 27
105.069 720 26.8328
105.186 654 25.5734
105.302 697 26.4008
105.418 623 24.96
105.535 611 24.7184
105.651 592 24.3311
105.767 599 24.4745
105.883 533 23.0868
105.999 513 22.6495
106.115 0 1
106.231 0 1
106.347 0 1
106.463 0 1
106.579 0 1
106.694 0 1
106.81 0 1
106.926 0 1
107.041 0 1
107.157 0 1
109.576 0 1
109.692 0 1
109.807 0 1
109.923 0 1
110.039 0 1
110.155 0 1
110.27 0 1
110.386 0 1
110.502 0 1
110.618 737 27.1477
110.735 1217 34.8855
110.851 1418 37.6563
110.967 1477 38.4318
111.083 1604 40.05
111.199 1649 40.6079
111.316 1690 41.1096
111.432 1839 42.8836
111.549 1863 43.1625
111.665 1941 44.0568
111.782 1883 43.3935
111.898 1868 43.2204
112.015 1865 43.1856
112.132 1990 44.6094
112.248 1950 44.1588
112.365 1977 44.4635
112.482 1980 44.4972
112.599 1932 43.9545
112.716 1922 43.8406
112.832 1927 43.8976
112.949 1776 42.1426
113.066 1648 40.5956
113.183 1599 39.9875
113.3 1525 39.0512
113.417 1431 37.8286
113.534 1177 34.3074
113.652 916 30.2655
113.769 737 27.1477
113.886 788 28.0713
114.003 957 30.9354
114.12 1470 38.3406
114.238 1788 42.2847
114.355 1962 44.2945
114.472 2037 45.1331
114.589 2065 45.4423
114.707 2153 46.4004
114.824 2158 46.4543
114.942 2189 46.7868
115.059 2151 46.3789
115.176 2169 46.5725
115.294 2024 44.9889
115.411 1898 43.566
115.529 1823 42.6966
115.646 1754 41.8808
115.764 1650 40.6202
115.881 1549 39.3573
115.999 1491 38.6135
116.116 1373 37.054
116.234 1137 33.7194
116.351 940 30.6594
116.469 729 27
116.586 570 23.8747
116.704 463 21.5174
116.821 430 20.7364
116.939 424 20.5913
117.056 414 20.347
117.174 356 18.868
117.291 328 18.1108
117.409 365 19.105
117.526 352 18.7617
117.644 396 19.8997
117.761 429 20.7123
117.879 381 19.5192
117.996 399 19.975
118.114 435 20.8567
118.231 425 20.6155
118.349 441 21
118.466 375 19.3649
118.584 422 20.5426
118.701 429 20.7123
118.819 385 19.6214
118.936 394 19.8494
119.053 373 19.3132
119.171 386 19.6469
119.288 384 19.5959
119.405 390 19.7484
119.523 414 20.347
119.64 455 21.3307
119.757 377 19.4165
119.875 426 20.6398
119.992 386 19.6469
120.109 377 19.4165
120.226 396 19.8997
120.343 372 19.2873
120.46 367 19.1572
120.578 394 19.8494
120.695 354 18.8149
120.812 377 19.4165
120.929 337 18.3576
121.046 350 18.7083
121.163 320 17.8885
121.279 349 18.6815
121.396 350 18.7083
121.513 381 19.5192
121.63 356 18.868
121.747 390 19.7484
121.863 367 19.1572
121.98 367 19.1572
122.097 345 18.5742
122.213 329 18.1384
122.33 291 17.0587
122.446 272 16.4924
122.563 283 16.8226
122.679 244 15.6205
122.795 225 15
122.912 237 15.3948
123.028 223 14.9332
123.144 243 15.5885
123.26 212 14.5602
123.377 0 1
123.493 0 1
123.609 0 1
123.725 0 1
123.84 0 1
123.956 0 1
124.072 0 1
124.188 0 1
124.303 0 1
124.419 0 1
126.852 0 1
126.968 0 1
127.083 0 1
127.199 0 1
127.315 0 1
127.431 0 1
127.547 0 1
127.663 0 1
127.779 0 1
127.895 0 1
128.011 0 1
128.127 0 1
128.243 0 1
128.359 430 20.7364
128.476 437 20.9045
128.592 422 20.5426
128.708 445 21.095
128.825 452 21.2603
128.941 466 21.587
129.058 448 21.166
129.174 413 20.3224
129.291 425 20.6155
129.408 431 20.7605
129.524 413 20.3224
129.641 417 20.4206
129.758 455 21.3307
129.875 380 19.4936
129.992 391 19.7737
130.108 368 19.1833
130.225 374 19.3391
130.342 395 19.8746
130.459 438 20.9284
130.576 467 21.6102
130.693 496 22.2711
130.81 493 22.2036
130.928 520 22.8035
131.045 555 23.5584
131.162 538 23.1948
131.279 569 23.8537
131.396 623 24.96
131.513 649 25.4755
131.631 635 25.1992
131.748 625 25
131.865 707 26.5895
131.983 698 26.4197
132.1 769 27.7308
132.217 823 28.688
132.335 868 29.4618
132.452 845 29.0689
132.57 900 30
132.687 942 30.692
132.804 931 30.5123
132.922 1000 31.6228
133.039 1017 31.8904
133.157 1069 32.6956
133.274 1089 33
133.392 1094 33.0757
133.509 1107 33.2716
133.627 1051 32.4191
133.744 975 31.225
133.862 1009 31.7648
133.979 998 31.5911
134.097 995 31.5436
134.214 1040 32.249
134.332 1039 32.2335
134.449 1024 32
134.567 938 30.6268
134.684 970 31.1448
134.802 1007 31.7333
134.919 1044 32.311
135.037 1039 32.2335
135.154 1026 32.0312
135.272 911 30.1828
135.389 940 30.6594
135.507 945 30.7409
135.624 1031 32.1092
135.742 1077 32.8177
135.859 1053 32.45
135.977 1049 32.3883
136.094 1096 33.1059
136.211 1064 32.619
136.329 1029 32.078
136.446 981 31.3209
136.564 977 31.257
136.681 1015 31.8591
136.798 1070 32.7109
136.915 970 31.1448
137.033 1021 31.9531
137.15 947 30.7734
137.267 910 30.1662
137.384 882 29.6985
137.502 817 28.5832
137.619 860 29.3258
137.736 883 29.7153
137.853 891 29.8496
137.97 905 30.0832
138.087 907 30.1164
138.204 899 29.9833
138.321 880 29.6648
138.438 898 29.9666
138.555 949 30.8058
138.672 865 29.4109
138.788 862 29.3598
138.905 777 27.8747
139.022 815 28.5482
139.139 834 28.8791
139.255 837 28.931
139.372 861 29.3428
139.488 827 28.7576
139.605 810 28.4605
139.721 739 27.1846
139.838 673 25.9422
139.954 658 25.6515
140.071 598 24.454
140.187 579 24.0624
140.303 526 22.9347
140.419 474 21.7715
140.535 488 22.0907
140.652 484 22
140.768 0 1
140.884 0 1
141 0 1
141.115 0 1
141.231 0 1
141.347 0 1
141.463 0 1
141.578 0 1
141.694 0 1
144.104 0 1
144.219 0 1
144.335 0 1
144.45 0 1
144.566 0 1
144.682 0 1
144.798 0 1
144.914 0 1
145.03 0 1
145.146 727 26.9629
145.262 798 28.2489
145.378 806 28.3901
145.494 867 29.4449
145.61 808 28.4253
145.726 834 28.8791
145.842 860 29.3258
145.959 836 28.9137
146.075 785 28.0179
146.192 800 28.2843
146.308 737 27.1477
146.425 799 28.2666
146.541 791 28.1247
146.658 865 29.4109
146.774 869 29.4788
146.891 836 28.9137
147.008 879 29.6479
147.125 799 28.2666
147.241 869 29.4788
147.358 879 29.6479
147.475 875 29.5804
147.592 800 28.2843
147.709 801 28.3019
147.826 822 28.6705
147.943 797 28.2312
148.06 783 27.9821
148.177 822 28.6705
148.294 881 29.6816
148.411 815 28.5482
148.528 876 29.5973
148.645 860 29.3258
148.762 889 29.8161
148.88 837 28.931
148.997 809 28.4429
149.114 851 29.1719
149.231 784 28
149.349 816 28.5657
149.466 850 29.1548
149.583 835 28.8964
149.701 772 27.7849
149.818 834 28.8791
149.935 796 28.2135
150.053 742 27.2397
150.17 745 27.2947
150.287 800 28.2843
150.405 767 27.6948
150.522 828 28.775
150.64 814 28.5307
150.757 812 28.4956
150.875 812 28.4956
150.992 817 28.5832
151.11 850 29.1548
151.227 808 28.4253
151.344 796 28.2135
151.462 781 27.9464
151.579 736 27.1293
151.697 757 27.5136
151.814 845 29.0689
151.932 865 29.4109
152.049 835 28.8964
152.167 883 29.7153
152.284 889 29.8161
152.402 867 29.4449
152.519 858 29.2916
152.636 888 29.7993
152.754 889 29.8161
152.871 904 30.0666
152.989 900 30
153.106 874 29.5635
153.223 906 30.0998
153.341 876 29.5973
153.458 884 29.7321
153.575 823 28.688
153.693 840 28.9828
153.81 837 28.931
153.927 808 28.4253
154.044 806 28.3901
154.162 801 28.3019
154.279 792 28.1425
154.396 762 27.6043
154.513 803 28.3373
154.63 923 30.3809
154.747 862 29.3598
154.864 849 29.1376
154.981 820 28.6356
155.098 800 28.2843
155.215 855 29.2404
155.332 839 28.9655
155.449 974 31.209
155.566 1000 31.6228
155.683 993 31.5119
155.8 1030 32.0936
155.917 1085 32.9393
156.033 1137 33.7194
156.15 0 1
156.267 0 1
156.383 0 1
156.5 0 1
156.617 0 1
156.733 0 1
156.85 0 1
156.966 0 1
157.082 0 1
157.199 0 1
157.315 0 1
157.431 0 1
157.547 0 1
157.664 0 1
157.78 0 1
157.896 0 1
158.012 0 1
158.128 0 1
158.244 0 1
158.359 0 1
158.475 0 1
158.591 0 1
158.706 0 1
