
6.15755 0 1
6.2731 0 1
6.3887 0 1
6.50437 0 1
6.62009 0 1
6.73587 0 1
6.8517 0 1
6.96759 0 1
7.08353 0 1
7.19952 0 1
7.31557 0 1
7.43166 0 1
7.54781 0 1
7.664 0 1
7.78024 0 1
7.89653 0 1
8.01286 0 1
8.12924 0 1
8.24567 0 1
8.36213 0 1
8.47864 0 1
8.59519 0 1
8.71178 0 1
8.82841 0 1
8.94508 0 1
9.06179 0 1
9.17853 0 1
9.29531 0 1
9.41212 0 1
9.52897 0 1
9.64584 0 1
9.76276 0 1
9.8797 0 1
9.99667 0 1
10.1137 0 1
10.2307 0 1
10.3478 0 1
10.4648 0 1
10.5819 0 1
10.6991 0 1
10.8162 0 1
10.9334 0 1
11.0506 0 1
11.1678 0 1
11.285 0 1
11.4023 0 1
11.5196 0 1
11.6369 0 1
11.7542 0 1
11.8715 0 1
11.9888 0 1
12.1062 0 1
12.2235 0 1
12.3409 0 1
12.4582 0 1
12.5756 0 1
12.693 0 1
12.8104 0 1
12.9278 0 1
13.0452 0 1
13.1626 0 1
13.28 0 1
13.3974 0 1
13.5149 0 1
13.6323 0 1
13.7497 0 1
13.8671 0 1
13.9845 0 1
14.1019 0 1
14.2193 0 1
14.3367 0 1
14.4541 0 1
14.5714 0 1
14.6888 0 1
14.8062 0 1
14.9235 0 1
15.0408 0 0
15.1581 0 0
15.2755 0 0
15.3927 0 0
15.51 0 0
15.6273 0 0
15.7445 0 0
15.8617 0 0
15.9789 0 0
16.0961 0 0
16.2132 0 0
16.3304 0 0
16.4475 0 0
16.5646 0 0
16.6816 0 0
16.7986 0 0
16.9156 0 0
17.0326 0 0
17.1496 0 0
17.2665 0 0
17.3833 0 0
17.5002 0 0
17.617 0 0
17.7338 0 0
17.8505 0 0
17.9672 0 0
18.0839 0 0
18.2005 0 0
18.3171 0 0
18.4337 0 0
18.5502 0 0
18.6666 0 0
18.7831 0 0
18.8994 0 0
19.0158 0 0
19.1321 0 0
19.2483 0 0
19.3645 0 0
19.4806 0 0
19.5967 0 0
19.7128 0 0
19.8288 0 0
19.9447 0 0
20.0606 0 1
20.1764 0 1
20.2922 0 1
20.4079 0 1
20.5236 0 1
20.6392 0 1
20.7548 0 1
20.8702 0 1
23.3078 0 1
23.4233 0 1
23.539 0 1
23.6547 0 1
23.7704 0 1
23.8862 0 1
24.0021 0 1
24.118 0 1
24.234 0 1
24.35 0 1
24.4661 1823 42.6966
24.5822 1859 43.1161
24.6984 1821 42.6732
24.8146 1899 43.5775
24.9309 1868 43.2204
25.0472 1940 44.0454
25.1636 1907 43.6692
25.28 1976 44.4522
25.3965 1899 43.5775
25.513 1903 43.6234
25.6296 1970 44.3847
25.7462 1958 44.2493
25.8628 1951 44.1701
25.9795 1990 44.6094
26.0962 1999 44.7102
26.213 1957 44.238
26.3298 1975 44.441
26.4466 1818 42.638
26.5635 1820 42.6615
26.6804 1568 39.598
26.7973 1587 39.8372
26.9143 1567 39.5854
27.0313 1694 41.1582
27.1483 1751 41.845
27.2653 1835 42.8369
27.3824 1939 44.0341
27.4996 1921 43.8292
27.6167 1952 44.1814
27.7339 1915 43.7607
27.8511 1891 43.4856
27.9683 1898 43.566
28.0855 1824 42.7083
28.2028 1877 43.3244
28.3201 1741 41.7253
28.4374 1986 44.5646
28.5547 1870 43.2435
28.6721 1941 44.0568
28.7894 1825 42.72
28.9068 1876 43.3128
29.0242 1822 42.6849
29.1416 1872 43.2666
29.259 1846 42.9651
29.3764 1910 43.7035
29.4939 1935 43.9886
29.6113 1889 43.4626
29.7288 1801 42.4382
29.8463 1797 42.391
29.9638 1730 41.5933
30.0812 1660 40.7431
30.1987 1531 39.128
30.3162 1414 37.6032
30.4337 1499 38.7169
30.5512 1635 40.4351
30.6687 1686 41.0609
30.7862 1846 42.9651
30.9037 1809 42.5323
31.0212 1958 44.2493
31.1387 1874 43.2897
31.2562 1975 44.441
31.3737 1915 43.7607
31.4912 1844 42.9418
31.6087 1866 43.1972
31.7262 1869 43.2319
31.8436 1891 43.4856
31.9611 1890 43.4741
32.0785 1921 43.8292
32.1959 1838 42.8719
32.3134 1862 43.1509
32.4308 1945 44.1022
32.5482 1982 44.5197
32.6655 1881 43.3705
32.7829 1865 43.1856
32.9002 1918 43.795
33.0176 1874 43.2897
33.1349 1904 43.6348
33.2522 1939 44.0341
33.3694 1955 44.2154
33.4867 1878 43.3359
33.6039 1851 43.0232
33.7211 1800 42.4264
33.8383 1574 39.6737
33.9554 1488 38.5746
34.0725 1544 39.2938
34.1896 1600 40
34.3067 1706 41.3038
34.4237 1867 43.2088
34.5407 1865 43.1856
34.6577 1887 43.4396
34.7746 1976 44.4522
34.8915 1990 44.6094
35.0084 1891 43.4856
35.1252 1866 43.1972
35.242 1987 44.5758
35.3587 1932 43.9545
35.4755 1926 43.8862
35.5921 1844 42.9418
35.7088 1941 44.0568
35.8254 1875 43.3013
35.9419 1947 44.1248
36.0584 1836 42.8486
36.1749 1987 44.5758
36.2913 1880 43.359
36.4077 1961 44.2832
36.524 1914 43.7493
36.6403 1865 43.1856
36.7565 1954 44.2041
36.8727 1905 43.6463
36.9889 2060 45.3872
37.1049 1880 43.359
37.221 0 1
37.3369 0 1
37.4529 0 1
37.5687 0 1
37.6845 0 1
37.8003 0 1
37.916 0 1
38.0316 0 1
38.1472 0 1
40.5851 0 1
40.7008 0 1
40.8164 0 1
40.9322 0 1
41.048 0 1
41.1639 0 1
41.2798 0 1
41.3958 0 1
41.5118 0 1
41.6279 0 1
41.744 1672 40.8901
41.8602 1622 40.2741
41.9765 1737 41.6773
42.0928 1732 41.6173
42.2091 1680 40.9878
42.3255 1657 40.7063
42.4419 1570 39.6232
42.5584 1489 38.5876
42.675 1359 36.8646
42.7915 1290 35.9166
42.9081 1445 38.0132
43.0248 1468 38.3145
43.1415 1586 39.8246
43.2582 1662 40.7676
43.375 1746 41.7852
43.4918 1662 40.7676
43.6087 1695 41.1704
43.7256 1673 40.9023
43.8425 1576 39.6989
43.9595 1662 40.7676
44.0765 1572 39.6485
44.1935 1623 40.2865
44.3106 1490 38.6005
44.4277 1453 38.1182
44.5448 1498 38.704
44.6619 1511 38.8716
44.7791 1492 38.6264
44.8963 1568 39.598
45.0136 1497 38.6911
45.1308 1481 38.4838
45.2481 1551 39.3827
45.3654 1522 39.0128
45.4827 1467 38.3014
45.6001 1576 39.6989
45.7174 1466 38.2884
45.8348 1422 37.7094
45.9522 1456 38.1576
46.0697 1325 36.4005
46.1871 1210 34.7851
46.3046 1148 33.8821
46.422 1105 33.2415
46.5395 1207 34.7419
46.657 1272 35.6651
46.7745 1368 36.9865
46.892 1402 37.4433
47.0096 1479 38.4578
47.1271 1495 38.6652
47.2446 1465 38.2753
47.3622 1393 37.3229
47.4797 1439 37.9342
47.5973 1224 34.9857
47.7149 1299 36.0416
47.8324 1282 35.805
47.95 1223 34.9714
48.0675 1332 36.4966
48.1851 1213 34.8281
48.3027 1271 35.6511
48.4202 1328 36.4417
48.5378 1310 36.1939
48.6554 1310 36.1939
48.7729 1350 36.7423
48.8904 1286 35.8608
49.008 1409 37.5366
49.1255 1304 36.1109
49.243 1516 38.9358
49.3605 1362 36.9053
49.478 1322 36.3593
49.5955 1205 34.7131
49.713 1117 33.4215
49.8304 1064 32.619
49.9479 1109 33.3017
50.0653 1182 34.3802
50.1827 1346 36.6879
50.3001 1562 39.5221
50.4175 1530 39.1152
50.5348 1634 40.4228
50.6521 1689 41.0974
50.7694 1703 41.2674
50.8867 1682 41.0122
51.004 1818 42.638
51.1212 1762 41.9762
51.2384 1727 41.5572
51.3556 1725 41.5331
51.4727 1766 42.0238
51.5899 1682 41.0122
51.707 1799 42.4146
51.824 1839 42.8836
51.9411 1871 43.2551
52.0581 1926 43.8862
52.175 2044 45.2106
52.2919 2052 45.299
52.4088 2124 46.0869
52.5257 2116 46
52.6425 2185 46.744
52.7593 2201 46.9148
52.876 2185 46.744
52.9927 2203 46.9361
53.1094 2063 45.4203
53.226 2026 45.0111
53.3426 1833 42.8135
53.4591 1701 41.2432
53.5756 1747 41.7971
53.692 1937 44.0114
53.8084 2155 46.422
53.9248 2290 47.8539
54.0411 2382 48.8057
54.1573 2433 49.3254
54.2735 0 1
54.3896 0 1
54.5057 0 1
54.6217 0 1
54.7377 0 1
54.8537 0 1
54.9695 0 1
55.0853 0 1
55.2011 0 1
55.3168 0 1
55.4324 0 1
57.824 0 1
57.9396 0 1
58.0553 0 1
58.1711 0 1
58.2869 0 1
58.4028 0 1
58.5187 0 1
58.6347 0 1
58.7508 0 1
58.8669 0 1
58.983 3124 55.8928
59.0992 3173 56.3294
59.2155 3332 57.7235
59.3318 3478 58.9746
59.4482 3451 58.7452
59.5646 3466 58.8727
59.681 3391 58.2323
59.7975 3287 57.3324
59.9141 3308 57.5152
60.0306 3325 57.6628
60.1473 3124 55.8928
60.2639 3076 55.4617
60.3807 3044 55.1725
60.4974 3158 56.1961
60.6142 3203 56.5951
60.731 3197 56.542
60.8479 3393 58.2495
60.9648 3578 59.8164
61.0818 3458 58.8048
61.1987 3481 59
61.3158 3469 58.8982
61.4328 3337 57.7668
61.5499 3474 58.9406
61.667 3305 57.4891
61.7841 3118 55.8391
61.9013 2831 53.2071
62.0185 2674 51.7107
62.1357 2715 52.1057
62.253 2978 54.5711
62.3702 3238 56.9034
62.4875 3552 59.5987
62.6049 3467 58.8812
62.7222 3747 61.2127
62.8396 3800 61.6441
62.9569 3732 61.0901
63.0743 3888 62.3538
63.1918 3789 61.5549
63.3092 3678 60.6465
63.4267 3688 60.7289
63.5441 3456 58.7878
63.6616 3355 57.9224
63.7791 3245 56.9649
63.8966 3278 57.2538
64.0142 3182 56.4092
64.1317 3482 59.0085
64.2492 3552 59.5987
64.3668 3667 60.5558
64.4843 3700 60.8276
64.6019 3801 61.6523
64.7195 3827 61.8628
64.837 3797 61.6198
64.9546 3846 62.0161
65.0722 3805 61.6847
65.1898 3603 60.025
65.3074 3486 59.0424
65.4249 3276 57.2364
65.5425 2976 54.5527
65.6601 2742 52.3641
65.7777 3057 55.2901
65.8952 3318 57.6021
66.0128 3549 59.5735
66.1304 3792 61.5792
66.2479 4102 64.0469
66.3655 4038 63.5453
66.483 4119 64.1794
66.6005 4119 64.1794
66.718 4323 65.7495
66.8355 4094 63.9844
66.953 4021 63.4114
67.0705 3971 63.0159
67.1879 3761 61.327
67.3054 3715 60.9508
67.4228 3567 59.7244
67.5402 3548 59.5651
67.6576 3729 61.0655
67.7749 3771 61.4085
67.8923 3945 62.8092
68.0096 4128 64.2495
68.1269 4238 65.0999
68.2442 4245 65.1537
68.3614 4450 66.7083
68.4787 4545 67.4166
68.5958 4431 66.5658
68.713 4509 67.1491
68.8302 4265 65.307
68.9473 4088 63.9375
69.0643 3767 61.3759
69.1814 3392 58.2409
69.2984 3215 56.701
69.4154 3425 58.5235
69.5323 3644 60.3656
69.6492 4157 64.4748
69.7661 4621 67.9779
69.8829 4548 67.4389
69.9997 4796 69.2532
70.1165 4783 69.1592
70.2332 5044 71.0211
70.3499 4991 70.647
70.4665 4872 69.7997
70.5831 4783 69.1592
70.6996 4690 68.4836
70.8161 4480 66.9328
70.9326 4356 66
71.049 4281 65.4294
71.1653 4036 63.5295
71.2817 4109 64.1015
71.3979 4154 64.4515
71.5141 4218 64.9461
71.6303 4171 64.5833
71.7464 4243 65.1383
71.8624 0 1
71.9784 0 1
72.0944 0 1
72.2102 0 1
72.3261 0 1
72.4418 0 1
72.5575 0 1
72.6732 0 1
75.1054 0 1
75.2209 0 1
75.3365 0 1
75.4521 0 1
75.5678 0 1
75.6835 0 1
75.7993 0 1
75.9151 0 1
76.031 0 1
76.147 4335 65.8407
76.263 4445 66.6708
76.3791 4429 66.5507
76.4952 4221 64.9692
76.6113 4383 66.2042
76.7276 4525 67.2681
76.8438 4413 66.4304
76.9601 4827 69.4766
77.0765 5028 70.9084
77.1929 5326 72.9794
77.3093 5253 72.4776
77.4258 5122 71.5681
77.5423 5253 72.4776
77.6589 5307 72.8492
77.7755 5077 71.2531
77.8921 4983 70.5904
78.0088 4483 66.9552
78.1256 4024 63.435
78.2423 3736 61.1228
78.3591 3651 60.4235
78.4759 3773 61.4248
78.5928 4211 64.8922
78.7097 4502 67.0969
78.8266 5250 72.4569
78.9436 4945 70.3207
79.0606 5231 72.3257
79.1776 5198 72.0972
79.2946 5305 72.8354
79.4117 5135 71.6589
79.5288 5072 71.218
79.6459 5049 71.0563
79.7631 4990 70.6399
79.8802 4641 68.1249
79.9974 4484 66.9627
80.1147 4139 64.3351
80.2319 4204 64.8383
80.3491 4213 64.9076
80.4664 4417 66.4605
80.5837 4573 67.624
80.701 4839 69.5629
80.8183 5042 71.007
80.9357 5085 71.3092
81.053 5111 71.4913
81.1704 5107 71.4633
81.2877 5190 72.0417
81.4051 5152 71.7774
81.5225 5037 70.9718
81.6399 4577 67.6535
81.7573 4268 65.3299
81.8747 3784 61.5142
81.9922 3582 59.8498
82.1096 3637 60.3075
82.227 3896 62.4179
82.3444 4221 64.9692
82.4619 4545 67.4166
82.5793 4781 69.1448
82.6967 5195 72.0763
82.8142 5032 70.9366
82.9316 5068 71.1899
83.049 4908 70.0571
83.1664 4755 68.9565
83.2838 4799 69.2748
83.4012 4561 67.5352
83.5186 4475 66.8954
83.636 4330 65.8027
83.7534 4075 63.8357
83.8708 3823 61.8304
83.9881 3831 61.8951
84.1055 4245 65.1537
84.2228 4229 65.0308
84.3401 4533 67.3276
84.4575 4844 69.5989
84.5747 4932 70.2282
84.692 4913 70.0928
84.8093 4919 70.1356
84.9265 4931 70.2211
85.0437 4980 70.5691
85.1609 4670 68.3374
85.2781 4123 64.2106
85.3952 4010 63.3246
85.5123 3678 60.6465
85.6294 3693 60.7701
85.7465 3800 61.6441
85.8636 4217 64.9384
85.9806 4557 67.5056
86.0976 4887 69.9071
86.2145 5056 71.1056
86.3315 5221 72.2565
86.4484 5505 74.1957
86.5652 5475 73.9932
86.682 5282 72.6774
86.7988 5546 74.4715
86.9156 5314 72.8972
87.0323 5139 71.6868
87.149 4934 70.2424
87.2657 4842 69.5845
87.3823 4528 67.2904
87.4988 4523 67.2533
87.6154 4519 67.2235
87.7318 4731 68.7823
87.8483 5123 71.5751
87.9647 5396 73.4575
88.081 5562 74.5788
88.1973 5571 74.6391
88.3136 5704 75.5248
88.4298 5713 75.5844
88.546 5689 75.4255
88.6621 5471 73.9662
88.7781 5122 71.5681
88.8942 0 1
89.0101 0 1
89.126 0 1
89.2419 0 1
89.3577 0 1
89.4734 0 1
89.5891 0 1
89.7047 0 1
89.8203 0 1
89.9358 0 1
92.3269 0 1
92.4424 0 1
92.558 0 1
92.6736 0 1
92.7893 0 1
92.905 0 1
93.0208 0 1
93.1366 0 1
93.2525 0 1
93.3685 0 1
93.4845 0 1
93.6005 5695 75.4652
93.7167 5594 74.793
93.8328 5679 75.3591
93.949 5697 75.4785
94.0653 5575 74.6659
94.1816 5367 73.2598
94.2979 5102 71.4283
94.4143 4711 68.6367
94.5307 4556 67.4981
94.6472 4468 66.8431
94.7637 4297 65.5515
94.8803 4568 67.587
94.9969 4877 69.8355
95.1135 5100 71.4143
95.2302 5495 74.1283
95.3469 5630 75.0333
95.4637 5748 75.8156
95.5805 5853 76.5049
95.6973 6076 77.9487
95.8142 5945 77.1038
95.9311 5896 76.7854
96.048 5675 75.3326
96.1649 5703 75.5182
96.2819 5592 74.7797
96.3989 5107 71.4633
96.516 4929 70.2068
96.633 4701 68.5638
96.7501 4665 68.3008
96.8673 4808 69.3397
96.9844 5045 71.0282
97.1016 5525 74.3303
97.2188 5725 75.6637
97.336 6001 77.4661
97.4532 5921 76.948
97.5704 5985 77.3628
97.6877 5944 77.0973
97.805 5867 76.5963
97.9223 5562 74.5788
98.0396 5201 72.118
98.1569 4990 70.6399
98.2743 4676 68.3813
98.3916 4600 67.8233
98.509 4802 69.2965
98.6264 5020 70.852
98.7438 5194 72.0694
98.8612 5538 74.4177
98.9786 5781 76.0329
99.096 5973 77.2852
99.2134 6251 79.0633
99.3308 6250 79.0569
99.4482 6174 78.5748
99.5656 6102 78.1153
99.6831 5984 77.3563
99.8005 5924 76.9675
99.9179 5717 75.6108
100.035 5632 75.0467
100.153 5099 71.4073
100.27 4872 69.7997
100.388 4839 69.5629
100.505 5219 72.2426
100.622 5666 75.2728
100.74 5919 76.935
100.857 6042 77.7303
100.975 6331 79.5676
101.092 6311 79.4418
101.209 6262 79.1328
101.327 6153 78.4411
101.444 6056 77.8203
101.561 5967 77.2464
101.679 5646 75.1399
101.796 5114 71.5122
101.913 4984 70.5975
102.03 4802 69.2965
102.148 5247 72.4362
102.265 5816 76.2627
102.382 5597 74.8131
102.499 6086 78.0128
102.616 6341 79.6304
102.733 6313 79.4544
102.851 6622 81.3757
102.968 6679 81.7251
103.085 6638 81.4739
103.202 6491 80.5667
103.319 6430 80.1873
103.436 6158 78.4729
103.552 5885 76.7138
103.669 5492 74.108
103.786 5090 71.3442
103.903 5011 70.7884
104.02 5609 74.8933
104.137 5910 76.8765
104.253 6568 81.0432
104.37 6400 80
104.487 6695 81.823
104.603 6718 81.9634
104.72 6809 82.5167
104.836 6755 82.1888
104.953 6579 81.111
105.069 6279 79.2401
105.186 6031 77.6595
105.302 5603 74.8532
105.418 5429 73.6817
105.535 5424 73.6478
105.651 5733 75.7166
105.767 6085 78.0064
105.883 6352 79.6994
105.999 6644 81.5107
106.115 0 1
106.231 0 1
106.347 0 1
106.463 0 1
106.579 0 1
106.694 0 1
106.81 0 1
106.926 0 1
107.041 0 1
107.157 0 1
109.576 0 1
109.692 0 1
109.807 0 1
109.923 0 1
110.039 0 1
110.155 0 1
110.27 0 1
110.386 0 1
110.502 0 1
110.618 5309 72.8629
110.735 5639 75.0933
110.851 5833 76.3741
110.967 6120 78.2304
111.083 6256 79.0949
111.199 6279 79.2401
111.316 6358 79.7371
111.432 6687 81.7741
111.549 6486 80.5357
111.665 6529 80.8022
111.782 6295 79.341
111.898 6123 78.2496
112.015 5722 75.6439
112.132 5460 73.8918
112.248 4847 69.6204
112.365 4680 68.4105
112.482 5072 71.218
112.599 5354 73.171
112.716 5771 75.9671
112.832 6027 77.6338
112.949 6089 78.032
113.066 6016 77.5629
113.183 6021 77.5951
113.3 6000 77.4597
113.417 5936 77.0454
113.534 5719 75.6241
113.652 5571 74.6391
113.769 5257 72.5052
113.886 4835 69.5342
114.003 4741 68.8549
114.12 4832 69.5126
114.238 5041 71
114.355 5231 72.3257
114.472 5447 73.8038
114.589 5414 73.5799
114.707 5565 74.5989
114.824 5700 75.4983
114.942 5877 76.6616
115.059 5860 76.5506
115.176 5804 76.184
115.294 5606 74.8732
115.411 5635 75.0666
115.529 5371 73.2871
115.646 5065 71.1688
115.764 4682 68.4251
115.881 4410 66.4078
115.999 4408 66.3928
116.116 4741 68.8549
116.234 5307 72.8492
116.351 5690 75.4321
116.469 5653 75.1864
116.586 5829 76.3479
116.704 5924 76.9675
116.821 5784 76.0526
116.939 5948 77.1233
117.056 5697 75.4785
117.174 5797 76.138
117.291 5388 73.403
117.409 5241 72.3948
117.526 4941 70.2922
117.644 4866 69.7567
117.761 4876 69.8284
117.879 5046 71.0352
117.996 5350 73.1437
118.114 5573 74.6525
118.231 5618 74.9533
118.349 5607 74.8799
118.466 5872 76.629
118.584 5972 77.2787
118.701 6023 77.608
118.819 5910 76.8765
118.936 5742 75.776
119.053 5754 75.8551
119.171 5452 73.8377
119.288 5079 71.2671
119.405 4675 68.374
119.523 4343 65.9014
119.64 4313 65.6734
119.757 4656 68.2349
119.875 5247 72.4362
119.992 5607 74.8799
120.109 5699 75.4917
120.226 5760 75.8947
120.343 5846 76.4591
120.46 5740 75.7628
120.578 5851 76.4918
120.695 5903 76.831
120.812 5804 76.184
120.929 5481 74.0338
121.046 5306 72.8423
121.163 5227 72.298
121.279 5033 70.9436
121.396 4881 69.8642
121.513 4994 70.6682
121.63 5247 72.4362
121.747 5292 72.7461
121.863 5408 73.5391
121.98 5655 75.1997
122.097 5417 73.6003
122.213 5543 74.4513
122.33 5751 75.8353
122.446 5661 75.2396
122.563 5652 75.1798
122.679 5604 74.8599
122.795 5606 74.8732
122.912 5386 73.3894
123.028 4981 70.5762
123.144 4569 67.5944
123.26 4210 64.8845
123.377 0 1
123.493 0 1
123.609 0 1
123.725 0 1
123.84 0 1
123.956 0 1
124.072 0 1
124.188 0 1
124.303 0 1
124.419 0 1
126.852 0 1
126.968 0 1
127.083 0 1
127.199 0 1
127.315 0 1
127.431 0 1
127.547 0 1
127.663 0 1
127.779 0 1
127.895 0 1
128.011 0 1
128.127 0 1
128.243 0 1
128.359 5102 71.4283
128.476 4759 68.9855
128.592 4661 68.2715
128.708 5243 72.4086
128.825 5743 75.7826
128.941 6263 79.1391
129.058 6253 79.0759
129.174 6535 80.8393
129.291 6455 80.343
129.408 6368 79.7997
129.524 6484 80.5233
129.641 6394 79.9625
129.758 6225 78.8987
129.875 6212 78.8162
129.992 6045 77.7496
130.108 5846 76.4591
130.225 5588 74.7529
130.342 5461 73.8986
130.459 5367 73.2598
130.576 5783 76.046
130.693 5742 75.776
130.81 6068 77.8974
130.928 5978 77.3175
131.045 6108 78.1537
131.162 6191 78.6829
131.279 6281 79.2528
131.396 6298 79.3599
131.513 6188 78.6638
131.631 6138 78.3454
131.748 5781 76.0329
131.865 5097 71.3933
131.983 4733 68.7968
132.1 4689 68.4763
132.217 5046 71.0352
132.335 5309 72.8629
132.452 5937 77.0519
132.57 6095 78.0705
132.687 6132 78.3071
132.804 6341 79.6304
132.922 6163 78.5048
133.039 6197 78.721
133.157 6154 78.4474
133.274 6101 78.1089
133.392 6061 77.8524
133.509 5915 76.909
133.627 5761 75.9013
133.744 5568 74.619
133.862 5377 73.328
133.979 5521 74.3034
134.097 5278 72.6498
134.214 5593 74.7864
134.332 5633 75.0533
134.449 5867 76.5963
134.567 6084 78
134.684 5965 77.2334
134.802 5921 76.948
134.919 6002 77.4726
135.037 6155 78.4538
135.154 6003 77.479
135.272 5836 76.3937
135.389 5366 73.253
135.507 4938 70.2709
135.624 4599 67.8159
135.742 4593 67.7717
135.859 5082 71.2881
135.977 5549 74.4916
136.094 5949 77.1298
136.211 5983 77.3499
136.329 6051 77.7882
136.446 6029 77.6466
136.564 6064 77.8717
136.681 6124 78.256
136.798 6038 77.7046
136.915 6055 77.8139
137.033 6113 78.1857
137.15 5868 76.6029
137.267 5825 76.3217
137.384 5595 74.7997
137.502 5425 73.6546
137.619 5169 71.8958
137.736 5531 74.3707
137.853 5461 73.8986
137.97 5359 73.2052
138.087 5679 75.3591
138.204 5976 77.3046
138.321 5749 75.8222
138.438 5899 76.8049
138.555 6023 77.608
138.672 6020 77.5887
138.788 6056 77.8203
138.905 5842 76.433
139.022 5457 73.8715
139.139 5086 71.3162
139.255 4548 67.4389
139.372 4754 68.9493
139.488 4958 70.4131
139.605 5410 73.5527
139.721 5743 75.7826
139.838 6010 77.5242
139.954 6023 77.608
140.071 6070 77.9102
140.187 6088 78.0256
140.303 6150 78.4219
140.419 5991 77.4016
140.535 6003 77.479
140.652 5697 75.4785
140.768 0 1
140.884 0 1
141 0 1
141.115 0 1
141.231 0 1
141.347 0 1
141.463 0 1
141.578 0 1
141.694 0 1
144.104 0 1
144.219 0 1
144.335 0 1
144.45 0 1
144.566 0 1
144.682 0 1
144.798 0 1
144.914 0 1
145.03 0 1
145.146 5223 72.2703
145.262 5239 72.3809
145.378 5290 72.7324
145.494 5265 72.5603
145.61 5304 72.8286
145.726 5271 72.6017
145.842 5294 72.7599
145.959 5056 71.1056
146.075 4840 69.5701
146.192 4709 68.6222
146.308 4885 69.8928
146.425 4712 68.644
146.541 4801 69.2892
146.658 4912 70.0857
146.774 4989 70.6329
146.891 5086 71.3162
147.008 5066 71.1758
147.125 5096 71.3863
147.241 5083 71.2952
147.358 4907 70.05
147.475 4846 69.6132
147.592 4634 68.0735
147.709 4172 64.591
147.826 3928 62.6738
147.943 3803 61.6685
148.06 4052 63.6553
148.177 4420 66.4831
148.294 4582 67.6905
148.411 4966 70.4699
148.528 5002 70.7248
148.645 4910 70.0714
148.762 4985 70.6045
148.88 4924 70.1712
148.997 4689 68.4763
149.114 4982 70.5833
149.231 4891 69.9357
149.349 4751 68.9275
149.466 4868 69.7711
149.583 4696 68.5274
149.701 4595 67.7864
149.818 4594 67.7791
149.935 4492 67.0224
150.053 4447 66.6858
150.17 4387 66.2344
150.287 4613 67.9191
150.405 4535 67.3424
150.522 4831 69.5054
150.64 4722 68.7168
150.757 4703 68.5784
150.875 4712 68.644
150.992 4635 68.0808
151.11 4395 66.2948
151.227 4317 65.7039
151.344 4030 63.4823
151.462 3521 59.338
151.579 3638 60.3158
151.697 3904 62.482
151.814 4247 65.169
151.932 4532 67.3201
152.049 4724 68.7314
152.167 4863 69.7352
152.284 4772 69.0797
152.402 4884 69.8856
152.519 4626 68.0147
152.636 4812 69.3686
152.754 4769 69.0579
152.871 4776 69.1086
152.989 4763 69.0145
153.106 4651 68.1982
153.223 4674 68.3667
153.341 4634 68.0735
153.458 4495 67.0448
153.575 4489 67
153.693 4309 65.643
153.81 4443 66.6558
153.927 4352 65.9697
154.044 4506 67.1267
154.162 4734 68.8041
154.279 4757 68.971
154.396 4925 70.1783
154.513 4745 68.884
154.63 4703 68.5784
154.747 4539 67.3721
154.864 4345 65.9166
154.981 4194 64.7611
155.098 3976 63.0555
155.215 3932 62.7057
155.332 4102 64.0469
155.449 4470 66.8581
155.566 4775 69.1014
155.683 4778 69.1231
155.8 4802 69.2965
155.917 4740 68.8477
156.033 4763 69.0145
156.15 0 1
156.267 0 1
156.383 0 1
156.5 0 1
156.617 0 1
156.733 0 1
156.85 0 1
156.966 0 1
157.082 0 1
157.199 0 1
157.315 0 1
157.431 0 1
157.547 0 1
157.664 0 1
157.78 0 1
157.896 0 1
158.012 0 1
158.128 0 1
158.244 0 1
158.359 0 1
158.475 0 1
158.591 0 1
158.706 0 1
