
6.15755 0 1
6.2731 0 1
6.3887 0 1
6.50437 0 1
6.62009 0 1
6.73587 0 1
6.8517 0 1
6.96759 0 1
7.08353 0 1
7.19952 0 1
7.31557 0 1
7.43166 0 1
7.54781 0 1
7.664 0 1
7.78024 0 1
7.89653 0 1
8.01286 0 1
8.12924 0 1
8.24567 0 1
8.36213 0 1
8.47864 0 1
8.59519 0 1
8.71178 0 1
8.82841 0 1
8.94508 0 1
9.06179 0 1
9.17853 0 1
9.29531 0 1
9.41212 0 1
9.52897 0 1
9.64584 0 1
9.76276 0 1
9.8797 0 1
9.99667 0 1
10.1137 0 1
10.2307 0 1
10.3478 0 1
10.4648 0 1
10.5819 0 1
10.6991 0 1
10.8162 0 1
10.9334 0 1
11.0506 0 1
11.1678 0 1
11.285 0 1
11.4023 0 1
11.5196 0 1
11.6369 0 1
11.7542 0 1
11.8715 0 1
11.9888 0 1
12.1062 0 1
12.2235 0 1
12.3409 0 1
12.4582 0 1
12.5756 0 1
12.693 0 1
12.8104 0 1
12.9278 0 1
13.0452 0 1
13.1626 0 1
13.28 0 1
13.3974 0 1
13.5149 0 1
13.6323 0 1
13.7497 0 1
13.8671 0 1
13.9845 0 1
14.1019 0 1
14.2193 0 1
14.3367 0 1
14.4541 0 1
14.5714 0 1
14.6888 0 1
14.8062 0 1
14.9235 0 1
15.0408 1275 35.7071
15.1581 1274 35.6931
15.2755 1410 37.55
15.3927 1374 37.0675
15.51 1402 37.4433
15.6273 1417 37.6431
15.7445 1355 36.8103
15.8617 1344 36.6606
15.9789 1364 36.9324
16.0961 1319 36.318
16.2132 1410 37.55
16.3304 1428 37.7889
16.4475 1450 38.0789
16.5646 1521 39
16.6816 1544 39.2938
16.7986 1615 40.1871
16.9156 1629 40.3609
17.0326 1640 40.4969
17.1496 1533 39.1535
17.2665 1642 40.5216
17.3833 1617 40.2119
17.5002 1611 40.1373
17.617 1586 39.8246
17.7338 1477 38.4318
17.8505 1433 37.855
17.9672 1456 38.1576
18.0839 1434 37.8682
18.2005 1479 38.4578
18.3171 1531 39.128
18.4337 1427 37.7757
18.5502 1566 39.5727
18.6666 1588 39.8497
18.7831 1628 40.3485
18.8994 1647 40.5832
19.0158 1578 39.724
19.1321 1567 39.5854
19.2483 1410 37.55
19.3645 1434 37.8682
19.4806 1368 36.9865
19.5967 1210 34.7851
19.7128 1118 33.4365
19.8288 1066 32.6497
19.9447 917 30.282
20.0606 0 1
20.1764 0 1
20.2922 0 1
20.4079 0 1
20.5236 0 1
20.6392 0 1
20.7548 0 1
20.8702 0 1
23.3078 0 1
23.4233 0 1
23.539 0 1
23.6547 0 1
23.7704 0 1
23.8862 0 1
24.0021 0 1
24.118 0 1
24.234 0 1
24.35 0 1
24.4661 704 26.533
24.5822 770 27.7489
24.6984 842 29.0172
24.8146 926 30.4302
24.9309 1087 32.9697
25.0472 1215 34.8569
25.1636 1260 35.4965
25.28 1359 36.8646
25.3965 1517 38.9487
25.513 1561 39.5095
25.6296 1678 40.9634
25.7462 1691 41.1218
25.8628 1766 42.0238
25.9795 1725 41.5331
26.0962 1770 42.0714
26.213 1670 40.8656
26.3298 1567 39.5854
26.4466 1453 38.1182
26.5635 1457 38.1707
26.6804 1580 39.7492
26.7973 1587 39.8372
26.9143 1592 39.8999
27.0313 1529 39.1024
27.1483 1618 40.2244
27.2653 1663 40.7799
27.3824 1687 41.0731
27.4996 1708 41.328
27.6167 1639 40.4846
27.7339 1618 40.2244
27.8511 1546 39.3192
27.9683 1590 39.8748
28.0855 1486 38.5487
28.2028 1470 38.3406
28.3201 1450 38.0789
28.4374 1360 36.8782
28.5547 1405 37.4833
28.6721 1474 38.3927
28.7894 1510 38.8587
28.9068 1608 40.0999
29.0242 1697 41.1947
29.1416 1735 41.6533
29.259 1653 40.6571
29.3764 1723 41.509
29.4939 1682 41.0122
29.6113 1630 40.3733
29.7288 1564 39.5474
29.8463 1513 38.8973
29.9638 1377 37.108
30.0812 1383 37.1887
30.1987 1447 38.0395
30.3162 1487 38.5616
30.4337 1518 38.9615
30.5512 1536 39.1918
30.6687 1570 39.6232
30.7862 1568 39.598
30.9037 1641 40.5093
31.0212 1594 39.9249
31.1387 1612 40.1497
31.2562 1557 39.4588
31.3737 1567 39.5854
31.4912 1509 38.8458
31.6087 1440 37.9473
31.7262 1485 38.5357
31.8436 1442 37.9737
31.9611 1323 36.3731
32.0785 1343 36.647
32.1959 1387 37.2424
32.3134 1491 38.6135
32.4308 1567 39.5854
32.5482 1622 40.2741
32.6655 1608 40.0999
32.7829 1656 40.694
32.9002 1667 40.8289
33.0176 1610 40.1248
33.1349 1656 40.694
33.2522 1649 40.6079
33.3694 1536 39.1918
33.4867 1431 37.8286
33.6039 1427 37.7757
33.7211 1382 37.1753
33.8383 1383 37.1887
33.9554 1439 37.9342
34.0725 1392 37.3095
34.1896 1464 38.2623
34.3067 1507 38.8201
34.4237 1587 39.8372
34.5407 1578 39.724
34.6577 1561 39.5095
34.7746 1524 39.0384
34.8915 1553 39.4081
35.0084 1472 38.3667
35.1252 1448 38.0526
35.242 1385 37.2156
35.3587 1463 38.2492
35.4755 1337 36.565
35.5921 1300 36.0555
35.7088 1247 35.3129
35.8254 1310 36.1939
35.9419 1327 36.428
36.0584 1354 36.7967
36.1749 1447 38.0395
36.2913 1405 37.4833
36.4077 1427 37.7757
36.524 1373 37.054
36.6403 1340 36.606
36.7565 1323 36.3731
36.8727 1271 35.6511
36.9889 1165 34.1321
37.1049 983 31.3528
37.221 0 1
37.3369 0 1
37.4529 0 1
37.5687 0 1
37.6845 0 1
37.8003 0 1
37.916 0 1
38.0316 0 1
38.1472 0 1
40.5851 0 1
40.7008 0 1
40.8164 0 1
40.9322 0 1
41.048 0 1
41.1639 0 1
41.2798 0 1
41.3958 0 1
41.5118 0 1
41.6279 0 1
41.744 721 26.8514
41.8602 806 28.3901
41.9765 902 30.0333
42.0928 962 31.0161
42.2091 939 30.6431
42.3255 863 29.3769
42.4419 886 29.7658
42.5584 903 30.05
42.675 1023 31.9844
42.7915 1066 32.6497
42.9081 1158 34.0294
43.0248 1111 33.3317
43.1415 1150 33.9116
43.2582 1321 36.3456
43.375 1296 36
43.4918 1309 36.1801
43.6087 1275 35.7071
43.7256 1258 35.4683
43.8425 1321 36.3456
43.9595 1205 34.7131
44.0765 1196 34.5832
44.1935 1160 34.0588
44.3106 1134 33.6749
44.4277 1043 32.2955
44.5448 1042 32.28
44.6619 1031 32.1092
44.7791 1155 33.9853
44.8963 1185 34.4238
45.0136 1261 35.5106
45.1308 1206 34.7275
45.2481 1348 36.7151
45.3654 1371 37.027
45.4827 1322 36.3593
45.6001 1320 36.3318
45.7174 1293 35.9583
45.8348 1110 33.3167
45.9522 1137 33.7194
46.0697 1039 32.2335
46.1871 967 31.0966
46.3046 1131 33.6303
46.422 1198 34.6121
46.5395 1257 35.4542
46.657 1279 35.7631
46.7745 1227 35.0286
46.892 1319 36.318
47.0096 1324 36.3868
47.1271 1381 37.1618
47.2446 1347 36.7015
47.3622 1341 36.6197
47.4797 1288 35.8887
47.5973 1295 35.9861
47.7149 1244 35.2704
47.8324 1202 34.6699
47.95 1150 33.9116
48.0675 1143 33.8083
48.1851 1044 32.311
48.3027 1049 32.3883
48.4202 1156 34
48.5378 1276 35.7211
48.6554 1319 36.318
48.7729 1274 35.6931
48.8904 1358 36.8511
49.008 1284 35.8329
49.1255 1366 36.9594
49.243 1245 35.2846
49.3605 1191 34.5109
49.478 1106 33.2566
49.5955 1012 31.8119
49.713 1050 32.4037
49.8304 1049 32.3883
49.9479 1111 33.3317
50.0653 1205 34.7131
50.1827 1180 34.3511
50.3001 1320 36.3318
50.4175 1341 36.6197
50.5348 1282 35.805
50.6521 1386 37.229
50.7694 1394 37.3363
50.8867 1387 37.2424
51.004 1345 36.6742
51.1212 1374 37.0675
51.2384 1385 37.2156
51.3556 1328 36.4417
51.4727 1237 35.171
51.5899 1180 34.3511
51.707 1206 34.7275
51.824 1295 35.9861
51.9411 1411 37.5633
52.0581 1515 38.923
52.175 1620 40.2492
52.2919 1737 41.6773
52.4088 1800 42.4264
52.5257 1830 42.7785
52.6425 1895 43.5316
52.7593 1872 43.2666
52.876 1790 42.3084
52.9927 1744 41.7612
53.1094 1568 39.598
53.226 1575 39.6863
53.3426 1503 38.7685
53.4591 1506 38.8072
53.5756 1521 39
53.692 1528 39.0896
53.8084 1529 39.1024
53.9248 1509 38.8458
54.0411 1447 38.0395
54.1573 1450 38.0789
54.2735 0 1
54.3896 0 1
54.5057 0 1
54.6217 0 1
54.7377 0 1
54.8537 0 1
54.9695 0 1
55.0853 0 1
55.2011 0 1
55.3168 0 1
55.4324 0 1
57.824 0 1
57.9396 0 1
58.0553 0 1
58.1711 0 1
58.2869 0 1
58.4028 0 1
58.5187 0 1
58.6347 0 1
58.7508 0 1
58.8669 0 1
58.983 1064 32.619
59.0992 1219 34.9142
59.2155 1183 34.3948
59.3318 1399 37.4032
59.4482 1477 38.4318
59.5646 1480 38.4708
59.681 1582 39.7744
59.7975 1448 38.0526
59.9141 1538 39.2173
60.0306 1529 39.1024
60.1473 1490 38.6005
60.2639 1453 38.1182
60.3807 1326 36.4143
60.4974 1393 37.3229
60.6142 1462 38.2361
60.731 1623 40.2865
60.8479 1574 39.6737
60.9648 1638 40.4722
61.0818 1640 40.4969
61.1987 1641 40.5093
61.3158 1678 40.9634
61.4328 1591 39.8873
61.5499 1568 39.598
61.667 1322 36.3593
61.7841 1342 36.6333
61.9013 1274 35.6931
62.0185 1256 35.4401
62.1357 1356 36.8239
62.253 1434 37.8682
62.3702 1536 39.1918
62.4875 1602 40.025
62.6049 1604 40.05
62.7222 1567 39.5854
62.8396 1660 40.7431
62.9569 1624 40.2989
63.0743 1618 40.2244
63.1918 1593 39.9124
63.3092 1562 39.5221
63.4267 1590 39.8748
63.5441 1507 38.8201
63.6616 1500 38.7298
63.7791 1367 36.973
63.8966 1364 36.9324
64.0142 1371 37.027
64.1317 1405 37.4833
64.2492 1543 39.281
64.3668 1603 40.0375
64.4843 1664 40.7922
64.6019 1663 40.7799
64.7195 1560 39.4968
64.837 1694 41.1582
64.9546 1614 40.1746
65.0722 1537 39.2046
65.1898 1343 36.647
65.3074 1398 37.3898
65.4249 1291 35.9305
65.5425 1198 34.6121
65.6601 1161 34.0735
65.7777 1296 36
65.8952 1444 38
66.0128 1452 38.1051
66.1304 1599 39.9875
66.2479 1639 40.4846
66.3655 1649 40.6079
66.483 1652 40.6448
66.6005 1618 40.2244
66.718 1582 39.7744
66.8355 1547 39.3319
66.953 1497 38.6911
67.0705 1545 39.3065
67.1879 1503 38.7685
67.3054 1430 37.8153
67.4228 1277 35.7351
67.5402 1305 36.1248
67.6576 1271 35.6511
67.7749 1351 36.756
67.8923 1387 37.2424
68.0096 1557 39.4588
68.1269 1576 39.6989
68.2442 1585 39.8121
68.3614 1542 39.2683
68.4787 1565 39.5601
68.5958 1579 39.7366
68.713 1484 38.5227
68.8302 1496 38.6782
68.9473 1287 35.8748
69.0643 1190 34.4964
69.1814 1186 34.4384
69.2984 1217 34.8855
69.4154 1281 35.7911
69.5323 1361 36.8917
69.6492 1437 37.9078
69.7661 1489 38.5876
69.8829 1463 38.2492
69.9997 1479 38.4578
70.1165 1460 38.2099
70.2332 1398 37.3898
70.3499 1387 37.2424
70.4665 1304 36.1109
70.5831 1244 35.2704
70.6996 1194 34.5543
70.8161 1107 33.2716
70.9326 995 31.5436
71.049 890 29.8329
71.1653 773 27.8029
71.2817 625 25
71.3979 642 25.3377
71.5141 576 24
71.6303 556 23.5797
71.7464 504 22.4499
71.8624 0 1
71.9784 0 1
72.0944 0 1
72.2102 0 1
72.3261 0 1
72.4418 0 1
72.5575 0 1
72.6732 0 1
75.1054 0 1
75.2209 0 1
75.3365 0 1
75.4521 0 1
75.5678 0 1
75.6835 0 1
75.7993 0 1
75.9151 0 1
76.031 0 1
76.147 935 30.5778
76.263 997 31.5753
76.3791 997 31.5753
76.4952 984 31.3688
76.6113 976 31.241
76.7276 1112 33.3467
76.8438 1133 33.6601
76.9601 1219 34.9142
77.0765 1399 37.4032
77.1929 1407 37.51
77.3093 1308 36.1663
77.4258 1376 37.0945
77.5423 1389 37.2693
77.6589 1352 36.7696
77.7755 1184 34.4093
77.8921 1145 33.8378
78.0088 1097 33.121
78.1256 943 30.7083
78.2423 956 30.9192
78.3591 1038 32.218
78.4759 1151 33.9264
78.5928 1220 34.9285
78.7097 1314 36.2491
78.8266 1351 36.756
78.9436 1317 36.2905
79.0606 1362 36.9053
79.1776 1402 37.4433
79.2946 1358 36.8511
79.4117 1340 36.606
79.5288 1331 36.4829
79.6459 1417 37.6431
79.7631 1368 36.9865
79.8802 1221 34.9428
79.9974 1189 34.4819
80.1147 1032 32.1248
80.2319 1086 32.9545
80.3491 1080 32.8634
80.4664 1238 35.1852
80.5837 1289 35.9026
80.701 1344 36.6606
80.8183 1519 38.9744
80.9357 1424 37.7359
81.053 1445 38.0132
81.1704 1492 38.6264
81.2877 1420 37.6829
81.4051 1388 37.2559
81.5225 1210 34.7851
81.6399 1224 34.9857
81.7573 1091 33.0303
81.8747 1027 32.0468
81.9922 1063 32.6037
82.1096 1140 33.7639
82.227 1242 35.242
82.3444 1303 36.0971
82.4619 1378 37.1214
82.5793 1401 37.4299
82.6967 1433 37.855
82.8142 1397 37.3765
82.9316 1508 38.833
83.049 1418 37.6563
83.1664 1484 38.5227
83.2838 1421 37.6962
83.4012 1407 37.51
83.5186 1353 36.7831
83.636 1275 35.7071
83.7534 1228 35.0428
83.8708 1106 33.2566
83.9881 1142 33.7935
84.1055 1114 33.3766
84.2228 1199 34.6266
84.3401 1391 37.2961
84.4575 1402 37.4433
84.5747 1477 38.4318
84.692 1449 38.0657
84.8093 1463 38.2492
84.9265 1449 38.0657
85.0437 1413 37.5899
85.1609 1344 36.6606
85.2781 1112 33.3467
85.3952 1077 32.8177
85.5123 1000 31.6228
85.6294 1000 31.6228
85.7465 1117 33.4215
85.8636 1198 34.6121
85.9806 1429 37.8021
86.0976 1416 37.6298
86.2145 1363 36.9188
86.3315 1394 37.3363
86.4484 1465 38.2753
86.5652 1491 38.6135
86.682 1482 38.4968
86.7988 1391 37.2961
86.9156 1471 38.3536
87.0323 1480 38.4708
87.149 1420 37.6829
87.2657 1348 36.7151
87.3823 1126 33.5559
87.4988 1035 32.1714
87.6154 959 30.9677
87.7318 1003 31.6702
87.8483 1063 32.6037
87.9647 1121 33.4813
88.081 1125 33.541
88.1973 1118 33.4365
88.3136 1088 32.9848
88.4298 1001 31.6386
88.546 947 30.7734
88.6621 846 29.0861
88.7781 698 26.4197
88.8942 0 1
89.0101 0 1
89.126 0 1
89.2419 0 1
89.3577 0 1
89.4734 0 1
89.5891 0 1
89.7047 0 1
89.8203 0 1
89.9358 0 1
92.3269 0 1
92.4424 0 1
92.558 0 1
92.6736 0 1
92.7893 0 1
92.905 0 1
93.0208 0 1
93.1366 0 1
93.2525 0 1
93.3685 0 1
93.4845 0 1
93.6005 1012 31.8119
93.7167 1129 33.6006
93.8328 1240 35.2136
93.949 1287 35.8748
94.0653 1272 35.6651
94.1816 1251 35.3695
94.2979 1256 35.4401
94.4143 1172 34.2345
94.5307 1099 33.1512
94.6472 1054 32.4654
94.7637 1127 33.5708
94.8803 1132 33.6452
94.9969 1351 36.756
95.1135 1365 36.9459
95.2302 1341 36.6197
95.3469 1360 36.8782
95.4637 1437 37.9078
95.5805 1569 39.6106
95.6973 1457 38.1707
95.8142 1473 38.3797
95.9311 1500 38.7298
96.048 1509 38.8458
96.1649 1448 38.0526
96.2819 1431 37.8286
96.3989 1367 36.973
96.516 1343 36.647
96.633 1249 35.3412
96.7501 1170 34.2053
96.8673 1128 33.5857
96.9844 1240 35.2136
97.1016 1287 35.8748
97.2188 1415 37.6165
97.336 1489 38.5876
97.4532 1535 39.1791
97.5704 1542 39.2683
97.6877 1550 39.37
97.805 1486 38.5487
97.9223 1362 36.9053
98.0396 1249 35.3412
98.1569 1166 34.1467
98.2743 1071 32.7261
98.3916 1111 33.3317
98.509 1156 34
98.6264 1279 35.7631
98.7438 1319 36.318
98.8612 1473 38.3797
98.9786 1382 37.1753
99.096 1515 38.923
99.2134 1562 39.5221
99.3308 1485 38.5357
99.4482 1574 39.6737
99.5656 1576 39.6989
99.6831 1497 38.6911
99.8005 1514 38.9102
99.9179 1551 39.3827
100.035 1508 38.833
100.153 1317 36.2905
100.27 1283 35.819
100.388 1257 35.4542
100.505 1299 36.0416
100.622 1404 37.47
100.74 1485 38.5357
100.857 1562 39.5221
100.975 1566 39.5727
101.092 1587 39.8372
101.209 1570 39.6232
101.327 1571 39.6358
101.444 1563 39.5348
101.561 1345 36.6742
101.679 1309 36.1801
101.796 1236 35.1568
101.913 1160 34.0588
102.03 1195 34.5688
102.148 1303 36.0971
102.265 1384 37.2022
102.382 1410 37.55
102.499 1549 39.3573
102.616 1649 40.6079
102.733 1674 40.9145
102.851 1656 40.694
102.968 1659 40.7308
103.085 1633 40.4104
103.202 1719 41.4608
103.319 1603 40.0375
103.436 1637 40.4599
103.552 1553 39.4081
103.669 1465 38.2753
103.786 1376 37.0945
103.903 1427 37.7757
104.02 1392 37.3095
104.137 1454 38.1314
104.253 1561 39.5095
104.37 1680 40.9878
104.487 1661 40.7554
104.603 1602 40.025
104.72 1630 40.3733
104.836 1622 40.2741
104.953 1481 38.4838
105.069 1369 37
105.186 1235 35.1426
105.302 1143 33.8083
105.418 1035 32.1714
105.535 1042 32.28
105.651 1033 32.1403
105.767 1017 31.8904
105.883 1092 33.0454
105.999 1012 31.8119
106.115 0 1
106.231 0 1
106.347 0 1
106.463 0 1
106.579 0 1
106.694 0 1
106.81 0 1
106.926 0 1
107.041 0 1
107.157 0 1
109.576 0 1
109.692 0 1
109.807 0 1
109.923 0 1
110.039 0 1
110.155 0 1
110.27 0 1
110.386 0 1
110.502 0 1
110.618 671 25.9037
110.735 898 29.9666
110.851 1053 32.45
110.967 1116 33.4066
111.083 1269 35.623
111.199 1336 36.5513
111.316 1410 37.55
111.432 1467 38.3014
111.549 1506 38.8072
111.665 1538 39.2173
111.782 1631 40.3856
111.898 1492 38.6264
112.015 1499 38.7169
112.132 1427 37.7757
112.248 1323 36.3731
112.365 1270 35.6371
112.482 1344 36.6606
112.599 1347 36.7015
112.716 1377 37.108
112.832 1547 39.3319
112.949 1595 39.9375
113.066 1609 40.1123
113.183 1582 39.7744
113.3 1594 39.9249
113.417 1606 40.0749
113.534 1570 39.6232
113.652 1388 37.2559
113.769 1204 34.6987
113.886 1168 34.176
114.003 1134 33.6749
114.12 1153 33.9559
114.238 1246 35.2987
114.355 1350 36.7423
114.472 1504 38.7814
114.589 1540 39.2428
114.707 1546 39.3192
114.824 1556 39.4462
114.942 1640 40.4969
115.059 1632 40.398
115.176 1671 40.8779
115.294 1663 40.7799
115.411 1574 39.6737
115.529 1569 39.6106
115.646 1509 38.8458
115.764 1379 37.1349
115.881 1370 37.0135
115.999 1289 35.9026
116.116 1372 37.0405
116.234 1426 37.7624
116.351 1473 38.3797
116.469 1563 39.5348
116.586 1643 40.5339
116.704 1631 40.3856
116.821 1610 40.1248
116.939 1517 38.9487
117.056 1555 39.4335
117.174 1518 38.9615
117.291 1295 35.9861
117.409 1230 35.0714
117.526 1152 33.9411
117.644 1136 33.7046
117.761 1226 35.0143
117.879 1417 37.6431
117.996 1429 37.8021
118.114 1464 38.2623
118.231 1536 39.1918
118.349 1544 39.2938
118.466 1529 39.1024
118.584 1570 39.6232
118.701 1582 39.7744
118.819 1559 39.4842
118.936 1521 39
119.053 1482 38.4968
119.171 1444 38
119.288 1408 37.5233
119.405 1370 37.0135
119.523 1251 35.3695
119.64 1202 34.6699
119.757 1244 35.2704
119.875 1306 36.1386
119.992 1383 37.1887
120.109 1434 37.8682
120.226 1507 38.8201
120.343 1534 39.1663
120.46 1468 38.3145
120.578 1496 38.6782
120.695 1477 38.4318
120.812 1377 37.108
120.929 1288 35.8887
121.046 1229 35.0571
121.163 1082 32.8938
121.279 1088 32.9848
121.396 1106 33.2566
121.513 1164 34.1174
121.63 1173 34.2491
121.747 1187 34.4529
121.863 1188 34.4674
121.98 1283 35.819
122.097 1209 34.7707
122.213 1156 34
122.33 1144 33.8231
122.446 1105 33.2415
122.563 1155 33.9853
122.679 1001 31.6386
122.795 924 30.3974
122.912 910 30.1662
123.028 776 27.8568
123.144 705 26.5518
123.26 589 24.2693
123.377 0 1
123.493 0 1
123.609 0 1
123.725 0 1
123.84 0 1
123.956 0 1
124.072 0 1
124.188 0 1
124.303 0 1
124.419 0 1
126.852 0 1
126.968 0 1
127.083 0 1
127.199 0 1
127.315 0 1
127.431 0 1
127.547 0 1
127.663 0 1
127.779 0 1
127.895 0 1
128.011 0 1
128.127 0 1
128.243 0 1
128.359 1399 37.4032
128.476 1385 37.2156
128.592 1409 37.5366
128.708 1378 37.1214
128.825 1362 36.9053
128.941 1458 38.1838
129.058 1493 38.6394
129.174 1551 39.3827
129.291 1650 40.6202
129.408 1604 40.05
129.524 1656 40.694
129.641 1549 39.3573
129.758 1534 39.1663
129.875 1444 38
129.992 1391 37.2961
130.108 1319 36.318
130.225 1204 34.6987
130.342 1120 33.4664
130.459 1236 35.1568
130.576 1286 35.8608
130.693 1389 37.2693
130.81 1552 39.3954
130.928 1470 38.3406
131.045 1612 40.1497
131.162 1547 39.3319
131.279 1566 39.5727
131.396 1595 39.9375
131.513 1598 39.975
131.631 1517 38.9487
131.748 1518 38.9615
131.865 1595 39.9375
131.983 1466 38.2884
132.1 1389 37.2693
132.217 1405 37.4833
132.335 1395 37.3497
132.452 1407 37.51
132.57 1513 38.8973
132.687 1510 38.8587
132.804 1589 39.8623
132.922 1654 40.6694
133.039 1683 41.0244
133.157 1660 40.7431
133.274 1659 40.7308
133.392 1671 40.8779
133.509 1441 37.9605
133.627 1315 36.2629
133.744 1344 36.6606
133.862 1197 34.5977
133.979 1213 34.8281
134.097 1273 35.6791
134.214 1424 37.7359
134.332 1494 38.6523
134.449 1532 39.1408
134.567 1566 39.5727
134.684 1608 40.0999
134.802 1582 39.7744
134.919 1628 40.3485
135.037 1572 39.6485
135.154 1558 39.4715
135.272 1504 38.7814
135.389 1525 39.0512
135.507 1494 38.6523
135.624 1473 38.3797
135.742 1366 36.9594
135.859 1375 37.081
135.977 1447 38.0395
136.094 1472 38.3667
136.211 1510 38.8587
136.329 1577 39.7115
136.446 1586 39.8246
136.564 1629 40.3609
136.681 1670 40.8656
136.798 1620 40.2492
136.915 1655 40.6817
137.033 1543 39.281
137.15 1499 38.7169
137.267 1351 36.756
137.384 1302 36.0832
137.502 1149 33.8969
137.619 1265 35.5668
137.736 1372 37.0405
137.853 1386 37.229
137.97 1464 38.2623
138.087 1570 39.6232
138.204 1529 39.1024
138.321 1595 39.9375
138.438 1538 39.2173
138.555 1607 40.0874
138.672 1602 40.025
138.788 1533 39.1535
138.905 1421 37.6962
139.022 1402 37.4433
139.139 1303 36.0971
139.255 1205 34.7131
139.372 1219 34.9142
139.488 1102 33.1964
139.605 1044 32.311
139.721 996 31.5595
139.838 1042 32.28
139.954 1058 32.5269
140.071 1022 31.9687
140.187 892 29.8664
140.303 913 30.2159
140.419 858 29.2916
140.535 752 27.4226
140.652 726 26.9444
140.768 0 1
140.884 0 1
141 0 1
141.115 0 1
141.231 0 1
141.347 0 1
141.463 0 1
141.578 0 1
141.694 0 1
144.104 0 1
144.219 0 1
144.335 0 1
144.45 0 1
144.566 0 1
144.682 0 1
144.798 0 1
144.914 0 1
145.03 0 1
145.146 1091 33.0303
145.262 1229 35.0571
145.378 1304 36.1109
145.494 1286 35.8608
145.61 1252 35.3836
145.726 1267 35.5949
145.842 1211 34.7994
145.959 1167 34.1614
146.075 1100 33.1662
146.192 998 31.5911
146.308 1035 32.1714
146.425 1027 32.0468
146.541 1058 32.5269
146.658 1181 34.3657
146.774 1127 33.5708
146.891 1193 34.5398
147.008 1228 35.0428
147.125 1237 35.171
147.241 1242 35.242
147.358 1286 35.8608
147.475 1295 35.9861
147.592 1306 36.1386
147.709 1175 34.2783
147.826 1190 34.4964
147.943 1208 34.7563
148.06 1204 34.6987
148.177 1134 33.6749
148.294 1106 33.2566
148.411 1116 33.4066
148.528 1147 33.8674
148.645 1212 34.8138
148.762 1236 35.1568
148.88 1319 36.318
148.997 1274 35.6931
149.114 1258 35.4683
149.231 1279 35.7631
149.349 1271 35.6511
149.466 1221 34.9428
149.583 1137 33.7194
149.701 1104 33.2265
149.818 987 31.4166
149.935 984 31.3688
150.053 1067 32.665
150.17 1003 31.6702
150.287 1052 32.4345
150.405 1115 33.3916
150.522 1181 34.3657
150.64 1133 33.6601
150.757 1145 33.8378
150.875 1174 34.2637
150.992 1190 34.4964
151.11 1228 35.0428
151.227 1206 34.7275
151.344 1187 34.4529
151.462 1123 33.5112
151.579 1104 33.2265
151.697 1067 32.665
151.814 1089 33
151.932 1052 32.4345
152.049 1110 33.3167
152.167 1072 32.7414
152.284 1074 32.7719
152.402 1197 34.5977
152.519 1175 34.2783
152.636 1211 34.7994
152.754 1216 34.8712
152.871 1212 34.8138
152.989 1202 34.6699
153.106 1223 34.9714
153.223 1080 32.8634
153.341 998 31.5911
153.458 931 30.5123
153.575 949 30.8058
153.693 945 30.7409
153.81 1004 31.686
153.927 998 31.5911
154.044 1082 32.8938
154.162 1073 32.7567
154.279 1061 32.573
154.396 1078 32.8329
154.513 1122 33.4963
154.63 1106 33.2566
154.747 1119 33.4515
154.864 1126 33.5559
154.981 1064 32.619
155.098 1059 32.5423
155.215 1027 32.0468
155.332 987 31.4166
155.449 989 31.4484
155.566 986 31.4006
155.683 949 30.8058
155.8 987 31.4166
155.917 991 31.4802
156.033 1024 32
156.15 0 1
156.267 0 1
156.383 0 1
156.5 0 1
156.617 0 1
156.733 0 1
156.85 0 1
156.966 0 1
157.082 0 1
157.199 0 1
157.315 0 1
157.431 0 1
157.547 0 1
157.664 0 1
157.78 0 1
157.896 0 1
158.012 0 1
158.128 0 1
158.244 0 1
158.359 0 1
158.475 0 1
158.591 0 1
158.706 0 1
