
6.15755 0 1
6.2731 0 1
6.3887 0 1
6.50437 0 1
6.62009 0 1
6.73587 0 1
6.8517 0 1
6.96759 0 1
7.08353 0 1
7.19952 0 1
7.31557 0 1
7.43166 0 1
7.54781 0 1
7.664 0 1
7.78024 0 1
7.89653 0 1
8.01286 0 1
8.12924 0 1
8.24567 0 1
8.36213 0 1
8.47864 0 1
8.59519 0 1
8.71178 0 1
8.82841 0 1
8.94508 0 1
9.06179 0 1
9.17853 0 1
9.29531 0 1
9.41212 0 1
9.52897 0 1
9.64584 0 1
9.76276 0 1
9.8797 0 1
9.99667 0 1
10.1137 0 1
10.2307 0 1
10.3478 0 1
10.4648 0 1
10.5819 0 1
10.6991 0 1
10.8162 0 1
10.9334 0 1
11.0506 0 1
11.1678 0 1
11.285 0 1
11.4023 0 1
11.5196 0 1
11.6369 0 1
11.7542 0 1
11.8715 0 1
11.9888 0 1
12.1062 0 1
12.2235 0 1
12.3409 0 1
12.4582 0 1
12.5756 0 1
12.693 0 1
12.8104 0 1
12.9278 0 1
13.0452 0 1
13.1626 0 1
13.28 0 1
13.3974 0 1
13.5149 0 1
13.6323 0 1
13.7497 0 1
13.8671 0 1
13.9845 0 1
14.1019 0 1
14.2193 0 1
14.3367 0 1
14.4541 0 1
14.5714 0 1
14.6888 0 1
14.8062 0 1
14.9235 0 1
15.0408 0 0
15.1581 0 0
15.2755 0 0
15.3927 0 0
15.51 0 0
15.6273 0 0
15.7445 0 0
15.8617 0 0
15.9789 0 0
16.0961 0 0
16.2132 0 0
16.3304 0 0
16.4475 0 0
16.5646 0 0
16.6816 0 0
16.7986 0 0
16.9156 0 0
17.0326 0 0
17.1496 0 0
17.2665 0 0
17.3833 0 0
17.5002 0 0
17.617 0 0
17.7338 0 0
17.8505 0 0
17.9672 0 0
18.0839 0 0
18.2005 0 0
18.3171 0 0
18.4337 0 0
18.5502 0 0
18.6666 0 0
18.7831 0 0
18.8994 0 0
19.0158 0 0
19.1321 0 0
19.2483 0 0
19.3645 0 0
19.4806 0 0
19.5967 0 0
19.7128 0 0
19.8288 0 0
19.9447 0 0
20.0606 0 1
20.1764 0 1
20.2922 0 1
20.4079 0 1
20.5236 0 1
20.6392 0 1
20.7548 0 1
20.8702 0 1
23.3078 0 1
23.4233 0 1
23.539 0 1
23.6547 0 1
23.7704 0 1
23.8862 0 1
24.0021 0 1
24.118 0 1
24.234 0 1
24.35 0 1
24.4661 1196 34.5832
24.5822 1206 34.7275
24.6984 1309 36.1801
24.8146 1249 35.3412
24.9309 1245 35.2846
25.0472 1205 34.7131
25.1636 1181 34.3657
25.28 1189 34.4819
25.3965 1214 34.8425
25.513 1236 35.1568
25.6296 1232 35.0999
25.7462 1381 37.1618
25.8628 1368 36.9865
25.9795 1316 36.2767
26.0962 1388 37.2559
26.213 1374 37.0675
26.3298 1355 36.8103
26.4466 1288 35.8887
26.5635 1350 36.7423
26.6804 1291 35.9305
26.7973 1321 36.3456
26.9143 1266 35.5809
27.0313 1322 36.3593
27.1483 1450 38.0789
27.2653 1341 36.6197
27.3824 1398 37.3898
27.4996 1403 37.4566
27.6167 1394 37.3363
27.7339 1362 36.9053
27.8511 1332 36.4966
27.9683 1294 35.9722
28.0855 1312 36.2215
28.2028 1315 36.2629
28.3201 1161 34.0735
28.4374 1195 34.5688
28.5547 1225 35
28.6721 1142 33.7935
28.7894 1218 34.8999
28.9068 1150 33.9116
29.0242 1171 34.2199
29.1416 1178 34.322
29.259 1243 35.2562
29.3764 1296 36
29.4939 1259 35.4824
29.6113 1333 36.5103
29.7288 1309 36.1801
29.8463 1221 34.9428
29.9638 1287 35.8748
30.0812 1225 35
30.1987 1191 34.5109
30.3162 1201 34.6554
30.4337 1225 35
30.5512 1251 35.3695
30.6687 1284 35.8329
30.7862 1308 36.1663
30.9037 1282 35.805
31.0212 1330 36.4692
31.1387 1370 37.0135
31.2562 1355 36.8103
31.3737 1357 36.8375
31.4912 1311 36.2077
31.6087 1279 35.7631
31.7262 1221 34.9428
31.8436 1237 35.171
31.9611 1161 34.0735
32.0785 1152 33.9411
32.1959 1091 33.0303
32.3134 1131 33.6303
32.4308 1103 33.2114
32.5482 1097 33.121
32.6655 1162 34.0881
32.7829 1263 35.5387
32.9002 1247 35.3129
33.0176 1201 34.6554
33.1349 1333 36.5103
33.2522 1269 35.623
33.3694 1325 36.4005
33.4867 1206 34.7275
33.6039 1282 35.805
33.7211 1216 34.8712
33.8383 1184 34.4093
33.9554 1174 34.2637
34.0725 1199 34.6266
34.1896 1194 34.5543
34.3067 1239 35.1994
34.4237 1206 34.7275
34.5407 1299 36.0416
34.6577 1294 35.9722
34.7746 1271 35.6511
34.8915 1265 35.5668
35.0084 1315 36.2629
35.1252 1263 35.5387
35.242 1195 34.5688
35.3587 1248 35.327
35.4755 1272 35.6651
35.5921 1118 33.4365
35.7088 1117 33.4215
35.8254 1059 32.5423
35.9419 992 31.496
36.0584 1062 32.5883
36.1749 1136 33.7046
36.2913 1085 32.9393
36.4077 1116 33.4066
36.524 1147 33.8674
36.6403 1202 34.6699
36.7565 1213 34.8281
36.8727 1228 35.0428
36.9889 1266 35.5809
37.1049 1239 35.1994
37.221 0 1
37.3369 0 1
37.4529 0 1
37.5687 0 1
37.6845 0 1
37.8003 0 1
37.916 0 1
38.0316 0 1
38.1472 0 1
40.5851 0 1
40.7008 0 1
40.8164 0 1
40.9322 0 1
41.048 0 1
41.1639 0 1
41.2798 0 1
41.3958 0 1
41.5118 0 1
41.6279 0 1
41.744 897 29.95
41.8602 921 30.348
41.9765 969 31.1288
42.0928 981 31.3209
42.2091 1024 32
42.3255 1043 32.2955
42.4419 956 30.9192
42.5584 944 30.7246
42.675 854 29.2233
42.7915 837 28.931
42.9081 905 30.0832
43.0248 963 31.0322
43.1415 949 30.8058
43.2582 939 30.6431
43.375 997 31.5753
43.4918 989 31.4484
43.6087 974 31.209
43.7256 959 30.9677
43.8425 973 31.1929
43.9595 942 30.692
44.0765 896 29.9333
44.1935 871 29.5127
44.3106 880 29.6648
44.4277 823 28.688
44.5448 735 27.1109
44.6619 712 26.6833
44.7791 690 26.2679
44.8963 721 26.8514
45.0136 684 26.1534
45.1308 686 26.1916
45.2481 645 25.3969
45.3654 727 26.9629
45.4827 712 26.6833
45.6001 730 27.0185
45.7174 758 27.5318
45.8348 764 27.6405
45.9522 683 26.1343
46.0697 708 26.6083
46.1871 613 24.7588
46.3046 642 25.3377
46.422 637 25.2389
46.5395 656 25.6125
46.657 658 25.6515
46.7745 695 26.3629
46.892 723 26.8887
47.0096 733 27.074
47.1271 762 27.6043
47.2446 677 26.0192
47.3622 694 26.3439
47.4797 733 27.074
47.5973 698 26.4197
47.7149 613 24.7588
47.8324 681 26.096
47.95 595 24.3926
48.0675 557 23.6008
48.1851 591 24.3105
48.3027 515 22.6936
48.4202 473 21.7486
48.5378 486 22.0454
48.6554 474 21.7715
48.7729 536 23.1517
48.8904 559 23.6432
49.008 561 23.6854
49.1255 586 24.2074
49.243 616 24.8193
49.3605 560 23.6643
49.478 559 23.6432
49.5955 544 23.3238
49.713 515 22.6936
49.8304 505 22.4722
49.9479 506 22.4944
50.0653 506 22.4944
50.1827 571 23.8956
50.3001 623 24.96
50.4175 640 25.2982
50.5348 671 25.9037
50.6521 635 25.1992
50.7694 704 26.533
50.8867 717 26.7769
51.004 723 26.8887
51.1212 732 27.0555
51.2384 745 27.2947
51.3556 735 27.1109
51.4727 755 27.4773
51.5899 712 26.6833
51.707 736 27.1293
51.824 610 24.6982
51.9411 733 27.074
52.0581 678 26.0384
52.175 728 26.9815
52.2919 801 28.3019
52.4088 769 27.7308
52.5257 813 28.5132
52.6425 890 29.8329
52.7593 898 29.9666
52.876 905 30.0832
52.9927 878 29.6311
53.1094 874 29.5635
53.226 782 27.9643
53.3426 856 29.2575
53.4591 813 28.5132
53.5756 857 29.2746
53.692 921 30.348
53.8084 966 31.0805
53.9248 987 31.4166
54.0411 1061 32.573
54.1573 1140 33.7639
54.2735 0 1
54.3896 0 1
54.5057 0 1
54.6217 0 1
54.7377 0 1
54.8537 0 1
54.9695 0 1
55.0853 0 1
55.2011 0 1
55.3168 0 1
55.4324 0 1
57.824 0 1
57.9396 0 1
58.0553 0 1
58.1711 0 1
58.2869 0 1
58.4028 0 1
58.5187 0 1
58.6347 0 1
58.7508 0 1
58.8669 0 1
58.983 1087 32.9697
59.0992 1155 33.9853
59.2155 1173 34.2491
59.3318 1298 36.0278
59.4482 1260 35.4965
59.5646 1314 36.2491
59.681 1279 35.7631
59.7975 1297 36.0139
59.9141 1201 34.6554
60.0306 1240 35.2136
60.1473 1161 34.0735
60.2639 1107 33.2716
60.3807 1029 32.078
60.4974 1026 32.0312
60.6142 953 30.8707
60.731 977 31.257
60.8479 977 31.257
60.9648 1053 32.45
61.0818 1044 32.311
61.1987 1154 33.9706
61.3158 1049 32.3883
61.4328 1071 32.7261
61.5499 1086 32.9545
61.667 1020 31.9374
61.7841 995 31.5436
61.9013 887 29.7825
62.0185 937 30.6105
62.1357 948 30.7896
62.253 1034 32.1559
62.3702 1146 33.8526
62.4875 1157 34.0147
62.6049 1208 34.7563
62.7222 1293 35.9583
62.8396 1284 35.8329
62.9569 1248 35.327
63.0743 1279 35.7631
63.1918 1236 35.1568
63.3092 1297 36.0139
63.4267 1255 35.426
63.5441 1156 34
63.6616 1174 34.2637
63.7791 1092 33.0454
63.8966 947 30.7734
64.0142 972 31.1769
64.1317 956 30.9192
64.2492 928 30.4631
64.3668 1028 32.0624
64.4843 1111 33.3317
64.6019 1102 33.1964
64.7195 1146 33.8526
64.837 1182 34.3802
64.9546 1161 34.0735
65.0722 1168 34.176
65.1898 1100 33.1662
65.3074 1079 32.8481
65.4249 933 30.545
65.5425 884 29.7321
65.6601 905 30.0832
65.7777 998 31.5911
65.8952 1066 32.6497
66.0128 1147 33.8674
66.1304 1142 33.7935
66.2479 1199 34.6266
66.3655 1242 35.242
66.483 1268 35.609
66.6005 1294 35.9722
66.718 1283 35.819
66.8355 1268 35.609
66.953 1189 34.4819
67.0705 1193 34.5398
67.1879 1084 32.9242
67.3054 1078 32.8329
67.4228 964 31.0483
67.5402 912 30.1993
67.6576 871 29.5127
67.7749 865 29.4109
67.8923 898 29.9666
68.0096 961 31
68.1269 945 30.7409
68.2442 1064 32.619
68.3614 1032 32.1248
68.4787 1057 32.5115
68.5958 1048 32.3728
68.713 1021 31.9531
68.8302 956 30.9192
68.9473 896 29.9333
69.0643 879 29.6479
69.1814 788 28.0713
69.2984 861 29.3428
69.4154 953 30.8707
69.5323 1054 32.4654
69.6492 1007 31.7333
69.7661 1085 32.9393
69.8829 1191 34.5109
69.9997 1202 34.6699
70.1165 1193 34.5398
70.2332 1216 34.8712
70.3499 1234 35.1283
70.4665 1246 35.2987
70.5831 1194 34.5543
70.6996 1186 34.4384
70.8161 1119 33.4515
70.9326 1043 32.2955
71.049 941 30.6757
71.1653 911 30.1828
71.2817 858 29.2916
71.3979 831 28.8271
71.5141 852 29.189
71.6303 893 29.8831
71.7464 804 28.3549
71.8624 0 1
71.9784 0 1
72.0944 0 1
72.2102 0 1
72.3261 0 1
72.4418 0 1
72.5575 0 1
72.6732 0 1
75.1054 0 1
75.2209 0 1
75.3365 0 1
75.4521 0 1
75.5678 0 1
75.6835 0 1
75.7993 0 1
75.9151 0 1
76.031 0 1
76.147 1010 31.7805
76.263 1114 33.3766
76.3791 1051 32.4191
76.4952 965 31.0644
76.6113 875 29.5804
76.7276 848 29.1204
76.8438 888 29.7993
76.9601 900 30
77.0765 972 31.1769
77.1929 1069 32.6956
77.3093 1050 32.4037
77.4258 1068 32.6803
77.5423 1157 34.0147
77.6589 1013 31.8277
77.7755 1000 31.6228
77.8921 860 29.3258
78.0088 807 28.4077
78.1256 744 27.2764
78.2423 770 27.7489
78.3591 809 28.4429
78.4759 936 30.5941
78.5928 1019 31.9218
78.7097 1107 33.2716
78.8266 1094 33.0757
78.9436 1212 34.8138
79.0606 1131 33.6303
79.1776 1187 34.4529
79.2946 1122 33.4963
79.4117 1156 34
79.5288 1138 33.7343
79.6459 1142 33.7935
79.7631 1141 33.7787
79.8802 981 31.3209
79.9974 967 31.0966
80.1147 866 29.4279
80.2319 847 29.1033
80.3491 764 27.6405
80.4664 775 27.8388
80.5837 868 29.4618
80.701 929 30.4795
80.8183 928 30.4631
80.9357 929 30.4795
81.053 976 31.241
81.1704 988 31.4325
81.2877 929 30.4795
81.4051 921 30.348
81.5225 862 29.3598
81.6399 771 27.7669
81.7573 700 26.4575
81.8747 670 25.8844
81.9922 770 27.7489
82.1096 762 27.6043
82.227 897 29.95
82.3444 961 31
82.4619 1043 32.2955
82.5793 976 31.241
82.6967 976 31.241
82.8142 1016 31.8748
82.9316 1040 32.249
83.049 1020 31.9374
83.1664 997 31.5753
83.2838 938 30.6268
83.4012 886 29.7658
83.5186 886 29.7658
83.636 908 30.133
83.7534 757 27.5136
83.8708 748 27.3496
83.9881 751 27.4044
84.1055 698 26.4197
84.2228 678 26.0384
84.3401 766 27.6767
84.4575 801 28.3019
84.5747 859 29.3087
84.692 974 31.209
84.8093 907 30.1164
84.9265 841 29
85.0437 797 28.2312
85.1609 656 25.6125
85.2781 667 25.8263
85.3952 644 25.3772
85.5123 688 26.2298
85.6294 779 27.9106
85.7465 811 28.4781
85.8636 861 29.3428
85.9806 1029 32.078
86.0976 994 31.5278
86.2145 1055 32.4808
86.3315 1109 33.3017
86.4484 1079 32.8481
86.5652 1137 33.7194
86.682 1159 34.0441
86.7988 1111 33.3317
86.9156 1089 33
87.0323 1051 32.4191
87.149 1017 31.8904
87.2657 923 30.3809
87.3823 887 29.7825
87.4988 880 29.6648
87.6154 887 29.7825
87.7318 902 30.0333
87.8483 900 30
87.9647 993 31.5119
88.081 1070 32.7109
88.1973 1153 33.9559
88.3136 1109 33.3017
88.4298 1084 32.9242
88.546 973 31.1929
88.6621 855 29.2404
88.7781 827 28.7576
88.8942 0 1
89.0101 0 1
89.126 0 1
89.2419 0 1
89.3577 0 1
89.4734 0 1
89.5891 0 1
89.7047 0 1
89.8203 0 1
89.9358 0 1
92.3269 0 1
92.4424 0 1
92.558 0 1
92.6736 0 1
92.7893 0 1
92.905 0 1
93.0208 0 1
93.1366 0 1
93.2525 0 1
93.3685 0 1
93.4845 0 1
93.6005 1060 32.5576
93.7167 1022 31.9687
93.8328 1038 32.218
93.949 1123 33.5112
94.0653 987 31.4166
94.1816 910 30.1662
94.2979 881 29.6816
94.4143 758 27.5318
94.5307 807 28.4077
94.6472 852 29.189
94.7637 898 29.9666
94.8803 988 31.4325
94.9969 1104 33.2265
95.1135 1161 34.0735
95.2302 1221 34.9428
95.3469 1248 35.327
95.4637 1260 35.4965
95.5805 1246 35.2987
95.6973 1277 35.7351
95.8142 1251 35.3695
95.9311 1291 35.9305
96.048 1208 34.7563
96.1649 1183 34.3948
96.2819 1059 32.5423
96.3989 1097 33.121
96.516 1040 32.249
96.633 952 30.8545
96.7501 930 30.4959
96.8673 968 31.1127
96.9844 967 31.0966
97.1016 988 31.4325
97.2188 1086 32.9545
97.336 1112 33.3467
97.4532 1172 34.2345
97.5704 1160 34.0588
97.6877 1012 31.8119
97.805 918 30.2985
97.9223 896 29.9333
98.0396 825 28.7228
98.1569 732 27.0555
98.2743 761 27.5862
98.3916 855 29.2404
98.509 1039 32.2335
98.6264 1082 32.8938
98.7438 1157 34.0147
98.8612 1162 34.0881
98.9786 1175 34.2783
99.096 1276 35.7211
99.2134 1231 35.0856
99.3308 1183 34.3948
99.4482 1244 35.2704
99.5656 1257 35.4542
99.6831 1114 33.3766
99.8005 1212 34.8138
99.9179 1153 33.9559
100.035 1047 32.3574
100.153 1048 32.3728
100.27 977 31.257
100.388 994 31.5278
100.505 1023 31.9844
100.622 1073 32.7567
100.74 1082 32.8938
100.857 1088 32.9848
100.975 1188 34.4674
101.092 1194 34.5543
101.209 1085 32.9393
101.327 1021 31.9531
101.444 900 30
101.561 821 28.6531
101.679 843 29.0345
101.796 868 29.4618
101.913 828 28.775
102.03 979 31.289
102.148 1124 33.5261
102.265 1179 34.3366
102.382 1218 34.8999
102.499 1249 35.3412
102.616 1340 36.606
102.733 1377 37.108
102.851 1372 37.0405
102.968 1348 36.7151
103.085 1335 36.5377
103.202 1297 36.0139
103.319 1253 35.3977
103.436 1208 34.7563
103.552 1176 34.2929
103.669 1097 33.121
103.786 1069 32.6956
103.903 1092 33.0454
104.02 1077 32.8177
104.137 1154 33.9706
104.253 1214 34.8425
104.37 1273 35.6791
104.487 1274 35.6931
104.603 1270 35.6371
104.72 1160 34.0588
104.836 1133 33.6601
104.953 999 31.607
105.069 922 30.3645
105.186 901 30.0167
105.302 904 30.0666
105.418 995 31.5436
105.535 1121 33.4813
105.651 1258 35.4683
105.767 1371 37.027
105.883 1494 38.6523
105.999 1444 38
106.115 0 1
106.231 0 1
106.347 0 1
106.463 0 1
106.579 0 1
106.694 0 1
106.81 0 1
106.926 0 1
107.041 0 1
107.157 0 1
109.576 0 1
109.692 0 1
109.807 0 1
109.923 0 1
110.039 0 1
110.155 0 1
110.27 0 1
110.386 0 1
110.502 0 1
110.618 1022 31.9687
110.735 1207 34.7419
110.851 1319 36.318
110.967 1413 37.5899
111.083 1433 37.855
111.199 1317 36.2905
111.316 1407 37.51
111.432 1435 37.8814
111.549 1361 36.8917
111.665 1370 37.0135
111.782 1237 35.171
111.898 1283 35.819
112.015 1197 34.5977
112.132 1099 33.1512
112.248 1116 33.4066
112.365 1092 33.0454
112.482 1034 32.1559
112.599 1165 34.1321
112.716 1117 33.4215
112.832 1145 33.8378
112.949 1162 34.0881
113.066 1195 34.5688
113.183 1165 34.1321
113.3 1119 33.4515
113.417 996 31.5595
113.534 932 30.5287
113.652 912 30.1993
113.769 880 29.6648
113.886 827 28.7576
114.003 887 29.7825
114.12 1029 32.078
114.238 1196 34.5832
114.355 1256 35.4401
114.472 1282 35.805
114.589 1326 36.4143
114.707 1321 36.3456
114.824 1350 36.7423
114.942 1323 36.3731
115.059 1327 36.428
115.176 1297 36.0139
115.294 1340 36.606
115.411 1212 34.8138
115.529 1265 35.5668
115.646 1175 34.2783
115.764 1115 33.3916
115.881 1148 33.8821
115.999 1141 33.7787
116.116 1088 32.9848
116.234 1197 34.5977
116.351 1172 34.2345
116.469 1187 34.4529
116.586 1322 36.3593
116.704 1172 34.2345
116.821 1182 34.3802
116.939 1126 33.5559
117.056 1037 32.2025
117.174 966 31.0805
117.291 963 31.0322
117.409 931 30.5123
117.526 952 30.8545
117.644 1064 32.619
117.761 1109 33.3017
117.879 1274 35.6931
117.996 1290 35.9166
118.114 1365 36.9459
118.231 1391 37.2961
118.349 1417 37.6431
118.466 1467 38.3014
118.584 1433 37.855
118.701 1332 36.4966
118.819 1388 37.2559
118.936 1349 36.7287
119.053 1290 35.9166
119.171 1291 35.9305
119.288 1259 35.4824
119.405 1161 34.0735
119.523 1179 34.3366
119.64 1128 33.5857
119.757 1191 34.5109
119.875 1184 34.4093
119.992 1247 35.3129
120.109 1229 35.0571
120.226 1244 35.2704
120.343 1206 34.7275
120.46 1140 33.7639
120.578 1055 32.4808
120.695 1100 33.1662
120.812 912 30.1993
120.929 954 30.8869
121.046 927 30.4467
121.163 942 30.692
121.279 988 31.4325
121.396 1106 33.2566
121.513 1226 35.0143
121.63 1305 36.1248
121.747 1323 36.3731
121.863 1352 36.7696
121.98 1346 36.6879
122.097 1389 37.2693
122.213 1417 37.6431
122.33 1438 37.921
122.446 1394 37.3363
122.563 1252 35.3836
122.679 1288 35.8887
122.795 1185 34.4238
122.912 1256 35.4401
123.028 1163 34.1028
123.144 1094 33.0757
123.26 1033 32.1403
123.377 0 1
123.493 0 1
123.609 0 1
123.725 0 1
123.84 0 1
123.956 0 1
124.072 0 1
124.188 0 1
124.303 0 1
124.419 0 1
126.852 0 1
126.968 0 1
127.083 0 1
127.199 0 1
127.315 0 1
127.431 0 1
127.547 0 1
127.663 0 1
127.779 0 1
127.895 0 1
128.011 0 1
128.127 0 1
128.243 0 1
128.359 1212 34.8138
128.476 1252 35.3836
128.592 1305 36.1248
128.708 1277 35.7351
128.825 1372 37.0405
128.941 1255 35.426
129.058 1381 37.1618
129.174 1306 36.1386
129.291 1330 36.4692
129.408 1278 35.7491
129.524 1237 35.171
129.641 1162 34.0881
129.758 1102 33.1964
129.875 1094 33.0757
129.992 1021 31.9531
130.108 1096 33.1059
130.225 1093 33.0606
130.342 1270 35.6371
130.459 1306 36.1386
130.576 1412 37.5766
130.693 1418 37.6563
130.81 1413 37.5899
130.928 1414 37.6032
131.045 1384 37.2022
131.162 1569 39.6106
131.279 1517 38.9487
131.396 1462 38.2361
131.513 1515 38.923
131.631 1430 37.8153
131.748 1352 36.7696
131.865 1304 36.1109
131.983 1342 36.6333
132.1 1349 36.7287
132.217 1315 36.2629
132.335 1398 37.3898
132.452 1453 38.1182
132.57 1431 37.8286
132.687 1335 36.5377
132.804 1417 37.6431
132.922 1329 36.4555
133.039 1246 35.2987
133.157 1274 35.6931
133.274 1132 33.6452
133.392 1059 32.5423
133.509 1124 33.5261
133.627 1040 32.249
133.744 1087 32.9697
133.862 1190 34.4964
133.979 1325 36.4005
134.097 1394 37.3363
134.214 1380 37.1484
134.332 1484 38.5227
134.449 1381 37.1618
134.567 1403 37.4566
134.684 1382 37.1753
134.802 1535 39.1791
134.919 1493 38.6394
135.037 1485 38.5357
135.154 1445 38.0132
135.272 1412 37.5766
135.389 1350 36.7423
135.507 1305 36.1248
135.624 1280 35.7771
135.742 1298 36.0278
135.859 1357 36.8375
135.977 1453 38.1182
136.094 1411 37.5633
136.211 1338 36.5787
136.329 1389 37.2693
136.446 1412 37.5766
136.564 1316 36.2767
136.681 1222 34.9571
136.798 1241 35.2278
136.915 1141 33.7787
137.033 1074 32.7719
137.15 1077 32.8177
137.267 1054 32.4654
137.384 1141 33.7787
137.502 1223 34.9714
137.619 1276 35.7211
137.736 1311 36.2077
137.853 1379 37.1349
137.97 1369 37
138.087 1385 37.2156
138.204 1363 36.9188
138.321 1442 37.9737
138.438 1446 38.0263
138.555 1495 38.6652
138.672 1453 38.1182
138.788 1483 38.5097
138.905 1427 37.7757
139.022 1366 36.9594
139.139 1274 35.6931
139.255 1301 36.0694
139.372 1425 37.7492
139.488 1371 37.027
139.605 1396 37.3631
139.721 1407 37.51
139.838 1360 36.8782
139.954 1372 37.0405
140.071 1309 36.1801
140.187 1297 36.0139
140.303 1266 35.5809
140.419 1172 34.2345
140.535 1140 33.7639
140.652 1129 33.6006
140.768 0 1
140.884 0 1
141 0 1
141.115 0 1
141.231 0 1
141.347 0 1
141.463 0 1
141.578 0 1
141.694 0 1
144.104 0 1
144.219 0 1
144.335 0 1
144.45 0 1
144.566 0 1
144.682 0 1
144.798 0 1
144.914 0 1
145.03 0 1
145.146 944 30.7246
145.262 1088 32.9848
145.378 984 31.3688
145.494 987 31.4166
145.61 920 30.3315
145.726 894 29.8998
145.842 879 29.6479
145.959 873 29.5466
146.075 870 29.4958
146.192 861 29.3428
146.308 915 30.249
146.425 946 30.7571
146.541 1020 31.9374
146.658 1020 31.9374
146.774 1039 32.2335
146.891 1051 32.4191
147.008 1078 32.8329
147.125 1104 33.2265
147.241 1205 34.7131
147.358 1220 34.9285
147.475 1167 34.1614
147.592 1133 33.6601
147.709 1121 33.4813
147.826 1135 33.6898
147.943 1092 33.0454
148.06 1074 32.7719
148.177 1078 32.8329
148.294 1063 32.6037
148.411 1082 32.8938
148.528 1107 33.2716
148.645 1070 32.7109
148.762 1078 32.8329
148.88 1098 33.1361
148.997 1074 32.7719
149.114 1122 33.4963
149.231 1081 32.8786
149.349 997 31.5753
149.466 992 31.496
149.583 922 30.3645
149.701 887 29.7825
149.818 877 29.6142
149.935 863 29.3769
150.053 908 30.133
150.17 991 31.4802
150.287 1026 32.0312
150.405 1049 32.3883
150.522 1099 33.1512
150.64 1127 33.5708
150.757 1135 33.6898
150.875 1150 33.9116
150.992 1187 34.4529
151.11 1169 34.1906
151.227 1202 34.6699
151.344 1212 34.8138
151.462 1214 34.8425
151.579 1130 33.6155
151.697 1114 33.3766
151.814 1139 33.7491
151.932 1152 33.9411
152.049 1163 34.1028
152.167 1128 33.5857
152.284 1155 33.9853
152.402 1155 33.9853
152.519 1203 34.6843
152.636 1183 34.3948
152.754 1152 33.9411
152.871 1082 32.8938
152.989 1099 33.1512
153.106 1068 32.6803
153.223 1001 31.6386
153.341 942 30.692
153.458 921 30.348
153.575 970 31.1448
153.693 1020 31.9374
153.81 1001 31.6386
153.927 1053 32.45
154.044 1152 33.9411
154.162 1152 33.9411
154.279 1207 34.7419
154.396 1162 34.0881
154.513 1246 35.2987
154.63 1257 35.4542
154.747 1324 36.3868
154.864 1262 35.5246
154.981 1266 35.5809
155.098 1228 35.0428
155.215 1260 35.4965
155.332 1204 34.6987
155.449 1239 35.1994
155.566 1257 35.4542
155.683 1260 35.4965
155.8 1208 34.7563
155.917 1284 35.8329
156.033 1243 35.2562
156.15 0 1
156.267 0 1
156.383 0 1
156.5 0 1
156.617 0 1
156.733 0 1
156.85 0 1
156.966 0 1
157.082 0 1
157.199 0 1
157.315 0 1
157.431 0 1
157.547 0 1
157.664 0 1
157.78 0 1
157.896 0 1
158.012 0 1
158.128 0 1
158.244 0 1
158.359 0 1
158.475 0 1
158.591 0 1
158.706 0 1
