
6.15755 0 1
6.2731 0 1
6.3887 0 1
6.50437 0 1
6.62009 0 1
6.73587 0 1
6.8517 0 1
6.96759 0 1
7.08353 0 1
7.19952 0 1
7.31557 0 1
7.43166 0 1
7.54781 0 1
7.664 0 1
7.78024 0 1
7.89653 0 1
8.01286 0 1
8.12924 0 1
8.24567 0 1
8.36213 0 1
8.47864 0 1
8.59519 0 1
8.71178 0 1
8.82841 0 1
8.94508 0 1
9.06179 0 1
9.17853 0 1
9.29531 0 1
9.41212 0 1
9.52897 0 1
9.64584 0 1
9.76276 0 1
9.8797 0 1
9.99667 0 1
10.1137 0 1
10.2307 0 1
10.3478 0 1
10.4648 0 1
10.5819 0 1
10.6991 0 1
10.8162 0 1
10.9334 0 1
11.0506 0 1
11.1678 0 1
11.285 0 1
11.4023 0 1
11.5196 0 1
11.6369 0 1
11.7542 0 1
11.8715 0 1
11.9888 0 1
12.1062 0 1
12.2235 0 1
12.3409 0 1
12.4582 0 1
12.5756 0 1
12.693 0 1
12.8104 0 1
12.9278 0 1
13.0452 0 1
13.1626 0 1
13.28 0 1
13.3974 0 1
13.5149 0 1
13.6323 0 1
13.7497 0 1
13.8671 0 1
13.9845 0 1
14.1019 0 1
14.2193 0 1
14.3367 0 1
14.4541 0 1
14.5714 0 1
14.6888 0 1
14.8062 0 1
14.9235 0 1
15.0408 0 0
15.1581 0 0
15.2755 0 0
15.3927 0 0
15.51 0 0
15.6273 0 0
15.7445 0 0
15.8617 0 0
15.9789 0 0
16.0961 0 0
16.2132 0 0
16.3304 0 0
16.4475 0 0
16.5646 0 0
16.6816 0 0
16.7986 0 0
16.9156 0 0
17.0326 0 0
17.1496 0 0
17.2665 0 0
17.3833 0 0
17.5002 0 0
17.617 0 0
17.7338 0 0
17.8505 0 0
17.9672 0 0
18.0839 0 0
18.2005 0 0
18.3171 0 0
18.4337 0 0
18.5502 0 0
18.6666 0 0
18.7831 0 0
18.8994 0 0
19.0158 0 0
19.1321 0 0
19.2483 0 0
19.3645 0 0
19.4806 0 0
19.5967 0 0
19.7128 0 0
19.8288 0 0
19.9447 0 0
20.0606 0 1
20.1764 0 1
20.2922 0 1
20.4079 0 1
20.5236 0 1
20.6392 0 1
20.7548 0 1
20.8702 0 1
23.3078 0 1
23.4233 0 1
23.539 0 1
23.6547 0 1
23.7704 0 1
23.8862 0 1
24.0021 0 1
24.118 0 1
24.234 0 1
24.35 0 1
24.4661 1309 36.1801
24.5822 1464 38.2623
24.6984 1552 39.3954
24.8146 1768 42.0476
24.9309 1987 44.5758
25.0472 2321 48.1768
25.1636 2478 49.7795
25.28 2683 51.7977
25.3965 2741 52.3546
25.513 2741 52.3546
25.6296 2813 53.0377
25.7462 2794 52.8583
25.8628 2776 52.6878
25.9795 2818 53.0848
26.0962 2806 52.9717
26.213 2877 53.6377
26.3298 2887 53.7308
26.4466 2818 53.0848
26.5635 2806 52.9717
26.6804 2818 53.0848
26.7973 2727 52.2207
26.9143 2543 50.4282
27.0313 2575 50.7445
27.1483 2543 50.4282
27.2653 2571 50.705
27.3824 2594 50.9313
27.4996 2420 49.1935
27.6167 2236 47.2864
27.7339 2206 46.9681
27.8511 2459 49.5883
27.9683 2470 49.6991
28.0855 2603 51.0196
28.2028 2587 50.8626
28.3201 2694 51.9038
28.4374 2634 51.3225
28.5547 2568 50.6754
28.6721 2532 50.319
28.7894 2564 50.636
28.9068 2673 51.7011
29.0242 2619 51.1762
29.1416 2583 50.8232
29.259 2678 51.7494
29.3764 2664 51.614
29.4939 2544 50.4381
29.6113 2483 49.8297
29.7288 2542 50.4183
29.8463 2488 49.8799
29.9638 2501 50.01
30.0812 2454 49.5379
30.1987 2498 49.98
30.3162 2465 49.6488
30.4337 2559 50.5866
30.5512 2556 50.5569
30.6687 2598 50.9706
30.7862 2501 50.01
30.9037 2337 48.3425
31.0212 2406 49.051
31.1387 2435 49.3457
31.2562 2376 48.7442
31.3737 2558 50.5767
31.4912 2505 50.05
31.6087 2560 50.5964
31.7262 2654 51.517
31.8436 2567 50.6656
31.9611 2551 50.5074
32.0785 2531 50.309
32.1959 2555 50.547
32.3134 2577 50.7642
32.4308 2544 50.4381
32.5482 2391 48.8979
32.6655 2446 49.4571
32.7829 2326 48.2286
32.9002 2389 48.8774
33.0176 2200 46.9042
33.1349 2250 47.4342
33.2522 2229 47.2123
33.3694 2225 47.1699
33.4867 2297 47.927
33.6039 2345 48.4252
33.7211 2265 47.592
33.8383 2281 47.7598
33.9554 2413 49.1223
34.0725 2427 49.2646
34.1896 2531 50.309
34.3067 2507 50.07
34.4237 2494 49.94
34.5407 2433 49.3254
34.6577 2227 47.1911
34.7746 2407 49.0612
34.8915 2350 48.4768
35.0084 2557 50.5668
35.1252 2509 50.0899
35.242 2645 51.4296
35.3587 2535 50.3488
35.4755 2525 50.2494
35.5921 2495 49.95
35.7088 2434 49.3356
35.8254 2365 48.6313
35.9419 2397 48.9592
36.0584 2256 47.4974
36.1749 2101 45.8367
36.2913 2123 46.076
36.4077 2145 46.3141
36.524 2025 45
36.6403 1796 42.3792
36.7565 1568 39.598
36.8727 1495 38.6652
36.9889 1444 38
37.1049 1478 38.4448
37.221 0 1
37.3369 0 1
37.4529 0 1
37.5687 0 1
37.6845 0 1
37.8003 0 1
37.916 0 1
38.0316 0 1
38.1472 0 1
40.5851 0 1
40.7008 0 1
40.8164 0 1
40.9322 0 1
41.048 0 1
41.1639 0 1
41.2798 0 1
41.3958 0 1
41.5118 0 1
41.6279 0 1
41.744 1905 43.6463
41.8602 2444 49.4368
41.9765 2979 54.5802
42.0928 3308 57.5152
42.2091 3205 56.6127
42.3255 3222 56.7627
42.4419 3296 57.4108
42.5584 3191 56.4889
42.675 3342 57.81
42.7915 3365 58.0086
42.9081 3482 59.0085
43.0248 3630 60.2495
43.1415 3618 60.1498
43.2582 3480 58.9915
43.375 3145 56.0803
43.4918 3185 56.4358
43.6087 3246 56.9737
43.7256 3297 57.4195
43.8425 3434 58.6003
43.9595 3393 58.2495
44.0765 3434 58.6003
44.1935 3464 58.8558
44.3106 3401 58.3181
44.4277 3277 57.2451
44.5448 3176 56.356
44.6619 3070 55.4076
44.7791 2798 52.8961
44.8963 2748 52.4214
45.0136 2651 51.4879
45.1308 2646 51.4393
45.2481 2503 50.03
45.3654 2298 47.9375
45.4827 2277 47.7179
45.6001 2273 47.676
45.7174 2163 46.5081
45.8348 2116 46
45.9522 2129 46.1411
46.0697 2082 45.6289
46.1871 2133 46.1844
46.3046 2159 46.465
46.422 2160 46.4758
46.5395 2242 47.3498
46.657 2249 47.4236
46.7745 2174 46.6262
46.892 2013 44.8665
47.0096 2019 44.9333
47.1271 2059 45.3762
47.2446 2124 46.0869
47.3622 2084 45.6508
47.4797 2145 46.3141
47.5973 2144 46.3033
47.7149 2145 46.3141
47.8324 2142 46.2817
47.95 2160 46.4758
48.0675 2125 46.0977
48.1851 2068 45.4753
48.3027 2068 45.4753
48.4202 2027 45.0222
48.5378 1928 43.909
48.6554 1960 44.2719
48.7729 1929 43.9204
48.8904 1932 43.9545
49.008 1814 42.5911
49.1255 1843 42.9302
49.243 1887 43.4396
49.3605 1877 43.3244
49.478 1990 44.6094
49.5955 2002 44.7437
49.713 2032 45.0777
49.8304 2008 44.8107
49.9479 2103 45.8585
50.0653 2132 46.1736
50.1827 2081 45.618
50.3001 1968 44.3621
50.4175 1601 40.0125
50.5348 1671 40.8779
50.6521 1679 40.9756
50.7694 1912 43.7264
50.8867 2024 44.9889
51.004 2117 46.0109
51.1212 2094 45.7602
51.2384 2157 46.4435
51.3556 2055 45.3321
51.4727 2126 46.1086
51.5899 2118 46.0217
51.707 1949 44.1475
51.824 2101 45.8367
51.9411 2016 44.8999
52.0581 2014 44.8776
52.175 1991 44.6206
52.2919 1944 44.0908
52.4088 1994 44.6542
52.5257 1895 43.5316
52.6425 1898 43.566
52.7593 1878 43.3359
52.876 1866 43.1972
52.9927 1912 43.7264
53.1094 1930 43.9318
53.226 1876 43.3128
53.3426 1924 43.8634
53.4591 1903 43.6234
53.5756 1752 41.8569
53.692 1522 39.0128
53.8084 1274 35.6931
53.9248 1241 35.2278
54.0411 1095 33.0908
54.1573 1008 31.749
54.2735 0 1
54.3896 0 1
54.5057 0 1
54.6217 0 1
54.7377 0 1
54.8537 0 1
54.9695 0 1
55.0853 0 1
55.2011 0 1
55.3168 0 1
55.4324 0 1
57.824 0 1
57.9396 0 1
58.0553 0 1
58.1711 0 1
58.2869 0 1
58.4028 0 1
58.5187 0 1
58.6347 0 1
58.7508 0 1
58.8669 0 1
58.983 1656 40.694
59.0992 1659 40.7308
59.2155 1757 41.9166
59.3318 1799 42.4146
59.4482 2166 46.5403
59.5646 2268 47.6235
59.681 2367 48.6518
59.7975 2429 49.2849
59.9141 2430 49.295
60.0306 2460 49.5984
60.1473 2498 49.98
60.2639 2496 49.96
60.3807 2407 49.0612
60.4974 2540 50.3984
60.6142 2484 49.8397
60.731 2501 50.01
60.8479 2474 49.7393
60.9648 2394 48.9285
61.0818 2366 48.6415
61.1987 2444 49.4368
61.3158 2371 48.6929
61.4328 2364 48.621
61.5499 2447 49.4672
61.667 2369 48.6724
61.7841 2406 49.051
61.9013 2329 48.2597
62.0185 2442 49.4166
62.1357 2498 49.98
62.253 2397 48.9592
62.3702 2383 48.816
62.4875 2315 48.1144
62.6049 2140 46.2601
62.7222 2187 46.7654
62.8396 2326 48.2286
62.9569 2346 48.4355
63.0743 2527 50.2693
63.1918 2522 50.2195
63.3092 2599 50.9804
63.4267 2526 50.2593
63.5441 2604 51.0294
63.6616 2495 49.95
63.7791 2508 50.0799
63.8966 2483 49.8297
64.0142 2428 49.2747
64.1317 2442 49.4166
64.2492 2513 50.1298
64.3668 2526 50.2593
64.4843 2445 49.4469
64.6019 2494 49.94
64.7195 2318 48.1456
64.837 2304 48
64.9546 2351 48.4871
65.0722 2292 47.8748
65.1898 2371 48.6929
65.3074 2322 48.1871
65.4249 2359 48.5695
65.5425 2482 49.8197
65.6601 2419 49.1833
65.7777 2440 49.3964
65.8952 2429 49.2849
66.0128 2265 47.592
66.1304 2054 45.3211
66.2479 1971 44.3959
66.3655 2017 44.911
66.483 2218 47.0956
66.6005 2398 48.9694
66.718 2541 50.4083
66.8355 2495 49.95
66.953 2561 50.6063
67.0705 2474 49.7393
67.1879 2487 49.8698
67.3054 2466 49.6588
67.4228 2399 48.9796
67.5402 2492 49.9199
67.6576 2454 49.5379
67.7749 2444 49.4368
67.8923 2368 48.6621
68.0096 2427 49.2646
68.1269 2338 48.3529
68.2442 2426 49.2544
68.3614 2389 48.8774
68.4787 2314 48.1041
68.5958 2271 47.655
68.713 2300 47.9583
68.8302 2200 46.9042
68.9473 2167 46.551
69.0643 2325 48.2183
69.1814 2353 48.5077
69.2984 2235 47.2758
69.4154 2199 46.8935
69.5323 2184 46.7333
69.6492 2188 46.7761
69.7661 1964 44.317
69.8829 1855 43.0697
69.9997 1858 43.1045
70.1165 2040 45.1664
70.2332 2104 45.8694
70.3499 2001 44.7325
70.4665 1813 42.5793
70.5831 1708 41.328
70.6996 1621 40.2616
70.8161 1618 40.2244
70.9326 1542 39.2683
71.049 1465 38.2753
71.1653 1333 36.5103
71.2817 1380 37.1484
71.3979 1199 34.6266
71.5141 1252 35.3836
71.6303 1154 33.9706
71.7464 1080 32.8634
71.8624 0 1
71.9784 0 1
72.0944 0 1
72.2102 0 1
72.3261 0 1
72.4418 0 1
72.5575 0 1
72.6732 0 1
75.1054 0 1
75.2209 0 1
75.3365 0 1
75.4521 0 1
75.5678 0 1
75.6835 0 1
75.7993 0 1
75.9151 0 1
76.031 0 1
76.147 1915 43.7607
76.263 2176 46.6476
76.3791 2165 46.5296
76.4952 2215 47.0638
76.6113 2185 46.744
76.7276 2116 46
76.8438 2241 47.3392
76.9601 2189 46.7868
77.0765 2267 47.613
77.1929 2307 48.0312
77.3093 2225 47.1699
77.4258 2203 46.9361
77.5423 2162 46.4973
77.6589 2176 46.6476
77.7755 2162 46.4973
77.8921 2200 46.9042
78.0088 2148 46.3465
78.1256 2156 46.4327
78.2423 2174 46.6262
78.3591 2273 47.676
78.4759 2245 47.3814
78.5928 2230 47.2229
78.7097 1946 44.1135
78.8266 1785 42.2493
78.9436 1521 39
79.0606 1617 40.2119
79.1776 1933 43.9659
79.2946 2245 47.3814
79.4117 2310 48.0625
79.5288 2309 48.0521
79.6459 2291 47.8644
79.7631 2323 48.1975
79.8802 2306 48.0208
79.9974 2356 48.5386
80.1147 2287 47.8226
80.2319 2380 48.7852
80.3491 2405 49.0408
80.4664 2358 48.5592
80.5837 2332 48.2908
80.701 2373 48.7134
80.8183 2484 49.8397
80.9357 2445 49.4469
81.053 2397 48.9592
81.1704 2464 49.6387
81.2877 2246 47.392
81.4051 2337 48.3425
81.5225 2371 48.6929
81.6399 2379 48.775
81.7573 2432 49.3153
81.8747 2510 50.0999
81.9922 2632 51.303
82.1096 2689 51.8556
82.227 2630 51.2835
82.3444 2497 49.97
82.4619 2181 46.7012
82.5793 2211 47.0213
82.6967 2215 47.0638
82.8142 2635 51.3323
82.9316 3231 56.8419
83.049 3543 59.5231
83.1664 3567 59.7244
83.2838 3788 61.5467
83.4012 4010 63.3246
83.5186 3982 63.1031
83.636 4085 63.914
83.7534 4116 64.1561
83.8708 4067 63.773
83.9881 4167 64.5523
84.1055 4207 64.8614
84.2228 4269 65.3376
84.3401 4288 65.4828
84.4575 4399 66.325
84.5747 4318 65.7115
84.692 4325 65.7647
84.8093 4233 65.0615
84.9265 4221 64.9692
85.0437 4295 65.5362
85.1609 4146 64.3894
85.2781 4154 64.4515
85.3952 4200 64.8074
85.5123 4240 65.1153
85.6294 4154 64.4515
85.7465 4034 63.5138
85.8636 3833 61.9112
85.9806 3328 57.6888
86.0976 2790 52.8205
86.2145 2658 51.5558
86.3315 3127 55.9196
86.4484 3948 62.8331
86.5652 3972 63.0238
86.682 4275 65.3835
86.7988 4178 64.6375
86.9156 4011 63.3325
87.0323 4082 63.8905
87.149 4204 64.8383
87.2657 4217 64.9384
87.3823 4102 64.0469
87.4988 4048 63.6239
87.6154 3580 59.8331
87.7318 3333 57.7321
87.8483 2988 54.6626
87.9647 3037 55.109
88.081 2994 54.7175
88.1973 2932 54.1479
88.3136 2758 52.5167
88.4298 2601 51
88.546 2537 50.3686
88.6621 2344 48.4149
88.7781 2303 47.9896
88.8942 0 1
89.0101 0 1
89.126 0 1
89.2419 0 1
89.3577 0 1
89.4734 0 1
89.5891 0 1
89.7047 0 1
89.8203 0 1
89.9358 0 1
92.3269 0 1
92.4424 0 1
92.558 0 1
92.6736 0 1
92.7893 0 1
92.905 0 1
93.0208 0 1
93.1366 0 1
93.2525 0 1
93.3685 0 1
93.4845 0 1
93.6005 4369 66.0984
93.7167 4454 66.7383
93.8328 4320 65.7267
93.949 4240 65.1153
94.0653 4129 64.2573
94.1816 4364 66.0606
94.2979 4246 65.1613
94.4143 4390 66.2571
94.5307 4271 65.3529
94.6472 4223 64.9846
94.7637 4037 63.5374
94.8803 3845 62.0081
94.9969 3299 57.4369
95.1135 3117 55.8301
95.2302 3295 57.4021
95.3469 3595 59.9583
95.4637 4073 63.8201
95.5805 4391 66.2646
95.6973 4338 65.8635
95.8142 4475 66.8954
95.9311 4501 67.0895
96.048 4378 66.1665
96.1649 4426 66.5282
96.2819 4384 66.2118
96.3989 4424 66.5132
96.516 4377 66.1589
96.633 4404 66.3626
96.7501 4577 67.6535
96.8673 4528 67.2904
96.9844 4632 68.0588
97.1016 4540 67.3795
97.2188 4675 68.374
97.336 4454 66.7383
97.4532 4414 66.4379
97.5704 4417 66.4605
97.6877 4358 66.0151
97.805 4411 66.4154
97.9223 4484 66.9627
98.0396 4580 67.6757
98.1569 4415 66.4455
98.2743 4206 64.8537
98.3916 3831 61.8951
98.509 3368 58.0345
98.6264 3032 55.0636
98.7438 3171 56.3116
98.8612 3604 60.0333
98.9786 4124 64.2184
99.096 4206 64.8537
99.2134 4209 64.8768
99.3308 4133 64.2884
99.4482 4061 63.726
99.5656 4098 64.0156
99.6831 3952 62.8649
99.8005 3872 62.2254
99.9179 3814 61.7576
100.035 3606 60.05
100.153 3685 60.7042
100.27 3496 59.127
100.388 3556 59.6322
100.505 3453 58.7622
100.622 3404 58.3438
100.74 3386 58.1893
100.857 3276 57.2364
100.975 3050 55.2268
101.092 3164 56.2494
101.209 3112 55.7853
101.327 3065 55.3624
101.444 2960 54.4059
101.561 3040 55.1362
101.679 3058 55.2992
101.796 2974 54.5344
101.913 2897 53.8238
102.03 2626 51.2445
102.148 2348 48.4562
102.265 2150 46.3681
102.382 2503 50.03
102.499 2645 51.4296
102.616 2729 52.2398
102.733 2873 53.6004
102.851 2702 51.9808
102.968 2884 53.7029
103.085 2726 52.2111
103.202 2836 53.2541
103.319 2827 53.1695
103.436 2748 52.4214
103.552 2866 53.535
103.669 2774 52.6688
103.786 2698 51.9423
103.903 2814 53.0471
104.02 2876 53.6284
104.137 2845 53.3385
104.253 2946 54.2771
104.37 2812 53.0283
104.487 2638 51.3615
104.603 2672 51.6914
104.72 2519 50.1896
104.836 2453 49.5278
104.953 2278 47.7284
105.069 2005 44.7772
105.186 1730 41.5933
105.302 1694 41.1582
105.418 1544 39.2938
105.535 1440 37.9473
105.651 1309 36.1801
105.767 1035 32.1714
105.883 928 30.4631
105.999 910 30.1662
106.115 0 1
106.231 0 1
106.347 0 1
106.463 0 1
106.579 0 1
106.694 0 1
106.81 0 1
106.926 0 1
107.041 0 1
107.157 0 1
109.576 0 1
109.692 0 1
109.807 0 1
109.923 0 1
110.039 0 1
110.155 0 1
110.27 0 1
110.386 0 1
110.502 0 1
110.618 2725 52.2015
110.735 2925 54.0833
110.851 2718 52.1344
110.967 2593 50.9215
111.083 2399 48.9796
111.199 2564 50.636
111.316 2949 54.3047
111.432 3063 55.3444
111.549 2985 54.6352
111.665 3076 55.4617
111.782 3077 55.4707
111.898 3053 55.254
112.015 3031 55.0545
112.132 3051 55.2359
112.248 3095 55.6327
112.365 3014 54.8999
112.482 3021 54.9636
112.599 3203 56.5951
112.716 3241 56.9298
112.832 3228 56.8155
112.949 3261 57.1052
113.066 3265 57.1402
113.183 3472 58.9237
113.3 3441 58.66
113.417 3281 57.28
113.534 3415 58.438
113.652 3287 57.3324
113.769 3354 57.9137
113.886 3396 58.2752
114.003 3350 57.8792
114.12 3361 57.9741
114.238 3155 56.1694
114.355 3055 55.2721
114.472 2647 51.449
114.589 2528 50.2792
114.707 2616 51.1468
114.824 2852 53.4041
114.942 3175 56.3471
115.059 3249 57
115.176 3088 55.5698
115.294 3120 55.857
115.411 3179 56.3826
115.529 3059 55.3082
115.646 3131 55.9553
115.764 3054 55.263
115.881 3215 56.701
115.999 3221 56.7539
116.116 3147 56.0981
116.234 3225 56.7891
116.351 3363 57.9914
116.469 3341 57.8014
116.586 3525 59.3717
116.704 3435 58.6089
116.821 3429 58.5577
116.939 3429 58.5577
117.056 3387 58.1979
117.174 3447 58.7112
117.291 3351 57.8878
117.409 3332 57.7235
117.526 3378 58.1206
117.644 3434 58.6003
117.761 3314 57.5674
117.879 3237 56.8946
117.996 2881 53.6749
118.114 2639 51.3712
118.231 2572 50.7149
118.349 2753 52.469
118.466 2941 54.231
118.584 3098 55.6597
118.701 3182 56.4092
118.819 3170 56.3028
118.936 3224 56.7803
119.053 3089 55.5788
119.171 3085 55.5428
119.288 3016 54.9181
119.405 2993 54.7083
119.523 3126 55.9106
119.64 2869 53.563
119.757 3086 55.5518
119.875 3042 55.1543
119.992 3101 55.6866
120.109 3158 56.1961
120.226 3246 56.9737
120.343 3342 57.81
120.46 3260 57.0964
120.578 3240 56.921
120.695 3326 57.6715
120.812 3158 56.1961
120.929 3034 55.0818
121.046 3204 56.6039
121.163 3158 56.1961
121.279 3104 55.7136
121.396 3056 55.2811
121.513 2960 54.4059
121.63 2751 52.45
121.747 2490 49.8999
121.863 2206 46.9681
121.98 2212 47.0319
122.097 2164 46.5188
122.213 2122 46.0652
122.33 2175 46.6369
122.446 2109 45.9239
122.563 2086 45.6727
122.679 2050 45.2769
122.795 2029 45.0444
122.912 1899 43.5775
123.028 1881 43.3705
123.144 1842 42.9185
123.26 1880 43.359
123.377 0 1
123.493 0 1
123.609 0 1
123.725 0 1
123.84 0 1
123.956 0 1
124.072 0 1
124.188 0 1
124.303 0 1
124.419 0 1
126.852 0 1
126.968 0 1
127.083 0 1
127.199 0 1
127.315 0 1
127.431 0 1
127.547 0 1
127.663 0 1
127.779 0 1
127.895 0 1
128.011 0 1
128.127 0 1
128.243 0 1
128.359 3600 60
128.476 3562 59.6825
128.592 3721 61
128.708 3602 60.0167
128.825 3551 59.5903
128.941 3652 60.4318
129.058 3773 61.4248
129.174 3749 61.2291
129.291 3852 62.0645
129.408 3783 61.5061
129.524 3932 62.7057
129.641 4052 63.6553
129.758 4246 65.1613
129.875 4159 64.4903
129.992 4258 65.2534
130.108 4272 65.3605
130.225 4400 66.3325
130.342 4293 65.521
130.459 4076 63.8436
130.576 4001 63.2535
130.693 3807 61.7009
130.81 3692 60.7618
130.928 3775 61.441
131.045 3779 61.4736
131.162 4011 63.3325
131.279 4206 64.8537
131.396 4127 64.2417
131.513 4149 64.4127
131.631 4094 63.9844
131.748 4232 65.0538
131.865 4034 63.5138
131.983 4010 63.3246
132.1 3933 62.7136
132.217 3913 62.554
132.335 3994 63.1981
132.452 3976 63.0555
132.57 3950 62.849
132.687 3790 61.563
132.804 4156 64.467
132.922 3986 63.1348
133.039 4149 64.4127
133.157 4123 64.2106
133.274 4320 65.7267
133.392 4288 65.4828
133.509 4430 66.5582
133.627 4456 66.7533
133.744 4613 67.9191
133.862 4546 67.424
133.979 4601 67.8307
134.097 4393 66.2797
134.214 4351 65.9621
134.332 4111 64.1171
134.449 4208 64.8691
134.567 4203 64.8305
134.684 4290 65.4981
134.802 4280 65.4217
134.919 4412 66.4229
135.037 4494 67.0373
135.154 4546 67.424
135.272 4508 67.1416
135.389 4418 66.468
135.507 4313 65.6734
135.624 4195 64.7688
135.742 4259 65.261
135.859 4127 64.2417
135.977 4099 64.0234
136.094 4071 63.8044
136.211 4077 63.8514
136.329 4181 64.6607
136.446 4189 64.7225
136.564 4087 63.9296
136.681 4157 64.4748
136.798 4338 65.8635
136.915 4400 66.3325
137.033 4249 65.1844
137.15 4375 66.1438
137.267 4332 65.8179
137.384 4335 65.8407
137.502 4413 66.4304
137.619 4310 65.6506
137.736 4196 64.7765
137.853 4072 63.8122
137.97 4079 63.867
138.087 3784 61.5142
138.204 4039 63.5531
138.321 4024 63.435
138.438 4249 65.1844
138.555 4157 64.4748
138.672 4173 64.5988
138.788 4161 64.5058
138.905 4063 63.7417
139.022 3953 62.8729
139.139 3847 62.0242
139.255 3685 60.7042
139.372 3459 58.8133
139.488 3255 57.0526
139.605 3258 57.0789
139.721 3035 55.0908
139.838 2964 54.4426
139.954 3038 55.1181
140.071 2846 53.3479
140.187 2778 52.7067
140.303 2926 54.0925
140.419 2853 53.4135
140.535 2960 54.4059
140.652 3033 55.0727
140.768 0 1
140.884 0 1
141 0 1
141.115 0 1
141.231 0 1
141.347 0 1
141.463 0 1
141.578 0 1
141.694 0 1
144.104 0 1
144.219 0 1
144.335 0 1
144.45 0 1
144.566 0 1
144.682 0 1
144.798 0 1
144.914 0 1
145.03 0 1
145.146 8291 91.0549
145.262 8710 93.3274
145.378 8841 94.0266
145.494 8890 94.2868
145.61 8972 94.7206
145.726 8998 94.8578
145.842 8845 94.0479
145.959 9041 95.0842
146.075 9011 94.9263
146.192 9068 95.226
146.308 8845 94.0479
146.425 8897 94.3239
146.541 7975 89.3029
146.658 6848 82.7526
146.774 5936 77.0454
146.891 5765 75.9276
147.008 6538 80.8579
147.125 7683 87.6527
147.241 8412 91.717
147.358 8572 92.5851
147.475 8831 93.9734
147.592 8834 93.9894
147.709 8746 93.5201
147.826 8904 94.361
147.943 8795 93.7817
148.06 9019 94.9684
148.177 8860 94.1276
148.294 8688 93.2094
148.411 9078 95.2785
148.528 8882 94.2444
148.645 8917 94.4299
148.762 8844 94.0425
148.88 9095 95.3677
148.997 8762 93.6056
149.114 9414 97.0258
149.231 9056 95.163
149.349 9135 95.5772
149.466 9004 94.8894
149.583 9208 95.9583
149.701 9049 95.1262
149.818 9283 96.3483
149.935 9238 96.1145
150.053 8962 94.6678
150.17 8770 93.6483
150.287 7752 88.0454
150.405 6823 82.6015
150.522 5959 77.1946
150.64 6427 80.1686
150.757 7554 86.9138
150.875 8574 92.5959
150.992 8966 94.689
151.11 8657 93.043
151.227 8921 94.451
151.344 8699 93.2684
151.462 8561 92.5257
151.579 8639 92.9462
151.697 8777 93.6856
151.814 8857 94.1116
151.932 8905 94.3663
152.049 8766 93.6269
152.167 9051 95.1367
152.284 8975 94.7365
152.402 8899 94.3345
152.519 8869 94.1754
152.636 8973 94.7259
152.754 9122 95.5092
152.871 9042 95.0894
152.989 9181 95.8175
153.106 9214 95.9896
153.223 9244 96.1457
153.341 9472 97.3242
153.458 9237 96.1093
153.575 9619 98.0765
153.693 9355 96.7212
153.81 8958 94.6467
153.927 8024 89.5768
154.044 6907 83.1084
154.162 6357 79.7308
154.279 6702 81.8657
154.396 8094 89.9667
154.513 8906 94.3716
154.63 9076 95.268
154.747 9219 96.0156
154.864 8958 94.6467
154.981 9172 95.7706
155.098 8848 94.0638
155.215 8827 93.9521
155.332 8532 92.3688
155.449 8537 92.3959
155.566 8245 90.802
155.683 8137 90.2053
155.8 7923 89.0112
155.917 7845 88.572
156.033 7589 87.1149
156.15 0 1
156.267 0 1
156.383 0 1
156.5 0 1
156.617 0 1
156.733 0 1
156.85 0 1
156.966 0 1
157.082 0 1
157.199 0 1
157.315 0 1
157.431 0 1
157.547 0 1
157.664 0 1
157.78 0 1
157.896 0 1
158.012 0 1
158.128 0 1
158.244 0 1
158.359 0 1
158.475 0 1
158.591 0 1
158.706 0 1
