
6.15755 0 1
6.2731 0 1
6.3887 0 1
6.50437 0 1
6.62009 0 1
6.73587 0 1
6.8517 0 1
6.96759 0 1
7.08353 0 1
7.19952 0 1
7.31557 0 1
7.43166 0 1
7.54781 0 1
7.664 0 1
7.78024 0 1
7.89653 0 1
8.01286 0 1
8.12924 0 1
8.24567 0 1
8.36213 0 1
8.47864 0 1
8.59519 0 1
8.71178 0 1
8.82841 0 1
8.94508 0 1
9.06179 0 1
9.17853 0 1
9.29531 0 1
9.41212 0 1
9.52897 0 1
9.64584 0 1
9.76276 0 1
9.8797 0 1
9.99667 0 1
10.1137 0 1
10.2307 0 1
10.3478 0 1
10.4648 0 1
10.5819 0 1
10.6991 0 1
10.8162 0 1
10.9334 0 1
11.0506 0 1
11.1678 0 1
11.285 0 1
11.4023 0 1
11.5196 0 1
11.6369 0 1
11.7542 0 1
11.8715 0 1
11.9888 0 1
12.1062 0 1
12.2235 0 1
12.3409 0 1
12.4582 0 1
12.5756 0 1
12.693 0 1
12.8104 0 1
12.9278 0 1
13.0452 0 1
13.1626 0 1
13.28 0 1
13.3974 0 1
13.5149 0 1
13.6323 0 1
13.7497 0 1
13.8671 0 1
13.9845 0 1
14.1019 0 1
14.2193 0 1
14.3367 0 1
14.4541 0 1
14.5714 0 1
14.6888 0 1
14.8062 0 1
14.9235 0 1
15.0408 0 0
15.1581 0 0
15.2755 0 0
15.3927 0 0
15.51 0 0
15.6273 0 0
15.7445 0 0
15.8617 0 0
15.9789 0 0
16.0961 0 0
16.2132 0 0
16.3304 0 0
16.4475 0 0
16.5646 0 0
16.6816 0 0
16.7986 0 0
16.9156 0 0
17.0326 0 0
17.1496 0 0
17.2665 0 0
17.3833 0 0
17.5002 0 0
17.617 0 0
17.7338 0 0
17.8505 0 0
17.9672 0 0
18.0839 0 0
18.2005 0 0
18.3171 0 0
18.4337 0 0
18.5502 0 0
18.6666 0 0
18.7831 0 0
18.8994 0 0
19.0158 0 0
19.1321 0 0
19.2483 0 0
19.3645 0 0
19.4806 0 0
19.5967 0 0
19.7128 0 0
19.8288 0 0
19.9447 0 0
20.0606 0 1
20.1764 0 1
20.2922 0 1
20.4079 0 1
20.5236 0 1
20.6392 0 1
20.7548 0 1
20.8702 0 1
23.3078 0 1
23.4233 0 1
23.539 0 1
23.6547 0 1
23.7704 0 1
23.8862 0 1
24.0021 0 1
24.118 0 1
24.234 0 1
24.35 0 1
24.4661 1619 40.2368
24.5822 1595 39.9375
24.6984 1591 39.8873
24.8146 1532 39.1408
24.9309 1475 38.4057
25.0472 1466 38.2884
25.1636 1594 39.9249
25.28 1551 39.3827
25.3965 1645 40.5586
25.513 1825 42.72
25.6296 1802 42.45
25.7462 1816 42.6146
25.8628 1733 41.6293
25.9795 1811 42.5558
26.0962 1779 42.1782
26.213 1797 42.391
26.3298 1809 42.5323
26.4466 1706 41.3038
26.5635 1695 41.1704
26.6804 1542 39.2683
26.7973 1557 39.4588
26.9143 1650 40.6202
27.0313 1661 40.7554
27.1483 1751 41.845
27.2653 1748 41.8091
27.3824 1835 42.8369
27.4996 1721 41.4849
27.6167 1747 41.7971
27.7339 1776 42.1426
27.8511 1644 40.5463
27.9683 1662 40.7676
28.0855 1633 40.4104
28.2028 1667 40.8289
28.3201 1526 39.064
28.4374 1470 38.3406
28.5547 1474 38.3927
28.6721 1486 38.5487
28.7894 1486 38.5487
28.9068 1517 38.9487
29.0242 1600 40
29.1416 1606 40.0749
29.259 1646 40.5709
29.3764 1816 42.6146
29.4939 1693 41.1461
29.6113 1706 41.3038
29.7288 1658 40.7185
29.8463 1683 41.0244
29.9638 1619 40.2368
30.0812 1565 39.5601
30.1987 1497 38.6911
30.3162 1513 38.8973
30.4337 1589 39.8623
30.5512 1572 39.6485
30.6687 1610 40.1248
30.7862 1706 41.3038
30.9037 1671 40.8779
31.0212 1752 41.8569
31.1387 1739 41.7013
31.2562 1752 41.8569
31.3737 1668 40.8412
31.4912 1617 40.2119
31.6087 1540 39.2428
31.7262 1581 39.7618
31.8436 1632 40.398
31.9611 1435 37.8814
32.0785 1422 37.7094
32.1959 1430 37.8153
32.3134 1457 38.1707
32.4308 1598 39.975
32.5482 1630 40.3733
32.6655 1598 39.975
32.7829 1650 40.6202
32.9002 1666 40.8167
33.0176 1714 41.4005
33.1349 1737 41.6773
33.2522 1615 40.1871
33.3694 1665 40.8044
33.4867 1684 41.0366
33.6039 1627 40.3361
33.7211 1595 39.9375
33.8383 1523 39.0256
33.9554 1516 38.9358
34.0725 1592 39.8999
34.1896 1627 40.3361
34.3067 1624 40.2989
34.4237 1737 41.6773
34.5407 1722 41.497
34.6577 1789 42.2966
34.7746 1706 41.3038
34.8915 1672 40.8901
35.0084 1745 41.7732
35.1252 1689 41.0974
35.242 1687 41.0731
35.3587 1607 40.0874
35.4755 1539 39.2301
35.5921 1536 39.1918
35.7088 1457 38.1707
35.8254 1359 36.8646
35.9419 1502 38.7556
36.0584 1509 38.8458
36.1749 1482 38.4968
36.2913 1535 39.1791
36.4077 1639 40.4846
36.524 1742 41.7373
36.6403 1643 40.5339
36.7565 1638 40.4722
36.8727 1665 40.8044
36.9889 1642 40.5216
37.1049 1708 41.328
37.221 0 1
37.3369 0 1
37.4529 0 1
37.5687 0 1
37.6845 0 1
37.8003 0 1
37.916 0 1
38.0316 0 1
38.1472 0 1
40.5851 0 1
40.7008 0 1
40.8164 0 1
40.9322 0 1
41.048 0 1
41.1639 0 1
41.2798 0 1
41.3958 0 1
41.5118 0 1
41.6279 0 1
41.744 1438 37.921
41.8602 1400 37.4166
41.9765 1509 38.8458
42.0928 1502 38.7556
42.2091 1519 38.9744
42.3255 1477 38.4318
42.4419 1418 37.6563
42.5584 1324 36.3868
42.675 1252 35.3836
42.7915 1223 34.9714
42.9081 1327 36.428
43.0248 1437 37.9078
43.1415 1484 38.5227
43.2582 1482 38.4968
43.375 1553 39.4081
43.4918 1555 39.4335
43.6087 1470 38.3406
43.7256 1410 37.55
43.8425 1442 37.9737
43.9595 1375 37.081
44.0765 1373 37.054
44.1935 1295 35.9861
44.3106 1308 36.1663
44.4277 1189 34.4819
44.5448 1099 33.1512
44.6619 1090 33.0151
44.7791 1067 32.665
44.8963 1104 33.2265
45.0136 1223 34.9714
45.1308 1274 35.6931
45.2481 1264 35.5528
45.3654 1202 34.6699
45.4827 1255 35.426
45.6001 1291 35.9305
45.7174 1273 35.6791
45.8348 1293 35.9583
45.9522 1259 35.4824
46.0697 1135 33.6898
46.1871 1116 33.4066
46.3046 1071 32.7261
46.422 1099 33.1512
46.5395 1148 33.8821
46.657 1161 34.0735
46.7745 1195 34.5688
46.892 1198 34.6121
47.0096 1197 34.5977
47.1271 1240 35.2136
47.2446 1265 35.5668
47.3622 1105 33.2415
47.4797 1187 34.4529
47.5973 1142 33.7935
47.7149 1098 33.1361
47.8324 1029 32.078
47.95 1021 31.9531
48.0675 834 28.8791
48.1851 790 28.1069
48.3027 882 29.6985
48.4202 928 30.4631
48.5378 960 30.9839
48.6554 1008 31.749
48.7729 986 31.4006
48.8904 1056 32.4962
49.008 1073 32.7567
49.1255 1024 32
49.243 1133 33.6601
49.3605 1061 32.573
49.478 1007 31.7333
49.5955 1004 31.686
49.713 1005 31.7017
49.8304 941 30.6757
49.9479 1005 31.7017
50.0653 1043 32.2955
50.1827 1175 34.2783
50.3001 1150 33.9116
50.4175 1283 35.819
50.5348 1201 34.6554
50.6521 1280 35.7771
50.7694 1289 35.9026
50.8867 1321 36.3456
51.004 1304 36.1109
51.1212 1288 35.8887
51.2384 1344 36.6606
51.3556 1303 36.0971
51.4727 1224 34.9857
51.5899 1241 35.2278
51.707 1187 34.4529
51.824 1110 33.3167
51.9411 1222 34.9571
52.0581 1379 37.1349
52.175 1415 37.6165
52.2919 1513 38.8973
52.4088 1557 39.4588
52.5257 1582 39.7744
52.6425 1607 40.0874
52.7593 1589 39.8623
52.876 1585 39.8121
52.9927 1630 40.3733
53.1094 1498 38.704
53.226 1537 39.2046
53.3426 1538 39.2173
53.4591 1477 38.4318
53.5756 1523 39.0256
53.692 1602 40.025
53.8084 1675 40.9268
53.9248 1738 41.6893
54.0411 1731 41.6053
54.1573 1799 42.4146
54.2735 0 1
54.3896 0 1
54.5057 0 1
54.6217 0 1
54.7377 0 1
54.8537 0 1
54.9695 0 1
55.0853 0 1
55.2011 0 1
55.3168 0 1
55.4324 0 1
57.824 0 1
57.9396 0 1
58.0553 0 1
58.1711 0 1
58.2869 0 1
58.4028 0 1
58.5187 0 1
58.6347 0 1
58.7508 0 1
58.8669 0 1
58.983 2071 45.5082
59.0992 2168 46.5618
59.2155 2272 47.6655
59.3318 2264 47.5815
59.4482 2212 47.0319
59.5646 2372 48.7032
59.681 2293 47.8853
59.7975 2190 46.7974
59.9141 2096 45.7821
60.0306 2028 45.0333
60.1473 1905 43.6463
60.2639 1842 42.9185
60.3807 1658 40.7185
60.4974 1656 40.694
60.6142 1671 40.8779
60.731 1843 42.9302
60.8479 1971 44.3959
60.9648 2056 45.3431
61.0818 2129 46.1411
61.1987 2084 45.6508
61.3158 2086 45.6727
61.4328 2107 45.9021
61.5499 2122 46.0652
61.667 1998 44.699
61.7841 1886 43.4281
61.9013 1949 44.1475
62.0185 1938 44.0227
62.1357 1970 44.3847
62.253 2023 44.9778
62.3702 2035 45.111
62.4875 2089 45.7056
62.6049 2254 47.4763
62.7222 2249 47.4236
62.8396 2204 46.9468
62.9569 2254 47.4763
63.0743 2181 46.7012
63.1918 2184 46.7333
63.3092 2134 46.1952
63.4267 2066 45.4533
63.5441 1940 44.0454
63.6616 1848 42.9884
63.7791 1707 41.3159
63.8966 1558 39.4715
64.0142 1526 39.064
64.1317 1657 40.7063
64.2492 1743 41.7493
64.3668 1926 43.8862
64.4843 1995 44.6654
64.6019 2088 45.6946
64.7195 2162 46.4973
64.837 2133 46.1844
64.9546 2133 46.1844
65.0722 2050 45.2769
65.1898 2030 45.0555
65.3074 2010 44.833
65.4249 1879 43.3474
65.5425 1828 42.7551
65.6601 1948 44.1362
65.7777 1997 44.6878
65.8952 2094 45.7602
66.0128 2089 45.7056
66.1304 2221 47.1275
66.2479 2219 47.1063
66.3655 2221 47.1275
66.483 2303 47.9896
66.6005 2227 47.1911
66.718 2276 47.7074
66.8355 2249 47.4236
66.953 2233 47.2546
67.0705 2084 45.6508
67.1879 2110 45.9347
67.3054 1807 42.5088
67.4228 1698 41.2068
67.5402 1578 39.724
67.6576 1582 39.7744
67.7749 1657 40.7063
67.8923 1913 43.7379
68.0096 2047 45.2438
68.1269 2144 46.3033
68.2442 2188 46.7761
68.3614 2262 47.5605
68.4787 2254 47.4763
68.5958 2270 47.6445
68.713 2282 47.7703
68.8302 2177 46.6583
68.9473 2170 46.5833
69.0643 2101 45.8367
69.1814 2099 45.8148
69.2984 2113 45.9674
69.4154 2202 46.9255
69.5323 2307 48.0312
69.6492 2369 48.6724
69.7661 2502 50.02
69.8829 2535 50.3488
69.9997 2705 52.0096
70.1165 2627 51.2543
70.2332 2615 51.1371
70.3499 2594 50.9313
70.4665 2558 50.5767
70.5831 2527 50.2693
70.6996 2471 49.7092
70.8161 2277 47.7179
70.9326 2172 46.6047
71.049 2002 44.7437
71.1653 1674 40.9145
71.2817 1729 41.5812
71.3979 1720 41.4729
71.5141 1877 43.3244
71.6303 1968 44.3621
71.7464 1954 44.2041
71.8624 0 1
71.9784 0 1
72.0944 0 1
72.2102 0 1
72.3261 0 1
72.4418 0 1
72.5575 0 1
72.6732 0 1
75.1054 0 1
75.2209 0 1
75.3365 0 1
75.4521 0 1
75.5678 0 1
75.6835 0 1
75.7993 0 1
75.9151 0 1
76.031 0 1
76.147 2427 49.2646
76.263 2337 48.3425
76.3791 2233 47.2546
76.4952 1994 44.6542
76.6113 1861 43.1393
76.7276 2117 46.0109
76.8438 2212 47.0319
76.9601 2453 49.5278
77.0765 2560 50.5964
77.1929 2721 52.1632
77.3093 2969 54.4885
77.4258 2934 54.1664
77.5423 2793 52.8488
77.6589 2916 54
77.7755 2812 53.0283
77.8921 2728 52.2303
78.0088 2743 52.3737
78.1256 2609 51.0784
78.2423 2555 50.547
78.3591 2468 49.679
78.4759 2568 50.6754
78.5928 2757 52.5071
78.7097 2831 53.2071
78.8266 3066 55.3715
78.9436 2884 53.7029
79.0606 2996 54.7357
79.1776 3034 55.0818
79.2946 3096 55.6417
79.4117 3048 55.2087
79.5288 3108 55.7494
79.6459 2926 54.0925
79.7631 2960 54.4059
79.8802 2725 52.2015
79.9974 2501 50.01
80.1147 2221 47.1275
80.2319 2090 45.7165
80.3491 2108 45.913
80.4664 2314 48.1041
80.5837 2660 51.5752
80.701 2775 52.6783
80.8183 3033 55.0727
80.9357 3016 54.9181
81.053 3169 56.2939
81.1704 3156 56.1783
81.2877 3116 55.8211
81.4051 3065 55.3624
81.5225 3107 55.7405
81.6399 2874 53.6097
81.7573 2866 53.535
81.8747 2626 51.2445
81.9922 2667 51.643
82.1096 2660 51.5752
82.227 2863 53.507
82.3444 2991 54.69
82.4619 3218 56.7274
82.5793 3141 56.0446
82.6967 3310 57.5326
82.8142 3197 56.542
82.9316 3266 57.1489
83.049 3240 56.921
83.1664 3166 56.2672
83.2838 3155 56.1694
83.4012 3049 55.2178
83.5186 2728 52.2303
83.636 2605 51.0392
83.7534 2271 47.655
83.8708 2060 45.3872
83.9881 2130 46.1519
84.1055 2248 47.4131
84.2228 2459 49.5883
84.3401 2834 53.2353
84.4575 3115 55.8122
84.5747 3187 56.4535
84.692 3268 57.1664
84.8093 3341 57.8014
84.9265 3377 58.112
85.0437 3294 57.3934
85.1609 3162 56.2317
85.2781 3266 57.1489
85.3952 3074 55.4437
85.5123 2999 54.7631
85.6294 2983 54.6168
85.7465 3112 55.7853
85.8636 3306 57.4978
85.9806 3408 58.3781
86.0976 3596 59.9667
86.2145 3715 60.9508
86.3315 3677 60.6383
86.4484 3895 62.4099
86.5652 3898 62.434
86.682 3974 63.0397
86.7988 3906 62.498
86.9156 3789 61.5549
87.0323 3653 60.4401
87.149 3386 58.1893
87.2657 3108 55.7494
87.3823 2942 54.2402
87.4988 2752 52.4595
87.6154 2912 53.963
87.7318 3162 56.2317
87.8483 3648 60.3987
87.9647 3952 62.8649
88.081 4147 64.3972
88.1973 4291 65.5057
88.3136 4318 65.7115
88.4298 4367 66.0833
88.546 4423 66.5056
88.6621 4297 65.5515
88.7781 4206 64.8537
88.8942 0 1
89.0101 0 1
89.126 0 1
89.2419 0 1
89.3577 0 1
89.4734 0 1
89.5891 0 1
89.7047 0 1
89.8203 0 1
89.9358 0 1
92.3269 0 1
92.4424 0 1
92.558 0 1
92.6736 0 1
92.7893 0 1
92.905 0 1
93.0208 0 1
93.1366 0 1
93.2525 0 1
93.3685 0 1
93.4845 0 1
93.6005 4736 68.8186
93.7167 4774 69.0941
93.8328 4788 69.1954
93.949 4854 69.6707
94.0653 4889 69.9214
94.1816 4751 68.9275
94.2979 4665 68.3008
94.4143 4519 67.2235
94.5307 4529 67.2978
94.6472 4358 66.0151
94.7637 4315 65.6887
94.8803 4491 67.0149
94.9969 4593 67.7717
95.1135 4925 70.1783
95.2302 4921 70.1498
95.3469 5115 71.5192
95.4637 5119 71.5472
95.5805 5316 72.9109
95.6973 5399 73.4779
95.8142 5440 73.7564
95.9311 5310 72.8697
96.048 5066 71.1758
96.1649 4908 70.0571
96.2819 4759 68.9855
96.3989 4434 66.5883
96.516 4213 64.9076
96.633 3690 60.7454
96.7501 3563 59.6909
96.8673 3892 62.3859
96.9844 4226 65.0077
97.1016 4828 69.4838
97.2188 5121 71.5612
97.336 5526 74.3371
97.4532 5574 74.6592
97.5704 5687 75.4122
97.6877 5714 75.591
97.805 5475 73.9932
97.9223 5425 73.6546
98.0396 5327 72.9863
98.1569 5226 72.2911
98.2743 5064 71.1618
98.3916 4961 70.4344
98.509 4961 70.4344
98.6264 5056 71.1056
98.7438 5423 73.641
98.8612 5465 73.9256
98.9786 5808 76.2102
99.096 5776 76
99.2134 5848 76.4722
99.3308 5827 76.3348
99.4482 6001 77.4661
99.5656 6013 77.5435
99.6831 5703 75.5182
99.8005 5677 75.3459
99.9179 5234 72.3464
100.035 5141 71.7008
100.153 4679 68.4032
100.27 4311 65.6582
100.388 4098 64.0156
100.505 4727 68.7532
100.622 5248 72.4431
100.74 5608 74.8866
100.857 5980 77.3305
100.975 6132 78.3071
101.092 6236 78.9683
101.209 6065 77.8781
101.327 6199 78.7337
101.444 6229 78.924
101.561 5896 76.7854
101.679 5922 76.9545
101.796 5607 74.8799
101.913 5637 75.08
102.03 5499 74.1552
102.148 5646 75.1399
102.265 6194 78.702
102.382 5791 76.0986
102.499 6330 79.5613
102.616 6383 79.8937
102.733 6511 80.6908
102.851 6642 81.4985
102.968 6631 81.431
103.085 6628 81.4125
103.202 6558 80.9815
103.319 6240 78.9937
103.436 6114 78.1921
103.552 5568 74.619
103.669 5247 72.4362
103.786 4655 68.2276
103.903 4728 68.7605
104.02 5071 71.211
104.137 5551 74.505
104.253 6578 81.1049
104.37 6638 81.4739
104.487 6973 83.5045
104.603 6923 83.2046
104.72 6993 83.6242
104.836 6941 83.3127
104.953 6859 82.8191
105.069 6654 81.5721
105.186 6430 80.1873
105.302 6341 79.6304
105.418 6209 78.7972
105.535 6219 78.8606
105.651 6456 80.3492
105.767 6455 80.343
105.883 6940 83.3067
105.999 7025 83.8153
106.115 0 1
106.231 0 1
106.347 0 1
106.463 0 1
106.579 0 1
106.694 0 1
106.81 0 1
106.926 0 1
107.041 0 1
107.157 0 1
109.576 0 1
109.692 0 1
109.807 0 1
109.923 0 1
110.039 0 1
110.155 0 1
110.27 0 1
110.386 0 1
110.502 0 1
110.618 5780 76.0263
110.735 6037 77.6981
110.851 6200 78.7401
110.967 6450 80.3119
111.083 6537 80.8517
111.199 6496 80.5978
111.316 6626 81.4002
111.432 6469 80.4301
111.549 6557 80.9753
111.665 6375 79.8436
111.782 6037 77.6981
111.898 5785 76.0592
112.015 5549 74.4916
112.132 5032 70.9366
112.248 4547 67.4314
112.365 4493 67.0298
112.482 4585 67.7126
112.599 4868 69.7711
112.716 5553 74.5185
112.832 5849 76.4788
112.949 6063 77.8653
113.066 5891 76.7529
113.183 6028 77.6402
113.3 5812 76.2365
113.417 5987 77.3757
113.534 5598 74.8198
113.652 5592 74.7797
113.769 5369 73.2735
113.886 5142 71.7077
114.003 5091 71.3512
114.12 5173 71.9236
114.238 5140 71.6938
114.355 5240 72.3878
114.472 5246 72.4293
114.589 5334 73.0342
114.707 5463 73.9121
114.824 5604 74.8599
114.942 5583 74.7195
115.059 5752 75.8419
115.176 5641 75.1066
115.294 5432 73.7021
115.411 5344 73.1027
115.529 4968 70.484
115.646 4650 68.1909
115.764 4310 65.6506
115.881 3941 62.7774
115.999 3925 62.6498
116.116 4332 65.8179
116.234 4743 68.8694
116.351 5007 70.7602
116.469 5287 72.7118
116.586 5516 74.2698
116.704 5406 73.5255
116.821 5440 73.7564
116.939 5461 73.8986
117.056 5382 73.3621
117.174 5345 73.1095
117.291 5088 71.3302
117.409 5159 71.8262
117.526 4887 69.9071
117.644 4845 69.606
117.761 5070 71.2039
117.879 5127 71.6031
117.996 5257 72.5052
118.114 5369 73.2735
118.231 5364 73.2393
118.349 5389 73.4098
118.466 5532 74.3774
118.584 5496 74.135
118.701 5547 74.4782
118.819 5434 73.7157
118.936 5316 72.9109
119.053 4942 70.2994
119.171 4917 70.1213
119.288 4481 66.9403
119.405 4071 63.8044
119.523 3880 62.2896
119.64 3912 62.546
119.757 4176 64.622
119.875 4440 66.6333
119.992 4975 70.5337
120.109 5154 71.7914
120.226 5159 71.8262
120.343 5322 72.952
120.46 5241 72.3948
120.578 5212 72.1942
120.695 5119 71.5472
120.812 5165 71.8679
120.929 5043 71.0141
121.046 4800 69.282
121.163 4734 68.8041
121.279 4629 68.0368
121.396 4608 67.8823
121.513 4834 69.527
121.63 4788 69.1954
121.747 4804 69.3109
121.863 4997 70.6895
121.98 4973 70.5195
122.097 4947 70.3349
122.213 5147 71.7426
122.33 5220 72.2496
122.446 5123 71.5751
122.563 4993 70.6612
122.679 4902 70.0143
122.795 4782 69.152
122.912 4481 66.9403
123.028 4298 65.5591
123.144 3966 62.9762
123.26 3564 59.6992
123.377 0 1
123.493 0 1
123.609 0 1
123.725 0 1
123.84 0 1
123.956 0 1
124.072 0 1
124.188 0 1
124.303 0 1
124.419 0 1
126.852 0 1
126.968 0 1
127.083 0 1
127.199 0 1
127.315 0 1
127.431 0 1
127.547 0 1
127.663 0 1
127.779 0 1
127.895 0 1
128.011 0 1
128.127 0 1
128.243 0 1
128.359 4385 66.2193
128.476 3846 62.0161
128.592 3927 62.6658
128.708 4274 65.3758
128.825 4735 68.8113
128.941 5138 71.6798
129.058 5352 73.1574
129.174 5384 73.3757
129.291 5413 73.5731
129.408 5429 73.6817
129.524 5513 74.2496
129.641 5304 72.8286
129.758 5283 72.6842
129.875 5127 71.6031
129.992 5038 70.9789
130.108 4913 70.0928
130.225 4808 69.3397
130.342 4949 70.3491
130.459 4875 69.8212
130.576 5202 72.1249
130.693 5014 70.8096
130.81 5042 71.007
130.928 5175 71.9375
131.045 5160 71.8331
131.162 5238 72.374
131.279 5269 72.5879
131.396 5198 72.0972
131.513 5200 72.111
131.631 4982 70.5833
131.748 4767 69.0435
131.865 4459 66.7757
131.983 4019 63.3956
132.1 3830 61.887
132.217 4008 63.3088
132.335 4257 65.2457
132.452 4710 68.6294
132.57 5052 71.0774
132.687 5065 71.1688
132.804 5223 72.2703
132.922 5041 71
133.039 5058 71.1196
133.157 5049 71.0563
133.274 5050 71.0634
133.392 4972 70.5124
133.509 4799 69.2748
133.627 4803 69.3037
133.744 4708 68.6149
133.862 4569 67.5944
133.979 4589 67.7422
134.097 4747 68.8985
134.214 4857 69.6922
134.332 4769 69.0579
134.449 4932 70.2282
134.567 4872 69.7997
134.684 4978 70.5549
134.802 4925 70.1783
134.919 5048 71.0493
135.037 4835 69.5342
135.154 5039 70.9859
135.272 4724 68.7314
135.389 4348 65.9394
135.507 3994 63.1981
135.624 3761 61.327
135.742 3762 61.3351
135.859 3912 62.546
135.977 4320 65.7267
136.094 4765 69.029
136.211 4957 70.406
136.329 4921 70.1498
136.446 4981 70.5762
136.564 4837 69.5485
136.681 4889 69.9214
136.798 4801 69.2892
136.915 4833 69.5198
137.033 4696 68.5274
137.15 4614 67.9264
137.267 4566 67.5722
137.384 4513 67.1789
137.502 4509 67.1491
137.619 4632 68.0588
137.736 4579 67.6683
137.853 4560 67.5278
137.97 4590 67.7495
138.087 4781 69.1448
138.204 4703 68.5784
138.321 4690 68.4836
138.438 4792 69.2243
138.555 4784 69.1665
138.672 4787 69.1881
138.788 4650 68.1909
138.905 4616 67.9412
139.022 4360 66.0303
139.139 3991 63.1744
139.255 3752 61.2536
139.372 3645 60.3738
139.488 3816 61.7738
139.605 4388 66.242
139.721 4546 67.424
139.838 4818 69.4118
139.954 4840 69.5701
140.071 4650 68.1909
140.187 4899 69.9929
140.303 4740 68.8477
140.419 4741 68.8549
140.535 4621 67.9779
140.652 4691 68.4909
140.768 0 1
140.884 0 1
141 0 1
141.115 0 1
141.231 0 1
141.347 0 1
141.463 0 1
141.578 0 1
141.694 0 1
144.104 0 1
144.219 0 1
144.335 0 1
144.45 0 1
144.566 0 1
144.682 0 1
144.798 0 1
144.914 0 1
145.03 0 1
145.146 4108 64.0937
145.262 4129 64.2573
145.378 4174 64.6065
145.494 4138 64.3273
145.61 4050 63.6396
145.726 3917 62.5859
145.842 3856 62.0967
145.959 3890 62.3699
146.075 3870 62.2093
146.192 3725 61.0328
146.308 3821 61.8142
146.425 3821 61.8142
146.541 3911 62.538
146.658 3787 61.5386
146.774 3724 61.0246
146.891 3826 61.8547
147.008 3946 62.8172
147.125 3976 63.0555
147.241 3958 62.9126
147.358 3921 62.6179
147.475 3844 62
147.592 3816 61.7738
147.709 3411 58.4038
147.826 3076 55.4617
147.943 3060 55.3173
148.06 3176 56.356
148.177 3427 58.5406
148.294 3621 60.1747
148.411 3862 62.145
148.528 3911 62.538
148.645 3890 62.3699
148.762 3874 62.2415
148.88 3872 62.2254
148.997 3705 60.8687
149.114 3881 62.2977
149.231 3787 61.5386
149.349 3605 60.0417
149.466 3654 60.4483
149.583 3538 59.4811
149.701 3546 59.5483
149.818 3526 59.3801
149.935 3476 58.9576
150.053 3534 59.4475
150.17 3518 59.3127
150.287 3705 60.8687
150.405 3690 60.7454
150.522 3660 60.4979
150.64 3646 60.3821
150.757 3699 60.8194
150.875 3775 61.441
150.992 3700 60.8276
151.11 3559 59.6574
151.227 3334 57.7408
151.344 3268 57.1664
151.462 3001 54.7814
151.579 2908 53.9259
151.697 3036 55.0999
151.814 3356 57.931
151.932 3576 59.7997
152.049 3700 60.8276
152.167 3675 60.6218
152.284 3856 62.0967
152.402 3827 61.8628
152.519 3691 60.7536
152.636 3704 60.8605
152.754 3687 60.7207
152.871 3683 60.6877
152.989 3675 60.6218
153.106 3571 59.7578
153.223 3449 58.7282
153.341 3344 57.8273
153.458 3381 58.1464
153.575 3496 59.127
153.693 3607 60.0583
153.81 3537 59.4727
153.927 3657 60.4731
154.044 3571 59.7578
154.162 3745 61.1964
154.279 3693 60.7701
154.396 3701 60.8358
154.513 3754 61.2699
154.63 3770 61.4003
154.747 3737 61.131
154.864 3519 59.3212
154.981 3454 58.7707
155.098 3300 57.4456
155.215 3122 55.8749
155.332 3236 56.8859
155.449 3450 58.7367
155.566 3592 59.9333
155.683 3774 61.4329
155.8 3770 61.4003
155.917 3839 61.9597
156.033 3766 61.3677
156.15 0 1
156.267 0 1
156.383 0 1
156.5 0 1
156.617 0 1
156.733 0 1
156.85 0 1
156.966 0 1
157.082 0 1
157.199 0 1
157.315 0 1
157.431 0 1
157.547 0 1
157.664 0 1
157.78 0 1
157.896 0 1
158.012 0 1
158.128 0 1
158.244 0 1
158.359 0 1
158.475 0 1
158.591 0 1
158.706 0 1
