
6.15755 0 1
6.2731 0 1
6.3887 0 1
6.50437 0 1
6.62009 0 1
6.73587 0 1
6.8517 0 1
6.96759 0 1
7.08353 0 1
7.19952 0 1
7.31557 0 1
7.43166 0 1
7.54781 0 1
7.664 0 1
7.78024 0 1
7.89653 0 1
8.01286 0 1
8.12924 0 1
8.24567 0 1
8.36213 0 1
8.47864 0 1
8.59519 0 1
8.71178 0 1
8.82841 0 1
8.94508 0 1
9.06179 0 1
9.17853 0 1
9.29531 0 1
9.41212 0 1
9.52897 0 1
9.64584 0 1
9.76276 0 1
9.8797 0 1
9.99667 0 1
10.1137 0 1
10.2307 0 1
10.3478 0 1
10.4648 0 1
10.5819 0 1
10.6991 0 1
10.8162 0 1
10.9334 0 1
11.0506 0 1
11.1678 0 1
11.285 0 1
11.4023 0 1
11.5196 0 1
11.6369 0 1
11.7542 0 1
11.8715 0 1
11.9888 0 1
12.1062 0 1
12.2235 0 1
12.3409 0 1
12.4582 0 1
12.5756 0 1
12.693 0 1
12.8104 0 1
12.9278 0 1
13.0452 0 1
13.1626 0 1
13.28 0 1
13.3974 0 1
13.5149 0 1
13.6323 0 1
13.7497 0 1
13.8671 0 1
13.9845 0 1
14.1019 0 1
14.2193 0 1
14.3367 0 1
14.4541 0 1
14.5714 0 1
14.6888 0 1
14.8062 0 1
14.9235 0 1
15.0408 972 31.1769
15.1581 1020 31.9374
15.2755 1030 32.0936
15.3927 1055 32.4808
15.51 1052 32.4345
15.6273 961 31
15.7445 987 31.4166
15.8617 953 30.8707
15.9789 1047 32.3574
16.0961 1030 32.0936
16.2132 1069 32.6956
16.3304 1158 34.0294
16.4475 1107 33.2716
16.5646 1129 33.6006
16.6816 1155 33.9853
16.7986 1173 34.2491
16.9156 1204 34.6987
17.0326 1135 33.6898
17.1496 1122 33.4963
17.2665 1128 33.5857
17.3833 1155 33.9853
17.5002 1181 34.3657
17.617 1158 34.0294
17.7338 1214 34.8425
17.8505 1233 35.1141
17.9672 1247 35.3129
18.0839 1248 35.327
18.2005 1276 35.7211
18.3171 1374 37.0675
18.4337 1338 36.5787
18.5502 1364 36.9324
18.6666 1309 36.1801
18.7831 1319 36.318
18.8994 1304 36.1109
19.0158 1304 36.1109
19.1321 1315 36.2629
19.2483 1191 34.5109
19.3645 1154 33.9706
19.4806 1223 34.9714
19.5967 1216 34.8712
19.7128 1307 36.1525
19.8288 1365 36.9459
19.9447 1291 35.9305
20.0606 0 1
20.1764 0 1
20.2922 0 1
20.4079 0 1
20.5236 0 1
20.6392 0 1
20.7548 0 1
20.8702 0 1
23.3078 0 1
23.4233 0 1
23.539 0 1
23.6547 0 1
23.7704 0 1
23.8862 0 1
24.0021 0 1
24.118 0 1
24.234 0 1
24.35 0 1
24.4661 1262 35.5246
24.5822 1193 34.5398
24.6984 1289 35.9026
24.8146 1334 36.524
24.9309 1352 36.7696
25.0472 1363 36.9188
25.1636 1410 37.55
25.28 1459 38.1969
25.3965 1460 38.2099
25.513 1405 37.4833
25.6296 1408 37.5233
25.7462 1464 38.2623
25.8628 1351 36.756
25.9795 1446 38.0263
26.0962 1386 37.229
26.213 1385 37.2156
26.3298 1379 37.1349
26.4466 1447 38.0395
26.5635 1547 39.3319
26.6804 1506 38.8072
26.7973 1605 40.0625
26.9143 1520 38.9872
27.0313 1579 39.7366
27.1483 1665 40.8044
27.2653 1553 39.4081
27.3824 1581 39.7618
27.4996 1602 40.025
27.6167 1514 38.9102
27.7339 1508 38.833
27.8511 1481 38.4838
27.9683 1440 37.9473
28.0855 1357 36.8375
28.2028 1322 36.3593
28.3201 1365 36.9459
28.4374 1444 38
28.5547 1401 37.4299
28.6721 1515 38.923
28.7894 1559 39.4842
28.9068 1491 38.6135
29.0242 1492 38.6264
29.1416 1430 37.8153
29.259 1401 37.4299
29.3764 1425 37.7492
29.4939 1375 37.081
29.6113 1314 36.2491
29.7288 1327 36.428
29.8463 1436 37.8946
29.9638 1496 38.6782
30.0812 1495 38.6652
30.1987 1547 39.3319
30.3162 1541 39.2556
30.4337 1637 40.4599
30.5512 1551 39.3827
30.6687 1645 40.5586
30.7862 1781 42.2019
30.9037 1677 40.9512
31.0212 1665 40.8044
31.1387 1569 39.6106
31.2562 1667 40.8289
31.3737 1585 39.8121
31.4912 1564 39.5474
31.6087 1402 37.4433
31.7262 1440 37.9473
31.8436 1367 36.973
31.9611 1429 37.8021
32.0785 1521 39
32.1959 1525 39.0512
32.3134 1565 39.5601
32.4308 1747 41.7971
32.5482 1637 40.4599
32.6655 1521 39
32.7829 1475 38.4057
32.9002 1487 38.5616
33.0176 1440 37.9473
33.1349 1434 37.8682
33.2522 1496 38.6782
33.3694 1377 37.108
33.4867 1439 37.9342
33.6039 1504 38.7814
33.7211 1634 40.4228
33.8383 1535 39.1791
33.9554 1609 40.1123
34.0725 1673 40.9023
34.1896 1588 39.8497
34.3067 1736 41.6653
34.4237 1758 41.9285
34.5407 1771 42.0833
34.6577 1738 41.6893
34.7746 1705 41.2916
34.8915 1637 40.4599
35.0084 1577 39.7115
35.1252 1604 40.05
35.242 1556 39.4462
35.3587 1479 38.4578
35.4755 1501 38.7427
35.5921 1446 38.0263
35.7088 1561 39.5095
35.8254 1597 39.9625
35.9419 1653 40.6571
36.0584 1605 40.0625
36.1749 1702 41.2553
36.2913 1636 40.4475
36.4077 1580 39.7492
36.524 1481 38.4838
36.6403 1533 39.1535
36.7565 1418 37.6563
36.8727 1456 38.1576
36.9889 1470 38.3406
37.1049 1460 38.2099
37.221 0 1
37.3369 0 1
37.4529 0 1
37.5687 0 1
37.6845 0 1
37.8003 0 1
37.916 0 1
38.0316 0 1
38.1472 0 1
40.5851 0 1
40.7008 0 1
40.8164 0 1
40.9322 0 1
41.048 0 1
41.1639 0 1
41.2798 0 1
41.3958 0 1
41.5118 0 1
41.6279 0 1
41.744 1275 35.7071
41.8602 1297 36.0139
41.9765 1305 36.1248
42.0928 1250 35.3553
42.2091 1294 35.9722
42.3255 1321 36.3456
42.4419 1379 37.1349
42.5584 1469 38.3275
42.675 1505 38.7943
42.7915 1541 39.2556
42.9081 1668 40.8412
43.0248 1573 39.6611
43.1415 1551 39.3827
43.2582 1608 40.0999
43.375 1585 39.8121
43.4918 1593 39.9124
43.6087 1527 39.0768
43.7256 1546 39.3192
43.8425 1441 37.9605
43.9595 1448 38.0526
44.0765 1409 37.5366
44.1935 1396 37.3631
44.3106 1262 35.5246
44.4277 1306 36.1386
44.5448 1328 36.4417
44.6619 1341 36.6197
44.7791 1391 37.2961
44.8963 1324 36.3868
45.0136 1355 36.8103
45.1308 1285 35.8469
45.2481 1206 34.7275
45.3654 1221 34.9428
45.4827 1159 34.0441
45.6001 1092 33.0454
45.7174 1129 33.6006
45.8348 1129 33.6006
45.9522 1127 33.5708
46.0697 1181 34.3657
46.1871 1222 34.9571
46.3046 1320 36.3318
46.422 1316 36.2767
46.5395 1324 36.3868
46.657 1346 36.6879
46.7745 1295 35.9861
46.892 1372 37.0405
47.0096 1328 36.4417
47.1271 1376 37.0945
47.2446 1282 35.805
47.3622 1303 36.0971
47.4797 1269 35.623
47.5973 1182 34.3802
47.7149 1130 33.6155
47.8324 1096 33.1059
47.95 1056 32.4962
48.0675 1074 32.7719
48.1851 1137 33.7194
48.3027 1153 33.9559
48.4202 1115 33.3916
48.5378 1183 34.3948
48.6554 1137 33.7194
48.7729 1080 32.8634
48.8904 994 31.5278
49.008 1004 31.686
49.1255 934 30.5614
49.243 934 30.5614
49.3605 927 30.4467
49.478 973 31.1929
49.5955 1049 32.3883
49.713 1048 32.3728
49.8304 1101 33.1813
49.9479 1168 34.176
50.0653 1192 34.5254
50.1827 1205 34.7131
50.3001 1304 36.1109
50.4175 1245 35.2846
50.5348 1330 36.4692
50.6521 1289 35.9026
50.7694 1277 35.7351
50.8867 1326 36.4143
51.004 1229 35.0571
51.1212 1253 35.3977
51.2384 1234 35.1283
51.3556 1283 35.819
51.4727 1225 35
51.5899 1355 36.8103
51.707 1315 36.2629
51.824 1404 37.47
51.9411 1422 37.7094
52.0581 1464 38.2623
52.175 1391 37.2961
52.2919 1362 36.9053
52.4088 1286 35.8608
52.5257 1317 36.2905
52.6425 1234 35.1283
52.7593 1257 35.4542
52.876 1347 36.7015
52.9927 1337 36.565
53.1094 1445 38.0132
53.226 1496 38.6782
53.3426 1606 40.0749
53.4591 1695 41.1704
53.5756 1823 42.6966
53.692 1822 42.6849
53.8084 1918 43.795
53.9248 1848 42.9884
54.0411 1984 44.5421
54.1573 1989 44.5982
54.2735 0 1
54.3896 0 1
54.5057 0 1
54.6217 0 1
54.7377 0 1
54.8537 0 1
54.9695 0 1
55.0853 0 1
55.2011 0 1
55.3168 0 1
55.4324 0 1
57.824 0 1
57.9396 0 1
58.0553 0 1
58.1711 0 1
58.2869 0 1
58.4028 0 1
58.5187 0 1
58.6347 0 1
58.7508 0 1
58.8669 0 1
58.983 2169 46.5725
59.0992 2326 48.2286
59.2155 2358 48.5592
59.3318 2371 48.6929
59.4482 2348 48.4562
59.5646 2375 48.734
59.681 2324 48.2079
59.7975 2152 46.3897
59.9141 2329 48.2597
60.0306 2088 45.6946
60.1473 2267 47.613
60.2639 2222 47.1381
60.3807 2248 47.4131
60.4974 2104 45.8694
60.6142 2122 46.0652
60.731 2076 45.5631
60.8479 2017 44.911
60.9648 1934 43.9773
61.0818 1794 42.3556
61.1987 1694 41.1582
61.3158 1630 40.3733
61.4328 1689 41.0974
61.5499 1753 41.8688
61.667 1801 42.4382
61.7841 1915 43.7607
61.9013 2032 45.0777
62.0185 2185 46.744
62.1357 2170 46.5833
62.253 2239 47.3181
62.3702 2285 47.8017
62.4875 2347 48.4458
62.6049 2268 47.6235
62.7222 2317 48.1352
62.8396 2292 47.8748
62.9569 2156 46.4327
63.0743 2181 46.7012
63.1918 2277 47.7179
63.3092 2130 46.1519
63.4267 2117 46.0109
63.5441 2103 45.8585
63.6616 2089 45.7056
63.7791 2162 46.4973
63.8966 2045 45.2217
64.0142 2126 46.1086
64.1317 2098 45.8039
64.2492 2022 44.9667
64.3668 1957 44.238
64.4843 1760 41.9524
64.6019 1628 40.3485
64.7195 1651 40.6325
64.837 1585 39.8121
64.9546 1583 39.7869
65.0722 1619 40.2368
65.1898 1684 41.0366
65.3074 1834 42.8252
65.4249 1987 44.5758
65.5425 1930 43.9318
65.6601 2158 46.4543
65.7777 2081 45.618
65.8952 2198 46.8828
66.0128 2278 47.7284
66.1304 2238 47.3075
66.2479 2303 47.9896
66.3655 2259 47.5289
66.483 2314 48.1041
66.6005 2315 48.1144
66.718 2250 47.4342
66.8355 2283 47.7807
66.953 2146 46.3249
67.0705 2132 46.1736
67.1879 2248 47.4131
67.3054 2221 47.1275
67.4228 2194 46.8402
67.5402 2196 46.8615
67.6576 2227 47.1911
67.7749 2181 46.7012
67.8923 2166 46.5403
68.0096 2117 46.0109
68.1269 2013 44.8665
68.2442 1845 42.9535
68.3614 1834 42.8252
68.4787 1738 41.6893
68.5958 1680 40.9878
68.713 1729 41.5812
68.8302 1822 42.6849
68.9473 1996 44.6766
69.0643 2260 47.5395
69.1814 2290 47.8539
69.2984 2449 49.4874
69.4154 2513 50.1298
69.5323 2619 51.1762
69.6492 2715 52.1057
69.7661 2657 51.5461
69.8829 2802 52.9339
69.9997 2737 52.3163
70.1165 2684 51.8073
70.2332 2765 52.5833
70.3499 2686 51.8266
70.4665 2684 51.8073
70.5831 2809 53
70.6996 2568 50.6754
70.8161 2607 51.0588
70.9326 2682 51.788
71.049 2632 51.303
71.1653 2636 51.342
71.2817 2611 51.0979
71.3979 2588 50.8724
71.5141 2524 50.2394
71.6303 2270 47.6445
71.7464 2070 45.4973
71.8624 0 1
71.9784 0 1
72.0944 0 1
72.2102 0 1
72.3261 0 1
72.4418 0 1
72.5575 0 1
72.6732 0 1
75.1054 0 1
75.2209 0 1
75.3365 0 1
75.4521 0 1
75.5678 0 1
75.6835 0 1
75.7993 0 1
75.9151 0 1
76.031 0 1
76.147 2562 50.6162
76.263 2784 52.7636
76.3791 2930 54.1295
76.4952 2918 54.0185
76.6113 3078 55.4797
76.7276 3094 55.6237
76.8438 2853 53.4135
76.9601 2855 53.4322
77.0765 2726 52.2111
77.1929 2322 48.1871
77.3093 2266 47.6025
77.4258 2062 45.4093
77.5423 2070 45.4973
77.6589 2077 45.5741
77.7755 2238 47.3075
77.8921 2400 48.9898
78.0088 2741 52.3546
78.1256 2960 54.4059
78.2423 3084 55.5338
78.3591 3202 56.5862
78.4759 3346 57.8446
78.5928 3337 57.7668
78.7097 3391 58.2323
78.8266 3295 57.4021
78.9436 3600 60
79.0606 3321 57.6281
79.1776 3337 57.7668
79.2946 3411 58.4038
79.4117 3300 57.4456
79.5288 3181 56.4004
79.6459 3199 56.5597
79.7631 3122 55.8749
79.8802 2918 54.0185
79.9974 3050 55.2268
80.1147 3039 55.1271
80.2319 3144 56.0714
80.3491 3312 57.55
80.4664 3297 57.4195
80.5837 3094 55.6237
80.701 2861 53.4883
80.8183 2526 50.2593
80.9357 2215 47.0638
81.053 2162 46.4973
81.1704 1959 44.2606
81.2877 2057 45.3542
81.4051 2166 46.5403
81.5225 2276 47.7074
81.6399 2596 50.951
81.7573 2862 53.4977
81.8747 2930 54.1295
81.9922 3157 56.1872
82.1096 3325 57.6628
82.227 3296 57.4108
82.3444 3380 58.1378
82.4619 3305 57.4891
82.5793 3372 58.0689
82.6967 3376 58.1034
82.8142 3298 57.4282
82.9316 3187 56.4535
83.049 3166 56.2672
83.1664 3167 56.2761
83.2838 3036 55.0999
83.4012 2992 54.6992
83.5186 2909 53.9351
83.636 2902 53.8702
83.7534 3004 54.8088
83.8708 3210 56.6569
83.9881 3140 56.0357
84.1055 3139 56.0268
84.2228 2963 54.4334
84.3401 2703 51.9904
84.4575 2418 49.1732
84.5747 2272 47.6655
84.692 2106 45.8912
84.8093 2085 45.6618
84.9265 1959 44.2606
85.0437 2182 46.7119
85.1609 2424 49.2341
85.2781 2624 51.225
85.3952 2946 54.2771
85.5123 3218 56.7274
85.6294 3431 58.5747
85.7465 3526 59.3801
85.8636 3670 60.5805
85.9806 3690 60.7454
86.0976 3714 60.9426
86.2145 3758 61.3025
86.3315 3956 62.8967
86.4484 3779 61.4736
86.5652 3852 62.0645
86.682 3858 62.1128
86.7988 3801 61.6523
86.9156 3830 61.887
87.0323 3873 62.2334
87.149 3750 61.2372
87.2657 3868 62.1932
87.3823 3970 63.0079
87.4988 4020 63.4035
87.6154 4031 63.4902
87.7318 3964 62.9603
87.8483 3819 61.7981
87.9647 3558 59.649
88.081 3157 56.1872
88.1973 2995 54.7266
88.3136 2756 52.4976
88.4298 2764 52.5738
88.546 2858 53.4603
88.6621 3005 54.8179
88.7781 3407 58.3695
88.8942 0 1
89.0101 0 1
89.126 0 1
89.2419 0 1
89.3577 0 1
89.4734 0 1
89.5891 0 1
89.7047 0 1
89.8203 0 1
89.9358 0 1
92.3269 0 1
92.4424 0 1
92.558 0 1
92.6736 0 1
92.7893 0 1
92.905 0 1
93.0208 0 1
93.1366 0 1
93.2525 0 1
93.3685 0 1
93.4845 0 1
93.6005 3032 55.0636
93.7167 2975 54.5436
93.8328 3034 55.0818
93.949 3194 56.5155
94.0653 3364 58
94.1816 3617 60.1415
94.2979 4023 63.4271
94.4143 4217 64.9384
94.5307 4700 68.5565
94.6472 4657 68.2422
94.7637 4828 69.4838
94.8803 4977 70.5479
94.9969 5114 71.5122
95.1135 5082 71.2881
95.2302 5074 71.232
95.3469 5005 70.746
95.4637 5101 71.4213
95.5805 5032 70.9366
95.6973 5015 70.8167
95.8142 4986 70.6116
95.9311 5057 71.1126
96.048 4932 70.2282
96.1649 4950 70.3562
96.2819 4813 69.3758
96.3989 4956 70.3989
96.516 4961 70.4344
96.633 5013 70.8025
96.7501 4883 69.8785
96.8673 4942 70.2994
96.9844 4571 67.6092
97.1016 4221 64.9692
97.2188 3866 62.1772
97.336 3459 58.8133
97.4532 3245 56.9649
97.5704 3216 56.7098
97.6877 3190 56.4801
97.805 3469 58.8982
97.9223 3813 61.7495
98.0396 4152 64.436
98.1569 4397 66.3099
98.2743 4753 68.942
98.3916 4953 70.3776
98.509 5151 71.7705
98.6264 5232 72.3326
98.7438 5265 72.5603
98.8612 5251 72.4638
98.9786 5212 72.1942
99.096 5278 72.6498
99.2134 5099 71.4073
99.3308 5195 72.0763
99.4482 5260 72.5259
99.5656 5190 72.0417
99.6831 5100 71.4143
99.8005 5069 71.1969
99.9179 4951 70.3633
100.035 4971 70.5053
100.153 5142 71.7077
100.27 5265 72.5603
100.388 5244 72.4155
100.505 5024 70.8802
100.622 4623 67.9926
100.74 4328 65.7875
100.857 3914 62.562
100.975 3602 60.0167
101.092 3359 57.9569
101.209 3309 57.5239
101.327 3487 59.0508
101.444 3526 59.3801
101.561 4082 63.8905
101.679 4411 66.4154
101.796 4803 69.3037
101.913 5011 70.7884
102.03 5312 72.8835
102.148 5349 73.1369
102.265 5456 73.8647
102.382 5688 75.4188
102.499 5461 73.8986
102.616 5529 74.3572
102.733 5478 74.0135
102.851 5381 73.3553
102.968 5433 73.7089
103.085 5565 74.5989
103.202 5466 73.9324
103.319 5320 72.9383
103.436 5251 72.4638
103.552 5180 71.9722
103.669 5277 72.643
103.786 5505 74.1957
103.903 5479 74.0203
104.02 5341 73.0821
104.137 5071 71.211
104.253 4600 67.8233
104.37 4312 65.6658
104.487 3953 62.8729
104.603 3628 60.2329
104.72 3596 59.9667
104.836 3593 59.9416
104.953 3925 62.6498
105.069 4314 65.681
105.186 4722 68.7168
105.302 5186 72.0139
105.418 5589 74.7596
105.535 5709 75.5579
105.651 5732 75.71
105.767 5808 76.2102
105.883 5906 76.8505
105.999 5928 76.9935
106.115 0 1
106.231 0 1
106.347 0 1
106.463 0 1
106.579 0 1
106.694 0 1
106.81 0 1
106.926 0 1
107.041 0 1
107.157 0 1
109.576 0 1
109.692 0 1
109.807 0 1
109.923 0 1
110.039 0 1
110.155 0 1
110.27 0 1
110.386 0 1
110.502 0 1
110.618 5117 71.5332
110.735 5288 72.7186
110.851 5341 73.0821
110.967 5500 74.162
111.083 5397 73.4643
111.199 5330 73.0068
111.316 5308 72.856
111.432 5384 73.3757
111.549 5349 73.1369
111.665 5322 72.952
111.782 5230 72.3187
111.898 5088 71.3302
112.015 5033 70.9436
112.132 5209 72.1734
112.248 5259 72.519
112.365 5317 72.9178
112.482 5023 70.8731
112.599 4845 69.606
112.716 4579 67.6683
112.832 4103 64.0547
112.949 3737 61.131
113.066 3581 59.8415
113.183 3355 57.9224
113.3 3405 58.3524
113.417 3487 59.0508
113.534 3751 61.2454
113.652 4046 63.6082
113.769 4469 66.8506
113.886 4751 68.9275
114.003 4698 68.542
114.12 4990 70.6399
114.238 5065 71.1688
114.355 5029 70.9154
114.472 5015 70.8167
114.589 5001 70.7177
114.707 4971 70.5053
114.824 4996 70.6824
114.942 4927 70.1926
115.059 4931 70.2211
115.176 4932 70.2282
115.294 4940 70.2851
115.411 4856 69.685
115.529 4775 69.1014
115.646 4778 69.1231
115.764 4982 70.5833
115.881 5150 71.7635
115.999 4994 70.6682
116.116 4804 69.3109
116.234 4551 67.4611
116.351 4287 65.4752
116.469 3972 63.0238
116.586 3641 60.3407
116.704 3377 58.112
116.821 3315 57.576
116.939 3331 57.7148
117.056 3493 59.1016
117.174 3749 61.2291
117.291 3966 62.9762
117.409 4365 66.0681
117.526 4678 68.3959
117.644 4572 67.6166
117.761 4885 69.8928
117.879 4950 70.3562
117.996 4933 70.2353
118.114 4833 69.5198
118.231 4765 69.029
118.349 4803 69.3037
118.466 4823 69.4478
118.584 4893 69.95
118.701 4902 70.0143
118.819 4855 69.6778
118.936 4834 69.527
119.053 4669 68.3301
119.171 4568 67.587
119.288 4731 68.7823
119.405 4695 68.5201
119.523 4764 69.0217
119.64 4658 68.2495
119.757 4643 68.1396
119.875 4397 66.3099
119.992 4297 65.5515
120.109 3945 62.8092
120.226 3688 60.7289
120.343 3402 58.3267
120.46 3360 57.9655
120.578 3258 57.0789
120.695 3419 58.4722
120.812 3536 59.4643
120.929 3829 61.8789
121.046 3940 62.7694
121.163 4142 64.3584
121.279 4547 67.4314
121.396 4497 67.0597
121.513 4633 68.0661
121.63 4742 68.8622
121.747 4649 68.1836
121.863 4674 68.3667
121.98 4666 68.3081
122.097 4718 68.6877
122.213 4537 67.3573
122.33 4496 67.0522
122.446 4578 67.6609
122.563 4593 67.7717
122.679 4541 67.3869
122.795 4423 66.5056
122.912 4348 65.9394
123.028 4283 65.4446
123.144 4398 66.3174
123.26 4506 67.1267
123.377 0 1
123.493 0 1
123.609 0 1
123.725 0 1
123.84 0 1
123.956 0 1
124.072 0 1
124.188 0 1
124.303 0 1
124.419 0 1
126.852 0 1
126.968 0 1
127.083 0 1
127.199 0 1
127.315 0 1
127.431 0 1
127.547 0 1
127.663 0 1
127.779 0 1
127.895 0 1
128.011 0 1
128.127 0 1
128.243 0 1
128.359 4752 68.9348
128.476 4742 68.8622
128.592 4631 68.0515
128.708 4559 67.5204
128.825 4374 66.1362
128.941 4166 64.5446
129.058 3990 63.1664
129.174 3691 60.7536
129.291 3649 60.407
129.408 3568 59.7327
129.524 3489 59.0678
129.641 3791 61.5711
129.758 3864 62.1611
129.875 4109 64.1015
129.992 4398 66.3174
130.108 4521 67.2384
130.225 4497 67.0597
130.342 4656 68.2349
130.459 4580 67.6757
130.576 4727 68.7532
130.693 4668 68.3228
130.81 4391 66.2646
130.928 4506 67.1267
131.045 4567 67.5796
131.162 4616 67.9412
131.279 4730 68.775
131.396 4727 68.7532
131.513 4511 67.164
131.631 4626 68.0147
131.748 4585 67.7126
131.865 4718 68.6877
131.983 4627 68.0221
132.1 4592 67.7643
132.217 4458 66.7683
132.335 4436 66.6033
132.452 4132 64.2806
132.57 3860 62.1289
132.687 3622 60.1831
132.804 3664 60.531
132.922 3413 58.4209
133.039 3536 59.4643
133.157 3516 59.2959
133.274 3698 60.8112
133.392 3920 62.6099
133.509 3976 63.0555
133.627 4173 64.5988
133.744 4286 65.4675
133.862 4397 66.3099
133.979 4337 65.8559
134.097 4347 65.9318
134.214 4292 65.5134
134.332 4375 66.1438
134.449 4368 66.0908
134.567 4345 65.9166
134.684 4468 66.8431
134.802 4598 67.8086
134.919 4543 67.4018
135.037 4429 66.5507
135.154 4335 65.8407
135.272 4368 66.0908
135.389 4356 66
135.507 4401 66.34
135.624 4516 67.2012
135.742 4449 66.7008
135.859 4327 65.7799
135.977 4167 64.5523
136.094 4021 63.4114
136.211 3851 62.0564
136.329 3629 60.2412
136.446 3413 58.4209
136.564 3425 58.5235
136.681 3353 57.9051
136.798 3505 59.203
136.915 3592 59.9333
137.033 3807 61.7009
137.15 3948 62.8331
137.267 4080 63.8749
137.384 4108 64.0937
137.502 4170 64.5755
137.619 4197 64.7843
137.736 4301 65.582
137.853 4165 64.5368
137.97 4177 64.6297
138.087 3948 62.8331
138.204 3982 63.1031
138.321 4119 64.1794
138.438 4278 65.4064
138.555 4358 66.0151
138.672 4348 65.9394
138.788 4131 64.2729
138.905 4182 64.6684
139.022 4278 65.4064
139.139 4406 66.3777
139.255 4244 65.146
139.372 4334 65.8331
139.488 4156 64.467
139.605 4119 64.1794
139.721 4003 63.2693
139.838 3797 61.6198
139.954 3606 60.05
140.071 3502 59.1777
140.187 3343 57.8187
140.303 3328 57.6888
140.419 3411 58.4038
140.535 3382 58.155
140.652 3468 58.8897
140.768 0 1
140.884 0 1
141 0 1
141.115 0 1
141.231 0 1
141.347 0 1
141.463 0 1
141.578 0 1
141.694 0 1
144.104 0 1
144.219 0 1
144.335 0 1
144.45 0 1
144.566 0 1
144.682 0 1
144.798 0 1
144.914 0 1
145.03 0 1
145.146 2423 49.224
145.262 2631 51.2933
145.378 2639 51.3712
145.494 2704 52
145.61 2828 53.1789
145.726 2841 53.301
145.842 2850 53.3854
145.959 3128 55.9285
146.075 3141 56.0446
146.192 3195 56.5243
146.308 3137 56.0089
146.425 3217 56.7186
146.541 3114 55.8032
146.658 3045 55.1815
146.774 3161 56.2228
146.891 3034 55.0818
147.008 3007 54.8361
147.125 3059 55.3082
147.241 3152 56.1427
147.358 3236 56.8859
147.475 3370 58.0517
147.592 3225 56.7891
147.709 3253 57.0351
147.826 3298 57.4282
147.943 3292 57.376
148.06 3275 57.2276
148.177 3278 57.2538
148.294 3257 57.0701
148.411 3089 55.5788
148.528 3094 55.6237
148.645 3047 55.1996
148.762 2938 54.2033
148.88 2827 53.1695
148.997 2843 53.3198
149.114 2918 54.0185
149.231 2788 52.8015
149.349 2777 52.6972
149.466 3054 55.263
149.583 2942 54.2402
149.701 3067 55.3805
149.818 3138 56.0179
149.935 3167 56.2761
150.053 3092 55.6058
150.17 3221 56.7539
150.287 3286 57.3236
150.405 3113 55.7943
150.522 3120 55.857
150.64 3082 55.5158
150.757 3110 55.7674
150.875 3174 56.3383
150.992 3309 57.5239
151.11 3285 57.3149
151.227 3355 57.9224
151.344 3271 57.1927
151.462 3202 56.5862
151.579 3239 56.9122
151.697 3283 57.2975
151.814 3334 57.7408
151.932 3306 57.4978
152.049 3196 56.5332
152.167 3129 55.9375
152.284 3031 55.0545
152.402 2995 54.7266
152.519 2907 53.9166
152.636 2914 53.9815
152.754 2889 53.7494
152.871 2989 54.6717
152.989 2908 53.9259
153.106 2979 54.5802
153.223 3056 55.2811
153.341 3069 55.3986
153.458 3146 56.0892
153.575 3165 56.2583
153.693 3207 56.6304
153.81 3264 57.1314
153.927 3212 56.6745
154.044 3148 56.107
154.162 3090 55.5878
154.279 3101 55.6866
154.396 3169 56.2939
154.513 3295 57.4021
154.63 3263 57.1227
154.747 3340 57.7927
154.864 3438 58.6345
154.981 3507 59.2199
155.098 3358 57.9483
155.215 3511 59.2537
155.332 3381 58.1464
155.449 3494 59.1101
155.566 3356 57.931
155.683 3305 57.4891
155.8 3216 56.7098
155.917 3205 56.6127
156.033 3080 55.4977
156.15 0 1
156.267 0 1
156.383 0 1
156.5 0 1
156.617 0 1
156.733 0 1
156.85 0 1
156.966 0 1
157.082 0 1
157.199 0 1
157.315 0 1
157.431 0 1
157.547 0 1
157.664 0 1
157.78 0 1
157.896 0 1
158.012 0 1
158.128 0 1
158.244 0 1
158.359 0 1
158.475 0 1
158.591 0 1
158.706 0 1
