
6.15755 0 1
6.2731 0 1
6.3887 0 1
6.50437 0 1
6.62009 0 1
6.73587 0 1
6.8517 0 1
6.96759 0 1
7.08353 0 1
7.19952 0 1
7.31557 0 1
7.43166 0 1
7.54781 0 1
7.664 0 1
7.78024 0 1
7.89653 0 1
8.01286 0 1
8.12924 0 1
8.24567 0 1
8.36213 0 1
8.47864 0 1
8.59519 0 1
8.71178 0 1
8.82841 0 1
8.94508 0 1
9.06179 0 1
9.17853 0 1
9.29531 0 1
9.41212 0 1
9.52897 0 1
9.64584 0 1
9.76276 0 1
9.8797 0 1
9.99667 0 1
10.1137 0 1
10.2307 0 1
10.3478 0 1
10.4648 0 1
10.5819 0 1
10.6991 0 1
10.8162 0 1
10.9334 0 1
11.0506 0 1
11.1678 0 1
11.285 0 1
11.4023 0 1
11.5196 0 1
11.6369 0 1
11.7542 0 1
11.8715 0 1
11.9888 0 1
12.1062 0 1
12.2235 0 1
12.3409 0 1
12.4582 0 1
12.5756 0 1
12.693 0 1
12.8104 0 1
12.9278 0 1
13.0452 0 1
13.1626 0 1
13.28 0 1
13.3974 0 1
13.5149 0 1
13.6323 0 1
13.7497 0 1
13.8671 0 1
13.9845 0 1
14.1019 0 1
14.2193 0 1
14.3367 0 1
14.4541 0 1
14.5714 0 1
14.6888 0 1
14.8062 0 1
14.9235 0 1
15.0408 0 0
15.1581 0 0
15.2755 0 0
15.3927 0 0
15.51 0 0
15.6273 0 0
15.7445 0 0
15.8617 0 0
15.9789 0 0
16.0961 0 0
16.2132 0 0
16.3304 0 0
16.4475 0 0
16.5646 0 0
16.6816 0 0
16.7986 0 0
16.9156 0 0
17.0326 0 0
17.1496 0 0
17.2665 0 0
17.3833 0 0
17.5002 0 0
17.617 0 0
17.7338 0 0
17.8505 0 0
17.9672 0 0
18.0839 0 0
18.2005 0 0
18.3171 0 0
18.4337 0 0
18.5502 0 0
18.6666 0 0
18.7831 0 0
18.8994 0 0
19.0158 0 0
19.1321 0 0
19.2483 0 0
19.3645 0 0
19.4806 0 0
19.5967 0 0
19.7128 0 0
19.8288 0 0
19.9447 0 0
20.0606 0 1
20.1764 0 1
20.2922 0 1
20.4079 0 1
20.5236 0 1
20.6392 0 1
20.7548 0 1
20.8702 0 1
23.3078 0 1
23.4233 0 1
23.539 0 1
23.6547 0 1
23.7704 0 1
23.8862 0 1
24.0021 0 1
24.118 0 1
24.234 0 1
24.35 0 1
24.4661 10259 101.287
24.5822 10002 100.01
24.6984 10140 100.698
24.8146 9754 98.7623
24.9309 9660 98.2853
25.0472 9611 98.0357
25.1636 9432 97.1185
25.28 9651 98.2395
25.3965 9893 99.4636
25.513 9936 99.6795
25.6296 10327 101.622
25.7462 10718 103.528
25.8628 10495 102.445
25.9795 10749 103.677
26.0962 10608 102.995
26.213 10670 103.296
26.3298 10310 101.538
26.4466 10139 100.693
26.5635 9994 99.97
26.6804 9856 99.2774
26.7973 10175 100.871
26.9143 10495 102.445
27.0313 10682 103.354
27.1483 10773 103.793
27.2653 10865 104.235
27.3824 11057 105.152
27.4996 11158 105.631
27.6167 11266 106.141
27.7339 10865 104.235
27.8511 10578 102.849
27.9683 10642 103.16
28.0855 10374 101.853
28.2028 10201 101
28.3201 9880 99.3982
28.4374 9599 97.9745
28.5547 9483 97.3807
28.6721 9001 94.8736
28.7894 9292 96.395
28.9068 9264 96.2497
29.0242 9482 97.3756
29.1416 9362 96.7574
29.259 9520 97.5705
29.3764 9899 99.4937
29.4939 9729 98.6357
29.6113 9850 99.2472
29.7288 9875 99.373
29.8463 9650 98.2344
29.9638 9570 97.8264
30.0812 9485 97.391
30.1987 9597 97.9643
30.3162 9667 98.3209
30.4337 10018 100.09
30.5512 9997 99.985
30.6687 10488 102.411
30.7862 10698 103.431
30.9037 10808 103.962
31.0212 10823 104.034
31.1387 10995 104.857
31.2562 10843 104.13
31.3737 10786 103.856
31.4912 10605 102.981
31.6087 10107 100.534
31.7262 10128 100.638
31.8436 10124 100.618
31.9611 9739 98.6864
32.0785 9420 97.0567
32.1959 9321 96.5453
32.3134 9222 96.0312
32.4308 9063 95.1998
32.5482 9345 96.6695
32.6655 9558 97.765
32.7829 9701 98.4937
32.9002 9555 97.7497
33.0176 9708 98.5292
33.1349 9619 98.0765
33.2522 9794 98.9646
33.3694 9945 99.7246
33.4867 9960 99.7998
33.6039 9587 97.9132
33.7211 9646 98.2141
33.8383 9770 98.8433
33.9554 9771 98.8484
34.0725 10088 100.439
34.1896 10318 101.578
34.3067 10646 103.179
34.4237 10837 104.101
34.5407 10704 103.46
34.6577 10999 104.876
34.7746 11112 105.413
34.8915 11045 105.095
35.0084 10902 104.413
35.1252 10641 103.155
35.242 10632 103.112
35.3587 10510 102.518
35.4755 10166 100.827
35.5921 9821 99.101
35.7088 9830 99.1464
35.8254 9262 96.2393
35.9419 9182 95.8228
36.0584 9159 95.7027
36.1749 9170 95.7601
36.2913 9170 95.7601
36.4077 9121 95.5039
36.524 9459 97.2574
36.6403 9690 98.4378
36.7565 9573 97.8417
36.8727 9556 97.7548
36.9889 9672 98.3463
37.1049 9937 99.6845
37.221 0 1
37.3369 0 1
37.4529 0 1
37.5687 0 1
37.6845 0 1
37.8003 0 1
37.916 0 1
38.0316 0 1
38.1472 0 1
40.5851 0 1
40.7008 0 1
40.8164 0 1
40.9322 0 1
41.048 0 1
41.1639 0 1
41.2798 0 1
41.3958 0 1
41.5118 0 1
41.6279 0 1
41.744 7999 89.4371
41.8602 8280 90.9945
41.9765 8703 93.2899
42.0928 8708 93.3167
42.2091 8648 92.9946
42.3255 8932 94.5093
42.4419 8532 92.3688
42.5584 8292 91.0604
42.675 8364 91.4549
42.7915 8694 93.2416
42.9081 8924 94.4669
43.0248 9313 96.5039
43.1415 9406 96.9845
43.2582 9636 98.1631
43.375 9617 98.0663
43.4918 9846 99.227
43.6087 9805 99.0202
43.7256 9813 99.0606
43.8425 9489 97.4115
43.9595 9323 96.5557
44.0765 9389 96.8969
44.1935 9150 95.6556
44.3106 8931 94.504
44.4277 8426 91.7932
44.5448 7847 88.5833
44.6619 7658 87.51
44.7791 7481 86.4928
44.8963 7430 86.1974
45.0136 7489 86.539
45.1308 7443 86.2728
45.2481 7567 86.9885
45.3654 7553 86.908
45.4827 7528 86.764
45.6001 7696 87.7268
45.7174 7627 87.3327
45.8348 7640 87.4071
45.9522 7497 86.5852
46.0697 7479 86.4812
46.1871 7123 84.3979
46.3046 7297 85.4225
46.422 7454 86.3366
46.5395 7704 87.7724
46.657 7880 88.7694
46.7745 7942 89.1179
46.892 8120 90.111
47.0096 8163 90.3493
47.1271 8161 90.3383
47.2446 8181 90.4489
47.3622 8051 89.7274
47.4797 7883 88.7863
47.5973 7858 88.6454
47.7149 7595 87.1493
47.8324 7345 85.703
47.95 7167 84.6581
48.0675 6801 82.4682
48.1851 6311 79.4418
48.3027 6071 77.9166
48.4202 5905 76.844
48.5378 6003 77.479
48.6554 6032 77.666
48.7729 6045 77.7496
48.8904 6368 79.7997
49.008 6406 80.0375
49.1255 6582 81.1295
49.243 6502 80.635
49.3605 6660 81.6088
49.478 6491 80.5667
49.5955 6462 80.3866
49.713 6631 81.431
49.8304 6664 81.6333
49.9479 7072 84.0952
50.0653 7422 86.151
50.1827 7993 89.4036
50.3001 7911 88.9438
50.4175 8462 91.9891
50.5348 8685 93.1933
50.6521 8907 94.3769
50.7694 9022 94.9842
50.8867 9211 95.974
51.004 9467 97.2985
51.1212 9627 98.1173
51.2384 9747 98.7269
51.3556 9362 96.7574
51.4727 9102 95.4044
51.5899 8706 93.3059
51.707 8224 90.6863
51.824 8127 90.1499
51.9411 8143 90.2386
52.0581 8185 90.471
52.175 8470 92.0326
52.2919 8374 91.5096
52.4088 8505 92.2226
52.5257 8710 93.3274
52.6425 8984 94.784
52.7593 9058 95.1735
52.876 9385 96.8762
52.9927 9534 97.6422
53.1094 9437 97.1442
53.226 9234 96.0937
53.3426 9268 96.2705
53.4591 9612 98.0408
53.5756 9971 99.8549
53.692 10779 103.822
53.8084 11020 104.976
53.9248 11602 107.713
54.0411 11725 108.282
54.1573 12157 110.259
54.2735 0 1
54.3896 0 1
54.5057 0 1
54.6217 0 1
54.7377 0 1
54.8537 0 1
54.9695 0 1
55.0853 0 1
55.2011 0 1
55.3168 0 1
55.4324 0 1
57.824 0 1
57.9396 0 1
58.0553 0 1
58.1711 0 1
58.2869 0 1
58.4028 0 1
58.5187 0 1
58.6347 0 1
58.7508 0 1
58.8669 0 1
58.983 13816 117.541
59.0992 14331 119.712
59.2155 14816 121.721
59.3318 15345 123.875
59.4482 15294 123.669
59.5646 15385 124.036
59.681 15105 122.902
59.7975 14972 122.36
59.9141 14690 121.202
60.0306 13847 117.673
60.1473 13134 114.604
60.2639 12565 112.094
60.3807 11547 107.457
60.4974 11210 105.877
60.6142 10842 104.125
60.731 10968 104.728
60.8479 10991 104.838
60.9648 11289 106.25
61.0818 11289 106.25
61.1987 11575 107.587
61.3158 11705 108.19
61.4328 11723 108.273
61.5499 11664 108
61.667 11315 106.372
61.7841 11155 105.617
61.9013 10890 104.355
62.0185 11122 105.461
62.1357 11623 107.81
62.253 12459 111.62
62.3702 12975 113.908
62.4875 13212 114.943
62.6049 13306 115.352
62.7222 13951 118.114
62.8396 13904 117.915
62.9569 14276 119.482
63.0743 14056 118.558
63.1918 14086 118.684
63.3092 13758 117.295
63.4267 13504 116.207
63.5441 12732 112.836
63.6616 11708 108.204
63.7791 11073 105.228
63.8966 10596 102.937
64.0142 9996 99.98
64.1317 9664 98.3056
64.2492 9735 98.6661
64.3668 9631 98.1377
64.4843 9820 99.0959
64.6019 10121 100.603
64.7195 10556 102.742
64.837 10598 102.947
64.9546 10710 103.489
65.0722 10575 102.835
65.1898 10789 103.87
65.3074 10356 101.764
65.4249 10148 100.737
65.5425 10334 101.656
65.6601 10526 102.596
65.7777 11237 106.005
65.8952 11971 109.412
66.0128 12256 110.707
66.1304 12898 113.569
66.2479 13503 116.202
66.3655 13496 116.172
66.483 14000 118.322
66.6005 14118 118.819
66.718 14045 118.512
66.8355 13785 117.41
66.953 13666 116.902
67.0705 13143 114.643
67.1879 12359 111.171
67.3054 11613 107.764
67.4228 10795 103.899
67.5402 9855 99.2724
67.6576 9801 99
67.7749 9375 96.8246
67.8923 9925 99.6243
68.0096 9971 99.8549
68.1269 10437 102.162
68.2442 10876 104.288
68.3614 11337 106.475
68.4787 11577 107.596
68.5958 11799 108.623
68.713 11449 107
68.8302 11366 106.611
68.9473 11078 105.252
69.0643 10586 102.888
69.1814 10773 103.793
69.2984 11165 105.665
69.4154 11979 109.449
69.5323 12656 112.499
69.6492 13457 116.004
69.7661 14212 119.214
69.8829 14550 120.623
69.9997 15262 123.539
70.1165 15428 124.21
70.2332 15472 124.386
70.3499 15236 123.434
70.4665 15223 123.382
70.5831 14753 121.462
70.6996 14207 119.193
70.8161 13367 115.616
70.9326 12826 113.252
71.049 11695 108.143
71.1653 10831 104.072
71.2817 10092 100.459
71.3979 9894 99.4686
71.5141 9637 98.1682
71.6303 9735 98.6661
71.7464 9453 97.2265
71.8624 0 1
71.9784 0 1
72.0944 0 1
72.2102 0 1
72.3261 0 1
72.4418 0 1
72.5575 0 1
72.6732 0 1
75.1054 0 1
75.2209 0 1
75.3365 0 1
75.4521 0 1
75.5678 0 1
75.6835 0 1
75.7993 0 1
75.9151 0 1
76.031 0 1
76.147 12736 112.854
76.263 13064 114.298
76.3791 12250 110.68
76.4952 11230 105.972
76.6113 10966 104.719
76.7276 10496 102.45
76.8438 10576 102.84
76.9601 10729 103.581
77.0765 11291 106.259
77.1929 11909 109.128
77.3093 12077 109.895
77.4258 12610 112.294
77.5423 12883 113.503
77.6589 12715 112.761
77.7755 12438 111.526
77.8921 12056 109.8
78.0088 11592 107.666
78.1256 11227 105.958
78.2423 11451 107.009
78.3591 11944 109.289
78.4759 12783 113.062
78.5928 13744 117.235
78.7097 14419 120.079
78.8266 15594 124.876
78.9436 14923 122.16
79.0606 15820 125.778
79.1776 15671 125.184
79.2946 15942 126.262
79.4117 15567 124.768
79.5288 15700 125.3
79.6459 15029 122.593
79.7631 14448 120.2
79.8802 13588 116.568
79.9974 12448 111.571
80.1147 11338 106.48
80.2319 10477 102.357
80.3491 9973 99.8649
80.4664 9787 98.9293
80.5837 10197 100.98
80.701 10297 101.474
80.8183 10864 104.231
80.9357 11227 105.958
81.053 11687 108.106
81.1704 11746 108.379
81.2877 11697 108.153
81.4051 11477 107.131
81.5225 11294 106.273
81.6399 10552 102.723
81.7573 10415 102.054
81.8747 10201 101
81.9922 10674 103.315
82.1096 11284 106.226
82.227 12157 110.259
82.3444 12668 112.552
82.4619 13482 116.112
82.5793 13538 116.353
82.6967 14249 119.369
82.8142 14097 118.731
82.9316 13931 118.03
83.049 13889 117.852
83.1664 13402 115.767
83.2838 13171 114.765
83.4012 12620 112.339
83.5186 11558 107.508
83.636 10967 104.723
83.7534 10006 100.03
83.8708 9222 96.0312
83.9881 8805 93.835
84.1055 8821 93.9202
84.2228 8890 94.2868
84.3401 9502 97.4782
84.4575 10077 100.384
84.5747 10721 103.542
84.692 11264 106.132
84.8093 11321 106.4
84.9265 11170 105.688
85.0437 10828 104.058
85.1609 10350 101.735
85.2781 9819 99.0909
85.3952 9771 98.8484
85.5123 9730 98.6408
85.6294 10343 101.701
85.7465 11391 106.729
85.8636 12271 110.775
85.9806 13149 114.669
86.0976 13769 117.341
86.2145 14412 120.05
86.3315 14380 119.917
86.4484 15397 124.085
86.5652 15115 122.943
86.682 15081 122.805
86.7988 14923 122.16
86.9156 14088 118.693
87.0323 13320 115.412
87.149 12778 113.04
87.2657 11931 109.229
87.3823 11182 105.745
87.4988 10345 101.71
87.6154 10248 101.232
87.7318 10516 102.548
87.8483 10817 104.005
87.9647 11545 107.448
88.081 12087 109.941
88.1973 12847 113.345
88.3136 12970 113.886
88.4298 12982 113.939
88.546 12745 112.894
88.6621 11745 108.374
88.7781 10895 104.379
88.8942 0 1
89.0101 0 1
89.126 0 1
89.2419 0 1
89.3577 0 1
89.4734 0 1
89.5891 0 1
89.7047 0 1
89.8203 0 1
89.9358 0 1
92.3269 0 1
92.4424 0 1
92.558 0 1
92.6736 0 1
92.7893 0 1
92.905 0 1
93.0208 0 1
93.1366 0 1
93.2525 0 1
93.3685 0 1
93.4845 0 1
93.6005 11651 107.94
93.7167 12153 110.241
93.8328 12404 111.373
93.949 12205 110.476
94.0653 12247 110.666
94.1816 11637 107.875
94.2979 11213 105.891
94.4143 10918 104.489
94.5307 11197 105.816
94.6472 11344 106.508
94.7637 11711 108.217
94.8803 12932 113.719
94.9969 13746 117.243
95.1135 14554 120.64
95.2302 14996 122.458
95.3469 15687 125.248
95.4637 15954 126.309
95.5805 16061 126.732
95.6973 15961 126.337
95.8142 16049 126.685
95.9311 15781 125.622
96.048 15383 124.028
96.1649 14549 120.619
96.2819 13832 117.61
96.3989 13152 114.682
96.516 12146 110.209
96.633 11239 106.014
96.7501 10817 104.005
96.8673 10580 102.859
96.9844 10782 103.836
97.1016 11303 106.316
97.2188 11736 108.333
97.336 12748 112.907
97.4532 13290 115.282
97.5704 13124 114.56
97.6877 12830 113.27
97.805 12317 110.982
97.9223 11950 109.316
98.0396 11314 106.367
98.1569 11101 105.361
98.2743 10908 104.441
98.3916 11285 106.231
98.509 12441 111.539
98.6264 13099 114.451
98.7438 14094 118.718
98.8612 14713 121.297
98.9786 15357 123.923
99.096 16014 126.546
99.2134 16261 127.519
99.3308 16408 128.094
99.4482 16580 128.763
99.5656 16242 127.444
99.6831 15621 124.984
99.8005 14922 122.156
99.9179 14255 119.394
100.035 13436 115.914
100.153 12282 110.824
100.27 11430 106.911
100.388 10812 103.981
100.505 11093 105.323
100.622 11384 106.696
100.74 11868 108.94
100.857 12650 112.472
100.975 12934 113.728
101.092 13390 115.715
101.209 13281 115.243
101.327 12967 113.873
101.444 12598 112.241
101.561 11853 108.871
101.679 11688 108.111
101.796 11609 107.745
101.913 11982 109.462
102.03 12797 113.124
102.148 13848 117.678
102.265 15645 125.08
102.382 15036 122.621
102.499 16685 129.17
102.616 17175 131.053
102.733 17313 131.579
102.851 17876 133.701
102.968 17669 132.925
103.085 17408 131.939
103.202 16833 129.742
103.319 16557 128.674
103.436 15301 123.697
103.552 14466 120.275
103.669 13496 116.172
103.786 12457 111.611
103.903 11887 109.028
104.02 12086 109.936
104.137 12566 112.098
104.253 13520 116.276
104.37 13528 116.31
104.487 14459 120.246
104.603 14373 119.887
104.72 14396 119.983
104.836 13972 118.203
104.953 13555 116.426
105.069 13059 114.276
105.186 12744 112.889
105.302 12755 112.938
105.418 13296 115.308
105.535 14279 119.495
105.651 15636 125.044
105.767 16409 128.098
105.883 17505 132.306
105.999 17918 133.858
106.115 0 1
106.231 0 1
106.347 0 1
106.463 0 1
106.579 0 1
106.694 0 1
106.81 0 1
106.926 0 1
107.041 0 1
107.157 0 1
109.576 0 1
109.692 0 1
109.807 0 1
109.923 0 1
110.039 0 1
110.155 0 1
110.27 0 1
110.386 0 1
110.502 0 1
110.618 13541 116.366
110.735 15239 123.446
110.851 16220 127.358
110.967 16997 130.373
111.083 17335 131.662
111.199 17465 132.155
111.316 17733 133.165
111.432 17597 132.654
111.549 17556 132.499
111.665 17190 131.111
111.782 16459 128.293
111.898 15631 125.024
112.015 14888 122.016
112.132 14026 118.431
112.248 13085 114.39
112.365 12248 110.671
112.482 12137 110.168
112.599 11677 108.06
112.716 12341 111.09
112.832 12764 112.978
112.949 13297 115.313
113.066 13291 115.287
113.183 12896 113.561
113.3 12713 112.752
113.417 12494 111.777
113.534 12244 110.653
113.652 12058 109.809
113.769 11671 108.032
113.886 11909 109.128
114.003 12420 111.445
114.12 13621 116.709
114.238 14634 120.971
114.355 15332 123.822
114.472 16055 126.708
114.589 16528 128.561
114.707 16868 129.877
114.824 16967 130.257
114.942 16960 130.231
115.059 17128 130.874
115.176 16892 129.969
115.294 16473 128.347
115.411 16020 126.57
115.529 15309 123.73
115.646 14766 121.515
115.764 13784 117.405
115.881 13212 114.943
115.999 12580 112.161
116.116 12573 112.129
116.234 12763 112.973
116.351 13064 114.298
116.469 13651 116.837
116.586 13764 117.32
116.704 13876 117.796
116.821 13773 117.358
116.939 14054 118.55
117.056 13630 116.748
117.174 13383 115.685
117.291 13241 115.07
117.409 13218 114.97
117.526 13387 115.702
117.644 14288 119.532
117.761 15101 122.886
117.879 16424 128.156
117.996 16628 128.95
118.114 17660 132.891
118.231 18028 134.268
118.349 18107 134.562
118.466 18149 134.718
118.584 18506 136.037
118.701 18622 136.462
118.819 18176 134.818
118.936 17697 133.03
119.053 16929 130.111
119.171 16434 128.195
119.288 15714 125.355
119.405 14895 122.045
119.523 14002 118.33
119.64 13601 116.623
119.757 13245 115.087
119.875 13555 116.426
119.992 13909 117.936
120.109 14006 118.347
120.226 14241 119.336
120.343 14083 118.672
120.46 13858 117.72
120.578 14176 119.063
120.695 13864 117.745
120.812 13817 117.546
120.929 13439 115.927
121.046 13633 116.76
121.163 13592 116.585
121.279 14305 119.604
121.396 15082 122.809
121.513 16002 126.499
121.63 17076 130.675
121.747 17277 131.442
121.863 17872 133.686
121.98 18087 134.488
122.097 18179 134.83
122.213 18373 135.547
122.33 18161 134.763
122.446 17863 133.653
122.563 17775 133.323
122.679 17422 131.992
122.795 16601 128.845
122.912 16454 128.273
123.028 15371 123.98
123.144 14714 121.301
123.26 14119 118.823
123.377 0 1
123.493 0 1
123.609 0 1
123.725 0 1
123.84 0 1
123.956 0 1
124.072 0 1
124.188 0 1
124.303 0 1
124.419 0 1
126.852 0 1
126.968 0 1
127.083 0 1
127.199 0 1
127.315 0 1
127.431 0 1
127.547 0 1
127.663 0 1
127.779 0 1
127.895 0 1
128.011 0 1
128.127 0 1
128.243 0 1
128.359 17282 131.461
128.476 16054 126.704
128.592 15584 124.836
128.708 15584 124.836
128.825 15722 125.387
128.941 15940 126.254
129.058 16310 127.711
129.174 16404 128.078
129.291 15997 126.479
129.408 15946 126.277
129.524 16019 126.566
129.641 15624 124.996
129.758 15382 124.024
129.875 15458 124.33
129.992 15456 124.322
130.108 15475 124.399
130.225 15650 125.1
130.342 16827 129.719
130.459 16980 130.307
130.576 18458 135.86
130.693 18650 136.565
130.81 19000 137.84
130.928 19190 138.528
131.045 19080 138.13
131.162 19337 139.058
131.279 19239 138.705
131.396 19384 139.226
131.513 19038 137.978
131.631 18491 135.982
131.748 18182 134.841
131.865 17728 133.147
131.983 16608 128.872
132.1 16130 127.004
132.217 16040 126.649
132.335 16201 127.283
132.452 16455 128.277
132.57 16994 130.361
132.687 16672 129.12
132.804 17834 133.544
132.922 17484 132.227
133.039 17354 131.735
133.157 17289 131.488
133.274 16964 130.246
133.392 16961 130.234
133.509 16161 127.126
133.627 16436 128.203
133.744 16485 128.394
133.862 17421 131.989
133.979 18299 135.274
134.097 19041 137.989
134.214 20032 141.534
134.332 19594 139.979
134.449 20503 143.189
134.567 20306 142.499
134.684 20792 144.194
134.802 20836 144.347
134.919 20941 144.71
135.037 20436 142.955
135.154 20392 142.801
135.272 19906 141.089
135.389 19423 139.366
135.507 18856 137.317
135.624 17754 133.244
135.742 17568 132.544
135.859 17411 131.951
135.977 17761 133.27
136.094 18033 134.287
136.211 18429 135.753
136.329 18617 136.444
136.446 18511 136.055
136.564 18414 135.698
136.681 18866 137.354
136.798 18038 134.306
136.915 17712 133.086
137.033 17476 132.197
137.15 17286 131.476
137.267 17013 130.434
137.384 17377 131.822
137.502 17802 133.424
137.619 18726 136.843
137.736 19420 139.356
137.853 19260 138.78
137.97 19682 140.293
138.087 20932 144.679
138.204 20683 143.816
138.321 20723 143.955
138.438 20984 144.859
138.555 21191 145.571
138.672 21265 145.825
138.788 20794 144.201
138.905 20423 142.909
139.022 19880 140.996
139.139 19379 139.208
139.255 18307 135.303
139.372 18069 134.421
139.488 18022 134.246
139.605 18268 135.159
139.721 18557 136.224
139.838 19036 137.971
139.954 19007 137.866
140.071 18702 136.755
140.187 18934 137.601
140.303 18427 135.746
140.419 18387 135.599
140.535 17733 133.165
140.652 17110 130.805
140.768 0 1
140.884 0 1
141 0 1
141.115 0 1
141.231 0 1
141.347 0 1
141.463 0 1
141.578 0 1
141.694 0 1
144.104 0 1
144.219 0 1
144.335 0 1
144.45 0 1
144.566 0 1
144.682 0 1
144.798 0 1
144.914 0 1
145.03 0 1
145.146 32669 180.746
145.262 34981 187.032
145.378 36307 190.544
145.494 36991 192.33
145.61 36750 191.703
145.726 37153 192.751
145.842 37540 193.752
145.959 38205 195.461
146.075 39291 198.22
146.192 42464 206.068
146.308 45392 213.054
146.425 48040 219.18
146.541 50801 225.391
146.658 52655 229.467
146.774 54862 234.226
146.891 56866 238.466
147.008 58675 242.229
147.125 60338 245.638
147.241 60604 246.179
147.358 61025 247.032
147.475 60513 245.994
147.592 59483 243.891
147.709 58251 241.352
147.826 55967 236.573
147.943 54513 233.48
148.06 54054 232.495
148.177 56292 237.259
148.294 58942 242.78
148.411 61849 248.695
148.528 63014 251.026
148.645 62264 249.528
148.762 63019 251.036
148.88 62264 249.528
148.997 59808 244.557
149.114 61847 248.691
149.231 57324 239.424
149.349 55412 235.398
149.466 52705 229.576
149.583 51261 226.409
149.701 51151 226.166
149.818 52938 230.083
149.935 54959 234.433
150.053 56894 238.525
150.17 57287 239.347
150.287 58496 241.859
150.405 59950 244.847
150.522 60808 246.593
150.64 61353 247.695
150.757 61829 248.654
150.875 61550 248.093
150.992 62354 249.708
151.11 58483 241.833
151.227 58199 241.245
151.344 56866 238.466
151.462 54503 233.459
151.579 52251 228.585
151.697 53312 230.894
151.814 55115 234.766
151.932 57488 239.767
152.049 60070 245.092
152.167 61794 248.584
152.284 61914 248.825
152.402 61848 248.693
152.519 61094 247.172
152.636 60694 246.362
152.754 58034 240.902
152.871 55328 235.219
152.989 53685 231.7
153.106 52211 228.497
153.223 51271 226.431
153.341 51486 226.905
153.458 53390 231.063
153.575 55356 235.279
153.693 56229 237.127
153.81 57631 240.065
153.927 59260 243.434
154.044 60133 245.22
154.162 61585 248.163
154.279 62357 249.714
154.396 62853 250.705
154.513 63268 251.531
154.63 63097 251.191
154.747 61622 248.238
154.864 60342 245.646
154.981 58690 242.26
155.098 56752 238.227
155.215 54785 234.062
155.332 54794 234.081
155.449 56687 238.09
155.566 59201 243.313
155.683 60779 246.534
155.8 62250 249.499
155.917 61764 248.524
156.033 61978 248.954
156.15 0 1
156.267 0 1
156.383 0 1
156.5 0 1
156.617 0 1
156.733 0 1
156.85 0 1
156.966 0 1
157.082 0 1
157.199 0 1
157.315 0 1
157.431 0 1
157.547 0 1
157.664 0 1
157.78 0 1
157.896 0 1
158.012 0 1
158.128 0 1
158.244 0 1
158.359 0 1
158.475 0 1
158.591 0 1
158.706 0 1
