
6.15755 0 1
6.2731 0 1
6.3887 0 1
6.50437 0 1
6.62009 0 1
6.73587 0 1
6.8517 0 1
6.96759 0 1
7.08353 0 1
7.19952 0 1
7.31557 0 1
7.43166 0 1
7.54781 0 1
7.664 0 1
7.78024 0 1
7.89653 0 1
8.01286 0 1
8.12924 0 1
8.24567 0 1
8.36213 0 1
8.47864 0 1
8.59519 0 1
8.71178 0 1
8.82841 0 1
8.94508 0 1
9.06179 0 1
9.17853 0 1
9.29531 0 1
9.41212 0 1
9.52897 0 1
9.64584 0 1
9.76276 0 1
9.8797 0 1
9.99667 0 1
10.1137 0 1
10.2307 0 1
10.3478 0 1
10.4648 0 1
10.5819 0 1
10.6991 0 1
10.8162 0 1
10.9334 0 1
11.0506 0 1
11.1678 0 1
11.285 0 1
11.4023 0 1
11.5196 0 1
11.6369 0 1
11.7542 0 1
11.8715 0 1
11.9888 0 1
12.1062 0 1
12.2235 0 1
12.3409 0 1
12.4582 0 1
12.5756 0 1
12.693 0 1
12.8104 0 1
12.9278 0 1
13.0452 0 1
13.1626 0 1
13.28 0 1
13.3974 0 1
13.5149 0 1
13.6323 0 1
13.7497 0 1
13.8671 0 1
13.9845 0 1
14.1019 0 1
14.2193 0 1
14.3367 0 1
14.4541 0 1
14.5714 0 1
14.6888 0 1
14.8062 0 1
14.9235 0 1
15.0408 0 0
15.1581 0 0
15.2755 0 0
15.3927 0 0
15.51 0 0
15.6273 0 0
15.7445 0 0
15.8617 0 0
15.9789 0 0
16.0961 0 0
16.2132 0 0
16.3304 0 0
16.4475 0 0
16.5646 0 0
16.6816 0 0
16.7986 0 0
16.9156 0 0
17.0326 0 0
17.1496 0 0
17.2665 0 0
17.3833 0 0
17.5002 0 0
17.617 0 0
17.7338 0 0
17.8505 0 0
17.9672 0 0
18.0839 0 0
18.2005 0 0
18.3171 0 0
18.4337 0 0
18.5502 0 0
18.6666 0 0
18.7831 0 0
18.8994 0 0
19.0158 0 0
19.1321 0 0
19.2483 0 0
19.3645 0 0
19.4806 0 0
19.5967 0 0
19.7128 0 0
19.8288 0 0
19.9447 0 0
20.0606 0 1
20.1764 0 1
20.2922 0 1
20.4079 0 1
20.5236 0 1
20.6392 0 1
20.7548 0 1
20.8702 0 1
23.3078 0 1
23.4233 0 1
23.539 0 1
23.6547 0 1
23.7704 0 1
23.8862 0 1
24.0021 0 1
24.118 0 1
24.234 0 1
24.35 0 1
24.4661 869 29.4788
24.5822 855 29.2404
24.6984 832 28.8444
24.8146 868 29.4618
24.9309 897 29.95
25.0472 896 29.9333
25.1636 938 30.6268
25.28 934 30.5614
25.3965 973 31.1929
25.513 952 30.8545
25.6296 972 31.1769
25.7462 970 31.1448
25.8628 945 30.7409
25.9795 970 31.1448
26.0962 963 31.0322
26.213 935 30.5778
26.3298 899 29.9833
26.4466 975 31.225
26.5635 923 30.3809
26.6804 956 30.9192
26.7973 901 30.0167
26.9143 826 28.7402
27.0313 802 28.3196
27.1483 812 28.4956
27.2653 832 28.8444
27.3824 862 29.3598
27.4996 917 30.282
27.6167 895 29.9166
27.7339 860 29.3258
27.8511 810 28.4605
27.9683 807 28.4077
28.0855 846 29.0861
28.2028 810 28.4605
28.3201 825 28.7228
28.4374 797 28.2312
28.5547 838 28.9482
28.6721 896 29.9333
28.7894 871 29.5127
28.9068 877 29.6142
29.0242 889 29.8161
29.1416 923 30.3809
29.259 866 29.4279
29.3764 903 30.05
29.4939 915 30.249
29.6113 861 29.3428
29.7288 906 30.0998
29.8463 923 30.3809
29.9638 910 30.1662
30.0812 943 30.7083
30.1987 838 28.9482
30.3162 845 29.0689
30.4337 828 28.775
30.5512 802 28.3196
30.6687 790 28.1069
30.7862 827 28.7576
30.9037 761 27.5862
31.0212 887 29.7825
31.1387 833 28.8617
31.2562 788 28.0713
31.3737 780 27.9285
31.4912 791 28.1247
31.6087 823 28.688
31.7262 796 28.2135
31.8436 805 28.3725
31.9611 821 28.6531
32.0785 812 28.4956
32.1959 875 29.5804
32.3134 860 29.3258
32.4308 821 28.6531
32.5482 861 29.3428
32.6655 832 28.8444
32.7829 882 29.6985
32.9002 812 28.4956
33.0176 904 30.0666
33.1349 861 29.3428
33.2522 858 29.2916
33.3694 868 29.4618
33.4867 882 29.6985
33.6039 907 30.1164
33.7211 848 29.1204
33.8383 838 28.9482
33.9554 845 29.0689
34.0725 768 27.7128
34.1896 721 26.8514
34.3067 730 27.0185
34.4237 735 27.1109
34.5407 751 27.4044
34.6577 791 28.1247
34.7746 796 28.2135
34.8915 733 27.074
35.0084 749 27.3679
35.1252 799 28.2666
35.242 782 27.9643
35.3587 756 27.4955
35.4755 720 26.8328
35.5921 804 28.3549
35.7088 794 28.178
35.8254 829 28.7924
35.9419 837 28.931
36.0584 809 28.4429
36.1749 884 29.7321
36.2913 848 29.1204
36.4077 838 28.9482
36.524 858 29.2916
36.6403 787 28.0535
36.7565 862 29.3598
36.8727 873 29.5466
36.9889 810 28.4605
37.1049 819 28.6182
37.221 0 1
37.3369 0 1
37.4529 0 1
37.5687 0 1
37.6845 0 1
37.8003 0 1
37.916 0 1
38.0316 0 1
38.1472 0 1
40.5851 0 1
40.7008 0 1
40.8164 0 1
40.9322 0 1
41.048 0 1
41.1639 0 1
41.2798 0 1
41.3958 0 1
41.5118 0 1
41.6279 0 1
41.744 661 25.7099
41.8602 712 26.6833
41.9765 698 26.4197
42.0928 716 26.7582
42.2091 631 25.1197
42.3255 708 26.6083
42.4419 742 27.2397
42.5584 666 25.807
42.675 704 26.533
42.7915 738 27.1662
42.9081 707 26.5895
43.0248 609 24.6779
43.1415 621 24.9199
43.2582 650 25.4951
43.375 604 24.5764
43.4918 701 26.4764
43.6087 689 26.2488
43.7256 638 25.2587
43.8425 590 24.2899
43.9595 548 23.4094
44.0765 603 24.5561
44.1935 588 24.2487
44.3106 625 25
44.4277 633 25.1595
44.5448 652 25.5343
44.6619 633 25.1595
44.7791 602 24.5357
44.8963 591 24.3105
45.0136 695 26.3629
45.1308 606 24.6171
45.2481 611 24.7184
45.3654 656 25.6125
45.4827 597 24.4336
45.6001 589 24.2693
45.7174 553 23.516
45.8348 589 24.2693
45.9522 586 24.2074
46.0697 581 24.1039
46.1871 623 24.96
46.3046 567 23.8118
46.422 567 23.8118
46.5395 547 23.388
46.657 525 22.9129
46.7745 469 21.6564
46.892 478 21.8632
47.0096 518 22.7596
47.1271 520 22.8035
47.2446 457 21.3776
47.3622 512 22.6274
47.4797 503 22.4277
47.5973 456 21.3542
47.7149 444 21.0713
47.8324 437 20.9045
47.95 472 21.7256
48.0675 452 21.2603
48.1851 480 21.9089
48.3027 467 21.6102
48.4202 494 22.2261
48.5378 491 22.1585
48.6554 453 21.2838
48.7729 473 21.7486
48.8904 501 22.383
49.008 464 21.5407
49.1255 508 22.5389
49.243 480 21.9089
49.3605 484 22
49.478 489 22.1133
49.5955 498 22.3159
49.713 502 22.4054
49.8304 505 22.4722
49.9479 512 22.6274
50.0653 496 22.2711
50.1827 460 21.4476
50.3001 439 20.9523
50.4175 453 21.2838
50.5348 441 21
50.6521 504 22.4499
50.7694 498 22.3159
50.8867 468 21.6333
51.004 524 22.891
51.1212 496 22.2711
51.2384 496 22.2711
51.3556 569 23.8537
51.4727 560 23.6643
51.5899 601 24.5153
51.707 595 24.3926
51.824 619 24.8797
51.9411 566 23.7908
52.0581 639 25.2784
52.175 597 24.4336
52.2919 583 24.1454
52.4088 661 25.7099
52.5257 628 25.0599
52.6425 641 25.318
52.7593 653 25.5539
52.876 623 24.96
52.9927 686 26.1916
53.1094 647 25.4362
53.226 636 25.219
53.3426 643 25.3574
53.4591 660 25.6905
53.5756 652 25.5343
53.692 600 24.4949
53.8084 599 24.4745
53.9248 589 24.2693
54.0411 535 23.1301
54.1573 615 24.7992
54.2735 0 1
54.3896 0 1
54.5057 0 1
54.6217 0 1
54.7377 0 1
54.8537 0 1
54.9695 0 1
55.0853 0 1
55.2011 0 1
55.3168 0 1
55.4324 0 1
57.824 0 1
57.9396 0 1
58.0553 0 1
58.1711 0 1
58.2869 0 1
58.4028 0 1
58.5187 0 1
58.6347 0 1
58.7508 0 1
58.8669 0 1
58.983 683 26.1343
59.0992 565 23.7697
59.2155 629 25.0799
59.3318 622 24.9399
59.4482 684 26.1534
59.5646 653 25.5539
59.681 682 26.1151
59.7975 689 26.2488
59.9141 701 26.4764
60.0306 725 26.9258
60.1473 706 26.5707
60.2639 730 27.0185
60.3807 685 26.1725
60.4974 699 26.4386
60.6142 705 26.5518
60.731 693 26.3249
60.8479 638 25.2587
60.9648 726 26.9444
61.0818 652 25.5343
61.1987 643 25.3574
61.3158 682 26.1151
61.4328 743 27.258
61.5499 689 26.2488
61.667 672 25.923
61.7841 671 25.9037
61.9013 665 25.7876
62.0185 652 25.5343
62.1357 672 25.923
62.253 706 26.5707
62.3702 612 24.7386
62.4875 626 25.02
62.6049 548 23.4094
62.7222 533 23.0868
62.8396 576 24
62.9569 587 24.2281
63.0743 595 24.3926
63.1918 591 24.3105
63.3092 610 24.6982
63.4267 585 24.1868
63.5441 617 24.8395
63.6616 657 25.632
63.7791 599 24.4745
63.8966 597 24.4336
64.0142 613 24.7588
64.1317 622 24.9399
64.2492 607 24.6374
64.3668 619 24.8797
64.4843 615 24.7992
64.6019 598 24.454
64.7195 600 24.4949
64.837 561 23.6854
64.9546 638 25.2587
65.0722 597 24.4336
65.1898 585 24.1868
65.3074 588 24.2487
65.4249 571 23.8956
65.5425 578 24.0416
65.6601 623 24.96
65.7777 563 23.7276
65.8952 563 23.7276
66.0128 556 23.5797
66.1304 529 23
66.2479 483 21.9773
66.3655 488 22.0907
66.483 493 22.2036
66.6005 520 22.8035
66.718 523 22.8692
66.8355 543 23.3024
66.953 554 23.5372
67.0705 578 24.0416
67.1879 548 23.4094
67.3054 529 23
67.4228 526 22.9347
67.5402 547 23.388
67.6576 549 23.4307
67.7749 545 23.3452
67.8923 521 22.8254
68.0096 570 23.8747
68.1269 532 23.0651
68.2442 566 23.7908
68.3614 522 22.8473
68.4787 570 23.8747
68.5958 531 23.0434
68.713 525 22.9129
68.8302 570 23.8747
68.9473 513 22.6495
69.0643 500 22.3607
69.1814 548 23.4094
69.2984 524 22.891
69.4154 541 23.2594
69.5323 508 22.5389
69.6492 528 22.9783
69.7661 513 22.6495
69.8829 483 21.9773
69.9997 455 21.3307
70.1165 454 21.3073
70.2332 453 21.2838
70.3499 432 20.7846
70.4665 454 21.3073
70.5831 525 22.9129
70.6996 500 22.3607
70.8161 525 22.9129
70.9326 510 22.5832
71.049 470 21.6795
71.1653 467 21.6102
71.2817 475 21.7945
71.3979 481 21.9317
71.5141 469 21.6564
71.6303 470 21.6795
71.7464 420 20.4939
71.8624 0 1
71.9784 0 1
72.0944 0 1
72.2102 0 1
72.3261 0 1
72.4418 0 1
72.5575 0 1
72.6732 0 1
75.1054 0 1
75.2209 0 1
75.3365 0 1
75.4521 0 1
75.5678 0 1
75.6835 0 1
75.7993 0 1
75.9151 0 1
76.031 0 1
76.147 348 18.6548
76.263 347 18.6279
76.3791 362 19.0263
76.4952 342 18.4932
76.6113 371 19.2614
76.7276 372 19.2873
76.8438 376 19.3907
76.9601 356 18.868
77.0765 329 18.1384
77.1929 373 19.3132
77.3093 363 19.0526
77.4258 352 18.7617
77.5423 329 18.1384
77.6589 342 18.4932
77.7755 362 19.0263
77.8921 364 19.0788
78.0088 364 19.0788
78.1256 358 18.9209
78.2423 337 18.3576
78.3591 303 17.4069
78.4759 320 17.8885
78.5928 330 18.1659
78.7097 300 17.3205
78.8266 316 17.7764
78.9436 284 16.8523
79.0606 278 16.6733
79.1776 216 14.6969
79.2946 258 16.0624
79.4117 227 15.0665
79.5288 260 16.1245
79.6459 310 17.6068
79.7631 279 16.7033
79.8802 281 16.7631
79.9974 263 16.2173
80.1147 270 16.4317
80.2319 266 16.3095
80.3491 248 15.748
80.4664 224 14.9666
80.5837 229 15.1327
80.701 221 14.8661
80.8183 219 14.7986
80.9357 214 14.6287
81.053 238 15.4272
81.1704 194 13.9284
81.2877 203 14.2478
81.4051 191 13.8203
81.5225 197 14.0357
81.6399 202 14.2127
81.7573 190 13.784
81.8747 163 12.7671
81.9922 170 13.0384
82.1096 182 13.4907
82.227 148 12.1655
82.3444 147 12.1244
82.4619 156 12.49
82.5793 140 11.8322
82.6967 148 12.1655
82.8142 117 10.8167
82.9316 96 9.79796
83.049 125 11.1803
83.1664 124 11.1355
83.2838 138 11.7473
83.4012 113 10.6301
83.5186 116 10.7703
83.636 96 9.79796
83.7534 93 9.64365
83.8708 77 8.77496
83.9881 91 9.53939
84.1055 99 9.94987
84.2228 84 9.16515
84.3401 89 9.43398
84.4575 81 9
84.5747 85 9.21954
84.692 82 9.05539
84.8093 74 8.60233
84.9265 76 8.7178
85.0437 73 8.544
85.1609 63 7.93725
85.2781 56 7.48331
85.3952 74 8.60233
85.5123 62 7.87401
85.6294 73 8.544
85.7465 56 7.48331
85.8636 58 7.61577
85.9806 54 7.34847
86.0976 57 7.54983
86.2145 60 7.74597
86.3315 72 8.48528
86.4484 84 9.16515
86.5652 88 9.38083
86.682 76 8.7178
86.7988 93 9.64365
86.9156 95 9.74679
87.0323 91 9.53939
87.149 104 10.198
87.2657 111 10.5357
87.3823 93 9.64365
87.4988 116 10.7703
87.6154 107 10.3441
87.7318 121 11
87.8483 126 11.225
87.9647 127 11.2694
88.081 150 12.2474
88.1973 167 12.9228
88.3136 170 13.0384
88.4298 174 13.1909
88.546 171 13.0767
88.6621 143 11.9583
88.7781 170 13.0384
88.8942 0 1
89.0101 0 1
89.126 0 1
89.2419 0 1
89.3577 0 1
89.4734 0 1
89.5891 0 1
89.7047 0 1
89.8203 0 1
89.9358 0 1
92.3269 0 1
92.4424 0 1
92.558 0 1
92.6736 0 1
92.7893 0 1
92.905 0 1
93.0208 0 1
93.1366 0 1
93.2525 0 1
93.3685 0 1
93.4845 0 1
93.6005 286 16.9115
93.7167 254 15.9374
93.8328 261 16.1555
93.949 250 15.8114
94.0653 241 15.5242
94.1816 215 14.6629
94.2979 224 14.9666
94.4143 219 14.7986
94.5307 227 15.0665
94.6472 211 14.5258
94.7637 215 14.6629
94.8803 187 13.6748
94.9969 211 14.5258
95.1135 178 13.3417
95.2302 200 14.1421
95.3469 205 14.3178
95.4637 161 12.6886
95.5805 145 12.0416
95.6973 198 14.0712
95.8142 255 15.9687
95.9311 232 15.2315
96.048 238 15.4272
96.1649 237 15.3948
96.2819 248 15.748
96.3989 236 15.3623
96.516 261 16.1555
96.633 276 16.6132
96.7501 246 15.6844
96.8673 297 17.2337
96.9844 274 16.5529
97.1016 292 17.088
97.2188 320 17.8885
97.336 329 18.1384
97.4532 302 17.3781
97.5704 329 18.1384
97.6877 337 18.3576
97.805 304 17.4356
97.9223 355 18.8414
98.0396 341 18.4662
98.1569 396 19.8997
98.2743 358 18.9209
98.3916 352 18.7617
98.509 406 20.1494
98.6264 369 19.2094
98.7438 402 20.0499
98.8612 438 20.9284
98.9786 380 19.4936
99.096 288 16.9706
99.2134 249 15.7797
99.3308 373 19.3132
99.4482 425 20.6155
99.5656 466 21.587
99.6831 472 21.7256
99.8005 442 21.0238
99.9179 460 21.4476
100.035 464 21.5407
100.153 462 21.4942
100.27 452 21.2603
100.388 519 22.7816
100.505 518 22.7596
100.622 483 21.9773
100.74 525 22.9129
100.857 504 22.4499
100.975 507 22.5167
101.092 487 22.0681
101.209 508 22.5389
101.327 529 23
101.444 499 22.3383
101.561 523 22.8692
101.679 514 22.6716
101.796 569 23.8537
101.913 504 22.4499
102.03 544 23.3238
102.148 570 23.8747
102.265 593 24.3516
102.382 532 23.0651
102.499 518 22.7596
102.616 429 20.7123
102.733 352 18.7617
102.851 432 20.7846
102.968 546 23.3666
103.085 557 23.6008
103.202 565 23.7697
103.319 598 24.454
103.436 544 23.3238
103.552 548 23.4094
103.669 580 24.0832
103.786 542 23.2809
103.903 585 24.1868
104.02 552 23.4947
104.137 538 23.1948
104.253 582 24.1247
104.37 597 24.4336
104.487 603 24.5561
104.603 572 23.9165
104.72 601 24.5153
104.836 573 23.9374
104.953 609 24.6779
105.069 646 25.4165
105.186 560 23.6643
105.302 579 24.0624
105.418 581 24.1039
105.535 596 24.4131
105.651 587 24.2281
105.767 607 24.6374
105.883 564 23.7487
105.999 523 22.8692
106.115 0 1
106.231 0 1
106.347 0 1
106.463 0 1
106.579 0 1
106.694 0 1
106.81 0 1
106.926 0 1
107.041 0 1
107.157 0 1
109.576 0 1
109.692 0 1
109.807 0 1
109.923 0 1
110.039 0 1
110.155 0 1
110.27 0 1
110.386 0 1
110.502 0 1
110.618 454 21.3073
110.735 484 22
110.851 462 21.4942
110.967 460 21.4476
111.083 379 19.4679
111.199 379 19.4679
111.316 329 18.1384
111.432 387 19.6723
111.549 385 19.6214
111.665 447 21.1424
111.782 462 21.4942
111.898 439 20.9523
112.015 415 20.3715
112.132 399 19.975
112.248 424 20.5913
112.365 383 19.5704
112.482 409 20.2237
112.599 391 19.7737
112.716 400 20
112.832 431 20.7605
112.949 416 20.3961
113.066 375 19.3649
113.183 339 18.412
113.3 359 18.9473
113.417 359 18.9473
113.534 371 19.2614
113.652 360 18.9737
113.769 343 18.5203
113.886 340 18.4391
114.003 342 18.4932
114.12 323 17.9722
114.238 354 18.8149
114.355 311 17.6352
114.472 293 17.1172
114.589 302 17.3781
114.707 307 17.5214
114.824 295 17.1756
114.942 274 16.5529
115.059 290 17.0294
115.176 310 17.6068
115.294 316 17.7764
115.411 341 18.4662
115.529 303 17.4069
115.646 301 17.3494
115.764 339 18.412
115.881 331 18.1934
115.999 290 17.0294
116.116 337 18.3576
116.234 317 17.8045
116.351 326 18.0555
116.469 339 18.412
116.586 318 17.8326
116.704 307 17.5214
116.821 334 18.2757
116.939 326 18.0555
117.056 301 17.3494
117.174 287 16.9411
117.291 334 18.2757
117.409 323 17.9722
117.526 297 17.2337
117.644 322 17.9444
117.761 329 18.1384
117.879 281 16.7631
117.996 281 16.7631
118.114 276 16.6132
118.231 327 18.0831
118.349 328 18.1108
118.466 276 16.6132
118.584 252 15.8745
118.701 299 17.2916
118.819 321 17.9165
118.936 347 18.6279
119.053 353 18.7883
119.171 321 17.9165
119.288 353 18.7883
119.405 346 18.6011
119.523 325 18.0278
119.64 322 17.9444
119.757 328 18.1108
119.875 324 18
119.992 333 18.2483
120.109 347 18.6279
120.226 306 17.4929
120.343 350 18.7083
120.46 313 17.6918
120.578 366 19.1311
120.695 348 18.6548
120.812 344 18.5472
120.929 314 17.72
121.046 334 18.2757
121.163 315 17.7482
121.279 340 18.4391
121.396 311 17.6352
121.513 294 17.1464
121.63 269 16.4012
121.747 253 15.906
121.863 262 16.1864
121.98 274 16.5529
122.097 301 17.3494
122.213 338 18.3848
122.33 368 19.1833
122.446 351 18.735
122.563 337 18.3576
122.679 389 19.7231
122.795 351 18.735
122.912 341 18.4662
123.028 367 19.1572
123.144 371 19.2614
123.26 329 18.1384
123.377 0 1
123.493 0 1
123.609 0 1
123.725 0 1
123.84 0 1
123.956 0 1
124.072 0 1
124.188 0 1
124.303 0 1
124.419 0 1
126.852 0 1
126.968 0 1
127.083 0 1
127.199 0 1
127.315 0 1
127.431 0 1
127.547 0 1
127.663 0 1
127.779 0 1
127.895 0 1
128.011 0 1
128.127 0 1
128.243 0 1
128.359 429 20.7123
128.476 516 22.7156
128.592 442 21.0238
128.708 459 21.4243
128.825 491 22.1585
128.941 509 22.561
129.058 463 21.5174
129.174 469 21.6564
129.291 454 21.3073
129.408 468 21.6333
129.524 465 21.5639
129.641 501 22.383
129.758 501 22.383
129.875 471 21.7025
129.992 446 21.1187
130.108 477 21.8403
130.225 480 21.9089
130.342 464 21.5407
130.459 402 20.0499
130.576 409 20.2237
130.693 297 17.2337
130.81 309 17.5784
130.928 362 19.0263
131.045 398 19.9499
131.162 461 21.4709
131.279 490 22.1359
131.396 463 21.5174
131.513 449 21.1896
131.631 507 22.5167
131.748 510 22.5832
131.865 485 22.0227
131.983 555 23.5584
132.1 549 23.4307
132.217 549 23.4307
132.335 545 23.3452
132.452 483 21.9773
132.57 492 22.1811
132.687 473 21.7486
132.804 522 22.8473
132.922 518 22.7596
133.039 544 23.3238
133.157 519 22.7816
133.274 513 22.6495
133.392 527 22.9565
133.509 540 23.2379
133.627 523 22.8692
133.744 428 20.6882
133.862 450 21.2132
133.979 471 21.7025
134.097 410 20.2485
134.214 398 19.9499
134.332 361 19
134.449 361 19
134.567 401 20.025
134.684 465 21.5639
134.802 513 22.6495
134.919 481 21.9317
135.037 528 22.9783
135.154 567 23.8118
135.272 537 23.1733
135.389 559 23.6432
135.507 567 23.8118
135.624 571 23.8956
135.742 583 24.1454
135.859 590 24.2899
135.977 538 23.1948
136.094 569 23.8537
136.211 598 24.454
136.329 592 24.3311
136.446 595 24.3926
136.564 538 23.1948
136.681 595 24.3926
136.798 550 23.4521
136.915 536 23.1517
137.033 555 23.5584
137.15 598 24.454
137.267 567 23.8118
137.384 537 23.1733
137.502 507 22.5167
137.619 530 23.0217
137.736 441 21
137.853 416 20.3961
137.97 435 20.8567
138.087 454 21.3073
138.204 453 21.2838
138.321 434 20.8327
138.438 554 23.5372
138.555 603 24.5561
138.672 574 23.9583
138.788 583 24.1454
138.905 619 24.8797
139.022 595 24.3926
139.139 631 25.1197
139.255 582 24.1247
139.372 627 25.04
139.488 594 24.3721
139.605 648 25.4558
139.721 586 24.2074
139.838 606 24.6171
139.954 634 25.1794
140.071 634 25.1794
140.187 654 25.5734
140.303 644 25.3772
140.419 595 24.3926
140.535 617 24.8395
140.652 605 24.5967
140.768 0 1
140.884 0 1
141 0 1
141.115 0 1
141.231 0 1
141.347 0 1
141.463 0 1
141.578 0 1
141.694 0 1
144.104 0 1
144.219 0 1
144.335 0 1
144.45 0 1
144.566 0 1
144.682 0 1
144.798 0 1
144.914 0 1
145.03 0 1
145.146 623 24.96
145.262 597 24.4336
145.378 612 24.7386
145.494 615 24.7992
145.61 590 24.2899
145.726 565 23.7697
145.842 563 23.7276
145.959 587 24.2281
146.075 573 23.9374
146.192 535 23.1301
146.308 502 22.4054
146.425 461 21.4709
146.541 475 21.7945
146.658 451 21.2368
146.774 499 22.3383
146.891 477 21.8403
147.008 542 23.2809
147.125 573 23.9374
147.241 579 24.0624
147.358 606 24.6171
147.475 603 24.5561
147.592 617 24.8395
147.709 580 24.0832
147.826 588 24.2487
147.943 595 24.3926
148.06 583 24.1454
148.177 614 24.779
148.294 576 24
148.411 612 24.7386
148.528 591 24.3105
148.645 552 23.4947
148.762 599 24.4745
148.88 608 24.6577
148.997 563 23.7276
149.114 627 25.04
149.231 594 24.3721
149.349 572 23.9165
149.466 587 24.2281
149.583 575 23.9792
149.701 531 23.0434
149.818 513 22.6495
149.935 489 22.1133
150.053 480 21.9089
150.17 521 22.8254
150.287 454 21.3073
150.405 532 23.0651
150.522 488 22.0907
150.64 529 23
150.757 527 22.9565
150.875 592 24.3311
150.992 582 24.1247
151.11 632 25.1396
151.227 618 24.8596
151.344 604 24.5764
151.462 579 24.0624
151.579 600 24.4949
151.697 609 24.6779
151.814 604 24.5764
151.932 607 24.6374
152.049 624 24.98
152.167 594 24.3721
152.284 612 24.7386
152.402 608 24.6577
152.519 652 25.5343
152.636 562 23.7065
152.754 567 23.8118
152.871 629 25.0799
152.989 602 24.5357
153.106 541 23.2594
153.223 537 23.1733
153.341 572 23.9165
153.458 491 22.1585
153.575 498 22.3159
153.693 464 21.5407
153.81 481 21.9317
153.927 542 23.2809
154.044 514 22.6716
154.162 578 24.0416
154.279 531 23.0434
154.396 544 23.3238
154.513 589 24.2693
154.63 624 24.98
154.747 609 24.6779
154.864 595 24.3926
154.981 642 25.3377
155.098 648 25.4558
155.215 651 25.5147
155.332 662 25.7294
155.449 627 25.04
155.566 661 25.7099
155.683 625 25
155.8 634 25.1794
155.917 582 24.1247
156.033 711 26.6646
156.15 0 1
156.267 0 1
156.383 0 1
156.5 0 1
156.617 0 1
156.733 0 1
156.85 0 1
156.966 0 1
157.082 0 1
157.199 0 1
157.315 0 1
157.431 0 1
157.547 0 1
157.664 0 1
157.78 0 1
157.896 0 1
158.012 0 1
158.128 0 1
158.244 0 1
158.359 0 1
158.475 0 1
158.591 0 1
158.706 0 1
