
6.15755 0 1
6.2731 0 1
6.3887 0 1
6.50437 0 1
6.62009 0 1
6.73587 0 1
6.8517 0 1
6.96759 0 1
7.08353 0 1
7.19952 0 1
7.31557 0 1
7.43166 0 1
7.54781 0 1
7.664 0 1
7.78024 0 1
7.89653 0 1
8.01286 0 1
8.12924 0 1
8.24567 0 1
8.36213 0 1
8.47864 0 1
8.59519 0 1
8.71178 0 1
8.82841 0 1
8.94508 0 1
9.06179 0 1
9.17853 0 1
9.29531 0 1
9.41212 0 1
9.52897 0 1
9.64584 0 1
9.76276 0 1
9.8797 0 1
9.99667 0 1
10.1137 0 1
10.2307 0 1
10.3478 0 1
10.4648 0 1
10.5819 0 1
10.6991 0 1
10.8162 0 1
10.9334 0 1
11.0506 0 1
11.1678 0 1
11.285 0 1
11.4023 0 1
11.5196 0 1
11.6369 0 1
11.7542 0 1
11.8715 0 1
11.9888 0 1
12.1062 0 1
12.2235 0 1
12.3409 0 1
12.4582 0 1
12.5756 0 1
12.693 0 1
12.8104 0 1
12.9278 0 1
13.0452 0 1
13.1626 0 1
13.28 0 1
13.3974 0 1
13.5149 0 1
13.6323 0 1
13.7497 0 1
13.8671 0 1
13.9845 0 1
14.1019 0 1
14.2193 0 1
14.3367 0 1
14.4541 0 1
14.5714 0 1
14.6888 0 1
14.8062 0 1
14.9235 0 1
15.0408 8980 94.7629
15.1581 9350 96.6954
15.2755 9404 96.9742
15.3927 9348 96.6851
15.51 9134 95.572
15.6273 9101 95.3992
15.7445 8833 93.984
15.8617 8879 94.2284
15.9789 9349 96.6902
16.0961 9476 97.3447
16.2132 9961 99.8048
16.3304 10336 101.666
16.4475 10720 103.537
16.5646 10541 102.669
16.6816 10574 102.83
16.7986 10539 102.66
16.9156 10558 102.752
17.0326 10667 103.281
17.1496 10254 101.262
17.2665 10395 101.956
17.3833 10342 101.696
17.5002 10385 101.907
17.617 10613 103.019
17.7338 10815 103.995
17.8505 10805 103.947
17.9672 11104 105.376
18.0839 11178 105.726
18.2005 11527 107.364
18.3171 11794 108.6
18.4337 12060 109.818
18.5502 12298 110.896
18.6666 12506 111.83
18.7831 12337 111.072
18.8994 12022 109.645
19.0158 11897 109.073
19.1321 11588 107.648
19.2483 11273 106.174
19.3645 10970 104.738
19.4806 11365 106.607
19.5967 11666 108.009
19.7128 12043 109.741
19.8288 12076 109.891
19.9447 10801 103.928
20.0606 0 1
20.1764 0 1
20.2922 0 1
20.4079 0 1
20.5236 0 1
20.6392 0 1
20.7548 0 1
20.8702 0 1
23.3078 0 1
23.4233 0 1
23.539 0 1
23.6547 0 1
23.7704 0 1
23.8862 0 1
24.0021 0 1
24.118 0 1
24.234 0 1
24.35 0 1
24.4661 11796 108.609
24.5822 11562 107.527
24.6984 11577 107.596
24.8146 12126 110.118
24.9309 12493 111.772
25.0472 12744 112.889
25.1636 13172 114.769
25.28 13202 114.9
25.3965 13418 115.836
25.513 12859 113.398
25.6296 13145 114.652
25.7462 12904 113.596
25.8628 12701 112.699
25.9795 12805 113.159
26.0962 12528 111.929
26.213 12721 112.787
26.3298 13118 114.534
26.4466 13395 115.737
26.5635 13686 116.987
26.6804 14101 118.748
26.7973 14249 119.369
26.9143 14416 120.067
27.0313 14588 120.781
27.1483 15030 122.597
27.2653 15243 123.463
27.3824 15140 123.045
27.4996 14923 122.16
27.6167 14434 120.142
27.7339 13903 117.911
27.8511 13649 116.829
27.9683 13136 114.612
28.0855 12843 113.327
28.2028 12950 113.798
28.3201 12418 111.436
28.4374 12937 113.741
28.5547 13554 116.422
28.6721 13896 117.881
28.7894 14302 119.591
28.9068 14216 119.231
29.0242 13631 116.752
29.1416 13447 115.961
29.259 12938 113.745
29.3764 12875 113.468
29.4939 12785 113.071
29.6113 12583 112.174
29.7288 12701 112.699
29.8463 13052 114.245
29.9638 13255 115.13
30.0812 13737 117.205
30.1987 14059 118.571
30.3162 14516 120.482
30.4337 14786 121.598
30.5512 15120 122.963
30.6687 15022 122.564
30.7862 15351 123.899
30.9037 15379 124.012
31.0212 15475 124.399
31.1387 14893 122.037
31.2562 14798 121.647
31.3737 14320 119.666
31.4912 13828 117.593
31.6087 13659 116.872
31.7262 13139 114.625
31.8436 13176 114.787
31.9611 13547 116.392
32.0785 13895 117.877
32.1959 14568 120.698
32.3134 14605 120.851
32.4308 14920 122.147
32.5482 14524 120.516
32.6655 14219 119.243
32.7829 13817 117.546
32.9002 13427 115.875
33.0176 13241 115.07
33.1349 13158 114.708
33.2522 13333 115.469
33.3694 13022 114.114
33.4867 13694 117.021
33.6039 14215 119.227
33.7211 14322 119.675
33.8383 14617 120.901
33.9554 14993 122.446
34.0725 15310 123.734
34.1896 15529 124.615
34.3067 15682 125.228
34.4237 15896 126.079
34.5407 15889 126.052
34.6577 16023 126.582
34.7746 15690 125.26
34.8915 15328 123.806
35.0084 14878 121.975
35.1252 14505 120.437
35.242 14257 119.403
35.3587 14016 118.389
35.4755 13674 116.936
35.5921 13727 117.162
35.7088 14207 119.193
35.8254 14492 120.383
35.9419 15042 122.646
36.0584 15288 123.645
36.1749 15457 124.326
36.2913 14796 121.639
36.4077 14674 121.136
36.524 14197 119.151
36.6403 13483 116.116
36.7565 13342 115.508
36.8727 13241 115.07
36.9889 13604 116.636
37.1049 13189 114.843
37.221 0 1
37.3369 0 1
37.4529 0 1
37.5687 0 1
37.6845 0 1
37.8003 0 1
37.916 0 1
38.0316 0 1
38.1472 0 1
40.5851 0 1
40.7008 0 1
40.8164 0 1
40.9322 0 1
41.048 0 1
41.1639 0 1
41.2798 0 1
41.3958 0 1
41.5118 0 1
41.6279 0 1
41.744 11247 106.052
41.8602 11481 107.149
41.9765 11675 108.051
42.0928 11414 106.836
42.2091 11833 108.78
42.3255 12188 110.399
42.4419 12862 113.411
42.5584 13184 114.822
42.675 13564 116.465
42.7915 14123 118.84
42.9081 14305 119.604
43.0248 14479 120.329
43.1415 14480 120.333
43.2582 14746 121.433
43.375 14889 122.02
43.4918 14596 120.814
43.6087 14195 119.143
43.7256 13959 118.148
43.8425 13755 117.282
43.9595 13399 115.754
44.0765 12838 113.305
44.1935 12544 112
44.3106 12052 109.782
44.4277 12076 109.891
44.5448 12546 112.009
44.6619 12679 112.601
44.7791 13077 114.355
44.8963 12836 113.296
45.0136 12500 111.803
45.1308 12090 109.955
45.2481 11455 107.028
45.3654 11028 105.014
45.4827 10245 101.218
45.6001 10121 100.603
45.7174 10159 100.792
45.8348 10538 102.655
45.9522 10653 103.213
46.0697 11213 105.891
46.1871 11271 106.165
46.3046 11926 109.206
46.422 12269 110.766
46.5395 12453 111.593
46.657 12433 111.503
46.7745 12618 112.33
46.892 12478 111.705
47.0096 12604 112.268
47.1271 12302 110.914
47.2446 12304 110.923
47.3622 11858 108.894
47.4797 11512 107.294
47.5973 11168 105.679
47.7149 10718 103.528
47.8324 10647 103.184
47.95 10358 101.774
48.0675 10122 100.608
48.1851 10767 103.764
48.3027 10665 103.271
48.4202 10641 103.155
48.5378 10637 103.136
48.6554 10097 100.484
48.7729 9600 97.9796
48.8904 9040 95.0789
49.008 8627 92.8816
49.1255 8537 92.3959
49.243 8526 92.3363
49.3605 8735 93.4612
49.478 9149 95.6504
49.5955 9650 98.2344
49.713 10047 100.235
49.8304 10406 102.01
49.9479 10981 104.79
50.0653 11238 106.009
50.1827 11560 107.517
50.3001 11774 108.508
50.4175 11976 109.435
50.5348 11967 109.394
50.6521 12171 110.322
50.7694 11847 108.844
50.8867 11953 109.33
51.004 11975 109.43
51.1212 11830 108.766
51.2384 11617 107.782
51.3556 11673 108.042
51.4727 11643 107.903
51.5899 11998 109.535
51.707 12505 111.826
51.824 12950 113.798
51.9411 13666 116.902
52.0581 13436 115.914
52.175 13382 115.681
52.2919 12788 113.084
52.4088 12213 110.512
52.5257 11777 108.522
52.6425 11716 108.24
52.7593 11469 107.093
52.876 11861 108.908
52.9927 12399 111.351
53.1094 13352 115.551
53.226 14394 119.975
53.3426 15269 123.568
53.4591 16265 127.534
53.5756 16801 129.619
53.692 17192 131.118
53.8084 17565 132.533
53.9248 17867 133.667
54.0411 18000 134.164
54.1573 18399 135.643
54.2735 0 1
54.3896 0 1
54.5057 0 1
54.6217 0 1
54.7377 0 1
54.8537 0 1
54.9695 0 1
55.0853 0 1
55.2011 0 1
55.3168 0 1
55.4324 0 1
57.824 0 1
57.9396 0 1
58.0553 0 1
58.1711 0 1
58.2869 0 1
58.4028 0 1
58.5187 0 1
58.6347 0 1
58.7508 0 1
58.8669 0 1
58.983 20496 143.164
59.0992 21844 147.797
59.2155 21886 147.939
59.3318 21999 148.321
59.4482 21885 147.936
59.5646 21470 146.526
59.681 21414 146.335
59.7975 20967 144.8
59.9141 20657 143.725
60.0306 20395 142.811
60.1473 20164 142
60.2639 20293 142.454
60.3807 20417 142.888
60.4974 20365 142.706
60.6142 20150 141.951
60.731 19384 139.226
60.8479 18344 135.44
60.9648 17719 133.113
61.0818 16818 129.684
61.1987 16126 126.988
61.3158 15878 126.008
61.4328 16152 127.091
61.5499 16525 128.55
61.667 17502 132.295
61.7841 17908 133.821
61.9013 19086 138.152
62.0185 19692 140.328
62.1357 20421 142.902
62.253 21091 145.227
62.3702 21273 145.853
62.4875 21881 147.922
62.6049 21483 146.571
62.7222 21523 146.707
62.8396 21682 147.248
62.9569 21191 145.571
63.0743 20777 144.142
63.1918 20567 143.412
63.3092 20101 141.778
63.4267 19471 139.539
63.5441 19741 140.503
63.6616 19382 139.219
63.7791 19392 139.255
63.8966 19591 139.968
64.0142 19957 141.269
64.1317 19565 139.875
64.2492 19110 138.239
64.3668 18504 136.029
64.4843 17350 131.719
64.6019 16349 127.863
64.7195 15541 124.664
64.837 15045 122.658
64.9546 14876 121.967
65.0722 15348 123.887
65.1898 16185 127.22
65.3074 17337 131.67
65.4249 17884 133.731
65.5425 19157 138.409
65.6601 19751 140.538
65.7777 20539 143.314
65.8952 21165 145.482
66.0128 21498 146.622
66.1304 21477 146.55
66.2479 21798 147.641
66.3655 21625 147.054
66.483 21734 147.425
66.6005 21391 146.257
66.718 21084 145.203
66.8355 21166 145.485
66.953 20803 144.232
67.0705 20380 142.759
67.1879 20224 142.211
67.3054 20240 142.267
67.4228 20548 143.346
67.5402 20772 144.125
67.6576 20778 144.146
67.7749 20812 144.264
67.8923 20641 143.67
68.0096 19705 140.374
68.1269 18514 136.066
68.2442 17501 132.291
68.3614 16448 128.25
68.4787 16184 127.216
68.5958 16138 127.035
68.713 16721 129.31
68.8302 17694 133.019
68.9473 19009 137.873
69.0643 20321 142.552
69.1814 21478 146.554
69.2984 22835 151.113
69.4154 23759 154.14
69.5323 24378 156.135
69.6492 24918 157.854
69.7661 25689 160.278
69.8829 25914 160.978
69.9997 26315 162.219
70.1165 26287 162.133
70.2332 25836 160.736
70.3499 26219 161.923
70.4665 26006 161.264
70.5831 25728 160.4
70.6996 24999 158.111
70.8161 24796 157.467
70.9326 24842 157.613
71.049 24959 157.984
71.1653 24934 157.905
71.2817 25190 158.714
71.3979 25117 158.483
71.5141 24139 155.367
71.6303 22077 148.583
71.7464 19189 138.524
71.8624 0 1
71.9784 0 1
72.0944 0 1
72.2102 0 1
72.3261 0 1
72.4418 0 1
72.5575 0 1
72.6732 0 1
75.1054 0 1
75.2209 0 1
75.3365 0 1
75.4521 0 1
75.5678 0 1
75.6835 0 1
75.7993 0 1
75.9151 0 1
76.031 0 1
76.147 24745 157.305
76.263 26542 162.917
76.3791 27264 165.118
76.4952 28366 168.422
76.6113 28850 169.853
76.7276 29293 171.152
76.8438 28685 169.366
76.9601 27251 165.079
77.0765 24978 158.044
77.1929 23097 151.977
77.3093 20964 144.79
77.4258 19742 140.506
77.5423 19550 139.821
77.6589 19783 140.652
77.7755 21042 145.059
77.8921 23595 153.607
78.0088 25328 159.148
78.1256 27784 166.685
78.2423 29314 171.213
78.3591 30557 174.806
78.4759 31852 178.471
78.5928 32219 179.497
78.7097 32251 179.586
78.8266 31338 177.025
78.9436 33276 182.417
79.0606 31872 178.527
79.1776 31715 178.087
79.2946 31709 178.07
79.4117 31392 177.178
79.5288 30920 175.841
79.6459 30650 175.071
79.7631 29652 172.198
79.8802 29271 171.088
79.9974 29401 171.467
80.1147 29372 171.383
80.2319 30213 173.819
80.3491 30465 174.542
80.4664 30265 173.968
80.5837 29004 170.306
80.701 27514 165.873
80.8183 24830 157.575
80.9357 22249 149.161
81.053 20726 143.965
81.1704 20055 141.616
81.2877 19560 139.857
81.4051 20711 143.913
81.5225 22309 149.362
81.6399 24756 157.34
81.7573 27318 165.282
81.8747 28614 169.157
81.9922 30450 174.499
82.1096 31482 177.432
82.227 31744 178.168
82.3444 31760 178.213
82.4619 31694 178.028
82.5793 32257 179.602
82.6967 31522 177.544
82.8142 31617 177.812
82.9316 30818 175.551
83.049 30318 174.121
83.1664 29945 173.046
83.2838 29850 172.772
83.4012 29052 170.446
83.5186 28493 168.799
83.636 28410 168.553
83.7534 28793 169.685
83.8708 29177 170.813
83.9881 29699 172.334
84.1055 29463 171.648
84.2228 28173 167.848
84.3401 26313 162.213
84.4575 23888 154.557
84.5747 22394 149.646
84.692 20597 143.517
84.8093 19284 138.867
84.9265 19400 139.284
85.0437 20552 143.36
85.1609 22956 151.512
85.2781 25482 159.631
85.3952 27986 167.29
85.5123 30683 175.166
85.6294 32665 180.735
85.7465 33955 184.269
85.8636 35053 187.224
85.9806 35643 188.794
86.0976 36112 190.032
86.2145 36801 191.836
86.3315 37839 194.522
86.4484 35992 189.716
86.5652 37124 192.676
86.682 37382 193.344
86.7988 37286 193.096
86.9156 37359 193.285
87.0323 36832 191.917
87.149 36760 191.729
87.2657 37080 192.562
87.3823 37960 194.833
87.4988 38339 195.803
87.6154 39294 198.227
87.7318 38613 196.502
87.8483 36726 191.64
87.9647 34180 184.878
88.081 31141 176.468
88.1973 28513 168.858
88.3136 26518 162.843
88.4298 26282 162.117
88.546 26878 163.945
88.6621 28875 169.926
88.7781 31972 178.807
88.8942 0 1
89.0101 0 1
89.126 0 1
89.2419 0 1
89.3577 0 1
89.4734 0 1
89.5891 0 1
89.7047 0 1
89.8203 0 1
89.9358 0 1
92.3269 0 1
92.4424 0 1
92.558 0 1
92.6736 0 1
92.7893 0 1
92.905 0 1
93.0208 0 1
93.1366 0 1
93.2525 0 1
93.3685 0 1
93.4845 0 1
93.6005 30044 173.332
93.7167 29305 171.187
93.8328 29396 171.453
93.949 30215 173.825
94.0653 31899 178.603
94.1816 35650 188.812
94.2979 39191 197.967
94.4143 41936 204.783
94.5307 44826 211.722
94.6472 46746 216.208
94.7637 47408 217.734
94.8803 48135 219.397
94.9969 48888 221.106
95.1135 49126 221.644
95.2302 49449 222.371
95.3469 49026 221.418
95.4637 49277 221.984
95.5805 49226 221.869
95.6973 49171 221.745
95.8142 48749 220.792
95.9311 48717 220.719
96.048 47967 219.014
96.1649 47198 217.251
96.2819 46456 215.537
96.3989 47097 217.018
96.516 47962 219.002
96.633 48431 220.07
96.7501 48678 220.631
96.8673 46969 216.723
96.9844 43330 208.159
97.1016 40602 201.499
97.2188 37106 192.629
97.336 34590 185.984
97.4532 31505 177.496
97.5704 30564 174.826
97.6877 31328 176.997
97.805 33145 182.058
97.9223 36810 191.859
98.0396 39669 199.171
98.1569 43151 207.728
98.2743 45344 212.941
98.3916 48930 221.201
98.509 49850 223.271
98.6264 50782 225.349
98.7438 51068 225.982
98.8612 51069 225.985
98.9786 51377 226.665
99.096 51389 226.691
99.2134 50441 224.591
99.3308 50831 225.457
99.4482 51215 226.307
99.5656 50453 224.617
99.6831 50313 224.306
99.8005 48926 221.192
99.9179 48490 220.204
100.035 48576 220.4
100.153 49745 223.036
100.27 50498 224.718
100.388 50910 225.632
100.505 49052 221.477
100.622 45299 212.836
100.74 42094 205.168
100.857 38266 195.617
100.975 35069 187.267
101.092 32450 180.139
101.209 32339 179.83
101.327 33239 182.316
101.444 35923 189.534
101.561 39726 199.314
101.679 43857 209.421
101.796 47137 217.111
101.913 49949 223.493
102.03 51503 226.943
102.148 52817 229.819
102.265 51192 226.256
102.382 54672 233.82
102.499 53706 231.746
102.616 53533 231.372
102.733 52734 229.639
102.851 52392 228.893
102.968 53128 230.495
103.085 53248 230.755
103.202 52263 228.611
103.319 51551 227.048
103.436 50995 225.821
103.552 50782 225.349
103.669 51575 227.101
103.786 53329 230.931
103.903 53123 230.484
104.02 51695 227.365
104.137 48980 221.314
104.253 45554 213.434
104.37 42024 204.998
104.487 38060 195.09
104.603 35834 189.299
104.72 35028 187.158
104.836 35794 189.193
104.953 38410 195.985
105.069 42190 205.402
105.186 46053 214.6
105.302 50223 224.105
105.418 52976 230.165
105.535 55678 235.962
105.651 56115 236.886
105.767 57152 239.065
105.883 57683 240.173
105.999 57197 239.159
106.115 0 1
106.231 0 1
106.347 0 1
106.463 0 1
106.579 0 1
106.694 0 1
106.81 0 1
106.926 0 1
107.041 0 1
107.157 0 1
109.576 0 1
109.692 0 1
109.807 0 1
109.923 0 1
110.039 0 1
110.155 0 1
110.27 0 1
110.386 0 1
110.502 0 1
110.618 50045 223.707
110.735 51339 226.581
110.851 52335 228.768
110.967 52486 229.098
111.083 52711 229.589
111.199 52484 229.094
111.316 52437 228.991
111.432 52829 229.846
111.549 52275 228.637
111.665 51580 227.112
111.782 50416 224.535
111.898 49566 222.634
112.015 49400 222.261
112.132 50426 224.557
112.248 51512 226.963
112.365 50949 225.719
112.482 47771 218.566
112.599 47161 217.166
112.716 43145 207.714
112.832 39961 199.902
112.949 36595 191.298
113.066 34136 184.759
113.183 33001 181.662
113.3 32955 181.535
113.417 34203 184.941
113.534 37267 193.047
113.652 39801 199.502
113.769 42981 207.319
113.886 46163 214.856
114.003 47124 217.081
114.12 48505 220.239
114.238 49058 221.49
114.355 49520 222.531
114.472 48544 220.327
114.589 49814 223.191
114.707 48056 219.217
114.824 47938 218.947
114.942 48477 220.175
115.059 48866 221.057
115.176 48700 220.681
115.294 48389 219.975
115.411 47208 217.274
115.529 46726 216.162
115.646 47095 217.014
115.764 47834 218.71
115.881 48225 219.602
115.999 47893 218.845
116.116 46118 214.751
116.234 43826 209.347
116.351 41181 202.931
116.469 38307 195.722
116.586 35086 187.313
116.704 33695 183.562
116.821 32406 180.017
116.939 32686 180.793
117.056 34381 185.421
117.174 36493 191.031
117.291 39033 197.568
117.409 42060 205.085
117.526 44649 211.303
117.644 46294 215.16
117.761 46898 216.559
117.879 48241 219.638
117.996 47270 217.417
118.114 47821 218.68
118.231 47173 217.193
118.349 46615 215.905
118.466 46296 215.165
118.584 47163 217.17
118.701 47328 217.55
118.819 47237 217.341
118.936 46180 214.895
119.053 45219 212.648
119.171 44584 211.149
119.288 44897 211.889
119.405 45961 214.385
119.523 46112 214.737
119.64 45662 213.687
119.757 44502 210.955
119.875 42523 206.211
119.992 40165 200.412
120.109 38230 195.525
120.226 35352 188.021
120.343 33222 182.269
120.46 32321 179.78
120.578 31809 178.351
120.695 32369 179.914
120.812 33916 184.163
120.929 36229 190.339
121.046 38659 196.619
121.163 41003 202.492
121.279 42941 207.222
121.396 44077 209.945
121.513 44408 210.732
121.63 45892 214.224
121.747 45525 213.366
121.863 45501 213.31
121.98 44491 210.929
122.097 44113 210.031
122.213 43755 209.177
122.33 44126 210.062
122.446 44950 212.014
122.563 43840 209.38
122.679 43445 208.435
122.795 42292 205.65
122.912 41915 204.732
123.028 42193 205.409
123.144 42670 206.567
123.26 42609 206.419
123.377 0 1
123.493 0 1
123.609 0 1
123.725 0 1
123.84 0 1
123.956 0 1
124.072 0 1
124.188 0 1
124.303 0 1
124.419 0 1
126.852 0 1
126.968 0 1
127.083 0 1
127.199 0 1
127.315 0 1
127.431 0 1
127.547 0 1
127.663 0 1
127.779 0 1
127.895 0 1
128.011 0 1
128.127 0 1
128.243 0 1
128.359 45620 213.588
128.476 45424 213.129
128.592 45522 213.359
128.708 44045 209.869
128.825 42433 205.993
128.941 40165 200.412
129.058 38127 195.261
129.174 36297 190.518
129.291 35229 187.694
129.408 34647 186.137
129.524 34369 185.389
129.641 35757 189.095
129.758 37552 193.783
129.875 39614 199.033
129.992 41953 204.824
130.108 43084 207.567
130.225 44176 210.181
130.342 44886 211.863
130.459 44392 210.694
130.576 46175 214.884
130.693 45006 212.146
130.81 43202 207.851
130.928 43406 208.341
131.045 43831 209.359
131.162 44936 211.981
131.279 45474 213.246
131.396 44621 211.237
131.513 44014 209.795
131.631 43670 208.974
131.748 44344 210.58
131.865 44940 211.991
131.983 44854 211.788
132.1 44340 210.571
132.217 43853 209.411
132.335 41769 204.375
132.452 40622 201.549
132.57 38601 196.471
132.687 35689 188.915
132.804 35411 188.178
132.922 34056 184.543
133.039 33769 183.763
133.157 34413 185.507
133.274 35744 189.061
133.392 37406 193.406
133.509 38976 197.423
133.627 40584 201.455
133.744 41962 204.846
133.862 42714 206.674
133.979 42882 207.08
134.097 42628 206.465
134.214 42189 205.4
134.332 42011 204.966
134.449 41503 203.723
134.567 41243 203.084
134.684 42072 205.115
134.802 42301 205.672
134.919 43073 207.54
135.037 43009 207.386
135.154 41915 204.732
135.272 41724 204.265
135.389 42260 205.572
135.507 42659 206.541
135.624 42958 207.263
135.742 42141 205.283
135.859 41374 203.406
135.977 39947 199.867
136.094 38374 195.893
136.211 36757 191.721
136.329 35220 187.67
136.446 34130 184.743
136.564 33245 182.332
136.681 33090 181.907
136.798 33460 182.921
136.915 34672 186.204
137.033 35720 188.997
137.15 37464 193.556
137.267 38597 196.461
137.384 39792 199.479
137.502 39942 199.855
137.619 39967 199.917
137.736 40976 202.425
137.853 40082 200.205
137.97 39732 199.329
138.087 38439 196.059
138.204 38726 196.789
138.321 39959 199.897
138.438 40883 202.195
138.555 41322 203.278
138.672 41226 203.042
138.788 40327 200.816
138.905 40689 201.715
139.022 41096 202.721
139.139 41794 204.436
139.255 41287 203.192
139.372 41095 202.719
139.488 40260 200.649
139.605 39220 198.04
139.721 38258 195.597
139.838 36825 191.898
139.954 35145 187.47
140.071 33433 182.847
140.187 33059 181.821
140.303 32385 179.958
140.419 32713 180.867
140.535 32669 180.746
140.652 33277 182.42
140.768 0 1
140.884 0 1
141 0 1
141.115 0 1
141.231 0 1
141.347 0 1
141.463 0 1
141.578 0 1
141.694 0 1
144.104 0 1
144.219 0 1
144.335 0 1
144.45 0 1
144.566 0 1
144.682 0 1
144.798 0 1
144.914 0 1
145.03 0 1
145.146 22920 151.394
145.262 24964 158
145.378 25318 159.116
145.494 25970 161.152
145.61 26412 162.518
145.726 27199 164.921
145.842 28270 168.137
145.959 28508 168.843
146.075 29172 170.798
146.192 29774 172.551
146.308 30314 174.109
146.425 30121 173.554
146.541 29819 172.682
146.658 29540 171.872
146.774 29059 170.467
146.891 28515 168.864
147.008 29374 171.388
147.125 29308 171.196
147.241 30485 174.6
147.358 30242 173.902
147.475 30748 175.351
147.592 30513 174.68
147.709 30716 175.26
147.826 30988 176.034
147.943 31015 176.111
148.06 31229 176.717
148.177 31013 176.105
148.294 30656 175.089
148.411 30012 173.24
148.528 29320 171.231
148.645 28141 167.753
148.762 27906 167.051
148.88 27310 165.257
148.997 26655 163.264
149.114 27498 165.825
149.231 26831 163.802
149.349 26597 163.086
149.466 27872 166.949
149.583 28214 167.97
149.701 29013 170.332
149.818 29857 172.792
149.935 29852 172.777
150.053 30442 174.476
150.17 30428 174.436
150.287 30339 174.181
150.405 29652 172.198
150.522 29149 170.731
150.64 28992 170.27
150.757 29633 172.142
150.875 29874 172.841
150.992 30314 174.109
151.11 31118 176.403
151.227 31024 176.136
151.344 30965 175.969
151.462 30613 174.966
151.579 31453 177.35
151.697 31495 177.468
151.814 30939 175.895
151.932 30798 175.494
152.049 30325 174.141
152.167 29494 171.738
152.284 29262 171.061
152.402 28565 169.012
152.519 27777 166.664
152.636 27793 166.712
152.754 27965 167.227
152.871 27081 164.563
152.989 27786 166.691
153.106 27788 166.697
153.223 28459 168.698
153.341 29691 172.311
153.458 29994 173.188
153.575 30306 174.086
153.693 30471 174.559
153.81 30985 176.026
153.927 30195 173.767
154.044 29949 173.058
154.162 29291 171.146
154.279 29482 171.703
154.396 30312 174.103
154.513 30817 175.548
154.63 31571 177.682
154.747 32331 179.808
154.864 32104 179.176
154.981 32483 180.23
155.098 32308 179.744
155.215 32655 180.707
155.332 32461 180.169
155.449 32046 179.014
155.566 31832 178.415
155.683 31286 176.878
155.8 30521 174.703
155.917 30387 174.319
156.033 29717 172.386
156.15 0 1
156.267 0 1
156.383 0 1
156.5 0 1
156.617 0 1
156.733 0 1
156.85 0 1
156.966 0 1
157.082 0 1
157.199 0 1
157.315 0 1
157.431 0 1
157.547 0 1
157.664 0 1
157.78 0 1
157.896 0 1
158.012 0 1
158.128 0 1
158.244 0 1
158.359 0 1
158.475 0 1
158.591 0 1
158.706 0 1
