
6.15755 0 1
6.2731 0 1
6.3887 0 1
6.50437 0 1
6.62009 0 1
6.73587 0 1
6.8517 0 1
6.96759 0 1
7.08353 0 1
7.19952 0 1
7.31557 0 1
7.43166 0 1
7.54781 0 1
7.664 0 1
7.78024 0 1
7.89653 0 1
8.01286 0 1
8.12924 0 1
8.24567 0 1
8.36213 0 1
8.47864 0 1
8.59519 0 1
8.71178 0 1
8.82841 0 1
8.94508 0 1
9.06179 0 1
9.17853 0 1
9.29531 0 1
9.41212 0 1
9.52897 0 1
9.64584 0 1
9.76276 0 1
9.8797 0 1
9.99667 0 1
10.1137 0 1
10.2307 0 1
10.3478 0 1
10.4648 0 1
10.5819 0 1
10.6991 0 1
10.8162 0 1
10.9334 0 1
11.0506 0 1
11.1678 0 1
11.285 0 1
11.4023 0 1
11.5196 0 1
11.6369 0 1
11.7542 0 1
11.8715 0 1
11.9888 0 1
12.1062 0 1
12.2235 0 1
12.3409 0 1
12.4582 0 1
12.5756 0 1
12.693 0 1
12.8104 0 1
12.9278 0 1
13.0452 0 1
13.1626 0 1
13.28 0 1
13.3974 0 1
13.5149 0 1
13.6323 0 1
13.7497 0 1
13.8671 0 1
13.9845 0 1
14.1019 0 1
14.2193 0 1
14.3367 0 1
14.4541 0 1
14.5714 0 1
14.6888 0 1
14.8062 0 1
14.9235 0 1
15.0408 8911 94.3981
15.1581 9261 96.2341
15.2755 9578 97.8673
15.3927 9604 98
15.51 9367 96.7833
15.6273 9453 97.2265
15.7445 9638 98.1733
15.8617 9485 97.391
15.9789 9724 98.6103
16.0961 9936 99.6795
16.2132 9764 98.813
16.3304 10054 100.27
16.4475 10461 102.279
16.5646 10944 104.614
16.6816 11190 105.783
16.7986 11534 107.396
16.9156 11742 108.361
17.0326 12049 109.768
17.1496 12026 109.663
17.2665 12647 112.459
17.3833 12645 112.45
17.5002 12752 112.925
17.617 12740 112.872
17.7338 13070 114.324
17.8505 12903 113.591
17.9672 12782 113.058
18.0839 12086 109.936
18.2005 11750 108.397
18.3171 11904 109.105
18.4337 12293 110.874
18.5502 12902 113.587
18.6666 13246 115.091
18.7831 13316 115.395
18.8994 13291 115.287
19.0158 12787 113.08
19.1321 12801 113.142
19.2483 12554 112.045
19.3645 12269 110.766
19.4806 12126 110.118
19.5967 11853 108.871
19.7128 11885 109.018
19.8288 11317 106.381
19.9447 10143 100.712
20.0606 0 1
20.1764 0 1
20.2922 0 1
20.4079 0 1
20.5236 0 1
20.6392 0 1
20.7548 0 1
20.8702 0 1
23.3078 0 1
23.4233 0 1
23.539 0 1
23.6547 0 1
23.7704 0 1
23.8862 0 1
24.0021 0 1
24.118 0 1
24.234 0 1
24.35 0 1
24.4661 11808 108.665
24.5822 11919 109.174
24.6984 11972 109.417
24.8146 11614 107.768
24.9309 11511 107.289
25.0472 11679 108.069
25.1636 11421 106.869
25.28 11964 109.38
25.3965 12107 110.032
25.513 12737 112.858
25.6296 13150 114.673
25.7462 13461 116.022
25.8628 13601 116.623
25.9795 13863 117.741
26.0962 14015 118.385
26.213 14104 118.76
26.3298 14078 118.651
26.4466 13772 117.354
26.5635 13596 116.602
26.6804 13004 114.035
26.7973 12178 110.354
26.9143 12099 109.995
27.0313 12588 112.196
27.1483 13385 115.694
27.2653 13402 115.767
27.3824 13629 116.743
27.4996 13610 116.662
27.6167 13192 114.856
27.7339 13054 114.254
27.8511 12798 113.128
27.9683 12436 111.517
28.0855 12318 110.986
28.2028 11961 109.366
28.3201 11786 108.563
28.4374 11988 109.49
28.5547 11729 108.301
28.6721 11614 107.768
28.7894 11687 108.106
28.9068 11620 107.796
29.0242 11971 109.412
29.1416 12346 111.113
29.259 12546 112.009
29.3764 12836 113.296
29.4939 13201 114.896
29.6113 13199 114.887
29.7288 13333 115.469
29.8463 13626 116.73
29.9638 13341 115.503
30.0812 13078 114.359
30.1987 12649 112.468
30.3162 11740 108.351
30.4337 11195 105.806
30.5512 11581 107.615
30.6687 12137 110.168
30.7862 12979 113.925
30.9037 12936 113.737
31.0212 12881 113.494
31.1387 13026 114.132
31.2562 12755 112.938
31.3737 12625 112.361
31.4912 12332 111.05
31.6087 11845 108.835
31.7262 12082 109.918
31.8436 11789 108.577
31.9611 11568 107.555
32.0785 11423 106.878
32.1959 11317 106.381
32.3134 11035 105.048
32.4308 11668 108.019
32.5482 11652 107.944
32.6655 11848 108.849
32.7829 11961 109.366
32.9002 12441 111.539
33.0176 12848 113.349
33.1349 13203 114.904
33.2522 13193 114.861
33.3694 13037 114.18
33.4867 12951 113.802
33.6039 13140 114.63
33.7211 12929 113.706
33.8383 12295 110.883
33.9554 11889 109.037
34.0725 11030 105.024
34.1896 10891 104.36
34.3067 11284 106.226
34.4237 11613 107.764
34.5407 12087 109.941
34.6577 12446 111.562
34.7746 12312 110.959
34.8915 12252 110.689
35.0084 12182 110.372
35.1252 11984 109.471
35.242 11849 108.853
35.3587 11510 107.285
35.4755 11377 106.663
35.5921 11278 106.198
35.7088 11114 105.423
35.8254 10980 104.785
35.9419 10898 104.393
36.0584 10740 103.634
36.1749 10693 103.407
36.2913 11112 105.413
36.4077 11286 106.236
36.524 11578 107.601
36.6403 11865 108.927
36.7565 12206 110.481
36.8727 12497 111.79
36.9889 12442 111.544
37.1049 12283 110.829
37.221 0 1
37.3369 0 1
37.4529 0 1
37.5687 0 1
37.6845 0 1
37.8003 0 1
37.916 0 1
38.0316 0 1
38.1472 0 1
40.5851 0 1
40.7008 0 1
40.8164 0 1
40.9322 0 1
41.048 0 1
41.1639 0 1
41.2798 0 1
41.3958 0 1
41.5118 0 1
41.6279 0 1
41.744 8853 94.0904
41.8602 9626 98.1122
41.9765 10091 100.454
42.0928 10304 101.509
42.2091 10512 102.528
42.3255 10544 102.684
42.4419 10505 102.494
42.5584 10216 101.074
42.675 9999 99.995
42.7915 9365 96.7729
42.9081 8666 93.0914
43.0248 8384 91.5642
43.1415 8977 94.747
43.2582 9003 94.8841
43.375 9452 97.2214
43.4918 9562 97.7855
43.6087 9659 98.2802
43.7256 9748 98.732
43.8425 9327 96.5764
43.9595 9240 96.1249
44.0765 9210 95.9687
44.1935 9061 95.1893
44.3106 8665 93.086
44.4277 8400 91.6515
44.5448 8178 90.4323
44.6619 7805 88.3459
44.7791 7493 86.5621
44.8963 7381 85.9127
45.0136 7311 85.5044
45.1308 7333 85.6329
45.2481 7445 86.2844
45.3654 7489 86.539
45.4827 7788 88.2496
45.6001 7950 89.1628
45.7174 7851 88.6059
45.8348 8107 90.0389
45.9522 8224 90.6863
46.0697 7780 88.2043
46.1871 7806 88.3516
46.3046 7296 85.4166
46.422 6823 82.6015
46.5395 6445 80.2808
46.657 6373 79.8311
46.7745 6500 80.6226
46.892 6707 81.8963
47.0096 7012 83.7377
47.1271 7104 84.2852
47.2446 7406 86.0581
47.3622 7214 84.9353
47.4797 7015 83.7556
47.5973 6937 83.2887
47.7149 6814 82.547
47.8324 6626 81.4002
47.95 6520 80.7465
48.0675 6305 79.404
48.1851 6156 78.4602
48.3027 5942 77.0844
48.4202 5684 75.3923
48.5378 5760 75.8947
48.6554 5969 77.2593
48.7729 6052 77.7946
48.8904 6180 78.613
49.008 6459 80.3679
49.1255 6487 80.5419
49.243 6839 82.6982
49.3605 6832 82.6559
49.478 7030 83.8451
49.5955 6984 83.5703
49.713 6723 81.9939
49.8304 6531 80.8146
49.9479 6165 78.5175
50.0653 5769 75.9539
50.1827 5831 76.361
50.3001 6096 78.0769
50.4175 6425 80.1561
50.5348 6770 82.28
50.6521 7016 83.7616
50.7694 7449 86.3076
50.8867 7329 85.6096
51.004 7581 87.0689
51.1212 7744 88
51.2384 7560 86.9483
51.3556 7927 89.0337
51.4727 7791 88.2666
51.5899 7747 88.017
51.707 7734 87.9432
51.824 7623 87.3098
51.9411 7412 86.093
52.0581 7460 86.3713
52.175 7620 87.2926
52.2919 7884 88.7919
52.4088 8216 90.6422
52.5257 8762 93.6056
52.6425 8891 94.2921
52.7593 9444 97.1802
52.876 9363 96.7626
52.9927 9574 97.8468
53.1094 9608 98.0204
53.226 9620 98.0816
53.3426 9693 98.453
53.4591 9303 96.4521
53.5756 8686 93.1987
53.692 8126 90.1443
53.8084 8003 89.4595
53.9248 8437 91.8531
54.0411 9077 95.2733
54.1573 9489 97.4115
54.2735 0 1
54.3896 0 1
54.5057 0 1
54.6217 0 1
54.7377 0 1
54.8537 0 1
54.9695 0 1
55.0853 0 1
55.2011 0 1
55.3168 0 1
55.4324 0 1
57.824 0 1
57.9396 0 1
58.0553 0 1
58.1711 0 1
58.2869 0 1
58.4028 0 1
58.5187 0 1
58.6347 0 1
58.7508 0 1
58.8669 0 1
58.983 9636 98.1631
59.0992 10200 100.995
59.2155 10947 104.628
59.3318 11579 107.606
59.4482 12122 110.1
59.5646 12140 110.182
59.681 12235 110.612
59.7975 12342 111.095
59.9141 11888 109.032
60.0306 12091 109.959
60.1473 11889 109.037
60.2639 11654 107.954
60.3807 11573 107.578
60.4974 11081 105.266
60.6142 10257 101.277
60.731 10296 101.469
60.8479 10141 100.703
60.9648 10308 101.528
61.0818 10624 103.073
61.1987 10894 104.374
61.3158 11537 107.41
61.4328 11685 108.097
61.5499 11877 108.982
61.667 11894 109.06
61.7841 11754 108.416
61.9013 11488 107.182
62.0185 11101 105.361
62.1357 10442 102.186
62.253 9784 98.9141
62.3702 9415 97.0309
62.4875 9572 97.8366
62.6049 10192 100.955
62.7222 10618 103.044
62.8396 11190 105.783
62.9569 11526 107.359
63.0743 11751 108.402
63.1918 11793 108.596
63.3092 11812 108.683
63.4267 11294 106.273
63.5441 11334 106.461
63.6616 11207 105.863
63.7791 10969 104.733
63.8966 10951 104.647
64.0142 10289 101.435
64.1317 9857 99.2824
64.2492 9539 97.6678
64.3668 9371 96.8039
64.4843 9652 98.2446
64.6019 9994 99.97
64.7195 9962 99.8098
64.837 10541 102.669
64.9546 11086 105.29
65.0722 11227 105.958
65.1898 11172 105.698
65.3074 11572 107.573
65.4249 11085 105.285
65.5425 10848 104.154
65.6601 10279 101.385
65.7777 9515 97.5449
65.8952 8734 93.4559
66.0128 8876 94.2125
66.1304 9449 97.206
66.2479 9864 99.3177
66.3655 10238 101.183
66.483 10975 104.762
66.6005 10991 104.838
66.718 11521 107.336
66.8355 11464 107.07
66.953 11342 106.499
67.0705 11450 107.005
67.1879 11097 105.342
67.3054 10871 104.264
67.4228 10811 103.976
67.5402 10466 102.303
67.6576 10128 100.638
67.7749 9731 98.6458
67.8923 9307 96.4728
68.0096 9109 95.4411
68.1269 9188 95.8541
68.2442 9633 98.1478
68.3614 10130 100.648
68.4787 10526 102.596
68.5958 11081 105.266
68.713 11257 106.099
68.8302 11378 106.668
68.9473 11352 106.546
69.0643 11656 107.963
69.1814 11211 105.882
69.2984 10953 104.657
69.4154 10006 100.03
69.5323 9420 97.0567
69.6492 9219 96.0156
69.7661 9515 97.5449
69.8829 10213 101.059
69.9997 10945 104.618
70.1165 11112 105.413
70.2332 11805 108.651
70.3499 11972 109.417
70.4665 12147 110.213
70.5831 12098 109.991
70.6996 11994 109.517
70.8161 12017 109.622
70.9326 11821 108.724
71.049 11404 106.79
71.1653 11268 106.151
71.2817 10952 104.652
71.3979 10514 102.538
71.5141 9571 97.8315
71.6303 9148 95.6452
71.7464 8398 91.6406
71.8624 0 1
71.9784 0 1
72.0944 0 1
72.2102 0 1
72.3261 0 1
72.4418 0 1
72.5575 0 1
72.6732 0 1
75.1054 0 1
75.2209 0 1
75.3365 0 1
75.4521 0 1
75.5678 0 1
75.6835 0 1
75.7993 0 1
75.9151 0 1
76.031 0 1
76.147 10672 103.305
76.263 11141 105.551
76.3791 11159 105.636
76.4952 10795 103.899
76.6113 10607 102.99
76.7276 9975 99.8749
76.8438 9510 97.5192
76.9601 9615 98.0561
77.0765 9944 99.7196
77.1929 10296 101.469
77.3093 11044 105.09
77.4258 11727 108.291
77.5423 12210 110.499
77.6589 12289 110.856
77.7755 12067 109.85
77.8921 12106 110.027
78.0088 11719 108.254
78.1256 10764 103.75
78.2423 9969 99.8449
78.3591 9149 95.6504
78.4759 8690 93.2202
78.5928 9049 95.1262
78.7097 9792 98.9545
78.8266 10277 101.376
78.9436 11595 107.68
79.0606 11474 107.117
79.1776 12003 109.558
79.2946 11881 109
79.4117 12044 109.745
79.5288 11904 109.105
79.6459 11923 109.192
79.7631 11534 107.396
79.8802 11577 107.596
79.9974 11357 106.569
80.1147 11034 105.043
80.2319 10533 102.63
80.3491 9659 98.2802
80.4664 9349 96.6902
80.5837 9457 97.2471
80.701 9628 98.1224
80.8183 10344 101.705
80.9357 11035 105.048
81.053 11502 107.247
81.1704 11735 108.328
81.2877 11777 108.522
81.4051 11982 109.462
81.5225 11841 108.816
81.6399 11438 106.949
81.7573 10958 104.68
81.8747 10041 100.205
81.9922 9213 95.9844
82.1096 8951 94.6097
82.227 9167 95.7445
82.3444 9648 98.2242
82.4619 10543 102.679
82.5793 11455 107.028
82.6967 11126 105.48
82.8142 11624 107.815
82.9316 11892 109.05
83.049 12087 109.941
83.1664 12121 110.095
83.2838 11814 108.692
83.4012 11840 108.812
83.5186 11550 107.471
83.636 11255 106.09
83.7534 10956 104.671
83.8708 10465 102.299
83.9881 9928 99.6393
84.1055 9359 96.7419
84.2228 9540 97.6729
84.3401 9790 98.9444
84.4575 10335 101.661
84.5747 11134 105.518
84.692 11834 108.784
84.8093 12207 110.485
84.9265 12459 111.62
85.0437 12258 110.716
85.1609 12199 110.449
85.2781 11487 107.177
85.3952 10550 102.713
85.5123 10036 100.18
85.6294 9438 97.1494
85.7465 9255 96.2029
85.8636 9822 99.106
85.9806 10616 103.034
86.0976 11175 105.712
86.2145 11819 108.715
86.3315 12265 110.747
86.4484 12402 111.364
86.5652 12621 112.343
86.682 12859 113.398
86.7988 12951 113.802
86.9156 12863 113.415
87.0323 12665 112.539
87.149 12330 111.041
87.2657 12294 110.878
87.3823 11843 108.826
87.4988 11041 105.076
87.6154 10283 101.405
87.7318 10154 100.767
87.8483 10362 101.794
87.9647 10986 104.814
88.081 11825 108.743
88.1973 12804 113.155
88.3136 13092 114.42
88.4298 13007 114.048
88.546 12939 113.75
88.6621 13068 114.315
88.7781 12440 111.535
88.8942 0 1
89.0101 0 1
89.126 0 1
89.2419 0 1
89.3577 0 1
89.4734 0 1
89.5891 0 1
89.7047 0 1
89.8203 0 1
89.9358 0 1
92.3269 0 1
92.4424 0 1
92.558 0 1
92.6736 0 1
92.7893 0 1
92.905 0 1
93.0208 0 1
93.1366 0 1
93.2525 0 1
93.3685 0 1
93.4845 0 1
93.6005 12361 111.18
93.7167 12546 112.009
93.8328 12431 111.494
93.949 12276 110.797
94.0653 11499 107.233
94.1816 10933 104.561
94.2979 10508 102.509
94.4143 10081 100.404
94.5307 9749 98.737
94.6472 9956 99.7798
94.7637 10897 104.389
94.8803 11363 106.597
94.9969 11839 108.807
95.1135 12159 110.268
95.2302 12444 111.553
95.3469 12677 112.592
95.4637 12767 112.991
95.5805 13030 114.149
95.6973 13085 114.39
95.8142 13190 114.848
95.9311 13119 114.538
96.048 12729 112.823
96.1649 12341 111.09
96.2819 11900 109.087
96.3989 11435 106.935
96.516 10765 103.755
96.633 10161 100.802
96.7501 10206 101.025
96.8673 10746 103.663
96.9844 11144 105.565
97.1016 12073 109.877
97.2188 12590 112.205
97.336 12862 113.411
97.4532 12766 112.987
97.5704 12978 113.921
97.6877 12547 112.013
97.805 11842 108.821
97.9223 10980 104.785
98.0396 10275 101.366
98.1569 9969 99.8449
98.2743 9747 98.7269
98.3916 10167 100.832
98.509 10830 104.067
98.6264 11383 106.691
98.7438 12106 110.027
98.8612 12046 109.754
98.9786 12524 111.911
99.096 12464 111.642
99.2134 12723 112.796
99.3308 12664 112.534
99.4482 12839 113.309
99.5656 12688 112.641
99.6831 12359 111.171
99.8005 12207 110.485
99.9179 12026 109.663
100.035 11064 105.186
100.153 10542 102.674
100.27 9965 99.8248
100.388 10163 100.812
100.505 10796 103.904
100.622 11600 107.703
100.74 12138 110.173
100.857 12554 112.045
100.975 12692 112.659
101.092 12526 111.92
101.209 12594 112.223
101.327 12353 111.144
101.444 11693 108.134
101.561 10691 103.397
101.679 10178 100.886
101.796 9931 99.6544
101.913 9980 99.8999
102.03 10560 102.762
102.148 11276 106.189
102.265 11203 105.844
102.382 13268 115.187
102.499 12750 112.916
102.616 13053 114.25
102.733 13154 114.691
102.851 13364 115.603
102.968 13761 117.307
103.085 13606 116.645
103.202 13182 114.813
103.319 13142 114.639
103.436 12839 113.309
103.552 12325 111.018
103.669 11476 107.126
103.786 10872 104.269
103.903 10925 104.523
104.02 11674 108.046
104.137 12466 111.651
104.253 13253 115.122
104.37 13710 117.09
104.487 13705 117.068
104.603 13827 117.588
104.72 13517 116.263
104.836 12941 113.759
104.953 12195 110.431
105.069 11310 106.348
105.186 10891 104.36
105.302 10742 103.644
105.418 10943 104.609
105.535 11918 109.17
105.651 12394 111.328
105.767 12952 113.807
105.883 13224 114.996
105.999 13456 116
106.115 0 1
106.231 0 1
106.347 0 1
106.463 0 1
106.579 0 1
106.694 0 1
106.81 0 1
106.926 0 1
107.041 0 1
107.157 0 1
109.576 0 1
109.692 0 1
109.807 0 1
109.923 0 1
110.039 0 1
110.155 0 1
110.27 0 1
110.386 0 1
110.502 0 1
110.618 10295 101.464
110.735 11127 105.485
110.851 11451 107.009
110.967 11647 107.921
111.083 11947 109.302
111.199 12008 109.581
111.316 11949 109.311
111.432 12073 109.877
111.549 12289 110.856
111.665 11826 108.747
111.782 11335 106.466
111.898 11219 105.92
112.015 10445 102.201
112.132 9830 99.1464
112.248 9273 96.2964
112.365 9224 96.0417
112.482 9936 99.6795
112.599 10438 102.167
112.716 11224 105.943
112.832 11204 105.849
112.949 11076 105.243
113.066 11209 105.873
113.183 10792 103.885
113.3 10169 100.841
113.417 9574 97.8468
113.534 8860 94.1276
113.652 8707 93.3113
113.769 8308 91.1482
113.886 8219 90.6587
114.003 8360 91.433
114.12 9049 95.1262
114.238 9277 96.3172
114.355 9543 97.6883
114.472 9917 99.5841
114.589 9646 98.2141
114.707 10065 100.324
114.824 9919 99.5942
114.942 9707 98.5241
115.059 9742 98.7016
115.176 9539 97.6678
115.294 9212 95.9792
115.411 8858 94.1169
115.529 8550 92.4662
115.646 7822 88.4421
115.764 7145 84.5281
115.881 7155 84.5872
115.999 7619 87.2869
116.116 7976 89.3085
116.234 8408 91.6951
116.351 8479 92.0815
116.469 8525 92.3309
116.586 8258 90.8735
116.704 8176 90.4212
116.821 8067 89.8165
116.939 7536 86.8101
117.056 7040 83.9047
117.174 6824 82.6075
117.291 6492 80.5729
117.409 6470 80.4363
117.526 6551 80.9382
117.644 6829 82.6378
117.761 7052 83.9762
117.879 7630 87.3499
117.996 7480 86.487
118.114 7759 88.0852
118.231 7991 89.3924
118.349 7966 89.2525
118.466 8137 90.2053
118.584 8163 90.3493
118.701 8102 90.0111
118.819 7974 89.2973
118.936 7929 89.0449
119.053 7827 88.4703
119.171 7504 86.6256
119.288 7025 83.8153
119.405 6649 81.5414
119.523 6881 82.9518
119.64 7117 84.3623
119.757 7732 87.9318
119.875 8341 91.3291
119.992 8369 91.4822
120.109 8346 91.3564
120.226 8432 91.8259
120.343 8433 91.8314
120.46 8283 91.011
120.578 7846 88.5776
120.695 7692 87.704
120.812 7449 86.3076
120.929 7140 84.4985
121.046 7105 84.2912
121.163 7000 83.666
121.279 7634 87.3728
121.396 7904 88.9044
121.513 8289 91.0439
121.63 8621 92.8493
121.747 8810 93.8616
121.863 8945 94.578
121.98 9285 96.3587
122.097 9433 97.1236
122.213 9430 97.1082
122.33 9737 98.6762
122.446 9552 97.7343
122.563 9470 97.3139
122.679 9260 96.2289
122.795 9255 96.2029
122.912 8829 93.9628
123.028 8469 92.0272
123.144 8003 89.4595
123.26 8029 89.6047
123.377 0 1
123.493 0 1
123.609 0 1
123.725 0 1
123.84 0 1
123.956 0 1
124.072 0 1
124.188 0 1
124.303 0 1
124.419 0 1
126.852 0 1
126.968 0 1
127.083 0 1
127.199 0 1
127.315 0 1
127.431 0 1
127.547 0 1
127.663 0 1
127.779 0 1
127.895 0 1
128.011 0 1
128.127 0 1
128.243 0 1
128.359 9865 99.3227
128.476 9458 97.2522
128.592 9806 99.0252
128.708 10317 101.573
128.825 11091 105.314
128.941 11344 106.508
129.058 11419 106.86
129.174 11388 106.715
129.291 11333 106.457
129.408 11185 105.759
129.524 10755 103.706
129.641 10178 100.886
129.758 9591 97.9337
129.875 9419 97.0515
129.992 8821 93.9202
130.108 8901 94.3451
130.225 9000 94.8683
130.342 9462 97.2728
130.459 9805 99.0202
130.576 9613 98.0459
130.693 9884 99.4183
130.81 10255 101.267
130.928 10089 100.444
131.045 10212 101.054
131.162 10401 101.985
131.279 10449 102.22
131.396 10356 101.764
131.513 10163 100.812
131.631 9791 98.9495
131.748 9476 97.3447
131.865 9012 94.9316
131.983 8584 92.6499
132.1 8486 92.1195
132.217 9218 96.0104
132.335 9571 97.8315
132.452 9794 98.9646
132.57 9966 99.8299
132.687 9546 97.7036
132.804 9921 99.6042
132.922 9493 97.432
133.039 9188 95.8541
133.157 8757 93.5788
133.274 8126 90.1443
133.392 8155 90.305
133.509 7693 87.7097
133.627 7492 86.5563
133.744 7601 87.1837
133.862 7899 88.8763
133.979 8028 89.5991
134.097 8015 89.5265
134.214 8275 90.967
134.332 8038 89.6549
134.449 8233 90.7359
134.567 8271 90.945
134.684 8203 90.5704
134.802 8297 91.0879
134.919 8146 90.2552
135.037 8160 90.3327
135.154 7767 88.1306
135.272 7475 86.4581
135.389 7171 84.6818
135.507 6656 81.5843
135.624 6608 81.2896
135.742 6946 83.3427
135.859 7308 85.4868
135.977 7457 86.3539
136.094 7550 86.8907
136.211 7428 86.1858
136.329 7286 85.3581
136.446 7155 84.5872
136.564 7041 83.9107
136.681 6664 81.6333
136.798 6630 81.4248
136.915 6168 78.5366
137.033 6039 77.711
137.15 5860 76.5506
137.267 5874 76.642
137.384 5910 76.8765
137.502 6161 78.492
137.619 6300 79.3725
137.736 6296 79.3473
137.853 6668 81.6578
137.97 6757 82.201
138.087 6769 82.2739
138.204 6900 83.0662
138.321 6947 83.3487
138.438 7343 85.6913
138.555 7332 85.6271
138.672 7413 86.0988
138.788 7276 85.2995
138.905 7088 84.1903
139.022 6871 82.8915
139.139 6819 82.5772
139.255 6874 82.9096
139.372 7257 85.188
139.488 7711 87.8123
139.605 8069 89.8276
139.721 8294 91.0714
139.838 8367 91.4713
139.954 8617 92.8278
140.071 8275 90.967
140.187 8142 90.233
140.303 8075 89.861
140.419 7688 87.6812
140.535 7535 86.8044
140.652 7297 85.4225
140.768 0 1
140.884 0 1
141 0 1
141.115 0 1
141.231 0 1
141.347 0 1
141.463 0 1
141.578 0 1
141.694 0 1
144.104 0 1
144.219 0 1
144.335 0 1
144.45 0 1
144.566 0 1
144.682 0 1
144.798 0 1
144.914 0 1
145.03 0 1
145.146 7032 83.857
145.262 7123 84.3979
145.378 6750 82.1584
145.494 6566 81.0309
145.61 6502 80.635
145.726 6124 78.256
145.842 5883 76.7007
145.959 5772 75.9737
146.075 5853 76.5049
146.192 5900 76.8115
146.308 5914 76.9025
146.425 6026 77.6273
146.541 6085 78.0064
146.658 6148 78.4092
146.774 6092 78.0513
146.891 6107 78.1473
147.008 6080 77.9744
147.125 6115 78.1985
147.241 6005 77.4919
147.358 6107 78.1473
147.475 5936 77.0454
147.592 5600 74.8331
147.709 5392 73.4302
147.826 5215 72.215
147.943 5242 72.4017
148.06 5312 72.8835
148.177 5575 74.6659
148.294 5747 75.809
148.411 5731 75.7034
148.528 5672 75.3127
148.645 5571 74.6391
148.762 5417 73.6003
148.88 5516 74.2698
148.997 5347 73.1232
149.114 4712 68.644
149.231 4798 69.2676
149.349 4589 67.7422
149.466 4636 68.0882
149.583 4546 67.424
149.701 4565 67.5648
149.818 4567 67.5796
149.935 4667 68.3154
150.053 4739 68.8404
150.17 4810 69.3542
150.287 4818 69.4118
150.405 4906 70.0428
150.522 4949 70.3491
150.64 5048 71.0493
150.757 5152 71.7774
150.875 5168 71.8888
150.992 5145 71.7287
151.11 5177 71.9514
151.227 4979 70.562
151.344 4721 68.7095
151.462 4706 68.6003
151.579 4797 69.2604
151.697 5072 71.218
151.814 5471 73.9662
151.932 5582 74.7128
152.049 5415 73.5867
152.167 5546 74.4715
152.284 5548 74.4849
152.402 5691 75.4387
152.519 5485 74.0608
152.636 5238 72.374
152.754 5153 71.7844
152.871 5022 70.8661
152.989 4961 70.4344
153.106 4939 70.278
153.223 4857 69.6922
153.341 5045 71.0282
153.458 5152 71.7774
153.575 5193 72.0625
153.693 5398 73.4711
153.81 5384 73.3757
153.927 5558 74.552
154.044 5692 75.4453
154.162 5813 76.243
154.279 5849 76.4788
154.396 6070 77.9102
154.513 6210 78.8036
154.63 6235 78.962
154.747 6171 78.5557
154.864 6117 78.2113
154.981 5859 76.5441
155.098 5960 77.201
155.215 6016 77.5629
155.332 6343 79.643
155.449 6605 81.2712
155.566 6760 82.2192
155.683 6518 80.7341
155.8 6839 82.6982
155.917 6678 81.719
156.033 6759 82.2131
156.15 0 1
156.267 0 1
156.383 0 1
156.5 0 1
156.617 0 1
156.733 0 1
156.85 0 1
156.966 0 1
157.082 0 1
157.199 0 1
157.315 0 1
157.431 0 1
157.547 0 1
157.664 0 1
157.78 0 1
157.896 0 1
158.012 0 1
158.128 0 1
158.244 0 1
158.359 0 1
158.475 0 1
158.591 0 1
158.706 0 1
