
6.15755 0 1
6.2731 0 1
6.3887 0 1
6.50437 0 1
6.62009 0 1
6.73587 0 1
6.8517 0 1
6.96759 0 1
7.08353 0 1
7.19952 0 1
7.31557 0 1
7.43166 0 1
7.54781 0 1
7.664 0 1
7.78024 0 1
7.89653 0 1
8.01286 0 1
8.12924 0 1
8.24567 0 1
8.36213 0 1
8.47864 0 1
8.59519 0 1
8.71178 0 1
8.82841 0 1
8.94508 0 1
9.06179 0 1
9.17853 0 1
9.29531 0 1
9.41212 0 1
9.52897 0 1
9.64584 0 1
9.76276 0 1
9.8797 0 1
9.99667 0 1
10.1137 0 1
10.2307 0 1
10.3478 0 1
10.4648 0 1
10.5819 0 1
10.6991 0 1
10.8162 0 1
10.9334 0 1
11.0506 0 1
11.1678 0 1
11.285 0 1
11.4023 0 1
11.5196 0 1
11.6369 0 1
11.7542 0 1
11.8715 0 1
11.9888 0 1
12.1062 0 1
12.2235 0 1
12.3409 0 1
12.4582 0 1
12.5756 0 1
12.693 0 1
12.8104 0 1
12.9278 0 1
13.0452 0 1
13.1626 0 1
13.28 0 1
13.3974 0 1
13.5149 0 1
13.6323 0 1
13.7497 0 1
13.8671 0 1
13.9845 0 1
14.1019 0 1
14.2193 0 1
14.3367 0 1
14.4541 0 1
14.5714 0 1
14.6888 0 1
14.8062 0 1
14.9235 0 1
15.0408 0 0
15.1581 0 0
15.2755 0 0
15.3927 0 0
15.51 0 0
15.6273 0 0
15.7445 0 0
15.8617 0 0
15.9789 0 0
16.0961 0 0
16.2132 0 0
16.3304 0 0
16.4475 0 0
16.5646 0 0
16.6816 0 0
16.7986 0 0
16.9156 0 0
17.0326 0 0
17.1496 0 0
17.2665 0 0
17.3833 0 0
17.5002 0 0
17.617 0 0
17.7338 0 0
17.8505 0 0
17.9672 0 0
18.0839 0 0
18.2005 0 0
18.3171 0 0
18.4337 0 0
18.5502 0 0
18.6666 0 0
18.7831 0 0
18.8994 0 0
19.0158 0 0
19.1321 0 0
19.2483 0 0
19.3645 0 0
19.4806 0 0
19.5967 0 0
19.7128 0 0
19.8288 0 0
19.9447 0 0
20.0606 0 1
20.1764 0 1
20.2922 0 1
20.4079 0 1
20.5236 0 1
20.6392 0 1
20.7548 0 1
20.8702 0 1
23.3078 0 1
23.4233 0 1
23.539 0 1
23.6547 0 1
23.7704 0 1
23.8862 0 1
24.0021 0 1
24.118 0 1
24.234 0 1
24.35 0 1
24.4661 1790 42.3084
24.5822 1776 42.1426
24.6984 1813 42.5793
24.8146 1786 42.2611
24.9309 1816 42.6146
25.0472 1883 43.3935
25.1636 1773 42.107
25.28 1931 43.9431
25.3965 1939 44.0341
25.513 1848 42.9884
25.6296 1925 43.8748
25.7462 1909 43.6921
25.8628 1941 44.0568
25.9795 1937 44.0114
26.0962 1924 43.8634
26.213 1953 44.1928
26.3298 1865 43.1856
26.4466 1909 43.6921
26.5635 1755 41.8927
26.6804 1585 39.8121
26.7973 1529 39.1024
26.9143 1592 39.8999
27.0313 1690 41.1096
27.1483 1775 42.1307
27.2653 1861 43.1393
27.3824 1859 43.1161
27.4996 1815 42.6028
27.6167 1947 44.1248
27.7339 1853 43.0465
27.8511 1853 43.0465
27.9683 1847 42.9767
28.0855 1855 43.0697
28.2028 1861 43.1393
28.3201 1834 42.8252
28.4374 1829 42.7668
28.5547 1800 42.4264
28.6721 1830 42.7785
28.7894 1894 43.5201
28.9068 1856 43.0813
29.0242 1905 43.6463
29.1416 1803 42.4617
29.259 1833 42.8135
29.3764 1921 43.8292
29.4939 1772 42.0951
29.6113 1883 43.3935
29.7288 1820 42.6615
29.8463 1807 42.5088
29.9638 1722 41.497
30.0812 1623 40.2865
30.1987 1501 38.7427
30.3162 1524 39.0384
30.4337 1509 38.8458
30.5512 1526 39.064
30.6687 1729 41.5812
30.7862 1773 42.107
30.9037 1915 43.7607
31.0212 1872 43.2666
31.1387 1845 42.9535
31.2562 1855 43.0697
31.3737 1886 43.4281
31.4912 1873 43.2782
31.6087 1823 42.6966
31.7262 1792 42.332
31.8436 1836 42.8486
31.9611 1812 42.5676
32.0785 1879 43.3474
32.1959 1857 43.0929
32.3134 1888 43.4511
32.4308 1909 43.6921
32.5482 1932 43.9545
32.6655 1876 43.3128
32.7829 1854 43.0581
32.9002 1853 43.0465
33.0176 1870 43.2435
33.1349 1873 43.2782
33.2522 1870 43.2435
33.3694 1937 44.0114
33.4867 1842 42.9185
33.6039 1814 42.5911
33.7211 1688 41.0853
33.8383 1590 39.8748
33.9554 1551 39.3827
34.0725 1466 38.2884
34.1896 1556 39.4462
34.3067 1753 41.8688
34.4237 1796 42.3792
34.5407 1896 43.5431
34.6577 1905 43.6463
34.7746 1878 43.3359
34.8915 1939 44.0341
35.0084 1832 42.8019
35.1252 1886 43.4281
35.242 1993 44.643
35.3587 1912 43.7264
35.4755 1825 42.72
35.5921 1802 42.45
35.7088 1822 42.6849
35.8254 1793 42.3438
35.9419 1877 43.3244
36.0584 1840 42.8952
36.1749 1873 43.2782
36.2913 1898 43.566
36.4077 1880 43.359
36.524 1831 42.7902
36.6403 1896 43.5431
36.7565 1832 42.8019
36.8727 1869 43.2319
36.9889 1870 43.2435
37.1049 1868 43.2204
37.221 0 1
37.3369 0 1
37.4529 0 1
37.5687 0 1
37.6845 0 1
37.8003 0 1
37.916 0 1
38.0316 0 1
38.1472 0 1
40.5851 0 1
40.7008 0 1
40.8164 0 1
40.9322 0 1
41.048 0 1
41.1639 0 1
41.2798 0 1
41.3958 0 1
41.5118 0 1
41.6279 0 1
41.744 1553 39.4081
41.8602 1671 40.8779
41.9765 1601 40.0125
42.0928 1753 41.8688
42.2091 1675 40.9268
42.3255 1641 40.5093
42.4419 1484 38.5227
42.5584 1455 38.1445
42.675 1309 36.1801
42.7915 1309 36.1801
42.9081 1399 37.4032
43.0248 1433 37.855
43.1415 1566 39.5727
43.2582 1683 41.0244
43.375 1595 39.9375
43.4918 1684 41.0366
43.6087 1717 41.4367
43.7256 1681 41
43.8425 1629 40.3609
43.9595 1621 40.2616
44.0765 1526 39.064
44.1935 1551 39.3827
44.3106 1564 39.5474
44.4277 1423 37.7227
44.5448 1405 37.4833
44.6619 1461 38.223
44.7791 1409 37.5366
44.8963 1429 37.8021
45.0136 1520 38.9872
45.1308 1471 38.3536
45.2481 1441 37.9605
45.3654 1462 38.2361
45.4827 1528 39.0896
45.6001 1481 38.4838
45.7174 1510 38.8587
45.8348 1519 38.9744
45.9522 1400 37.4166
46.0697 1285 35.8469
46.1871 1221 34.9428
46.3046 1055 32.4808
46.422 1088 32.9848
46.5395 1180 34.3511
46.657 1234 35.1283
46.7745 1339 36.5923
46.892 1379 37.1349
47.0096 1368 36.9865
47.1271 1382 37.1753
47.2446 1383 37.1887
47.3622 1322 36.3593
47.4797 1379 37.1349
47.5973 1381 37.1618
47.7149 1267 35.5949
47.8324 1244 35.2704
47.95 1208 34.7563
48.0675 1154 33.9706
48.1851 1194 34.5543
48.3027 1195 34.5688
48.4202 1210 34.7851
48.5378 1254 35.4119
48.6554 1258 35.4683
48.7729 1283 35.819
48.8904 1259 35.4824
49.008 1327 36.428
49.1255 1330 36.4692
49.243 1338 36.5787
49.3605 1371 37.027
49.478 1288 35.8887
49.5955 1254 35.4119
49.713 1125 33.541
49.8304 1008 31.749
49.9479 998 31.5911
50.0653 1162 34.0881
50.1827 1323 36.3731
50.3001 1461 38.223
50.4175 1590 39.8748
50.5348 1564 39.5474
50.6521 1673 40.9023
50.7694 1680 40.9878
50.8867 1679 40.9756
51.004 1728 41.5692
51.1212 1746 41.7852
51.2384 1734 41.6413
51.3556 1707 41.3159
51.4727 1687 41.0731
51.5899 1723 41.509
51.707 1765 42.0119
51.824 1854 43.0581
51.9411 1822 42.6849
52.0581 1855 43.0697
52.175 1985 44.5533
52.2919 2004 44.7661
52.4088 2140 46.2601
52.5257 2104 45.8694
52.6425 2133 46.1844
52.7593 2210 47.0106
52.876 2140 46.2601
52.9927 2161 46.4866
53.1094 2154 46.4112
53.226 1994 44.6542
53.3426 1762 41.9762
53.4591 1713 41.3884
53.5756 1727 41.5572
53.692 1914 43.7493
53.8084 2140 46.2601
53.9248 2322 48.1871
54.0411 2334 48.3115
54.1573 2423 49.224
54.2735 0 1
54.3896 0 1
54.5057 0 1
54.6217 0 1
54.7377 0 1
54.8537 0 1
54.9695 0 1
55.0853 0 1
55.2011 0 1
55.3168 0 1
55.4324 0 1
57.824 0 1
57.9396 0 1
58.0553 0 1
58.1711 0 1
58.2869 0 1
58.4028 0 1
58.5187 0 1
58.6347 0 1
58.7508 0 1
58.8669 0 1
58.983 2951 54.3231
59.0992 3274 57.2189
59.2155 3313 57.5587
59.3318 3238 56.9034
59.4482 3551 59.5903
59.5646 3382 58.155
59.681 3333 57.7321
59.7975 3366 58.0172
59.9141 3191 56.4889
60.0306 3169 56.2939
60.1473 3158 56.1961
60.2639 3127 55.9196
60.3807 3071 55.4166
60.4974 3123 55.8838
60.6142 3260 57.0964
60.731 3332 57.7235
60.8479 3345 57.836
60.9648 3454 58.7707
61.0818 3502 59.1777
61.1987 3439 58.643
61.3158 3478 58.9746
61.4328 3404 58.3438
61.5499 3410 58.3952
61.667 3282 57.2887
61.7841 3022 54.9727
61.9013 2827 53.1695
62.0185 2626 51.2445
62.1357 2715 52.1057
62.253 2785 52.7731
62.3702 3118 55.8391
62.4875 3439 58.643
62.6049 3512 59.2621
62.7222 3728 61.0574
62.8396 3742 61.1719
62.9569 3767 61.3759
63.0743 3653 60.4401
63.1918 3694 60.7783
63.3092 3649 60.407
63.4267 3478 58.9746
63.5441 3423 58.5064
63.6616 3258 57.0789
63.7791 3374 58.0861
63.8966 3320 57.6194
64.0142 3265 57.1402
64.1317 3420 58.4808
64.2492 3520 59.3296
64.3668 3557 59.6406
64.4843 3656 60.4649
64.6019 3776 61.4492
64.7195 3770 61.4003
64.837 3896 62.4179
64.9546 3795 61.6036
65.0722 3632 60.2661
65.1898 3662 60.5145
65.3074 3467 58.8812
65.4249 3137 56.0089
65.5425 2889 53.7494
65.6601 2895 53.8052
65.7777 2985 54.6352
65.8952 3181 56.4004
66.0128 3643 60.3573
66.1304 3821 61.8142
66.2479 3897 62.426
66.3655 4051 63.6475
66.483 4117 64.1639
66.6005 4003 63.2693
66.718 4128 64.2495
66.8355 4098 64.0156
66.953 4061 63.726
67.0705 3904 62.482
67.1879 3728 61.0574
67.3054 3575 59.7913
67.4228 3463 58.8473
67.5402 3532 59.4306
67.6576 3748 61.2209
67.7749 3694 60.7783
67.8923 3974 63.0397
68.0096 4168 64.56
68.1269 4160 64.4981
68.2442 4275 65.3835
68.3614 4347 65.9318
68.4787 4314 65.681
68.5958 4343 65.9014
68.713 4334 65.8331
68.8302 4260 65.2687
68.9473 4022 63.4192
69.0643 3781 61.4898
69.1814 3334 57.7408
69.2984 3231 56.8419
69.4154 3351 57.8878
69.5323 3675 60.6218
69.6492 4174 64.6065
69.7661 4389 66.2495
69.8829 4558 67.513
69.9997 4832 69.5126
70.1165 4820 69.4262
70.2332 4924 70.1712
70.3499 4817 69.4046
70.4665 4791 69.217
70.5831 4779 69.1303
70.6996 4596 67.7938
70.8161 4448 66.6933
70.9326 4316 65.6963
71.049 4125 64.2262
71.1653 4052 63.6553
71.2817 3999 63.2376
71.3979 4070 63.7966
71.5141 4097 64.0078
71.6303 4308 65.6354
71.7464 4223 64.9846
71.8624 0 1
71.9784 0 1
72.0944 0 1
72.2102 0 1
72.3261 0 1
72.4418 0 1
72.5575 0 1
72.6732 0 1
75.1054 0 1
75.2209 0 1
75.3365 0 1
75.4521 0 1
75.5678 0 1
75.6835 0 1
75.7993 0 1
75.9151 0 1
76.031 0 1
76.147 4107 64.0859
76.263 4351 65.9621
76.3791 4371 66.1135
76.4952 4278 65.4064
76.6113 4206 64.8537
76.7276 4355 65.9924
76.8438 4485 66.9701
76.9601 4752 68.9348
77.0765 4966 70.4699
77.1929 5085 71.3092
77.3093 5148 71.7496
77.4258 5213 72.2011
77.5423 5240 72.3878
77.6589 5199 72.1041
77.7755 5042 71.007
77.8921 4812 69.3686
78.0088 4519 67.2235
78.1256 4007 63.3009
78.2423 3700 60.8276
78.3591 3638 60.3158
78.4759 3646 60.3821
78.5928 4117 64.1639
78.7097 4617 67.9485
78.8266 5086 71.3162
78.9436 4848 69.6276
79.0606 5038 70.9789
79.1776 5160 71.8331
79.2946 5211 72.1873
79.4117 5117 71.5332
79.5288 5034 70.9507
79.6459 5158 71.8192
79.7631 4859 69.7065
79.8802 4665 68.3008
79.9974 4539 67.3721
80.1147 4342 65.8939
80.2319 4275 65.3835
80.3491 4233 65.0615
80.4664 4399 66.325
80.5837 4535 67.3424
80.701 4879 69.8498
80.8183 5005 70.746
80.9357 4932 70.2282
81.053 5129 71.617
81.1704 4964 70.4557
81.2877 5174 71.9305
81.4051 4947 70.3349
81.5225 4817 69.4046
81.6399 4488 66.9925
81.7573 4207 64.8614
81.8747 3735 61.1146
81.9922 3580 59.8331
82.1096 3655 60.4566
82.227 3903 62.474
82.3444 4273 65.3682
82.4619 4573 67.624
82.5793 4681 68.4178
82.6967 4860 69.7137
82.8142 4919 70.1356
82.9316 4919 70.1356
83.049 4861 69.7209
83.1664 4739 68.8404
83.2838 4638 68.1029
83.4012 4612 67.9117
83.5186 4414 66.4379
83.636 4152 64.436
83.7534 3878 62.2736
83.8708 3856 62.0967
83.9881 3793 61.5873
84.1055 4044 63.5925
84.2228 4111 64.1171
84.3401 4437 66.6108
84.4575 4638 68.1029
84.5747 4777 69.1158
84.692 4827 69.4766
84.8093 4813 69.3758
84.9265 4848 69.6276
85.0437 4692 68.4982
85.1609 4606 67.8675
85.2781 4237 65.0922
85.3952 3929 62.6817
85.5123 3648 60.3987
85.6294 3650 60.4152
85.7465 3892 62.3859
85.8636 4081 63.8827
85.9806 4398 66.3174
86.0976 4878 69.8427
86.2145 5125 71.5891
86.3315 5057 71.1126
86.4484 5425 73.6546
86.5652 5458 73.8783
86.682 5392 73.4302
86.7988 5209 72.1734
86.9156 5214 72.208
87.0323 5125 71.5891
87.149 4865 69.7496
87.2657 4687 68.4617
87.3823 4357 66.0076
87.4988 4330 65.8027
87.6154 4444 66.6633
87.7318 4667 68.3154
87.8483 5125 71.5891
87.9647 5205 72.1457
88.081 5524 74.3236
88.1973 5522 74.3102
88.3136 5639 75.0933
88.4298 5843 76.4395
88.546 5578 74.686
88.6621 5383 73.3689
88.7781 5061 71.1407
88.8942 0 1
89.0101 0 1
89.126 0 1
89.2419 0 1
89.3577 0 1
89.4734 0 1
89.5891 0 1
89.7047 0 1
89.8203 0 1
89.9358 0 1
92.3269 0 1
92.4424 0 1
92.558 0 1
92.6736 0 1
92.7893 0 1
92.905 0 1
93.0208 0 1
93.1366 0 1
93.2525 0 1
93.3685 0 1
93.4845 0 1
93.6005 5470 73.9594
93.7167 5561 74.5721
93.8328 5485 74.0608
93.949 5433 73.7089
94.0653 5429 73.6817
94.1816 5385 73.3826
94.2979 5110 71.4843
94.4143 4765 69.029
94.5307 4425 66.5207
94.6472 4351 65.9621
94.7637 4340 65.8787
94.8803 4536 67.3498
94.9969 4814 69.383
95.1135 5224 72.2772
95.2302 5192 72.0555
95.3469 5376 73.3212
95.4637 5590 74.7663
95.5805 5800 76.1577
95.6973 5824 76.3151
95.8142 5832 76.3675
95.9311 5753 75.8485
96.048 5669 75.2928
96.1649 5490 74.0945
96.2819 5418 73.6071
96.3989 5100 71.4143
96.516 4878 69.8427
96.633 4663 68.2862
96.7501 4523 67.2533
96.8673 4754 68.9493
96.9844 4944 70.3136
97.1016 5345 73.1095
97.2188 5631 75.04
97.336 5910 76.8765
97.4532 5837 76.4003
97.5704 6059 77.8396
97.6877 5897 76.7919
97.805 5758 75.8815
97.9223 5582 74.7128
98.0396 5256 72.4983
98.1569 4838 69.5557
98.2743 4636 68.0882
98.3916 4518 67.2161
98.509 4596 67.7938
98.6264 4897 69.9786
98.7438 5329 73
98.8612 5278 72.6498
98.9786 5833 76.3741
99.096 5798 76.1446
99.2134 6191 78.6829
99.3308 6064 77.8717
99.4482 6124 78.256
99.5656 6027 77.6338
99.6831 6046 77.756
99.8005 5830 76.3544
99.9179 5561 74.5721
100.035 5381 73.3553
100.153 4910 70.0714
100.27 4755 68.9565
100.388 4820 69.4262
100.505 5232 72.3326
100.622 5402 73.4983
100.74 5875 76.6485
100.857 6153 78.4411
100.975 6133 78.3135
101.092 5915 76.909
101.209 6229 78.924
101.327 6089 78.032
101.444 6102 78.1153
101.561 5958 77.1881
101.679 5382 73.3621
101.796 5105 71.4493
101.913 4785 69.1737
102.03 4684 68.4398
102.148 5053 71.0845
102.265 5683 75.3857
102.382 5425 73.6546
102.499 5854 76.5114
102.616 6072 77.923
102.733 6203 78.7591
102.851 6489 80.5543
102.968 6448 80.2994
103.085 6540 80.8703
103.202 6387 79.9187
103.319 6171 78.5557
103.436 6101 78.1089
103.552 5942 77.0844
103.669 5368 73.2666
103.786 4918 70.1285
103.903 5002 70.7248
104.02 5366 73.253
104.137 5981 77.3369
104.253 6486 80.5357
104.37 6326 79.5362
104.487 6475 80.4674
104.603 6576 81.0925
104.72 6592 81.1911
104.836 6635 81.4555
104.953 6393 79.9562
105.069 6415 80.0937
105.186 5747 75.809
105.302 5367 73.2598
105.418 5232 72.3326
105.535 5441 73.7631
105.651 5789 76.0855
105.767 6069 77.9038
105.883 6216 78.8416
105.999 6469 80.4301
106.115 0 1
106.231 0 1
106.347 0 1
106.463 0 1
106.579 0 1
106.694 0 1
106.81 0 1
106.926 0 1
107.041 0 1
107.157 0 1
109.576 0 1
109.692 0 1
109.807 0 1
109.923 0 1
110.039 0 1
110.155 0 1
110.27 0 1
110.386 0 1
110.502 0 1
110.618 5139 71.6868
110.735 5638 75.0866
110.851 5989 77.3886
110.967 6099 78.0961
111.083 6051 77.7882
111.199 6301 79.3788
111.316 6559 80.9877
111.432 6461 80.3803
111.549 6472 80.4487
111.665 6439 80.2434
111.782 6171 78.5557
111.898 5945 77.1038
112.015 5731 75.7034
112.132 5285 72.698
112.248 4789 69.2026
112.365 4670 68.3374
112.482 4947 70.3349
112.599 5340 73.0753
112.716 5781 76.0329
112.832 6041 77.7239
112.949 6036 77.6917
113.066 6114 78.1921
113.183 5918 76.9285
113.3 5682 75.379
113.417 5852 76.4984
113.534 5656 75.2064
113.652 5502 74.1755
113.769 5114 71.5122
113.886 4945 70.3207
114.003 4644 68.1469
114.12 4691 68.4909
114.238 4967 70.4769
114.355 5089 71.3372
114.472 5303 72.8217
114.589 5318 72.9246
114.707 5567 74.6123
114.824 5544 74.458
114.942 5714 75.591
115.059 5665 75.2662
115.176 5722 75.6439
115.294 5706 75.5381
115.411 5509 74.2226
115.529 5448 73.8106
115.646 5058 71.1196
115.764 4508 67.1416
115.881 4418 66.468
115.999 4362 66.0454
116.116 4736 68.8186
116.234 5233 72.3395
116.351 5424 73.6478
116.469 5601 74.8398
116.586 5777 76.0066
116.704 5719 75.6241
116.821 5823 76.3086
116.939 5765 75.9276
117.056 5642 75.1132
117.174 5539 74.4245
117.291 5396 73.4575
117.409 5046 71.0352
117.526 4926 70.1855
117.644 4784 69.1665
117.761 4776 69.1086
117.879 5121 71.5612
117.996 5230 72.3187
118.114 5501 74.1687
118.231 5505 74.1957
118.349 5535 74.3976
118.466 5706 75.5381
118.584 5766 75.9342
118.701 5860 76.5506
118.819 5925 76.974
118.936 5711 75.5712
119.053 5707 75.5447
119.171 5472 73.973
119.288 4884 69.8856
119.405 4504 67.1118
119.523 4313 65.6734
119.64 4244 65.146
119.757 4738 68.8331
119.875 5119 71.5472
119.992 5614 74.9266
120.109 5531 74.3707
120.226 5762 75.9078
120.343 5704 75.5248
120.46 5651 75.1731
120.578 5727 75.6769
120.695 5569 74.6257
120.812 5490 74.0945
120.929 5464 73.9189
121.046 5167 71.8818
121.163 5072 71.218
121.279 4877 69.8355
121.396 4796 69.2532
121.513 4777 69.1158
121.63 5284 72.6911
121.747 5195 72.0763
121.863 5392 73.4302
121.98 5290 72.7324
122.097 5523 74.3169
122.213 5614 74.9266
122.33 5627 75.0133
122.446 5588 74.7529
122.563 5731 75.7034
122.679 5529 74.3572
122.795 5447 73.8038
122.912 5260 72.5259
123.028 4923 70.1641
123.144 4455 66.7458
123.26 4167 64.5523
123.377 0 1
123.493 0 1
123.609 0 1
123.725 0 1
123.84 0 1
123.956 0 1
124.072 0 1
124.188 0 1
124.303 0 1
124.419 0 1
126.852 0 1
126.968 0 1
127.083 0 1
127.199 0 1
127.315 0 1
127.431 0 1
127.547 0 1
127.663 0 1
127.779 0 1
127.895 0 1
128.011 0 1
128.127 0 1
128.243 0 1
128.359 5067 71.1829
128.476 4549 67.4463
128.592 4749 68.913
128.708 5146 71.7356
128.825 5711 75.5712
128.941 6143 78.3773
129.058 6444 80.2745
129.174 6292 79.3221
129.291 6242 79.0063
129.408 6193 78.6956
129.524 6331 79.5676
129.641 6334 79.5864
129.758 6070 77.9102
129.875 5922 76.9545
129.992 5891 76.7529
130.108 5683 75.3857
130.225 5506 74.2024
130.342 5465 73.9256
130.459 5383 73.3689
130.576 5603 74.8532
130.693 5763 75.9144
130.81 5951 77.1427
130.928 5939 77.0649
131.045 5965 77.2334
131.162 6169 78.543
131.279 6334 79.5864
131.396 6132 78.3071
131.513 6159 78.4793
131.631 6003 77.479
131.748 5672 75.3127
131.865 5244 72.4155
131.983 4743 68.8694
132.1 4545 67.4166
132.217 4871 69.7925
132.335 5434 73.7157
132.452 5822 76.302
132.57 5977 77.3111
132.687 6042 77.7303
132.804 6146 78.3964
132.922 6149 78.4156
133.039 6078 77.9615
133.157 5979 77.324
133.274 6109 78.1601
133.392 5883 76.7007
133.509 5821 76.2955
133.627 5631 75.04
133.744 5532 74.3774
133.862 5268 72.581
133.979 5241 72.3948
134.097 5446 73.797
134.214 5486 74.0675
134.332 5552 74.5117
134.449 5836 76.3937
134.567 5650 75.1665
134.684 5838 76.4068
134.802 5889 76.7398
134.919 6079 77.9679
135.037 5973 77.2852
135.154 5914 76.9025
135.272 5798 76.1446
135.389 5423 73.641
135.507 4760 68.9928
135.624 4507 67.1342
135.742 4599 67.8159
135.859 5069 71.1969
135.977 5473 73.9797
136.094 5853 76.5049
136.211 5930 77.0065
136.329 6082 77.9872
136.446 5971 77.2722
136.564 6014 77.55
136.681 6090 78.0385
136.798 6006 77.4984
136.915 6009 77.5177
137.033 5885 76.7138
137.15 5898 76.7984
137.267 5646 75.1399
137.384 5402 73.4983
137.502 5214 72.208
137.619 5384 73.3757
137.736 5302 72.8148
137.853 5300 72.8011
137.97 5500 74.162
138.087 5887 76.7268
138.204 5650 75.1665
138.321 5831 76.361
138.438 5835 76.3872
138.555 5882 76.6942
138.672 5838 76.4068
138.788 5863 76.5702
138.905 5749 75.8222
139.022 5347 73.1232
139.139 4910 70.0714
139.255 4534 67.335
139.372 4671 68.3447
139.488 4811 69.3614
139.605 5402 73.4983
139.721 5530 74.364
139.838 5951 77.1427
139.954 5975 77.2981
140.071 5919 76.935
140.187 6057 77.8267
140.303 5922 76.9545
140.419 5982 77.3434
140.535 5878 76.6681
140.652 5891 76.7529
140.768 0 1
140.884 0 1
141 0 1
141.115 0 1
141.231 0 1
141.347 0 1
141.463 0 1
141.578 0 1
141.694 0 1
144.104 0 1
144.219 0 1
144.335 0 1
144.45 0 1
144.566 0 1
144.682 0 1
144.798 0 1
144.914 0 1
145.03 0 1
145.146 5165 71.8679
145.262 5184 72
145.378 5091 71.3512
145.494 5230 72.3187
145.61 5141 71.7008
145.726 5004 70.739
145.842 4995 70.6753
145.959 4972 70.5124
146.075 4920 70.1427
146.192 4859 69.7065
146.308 4580 67.6757
146.425 4555 67.4907
146.541 4729 68.7677
146.658 4750 68.9202
146.774 4908 70.0571
146.891 5015 70.8167
147.008 5037 70.9718
147.125 5013 70.8025
147.241 4925 70.1783
147.358 4920 70.1427
147.475 4753 68.942
147.592 4488 66.9925
147.709 4163 64.5213
147.826 3813 61.7495
147.943 3761 61.327
148.06 4009 63.3167
148.177 4373 66.1287
148.294 4630 68.0441
148.411 4834 69.527
148.528 4850 69.6419
148.645 4769 69.0579
148.762 4810 69.3542
148.88 4724 68.7314
148.997 4731 68.7823
149.114 4930 70.214
149.231 4730 68.775
149.349 4759 68.9855
149.466 4741 68.8549
149.583 4575 67.6387
149.701 4544 67.4092
149.818 4382 66.1967
149.935 4350 65.9545
150.053 4228 65.0231
150.17 4302 65.5896
150.287 4522 67.2458
150.405 4571 67.6092
150.522 4684 68.4398
150.64 4669 68.3301
150.757 4635 68.0808
150.875 4727 68.7532
150.992 4613 67.9191
151.11 4364 66.0606
151.227 4321 65.7343
151.344 3932 62.7057
151.462 3593 59.9416
151.579 3679 60.6548
151.697 3834 61.9193
151.814 4231 65.0461
151.932 4524 67.2607
152.049 4632 68.0588
152.167 4731 68.7823
152.284 4725 68.7386
152.402 4669 68.3301
152.519 4618 67.9559
152.636 4764 69.0217
152.754 4785 69.1737
152.871 4755 68.9565
152.989 4627 68.0221
153.106 4613 67.9191
153.223 4558 67.513
153.341 4446 66.6783
153.458 4390 66.2571
153.575 4365 66.0681
153.693 4312 65.6658
153.81 4308 65.6354
153.927 4386 66.2269
154.044 4597 67.8012
154.162 4605 67.8602
154.279 4758 68.9783
154.396 4709 68.6222
154.513 4766 69.0362
154.63 4628 68.0294
154.747 4427 66.5357
154.864 4259 65.261
154.981 4226 65.0077
155.098 3851 62.0564
155.215 3885 62.3298
155.332 4061 63.726
155.449 4307 65.6277
155.566 4697 68.5347
155.683 4776 69.1086
155.8 4770 69.0652
155.917 4759 68.9855
156.033 4660 68.2642
156.15 0 1
156.267 0 1
156.383 0 1
156.5 0 1
156.617 0 1
156.733 0 1
156.85 0 1
156.966 0 1
157.082 0 1
157.199 0 1
157.315 0 1
157.431 0 1
157.547 0 1
157.664 0 1
157.78 0 1
157.896 0 1
158.012 0 1
158.128 0 1
158.244 0 1
158.359 0 1
158.475 0 1
158.591 0 1
158.706 0 1
