
6.15755 0 1
6.2731 0 1
6.3887 0 1
6.50437 0 1
6.62009 0 1
6.73587 0 1
6.8517 0 1
6.96759 0 1
7.08353 0 1
7.19952 0 1
7.31557 0 1
7.43166 0 1
7.54781 0 1
7.664 0 1
7.78024 0 1
7.89653 0 1
8.01286 0 1
8.12924 0 1
8.24567 0 1
8.36213 0 1
8.47864 0 1
8.59519 0 1
8.71178 0 1
8.82841 0 1
8.94508 0 1
9.06179 0 1
9.17853 0 1
9.29531 0 1
9.41212 0 1
9.52897 0 1
9.64584 0 1
9.76276 0 1
9.8797 0 1
9.99667 0 1
10.1137 0 1
10.2307 0 1
10.3478 0 1
10.4648 0 1
10.5819 0 1
10.6991 0 1
10.8162 0 1
10.9334 0 1
11.0506 0 1
11.1678 0 1
11.285 0 1
11.4023 0 1
11.5196 0 1
11.6369 0 1
11.7542 0 1
11.8715 0 1
11.9888 0 1
12.1062 0 1
12.2235 0 1
12.3409 0 1
12.4582 0 1
12.5756 0 1
12.693 0 1
12.8104 0 1
12.9278 0 1
13.0452 0 1
13.1626 0 1
13.28 0 1
13.3974 0 1
13.5149 0 1
13.6323 0 1
13.7497 0 1
13.8671 0 1
13.9845 0 1
14.1019 0 1
14.2193 0 1
14.3367 0 1
14.4541 0 1
14.5714 0 1
14.6888 0 1
14.8062 0 1
14.9235 0 1
15.0408 4740 68.8477
15.1581 5104 71.4423
15.2755 5428 73.675
15.3927 5530 74.364
15.51 5496 74.135
15.6273 5406 73.5255
15.7445 5110 71.4843
15.8617 4754 68.9493
15.9789 4519 67.2235
16.0961 4727 68.7532
16.2132 5379 73.3417
16.3304 5961 77.2075
16.4475 6772 82.2922
16.5646 7138 84.4867
16.6816 7506 86.6372
16.7986 7797 88.3006
16.9156 7789 88.2553
17.0326 7757 88.0738
17.1496 7795 88.2893
17.2665 7813 88.3912
17.3833 7841 88.5494
17.5002 7710 87.8066
17.617 7734 87.9432
17.7338 7769 88.1419
17.8505 7725 87.892
17.9672 7848 88.5889
18.0839 7948 89.1516
18.2005 7966 89.2525
18.3171 8021 89.56
18.4337 8108 90.0444
18.5502 8255 90.857
18.6666 8235 90.7469
18.7831 8219 90.6587
18.8994 8264 90.9065
19.0158 7841 88.5494
19.1321 7678 87.6242
19.2483 6846 82.7406
19.3645 6274 79.2086
19.4806 5558 74.552
19.5967 5278 72.6498
19.7128 5359 73.2052
19.8288 5860 76.5506
19.9447 5960 77.201
20.0606 0 1
20.1764 0 1
20.2922 0 1
20.4079 0 1
20.5236 0 1
20.6392 0 1
20.7548 0 1
20.8702 0 1
23.3078 0 1
23.4233 0 1
23.539 0 1
23.6547 0 1
23.7704 0 1
23.8862 0 1
24.0021 0 1
24.118 0 1
24.234 0 1
24.35 0 1
24.4661 6861 82.8312
24.5822 6432 80.1998
24.6984 5823 76.3086
24.8146 5231 72.3257
24.9309 5155 71.7983
25.0472 5689 75.4255
25.1636 6476 80.4736
25.28 7335 85.6446
25.3965 8122 90.1221
25.513 8629 92.8924
25.6296 9013 94.9368
25.7462 9092 95.352
25.8628 9129 95.5458
25.9795 9079 95.2838
26.0962 9221 96.026
26.213 9108 95.4358
26.3298 9158 95.6974
26.4466 8926 94.4775
26.5635 8883 94.2497
26.6804 8809 93.8563
26.7973 9114 95.4673
26.9143 8950 94.6044
27.0313 8964 94.6784
27.1483 9185 95.8384
27.2653 9068 95.226
27.3824 9167 95.7445
27.4996 9153 95.6713
27.6167 9147 95.6399
27.7339 8950 94.6044
27.8511 8711 93.3327
27.9683 8214 90.6311
28.0855 7413 86.0988
28.2028 6761 82.2253
28.3201 5374 73.3076
28.4374 4691 68.4909
28.5547 4867 69.7639
28.6721 5523 74.3169
28.7894 6380 79.8749
28.9068 7471 86.4349
29.0242 8070 89.8332
29.1416 8706 93.3059
29.259 8854 94.0957
29.3764 8967 94.6942
29.4939 8995 94.842
29.6113 9033 95.0421
29.7288 8991 94.8209
29.8463 8771 93.6536
29.9638 8717 93.3649
30.0812 8801 93.8136
30.1987 8656 93.0376
30.3162 8591 92.6876
30.4337 8871 94.186
30.5512 8632 92.9086
30.6687 8623 92.8601
30.7862 8900 94.3398
30.9037 8911 94.3981
31.0212 8960 94.6573
31.1387 8900 94.3398
31.2562 8826 93.9468
31.3737 8743 93.504
31.4912 8273 90.956
31.6087 7658 87.51
31.7262 6981 83.5524
31.8436 5867 76.5963
31.9611 4948 70.342
32.0785 4685 68.4471
32.1959 5184 72
32.3134 6074 77.9359
32.4308 6960 83.4266
32.5482 7903 88.8988
32.6655 8508 92.2388
32.7829 8619 92.8386
32.9002 8779 93.6963
33.0176 8718 93.3702
33.1349 8697 93.2577
33.2522 8819 93.9095
33.3694 8450 91.9239
33.4867 8492 92.152
33.6039 8423 91.7769
33.7211 8439 91.864
33.8383 8322 91.225
33.9554 8549 92.4608
34.0725 8531 92.3634
34.1896 8414 91.7279
34.3067 8473 92.0489
34.4237 8404 91.6733
34.5407 8451 91.9293
34.6577 8457 91.9619
34.7746 8650 93.0054
34.8915 8373 91.5041
35.0084 8623 92.8601
35.1252 8118 90.0999
35.242 8040 89.666
35.3587 7396 86
35.4755 6456 80.3492
35.5921 5193 72.0625
35.7088 4397 66.3099
35.8254 4254 65.2227
35.9419 4527 67.283
36.0584 5431 73.6953
36.1749 6314 79.4607
36.2913 7324 85.5804
36.4077 7913 88.955
36.524 8311 91.1647
36.6403 8114 90.0777
36.7565 8296 91.0824
36.8727 8231 90.7249
36.9889 8084 89.9111
37.1049 8113 90.0722
37.221 0 1
37.3369 0 1
37.4529 0 1
37.5687 0 1
37.6845 0 1
37.8003 0 1
37.916 0 1
38.0316 0 1
38.1472 0 1
40.5851 0 1
40.7008 0 1
40.8164 0 1
40.9322 0 1
41.048 0 1
41.1639 0 1
41.2798 0 1
41.3958 0 1
41.5118 0 1
41.6279 0 1
41.744 5928 76.9935
41.8602 6472 80.4487
41.9765 6892 83.0181
42.0928 7058 84.0119
42.2091 6882 82.9578
42.3255 6818 82.5712
42.4419 6571 81.0617
42.5584 6705 81.8841
42.675 6525 80.7775
42.7915 6637 81.4678
42.9081 6673 81.6884
43.0248 6394 79.9625
43.1415 6473 80.455
43.2582 6502 80.635
43.375 6610 81.3019
43.4918 6494 80.5854
43.6087 6384 79.8999
43.7256 6357 79.7308
43.8425 6343 79.643
43.9595 6167 78.5302
44.0765 5845 76.4526
44.1935 5620 74.9667
44.3106 4791 69.217
44.4277 3728 61.0574
44.5448 2884 53.7029
44.6619 2745 52.3927
44.7791 3346 57.8446
44.8963 3878 62.2736
45.0136 4526 67.2756
45.1308 5167 71.8818
45.2481 5202 72.1249
45.3654 5266 72.5672
45.4827 5083 71.2952
45.6001 5101 71.4213
45.7174 5062 71.1477
45.8348 4910 70.0714
45.9522 4810 69.3542
46.0697 4768 69.0507
46.1871 4608 67.8823
46.3046 4794 69.2387
46.422 4534 67.335
46.5395 4525 67.2681
46.657 4647 68.1689
46.7745 4518 67.2161
46.892 4483 66.9552
47.0096 4419 66.4756
47.1271 4409 66.4003
47.2446 4461 66.7907
47.3622 4410 66.4078
47.4797 4265 65.307
47.5973 4201 64.8151
47.7149 4017 63.3798
47.8324 3714 60.9426
47.95 3086 55.5518
48.0675 2255 47.4868
48.1851 1967 44.3509
48.3027 2152 46.3897
48.4202 2548 50.4777
48.5378 3267 57.1577
48.6554 3613 60.1082
48.7729 3705 60.8687
48.8904 3790 61.563
49.008 3770 61.4003
49.1255 3602 60.0167
49.243 3755 61.2781
49.3605 3860 62.1289
49.478 3679 60.6548
49.5955 3624 60.1997
49.713 3608 60.0666
49.8304 3826 61.8547
49.9479 3780 61.4817
50.0653 3772 61.4166
50.1827 3999 63.2376
50.3001 4006 63.293
50.4175 4179 64.6452
50.5348 4203 64.8305
50.6521 4319 65.7191
50.7694 4463 66.8057
50.8867 4491 67.0149
51.004 4660 68.2642
51.1212 4580 67.6757
51.2384 4629 68.0368
51.3556 4433 66.5808
51.4727 3573 59.7746
51.5899 2630 51.2835
51.707 2404 49.0306
51.824 2729 52.2398
51.9411 3551 59.5903
52.0581 4545 67.4166
52.175 5198 72.0972
52.2919 5415 73.5867
52.4088 5546 74.4715
52.5257 5589 74.7596
52.6425 5686 75.4056
52.7593 5719 75.6241
52.876 5873 76.6355
52.9927 5818 76.2758
53.1094 5835 76.3872
53.226 5758 75.8815
53.3426 5843 76.4395
53.4591 5617 74.9466
53.5756 5990 77.3951
53.692 6066 77.8845
53.8084 6262 79.1328
53.9248 6047 77.7625
54.0411 6326 79.5362
54.1573 6393 79.9562
54.2735 0 1
54.3896 0 1
54.5057 0 1
54.6217 0 1
54.7377 0 1
54.8537 0 1
54.9695 0 1
55.0853 0 1
55.2011 0 1
55.3168 0 1
55.4324 0 1
57.824 0 1
57.9396 0 1
58.0553 0 1
58.1711 0 1
58.2869 0 1
58.4028 0 1
58.5187 0 1
58.6347 0 1
58.7508 0 1
58.8669 0 1
58.983 6699 81.8474
59.0992 7196 84.8292
59.2155 7306 85.4751
59.3318 7491 86.5506
59.4482 7446 86.2902
59.5646 7270 85.2643
59.681 7371 85.8545
59.7975 7203 84.8705
59.9141 6939 83.3007
60.0306 6284 79.2717
60.1473 5482 74.0405
60.2639 4458 66.7683
60.3807 3811 61.7333
60.4974 3940 62.7694
60.6142 4577 67.6535
60.731 5556 74.5386
60.8479 6043 77.7367
60.9648 6554 80.9568
61.0818 6511 80.6908
61.1987 6788 82.3893
61.3158 6503 80.6412
61.4328 6407 80.0437
61.5499 6322 79.511
61.667 6113 78.1857
61.7841 6079 77.9679
61.9013 6008 77.5113
62.0185 5975 77.2981
62.1357 6111 78.1729
62.253 6123 78.2496
62.3702 6338 79.6116
62.4875 6292 79.3221
62.6049 6369 79.806
62.7222 6445 80.2808
62.8396 6312 79.4481
62.9569 6484 80.5233
63.0743 6463 80.3928
63.1918 6438 80.2371
63.3092 6296 79.3473
63.4267 6003 77.479
63.5441 5739 75.7562
63.6616 4782 69.152
63.7791 3759 61.3107
63.8966 3304 57.4804
64.0142 3424 58.515
64.1317 3958 62.9126
64.2492 4801 69.2892
64.3668 5471 73.9662
64.4843 5663 75.2529
64.6019 5909 76.87
64.7195 5861 76.5572
64.837 5801 76.1643
64.9546 5820 76.2889
65.0722 5654 75.1931
65.1898 5448 73.8106
65.3074 5513 74.2496
65.4249 5147 71.7426
65.5425 5223 72.2703
65.6601 5414 73.5799
65.7777 5294 72.7599
65.8952 5630 75.0333
66.0128 5724 75.6571
66.1304 5617 74.9466
66.2479 5919 76.935
66.3655 5918 76.9285
66.483 5978 77.3175
66.6005 5922 76.9545
66.718 5890 76.7463
66.8355 6003 77.479
66.953 5875 76.6485
67.0705 5735 75.7298
67.1879 5342 73.089
67.3054 4378 66.1665
67.4228 3427 58.5406
67.5402 3046 55.1906
67.6576 3092 55.6058
67.7749 3737 61.131
67.8923 4696 68.5274
68.0096 5348 73.13
68.1269 5672 75.3127
68.2442 5708 75.5513
68.3614 5890 76.7463
68.4787 5907 76.857
68.5958 5757 75.8749
68.713 5667 75.2795
68.8302 5595 74.7997
68.9473 5507 74.2092
69.0643 5459 73.885
69.1814 5254 72.4845
69.2984 5505 74.1957
69.4154 5609 74.8933
69.5323 5830 76.3544
69.6492 5850 76.4853
69.7661 6052 77.7946
69.8829 6151 78.4283
69.9997 6367 79.7935
70.1165 6308 79.4229
70.2332 6310 79.4355
70.3499 6675 81.7007
70.4665 6589 81.1727
70.5831 6402 80.0125
70.6996 6391 79.9437
70.8161 6173 78.5684
70.9326 5397 73.4643
71.049 4318 65.7115
71.1653 3393 58.2495
71.2817 3073 55.4346
71.3979 3278 57.2538
71.5141 4100 64.0312
71.6303 4898 69.9857
71.7464 4932 70.2282
71.8624 0 1
71.9784 0 1
72.0944 0 1
72.2102 0 1
72.3261 0 1
72.4418 0 1
72.5575 0 1
72.6732 0 1
75.1054 0 1
75.2209 0 1
75.3365 0 1
75.4521 0 1
75.5678 0 1
75.6835 0 1
75.7993 0 1
75.9151 0 1
76.031 0 1
76.147 5637 75.08
76.263 5528 74.3505
76.3791 4239 65.1076
76.4952 3167 56.2761
76.6113 2996 54.7357
76.7276 3456 58.7878
76.8438 4839 69.5629
76.9601 5737 75.743
77.0765 6205 78.7718
77.1929 6377 79.8561
77.3093 6315 79.467
77.4258 6296 79.3473
77.5423 6318 79.4858
77.6589 6135 78.3262
77.7755 5827 76.3348
77.8921 5656 75.2064
78.0088 5513 74.2496
78.1256 5428 73.675
78.2423 5530 74.364
78.3591 5796 76.1315
78.4759 5775 75.9934
78.5928 5988 77.3822
78.7097 6271 79.1896
78.8266 6029 77.6466
78.9436 6549 80.9259
79.0606 6472 80.4487
79.1776 6526 80.7837
79.2946 6573 81.074
79.4117 6392 79.95
79.5288 6409 80.0562
79.6459 6345 79.6555
79.7631 6238 78.981
79.8802 5758 75.8815
79.9974 4629 68.0368
80.1147 3182 56.4092
80.2319 2919 54.0278
80.3491 3478 58.9746
80.4664 4542 67.3944
80.5837 5421 73.6274
80.701 5957 77.1816
80.8183 5947 77.1168
80.9357 6011 77.5306
81.053 6057 77.8267
81.1704 6035 77.6853
81.2877 5958 77.1881
81.4051 5628 75.02
81.5225 5508 74.2159
81.6399 5338 73.0616
81.7573 5155 71.7983
81.8747 5135 71.6589
81.9922 5334 73.0342
82.1096 5490 74.0945
82.227 5604 74.8599
82.3444 5649 75.1598
82.4619 6003 77.479
82.5793 6071 77.9166
82.6967 5952 77.1492
82.8142 6075 77.9423
82.9316 5900 76.8115
83.049 5886 76.7203
83.1664 5804 76.184
83.2838 5895 76.7789
83.4012 5590 74.7663
83.5186 5014 70.8096
83.636 4109 64.1015
83.7534 2952 54.3323
83.8708 2593 50.9215
83.9881 3051 55.2359
84.1055 3726 61.041
84.2228 4877 69.8355
84.3401 5495 74.1283
84.4575 5617 74.9466
84.5747 5630 75.0333
84.692 5683 75.3857
84.8093 5555 74.5319
84.9265 5378 73.3348
85.0437 5225 72.2842
85.1609 5083 71.2952
85.2781 5095 71.3793
85.3952 5067 71.1829
85.5123 5224 72.2772
85.6294 5485 74.0608
85.7465 5772 75.9737
85.8636 5866 76.5898
85.9806 6040 77.7174
86.0976 6300 79.3725
86.2145 6311 79.4418
86.3315 6643 81.5046
86.4484 6338 79.6116
86.5652 6678 81.719
86.682 6810 82.5227
86.7988 6735 82.067
86.9156 6686 81.768
87.0323 6388 79.925
87.149 5644 75.1266
87.2657 4376 66.1513
87.3823 3622 60.1831
87.4988 3738 61.1392
87.6154 4713 68.6513
87.7318 5923 76.961
87.8483 6517 80.7279
87.9647 6885 82.9759
88.081 6870 82.8855
88.1973 7069 84.0773
88.3136 7079 84.1368
88.4298 6723 81.9939
88.546 6553 80.9506
88.6621 6479 80.4922
88.7781 6200 78.7401
88.8942 0 1
89.0101 0 1
89.126 0 1
89.2419 0 1
89.3577 0 1
89.4734 0 1
89.5891 0 1
89.7047 0 1
89.8203 0 1
89.9358 0 1
92.3269 0 1
92.4424 0 1
92.558 0 1
92.6736 0 1
92.7893 0 1
92.905 0 1
93.0208 0 1
93.1366 0 1
93.2525 0 1
93.3685 0 1
93.4845 0 1
93.6005 7039 83.8987
93.7167 7215 84.9412
93.8328 7139 84.4926
93.949 6787 82.3833
94.0653 6534 80.8332
94.1816 6471 80.4425
94.2979 6406 80.0375
94.4143 6279 79.2401
94.5307 6546 80.9074
94.6472 6731 82.0427
94.7637 6928 83.2346
94.8803 7069 84.0773
94.9969 7321 85.5628
95.1135 7303 85.4576
95.2302 7653 87.4814
95.3469 7632 87.3613
95.4637 7649 87.4586
95.5805 7644 87.43
95.6973 7937 89.0898
95.8142 7665 87.55
95.9311 7600 87.178
96.048 7253 85.1645
96.1649 6838 82.6922
96.2819 6049 77.7753
96.3989 5002 70.7248
96.516 4452 66.7233
96.633 4525 67.2681
96.7501 5152 71.7774
96.8673 6146 78.3964
96.9844 6951 83.3727
97.1016 7345 85.703
97.2188 7563 86.9655
97.336 7510 86.6603
97.4532 7403 86.0407
97.5704 7455 86.3423
97.6877 6902 83.0783
97.805 6884 82.9699
97.9223 6636 81.4616
98.0396 6492 80.5729
98.1569 6389 79.9312
98.2743 6700 81.8535
98.3916 6963 83.4446
98.509 7336 85.6505
98.6264 7531 86.7813
98.7438 7608 87.2238
98.8612 7584 87.0862
98.9786 7817 88.4138
99.096 7950 89.1628
99.2134 7814 88.3968
99.3308 7927 89.0337
99.4482 7775 88.176
99.5656 7793 88.278
99.6831 7411 86.0872
99.8005 6853 82.7828
99.9179 6135 78.3262
100.035 5146 71.7356
100.153 5158 71.8192
100.27 5525 74.3303
100.388 6413 80.0812
100.505 7304 85.4634
100.622 7558 86.9368
100.74 7661 87.5271
100.857 7654 87.4871
100.975 7519 86.7122
101.092 7718 87.8521
101.209 7280 85.3229
101.327 7086 84.1784
101.444 6895 83.0361
101.561 6916 83.1625
101.679 6713 81.9329
101.796 6974 83.5105
101.913 7230 85.0294
102.03 7504 86.6256
102.148 7938 89.0955
102.265 7695 87.7211
102.382 8409 91.7006
102.499 8238 90.7634
102.616 8523 92.3201
102.733 8195 90.5262
102.851 8324 91.236
102.968 8422 91.7715
103.085 8216 90.6422
103.202 7823 88.4477
103.319 7394 85.9884
103.436 6525 80.7775
103.552 5729 75.6902
103.669 5289 72.7255
103.786 5999 77.4532
103.903 6860 82.8251
104.02 7884 88.7919
104.137 8265 90.912
104.253 8334 91.2907
104.37 8428 91.8041
104.487 8362 91.444
104.603 8362 91.444
104.72 8075 89.861
104.836 7791 88.2666
104.953 7683 87.6527
105.069 7485 86.5159
105.186 7728 87.909
105.302 7835 88.5155
105.418 8064 89.7998
105.535 8532 92.3688
105.651 8757 93.5788
105.767 8829 93.9628
105.883 8950 94.6044
105.999 9074 95.2575
106.115 0 1
106.231 0 1
106.347 0 1
106.463 0 1
106.579 0 1
106.694 0 1
106.81 0 1
106.926 0 1
107.041 0 1
107.157 0 1
109.576 0 1
109.692 0 1
109.807 0 1
109.923 0 1
110.039 0 1
110.155 0 1
110.27 0 1
110.386 0 1
110.502 0 1
110.618 8340 91.3236
110.735 8631 92.9032
110.851 8682 93.1773
110.967 8740 93.488
111.083 9064 95.205
111.199 8987 94.7998
111.316 8920 94.4458
111.432 8945 94.578
111.549 8834 93.9894
111.665 8366 91.4658
111.782 7986 89.3644
111.898 7242 85.0999
112.015 6318 79.4858
112.132 5883 76.7007
112.248 6455 80.343
112.365 7283 85.3405
112.482 7631 87.3556
112.599 8504 92.2171
112.716 8410 91.7061
112.832 8506 92.228
112.949 8507 92.2334
113.066 8364 91.4549
113.183 8247 90.813
113.3 7937 89.0898
113.417 7600 87.178
113.534 7465 86.4002
113.652 7333 85.6329
113.769 7410 86.0814
113.886 7699 87.7439
114.003 7731 87.9261
114.12 8300 91.1043
114.238 8556 92.4986
114.355 8549 92.4608
114.472 8606 92.7685
114.589 8938 94.541
114.707 8618 92.8332
114.824 8682 93.1773
114.942 8747 93.5254
115.059 8597 92.72
115.176 8502 92.2063
115.294 8163 90.3493
115.411 7398 86.0116
115.529 6714 81.939
115.646 6316 79.4733
115.764 6545 80.9012
115.881 7103 84.2793
115.999 7829 88.4816
116.116 8404 91.6733
116.234 8568 92.5635
116.351 8338 91.3126
116.469 8624 92.8655
116.586 8571 92.5797
116.704 8481 92.0923
116.821 8270 90.9395
116.939 7957 89.202
117.056 7641 87.4128
117.174 7320 85.557
117.291 7559 86.9425
117.409 7361 85.7963
117.526 7879 88.7637
117.644 8053 89.7385
117.761 8412 91.717
117.879 8642 92.9624
117.996 8630 92.8978
118.114 8642 92.9624
118.231 8800 93.8083
118.349 8674 93.1343
118.466 8574 92.5959
118.584 8693 93.2363
118.701 8445 91.8967
118.819 8369 91.4822
118.936 7768 88.1363
119.053 7201 84.8587
119.171 6667 81.6517
119.288 6466 80.4114
119.405 6894 83.0301
119.523 7357 85.773
119.64 7833 88.5042
119.757 8028 89.5991
119.875 8364 91.4549
119.992 8263 90.901
120.109 8229 90.7138
120.226 8366 91.4658
120.343 8379 91.5369
120.46 8154 90.2995
120.578 7749 88.0284
120.695 7541 86.8389
120.812 7440 86.2554
120.929 7285 85.3522
121.046 7379 85.9011
121.163 7557 86.931
121.279 7967 89.2581
121.396 8126 90.1443
121.513 8378 91.5314
121.63 8410 91.7061
121.747 8478 92.0761
121.863 8399 91.6461
121.98 8511 92.2551
122.097 8579 92.6229
122.213 8412 91.717
122.33 8450 91.9239
122.446 8323 91.2305
122.563 7943 89.1235
122.679 7465 86.4002
122.795 6965 83.4566
122.912 6615 81.3327
123.028 6590 81.1788
123.144 6832 82.6559
123.26 7187 84.7762
123.377 0 1
123.493 0 1
123.609 0 1
123.725 0 1
123.84 0 1
123.956 0 1
124.072 0 1
124.188 0 1
124.303 0 1
124.419 0 1
126.852 0 1
126.968 0 1
127.083 0 1
127.199 0 1
127.315 0 1
127.431 0 1
127.547 0 1
127.663 0 1
127.779 0 1
127.895 0 1
128.011 0 1
128.127 0 1
128.243 0 1
128.359 7701 87.7553
128.476 8219 90.6587
128.592 8697 93.2577
128.708 9157 95.6922
128.825 9202 95.9271
128.941 9090 95.3415
129.058 9158 95.6974
129.174 9101 95.3992
129.291 9083 95.3048
129.408 8796 93.787
129.524 8629 92.8924
129.641 8122 90.1221
129.758 8018 89.5433
129.875 8064 89.7998
129.992 8049 89.7162
130.108 8195 90.5262
130.225 8568 92.5635
130.342 9038 95.0684
130.459 8883 94.2497
130.576 9323 96.5557
130.693 9216 96
130.81 9035 95.0526
130.928 8937 94.5357
131.045 8942 94.5621
131.162 8974 94.7312
131.279 8611 92.7955
131.396 8782 93.7123
131.513 8247 90.813
131.631 8072 89.8443
131.748 7781 88.21
131.865 8149 90.2718
131.983 8571 92.5797
132.1 8770 93.6483
132.217 9183 95.828
132.335 9203 95.9323
132.452 9310 96.4883
132.57 9125 95.5249
132.687 9011 94.9263
132.804 9202 95.9271
132.922 8869 94.1754
133.039 8594 92.7038
133.157 8300 91.1043
133.274 8131 90.1721
133.392 7960 89.2188
133.509 8059 89.7719
133.627 8032 89.6214
133.744 8366 91.4658
133.862 8887 94.2709
133.979 8851 94.0798
134.097 8989 94.8103
134.214 8888 94.2762
134.332 9178 95.8019
134.449 9083 95.3048
134.567 8791 93.7603
134.684 8964 94.6784
134.802 8769 93.6429
134.919 8801 93.8136
135.037 8526 92.3363
135.154 8155 90.305
135.272 8016 89.5321
135.389 8113 90.0722
135.507 8435 91.8423
135.624 8651 93.0108
135.742 8984 94.784
135.859 9072 95.247
135.977 9116 95.4777
136.094 9053 95.1473
136.211 9032 95.0368
136.329 9090 95.3415
136.446 8941 94.5569
136.564 8768 93.6376
136.681 8451 91.9293
136.798 8235 90.7469
136.915 8058 89.7664
137.033 7994 89.4092
137.15 7918 88.9831
137.267 8004 89.4651
137.384 8406 91.6842
137.502 8608 92.7793
137.619 8887 94.2709
137.736 8856 94.1063
137.853 8828 93.9574
137.97 8875 94.2072
138.087 8457 91.9619
138.204 8580 92.6283
138.321 8691 93.2255
138.438 8717 93.3649
138.555 8539 92.4067
138.672 8513 92.2659
138.788 8343 91.34
138.905 8225 90.6918
139.022 8410 91.7061
139.139 8476 92.0652
139.255 8684 93.188
139.372 8969 94.7048
139.488 9228 96.0625
139.605 9233 96.0885
139.721 9157 95.6922
139.838 9228 96.0625
139.954 9134 95.572
140.071 9027 95.0105
140.187 9113 95.462
140.303 8618 92.8332
140.419 8462 91.9891
140.535 8033 89.627
140.652 7880 88.7694
140.768 0 1
140.884 0 1
141 0 1
141.115 0 1
141.231 0 1
141.347 0 1
141.463 0 1
141.578 0 1
141.694 0 1
144.104 0 1
144.219 0 1
144.335 0 1
144.45 0 1
144.566 0 1
144.682 0 1
144.798 0 1
144.914 0 1
145.03 0 1
145.146 6016 77.5629
145.262 6717 81.9573
145.378 6518 80.7341
145.494 6418 80.1124
145.61 6532 80.8208
145.726 6544 80.895
145.842 6378 79.8624
145.959 6243 79.0127
146.075 6246 79.0316
146.192 6371 79.8185
146.308 6799 82.456
146.425 6779 82.3347
146.541 6933 83.2646
146.658 6702 81.8657
146.774 6754 82.1827
146.891 6748 82.1462
147.008 6552 80.9444
147.125 6401 80.0062
147.241 6667 81.6517
147.358 6766 82.2557
147.475 6918 83.1745
147.592 6818 82.5712
147.709 6723 81.9939
147.826 6861 82.8312
147.943 6979 83.5404
148.06 7103 84.2793
148.177 7073 84.1011
148.294 7226 85.0059
148.411 7272 85.276
148.528 7434 86.2206
148.645 7338 85.6621
148.762 7191 84.7998
148.88 7350 85.7321
148.997 7004 83.6899
149.114 7409 86.0755
149.231 7149 84.5518
149.349 6934 83.2706
149.466 7107 84.303
149.583 6645 81.5169
149.701 6630 81.4248
149.818 6705 81.8841
149.935 6611 81.3081
150.053 6671 81.6762
150.17 6886 82.9819
150.287 6998 83.654
150.405 7000 83.666
150.522 6926 83.2226
150.64 6978 83.5344
150.757 6843 82.7224
150.875 6790 82.4015
150.992 6800 82.4621
151.11 7180 84.7349
151.227 7233 85.047
151.344 7264 85.2291
151.462 7144 84.5222
151.579 7605 87.2067
151.697 7510 86.6603
151.814 7581 87.0689
151.932 7536 86.8101
152.049 7687 87.6755
152.167 7605 87.2067
152.284 7647 87.4471
152.402 7734 87.9432
152.519 7673 87.5957
152.636 7656 87.4986
152.754 7707 87.7895
152.871 7655 87.4929
152.989 7476 86.4639
153.106 7360 85.7904
153.223 7253 85.1645
153.341 7032 83.857
153.458 7166 84.6522
153.575 6994 83.6301
153.693 7083 84.1606
153.81 7223 84.9882
153.927 7258 85.1939
154.044 7331 85.6213
154.162 7022 83.7974
154.279 7115 84.3505
154.396 7084 84.1665
154.513 7248 85.1352
154.63 7508 86.6487
154.747 7718 87.8521
154.864 7970 89.2749
154.981 8104 90.0222
155.098 7877 88.7525
155.215 8100 90
155.332 8309 91.1537
155.449 8110 90.0555
155.566 7962 89.23
155.683 8199 90.5483
155.8 8217 90.6477
155.917 8297 91.0879
156.033 8230 90.7193
156.15 0 1
156.267 0 1
156.383 0 1
156.5 0 1
156.617 0 1
156.733 0 1
156.85 0 1
156.966 0 1
157.082 0 1
157.199 0 1
157.315 0 1
157.431 0 1
157.547 0 1
157.664 0 1
157.78 0 1
157.896 0 1
158.012 0 1
158.128 0 1
158.244 0 1
158.359 0 1
158.475 0 1
158.591 0 1
158.706 0 1
