
6.15755 0 1
6.2731 0 1
6.3887 0 1
6.50437 0 1
6.62009 0 1
6.73587 0 1
6.8517 0 1
6.96759 0 1
7.08353 0 1
7.19952 0 1
7.31557 0 1
7.43166 0 1
7.54781 0 1
7.664 0 1
7.78024 0 1
7.89653 0 1
8.01286 0 1
8.12924 0 1
8.24567 0 1
8.36213 0 1
8.47864 0 1
8.59519 0 1
8.71178 0 1
8.82841 0 1
8.94508 0 1
9.06179 0 1
9.17853 0 1
9.29531 0 1
9.41212 0 1
9.52897 0 1
9.64584 0 1
9.76276 0 1
9.8797 0 1
9.99667 0 1
10.1137 0 1
10.2307 0 1
10.3478 0 1
10.4648 0 1
10.5819 0 1
10.6991 0 1
10.8162 0 1
10.9334 0 1
11.0506 0 1
11.1678 0 1
11.285 0 1
11.4023 0 1
11.5196 0 1
11.6369 0 1
11.7542 0 1
11.8715 0 1
11.9888 0 1
12.1062 0 1
12.2235 0 1
12.3409 0 1
12.4582 0 1
12.5756 0 1
12.693 0 1
12.8104 0 1
12.9278 0 1
13.0452 0 1
13.1626 0 1
13.28 0 1
13.3974 0 1
13.5149 0 1
13.6323 0 1
13.7497 0 1
13.8671 0 1
13.9845 0 1
14.1019 0 1
14.2193 0 1
14.3367 0 1
14.4541 0 1
14.5714 0 1
14.6888 0 1
14.8062 0 1
14.9235 0 1
15.0408 653 25.5539
15.1581 633 25.1595
15.2755 664 25.7682
15.3927 720 26.8328
15.51 686 26.1916
15.6273 731 27.037
15.7445 674 25.9615
15.8617 664 25.7682
15.9789 736 27.1293
16.0961 672 25.923
16.2132 702 26.4953
16.3304 689 26.2488
16.4475 721 26.8514
16.5646 786 28.0357
16.6816 718 26.7955
16.7986 778 27.8927
16.9156 816 28.5657
17.0326 811 28.4781
17.1496 792 28.1425
17.2665 814 28.5307
17.3833 803 28.3373
17.5002 797 28.2312
17.617 744 27.2764
17.7338 722 26.8701
17.8505 753 27.4408
17.9672 653 25.5539
18.0839 731 27.037
18.2005 735 27.1109
18.3171 720 26.8328
18.4337 768 27.7128
18.5502 780 27.9285
18.6666 794 28.178
18.7831 818 28.6007
18.8994 803 28.3373
19.0158 738 27.1662
19.1321 733 27.074
19.2483 715 26.7395
19.3645 677 26.0192
19.4806 631 25.1197
19.5967 613 24.7588
19.7128 531 23.0434
19.8288 501 22.383
19.9447 472 21.7256
20.0606 0 1
20.1764 0 1
20.2922 0 1
20.4079 0 1
20.5236 0 1
20.6392 0 1
20.7548 0 1
20.8702 0 1
23.3078 0 1
23.4233 0 1
23.539 0 1
23.6547 0 1
23.7704 0 1
23.8862 0 1
24.0021 0 1
24.118 0 1
24.234 0 1
24.35 0 1
24.4661 319 17.8606
24.5822 364 19.0788
24.6984 465 21.5639
24.8146 471 21.7025
24.9309 488 22.0907
25.0472 568 23.8328
25.1636 564 23.7487
25.28 652 25.5343
25.3965 773 27.8029
25.513 748 27.3496
25.6296 806 28.3901
25.7462 798 28.2489
25.8628 819 28.6182
25.9795 855 29.2404
26.0962 857 29.2746
26.213 809 28.4429
26.3298 748 27.3496
26.4466 770 27.7489
26.5635 714 26.7208
26.6804 738 27.1662
26.7973 747 27.3313
26.9143 798 28.2489
27.0313 778 27.8927
27.1483 821 28.6531
27.2653 786 28.0357
27.3824 840 28.9828
27.4996 787 28.0535
27.6167 754 27.4591
27.7339 768 27.7128
27.8511 753 27.4408
27.9683 729 27
28.0855 694 26.3439
28.2028 730 27.0185
28.3201 691 26.2869
28.4374 646 25.4165
28.5547 638 25.2587
28.6721 679 26.0576
28.7894 705 26.5518
28.9068 725 26.9258
29.0242 824 28.7054
29.1416 780 27.9285
29.259 832 28.8444
29.3764 784 28
29.4939 781 27.9464
29.6113 768 27.7128
29.7288 768 27.7128
29.8463 741 27.2213
29.9638 676 26
30.0812 672 25.923
30.1987 679 26.0576
30.3162 725 26.9258
30.4337 714 26.7208
30.5512 736 27.1293
30.6687 701 26.4764
30.7862 751 27.4044
30.9037 742 27.2397
31.0212 742 27.2397
31.1387 730 27.0185
31.2562 754 27.4591
31.3737 691 26.2869
31.4912 759 27.55
31.6087 681 26.096
31.7262 695 26.3629
31.8436 656 25.6125
31.9611 628 25.0599
32.0785 612 24.7386
32.1959 652 25.5343
32.3134 697 26.4008
32.4308 717 26.7769
32.5482 744 27.2764
32.6655 768 27.7128
32.7829 760 27.5681
32.9002 741 27.2213
33.0176 731 27.037
33.1349 785 28.0179
33.2522 733 27.074
33.3694 747 27.3313
33.4867 676 26
33.6039 653 25.5539
33.7211 619 24.8797
33.8383 629 25.0799
33.9554 628 25.0599
34.0725 661 25.7099
34.1896 664 25.7682
34.3067 710 26.6458
34.4237 698 26.4197
34.5407 741 27.2213
34.6577 709 26.6271
34.7746 723 26.8887
34.8915 762 27.6043
35.0084 734 27.0924
35.1252 719 26.8142
35.242 722 26.8701
35.3587 622 24.9399
35.4755 620 24.8998
35.5921 596 24.4131
35.7088 614 24.779
35.8254 551 23.4734
35.9419 628 25.0599
36.0584 651 25.5147
36.1749 662 25.7294
36.2913 680 26.0768
36.4077 643 25.3574
36.524 635 25.1992
36.6403 623 24.96
36.7565 622 24.9399
36.8727 549 23.4307
36.9889 512 22.6274
37.1049 512 22.6274
37.221 0 1
37.3369 0 1
37.4529 0 1
37.5687 0 1
37.6845 0 1
37.8003 0 1
37.916 0 1
38.0316 0 1
38.1472 0 1
40.5851 0 1
40.7008 0 1
40.8164 0 1
40.9322 0 1
41.048 0 1
41.1639 0 1
41.2798 0 1
41.3958 0 1
41.5118 0 1
41.6279 0 1
41.744 313 17.6918
41.8602 384 19.5959
41.9765 427 20.664
42.0928 435 20.8567
42.2091 425 20.6155
42.3255 405 20.1246
42.4419 446 21.1187
42.5584 427 20.664
42.675 457 21.3776
42.7915 449 21.1896
42.9081 529 23
43.0248 554 23.5372
43.1415 576 24
43.2582 593 24.3516
43.375 607 24.6374
43.4918 596 24.4131
43.6087 564 23.7487
43.7256 588 24.2487
43.8425 550 23.4521
43.9595 594 24.3721
44.0765 550 23.4521
44.1935 536 23.1517
44.3106 565 23.7697
44.4277 539 23.2164
44.5448 470 21.6795
44.6619 466 21.587
44.7791 502 22.4054
44.8963 526 22.9347
45.0136 592 24.3311
45.1308 633 25.1595
45.2481 616 24.8193
45.3654 592 24.3311
45.4827 643 25.3574
45.6001 599 24.4745
45.7174 578 24.0416
45.8348 582 24.1247
45.9522 525 22.9129
46.0697 518 22.7596
46.1871 466 21.587
46.3046 508 22.5389
46.422 574 23.9583
46.5395 608 24.6577
46.657 578 24.0416
46.7745 589 24.2693
46.892 601 24.5153
47.0096 627 25.04
47.1271 616 24.8193
47.2446 669 25.865
47.3622 627 25.04
47.4797 597 24.4336
47.5973 597 24.4336
47.7149 566 23.7908
47.8324 563 23.7276
47.95 546 23.3666
48.0675 496 22.2711
48.1851 504 22.4499
48.3027 505 22.4722
48.4202 558 23.622
48.5378 606 24.6171
48.6554 612 24.7386
48.7729 631 25.1197
48.8904 622 24.9399
49.008 620 24.8998
49.1255 605 24.5967
49.243 577 24.0208
49.3605 576 24
49.478 575 23.9792
49.5955 468 21.6333
49.713 473 21.7486
49.8304 496 22.2711
49.9479 479 21.8861
50.0653 519 22.7816
50.1827 569 23.8537
50.3001 564 23.7487
50.4175 599 24.4745
50.5348 619 24.8797
50.6521 655 25.593
50.7694 633 25.1595
50.8867 589 24.2693
51.004 588 24.2487
51.1212 555 23.5584
51.2384 583 24.1454
51.3556 601 24.5153
51.4727 550 23.4521
51.5899 477 21.8403
51.707 516 22.7156
51.824 500 22.3607
51.9411 503 22.4277
52.0581 587 24.2281
52.175 654 25.5734
52.2919 602 24.5357
52.4088 651 25.5147
52.5257 664 25.7682
52.6425 656 25.6125
52.7593 613 24.7588
52.876 628 25.0599
52.9927 528 22.9783
53.1094 557 23.6008
53.226 466 21.587
53.3426 523 22.8692
53.4591 468 21.6333
53.5756 476 21.8174
53.692 495 22.2486
53.8084 535 23.1301
53.9248 483 21.9773
54.0411 441 21
54.1573 454 21.3073
54.2735 0 1
54.3896 0 1
54.5057 0 1
54.6217 0 1
54.7377 0 1
54.8537 0 1
54.9695 0 1
55.0853 0 1
55.2011 0 1
55.3168 0 1
55.4324 0 1
57.824 0 1
57.9396 0 1
58.0553 0 1
58.1711 0 1
58.2869 0 1
58.4028 0 1
58.5187 0 1
58.6347 0 1
58.7508 0 1
58.8669 0 1
58.983 437 20.9045
59.0992 482 21.9545
59.2155 548 23.4094
59.3318 621 24.9199
59.4482 643 25.3574
59.5646 685 26.1725
59.681 705 26.5518
59.7975 686 26.1916
59.9141 734 27.0924
60.0306 698 26.4197
60.1473 655 25.593
60.2639 686 26.1916
60.3807 674 25.9615
60.4974 640 25.2982
60.6142 676 26
60.731 695 26.3629
60.8479 683 26.1343
60.9648 733 27.074
61.0818 795 28.1957
61.1987 777 27.8747
61.3158 816 28.5657
61.4328 796 28.2135
61.5499 739 27.1846
61.667 644 25.3772
61.7841 650 25.4951
61.9013 620 24.8998
62.0185 598 24.454
62.1357 632 25.1396
62.253 672 25.923
62.3702 714 26.7208
62.4875 742 27.2397
62.6049 788 28.0713
62.7222 766 27.6767
62.8396 772 27.7849
62.9569 772 27.7849
63.0743 786 28.0357
63.1918 727 26.9629
63.3092 789 28.0891
63.4267 783 27.9821
63.5441 708 26.6083
63.6616 679 26.0576
63.7791 613 24.7588
63.8966 601 24.5153
64.0142 591 24.3105
64.1317 610 24.6982
64.2492 658 25.6515
64.3668 722 26.8701
64.4843 722 26.8701
64.6019 760 27.5681
64.7195 734 27.0924
64.837 784 28
64.9546 765 27.6586
65.0722 710 26.6458
65.1898 711 26.6646
65.3074 651 25.5147
65.4249 592 24.3311
65.5425 609 24.6779
65.6601 611 24.7184
65.7777 616 24.8193
65.8952 685 26.1725
66.0128 696 26.3818
66.1304 773 27.8029
66.2479 740 27.2029
66.3655 748 27.3496
66.483 811 28.4781
66.6005 825 28.7228
66.718 796 28.2135
66.8355 764 27.6405
66.953 765 27.6586
67.0705 723 26.8887
67.1879 745 27.2947
67.3054 676 26
67.4228 666 25.807
67.5402 636 25.219
67.6576 624 24.98
67.7749 673 25.9422
67.8923 685 26.1725
68.0096 799 28.2666
68.1269 840 28.9828
68.2442 794 28.178
68.3614 850 29.1548
68.4787 848 29.1204
68.5958 861 29.3428
68.713 829 28.7924
68.8302 781 27.9464
68.9473 728 26.9815
69.0643 669 25.865
69.1814 628 25.0599
69.2984 720 26.8328
69.4154 757 27.5136
69.5323 836 28.9137
69.6492 887 29.7825
69.7661 935 30.5778
69.8829 932 30.5287
69.9997 885 29.7489
70.1165 897 29.95
70.2332 877 29.6142
70.3499 785 28.0179
70.4665 775 27.8388
70.5831 741 27.2213
70.6996 775 27.8388
70.8161 689 26.2488
70.9326 635 25.1992
71.049 558 23.622
71.1653 511 22.6053
71.2817 414 20.347
71.3979 414 20.347
71.5141 367 19.1572
71.6303 354 18.8149
71.7464 331 18.1934
71.8624 0 1
71.9784 0 1
72.0944 0 1
72.2102 0 1
72.3261 0 1
72.4418 0 1
72.5575 0 1
72.6732 0 1
75.1054 0 1
75.2209 0 1
75.3365 0 1
75.4521 0 1
75.5678 0 1
75.6835 0 1
75.7993 0 1
75.9151 0 1
76.031 0 1
76.147 543 23.3024
76.263 599 24.4745
76.3791 512 22.6274
76.4952 539 23.2164
76.6113 555 23.5584
76.7276 536 23.1517
76.8438 601 24.5153
76.9601 636 25.219
77.0765 667 25.8263
77.1929 708 26.6083
77.3093 747 27.3313
77.4258 724 26.9072
77.5423 696 26.3818
77.6589 689 26.2488
77.7755 640 25.2982
77.8921 595 24.3926
78.0088 547 23.388
78.1256 563 23.7276
78.2423 452 21.2603
78.3591 542 23.2809
78.4759 608 24.6577
78.5928 611 24.7184
78.7097 629 25.0799
78.8266 669 25.865
78.9436 681 26.096
79.0606 670 25.8844
79.1776 669 25.865
79.2946 652 25.5343
79.4117 726 26.9444
79.5288 723 26.8887
79.6459 670 25.8844
79.7631 660 25.6905
79.8802 582 24.1247
79.9974 539 23.2164
80.1147 532 23.0651
80.2319 538 23.1948
80.3491 533 23.0868
80.4664 579 24.0624
80.5837 575 23.9792
80.701 685 26.1725
80.8183 661 25.7099
80.9357 707 26.5895
81.053 706 26.5707
81.1704 680 26.0768
81.2877 691 26.2869
81.4051 689 26.2488
81.5225 600 24.4949
81.6399 558 23.622
81.7573 531 23.0434
81.8747 501 22.383
81.9922 523 22.8692
82.1096 553 23.516
82.227 640 25.2982
82.3444 620 24.8998
82.4619 660 25.6905
82.5793 685 26.1725
82.6967 680 26.0768
82.8142 720 26.8328
82.9316 717 26.7769
83.049 714 26.7208
83.1664 752 27.4226
83.2838 670 25.8844
83.4012 705 26.5518
83.5186 666 25.807
83.636 646 25.4165
83.7534 578 24.0416
83.8708 552 23.4947
83.9881 518 22.7596
84.1055 555 23.5584
84.2228 592 24.3311
84.3401 641 25.318
84.4575 678 26.0384
84.5747 729 27
84.692 702 26.4953
84.8093 688 26.2298
84.9265 708 26.6083
85.0437 682 26.1151
85.1609 642 25.3377
85.2781 583 24.1454
85.3952 552 23.4947
85.5123 516 22.7156
85.6294 508 22.5389
85.7465 566 23.7908
85.8636 636 25.219
85.9806 689 26.2488
86.0976 708 26.6083
86.2145 748 27.3496
86.3315 748 27.3496
86.4484 704 26.533
86.5652 742 27.2397
86.682 737 27.1477
86.7988 745 27.2947
86.9156 702 26.4953
87.0323 701 26.4764
87.149 729 27
87.2657 678 26.0384
87.3823 542 23.2809
87.4988 500 22.3607
87.6154 484 22
87.7318 449 21.1896
87.8483 499 22.3383
87.9647 586 24.2074
88.081 520 22.8035
88.1973 523 22.8692
88.3136 550 23.4521
88.4298 510 22.5832
88.546 504 22.4499
88.6621 403 20.0749
88.7781 334 18.2757
88.8942 0 1
89.0101 0 1
89.126 0 1
89.2419 0 1
89.3577 0 1
89.4734 0 1
89.5891 0 1
89.7047 0 1
89.8203 0 1
89.9358 0 1
92.3269 0 1
92.4424 0 1
92.558 0 1
92.6736 0 1
92.7893 0 1
92.905 0 1
93.0208 0 1
93.1366 0 1
93.2525 0 1
93.3685 0 1
93.4845 0 1
93.6005 497 22.2935
93.7167 560 23.6643
93.8328 532 23.0651
93.949 557 23.6008
94.0653 618 24.8596
94.1816 605 24.5967
94.2979 589 24.2693
94.4143 593 24.3516
94.5307 563 23.7276
94.6472 545 23.3452
94.7637 556 23.5797
94.8803 536 23.1517
94.9969 592 24.3311
95.1135 628 25.0599
95.2302 630 25.0998
95.3469 681 26.096
95.4637 750 27.3861
95.5805 730 27.0185
95.6973 707 26.5895
95.8142 741 27.2213
95.9311 734 27.0924
96.048 693 26.3249
96.1649 699 26.4386
96.2819 703 26.5141
96.3989 686 26.1916
96.516 632 25.1396
96.633 609 24.6779
96.7501 531 23.0434
96.8673 505 22.4722
96.9844 572 23.9165
97.1016 565 23.7697
97.2188 620 24.8998
97.336 705 26.5518
97.4532 668 25.8457
97.5704 700 26.4575
97.6877 724 26.9072
97.805 684 26.1534
97.9223 645 25.3969
98.0396 592 24.3311
98.1569 534 23.1084
98.2743 536 23.1517
98.3916 493 22.2036
98.509 557 23.6008
98.6264 627 25.04
98.7438 635 25.1992
98.8612 686 26.1916
98.9786 669 25.865
99.096 724 26.9072
99.2134 717 26.7769
99.3308 736 27.1293
99.4482 699 26.4386
99.5656 689 26.2488
99.6831 675 25.9808
99.8005 719 26.8142
99.9179 682 26.1151
100.035 692 26.3059
100.153 654 25.5734
100.27 580 24.0832
100.388 561 23.6854
100.505 579 24.0624
100.622 655 25.593
100.74 706 26.5707
100.857 769 27.7308
100.975 688 26.2298
101.092 744 27.2764
101.209 719 26.8142
101.327 798 28.2489
101.444 731 27.037
101.561 673 25.9422
101.679 620 24.8998
101.796 549 23.4307
101.913 556 23.5797
102.03 612 24.7386
102.148 628 25.0599
102.265 672 25.923
102.382 758 27.5318
102.499 739 27.1846
102.616 734 27.0924
102.733 777 27.8747
102.851 799 28.2666
102.968 805 28.3725
103.085 792 28.1425
103.202 826 28.7402
103.319 773 27.8029
103.436 719 26.8142
103.552 702 26.4953
103.669 707 26.5895
103.786 584 24.1661
103.903 603 24.5561
104.02 644 25.3772
104.137 697 26.4008
104.253 678 26.0384
104.37 806 28.3901
104.487 787 28.0535
104.603 844 29.0517
104.72 749 27.3679
104.836 787 28.0535
104.953 722 26.8701
105.069 596 24.4131
105.186 539 23.2164
105.302 566 23.7908
105.418 541 23.2594
105.535 498 22.3159
105.651 532 23.0651
105.767 545 23.3452
105.883 510 22.5832
105.999 529 23
106.115 0 1
106.231 0 1
106.347 0 1
106.463 0 1
106.579 0 1
106.694 0 1
106.81 0 1
106.926 0 1
107.041 0 1
107.157 0 1
109.576 0 1
109.692 0 1
109.807 0 1
109.923 0 1
110.039 0 1
110.155 0 1
110.27 0 1
110.386 0 1
110.502 0 1
110.618 315 17.7482
110.735 402 20.0499
110.851 473 21.7486
110.967 578 24.0416
111.083 568 23.8328
111.199 587 24.2281
111.316 676 26
111.432 720 26.8328
111.549 698 26.4197
111.665 677 26.0192
111.782 701 26.4764
111.898 744 27.2764
112.015 607 24.6374
112.132 666 25.807
112.248 545 23.3452
112.365 573 23.9374
112.482 577 24.0208
112.599 603 24.5561
112.716 620 24.8998
112.832 679 26.0576
112.949 718 26.7955
113.066 654 25.5734
113.183 709 26.6271
113.3 758 27.5318
113.417 690 26.2679
113.534 672 25.923
113.652 598 24.454
113.769 592 24.3311
113.886 528 22.9783
114.003 527 22.9565
114.12 531 23.0434
114.238 580 24.0832
114.355 658 25.6515
114.472 624 24.98
114.589 751 27.4044
114.707 715 26.7395
114.824 731 27.037
114.942 737 27.1477
115.059 710 26.6458
115.176 737 27.1477
115.294 752 27.4226
115.411 765 27.6586
115.529 708 26.6083
115.646 729 27
115.764 649 25.4755
115.881 563 23.7276
115.999 579 24.0624
116.116 567 23.8118
116.234 609 24.6779
116.351 620 24.8998
116.469 683 26.1343
116.586 694 26.3439
116.704 697 26.4008
116.821 742 27.2397
116.939 709 26.6271
117.056 684 26.1534
117.174 677 26.0192
117.291 561 23.6854
117.409 533 23.0868
117.526 534 23.1084
117.644 576 24
117.761 601 24.5153
117.879 607 24.6374
117.996 711 26.6646
118.114 712 26.6833
118.231 705 26.5518
118.349 697 26.4008
118.466 691 26.2869
118.584 742 27.2397
118.701 689 26.2488
118.819 745 27.2947
118.936 717 26.7769
119.053 701 26.4764
119.171 714 26.7208
119.288 651 25.5147
119.405 689 26.2488
119.523 558 23.622
119.64 530 23.0217
119.757 601 24.5153
119.875 576 24
119.992 693 26.3249
120.109 681 26.096
120.226 694 26.3439
120.343 728 26.9815
120.46 694 26.3439
120.578 661 25.7099
120.695 686 26.1916
120.812 662 25.7294
120.929 610 24.6982
121.046 505 22.4722
121.163 542 23.2809
121.279 512 22.6274
121.396 527 22.9565
121.513 571 23.8956
121.63 566 23.7908
121.747 570 23.8747
121.863 572 23.9165
121.98 569 23.8537
122.097 573 23.9374
122.213 539 23.2164
122.33 575 23.9792
122.446 564 23.7487
122.563 553 23.516
122.679 522 22.8473
122.795 475 21.7945
122.912 410 20.2485
123.028 374 19.3391
123.144 330 18.1659
123.26 279 16.7033
123.377 0 1
123.493 0 1
123.609 0 1
123.725 0 1
123.84 0 1
123.956 0 1
124.072 0 1
124.188 0 1
124.303 0 1
124.419 0 1
126.852 0 1
126.968 0 1
127.083 0 1
127.199 0 1
127.315 0 1
127.431 0 1
127.547 0 1
127.663 0 1
127.779 0 1
127.895 0 1
128.011 0 1
128.127 0 1
128.243 0 1
128.359 714 26.7208
128.476 783 27.9821
128.592 772 27.7849
128.708 758 27.5318
128.825 762 27.6043
128.941 754 27.4591
129.058 838 28.9482
129.174 899 29.9833
129.291 935 30.5778
129.408 862 29.3598
129.524 912 30.1993
129.641 951 30.8383
129.758 824 28.7054
129.875 776 27.8568
129.992 797 28.2312
130.108 738 27.1662
130.225 735 27.1109
130.342 665 25.7876
130.459 700 26.4575
130.576 766 27.6767
130.693 789 28.0891
130.81 783 27.9821
130.928 870 29.4958
131.045 885 29.7489
131.162 899 29.9833
131.279 911 30.1828
131.396 903 30.05
131.513 850 29.1548
131.631 892 29.8664
131.748 783 27.9821
131.865 876 29.5973
131.983 806 28.3901
132.1 766 27.6767
132.217 752 27.4226
132.335 699 26.4386
132.452 742 27.2397
132.57 775 27.8388
132.687 844 29.0517
132.804 882 29.6985
132.922 832 28.8444
133.039 892 29.8664
133.157 874 29.5635
133.274 881 29.6816
133.392 840 28.9828
133.509 761 27.5862
133.627 720 26.8328
133.744 716 26.7582
133.862 660 25.6905
133.979 649 25.4755
134.097 808 28.4253
134.214 743 27.258
134.332 812 28.4956
134.449 834 28.8791
134.567 890 29.8329
134.684 815 28.5482
134.802 835 28.8964
134.919 898 29.9666
135.037 851 29.1719
135.154 843 29.0345
135.272 831 28.8271
135.389 810 28.4605
135.507 731 27.037
135.624 721 26.8514
135.742 700 26.4575
135.859 731 27.037
135.977 726 26.9444
136.094 710 26.6458
136.211 784 28
136.329 847 29.1033
136.446 789 28.0891
136.564 775 27.8388
136.681 839 28.9655
136.798 813 28.5132
136.915 818 28.6007
137.033 792 28.1425
137.15 710 26.6458
137.267 692 26.3059
137.384 642 25.3377
137.502 637 25.2389
137.619 661 25.7099
137.736 685 26.1725
137.853 706 26.5707
137.97 753 27.4408
138.087 693 26.3249
138.204 746 27.313
138.321 740 27.2029
138.438 737 27.1477
138.555 754 27.4591
138.672 792 28.1425
138.788 771 27.7669
138.905 668 25.8457
139.022 617 24.8395
139.139 600 24.4949
139.255 585 24.1868
139.372 520 22.8035
139.488 514 22.6716
139.605 503 22.4277
139.721 465 21.5639
139.838 481 21.9317
139.954 524 22.891
140.071 495 22.2486
140.187 444 21.0713
140.303 460 21.4476
140.419 356 18.868
140.535 344 18.5472
140.652 349 18.6815
140.768 0 1
140.884 0 1
141 0 1
141.115 0 1
141.231 0 1
141.347 0 1
141.463 0 1
141.578 0 1
141.694 0 1
144.104 0 1
144.219 0 1
144.335 0 1
144.45 0 1
144.566 0 1
144.682 0 1
144.798 0 1
144.914 0 1
145.03 0 1
145.146 562 23.7065
145.262 528 22.9783
145.378 617 24.8395
145.494 611 24.7184
145.61 574 23.9583
145.726 559 23.6432
145.842 535 23.1301
145.959 514 22.6716
146.075 463 21.5174
146.192 456 21.3542
146.308 465 21.5639
146.425 427 20.664
146.541 499 22.3383
146.658 483 21.9773
146.774 524 22.891
146.891 530 23.0217
147.008 570 23.8747
147.125 556 23.5797
147.241 547 23.388
147.358 591 24.3105
147.475 560 23.6643
147.592 516 22.7156
147.709 550 23.4521
147.826 506 22.4944
147.943 541 23.2594
148.06 504 22.4499
148.177 484 22
148.294 456 21.3542
148.411 500 22.3607
148.528 503 22.4277
148.645 550 23.4521
148.762 528 22.9783
148.88 524 22.891
148.997 594 24.3721
149.114 558 23.622
149.231 549 23.4307
149.349 595 24.3926
149.466 526 22.9347
149.583 523 22.8692
149.701 469 21.6564
149.818 467 21.6102
149.935 438 20.9284
150.053 417 20.4206
150.17 499 22.3383
150.287 475 21.7945
150.405 466 21.587
150.522 534 23.1084
150.64 518 22.7596
150.757 520 22.8035
150.875 559 23.6432
150.992 567 23.8118
151.11 578 24.0416
151.227 566 23.7908
151.344 509 22.561
151.462 524 22.891
151.579 468 21.6333
151.697 451 21.2368
151.814 446 21.1187
151.932 441 21
152.049 471 21.7025
152.167 497 22.2935
152.284 556 23.5797
152.402 521 22.8254
152.519 554 23.5372
152.636 514 22.6716
152.754 530 23.0217
152.871 563 23.7276
152.989 532 23.0651
153.106 496 22.2711
153.223 492 22.1811
153.341 441 21
153.458 448 21.166
153.575 447 21.1424
153.693 411 20.2731
153.81 426 20.6398
153.927 451 21.2368
154.044 466 21.587
154.162 543 23.3024
154.279 482 21.9545
154.396 522 22.8473
154.513 501 22.383
154.63 547 23.388
154.747 509 22.561
154.864 455 21.3307
154.981 467 21.6102
155.098 453 21.2838
155.215 473 21.7486
155.332 408 20.199
155.449 440 20.9762
155.566 426 20.6398
155.683 481 21.9317
155.8 451 21.2368
155.917 428 20.6882
156.033 448 21.166
156.15 0 1
156.267 0 1
156.383 0 1
156.5 0 1
156.617 0 1
156.733 0 1
156.85 0 1
156.966 0 1
157.082 0 1
157.199 0 1
157.315 0 1
157.431 0 1
157.547 0 1
157.664 0 1
157.78 0 1
157.896 0 1
158.012 0 1
158.128 0 1
158.244 0 1
158.359 0 1
158.475 0 1
158.591 0 1
158.706 0 1
