
6.15755 0 1
6.2731 0 1
6.3887 0 1
6.50437 0 1
6.62009 0 1
6.73587 0 1
6.8517 0 1
6.96759 0 1
7.08353 0 1
7.19952 0 1
7.31557 0 1
7.43166 0 1
7.54781 0 1
7.664 0 1
7.78024 0 1
7.89653 0 1
8.01286 0 1
8.12924 0 1
8.24567 0 1
8.36213 0 1
8.47864 0 1
8.59519 0 1
8.71178 0 1
8.82841 0 1
8.94508 0 1
9.06179 0 1
9.17853 0 1
9.29531 0 1
9.41212 0 1
9.52897 0 1
9.64584 0 1
9.76276 0 1
9.8797 0 1
9.99667 0 1
10.1137 0 1
10.2307 0 1
10.3478 0 1
10.4648 0 1
10.5819 0 1
10.6991 0 1
10.8162 0 1
10.9334 0 1
11.0506 0 1
11.1678 0 1
11.285 0 1
11.4023 0 1
11.5196 0 1
11.6369 0 1
11.7542 0 1
11.8715 0 1
11.9888 0 1
12.1062 0 1
12.2235 0 1
12.3409 0 1
12.4582 0 1
12.5756 0 1
12.693 0 1
12.8104 0 1
12.9278 0 1
13.0452 0 1
13.1626 0 1
13.28 0 1
13.3974 0 1
13.5149 0 1
13.6323 0 1
13.7497 0 1
13.8671 0 1
13.9845 0 1
14.1019 0 1
14.2193 0 1
14.3367 0 1
14.4541 0 1
14.5714 0 1
14.6888 0 1
14.8062 0 1
14.9235 0 1
15.0408 0 0
15.1581 0 0
15.2755 0 0
15.3927 0 0
15.51 0 0
15.6273 0 0
15.7445 0 0
15.8617 0 0
15.9789 0 0
16.0961 0 0
16.2132 0 0
16.3304 0 0
16.4475 0 0
16.5646 0 0
16.6816 0 0
16.7986 0 0
16.9156 0 0
17.0326 0 0
17.1496 0 0
17.2665 0 0
17.3833 0 0
17.5002 0 0
17.617 0 0
17.7338 0 0
17.8505 0 0
17.9672 0 0
18.0839 0 0
18.2005 0 0
18.3171 0 0
18.4337 0 0
18.5502 0 0
18.6666 0 0
18.7831 0 0
18.8994 0 0
19.0158 0 0
19.1321 0 0
19.2483 0 0
19.3645 0 0
19.4806 0 0
19.5967 0 0
19.7128 0 0
19.8288 0 0
19.9447 0 0
20.0606 0 1
20.1764 0 1
20.2922 0 1
20.4079 0 1
20.5236 0 1
20.6392 0 1
20.7548 0 1
20.8702 0 1
23.3078 0 1
23.4233 0 1
23.539 0 1
23.6547 0 1
23.7704 0 1
23.8862 0 1
24.0021 0 1
24.118 0 1
24.234 0 1
24.35 0 1
24.4661 58966 242.829
24.5822 58561 241.994
24.6984 58433 241.729
24.8146 57607 240.015
24.9309 57501 239.794
25.0472 56282 237.238
25.1636 54722 233.927
25.28 54747 233.981
25.3965 55681 235.968
25.513 56989 238.724
25.6296 59151 243.21
25.7462 61886 248.769
25.8628 64364 253.701
25.9795 66201 257.296
26.0962 67172 259.176
26.213 67319 259.459
26.3298 66408 257.697
26.4466 66692 258.248
26.5635 64854 254.664
26.6804 61862 248.721
26.7973 59161 243.23
26.9143 59131 243.169
27.0313 60551 246.071
27.1483 63244 251.484
27.2653 65209 255.361
27.3824 66027 256.957
27.4996 66195 257.284
27.6167 65269 255.478
27.7339 64480 253.929
27.8511 63429 251.851
27.9683 62708 250.416
28.0855 61889 248.775
28.2028 60656 246.284
28.3201 60203 245.363
28.4374 58817 242.522
28.5547 56681 238.078
28.6721 54764 234.017
28.7894 54365 233.163
28.9068 55425 235.425
29.0242 56487 237.67
29.1416 57569 239.935
29.259 59897 244.739
29.3764 62250 249.499
29.4939 63906 252.796
29.6113 65893 256.696
29.7288 66556 257.984
29.8463 66756 258.372
29.9638 66266 257.422
30.0812 64131 253.241
30.1987 61138 247.261
30.3162 58347 241.551
30.4337 57658 240.121
30.5512 60065 245.082
30.6687 62812 250.623
30.7862 63418 251.829
30.9037 66379 257.641
31.0212 66419 257.719
31.1387 66561 257.994
31.2562 66114 257.126
31.3737 65199 255.341
31.4912 64633 254.23
31.6087 63684 252.357
31.7262 62647 250.294
31.8436 61402 247.794
31.9611 60079 245.11
32.0785 58429 241.721
32.1959 56515 237.729
32.3134 55535 235.659
32.4308 55304 235.168
32.5482 56607 237.922
32.6655 58368 241.595
32.7829 60362 245.687
32.9002 63164 251.324
33.0176 65060 255.069
33.1349 66328 257.542
33.2522 66083 257.066
33.3694 67606 260.012
33.4867 67246 259.318
33.6039 66894 258.639
33.7211 65433 255.799
33.8383 61925 248.847
33.9554 59008 242.916
34.0725 57425 239.635
34.1896 59244 243.401
34.3067 61852 248.701
34.4237 63285 251.565
34.5407 64874 254.704
34.6577 67025 258.892
34.7746 66444 257.767
34.8915 66028 256.959
35.0084 65557 256.041
35.1252 64229 253.434
35.242 63639 252.268
35.3587 62290 249.58
35.4755 61518 248.028
35.5921 60830 246.637
35.7088 58847 242.584
35.8254 57489 239.769
35.9419 54999 234.519
36.0584 53792 231.931
36.1749 54750 233.987
36.2913 55272 235.1
36.4077 56544 237.79
36.524 58176 241.197
36.6403 60799 246.575
36.7565 63371 251.736
36.8727 64489 253.947
36.9889 64820 254.598
37.1049 64421 253.813
37.221 0 1
37.3369 0 1
37.4529 0 1
37.5687 0 1
37.6845 0 1
37.8003 0 1
37.916 0 1
38.0316 0 1
38.1472 0 1
40.5851 0 1
40.7008 0 1
40.8164 0 1
40.9322 0 1
41.048 0 1
41.1639 0 1
41.2798 0 1
41.3958 0 1
41.5118 0 1
41.6279 0 1
41.744 48807 220.923
41.8602 52993 230.202
41.9765 55264 235.083
42.0928 56281 237.236
42.2091 56367 237.417
42.3255 57643 240.09
42.4419 57112 238.981
42.5584 54688 233.855
42.675 51636 227.236
42.7915 48779 220.86
42.9081 48832 220.98
43.0248 51552 227.051
43.1415 53433 231.156
43.2582 54690 233.859
43.375 55756 236.127
43.4918 56610 237.929
43.6087 56052 236.753
43.7256 56379 237.443
43.8425 55039 234.604
43.9595 54035 232.454
44.0765 52940 230.087
44.1935 52384 228.876
44.3106 50750 225.278
44.4277 49797 223.152
44.5448 47171 217.189
44.6619 44453 210.839
44.7791 42084 205.144
44.8963 41768 204.372
45.0136 42250 205.548
45.1308 43780 209.237
45.2481 45178 212.551
45.3654 46188 214.914
45.4827 49226 221.869
45.6001 48776 220.853
45.7174 48827 220.968
45.8348 48390 219.977
45.9522 48502 220.232
46.0697 47177 217.203
46.1871 44167 210.159
46.3046 40694 201.728
46.422 38987 197.451
46.5395 39814 199.534
46.657 41571 203.89
46.7745 42969 207.29
46.892 43886 209.49
47.0096 44054 209.89
47.1271 44280 210.428
47.2446 43982 209.719
47.3622 42809 206.903
47.4797 42230 205.499
47.5973 41422 203.524
47.7149 40166 200.415
47.8324 38661 196.624
47.95 37728 194.237
48.0675 37100 192.614
48.1851 34698 186.274
48.3027 32602 180.56
48.4202 31947 178.737
48.5378 32544 180.4
48.6554 33290 182.455
48.7729 34779 186.491
48.8904 37150 192.743
49.008 38941 197.335
49.1255 40182 200.454
49.243 40658 201.638
49.3605 40415 201.035
49.478 40640 201.594
49.5955 38974 197.418
49.713 36753 191.711
49.8304 34686 186.242
49.9479 34142 184.776
50.0653 35164 187.521
50.1827 38755 196.863
50.3001 41020 202.534
50.4175 42484 206.116
50.5348 44264 210.39
50.6521 44632 211.263
50.7694 45759 213.914
50.8867 46153 214.832
51.004 46184 214.905
51.1212 46260 215.081
51.2384 46365 215.325
51.3556 46469 215.567
51.4727 45808 214.028
51.5899 44608 211.206
51.707 43511 208.593
51.824 41314 203.258
51.9411 41498 203.711
52.0581 42761 206.787
52.175 44813 211.691
52.2919 47148 217.136
52.4088 50832 225.46
52.5257 53295 230.857
52.6425 54355 233.142
52.7593 54450 233.345
52.876 54690 233.859
52.9927 55408 235.389
53.1094 55540 235.669
53.226 53094 230.421
53.3426 49564 222.63
53.4591 47289 217.46
53.5756 46294 215.16
53.692 48468 220.154
53.8084 51827 227.655
53.9248 54351 233.133
54.0411 56054 236.757
54.1573 57082 238.918
54.2735 0 1
54.3896 0 1
54.5057 0 1
54.6217 0 1
54.7377 0 1
54.8537 0 1
54.9695 0 1
55.0853 0 1
55.2011 0 1
55.3168 0 1
55.4324 0 1
57.824 0 1
57.9396 0 1
58.0553 0 1
58.1711 0 1
58.2869 0 1
58.4028 0 1
58.5187 0 1
58.6347 0 1
58.7508 0 1
58.8669 0 1
58.983 57960 240.749
59.0992 62649 250.298
59.2155 65445 255.822
59.3318 67494 259.796
59.4482 68407 261.547
59.5646 68584 261.885
59.681 67934 260.642
59.7975 67898 260.572
59.9141 65997 256.899
60.0306 64440 253.85
60.1473 62972 250.942
60.2639 60016 244.982
60.3807 57996 240.824
60.4974 55493 235.57
60.6142 54221 232.854
60.731 55012 234.546
60.8479 55157 234.855
60.9648 57768 240.35
61.0818 60918 246.816
61.1987 62158 249.315
61.3158 64295 253.565
61.4328 63297 251.589
61.5499 63682 252.353
61.667 62677 250.354
61.7841 59865 244.673
61.9013 56689 238.095
62.0185 53859 232.075
62.1357 53512 231.327
62.253 54733 233.951
62.3702 57778 240.371
62.4875 59818 244.577
62.6049 61623 248.24
62.7222 64398 253.768
62.8396 64358 253.689
62.9569 64918 254.79
63.0743 64672 254.307
63.1918 64269 253.513
63.3092 62720 250.44
63.4267 61750 248.495
63.5441 59940 244.826
63.6616 58294 241.442
63.7791 55423 235.421
63.8966 53258 230.777
64.0142 50943 225.706
64.1317 49465 222.407
64.2492 49800 223.159
64.3668 51735 227.453
64.4843 53759 231.86
64.6019 57014 238.776
64.7195 58480 241.826
64.837 60013 244.976
64.9546 60406 245.776
65.0722 59845 244.632
65.1898 58476 241.818
65.3074 57400 239.583
65.4249 53491 231.281
65.5425 50212 224.08
65.6601 48590 220.431
65.7777 48962 221.274
65.8952 51559 227.066
66.0128 54712 233.906
66.1304 56864 238.462
66.2479 59235 243.382
66.3655 60363 245.689
66.483 61236 247.459
66.6005 61497 247.986
66.718 60849 246.676
66.8355 60735 246.445
66.953 59646 244.225
67.0705 58541 241.952
67.1879 56823 238.376
67.3054 55000 234.521
67.4228 52708 229.582
67.5402 49795 223.148
67.6576 47229 217.322
67.7749 47370 217.647
67.8923 47799 218.63
68.0096 49998 223.602
68.1269 52320 228.736
68.2442 55916 236.466
68.3614 58322 241.499
68.4787 59322 243.561
68.5958 59378 243.676
68.713 59323 243.563
68.8302 58751 242.386
68.9473 57134 239.027
69.0643 53034 230.291
69.1814 50402 224.504
69.2984 48426 220.059
69.4154 49570 222.643
69.5323 52977 230.167
69.6492 56545 237.792
69.7661 58713 242.308
69.8829 61881 248.759
69.9997 63209 251.414
70.1165 63823 252.632
70.2332 64223 253.423
70.3499 63697 252.383
70.4665 63976 252.935
70.5831 62632 250.264
70.6996 60697 246.368
70.8161 59520 243.967
70.9326 57581 239.96
71.049 54764 234.017
71.1653 51925 227.871
71.2817 48385 219.966
71.3979 46099 214.707
71.5141 45622 213.593
71.6303 45797 214.002
71.7464 43870 209.452
71.8624 0 1
71.9784 0 1
72.0944 0 1
72.2102 0 1
72.3261 0 1
72.4418 0 1
72.5575 0 1
72.6732 0 1
75.1054 0 1
75.2209 0 1
75.3365 0 1
75.4521 0 1
75.5678 0 1
75.6835 0 1
75.7993 0 1
75.9151 0 1
76.031 0 1
76.147 51326 226.552
76.263 55341 235.247
76.3791 54980 234.478
76.4952 52606 229.36
76.6113 49338 222.122
76.7276 46572 215.805
76.8438 47689 218.378
76.9601 48723 220.733
77.0765 51241 226.365
77.1929 54589 233.643
77.3093 58796 242.479
77.4258 60272 245.504
77.5423 60514 245.996
77.6589 60584 246.138
77.7755 59924 244.794
77.8921 58729 242.341
78.0088 54462 233.371
78.1256 50527 224.782
78.2423 47242 217.352
78.3591 45854 214.135
78.4759 46543 215.738
78.5928 51169 226.206
78.7097 54361 233.154
78.8266 57148 239.056
78.9436 60104 245.161
79.0606 61238 247.463
79.1776 62100 249.199
79.2946 62644 250.288
79.4117 62304 249.608
79.5288 61867 248.731
79.6459 61407 247.804
79.7631 58973 242.844
79.8802 57669 240.144
79.9974 55099 234.732
80.1147 52462 229.046
80.2319 48904 221.142
80.3491 45890 214.22
80.4664 45920 214.29
80.5837 47357 217.617
80.701 49199 221.808
80.8183 52347 228.795
80.9357 56253 237.177
81.053 57845 240.51
81.1704 57985 240.801
81.2877 58003 240.838
81.4051 57696 240.2
81.5225 56541 237.784
81.6399 51852 227.71
81.7573 49168 221.739
81.8747 44860 211.802
81.9922 42879 207.072
82.1096 44594 211.173
82.227 47736 218.486
82.3444 50980 225.788
82.4619 54538 233.534
82.5793 57181 239.125
82.6967 56029 236.704
82.8142 57066 238.885
82.9316 57879 240.581
83.049 57713 240.235
83.1664 56294 237.264
83.2838 55994 236.631
83.4012 53948 232.267
83.5186 52088 228.228
83.636 50247 224.158
83.7534 47882 218.82
83.8708 44705 211.436
83.9881 41501 203.718
84.1055 41506 203.73
84.2228 43239 207.94
84.3401 45522 213.359
84.4575 49358 222.167
84.5747 52816 229.817
84.692 54653 233.78
84.8093 55741 236.095
84.9265 54712 233.906
85.0437 54550 233.559
85.1609 51517 226.974
85.2781 47680 218.358
85.3952 44707 211.44
85.5123 42968 207.287
85.6294 42866 207.041
85.7465 46194 214.928
85.8636 50797 225.382
85.9806 53745 231.83
86.0976 56777 238.279
86.2145 59095 243.095
86.3315 60504 245.976
86.4484 62202 249.403
86.5652 62632 250.264
86.682 62966 250.93
86.7988 62518 250.036
86.9156 61323 247.635
87.0323 60037 245.024
87.149 57827 240.472
87.2657 56135 236.928
87.3823 52704 229.574
87.4988 49180 221.766
87.6154 48153 219.438
87.7318 50166 223.978
87.8483 52865 229.924
87.9647 56595 237.897
88.081 61391 247.772
88.1973 63813 252.612
88.3136 64231 253.438
88.4298 63545 252.081
88.546 63293 251.581
88.6621 60577 246.124
88.7781 55717 236.044
88.8942 0 1
89.0101 0 1
89.126 0 1
89.2419 0 1
89.3577 0 1
89.4734 0 1
89.5891 0 1
89.7047 0 1
89.8203 0 1
89.9358 0 1
92.3269 0 1
92.4424 0 1
92.558 0 1
92.6736 0 1
92.7893 0 1
92.905 0 1
93.0208 0 1
93.1366 0 1
93.2525 0 1
93.3685 0 1
93.4845 0 1
93.6005 61980 248.958
93.7167 63401 251.796
93.8328 63447 251.887
93.949 63667 252.323
94.0653 61896 248.789
94.1816 60023 244.996
94.2979 55389 235.349
94.4143 52432 228.98
94.5307 50635 225.022
94.6472 50236 224.134
94.7637 51326 226.552
94.8803 55587 235.769
94.9969 59665 244.264
95.1135 63024 251.046
95.2302 65147 255.239
95.3469 66817 258.49
95.4637 68010 260.787
95.5805 68894 262.477
95.6973 70604 265.714
95.8142 70440 265.405
95.9311 69229 263.114
96.048 68454 261.637
96.1649 66371 257.626
96.2819 65109 255.165
96.3989 62231 249.461
96.516 59811 244.563
96.633 55605 235.807
96.7501 54636 233.743
96.8673 54769 234.028
96.9844 57220 239.207
97.1016 60154 245.263
97.2188 65233 255.408
97.336 67953 260.678
97.4532 70002 264.579
97.5704 69687 263.983
97.6877 68225 261.199
97.805 65605 256.135
97.9223 61582 248.157
98.0396 56904 238.546
98.1569 53909 232.183
98.2743 52588 229.321
98.3916 53195 230.64
98.509 57816 240.45
98.6264 62003 249.004
98.7438 66042 256.986
98.8612 68476 261.679
98.9786 70811 266.103
99.096 72575 269.397
99.2134 72943 270.08
99.3308 74394 272.753
99.4482 73880 271.809
99.5656 73076 270.326
99.6831 72315 268.914
99.8005 69487 263.604
99.9179 68456 261.641
100.035 64866 254.688
100.153 61764 248.524
100.27 58234 241.317
100.388 57382 239.545
100.505 59327 243.571
100.622 63135 251.267
100.74 67397 259.609
100.857 71221 266.873
100.975 72832 269.874
101.092 72489 269.238
101.209 72244 268.782
101.327 70936 266.338
101.444 67496 259.8
101.561 62326 249.652
101.679 58765 242.415
101.796 55384 235.338
101.913 55718 236.047
102.03 58905 242.704
102.148 64110 253.2
102.265 73245 270.638
102.382 67888 260.553
102.499 75034 273.923
102.616 76595 276.758
102.733 77853 279.022
102.851 78404 280.007
102.968 78573 280.309
103.085 78382 279.968
103.202 76573 276.718
103.319 75708 275.151
103.436 73252 270.651
103.552 70440 265.405
103.669 66740 258.341
103.786 62404 249.808
103.903 61052 247.087
104.02 63762 252.511
104.137 67486 259.781
104.253 74787 273.472
104.37 74155 272.314
104.487 79517 281.988
104.603 78325 279.866
104.72 78048 279.371
104.836 76064 275.797
104.953 71358 267.129
105.069 66224 257.34
105.186 62193 249.385
105.302 60119 245.192
105.418 60691 246.355
105.535 65039 255.027
105.651 71100 266.646
105.767 75099 274.042
105.883 79137 281.313
105.999 80730 284.13
106.115 0 1
106.231 0 1
106.347 0 1
106.463 0 1
106.579 0 1
106.694 0 1
106.81 0 1
106.926 0 1
107.041 0 1
107.157 0 1
109.576 0 1
109.692 0 1
109.807 0 1
109.923 0 1
110.039 0 1
110.155 0 1
110.27 0 1
110.386 0 1
110.502 0 1
110.618 63844 252.674
110.735 71112 266.668
110.851 75541 274.847
110.967 78437 280.066
111.083 80106 283.03
111.199 81749 285.918
111.316 83136 288.333
111.432 83236 288.506
111.549 82559 287.331
111.665 81916 286.21
111.782 80201 283.198
111.898 77984 279.256
112.015 74831 273.553
112.132 71664 267.701
112.248 67057 258.954
112.365 63937 252.858
112.482 64981 254.914
112.599 66859 258.571
112.716 72075 268.468
112.832 76702 276.951
112.949 78429 280.052
113.066 78762 280.646
113.183 78672 280.485
113.3 76821 277.166
113.417 74797 273.49
113.534 69249 263.152
113.652 64949 254.851
113.769 60751 246.477
113.886 59407 243.736
114.003 58896 242.685
114.12 64740 254.441
114.238 69814 264.223
114.355 73901 271.847
114.472 80442 283.623
114.589 74402 272.767
114.707 78818 280.745
114.824 79688 282.291
114.942 80354 283.468
115.059 81382 285.275
115.176 79921 282.703
115.294 78669 280.48
115.411 76863 277.242
115.529 74521 272.985
115.646 71732 267.828
115.764 67919 260.613
115.881 63641 252.272
115.999 62788 250.575
116.116 64729 254.419
116.234 68352 261.442
116.351 72551 269.353
116.469 74755 273.414
116.586 75156 274.146
116.704 74994 273.85
116.821 74689 273.293
116.939 72215 268.728
117.056 68170 261.094
117.174 64560 254.087
117.291 59752 244.442
117.409 57523 239.84
117.526 56594 237.895
117.644 59182 243.274
117.761 64253 253.482
117.879 68080 260.921
117.996 70568 265.646
118.114 72752 269.726
118.231 74369 272.707
118.349 74204 272.404
118.466 75687 275.113
118.584 75713 275.16
118.701 76131 275.918
118.819 75075 273.998
118.936 72925 270.046
119.053 71254 266.934
119.171 68981 262.642
119.288 66475 257.827
119.405 62425 249.85
119.523 59491 243.908
119.64 59127 243.16
119.757 61209 247.405
119.875 64610 254.185
119.992 67422 259.657
120.109 69101 262.871
120.226 69945 264.471
120.343 69344 263.332
120.46 69281 263.213
120.578 67754 260.296
120.695 64168 253.314
120.812 60076 245.104
120.929 57544 239.883
121.046 55297 235.153
121.163 53745 231.83
121.279 55272 235.1
121.396 58946 242.788
121.513 62482 249.964
121.63 65482 255.895
121.747 69388 263.416
121.863 69563 263.748
121.98 69871 264.331
122.097 71424 267.253
122.213 70491 265.501
122.33 71384 267.178
122.446 70491 265.501
122.563 69027 262.73
122.679 67229 259.286
122.795 66348 257.581
122.912 64160 253.298
123.028 61168 247.322
123.144 57454 239.696
123.26 55464 235.508
123.377 0 1
123.493 0 1
123.609 0 1
123.725 0 1
123.84 0 1
123.956 0 1
124.072 0 1
124.188 0 1
124.303 0 1
124.419 0 1
126.852 0 1
126.968 0 1
127.083 0 1
127.199 0 1
127.315 0 1
127.431 0 1
127.547 0 1
127.663 0 1
127.779 0 1
127.895 0 1
128.011 0 1
128.127 0 1
128.243 0 1
128.359 62810 250.619
128.476 60880 246.739
128.592 60449 245.864
128.708 63122 251.241
128.825 65955 256.817
128.941 69541 263.706
129.058 71554 267.496
129.174 72043 268.408
129.291 71907 268.155
129.408 71033 266.52
129.524 68648 262.008
129.641 65534 255.996
129.758 61234 247.455
129.875 58640 242.157
129.992 56634 237.979
130.108 56495 237.687
130.225 57561 239.919
130.342 62077 249.153
130.459 65429 255.791
130.576 69901 264.388
130.693 70689 265.874
130.81 71078 266.605
130.928 72437 269.141
131.045 73364 270.858
131.162 73448 271.013
131.279 73595 271.284
131.396 73308 270.755
131.513 72391 269.056
131.631 70573 265.656
131.748 69311 263.27
131.865 66228 257.348
131.983 63554 252.099
132.1 61910 248.817
132.217 63505 252.002
132.335 66440 257.76
132.452 69524 263.674
132.57 71339 267.094
132.687 69459 263.551
132.804 74624 273.174
132.922 71502 267.399
133.039 69978 264.534
133.157 67250 259.326
133.274 62547 250.094
133.392 59760 244.459
133.509 58015 240.863
133.627 56423 237.535
133.744 57967 240.763
133.862 61827 248.65
133.979 65209 255.361
134.097 67891 260.559
134.214 70142 264.843
134.332 69983 264.543
134.449 71274 266.972
134.567 72194 268.689
134.684 73237 270.623
134.802 73930 271.901
134.919 73719 271.512
135.037 72550 269.351
135.154 71405 267.217
135.272 69415 263.467
135.389 68352 261.442
135.507 65075 255.098
135.624 62035 249.068
135.742 62785 250.569
135.859 65619 256.162
135.977 68563 261.845
136.094 71070 266.59
136.211 72122 268.555
136.329 72007 268.341
136.446 71778 267.914
136.564 70910 266.289
136.681 67923 260.62
136.798 65161 255.267
136.915 61472 247.935
137.033 59297 243.51
137.15 57423 239.631
137.267 55794 236.208
137.384 57964 240.757
137.502 61246 247.479
137.619 64387 253.746
137.736 66368 257.62
137.853 67431 259.675
137.97 70124 264.809
138.087 68913 262.513
138.204 71878 268.101
138.321 72383 269.041
138.438 73438 270.994
138.555 74100 272.213
138.672 73724 271.522
138.788 72637 269.513
138.905 71243 266.914
139.022 69183 263.027
139.139 66431 257.742
139.255 64536 254.039
139.372 65258 255.456
139.488 67601 260.002
139.605 71092 266.631
139.721 73473 271.059
139.838 74365 272.699
139.954 74388 272.742
140.071 73351 270.834
140.187 72836 269.881
140.303 70466 265.454
140.419 66838 258.53
140.535 63389 251.772
140.652 60394 245.752
140.768 0 1
140.884 0 1
141 0 1
141.115 0 1
141.231 0 1
141.347 0 1
141.463 0 1
141.578 0 1
141.694 0 1
144.104 0 1
144.219 0 1
144.335 0 1
144.45 0 1
144.566 0 1
144.682 0 1
144.798 0 1
144.914 0 1
145.03 0 1
145.146 63079 251.155
145.262 62620 250.24
145.378 60167 245.29
145.494 56949 238.64
145.61 54688 233.855
145.726 52895 229.989
145.842 51868 227.745
145.959 51408 226.733
146.075 53809 231.968
146.192 56445 237.582
146.308 58567 242.006
146.425 59945 244.837
146.541 60760 246.495
146.658 61995 248.988
146.774 62669 250.338
146.891 63616 252.222
147.008 63765 252.517
147.125 65667 256.256
147.241 65208 255.359
147.358 64244 253.464
147.475 62491 249.982
147.592 61148 247.281
147.709 58930 242.755
147.826 56251 237.173
147.943 55692 235.992
148.06 56425 237.539
148.177 59752 244.442
148.294 62086 249.171
148.411 63040 251.078
148.528 63074 251.145
148.645 62773 250.545
148.762 62246 249.491
148.88 61295 247.578
148.997 57262 239.295
149.114 57605 240.01
149.231 53464 231.223
149.349 52388 228.884
149.466 49511 222.511
149.583 49746 223.038
149.701 50348 224.384
149.818 53433 231.156
149.935 55619 235.837
150.053 56598 237.903
150.17 57384 239.55
150.287 58991 242.881
150.405 59971 244.89
150.522 60873 246.725
150.64 61387 247.764
150.757 61861 248.719
150.875 61530 248.052
150.992 61850 248.697
151.11 60099 245.151
151.227 58868 242.627
151.344 56480 237.655
151.462 53376 231.032
151.579 53902 232.168
151.697 54868 234.239
151.814 57573 239.944
151.932 60664 246.301
152.049 61403 247.796
152.167 61081 247.146
152.284 61990 248.978
152.402 60768 246.512
152.519 59003 242.905
152.636 56861 238.455
152.754 54098 232.59
152.871 52312 228.718
152.989 51129 226.117
153.106 49157 221.714
153.223 49122 221.635
153.341 51250 226.385
153.458 53441 231.173
153.575 55588 235.771
153.693 56972 238.688
153.81 58361 241.58
153.927 59470 243.865
154.044 60553 246.075
154.162 61748 248.491
154.279 63267 251.529
154.396 64186 253.35
154.513 64465 253.9
154.63 63950 252.883
154.747 63060 251.118
154.864 62208 249.415
154.981 59789 244.518
155.098 57803 240.423
155.215 56475 237.645
155.332 59160 243.228
155.449 61328 247.645
155.566 63105 251.207
155.683 64210 253.397
155.8 63953 252.889
155.917 64199 253.375
156.033 63408 251.809
156.15 0 1
156.267 0 1
156.383 0 1
156.5 0 1
156.617 0 1
156.733 0 1
156.85 0 1
156.966 0 1
157.082 0 1
157.199 0 1
157.315 0 1
157.431 0 1
157.547 0 1
157.664 0 1
157.78 0 1
157.896 0 1
158.012 0 1
158.128 0 1
158.244 0 1
158.359 0 1
158.475 0 1
158.591 0 1
158.706 0 1
