
6.15755 0 1
6.2731 0 1
6.3887 0 1
6.50437 0 1
6.62009 0 1
6.73587 0 1
6.8517 0 1
6.96759 0 1
7.08353 0 1
7.19952 0 1
7.31557 0 1
7.43166 0 1
7.54781 0 1
7.664 0 1
7.78024 0 1
7.89653 0 1
8.01286 0 1
8.12924 0 1
8.24567 0 1
8.36213 0 1
8.47864 0 1
8.59519 0 1
8.71178 0 1
8.82841 0 1
8.94508 0 1
9.06179 0 1
9.17853 0 1
9.29531 0 1
9.41212 0 1
9.52897 0 1
9.64584 0 1
9.76276 0 1
9.8797 0 1
9.99667 0 1
10.1137 0 1
10.2307 0 1
10.3478 0 1
10.4648 0 1
10.5819 0 1
10.6991 0 1
10.8162 0 1
10.9334 0 1
11.0506 0 1
11.1678 0 1
11.285 0 1
11.4023 0 1
11.5196 0 1
11.6369 0 1
11.7542 0 1
11.8715 0 1
11.9888 0 1
12.1062 0 1
12.2235 0 1
12.3409 0 1
12.4582 0 1
12.5756 0 1
12.693 0 1
12.8104 0 1
12.9278 0 1
13.0452 0 1
13.1626 0 1
13.28 0 1
13.3974 0 1
13.5149 0 1
13.6323 0 1
13.7497 0 1
13.8671 0 1
13.9845 0 1
14.1019 0 1
14.2193 0 1
14.3367 0 1
14.4541 0 1
14.5714 0 1
14.6888 0 1
14.8062 0 1
14.9235 0 1
15.0408 0 0
15.1581 0 0
15.2755 0 0
15.3927 0 0
15.51 0 0
15.6273 0 0
15.7445 0 0
15.8617 0 0
15.9789 0 0
16.0961 0 0
16.2132 0 0
16.3304 0 0
16.4475 0 0
16.5646 0 0
16.6816 0 0
16.7986 0 0
16.9156 0 0
17.0326 0 0
17.1496 0 0
17.2665 0 0
17.3833 0 0
17.5002 0 0
17.617 0 0
17.7338 0 0
17.8505 0 0
17.9672 0 0
18.0839 0 0
18.2005 0 0
18.3171 0 0
18.4337 0 0
18.5502 0 0
18.6666 0 0
18.7831 0 0
18.8994 0 0
19.0158 0 0
19.1321 0 0
19.2483 0 0
19.3645 0 0
19.4806 0 0
19.5967 0 0
19.7128 0 0
19.8288 0 0
19.9447 0 0
20.0606 0 1
20.1764 0 1
20.2922 0 1
20.4079 0 1
20.5236 0 1
20.6392 0 1
20.7548 0 1
20.8702 0 1
23.3078 0 1
23.4233 0 1
23.539 0 1
23.6547 0 1
23.7704 0 1
23.8862 0 1
24.0021 0 1
24.118 0 1
24.234 0 1
24.35 0 1
24.4661 23331 152.745
24.5822 23673 153.86
24.6984 23675 153.867
24.8146 23457 153.157
24.9309 22898 151.321
25.0472 22427 149.756
25.1636 22469 149.897
25.28 23091 151.957
25.3965 23317 152.699
25.513 24338 156.006
25.6296 25387 159.333
25.7462 26425 162.558
25.8628 26596 163.083
25.9795 26894 163.994
26.0962 26567 162.994
26.213 26866 163.909
26.3298 25444 159.512
26.4466 24990 158.082
26.5635 23843 154.412
26.6804 23478 153.225
26.7973 23877 154.522
26.9143 24658 157.029
27.0313 24814 157.525
27.1483 26110 161.586
27.2653 26469 162.693
27.3824 26439 162.601
27.4996 27125 164.697
27.6167 26196 161.852
27.7339 25880 160.873
27.8511 25483 159.634
27.9683 25234 158.852
28.0855 24591 156.815
28.2028 24341 156.016
28.3201 23598 153.616
28.4374 22999 151.654
28.5547 22247 149.154
28.6721 21847 147.807
28.7894 21995 148.307
28.9068 22727 150.755
29.0242 23444 153.114
29.1416 24056 155.1
29.259 24507 156.547
29.3764 25142 158.562
29.4939 25459 159.559
29.6113 25686 160.269
29.7288 25257 158.925
29.8463 24488 156.486
29.9638 23692 153.922
30.0812 22498 149.993
30.1987 21888 147.946
30.3162 22498 149.993
30.4337 23080 151.921
30.5512 24193 155.541
30.6687 24771 157.388
30.7862 24778 157.41
30.9037 25903 160.944
31.0212 25971 161.155
31.1387 25804 160.636
31.2562 25354 159.229
31.3737 25326 159.141
31.4912 25034 158.221
31.6087 24559 156.713
31.7262 24088 155.203
31.8436 23400 152.971
31.9611 22787 150.954
32.0785 22485 149.95
32.1959 21647 147.129
32.3134 21827 147.74
32.4308 22404 149.68
32.5482 22780 150.93
32.6655 23873 154.509
32.7829 24408 156.231
32.9002 25041 158.243
33.0176 24772 157.391
33.1349 24967 158.009
33.2522 25121 158.496
33.3694 25325 159.138
33.4867 24554 156.697
33.6039 23570 153.525
33.7211 22363 149.543
33.8383 22025 148.408
33.9554 22102 148.667
34.0725 22553 150.177
34.1896 23708 153.974
34.3067 24507 156.547
34.4237 24563 156.726
34.5407 25440 159.499
34.6577 25359 159.245
34.7746 25533 159.79
34.8915 25514 159.731
35.0084 24880 157.734
35.1252 24831 157.579
35.242 24647 156.994
35.3587 24004 154.932
35.4755 23947 154.748
35.5921 23319 152.706
35.7088 22474 149.913
35.8254 21397 146.277
35.9419 21184 145.547
36.0584 21427 146.38
36.1749 21966 148.209
36.2913 22460 149.867
36.4077 23126 152.072
36.524 24109 155.271
36.6403 24184 155.512
36.7565 24778 157.41
36.8727 24476 156.448
36.9889 24505 156.541
37.1049 23736 154.065
37.221 0 1
37.3369 0 1
37.4529 0 1
37.5687 0 1
37.6845 0 1
37.8003 0 1
37.916 0 1
38.0316 0 1
38.1472 0 1
40.5851 0 1
40.7008 0 1
40.8164 0 1
40.9322 0 1
41.048 0 1
41.1639 0 1
41.2798 0 1
41.3958 0 1
41.5118 0 1
41.6279 0 1
41.744 19196 138.55
41.8602 20336 142.604
41.9765 20768 144.111
42.0928 21055 145.103
42.2091 21149 145.427
42.3255 20514 143.227
42.4419 19564 139.871
42.5584 18784 137.055
42.675 18256 135.115
42.7915 18947 137.648
42.9081 19777 140.631
43.0248 20422 142.906
43.1415 20614 143.576
43.2582 20932 144.679
43.375 21404 146.301
43.4918 21640 147.105
43.6087 21376 146.205
43.7256 21207 145.626
43.8425 20883 144.51
43.9595 20542 143.325
44.0765 20296 142.464
44.1935 19469 139.531
44.3106 18908 137.506
44.4277 18670 136.638
44.5448 17313 131.579
44.6619 16738 129.375
44.7791 16118 126.957
44.8963 16476 128.359
45.0136 16939 130.15
45.1308 17107 130.794
45.2481 17871 133.682
45.3654 17978 134.082
45.4827 18375 135.554
45.6001 17921 133.869
45.7174 17896 133.776
45.8348 17580 132.59
45.9522 16794 129.592
46.0697 15713 125.352
46.1871 15113 122.935
46.3046 14958 122.303
46.422 15354 123.911
46.5395 16305 127.691
46.657 16551 128.651
46.7745 16875 129.904
46.892 17096 130.752
47.0096 17041 130.541
47.1271 17140 130.92
47.2446 16633 128.969
47.3622 16846 129.792
47.4797 16093 126.858
47.5973 15933 126.226
47.7149 15582 124.828
47.8324 15046 122.662
47.95 14199 119.16
48.0675 13792 117.439
48.1851 12719 112.779
48.3027 12375 111.243
48.4202 12715 112.761
48.5378 12733 112.841
48.6554 13224 114.996
48.7729 13751 117.265
48.8904 14282 119.507
49.008 14255 119.394
49.1255 14412 120.05
49.243 14402 120.008
49.3605 14226 119.273
49.478 13402 115.767
49.5955 12818 113.217
49.713 12485 111.736
49.8304 12613 112.308
49.9479 13103 114.468
50.0653 14133 118.882
50.1827 14713 121.297
50.3001 15449 124.294
50.4175 15639 125.056
50.5348 16279 127.589
50.6521 16843 129.781
50.7694 16937 130.142
50.8867 17177 131.061
51.004 17325 131.624
51.1212 17682 132.974
51.2384 17484 132.227
51.3556 17446 132.083
51.4727 17003 130.396
51.5899 16368 127.937
51.707 15667 125.168
51.824 16134 127.02
51.9411 16526 128.553
52.0581 16912 130.046
52.175 17960 134.015
52.2919 18793 137.088
52.4088 19703 140.367
52.5257 19833 140.83
52.6425 20316 142.534
52.7593 20516 143.234
52.876 20711 143.913
52.9927 20001 141.425
53.1094 19429 139.388
53.226 18887 137.43
53.3426 18134 134.663
53.4591 18713 136.795
53.5756 19959 141.276
53.692 21463 146.503
53.8084 22029 148.422
53.9248 22976 151.578
54.0411 23854 154.447
54.1573 24299 155.881
54.2735 0 1
54.3896 0 1
54.5057 0 1
54.6217 0 1
54.7377 0 1
54.8537 0 1
54.9695 0 1
55.0853 0 1
55.2011 0 1
55.3168 0 1
55.4324 0 1
57.824 0 1
57.9396 0 1
58.0553 0 1
58.1711 0 1
58.2869 0 1
58.4028 0 1
58.5187 0 1
58.6347 0 1
58.7508 0 1
58.8669 0 1
58.983 25461 159.565
59.0992 26938 164.128
59.2155 27972 167.248
59.3318 28818 169.759
59.4482 29467 171.66
59.5646 29049 170.438
59.681 28598 169.109
59.7975 28528 168.902
59.9141 27648 166.277
60.0306 26760 163.585
60.1473 25872 160.848
60.2639 24568 156.742
60.3807 23047 151.812
60.4974 22487 149.957
60.6142 22051 148.496
60.731 22726 150.751
60.8479 23376 152.892
60.9648 24346 156.032
61.0818 25015 158.161
61.1987 25291 159.031
61.3158 25265 158.95
61.4328 25031 158.212
61.5499 24278 155.814
61.667 23228 152.407
61.7841 22035 148.442
61.9013 21635 147.088
62.0185 21682 147.248
62.1357 22507 150.023
62.253 23726 154.032
62.3702 24620 156.908
62.4875 25227 158.83
62.6049 25926 161.016
62.7222 26280 162.111
62.8396 26493 162.767
62.9569 27062 164.505
63.0743 26755 163.57
63.1918 26269 162.077
63.3092 26053 161.409
63.4267 25253 158.912
63.5441 24562 156.723
63.6616 23204 152.329
63.7791 21834 147.763
63.8966 20601 143.53
64.0142 19962 141.287
64.1317 19825 140.801
64.2492 20338 142.611
64.3668 21154 145.444
64.4843 21890 147.953
64.6019 22476 149.92
64.7195 22705 150.682
64.837 23086 151.941
64.9546 23009 151.687
65.0722 22262 149.205
65.1898 21644 147.119
65.3074 20558 143.381
65.4249 19536 139.771
65.5425 19267 138.806
65.6601 19820 140.784
65.7777 21100 145.258
65.8952 21878 147.912
66.0128 22728 150.758
66.1304 23707 153.971
66.2479 24206 155.583
66.3655 24972 158.025
66.483 25333 159.163
66.6005 25446 159.518
66.718 25164 158.632
66.8355 25167 158.641
66.953 24746 157.309
67.0705 23901 154.599
67.1879 22919 151.39
67.3054 21673 147.218
67.4228 20570 143.422
67.5402 19088 138.159
67.6576 18752 136.938
67.7749 18924 137.565
67.8923 19694 140.335
68.0096 20664 143.75
68.1269 21590 146.935
68.2442 22586 150.286
68.3614 22969 151.555
68.4787 23501 153.3
68.5958 23339 152.771
68.713 22937 151.45
68.8302 22075 148.577
68.9473 20804 144.236
69.0643 19802 140.72
69.1814 19620 140.071
69.2984 20156 141.972
69.4154 21686 147.262
69.5323 23304 152.656
69.6492 24372 156.115
69.7661 25056 158.291
69.8829 26479 162.724
69.9997 27087 164.581
70.1165 27488 165.795
70.2332 27802 166.739
70.3499 27673 166.352
70.4665 27490 165.801
70.5831 26897 164.003
70.6996 25859 160.807
70.8161 25247 158.893
70.9326 24076 155.164
71.049 22781 150.934
71.1653 21186 145.554
71.2817 19923 141.149
71.3979 19550 139.821
71.5141 19744 140.513
71.6303 20070 141.669
71.7464 19295 138.906
71.8624 0 1
71.9784 0 1
72.0944 0 1
72.2102 0 1
72.3261 0 1
72.4418 0 1
72.5575 0 1
72.6732 0 1
75.1054 0 1
75.2209 0 1
75.3365 0 1
75.4521 0 1
75.5678 0 1
75.6835 0 1
75.7993 0 1
75.9151 0 1
76.031 0 1
76.147 23138 152.112
76.263 24470 156.429
76.3791 23894 154.577
76.4952 22333 149.442
76.6113 20695 143.858
76.7276 20114 141.824
76.8438 20785 144.17
76.9601 21565 146.85
77.0765 22848 151.156
77.1929 24694 157.143
77.3093 25728 160.4
77.4258 25369 159.276
77.5423 25811 160.658
77.6589 25465 159.578
77.7755 24423 156.279
77.8921 22968 151.552
78.0088 21732 147.418
78.1256 20832 144.333
78.2423 19956 141.266
78.3591 20357 142.678
78.4759 21955 148.172
78.5928 23461 153.17
78.7097 24635 156.955
78.8266 25756 160.487
78.9436 26547 162.933
79.0606 27189 164.891
79.1776 26982 164.262
79.2946 27167 164.824
79.4117 27331 165.321
79.5288 27347 165.369
79.6459 26570 163.003
79.7631 25365 159.264
79.8802 24141 155.374
79.9974 23221 152.384
80.1147 21544 146.779
80.2319 20248 142.295
80.3491 19005 137.859
80.4664 19064 138.072
80.5837 19509 139.675
80.701 21203 145.612
80.8183 22043 148.469
80.9357 23178 152.243
81.053 23204 152.329
81.1704 23430 153.069
81.2877 23191 152.286
81.4051 22383 149.609
81.5225 21833 147.76
81.6399 19513 139.689
81.7573 18814 137.164
81.8747 17992 134.134
81.9922 18075 134.443
82.1096 19282 138.86
82.227 21098 145.252
82.3444 21989 148.287
82.4619 23214 152.361
82.5793 24061 155.116
82.6967 23565 153.509
82.8142 23999 154.916
82.9316 24190 155.531
83.049 23884 154.544
83.1664 23448 153.127
83.2838 22768 150.891
83.4012 21894 147.966
83.5186 21135 145.379
83.636 20263 142.348
83.7534 18881 137.408
83.8708 17207 131.175
83.9881 16607 128.868
84.1055 16441 128.222
84.2228 17250 131.339
84.3401 18280 135.204
84.4575 19727 140.453
84.5747 20907 144.593
84.692 21559 146.83
84.8093 21501 146.632
84.9265 21235 145.722
85.0437 20566 143.409
85.1609 19154 138.398
85.2781 18190 134.87
85.3952 17545 132.458
85.5123 16925 130.096
85.6294 18071 134.428
85.7465 19874 140.975
85.8636 21433 146.4
85.9806 22369 149.563
86.0976 23824 154.35
86.2145 24836 157.594
86.3315 25517 159.74
86.4484 26379 162.416
86.5652 26306 162.191
86.682 26757 163.576
86.7988 26271 162.083
86.9156 25568 159.9
87.0323 24862 157.677
87.149 24049 155.077
87.2657 23220 152.381
87.3823 21879 147.916
87.4988 20353 142.664
87.6154 19971 141.319
87.7318 20749 144.045
87.8483 22149 148.825
87.9647 23306 152.663
88.081 25266 158.953
88.1973 26008 161.27
88.3136 26643 163.227
88.4298 26453 162.644
88.546 25718 160.368
88.6621 24277 155.811
88.7781 22944 151.473
88.8942 0 1
89.0101 0 1
89.126 0 1
89.2419 0 1
89.3577 0 1
89.4734 0 1
89.5891 0 1
89.7047 0 1
89.8203 0 1
89.9358 0 1
92.3269 0 1
92.4424 0 1
92.558 0 1
92.6736 0 1
92.7893 0 1
92.905 0 1
93.0208 0 1
93.1366 0 1
93.2525 0 1
93.3685 0 1
93.4845 0 1
93.6005 37506 193.665
93.7167 39087 197.704
93.8328 40046 200.115
93.949 40580 201.445
94.0653 40801 201.993
94.1816 39367 198.411
94.2979 38313 195.737
94.4143 37192 192.852
94.5307 37299 193.129
94.6472 38140 195.295
94.7637 40469 201.169
94.8803 44387 210.682
94.9969 47381 217.672
95.1135 50181 224.011
95.2302 52325 228.747
95.3469 53920 232.207
95.4637 55253 235.06
95.5805 56760 238.244
95.6973 58151 241.145
95.8142 58150 241.143
95.9311 58924 242.743
96.048 56948 238.638
96.1649 56168 236.998
96.2819 54763 234.015
96.3989 52618 229.386
96.516 49741 223.027
96.633 46218 214.984
96.7501 44816 211.698
96.8673 45728 213.841
96.9844 48579 220.406
97.1016 51442 226.808
97.2188 55277 235.111
97.336 57243 239.255
97.4532 58108 241.056
97.5704 57255 239.28
97.6877 55705 236.019
97.805 52728 229.626
97.9223 49037 221.443
98.0396 45617 213.581
98.1569 43908 209.542
98.2743 43448 208.442
98.3916 44966 212.052
98.509 48680 220.635
98.6264 51598 227.152
98.7438 54110 232.616
98.8612 55721 236.053
98.9786 57328 239.433
99.096 58226 241.301
99.2134 58826 242.541
99.3308 60130 245.214
99.4482 59661 244.256
99.5656 58810 242.508
99.6831 57586 239.971
99.8005 55487 235.557
99.9179 54185 232.777
100.035 51737 227.458
100.153 48066 219.24
100.27 45529 213.375
100.388 44702 211.428
100.505 46105 214.721
100.622 49136 221.666
100.74 52957 230.124
100.857 54826 234.15
100.975 55322 235.206
101.092 54761 234.011
101.209 54446 233.337
101.327 52071 228.191
101.444 48874 221.075
101.561 44879 211.847
101.679 42076 205.124
101.796 40325 200.811
101.913 39605 199.01
102.03 41451 203.595
102.148 44388 210.685
102.265 49146 221.689
102.382 44252 210.362
102.499 48022 219.139
102.616 48338 219.859
102.733 48158 219.449
102.851 47945 218.963
102.968 46599 215.868
103.085 45422 213.124
103.202 43487 208.535
103.319 41466 203.632
103.436 39784 199.459
103.552 37409 193.414
103.669 34161 184.827
103.786 31073 176.275
103.903 29541 171.875
104.02 29782 172.575
104.137 30776 175.431
104.253 32899 181.381
104.37 32099 179.162
104.487 33839 183.954
104.603 33041 181.772
104.72 32057 179.045
104.836 30673 175.137
104.953 28580 169.056
105.069 26911 164.046
105.186 25396 159.361
105.302 24638 156.965
105.418 24736 157.277
105.535 26591 163.067
105.651 28634 169.216
105.767 30399 174.353
105.883 31925 178.676
105.999 32594 180.538
106.115 0 1
106.231 0 1
106.347 0 1
106.463 0 1
106.579 0 1
106.694 0 1
106.81 0 1
106.926 0 1
107.041 0 1
107.157 0 1
109.576 0 1
109.692 0 1
109.807 0 1
109.923 0 1
110.039 0 1
110.155 0 1
110.27 0 1
110.386 0 1
110.502 0 1
110.618 25291 159.031
110.735 27480 165.771
110.851 29620 172.105
110.967 30845 175.627
111.083 30888 175.75
111.199 31984 178.841
111.316 32307 179.741
111.432 32997 181.651
111.549 32230 179.527
111.665 31553 177.632
111.782 30700 175.214
111.898 29896 172.905
112.015 29101 170.59
112.132 27661 166.316
112.248 25287 159.019
112.365 24040 155.048
112.482 23862 154.473
112.599 24299 155.881
112.716 26034 161.351
112.832 27456 165.699
112.949 28359 168.401
113.066 28762 169.594
113.183 28201 167.932
113.3 27628 166.217
113.417 26928 164.098
113.534 25797 160.614
113.652 24551 156.688
113.769 23698 153.942
113.886 23318 152.702
114.003 23250 152.48
114.12 25126 158.512
114.238 27161 164.806
114.355 28717 169.461
114.472 31288 176.884
114.589 29351 171.321
114.707 30920 175.841
114.824 31732 178.135
114.942 31568 177.674
115.059 31883 178.558
115.176 32120 179.221
115.294 30988 176.034
115.411 30093 173.473
115.529 29502 171.761
115.646 28544 168.95
115.764 27271 165.139
115.881 25483 159.634
115.999 24326 155.968
116.116 24546 156.672
116.234 25590 159.969
116.351 27438 165.644
116.469 28448 168.665
116.586 28817 169.756
116.704 28880 169.941
116.821 28752 169.564
116.939 28020 167.392
117.056 26977 164.247
117.174 25910 160.966
117.291 25094 158.411
117.409 24382 156.147
117.526 24218 155.621
117.644 25238 158.865
117.761 27205 164.939
117.879 29150 170.734
117.996 29582 171.994
118.114 30872 175.704
118.231 31915 178.648
118.349 31795 178.312
118.466 32552 180.422
118.584 32444 180.122
118.701 32699 180.829
118.819 32094 179.148
118.936 31382 177.15
119.053 30543 174.766
119.171 30061 173.381
119.288 28646 169.251
119.405 27337 165.339
119.523 25584 159.95
119.64 24945 157.94
119.757 24920 157.861
119.875 25925 161.012
119.992 27124 164.694
120.109 28707 169.431
120.226 28689 169.378
120.343 28790 169.676
120.46 28379 168.461
120.578 28450 168.671
120.695 27612 166.169
120.812 26407 162.502
120.929 25484 159.637
121.046 24765 157.369
121.163 24662 157.041
121.279 24891 157.769
121.396 26133 161.657
121.513 28403 168.532
121.63 29434 171.563
121.747 30822 175.562
121.863 31223 176.7
121.98 31801 178.328
122.097 32289 179.691
122.213 32036 178.986
122.33 32201 179.446
122.446 32177 179.379
122.563 31457 177.361
122.679 30522 174.705
122.795 29852 172.777
122.912 29355 171.333
123.028 28356 168.392
123.144 27178 164.858
123.26 24943 157.934
123.377 0 1
123.493 0 1
123.609 0 1
123.725 0 1
123.84 0 1
123.956 0 1
124.072 0 1
124.188 0 1
124.303 0 1
124.419 0 1
126.852 0 1
126.968 0 1
127.083 0 1
127.199 0 1
127.315 0 1
127.431 0 1
127.547 0 1
127.663 0 1
127.779 0 1
127.895 0 1
128.011 0 1
128.127 0 1
128.243 0 1
128.359 29961 173.092
128.476 28493 168.799
128.592 27482 165.777
128.708 27940 167.153
128.825 28848 169.847
128.941 30278 174.006
129.058 31995 178.871
129.174 32340 179.833
129.291 31686 178.006
129.408 31621 177.823
129.524 31173 176.559
129.641 30444 174.482
129.758 29374 171.388
129.875 28233 168.027
129.992 27638 166.247
130.108 27407 165.551
130.225 27457 165.702
130.342 28921 170.062
130.459 29919 172.971
130.576 32392 179.978
130.693 32705 180.845
130.81 32858 181.268
130.928 33536 183.128
131.045 33791 183.823
131.162 33832 183.935
131.279 34551 185.879
131.396 34045 184.513
131.513 33550 183.167
131.631 32941 181.497
131.748 31991 178.86
131.865 31363 177.096
131.983 29747 172.473
132.1 28061 167.514
132.217 27863 166.922
132.335 28654 169.275
132.452 30205 173.796
132.57 31409 177.226
132.687 30673 175.137
132.804 32889 181.353
132.922 31475 177.412
133.039 31697 178.037
133.157 31139 176.462
133.274 29874 172.841
133.392 28714 169.452
133.509 27619 166.19
133.627 27459 165.708
133.744 27251 165.079
133.862 27874 166.955
133.979 29747 172.473
134.097 30719 175.268
134.214 31924 178.673
134.332 32631 180.641
134.449 32551 180.419
134.567 33287 182.447
134.684 33875 184.052
134.802 33802 183.853
134.919 34185 184.892
135.037 33836 183.946
135.154 33092 181.912
135.272 32010 178.913
135.389 31927 178.681
135.507 30600 174.929
135.624 28992 170.27
135.742 27910 167.063
135.859 28262 168.113
135.977 29060 170.47
136.094 30154 173.649
136.211 31555 177.637
136.329 32038 178.992
136.446 31751 178.188
136.564 32026 178.958
136.681 31347 177.051
136.798 31025 176.139
136.915 29559 171.927
137.033 28880 169.941
137.15 28245 168.062
137.267 27420 165.59
137.384 27201 164.927
137.502 28115 167.675
137.619 29586 172.006
137.736 30803 175.508
137.853 31263 176.813
137.97 32134 179.26
138.087 31938 178.712
138.204 32957 181.541
138.321 33493 183.011
138.438 33608 183.325
138.555 34292 185.181
138.672 33807 183.867
138.788 33299 182.48
138.905 32858 181.268
139.022 32057 179.045
139.139 31232 176.726
139.255 29659 172.218
139.372 28647 169.254
139.488 28753 169.567
139.605 29785 172.583
139.721 30630 175.014
139.838 32029 178.966
139.954 32383 179.953
140.071 32046 179.014
140.187 32413 180.036
140.303 31641 177.879
140.419 31108 176.375
140.535 29875 172.844
140.652 28284 168.178
140.768 0 1
140.884 0 1
141 0 1
141.115 0 1
141.231 0 1
141.347 0 1
141.463 0 1
141.578 0 1
141.694 0 1
144.104 0 1
144.219 0 1
144.335 0 1
144.45 0 1
144.566 0 1
144.682 0 1
144.798 0 1
144.914 0 1
145.03 0 1
145.146 29110 170.617
145.262 29457 171.63
145.378 29210 170.909
145.494 28201 167.932
145.61 27580 166.072
145.726 26361 162.361
145.842 26403 162.49
145.959 25933 161.037
146.075 25846 160.767
146.192 27022 164.384
146.308 28273 168.146
146.425 28459 168.698
146.541 29440 171.581
146.658 29560 171.93
146.774 30320 174.126
146.891 30475 174.571
147.008 30647 175.063
147.125 31416 177.246
147.241 31633 177.857
147.358 31098 176.346
147.475 30804 175.511
147.592 29954 173.072
147.709 29457 171.63
147.826 28188 167.893
147.943 27146 164.76
148.06 26381 162.422
148.177 27338 165.342
148.294 28384 168.476
148.411 29417 171.514
148.528 30100 173.494
148.645 29996 173.194
148.762 30124 173.563
148.88 29976 173.136
148.997 28946 170.135
149.114 29680 172.279
149.231 28418 168.576
149.349 27607 166.154
149.466 26307 162.194
149.583 26328 162.259
149.701 25766 160.518
149.818 26782 163.652
149.935 27550 165.982
150.053 28428 168.606
150.17 28879 169.938
150.287 29594 172.029
150.405 29886 172.876
150.522 30705 175.228
150.64 31419 177.254
150.757 31403 177.209
150.875 31698 178.039
150.992 31253 176.785
151.11 30582 174.877
151.227 30324 174.138
151.344 29766 172.528
151.462 28124 167.702
151.579 27489 165.798
151.697 26761 163.588
151.814 27452 165.686
151.932 28714 169.452
152.049 29729 172.421
152.167 30493 174.622
152.284 30354 174.224
152.402 29957 173.081
152.519 30428 174.436
152.636 29954 173.072
152.754 29076 170.517
152.871 28181 167.872
152.989 27841 166.856
153.106 26675 163.325
153.223 26363 162.367
153.341 26307 162.194
153.458 26969 164.222
153.575 27998 167.326
153.693 28719 169.467
153.81 29474 171.68
153.927 29784 172.58
154.044 30846 175.63
154.162 31096 176.341
154.279 31683 177.997
154.396 32435 180.097
154.513 32412 180.033
154.63 32403 180.008
154.747 32447 180.131
154.864 31409 177.226
154.981 30534 174.74
155.098 30122 173.557
155.215 28800 169.706
155.332 28333 168.324
155.449 28780 169.647
155.566 29489 171.724
155.683 30881 175.73
155.8 31107 176.372
155.917 30924 175.852
156.033 30847 175.633
156.15 0 1
156.267 0 1
156.383 0 1
156.5 0 1
156.617 0 1
156.733 0 1
156.85 0 1
156.966 0 1
157.082 0 1
157.199 0 1
157.315 0 1
157.431 0 1
157.547 0 1
157.664 0 1
157.78 0 1
157.896 0 1
158.012 0 1
158.128 0 1
158.244 0 1
158.359 0 1
158.475 0 1
158.591 0 1
158.706 0 1
