
6.15755 0 1
6.2731 0 1
6.3887 0 1
6.50437 0 1
6.62009 0 1
6.73587 0 1
6.8517 0 1
6.96759 0 1
7.08353 0 1
7.19952 0 1
7.31557 0 1
7.43166 0 1
7.54781 0 1
7.664 0 1
7.78024 0 1
7.89653 0 1
8.01286 0 1
8.12924 0 1
8.24567 0 1
8.36213 0 1
8.47864 0 1
8.59519 0 1
8.71178 0 1
8.82841 0 1
8.94508 0 1
9.06179 0 1
9.17853 0 1
9.29531 0 1
9.41212 0 1
9.52897 0 1
9.64584 0 1
9.76276 0 1
9.8797 0 1
9.99667 0 1
10.1137 0 1
10.2307 0 1
10.3478 0 1
10.4648 0 1
10.5819 0 1
10.6991 0 1
10.8162 0 1
10.9334 0 1
11.0506 0 1
11.1678 0 1
11.285 0 1
11.4023 0 1
11.5196 0 1
11.6369 0 1
11.7542 0 1
11.8715 0 1
11.9888 0 1
12.1062 0 1
12.2235 0 1
12.3409 0 1
12.4582 0 1
12.5756 0 1
12.693 0 1
12.8104 0 1
12.9278 0 1
13.0452 0 1
13.1626 0 1
13.28 0 1
13.3974 0 1
13.5149 0 1
13.6323 0 1
13.7497 0 1
13.8671 0 1
13.9845 0 1
14.1019 0 1
14.2193 0 1
14.3367 0 1
14.4541 0 1
14.5714 0 1
14.6888 0 1
14.8062 0 1
14.9235 0 1
15.0408 28472 168.736
15.1581 29735 172.438
15.2755 30757 175.377
15.3927 31048 176.204
15.51 30679 175.154
15.6273 30173 173.704
15.7445 29523 171.823
15.8617 28885 169.956
15.9789 29007 170.314
16.0961 28240 168.048
16.2132 29017 170.344
16.3304 30257 173.945
16.4475 31000 176.068
16.5646 31906 178.623
16.6816 33253 182.354
16.7986 35676 188.881
16.9156 38007 194.954
17.0326 39649 199.121
17.1496 40178 200.445
17.2665 40350 200.873
17.3833 40476 201.186
17.5002 40790 201.965
17.617 41037 202.576
17.7338 41414 203.504
17.8505 41321 203.276
17.9672 42376 205.854
18.0839 42432 205.99
18.2005 43048 207.48
18.3171 43741 209.143
18.4337 43581 208.761
18.5502 43895 209.511
18.6666 44309 210.497
18.7831 43859 209.425
18.8994 43781 209.239
19.0158 42621 206.449
19.1321 41530 203.789
19.2483 40650 201.618
19.3645 40002 200.005
19.4806 38790 196.952
19.5967 37690 194.139
19.7128 35482 188.367
19.8288 31879 178.547
19.9447 26933 164.113
20.0606 0 1
20.1764 0 1
20.2922 0 1
20.4079 0 1
20.5236 0 1
20.6392 0 1
20.7548 0 1
20.8702 0 1
23.3078 0 1
23.4233 0 1
23.539 0 1
23.6547 0 1
23.7704 0 1
23.8862 0 1
24.0021 0 1
24.118 0 1
24.234 0 1
24.35 0 1
24.4661 38549 196.339
24.5822 38909 197.254
24.6984 39176 197.929
24.8146 39506 198.761
24.9309 38080 195.141
25.0472 35408 188.17
25.1636 31998 178.88
25.28 31936 178.706
25.3965 33798 183.842
25.513 34887 186.781
25.6296 38542 196.321
25.7462 41475 203.654
25.8628 45018 212.174
25.9795 45433 213.15
26.0962 46086 214.677
26.213 45891 214.222
26.3298 46117 214.749
26.4466 45996 214.467
26.5635 46161 214.851
26.6804 45711 213.801
26.7973 46279 215.126
26.9143 45867 214.166
27.0313 45710 213.799
27.1483 45937 214.329
27.2653 45292 212.819
27.3824 45718 213.818
27.4996 45799 214.007
27.6167 45477 213.253
27.7339 43886 209.49
27.8511 42617 206.439
27.9683 42295 205.657
28.0855 42257 205.565
28.2028 42777 206.826
28.3201 41643 204.066
28.4374 40047 200.117
28.5547 37264 193.039
28.6721 32977 181.596
28.7894 30925 175.855
28.9068 30974 175.994
29.0242 32880 181.328
29.1416 34285 185.162
29.259 36949 192.221
29.3764 40839 202.087
29.4939 43041 207.463
29.6113 43552 208.691
29.7288 44074 209.938
29.8463 44444 210.817
29.9638 44298 210.471
30.0812 44470 210.879
30.1987 44226 210.3
30.3162 44396 210.704
30.4337 44456 210.846
30.5512 44204 210.247
30.6687 42881 207.077
30.7862 43393 208.31
30.9037 43118 207.649
31.0212 44710 211.447
31.1387 43914 209.557
31.2562 43241 207.945
31.3737 42736 206.727
31.4912 41958 204.837
31.6087 42191 205.404
31.7262 42356 205.806
31.8436 41432 203.549
31.9611 40403 201.005
32.0785 37188 192.842
32.1959 32856 181.262
32.3134 30929 175.866
32.4308 31005 176.082
32.5482 31686 178.006
32.6655 34225 185
32.7829 36709 191.596
32.9002 39922 199.805
33.0176 42149 205.302
33.1349 42516 206.194
33.2522 43470 208.495
33.3694 43080 207.557
33.4867 43423 208.382
33.6039 43372 208.259
33.7211 43592 208.787
33.8383 43068 207.528
33.9554 43295 208.075
34.0725 43061 207.511
34.1896 42797 206.874
34.3067 42074 205.119
34.4237 42174 205.363
34.5407 42202 205.431
34.6577 43167 207.767
34.7746 42630 206.47
34.8915 42389 205.886
35.0084 41997 204.932
35.1252 41632 204.039
35.242 41566 203.877
35.3587 41668 204.127
35.4755 41746 204.318
35.5921 40680 201.693
35.7088 38808 196.997
35.8254 35198 187.611
35.9419 31662 177.938
36.0584 29890 172.887
36.1749 30255 173.94
36.2913 30862 175.676
36.4077 32253 179.591
36.524 34156 184.813
36.6403 37569 193.827
36.7565 40237 200.592
36.8727 40908 202.257
36.9889 41914 204.729
37.1049 41321 203.276
37.221 0 1
37.3369 0 1
37.4529 0 1
37.5687 0 1
37.6845 0 1
37.8003 0 1
37.916 0 1
38.0316 0 1
38.1472 0 1
40.5851 0 1
40.7008 0 1
40.8164 0 1
40.9322 0 1
41.048 0 1
41.1639 0 1
41.2798 0 1
41.3958 0 1
41.5118 0 1
41.6279 0 1
41.744 27519 165.889
41.8602 31125 176.423
41.9765 32937 181.486
42.0928 33722 183.636
42.2091 34677 186.218
42.3255 35180 187.563
42.4419 35150 187.483
42.5584 35285 187.843
42.675 34882 186.767
42.7915 34654 186.156
42.9081 33892 184.098
43.0248 32505 180.291
43.1415 32254 179.594
43.2582 33157 182.091
43.375 33515 183.071
43.4918 33520 183.085
43.6087 33536 183.128
43.7256 32850 181.246
43.8425 32456 180.155
43.9595 31975 178.816
44.0765 31705 178.059
44.1935 31653 177.913
44.3106 30443 174.479
44.4277 29460 171.639
44.5448 27980 167.272
44.6619 25198 158.739
44.7791 22280 149.265
44.8963 20651 143.705
45.0136 20882 144.506
45.1308 20848 144.388
45.2481 21626 147.058
45.3654 23611 153.659
45.4827 25560 159.875
45.6001 26725 163.478
45.7174 26281 162.114
45.8348 25989 161.211
45.9522 26000 161.245
46.0697 25319 159.119
46.1871 25256 158.921
46.3046 25182 158.688
46.422 24655 157.019
46.5395 23911 154.632
46.657 23407 152.993
46.7745 23604 153.636
46.892 24020 154.984
47.0096 24352 156.051
47.1271 24544 156.665
47.2446 24490 156.493
47.3622 24060 155.113
47.4797 23595 153.607
47.5973 23313 152.686
47.7149 22704 150.678
47.8324 22281 149.268
47.95 21532 146.738
48.0675 20379 142.755
48.1851 19459 139.496
48.3027 17223 131.236
48.4202 15641 125.064
48.5378 15515 124.559
48.6554 15512 124.547
48.7729 16218 127.35
48.8904 17563 132.525
49.008 19224 138.651
49.1255 20045 141.58
49.243 20438 142.962
49.3605 20524 143.262
49.478 20755 144.066
49.5955 20884 144.513
49.713 20868 144.458
49.8304 20606 143.548
49.9479 20426 142.92
50.0653 20045 141.58
50.1827 20438 142.962
50.3001 20849 144.392
50.4175 21929 148.084
50.5348 22788 150.957
50.6521 23334 152.755
50.7694 24111 155.277
50.8867 24724 157.239
51.004 25247 158.893
51.1212 25657 160.178
51.2384 25736 160.424
51.3556 25757 160.49
51.4727 25534 159.794
51.5899 25316 159.11
51.707 24395 156.189
51.824 22592 150.306
51.9411 21567 146.857
52.0581 21794 147.628
52.175 22492 149.973
52.2919 24145 155.387
52.4088 26876 163.939
52.5257 30099 173.491
52.6425 30646 175.06
52.7593 31369 177.113
52.876 31954 178.757
52.9927 32537 180.38
53.1094 33218 182.258
53.226 33589 183.273
53.3426 34041 184.502
53.4591 33359 182.644
53.5756 32235 179.541
53.692 32554 180.427
53.8084 32953 181.53
53.9248 34015 184.432
54.0411 35631 188.762
54.1573 36710 191.599
54.2735 0 1
54.3896 0 1
54.5057 0 1
54.6217 0 1
54.7377 0 1
54.8537 0 1
54.9695 0 1
55.0853 0 1
55.2011 0 1
55.3168 0 1
55.4324 0 1
57.824 0 1
57.9396 0 1
58.0553 0 1
58.1711 0 1
58.2869 0 1
58.4028 0 1
58.5187 0 1
58.6347 0 1
58.7508 0 1
58.8669 0 1
58.983 35889 189.444
59.0992 38469 196.135
59.2155 40464 201.157
59.3318 42364 205.825
59.4482 42898 207.118
59.5646 43694 209.031
59.681 44229 210.307
59.7975 42964 207.278
59.9141 42692 206.62
60.0306 41688 204.176
60.1473 40012 200.03
60.2639 38783 196.934
60.3807 35977 189.676
60.4974 34104 184.673
60.6142 32744 180.953
60.731 31759 178.211
60.8479 31655 177.919
60.9648 32926 181.455
61.0818 34504 185.753
61.1987 35907 189.491
61.3158 37066 192.525
61.4328 37671 194.09
61.5499 37956 194.823
61.667 38009 194.959
61.7841 37463 193.554
61.9013 36987 192.32
62.0185 35543 188.529
62.1357 35087 187.315
62.253 34994 187.067
62.3702 35162 187.515
62.4875 36126 190.068
62.6049 37020 192.406
62.7222 38124 195.254
62.8396 38969 197.406
62.9569 39345 198.356
63.0743 39357 198.386
63.1918 39231 198.068
63.3092 38747 196.843
63.4267 37970 194.859
63.5441 37200 192.873
63.6616 35728 189.019
63.7791 34260 185.095
63.8966 32469 180.192
64.0142 30477 174.577
64.1317 29188 170.845
64.2492 28454 168.683
64.3668 28713 169.449
64.4843 29574 171.971
64.6019 30908 175.807
64.7195 32425 180.069
64.837 33487 182.995
64.9546 33696 183.565
65.0722 34266 185.111
65.1898 34332 185.289
65.3074 34435 185.567
65.4249 33133 182.025
65.5425 32655 180.707
65.6601 31651 177.907
65.7777 31189 176.604
65.8952 30930 175.869
66.0128 32025 178.955
66.1304 33736 183.674
66.2479 34904 186.826
66.3655 35809 189.233
66.483 36922 192.151
66.6005 37726 194.232
66.718 37292 193.111
66.8355 37463 193.554
66.953 36946 192.213
67.0705 35927 189.544
67.1879 35256 187.766
67.3054 33692 183.554
67.4228 32673 180.757
67.5402 31154 176.505
67.6576 29375 171.391
67.7749 27797 166.724
67.8923 28016 167.38
68.0096 28471 168.734
68.1269 29775 172.554
68.2442 31076 176.284
68.3614 32872 181.306
68.4787 34237 185.032
68.5958 34655 186.159
68.713 35249 187.747
68.8302 34976 187.019
68.9473 35239 187.721
69.0643 34722 186.338
69.1814 33555 183.18
69.2984 33149 182.069
69.4154 32571 180.474
69.5323 33193 182.189
69.6492 34488 185.709
69.7661 36110 190.026
69.8829 38088 195.161
69.9997 39429 198.567
70.1165 40692 201.723
70.2332 41265 203.138
70.3499 41647 204.076
70.4665 41213 203.01
70.5831 40998 202.48
70.6996 40044 200.11
70.8161 38963 197.39
70.9326 38014 194.972
71.049 36584 191.269
71.1653 34628 186.086
71.2817 32814 181.146
71.3979 30542 174.763
71.5141 29201 170.883
71.6303 27573 166.051
71.7464 24694 157.143
71.8624 0 1
71.9784 0 1
72.0944 0 1
72.2102 0 1
72.3261 0 1
72.4418 0 1
72.5575 0 1
72.6732 0 1
75.1054 0 1
75.2209 0 1
75.3365 0 1
75.4521 0 1
75.5678 0 1
75.6835 0 1
75.7993 0 1
75.9151 0 1
76.031 0 1
76.147 35039 187.187
76.263 36861 191.992
76.3791 37282 193.085
76.4952 35989 189.708
76.6113 33631 183.388
76.7276 31413 177.237
76.8438 30144 173.62
76.9601 30957 175.946
77.0765 32220 179.499
77.1929 34088 184.629
77.3093 36413 190.822
77.4258 38111 195.22
77.5423 38904 197.241
77.6589 38491 196.191
77.7755 38493 196.196
77.8921 37696 194.155
78.0088 36389 190.759
78.1256 34222 184.992
78.2423 31857 178.485
78.3591 30177 173.715
78.4759 29537 171.863
78.5928 31303 176.927
78.7097 33799 183.845
78.8266 35512 188.446
78.9436 40846 202.104
79.0606 39967 199.917
79.1776 40597 201.487
79.2946 40759 201.889
79.4117 40828 202.059
79.5288 40140 200.35
79.6459 39939 199.847
79.7631 38249 195.574
79.8802 36758 191.724
79.9974 35323 187.944
80.1147 33556 183.183
80.2319 31748 178.18
80.3491 29373 171.386
80.4664 28750 169.558
80.5837 28581 169.059
80.701 29599 172.044
80.8183 31300 176.918
80.9357 32900 181.384
81.053 34539 185.847
81.1704 34747 186.405
81.2877 34139 184.767
81.4051 34095 184.648
81.5225 33298 182.477
81.6399 33170 182.126
81.7573 31474 177.409
81.8747 28411 168.556
81.9922 26950 164.165
82.1096 26103 161.564
82.227 27558 166.006
82.3444 30195 173.767
82.4619 33066 181.841
82.5793 35338 187.984
82.6967 35504 188.425
82.8142 35708 188.966
82.9316 35912 189.505
83.049 35343 187.997
83.1664 34995 187.07
83.2838 33799 183.845
83.4012 32975 181.59
83.5186 31750 178.185
83.636 30081 173.439
83.7534 29227 170.959
83.8708 27271 165.139
83.9881 25658 160.181
84.1055 24994 158.095
84.2228 25335 159.17
84.3401 26427 162.564
84.4575 27675 166.358
84.5747 29908 172.939
84.692 31571 177.682
84.8093 31484 177.437
84.9265 31623 177.829
85.0437 31282 176.867
85.1609 31104 176.363
85.2781 29613 172.084
85.3952 27348 165.372
85.5123 25437 159.49
85.6294 24572 156.755
85.7465 25836 160.736
85.8636 28751 169.561
85.9806 32478 180.217
86.0976 34844 186.665
86.2145 36742 191.682
86.3315 39149 197.861
86.4484 37548 193.773
86.5652 38917 197.274
86.682 38991 197.461
86.7988 38311 195.732
86.9156 37656 194.052
87.0323 36684 191.531
87.149 35832 189.293
87.2657 34422 185.532
87.3823 33307 182.502
87.4988 31570 177.679
87.6154 30570 174.843
87.7318 31248 176.771
87.8483 32152 179.31
87.9647 33644 183.423
88.081 36104 190.011
88.1973 37597 193.899
88.3136 38591 196.446
88.4298 38473 196.145
88.546 38051 195.067
88.6621 37909 194.702
88.7781 36208 190.284
88.8942 0 1
89.0101 0 1
89.126 0 1
89.2419 0 1
89.3577 0 1
89.4734 0 1
89.5891 0 1
89.7047 0 1
89.8203 0 1
89.9358 0 1
92.3269 0 1
92.4424 0 1
92.558 0 1
92.6736 0 1
92.7893 0 1
92.905 0 1
93.0208 0 1
93.1366 0 1
93.2525 0 1
93.3685 0 1
93.4845 0 1
93.6005 35932 189.557
93.7167 37199 192.87
93.8328 37752 194.299
93.949 37314 193.168
94.0653 37256 193.018
94.1816 36139 190.103
94.2979 35003 187.091
94.4143 32361 179.892
94.5307 30208 173.804
94.6472 28390 168.493
94.7637 28423 168.591
94.8803 30796 175.488
94.9969 34549 185.874
95.1135 38263 195.609
95.2302 39995 199.987
95.3469 40893 202.22
95.4637 41722 204.26
95.5805 42475 206.095
95.6973 42941 207.222
95.8142 42459 206.056
95.9311 41994 204.924
96.048 41100 202.731
96.1649 39617 199.04
96.2819 38687 196.69
96.3989 36703 191.58
96.516 35401 188.152
96.633 34073 184.589
96.7501 33075 181.865
96.8673 32780 181.052
96.9844 33373 182.683
97.1016 33979 184.334
97.2188 35591 188.656
97.336 37476 193.587
97.4532 38195 195.435
97.5704 38233 195.533
97.6877 37590 193.881
97.805 36980 192.302
97.9223 35113 187.385
98.0396 31980 178.83
98.1569 28704 169.423
98.2743 26931 164.107
98.3916 26806 163.725
98.509 28927 170.079
98.6264 33435 182.852
98.7438 36888 192.062
98.8612 39126 197.803
98.9786 40488 201.216
99.096 41532 203.794
99.2134 41476 203.657
99.3308 42214 205.46
99.4482 41898 204.69
99.5656 41326 203.288
99.6831 40228 200.569
99.8005 38938 197.327
99.9179 37894 194.664
100.035 36485 191.01
100.153 34903 186.823
100.27 34111 184.692
100.388 33619 183.355
100.505 33836 183.946
100.622 34975 187.016
100.74 36102 190.005
100.857 37259 193.026
100.975 37818 194.469
101.092 38730 196.799
101.209 37908 194.7
101.327 37343 193.243
101.444 36694 191.557
101.561 35132 187.435
101.679 30836 175.602
101.796 27961 167.215
101.913 27327 165.309
102.03 28783 169.656
102.148 33378 182.696
102.265 37022 192.411
102.382 41966 204.856
102.499 42188 205.397
102.616 43154 207.735
102.733 44116 210.038
102.851 44396 210.704
102.968 45142 212.466
103.085 43796 209.275
103.202 42645 206.507
103.319 41564 203.873
103.436 40760 201.891
103.552 38944 197.342
103.669 37367 193.305
103.786 37015 192.393
103.903 36442 190.898
104.02 36849 191.961
104.137 38277 195.645
104.253 39177 197.932
104.37 40998 202.48
104.487 41911 204.722
104.603 42083 205.141
104.72 41773 204.384
104.836 40976 202.425
104.953 39225 198.053
105.069 36191 190.239
105.186 31961 178.776
105.302 29697 172.328
105.418 29860 172.8
105.535 33084 181.89
105.651 39598 198.992
105.767 43712 209.074
105.883 46205 214.953
105.999 47496 217.936
106.115 0 1
106.231 0 1
106.347 0 1
106.463 0 1
106.579 0 1
106.694 0 1
106.81 0 1
106.926 0 1
107.041 0 1
107.157 0 1
109.576 0 1
109.692 0 1
109.807 0 1
109.923 0 1
110.039 0 1
110.155 0 1
110.27 0 1
110.386 0 1
110.502 0 1
110.618 32083 179.117
110.735 38704 196.733
110.851 43169 207.772
110.967 44640 211.282
111.083 45620 213.588
111.199 46661 216.012
111.316 46925 216.622
111.432 47225 217.313
111.549 46787 216.303
111.665 45817 214.049
111.782 44260 210.381
111.898 43453 208.454
112.015 41599 203.958
112.132 40116 200.29
112.248 40054 200.135
112.365 38833 197.061
112.482 37466 193.561
112.599 40141 200.352
112.716 39772 199.429
112.832 40808 202.01
112.949 41618 204.005
113.066 41649 204.081
113.183 41251 203.103
113.3 40618 201.539
113.417 40248 200.619
113.534 39382 198.449
113.652 34987 187.048
113.769 31100 176.352
113.886 28929 170.085
114.003 28674 169.334
114.12 31353 177.068
114.238 37694 194.149
114.355 41987 204.907
114.472 43726 209.108
114.589 46027 214.539
114.707 46020 214.523
114.824 46485 215.604
114.942 47386 217.683
115.059 47825 218.689
115.176 47218 217.297
115.294 46451 215.525
115.411 45067 212.29
115.529 43446 208.437
115.646 42786 206.848
115.764 41915 204.732
115.881 41705 204.218
115.999 41780 204.402
116.116 41855 204.585
116.234 42662 206.548
116.351 42766 206.799
116.469 43369 208.252
116.586 43771 209.215
116.704 43727 209.11
116.821 43482 208.523
116.939 43092 207.586
117.056 42162 205.334
117.174 39497 198.739
117.291 35028 187.158
117.409 31437 177.305
117.526 30258 173.948
117.644 30965 175.969
117.761 35201 187.619
117.879 41144 202.84
117.996 44193 210.221
118.114 46504 215.648
118.231 47584 218.138
118.349 47853 218.753
118.466 48106 219.331
118.584 49062 221.499
118.701 48471 220.161
118.819 47909 218.881
118.936 46821 216.382
119.053 45041 212.229
119.171 44204 210.247
119.288 43227 207.911
119.405 42923 207.179
119.523 42332 205.747
119.64 42298 205.665
119.757 42453 206.041
119.875 42040 205.037
119.992 42251 205.55
120.109 42668 206.562
120.226 42726 206.703
120.343 42181 205.38
120.46 42044 205.046
120.578 41764 204.362
120.695 41378 203.416
120.812 39365 198.406
120.929 35855 189.354
121.046 32570 180.472
121.163 30767 175.405
121.279 30047 173.341
121.396 32433 180.092
121.513 37654 194.046
121.63 42560 206.301
121.747 45239 212.695
121.863 45890 214.22
121.98 46993 216.779
122.097 47346 217.591
122.213 47297 217.479
122.33 46958 216.698
122.446 47019 216.839
122.563 45734 213.855
122.679 44820 211.707
122.795 43439 208.42
122.912 43089 207.579
123.028 42482 206.112
123.144 41957 204.834
123.26 41284 203.185
123.377 0 1
123.493 0 1
123.609 0 1
123.725 0 1
123.84 0 1
123.956 0 1
124.072 0 1
124.188 0 1
124.303 0 1
124.419 0 1
126.852 0 1
126.968 0 1
127.083 0 1
127.199 0 1
127.315 0 1
127.431 0 1
127.547 0 1
127.663 0 1
127.779 0 1
127.895 0 1
128.011 0 1
128.127 0 1
128.243 0 1
128.359 46677 216.049
128.476 46195 214.93
128.592 46287 215.144
128.708 45885 214.208
128.825 46219 214.986
128.941 46502 215.643
129.058 46527 215.701
129.174 46849 216.446
129.291 46773 216.271
129.408 46388 215.379
129.524 45662 213.687
129.641 45726 213.836
129.758 43098 207.601
129.875 38715 196.761
129.992 35781 189.159
130.108 33369 182.672
130.225 32346 179.85
130.342 35748 189.071
130.459 40439 201.095
130.576 47260 217.394
130.693 49406 222.275
130.81 50493 224.706
130.928 50970 225.765
131.045 51423 226.766
131.162 51450 226.826
131.279 52151 228.366
131.396 52117 228.291
131.513 51275 226.44
131.631 50595 224.933
131.748 50202 224.058
131.865 50161 223.967
131.983 49445 222.362
132.1 50492 224.704
132.217 49308 222.054
132.335 49581 222.668
132.452 49213 221.84
132.57 49310 222.059
132.687 48483 220.189
132.804 49653 222.83
132.922 48926 221.192
133.039 48862 221.048
133.157 48390 219.977
133.274 46066 214.63
133.392 41625 204.022
133.509 37686 194.129
133.627 34774 186.478
133.744 32658 180.715
133.862 33610 183.33
133.979 38753 196.858
134.097 44412 210.742
134.214 47833 218.708
134.332 50480 224.678
134.449 50765 225.311
134.567 51225 226.329
134.684 51728 227.438
134.802 51850 227.706
134.919 51584 227.121
135.037 51933 227.888
135.154 51207 226.29
135.272 50643 225.04
135.389 50312 224.303
135.507 50568 224.873
135.624 50540 224.811
135.742 50066 223.754
135.859 49520 222.531
135.977 49665 222.856
136.094 49767 223.085
136.211 49314 222.068
136.329 49684 222.899
136.446 49359 222.169
136.564 49234 221.887
136.681 48837 220.991
136.798 48537 220.311
136.915 44597 211.18
137.033 40252 200.629
137.15 36843 191.945
137.267 34334 185.294
137.384 32634 180.649
137.502 33873 184.046
137.619 39102 197.742
137.736 43977 209.707
137.853 46260 215.081
137.97 49253 221.93
138.087 48801 220.909
138.204 50136 223.911
138.321 51342 226.588
138.438 51736 227.455
138.555 52215 228.506
138.672 52123 228.305
138.788 52023 228.086
138.905 51602 227.161
139.022 51898 227.811
139.139 51629 227.22
139.255 51005 225.843
139.372 50826 225.446
139.488 50114 223.862
139.605 50221 224.1
139.721 50612 224.971
139.838 50011 223.631
139.954 50334 224.352
140.071 49463 222.403
140.187 49790 223.137
140.303 49173 221.75
140.419 48015 219.123
140.535 45168 212.528
140.652 40752 201.871
140.768 0 1
140.884 0 1
141 0 1
141.115 0 1
141.231 0 1
141.347 0 1
141.463 0 1
141.578 0 1
141.694 0 1
144.104 0 1
144.219 0 1
144.335 0 1
144.45 0 1
144.566 0 1
144.682 0 1
144.798 0 1
144.914 0 1
145.03 0 1
145.146 34827 186.62
145.262 39226 198.056
145.378 39724 199.309
145.494 39668 199.168
145.61 38616 196.51
145.726 36062 189.9
145.842 33377 182.694
145.959 30707 175.234
146.075 29268 171.079
146.192 28013 167.371
146.308 28353 168.383
146.425 30778 175.437
146.541 33601 183.306
146.658 36016 189.779
146.774 38277 195.645
146.891 40199 200.497
147.008 41534 203.799
147.125 41594 203.946
147.241 43257 207.983
147.358 43282 208.043
147.475 44071 209.931
147.592 44105 210.012
147.709 43820 209.332
147.826 44406 210.727
147.943 43857 209.421
148.06 43885 209.487
148.177 43390 208.303
148.294 42441 206.012
148.411 42786 206.848
148.528 43117 207.646
148.645 43004 207.374
148.762 43344 208.192
148.88 43191 207.824
148.997 42187 205.395
149.114 43661 208.952
149.231 42541 206.255
149.349 41748 204.323
149.466 40812 202.02
149.583 38021 194.99
149.701 35196 187.606
149.818 32621 180.613
149.935 30768 175.408
150.053 29858 172.795
150.17 31102 176.358
150.287 33295 182.469
150.405 35726 189.013
150.522 38117 195.236
150.64 40440 201.097
150.757 42336 205.757
150.875 43658 208.945
150.992 44844 211.764
151.11 45461 213.216
151.227 45843 214.11
151.344 45113 212.398
151.462 45681 213.731
151.579 46308 215.193
151.697 46063 214.623
151.814 45392 213.054
151.932 45451 213.192
152.049 45035 212.215
152.167 45199 212.601
152.284 45235 212.685
152.402 45238 212.692
152.519 45659 213.68
152.636 45369 213
152.754 44784 211.622
152.871 45245 212.709
152.989 44792 211.641
153.106 42094 205.168
153.223 39855 199.637
153.341 36264 190.431
153.458 34027 184.464
153.575 32516 180.322
153.693 32168 179.354
153.81 33746 183.701
153.927 36110 190.026
154.044 38507 196.232
154.162 40835 202.077
154.279 43533 208.646
154.396 45679 213.726
154.513 47109 217.046
154.63 48057 219.219
154.747 48601 220.456
154.864 49237 221.894
154.981 49313 222.065
155.098 48719 220.724
155.215 48701 220.683
155.332 47967 219.014
155.449 47602 218.179
155.566 47363 217.63
155.683 47124 217.081
155.8 47141 217.12
155.917 47080 216.979
156.033 46925 216.622
156.15 0 1
156.267 0 1
156.383 0 1
156.5 0 1
156.617 0 1
156.733 0 1
156.85 0 1
156.966 0 1
157.082 0 1
157.199 0 1
157.315 0 1
157.431 0 1
157.547 0 1
157.664 0 1
157.78 0 1
157.896 0 1
158.012 0 1
158.128 0 1
158.244 0 1
158.359 0 1
158.475 0 1
158.591 0 1
158.706 0 1
