
6.15755 0 1
6.2731 0 1
6.3887 0 1
6.50437 0 1
6.62009 0 1
6.73587 0 1
6.8517 0 1
6.96759 0 1
7.08353 0 1
7.19952 0 1
7.31557 0 1
7.43166 0 1
7.54781 0 1
7.664 0 1
7.78024 0 1
7.89653 0 1
8.01286 0 1
8.12924 0 1
8.24567 0 1
8.36213 0 1
8.47864 0 1
8.59519 0 1
8.71178 0 1
8.82841 0 1
8.94508 0 1
9.06179 0 1
9.17853 0 1
9.29531 0 1
9.41212 0 1
9.52897 0 1
9.64584 0 1
9.76276 0 1
9.8797 0 1
9.99667 0 1
10.1137 0 1
10.2307 0 1
10.3478 0 1
10.4648 0 1
10.5819 0 1
10.6991 0 1
10.8162 0 1
10.9334 0 1
11.0506 0 1
11.1678 0 1
11.285 0 1
11.4023 0 1
11.5196 0 1
11.6369 0 1
11.7542 0 1
11.8715 0 1
11.9888 0 1
12.1062 0 1
12.2235 0 1
12.3409 0 1
12.4582 0 1
12.5756 0 1
12.693 0 1
12.8104 0 1
12.9278 0 1
13.0452 0 1
13.1626 0 1
13.28 0 1
13.3974 0 1
13.5149 0 1
13.6323 0 1
13.7497 0 1
13.8671 0 1
13.9845 0 1
14.1019 0 1
14.2193 0 1
14.3367 0 1
14.4541 0 1
14.5714 0 1
14.6888 0 1
14.8062 0 1
14.9235 0 1
15.0408 0 0
15.1581 0 0
15.2755 0 0
15.3927 0 0
15.51 0 0
15.6273 0 0
15.7445 0 0
15.8617 0 0
15.9789 0 0
16.0961 0 0
16.2132 0 0
16.3304 0 0
16.4475 0 0
16.5646 0 0
16.6816 0 0
16.7986 0 0
16.9156 0 0
17.0326 0 0
17.1496 0 0
17.2665 0 0
17.3833 0 0
17.5002 0 0
17.617 0 0
17.7338 0 0
17.8505 0 0
17.9672 0 0
18.0839 0 0
18.2005 0 0
18.3171 0 0
18.4337 0 0
18.5502 0 0
18.6666 0 0
18.7831 0 0
18.8994 0 0
19.0158 0 0
19.1321 0 0
19.2483 0 0
19.3645 0 0
19.4806 0 0
19.5967 0 0
19.7128 0 0
19.8288 0 0
19.9447 0 0
20.0606 0 1
20.1764 0 1
20.2922 0 1
20.4079 0 1
20.5236 0 1
20.6392 0 1
20.7548 0 1
20.8702 0 1
23.3078 0 1
23.4233 0 1
23.539 0 1
23.6547 0 1
23.7704 0 1
23.8862 0 1
24.0021 0 1
24.118 0 1
24.234 0 1
24.35 0 1
24.4661 1634 40.4228
24.5822 1588 39.8497
24.6984 1552 39.3954
24.8146 1582 39.7744
24.9309 1549 39.3573
25.0472 1521 39
25.1636 1572 39.6485
25.28 1539 39.2301
25.3965 1636 40.4475
25.513 1636 40.4475
25.6296 1767 42.0357
25.7462 1771 42.0833
25.8628 1913 43.7379
25.9795 1896 43.5431
26.0962 1983 44.5309
26.213 1933 43.9659
26.3298 1946 44.1135
26.4466 1938 44.0227
26.5635 1909 43.6921
26.6804 1874 43.2897
26.7973 1881 43.3705
26.9143 1856 43.0813
27.0313 1832 42.8019
27.1483 1917 43.7836
27.2653 1862 43.1509
27.3824 1845 42.9535
27.4996 1872 43.2666
27.6167 1856 43.0813
27.7339 1856 43.0813
27.8511 1791 42.3202
27.9683 1742 41.7373
28.0855 1742 41.7373
28.2028 1627 40.3361
28.3201 1632 40.398
28.4374 1605 40.0625
28.5547 1513 38.8973
28.6721 1477 38.4318
28.7894 1471 38.3536
28.9068 1557 39.4588
29.0242 1694 41.1582
29.1416 1664 40.7922
29.259 1844 42.9418
29.3764 1799 42.4146
29.4939 1848 42.9884
29.6113 1895 43.5316
29.7288 1914 43.7493
29.8463 1851 43.0232
29.9638 1907 43.6692
30.0812 1879 43.3474
30.1987 1918 43.795
30.3162 1878 43.3359
30.4337 1769 42.0595
30.5512 1891 43.4856
30.6687 1829 42.7668
30.7862 1879 43.3474
30.9037 1878 43.3359
31.0212 1947 44.1248
31.1387 1966 44.3396
31.2562 1891 43.4856
31.3737 1897 43.5546
31.4912 1804 42.4735
31.6087 1802 42.45
31.7262 1684 41.0366
31.8436 1689 41.0974
31.9611 1656 40.694
32.0785 1641 40.5093
32.1959 1580 39.7492
32.3134 1516 38.9358
32.4308 1668 40.8412
32.5482 1610 40.1248
32.6655 1822 42.6849
32.7829 1734 41.6413
32.9002 1867 43.2088
33.0176 1872 43.2666
33.1349 1944 44.0908
33.2522 1864 43.1741
33.3694 1927 43.8976
33.4867 1986 44.5646
33.6039 1937 44.0114
33.7211 1879 43.3474
33.8383 1928 43.909
33.9554 1889 43.4626
34.0725 1854 43.0581
34.1896 1843 42.9302
34.3067 1877 43.3244
34.4237 1859 43.1161
34.5407 1870 43.2435
34.6577 1848 42.9884
34.7746 1948 44.1362
34.8915 1904 43.6348
35.0084 1894 43.5201
35.1252 1798 42.4028
35.242 1864 43.1741
35.3587 1812 42.5676
35.4755 1802 42.45
35.5921 1710 41.3521
35.7088 1651 40.6325
35.8254 1577 39.7115
35.9419 1527 39.0768
36.0584 1515 38.923
36.1749 1492 38.6264
36.2913 1642 40.5216
36.4077 1729 41.5812
36.524 1757 41.9166
36.6403 1778 42.1663
36.7565 1973 44.4185
36.8727 1944 44.0908
36.9889 1911 43.715
37.1049 1932 43.9545
37.221 0 1
37.3369 0 1
37.4529 0 1
37.5687 0 1
37.6845 0 1
37.8003 0 1
37.916 0 1
38.0316 0 1
38.1472 0 1
40.5851 0 1
40.7008 0 1
40.8164 0 1
40.9322 0 1
41.048 0 1
41.1639 0 1
41.2798 0 1
41.3958 0 1
41.5118 0 1
41.6279 0 1
41.744 1588 39.8497
41.8602 1714 41.4005
41.9765 1744 41.7612
42.0928 1805 42.4853
42.2091 1883 43.3935
42.3255 1778 42.1663
42.4419 1775 42.1307
42.5584 1762 41.9762
42.675 1754 41.8808
42.7915 1632 40.398
42.9081 1690 41.1096
43.0248 1620 40.2492
43.1415 1718 41.4488
43.2582 1703 41.2674
43.375 1779 42.1782
43.4918 1709 41.3401
43.6087 1778 42.1663
43.7256 1799 42.4146
43.8425 1701 41.2432
43.9595 1588 39.8497
44.0765 1632 40.398
44.1935 1553 39.4081
44.3106 1530 39.1152
44.4277 1431 37.8286
44.5448 1425 37.7492
44.6619 1314 36.2491
44.7791 1245 35.2846
44.8963 1254 35.4119
45.0136 1273 35.6791
45.1308 1309 36.1801
45.2481 1352 36.7696
45.3654 1359 36.8646
45.4827 1503 38.7685
45.6001 1435 37.8814
45.7174 1426 37.7624
45.8348 1368 36.9865
45.9522 1549 39.3573
46.0697 1410 37.55
46.1871 1405 37.4833
46.3046 1263 35.5387
46.422 1331 36.4829
46.5395 1336 36.5513
46.657 1274 35.6931
46.7745 1314 36.2491
46.892 1351 36.756
47.0096 1285 35.8469
47.1271 1374 37.0675
47.2446 1351 36.756
47.3622 1330 36.4692
47.4797 1289 35.9026
47.5973 1252 35.3836
47.7149 1181 34.3657
47.8324 1142 33.7935
47.95 1161 34.0735
48.0675 1148 33.8821
48.1851 1016 31.8748
48.3027 985 31.3847
48.4202 979 31.289
48.5378 1011 31.7962
48.6554 1008 31.749
48.7729 1099 33.1512
48.8904 1138 33.7343
49.008 1127 33.5708
49.1255 1161 34.0735
49.243 1167 34.1614
49.3605 1155 33.9853
49.478 1187 34.4529
49.5955 1111 33.3317
49.713 1138 33.7343
49.8304 1078 32.8329
49.9479 1117 33.4215
50.0653 1148 33.8821
50.1827 1111 33.3317
50.3001 1184 34.4093
50.4175 1211 34.7994
50.5348 1288 35.8887
50.6521 1203 34.6843
50.7694 1354 36.7967
50.8867 1369 37
51.004 1329 36.4555
51.1212 1350 36.7423
51.2384 1335 36.5377
51.3556 1378 37.1214
51.4727 1354 36.7967
51.5899 1225 35
51.707 1161 34.0735
51.824 1194 34.5543
51.9411 1213 34.8281
52.0581 1210 34.7851
52.175 1267 35.5949
52.2919 1283 35.819
52.4088 1505 38.7943
52.5257 1482 38.4968
52.6425 1554 39.4208
52.7593 1454 38.1314
52.876 1570 39.6232
52.9927 1584 39.7995
53.1094 1577 39.7115
53.226 1560 39.4968
53.3426 1443 37.9868
53.4591 1461 38.223
53.5756 1413 37.5899
53.692 1496 38.6782
53.8084 1553 39.4081
53.9248 1577 39.7115
54.0411 1584 39.7995
54.1573 1630 40.3733
54.2735 0 1
54.3896 0 1
54.5057 0 1
54.6217 0 1
54.7377 0 1
54.8537 0 1
54.9695 0 1
55.0853 0 1
55.2011 0 1
55.3168 0 1
55.4324 0 1
57.824 0 1
57.9396 0 1
58.0553 0 1
58.1711 0 1
58.2869 0 1
58.4028 0 1
58.5187 0 1
58.6347 0 1
58.7508 0 1
58.8669 0 1
58.983 1663 40.7799
59.0992 1783 42.2256
59.2155 1797 42.391
59.3318 1889 43.4626
59.4482 1895 43.5316
59.5646 1886 43.4281
59.681 1911 43.715
59.7975 1915 43.7607
59.9141 1777 42.1545
60.0306 1790 42.3084
60.1473 1748 41.8091
60.2639 1692 41.1339
60.3807 1612 40.1497
60.4974 1450 38.0789
60.6142 1435 37.8814
60.731 1374 37.0675
60.8479 1513 38.8973
60.9648 1545 39.3065
61.0818 1664 40.7922
61.1987 1672 40.8901
61.3158 1707 41.3159
61.4328 1738 41.6893
61.5499 1800 42.4264
61.667 1749 41.821
61.7841 1655 40.6817
61.9013 1597 39.9625
62.0185 1590 39.8748
62.1357 1587 39.8372
62.253 1541 39.2556
62.3702 1564 39.5474
62.4875 1685 41.0488
62.6049 1754 41.8808
62.7222 1754 41.8808
62.8396 1770 42.0714
62.9569 1876 43.3128
63.0743 1787 42.2729
63.1918 1799 42.4146
63.3092 1736 41.6653
63.4267 1742 41.7373
63.5441 1712 41.3763
63.6616 1659 40.7308
63.7791 1523 39.0256
63.8966 1443 37.9868
64.0142 1469 38.3275
64.1317 1292 35.9444
64.2492 1306 36.1386
64.3668 1290 35.9166
64.4843 1364 36.9324
64.6019 1511 38.8716
64.7195 1570 39.6232
64.837 1643 40.5339
64.9546 1546 39.3192
65.0722 1604 40.05
65.1898 1608 40.0999
65.3074 1614 40.1746
65.4249 1497 38.6911
65.5425 1456 38.1576
65.6601 1420 37.6829
65.7777 1390 37.2827
65.8952 1458 38.1838
66.0128 1527 39.0768
66.1304 1525 39.0512
66.2479 1513 38.8973
66.3655 1645 40.5586
66.483 1680 40.9878
66.6005 1728 41.5692
66.718 1723 41.509
66.8355 1638 40.4722
66.953 1671 40.8779
67.0705 1638 40.4722
67.1879 1666 40.8167
67.3054 1540 39.2428
67.4228 1402 37.4433
67.5402 1325 36.4005
67.6576 1290 35.9166
67.7749 1222 34.9571
67.8923 1176 34.2929
68.0096 1266 35.5809
68.1269 1329 36.4555
68.2442 1546 39.3192
68.3614 1500 38.7298
68.4787 1568 39.598
68.5958 1616 40.1995
68.713 1580 39.7492
68.8302 1584 39.7995
68.9473 1524 39.0384
69.0643 1477 38.4318
69.1814 1450 38.0789
69.2984 1416 37.6298
69.4154 1400 37.4166
69.5323 1410 37.55
69.6492 1571 39.6358
69.7661 1591 39.8873
69.8829 1619 40.2368
69.9997 1655 40.6817
70.1165 1719 41.4608
70.2332 1717 41.4367
70.3499 1727 41.5572
70.4665 1783 42.2256
70.5831 1745 41.7732
70.6996 1639 40.4846
70.8161 1629 40.3609
70.9326 1580 39.7492
71.049 1514 38.9102
71.1653 1385 37.2156
71.2817 1197 34.5977
71.3979 1104 33.2265
71.5141 1132 33.6452
71.6303 1155 33.9853
71.7464 1099 33.1512
71.8624 0 1
71.9784 0 1
72.0944 0 1
72.2102 0 1
72.3261 0 1
72.4418 0 1
72.5575 0 1
72.6732 0 1
75.1054 0 1
75.2209 0 1
75.3365 0 1
75.4521 0 1
75.5678 0 1
75.6835 0 1
75.7993 0 1
75.9151 0 1
76.031 0 1
76.147 1403 37.4566
76.263 1482 38.4968
76.3791 1486 38.5487
76.4952 1385 37.2156
76.6113 1223 34.9714
76.7276 1135 33.6898
76.8438 1154 33.9706
76.9601 1190 34.4964
77.0765 1257 35.4542
77.1929 1311 36.2077
77.3093 1486 38.5487
77.4258 1529 39.1024
77.5423 1519 38.9744
77.6589 1526 39.064
77.7755 1542 39.2683
77.8921 1421 37.6962
78.0088 1535 39.1791
78.1256 1357 36.8375
78.2423 1235 35.1426
78.3591 1231 35.0856
78.4759 1225 35
78.5928 1331 36.4829
78.7097 1422 37.7094
78.8266 1496 38.6782
78.9436 1588 39.8497
79.0606 1614 40.1746
79.1776 1624 40.2989
79.2946 1650 40.6202
79.4117 1646 40.5709
79.5288 1594 39.9249
79.6459 1685 41.0488
79.7631 1547 39.3319
79.8802 1512 38.8844
79.9974 1430 37.8153
80.1147 1365 36.9459
80.2319 1182 34.3802
80.3491 1099 33.1512
80.4664 1094 33.0757
80.5837 1103 33.2114
80.701 1245 35.2846
80.8183 1285 35.8469
80.9357 1362 36.9053
81.053 1429 37.8021
81.1704 1404 37.47
81.2877 1369 37
81.4051 1483 38.5097
81.5225 1345 36.6742
81.6399 1349 36.7287
81.7573 1283 35.819
81.8747 1110 33.3167
81.9922 1112 33.3467
82.1096 1145 33.8378
82.227 1258 35.4683
82.3444 1294 35.9722
82.4619 1326 36.4143
82.5793 1494 38.6523
82.6967 1462 38.2361
82.8142 1487 38.5616
82.9316 1514 38.9102
83.049 1516 38.9358
83.1664 1494 38.6523
83.2838 1459 38.1969
83.4012 1437 37.9078
83.5186 1412 37.5766
83.636 1272 35.6651
83.7534 1233 35.1141
83.8708 1093 33.0606
83.9881 1003 31.6702
84.1055 1088 32.9848
84.2228 1069 32.6956
84.3401 1074 32.7719
84.4575 1170 34.2053
84.5747 1329 36.4555
84.692 1340 36.606
84.8093 1346 36.6879
84.9265 1377 37.108
85.0437 1334 36.524
85.1609 1318 36.3043
85.2781 1196 34.5832
85.3952 1189 34.4819
85.5123 1089 33
85.6294 1139 33.7491
85.7465 1136 33.7046
85.8636 1300 36.0555
85.9806 1408 37.5233
86.0976 1443 37.9868
86.2145 1563 39.5348
86.3315 1599 39.9875
86.4484 1646 40.5709
86.5652 1718 41.4488
86.682 1688 41.0853
86.7988 1705 41.2916
86.9156 1557 39.4588
87.0323 1598 39.975
87.149 1536 39.1918
87.2657 1461 38.223
87.3823 1360 36.8782
87.4988 1217 34.8855
87.6154 1141 33.7787
87.7318 1197 34.5977
87.8483 1306 36.1386
87.9647 1365 36.9459
88.081 1523 39.0256
88.1973 1585 39.8121
88.3136 1661 40.7554
88.4298 1581 39.7618
88.546 1507 38.8201
88.6621 1539 39.2301
88.7781 1377 37.108
88.8942 0 1
89.0101 0 1
89.126 0 1
89.2419 0 1
89.3577 0 1
89.4734 0 1
89.5891 0 1
89.7047 0 1
89.8203 0 1
89.9358 0 1
92.3269 0 1
92.4424 0 1
92.558 0 1
92.6736 0 1
92.7893 0 1
92.905 0 1
93.0208 0 1
93.1366 0 1
93.2525 0 1
93.3685 0 1
93.4845 0 1
93.6005 1549 39.3573
93.7167 1574 39.6737
93.8328 1624 40.2989
93.949 1645 40.5586
94.0653 1527 39.0768
94.1816 1492 38.6264
94.2979 1453 38.1182
94.4143 1384 37.2022
94.5307 1348 36.7151
94.6472 1274 35.6931
94.7637 1256 35.4401
94.8803 1340 36.606
94.9969 1555 39.4335
95.1135 1588 39.8497
95.2302 1611 40.1373
95.3469 1550 39.37
95.4637 1789 42.2966
95.5805 1819 42.6497
95.6973 1865 43.1856
95.8142 1870 43.2435
95.9311 1857 43.0929
96.048 1777 42.1545
96.1649 1688 41.0853
96.2819 1628 40.3485
96.3989 1551 39.3827
96.516 1383 37.1887
96.633 1399 37.4032
96.7501 1299 36.0416
96.8673 1314 36.2491
96.9844 1384 37.2022
97.1016 1485 38.5357
97.2188 1572 39.6485
97.336 1547 39.3319
97.4532 1729 41.5812
97.5704 1691 41.1218
97.6877 1678 40.9634
97.805 1582 39.7744
97.9223 1511 38.8716
98.0396 1363 36.9188
98.1569 1299 36.0416
98.2743 1250 35.3553
98.3916 1288 35.8887
98.509 1331 36.4829
98.6264 1447 38.0395
98.7438 1579 39.7366
98.8612 1631 40.3856
98.9786 1758 41.9285
99.096 1899 43.5775
99.2134 1906 43.6578
99.3308 1806 42.4971
99.4482 1849 43
99.5656 1811 42.5558
99.6831 1847 42.9767
99.8005 1633 40.4104
99.9179 1607 40.0874
100.035 1562 39.5221
100.153 1444 38
100.27 1410 37.55
100.388 1457 38.1707
100.505 1408 37.5233
100.622 1510 38.8587
100.74 1563 39.5348
100.857 1697 41.1947
100.975 1785 42.2493
101.092 1772 42.0951
101.209 1741 41.7253
101.327 1678 40.9634
101.444 1566 39.5727
101.561 1539 39.2301
101.679 1373 37.054
101.796 1281 35.7911
101.913 1263 35.5387
102.03 1374 37.0675
102.148 1539 39.2301
102.265 1855 43.0697
102.382 1685 41.0488
102.499 1932 43.9545
102.616 1950 44.1588
102.733 1934 43.9773
102.851 1969 44.3734
102.968 2072 45.5192
103.085 1958 44.2493
103.202 1924 43.8634
103.319 1890 43.4741
103.436 1727 41.5572
103.552 1714 41.4005
103.669 1604 40.05
103.786 1552 39.3954
103.903 1507 38.8201
104.02 1579 39.7366
104.137 1555 39.4335
104.253 1790 42.3084
104.37 1721 41.4849
104.487 1926 43.8862
104.603 1884 43.4051
104.72 1817 42.6263
104.836 1765 42.0119
104.953 1716 41.4246
105.069 1538 39.2173
105.186 1400 37.4166
105.302 1419 37.6696
105.418 1442 37.9737
105.535 1653 40.6571
105.651 1677 40.9512
105.767 1910 43.7035
105.883 1970 44.3847
105.999 2002 44.7437
106.115 0 1
106.231 0 1
106.347 0 1
106.463 0 1
106.579 0 1
106.694 0 1
106.81 0 1
106.926 0 1
107.041 0 1
107.157 0 1
109.576 0 1
109.692 0 1
109.807 0 1
109.923 0 1
110.039 0 1
110.155 0 1
110.27 0 1
110.386 0 1
110.502 0 1
110.618 1471 38.3536
110.735 1665 40.8044
110.851 1878 43.3359
110.967 1960 44.2719
111.083 1961 44.2832
111.199 2114 45.9783
111.316 2070 45.4973
111.432 2135 46.2061
111.549 2097 45.793
111.665 2109 45.9239
111.782 1910 43.7035
111.898 1857 43.0929
112.015 1743 41.7493
112.132 1665 40.8044
112.248 1577 39.7115
112.365 1634 40.4228
112.482 1549 39.3573
112.599 1548 39.3446
112.716 1642 40.5216
112.832 1751 41.845
112.949 1850 43.0116
113.066 1880 43.359
113.183 1830 42.7785
113.3 1796 42.3792
113.417 1679 40.9756
113.534 1679 40.9756
113.652 1423 37.7227
113.769 1452 38.1051
113.886 1315 36.2629
114.003 1370 37.0135
114.12 1451 38.092
114.238 1605 40.0625
114.355 1846 42.9651
114.472 1962 44.2945
114.589 1805 42.4853
114.707 1913 43.7379
114.824 1914 43.7493
114.942 1967 44.3509
115.059 1941 44.0568
115.176 1963 44.3058
115.294 1775 42.1307
115.411 1737 41.6773
115.529 1724 41.5211
115.646 1634 40.4228
115.764 1570 39.6232
115.881 1556 39.4462
115.999 1546 39.3192
116.116 1594 39.9249
116.234 1587 39.8372
116.351 1673 40.9023
116.469 1703 41.2674
116.586 1731 41.6053
116.704 1815 42.6028
116.821 1703 41.2674
116.939 1669 40.8534
117.056 1578 39.724
117.174 1524 39.0384
117.291 1455 38.1445
117.409 1292 35.9444
117.526 1263 35.5387
117.644 1425 37.7492
117.761 1562 39.5221
117.879 1683 41.0244
117.996 1769 42.0595
118.114 1841 42.9069
118.231 1935 43.9886
118.349 1881 43.3705
118.466 1885 43.4166
118.584 1900 43.589
118.701 1908 43.6807
118.819 1835 42.8369
118.936 1905 43.6463
119.053 1667 40.8289
119.171 1665 40.8044
119.288 1657 40.7063
119.405 1565 39.5601
119.523 1558 39.4715
119.64 1525 39.0512
119.757 1473 38.3797
119.875 1686 41.0609
119.992 1701 41.2432
120.109 1651 40.6325
120.226 1713 41.3884
120.343 1679 40.9756
120.46 1623 40.2865
120.578 1613 40.1622
120.695 1531 39.128
120.812 1477 38.4318
120.929 1388 37.2559
121.046 1293 35.9583
121.163 1274 35.6931
121.279 1356 36.8239
121.396 1452 38.1051
121.513 1642 40.5216
121.63 1680 40.9878
121.747 1748 41.8091
121.863 1870 43.2435
121.98 1847 42.9767
122.097 1900 43.589
122.213 1852 43.0349
122.33 1794 42.3556
122.446 1804 42.4735
122.563 1811 42.5558
122.679 1757 41.9166
122.795 1661 40.7554
122.912 1620 40.2492
123.028 1492 38.6264
123.144 1512 38.8844
123.26 1480 38.4708
123.377 0 1
123.493 0 1
123.609 0 1
123.725 0 1
123.84 0 1
123.956 0 1
124.072 0 1
124.188 0 1
124.303 0 1
124.419 0 1
126.852 0 1
126.968 0 1
127.083 0 1
127.199 0 1
127.315 0 1
127.431 0 1
127.547 0 1
127.663 0 1
127.779 0 1
127.895 0 1
128.011 0 1
128.127 0 1
128.243 0 1
128.359 1602 40.025
128.476 1671 40.8779
128.592 1780 42.19
128.708 1766 42.0238
128.825 1785 42.2493
128.941 1820 42.6615
129.058 1814 42.5911
129.174 1836 42.8486
129.291 1835 42.8369
129.408 1783 42.2256
129.524 1735 41.6533
129.641 1652 40.6448
129.758 1502 38.7556
129.875 1505 38.7943
129.992 1400 37.4166
130.108 1416 37.6298
130.225 1462 38.2361
130.342 1624 40.2989
130.459 1792 42.332
130.576 1936 44
130.693 1975 44.441
130.81 1907 43.6692
130.928 1973 44.4185
131.045 1972 44.4072
131.162 1918 43.795
131.279 1924 43.8634
131.396 1991 44.6206
131.513 1981 44.5084
131.631 1852 43.0349
131.748 1866 43.1972
131.865 1793 42.3438
131.983 1754 41.8808
132.1 1730 41.5933
132.217 1852 43.0349
132.335 1870 43.2435
132.452 1908 43.6807
132.57 1990 44.6094
132.687 1812 42.5676
132.804 1926 43.8862
132.922 1852 43.0349
133.039 1794 42.3556
133.157 1703 41.2674
133.274 1613 40.1622
133.392 1558 39.4715
133.509 1483 38.5097
133.627 1524 39.0384
133.744 1509 38.8458
133.862 1649 40.6079
133.979 1730 41.5933
134.097 1855 43.0697
134.214 1891 43.4856
134.332 1893 43.5086
134.449 1962 44.2945
134.567 1920 43.8178
134.684 1936 44
134.802 2010 44.833
134.919 2000 44.7214
135.037 1909 43.6921
135.154 1958 44.2493
135.272 1916 43.7721
135.389 1894 43.5201
135.507 1846 42.9651
135.624 1832 42.8019
135.742 1852 43.0349
135.859 1851 43.0232
135.977 1965 44.3283
136.094 1903 43.6234
136.211 1766 42.0238
136.329 1931 43.9431
136.446 1936 44
136.564 1898 43.566
136.681 1808 42.5206
136.798 1799 42.4146
136.915 1600 40
137.033 1616 40.1995
137.15 1502 38.7556
137.267 1511 38.8716
137.384 1532 39.1408
137.502 1647 40.5832
137.619 1730 41.5933
137.736 1803 42.4617
137.853 1926 43.8862
137.97 1977 44.4635
138.087 2010 44.833
138.204 1960 44.2719
138.321 2016 44.8999
138.438 2000 44.7214
138.555 2038 45.1442
138.672 2067 45.4643
138.788 2006 44.7884
138.905 2004 44.7661
139.022 1923 43.852
139.139 1922 43.8406
139.255 1935 43.9886
139.372 2065 45.4423
139.488 1944 44.0908
139.605 1994 44.6542
139.721 2101 45.8367
139.838 1999 44.7102
139.954 1977 44.4635
140.071 1995 44.6654
140.187 2093 45.7493
140.303 1889 43.4626
140.419 1861 43.1393
140.535 1754 41.8808
140.652 1620 40.2492
140.768 0 1
140.884 0 1
141 0 1
141.115 0 1
141.231 0 1
141.347 0 1
141.463 0 1
141.578 0 1
141.694 0 1
144.104 0 1
144.219 0 1
144.335 0 1
144.45 0 1
144.566 0 1
144.682 0 1
144.798 0 1
144.914 0 1
145.03 0 1
145.146 1747 41.7971
145.262 1627 40.3361
145.378 1685 41.0488
145.494 1619 40.2368
145.61 1510 38.8587
145.726 1540 39.2428
145.842 1353 36.7831
145.959 1373 37.054
146.075 1444 38
146.192 1518 38.9615
146.308 1584 39.7995
146.425 1752 41.8569
146.541 1743 41.7493
146.658 1829 42.7668
146.774 1739 41.7013
146.891 1895 43.5316
147.008 1808 42.5206
147.125 1956 44.2267
147.241 1805 42.4853
147.358 1854 43.0581
147.475 1804 42.4735
147.592 1820 42.6615
147.709 1791 42.3202
147.826 1684 41.0366
147.943 1755 41.8927
148.06 1709 41.3401
148.177 1844 42.9418
148.294 1814 42.5911
148.411 1785 42.2493
148.528 1782 42.2137
148.645 1746 41.7852
148.762 1761 41.9643
148.88 1806 42.4971
148.997 1619 40.2368
149.114 1646 40.5709
149.231 1596 39.95
149.349 1481 38.4838
149.466 1390 37.2827
149.583 1366 36.9594
149.701 1325 36.4005
149.818 1460 38.2099
149.935 1531 39.128
150.053 1526 39.064
150.17 1623 40.2865
150.287 1692 41.1339
150.405 1730 41.5933
150.522 1728 41.5692
150.64 1754 41.8808
150.757 1772 42.0951
150.875 1807 42.5088
150.992 1753 41.8688
151.11 1752 41.8569
151.227 1753 41.8688
151.344 1764 42
151.462 1715 41.4126
151.579 1733 41.6293
151.697 1683 41.0244
151.814 1809 42.5323
151.932 1763 41.9881
152.049 1824 42.7083
152.167 1754 41.8808
152.284 1852 43.0349
152.402 1746 41.7852
152.519 1709 41.3401
152.636 1679 40.9756
152.754 1563 39.5348
152.871 1481 38.4838
152.989 1467 38.3014
153.106 1397 37.3765
153.223 1407 37.51
153.341 1430 37.8153
153.458 1379 37.1349
153.575 1477 38.4318
153.693 1591 39.8873
153.81 1653 40.6571
153.927 1725 41.5331
154.044 1716 41.4246
154.162 1854 43.0581
154.279 1893 43.5086
154.396 1884 43.4051
154.513 1930 43.9318
154.63 1884 43.4051
154.747 1984 44.5421
154.864 1850 43.0116
154.981 1752 41.8569
155.098 1783 42.2256
155.215 1811 42.5558
155.332 1809 42.5323
155.449 1832 42.8019
155.566 1864 43.1741
155.683 1851 43.0232
155.8 1872 43.2666
155.917 1833 42.8135
156.033 1797 42.391
156.15 0 1
156.267 0 1
156.383 0 1
156.5 0 1
156.617 0 1
156.733 0 1
156.85 0 1
156.966 0 1
157.082 0 1
157.199 0 1
157.315 0 1
157.431 0 1
157.547 0 1
157.664 0 1
157.78 0 1
157.896 0 1
158.012 0 1
158.128 0 1
158.244 0 1
158.359 0 1
158.475 0 1
158.591 0 1
158.706 0 1
