
6.15755 0 1
6.2731 0 1
6.3887 0 1
6.50437 0 1
6.62009 0 1
6.73587 0 1
6.8517 0 1
6.96759 0 1
7.08353 0 1
7.19952 0 1
7.31557 0 1
7.43166 0 1
7.54781 0 1
7.664 0 1
7.78024 0 1
7.89653 0 1
8.01286 0 1
8.12924 0 1
8.24567 0 1
8.36213 0 1
8.47864 0 1
8.59519 0 1
8.71178 0 1
8.82841 0 1
8.94508 0 1
9.06179 0 1
9.17853 0 1
9.29531 0 1
9.41212 0 1
9.52897 0 1
9.64584 0 1
9.76276 0 1
9.8797 0 1
9.99667 0 1
10.1137 0 1
10.2307 0 1
10.3478 0 1
10.4648 0 1
10.5819 0 1
10.6991 0 1
10.8162 0 1
10.9334 0 1
11.0506 0 1
11.1678 0 1
11.285 0 1
11.4023 0 1
11.5196 0 1
11.6369 0 1
11.7542 0 1
11.8715 0 1
11.9888 0 1
12.1062 0 1
12.2235 0 1
12.3409 0 1
12.4582 0 1
12.5756 0 1
12.693 0 1
12.8104 0 1
12.9278 0 1
13.0452 0 1
13.1626 0 1
13.28 0 1
13.3974 0 1
13.5149 0 1
13.6323 0 1
13.7497 0 1
13.8671 0 1
13.9845 0 1
14.1019 0 1
14.2193 0 1
14.3367 0 1
14.4541 0 1
14.5714 0 1
14.6888 0 1
14.8062 0 1
14.9235 0 1
15.0408 0 0
15.1581 0 0
15.2755 0 0
15.3927 0 0
15.51 0 0
15.6273 0 0
15.7445 0 0
15.8617 0 0
15.9789 0 0
16.0961 0 0
16.2132 0 0
16.3304 0 0
16.4475 0 0
16.5646 0 0
16.6816 0 0
16.7986 0 0
16.9156 0 0
17.0326 0 0
17.1496 0 0
17.2665 0 0
17.3833 0 0
17.5002 0 0
17.617 0 0
17.7338 0 0
17.8505 0 0
17.9672 0 0
18.0839 0 0
18.2005 0 0
18.3171 0 0
18.4337 0 0
18.5502 0 0
18.6666 0 0
18.7831 0 0
18.8994 0 0
19.0158 0 0
19.1321 0 0
19.2483 0 0
19.3645 0 0
19.4806 0 0
19.5967 0 0
19.7128 0 0
19.8288 0 0
19.9447 0 0
20.0606 0 1
20.1764 0 1
20.2922 0 1
20.4079 0 1
20.5236 0 1
20.6392 0 1
20.7548 0 1
20.8702 0 1
23.3078 0 1
23.4233 0 1
23.539 0 1
23.6547 0 1
23.7704 0 1
23.8862 0 1
24.0021 0 1
24.118 0 1
24.234 0 1
24.35 0 1
24.4661 1136 33.7046
24.5822 1201 34.6554
24.6984 1265 35.5668
24.8146 1281 35.7911
24.9309 1163 34.1028
25.0472 1217 34.8855
25.1636 1203 34.6843
25.28 1265 35.5668
25.3965 1242 35.242
25.513 1226 35.0143
25.6296 1292 35.9444
25.7462 1417 37.6431
25.8628 1314 36.2491
25.9795 1407 37.51
26.0962 1414 37.6032
26.213 1478 38.4448
26.3298 1377 37.108
26.4466 1420 37.6829
26.5635 1396 37.3631
26.6804 1345 36.6742
26.7973 1281 35.7911
26.9143 1239 35.1994
27.0313 1269 35.623
27.1483 1404 37.47
27.2653 1434 37.8682
27.3824 1418 37.6563
27.4996 1418 37.6563
27.6167 1395 37.3497
27.7339 1351 36.756
27.8511 1359 36.8646
27.9683 1378 37.1214
28.0855 1433 37.855
28.2028 1454 38.1314
28.3201 1435 37.8814
28.4374 1371 37.027
28.5547 1312 36.2215
28.6721 1309 36.1801
28.7894 1331 36.4829
28.9068 1364 36.9324
29.0242 1441 37.9605
29.1416 1452 38.1051
29.259 1461 38.223
29.3764 1522 39.0128
29.4939 1462 38.2361
29.6113 1523 39.0256
29.7288 1532 39.1408
29.8463 1475 38.4057
29.9638 1501 38.7427
30.0812 1393 37.3229
30.1987 1397 37.3765
30.3162 1232 35.0999
30.4337 1206 34.7275
30.5512 1346 36.6879
30.6687 1326 36.4143
30.7862 1405 37.4833
30.9037 1367 36.973
31.0212 1385 37.2156
31.1387 1405 37.4833
31.2562 1373 37.054
31.3737 1354 36.7967
31.4912 1270 35.6371
31.6087 1411 37.5633
31.7262 1326 36.4143
31.8436 1294 35.9722
31.9611 1381 37.1618
32.0785 1222 34.9571
32.1959 1238 35.1852
32.3134 1162 34.0881
32.4308 1266 35.5809
32.5482 1210 34.7851
32.6655 1301 36.0694
32.7829 1272 35.6651
32.9002 1277 35.7351
33.0176 1345 36.6742
33.1349 1279 35.7631
33.2522 1364 36.9324
33.3694 1375 37.081
33.4867 1344 36.6606
33.6039 1278 35.7491
33.7211 1294 35.9722
33.8383 1225 35
33.9554 1182 34.3802
34.0725 1140 33.7639
34.1896 1111 33.3317
34.3067 1155 33.9853
34.4237 1180 34.3511
34.5407 1265 35.5668
34.6577 1193 34.5398
34.7746 1278 35.7491
34.8915 1148 33.8821
35.0084 1177 34.3074
35.1252 1170 34.2053
35.242 1200 34.641
35.3587 1201 34.6554
35.4755 1224 34.9857
35.5921 1195 34.5688
35.7088 1193 34.5398
35.8254 1147 33.8674
35.9419 1142 33.7935
36.0584 1092 33.0454
36.1749 1170 34.2053
36.2913 1177 34.3074
36.4077 1177 34.3074
36.524 1203 34.6843
36.6403 1247 35.3129
36.7565 1313 36.2353
36.8727 1184 34.4093
36.9889 1237 35.171
37.1049 1225 35
37.221 0 1
37.3369 0 1
37.4529 0 1
37.5687 0 1
37.6845 0 1
37.8003 0 1
37.916 0 1
38.0316 0 1
38.1472 0 1
40.5851 0 1
40.7008 0 1
40.8164 0 1
40.9322 0 1
41.048 0 1
41.1639 0 1
41.2798 0 1
41.3958 0 1
41.5118 0 1
41.6279 0 1
41.744 964 31.0483
41.8602 1005 31.7017
41.9765 1068 32.6803
42.0928 1026 32.0312
42.2091 1051 32.4191
42.3255 1106 33.2566
42.4419 1084 32.9242
42.5584 1046 32.3419
42.675 1035 32.1714
42.7915 996 31.5595
42.9081 942 30.692
43.0248 876 29.5973
43.1415 948 30.7896
43.2582 982 31.3369
43.375 976 31.241
43.4918 994 31.5278
43.6087 995 31.5436
43.7256 934 30.5614
43.8425 888 29.7993
43.9595 882 29.6985
44.0765 889 29.8161
44.1935 850 29.1548
44.3106 942 30.692
44.4277 884 29.7321
44.5448 845 29.0689
44.6619 839 28.9655
44.7791 762 27.6043
44.8963 786 28.0357
45.0136 807 28.4077
45.1308 835 28.8964
45.2481 826 28.7402
45.3654 799 28.2666
45.4827 841 29
45.6001 835 28.8964
45.7174 881 29.6816
45.8348 825 28.7228
45.9522 795 28.1957
46.0697 791 28.1247
46.1871 793 28.1603
46.3046 785 28.0179
46.422 710 26.6458
46.5395 685 26.1725
46.657 708 26.6083
46.7745 755 27.4773
46.892 782 27.9643
47.0096 727 26.9629
47.1271 764 27.6405
47.2446 754 27.4591
47.3622 681 26.096
47.4797 672 25.923
47.5973 622 24.9399
47.7149 689 26.2488
47.8324 673 25.9422
47.95 690 26.2679
48.0675 657 25.632
48.1851 608 24.6577
48.3027 636 25.219
48.4202 606 24.6171
48.5378 588 24.2487
48.6554 605 24.5967
48.7729 652 25.5343
48.8904 600 24.4949
49.008 645 25.3969
49.1255 689 26.2488
49.243 715 26.7395
49.3605 670 25.8844
49.478 705 26.5518
49.5955 669 25.865
49.713 657 25.632
49.8304 649 25.4755
49.9479 586 24.2074
50.0653 570 23.8747
50.1827 578 24.0416
50.3001 645 25.3969
50.4175 673 25.9422
50.5348 720 26.8328
50.6521 689 26.2488
50.7694 722 26.8701
50.8867 725 26.9258
51.004 674 25.9615
51.1212 633 25.1595
51.2384 756 27.4955
51.3556 814 28.5307
51.4727 769 27.7308
51.5899 783 27.9821
51.707 754 27.4591
51.824 757 27.5136
51.9411 759 27.55
52.0581 822 28.6705
52.175 817 28.5832
52.2919 836 28.9137
52.4088 896 29.9333
52.5257 937 30.6105
52.6425 945 30.7409
52.7593 957 30.9354
52.876 964 31.0483
52.9927 1003 31.6702
53.1094 1025 32.0156
53.226 962 31.0161
53.3426 976 31.241
53.4591 909 30.1496
53.5756 954 30.8869
53.692 847 29.1033
53.8084 902 30.0333
53.9248 1006 31.7175
54.0411 967 31.0966
54.1573 1085 32.9393
54.2735 0 1
54.3896 0 1
54.5057 0 1
54.6217 0 1
54.7377 0 1
54.8537 0 1
54.9695 0 1
55.0853 0 1
55.2011 0 1
55.3168 0 1
55.4324 0 1
57.824 0 1
57.9396 0 1
58.0553 0 1
58.1711 0 1
58.2869 0 1
58.4028 0 1
58.5187 0 1
58.6347 0 1
58.7508 0 1
58.8669 0 1
58.983 1041 32.2645
59.0992 1094 33.0757
59.2155 1191 34.5109
59.3318 1141 33.7787
59.4482 1201 34.6554
59.5646 1159 34.0441
59.681 1174 34.2637
59.7975 1103 33.2114
59.9141 1107 33.2716
60.0306 1037 32.2025
60.1473 1031 32.1092
60.2639 1090 33.0151
60.3807 1087 32.9697
60.4974 1048 32.3728
60.6142 1068 32.6803
60.731 1007 31.7333
60.8479 1086 32.9545
60.9648 1089 33
61.0818 1078 32.8329
61.1987 1106 33.2566
61.3158 1068 32.6803
61.4328 1100 33.1662
61.5499 1022 31.9687
61.667 1091 33.0303
61.7841 1057 32.5115
61.9013 1093 33.0606
62.0185 1021 31.9531
62.1357 925 30.4138
62.253 937 30.6105
62.3702 961 31
62.4875 998 31.5911
62.6049 1001 31.6386
62.7222 1137 33.7194
62.8396 1111 33.3317
62.9569 1093 33.0606
63.0743 1067 32.665
63.1918 1021 31.9531
63.3092 1012 31.8119
63.4267 961 31
63.5441 1009 31.7648
63.6616 963 31.0322
63.7791 971 31.1609
63.8966 970 31.1448
64.0142 925 30.4138
64.1317 977 31.257
64.2492 966 31.0805
64.3668 1007 31.7333
64.4843 1057 32.5115
64.6019 952 30.8545
64.7195 1020 31.9374
64.837 985 31.3847
64.9546 959 30.9677
65.0722 1031 32.1092
65.1898 922 30.3645
65.3074 1053 32.45
65.4249 1017 31.8904
65.5425 971 31.1609
65.6601 915 30.249
65.7777 874 29.5635
65.8952 845 29.0689
66.0128 858 29.2916
66.1304 977 31.257
66.2479 1036 32.187
66.3655 1052 32.4345
66.483 1026 32.0312
66.6005 1007 31.7333
66.718 1031 32.1092
66.8355 999 31.607
66.953 931 30.5123
67.0705 882 29.6985
67.1879 879 29.6479
67.3054 961 31
67.4228 892 29.8664
67.5402 914 30.2324
67.6576 878 29.6311
67.7749 917 30.282
67.8923 965 31.0644
68.0096 966 31.0805
68.1269 999 31.607
68.2442 1049 32.3883
68.3614 1040 32.249
68.4787 1045 32.3265
68.5958 981 31.3209
68.713 1032 32.1248
68.8302 1044 32.311
68.9473 992 31.496
69.0643 1030 32.0936
69.1814 1014 31.8434
69.2984 914 30.2324
69.4154 942 30.692
69.5323 958 30.9516
69.6492 905 30.0832
69.7661 1044 32.311
69.8829 1083 32.909
69.9997 1140 33.7639
70.1165 1092 33.0454
70.2332 1132 33.6452
70.3499 1118 33.4365
70.4665 1145 33.8378
70.5831 1063 32.6037
70.6996 1013 31.8277
70.8161 938 30.6268
70.9326 996 31.5595
71.049 973 31.1929
71.1653 947 30.7734
71.2817 1025 32.0156
71.3979 1038 32.218
71.5141 920 30.3315
71.6303 963 31.0322
71.7464 889 29.8161
71.8624 0 1
71.9784 0 1
72.0944 0 1
72.2102 0 1
72.3261 0 1
72.4418 0 1
72.5575 0 1
72.6732 0 1
75.1054 0 1
75.2209 0 1
75.3365 0 1
75.4521 0 1
75.5678 0 1
75.6835 0 1
75.7993 0 1
75.9151 0 1
76.031 0 1
76.147 805 28.3725
76.263 904 30.0666
76.3791 953 30.8707
76.4952 937 30.6105
76.6113 1013 31.8277
76.7276 985 31.3847
76.8438 1046 32.3419
76.9601 1034 32.1559
77.0765 1016 31.8748
77.1929 1052 32.4345
77.3093 1092 33.0454
77.4258 1097 33.121
77.5423 1097 33.121
77.6589 1081 32.8786
77.7755 1067 32.665
77.8921 1117 33.4215
78.0088 1074 32.7719
78.1256 1041 32.2645
78.2423 982 31.3369
78.3591 936 30.5941
78.4759 844 29.0517
78.5928 925 30.4138
78.7097 940 30.6594
78.8266 1006 31.7175
78.9436 1112 33.3467
79.0606 1044 32.311
79.1776 1076 32.8024
79.2946 1150 33.9116
79.4117 1083 32.909
79.5288 1085 32.9393
79.6459 1048 32.3728
79.7631 969 31.1288
79.8802 853 29.2062
79.9974 852 29.189
80.1147 831 28.8271
80.2319 877 29.6142
80.3491 924 30.3974
80.4664 897 29.95
80.5837 966 31.0805
80.701 1004 31.686
80.8183 912 30.1993
80.9357 991 31.4802
81.053 1047 32.3574
81.1704 997 31.5753
81.2877 1011 31.7962
81.4051 1003 31.6702
81.5225 968 31.1127
81.6399 955 30.9031
81.7573 920 30.3315
81.8747 874 29.5635
81.9922 835 28.8964
82.1096 816 28.5657
82.227 857 29.2746
82.3444 914 30.2324
82.4619 959 30.9677
82.5793 1075 32.7872
82.6967 953 30.8707
82.8142 1015 31.8591
82.9316 984 31.3688
83.049 997 31.5753
83.1664 963 31.0322
83.2838 862 29.3598
83.4012 805 28.3725
83.5186 815 28.5482
83.636 763 27.6225
83.7534 766 27.6767
83.8708 795 28.1957
83.9881 901 30.0167
84.1055 843 29.0345
84.2228 929 30.4795
84.3401 921 30.348
84.4575 945 30.7409
84.5747 1021 31.9531
84.692 1017 31.8904
84.8093 1017 31.8904
84.9265 1004 31.686
85.0437 958 30.9516
85.1609 927 30.4467
85.2781 882 29.6985
85.3952 964 31.0483
85.5123 842 29.0172
85.6294 809 28.4429
85.7465 854 29.2233
85.8636 889 29.8161
85.9806 934 30.5614
86.0976 897 29.95
86.2145 1048 32.3728
86.3315 1080 32.8634
86.4484 1048 32.3728
86.5652 1157 34.0147
86.682 1096 33.1059
86.7988 1072 32.7414
86.9156 1057 32.5115
87.0323 979 31.289
87.149 863 29.3769
87.2657 817 28.5832
87.3823 924 30.3974
87.4988 1000 31.6228
87.6154 1031 32.1092
87.7318 1042 32.28
87.8483 1116 33.4066
87.9647 1077 32.8177
88.081 1139 33.7491
88.1973 1164 34.1174
88.3136 1152 33.9411
88.4298 1168 34.176
88.546 1155 33.9853
88.6621 1135 33.6898
88.7781 1118 33.4365
88.8942 0 1
89.0101 0 1
89.126 0 1
89.2419 0 1
89.3577 0 1
89.4734 0 1
89.5891 0 1
89.7047 0 1
89.8203 0 1
89.9358 0 1
92.3269 0 1
92.4424 0 1
92.558 0 1
92.6736 0 1
92.7893 0 1
92.905 0 1
93.0208 0 1
93.1366 0 1
93.2525 0 1
93.3685 0 1
93.4845 0 1
93.6005 1116 33.4066
93.7167 1105 33.2415
93.8328 1113 33.3617
93.949 1119 33.4515
94.0653 1184 34.4093
94.1816 1107 33.2716
94.2979 1089 33
94.4143 962 31.0161
94.5307 1040 32.249
94.6472 1000 31.6228
94.7637 1027 32.0468
94.8803 1040 32.249
94.9969 1127 33.5708
95.1135 1161 34.0735
95.2302 1160 34.0588
95.3469 1143 33.8083
95.4637 1158 34.0294
95.5805 1213 34.8281
95.6973 1215 34.8569
95.8142 1291 35.9305
95.9311 1195 34.5688
96.048 1162 34.0881
96.1649 1087 32.9697
96.2819 1034 32.1559
96.3989 877 29.6142
96.516 917 30.282
96.633 960 30.9839
96.7501 1036 32.187
96.8673 1164 34.1174
96.9844 1122 33.4963
97.1016 1197 34.5977
97.2188 1193 34.5398
97.336 1151 33.9264
97.4532 1145 33.8378
97.5704 1227 35.0286
97.6877 1203 34.6843
97.805 1203 34.6843
97.9223 1074 32.7719
98.0396 1004 31.686
98.1569 1022 31.9687
98.2743 935 30.5778
98.3916 933 30.545
98.509 965 31.0644
98.6264 1165 34.1321
98.7438 1166 34.1467
98.8612 1188 34.4674
98.9786 1118 33.4365
99.096 1238 35.1852
99.2134 1210 34.7851
99.3308 1251 35.3695
99.4482 1302 36.0832
99.5656 1232 35.0999
99.6831 1231 35.0856
99.8005 1078 32.8329
99.9179 985 31.3847
100.035 856 29.2575
100.153 970 31.1448
100.27 1096 33.1059
100.388 1141 33.7787
100.505 1131 33.6303
100.622 1163 34.1028
100.74 1140 33.7639
100.857 1203 34.6843
100.975 1234 35.1283
101.092 1154 33.9706
101.209 1185 34.4238
101.327 1198 34.6121
101.444 1165 34.1321
101.561 1050 32.4037
101.679 1012 31.8119
101.796 999 31.607
101.913 991 31.4802
102.03 1046 32.3419
102.148 1073 32.7567
102.265 1120 33.4664
102.382 1268 35.609
102.499 1173 34.2491
102.616 1251 35.3695
102.733 1304 36.1109
102.851 1281 35.7911
102.968 1333 36.5103
103.085 1285 35.8469
103.202 1264 35.5528
103.319 1162 34.0881
103.436 1069 32.6956
103.552 968 31.1127
103.669 947 30.7734
103.786 1057 32.5115
103.903 1259 35.4824
104.02 1207 34.7419
104.137 1230 35.0714
104.253 1239 35.1994
104.37 1275 35.7071
104.487 1314 36.2491
104.603 1264 35.5528
104.72 1225 35
104.836 1240 35.2136
104.953 1208 34.7563
105.069 1151 33.9264
105.186 1092 33.0454
105.302 1070 32.7109
105.418 1122 33.4963
105.535 1157 34.0147
105.651 1262 35.5246
105.767 1337 36.565
105.883 1363 36.9188
105.999 1315 36.2629
106.115 0 1
106.231 0 1
106.347 0 1
106.463 0 1
106.579 0 1
106.694 0 1
106.81 0 1
106.926 0 1
107.041 0 1
107.157 0 1
109.576 0 1
109.692 0 1
109.807 0 1
109.923 0 1
110.039 0 1
110.155 0 1
110.27 0 1
110.386 0 1
110.502 0 1
110.618 1054 32.4654
110.735 1210 34.7851
110.851 1303 36.0971
110.967 1225 35
111.083 1303 36.0971
111.199 1309 36.1801
111.316 1368 36.9865
111.432 1379 37.1349
111.549 1255 35.426
111.665 1362 36.9053
111.782 1175 34.2783
111.898 1181 34.3657
112.015 1093 33.0606
112.132 928 30.4631
112.248 1039 32.2335
112.365 1086 32.9545
112.482 1144 33.8231
112.599 1287 35.8748
112.716 1243 35.2562
112.832 1202 34.6699
112.949 1178 34.322
113.066 1190 34.4964
113.183 1217 34.8855
113.3 1248 35.327
113.417 1146 33.8526
113.534 1135 33.6898
113.652 1041 32.2645
113.769 985 31.3847
113.886 1044 32.311
114.003 930 30.4959
114.12 1150 33.9116
114.238 1177 34.3074
114.355 1237 35.171
114.472 1194 34.5543
114.589 1196 34.5832
114.707 1279 35.7631
114.824 1254 35.4119
114.942 1277 35.7351
115.059 1272 35.6651
115.176 1287 35.8748
115.294 1235 35.1426
115.411 1207 34.7419
115.529 1084 32.9242
115.646 1012 31.8119
115.764 978 31.273
115.881 1005 31.7017
115.999 1149 33.8969
116.116 1173 34.2491
116.234 1167 34.1614
116.351 1169 34.1906
116.469 1189 34.4819
116.586 1214 34.8425
116.704 1163 34.1028
116.821 1225 35
116.939 1141 33.7787
117.056 1145 33.8378
117.174 1092 33.0454
117.291 1049 32.3883
117.409 1036 32.187
117.526 966 31.0805
117.644 1051 32.4191
117.761 1110 33.3167
117.879 1136 33.7046
117.996 1200 34.641
118.114 1220 34.9285
118.231 1271 35.6511
118.349 1276 35.7211
118.466 1209 34.7707
118.584 1315 36.2629
118.701 1289 35.9026
118.819 1249 35.3412
118.936 1199 34.6266
119.053 1223 34.9714
119.171 1081 32.8786
119.288 1025 32.0156
119.405 999 31.607
119.523 936 30.5941
119.64 1120 33.4664
119.757 1092 33.0454
119.875 1138 33.7343
119.992 1187 34.4529
120.109 1138 33.7343
120.226 1140 33.7639
120.343 1115 33.3916
120.46 1173 34.2491
120.578 1137 33.7194
120.695 1112 33.3467
120.812 1092 33.0454
120.929 980 31.305
121.046 1021 31.9531
121.163 1072 32.7414
121.279 1029 32.078
121.396 1052 32.4345
121.513 1162 34.0881
121.63 1195 34.5688
121.747 1143 33.8083
121.863 1228 35.0428
121.98 1236 35.1568
122.097 1220 34.9285
122.213 1244 35.2704
122.33 1199 34.6266
122.446 1231 35.0856
122.563 1154 33.9706
122.679 1189 34.4819
122.795 1062 32.5883
122.912 1050 32.4037
123.028 964 31.0483
123.144 839 28.9655
123.26 936 30.5941
123.377 0 1
123.493 0 1
123.609 0 1
123.725 0 1
123.84 0 1
123.956 0 1
124.072 0 1
124.188 0 1
124.303 0 1
124.419 0 1
126.852 0 1
126.968 0 1
127.083 0 1
127.199 0 1
127.315 0 1
127.431 0 1
127.547 0 1
127.663 0 1
127.779 0 1
127.895 0 1
128.011 0 1
128.127 0 1
128.243 0 1
128.359 1004 31.686
128.476 967 31.0966
128.592 1108 33.2866
128.708 1249 35.3412
128.825 1269 35.623
128.941 1245 35.2846
129.058 1233 35.1141
129.174 1251 35.3695
129.291 1259 35.4824
129.408 1274 35.6931
129.524 1235 35.1426
129.641 1228 35.0428
129.758 1101 33.1813
129.875 1083 32.909
129.992 1084 32.9242
130.108 1079 32.8481
130.225 1095 33.0908
130.342 1102 33.1964
130.459 1192 34.5254
130.576 1285 35.8469
130.693 1257 35.4542
130.81 1318 36.3043
130.928 1337 36.565
131.045 1329 36.4555
131.162 1258 35.4683
131.279 1315 36.2629
131.396 1258 35.4683
131.513 1301 36.0694
131.631 1213 34.8281
131.748 1185 34.4238
131.865 1035 32.1714
131.983 1015 31.8591
132.1 1095 33.0908
132.217 1118 33.4365
132.335 1233 35.1141
132.452 1298 36.0278
132.57 1260 35.4965
132.687 1204 34.6987
132.804 1366 36.9594
132.922 1288 35.8887
133.039 1203 34.6843
133.157 1158 34.0294
133.274 1302 36.0832
133.392 1184 34.4093
133.509 1149 33.8969
133.627 1052 32.4345
133.744 1110 33.3167
133.862 1158 34.0294
133.979 1161 34.0735
134.097 1257 35.4542
134.214 1255 35.426
134.332 1321 36.3456
134.449 1340 36.606
134.567 1309 36.1801
134.684 1280 35.7771
134.802 1362 36.9053
134.919 1310 36.1939
135.037 1258 35.4683
135.154 1288 35.8887
135.272 1324 36.3868
135.389 1126 33.5559
135.507 1029 32.078
135.624 1015 31.8591
135.742 1133 33.6601
135.859 1240 35.2136
135.977 1231 35.0856
136.094 1249 35.3412
136.211 1259 35.4824
136.329 1292 35.9444
136.446 1211 34.7994
136.564 1265 35.5668
136.681 1252 35.3836
136.798 1215 34.8569
136.915 1165 34.1321
137.033 1184 34.4093
137.15 1099 33.1512
137.267 1078 32.8329
137.384 1099 33.1512
137.502 1138 33.7343
137.619 1144 33.8231
137.736 1200 34.641
137.853 1182 34.3802
137.97 1265 35.5668
138.087 1246 35.2987
138.204 1291 35.9305
138.321 1289 35.9026
138.438 1340 36.606
138.555 1283 35.819
138.672 1346 36.6879
138.788 1264 35.5528
138.905 1297 36.0139
139.022 1088 32.9848
139.139 1043 32.2955
139.255 1064 32.619
139.372 1103 33.2114
139.488 1216 34.8712
139.605 1277 35.7351
139.721 1312 36.2215
139.838 1317 36.2905
139.954 1323 36.3731
140.071 1301 36.0694
140.187 1297 36.0139
140.303 1271 35.6511
140.419 1278 35.7491
140.535 1183 34.3948
140.652 1110 33.3167
140.768 0 1
140.884 0 1
141 0 1
141.115 0 1
141.231 0 1
141.347 0 1
141.463 0 1
141.578 0 1
141.694 0 1
144.104 0 1
144.219 0 1
144.335 0 1
144.45 0 1
144.566 0 1
144.682 0 1
144.798 0 1
144.914 0 1
145.03 0 1
145.146 942 30.692
145.262 993 31.5119
145.378 967 31.0966
145.494 987 31.4166
145.61 965 31.0644
145.726 917 30.282
145.842 947 30.7734
145.959 841 29
146.075 900 30
146.192 879 29.6479
146.308 903 30.05
146.425 902 30.0333
146.541 949 30.8058
146.658 992 31.496
146.774 1027 32.0468
146.891 1054 32.4654
147.008 1060 32.5576
147.125 1038 32.218
147.241 1006 31.7175
147.358 1055 32.4808
147.475 1120 33.4664
147.592 1066 32.6497
147.709 1034 32.1559
147.826 1012 31.8119
147.943 914 30.2324
148.06 858 29.2916
148.177 846 29.0861
148.294 884 29.7321
148.411 939 30.6431
148.528 1051 32.4191
148.645 1061 32.573
148.762 1041 32.2645
148.88 1022 31.9687
148.997 1065 32.6343
149.114 1049 32.3883
149.231 1062 32.5883
149.349 982 31.3369
149.466 1014 31.8434
149.583 923 30.3809
149.701 1009 31.7648
149.818 899 29.9833
149.935 901 30.0167
150.053 881 29.6816
150.17 957 30.9354
150.287 959 30.9677
150.405 1061 32.573
150.522 1066 32.6497
150.64 1067 32.665
150.757 1104 33.2265
150.875 1090 33.0151
150.992 1089 33
151.11 1048 32.3728
151.227 1087 32.9697
151.344 1074 32.7719
151.462 1018 31.9061
151.579 957 30.9354
151.697 931 30.5123
151.814 914 30.2324
151.932 901 30.0167
152.049 956 30.9192
152.167 1047 32.3574
152.284 1123 33.5112
152.402 1109 33.3017
152.519 1107 33.2716
152.636 1078 32.8329
152.754 1099 33.1512
152.871 1088 32.9848
152.989 1028 32.0624
153.106 962 31.0161
153.223 957 30.9354
153.341 1032 32.1248
153.458 956 30.9192
153.575 938 30.6268
153.693 952 30.8545
153.81 982 31.3369
153.927 1052 32.4345
154.044 1026 32.0312
154.162 1115 33.3916
154.279 1131 33.6303
154.396 1085 32.9393
154.513 1091 33.0303
154.63 1186 34.4384
154.747 1179 34.3366
154.864 1193 34.5398
154.981 1172 34.2345
155.098 1093 33.0606
155.215 1101 33.1813
155.332 957 30.9354
155.449 981 31.3209
155.566 1024 32
155.683 1129 33.6006
155.8 1122 33.4963
155.917 1190 34.4964
156.033 1175 34.2783
156.15 0 1
156.267 0 1
156.383 0 1
156.5 0 1
156.617 0 1
156.733 0 1
156.85 0 1
156.966 0 1
157.082 0 1
157.199 0 1
157.315 0 1
157.431 0 1
157.547 0 1
157.664 0 1
157.78 0 1
157.896 0 1
158.012 0 1
158.128 0 1
158.244 0 1
158.359 0 1
158.475 0 1
158.591 0 1
158.706 0 1
