
6.15755 0 1
6.2731 0 1
6.3887 0 1
6.50437 0 1
6.62009 0 1
6.73587 0 1
6.8517 0 1
6.96759 0 1
7.08353 0 1
7.19952 0 1
7.31557 0 1
7.43166 0 1
7.54781 0 1
7.664 0 1
7.78024 0 1
7.89653 0 1
8.01286 0 1
8.12924 0 1
8.24567 0 1
8.36213 0 1
8.47864 0 1
8.59519 0 1
8.71178 0 1
8.82841 0 1
8.94508 0 1
9.06179 0 1
9.17853 0 1
9.29531 0 1
9.41212 0 1
9.52897 0 1
9.64584 0 1
9.76276 0 1
9.8797 0 1
9.99667 0 1
10.1137 0 1
10.2307 0 1
10.3478 0 1
10.4648 0 1
10.5819 0 1
10.6991 0 1
10.8162 0 1
10.9334 0 1
11.0506 0 1
11.1678 0 1
11.285 0 1
11.4023 0 1
11.5196 0 1
11.6369 0 1
11.7542 0 1
11.8715 0 1
11.9888 0 1
12.1062 0 1
12.2235 0 1
12.3409 0 1
12.4582 0 1
12.5756 0 1
12.693 0 1
12.8104 0 1
12.9278 0 1
13.0452 0 1
13.1626 0 1
13.28 0 1
13.3974 0 1
13.5149 0 1
13.6323 0 1
13.7497 0 1
13.8671 0 1
13.9845 0 1
14.1019 0 1
14.2193 0 1
14.3367 0 1
14.4541 0 1
14.5714 0 1
14.6888 0 1
14.8062 0 1
14.9235 0 1
15.0408 1165 34.1321
15.1581 1209 34.7707
15.2755 1241 35.2278
15.3927 1279 35.7631
15.51 1256 35.4401
15.6273 1208 34.7563
15.7445 1298 36.0278
15.8617 1239 35.1994
15.9789 1217 34.8855
16.0961 1122 33.4963
16.2132 1128 33.5857
16.3304 1136 33.7046
16.4475 1148 33.8821
16.5646 1195 34.5688
16.6816 1227 35.0286
16.7986 1153 33.9559
16.9156 1284 35.8329
17.0326 1312 36.2215
17.1496 1290 35.9166
17.2665 1231 35.0856
17.3833 1316 36.2767
17.5002 1304 36.1109
17.617 1300 36.0555
17.7338 1358 36.8511
17.8505 1420 37.6829
17.9672 1366 36.9594
18.0839 1444 38
18.2005 1596 39.95
18.3171 1631 40.3856
18.4337 1536 39.1918
18.5502 1569 39.6106
18.6666 1608 40.0999
18.7831 1575 39.6863
18.8994 1492 38.6264
19.0158 1501 38.7427
19.1321 1410 37.55
19.2483 1264 35.5528
19.3645 1290 35.9166
19.4806 1294 35.9722
19.5967 1204 34.6987
19.7128 1239 35.1994
19.8288 1143 33.8083
19.9447 1100 33.1662
20.0606 0 1
20.1764 0 1
20.2922 0 1
20.4079 0 1
20.5236 0 1
20.6392 0 1
20.7548 0 1
20.8702 0 1
23.3078 0 1
23.4233 0 1
23.539 0 1
23.6547 0 1
23.7704 0 1
23.8862 0 1
24.0021 0 1
24.118 0 1
24.234 0 1
24.35 0 1
24.4661 1205 34.7131
24.5822 1250 35.3553
24.6984 1262 35.5246
24.8146 1179 34.3366
24.9309 1232 35.0999
25.0472 1208 34.7563
25.1636 1289 35.9026
25.28 1228 35.0428
25.3965 1290 35.9166
25.513 1338 36.5787
25.6296 1372 37.0405
25.7462 1416 37.6298
25.8628 1313 36.2353
25.9795 1350 36.7423
26.0962 1516 38.9358
26.213 1409 37.5366
26.3298 1383 37.1887
26.4466 1445 38.0132
26.5635 1455 38.1445
26.6804 1486 38.5487
26.7973 1471 38.3536
26.9143 1540 39.2428
27.0313 1586 39.8246
27.1483 1527 39.0768
27.2653 1599 39.9875
27.3824 1565 39.5601
27.4996 1399 37.4032
27.6167 1425 37.7492
27.7339 1369 37
27.8511 1293 35.9583
27.9683 1284 35.8329
28.0855 1194 34.5543
28.2028 1171 34.2199
28.3201 1187 34.4529
28.4374 1218 34.8999
28.5547 1219 34.9142
28.6721 1208 34.7563
28.7894 1247 35.3129
28.9068 1265 35.5668
29.0242 1267 35.5949
29.1416 1301 36.0694
29.259 1192 34.5254
29.3764 1322 36.3593
29.4939 1270 35.6371
29.6113 1332 36.4966
29.7288 1320 36.3318
29.8463 1288 35.8887
29.9638 1410 37.55
30.0812 1429 37.8021
30.1987 1440 37.9473
30.3162 1434 37.8682
30.4337 1408 37.5233
30.5512 1486 38.5487
30.6687 1512 38.8844
30.7862 1482 38.4968
30.9037 1443 37.9868
31.0212 1392 37.3095
31.1387 1353 36.7831
31.2562 1302 36.0832
31.3737 1254 35.4119
31.4912 1164 34.1174
31.6087 1199 34.6266
31.7262 1121 33.4813
31.8436 1163 34.1028
31.9611 1162 34.0881
32.0785 1143 33.8083
32.1959 1167 34.1614
32.3134 1153 33.9559
32.4308 1212 34.8138
32.5482 1229 35.0571
32.6655 1228 35.0428
32.7829 1258 35.4683
32.9002 1169 34.1906
33.0176 1190 34.4964
33.1349 1317 36.2905
33.2522 1268 35.609
33.3694 1187 34.4529
33.4867 1266 35.5809
33.6039 1373 37.054
33.7211 1276 35.7211
33.8383 1331 36.4829
33.9554 1362 36.9053
34.0725 1366 36.9594
34.1896 1365 36.9459
34.3067 1405 37.4833
34.4237 1287 35.8748
34.5407 1323 36.3731
34.6577 1238 35.1852
34.7746 1332 36.4966
34.8915 1276 35.7211
35.0084 1212 34.8138
35.1252 1170 34.2053
35.242 1134 33.6749
35.3587 1079 32.8481
35.4755 1019 31.9218
35.5921 1054 32.4654
35.7088 1091 33.0303
35.8254 1111 33.3317
35.9419 1110 33.3167
36.0584 1220 34.9285
36.1749 1253 35.3977
36.2913 1201 34.6554
36.4077 1193 34.5398
36.524 1224 34.9857
36.6403 1141 33.7787
36.7565 1150 33.9116
36.8727 1191 34.5109
36.9889 1194 34.5543
37.1049 1214 34.8425
37.221 0 1
37.3369 0 1
37.4529 0 1
37.5687 0 1
37.6845 0 1
37.8003 0 1
37.916 0 1
38.0316 0 1
38.1472 0 1
40.5851 0 1
40.7008 0 1
40.8164 0 1
40.9322 0 1
41.048 0 1
41.1639 0 1
41.2798 0 1
41.3958 0 1
41.5118 0 1
41.6279 0 1
41.744 973 31.1929
41.8602 1018 31.9061
41.9765 1051 32.4191
42.0928 1087 32.9697
42.2091 1156 34
42.3255 1100 33.1662
42.4419 1064 32.619
42.5584 1126 33.5559
42.675 1097 33.121
42.7915 1149 33.8969
42.9081 1211 34.7994
43.0248 1183 34.3948
43.1415 1185 34.4238
43.2582 1220 34.9285
43.375 1228 35.0428
43.4918 1264 35.5528
43.6087 1194 34.5543
43.7256 1146 33.8526
43.8425 1113 33.3617
43.9595 1108 33.2866
44.0765 1039 32.2335
44.1935 1043 32.2955
44.3106 1024 32
44.4277 1049 32.3883
44.5448 999 31.607
44.6619 1016 31.8748
44.7791 1049 32.3883
44.8963 896 29.9333
45.0136 996 31.5595
45.1308 977 31.257
45.2481 960 30.9839
45.3654 967 31.0966
45.4827 933 30.545
45.6001 910 30.1662
45.7174 942 30.692
45.8348 849 29.1376
45.9522 816 28.5657
46.0697 805 28.3725
46.1871 813 28.5132
46.3046 761 27.5862
46.422 824 28.7054
46.5395 857 29.2746
46.657 778 27.8927
46.7745 802 28.3196
46.892 811 28.4781
47.0096 788 28.0713
47.1271 776 27.8568
47.2446 720 26.8328
47.3622 754 27.4591
47.4797 713 26.7021
47.5973 741 27.2213
47.7149 700 26.4575
47.8324 701 26.4764
47.95 665 25.7876
48.0675 720 26.8328
48.1851 665 25.7876
48.3027 710 26.6458
48.4202 659 25.671
48.5378 622 24.9399
48.6554 648 25.4558
48.7729 650 25.4951
48.8904 697 26.4008
49.008 660 25.6905
49.1255 685 26.1725
49.243 663 25.7488
49.3605 651 25.5147
49.478 624 24.98
49.5955 669 25.865
49.713 655 25.593
49.8304 643 25.3574
49.9479 632 25.1396
50.0653 729 27
50.1827 734 27.0924
50.3001 707 26.5895
50.4175 726 26.9444
50.5348 712 26.6833
50.6521 780 27.9285
50.7694 787 28.0535
50.8867 754 27.4591
51.004 796 28.2135
51.1212 840 28.9828
51.2384 812 28.4956
51.3556 843 29.0345
51.4727 884 29.7321
51.5899 885 29.7489
51.707 851 29.1719
51.824 890 29.8329
51.9411 854 29.2233
52.0581 887 29.7825
52.175 845 29.0689
52.2919 871 29.5127
52.4088 885 29.7489
52.5257 867 29.4449
52.6425 842 29.0172
52.7593 833 28.8617
52.876 835 28.8964
52.9927 884 29.7321
53.1094 850 29.1548
53.226 944 30.7246
53.3426 900 30
53.4591 991 31.4802
53.5756 1011 31.7962
53.692 988 31.4325
53.8084 1005 31.7017
53.9248 1082 32.8938
54.0411 1092 33.0454
54.1573 1122 33.4963
54.2735 0 1
54.3896 0 1
54.5057 0 1
54.6217 0 1
54.7377 0 1
54.8537 0 1
54.9695 0 1
55.0853 0 1
55.2011 0 1
55.3168 0 1
55.4324 0 1
57.824 0 1
57.9396 0 1
58.0553 0 1
58.1711 0 1
58.2869 0 1
58.4028 0 1
58.5187 0 1
58.6347 0 1
58.7508 0 1
58.8669 0 1
58.983 1174 34.2637
59.0992 1237 35.171
59.2155 1238 35.1852
59.3318 1261 35.5106
59.4482 1288 35.8887
59.5646 1378 37.1214
59.681 1355 36.8103
59.7975 1387 37.2424
59.9141 1324 36.3868
60.0306 1232 35.0999
60.1473 1267 35.5949
60.2639 1245 35.2846
60.3807 1235 35.1426
60.4974 1235 35.1426
60.6142 1135 33.6898
60.731 1057 32.5115
60.8479 1044 32.311
60.9648 1067 32.665
61.0818 1057 32.5115
61.1987 1006 31.7175
61.3158 1098 33.1361
61.4328 1104 33.2265
61.5499 1103 33.2114
61.667 1093 33.0606
61.7841 1048 32.3728
61.9013 1079 32.8481
62.0185 1103 33.2114
62.1357 1160 34.0588
62.253 1133 33.6601
62.3702 1214 34.8425
62.4875 1178 34.322
62.6049 1172 34.2345
62.7222 1211 34.7994
62.8396 1213 34.8281
62.9569 1275 35.7071
63.0743 1308 36.1663
63.1918 1372 37.0405
63.3092 1351 36.756
63.4267 1368 36.9865
63.5441 1301 36.0694
63.6616 1251 35.3695
63.7791 1243 35.2562
63.8966 1194 34.5543
64.0142 1138 33.7343
64.1317 1072 32.7414
64.2492 1071 32.7261
64.3668 1004 31.686
64.4843 932 30.5287
64.6019 921 30.348
64.7195 938 30.6268
64.837 957 30.9354
64.9546 987 31.4166
65.0722 1012 31.8119
65.1898 953 30.8707
65.3074 1033 32.1403
65.4249 1016 31.8748
65.5425 1030 32.0936
65.6601 1023 31.9844
65.7777 1049 32.3883
65.8952 1055 32.4808
66.0128 1134 33.6749
66.1304 1122 33.4963
66.2479 1127 33.5708
66.3655 1150 33.9116
66.483 1169 34.1906
66.6005 1265 35.5668
66.718 1270 35.6371
66.8355 1329 36.4555
66.953 1301 36.0694
67.0705 1249 35.3412
67.1879 1213 34.8281
67.3054 1202 34.6699
67.4228 1169 34.1906
67.5402 1082 32.8938
67.6576 1031 32.1092
67.7749 908 30.133
67.8923 992 31.496
68.0096 938 30.6268
68.1269 919 30.315
68.2442 969 31.1288
68.3614 901 30.0167
68.4787 967 31.0966
68.5958 999 31.607
68.713 1013 31.8277
68.8302 1041 32.2645
68.9473 1019 31.9218
69.0643 1074 32.7719
69.1814 1072 32.7414
69.2984 1112 33.3467
69.4154 1064 32.619
69.5323 1118 33.4365
69.6492 1084 32.9242
69.7661 1200 34.641
69.8829 1199 34.6266
69.9997 1295 35.9861
70.1165 1288 35.8887
70.2332 1332 36.4966
70.3499 1366 36.9594
70.4665 1354 36.7967
70.5831 1275 35.7071
70.6996 1339 36.5923
70.8161 1332 36.4966
70.9326 1171 34.2199
71.049 1109 33.3017
71.1653 1069 32.6956
71.2817 1005 31.7017
71.3979 937 30.6105
71.5141 960 30.9839
71.6303 909 30.1496
71.7464 863 29.3769
71.8624 0 1
71.9784 0 1
72.0944 0 1
72.2102 0 1
72.3261 0 1
72.4418 0 1
72.5575 0 1
72.6732 0 1
75.1054 0 1
75.2209 0 1
75.3365 0 1
75.4521 0 1
75.5678 0 1
75.6835 0 1
75.7993 0 1
75.9151 0 1
76.031 0 1
76.147 1163 34.1028
76.263 1171 34.2199
76.3791 1046 32.3419
76.4952 1036 32.187
76.6113 1029 32.078
76.7276 1021 31.9531
76.8438 1027 32.0468
76.9601 1037 32.2025
77.0765 1008 31.749
77.1929 977 31.257
77.3093 983 31.3528
77.4258 1010 31.7805
77.5423 1062 32.5883
77.6589 1059 32.5423
77.7755 1075 32.7872
77.8921 1024 32
78.0088 1079 32.8481
78.1256 1071 32.7261
78.2423 1145 33.8378
78.3591 1100 33.1662
78.4759 1126 33.5559
78.5928 1152 33.9411
78.7097 1231 35.0856
78.8266 1252 35.3836
78.9436 1359 36.8646
79.0606 1355 36.8103
79.1776 1343 36.647
79.2946 1381 37.1618
79.4117 1365 36.9459
79.5288 1319 36.318
79.6459 1335 36.5377
79.7631 1319 36.318
79.8802 1198 34.6121
79.9974 1075 32.7872
80.1147 1065 32.6343
80.2319 1039 32.2335
80.3491 1015 31.8591
80.4664 1006 31.7175
80.5837 1004 31.686
80.701 1040 32.249
80.8183 1023 31.9844
80.9357 987 31.4166
81.053 1034 32.1559
81.1704 1109 33.3017
81.2877 1149 33.8969
81.4051 1052 32.4345
81.5225 1053 32.45
81.6399 1024 32
81.7573 1029 32.078
81.8747 1074 32.7719
81.9922 1080 32.8634
82.1096 1148 33.8821
82.227 1220 34.9285
82.3444 1197 34.5977
82.4619 1306 36.1386
82.5793 1405 37.4833
82.6967 1358 36.8511
82.8142 1430 37.8153
82.9316 1360 36.8782
83.049 1331 36.4829
83.1664 1360 36.8782
83.2838 1298 36.0278
83.4012 1201 34.6554
83.5186 1164 34.1174
83.636 1069 32.6956
83.7534 1042 32.28
83.8708 1045 32.3265
83.9881 1097 33.121
84.1055 1049 32.3883
84.2228 1049 32.3883
84.3401 1007 31.7333
84.4575 1046 32.3419
84.5747 997 31.5753
84.692 1107 33.2716
84.8093 1137 33.7194
84.9265 1152 33.9411
85.0437 1067 32.665
85.1609 1104 33.2265
85.2781 1139 33.7491
85.3952 1125 33.541
85.5123 1147 33.8674
85.6294 1194 34.5543
85.7465 1260 35.4965
85.8636 1325 36.4005
85.9806 1381 37.1618
86.0976 1441 37.9605
86.2145 1446 38.0263
86.3315 1498 38.704
86.4484 1515 38.923
86.5652 1477 38.4318
86.682 1440 37.9473
86.7988 1436 37.8946
86.9156 1375 37.081
87.0323 1288 35.8887
87.149 1282 35.805
87.2657 1180 34.3511
87.3823 1123 33.5112
87.4988 1107 33.2716
87.6154 1177 34.3074
87.7318 1166 34.1467
87.8483 1140 33.7639
87.9647 1097 33.121
88.081 1150 33.9116
88.1973 1099 33.1512
88.3136 1183 34.3948
88.4298 1233 35.1141
88.546 1207 34.7419
88.6621 1091 33.0303
88.7781 1090 33.0151
88.8942 0 1
89.0101 0 1
89.126 0 1
89.2419 0 1
89.3577 0 1
89.4734 0 1
89.5891 0 1
89.7047 0 1
89.8203 0 1
89.9358 0 1
92.3269 0 1
92.4424 0 1
92.558 0 1
92.6736 0 1
92.7893 0 1
92.905 0 1
93.0208 0 1
93.1366 0 1
93.2525 0 1
93.3685 0 1
93.4845 0 1
93.6005 1119 33.4515
93.7167 1113 33.3617
93.8328 1100 33.1662
93.949 1034 32.1559
94.0653 1130 33.6155
94.1816 1105 33.2415
94.2979 1125 33.541
94.4143 1200 34.641
94.5307 1179 34.3366
94.6472 1279 35.7631
94.7637 1372 37.0405
94.8803 1380 37.1484
94.9969 1380 37.1484
95.1135 1494 38.6523
95.2302 1373 37.054
95.3469 1405 37.4833
95.4637 1384 37.2022
95.5805 1341 36.6197
95.6973 1423 37.7227
95.8142 1380 37.1484
95.9311 1362 36.9053
96.048 1253 35.3977
96.1649 1241 35.2278
96.2819 1203 34.6843
96.3989 1152 33.9411
96.516 1106 33.2566
96.633 1174 34.2637
96.7501 1146 33.8526
96.8673 1162 34.0881
96.9844 1090 33.0151
97.1016 1165 34.1321
97.2188 1197 34.5977
97.336 1177 34.3074
97.4532 1115 33.3916
97.5704 1090 33.0151
97.6877 1098 33.1361
97.805 1054 32.4654
97.9223 1047 32.3574
98.0396 1058 32.5269
98.1569 1104 33.2265
98.2743 1173 34.2491
98.3916 1310 36.1939
98.509 1296 36
98.6264 1371 37.027
98.7438 1402 37.4433
98.8612 1324 36.3868
98.9786 1301 36.0694
99.096 1354 36.7967
99.2134 1398 37.3898
99.3308 1376 37.0945
99.4482 1391 37.2961
99.5656 1293 35.9583
99.6831 1245 35.2846
99.8005 1188 34.4674
99.9179 1184 34.4093
100.035 1157 34.0147
100.153 1084 32.9242
100.27 1105 33.2415
100.388 1140 33.7639
100.505 1076 32.8024
100.622 1071 32.7261
100.74 1109 33.3017
100.857 1100 33.1662
100.975 1205 34.7131
101.092 1041 32.2645
101.209 1057 32.5115
101.327 1030 32.0936
101.444 1071 32.7261
101.561 1050 32.4037
101.679 1020 31.9374
101.796 1105 33.2415
101.913 1208 34.7563
102.03 1291 35.9305
102.148 1265 35.5668
102.265 1388 37.2559
102.382 1502 38.7556
102.499 1365 36.9459
102.616 1425 37.7492
102.733 1297 36.0139
102.851 1424 37.7359
102.968 1468 38.3145
103.085 1405 37.4833
103.202 1332 36.4966
103.319 1322 36.3593
103.436 1262 35.5246
103.552 1291 35.9305
103.669 1224 34.9857
103.786 1225 35
103.903 1230 35.0714
104.02 1256 35.4401
104.137 1211 34.7994
104.253 1212 34.8138
104.37 1231 35.0856
104.487 1247 35.3129
104.603 1172 34.2345
104.72 1134 33.6749
104.836 1189 34.4819
104.953 1112 33.3467
105.069 1167 34.1614
105.186 1239 35.1994
105.302 1220 34.9285
105.418 1407 37.51
105.535 1356 36.8239
105.651 1520 38.9872
105.767 1413 37.5899
105.883 1400 37.4166
105.999 1367 36.973
106.115 0 1
106.231 0 1
106.347 0 1
106.463 0 1
106.579 0 1
106.694 0 1
106.81 0 1
106.926 0 1
107.041 0 1
107.157 0 1
109.576 0 1
109.692 0 1
109.807 0 1
109.923 0 1
110.039 0 1
110.155 0 1
110.27 0 1
110.386 0 1
110.502 0 1
110.618 1170 34.2053
110.735 1276 35.7211
110.851 1283 35.819
110.967 1360 36.8782
111.083 1247 35.3129
111.199 1324 36.3868
111.316 1306 36.1386
111.432 1362 36.9053
111.549 1287 35.8748
111.665 1267 35.5949
111.782 1186 34.4384
111.898 1193 34.5398
112.015 1182 34.3802
112.132 1132 33.6452
112.248 1133 33.6601
112.365 1067 32.665
112.482 1086 32.9545
112.599 978 31.273
112.716 991 31.4802
112.832 1006 31.7175
112.949 957 30.9354
113.066 940 30.6594
113.183 960 30.9839
113.3 892 29.8664
113.417 897 29.95
113.534 957 30.9354
113.652 942 30.692
113.769 907 30.1164
113.886 982 31.3369
114.003 1021 31.9531
114.12 1017 31.8904
114.238 1031 32.1092
114.355 1098 33.1361
114.472 1130 33.6155
114.589 1039 32.2335
114.707 1022 31.9687
114.824 1053 32.45
114.942 1079 32.8481
115.059 1071 32.7261
115.176 1013 31.8277
115.294 950 30.8221
115.411 993 31.5119
115.529 984 31.3688
115.646 957 30.9354
115.764 932 30.5287
115.881 893 29.8831
115.999 801 28.3019
116.116 855 29.2404
116.234 802 28.3196
116.351 771 27.7669
116.469 811 28.4781
116.586 745 27.2947
116.704 770 27.7489
116.821 746 27.313
116.939 716 26.7582
117.056 760 27.5681
117.174 741 27.2213
117.291 753 27.4408
117.409 804 28.3549
117.526 839 28.9655
117.644 836 28.9137
117.761 834 28.8791
117.879 877 29.6142
117.996 856 29.2575
118.114 863 29.3769
118.231 838 28.9482
118.349 875 29.5804
118.466 831 28.8271
118.584 942 30.692
118.701 971 31.1609
118.819 921 30.348
118.936 935 30.5778
119.053 891 29.8496
119.171 909 30.1496
119.288 882 29.6985
119.405 860 29.3258
119.523 910 30.1662
119.64 863 29.3769
119.757 803 28.3373
119.875 829 28.7924
119.992 803 28.3373
120.109 862 29.3598
120.226 774 27.8209
120.343 783 27.9821
120.46 766 27.6767
120.578 786 28.0357
120.695 816 28.5657
120.812 871 29.5127
120.929 844 29.0517
121.046 882 29.6985
121.163 816 28.5657
121.279 923 30.3809
121.396 914 30.2324
121.513 943 30.7083
121.63 957 30.9354
121.747 904 30.0666
121.863 842 29.0172
121.98 905 30.0832
122.097 976 31.241
122.213 1092 33.0454
122.33 1084 32.9242
122.446 1057 32.5115
122.563 1046 32.3419
122.679 1099 33.1512
122.795 1079 32.8481
122.912 1125 33.541
123.028 1052 32.4345
123.144 1020 31.9374
123.26 988 31.4325
123.377 0 1
123.493 0 1
123.609 0 1
123.725 0 1
123.84 0 1
123.956 0 1
124.072 0 1
124.188 0 1
124.303 0 1
124.419 0 1
126.852 0 1
126.968 0 1
127.083 0 1
127.199 0 1
127.315 0 1
127.431 0 1
127.547 0 1
127.663 0 1
127.779 0 1
127.895 0 1
128.011 0 1
128.127 0 1
128.243 0 1
128.359 1188 34.4674
128.476 1166 34.1467
128.592 1166 34.1467
128.708 1113 33.3617
128.825 1138 33.7343
128.941 1128 33.5857
129.058 1087 32.9697
129.174 1079 32.8481
129.291 1107 33.2716
129.408 1049 32.3883
129.524 1065 32.6343
129.641 989 31.4484
129.758 1080 32.8634
129.875 1072 32.7414
129.992 1049 32.3883
130.108 1039 32.2335
130.225 1041 32.2645
130.342 1106 33.2566
130.459 1087 32.9697
130.576 1061 32.573
130.693 994 31.5278
130.81 820 28.6356
130.928 811 28.4781
131.045 933 30.545
131.162 993 31.5119
131.279 1048 32.3728
131.396 1070 32.7109
131.513 1108 33.2866
131.631 1060 32.5576
131.748 1046 32.3419
131.865 1059 32.5423
131.983 1037 32.2025
132.1 1063 32.6037
132.217 1044 32.311
132.335 1007 31.7333
132.452 981 31.3209
132.57 991 31.4802
132.687 862 29.3598
132.804 966 31.0805
132.922 917 30.282
133.039 919 30.315
133.157 924 30.3974
133.274 929 30.4795
133.392 943 30.7083
133.509 893 29.8831
133.627 889 29.8161
133.744 884 29.7321
133.862 887 29.7825
133.979 877 29.6142
134.097 861 29.3428
134.214 794 28.178
134.332 636 25.219
134.449 583 24.1454
134.567 709 26.6271
134.684 793 28.1603
134.802 851 29.1719
134.919 835 28.8964
135.037 816 28.5657
135.154 866 29.4279
135.272 810 28.4605
135.389 776 27.8568
135.507 856 29.2575
135.624 779 27.9106
135.742 781 27.9464
135.859 772 27.7849
135.977 745 27.2947
136.094 734 27.0924
136.211 729 27
136.329 757 27.5136
136.446 689 26.2488
136.564 698 26.4197
136.681 669 25.865
136.798 645 25.3969
136.915 686 26.1916
137.033 629 25.0799
137.15 665 25.7876
137.267 706 26.5707
137.384 722 26.8701
137.502 665 25.7876
137.619 693 26.3249
137.736 721 26.8514
137.853 568 23.8328
137.97 472 21.7256
138.087 494 22.2261
138.204 633 25.1595
138.321 703 26.5141
138.438 738 27.1662
138.555 726 26.9444
138.672 778 27.8927
138.788 773 27.8029
138.905 782 27.9643
139.022 821 28.6531
139.139 837 28.931
139.255 783 27.9821
139.372 826 28.7402
139.488 822 28.6705
139.605 833 28.8617
139.721 860 29.3258
139.838 857 29.2746
139.954 823 28.688
140.071 856 29.2575
140.187 868 29.4618
140.303 857 29.2746
140.419 809 28.4429
140.535 835 28.8964
140.652 784 28
140.768 0 1
140.884 0 1
141 0 1
141.115 0 1
141.231 0 1
141.347 0 1
141.463 0 1
141.578 0 1
141.694 0 1
144.104 0 1
144.219 0 1
144.335 0 1
144.45 0 1
144.566 0 1
144.682 0 1
144.798 0 1
144.914 0 1
145.03 0 1
145.146 722 26.8701
145.262 675 25.9808
145.378 659 25.671
145.494 669 25.865
145.61 682 26.1151
145.726 650 25.4951
145.842 672 25.923
145.959 660 25.6905
146.075 609 24.6779
146.192 635 25.1992
146.308 616 24.8193
146.425 584 24.1661
146.541 534 23.1084
146.658 517 22.7376
146.774 452 21.2603
146.891 517 22.7376
147.008 537 23.1733
147.125 590 24.2899
147.241 645 25.3969
147.358 594 24.3721
147.475 598 24.454
147.592 556 23.5797
147.709 615 24.7992
147.826 552 23.4947
147.943 593 24.3516
148.06 547 23.388
148.177 558 23.622
148.294 559 23.6432
148.411 593 24.3516
148.528 563 23.7276
148.645 509 22.561
148.762 495 22.2486
148.88 502 22.4054
148.997 512 22.6274
149.114 456 21.3542
149.231 465 21.5639
149.349 443 21.0476
149.466 471 21.7025
149.583 491 22.1585
149.701 479 21.8861
149.818 411 20.2731
149.935 453 21.2838
150.053 428 20.6882
150.17 386 19.6469
150.287 392 19.799
150.405 423 20.567
150.522 434 20.8327
150.64 441 21
150.757 455 21.3307
150.875 502 22.4054
150.992 487 22.0681
151.11 481 21.9317
151.227 475 21.7945
151.344 470 21.6795
151.462 447 21.1424
151.579 453 21.2838
151.697 483 21.9773
151.814 465 21.5639
151.932 448 21.166
152.049 498 22.3159
152.167 450 21.2132
152.284 472 21.7256
152.402 446 21.1187
152.519 460 21.4476
152.636 418 20.445
152.754 441 21
152.871 417 20.4206
152.989 480 21.9089
153.106 486 22.0454
153.223 502 22.4054
153.341 465 21.5639
153.458 448 21.166
153.575 455 21.3307
153.693 446 21.1187
153.81 415 20.3715
153.927 428 20.6882
154.044 479 21.8861
154.162 480 21.9089
154.279 511 22.6053
154.396 542 23.2809
154.513 559 23.6432
154.63 563 23.7276
154.747 548 23.4094
154.864 567 23.8118
154.981 616 24.8193
155.098 543 23.3024
155.215 516 22.7156
155.332 584 24.1661
155.449 537 23.1733
155.566 566 23.7908
155.683 582 24.1247
155.8 561 23.6854
155.917 490 22.1359
156.033 484 22
156.15 0 1
156.267 0 1
156.383 0 1
156.5 0 1
156.617 0 1
156.733 0 1
156.85 0 1
156.966 0 1
157.082 0 1
157.199 0 1
157.315 0 1
157.431 0 1
157.547 0 1
157.664 0 1
157.78 0 1
157.896 0 1
158.012 0 1
158.128 0 1
158.244 0 1
158.359 0 1
158.475 0 1
158.591 0 1
158.706 0 1
