
6.15755 0 1
6.2731 0 1
6.3887 0 1
6.50437 0 1
6.62009 0 1
6.73587 0 1
6.8517 0 1
6.96759 0 1
7.08353 0 1
7.19952 0 1
7.31557 0 1
7.43166 0 1
7.54781 0 1
7.664 0 1
7.78024 0 1
7.89653 0 1
8.01286 0 1
8.12924 0 1
8.24567 0 1
8.36213 0 1
8.47864 0 1
8.59519 0 1
8.71178 0 1
8.82841 0 1
8.94508 0 1
9.06179 0 1
9.17853 0 1
9.29531 0 1
9.41212 0 1
9.52897 0 1
9.64584 0 1
9.76276 0 1
9.8797 0 1
9.99667 0 1
10.1137 0 1
10.2307 0 1
10.3478 0 1
10.4648 0 1
10.5819 0 1
10.6991 0 1
10.8162 0 1
10.9334 0 1
11.0506 0 1
11.1678 0 1
11.285 0 1
11.4023 0 1
11.5196 0 1
11.6369 0 1
11.7542 0 1
11.8715 0 1
11.9888 0 1
12.1062 0 1
12.2235 0 1
12.3409 0 1
12.4582 0 1
12.5756 0 1
12.693 0 1
12.8104 0 1
12.9278 0 1
13.0452 0 1
13.1626 0 1
13.28 0 1
13.3974 0 1
13.5149 0 1
13.6323 0 1
13.7497 0 1
13.8671 0 1
13.9845 0 1
14.1019 0 1
14.2193 0 1
14.3367 0 1
14.4541 0 1
14.5714 0 1
14.6888 0 1
14.8062 0 1
14.9235 0 1
15.0408 1406 37.4967
15.1581 1462 38.2361
15.2755 1464 38.2623
15.3927 1584 39.7995
15.51 1566 39.5727
15.6273 1578 39.724
15.7445 1582 39.7744
15.8617 1476 38.4187
15.9789 1495 38.6652
16.0961 1576 39.6989
16.2132 1496 38.6782
16.3304 1547 39.3319
16.4475 1605 40.0625
16.5646 1668 40.8412
16.6816 1747 41.7971
16.7986 1878 43.3359
16.9156 1894 43.5201
17.0326 1911 43.715
17.1496 1820 42.6615
17.2665 1803 42.4617
17.3833 1814 42.5911
17.5002 1818 42.638
17.617 1712 41.3763
17.7338 1611 40.1373
17.8505 1621 40.2616
17.9672 1570 39.6232
18.0839 1641 40.5093
18.2005 1712 41.3763
18.3171 1643 40.5339
18.4337 1693 41.1461
18.5502 1788 42.2847
18.6666 1743 41.7493
18.7831 1840 42.8952
18.8994 1773 42.107
19.0158 1789 42.2966
19.1321 1783 42.2256
19.2483 1666 40.8167
19.3645 1577 39.7115
19.4806 1539 39.2301
19.5967 1325 36.4005
19.7128 1223 34.9714
19.8288 1238 35.1852
19.9447 1109 33.3017
20.0606 0 1
20.1764 0 1
20.2922 0 1
20.4079 0 1
20.5236 0 1
20.6392 0 1
20.7548 0 1
20.8702 0 1
23.3078 0 1
23.4233 0 1
23.539 0 1
23.6547 0 1
23.7704 0 1
23.8862 0 1
24.0021 0 1
24.118 0 1
24.234 0 1
24.35 0 1
24.4661 723 26.8887
24.5822 873 29.5466
24.6984 1007 31.7333
24.8146 1102 33.1964
24.9309 1216 34.8712
25.0472 1293 35.9583
25.1636 1347 36.7015
25.28 1608 40.0999
25.3965 1627 40.3361
25.513 1722 41.497
25.6296 1789 42.2966
25.7462 1905 43.6463
25.8628 1930 43.9318
25.9795 1989 44.5982
26.0962 1952 44.1814
26.213 1814 42.5911
26.3298 1731 41.6053
26.4466 1752 41.8569
26.5635 1677 40.9512
26.6804 1658 40.7185
26.7973 1704 41.2795
26.9143 1742 41.7373
27.0313 1775 42.1307
27.1483 1798 42.4028
27.2653 1812 42.5676
27.3824 1897 43.5546
27.4996 1823 42.6966
27.6167 1866 43.1972
27.7339 1839 42.8836
27.8511 1782 42.2137
27.9683 1752 41.8569
28.0855 1666 40.8167
28.2028 1683 41.0244
28.3201 1568 39.598
28.4374 1571 39.6358
28.5547 1552 39.3954
28.6721 1592 39.8999
28.7894 1648 40.5956
28.9068 1681 41
29.0242 1854 43.0581
29.1416 1920 43.8178
29.259 1990 44.6094
29.3764 1809 42.5323
29.4939 1841 42.9069
29.6113 1840 42.8952
29.7288 1719 41.4608
29.8463 1681 41
29.9638 1598 39.975
30.0812 1601 40.0125
30.1987 1541 39.2556
30.3162 1744 41.7612
30.4337 1636 40.4475
30.5512 1664 40.7922
30.6687 1724 41.5211
30.7862 1766 42.0238
30.9037 1770 42.0714
31.0212 1808 42.5206
31.1387 1841 42.9069
31.2562 1765 42.0119
31.3737 1754 41.8808
31.4912 1720 41.4729
31.6087 1671 40.8779
31.7262 1567 39.5854
31.8436 1540 39.2428
31.9611 1556 39.4462
32.0785 1442 37.9737
32.1959 1511 38.8716
32.3134 1664 40.7922
32.4308 1771 42.0833
32.5482 1776 42.1426
32.6655 1897 43.5546
32.7829 1867 43.2088
32.9002 1842 42.9185
33.0176 1830 42.7785
33.1349 1826 42.7317
33.2522 1746 41.7852
33.3694 1648 40.5956
33.4867 1607 40.0874
33.6039 1571 39.6358
33.7211 1479 38.4578
33.8383 1495 38.6652
33.9554 1561 39.5095
34.0725 1602 40.025
34.1896 1639 40.4846
34.3067 1609 40.1123
34.4237 1679 40.9756
34.5407 1658 40.7185
34.6577 1664 40.7922
34.7746 1674 40.9145
34.8915 1697 41.1947
35.0084 1692 41.1339
35.1252 1680 40.9878
35.242 1563 39.5348
35.3587 1550 39.37
35.4755 1540 39.2428
35.5921 1468 38.3145
35.7088 1479 38.4578
35.8254 1538 39.2173
35.9419 1546 39.3192
36.0584 1498 38.704
36.1749 1622 40.2741
36.2913 1593 39.9124
36.4077 1570 39.6232
36.524 1573 39.6611
36.6403 1518 38.9615
36.7565 1450 38.0789
36.8727 1388 37.2559
36.9889 1317 36.2905
37.1049 1188 34.4674
37.221 0 1
37.3369 0 1
37.4529 0 1
37.5687 0 1
37.6845 0 1
37.8003 0 1
37.916 0 1
38.0316 0 1
38.1472 0 1
40.5851 0 1
40.7008 0 1
40.8164 0 1
40.9322 0 1
41.048 0 1
41.1639 0 1
41.2798 0 1
41.3958 0 1
41.5118 0 1
41.6279 0 1
41.744 810 28.4605
41.8602 916 30.2655
41.9765 981 31.3209
42.0928 1044 32.311
42.2091 1013 31.8277
42.3255 1059 32.5423
42.4419 983 31.3528
42.5584 1029 32.078
42.675 1137 33.7194
42.7915 1204 34.6987
42.9081 1361 36.8917
43.0248 1369 37
43.1415 1343 36.647
43.2582 1397 37.3765
43.375 1411 37.5633
43.4918 1388 37.2559
43.6087 1452 38.1051
43.7256 1373 37.054
43.8425 1378 37.1214
43.9595 1294 35.9722
44.0765 1283 35.819
44.1935 1276 35.7211
44.3106 1241 35.2278
44.4277 1203 34.6843
44.5448 1173 34.2491
44.6619 1136 33.7046
44.7791 1257 35.4542
44.8963 1345 36.6742
45.0136 1410 37.55
45.1308 1447 38.0395
45.2481 1434 37.8682
45.3654 1517 38.9487
45.4827 1454 38.1314
45.6001 1510 38.8587
45.7174 1345 36.6742
45.8348 1383 37.1887
45.9522 1266 35.5809
46.0697 1183 34.3948
46.1871 1171 34.2199
46.3046 1189 34.4819
46.422 1283 35.819
46.5395 1283 35.819
46.657 1364 36.9324
46.7745 1446 38.0263
46.892 1442 37.9737
47.0096 1425 37.7492
47.1271 1448 38.0526
47.2446 1443 37.9868
47.3622 1468 38.3145
47.4797 1455 38.1445
47.5973 1391 37.2961
47.7149 1396 37.3631
47.8324 1353 36.7831
47.95 1267 35.5949
48.0675 1226 35.0143
48.1851 1182 34.3802
48.3027 1183 34.3948
48.4202 1272 35.6651
48.5378 1311 36.2077
48.6554 1528 39.0896
48.7729 1409 37.5366
48.8904 1481 38.4838
49.008 1479 38.4578
49.1255 1487 38.5616
49.243 1372 37.0405
49.3605 1294 35.9722
49.478 1256 35.4401
49.5955 1172 34.2345
49.713 1070 32.7109
49.8304 1146 33.8526
49.9479 1244 35.2704
50.0653 1302 36.0832
50.1827 1268 35.609
50.3001 1457 38.1707
50.4175 1460 38.2099
50.5348 1496 38.6782
50.6521 1471 38.3536
50.7694 1523 39.0256
50.8867 1511 38.8716
51.004 1533 39.1535
51.1212 1414 37.6032
51.2384 1407 37.51
51.3556 1369 37
51.4727 1379 37.1349
51.5899 1314 36.2491
51.707 1362 36.9053
51.824 1368 36.9865
51.9411 1510 38.8587
52.0581 1720 41.4729
52.175 1819 42.6497
52.2919 1812 42.5676
52.4088 1905 43.6463
52.5257 1945 44.1022
52.6425 2022 44.9667
52.7593 1966 44.3396
52.876 1919 43.8064
52.9927 1936 44
53.1094 1729 41.5812
53.226 1657 40.7063
53.3426 1699 41.2189
53.4591 1688 41.0853
53.5756 1687 41.0731
53.692 1687 41.0731
53.8084 1752 41.8569
53.9248 1734 41.6413
54.0411 1650 40.6202
54.1573 1557 39.4588
54.2735 0 1
54.3896 0 1
54.5057 0 1
54.6217 0 1
54.7377 0 1
54.8537 0 1
54.9695 0 1
55.0853 0 1
55.2011 0 1
55.3168 0 1
55.4324 0 1
57.824 0 1
57.9396 0 1
58.0553 0 1
58.1711 0 1
58.2869 0 1
58.4028 0 1
58.5187 0 1
58.6347 0 1
58.7508 0 1
58.8669 0 1
58.983 1178 34.322
59.0992 1333 36.5103
59.2155 1517 38.9487
59.3318 1564 39.5474
59.4482 1631 40.3856
59.5646 1686 41.0609
59.681 1767 42.0357
59.7975 1725 41.5331
59.9141 1750 41.833
60.0306 1666 40.8167
60.1473 1705 41.2916
60.2639 1566 39.5727
60.3807 1554 39.4208
60.4974 1611 40.1373
60.6142 1656 40.694
60.731 1697 41.1947
60.8479 1789 42.2966
60.9648 1890 43.4741
61.0818 1848 42.9884
61.1987 1934 43.9773
61.3158 1867 43.2088
61.4328 1915 43.7607
61.5499 1735 41.6533
61.667 1567 39.5854
61.7841 1521 39
61.9013 1404 37.47
62.0185 1407 37.51
62.1357 1545 39.3065
62.253 1541 39.2556
62.3702 1704 41.2795
62.4875 1795 42.3674
62.6049 1830 42.7785
62.7222 1803 42.4617
62.8396 1773 42.107
62.9569 1841 42.9069
63.0743 1831 42.7902
63.1918 1816 42.6146
63.3092 1749 41.821
63.4267 1753 41.8688
63.5441 1720 41.4729
63.6616 1649 40.6079
63.7791 1454 38.1314
63.8966 1445 38.0132
64.0142 1486 38.5487
64.1317 1579 39.7366
64.2492 1569 39.6106
64.3668 1746 41.7852
64.4843 1739 41.7013
64.6019 1813 42.5793
64.7195 1808 42.5206
64.837 1835 42.8369
64.9546 1841 42.9069
65.0722 1662 40.7676
65.1898 1599 39.9875
65.3074 1481 38.4838
65.4249 1418 37.6563
65.5425 1465 38.2753
65.6601 1340 36.606
65.7777 1473 38.3797
65.8952 1558 39.4715
66.0128 1549 39.3573
66.1304 1661 40.7554
66.2479 1742 41.7373
66.3655 1732 41.6173
66.483 1735 41.6533
66.6005 1788 42.2847
66.718 1749 41.821
66.8355 1793 42.3438
66.953 1650 40.6202
67.0705 1641 40.5093
67.1879 1658 40.7185
67.3054 1578 39.724
67.4228 1470 38.3406
67.5402 1377 37.108
67.6576 1413 37.5899
67.7749 1523 39.0256
67.8923 1559 39.4842
68.0096 1669 40.8534
68.1269 1703 41.2674
68.2442 1792 42.332
68.3614 1761 41.9643
68.4787 1752 41.8569
68.5958 1807 42.5088
68.713 1656 40.694
68.8302 1553 39.4081
68.9473 1438 37.921
69.0643 1333 36.5103
69.1814 1284 35.8329
69.2984 1263 35.5387
69.4154 1435 37.8814
69.5323 1521 39
69.6492 1577 39.7115
69.7661 1610 40.1248
69.8829 1645 40.5586
69.9997 1660 40.7431
70.1165 1551 39.3827
70.2332 1539 39.2301
70.3499 1529 39.1024
70.4665 1438 37.921
70.5831 1313 36.2353
70.6996 1323 36.3731
70.8161 1211 34.7994
70.9326 1127 33.5708
71.049 1013 31.8277
71.1653 828 28.775
71.2817 709 26.6271
71.3979 611 24.7184
71.5141 606 24.6171
71.6303 611 24.7184
71.7464 583 24.1454
71.8624 0 1
71.9784 0 1
72.0944 0 1
72.2102 0 1
72.3261 0 1
72.4418 0 1
72.5575 0 1
72.6732 0 1
75.1054 0 1
75.2209 0 1
75.3365 0 1
75.4521 0 1
75.5678 0 1
75.6835 0 1
75.7993 0 1
75.9151 0 1
76.031 0 1
76.147 1044 32.311
76.263 1111 33.3317
76.3791 1006 31.7175
76.4952 1099 33.1512
76.6113 1082 32.8938
76.7276 1166 34.1467
76.8438 1275 35.7071
76.9601 1398 37.3898
77.0765 1435 37.8814
77.1929 1534 39.1663
77.3093 1501 38.7427
77.4258 1539 39.2301
77.5423 1524 39.0384
77.6589 1501 38.7427
77.7755 1428 37.7889
77.8921 1286 35.8608
78.0088 1230 35.0714
78.1256 1094 33.0757
78.2423 1008 31.749
78.3591 1178 34.322
78.4759 1269 35.623
78.5928 1409 37.5366
78.7097 1315 36.2629
78.8266 1406 37.4967
78.9436 1476 38.4187
79.0606 1540 39.2428
79.1776 1422 37.7094
79.2946 1570 39.6232
79.4117 1534 39.1663
79.5288 1534 39.1663
79.6459 1505 38.7943
79.7631 1522 39.0128
79.8802 1368 36.9865
79.9974 1369 37
80.1147 1247 35.3129
80.2319 1158 34.0294
80.3491 1190 34.4964
80.4664 1278 35.7491
80.5837 1412 37.5766
80.701 1485 38.5357
80.8183 1606 40.0749
80.9357 1564 39.5474
81.053 1580 39.7492
81.1704 1517 38.9487
81.2877 1584 39.7995
81.4051 1537 39.2046
81.5225 1428 37.7889
81.6399 1329 36.4555
81.7573 1222 34.9571
81.8747 1107 33.2716
81.9922 1162 34.0881
82.1096 1203 34.6843
82.227 1363 36.9188
82.3444 1444 38
82.4619 1494 38.6523
82.5793 1525 39.0512
82.6967 1605 40.0625
82.8142 1587 39.8372
82.9316 1571 39.6358
83.049 1558 39.4715
83.1664 1576 39.6989
83.2838 1530 39.1152
83.4012 1593 39.9124
83.5186 1540 39.2428
83.636 1474 38.3927
83.7534 1342 36.6333
83.8708 1265 35.5668
83.9881 1206 34.7275
84.1055 1289 35.9026
84.2228 1324 36.3868
84.3401 1496 38.6782
84.4575 1536 39.1918
84.5747 1635 40.4351
84.692 1591 39.8873
84.8093 1659 40.7308
84.9265 1573 39.6611
85.0437 1503 38.7685
85.1609 1450 38.0789
85.2781 1254 35.4119
85.3952 1144 33.8231
85.5123 1118 33.4365
85.6294 1171 34.2199
85.7465 1287 35.8748
85.8636 1441 37.9605
85.9806 1399 37.4032
86.0976 1525 39.0512
86.2145 1545 39.3065
86.3315 1573 39.6611
86.4484 1565 39.5601
86.5652 1646 40.5709
86.682 1589 39.8623
86.7988 1601 40.0125
86.9156 1522 39.0128
87.0323 1504 38.7814
87.149 1565 39.5601
87.2657 1374 37.0675
87.3823 1322 36.3593
87.4988 1090 33.0151
87.6154 1037 32.2025
87.7318 1118 33.4365
87.8483 1110 33.3167
87.9647 1188 34.4674
88.081 1351 36.756
88.1973 1254 35.4119
88.3136 1199 34.6266
88.4298 1134 33.6749
88.546 1118 33.4365
88.6621 904 30.0666
88.7781 744 27.2764
88.8942 0 1
89.0101 0 1
89.126 0 1
89.2419 0 1
89.3577 0 1
89.4734 0 1
89.5891 0 1
89.7047 0 1
89.8203 0 1
89.9358 0 1
92.3269 0 1
92.4424 0 1
92.558 0 1
92.6736 0 1
92.7893 0 1
92.905 0 1
93.0208 0 1
93.1366 0 1
93.2525 0 1
93.3685 0 1
93.4845 0 1
93.6005 1248 35.327
93.7167 1281 35.7911
93.8328 1269 35.623
93.949 1335 36.5377
94.0653 1371 37.027
94.1816 1369 37
94.2979 1348 36.7151
94.4143 1337 36.565
94.5307 1155 33.9853
94.6472 1270 35.6371
94.7637 1225 35
94.8803 1261 35.5106
94.9969 1373 37.054
95.1135 1492 38.6264
95.2302 1571 39.6358
95.3469 1581 39.7618
95.4637 1604 40.05
95.5805 1607 40.0874
95.6973 1712 41.3763
95.8142 1640 40.4969
95.9311 1577 39.7115
96.048 1609 40.1123
96.1649 1561 39.5095
96.2819 1493 38.6394
96.3989 1504 38.7814
96.516 1446 38.0263
96.633 1375 37.081
96.7501 1266 35.5809
96.8673 1268 35.609
96.9844 1339 36.5923
97.1016 1440 37.9473
97.2188 1573 39.6611
97.336 1614 40.1746
97.4532 1699 41.2189
97.5704 1660 40.7431
97.6877 1713 41.3884
97.805 1683 41.0244
97.9223 1448 38.0526
98.0396 1360 36.8782
98.1569 1284 35.8329
98.2743 1229 35.0571
98.3916 1207 34.7419
98.509 1210 34.7851
98.6264 1371 37.027
98.7438 1519 38.9744
98.8612 1533 39.1535
98.9786 1542 39.2683
99.096 1655 40.6817
99.2134 1688 41.0853
99.3308 1746 41.7852
99.4482 1740 41.7133
99.5656 1679 40.9756
99.6831 1711 41.3642
99.8005 1664 40.7922
99.9179 1657 40.7063
100.035 1629 40.3609
100.153 1521 39
100.27 1422 37.7094
100.388 1431 37.8286
100.505 1462 38.2361
100.622 1523 39.0256
100.74 1594 39.9249
100.857 1731 41.6053
100.975 1725 41.5331
101.092 1786 42.2611
101.209 1777 42.1545
101.327 1725 41.5331
101.444 1711 41.3642
101.561 1568 39.598
101.679 1433 37.855
101.796 1359 36.8646
101.913 1259 35.4824
102.03 1278 35.7491
102.148 1459 38.1969
102.265 1565 39.5601
102.382 1655 40.6817
102.499 1655 40.6817
102.616 1743 41.7493
102.733 1791 42.3202
102.851 1790 42.3084
102.968 1859 43.1161
103.085 1860 43.1277
103.202 1830 42.7785
103.319 1770 42.0714
103.436 1706 41.3038
103.552 1745 41.7732
103.669 1591 39.8873
103.786 1524 39.0384
103.903 1457 38.1707
104.02 1506 38.8072
104.137 1540 39.2428
104.253 1641 40.5093
104.37 1823 42.6966
104.487 1927 43.8976
104.603 1819 42.6497
104.72 1811 42.5558
104.836 1810 42.5441
104.953 1681 41
105.069 1595 39.9375
105.186 1423 37.7227
105.302 1235 35.1426
105.418 1074 32.7719
105.535 1208 34.7563
105.651 1203 34.6843
105.767 1222 34.9571
105.883 1127 33.5708
105.999 1117 33.4215
106.115 0 1
106.231 0 1
106.347 0 1
106.463 0 1
106.579 0 1
106.694 0 1
106.81 0 1
106.926 0 1
107.041 0 1
107.157 0 1
109.576 0 1
109.692 0 1
109.807 0 1
109.923 0 1
110.039 0 1
110.155 0 1
110.27 0 1
110.386 0 1
110.502 0 1
110.618 710 26.6458
110.735 983 31.3528
110.851 1176 34.2929
110.967 1254 35.4119
111.083 1453 38.1182
111.199 1455 38.1445
111.316 1552 39.3954
111.432 1626 40.3237
111.549 1657 40.7063
111.665 1724 41.5211
111.782 1692 41.1339
111.898 1637 40.4599
112.015 1664 40.7922
112.132 1599 39.9875
112.248 1380 37.1484
112.365 1449 38.0657
112.482 1384 37.2022
112.599 1509 38.8458
112.716 1531 39.128
112.832 1644 40.5463
112.949 1700 41.2311
113.066 1698 41.2068
113.183 1732 41.6173
113.3 1811 42.5558
113.417 1708 41.328
113.534 1655 40.6817
113.652 1467 38.3014
113.769 1395 37.3497
113.886 1247 35.3129
114.003 1225 35
114.12 1279 35.7631
114.238 1395 37.3497
114.355 1538 39.2173
114.472 1553 39.4081
114.589 1740 41.7133
114.707 1719 41.4608
114.824 1713 41.3884
114.942 1704 41.2795
115.059 1743 41.7493
115.176 1728 41.5692
115.294 1678 40.9634
115.411 1714 41.4005
115.529 1632 40.398
115.646 1650 40.6202
115.764 1535 39.1791
115.881 1402 37.4433
115.999 1445 38.0132
116.116 1446 38.0263
116.234 1505 38.7943
116.351 1641 40.5093
116.469 1748 41.8091
116.586 1719 41.4608
116.704 1766 42.0238
116.821 1722 41.497
116.939 1784 42.2374
117.056 1703 41.2674
117.174 1638 40.4722
117.291 1459 38.1969
117.409 1366 36.9594
117.526 1243 35.2562
117.644 1288 35.8887
117.761 1205 34.7131
117.879 1396 37.3631
117.996 1486 38.5487
118.114 1583 39.7869
118.231 1617 40.2119
118.349 1702 41.2553
118.466 1688 41.0853
118.584 1718 41.4488
118.701 1708 41.328
118.819 1748 41.8091
118.936 1661 40.7554
119.053 1619 40.2368
119.171 1643 40.5339
119.288 1548 39.3446
119.405 1475 38.4057
119.523 1397 37.3765
119.64 1389 37.2693
119.757 1434 37.8682
119.875 1459 38.1969
119.992 1569 39.6106
120.109 1643 40.5339
120.226 1542 39.2683
120.343 1582 39.7744
120.46 1643 40.5339
120.578 1620 40.2492
120.695 1580 39.7492
120.812 1561 39.5095
120.929 1424 37.7359
121.046 1313 36.2353
121.163 1248 35.327
121.279 1205 34.7131
121.396 1225 35
121.513 1204 34.6987
121.63 1333 36.5103
121.747 1290 35.9166
121.863 1332 36.4966
121.98 1354 36.7967
122.097 1400 37.4166
122.213 1367 36.973
122.33 1297 36.0139
122.446 1286 35.8608
122.563 1273 35.6791
122.679 1176 34.2929
122.795 1059 32.5423
122.912 1000 31.6228
123.028 786 28.0357
123.144 742 27.2397
123.26 664 25.7682
123.377 0 1
123.493 0 1
123.609 0 1
123.725 0 1
123.84 0 1
123.956 0 1
124.072 0 1
124.188 0 1
124.303 0 1
124.419 0 1
126.852 0 1
126.968 0 1
127.083 0 1
127.199 0 1
127.315 0 1
127.431 0 1
127.547 0 1
127.663 0 1
127.779 0 1
127.895 0 1
128.011 0 1
128.127 0 1
128.243 0 1
128.359 1502 38.7556
128.476 1542 39.2683
128.592 1488 38.5746
128.708 1509 38.8458
128.825 1455 38.1445
128.941 1530 39.1152
129.058 1666 40.8167
129.174 1651 40.6325
129.291 1686 41.0609
129.408 1726 41.5452
129.524 1783 42.2256
129.641 1739 41.7013
129.758 1807 42.5088
129.875 1583 39.7869
129.992 1565 39.5601
130.108 1408 37.5233
130.225 1258 35.4683
130.342 1357 36.8375
130.459 1319 36.318
130.576 1477 38.4318
130.693 1584 39.7995
130.81 1576 39.6989
130.928 1625 40.3113
131.045 1716 41.4246
131.162 1727 41.5572
131.279 1768 42.0476
131.396 1738 41.6893
131.513 1823 42.6966
131.631 1645 40.5586
131.748 1631 40.3856
131.865 1603 40.0375
131.983 1553 39.4081
132.1 1486 38.5487
132.217 1505 38.7943
132.335 1448 38.0526
132.452 1538 39.2173
132.57 1641 40.5093
132.687 1753 41.8688
132.804 1760 41.9524
132.922 1841 42.9069
133.039 1784 42.2374
133.157 1754 41.8808
133.274 1797 42.391
133.392 1701 41.2432
133.509 1639 40.4846
133.627 1404 37.47
133.744 1373 37.054
133.862 1324 36.3868
133.979 1320 36.3318
134.097 1431 37.8286
134.214 1669 40.8534
134.332 1629 40.3609
134.449 1675 40.9268
134.567 1724 41.5211
134.684 1701 41.2432
134.802 1706 41.3038
134.919 1760 41.9524
135.037 1711 41.3642
135.154 1725 41.5331
135.272 1683 41.0244
135.389 1593 39.9124
135.507 1666 40.8167
135.624 1590 39.8748
135.742 1543 39.281
135.859 1507 38.8201
135.977 1506 38.8072
136.094 1464 38.2623
136.211 1656 40.694
136.329 1745 41.7732
136.446 1763 41.9881
136.564 1784 42.2374
136.681 1811 42.5558
136.798 1740 41.7133
136.915 1752 41.8569
137.033 1672 40.8901
137.15 1576 39.6989
137.267 1447 38.0395
137.384 1371 37.027
137.502 1337 36.565
137.619 1291 35.9305
137.736 1451 38.092
137.853 1543 39.281
137.97 1596 39.95
138.087 1655 40.6817
138.204 1603 40.0375
138.321 1628 40.3485
138.438 1721 41.4849
138.555 1842 42.9185
138.672 1775 42.1307
138.788 1616 40.1995
138.905 1497 38.6911
139.022 1520 38.9872
139.139 1464 38.2623
139.255 1357 36.8375
139.372 1299 36.0416
139.488 1151 33.9264
139.605 1208 34.7563
139.721 1114 33.3766
139.838 1137 33.7194
139.954 1224 34.9857
140.071 1159 34.0441
140.187 1071 32.7261
140.303 981 31.3209
140.419 951 30.8383
140.535 914 30.2324
140.652 796 28.2135
140.768 0 1
140.884 0 1
141 0 1
141.115 0 1
141.231 0 1
141.347 0 1
141.463 0 1
141.578 0 1
141.694 0 1
144.104 0 1
144.219 0 1
144.335 0 1
144.45 0 1
144.566 0 1
144.682 0 1
144.798 0 1
144.914 0 1
145.03 0 1
145.146 1205 34.7131
145.262 1356 36.8239
145.378 1409 37.5366
145.494 1372 37.0405
145.61 1432 37.8418
145.726 1360 36.8782
145.842 1368 36.9865
145.959 1223 34.9714
146.075 1146 33.8526
146.192 1158 34.0294
146.308 1155 33.9853
146.425 1113 33.3617
146.541 1229 35.0571
146.658 1184 34.4093
146.774 1140 33.7639
146.891 1248 35.327
147.008 1323 36.3731
147.125 1299 36.0416
147.241 1306 36.1386
147.358 1379 37.1349
147.475 1319 36.318
147.592 1340 36.606
147.709 1409 37.5366
147.826 1289 35.9026
147.943 1243 35.2562
148.06 1293 35.9583
148.177 1262 35.5246
148.294 1159 34.0441
148.411 1223 34.9714
148.528 1251 35.3695
148.645 1294 35.9722
148.762 1350 36.7423
148.88 1335 36.5377
148.997 1433 37.855
149.114 1343 36.647
149.231 1365 36.9459
149.349 1331 36.4829
149.466 1269 35.623
149.583 1240 35.2136
149.701 1113 33.3617
149.818 1116 33.4066
149.935 1088 32.9848
150.053 1088 32.9848
150.17 1067 32.665
150.287 1156 34
150.405 1223 34.9714
150.522 1256 35.4401
150.64 1251 35.3695
150.757 1215 34.8569
150.875 1296 36
150.992 1325 36.4005
151.11 1395 37.3497
151.227 1239 35.1994
151.344 1305 36.1248
151.462 1220 34.9285
151.579 1196 34.5832
151.697 1260 35.4965
151.814 1168 34.176
151.932 1147 33.8674
152.049 1217 34.8855
152.167 1235 35.1426
152.284 1255 35.426
152.402 1232 35.0999
152.519 1295 35.9861
152.636 1296 36
152.754 1259 35.4824
152.871 1325 36.4005
152.989 1357 36.8375
153.106 1278 35.7491
153.223 1176 34.2929
153.341 1115 33.3916
153.458 1060 32.5576
153.575 1049 32.3883
153.693 1061 32.573
153.81 1118 33.4365
153.927 1130 33.6155
154.044 1152 33.9411
154.162 1250 35.3553
154.279 1212 34.8138
154.396 1257 35.4542
154.513 1154 33.9706
154.63 1248 35.327
154.747 1251 35.3695
154.864 1107 33.2716
154.981 1097 33.121
155.098 1215 34.8569
155.215 1145 33.8378
155.332 1079 32.8481
155.449 1047 32.3574
155.566 1040 32.249
155.683 1056 32.4962
155.8 1063 32.6037
155.917 1138 33.7343
156.033 1126 33.5559
156.15 0 1
156.267 0 1
156.383 0 1
156.5 0 1
156.617 0 1
156.733 0 1
156.85 0 1
156.966 0 1
157.082 0 1
157.199 0 1
157.315 0 1
157.431 0 1
157.547 0 1
157.664 0 1
157.78 0 1
157.896 0 1
158.012 0 1
158.128 0 1
158.244 0 1
158.359 0 1
158.475 0 1
158.591 0 1
158.706 0 1
