
6.15755 0 1
6.2731 0 1
6.3887 0 1
6.50437 0 1
6.62009 0 1
6.73587 0 1
6.8517 0 1
6.96759 0 1
7.08353 0 1
7.19952 0 1
7.31557 0 1
7.43166 0 1
7.54781 0 1
7.664 0 1
7.78024 0 1
7.89653 0 1
8.01286 0 1
8.12924 0 1
8.24567 0 1
8.36213 0 1
8.47864 0 1
8.59519 0 1
8.71178 0 1
8.82841 0 1
8.94508 0 1
9.06179 0 1
9.17853 0 1
9.29531 0 1
9.41212 0 1
9.52897 0 1
9.64584 0 1
9.76276 0 1
9.8797 0 1
9.99667 0 1
10.1137 0 1
10.2307 0 1
10.3478 0 1
10.4648 0 1
10.5819 0 1
10.6991 0 1
10.8162 0 1
10.9334 0 1
11.0506 0 1
11.1678 0 1
11.285 0 1
11.4023 0 1
11.5196 0 1
11.6369 0 1
11.7542 0 1
11.8715 0 1
11.9888 0 1
12.1062 0 1
12.2235 0 1
12.3409 0 1
12.4582 0 1
12.5756 0 1
12.693 0 1
12.8104 0 1
12.9278 0 1
13.0452 0 1
13.1626 0 1
13.28 0 1
13.3974 0 1
13.5149 0 1
13.6323 0 1
13.7497 0 1
13.8671 0 1
13.9845 0 1
14.1019 0 1
14.2193 0 1
14.3367 0 1
14.4541 0 1
14.5714 0 1
14.6888 0 1
14.8062 0 1
14.9235 0 1
15.0408 3510 59.2453
15.1581 3359 57.9569
15.2755 3487 59.0508
15.3927 3524 59.3633
15.51 3549 59.5735
15.6273 3331 57.7148
15.7445 3246 56.9737
15.8617 3293 57.3847
15.9789 3504 59.1946
16.0961 3518 59.3127
16.2132 3719 60.9836
16.3304 3782 61.498
16.4475 3920 62.6099
16.5646 4016 63.3719
16.6816 3899 62.442
16.7986 3952 62.8649
16.9156 3933 62.7136
17.0326 3918 62.5939
17.1496 3826 61.8547
17.2665 3827 61.8628
17.3833 3738 61.1392
17.5002 3938 62.7535
17.617 3927 62.6658
17.7338 3915 62.57
17.8505 4068 63.7809
17.9672 4281 65.4294
18.0839 4301 65.582
18.2005 4287 65.4752
18.3171 4449 66.7008
18.4337 4487 66.9851
18.5502 4586 67.72
18.6666 4558 67.513
18.7831 4532 67.3201
18.8994 4441 66.6408
19.0158 4482 66.9477
19.1321 4310 65.6506
19.2483 4237 65.0922
19.3645 4192 64.7457
19.4806 4179 64.6452
19.5967 4369 66.0984
19.7128 4483 66.9552
19.8288 4496 67.0522
19.9447 4163 64.5213
20.0606 0 1
20.1764 0 1
20.2922 0 1
20.4079 0 1
20.5236 0 1
20.6392 0 1
20.7548 0 1
20.8702 0 1
23.3078 0 1
23.4233 0 1
23.539 0 1
23.6547 0 1
23.7704 0 1
23.8862 0 1
24.0021 0 1
24.118 0 1
24.234 0 1
24.35 0 1
24.4661 4269 65.3376
24.5822 4235 65.0769
24.6984 4231 65.0461
24.8146 4448 66.6933
24.9309 4563 67.55
25.0472 4673 68.3593
25.1636 4828 69.4838
25.28 4795 69.2459
25.3965 4764 69.0217
25.513 4698 68.542
25.6296 4696 68.5274
25.7462 4665 68.3008
25.8628 4682 68.4251
25.9795 4575 67.6387
26.0962 4662 68.2788
26.213 4898 69.9857
26.3298 4819 69.419
26.4466 5011 70.7884
26.5635 5012 70.7955
26.6804 5271 72.6017
26.7973 5362 73.2257
26.9143 5413 73.5731
27.0313 5446 73.797
27.1483 5458 73.8783
27.2653 5709 75.5579
27.3824 5531 74.3707
27.4996 5339 73.0685
27.6167 5293 72.753
27.7339 5105 71.4493
27.8511 5048 71.0493
27.9683 4799 69.2748
28.0855 4669 68.3301
28.2028 4704 68.5857
28.3201 4582 67.6905
28.4374 4934 70.2424
28.5547 5114 71.5122
28.6721 5141 71.7008
28.7894 5140 71.6938
28.9068 5136 71.6659
29.0242 5013 70.8025
29.1416 4882 69.8713
29.259 4650 68.1909
29.3764 4529 67.2978
29.4939 4450 66.7083
29.6113 4612 67.9117
29.7288 4625 68.0074
29.8463 4698 68.542
29.9638 4957 70.406
30.0812 5092 71.3583
30.1987 5189 72.0347
30.3162 5378 73.3348
30.4337 5421 73.6274
30.5512 5608 74.8866
30.6687 5489 74.0878
30.7862 5682 75.379
30.9037 5576 74.6726
31.0212 5728 75.6836
31.1387 5523 74.3169
31.2562 5389 73.4098
31.3737 5231 72.3257
31.4912 5089 71.3372
31.6087 4994 70.6682
31.7262 4807 69.3325
31.8436 4923 70.1641
31.9611 5003 70.7319
32.0785 5139 71.6868
32.1959 5303 72.8217
32.3134 5373 73.3008
32.4308 5503 74.1822
32.5482 5336 73.0479
32.6655 5189 72.0347
32.7829 4924 70.1712
32.9002 4854 69.6707
33.0176 4945 70.3207
33.1349 4720 68.7023
33.2522 4801 69.2892
33.3694 4850 69.6419
33.4867 4920 70.1427
33.6039 5172 71.9166
33.7211 5217 72.2288
33.8383 5321 72.9452
33.9554 5515 74.263
34.0725 5590 74.7663
34.1896 5579 74.6927
34.3067 5658 75.2197
34.4237 5843 76.4395
34.5407 5847 76.4657
34.6577 5781 76.0329
34.7746 5774 75.9868
34.8915 5429 73.6817
35.0084 5228 72.3049
35.1252 5199 72.1041
35.242 5110 71.4843
35.3587 5086 71.3162
35.4755 4935 70.2496
35.5921 5013 70.8025
35.7088 5132 71.638
35.8254 5320 72.9383
35.9419 5357 73.1915
36.0584 5427 73.6682
36.1749 5446 73.797
36.2913 5325 72.9726
36.4077 5178 71.9583
36.524 5009 70.7743
36.6403 4812 69.3686
36.7565 4785 69.1737
36.8727 4691 68.4909
36.9889 4720 68.7023
37.1049 4843 69.5917
37.221 0 1
37.3369 0 1
37.4529 0 1
37.5687 0 1
37.6845 0 1
37.8003 0 1
37.916 0 1
38.0316 0 1
38.1472 0 1
40.5851 0 1
40.7008 0 1
40.8164 0 1
40.9322 0 1
41.048 0 1
41.1639 0 1
41.2798 0 1
41.3958 0 1
41.5118 0 1
41.6279 0 1
41.744 4021 63.4114
41.8602 4087 63.9296
41.9765 4119 64.1794
42.0928 4240 65.1153
42.2091 4371 66.1135
42.3255 4451 66.7158
42.4419 4662 68.2788
42.5584 4785 69.1737
42.675 4849 69.6348
42.7915 5000 70.7107
42.9081 5164 71.861
43.0248 5193 72.0625
43.1415 5172 71.9166
43.2582 5201 72.118
43.375 5317 72.9178
43.4918 5310 72.8697
43.6087 5186 72.0139
43.7256 4864 69.7424
43.8425 5024 70.8802
43.9595 4903 70.0214
44.0765 4659 68.2569
44.1935 4503 67.1044
44.3106 4403 66.3551
44.4277 4428 66.5432
44.5448 4511 67.164
44.6619 4508 67.1416
44.7791 4741 68.8549
44.8963 4511 67.164
45.0136 4314 65.681
45.1308 4176 64.622
45.2481 4059 63.7103
45.3654 3676 60.63
45.4827 3599 59.9917
45.6001 3697 60.803
45.7174 3633 60.2744
45.8348 3736 61.1228
45.9522 3918 62.5939
46.0697 3973 63.0317
46.1871 4252 65.2074
46.3046 4424 66.5132
46.422 4457 66.7608
46.5395 4431 66.5658
46.657 4445 66.6708
46.7745 4402 66.3476
46.892 4546 67.424
47.0096 4432 66.5733
47.1271 4449 66.7008
47.2446 4224 64.9923
47.3622 4232 65.0538
47.4797 4070 63.7966
47.5973 3888 62.3538
47.7149 3797 61.6198
47.8324 3681 60.6712
47.95 3695 60.7865
48.0675 3697 60.803
48.1851 3792 61.5792
48.3027 3937 62.7455
48.4202 3652 60.4318
48.5378 3656 60.4649
48.6554 3503 59.1861
48.7729 3337 57.7668
48.8904 3176 56.356
49.008 3050 55.2268
49.1255 3148 56.107
49.243 3042 55.1543
49.3605 3142 56.0535
49.478 3340 57.7927
49.5955 3464 58.8558
49.713 3690 60.7454
49.8304 3710 60.9098
49.9479 3863 62.153
50.0653 3982 63.1031
50.1827 4126 64.2339
50.3001 4393 66.2797
50.4175 4095 63.9922
50.5348 4118 64.1716
50.6521 4292 65.5134
50.7694 4260 65.2687
50.8867 4343 65.9014
51.004 4211 64.8922
51.1212 4188 64.7148
51.2384 4096 64
51.3556 3996 63.2139
51.4727 4196 64.7765
51.5899 4365 66.0681
51.707 4512 67.1714
51.824 4772 69.0797
51.9411 4762 69.0072
52.0581 4636 68.0882
52.175 4692 68.4982
52.2919 4391 66.2646
52.4088 4202 64.8228
52.5257 4030 63.4823
52.6425 4105 64.0703
52.7593 4243 65.1383
52.876 4294 65.5286
52.9927 4429 66.5507
53.1094 4824 69.455
53.226 5147 71.7426
53.3426 5593 74.7864
53.4591 5690 75.4321
53.5756 5821 76.2955
53.692 5998 77.4468
53.8084 6144 78.3837
53.9248 6264 79.1454
54.0411 6245 79.0253
54.1573 6396 79.975
54.2735 0 1
54.3896 0 1
54.5057 0 1
54.6217 0 1
54.7377 0 1
54.8537 0 1
54.9695 0 1
55.0853 0 1
55.2011 0 1
55.3168 0 1
55.4324 0 1
57.824 0 1
57.9396 0 1
58.0553 0 1
58.1711 0 1
58.2869 0 1
58.4028 0 1
58.5187 0 1
58.6347 0 1
58.7508 0 1
58.8669 0 1
58.983 7187 84.7762
59.0992 7331 85.6213
59.2155 7520 86.7179
59.3318 7583 87.0804
59.4482 7460 86.3713
59.5646 7407 86.0639
59.681 7468 86.4176
59.7975 7230 85.0294
59.9141 7142 84.5104
60.0306 7155 84.5872
60.1473 6940 83.3067
60.2639 7156 84.5931
60.3807 6924 83.2106
60.4974 6974 83.5105
60.6142 6797 82.4439
60.731 6525 80.7775
60.8479 6367 79.7935
60.9648 6010 77.5242
61.0818 5712 75.5778
61.1987 5525 74.3303
61.3158 5430 73.6885
61.4328 5592 74.7797
61.5499 5701 75.505
61.667 6096 78.0769
61.7841 6357 79.7308
61.9013 6594 81.2034
62.0185 6735 82.067
62.1357 7000 83.666
62.253 7316 85.5336
62.3702 7379 85.9011
62.4875 7537 86.8159
62.6049 7471 86.4349
62.7222 7321 85.5628
62.8396 7297 85.4225
62.9569 7341 85.6796
63.0743 7131 84.4452
63.1918 7168 84.664
63.3092 6920 83.1865
63.4267 6951 83.3727
63.5441 6624 81.388
63.6616 6687 81.7741
63.7791 6734 82.061
63.8966 6615 81.3327
64.0142 6714 81.939
64.1317 6632 81.4371
64.2492 6566 81.0309
64.3668 5977 77.3111
64.4843 5572 74.6458
64.6019 5477 74.0068
64.7195 5114 71.5122
64.837 5025 70.8872
64.9546 5254 72.4845
65.0722 5371 73.2871
65.1898 5601 74.8398
65.3074 6139 78.3518
65.4249 6330 79.5613
65.5425 6697 81.8352
65.6601 6902 83.0783
65.7777 6956 83.4026
65.8952 7314 85.5219
66.0128 7140 84.4985
66.1304 7306 85.4751
66.2479 7347 85.7146
66.3655 7359 85.7846
66.483 7528 86.764
66.6005 7248 85.1352
66.718 7242 85.0999
66.8355 7111 84.3267
66.953 6932 83.2586
67.0705 6740 82.0975
67.1879 7005 83.6959
67.3054 6852 82.7768
67.4228 7023 83.8033
67.5402 6993 83.6242
67.6576 7161 84.6227
67.7749 6929 83.2406
67.8923 6828 82.6317
68.0096 6359 79.7433
68.1269 6179 78.6066
68.2442 5747 75.809
68.3614 5471 73.9662
68.4787 5467 73.9392
68.5958 5566 74.6056
68.713 5800 76.1577
68.8302 6004 77.4855
68.9473 6604 81.265
69.0643 6906 83.1023
69.1814 7444 86.2786
69.2984 7698 87.7382
69.4154 8078 89.8777
69.5323 8230 90.7193
69.6492 8489 92.1358
69.7661 8482 92.0978
69.8829 8658 93.0484
69.9997 8607 92.7739
70.1165 8821 93.9202
70.2332 8736 93.4666
70.3499 8756 93.5735
70.4665 8461 91.9837
70.5831 8377 91.526
70.6996 8256 90.8625
70.8161 8477 92.0706
70.9326 8274 90.9615
71.049 8462 91.9891
71.1653 8430 91.815
71.2817 8403 91.6679
71.3979 8298 91.0934
71.5141 7653 87.4814
71.6303 7044 83.9285
71.7464 6163 78.5048
71.8624 0 1
71.9784 0 1
72.0944 0 1
72.2102 0 1
72.3261 0 1
72.4418 0 1
72.5575 0 1
72.6732 0 1
75.1054 0 1
75.2209 0 1
75.3365 0 1
75.4521 0 1
75.5678 0 1
75.6835 0 1
75.7993 0 1
75.9151 0 1
76.031 0 1
76.147 8199 90.5483
76.263 8625 92.8709
76.3791 8920 94.4458
76.4952 9295 96.4106
76.6113 9625 98.1071
76.7276 9413 97.0206
76.8438 9004 94.8894
76.9601 8535 92.3851
77.0765 7774 88.1703
77.1929 7299 85.4342
77.3093 6786 82.3772
77.4258 6443 80.2683
77.5423 6484 80.5233
77.6589 6787 82.3833
77.7755 7278 85.3112
77.8921 8005 89.4707
78.0088 8735 93.4612
78.1256 9484 97.3858
78.2423 9730 98.6408
78.3591 10111 100.553
78.4759 10528 102.606
78.5928 10353 101.75
78.7097 10288 101.43
78.8266 10142 100.707
78.9436 10999 104.876
79.0606 10249 101.237
79.1776 10360 101.784
79.2946 10208 101.035
79.4117 10163 100.812
79.5288 9915 99.5741
79.6459 9741 98.6965
79.7631 9682 98.3972
79.8802 9580 97.8775
79.9974 9632 98.1428
80.1147 9695 98.4632
80.2319 9948 99.7397
80.3491 10061 100.305
80.4664 9613 98.0459
80.5837 9156 95.687
80.701 8239 90.7689
80.8183 7581 87.0689
80.9357 6950 83.3667
81.053 6321 79.5047
81.1704 6400 80
81.2877 6400 80
81.4051 6778 82.3286
81.5225 7562 86.9598
81.6399 8435 91.8423
81.7573 9265 96.2549
81.8747 9368 96.7884
81.9922 9907 99.5339
82.1096 10174 100.866
82.227 10236 101.173
82.3444 10241 101.198
82.4619 10393 101.946
82.5793 10293 101.454
82.6967 10065 100.324
82.8142 10021 100.105
82.9316 9805 99.0202
83.049 9860 99.2975
83.1664 9595 97.9541
83.2838 9453 97.2265
83.4012 9339 96.6385
83.5186 9029 95.0211
83.636 8956 94.6361
83.7534 9382 96.8607
83.8708 9628 98.1224
83.9881 9476 97.3447
84.1055 9036 95.0579
84.2228 8630 92.8978
84.3401 8002 89.4539
84.4575 7308 85.4868
84.5747 6732 82.0488
84.692 6393 79.9562
84.8093 6257 79.1012
84.9265 6412 80.075
85.0437 6752 82.1706
85.1609 7601 87.1837
85.2781 8604 92.7577
85.3952 9220 96.0208
85.5123 9942 99.7096
85.6294 10597 102.942
85.7465 10983 104.8
85.8636 11017 104.962
85.9806 11359 106.579
86.0976 11187 105.769
86.2145 11412 106.827
86.3315 12000 109.545
86.4484 11262 106.123
86.5652 11508 107.275
86.682 11898 109.078
86.7988 11975 109.43
86.9156 11748 108.388
87.0323 11766 108.471
87.149 11710 108.213
87.2657 11623 107.81
87.3823 12010 109.59
87.4988 12281 110.82
87.6154 12305 110.928
87.7318 11845 108.835
87.8483 11009 104.924
87.9647 10309 101.533
88.081 9379 96.8452
88.1973 8609 92.7847
88.3136 8208 90.598
88.4298 8129 90.161
88.546 8584 92.6499
88.6621 9498 97.4577
88.7781 10564 102.781
88.8942 0 1
89.0101 0 1
89.126 0 1
89.2419 0 1
89.3577 0 1
89.4734 0 1
89.5891 0 1
89.7047 0 1
89.8203 0 1
89.9358 0 1
92.3269 0 1
92.4424 0 1
92.558 0 1
92.6736 0 1
92.7893 0 1
92.905 0 1
93.0208 0 1
93.1366 0 1
93.2525 0 1
93.3685 0 1
93.4845 0 1
93.6005 8843 94.0372
93.7167 8976 94.7418
93.8328 9197 95.901
93.949 9816 99.0757
94.0653 10432 102.137
94.1816 11467 107.084
94.2979 12746 112.898
94.4143 13336 115.482
94.5307 14072 118.625
94.6472 14701 121.248
94.7637 14922 122.156
94.8803 15133 123.016
94.9969 15117 122.951
95.1135 15280 123.612
95.2302 15002 122.483
95.3469 15114 122.939
95.4637 15119 122.959
95.5805 14927 122.176
95.6973 15111 122.927
95.8142 15054 122.695
95.9311 14729 121.363
96.048 15215 123.349
96.1649 14701 121.248
96.2819 14569 120.702
96.3989 14771 121.536
96.516 14788 121.606
96.633 14727 121.355
96.7501 14780 121.573
96.8673 13912 117.949
96.9844 12852 113.367
97.1016 12071 109.868
97.2188 11068 105.205
97.336 10262 101.302
97.4532 9658 98.2751
97.5704 9688 98.4276
97.6877 9930 99.6494
97.805 10620 103.053
97.9223 11844 108.83
98.0396 12914 113.64
98.1569 13620 116.705
98.2743 14594 120.806
98.3916 15193 123.26
98.509 15292 123.661
98.6264 15980 126.412
98.7438 15871 125.98
98.8612 15989 126.448
98.9786 15892 126.063
99.096 15515 124.559
99.2134 15728 125.411
99.3308 15692 125.268
99.4482 15472 124.386
99.5656 15657 125.128
99.6831 15418 124.169
99.8005 15461 124.342
99.9179 15136 123.028
100.035 15321 123.778
100.153 15223 123.382
100.27 15458 124.33
100.388 15232 123.418
100.505 14455 120.229
100.622 13443 115.944
100.74 12467 111.656
100.857 11445 106.981
100.975 10558 102.752
101.092 10048 100.24
101.209 9908 99.5389
101.327 10347 101.72
101.444 11580 107.61
101.561 12959 113.838
101.679 14050 118.533
101.796 15161 123.13
101.913 15592 124.868
102.03 16141 127.047
102.148 16034 126.625
102.265 15882 126.024
102.382 16896 129.985
102.499 16386 128.008
102.616 16286 127.617
102.733 16272 127.562
102.851 16109 126.921
102.968 16377 127.973
103.085 16169 127.157
103.202 16140 127.043
103.319 15963 126.345
103.436 15849 125.893
103.552 15878 126.008
103.669 16219 127.354
103.786 16454 128.273
103.903 16114 126.941
104.02 15439 124.254
104.137 14719 121.322
104.253 13400 115.758
104.37 12464 111.642
104.487 11311 106.353
104.603 10718 103.528
104.72 10694 103.412
104.836 11308 106.339
104.953 12085 109.932
105.069 13543 116.374
105.186 14732 121.375
105.302 15977 126.4
105.418 16620 128.919
105.535 17067 130.641
105.651 17294 131.507
105.767 17420 131.985
105.883 17552 132.484
105.999 17411 131.951
106.115 0 1
106.231 0 1
106.347 0 1
106.463 0 1
106.579 0 1
106.694 0 1
106.81 0 1
106.926 0 1
107.041 0 1
107.157 0 1
109.576 0 1
109.692 0 1
109.807 0 1
109.923 0 1
110.039 0 1
110.155 0 1
110.27 0 1
110.386 0 1
110.502 0 1
110.618 15537 124.648
110.735 15976 126.396
110.851 16290 127.632
110.967 16212 127.326
111.083 16182 127.208
111.199 16231 127.401
111.316 15974 126.388
111.432 16416 128.125
111.549 16234 127.413
111.665 16113 126.937
111.782 15511 124.543
111.898 15488 124.451
112.015 15652 125.108
112.132 15634 125.036
112.248 16098 126.878
112.365 15562 124.748
112.482 14550 120.623
112.599 14313 119.637
112.716 13072 114.333
112.832 11975 109.43
112.949 11136 105.527
113.066 10533 102.63
113.183 10200 100.995
113.3 10375 101.858
113.417 11146 105.575
113.534 12017 109.622
113.652 12990 113.974
113.769 13839 117.639
113.886 14632 120.963
114.003 14540 120.582
114.12 15265 123.552
114.238 15122 122.972
114.355 15372 123.984
114.472 15047 122.666
114.589 15452 124.306
114.707 14692 121.211
114.824 14964 122.327
114.942 14983 122.405
115.059 15408 124.129
115.176 15294 123.669
115.294 15189 123.244
115.411 14768 121.524
115.529 14697 121.231
115.646 14830 121.778
115.764 15141 123.049
115.881 15110 122.923
115.999 14824 121.754
116.116 14134 118.887
116.234 13400 115.758
116.351 12424 111.463
116.469 11613 107.764
116.586 10977 104.771
116.704 10486 102.401
116.821 10293 101.454
116.939 10359 101.779
117.056 11245 106.042
117.174 11617 107.782
117.291 12681 112.61
117.409 13464 116.034
117.526 14280 119.499
117.644 14754 121.466
117.761 14968 122.344
117.879 15131 123.008
117.996 14869 121.939
118.114 14848 121.852
118.231 14694 121.219
118.349 14379 119.912
118.466 14493 120.387
118.584 14737 121.396
118.701 14971 122.356
118.819 14773 121.544
118.936 14627 120.942
119.053 14248 119.365
119.171 14218 119.239
119.288 14496 120.399
119.405 14811 121.7
119.523 14639 120.992
119.64 14361 119.837
119.757 13836 117.627
119.875 13131 114.591
119.992 12637 112.414
120.109 11662 107.991
120.226 10799 103.918
120.343 10554 102.733
120.46 10142 100.707
120.578 10188 100.936
120.695 10443 102.191
120.812 11052 105.128
120.929 11590 107.657
121.046 12596 112.232
121.163 13074 114.342
121.279 13638 116.782
121.396 14039 118.486
121.513 14260 119.415
121.63 14641 121
121.747 14368 119.867
121.863 13943 118.08
121.98 13989 118.275
122.097 13947 118.097
122.213 13964 118.169
122.33 13830 117.601
122.446 14120 118.828
122.563 14073 118.63
122.679 13918 117.975
122.795 13426 115.871
122.912 13423 115.858
123.028 13506 116.215
123.144 13720 117.132
123.26 13594 116.593
123.377 0 1
123.493 0 1
123.609 0 1
123.725 0 1
123.84 0 1
123.956 0 1
124.072 0 1
124.188 0 1
124.303 0 1
124.419 0 1
126.852 0 1
126.968 0 1
127.083 0 1
127.199 0 1
127.315 0 1
127.431 0 1
127.547 0 1
127.663 0 1
127.779 0 1
127.895 0 1
128.011 0 1
128.127 0 1
128.243 0 1
128.359 14535 120.561
128.476 14384 119.933
128.592 14296 119.566
128.708 13557 116.435
128.825 13274 115.213
128.941 12772 113.013
129.058 11946 109.298
129.174 11590 107.657
129.291 11156 105.622
129.408 11049 105.114
129.524 11267 106.146
129.641 11661 107.986
129.758 12099 109.995
129.875 13017 114.092
129.992 13512 116.241
130.108 13896 117.881
130.225 14334 119.725
130.342 14220 119.248
130.459 14251 119.378
130.576 14696 121.227
130.693 14137 118.899
130.81 13824 117.576
130.928 13766 117.329
131.045 14217 119.235
131.162 14499 120.412
131.279 14756 121.474
131.396 14769 121.528
131.513 14366 119.858
131.631 14267 119.445
131.748 14392 119.967
131.865 14511 120.462
131.983 14507 120.445
132.1 14400 120
132.217 13982 118.246
132.335 13237 115.052
132.452 12753 112.929
132.57 12217 110.531
132.687 11507 107.271
132.804 11406 106.799
132.922 10985 104.809
133.039 10965 104.714
133.157 11111 105.409
133.274 11604 107.722
133.392 12273 110.784
133.509 12869 113.442
133.627 13175 114.782
133.744 13467 116.047
133.862 13879 117.809
133.979 13815 117.537
134.097 13720 117.132
134.214 13751 117.265
134.332 13752 117.269
134.449 13108 114.49
134.567 13413 115.815
134.684 13529 116.314
134.802 13913 117.953
134.919 13980 118.237
135.037 13872 117.779
135.154 13400 115.758
135.272 13681 116.966
135.389 13900 117.898
135.507 13873 117.784
135.624 13812 117.524
135.742 13818 117.55
135.859 13263 115.165
135.977 12907 113.609
136.094 12241 110.639
136.211 11870 108.95
136.329 11491 107.196
136.446 11033 105.038
136.564 10820 104.019
136.681 10697 103.426
136.798 10848 104.154
136.915 11535 107.401
137.033 11751 108.402
137.15 12317 110.982
137.267 12667 112.548
137.384 12839 113.309
137.502 12825 113.248
137.619 13154 114.691
137.736 13086 114.394
137.853 13020 114.105
137.97 12715 112.761
138.087 12423 111.459
138.204 12729 112.823
138.321 12820 113.225
138.438 13220 114.978
138.555 13427 115.875
138.672 13366 115.611
138.788 13614 116.679
138.905 13319 115.408
139.022 13344 115.516
139.139 13613 116.675
139.255 13388 115.707
139.372 13276 115.222
139.488 13073 114.337
139.605 12708 112.73
139.721 12304 110.923
139.838 11758 108.434
139.954 11629 107.838
140.071 10808 103.962
140.187 10901 104.408
140.303 10657 103.233
140.419 10479 102.367
140.535 10859 104.207
140.652 10887 104.341
140.768 0 1
140.884 0 1
141 0 1
141.115 0 1
141.231 0 1
141.347 0 1
141.463 0 1
141.578 0 1
141.694 0 1
144.104 0 1
144.219 0 1
144.335 0 1
144.45 0 1
144.566 0 1
144.682 0 1
144.798 0 1
144.914 0 1
145.03 0 1
145.146 7589 87.1149
145.262 8154 90.2995
145.378 8536 92.3905
145.494 8603 92.7524
145.61 8718 93.3702
145.726 9224 96.0417
145.842 9440 97.1597
145.959 9510 97.5192
146.075 9769 98.8383
146.192 9941 99.7046
146.308 9901 99.5038
146.425 10025 100.125
146.541 10072 100.359
146.658 9808 99.0353
146.774 9440 97.1597
146.891 9561 97.7804
147.008 10041 100.205
147.125 9863 99.3126
147.241 10183 100.911
147.358 10222 101.104
147.475 9976 99.8799
147.592 10343 101.701
147.709 10291 101.445
147.826 10379 101.877
147.943 10271 101.346
148.06 10549 102.708
148.177 10253 101.257
148.294 10191 100.95
148.411 10109 100.544
148.528 9838 99.1867
148.645 9349 96.6902
148.762 9340 96.6437
148.88 9009 94.9158
148.997 8954 94.6256
149.114 9237 96.1093
149.231 9006 94.8999
149.349 8992 94.8262
149.466 9316 96.5194
149.583 9598 97.9694
149.701 9855 99.2724
149.818 9921 99.6042
149.935 10072 100.359
150.053 10300 101.489
150.17 10099 100.494
150.287 10110 100.548
150.405 9916 99.5791
150.522 9814 99.0656
150.64 9557 97.7599
150.757 9823 99.111
150.875 10007 100.035
150.992 10119 100.593
151.11 10369 101.828
151.227 10461 102.279
151.344 10379 101.877
151.462 10360 101.784
151.579 10507 102.504
151.697 10468 102.313
151.814 10546 102.694
151.932 9915 99.5741
152.049 10214 101.064
152.167 9946 99.7296
152.284 9902 99.5088
152.402 9671 98.3412
152.519 9447 97.1957
152.636 9379 96.8452
152.754 9162 95.7183
152.871 9287 96.3691
152.989 9474 97.3345
153.106 9611 98.0357
153.223 9496 97.4474
153.341 9856 99.2774
153.458 10049 100.245
153.575 10076 100.379
153.693 10294 101.459
153.81 10119 100.593
153.927 10057 100.285
154.044 9947 99.7346
154.162 9727 98.6256
154.279 9988 99.94
154.396 9940 99.6995
154.513 10217 101.079
154.63 10652 103.209
154.747 10718 103.528
154.864 10909 104.446
154.981 10829 104.062
155.098 10907 104.437
155.215 10785 103.851
155.332 10988 104.824
155.449 10818 104.01
155.566 10623 103.068
155.683 10685 103.368
155.8 10448 102.215
155.917 10320 101.587
156.033 10037 100.185
156.15 0 1
156.267 0 1
156.383 0 1
156.5 0 1
156.617 0 1
156.733 0 1
156.85 0 1
156.966 0 1
157.082 0 1
157.199 0 1
157.315 0 1
157.431 0 1
157.547 0 1
157.664 0 1
157.78 0 1
157.896 0 1
158.012 0 1
158.128 0 1
158.244 0 1
158.359 0 1
158.475 0 1
158.591 0 1
158.706 0 1
