
6.15755 0 1
6.2731 0 1
6.3887 0 1
6.50437 0 1
6.62009 0 1
6.73587 0 1
6.8517 0 1
6.96759 0 1
7.08353 0 1
7.19952 0 1
7.31557 0 1
7.43166 0 1
7.54781 0 1
7.664 0 1
7.78024 0 1
7.89653 0 1
8.01286 0 1
8.12924 0 1
8.24567 0 1
8.36213 0 1
8.47864 0 1
8.59519 0 1
8.71178 0 1
8.82841 0 1
8.94508 0 1
9.06179 0 1
9.17853 0 1
9.29531 0 1
9.41212 0 1
9.52897 0 1
9.64584 0 1
9.76276 0 1
9.8797 0 1
9.99667 0 1
10.1137 0 1
10.2307 0 1
10.3478 0 1
10.4648 0 1
10.5819 0 1
10.6991 0 1
10.8162 0 1
10.9334 0 1
11.0506 0 1
11.1678 0 1
11.285 0 1
11.4023 0 1
11.5196 0 1
11.6369 0 1
11.7542 0 1
11.8715 0 1
11.9888 0 1
12.1062 0 1
12.2235 0 1
12.3409 0 1
12.4582 0 1
12.5756 0 1
12.693 0 1
12.8104 0 1
12.9278 0 1
13.0452 0 1
13.1626 0 1
13.28 0 1
13.3974 0 1
13.5149 0 1
13.6323 0 1
13.7497 0 1
13.8671 0 1
13.9845 0 1
14.1019 0 1
14.2193 0 1
14.3367 0 1
14.4541 0 1
14.5714 0 1
14.6888 0 1
14.8062 0 1
14.9235 0 1
15.0408 0 0
15.1581 0 0
15.2755 0 0
15.3927 0 0
15.51 0 0
15.6273 0 0
15.7445 0 0
15.8617 0 0
15.9789 0 0
16.0961 0 0
16.2132 0 0
16.3304 0 0
16.4475 0 0
16.5646 0 0
16.6816 0 0
16.7986 0 0
16.9156 0 0
17.0326 0 0
17.1496 0 0
17.2665 0 0
17.3833 0 0
17.5002 0 0
17.617 0 0
17.7338 0 0
17.8505 0 0
17.9672 0 0
18.0839 0 0
18.2005 0 0
18.3171 0 0
18.4337 0 0
18.5502 0 0
18.6666 0 0
18.7831 0 0
18.8994 0 0
19.0158 0 0
19.1321 0 0
19.2483 0 0
19.3645 0 0
19.4806 0 0
19.5967 0 0
19.7128 0 0
19.8288 0 0
19.9447 0 0
20.0606 0 1
20.1764 0 1
20.2922 0 1
20.4079 0 1
20.5236 0 1
20.6392 0 1
20.7548 0 1
20.8702 0 1
23.3078 0 1
23.4233 0 1
23.539 0 1
23.6547 0 1
23.7704 0 1
23.8862 0 1
24.0021 0 1
24.118 0 1
24.234 0 1
24.35 0 1
24.4661 1331 36.4829
24.5822 1423 37.7227
24.6984 1435 37.8814
24.8146 1410 37.55
24.9309 1359 36.8646
25.0472 1454 38.1314
25.1636 1406 37.4967
25.28 1314 36.2491
25.3965 1354 36.7967
25.513 1390 37.2827
25.6296 1439 37.9342
25.7462 1457 38.1707
25.8628 1466 38.2884
25.9795 1491 38.6135
26.0962 1415 37.6165
26.213 1504 38.7814
26.3298 1476 38.4187
26.4466 1371 37.027
26.5635 1307 36.1525
26.6804 1213 34.8281
26.7973 1144 33.8231
26.9143 1185 34.4238
27.0313 1329 36.4555
27.1483 1395 37.3497
27.2653 1464 38.2623
27.3824 1459 38.1969
27.4996 1427 37.7757
27.6167 1498 38.704
27.7339 1433 37.855
27.8511 1391 37.2961
27.9683 1478 38.4448
28.0855 1373 37.054
28.2028 1411 37.5633
28.3201 1368 36.9865
28.4374 1360 36.8782
28.5547 1375 37.081
28.6721 1292 35.9444
28.7894 1324 36.3868
28.9068 1304 36.1109
29.0242 1363 36.9188
29.1416 1343 36.647
29.259 1349 36.7287
29.3764 1355 36.8103
29.4939 1378 37.1214
29.6113 1379 37.1349
29.7288 1332 36.4966
29.8463 1306 36.1386
29.9638 1259 35.4824
30.0812 1178 34.322
30.1987 1122 33.4963
30.3162 1064 32.619
30.4337 1125 33.541
30.5512 1273 35.6791
30.6687 1241 35.2278
30.7862 1391 37.2961
30.9037 1321 36.3456
31.0212 1464 38.2623
31.1387 1392 37.3095
31.2562 1296 36
31.3737 1402 37.4433
31.4912 1350 36.7423
31.6087 1352 36.7696
31.7262 1314 36.2491
31.8436 1260 35.4965
31.9611 1329 36.4555
32.0785 1291 35.9305
32.1959 1356 36.8239
32.3134 1333 36.5103
32.4308 1311 36.2077
32.5482 1223 34.9714
32.6655 1293 35.9583
32.7829 1258 35.4683
32.9002 1318 36.3043
33.0176 1316 36.2767
33.1349 1332 36.4966
33.2522 1349 36.7287
33.3694 1321 36.3456
33.4867 1312 36.2215
33.6039 1301 36.0694
33.7211 1159 34.0441
33.8383 1091 33.0303
33.9554 1079 32.8481
34.0725 1131 33.6303
34.1896 1152 33.9411
34.3067 1245 35.2846
34.4237 1272 35.6651
34.5407 1292 35.9444
34.6577 1388 37.2559
34.7746 1368 36.9865
34.8915 1307 36.1525
35.0084 1386 37.229
35.1252 1296 36
35.242 1263 35.5387
35.3587 1259 35.4824
35.4755 1261 35.5106
35.5921 1317 36.2905
35.7088 1267 35.5949
35.8254 1212 34.8138
35.9419 1257 35.4542
36.0584 1219 34.9142
36.1749 1218 34.8999
36.2913 1225 35
36.4077 1295 35.9861
36.524 1250 35.3553
36.6403 1194 34.5543
36.7565 1274 35.6931
36.8727 1180 34.3511
36.9889 1241 35.2278
37.1049 1323 36.3731
37.221 0 1
37.3369 0 1
37.4529 0 1
37.5687 0 1
37.6845 0 1
37.8003 0 1
37.916 0 1
38.0316 0 1
38.1472 0 1
40.5851 0 1
40.7008 0 1
40.8164 0 1
40.9322 0 1
41.048 0 1
41.1639 0 1
41.2798 0 1
41.3958 0 1
41.5118 0 1
41.6279 0 1
41.744 956 30.9192
41.8602 987 31.4166
41.9765 1032 32.1248
42.0928 980 31.305
42.2091 983 31.3528
42.3255 1021 31.9531
42.4419 915 30.249
42.5584 858 29.2916
42.675 813 28.5132
42.7915 778 27.8927
42.9081 808 28.4253
43.0248 866 29.4279
43.1415 969 31.1288
43.2582 916 30.2655
43.375 953 30.8707
43.4918 972 31.1769
43.6087 980 31.305
43.7256 931 30.5123
43.8425 901 30.0167
43.9595 854 29.2233
44.0765 900 30
44.1935 860 29.3258
44.3106 855 29.2404
44.4277 829 28.7924
44.5448 785 28.0179
44.6619 761 27.5862
44.7791 765 27.6586
44.8963 779 27.9106
45.0136 723 26.8887
45.1308 764 27.6405
45.2481 733 27.074
45.3654 690 26.2679
45.4827 694 26.3439
45.6001 741 27.2213
45.7174 720 26.8328
45.8348 707 26.5895
45.9522 632 25.1396
46.0697 639 25.2784
46.1871 587 24.2281
46.3046 559 23.6432
46.422 582 24.1247
46.5395 602 24.5357
46.657 608 24.6577
46.7745 653 25.5539
46.892 680 26.0768
47.0096 693 26.3249
47.1271 635 25.1992
47.2446 660 25.6905
47.3622 692 26.3059
47.4797 600 24.4949
47.5973 655 25.593
47.7149 599 24.4745
47.8324 609 24.6779
47.95 608 24.6577
48.0675 554 23.5372
48.1851 578 24.0416
48.3027 549 23.4307
48.4202 553 23.516
48.5378 547 23.388
48.6554 555 23.5584
48.7729 525 22.9129
48.8904 491 22.1585
49.008 515 22.6936
49.1255 548 23.4094
49.243 541 23.2594
49.3605 526 22.9347
49.478 529 23
49.5955 478 21.8632
49.713 424 20.5913
49.8304 435 20.8567
49.9479 422 20.5426
50.0653 544 23.3238
50.1827 564 23.7487
50.3001 545 23.3452
50.4175 578 24.0416
50.5348 582 24.1247
50.6521 695 26.3629
50.7694 642 25.3377
50.8867 658 25.6515
51.004 700 26.4575
51.1212 690 26.2679
51.2384 744 27.2764
51.3556 750 27.3861
51.4727 763 27.6225
51.5899 763 27.6225
51.707 774 27.8209
51.824 714 26.7208
51.9411 794 28.178
52.0581 811 28.4781
52.175 752 27.4226
52.2919 789 28.0891
52.4088 814 28.5307
52.5257 866 29.4279
52.6425 840 28.9828
52.7593 882 29.6985
52.876 945 30.7409
52.9927 861 29.3428
53.1094 829 28.7924
53.226 836 28.9137
53.3426 730 27.0185
53.4591 698 26.4197
53.5756 674 25.9615
53.692 870 29.4958
53.8084 898 29.9666
53.9248 1019 31.9218
54.0411 959 30.9677
54.1573 1047 32.3574
54.2735 0 1
54.3896 0 1
54.5057 0 1
54.6217 0 1
54.7377 0 1
54.8537 0 1
54.9695 0 1
55.0853 0 1
55.2011 0 1
55.3168 0 1
55.4324 0 1
57.824 0 1
57.9396 0 1
58.0553 0 1
58.1711 0 1
58.2869 0 1
58.4028 0 1
58.5187 0 1
58.6347 0 1
58.7508 0 1
58.8669 0 1
58.983 1163 34.1028
59.0992 1138 33.7343
59.2155 1215 34.8569
59.3318 1175 34.2783
59.4482 1245 35.2846
59.5646 1242 35.242
59.681 1225 35
59.7975 1277 35.7351
59.9141 1215 34.8569
60.0306 1182 34.3802
60.1473 1168 34.176
60.2639 1194 34.5543
60.3807 1082 32.8938
60.4974 1115 33.3916
60.6142 1074 32.7719
60.731 1082 32.8938
60.8479 1016 31.8748
60.9648 1071 32.7261
61.0818 1054 32.4654
61.1987 1051 32.4191
61.3158 1079 32.8481
61.4328 1116 33.4066
61.5499 1041 32.2645
61.667 1045 32.3265
61.7841 953 30.8707
61.9013 824 28.7054
62.0185 783 27.9821
62.1357 892 29.8664
62.253 1027 32.0468
62.3702 988 31.4325
62.4875 1112 33.3467
62.6049 1126 33.5559
62.7222 1182 34.3802
62.8396 1148 33.8821
62.9569 1245 35.2846
63.0743 1236 35.1568
63.1918 1170 34.2053
63.3092 1299 36.0416
63.4267 1257 35.4542
63.5441 1271 35.6511
63.6616 1192 34.5254
63.7791 1229 35.0571
63.8966 1221 34.9428
64.0142 1180 34.3511
64.1317 1202 34.6699
64.2492 1155 33.9853
64.3668 1191 34.5109
64.4843 1178 34.322
64.6019 1185 34.4238
64.7195 1184 34.4093
64.837 1169 34.1906
64.9546 1169 34.1906
65.0722 1170 34.2053
65.1898 1126 33.5559
65.3074 1061 32.573
65.4249 938 30.6268
65.5425 866 29.4279
65.6601 921 30.348
65.7777 996 31.5595
65.8952 1033 32.1403
66.0128 1116 33.4066
66.1304 1144 33.8231
66.2479 1296 36
66.3655 1287 35.8748
66.483 1352 36.7696
66.6005 1282 35.805
66.718 1218 34.8999
66.8355 1292 35.9444
66.953 1304 36.1109
67.0705 1265 35.5668
67.1879 1209 34.7707
67.3054 1112 33.3467
67.4228 1182 34.3802
67.5402 1121 33.4813
67.6576 1097 33.121
67.7749 1104 33.2265
67.8923 1064 32.619
68.0096 1057 32.5115
68.1269 1076 32.8024
68.2442 1060 32.5576
68.3614 1079 32.8481
68.4787 1140 33.7639
68.5958 1133 33.6601
68.713 1037 32.2025
68.8302 1050 32.4037
68.9473 911 30.1828
69.0643 848 29.1204
69.1814 821 28.6531
69.2984 838 28.9482
69.4154 880 29.6648
69.5323 925 30.4138
69.6492 1027 32.0468
69.7661 1132 33.6452
69.8829 1095 33.0908
69.9997 1116 33.4066
70.1165 1197 34.5977
70.2332 1209 34.7707
70.3499 1204 34.6987
70.4665 1199 34.6266
70.5831 1208 34.7563
70.6996 1123 33.5112
70.8161 1114 33.3766
70.9326 1155 33.9853
71.049 1065 32.6343
71.1653 983 31.3528
71.2817 1016 31.8748
71.3979 1005 31.7017
71.5141 1010 31.7805
71.6303 1034 32.1559
71.7464 884 29.7321
71.8624 0 1
71.9784 0 1
72.0944 0 1
72.2102 0 1
72.3261 0 1
72.4418 0 1
72.5575 0 1
72.6732 0 1
75.1054 0 1
75.2209 0 1
75.3365 0 1
75.4521 0 1
75.5678 0 1
75.6835 0 1
75.7993 0 1
75.9151 0 1
76.031 0 1
76.147 1044 32.311
76.263 1080 32.8634
76.3791 1102 33.1964
76.4952 1096 33.1059
76.6113 1013 31.8277
76.7276 978 31.273
76.8438 1054 32.4654
76.9601 1039 32.2335
77.0765 1014 31.8434
77.1929 1079 32.8481
77.3093 1053 32.45
77.4258 1114 33.3766
77.5423 1063 32.6037
77.6589 1074 32.7719
77.7755 1039 32.2335
77.8921 924 30.3974
78.0088 861 29.3428
78.1256 766 27.6767
78.2423 698 26.4197
78.3591 736 27.1293
78.4759 842 29.0172
78.5928 858 29.2916
78.7097 1021 31.9531
78.8266 1032 32.1248
78.9436 1182 34.3802
79.0606 1183 34.3948
79.1776 1082 32.8938
79.2946 1140 33.7639
79.4117 1146 33.8526
79.5288 1138 33.7343
79.6459 1110 33.3167
79.7631 1080 32.8634
79.8802 1046 32.3419
79.9974 966 31.0805
80.1147 940 30.6594
80.2319 871 29.5127
80.3491 910 30.1662
80.4664 930 30.4959
80.5837 938 30.6268
80.701 924 30.3974
80.8183 890 29.8329
80.9357 880 29.6648
81.053 954 30.8869
81.1704 928 30.4631
81.2877 923 30.3809
81.4051 855 29.2404
81.5225 832 28.8444
81.6399 764 27.6405
81.7573 665 25.7876
81.8747 642 25.3377
81.9922 614 24.779
82.1096 698 26.4197
82.227 816 28.5657
82.3444 844 29.0517
82.4619 948 30.7896
82.5793 975 31.225
82.6967 918 30.2985
82.8142 968 31.1127
82.9316 989 31.4484
83.049 955 30.9031
83.1664 934 30.5614
83.2838 937 30.6105
83.4012 889 29.8161
83.5186 889 29.8161
83.636 783 27.9821
83.7534 761 27.5862
83.8708 799 28.2666
83.9881 801 28.3019
84.1055 752 27.4226
84.2228 778 27.8927
84.3401 787 28.0535
84.4575 832 28.8444
84.5747 814 28.5307
84.692 816 28.5657
84.8093 868 29.4618
84.9265 802 28.3196
85.0437 824 28.7054
85.1609 711 26.6646
85.2781 645 25.3969
85.3952 632 25.1396
85.5123 583 24.1454
85.6294 673 25.9422
85.7465 740 27.2029
85.8636 804 28.3549
85.9806 913 30.2159
86.0976 926 30.4302
86.2145 980 31.305
86.3315 1051 32.4191
86.4484 1069 32.6956
86.5652 1084 32.9242
86.682 1137 33.7194
86.7988 1058 32.5269
86.9156 1060 32.5576
87.0323 1023 31.9844
87.149 972 31.1769
87.2657 943 30.7083
87.3823 932 30.5287
87.4988 967 31.0966
87.6154 1010 31.7805
87.7318 954 30.8869
87.8483 952 30.8545
87.9647 940 30.6594
88.081 1045 32.3265
88.1973 1098 33.1361
88.3136 1037 32.2025
88.4298 1076 32.8024
88.546 1038 32.218
88.6621 900 30
88.7781 845 29.0689
88.8942 0 1
89.0101 0 1
89.126 0 1
89.2419 0 1
89.3577 0 1
89.4734 0 1
89.5891 0 1
89.7047 0 1
89.8203 0 1
89.9358 0 1
92.3269 0 1
92.4424 0 1
92.558 0 1
92.6736 0 1
92.7893 0 1
92.905 0 1
93.0208 0 1
93.1366 0 1
93.2525 0 1
93.3685 0 1
93.4845 0 1
93.6005 1036 32.187
93.7167 1046 32.3419
93.8328 1042 32.28
93.949 1021 31.9531
94.0653 993 31.5119
94.1816 931 30.5123
94.2979 842 29.0172
94.4143 794 28.178
94.5307 780 27.9285
94.6472 768 27.7128
94.7637 820 28.6356
94.8803 976 31.241
94.9969 1065 32.6343
95.1135 1135 33.6898
95.2302 1125 33.541
95.3469 1163 34.1028
95.4637 1224 34.9857
95.5805 1224 34.9857
95.6973 1281 35.7911
95.8142 1291 35.9305
95.9311 1180 34.3511
96.048 1135 33.6898
96.1649 1204 34.6987
96.2819 1044 32.311
96.3989 1062 32.5883
96.516 1090 33.0151
96.633 1031 32.1092
96.7501 1011 31.7962
96.8673 1012 31.8119
96.9844 1005 31.7017
97.1016 1013 31.8277
97.2188 1142 33.7935
97.336 1133 33.6601
97.4532 1175 34.2783
97.5704 1085 32.9393
97.6877 1025 32.0156
97.805 906 30.0998
97.9223 820 28.6356
98.0396 792 28.1425
98.1569 783 27.9821
98.2743 763 27.6225
98.3916 867 29.4449
98.509 904 30.0666
98.6264 1027 32.0468
98.7438 1060 32.5576
98.8612 1194 34.5543
98.9786 1254 35.4119
99.096 1258 35.4683
99.2134 1193 34.5398
99.3308 1271 35.6511
99.4482 1254 35.4119
99.5656 1201 34.6554
99.6831 1173 34.2491
99.8005 1153 33.9559
99.9179 1158 34.0294
100.035 1069 32.6956
100.153 1061 32.573
100.27 1029 32.078
100.388 1039 32.2335
100.505 1034 32.1559
100.622 1082 32.8938
100.74 1066 32.6497
100.857 1143 33.8083
100.975 1165 34.1321
101.092 1107 33.2716
101.209 1093 33.0606
101.327 1002 31.6544
101.444 996 31.5595
101.561 903 30.05
101.679 842 29.0172
101.796 813 28.5132
101.913 842 29.0172
102.03 903 30.05
102.148 1074 32.7719
102.265 1037 32.2025
102.382 1249 35.3412
102.499 1157 34.0147
102.616 1264 35.5528
102.733 1297 36.0139
102.851 1343 36.647
102.968 1328 36.4417
103.085 1271 35.6511
103.202 1254 35.4119
103.319 1216 34.8712
103.436 1215 34.8569
103.552 1191 34.5109
103.669 1156 34
103.786 1033 32.1403
103.903 1067 32.665
104.02 1178 34.322
104.137 1182 34.3802
104.253 1162 34.0881
104.37 1268 35.609
104.487 1238 35.1852
104.603 1222 34.9571
104.72 1182 34.3802
104.836 1145 33.8378
104.953 1038 32.218
105.069 915 30.249
105.186 935 30.5778
105.302 820 28.6356
105.418 935 30.5778
105.535 1078 32.8329
105.651 1192 34.5254
105.767 1263 35.5387
105.883 1415 37.6165
105.999 1384 37.2022
106.115 0 1
106.231 0 1
106.347 0 1
106.463 0 1
106.579 0 1
106.694 0 1
106.81 0 1
106.926 0 1
107.041 0 1
107.157 0 1
109.576 0 1
109.692 0 1
109.807 0 1
109.923 0 1
110.039 0 1
110.155 0 1
110.27 0 1
110.386 0 1
110.502 0 1
110.618 983 31.3528
110.735 1124 33.5261
110.851 1245 35.2846
110.967 1270 35.6371
111.083 1326 36.4143
111.199 1410 37.55
111.316 1343 36.647
111.432 1349 36.7287
111.549 1399 37.4032
111.665 1326 36.4143
111.782 1325 36.4005
111.898 1162 34.0881
112.015 1182 34.3802
112.132 1102 33.1964
112.248 1066 32.6497
112.365 1088 32.9848
112.482 1009 31.7648
112.599 1111 33.3317
112.716 1097 33.121
112.832 1099 33.1512
112.949 1137 33.7194
113.066 1140 33.7639
113.183 1116 33.4066
113.3 1038 32.218
113.417 1047 32.3574
113.534 907 30.1164
113.652 887 29.7825
113.769 794 28.178
113.886 800 28.2843
114.003 838 28.9482
114.12 954 30.8869
114.238 1080 32.8634
114.355 1162 34.0881
114.472 1230 35.0714
114.589 1236 35.1568
114.707 1222 34.9571
114.824 1327 36.428
114.942 1291 35.9305
115.059 1327 36.428
115.176 1266 35.5809
115.294 1300 36.0555
115.411 1221 34.9428
115.529 1183 34.3948
115.646 1170 34.2053
115.764 1156 34
115.881 1071 32.7261
115.999 1090 33.0151
116.116 1097 33.121
116.234 1065 32.6343
116.351 1128 33.5857
116.469 1126 33.5559
116.586 1179 34.3366
116.704 1106 33.2566
116.821 1219 34.9142
116.939 1074 32.7719
117.056 1004 31.686
117.174 932 30.5287
117.291 923 30.3809
117.409 878 29.6311
117.526 942 30.692
117.644 977 31.257
117.761 1120 33.4664
117.879 1248 35.327
117.996 1249 35.3412
118.114 1293 35.9583
118.231 1318 36.3043
118.349 1303 36.0971
118.466 1350 36.7423
118.584 1404 37.47
118.701 1379 37.1349
118.819 1304 36.1109
118.936 1318 36.3043
119.053 1234 35.1283
119.171 1191 34.5109
119.288 1165 34.1321
119.405 1110 33.3167
119.523 1153 33.9559
119.64 1116 33.4066
119.757 1090 33.0151
119.875 1144 33.8231
119.992 1161 34.0735
120.109 1189 34.4819
120.226 1132 33.6452
120.343 1179 34.3366
120.46 1069 32.6956
120.578 1110 33.3167
120.695 1006 31.7175
120.812 929 30.4795
120.929 932 30.5287
121.046 867 29.4449
121.163 915 30.249
121.279 986 31.4006
121.396 1066 32.6497
121.513 1168 34.176
121.63 1250 35.3553
121.747 1260 35.4965
121.863 1292 35.9444
121.98 1327 36.428
122.097 1331 36.4829
122.213 1315 36.2629
122.33 1344 36.6606
122.446 1341 36.6197
122.563 1225 35
122.679 1230 35.0714
122.795 1246 35.2987
122.912 1223 34.9714
123.028 1195 34.5688
123.144 1156 34
123.26 1086 32.9545
123.377 0 1
123.493 0 1
123.609 0 1
123.725 0 1
123.84 0 1
123.956 0 1
124.072 0 1
124.188 0 1
124.303 0 1
124.419 0 1
126.852 0 1
126.968 0 1
127.083 0 1
127.199 0 1
127.315 0 1
127.431 0 1
127.547 0 1
127.663 0 1
127.779 0 1
127.895 0 1
128.011 0 1
128.127 0 1
128.243 0 1
128.359 1315 36.2629
128.476 1206 34.7275
128.592 1226 35.0143
128.708 1259 35.4824
128.825 1272 35.6651
128.941 1300 36.0555
129.058 1323 36.3731
129.174 1274 35.6931
129.291 1327 36.428
129.408 1295 35.9861
129.524 1228 35.0428
129.641 1196 34.5832
129.758 1099 33.1512
129.875 1029 32.078
129.992 979 31.289
130.108 1040 32.249
130.225 1127 33.5708
130.342 1211 34.7994
130.459 1254 35.4119
130.576 1290 35.9166
130.693 1316 36.2767
130.81 1356 36.8239
130.928 1376 37.0945
131.045 1375 37.081
131.162 1389 37.2693
131.279 1361 36.8917
131.396 1385 37.2156
131.513 1459 38.1969
131.631 1382 37.1753
131.748 1387 37.2424
131.865 1318 36.3043
131.983 1239 35.1994
132.1 1231 35.0856
132.217 1210 34.7851
132.335 1245 35.2846
132.452 1371 37.027
132.57 1353 36.7831
132.687 1368 36.9865
132.804 1407 37.51
132.922 1325 36.4005
133.039 1282 35.805
133.157 1238 35.1852
133.274 1175 34.2783
133.392 1081 32.8786
133.509 1088 32.9848
133.627 1039 32.2335
133.744 1077 32.8177
133.862 1151 33.9264
133.979 1210 34.7851
134.097 1348 36.7151
134.214 1333 36.5103
134.332 1390 37.2827
134.449 1452 38.1051
134.567 1395 37.3497
134.684 1448 38.0526
134.802 1461 38.223
134.919 1460 38.2099
135.037 1319 36.318
135.154 1414 37.6032
135.272 1358 36.8511
135.389 1367 36.973
135.507 1267 35.5949
135.624 1195 34.5688
135.742 1181 34.3657
135.859 1262 35.5246
135.977 1361 36.8917
136.094 1370 37.0135
136.211 1321 36.3456
136.329 1380 37.1484
136.446 1347 36.7015
136.564 1305 36.1248
136.681 1246 35.2987
136.798 1225 35
136.915 1128 33.5857
137.033 1093 33.0606
137.15 1049 32.3883
137.267 1033 32.1403
137.384 1094 33.0757
137.502 1174 34.2637
137.619 1289 35.9026
137.736 1392 37.3095
137.853 1289 35.9026
137.97 1345 36.6742
138.087 1300 36.0555
138.204 1402 37.4433
138.321 1383 37.1887
138.438 1358 36.8511
138.555 1389 37.2693
138.672 1440 37.9473
138.788 1366 36.9594
138.905 1345 36.6742
139.022 1328 36.4417
139.139 1308 36.1663
139.255 1265 35.5668
139.372 1247 35.3129
139.488 1309 36.1801
139.605 1365 36.9459
139.721 1325 36.4005
139.838 1352 36.7696
139.954 1363 36.9188
140.071 1392 37.3095
140.187 1342 36.6333
140.303 1237 35.171
140.419 1168 34.176
140.535 1097 33.121
140.652 1038 32.218
140.768 0 1
140.884 0 1
141 0 1
141.115 0 1
141.231 0 1
141.347 0 1
141.463 0 1
141.578 0 1
141.694 0 1
144.104 0 1
144.219 0 1
144.335 0 1
144.45 0 1
144.566 0 1
144.682 0 1
144.798 0 1
144.914 0 1
145.03 0 1
145.146 905 30.0832
145.262 968 31.1127
145.378 949 30.8058
145.494 926 30.4302
145.61 883 29.7153
145.726 903 30.05
145.842 842 29.0172
145.959 840 28.9828
146.075 829 28.7924
146.192 816 28.5657
146.308 870 29.4958
146.425 958 30.9516
146.541 1034 32.1559
146.658 1029 32.078
146.774 1030 32.0936
146.891 1027 32.0468
147.008 1046 32.3419
147.125 1073 32.7567
147.241 1137 33.7194
147.358 1090 33.0151
147.475 1098 33.1361
147.592 1058 32.5269
147.709 1094 33.0757
147.826 1114 33.3766
147.943 1039 32.2335
148.06 1002 31.6544
148.177 982 31.3369
148.294 982 31.3369
148.411 1019 31.9218
148.528 1037 32.2025
148.645 1004 31.686
148.762 1050 32.4037
148.88 1000 31.6228
148.997 1048 32.3728
149.114 1097 33.121
149.231 1013 31.8277
149.349 963 31.0322
149.466 931 30.5123
149.583 912 30.1993
149.701 883 29.7153
149.818 939 30.6431
149.935 894 29.8998
150.053 878 29.6311
150.17 965 31.0644
150.287 944 30.7246
150.405 1049 32.3883
150.522 1052 32.4345
150.64 999 31.607
150.757 1120 33.4664
150.875 1108 33.2866
150.992 1158 34.0294
151.11 1144 33.8231
151.227 1105 33.2415
151.344 1105 33.2415
151.462 1122 33.4963
151.579 1101 33.1813
151.697 1029 32.078
151.814 971 31.1609
151.932 1010 31.7805
152.049 1057 32.5115
152.167 1059 32.5423
152.284 1089 33
152.402 1090 33.0151
152.519 1057 32.5115
152.636 1073 32.7567
152.754 1118 33.4365
152.871 1026 32.0312
152.989 1022 31.9687
153.106 964 31.0483
153.223 981 31.3209
153.341 971 31.1609
153.458 911 30.1828
153.575 989 31.4484
153.693 1031 32.1092
153.81 1063 32.6037
153.927 1014 31.8434
154.044 1117 33.4215
154.162 1199 34.6266
154.279 1143 33.8083
154.396 1230 35.0714
154.513 1257 35.4542
154.63 1199 34.6266
154.747 1283 35.819
154.864 1228 35.0428
154.981 1225 35
155.098 1265 35.5668
155.215 1174 34.2637
155.332 1140 33.7639
155.449 1144 33.8231
155.566 1167 34.1614
155.683 1179 34.3366
155.8 1173 34.2491
155.917 1243 35.2562
156.033 1177 34.3074
156.15 0 1
156.267 0 1
156.383 0 1
156.5 0 1
156.617 0 1
156.733 0 1
156.85 0 1
156.966 0 1
157.082 0 1
157.199 0 1
157.315 0 1
157.431 0 1
157.547 0 1
157.664 0 1
157.78 0 1
157.896 0 1
158.012 0 1
158.128 0 1
158.244 0 1
158.359 0 1
158.475 0 1
158.591 0 1
158.706 0 1
