
6.15755 0 1
6.2731 0 1
6.3887 0 1
6.50437 0 1
6.62009 0 1
6.73587 0 1
6.8517 0 1
6.96759 0 1
7.08353 0 1
7.19952 0 1
7.31557 0 1
7.43166 0 1
7.54781 0 1
7.664 0 1
7.78024 0 1
7.89653 0 1
8.01286 0 1
8.12924 0 1
8.24567 0 1
8.36213 0 1
8.47864 0 1
8.59519 0 1
8.71178 0 1
8.82841 0 1
8.94508 0 1
9.06179 0 1
9.17853 0 1
9.29531 0 1
9.41212 0 1
9.52897 0 1
9.64584 0 1
9.76276 0 1
9.8797 0 1
9.99667 0 1
10.1137 0 1
10.2307 0 1
10.3478 0 1
10.4648 0 1
10.5819 0 1
10.6991 0 1
10.8162 0 1
10.9334 0 1
11.0506 0 1
11.1678 0 1
11.285 0 1
11.4023 0 1
11.5196 0 1
11.6369 0 1
11.7542 0 1
11.8715 0 1
11.9888 0 1
12.1062 0 1
12.2235 0 1
12.3409 0 1
12.4582 0 1
12.5756 0 1
12.693 0 1
12.8104 0 1
12.9278 0 1
13.0452 0 1
13.1626 0 1
13.28 0 1
13.3974 0 1
13.5149 0 1
13.6323 0 1
13.7497 0 1
13.8671 0 1
13.9845 0 1
14.1019 0 1
14.2193 0 1
14.3367 0 1
14.4541 0 1
14.5714 0 1
14.6888 0 1
14.8062 0 1
14.9235 0 1
15.0408 0 0
15.1581 0 0
15.2755 0 0
15.3927 0 0
15.51 0 0
15.6273 0 0
15.7445 0 0
15.8617 0 0
15.9789 0 0
16.0961 0 0
16.2132 0 0
16.3304 0 0
16.4475 0 0
16.5646 0 0
16.6816 0 0
16.7986 0 0
16.9156 0 0
17.0326 0 0
17.1496 0 0
17.2665 0 0
17.3833 0 0
17.5002 0 0
17.617 0 0
17.7338 0 0
17.8505 0 0
17.9672 0 0
18.0839 0 0
18.2005 0 0
18.3171 0 0
18.4337 0 0
18.5502 0 0
18.6666 0 0
18.7831 0 0
18.8994 0 0
19.0158 0 0
19.1321 0 0
19.2483 0 0
19.3645 0 0
19.4806 0 0
19.5967 0 0
19.7128 0 0
19.8288 0 0
19.9447 0 0
20.0606 0 1
20.1764 0 1
20.2922 0 1
20.4079 0 1
20.5236 0 1
20.6392 0 1
20.7548 0 1
20.8702 0 1
23.3078 0 1
23.4233 0 1
23.539 0 1
23.6547 0 1
23.7704 0 1
23.8862 0 1
24.0021 0 1
24.118 0 1
24.234 0 1
24.35 0 1
24.4661 1007 31.7333
24.5822 1010 31.7805
24.6984 1099 33.1512
24.8146 1002 31.6544
24.9309 997 31.5753
25.0472 1099 33.1512
25.1636 1106 33.2566
25.28 1095 33.0908
25.3965 1100 33.1662
25.513 1074 32.7719
25.6296 1187 34.4529
25.7462 1127 33.5708
25.8628 1139 33.7491
25.9795 1163 34.1028
26.0962 1131 33.6303
26.213 1112 33.3467
26.3298 1123 33.5112
26.4466 1053 32.45
26.5635 1136 33.7046
26.6804 1079 32.8481
26.7973 1080 32.8634
26.9143 1044 32.311
27.0313 967 31.0966
27.1483 1017 31.8904
27.2653 987 31.4166
27.3824 962 31.0161
27.4996 1149 33.8969
27.6167 1045 32.3265
27.7339 1011 31.7962
27.8511 1014 31.8434
27.9683 951 30.8383
28.0855 937 30.6105
28.2028 1013 31.8277
28.3201 1017 31.8904
28.4374 1024 32
28.5547 1007 31.7333
28.6721 1011 31.7962
28.7894 1048 32.3728
28.9068 1031 32.1092
29.0242 1091 33.0303
29.1416 1089 33
29.259 1071 32.7261
29.3764 1077 32.8177
29.4939 1042 32.28
29.6113 1081 32.8786
29.7288 1067 32.665
29.8463 1130 33.6155
29.9638 1086 32.9545
30.0812 1040 32.249
30.1987 1039 32.2335
30.3162 1048 32.3728
30.4337 1042 32.28
30.5512 882 29.6985
30.6687 907 30.1164
30.7862 944 30.7246
30.9037 953 30.8707
31.0212 996 31.5595
31.1387 914 30.2324
31.2562 944 30.7246
31.3737 984 31.3688
31.4912 969 31.1288
31.6087 954 30.8869
31.7262 906 30.0998
31.8436 971 31.1609
31.9611 959 30.9677
32.0785 987 31.4166
32.1959 1021 31.9531
32.3134 1050 32.4037
32.4308 1089 33
32.5482 1027 32.0468
32.6655 1092 33.0454
32.7829 1045 32.3265
32.9002 1038 32.218
33.0176 1051 32.4191
33.1349 998 31.5911
33.2522 1025 32.0156
33.3694 1081 32.8786
33.4867 1030 32.0936
33.6039 1030 32.0936
33.7211 1025 32.0156
33.8383 1039 32.2335
33.9554 1048 32.3728
34.0725 972 31.1769
34.1896 947 30.7734
34.3067 874 29.5635
34.4237 906 30.0998
34.5407 912 30.1993
34.6577 917 30.282
34.7746 964 31.0483
34.8915 959 30.9677
35.0084 882 29.6985
35.1252 944 30.7246
35.242 898 29.9666
35.3587 907 30.1164
35.4755 918 30.2985
35.5921 997 31.5753
35.7088 999 31.607
35.8254 995 31.5436
35.9419 1046 32.3419
36.0584 997 31.5753
36.1749 1044 32.311
36.2913 986 31.4006
36.4077 989 31.4484
36.524 995 31.5436
36.6403 994 31.5278
36.7565 1012 31.8119
36.8727 1022 31.9687
36.9889 950 30.8221
37.1049 991 31.4802
37.221 0 1
37.3369 0 1
37.4529 0 1
37.5687 0 1
37.6845 0 1
37.8003 0 1
37.916 0 1
38.0316 0 1
38.1472 0 1
40.5851 0 1
40.7008 0 1
40.8164 0 1
40.9322 0 1
41.048 0 1
41.1639 0 1
41.2798 0 1
41.3958 0 1
41.5118 0 1
41.6279 0 1
41.744 807 28.4077
41.8602 862 29.3598
41.9765 870 29.4958
42.0928 827 28.7576
42.2091 811 28.4781
42.3255 846 29.0861
42.4419 844 29.0517
42.5584 852 29.189
42.675 815 28.5482
42.7915 854 29.2233
42.9081 848 29.1204
43.0248 737 27.1477
43.1415 655 25.593
43.2582 716 26.7582
43.375 790 28.1069
43.4918 749 27.3679
43.6087 792 28.1425
43.7256 726 26.9444
43.8425 780 27.9285
43.9595 721 26.8514
44.0765 690 26.2679
44.1935 708 26.6083
44.3106 708 26.6083
44.4277 809 28.4429
44.5448 760 27.5681
44.6619 768 27.7128
44.7791 760 27.5681
44.8963 735 27.1109
45.0136 783 27.9821
45.1308 700 26.4575
45.2481 808 28.4253
45.3654 767 27.6948
45.4827 745 27.2947
45.6001 734 27.0924
45.7174 763 27.6225
45.8348 690 26.2679
45.9522 676 26
46.0697 754 27.4591
46.1871 695 26.3629
46.3046 686 26.1916
46.422 714 26.7208
46.5395 620 24.8998
46.657 577 24.0208
46.7745 569 23.8537
46.892 585 24.1868
47.0096 579 24.0624
47.1271 617 24.8395
47.2446 636 25.219
47.3622 601 24.5153
47.4797 599 24.4745
47.5973 586 24.2074
47.7149 552 23.4947
47.8324 545 23.3452
47.95 579 24.0624
48.0675 586 24.2074
48.1851 606 24.6171
48.3027 608 24.6577
48.4202 629 25.0799
48.5378 613 24.7588
48.6554 576 24
48.7729 588 24.2487
48.8904 585 24.1868
49.008 557 23.6008
49.1255 579 24.0624
49.243 624 24.98
49.3605 569 23.8537
49.478 615 24.7992
49.5955 639 25.2784
49.713 608 24.6577
49.8304 618 24.8596
49.9479 653 25.5539
50.0653 587 24.2281
50.1827 548 23.4094
50.3001 490 22.1359
50.4175 510 22.5832
50.5348 550 23.4521
50.6521 556 23.5797
50.7694 596 24.4131
50.8867 674 25.9615
51.004 627 25.04
51.1212 623 24.96
51.2384 598 24.454
51.3556 687 26.2107
51.4727 687 26.2107
51.5899 724 26.9072
51.707 746 27.313
51.824 748 27.3496
51.9411 758 27.5318
52.0581 754 27.4591
52.175 742 27.2397
52.2919 816 28.5657
52.4088 773 27.8029
52.5257 784 28
52.6425 781 27.9464
52.7593 818 28.6007
52.876 782 27.9643
52.9927 806 28.3901
53.1094 806 28.3901
53.226 816 28.5657
53.3426 784 28
53.4591 766 27.6767
53.5756 822 28.6705
53.692 804 28.3549
53.8084 748 27.3496
53.9248 721 26.8514
54.0411 676 26
54.1573 639 25.2784
54.2735 0 1
54.3896 0 1
54.5057 0 1
54.6217 0 1
54.7377 0 1
54.8537 0 1
54.9695 0 1
55.0853 0 1
55.2011 0 1
55.3168 0 1
55.4324 0 1
57.824 0 1
57.9396 0 1
58.0553 0 1
58.1711 0 1
58.2869 0 1
58.4028 0 1
58.5187 0 1
58.6347 0 1
58.7508 0 1
58.8669 0 1
58.983 808 28.4253
59.0992 800 28.2843
59.2155 762 27.6043
59.3318 781 27.9464
59.4482 780 27.9285
59.5646 843 29.0345
59.681 787 28.0535
59.7975 783 27.9821
59.9141 841 29
60.0306 846 29.0861
60.1473 878 29.6311
60.2639 889 29.8161
60.3807 837 28.931
60.4974 860 29.3258
60.6142 840 28.9828
60.731 887 29.7825
60.8479 845 29.0689
60.9648 830 28.8097
61.0818 820 28.6356
61.1987 854 29.2233
61.3158 791 28.1247
61.4328 840 28.9828
61.5499 840 28.9828
61.667 814 28.5307
61.7841 800 28.2843
61.9013 824 28.7054
62.0185 798 28.2489
62.1357 829 28.7924
62.253 820 28.6356
62.3702 762 27.6043
62.4875 720 26.8328
62.6049 751 27.4044
62.7222 739 27.1846
62.8396 719 26.8142
62.9569 755 27.4773
63.0743 697 26.4008
63.1918 716 26.7582
63.3092 701 26.4764
63.4267 777 27.8747
63.5441 724 26.9072
63.6616 751 27.4044
63.7791 783 27.9821
63.8966 753 27.4408
64.0142 742 27.2397
64.1317 753 27.4408
64.2492 741 27.2213
64.3668 731 27.037
64.4843 713 26.7021
64.6019 790 28.1069
64.7195 709 26.6271
64.837 704 26.533
64.9546 744 27.2764
65.0722 721 26.8514
65.1898 731 27.037
65.3074 700 26.4575
65.4249 743 27.258
65.5425 670 25.8844
65.6601 686 26.1916
65.7777 705 26.5518
65.8952 645 25.3969
66.0128 660 25.6905
66.1304 637 25.2389
66.2479 582 24.1247
66.3655 646 25.4165
66.483 567 23.8118
66.6005 595 24.3926
66.718 616 24.8193
66.8355 652 25.5343
66.953 642 25.3377
67.0705 674 25.9615
67.1879 673 25.9422
67.3054 649 25.4755
67.4228 664 25.7682
67.5402 662 25.7294
67.6576 685 26.1725
67.7749 638 25.2587
67.8923 625 25
68.0096 670 25.8844
68.1269 641 25.318
68.2442 633 25.1595
68.3614 618 24.8596
68.4787 625 25
68.5958 665 25.7876
68.713 648 25.4558
68.8302 631 25.1197
68.9473 642 25.3377
69.0643 685 26.1725
69.1814 622 24.9399
69.2984 645 25.3969
69.4154 667 25.8263
69.5323 668 25.8457
69.6492 628 25.0599
69.7661 662 25.7294
69.8829 583 24.1454
69.9997 564 23.7487
70.1165 570 23.8747
70.2332 568 23.8328
70.3499 583 24.1454
70.4665 589 24.2693
70.5831 612 24.7386
70.6996 625 25
70.8161 608 24.6577
70.9326 607 24.6374
71.049 615 24.7992
71.1653 586 24.2074
71.2817 603 24.5561
71.3979 560 23.6643
71.5141 539 23.2164
71.6303 552 23.4947
71.7464 478 21.8632
71.8624 0 1
71.9784 0 1
72.0944 0 1
72.2102 0 1
72.3261 0 1
72.4418 0 1
72.5575 0 1
72.6732 0 1
75.1054 0 1
75.2209 0 1
75.3365 0 1
75.4521 0 1
75.5678 0 1
75.6835 0 1
75.7993 0 1
75.9151 0 1
76.031 0 1
76.147 436 20.8806
76.263 473 21.7486
76.3791 488 22.0907
76.4952 462 21.4942
76.6113 482 21.9545
76.7276 460 21.4476
76.8438 479 21.8861
76.9601 485 22.0227
77.0765 460 21.4476
77.1929 453 21.2838
77.3093 459 21.4243
77.4258 445 21.095
77.5423 454 21.3073
77.6589 421 20.5183
77.7755 465 21.5639
77.8921 416 20.3961
78.0088 451 21.2368
78.1256 392 19.799
78.2423 413 20.3224
78.3591 387 19.6723
78.4759 410 20.2485
78.5928 406 20.1494
78.7097 370 19.2354
78.8266 358 18.9209
78.9436 344 18.5472
79.0606 361 19
79.1776 287 16.9411
79.2946 299 17.2916
79.4117 322 17.9444
79.5288 340 18.4391
79.6459 357 18.8944
79.7631 336 18.3303
79.8802 317 17.8045
79.9974 305 17.4642
80.1147 312 17.6635
80.2319 312 17.6635
80.3491 314 17.72
80.4664 294 17.1464
80.5837 305 17.4642
80.701 303 17.4069
80.8183 304 17.4356
80.9357 239 15.4596
81.053 281 16.7631
81.1704 271 16.4621
81.2877 254 15.9374
81.4051 253 15.906
81.5225 270 16.4317
81.6399 225 15
81.7573 240 15.4919
81.8747 203 14.2478
81.9922 187 13.6748
82.1096 191 13.8203
82.227 196 14
82.3444 217 14.7309
82.4619 188 13.7113
82.5793 181 13.4536
82.6967 189 13.7477
82.8142 189 13.7477
82.9316 152 12.3288
83.049 156 12.49
83.1664 153 12.3693
83.2838 165 12.8452
83.4012 146 12.083
83.5186 129 11.3578
83.636 134 11.5758
83.7534 110 10.4881
83.8708 117 10.8167
83.9881 125 11.1803
84.1055 121 11
84.2228 104 10.198
84.3401 103 10.1489
84.4575 110 10.4881
84.5747 114 10.6771
84.692 118 10.8628
84.8093 141 11.8743
84.9265 86 9.27362
85.0437 103 10.1489
85.1609 103 10.1489
85.2781 114 10.6771
85.3952 80 8.94427
85.5123 85 9.21954
85.6294 93 9.64365
85.7465 91 9.53939
85.8636 89 9.43398
85.9806 86 9.27362
86.0976 71 8.42615
86.2145 75 8.66025
86.3315 92 9.59166
86.4484 124 11.1355
86.5652 112 10.583
86.682 105 10.247
86.7988 125 11.1803
86.9156 101 10.0499
87.0323 115 10.7238
87.149 114 10.6771
87.2657 117 10.8167
87.3823 117 10.8167
87.4988 130 11.4018
87.6154 140 11.8322
87.7318 126 11.225
87.8483 145 12.0416
87.9647 146 12.083
88.081 171 13.0767
88.1973 165 12.8452
88.3136 201 14.1774
88.4298 188 13.7113
88.546 192 13.8564
88.6621 214 14.6287
88.7781 195 13.9642
88.8942 0 1
89.0101 0 1
89.126 0 1
89.2419 0 1
89.3577 0 1
89.4734 0 1
89.5891 0 1
89.7047 0 1
89.8203 0 1
89.9358 0 1
92.3269 0 1
92.4424 0 1
92.558 0 1
92.6736 0 1
92.7893 0 1
92.905 0 1
93.0208 0 1
93.1366 0 1
93.2525 0 1
93.3685 0 1
93.4845 0 1
93.6005 353 18.7883
93.7167 304 17.4356
93.8328 312 17.6635
93.949 319 17.8606
94.0653 289 17
94.1816 287 16.9411
94.2979 323 17.9722
94.4143 278 16.6733
94.5307 253 15.906
94.6472 269 16.4012
94.7637 263 16.2173
94.8803 280 16.7332
94.9969 269 16.4012
95.1135 272 16.4924
95.2302 266 16.3095
95.3469 256 16
95.4637 213 14.5945
95.5805 215 14.6629
95.6973 253 15.906
95.8142 300 17.3205
95.9311 277 16.6433
96.048 310 17.6068
96.1649 299 17.2916
96.2819 306 17.4929
96.3989 336 18.3303
96.516 328 18.1108
96.633 340 18.4391
96.7501 323 17.9722
96.8673 350 18.7083
96.9844 347 18.6279
97.1016 355 18.8414
97.2188 377 19.4165
97.336 387 19.6723
97.4532 380 19.4936
97.5704 412 20.2978
97.6877 408 20.199
97.805 414 20.347
97.9223 468 21.6333
98.0396 421 20.5183
98.1569 428 20.6882
98.2743 415 20.3715
98.3916 453 21.2838
98.509 454 21.3073
98.6264 477 21.8403
98.7438 466 21.587
98.8612 436 20.8806
98.9786 432 20.7846
99.096 318 17.8326
99.2134 320 17.8885
99.3308 443 21.0476
99.4482 539 23.2164
99.5656 559 23.6432
99.6831 542 23.2809
99.8005 553 23.516
99.9179 546 23.3666
100.035 572 23.9165
100.153 582 24.1247
100.27 549 23.4307
100.388 581 24.1039
100.505 618 24.8596
100.622 571 23.8956
100.74 568 23.8328
100.857 606 24.6171
100.975 618 24.8596
101.092 607 24.6374
101.209 611 24.7184
101.327 649 25.4755
101.444 627 25.04
101.561 588 24.2487
101.679 602 24.5357
101.796 620 24.8998
101.913 636 25.219
102.03 631 25.1197
102.148 672 25.923
102.265 705 26.5518
102.382 641 25.318
102.499 643 25.3574
102.616 545 23.3452
102.733 421 20.5183
102.851 512 22.6274
102.968 641 25.318
103.085 654 25.5734
103.202 646 25.4165
103.319 648 25.4558
103.436 668 25.8457
103.552 720 26.8328
103.669 654 25.5734
103.786 725 26.9258
103.903 725 26.9258
104.02 660 25.6905
104.137 670 25.8844
104.253 750 27.3861
104.37 664 25.7682
104.487 697 26.4008
104.603 709 26.6271
104.72 722 26.8701
104.836 699 26.4386
104.953 697 26.4008
105.069 701 26.4764
105.186 686 26.1916
105.302 721 26.8514
105.418 665 25.7876
105.535 708 26.6083
105.651 701 26.4764
105.767 715 26.7395
105.883 672 25.923
105.999 652 25.5343
106.115 0 1
106.231 0 1
106.347 0 1
106.463 0 1
106.579 0 1
106.694 0 1
106.81 0 1
106.926 0 1
107.041 0 1
107.157 0 1
109.576 0 1
109.692 0 1
109.807 0 1
109.923 0 1
110.039 0 1
110.155 0 1
110.27 0 1
110.386 0 1
110.502 0 1
110.618 582 24.1247
110.735 538 23.1948
110.851 574 23.9583
110.967 508 22.5389
111.083 549 23.4307
111.199 428 20.6882
111.316 424 20.5913
111.432 464 21.5407
111.549 512 22.6274
111.665 573 23.9374
111.782 571 23.8956
111.898 500 22.3607
112.015 501 22.383
112.132 532 23.0651
112.248 501 22.383
112.365 497 22.2935
112.482 488 22.0907
112.599 463 21.5174
112.716 476 21.8174
112.832 458 21.4009
112.949 466 21.587
113.066 463 21.5174
113.183 484 22
113.3 438 20.9284
113.417 454 21.3073
113.534 449 21.1896
113.652 423 20.567
113.769 431 20.7605
113.886 446 21.1187
114.003 396 19.8997
114.12 425 20.6155
114.238 389 19.7231
114.355 369 19.2094
114.472 434 20.8327
114.589 364 19.0788
114.707 388 19.6977
114.824 326 18.0555
114.942 342 18.4932
115.059 376 19.3907
115.176 390 19.7484
115.294 428 20.6882
115.411 388 19.6977
115.529 415 20.3715
115.646 437 20.9045
115.764 396 19.8997
115.881 400 20
115.999 398 19.9499
116.116 406 20.1494
116.234 387 19.6723
116.351 393 19.8242
116.469 381 19.5192
116.586 379 19.4679
116.704 372 19.2873
116.821 400 20
116.939 392 19.799
117.056 403 20.0749
117.174 417 20.4206
117.291 409 20.2237
117.409 412 20.2978
117.526 403 20.0749
117.644 404 20.0998
117.761 372 19.2873
117.879 346 18.6011
117.996 340 18.4391
118.114 285 16.8819
118.231 322 17.9444
118.349 388 19.6977
118.466 386 19.6469
118.584 372 19.2873
118.701 429 20.7123
118.819 463 21.5174
118.936 399 19.975
119.053 415 20.3715
119.171 410 20.2485
119.288 436 20.8806
119.405 443 21.0476
119.523 427 20.664
119.64 408 20.199
119.757 473 21.7486
119.875 410 20.2485
119.992 404 20.0998
120.109 383 19.5704
120.226 388 19.6977
120.343 459 21.4243
120.46 408 20.199
120.578 414 20.347
120.695 402 20.0499
120.812 412 20.2978
120.929 423 20.567
121.046 396 19.8997
121.163 432 20.7846
121.279 427 20.664
121.396 413 20.3224
121.513 368 19.1833
121.63 363 19.0526
121.747 296 17.2047
121.863 301 17.3494
121.98 373 19.3132
122.097 399 19.975
122.213 440 20.9762
122.33 421 20.5183
122.446 418 20.445
122.563 409 20.2237
122.679 436 20.8806
122.795 455 21.3307
122.912 445 21.095
123.028 474 21.7715
123.144 472 21.7256
123.26 462 21.4942
123.377 0 1
123.493 0 1
123.609 0 1
123.725 0 1
123.84 0 1
123.956 0 1
124.072 0 1
124.188 0 1
124.303 0 1
124.419 0 1
126.852 0 1
126.968 0 1
127.083 0 1
127.199 0 1
127.315 0 1
127.431 0 1
127.547 0 1
127.663 0 1
127.779 0 1
127.895 0 1
128.011 0 1
128.127 0 1
128.243 0 1
128.359 561 23.6854
128.476 528 22.9783
128.592 583 24.1454
128.708 582 24.1247
128.825 537 23.1733
128.941 585 24.1868
129.058 583 24.1454
129.174 547 23.388
129.291 557 23.6008
129.408 607 24.6374
129.524 623 24.96
129.641 643 25.3574
129.758 609 24.6779
129.875 567 23.8118
129.992 586 24.2074
130.108 563 23.7276
130.225 537 23.1733
130.342 551 23.4734
130.459 499 22.3383
130.576 470 21.6795
130.693 421 20.5183
130.81 361 19
130.928 439 20.9523
131.045 473 21.7486
131.162 579 24.0624
131.279 601 24.5153
131.396 582 24.1247
131.513 627 25.04
131.631 562 23.7065
131.748 613 24.7588
131.865 615 24.7992
131.983 614 24.779
132.1 644 25.3772
132.217 589 24.2693
132.335 607 24.6374
132.452 569 23.8537
132.57 609 24.6779
132.687 572 23.9165
132.804 633 25.1595
132.922 617 24.8395
133.039 617 24.8395
133.157 585 24.1868
133.274 635 25.1992
133.392 627 25.04
133.509 617 24.8395
133.627 594 24.3721
133.744 584 24.1661
133.862 609 24.6779
133.979 569 23.8537
134.097 460 21.4476
134.214 489 22.1133
134.332 431 20.7605
134.449 461 21.4709
134.567 483 21.9773
134.684 523 22.8692
134.802 621 24.9199
134.919 625 25
135.037 633 25.1595
135.154 679 26.0576
135.272 667 25.8263
135.389 656 25.6125
135.507 700 26.4575
135.624 671 25.9037
135.742 678 26.0384
135.859 639 25.2784
135.977 599 24.4745
136.094 670 25.8844
136.211 704 26.533
136.329 674 25.9615
136.446 646 25.4165
136.564 707 26.5895
136.681 686 26.1916
136.798 676 26
136.915 691 26.2869
137.033 695 26.3629
137.15 669 25.865
137.267 743 27.258
137.384 597 24.4336
137.502 619 24.8797
137.619 596 24.4131
137.736 554 23.5372
137.853 529 23
137.97 520 22.8035
138.087 579 24.0624
138.204 506 22.4944
138.321 616 24.8193
138.438 679 26.0576
138.555 659 25.671
138.672 744 27.2764
138.788 739 27.1846
138.905 762 27.6043
139.022 748 27.3496
139.139 765 27.6586
139.255 734 27.0924
139.372 707 26.5895
139.488 756 27.4955
139.605 813 28.5132
139.721 676 26
139.838 717 26.7769
139.954 719 26.8142
140.071 720 26.8328
140.187 758 27.5318
140.303 770 27.7489
140.419 712 26.6833
140.535 734 27.0924
140.652 699 26.4386
140.768 0 1
140.884 0 1
141 0 1
141.115 0 1
141.231 0 1
141.347 0 1
141.463 0 1
141.578 0 1
141.694 0 1
144.104 0 1
144.219 0 1
144.335 0 1
144.45 0 1
144.566 0 1
144.682 0 1
144.798 0 1
144.914 0 1
145.03 0 1
145.146 746 27.313
145.262 707 26.5895
145.378 722 26.8701
145.494 696 26.3818
145.61 713 26.7021
145.726 710 26.6458
145.842 703 26.5141
145.959 614 24.779
146.075 661 25.7099
146.192 620 24.8998
146.308 606 24.6171
146.425 570 23.8747
146.541 624 24.98
146.658 562 23.7065
146.774 604 24.5764
146.891 622 24.9399
147.008 632 25.1396
147.125 638 25.2587
147.241 662 25.7294
147.358 745 27.2947
147.475 742 27.2397
147.592 755 27.4773
147.709 713 26.7021
147.826 688 26.2298
147.943 703 26.5141
148.06 708 26.6083
148.177 777 27.8747
148.294 705 26.5518
148.411 741 27.2213
148.528 762 27.6043
148.645 740 27.2029
148.762 734 27.0924
148.88 645 25.3969
148.997 701 26.4764
149.114 704 26.533
149.231 698 26.4197
149.349 667 25.8263
149.466 676 26
149.583 702 26.4953
149.701 604 24.5764
149.818 631 25.1197
149.935 599 24.4745
150.053 592 24.3311
150.17 600 24.4949
150.287 587 24.2281
150.405 627 25.04
150.522 584 24.1661
150.64 684 26.1534
150.757 631 25.1197
150.875 665 25.7876
150.992 738 27.1662
151.11 739 27.1846
151.227 705 26.5518
151.344 727 26.9629
151.462 723 26.8887
151.579 778 27.8927
151.697 763 27.6225
151.814 702 26.4953
151.932 723 26.8887
152.049 769 27.7308
152.167 735 27.1109
152.284 756 27.4955
152.402 765 27.6586
152.519 727 26.9629
152.636 716 26.7582
152.754 726 26.9444
152.871 688 26.2298
152.989 783 27.9821
153.106 722 26.8701
153.223 697 26.4008
153.341 672 25.923
153.458 647 25.4362
153.575 648 25.4558
153.693 594 24.3721
153.81 648 25.4558
153.927 616 24.8193
154.044 642 25.3377
154.162 669 25.865
154.279 755 27.4773
154.396 728 26.9815
154.513 720 26.8328
154.63 750 27.3861
154.747 790 28.1069
154.864 778 27.8927
154.981 784 28
155.098 781 27.9464
155.215 824 28.7054
155.332 791 28.1247
155.449 755 27.4773
155.566 788 28.0713
155.683 775 27.8388
155.8 735 27.1109
155.917 783 27.9821
156.033 815 28.5482
156.15 0 1
156.267 0 1
156.383 0 1
156.5 0 1
156.617 0 1
156.733 0 1
156.85 0 1
156.966 0 1
157.082 0 1
157.199 0 1
157.315 0 1
157.431 0 1
157.547 0 1
157.664 0 1
157.78 0 1
157.896 0 1
158.012 0 1
158.128 0 1
158.244 0 1
158.359 0 1
158.475 0 1
158.591 0 1
158.706 0 1
