
6.15755 0 1
6.2731 0 1
6.3887 0 1
6.50437 0 1
6.62009 0 1
6.73587 0 1
6.8517 0 1
6.96759 0 1
7.08353 0 1
7.19952 0 1
7.31557 0 1
7.43166 0 1
7.54781 0 1
7.664 0 1
7.78024 0 1
7.89653 0 1
8.01286 0 1
8.12924 0 1
8.24567 0 1
8.36213 0 1
8.47864 0 1
8.59519 0 1
8.71178 0 1
8.82841 0 1
8.94508 0 1
9.06179 0 1
9.17853 0 1
9.29531 0 1
9.41212 0 1
9.52897 0 1
9.64584 0 1
9.76276 0 1
9.8797 0 1
9.99667 0 1
10.1137 0 1
10.2307 0 1
10.3478 0 1
10.4648 0 1
10.5819 0 1
10.6991 0 1
10.8162 0 1
10.9334 0 1
11.0506 0 1
11.1678 0 1
11.285 0 1
11.4023 0 1
11.5196 0 1
11.6369 0 1
11.7542 0 1
11.8715 0 1
11.9888 0 1
12.1062 0 1
12.2235 0 1
12.3409 0 1
12.4582 0 1
12.5756 0 1
12.693 0 1
12.8104 0 1
12.9278 0 1
13.0452 0 1
13.1626 0 1
13.28 0 1
13.3974 0 1
13.5149 0 1
13.6323 0 1
13.7497 0 1
13.8671 0 1
13.9845 0 1
14.1019 0 1
14.2193 0 1
14.3367 0 1
14.4541 0 1
14.5714 0 1
14.6888 0 1
14.8062 0 1
14.9235 0 1
15.0408 0 0
15.1581 0 0
15.2755 0 0
15.3927 0 0
15.51 0 0
15.6273 0 0
15.7445 0 0
15.8617 0 0
15.9789 0 0
16.0961 0 0
16.2132 0 0
16.3304 0 0
16.4475 0 0
16.5646 0 0
16.6816 0 0
16.7986 0 0
16.9156 0 0
17.0326 0 0
17.1496 0 0
17.2665 0 0
17.3833 0 0
17.5002 0 0
17.617 0 0
17.7338 0 0
17.8505 0 0
17.9672 0 0
18.0839 0 0
18.2005 0 0
18.3171 0 0
18.4337 0 0
18.5502 0 0
18.6666 0 0
18.7831 0 0
18.8994 0 0
19.0158 0 0
19.1321 0 0
19.2483 0 0
19.3645 0 0
19.4806 0 0
19.5967 0 0
19.7128 0 0
19.8288 0 0
19.9447 0 0
20.0606 0 1
20.1764 0 1
20.2922 0 1
20.4079 0 1
20.5236 0 1
20.6392 0 1
20.7548 0 1
20.8702 0 1
23.3078 0 1
23.4233 0 1
23.539 0 1
23.6547 0 1
23.7704 0 1
23.8862 0 1
24.0021 0 1
24.118 0 1
24.234 0 1
24.35 0 1
24.4661 1392 37.3095
24.5822 1428 37.7889
24.6984 1397 37.3765
24.8146 1376 37.0945
24.9309 1461 38.223
25.0472 1516 38.9358
25.1636 1390 37.2827
25.28 1404 37.47
25.3965 1415 37.6165
25.513 1394 37.3363
25.6296 1507 38.8201
25.7462 1478 38.4448
25.8628 1524 39.0384
25.9795 1411 37.5633
26.0962 1473 38.3797
26.213 1437 37.9078
26.3298 1481 38.4838
26.4466 1371 37.027
26.5635 1352 36.7696
26.6804 1227 35.0286
26.7973 1196 34.5832
26.9143 1300 36.0555
27.0313 1427 37.7757
27.1483 1367 36.973
27.2653 1441 37.9605
27.3824 1445 38.0132
27.4996 1415 37.6165
27.6167 1455 38.1445
27.7339 1460 38.2099
27.8511 1417 37.6431
27.9683 1453 38.1182
28.0855 1432 37.8418
28.2028 1437 37.9078
28.3201 1366 36.9594
28.4374 1410 37.55
28.5547 1358 36.8511
28.6721 1362 36.9053
28.7894 1280 35.7771
28.9068 1308 36.1663
29.0242 1297 36.0139
29.1416 1383 37.1887
29.259 1311 36.2077
29.3764 1364 36.9324
29.4939 1330 36.4692
29.6113 1337 36.565
29.7288 1382 37.1753
29.8463 1331 36.4829
29.9638 1373 37.054
30.0812 1268 35.609
30.1987 1156 34
30.3162 1157 34.0147
30.4337 1166 34.1467
30.5512 1225 35
30.6687 1337 36.565
30.7862 1356 36.8239
30.9037 1306 36.1386
31.0212 1409 37.5366
31.1387 1379 37.1349
31.2562 1405 37.4833
31.3737 1358 36.8511
31.4912 1359 36.8646
31.6087 1391 37.2961
31.7262 1342 36.6333
31.8436 1307 36.1525
31.9611 1408 37.5233
32.0785 1302 36.0832
32.1959 1283 35.819
32.3134 1211 34.7994
32.4308 1305 36.1248
32.5482 1257 35.4542
32.6655 1335 36.5377
32.7829 1290 35.9166
32.9002 1274 35.6931
33.0176 1321 36.3456
33.1349 1341 36.6197
33.2522 1376 37.0945
33.3694 1341 36.6197
33.4867 1332 36.4966
33.6039 1309 36.1801
33.7211 1178 34.322
33.8383 1111 33.3317
33.9554 1129 33.6006
34.0725 1246 35.2987
34.1896 1114 33.3766
34.3067 1222 34.9571
34.4237 1249 35.3412
34.5407 1353 36.7831
34.6577 1331 36.4829
34.7746 1343 36.647
34.8915 1304 36.1109
35.0084 1399 37.4032
35.1252 1330 36.4692
35.242 1386 37.229
35.3587 1340 36.606
35.4755 1358 36.8511
35.5921 1296 36
35.7088 1329 36.4555
35.8254 1288 35.8887
35.9419 1275 35.7071
36.0584 1193 34.5398
36.1749 1148 33.8821
36.2913 1176 34.2929
36.4077 1284 35.8329
36.524 1235 35.1426
36.6403 1238 35.1852
36.7565 1213 34.8281
36.8727 1263 35.5387
36.9889 1228 35.0428
37.1049 1235 35.1426
37.221 0 1
37.3369 0 1
37.4529 0 1
37.5687 0 1
37.6845 0 1
37.8003 0 1
37.916 0 1
38.0316 0 1
38.1472 0 1
40.5851 0 1
40.7008 0 1
40.8164 0 1
40.9322 0 1
41.048 0 1
41.1639 0 1
41.2798 0 1
41.3958 0 1
41.5118 0 1
41.6279 0 1
41.744 881 29.6816
41.8602 943 30.7083
41.9765 952 30.8545
42.0928 1068 32.6803
42.2091 971 31.1609
42.3255 1013 31.8277
42.4419 994 31.5278
42.5584 928 30.4631
42.675 842 29.0172
42.7915 811 28.4781
42.9081 804 28.3549
43.0248 841 29
43.1415 900 30
43.2582 888 29.7993
43.375 1014 31.8434
43.4918 995 31.5436
43.6087 948 30.7896
43.7256 928 30.4631
43.8425 985 31.3847
43.9595 941 30.6757
44.0765 967 31.0966
44.1935 952 30.8545
44.3106 847 29.1033
44.4277 845 29.0689
44.5448 827 28.7576
44.6619 790 28.1069
44.7791 752 27.4226
44.8963 754 27.4591
45.0136 665 25.7876
45.1308 725 26.9258
45.2481 732 27.0555
45.3654 734 27.0924
45.4827 769 27.7308
45.6001 733 27.074
45.7174 709 26.6271
45.8348 696 26.3818
45.9522 681 26.096
46.0697 661 25.7099
46.1871 589 24.2693
46.3046 542 23.2809
46.422 523 22.8692
46.5395 650 25.4951
46.657 623 24.96
46.7745 667 25.8263
46.892 650 25.4951
47.0096 682 26.1151
47.1271 685 26.1725
47.2446 680 26.0768
47.3622 694 26.3439
47.4797 676 26
47.5973 652 25.5343
47.7149 603 24.5561
47.8324 633 25.1595
47.95 604 24.5764
48.0675 562 23.7065
48.1851 516 22.7156
48.3027 540 23.2379
48.4202 532 23.0651
48.5378 524 22.891
48.6554 554 23.5372
48.7729 518 22.7596
48.8904 555 23.5584
49.008 515 22.6936
49.1255 570 23.8747
49.243 535 23.1301
49.3605 522 22.8473
49.478 509 22.561
49.5955 442 21.0238
49.713 449 21.1896
49.8304 411 20.2731
49.9479 415 20.3715
50.0653 498 22.3159
50.1827 505 22.4722
50.3001 622 24.9399
50.4175 636 25.219
50.5348 659 25.671
50.6521 636 25.219
50.7694 675 25.9808
50.8867 690 26.2679
51.004 697 26.4008
51.1212 695 26.3629
51.2384 744 27.2764
51.3556 757 27.5136
51.4727 778 27.8927
51.5899 687 26.2107
51.707 738 27.1662
51.824 728 26.9815
51.9411 709 26.6271
52.0581 738 27.1662
52.175 844 29.0517
52.2919 804 28.3549
52.4088 840 28.9828
52.5257 793 28.1603
52.6425 875 29.5804
52.7593 873 29.5466
52.876 941 30.6757
52.9927 895 29.9166
53.1094 885 29.7489
53.226 806 28.3901
53.3426 682 26.1151
53.4591 667 25.8263
53.5756 748 27.3496
53.692 839 28.9655
53.8084 929 30.4795
53.9248 946 30.7571
54.0411 1066 32.6497
54.1573 1092 33.0454
54.2735 0 1
54.3896 0 1
54.5057 0 1
54.6217 0 1
54.7377 0 1
54.8537 0 1
54.9695 0 1
55.0853 0 1
55.2011 0 1
55.3168 0 1
55.4324 0 1
57.824 0 1
57.9396 0 1
58.0553 0 1
58.1711 0 1
58.2869 0 1
58.4028 0 1
58.5187 0 1
58.6347 0 1
58.7508 0 1
58.8669 0 1
58.983 1151 33.9264
59.0992 1200 34.641
59.2155 1301 36.0694
59.3318 1225 35
59.4482 1345 36.6742
59.5646 1310 36.1939
59.681 1339 36.5923
59.7975 1310 36.1939
59.9141 1226 35.0143
60.0306 1171 34.2199
60.1473 1146 33.8526
60.2639 1144 33.8231
60.3807 1110 33.3167
60.4974 1079 32.8481
60.6142 1028 32.0624
60.731 1058 32.5269
60.8479 1087 32.9697
60.9648 1018 31.9061
61.0818 1074 32.7719
61.1987 1060 32.5576
61.3158 1054 32.4654
61.4328 1101 33.1813
61.5499 1019 31.9218
61.667 898 29.9666
61.7841 879 29.6479
61.9013 765 27.6586
62.0185 786 28.0357
62.1357 807 28.4077
62.253 983 31.3528
62.3702 1084 32.9242
62.4875 1097 33.121
62.6049 1188 34.4674
62.7222 1224 34.9857
62.8396 1240 35.2136
62.9569 1194 34.5543
63.0743 1238 35.1852
63.1918 1308 36.1663
63.3092 1185 34.4238
63.4267 1155 33.9853
63.5441 1167 34.1614
63.6616 1206 34.7275
63.7791 1099 33.1512
63.8966 1067 32.665
64.0142 1044 32.311
64.1317 1032 32.1248
64.2492 990 31.4643
64.3668 1072 32.7414
64.4843 1100 33.1662
64.6019 1098 33.1361
64.7195 1075 32.7872
64.837 1185 34.4238
64.9546 1091 33.0303
65.0722 1060 32.5576
65.1898 986 31.4006
65.3074 989 31.4484
65.4249 796 28.2135
65.5425 835 28.8964
65.6601 793 28.1603
65.7777 942 30.692
65.8952 1038 32.218
66.0128 1119 33.4515
66.1304 1145 33.8378
66.2479 1220 34.9285
66.3655 1273 35.6791
66.483 1309 36.1801
66.6005 1297 36.0139
66.718 1282 35.805
66.8355 1280 35.7771
66.953 1290 35.9166
67.0705 1195 34.5688
67.1879 1122 33.4963
67.3054 1219 34.9142
67.4228 1163 34.1028
67.5402 1046 32.3419
67.6576 1009 31.7648
67.7749 1002 31.6544
67.8923 1058 32.5269
68.0096 1044 32.311
68.1269 1038 32.218
68.2442 1093 33.0606
68.3614 1061 32.573
68.4787 1036 32.187
68.5958 1041 32.2645
68.713 1146 33.8526
68.8302 985 31.3847
68.9473 896 29.9333
69.0643 726 26.9444
69.1814 642 25.3377
69.2984 738 27.1662
69.4154 858 29.2916
69.5323 951 30.8383
69.6492 1059 32.5423
69.7661 1180 34.3511
69.8829 1206 34.7275
69.9997 1217 34.8855
70.1165 1228 35.0428
70.2332 1153 33.9559
70.3499 1208 34.7563
70.4665 1173 34.2491
70.5831 1233 35.1141
70.6996 1122 33.4963
70.8161 1117 33.4215
70.9326 1008 31.749
71.049 985 31.3847
71.1653 994 31.5278
71.2817 1004 31.686
71.3979 912 30.1993
71.5141 913 30.2159
71.6303 963 31.0322
71.7464 884 29.7321
71.8624 0 1
71.9784 0 1
72.0944 0 1
72.2102 0 1
72.3261 0 1
72.4418 0 1
72.5575 0 1
72.6732 0 1
75.1054 0 1
75.2209 0 1
75.3365 0 1
75.4521 0 1
75.5678 0 1
75.6835 0 1
75.7993 0 1
75.9151 0 1
76.031 0 1
76.147 1016 31.8748
76.263 1054 32.4654
76.3791 1057 32.5115
76.4952 1012 31.8119
76.6113 965 31.0644
76.7276 960 30.9839
76.8438 924 30.3974
76.9601 1068 32.6803
77.0765 975 31.225
77.1929 1016 31.8748
77.3093 1018 31.9061
77.4258 1072 32.7414
77.5423 1100 33.1662
77.6589 1085 32.9393
77.7755 1024 32
77.8921 813 28.5132
78.0088 747 27.3313
78.1256 671 25.9037
78.2423 678 26.0384
78.3591 769 27.7308
78.4759 861 29.3428
78.5928 996 31.5595
78.7097 1033 32.1403
78.8266 1057 32.5115
78.9436 1178 34.322
79.0606 1178 34.322
79.1776 1056 32.4962
79.2946 1128 33.5857
79.4117 1132 33.6452
79.5288 1069 32.6956
79.6459 1056 32.4962
79.7631 1016 31.8748
79.8802 986 31.4006
79.9974 1020 31.9374
80.1147 906 30.0998
80.2319 876 29.5973
80.3491 850 29.1548
80.4664 845 29.0689
80.5837 864 29.3939
80.701 848 29.1204
80.8183 835 28.8964
80.9357 917 30.282
81.053 914 30.2324
81.1704 897 29.95
81.2877 904 30.0666
81.4051 851 29.1719
81.5225 779 27.9106
81.6399 667 25.8263
81.7573 674 25.9615
81.8747 535 23.1301
81.9922 640 25.2982
82.1096 763 27.6225
82.227 856 29.2575
82.3444 910 30.1662
82.4619 978 31.273
82.5793 982 31.3369
82.6967 975 31.225
82.8142 941 30.6757
82.9316 998 31.5911
83.049 895 29.9166
83.1664 978 31.273
83.2838 920 30.3315
83.4012 866 29.4279
83.5186 819 28.6182
83.636 833 28.8617
83.7534 760 27.5681
83.8708 736 27.1293
83.9881 733 27.074
84.1055 726 26.9444
84.2228 758 27.5318
84.3401 725 26.9258
84.4575 813 28.5132
84.5747 900 30
84.692 872 29.5296
84.8093 831 28.8271
84.9265 827 28.7576
85.0437 696 26.3818
85.1609 633 25.1595
85.2781 555 23.5584
85.3952 589 24.2693
85.5123 553 23.516
85.6294 699 26.4386
85.7465 832 28.8444
85.8636 860 29.3258
85.9806 962 31.0161
86.0976 1018 31.9061
86.2145 1022 31.9687
86.3315 1067 32.665
86.4484 1079 32.8481
86.5652 1132 33.6452
86.682 1112 33.3467
86.7988 1042 32.28
86.9156 1049 32.3883
87.0323 967 31.0966
87.149 950 30.8221
87.2657 933 30.545
87.3823 913 30.2159
87.4988 893 29.8831
87.6154 891 29.8496
87.7318 901 30.0167
87.8483 955 30.9031
87.9647 999 31.607
88.081 1062 32.5883
88.1973 1077 32.8177
88.3136 1100 33.1662
88.4298 1003 31.6702
88.546 1000 31.6228
88.6621 843 29.0345
88.7781 786 28.0357
88.8942 0 1
89.0101 0 1
89.126 0 1
89.2419 0 1
89.3577 0 1
89.4734 0 1
89.5891 0 1
89.7047 0 1
89.8203 0 1
89.9358 0 1
92.3269 0 1
92.4424 0 1
92.558 0 1
92.6736 0 1
92.7893 0 1
92.905 0 1
93.0208 0 1
93.1366 0 1
93.2525 0 1
93.3685 0 1
93.4845 0 1
93.6005 1027 32.0468
93.7167 1025 32.0156
93.8328 1061 32.573
93.949 1076 32.8024
94.0653 914 30.2324
94.1816 826 28.7402
94.2979 809 28.4429
94.4143 762 27.6043
94.5307 686 26.1916
94.6472 743 27.258
94.7637 837 28.931
94.8803 998 31.5911
94.9969 1059 32.5423
95.1135 1083 32.909
95.2302 1157 34.0147
95.3469 1180 34.3511
95.4637 1141 33.7787
95.5805 1145 33.8378
95.6973 1216 34.8712
95.8142 1263 35.5387
95.9311 1211 34.7994
96.048 1140 33.7639
96.1649 1129 33.6006
96.2819 1059 32.5423
96.3989 1071 32.7261
96.516 979 31.289
96.633 946 30.7571
96.7501 962 31.0161
96.8673 998 31.5911
96.9844 948 30.7896
97.1016 977 31.257
97.2188 1032 32.1248
97.336 1125 33.541
97.4532 1099 33.1512
97.5704 1089 33
97.6877 1034 32.1559
97.805 890 29.8329
97.9223 806 28.3901
98.0396 683 26.1343
98.1569 728 26.9815
98.2743 693 26.3249
98.3916 868 29.4618
98.509 918 30.2985
98.6264 1062 32.5883
98.7438 1094 33.0757
98.8612 1147 33.8674
98.9786 1271 35.6511
99.096 1195 34.5688
99.2134 1276 35.7211
99.3308 1293 35.9583
99.4482 1264 35.5528
99.5656 1245 35.2846
99.6831 1174 34.2637
99.8005 1130 33.6155
99.9179 1108 33.2866
100.035 1008 31.749
100.153 972 31.1769
100.27 984 31.3688
100.388 1008 31.749
100.505 1003 31.6702
100.622 1086 32.9545
100.74 1122 33.4963
100.857 1115 33.3916
100.975 1132 33.6452
101.092 1112 33.3467
101.209 1056 32.4962
101.327 1039 32.2335
101.444 873 29.5466
101.561 811 28.4781
101.679 752 27.4226
101.796 743 27.258
101.913 814 28.5307
102.03 967 31.0966
102.148 1096 33.1059
102.265 1155 33.9853
102.382 1262 35.5246
102.499 1299 36.0416
102.616 1324 36.3868
102.733 1320 36.3318
102.851 1363 36.9188
102.968 1303 36.0971
103.085 1305 36.1248
103.202 1269 35.623
103.319 1193 34.5398
103.436 1164 34.1174
103.552 1102 33.1964
103.669 1021 31.9531
103.786 1047 32.3574
103.903 1015 31.8591
104.02 1082 32.8938
104.137 1110 33.3167
104.253 1142 33.7935
104.37 1207 34.7419
104.487 1195 34.5688
104.603 1268 35.609
104.72 1165 34.1321
104.836 1081 32.8786
104.953 961 31
105.069 881 29.6816
105.186 848 29.1204
105.302 853 29.2062
105.418 926 30.4302
105.535 1138 33.7343
105.651 1249 35.3412
105.767 1328 36.4417
105.883 1463 38.2492
105.999 1452 38.1051
106.115 0 1
106.231 0 1
106.347 0 1
106.463 0 1
106.579 0 1
106.694 0 1
106.81 0 1
106.926 0 1
107.041 0 1
107.157 0 1
109.576 0 1
109.692 0 1
109.807 0 1
109.923 0 1
110.039 0 1
110.155 0 1
110.27 0 1
110.386 0 1
110.502 0 1
110.618 1062 32.5883
110.735 1202 34.6699
110.851 1208 34.7563
110.967 1311 36.2077
111.083 1343 36.647
111.199 1390 37.2827
111.316 1442 37.9737
111.432 1337 36.565
111.549 1448 38.0526
111.665 1343 36.647
111.782 1306 36.1386
111.898 1262 35.5246
112.015 1172 34.2345
112.132 1138 33.7343
112.248 1029 32.078
112.365 1041 32.2645
112.482 1033 32.1403
112.599 1134 33.6749
112.716 1095 33.0908
112.832 1149 33.8969
112.949 1204 34.6987
113.066 1183 34.3948
113.183 1125 33.541
113.3 1121 33.4813
113.417 1017 31.8904
113.534 952 30.8545
113.652 914 30.2324
113.769 815 28.5482
113.886 840 28.9828
114.003 908 30.133
114.12 1026 32.0312
114.238 1119 33.4515
114.355 1245 35.2846
114.472 1254 35.4119
114.589 1274 35.6931
114.707 1307 36.1525
114.824 1341 36.6197
114.942 1314 36.2491
115.059 1352 36.7696
115.176 1290 35.9166
115.294 1267 35.5949
115.411 1257 35.4542
115.529 1207 34.7419
115.646 1190 34.4964
115.764 1046 32.3419
115.881 1088 32.9848
115.999 1064 32.619
116.116 1156 34
116.234 1097 33.121
116.351 1195 34.5688
116.469 1129 33.6006
116.586 1163 34.1028
116.704 1162 34.0881
116.821 1146 33.8526
116.939 1135 33.6898
117.056 1019 31.9218
117.174 959 30.9677
117.291 916 30.2655
117.409 935 30.5778
117.526 888 29.7993
117.644 1078 32.8329
117.761 1105 33.2415
117.879 1267 35.5949
117.996 1315 36.2629
118.114 1332 36.4966
118.231 1360 36.8782
118.349 1425 37.7492
118.466 1499 38.7169
118.584 1443 37.9868
118.701 1433 37.855
118.819 1357 36.8375
118.936 1374 37.0675
119.053 1280 35.7771
119.171 1241 35.2278
119.288 1199 34.6266
119.405 1136 33.7046
119.523 1104 33.2265
119.64 1083 32.909
119.757 1126 33.5559
119.875 1205 34.7131
119.992 1264 35.5528
120.109 1251 35.3695
120.226 1236 35.1568
120.343 1201 34.6554
120.46 1196 34.5832
120.578 1110 33.3167
120.695 1056 32.4962
120.812 1058 32.5269
120.929 949 30.8058
121.046 1005 31.7017
121.163 986 31.4006
121.279 936 30.5941
121.396 1140 33.7639
121.513 1170 34.2053
121.63 1357 36.8375
121.747 1259 35.4824
121.863 1304 36.1109
121.98 1339 36.5923
122.097 1409 37.5366
122.213 1359 36.8646
122.33 1371 37.027
122.446 1394 37.3363
122.563 1322 36.3593
122.679 1291 35.9305
122.795 1284 35.8329
122.912 1227 35.0286
123.028 1173 34.2491
123.144 1117 33.4215
123.26 1061 32.573
123.377 0 1
123.493 0 1
123.609 0 1
123.725 0 1
123.84 0 1
123.956 0 1
124.072 0 1
124.188 0 1
124.303 0 1
124.419 0 1
126.852 0 1
126.968 0 1
127.083 0 1
127.199 0 1
127.315 0 1
127.431 0 1
127.547 0 1
127.663 0 1
127.779 0 1
127.895 0 1
128.011 0 1
128.127 0 1
128.243 0 1
128.359 1246 35.2987
128.476 1151 33.9264
128.592 1164 34.1174
128.708 1181 34.3657
128.825 1302 36.0832
128.941 1251 35.3695
129.058 1356 36.8239
129.174 1331 36.4829
129.291 1298 36.0278
129.408 1292 35.9444
129.524 1212 34.8138
129.641 1272 35.6651
129.758 1182 34.3802
129.875 1123 33.5112
129.992 1019 31.9218
130.108 1005 31.7017
130.225 1121 33.4813
130.342 1226 35.0143
130.459 1234 35.1283
130.576 1352 36.7696
130.693 1367 36.973
130.81 1388 37.2559
130.928 1409 37.5366
131.045 1416 37.6298
131.162 1414 37.6032
131.279 1445 38.0132
131.396 1418 37.6563
131.513 1394 37.3363
131.631 1357 36.8375
131.748 1276 35.7211
131.865 1201 34.6554
131.983 1189 34.4819
132.1 1147 33.8674
132.217 1250 35.3553
132.335 1293 35.9583
132.452 1296 36
132.57 1359 36.8646
132.687 1325 36.4005
132.804 1274 35.6931
132.922 1295 35.9861
133.039 1291 35.9305
133.157 1231 35.0856
133.274 1226 35.0143
133.392 1194 34.5543
133.509 1094 33.0757
133.627 1057 32.5115
133.744 1095 33.0908
133.862 1172 34.2345
133.979 1176 34.2929
134.097 1284 35.8329
134.214 1300 36.0555
134.332 1369 37
134.449 1410 37.55
134.567 1308 36.1663
134.684 1437 37.9078
134.802 1440 37.9473
134.919 1401 37.4299
135.037 1454 38.1314
135.154 1389 37.2693
135.272 1399 37.4032
135.389 1330 36.4692
135.507 1137 33.7194
135.624 1251 35.3695
135.742 1274 35.6931
135.859 1249 35.3412
135.977 1342 36.6333
136.094 1346 36.6879
136.211 1356 36.8239
136.329 1295 35.9861
136.446 1362 36.9053
136.564 1356 36.8239
136.681 1332 36.4966
136.798 1293 35.9583
136.915 1216 34.8712
137.033 1207 34.7419
137.15 1156 34
137.267 1088 32.9848
137.384 1052 32.4345
137.502 1107 33.2716
137.619 1158 34.0294
137.736 1263 35.5387
137.853 1286 35.8608
137.97 1379 37.1349
138.087 1374 37.0675
138.204 1385 37.2156
138.321 1387 37.2424
138.438 1343 36.647
138.555 1423 37.7227
138.672 1422 37.7094
138.788 1383 37.1887
138.905 1361 36.8917
139.022 1276 35.7211
139.139 1245 35.2846
139.255 1157 34.0147
139.372 1230 35.0714
139.488 1305 36.1248
139.605 1347 36.7015
139.721 1372 37.0405
139.838 1326 36.4143
139.954 1271 35.6511
140.071 1267 35.5949
140.187 1309 36.1801
140.303 1263 35.5387
140.419 1310 36.1939
140.535 1272 35.6651
140.652 1188 34.4674
140.768 0 1
140.884 0 1
141 0 1
141.115 0 1
141.231 0 1
141.347 0 1
141.463 0 1
141.578 0 1
141.694 0 1
144.104 0 1
144.219 0 1
144.335 0 1
144.45 0 1
144.566 0 1
144.682 0 1
144.798 0 1
144.914 0 1
145.03 0 1
145.146 878 29.6311
145.262 958 30.9516
145.378 954 30.8869
145.494 938 30.6268
145.61 985 31.3847
145.726 989 31.4484
145.842 968 31.1127
145.959 893 29.8831
146.075 884 29.7321
146.192 902 30.0333
146.308 890 29.8329
146.425 903 30.05
146.541 985 31.3847
146.658 934 30.5614
146.774 998 31.5911
146.891 1020 31.9374
147.008 1094 33.0757
147.125 1082 32.8938
147.241 1103 33.2114
147.358 1087 32.9697
147.475 1079 32.8481
147.592 1053 32.45
147.709 1080 32.8634
147.826 1119 33.4515
147.943 974 31.209
148.06 946 30.7571
148.177 954 30.8869
148.294 952 30.8545
148.411 938 30.6268
148.528 1095 33.0908
148.645 1021 31.9531
148.762 1037 32.2025
148.88 1102 33.1964
148.997 1054 32.4654
149.114 1075 32.7872
149.231 1055 32.4808
149.349 1045 32.3265
149.466 1035 32.1714
149.583 1015 31.8591
149.701 1023 31.9844
149.818 1007 31.7333
149.935 902 30.0333
150.053 897 29.95
150.17 918 30.2985
150.287 903 30.05
150.405 954 30.8869
150.522 993 31.5119
150.64 1035 32.1714
150.757 1076 32.8024
150.875 1044 32.311
150.992 1091 33.0303
151.11 1135 33.6898
151.227 1139 33.7491
151.344 1127 33.5708
151.462 1050 32.4037
151.579 1126 33.5559
151.697 1108 33.2866
151.814 1019 31.9218
151.932 1004 31.686
152.049 1034 32.1559
152.167 1061 32.573
152.284 1106 33.2566
152.402 1091 33.0303
152.519 1069 32.6956
152.636 1100 33.1662
152.754 1107 33.2716
152.871 1113 33.3617
152.989 1144 33.8231
153.106 1080 32.8634
153.223 1053 32.45
153.341 1089 33
153.458 1053 32.45
153.575 1002 31.6544
153.693 965 31.0644
153.81 974 31.209
153.927 1021 31.9531
154.044 1081 32.8786
154.162 1079 32.8481
154.279 1132 33.6452
154.396 1264 35.5528
154.513 1233 35.1141
154.63 1235 35.1426
154.747 1263 35.5387
154.864 1291 35.9305
154.981 1214 34.8425
155.098 1227 35.0286
155.215 1236 35.1568
155.332 1159 34.0441
155.449 1135 33.6898
155.566 1127 33.5708
155.683 1265 35.5668
155.8 1253 35.3977
155.917 1157 34.0147
156.033 1210 34.7851
156.15 0 1
156.267 0 1
156.383 0 1
156.5 0 1
156.617 0 1
156.733 0 1
156.85 0 1
156.966 0 1
157.082 0 1
157.199 0 1
157.315 0 1
157.431 0 1
157.547 0 1
157.664 0 1
157.78 0 1
157.896 0 1
158.012 0 1
158.128 0 1
158.244 0 1
158.359 0 1
158.475 0 1
158.591 0 1
158.706 0 1
