
6.15755 0 1
6.2731 0 1
6.3887 0 1
6.50437 0 1
6.62009 0 1
6.73587 0 1
6.8517 0 1
6.96759 0 1
7.08353 0 1
7.19952 0 1
7.31557 0 1
7.43166 0 1
7.54781 0 1
7.664 0 1
7.78024 0 1
7.89653 0 1
8.01286 0 1
8.12924 0 1
8.24567 0 1
8.36213 0 1
8.47864 0 1
8.59519 0 1
8.71178 0 1
8.82841 0 1
8.94508 0 1
9.06179 0 1
9.17853 0 1
9.29531 0 1
9.41212 0 1
9.52897 0 1
9.64584 0 1
9.76276 0 1
9.8797 0 1
9.99667 0 1
10.1137 0 1
10.2307 0 1
10.3478 0 1
10.4648 0 1
10.5819 0 1
10.6991 0 1
10.8162 0 1
10.9334 0 1
11.0506 0 1
11.1678 0 1
11.285 0 1
11.4023 0 1
11.5196 0 1
11.6369 0 1
11.7542 0 1
11.8715 0 1
11.9888 0 1
12.1062 0 1
12.2235 0 1
12.3409 0 1
12.4582 0 1
12.5756 0 1
12.693 0 1
12.8104 0 1
12.9278 0 1
13.0452 0 1
13.1626 0 1
13.28 0 1
13.3974 0 1
13.5149 0 1
13.6323 0 1
13.7497 0 1
13.8671 0 1
13.9845 0 1
14.1019 0 1
14.2193 0 1
14.3367 0 1
14.4541 0 1
14.5714 0 1
14.6888 0 1
14.8062 0 1
14.9235 0 1
15.0408 817 28.5832
15.1581 852 29.189
15.2755 862 29.3598
15.3927 881 29.6816
15.51 899 29.9833
15.6273 825 28.7228
15.7445 756 27.4955
15.8617 840 28.9828
15.9789 857 29.2746
16.0961 830 28.8097
16.2132 939 30.6431
16.3304 899 29.9833
16.4475 978 31.273
16.5646 1004 31.686
16.6816 975 31.225
16.7986 970 31.1448
16.9156 972 31.1769
17.0326 955 30.9031
17.1496 941 30.6757
17.2665 970 31.1448
17.3833 978 31.273
17.5002 993 31.5119
17.617 975 31.225
17.7338 1006 31.7175
17.8505 1019 31.9218
17.9672 1070 32.7109
18.0839 1098 33.1361
18.2005 1115 33.3916
18.3171 1099 33.1512
18.4337 1130 33.6155
18.5502 1085 32.9393
18.6666 1168 34.176
18.7831 1102 33.1964
18.8994 1154 33.9706
19.0158 1115 33.3916
19.1321 1024 32
19.2483 1048 32.3728
19.3645 1051 32.4191
19.4806 1008 31.749
19.5967 1075 32.7872
19.7128 1165 34.1321
19.8288 1111 33.3317
19.9447 1018 31.9061
20.0606 0 1
20.1764 0 1
20.2922 0 1
20.4079 0 1
20.5236 0 1
20.6392 0 1
20.7548 0 1
20.8702 0 1
23.3078 0 1
23.4233 0 1
23.539 0 1
23.6547 0 1
23.7704 0 1
23.8862 0 1
24.0021 0 1
24.118 0 1
24.234 0 1
24.35 0 1
24.4661 1034 32.1559
24.5822 1062 32.5883
24.6984 1072 32.7414
24.8146 1104 33.2265
24.9309 1187 34.4529
25.0472 1174 34.2637
25.1636 1198 34.6121
25.28 1162 34.0881
25.3965 1294 35.9722
25.513 1185 34.4238
25.6296 1245 35.2846
25.7462 1231 35.0856
25.8628 1234 35.1283
25.9795 1182 34.3802
26.0962 1197 34.5977
26.213 1221 34.9428
26.3298 1160 34.0588
26.4466 1300 36.0555
26.5635 1271 35.6511
26.6804 1349 36.7287
26.7973 1335 36.5377
26.9143 1347 36.7015
27.0313 1320 36.3318
27.1483 1330 36.4692
27.2653 1362 36.9053
27.3824 1342 36.6333
27.4996 1357 36.8375
27.6167 1263 35.5387
27.7339 1256 35.4401
27.8511 1280 35.7771
27.9683 1243 35.2562
28.0855 1235 35.1426
28.2028 1120 33.4664
28.3201 1192 34.5254
28.4374 1210 34.7851
28.5547 1283 35.819
28.6721 1229 35.0571
28.7894 1322 36.3593
28.9068 1290 35.9166
29.0242 1224 34.9857
29.1416 1223 34.9714
29.259 1196 34.5832
29.3764 1151 33.9264
29.4939 1154 33.9706
29.6113 1088 32.9848
29.7288 1129 33.6006
29.8463 1193 34.5398
29.9638 1288 35.8887
30.0812 1331 36.4829
30.1987 1331 36.4829
30.3162 1364 36.9324
30.4337 1390 37.2827
30.5512 1360 36.8782
30.6687 1404 37.47
30.7862 1476 38.4187
30.9037 1450 38.0789
31.0212 1401 37.4299
31.1387 1419 37.6696
31.2562 1330 36.4692
31.3737 1359 36.8646
31.4912 1234 35.1283
31.6087 1247 35.3129
31.7262 1112 33.3467
31.8436 1138 33.7343
31.9611 1337 36.565
32.0785 1304 36.1109
32.1959 1371 37.027
32.3134 1346 36.6879
32.4308 1342 36.6333
32.5482 1326 36.4143
32.6655 1361 36.8917
32.7829 1280 35.7771
32.9002 1243 35.2562
33.0176 1223 34.9714
33.1349 1213 34.8281
33.2522 1238 35.1852
33.3694 1239 35.1994
33.4867 1234 35.1283
33.6039 1291 35.9305
33.7211 1318 36.3043
33.8383 1392 37.3095
33.9554 1374 37.0675
34.0725 1498 38.704
34.1896 1379 37.1349
34.3067 1412 37.5766
34.4237 1471 38.3536
34.5407 1454 38.1314
34.6577 1452 38.1051
34.7746 1388 37.2559
34.8915 1411 37.5633
35.0084 1364 36.9324
35.1252 1406 37.4967
35.242 1326 36.4143
35.3587 1332 36.4966
35.4755 1259 35.4824
35.5921 1277 35.7351
35.7088 1382 37.1753
35.8254 1303 36.0971
35.9419 1389 37.2693
36.0584 1350 36.7423
36.1749 1446 38.0263
36.2913 1386 37.229
36.4077 1312 36.2215
36.524 1242 35.242
36.6403 1222 34.9571
36.7565 1212 34.8138
36.8727 1176 34.2929
36.9889 1192 34.5254
37.1049 1226 35.0143
37.221 0 1
37.3369 0 1
37.4529 0 1
37.5687 0 1
37.6845 0 1
37.8003 0 1
37.916 0 1
38.0316 0 1
38.1472 0 1
40.5851 0 1
40.7008 0 1
40.8164 0 1
40.9322 0 1
41.048 0 1
41.1639 0 1
41.2798 0 1
41.3958 0 1
41.5118 0 1
41.6279 0 1
41.744 1052 32.4345
41.8602 1018 31.9061
41.9765 1036 32.187
42.0928 1037 32.2025
42.2091 1068 32.6803
42.3255 1178 34.322
42.4419 1115 33.3916
42.5584 1221 34.9428
42.675 1257 35.4542
42.7915 1306 36.1386
42.9081 1353 36.7831
43.0248 1311 36.2077
43.1415 1352 36.7696
43.2582 1337 36.565
43.375 1339 36.5923
43.4918 1261 35.5106
43.6087 1322 36.3593
43.7256 1224 34.9857
43.8425 1237 35.171
43.9595 1182 34.3802
44.0765 1165 34.1321
44.1935 1158 34.0294
44.3106 1081 32.8786
44.4277 1085 32.9393
44.5448 1164 34.1174
44.6619 1089 33
44.7791 1192 34.5254
44.8963 1185 34.4238
45.0136 1199 34.6266
45.1308 1074 32.7719
45.2481 1032 32.1248
45.3654 940 30.6594
45.4827 918 30.2985
45.6001 927 30.4467
45.7174 914 30.2324
45.8348 927 30.4467
45.9522 966 31.0805
46.0697 1026 32.0312
46.1871 1109 33.3017
46.3046 1077 32.8177
46.422 1075 32.7872
46.5395 1157 34.0147
46.657 1121 33.4813
46.7745 1091 33.0303
46.892 1141 33.7787
47.0096 1152 33.9411
47.1271 1156 34
47.2446 1084 32.9242
47.3622 1030 32.0936
47.4797 1004 31.686
47.5973 1026 32.0312
47.7149 1008 31.749
47.8324 925 30.4138
47.95 882 29.6985
48.0675 890 29.8329
48.1851 966 31.0805
48.3027 986 31.4006
48.4202 1010 31.7805
48.5378 994 31.5278
48.6554 926 30.4302
48.7729 863 29.3769
48.8904 835 28.8964
49.008 820 28.6356
49.1255 754 27.4591
49.243 803 28.3373
49.3605 770 27.7489
49.478 819 28.6182
49.5955 836 28.9137
49.713 892 29.8664
49.8304 941 30.6757
49.9479 1003 31.6702
50.0653 1012 31.8119
50.1827 1039 32.2335
50.3001 1062 32.5883
50.4175 1048 32.3728
50.5348 1084 32.9242
50.6521 1043 32.2955
50.7694 1148 33.8821
50.8867 1095 33.0908
51.004 1118 33.4365
51.1212 1056 32.4962
51.2384 1071 32.7261
51.3556 1086 32.9545
51.4727 1001 31.6386
51.5899 1085 32.9393
51.707 1087 32.9697
51.824 1215 34.8569
51.9411 1265 35.5668
52.0581 1216 34.8712
52.175 1246 35.2987
52.2919 1135 33.6898
52.4088 1101 33.1813
52.5257 1024 32
52.6425 1093 33.0606
52.7593 1089 33
52.876 1043 32.2955
52.9927 1106 33.2566
53.1094 1184 34.4093
53.226 1324 36.3868
53.3426 1316 36.2767
53.4591 1513 38.8973
53.5756 1515 38.923
53.692 1548 39.3446
53.8084 1587 39.8372
53.9248 1595 39.9375
54.0411 1612 40.1497
54.1573 1650 40.6202
54.2735 0 1
54.3896 0 1
54.5057 0 1
54.6217 0 1
54.7377 0 1
54.8537 0 1
54.9695 0 1
55.0853 0 1
55.2011 0 1
55.3168 0 1
55.4324 0 1
57.824 0 1
57.9396 0 1
58.0553 0 1
58.1711 0 1
58.2869 0 1
58.4028 0 1
58.5187 0 1
58.6347 0 1
58.7508 0 1
58.8669 0 1
58.983 1917 43.7836
59.0992 1917 43.7836
59.2155 1962 44.2945
59.3318 2033 45.0888
59.4482 1948 44.1362
59.5646 1919 43.8064
59.681 2035 45.111
59.7975 1865 43.1856
59.9141 1863 43.1625
60.0306 1865 43.1856
60.1473 1809 42.5323
60.2639 1801 42.4382
60.3807 1786 42.2611
60.4974 1843 42.9302
60.6142 1848 42.9884
60.731 1762 41.9762
60.8479 1622 40.2741
60.9648 1559 39.4842
61.0818 1529 39.1024
61.1987 1428 37.7889
61.3158 1408 37.5233
61.4328 1393 37.3229
61.5499 1509 38.8458
61.667 1502 38.7556
61.7841 1591 39.8873
61.9013 1697 41.1947
62.0185 1786 42.2611
62.1357 1819 42.6497
62.253 1788 42.2847
62.3702 1815 42.6028
62.4875 1990 44.6094
62.6049 1930 43.9318
62.7222 1907 43.6692
62.8396 2000 44.7214
62.9569 1889 43.4626
63.0743 1818 42.638
63.1918 1815 42.6028
63.3092 1780 42.19
63.4267 1709 41.3401
63.5441 1767 42.0357
63.6616 1704 41.2795
63.7791 1654 40.6694
63.8966 1759 41.9404
64.0142 1780 42.19
64.1317 1799 42.4146
64.2492 1641 40.5093
64.3668 1592 39.8999
64.4843 1571 39.6358
64.6019 1467 38.3014
64.7195 1387 37.2424
64.837 1297 36.0139
64.9546 1344 36.6606
65.0722 1311 36.2077
65.1898 1376 37.0945
65.3074 1593 39.9124
65.4249 1584 39.7995
65.5425 1640 40.4969
65.6601 1773 42.107
65.7777 1823 42.6966
65.8952 1855 43.0697
66.0128 1966 44.3396
66.1304 1971 44.3959
66.2479 1896 43.5431
66.3655 1987 44.5758
66.483 1973 44.4185
66.6005 1906 43.6578
66.718 1888 43.4511
66.8355 1878 43.3359
66.953 1904 43.6348
67.0705 1819 42.6497
67.1879 1760 41.9524
67.3054 1839 42.8836
67.4228 1822 42.6849
67.5402 1889 43.4626
67.6576 1806 42.4971
67.7749 1862 43.1509
67.8923 1798 42.4028
68.0096 1742 41.7373
68.1269 1646 40.5709
68.2442 1542 39.2683
68.3614 1466 38.2884
68.4787 1399 37.4032
68.5958 1386 37.229
68.713 1467 38.3014
68.8302 1574 39.6737
68.9473 1722 41.497
69.0643 1824 42.7083
69.1814 1897 43.5546
69.2984 2015 44.8888
69.4154 2170 46.5833
69.5323 2189 46.7868
69.6492 2237 47.2969
69.7661 2291 47.8644
69.8829 2235 47.2758
69.9997 2362 48.6004
70.1165 2411 49.1019
70.2332 2337 48.3425
70.3499 2346 48.4355
70.4665 2279 47.7389
70.5831 2175 46.6369
70.6996 2143 46.2925
70.8161 2165 46.5296
70.9326 2108 45.913
71.049 2150 46.3681
71.1653 2166 46.5403
71.2817 2213 47.0425
71.3979 2220 47.1169
71.5141 2134 46.1952
71.6303 1984 44.5421
71.7464 1723 41.509
71.8624 0 1
71.9784 0 1
72.0944 0 1
72.2102 0 1
72.3261 0 1
72.4418 0 1
72.5575 0 1
72.6732 0 1
75.1054 0 1
75.2209 0 1
75.3365 0 1
75.4521 0 1
75.5678 0 1
75.6835 0 1
75.7993 0 1
75.9151 0 1
76.031 0 1
76.147 2210 47.0106
76.263 2379 48.775
76.3791 2312 48.0833
76.4952 2447 49.4672
76.6113 2560 50.5964
76.7276 2559 50.5866
76.8438 2521 50.2096
76.9601 2409 49.0816
77.0765 2226 47.1805
77.1929 1907 43.6692
77.3093 1839 42.8836
77.4258 1819 42.6497
77.5423 1684 41.0366
77.6589 1822 42.6849
77.7755 1840 42.8952
77.8921 2039 45.1553
78.0088 2300 47.9583
78.1256 2420 49.1935
78.2423 2491 49.9099
78.3591 2711 52.0673
78.4759 2702 51.9808
78.5928 2704 52
78.7097 2828 53.1789
78.8266 2730 52.2494
78.9436 2972 54.5161
79.0606 2753 52.469
79.1776 2713 52.0865
79.2946 2781 52.7352
79.4117 2704 52
79.5288 2659 51.5655
79.6459 2719 52.144
79.7631 2538 50.3786
79.8802 2500 50
79.9974 2545 50.448
80.1147 2568 50.6754
80.2319 2659 51.5655
80.3491 2624 51.225
80.4664 2682 51.788
80.5837 2602 51.0098
80.701 2379 48.775
80.8183 2160 46.4758
80.9357 1823 42.6966
81.053 1803 42.4617
81.1704 1775 42.1307
81.2877 1665 40.8044
81.4051 1812 42.5676
81.5225 1947 44.1248
81.6399 2241 47.3392
81.7573 2413 49.1223
81.8747 2490 49.8999
81.9922 2647 51.449
82.1096 2636 51.342
82.227 2792 52.8394
82.3444 2782 52.7447
82.4619 2694 51.9038
82.5793 2747 52.4118
82.6967 2817 53.0754
82.8142 2741 52.3546
82.9316 2580 50.7937
83.049 2645 51.4296
83.1664 2590 50.892
83.2838 2597 50.9608
83.4012 2535 50.3488
83.5186 2474 49.7393
83.636 2448 49.4773
83.7534 2464 49.6387
83.8708 2550 50.4975
83.9881 2657 51.5461
84.1055 2611 51.0979
84.2228 2477 49.7695
84.3401 2209 47
84.4575 2013 44.8665
84.5747 1848 42.9884
84.692 1695 41.1704
84.8093 1739 41.7013
84.9265 1663 40.7799
85.0437 1741 41.7253
85.1609 1987 44.5758
85.2781 2215 47.0638
85.3952 2507 50.07
85.5123 2560 50.5964
85.6294 2738 52.3259
85.7465 2929 54.1202
85.8636 2946 54.2771
85.9806 3145 56.0803
86.0976 3064 55.3534
86.2145 3119 55.848
86.3315 3215 56.701
86.4484 3104 55.7136
86.5652 3151 56.1338
86.682 3242 56.9386
86.7988 3100 55.6776
86.9156 3244 56.9561
87.0323 3182 56.4092
87.149 3118 55.8391
87.2657 3177 56.3649
87.3823 3165 56.2583
87.4988 3370 58.0517
87.6154 3376 58.1034
87.7318 3278 57.2538
87.8483 3203 56.5951
87.9647 2877 53.6377
88.081 2552 50.5173
88.1973 2412 49.1121
88.3136 2336 48.3322
88.4298 2258 47.5184
88.546 2249 47.4236
88.6621 2507 50.07
88.7781 2747 52.4118
88.8942 0 1
89.0101 0 1
89.126 0 1
89.2419 0 1
89.3577 0 1
89.4734 0 1
89.5891 0 1
89.7047 0 1
89.8203 0 1
89.9358 0 1
92.3269 0 1
92.4424 0 1
92.558 0 1
92.6736 0 1
92.7893 0 1
92.905 0 1
93.0208 0 1
93.1366 0 1
93.2525 0 1
93.3685 0 1
93.4845 0 1
93.6005 2459 49.5883
93.7167 2446 49.4571
93.8328 2459 49.5883
93.949 2635 51.3323
94.0653 2823 53.1319
94.1816 2921 54.0463
94.2979 3266 57.1489
94.4143 3555 59.6238
94.5307 3666 60.5475
94.6472 3862 62.145
94.7637 3961 62.9365
94.8803 4002 63.2614
94.9969 4108 64.0937
95.1135 4081 63.8827
95.2302 4195 64.7688
95.3469 4150 64.4205
95.4637 4061 63.726
95.5805 4103 64.0547
95.6973 4078 63.8592
95.8142 4071 63.8044
95.9311 3992 63.1823
96.048 4110 64.1093
96.1649 4003 63.2693
96.2819 3963 62.9524
96.3989 3864 62.1611
96.516 3992 63.1823
96.633 4150 64.4205
96.7501 4081 63.8827
96.8673 3988 63.1506
96.9844 3632 60.2661
97.1016 3416 58.4466
97.2188 3053 55.254
97.336 2894 53.7959
97.4532 2594 50.9313
97.5704 2624 51.225
97.6877 2561 50.6063
97.805 2830 53.1977
97.9223 3082 55.5158
98.0396 3428 58.5491
98.1569 3689 60.7371
98.2743 3860 62.1289
98.3916 4123 64.2106
98.509 4131 64.2729
98.6264 4191 64.7379
98.7438 4213 64.9076
98.8612 4168 64.56
98.9786 4223 64.9846
99.096 4237 65.0922
99.2134 4308 65.6354
99.3308 4168 64.56
99.4482 4313 65.6734
99.5656 4229 65.0308
99.6831 4192 64.7457
99.8005 4000 63.2456
99.9179 4112 64.1249
100.035 3975 63.0476
100.153 4249 65.1844
100.27 4233 65.0615
100.388 4101 64.0391
100.505 3963 62.9524
100.622 3711 60.918
100.74 3364 58
100.857 3184 56.4269
100.975 2917 54.0093
101.092 2701 51.9711
101.209 2622 51.2055
101.327 2792 52.8394
101.444 3074 55.4437
101.561 3338 57.7754
101.679 3605 60.0417
101.796 3848 62.0322
101.913 4151 64.4283
102.03 4311 65.6582
102.148 4325 65.7647
102.265 4263 65.2917
102.382 4673 68.3593
102.499 4411 66.4154
102.616 4417 66.4605
102.733 4446 66.6783
102.851 4452 66.7233
102.968 4389 66.2495
103.085 4396 66.3023
103.202 4333 65.8255
103.319 4293 65.521
103.436 4107 64.0859
103.552 4153 64.4438
103.669 4268 65.3299
103.786 4453 66.7308
103.903 4366 66.0757
104.02 4244 65.146
104.137 4034 63.5138
104.253 3704 60.8605
104.37 3464 58.8558
104.487 3138 56.0179
104.603 2949 54.3047
104.72 2989 54.6717
104.836 2949 54.3047
104.953 3170 56.3028
105.069 3465 58.8643
105.186 3799 61.636
105.302 4264 65.2993
105.418 4485 66.9701
105.535 4710 68.6294
105.651 4536 67.3498
105.767 4546 67.424
105.883 4686 68.4544
105.999 4648 68.1762
106.115 0 1
106.231 0 1
106.347 0 1
106.463 0 1
106.579 0 1
106.694 0 1
106.81 0 1
106.926 0 1
107.041 0 1
107.157 0 1
109.576 0 1
109.692 0 1
109.807 0 1
109.923 0 1
110.039 0 1
110.155 0 1
110.27 0 1
110.386 0 1
110.502 0 1
110.618 4188 64.7148
110.735 4188 64.7148
110.851 4156 64.467
110.967 4422 66.4981
111.083 4253 65.215
111.199 4404 66.3626
111.316 4275 65.3835
111.432 4382 66.1967
111.549 4182 64.6684
111.665 4264 65.2993
111.782 4156 64.467
111.898 4170 64.5755
112.015 4102 64.0469
112.132 4199 64.7997
112.248 4206 64.8537
112.365 4225 65
112.482 3962 62.9444
112.599 3812 61.7414
112.716 3443 58.6771
112.832 3258 57.0789
112.949 3013 54.8908
113.066 2724 52.192
113.183 2627 51.2543
113.3 2787 52.792
113.417 2806 52.9717
113.534 2975 54.5436
113.652 3275 57.2276
113.769 3526 59.3801
113.886 3848 62.0322
114.003 3899 62.442
114.12 3966 62.9762
114.238 4052 63.6553
114.355 4094 63.9844
114.472 4072 63.8122
114.589 4098 64.0156
114.707 3900 62.45
114.824 3973 63.0317
114.942 4017 63.3798
115.059 4015 63.364
115.176 3935 62.7296
115.294 3950 62.849
115.411 3852 62.0645
115.529 3842 61.9839
115.646 3931 62.6977
115.764 4001 63.2535
115.881 4015 63.364
115.999 3844 62
116.116 3803 61.6685
116.234 3562 59.6825
116.351 3364 58
116.469 3243 56.9473
116.586 2841 53.301
116.704 2808 52.9906
116.821 2727 52.2207
116.939 2712 52.0769
117.056 2787 52.792
117.174 3008 54.8452
117.291 3231 56.8419
117.409 3515 59.2874
117.526 3554 59.6154
117.644 3853 62.0725
117.761 3912 62.546
117.879 3936 62.7375
117.996 3964 62.9603
118.114 3974 63.0397
118.231 3959 62.9206
118.349 3920 62.6099
118.466 3790 61.563
118.584 3922 62.6259
118.701 3812 61.7414
118.819 3996 63.2139
118.936 3853 62.0725
119.053 3798 61.6279
119.171 3595 59.9583
119.288 3774 61.4329
119.405 3915 62.57
119.523 3791 61.5711
119.64 3714 60.9426
119.757 3725 61.0328
119.875 3526 59.3801
119.992 3285 57.3149
120.109 3099 55.6687
120.226 2885 53.7122
120.343 2836 53.2541
120.46 2639 51.3712
120.578 2659 51.5655
120.695 2665 51.6236
120.812 2894 53.7959
120.929 3030 55.0454
121.046 3088 55.5698
121.163 3418 58.4637
121.279 3574 59.7829
121.396 3702 60.8441
121.513 3662 60.5145
121.63 3853 62.0725
121.747 3747 61.2127
121.863 3803 61.6685
121.98 3722 61.0082
122.097 3702 60.8441
122.213 3669 60.5723
122.33 3573 59.7746
122.446 3748 61.2209
122.563 3577 59.808
122.679 3656 60.4649
122.795 3564 59.6992
122.912 3497 59.1354
123.028 3562 59.6825
123.144 3469 58.8982
123.26 3551 59.5903
123.377 0 1
123.493 0 1
123.609 0 1
123.725 0 1
123.84 0 1
123.956 0 1
124.072 0 1
124.188 0 1
124.303 0 1
124.419 0 1
126.852 0 1
126.968 0 1
127.083 0 1
127.199 0 1
127.315 0 1
127.431 0 1
127.547 0 1
127.663 0 1
127.779 0 1
127.895 0 1
128.011 0 1
128.127 0 1
128.243 0 1
128.359 3810 61.7252
128.476 3832 61.9032
128.592 3763 61.3433
128.708 3646 60.3821
128.825 3469 58.8982
128.941 3351 57.8878
129.058 3167 56.2761
129.174 3066 55.3715
129.291 2825 53.1507
129.408 2780 52.7257
129.524 2963 54.4334
129.641 3111 55.7763
129.758 3077 55.4707
129.875 3338 57.7754
129.992 3421 58.4893
130.108 3618 60.1498
130.225 3710 60.9098
130.342 3803 61.6685
130.459 3764 61.3514
130.576 3808 61.709
130.693 3782 61.498
130.81 3638 60.3158
130.928 3636 60.2993
131.045 3707 60.8851
131.162 3840 61.9677
131.279 3850 62.0484
131.396 3810 61.7252
131.513 3703 60.8523
131.631 3678 60.6465
131.748 3743 61.1801
131.865 3745 61.1964
131.983 3675 60.6218
132.1 3784 61.5142
132.217 3615 60.1249
132.335 3569 59.7411
132.452 3374 58.0861
132.57 3241 56.9298
132.687 3080 55.4977
132.804 2882 53.6843
132.922 2859 53.4696
133.039 2794 52.8583
133.157 2837 53.2635
133.274 2942 54.2402
133.392 3166 56.2672
133.509 3261 57.1052
133.627 3501 59.1692
133.744 3594 59.95
133.862 3574 59.7829
133.979 3574 59.7829
134.097 3498 59.1439
134.214 3616 60.1332
134.332 3540 59.4979
134.449 3503 59.1861
134.567 3458 58.8048
134.684 3545 59.5399
134.802 3595 59.9583
134.919 3670 60.5805
135.037 3689 60.7371
135.154 3462 58.8388
135.272 3491 59.0847
135.389 3495 59.1185
135.507 3632 60.2661
135.624 3665 60.5392
135.742 3644 60.3656
135.859 3432 58.5833
135.977 3335 57.7495
136.094 3212 56.6745
136.211 3054 55.263
136.329 2942 54.2402
136.446 2875 53.619
136.564 2812 53.0283
136.681 2805 52.9623
136.798 2935 54.1756
136.915 2918 54.0185
137.033 2998 54.754
137.15 3213 56.6833
137.267 3314 57.5674
137.384 3342 57.81
137.502 3325 57.6628
137.619 3370 58.0517
137.736 3607 60.0583
137.853 3320 57.6194
137.97 3326 57.6715
138.087 3171 56.3116
138.204 3139 56.0268
138.321 3371 58.0603
138.438 3532 59.4306
138.555 3619 60.1581
138.672 3486 59.0424
138.788 3463 58.8473
138.905 3349 57.8705
139.022 3490 59.0762
139.139 3510 59.2453
139.255 3527 59.3886
139.372 3589 59.9083
139.488 3459 58.8133
139.605 3366 58.0172
139.721 3264 57.1314
139.838 3110 55.7674
139.954 3023 54.9818
140.071 2873 53.6004
140.187 2799 52.9056
140.303 2766 52.5928
140.419 2753 52.469
140.535 2709 52.0481
140.652 2939 54.2125
140.768 0 1
140.884 0 1
141 0 1
141.115 0 1
141.231 0 1
141.347 0 1
141.463 0 1
141.578 0 1
141.694 0 1
144.104 0 1
144.219 0 1
144.335 0 1
144.45 0 1
144.566 0 1
144.682 0 1
144.798 0 1
144.914 0 1
145.03 0 1
145.146 1940 44.0454
145.262 2129 46.1411
145.378 2182 46.7119
145.494 2232 47.244
145.61 2320 48.1664
145.726 2372 48.7032
145.842 2401 49
145.959 2544 50.4381
146.075 2550 50.4975
146.192 2557 50.5668
146.308 2530 50.2991
146.425 2582 50.8134
146.541 2632 51.303
146.658 2556 50.5569
146.774 2458 49.5782
146.891 2473 49.7293
147.008 2562 50.6162
147.125 2570 50.6952
147.241 2587 50.8626
147.358 2706 52.0192
147.475 2712 52.0769
147.592 2682 51.788
147.709 2740 52.345
147.826 2699 51.9519
147.943 2628 51.264
148.06 2700 51.9615
148.177 2729 52.2398
148.294 2614 51.1273
148.411 2585 50.8429
148.528 2509 50.0899
148.645 2567 50.6656
148.762 2410 49.0918
148.88 2343 48.4045
148.997 2283 47.7807
149.114 2354 48.518
149.231 2341 48.3839
149.349 2271 47.655
149.466 2417 49.163
149.583 2506 50.06
149.701 2445 49.4469
149.818 2612 51.1077
149.935 2548 50.4777
150.053 2690 51.8652
150.17 2609 51.0784
150.287 2565 50.6458
150.405 2598 50.9706
150.522 2562 50.6162
150.64 2533 50.3289
150.757 2493 49.93
150.875 2743 52.3737
150.992 2679 51.7591
151.11 2729 52.2398
151.227 2719 52.144
151.344 2699 51.9519
151.462 2694 51.9038
151.579 2784 52.7636
151.697 2692 51.8845
151.814 2696 51.923
151.932 2680 51.7687
152.049 2647 51.449
152.167 2571 50.705
152.284 2543 50.4282
152.402 2463 49.6286
152.519 2314 48.1041
152.636 2396 48.949
152.754 2433 49.3254
152.871 2413 49.1223
152.989 2314 48.1041
153.106 2464 49.6387
153.223 2480 49.7996
153.341 2451 49.5076
153.458 2580 50.7937
153.575 2660 51.5752
153.693 2663 51.6043
153.81 2593 50.9215
153.927 2618 51.1664
154.044 2605 51.0392
154.162 2457 49.5681
154.279 2467 49.6689
154.396 2501 50.01
154.513 2745 52.3927
154.63 2876 53.6284
154.747 2716 52.1153
154.864 2804 52.9528
154.981 2727 52.2207
155.098 2849 53.376
155.215 2785 52.7731
155.332 2812 53.0283
155.449 2758 52.5167
155.566 2752 52.4595
155.683 2631 51.2933
155.8 2656 51.5364
155.917 2667 51.643
156.033 2531 50.309
156.15 0 1
156.267 0 1
156.383 0 1
156.5 0 1
156.617 0 1
156.733 0 1
156.85 0 1
156.966 0 1
157.082 0 1
157.199 0 1
157.315 0 1
157.431 0 1
157.547 0 1
157.664 0 1
157.78 0 1
157.896 0 1
158.012 0 1
158.128 0 1
158.244 0 1
158.359 0 1
158.475 0 1
158.591 0 1
158.706 0 1
