
6.15755 0 1
6.2731 0 1
6.3887 0 1
6.50437 0 1
6.62009 0 1
6.73587 0 1
6.8517 0 1
6.96759 0 1
7.08353 0 1
7.19952 0 1
7.31557 0 1
7.43166 0 1
7.54781 0 1
7.664 0 1
7.78024 0 1
7.89653 0 1
8.01286 0 1
8.12924 0 1
8.24567 0 1
8.36213 0 1
8.47864 0 1
8.59519 0 1
8.71178 0 1
8.82841 0 1
8.94508 0 1
9.06179 0 1
9.17853 0 1
9.29531 0 1
9.41212 0 1
9.52897 0 1
9.64584 0 1
9.76276 0 1
9.8797 0 1
9.99667 0 1
10.1137 0 1
10.2307 0 1
10.3478 0 1
10.4648 0 1
10.5819 0 1
10.6991 0 1
10.8162 0 1
10.9334 0 1
11.0506 0 1
11.1678 0 1
11.285 0 1
11.4023 0 1
11.5196 0 1
11.6369 0 1
11.7542 0 1
11.8715 0 1
11.9888 0 1
12.1062 0 1
12.2235 0 1
12.3409 0 1
12.4582 0 1
12.5756 0 1
12.693 0 1
12.8104 0 1
12.9278 0 1
13.0452 0 1
13.1626 0 1
13.28 0 1
13.3974 0 1
13.5149 0 1
13.6323 0 1
13.7497 0 1
13.8671 0 1
13.9845 0 1
14.1019 0 1
14.2193 0 1
14.3367 0 1
14.4541 0 1
14.5714 0 1
14.6888 0 1
14.8062 0 1
14.9235 0 1
15.0408 0 0
15.1581 0 0
15.2755 0 0
15.3927 0 0
15.51 0 0
15.6273 0 0
15.7445 0 0
15.8617 0 0
15.9789 0 0
16.0961 0 0
16.2132 0 0
16.3304 0 0
16.4475 0 0
16.5646 0 0
16.6816 0 0
16.7986 0 0
16.9156 0 0
17.0326 0 0
17.1496 0 0
17.2665 0 0
17.3833 0 0
17.5002 0 0
17.617 0 0
17.7338 0 0
17.8505 0 0
17.9672 0 0
18.0839 0 0
18.2005 0 0
18.3171 0 0
18.4337 0 0
18.5502 0 0
18.6666 0 0
18.7831 0 0
18.8994 0 0
19.0158 0 0
19.1321 0 0
19.2483 0 0
19.3645 0 0
19.4806 0 0
19.5967 0 0
19.7128 0 0
19.8288 0 0
19.9447 0 0
20.0606 0 1
20.1764 0 1
20.2922 0 1
20.4079 0 1
20.5236 0 1
20.6392 0 1
20.7548 0 1
20.8702 0 1
23.3078 0 1
23.4233 0 1
23.539 0 1
23.6547 0 1
23.7704 0 1
23.8862 0 1
24.0021 0 1
24.118 0 1
24.234 0 1
24.35 0 1
24.4661 2791 52.8299
24.5822 2978 54.5711
24.6984 2899 53.8424
24.8146 3022 54.9727
24.9309 3659 60.4897
25.0472 4099 64.0234
25.1636 4886 69.8999
25.28 5622 74.98
25.3965 6205 78.7718
25.513 6793 82.4197
25.6296 7280 85.3229
25.7462 7857 88.6397
25.8628 8428 91.8041
25.9795 8130 90.1665
26.0962 8194 90.5207
26.213 8218 90.6532
26.3298 8133 90.1831
26.4466 8163 90.3493
26.5635 8227 90.7028
26.6804 8160 90.3327
26.7973 8062 89.7886
26.9143 7873 88.7299
27.0313 7727 87.9034
27.1483 7864 88.6792
27.2653 7840 88.5438
27.3824 8181 90.4489
27.4996 8008 89.4874
27.6167 8101 90.0056
27.7339 7808 88.3629
27.8511 7667 87.5614
27.9683 7122 84.3919
28.0855 6769 82.2739
28.2028 6112 78.1793
28.3201 5369 73.2735
28.4374 5256 72.4983
28.5547 5728 75.6836
28.6721 6175 78.5812
28.7894 7242 85.0999
28.9068 7815 88.4025
29.0242 7943 89.1235
29.1416 7750 88.0341
29.259 7945 89.1347
29.3764 7888 88.8144
29.4939 7905 88.9101
29.6113 8083 89.9055
29.7288 7914 88.9607
29.8463 7949 89.1572
29.9638 7938 89.0955
30.0812 7803 88.3346
30.1987 7788 88.2496
30.3162 7697 87.7325
30.4337 7686 87.6698
30.5512 7747 88.017
30.6687 7652 87.4757
30.7862 7788 88.2496
30.9037 7657 87.5043
31.0212 7769 88.1419
31.1387 7641 87.4128
31.2562 7726 87.8977
31.3737 7417 86.122
31.4912 7118 84.3682
31.6087 6708 81.9024
31.7262 6074 77.9359
31.8436 5389 73.4098
31.9611 5137 71.6729
32.0785 5592 74.7797
32.1959 6367 79.7935
32.3134 7369 85.8429
32.4308 7722 87.8749
32.5482 7602 87.1894
32.6655 7737 87.9602
32.7829 7710 87.8066
32.9002 7704 87.7724
33.0176 7755 88.0625
33.1349 7574 87.0287
33.2522 7558 86.9368
33.3694 7780 88.2043
33.4867 7651 87.47
33.6039 7718 87.8521
33.7211 7533 86.7929
33.8383 7587 87.1034
33.9554 7510 86.6603
34.0725 7316 85.5336
34.1896 7305 85.4693
34.3067 7585 87.0919
34.4237 7590 87.1206
34.5407 7546 86.8677
34.6577 7634 87.3728
34.7746 7632 87.3613
34.8915 7294 85.4049
35.0084 7355 85.7613
35.1252 7189 84.788
35.242 6902 83.0783
35.3587 6329 79.555
35.4755 5620 74.9667
35.5921 5042 71.007
35.7088 5100 71.4143
35.8254 5512 74.2428
35.9419 6002 77.4726
36.0584 6912 83.1384
36.1749 7142 84.5104
36.2913 7484 86.5101
36.4077 7342 85.6855
36.524 7102 84.2734
36.6403 6892 83.0181
36.7565 6770 82.28
36.8727 6496 80.5978
36.9889 6110 78.1665
37.1049 5970 77.2658
37.221 0 1
37.3369 0 1
37.4529 0 1
37.5687 0 1
37.6845 0 1
37.8003 0 1
37.916 0 1
38.0316 0 1
38.1472 0 1
40.5851 0 1
40.7008 0 1
40.8164 0 1
40.9322 0 1
41.048 0 1
41.1639 0 1
41.2798 0 1
41.3958 0 1
41.5118 0 1
41.6279 0 1
41.744 3021 54.9636
41.8602 3445 58.6941
41.9765 3827 61.8628
42.0928 4102 64.0469
42.2091 4522 67.2458
42.3255 4727 68.7532
42.4419 5122 71.5681
42.5584 5207 72.1595
42.675 5520 74.2967
42.7915 5835 76.3872
42.9081 6048 77.7689
43.0248 6116 78.2049
43.1415 6407 80.0437
43.2582 6466 80.4114
43.375 6520 80.7465
43.4918 6687 81.7741
43.6087 6635 81.4555
43.7256 6505 80.6536
43.8425 6335 79.5927
43.9595 6311 79.4418
44.0765 6203 78.7591
44.1935 5754 75.8551
44.3106 5316 72.9109
44.4277 4620 67.9706
44.5448 4648 68.1762
44.6619 5030 70.9225
44.7791 5548 74.4849
44.8963 6213 78.8226
45.0136 6450 80.3119
45.1308 6413 80.0812
45.2481 6558 80.9815
45.3654 6433 80.206
45.4827 6437 80.2309
45.6001 6397 79.9812
45.7174 6405 80.0312
45.8348 6429 80.181
45.9522 6536 80.8455
46.0697 6428 80.1748
46.1871 6519 80.7403
46.3046 6305 79.404
46.422 6415 80.0937
46.5395 6340 79.6241
46.657 6568 81.0432
46.7745 6628 81.4125
46.892 6731 82.0427
47.0096 6667 81.6517
47.1271 7010 83.7257
47.2446 6777 82.3225
47.3622 6935 83.2766
47.4797 6794 82.4257
47.5973 6670 81.6701
47.7149 6587 81.1603
47.8324 5903 76.831
47.95 5235 72.3533
48.0675 4971 70.5053
48.1851 4928 70.1997
48.3027 5452 73.8377
48.4202 5966 77.2399
48.5378 6445 80.2808
48.6554 6729 82.0305
48.7729 6702 81.8657
48.8904 6838 82.6922
49.008 6580 81.1172
49.1255 6517 80.7279
49.243 6509 80.6784
49.3605 6493 80.5792
49.478 6386 79.9125
49.5955 6429 80.181
49.713 6451 80.3181
49.8304 6196 78.7147
49.9479 6331 79.5676
50.0653 6331 79.5676
50.1827 6585 81.148
50.3001 6597 81.2219
50.4175 6666 81.6456
50.5348 6764 82.2435
50.6521 6796 82.4379
50.7694 6894 83.0301
50.8867 6863 82.8432
51.004 6787 82.3833
51.1212 6747 82.1401
51.2384 6493 80.5792
51.3556 5916 76.9155
51.4727 5160 71.8331
51.5899 4952 70.3704
51.707 5066 71.1758
51.824 5450 73.8241
51.9411 5997 77.4403
52.0581 6670 81.6701
52.175 6741 82.1036
52.2919 6579 81.111
52.4088 6431 80.1935
52.5257 6404 80.025
52.6425 6570 81.0555
52.7593 6443 80.2683
52.876 6647 81.5291
52.9927 6470 80.4363
53.1094 6197 78.721
53.226 6315 79.467
53.3426 6186 78.6511
53.4591 6124 78.256
53.5756 6028 77.6402
53.692 6123 78.2496
53.8084 5861 76.5572
53.9248 5754 75.8551
54.0411 5571 74.6391
54.1573 5243 72.4086
54.2735 0 1
54.3896 0 1
54.5057 0 1
54.6217 0 1
54.7377 0 1
54.8537 0 1
54.9695 0 1
55.0853 0 1
55.2011 0 1
55.3168 0 1
55.4324 0 1
57.824 0 1
57.9396 0 1
58.0553 0 1
58.1711 0 1
58.2869 0 1
58.4028 0 1
58.5187 0 1
58.6347 0 1
58.7508 0 1
58.8669 0 1
58.983 4027 63.4586
59.0992 4729 68.7677
59.2155 5356 73.1847
59.3318 5853 76.5049
59.4482 6411 80.0687
59.5646 6876 82.9216
59.681 7307 85.481
59.7975 7379 85.9011
59.9141 7206 84.8882
60.0306 7121 84.386
60.1473 6740 82.0975
60.2639 6553 80.9506
60.3807 6333 79.5801
60.4974 6574 81.0802
60.6142 6779 82.3347
60.731 7361 85.7963
60.8479 7674 87.6014
60.9648 7933 89.0674
61.0818 7923 89.0112
61.1987 8075 89.861
61.3158 8067 89.8165
61.4328 7739 87.9716
61.5499 7876 88.7468
61.667 7689 87.6869
61.7841 7574 87.0287
61.9013 7586 87.0976
62.0185 7372 85.8604
62.1357 7460 86.3713
62.253 7412 86.093
62.3702 7794 88.2836
62.4875 8025 89.5824
62.6049 8186 90.4765
62.7222 8334 91.2907
62.8396 8503 92.2117
62.9569 8622 92.8547
63.0743 8688 93.2094
63.1918 8584 92.6499
63.3092 8411 91.7115
63.4267 8056 89.7552
63.5441 7636 87.3842
63.6616 7157 84.5991
63.7791 6650 81.5475
63.8966 6498 80.6102
64.0142 6588 81.1665
64.1317 6640 81.4862
64.2492 7161 84.6227
64.3668 7501 86.6083
64.4843 7552 86.9022
64.6019 7808 88.3629
64.7195 7704 87.7724
64.837 7614 87.2582
64.9546 7619 87.2869
65.0722 7489 86.539
65.1898 7481 86.4928
65.3074 7289 85.3756
65.4249 7316 85.5336
65.5425 7155 84.5872
65.6601 7141 84.5044
65.7777 7327 85.5979
65.8952 7238 85.0764
66.0128 7652 87.4757
66.1304 7941 89.1123
66.2479 8127 90.1499
66.3655 8198 90.5428
66.483 8331 91.2743
66.6005 8402 91.6624
66.718 8473 92.0489
66.8355 8413 91.7224
66.953 8093 89.9611
67.0705 7872 88.7243
67.1879 7438 86.2438
67.3054 7058 84.0119
67.4228 6594 81.2034
67.5402 6324 79.5236
67.6576 6258 79.1075
67.7749 6254 79.0822
67.8923 6636 81.4616
68.0096 7105 84.2912
68.1269 7405 86.0523
68.2442 7592 87.1321
68.3614 7440 86.2554
68.4787 7372 85.8604
68.5958 7513 86.6776
68.713 7447 86.296
68.8302 7247 85.1293
68.9473 7133 84.4571
69.0643 6921 83.1925
69.1814 6700 81.8535
69.2984 6683 81.7496
69.4154 6594 81.2034
69.5323 6675 81.7007
69.6492 7082 84.1546
69.7661 7355 85.7613
69.8829 7397 86.0058
69.9997 7610 87.2353
70.1165 7669 87.5728
70.2332 7677 87.6185
70.3499 7405 86.0523
70.4665 7178 84.7231
70.5831 6536 80.8455
70.6996 6182 78.6257
70.8161 5711 75.5712
70.9326 5147 71.7426
71.049 4498 67.0671
71.1653 3779 61.4736
71.2817 3419 58.4722
71.3979 3304 57.4804
71.5141 3005 54.8179
71.6303 2906 53.9073
71.7464 2647 51.449
71.8624 0 1
71.9784 0 1
72.0944 0 1
72.2102 0 1
72.3261 0 1
72.4418 0 1
72.5575 0 1
72.6732 0 1
75.1054 0 1
75.2209 0 1
75.3365 0 1
75.4521 0 1
75.5678 0 1
75.6835 0 1
75.7993 0 1
75.9151 0 1
76.031 0 1
76.147 4163 64.5213
76.263 4380 66.1816
76.3791 4503 67.1044
76.4952 4475 66.8954
76.6113 4617 67.9485
76.7276 4757 68.971
76.8438 5222 72.2634
76.9601 5415 73.5867
77.0765 5870 76.6159
77.1929 6323 79.5173
77.3093 6479 80.4922
77.4258 6389 79.9312
77.5423 6322 79.511
77.6589 6620 81.3634
77.7755 6267 79.1644
77.8921 6113 78.1857
78.0088 5986 77.3692
78.1256 5676 75.3392
78.2423 5679 75.3591
78.3591 5420 73.6206
78.4759 5739 75.7562
78.5928 5856 76.5245
78.7097 6264 79.1454
78.8266 6725 82.0061
78.9436 6914 83.1505
79.0606 7030 83.8451
79.1776 7200 84.8528
79.2946 7418 86.1278
79.4117 7297 85.4225
79.5288 7186 84.7703
79.6459 6869 82.8794
79.7631 6615 81.3327
79.8802 6290 79.3095
79.9974 6093 78.0577
80.1147 5726 75.6703
80.2319 5317 72.9178
80.3491 5380 73.3485
80.4664 5423 73.641
80.5837 5771 75.9671
80.701 6094 78.0641
80.8183 6379 79.8686
80.9357 6495 80.5916
81.053 6571 81.0617
81.1704 6570 81.0555
81.2877 6520 80.7465
81.4051 6454 80.3368
81.5225 6406 80.0375
81.6399 6328 79.5487
81.7573 6130 78.2943
81.8747 5871 76.6225
81.9922 5726 75.6703
82.1096 5721 75.6373
82.227 6029 77.6466
82.3444 6289 79.3032
82.4619 6938 83.2947
82.5793 7138 84.4867
82.6967 7136 84.4748
82.8142 7477 86.4696
82.9316 7485 86.5159
83.049 7411 86.0872
83.1664 7298 85.4283
83.2838 6969 83.4805
83.4012 6788 82.3893
83.5186 6480 80.4984
83.636 6302 79.3851
83.7534 5788 76.0789
83.8708 5530 74.364
83.9881 5477 74.0068
84.1055 5352 73.1574
84.2228 5613 74.92
84.3401 5860 76.5506
84.4575 6291 79.3158
84.5747 6883 82.9638
84.692 6716 81.9512
84.8093 6931 83.2526
84.9265 6872 82.8975
85.0437 6457 80.3555
85.1609 6519 80.7403
85.2781 6159 78.4793
85.3952 5841 76.4264
85.5123 5577 74.6793
85.6294 5626 75.0067
85.7465 5753 75.8485
85.8636 6075 77.9423
85.9806 6437 80.2309
86.0976 6921 83.1925
86.2145 7062 84.0357
86.3315 7144 84.5222
86.4484 7424 86.1626
86.5652 7382 85.9186
86.682 7195 84.8233
86.7988 7283 85.3405
86.9156 6957 83.4086
87.0323 6667 81.6517
87.149 6367 79.7935
87.2657 6316 79.4733
87.3823 5944 77.0973
87.4988 5250 72.4569
87.6154 5105 71.4493
87.7318 5030 70.9225
87.8483 5080 71.2741
87.9647 5173 71.9236
88.081 5292 72.7461
88.1973 5248 72.4431
88.3136 5097 71.3933
88.4298 4681 68.4178
88.546 4076 63.8436
88.6621 3740 61.1555
88.7781 3200 56.5685
88.8942 0 1
89.0101 0 1
89.126 0 1
89.2419 0 1
89.3577 0 1
89.4734 0 1
89.5891 0 1
89.7047 0 1
89.8203 0 1
89.9358 0 1
92.3269 0 1
92.4424 0 1
92.558 0 1
92.6736 0 1
92.7893 0 1
92.905 0 1
93.0208 0 1
93.1366 0 1
93.2525 0 1
93.3685 0 1
93.4845 0 1
93.6005 4414 66.4379
93.7167 4973 70.5195
93.8328 5467 73.9392
93.949 5841 76.4264
94.0653 6011 77.5306
94.1816 6095 78.0705
94.2979 6353 79.7057
94.4143 6480 80.4984
94.5307 6292 79.3221
94.6472 5913 76.896
94.7637 5767 75.9408
94.8803 5903 76.831
94.9969 6012 77.5371
95.1135 6330 79.5613
95.2302 6836 82.6801
95.3469 7296 85.4166
95.4637 7527 86.7583
95.5805 7552 86.9022
95.6973 7831 88.4929
95.8142 7636 87.3842
95.9311 7660 87.5214
96.048 7452 86.325
96.1649 7076 84.119
96.2819 7042 83.9166
96.3989 6690 81.7924
96.516 6544 80.895
96.633 6204 78.7655
96.7501 5882 76.6942
96.8673 5681 75.3724
96.9844 5581 74.7061
97.1016 5799 76.1512
97.2188 6073 77.9295
97.336 6465 80.4052
97.4532 6962 83.4386
97.5704 7144 84.5222
97.6877 7063 84.0417
97.805 7076 84.119
97.9223 6972 83.4985
98.0396 6628 81.4125
98.1569 6281 79.2528
98.2743 5806 76.1971
98.3916 5682 75.379
98.509 5599 74.8265
98.6264 5971 77.2722
98.7438 6301 79.3788
98.8612 6928 83.2346
98.9786 7183 84.7526
99.096 7572 87.0172
99.2134 7772 88.1589
99.3308 8042 89.6772
99.4482 7817 88.4138
99.5656 7791 88.2666
99.6831 7771 88.1533
99.8005 7371 85.8545
99.9179 7122 84.3919
100.035 6998 83.654
100.153 6536 80.8455
100.27 6312 79.4481
100.388 6122 78.2432
100.505 5898 76.7984
100.622 5967 77.2464
100.74 6204 78.7655
100.857 6558 80.9815
100.975 6965 83.4566
101.092 6955 83.3966
101.209 7263 85.2232
101.327 7042 83.9166
101.444 7163 84.6345
101.561 6817 82.5651
101.679 6530 80.8084
101.796 6110 78.1665
101.913 5874 76.642
102.03 5701 75.505
102.148 5905 76.844
102.265 6350 79.6869
102.382 7172 84.6877
102.499 7391 85.9709
102.616 7779 88.1986
102.733 7997 89.4259
102.851 7989 89.3812
102.968 8029 89.6047
103.085 8006 89.4763
103.202 7877 88.7525
103.319 7857 88.6397
103.436 7335 85.6446
103.552 7160 84.6168
103.669 6904 83.0903
103.786 6537 80.8517
103.903 6104 78.1281
104.02 6218 78.8543
104.137 6238 78.981
104.253 6520 80.7465
104.37 6623 81.3818
104.487 7085 84.1724
104.603 7232 85.0412
104.72 7074 84.1071
104.836 6690 81.7924
104.953 6298 79.3599
105.069 5881 76.6877
105.186 5400 73.4847
105.302 5125 71.5891
105.418 4681 68.4178
105.535 4266 65.3146
105.651 4349 65.9469
105.767 4297 65.5515
105.883 4254 65.2227
105.999 4152 64.436
106.115 0 1
106.231 0 1
106.347 0 1
106.463 0 1
106.579 0 1
106.694 0 1
106.81 0 1
106.926 0 1
107.041 0 1
107.157 0 1
109.576 0 1
109.692 0 1
109.807 0 1
109.923 0 1
110.039 0 1
110.155 0 1
110.27 0 1
110.386 0 1
110.502 0 1
110.618 2747 52.4118
110.735 3248 56.9912
110.851 3898 62.434
110.967 4604 67.8528
111.083 5018 70.8378
111.199 5479 74.0203
111.316 5896 76.7854
111.432 6186 78.6511
111.549 6213 78.8226
111.665 6520 80.7465
111.782 6617 81.3449
111.898 6553 80.9506
112.015 6125 78.2624
112.132 5924 76.9675
112.248 5707 75.5447
112.365 5579 74.6927
112.482 5364 73.2393
112.599 5359 73.2052
112.716 5375 73.3144
112.832 5344 73.1027
112.949 5446 73.797
113.066 5892 76.7594
113.183 5887 76.7268
113.3 6071 77.9166
113.417 6079 77.9679
113.534 5955 77.1686
113.652 6129 78.2879
113.769 5828 76.3413
113.886 5438 73.7428
114.003 4987 70.6187
114.12 4804 69.3109
114.238 4880 69.857
114.355 5370 73.2803
114.472 6057 77.8267
114.589 6354 79.712
114.707 6671 81.6762
114.824 6956 83.4026
114.942 7096 84.2378
115.059 6943 83.3247
115.176 7081 84.1487
115.294 6986 83.5823
115.411 6709 81.9085
115.529 6776 82.3165
115.646 6297 79.3536
115.764 5891 76.7529
115.881 5841 76.4264
115.999 5543 74.4513
116.116 5263 72.5465
116.234 5420 73.6206
116.351 5338 73.0616
116.469 5420 73.6206
116.586 5517 74.2765
116.704 5771 75.9671
116.821 5961 77.2075
116.939 6093 78.0577
117.056 5935 77.039
117.174 5960 77.201
117.291 5933 77.026
117.409 5639 75.0933
117.526 5229 72.3118
117.644 4820 69.4262
117.761 4846 69.6132
117.879 5175 71.9375
117.996 5800 76.1577
118.114 6334 79.5864
118.231 6692 81.8046
118.349 6787 82.3833
118.466 6797 82.4439
118.584 6892 83.0181
118.701 6981 83.5524
118.819 6918 83.1745
118.936 6668 81.6578
119.053 6669 81.6639
119.171 6346 79.6618
119.288 5948 77.1233
119.405 5812 76.2365
119.523 5632 75.0467
119.64 5078 71.2601
119.757 5132 71.638
119.875 5138 71.6798
119.992 5247 72.4362
120.109 5196 72.0833
120.226 5301 72.808
120.343 5446 73.797
120.46 5624 74.9933
120.578 5514 74.2563
120.695 5592 74.7797
120.812 5597 74.8131
120.929 5572 74.6458
121.046 5342 73.089
121.163 4864 69.7424
121.279 4569 67.5944
121.396 4399 66.325
121.513 4429 66.5507
121.63 4843 69.5917
121.747 5121 71.5612
121.863 5198 72.0972
121.98 5202 72.1249
122.097 5202 72.1249
122.213 5052 71.0774
122.33 5015 70.8167
122.446 4850 69.6419
122.563 4554 67.4833
122.679 4357 66.0076
122.795 4037 63.5374
122.912 3624 60.1997
123.028 3351 57.8878
123.144 2992 54.6992
123.26 2692 51.8845
123.377 0 1
123.493 0 1
123.609 0 1
123.725 0 1
123.84 0 1
123.956 0 1
124.072 0 1
124.188 0 1
124.303 0 1
124.419 0 1
126.852 0 1
126.968 0 1
127.083 0 1
127.199 0 1
127.315 0 1
127.431 0 1
127.547 0 1
127.663 0 1
127.779 0 1
127.895 0 1
128.011 0 1
128.127 0 1
128.243 0 1
128.359 5719 75.6241
128.476 5648 75.1532
128.592 5739 75.7562
128.708 5651 75.1731
128.825 5728 75.6836
128.941 5416 73.5935
129.058 5488 74.081
129.174 5429 73.6817
129.291 5541 74.4379
129.408 5521 74.3034
129.524 5902 76.8245
129.641 6057 77.8267
129.758 5944 77.0973
129.875 5978 77.3175
129.992 6031 77.6595
130.108 5981 77.3369
130.225 5430 73.6885
130.342 4979 70.562
130.459 4917 70.1213
130.576 4900 70
130.693 5426 73.6614
130.81 5982 77.3434
130.928 6080 77.9744
131.045 6207 78.7845
131.162 6327 79.5424
131.279 6487 80.5419
131.396 6526 80.7837
131.513 6561 81
131.631 6517 80.7279
131.748 6148 78.4092
131.865 6012 77.5371
131.983 5876 76.6551
132.1 5739 75.7562
132.217 5760 75.8947
132.335 5583 74.7195
132.452 5380 73.3485
132.57 5306 72.8423
132.687 5483 74.0473
132.804 5371 73.2871
132.922 5409 73.5459
133.039 5544 74.458
133.157 5676 75.3392
133.274 5721 75.6373
133.392 5985 77.3628
133.509 5856 76.5245
133.627 5850 76.4853
133.744 5308 72.856
133.862 4920 70.1427
133.979 4728 68.7605
134.097 4609 67.8896
134.214 4993 70.6612
134.332 5402 73.4983
134.449 5738 75.7496
134.567 5787 76.0723
134.684 5974 77.2917
134.802 6254 79.0822
134.919 6026 77.6273
135.037 6146 78.3964
135.154 6187 78.6575
135.272 6054 77.8075
135.389 5930 77.0065
135.507 5844 76.4461
135.624 5854 76.5114
135.742 5754 75.8551
135.859 5589 74.7596
135.977 5433 73.7089
136.094 5391 73.4234
136.211 5273 72.6154
136.329 5270 72.5948
136.446 5257 72.5052
136.564 5274 72.6223
136.681 5586 74.7395
136.798 5470 73.9594
136.915 5600 74.8331
137.033 5736 75.7364
137.15 5865 76.5833
137.267 5594 74.793
137.384 5117 71.5332
137.502 4724 68.7314
137.619 4533 67.3276
137.736 4177 64.6297
137.853 4542 67.3944
137.97 5044 71.0211
138.087 5494 74.1215
138.204 5527 74.3438
138.321 5563 74.5855
138.438 5620 74.9667
138.555 5762 75.9078
138.672 5738 75.7496
138.788 5698 75.4851
138.905 5308 72.856
139.022 5034 70.9507
139.139 4604 67.8528
139.255 4445 66.6708
139.372 4337 65.8559
139.488 3887 62.3458
139.605 3746 61.2046
139.721 3508 59.2284
139.838 3265 57.1402
139.954 3118 55.8391
140.071 2898 53.8331
140.187 2785 52.7731
140.303 2690 51.8652
140.419 2602 51.0098
140.535 2559 50.5866
140.652 2276 47.7074
140.768 0 1
140.884 0 1
141 0 1
141.115 0 1
141.231 0 1
141.347 0 1
141.463 0 1
141.578 0 1
141.694 0 1
144.104 0 1
144.219 0 1
144.335 0 1
144.45 0 1
144.566 0 1
144.682 0 1
144.798 0 1
144.914 0 1
145.03 0 1
145.146 3564 59.6992
145.262 3765 61.3596
145.378 3933 62.7136
145.494 3960 62.9285
145.61 4154 64.4515
145.726 4012 63.3404
145.842 4259 65.261
145.959 4321 65.7343
146.075 4109 64.1015
146.192 3847 62.0242
146.308 3330 57.7062
146.425 3378 58.1206
146.541 3183 56.4181
146.658 3565 59.7076
146.774 3838 61.9516
146.891 4000 63.2456
147.008 4259 65.261
147.125 4361 66.0379
147.241 4473 66.8805
147.358 4535 67.3424
147.475 4406 66.3777
147.592 4447 66.6858
147.709 4484 66.9627
147.826 4589 67.7422
147.943 4444 66.6633
148.06 4327 65.7799
148.177 4207 64.8614
148.294 4287 65.4752
148.411 4144 64.3739
148.528 4034 63.5138
148.645 4127 64.2417
148.762 3845 62.0081
148.88 4089 63.9453
148.997 4159 64.4903
149.114 4112 64.1249
149.231 4145 64.3817
149.349 4140 64.3428
149.466 4118 64.1716
149.583 4303 65.5973
149.701 4257 65.2457
149.818 4077 63.8514
149.935 3614 60.1166
150.053 3366 58.0172
150.17 3201 56.5774
150.287 3346 57.8446
150.405 3613 60.1082
150.522 4026 63.4508
150.64 4138 64.3273
150.757 4335 65.8407
150.875 4609 67.8896
150.992 4539 67.3721
151.11 4485 66.9701
151.227 4544 67.4092
151.344 4380 66.1816
151.462 4412 66.4229
151.579 4423 66.5056
151.697 4360 66.0303
151.814 4268 65.3299
151.932 4352 65.9697
152.049 4255 65.2304
152.167 4114 64.1405
152.284 4022 63.4192
152.402 4117 64.1639
152.519 4047 63.616
152.636 3986 63.1348
152.754 4123 64.2106
152.871 4160 64.4981
152.989 4263 65.2917
153.106 4406 66.3777
153.223 4296 65.5439
153.341 4093 63.9766
153.458 3899 62.442
153.575 3642 60.349
153.693 3336 57.7581
153.81 3349 57.8705
153.927 3673 60.6053
154.044 3974 63.0397
154.162 4237 65.0922
154.279 4371 66.1135
154.396 4488 66.9925
154.513 4581 67.6831
154.63 4580 67.6757
154.747 4621 67.9779
154.864 4612 67.9117
154.981 4604 67.8528
155.098 4613 67.9191
155.215 4548 67.4389
155.332 4405 66.3702
155.449 4255 65.2304
155.566 4207 64.8614
155.683 4067 63.773
155.8 4029 63.4744
155.917 3888 62.3538
156.033 3695 60.7865
156.15 0 1
156.267 0 1
156.383 0 1
156.5 0 1
156.617 0 1
156.733 0 1
156.85 0 1
156.966 0 1
157.082 0 1
157.199 0 1
157.315 0 1
157.431 0 1
157.547 0 1
157.664 0 1
157.78 0 1
157.896 0 1
158.012 0 1
158.128 0 1
158.244 0 1
158.359 0 1
158.475 0 1
158.591 0 1
158.706 0 1
