
6.15755 0 1
6.2731 0 1
6.3887 0 1
6.50437 0 1
6.62009 0 1
6.73587 0 1
6.8517 0 1
6.96759 0 1
7.08353 0 1
7.19952 0 1
7.31557 0 1
7.43166 0 1
7.54781 0 1
7.664 0 1
7.78024 0 1
7.89653 0 1
8.01286 0 1
8.12924 0 1
8.24567 0 1
8.36213 0 1
8.47864 0 1
8.59519 0 1
8.71178 0 1
8.82841 0 1
8.94508 0 1
9.06179 0 1
9.17853 0 1
9.29531 0 1
9.41212 0 1
9.52897 0 1
9.64584 0 1
9.76276 0 1
9.8797 0 1
9.99667 0 1
10.1137 0 1
10.2307 0 1
10.3478 0 1
10.4648 0 1
10.5819 0 1
10.6991 0 1
10.8162 0 1
10.9334 0 1
11.0506 0 1
11.1678 0 1
11.285 0 1
11.4023 0 1
11.5196 0 1
11.6369 0 1
11.7542 0 1
11.8715 0 1
11.9888 0 1
12.1062 0 1
12.2235 0 1
12.3409 0 1
12.4582 0 1
12.5756 0 1
12.693 0 1
12.8104 0 1
12.9278 0 1
13.0452 0 1
13.1626 0 1
13.28 0 1
13.3974 0 1
13.5149 0 1
13.6323 0 1
13.7497 0 1
13.8671 0 1
13.9845 0 1
14.1019 0 1
14.2193 0 1
14.3367 0 1
14.4541 0 1
14.5714 0 1
14.6888 0 1
14.8062 0 1
14.9235 0 1
15.0408 1135 33.6898
15.1581 1217 34.8855
15.2755 1210 34.7851
15.3927 1252 35.3836
15.51 1215 34.8569
15.6273 1266 35.5809
15.7445 1215 34.8569
15.8617 1260 35.4965
15.9789 1192 34.5254
16.0961 1221 34.9428
16.2132 1228 35.0428
16.3304 1186 34.4384
16.4475 1237 35.171
16.5646 1345 36.6742
16.6816 1312 36.2215
16.7986 1517 38.9487
16.9156 1419 37.6696
17.0326 1466 38.2884
17.1496 1491 38.6135
17.2665 1479 38.4578
17.3833 1458 38.1838
17.5002 1340 36.606
17.617 1393 37.3229
17.7338 1279 35.7631
17.8505 1198 34.6121
17.9672 1223 34.9714
18.0839 1286 35.8608
18.2005 1302 36.0832
18.3171 1357 36.8375
18.4337 1407 37.51
18.5502 1365 36.9459
18.6666 1434 37.8682
18.7831 1393 37.3229
18.8994 1461 38.223
19.0158 1379 37.1349
19.1321 1315 36.2629
19.2483 1367 36.973
19.3645 1268 35.609
19.4806 1231 35.0856
19.5967 1099 33.1512
19.7128 1036 32.187
19.8288 943 30.7083
19.9447 860 29.3258
20.0606 0 1
20.1764 0 1
20.2922 0 1
20.4079 0 1
20.5236 0 1
20.6392 0 1
20.7548 0 1
20.8702 0 1
23.3078 0 1
23.4233 0 1
23.539 0 1
23.6547 0 1
23.7704 0 1
23.8862 0 1
24.0021 0 1
24.118 0 1
24.234 0 1
24.35 0 1
24.4661 624 24.98
24.5822 695 26.3629
24.6984 790 28.1069
24.8146 903 30.05
24.9309 942 30.692
25.0472 1050 32.4037
25.1636 1156 34
25.28 1288 35.8887
25.3965 1268 35.609
25.513 1393 37.3229
25.6296 1464 38.2623
25.7462 1476 38.4187
25.8628 1499 38.7169
25.9795 1467 38.3014
26.0962 1560 39.4968
26.213 1516 38.9358
26.3298 1392 37.3095
26.4466 1337 36.565
26.5635 1309 36.1801
26.6804 1338 36.5787
26.7973 1457 38.1707
26.9143 1384 37.2022
27.0313 1440 37.9473
27.1483 1506 38.8072
27.2653 1512 38.8844
27.3824 1542 39.2683
27.4996 1518 38.9615
27.6167 1484 38.5227
27.7339 1419 37.6696
27.8511 1455 38.1445
27.9683 1380 37.1484
28.0855 1351 36.756
28.2028 1261 35.5106
28.3201 1279 35.7631
28.4374 1249 35.3412
28.5547 1229 35.0571
28.6721 1309 36.1801
28.7894 1316 36.2767
28.9068 1439 37.9342
29.0242 1484 38.5227
29.1416 1401 37.4299
29.259 1530 39.1152
29.3764 1408 37.5233
29.4939 1543 39.281
29.6113 1476 38.4187
29.7288 1420 37.6829
29.8463 1346 36.6879
29.9638 1279 35.7631
30.0812 1214 34.8425
30.1987 1195 34.5688
30.3162 1285 35.8469
30.4337 1268 35.609
30.5512 1366 36.9594
30.6687 1349 36.7287
30.7862 1337 36.565
30.9037 1469 38.3275
31.0212 1465 38.2753
31.1387 1429 37.8021
31.2562 1393 37.3229
31.3737 1367 36.973
31.4912 1341 36.6197
31.6087 1303 36.0971
31.7262 1270 35.6371
31.8436 1273 35.6791
31.9611 1179 34.3366
32.0785 1156 34
32.1959 1253 35.3977
32.3134 1329 36.4555
32.4308 1399 37.4032
32.5482 1343 36.647
32.6655 1443 37.9868
32.7829 1456 38.1576
32.9002 1540 39.2428
33.0176 1450 38.0789
33.1349 1417 37.6431
33.2522 1442 37.9737
33.3694 1370 37.0135
33.4867 1321 36.3456
33.6039 1211 34.7994
33.7211 1167 34.1614
33.8383 1187 34.4529
33.9554 1205 34.7131
34.0725 1331 36.4829
34.1896 1324 36.3868
34.3067 1320 36.3318
34.4237 1365 36.9459
34.5407 1384 37.2022
34.6577 1421 37.6962
34.7746 1406 37.4967
34.8915 1365 36.9459
35.0084 1312 36.2215
35.1252 1320 36.3318
35.242 1269 35.623
35.3587 1224 34.9857
35.4755 1209 34.7707
35.5921 1134 33.6749
35.7088 1157 34.0147
35.8254 1174 34.2637
35.9419 1108 33.2866
36.0584 1189 34.4819
36.1749 1264 35.5528
36.2913 1248 35.327
36.4077 1256 35.4401
36.524 1254 35.4119
36.6403 1153 33.9559
36.7565 1085 32.9393
36.8727 1056 32.4962
36.9889 959 30.9677
37.1049 912 30.1993
37.221 0 1
37.3369 0 1
37.4529 0 1
37.5687 0 1
37.6845 0 1
37.8003 0 1
37.916 0 1
38.0316 0 1
38.1472 0 1
40.5851 0 1
40.7008 0 1
40.8164 0 1
40.9322 0 1
41.048 0 1
41.1639 0 1
41.2798 0 1
41.3958 0 1
41.5118 0 1
41.6279 0 1
41.744 680 26.0768
41.8602 749 27.3679
41.9765 771 27.7669
42.0928 860 29.3258
42.2091 795 28.1957
42.3255 830 28.8097
42.4419 798 28.2489
42.5584 778 27.8927
42.675 870 29.4958
42.7915 982 31.3369
42.9081 1025 32.0156
43.0248 1074 32.7719
43.1415 1073 32.7567
43.2582 1078 32.8329
43.375 1150 33.9116
43.4918 1183 34.3948
43.6087 1110 33.3167
43.7256 1087 32.9697
43.8425 1112 33.3467
43.9595 1076 32.8024
44.0765 1099 33.1512
44.1935 1008 31.749
44.3106 986 31.4006
44.4277 1009 31.7648
44.5448 917 30.282
44.6619 999 31.607
44.7791 991 31.4802
44.8963 1061 32.573
45.0136 1094 33.0757
45.1308 1172 34.2345
45.2481 1145 33.8378
45.3654 1232 35.0999
45.4827 1181 34.3657
45.6001 1111 33.3317
45.7174 1107 33.2716
45.8348 1110 33.3167
45.9522 958 30.9516
46.0697 952 30.8545
46.1871 890 29.8329
46.3046 1060 32.5576
46.422 1086 32.9545
46.5395 1067 32.665
46.657 1061 32.573
46.7745 1149 33.8969
46.892 1152 33.9411
47.0096 1132 33.6452
47.1271 1223 34.9714
47.2446 1168 34.176
47.3622 1167 34.1614
47.4797 1172 34.2345
47.5973 1124 33.5261
47.7149 1060 32.5576
47.8324 1085 32.9393
47.95 1043 32.2955
48.0675 964 31.0483
48.1851 910 30.1662
48.3027 1000 31.6228
48.4202 1029 32.078
48.5378 1149 33.8969
48.6554 1168 34.176
48.7729 1202 34.6699
48.8904 1200 34.641
49.008 1206 34.7275
49.1255 1181 34.3657
49.243 1175 34.2783
49.3605 1098 33.1361
49.478 976 31.241
49.5955 952 30.8545
49.713 869 29.4788
49.8304 967 31.0966
49.9479 1033 32.1403
50.0653 1073 32.7567
50.1827 1138 33.7343
50.3001 1165 34.1321
50.4175 1193 34.5398
50.5348 1242 35.242
50.6521 1216 34.8712
50.7694 1240 35.2136
50.8867 1217 34.8855
51.004 1284 35.8329
51.1212 1226 35.0143
51.2384 1203 34.6843
51.3556 1229 35.0571
51.4727 1169 34.1906
51.5899 1114 33.3766
51.707 1102 33.1964
51.824 1163 34.1028
51.9411 1314 36.2491
52.0581 1412 37.5766
52.175 1530 39.1152
52.2919 1529 39.1024
52.4088 1585 39.8121
52.5257 1566 39.5727
52.6425 1737 41.6773
52.7593 1625 40.3113
52.876 1635 40.4351
52.9927 1594 39.9249
53.1094 1495 38.6652
53.226 1460 38.2099
53.3426 1384 37.2022
53.4591 1366 36.9594
53.5756 1348 36.7151
53.692 1400 37.4166
53.8084 1393 37.3229
53.9248 1290 35.9166
54.0411 1283 35.819
54.1573 1213 34.8281
54.2735 0 1
54.3896 0 1
54.5057 0 1
54.6217 0 1
54.7377 0 1
54.8537 0 1
54.9695 0 1
55.0853 0 1
55.2011 0 1
55.3168 0 1
55.4324 0 1
57.824 0 1
57.9396 0 1
58.0553 0 1
58.1711 0 1
58.2869 0 1
58.4028 0 1
58.5187 0 1
58.6347 0 1
58.7508 0 1
58.8669 0 1
58.983 865 29.4109
59.0992 949 30.8058
59.2155 1114 33.3766
59.3318 1146 33.8526
59.4482 1252 35.3836
59.5646 1271 35.6511
59.681 1245 35.2846
59.7975 1420 37.6829
59.9141 1360 36.8782
60.0306 1339 36.5923
60.1473 1336 36.5513
60.2639 1203 34.6843
60.3807 1271 35.6511
60.4974 1223 34.9714
60.6142 1335 36.5377
60.731 1361 36.8917
60.8479 1349 36.7287
60.9648 1419 37.6696
61.0818 1471 38.3536
61.1987 1468 38.3145
61.3158 1474 38.3927
61.4328 1437 37.9078
61.5499 1412 37.5766
61.667 1293 35.9583
61.7841 1190 34.4964
61.9013 1149 33.8969
62.0185 1160 34.0588
62.1357 1158 34.0294
62.253 1241 35.2278
62.3702 1311 36.2077
62.4875 1407 37.51
62.6049 1362 36.9053
62.7222 1419 37.6696
62.8396 1495 38.6652
62.9569 1503 38.7685
63.0743 1467 38.3014
63.1918 1452 38.1051
63.3092 1396 37.3631
63.4267 1390 37.2827
63.5441 1345 36.6742
63.6616 1298 36.0278
63.7791 1226 35.0143
63.8966 1171 34.2199
64.0142 1174 34.2637
64.1317 1311 36.2077
64.2492 1305 36.1248
64.3668 1345 36.6742
64.4843 1437 37.9078
64.6019 1471 38.3536
64.7195 1492 38.6264
64.837 1411 37.5633
64.9546 1395 37.3497
65.0722 1421 37.6962
65.1898 1375 37.081
65.3074 1199 34.6266
65.4249 1099 33.1512
65.5425 1124 33.5261
65.6601 1098 33.1361
65.7777 1147 33.8674
65.8952 1203 34.6843
66.0128 1215 34.8569
66.1304 1338 36.5787
66.2479 1402 37.4433
66.3655 1470 38.3406
66.483 1383 37.1887
66.6005 1476 38.4187
66.718 1429 37.8021
66.8355 1428 37.7889
66.953 1399 37.4032
67.0705 1342 36.6333
67.1879 1336 36.5513
67.3054 1207 34.7419
67.4228 1160 34.0588
67.5402 1145 33.8378
67.6576 1111 33.3317
67.7749 1225 35
67.8923 1259 35.4824
68.0096 1302 36.0832
68.1269 1421 37.6962
68.2442 1360 36.8782
68.3614 1408 37.5233
68.4787 1446 38.0263
68.5958 1397 37.3765
68.713 1327 36.428
68.8302 1261 35.5106
68.9473 1207 34.7419
69.0643 1043 32.2955
69.1814 1038 32.218
69.2984 1069 32.6956
69.4154 1071 32.7261
69.5323 1207 34.7419
69.6492 1275 35.7071
69.7661 1351 36.756
69.8829 1323 36.3731
69.9997 1375 37.081
70.1165 1292 35.9444
70.2332 1202 34.6699
70.3499 1180 34.3511
70.4665 1159 34.0441
70.5831 1096 33.1059
70.6996 1029 32.078
70.8161 1011 31.7962
70.9326 936 30.5941
71.049 791 28.1247
71.1653 622 24.9399
71.2817 544 23.3238
71.3979 529 23
71.5141 496 22.2711
71.6303 464 21.5407
71.7464 426 20.6398
71.8624 0 1
71.9784 0 1
72.0944 0 1
72.2102 0 1
72.3261 0 1
72.4418 0 1
72.5575 0 1
72.6732 0 1
75.1054 0 1
75.2209 0 1
75.3365 0 1
75.4521 0 1
75.5678 0 1
75.6835 0 1
75.7993 0 1
75.9151 0 1
76.031 0 1
76.147 845 29.0689
76.263 914 30.2324
76.3791 844 29.0517
76.4952 911 30.1828
76.6113 944 30.7246
76.7276 1032 32.1248
76.8438 1006 31.7175
76.9601 1140 33.7639
77.0765 1228 35.0428
77.1929 1263 35.5387
77.3093 1231 35.0856
77.4258 1272 35.6651
77.5423 1210 34.7851
77.6589 1124 33.5261
77.7755 1162 34.0881
77.8921 995 31.5436
78.0088 929 30.4795
78.1256 902 30.0333
78.2423 897 29.95
78.3591 914 30.2324
78.4759 958 30.9516
78.5928 1115 33.3916
78.7097 1181 34.3657
78.8266 1192 34.5254
78.9436 1218 34.8999
79.0606 1236 35.1568
79.1776 1237 35.171
79.2946 1264 35.5528
79.4117 1271 35.6511
79.5288 1245 35.2846
79.6459 1250 35.3553
79.7631 1222 34.9571
79.8802 1156 34
79.9974 1108 33.2866
80.1147 1036 32.187
80.2319 997 31.5753
80.3491 969 31.1288
80.4664 1040 32.249
80.5837 1131 33.6303
80.701 1243 35.2562
80.8183 1202 34.6699
80.9357 1293 35.9583
81.053 1297 36.0139
81.1704 1313 36.2353
81.2877 1302 36.0832
81.4051 1260 35.4965
81.5225 1176 34.2929
81.6399 1096 33.1059
81.7573 967 31.0966
81.8747 923 30.3809
81.9922 900 30
82.1096 1035 32.1714
82.227 1101 33.1813
82.3444 1163 34.1028
82.4619 1204 34.6987
82.5793 1223 34.9714
82.6967 1268 35.609
82.8142 1300 36.0555
82.9316 1278 35.7491
83.049 1312 36.2215
83.1664 1283 35.819
83.2838 1288 35.8887
83.4012 1229 35.0571
83.5186 1139 33.7491
83.636 1164 34.1174
83.7534 1046 32.3419
83.8708 1023 31.9844
83.9881 1012 31.8119
84.1055 1041 32.2645
84.2228 1114 33.3766
84.3401 1121 33.4813
84.4575 1234 35.1283
84.5747 1337 36.565
84.692 1291 35.9305
84.8093 1318 36.3043
84.9265 1307 36.1525
85.0437 1204 34.6987
85.1609 1117 33.4215
85.2781 1033 32.1403
85.3952 944 30.7246
85.5123 918 30.2985
85.6294 979 31.289
85.7465 1099 33.1512
85.8636 1157 34.0147
85.9806 1150 33.9116
86.0976 1215 34.8569
86.2145 1266 35.5809
86.3315 1289 35.9026
86.4484 1354 36.7967
86.5652 1336 36.5513
86.682 1355 36.8103
86.7988 1222 34.9571
86.9156 1360 36.8782
87.0323 1334 36.524
87.149 1197 34.5977
87.2657 1227 35.0286
87.3823 999 31.607
87.4988 909 30.1496
87.6154 822 28.6705
87.7318 871 29.5127
87.8483 896 29.9333
87.9647 998 31.5911
88.081 1019 31.9218
88.1973 1026 32.0312
88.3136 984 31.3688
88.4298 949 30.8058
88.546 944 30.7246
88.6621 792 28.1425
88.7781 597 24.4336
88.8942 0 1
89.0101 0 1
89.126 0 1
89.2419 0 1
89.3577 0 1
89.4734 0 1
89.5891 0 1
89.7047 0 1
89.8203 0 1
89.9358 0 1
92.3269 0 1
92.4424 0 1
92.558 0 1
92.6736 0 1
92.7893 0 1
92.905 0 1
93.0208 0 1
93.1366 0 1
93.2525 0 1
93.3685 0 1
93.4845 0 1
93.6005 918 30.2985
93.7167 1056 32.4962
93.8328 1116 33.4066
93.949 1107 33.2716
94.0653 1064 32.619
94.1816 1180 34.3511
94.2979 1091 33.0303
94.4143 1132 33.6452
94.5307 993 31.5119
94.6472 985 31.3847
94.7637 1004 31.686
94.8803 1078 32.8329
94.9969 1091 33.0303
95.1135 1189 34.4819
95.2302 1215 34.8569
95.3469 1222 34.9571
95.4637 1307 36.1525
95.5805 1280 35.7771
95.6973 1303 36.0971
95.8142 1425 37.7492
95.9311 1271 35.6511
96.048 1344 36.6606
96.1649 1235 35.1426
96.2819 1284 35.8329
96.3989 1212 34.8138
96.516 1262 35.5246
96.633 1126 33.5559
96.7501 1029 32.078
96.8673 1008 31.749
96.9844 1089 33
97.1016 1177 34.3074
97.2188 1200 34.641
97.336 1245 35.2846
97.4532 1453 38.1182
97.5704 1401 37.4299
97.6877 1350 36.7423
97.805 1346 36.6879
97.9223 1285 35.8469
98.0396 1072 32.7414
98.1569 1052 32.4345
98.2743 1010 31.7805
98.3916 1027 32.0468
98.509 1013 31.8277
98.6264 1188 34.4674
98.7438 1176 34.2929
98.8612 1229 35.0571
98.9786 1373 37.054
99.096 1429 37.8021
99.2134 1403 37.4566
99.3308 1406 37.4967
99.4482 1411 37.5633
99.5656 1441 37.9605
99.6831 1381 37.1618
99.8005 1306 36.1386
99.9179 1406 37.4967
100.035 1345 36.6742
100.153 1265 35.5668
100.27 1160 34.0588
100.388 1123 33.5112
100.505 1141 33.7787
100.622 1276 35.7211
100.74 1329 36.4555
100.857 1360 36.8782
100.975 1405 37.4833
101.092 1419 37.6696
101.209 1389 37.2693
101.327 1412 37.5766
101.444 1415 37.6165
101.561 1298 36.0278
101.679 1192 34.5254
101.796 1044 32.311
101.913 984 31.3688
102.03 1020 31.9374
102.148 1142 33.7935
102.265 1187 34.4529
102.382 1328 36.4417
102.499 1367 36.973
102.616 1415 37.6165
102.733 1470 38.3406
102.851 1427 37.7757
102.968 1494 38.6523
103.085 1440 37.9473
103.202 1477 38.4318
103.319 1439 37.9342
103.436 1458 38.1838
103.552 1337 36.565
103.669 1311 36.2077
103.786 1283 35.819
103.903 1159 34.0441
104.02 1210 34.7851
104.137 1376 37.0945
104.253 1363 36.9188
104.37 1503 38.7685
104.487 1491 38.6135
104.603 1526 39.064
104.72 1494 38.6523
104.836 1452 38.1051
104.953 1336 36.5513
105.069 1228 35.0428
105.186 1110 33.3167
105.302 999 31.607
105.418 896 29.9333
105.535 909 30.1496
105.651 980 31.305
105.767 916 30.2655
105.883 991 31.4802
105.999 939 30.6431
106.115 0 1
106.231 0 1
106.347 0 1
106.463 0 1
106.579 0 1
106.694 0 1
106.81 0 1
106.926 0 1
107.041 0 1
107.157 0 1
109.576 0 1
109.692 0 1
109.807 0 1
109.923 0 1
110.039 0 1
110.155 0 1
110.27 0 1
110.386 0 1
110.502 0 1
110.618 563 23.7276
110.735 771 27.7669
110.851 909 30.1496
110.967 1054 32.4654
111.083 1221 34.9428
111.199 1186 34.4384
111.316 1336 36.5513
111.432 1356 36.8239
111.549 1397 37.3765
111.665 1378 37.1214
111.782 1385 37.2156
111.898 1379 37.1349
112.015 1344 36.6606
112.132 1231 35.0856
112.248 1195 34.5688
112.365 1182 34.3802
112.482 1070 32.7109
112.599 1202 34.6699
112.716 1228 35.0428
112.832 1401 37.4299
112.949 1367 36.973
113.066 1448 38.0526
113.183 1392 37.3095
113.3 1455 38.1445
113.417 1374 37.0675
113.534 1316 36.2767
113.652 1226 35.0143
113.769 1150 33.9116
113.886 1087 32.9697
114.003 1038 32.218
114.12 1071 32.7261
114.238 1216 34.8712
114.355 1262 35.5246
114.472 1230 35.0714
114.589 1424 37.7359
114.707 1400 37.4166
114.824 1408 37.5233
114.942 1439 37.9342
115.059 1489 38.5876
115.176 1463 38.2492
115.294 1492 38.6264
115.411 1493 38.6394
115.529 1404 37.47
115.646 1320 36.3318
115.764 1250 35.3553
115.881 1241 35.2278
115.999 1252 35.3836
116.116 1219 34.9142
116.234 1262 35.5246
116.351 1339 36.5923
116.469 1430 37.8153
116.586 1495 38.6652
116.704 1433 37.855
116.821 1437 37.9078
116.939 1438 37.921
117.056 1409 37.5366
117.174 1331 36.4829
117.291 1201 34.6554
117.409 1131 33.6303
117.526 1012 31.8119
117.644 1029 32.078
117.761 1126 33.5559
117.879 1218 34.8999
117.996 1332 36.4966
118.114 1309 36.1801
118.231 1332 36.4966
118.349 1321 36.3456
118.466 1371 37.027
118.584 1367 36.973
118.701 1434 37.8682
118.819 1394 37.3363
118.936 1351 36.756
119.053 1346 36.6879
119.171 1260 35.4965
119.288 1251 35.3695
119.405 1159 34.0441
119.523 1062 32.5883
119.64 1113 33.3617
119.757 1087 32.9697
119.875 1127 33.5708
119.992 1204 34.6987
120.109 1321 36.3456
120.226 1343 36.647
120.343 1294 35.9722
120.46 1339 36.5923
120.578 1357 36.8375
120.695 1277 35.7351
120.812 1257 35.4542
120.929 1155 33.9853
121.046 1028 32.0624
121.163 964 31.0483
121.279 954 30.8869
121.396 932 30.5287
121.513 980 31.305
121.63 1026 32.0312
121.747 1120 33.4664
121.863 1042 32.28
121.98 1063 32.6037
122.097 1051 32.4191
122.213 1036 32.187
122.33 998 31.5911
122.446 946 30.7571
122.563 981 31.3209
122.679 906 30.0998
122.795 813 28.5132
122.912 723 26.8887
123.028 655 25.593
123.144 556 23.5797
123.26 547 23.388
123.377 0 1
123.493 0 1
123.609 0 1
123.725 0 1
123.84 0 1
123.956 0 1
124.072 0 1
124.188 0 1
124.303 0 1
124.419 0 1
126.852 0 1
126.968 0 1
127.083 0 1
127.199 0 1
127.315 0 1
127.431 0 1
127.547 0 1
127.663 0 1
127.779 0 1
127.895 0 1
128.011 0 1
128.127 0 1
128.243 0 1
128.359 1189 34.4819
128.476 1211 34.7994
128.592 1222 34.9571
128.708 1197 34.5977
128.825 1249 35.3412
128.941 1276 35.7211
129.058 1296 36
129.174 1383 37.1887
129.291 1392 37.3095
129.408 1483 38.5097
129.524 1357 36.8375
129.641 1424 37.7359
129.758 1437 37.9078
129.875 1322 36.3593
129.992 1258 35.4683
130.108 1170 34.2053
130.225 1075 32.7872
130.342 985 31.3847
130.459 1077 32.8177
130.576 1271 35.6511
130.693 1300 36.0555
130.81 1301 36.0694
130.928 1362 36.9053
131.045 1350 36.7423
131.162 1346 36.6879
131.279 1429 37.8021
131.396 1436 37.8946
131.513 1390 37.2827
131.631 1366 36.9594
131.748 1404 37.47
131.865 1357 36.8375
131.983 1275 35.7071
132.1 1229 35.0571
132.217 1195 34.5688
132.335 1135 33.6898
132.452 1217 34.8855
132.57 1359 36.8646
132.687 1438 37.921
132.804 1457 38.1707
132.922 1439 37.9342
133.039 1425 37.7492
133.157 1498 38.704
133.274 1415 37.6165
133.392 1325 36.4005
133.509 1228 35.0428
133.627 1224 34.9857
133.744 1170 34.2053
133.862 1139 33.7491
133.979 1111 33.3317
134.097 1199 34.6266
134.214 1295 35.9861
134.332 1360 36.8782
134.449 1386 37.229
134.567 1431 37.8286
134.684 1446 38.0263
134.802 1440 37.9473
134.919 1448 38.0526
135.037 1502 38.7556
135.154 1448 38.0526
135.272 1395 37.3497
135.389 1451 38.092
135.507 1370 37.0135
135.624 1283 35.819
135.742 1230 35.0714
135.859 1276 35.7211
135.977 1300 36.0555
136.094 1328 36.4417
136.211 1409 37.5366
136.329 1413 37.5899
136.446 1416 37.6298
136.564 1467 38.3014
136.681 1453 38.1182
136.798 1449 38.0657
136.915 1420 37.6829
137.033 1443 37.9868
137.15 1297 36.0139
137.267 1293 35.9583
137.384 1122 33.4963
137.502 1102 33.1964
137.619 1042 32.28
137.736 1226 35.0143
137.853 1236 35.1568
137.97 1299 36.0416
138.087 1351 36.756
138.204 1444 38
138.321 1377 37.108
138.438 1406 37.4967
138.555 1461 38.223
138.672 1399 37.4032
138.788 1370 37.0135
138.905 1296 36
139.022 1198 34.6121
139.139 1109 33.3017
139.255 1105 33.2415
139.372 1055 32.4808
139.488 992 31.496
139.605 918 30.2985
139.721 961 31
139.838 941 30.6757
139.954 978 31.273
140.071 878 29.6311
140.187 842 29.0172
140.303 752 27.4226
140.419 750 27.3861
140.535 699 26.4386
140.652 679 26.0576
140.768 0 1
140.884 0 1
141 0 1
141.115 0 1
141.231 0 1
141.347 0 1
141.463 0 1
141.578 0 1
141.694 0 1
144.104 0 1
144.219 0 1
144.335 0 1
144.45 0 1
144.566 0 1
144.682 0 1
144.798 0 1
144.914 0 1
145.03 0 1
145.146 1019 31.9218
145.262 1132 33.6452
145.378 1149 33.8969
145.494 1151 33.9264
145.61 1157 34.0147
145.726 1136 33.7046
145.842 1097 33.121
145.959 1049 32.3883
146.075 980 31.305
146.192 902 30.0333
146.308 962 31.0161
146.425 910 30.1662
146.541 953 30.8707
146.658 965 31.0644
146.774 1057 32.5115
146.891 1067 32.665
147.008 1113 33.3617
147.125 1099 33.1512
147.241 1088 32.9848
147.358 1166 34.1467
147.475 1130 33.6155
147.592 1087 32.9697
147.709 1100 33.1662
147.826 1142 33.7935
147.943 1055 32.4808
148.06 996 31.5595
148.177 997 31.5753
148.294 947 30.7734
148.411 1041 32.2645
148.528 1056 32.4962
148.645 1100 33.1662
148.762 1150 33.9116
148.88 1149 33.8969
148.997 1134 33.6749
149.114 1201 34.6554
149.231 1177 34.3074
149.349 1176 34.2929
149.466 1142 33.7935
149.583 1085 32.9393
149.701 961 31
149.818 914 30.2324
149.935 916 30.2655
150.053 947 30.7734
150.17 903 30.05
150.287 980 31.305
150.405 996 31.5595
150.522 1038 32.218
150.64 1060 32.5576
150.757 1076 32.8024
150.875 1091 33.0303
150.992 1083 32.909
151.11 1126 33.5559
151.227 1077 32.8177
151.344 1162 34.0881
151.462 1024 32
151.579 1068 32.6803
151.697 960 30.9839
151.814 1000 31.6228
151.932 962 31.0161
152.049 945 30.7409
152.167 955 30.9031
152.284 1009 31.7648
152.402 1032 32.1248
152.519 1128 33.5857
152.636 1109 33.3017
152.754 1057 32.5115
152.871 1051 32.4191
152.989 1061 32.573
153.106 1060 32.5576
153.223 1004 31.686
153.341 922 30.3645
153.458 835 28.8964
153.575 860 29.3258
153.693 889 29.8161
153.81 922 30.3645
153.927 957 30.9354
154.044 952 30.8545
154.162 947 30.7734
154.279 932 30.5287
154.396 966 31.0805
154.513 1007 31.7333
154.63 1031 32.1092
154.747 1004 31.686
154.864 1012 31.8119
154.981 1012 31.8119
155.098 981 31.3209
155.215 959 30.9677
155.332 892 29.8664
155.449 914 30.2324
155.566 889 29.8161
155.683 902 30.0333
155.8 909 30.1496
155.917 903 30.05
156.033 963 31.0322
156.15 0 1
156.267 0 1
156.383 0 1
156.5 0 1
156.617 0 1
156.733 0 1
156.85 0 1
156.966 0 1
157.082 0 1
157.199 0 1
157.315 0 1
157.431 0 1
157.547 0 1
157.664 0 1
157.78 0 1
157.896 0 1
158.012 0 1
158.128 0 1
158.244 0 1
158.359 0 1
158.475 0 1
158.591 0 1
158.706 0 1
