
6.15755 0 1
6.2731 0 1
6.3887 0 1
6.50437 0 1
6.62009 0 1
6.73587 0 1
6.8517 0 1
6.96759 0 1
7.08353 0 1
7.19952 0 1
7.31557 0 1
7.43166 0 1
7.54781 0 1
7.664 0 1
7.78024 0 1
7.89653 0 1
8.01286 0 1
8.12924 0 1
8.24567 0 1
8.36213 0 1
8.47864 0 1
8.59519 0 1
8.71178 0 1
8.82841 0 1
8.94508 0 1
9.06179 0 1
9.17853 0 1
9.29531 0 1
9.41212 0 1
9.52897 0 1
9.64584 0 1
9.76276 0 1
9.8797 0 1
9.99667 0 1
10.1137 0 1
10.2307 0 1
10.3478 0 1
10.4648 0 1
10.5819 0 1
10.6991 0 1
10.8162 0 1
10.9334 0 1
11.0506 0 1
11.1678 0 1
11.285 0 1
11.4023 0 1
11.5196 0 1
11.6369 0 1
11.7542 0 1
11.8715 0 1
11.9888 0 1
12.1062 0 1
12.2235 0 1
12.3409 0 1
12.4582 0 1
12.5756 0 1
12.693 0 1
12.8104 0 1
12.9278 0 1
13.0452 0 1
13.1626 0 1
13.28 0 1
13.3974 0 1
13.5149 0 1
13.6323 0 1
13.7497 0 1
13.8671 0 1
13.9845 0 1
14.1019 0 1
14.2193 0 1
14.3367 0 1
14.4541 0 1
14.5714 0 1
14.6888 0 1
14.8062 0 1
14.9235 0 1
15.0408 4519 67.2235
15.1581 4671 68.3447
15.2755 4676 68.3813
15.3927 4766 69.0362
15.51 4703 68.5784
15.6273 4633 68.0661
15.7445 4792 69.2243
15.8617 4776 69.1086
15.9789 4856 69.685
16.0961 4957 70.406
16.2132 4934 70.2424
16.3304 5138 71.6798
16.4475 5276 72.6361
16.5646 5401 73.4915
16.6816 5543 74.4513
16.7986 5854 76.5114
16.9156 5872 76.629
17.0326 6039 77.711
17.1496 6215 78.8353
17.2665 6284 79.2717
17.3833 6301 79.3788
17.5002 6421 80.1311
17.617 6375 79.8436
17.7338 6316 79.4733
17.8505 6238 78.981
17.9672 5733 75.7166
18.0839 5707 75.5447
18.2005 5931 77.013
18.3171 6117 78.2113
18.4337 6424 80.1499
18.5502 6615 81.3327
18.6666 6730 82.0366
18.7831 6880 82.9458
18.8994 6655 81.5782
19.0158 6610 81.3019
19.1321 6493 80.5792
19.2483 6409 80.0562
19.3645 6256 79.0949
19.4806 6167 78.5302
19.5967 6071 77.9166
19.7128 6057 77.8267
19.8288 5995 77.4274
19.9447 5186 72.0139
20.0606 0 1
20.1764 0 1
20.2922 0 1
20.4079 0 1
20.5236 0 1
20.6392 0 1
20.7548 0 1
20.8702 0 1
23.3078 0 1
23.4233 0 1
23.539 0 1
23.6547 0 1
23.7704 0 1
23.8862 0 1
24.0021 0 1
24.118 0 1
24.234 0 1
24.35 0 1
24.4661 6322 79.511
24.5822 6433 80.206
24.6984 6276 79.2212
24.8146 6252 79.0696
24.9309 5969 77.2593
25.0472 6196 78.7147
25.1636 6173 78.5684
25.28 6256 79.0949
25.3965 6705 81.8841
25.513 6714 81.939
25.6296 7020 83.7854
25.7462 7154 84.5813
25.8628 7201 84.8587
25.9795 7196 84.8292
26.0962 7303 85.4576
26.213 7159 84.6109
26.3298 7179 84.729
26.4466 6663 81.6272
26.5635 6296 79.3473
26.6804 6252 79.0696
26.7973 6470 80.4363
26.9143 6686 81.768
27.0313 6770 82.28
27.1483 6969 83.4805
27.2653 7047 83.9464
27.3824 7133 84.4571
27.4996 7203 84.8705
27.6167 7035 83.8749
27.7339 6935 83.2766
27.8511 6508 80.6722
27.9683 6587 81.1603
28.0855 6537 80.8517
28.2028 6442 80.2621
28.3201 6309 79.4292
28.4374 6297 79.3536
28.5547 6256 79.0949
28.6721 6240 78.9937
28.7894 6326 79.5362
28.9068 6424 80.1499
29.0242 6491 80.5667
29.1416 6900 83.0662
29.259 6818 82.5712
29.3764 6989 83.6002
29.4939 7001 83.672
29.6113 7009 83.7198
29.7288 6913 83.1445
29.8463 6902 83.0783
29.9638 6476 80.4736
30.0812 6070 77.9102
30.1987 6003 77.479
30.3162 5984 77.3563
30.4337 6176 78.5875
30.5512 6614 81.3265
30.6687 6535 80.8393
30.7862 6846 82.7406
30.9037 6927 83.2286
31.0212 6798 82.45
31.1387 6913 83.1445
31.2562 6743 82.1158
31.3737 6669 81.6639
31.4912 6584 81.1419
31.6087 6396 79.975
31.7262 6224 78.8923
31.8436 6203 78.7591
31.9611 5946 77.1103
32.0785 6049 77.7753
32.1959 6143 78.3773
32.3134 6228 78.9177
32.4308 6230 78.9303
32.5482 6453 80.3306
32.6655 6718 81.9634
32.7829 6834 82.668
32.9002 6828 82.6317
33.0176 6705 81.8841
33.1349 6953 83.3847
33.2522 7053 83.9821
33.3694 6833 82.662
33.4867 6632 81.4371
33.6039 6195 78.7083
33.7211 5612 74.9133
33.8383 5667 75.2795
33.9554 5702 75.5116
34.0725 6009 77.5177
34.1896 6127 78.2752
34.3067 6334 79.5864
34.4237 6435 80.2185
34.5407 6401 80.0062
34.6577 6351 79.6932
34.7746 6522 80.7589
34.8915 6494 80.5854
35.0084 6588 81.1665
35.1252 6357 79.7308
35.242 6253 79.0759
35.3587 6087 78.0192
35.4755 5921 76.948
35.5921 5976 77.3046
35.7088 5780 76.0263
35.8254 5776 76
35.9419 5698 75.4851
36.0584 6064 77.8717
36.1749 6023 77.608
36.2913 6246 79.0316
36.4077 6274 79.2086
36.524 6404 80.025
36.6403 6681 81.7374
36.7565 6564 81.0185
36.8727 6615 81.3327
36.9889 6519 80.7403
37.1049 6204 78.7655
37.221 0 1
37.3369 0 1
37.4529 0 1
37.5687 0 1
37.6845 0 1
37.8003 0 1
37.916 0 1
38.0316 0 1
38.1472 0 1
40.5851 0 1
40.7008 0 1
40.8164 0 1
40.9322 0 1
41.048 0 1
41.1639 0 1
41.2798 0 1
41.3958 0 1
41.5118 0 1
41.6279 0 1
41.744 4976 70.5408
41.8602 5340 73.0753
41.9765 5543 74.4513
42.0928 5651 75.1731
42.2091 5641 75.1066
42.3255 5109 71.4773
42.4419 4905 70.0357
42.5584 4557 67.5056
42.675 4398 66.3174
42.7915 4416 66.453
42.9081 4714 68.6586
43.0248 4868 69.7711
43.1415 4981 70.5762
43.2582 5042 71.007
43.375 5115 71.5192
43.4918 5192 72.0555
43.6087 5080 71.2741
43.7256 5103 71.4353
43.8425 5078 71.2601
43.9595 4848 69.6276
44.0765 4856 69.685
44.1935 4742 68.8622
44.3106 4634 68.0735
44.4277 4394 66.2873
44.5448 4295 65.5362
44.6619 4170 64.5755
44.7791 4089 63.9453
44.8963 4136 64.3117
45.0136 4216 64.9307
45.1308 4354 65.9848
45.2481 4532 67.3201
45.3654 4496 67.0522
45.4827 4332 65.8179
45.6001 4522 67.2458
45.7174 4490 67.0075
45.8348 4284 65.4523
45.9522 3897 62.426
46.0697 3649 60.407
46.1871 3357 57.9396
46.3046 3302 57.463
46.422 3336 57.7581
46.5395 3525 59.3717
46.657 3827 61.8628
46.7745 3747 61.2127
46.892 3917 62.5859
47.0096 3933 62.7136
47.1271 3999 63.2376
47.2446 3819 61.7981
47.3622 3872 62.2254
47.4797 3944 62.8013
47.5973 3804 61.6766
47.7149 3724 61.0246
47.8324 3664 60.531
47.95 3463 58.8473
48.0675 3429 58.5577
48.1851 3349 57.8705
48.3027 3264 57.1314
48.4202 3339 57.7841
48.5378 3380 58.1378
48.6554 3598 59.9833
48.7729 3689 60.7371
48.8904 3810 61.7252
49.008 3788 61.5467
49.1255 3658 60.4814
49.243 3731 61.0819
49.3605 3691 60.7536
49.478 3222 56.7627
49.5955 3082 55.5158
49.713 2927 54.1018
49.8304 2820 53.1037
49.9479 2956 54.3691
50.0653 3225 56.7891
50.1827 3443 58.6771
50.3001 3686 60.7124
50.4175 3739 61.1474
50.5348 3851 62.0564
50.6521 3966 62.9762
50.7694 3930 62.6897
50.8867 4073 63.8201
51.004 4062 63.7338
51.1212 4148 64.405
51.2384 4118 64.1716
51.3556 4277 65.3988
51.4727 4080 63.8749
51.5899 4129 64.2573
51.707 3999 63.2376
51.824 4000 63.2456
51.9411 4084 63.9062
52.0581 4233 65.0615
52.175 4448 66.6933
52.2919 4671 68.3447
52.4088 4700 68.5565
52.5257 4788 69.1954
52.6425 4819 69.419
52.7593 4773 69.0869
52.876 4882 69.8713
52.9927 4620 67.9706
53.1094 4428 66.5432
53.226 4115 64.1483
53.3426 3777 61.4573
53.4591 3912 62.546
53.5756 4027 63.4586
53.692 4327 65.7799
53.8084 4655 68.2276
53.9248 4855 69.6778
54.0411 5032 70.9366
54.1573 5136 71.6659
54.2735 0 1
54.3896 0 1
54.5057 0 1
54.6217 0 1
54.7377 0 1
54.8537 0 1
54.9695 0 1
55.0853 0 1
55.2011 0 1
55.3168 0 1
55.4324 0 1
57.824 0 1
57.9396 0 1
58.0553 0 1
58.1711 0 1
58.2869 0 1
58.4028 0 1
58.5187 0 1
58.6347 0 1
58.7508 0 1
58.8669 0 1
58.983 5430 73.6885
59.0992 5736 75.7364
59.2155 6116 78.2049
59.3318 6418 80.1124
59.4482 6306 79.4103
59.5646 6384 79.8999
59.681 6429 80.181
59.7975 6511 80.6908
59.9141 6276 79.2212
60.0306 6273 79.2023
60.1473 6008 77.5113
60.2639 5916 76.9155
60.3807 5786 76.0658
60.4974 5662 75.2463
60.6142 5468 73.9459
60.731 5770 75.9605
60.8479 5743 75.7826
60.9648 5921 76.948
61.0818 6105 78.1345
61.1987 6113 78.1857
61.3158 6082 77.9872
61.4328 5995 77.4274
61.5499 5705 75.5315
61.667 5340 73.0753
61.7841 4926 70.1855
61.9013 4770 69.0652
62.0185 4529 67.2978
62.1357 4874 69.814
62.253 4963 70.4486
62.3702 5311 72.8766
62.4875 5569 74.6257
62.6049 5663 75.2529
62.7222 5830 76.3544
62.8396 5934 77.0325
62.9569 6020 77.5887
63.0743 6127 78.2752
63.1918 6179 78.6066
63.3092 6249 79.0506
63.4267 6114 78.1921
63.5441 5803 76.1774
63.6616 5838 76.4068
63.7791 5724 75.6571
63.8966 5373 73.3008
64.0142 5208 72.1665
64.1317 5121 71.5612
64.2492 5348 73.13
64.3668 5594 74.793
64.4843 5716 75.6042
64.6019 5946 77.1103
64.7195 5865 76.5833
64.837 5935 77.039
64.9546 5864 76.5768
65.0722 5668 75.2861
65.1898 5383 73.3689
65.3074 4776 69.1086
65.4249 4507 67.1342
65.5425 4392 66.2722
65.6601 4193 64.7534
65.7777 4519 67.2235
65.8952 4862 69.728
66.0128 5092 71.3583
66.1304 5419 73.6139
66.2479 5615 74.9333
66.3655 5779 76.0197
66.483 5998 77.4468
66.6005 6073 77.9295
66.718 6061 77.8524
66.8355 6076 77.9487
66.953 5936 77.0454
67.0705 5903 76.831
67.1879 5969 77.2593
67.3054 5721 75.6373
67.4228 5527 74.3438
67.5402 5231 72.3257
67.6576 5009 70.7743
67.7749 4932 70.2282
67.8923 5383 73.3689
68.0096 5456 73.8647
68.1269 5711 75.5712
68.2442 5727 75.6769
68.3614 5892 76.7594
68.4787 5853 76.5049
68.5958 6008 77.5113
68.713 5825 76.3217
68.8302 5376 73.3212
68.9473 5031 70.9295
69.0643 4668 68.3228
69.1814 4446 66.6783
69.2984 4286 65.4675
69.4154 4580 67.6757
69.5323 4958 70.4131
69.6492 5420 73.6206
69.7661 5722 75.6439
69.8829 5963 77.2205
69.9997 6104 78.1281
70.1165 6318 79.4858
70.2332 6419 80.1187
70.3499 6314 79.4607
70.4665 6409 80.0562
70.5831 6387 79.9187
70.6996 6339 79.6178
70.8161 6264 79.1454
70.9326 6144 78.3837
71.049 5887 76.7268
71.1653 5583 74.7195
71.2817 5230 72.3187
71.3979 4991 70.647
71.5141 5006 70.7531
71.6303 5176 71.9444
71.7464 5102 71.4283
71.8624 0 1
71.9784 0 1
72.0944 0 1
72.2102 0 1
72.3261 0 1
72.4418 0 1
72.5575 0 1
72.6732 0 1
75.1054 0 1
75.2209 0 1
75.3365 0 1
75.4521 0 1
75.5678 0 1
75.6835 0 1
75.7993 0 1
75.9151 0 1
76.031 0 1
76.147 5345 73.1095
76.263 5714 75.591
76.3791 5591 74.773
76.4952 5133 71.645
76.6113 5088 71.3302
76.7276 5453 73.8444
76.8438 5732 75.71
76.9601 6164 78.5111
77.0765 6299 79.3662
77.1929 6383 79.8937
77.3093 6277 79.2275
77.4258 6358 79.7371
77.5423 5950 77.1362
77.6589 5510 74.2294
77.7755 5005 70.746
77.8921 4783 69.1592
78.0088 4517 67.2086
78.1256 4263 65.2917
78.2423 4440 66.6333
78.3591 4761 69
78.4759 5324 72.9657
78.5928 5525 74.3303
78.7097 5854 76.5114
78.8266 6056 77.8203
78.9436 6269 79.177
79.0606 6568 81.0432
79.1776 6464 80.399
79.2946 6469 80.4301
79.4117 6574 81.0802
79.5288 6562 81.0062
79.6459 6358 79.7371
79.7631 6187 78.6575
79.8802 5979 77.324
79.9974 5623 74.9867
80.1147 5155 71.7983
80.2319 5176 71.9444
80.3491 5544 74.458
80.4664 5674 75.326
80.5837 5984 77.3563
80.701 6035 77.6853
80.8183 6253 79.0759
80.9357 6068 77.8974
81.053 6207 78.7845
81.1704 6016 77.5629
81.2877 5729 75.6902
81.4051 5182 71.9861
81.5225 4765 69.029
81.6399 4505 67.1193
81.7573 4368 66.0908
81.8747 4313 65.6734
81.9922 4697 68.5347
82.1096 5238 72.374
82.227 5592 74.7797
82.3444 5739 75.7562
82.4619 6314 79.4607
82.5793 6240 78.9937
82.6967 6343 79.643
82.8142 6454 80.3368
82.9316 6449 80.3057
83.049 6379 79.8686
83.1664 6358 79.7371
83.2838 6325 79.5299
83.4012 6150 78.4219
83.5186 5700 75.4983
83.636 5566 74.6056
83.7534 5206 72.1526
83.8708 5104 71.4423
83.9881 5425 73.6546
84.1055 5786 76.0658
84.2228 6238 78.981
84.3401 6260 79.1202
84.4575 6188 78.6638
84.5747 6421 80.1311
84.692 6286 79.2843
84.8093 5718 75.6175
84.9265 5285 72.698
85.0437 4941 70.2922
85.1609 4631 68.0515
85.2781 4443 66.6558
85.3952 4425 66.5207
85.5123 4740 68.8477
85.6294 5134 71.6519
85.7465 5614 74.9266
85.8636 5942 77.0844
85.9806 6069 77.9038
86.0976 6257 79.1012
86.2145 6395 79.9687
86.3315 6528 80.796
86.4484 6788 82.3893
86.5652 6769 82.2739
86.682 6866 82.8613
86.7988 6735 82.067
86.9156 6757 82.201
87.0323 6575 81.0864
87.149 6140 78.3582
87.2657 5817 76.2693
87.3823 5488 74.081
87.4988 5601 74.8398
87.6154 6005 77.4919
87.7318 6481 80.5047
87.8483 6580 81.1172
87.9647 6827 82.6257
88.081 6502 80.635
88.1973 6685 81.7618
88.3136 6369 79.806
88.4298 5857 76.531
88.546 5443 73.7767
88.6621 4979 70.562
88.7781 4718 68.6877
88.8942 0 1
89.0101 0 1
89.126 0 1
89.2419 0 1
89.3577 0 1
89.4734 0 1
89.5891 0 1
89.7047 0 1
89.8203 0 1
89.9358 0 1
92.3269 0 1
92.4424 0 1
92.558 0 1
92.6736 0 1
92.7893 0 1
92.905 0 1
93.0208 0 1
93.1366 0 1
93.2525 0 1
93.3685 0 1
93.4845 0 1
93.6005 5532 74.3774
93.7167 5253 72.4776
93.8328 5025 70.8872
93.949 4716 68.6731
94.0653 4641 68.1249
94.1816 4722 68.7168
94.2979 4767 69.0435
94.4143 5193 72.0625
94.5307 5625 75
94.6472 5850 76.4853
94.7637 6038 77.7046
94.8803 6153 78.4411
94.9969 6391 79.9437
95.1135 6621 81.3695
95.2302 6733 82.0549
95.3469 6648 81.5353
95.4637 6807 82.5045
95.5805 6826 82.6196
95.6973 6937 83.2887
95.8142 6762 82.2314
95.9311 6682 81.7435
96.048 6252 79.0696
96.1649 5912 76.8895
96.2819 5702 75.5116
96.3989 5444 73.7835
96.516 5748 75.8156
96.633 6230 78.9303
96.7501 6425 80.1561
96.8673 6547 80.9135
96.9844 6492 80.5729
97.1016 6492 80.5729
97.2188 6356 79.7245
97.336 5987 77.3757
97.4532 5483 74.0473
97.5704 5165 71.8679
97.6877 4834 69.527
97.805 4700 68.5565
97.9223 4687 68.4617
98.0396 4633 68.0661
98.1569 5121 71.5612
98.2743 5638 75.0866
98.3916 5804 76.184
98.509 6177 78.5939
98.6264 6221 78.8733
98.7438 6307 79.4166
98.8612 6438 80.2371
98.9786 6644 81.5107
99.096 6610 81.3019
99.2134 6667 81.6517
99.3308 6724 82
99.4482 6518 80.7341
99.5656 6451 80.3181
99.6831 6291 79.3158
99.8005 5904 76.8375
99.9179 5665 75.2662
100.035 5616 74.94
100.153 5815 76.2561
100.27 6291 79.3158
100.388 6435 80.2185
100.505 6279 79.2401
100.622 6521 80.7527
100.74 6330 79.5613
100.857 6246 79.0316
100.975 5821 76.2955
101.092 5475 73.9932
101.209 5142 71.7077
101.327 4883 69.8785
101.444 4777 69.1158
101.561 4654 68.2202
101.679 5074 71.232
101.796 5382 73.3621
101.913 5723 75.6505
102.03 5964 77.2269
102.148 6376 79.8499
102.265 6028 77.6402
102.382 7099 84.2556
102.499 6787 82.3833
102.616 6679 81.7251
102.733 6994 83.6301
102.851 7056 84
102.968 7165 84.6463
103.085 7153 84.5754
103.202 6723 81.9939
103.319 6583 81.1357
103.436 5957 77.1816
103.552 5926 76.9805
103.669 6310 79.4355
103.786 6563 81.0123
103.903 6910 83.1264
104.02 7153 84.5754
104.137 6944 83.3307
104.253 6961 83.4326
104.37 6757 82.201
104.487 6530 80.8084
104.603 5954 77.1622
104.72 5565 74.5989
104.836 5256 72.4983
104.953 4987 70.6187
105.069 5186 72.0139
105.186 5390 73.4166
105.302 5902 76.8245
105.418 6340 79.6241
105.535 6563 81.0123
105.651 6932 83.2586
105.767 7109 84.3149
105.883 7334 85.6388
105.999 7286 85.3581
106.115 0 1
106.231 0 1
106.347 0 1
106.463 0 1
106.579 0 1
106.694 0 1
106.81 0 1
106.926 0 1
107.041 0 1
107.157 0 1
109.576 0 1
109.692 0 1
109.807 0 1
109.923 0 1
110.039 0 1
110.155 0 1
110.27 0 1
110.386 0 1
110.502 0 1
110.618 5856 76.5245
110.735 6093 78.0577
110.851 6263 79.1391
110.967 6285 79.278
111.083 6447 80.2932
111.199 6361 79.7559
111.316 6622 81.3757
111.432 6390 79.9375
111.549 6479 80.4922
111.665 6308 79.4229
111.782 5914 76.9025
111.898 5710 75.5645
112.015 5319 72.9315
112.132 5439 73.7496
112.248 5729 75.6902
112.365 6032 77.666
112.482 6021 77.5951
112.599 5874 76.642
112.716 5891 76.7529
112.832 5729 75.6902
112.949 5290 72.7324
113.066 4920 70.1427
113.183 4750 68.9202
113.3 4402 66.3476
113.417 4199 64.7997
113.534 3975 63.0476
113.652 4189 64.7225
113.769 4345 65.9166
113.886 4469 66.8506
114.003 4797 69.2604
114.12 5082 71.2881
114.238 5042 71.007
114.355 5167 71.8818
114.472 5174 71.9305
114.589 5122 71.5681
114.707 5126 71.5961
114.824 5220 72.2496
114.942 5283 72.6842
115.059 5217 72.2288
115.176 5036 70.9648
115.294 4758 68.9783
115.411 4418 66.468
115.529 4201 64.8151
115.646 4106 64.0781
115.764 4277 65.3988
115.881 4493 67.0298
115.999 4470 66.8581
116.116 4517 67.2086
116.234 4471 66.8655
116.351 4423 66.5056
116.469 4240 65.1153
116.586 3856 62.0967
116.704 3690 60.7454
116.821 3468 58.8897
116.939 3253 57.0351
117.056 3163 56.2406
117.174 3181 56.4004
117.291 3208 56.6392
117.409 3478 58.9746
117.526 3581 59.8415
117.644 3758 61.3025
117.761 3913 62.554
117.879 4068 63.7809
117.996 4122 64.2028
118.114 4183 64.6761
118.231 4240 65.1153
118.349 4176 64.622
118.466 4236 65.0846
118.584 4387 66.2344
118.701 4243 65.1383
118.819 4095 63.9922
118.936 4126 64.2339
119.053 3878 62.2736
119.171 3628 60.2329
119.288 3837 61.9435
119.405 4014 63.3561
119.523 4088 63.9375
119.64 4143 64.3661
119.757 4328 65.7875
119.875 4302 65.5896
119.992 4354 65.9848
120.109 4209 64.8768
120.226 3859 62.1208
120.343 3746 61.2046
120.46 3658 60.4814
120.578 3523 59.3549
120.695 3467 58.8812
120.812 3424 58.515
120.929 3522 59.3464
121.046 3717 60.9672
121.163 3940 62.7694
121.279 3982 63.1031
121.396 4312 65.6658
121.513 4331 65.8103
121.63 4424 66.5132
121.747 4726 68.7459
121.863 4590 67.7495
121.98 4821 69.4334
122.097 4669 68.3301
122.213 4955 70.3918
122.33 4964 70.4557
122.446 4965 70.4628
122.563 4827 69.4766
122.679 4771 69.0724
122.795 4469 66.8506
122.912 4415 66.4455
123.028 4756 68.9638
123.144 4787 69.1881
123.26 5074 71.232
123.377 0 1
123.493 0 1
123.609 0 1
123.725 0 1
123.84 0 1
123.956 0 1
124.072 0 1
124.188 0 1
124.303 0 1
124.419 0 1
126.852 0 1
126.968 0 1
127.083 0 1
127.199 0 1
127.315 0 1
127.431 0 1
127.547 0 1
127.663 0 1
127.779 0 1
127.895 0 1
128.011 0 1
128.127 0 1
128.243 0 1
128.359 5382 73.3621
128.476 5576 74.6726
128.592 6026 77.6273
128.708 6038 77.7046
128.825 6059 77.8396
128.941 6073 77.9295
129.058 6028 77.6402
129.174 5672 75.3127
129.291 5417 73.6003
129.408 5131 71.631
129.524 4950 70.3562
129.641 4761 69
129.758 4598 67.8086
129.875 4630 68.0441
129.992 4464 66.8132
130.108 4735 68.8113
130.225 4848 69.6276
130.342 5083 71.2952
130.459 5140 71.6938
130.576 5103 71.4353
130.693 5286 72.7049
130.81 5268 72.581
130.928 5394 73.4439
131.045 5334 73.0342
131.162 5426 73.6614
131.279 5412 73.5663
131.396 5375 73.3144
131.513 5389 73.4098
131.631 5238 72.374
131.748 4821 69.4334
131.865 4757 68.971
131.983 4963 70.4486
132.1 5158 71.8192
132.217 5257 72.5052
132.335 5377 73.328
132.452 5363 73.2325
132.57 5046 71.0352
132.687 4881 69.8642
132.804 5079 71.2671
132.922 4472 66.873
133.039 4394 66.2873
133.157 4133 64.2884
133.274 3965 62.9682
133.392 3892 62.3859
133.509 3927 62.6658
133.627 4027 63.4586
133.744 4162 64.5136
133.862 4116 64.1561
133.979 4114 64.1405
134.097 4370 66.106
134.214 4451 66.7158
134.332 4279 65.4141
134.449 4350 65.9545
134.567 4396 66.3023
134.684 4393 66.2797
134.802 4259 65.261
134.919 4373 66.1287
135.037 4319 65.7191
135.154 4103 64.0547
135.272 3985 63.1269
135.389 3833 61.9112
135.507 3736 61.1228
135.624 3990 63.1664
135.742 4215 64.923
135.859 4089 63.9453
135.977 4039 63.5531
136.094 3965 62.9682
136.211 3884 62.3217
136.329 3785 61.5224
136.446 3498 59.1439
136.564 3364 58
136.681 3111 55.7763
136.798 3299 57.4369
136.915 3070 55.4076
137.033 3087 55.5608
137.15 3051 55.2359
137.267 3124 55.8928
137.384 3220 56.745
137.502 3092 55.6058
137.619 3257 57.0701
137.736 3352 57.8965
137.853 3489 59.0678
137.97 3461 58.8303
138.087 3572 59.7662
138.204 3572 59.7662
138.321 3687 60.7207
138.438 3802 61.6604
138.555 3802 61.6604
138.672 3875 62.2495
138.788 3814 61.7576
138.905 3750 61.2372
139.022 3677 60.6383
139.139 3779 61.4736
139.255 4022 63.4192
139.372 4228 65.0231
139.488 4167 64.5523
139.605 4254 65.2227
139.721 4318 65.7115
139.838 4394 66.2873
139.954 4309 65.643
140.071 4072 63.8122
140.187 4141 64.3506
140.303 3802 61.6604
140.419 3856 62.0967
140.535 3759 61.3107
140.652 3619 60.1581
140.768 0 1
140.884 0 1
141 0 1
141.115 0 1
141.231 0 1
141.347 0 1
141.463 0 1
141.578 0 1
141.694 0 1
144.104 0 1
144.219 0 1
144.335 0 1
144.45 0 1
144.566 0 1
144.682 0 1
144.798 0 1
144.914 0 1
145.03 0 1
145.146 3584 59.8665
145.262 3417 58.4551
145.378 3442 58.6686
145.494 3261 57.1052
145.61 3142 56.0535
145.726 3073 55.4346
145.842 3023 54.9818
145.959 2957 54.3783
146.075 3087 55.5608
146.192 3047 55.1996
146.308 3090 55.5878
146.425 3173 56.3294
146.541 3119 55.848
146.658 3115 55.8122
146.774 3085 55.5428
146.891 3214 56.6922
147.008 3189 56.4712
147.125 3219 56.7362
147.241 3198 56.5509
147.358 3188 56.4624
147.475 3081 55.5068
147.592 2970 54.4977
147.709 2916 54
147.826 2958 54.3875
147.943 3088 55.5698
148.06 3018 54.9363
148.177 3133 55.9732
148.294 3092 55.6058
148.411 2932 54.1479
148.528 2961 54.4151
148.645 2881 53.6749
148.762 2856 53.4416
148.88 2679 51.7591
148.997 2741 52.3546
149.114 2461 49.6085
149.231 2444 49.4368
149.349 2317 48.1352
149.466 2300 47.9583
149.583 2352 48.4974
149.701 2462 49.6185
149.818 2558 50.5767
149.935 2467 49.6689
150.053 2533 50.3289
150.17 2548 50.4777
150.287 2604 51.0294
150.405 2615 51.1371
150.522 2615 51.1371
150.64 2665 51.6236
150.757 2776 52.6878
150.875 2853 53.4135
150.992 2680 51.7687
151.11 2765 52.5833
151.227 2713 52.0865
151.344 2729 52.2398
151.462 2657 51.5461
151.579 2837 53.2635
151.697 2816 53.066
151.814 2980 54.5894
151.932 2981 54.5985
152.049 2971 54.5069
152.167 3013 54.8908
152.284 2939 54.2125
152.402 2908 53.9259
152.519 2754 52.4786
152.636 2732 52.2685
152.754 2674 51.7107
152.871 2673 51.7011
152.989 2638 51.3615
153.106 2516 50.1597
153.223 2624 51.225
153.341 2672 51.6914
153.458 2792 52.8394
153.575 2785 52.7731
153.693 2835 53.2447
153.81 2899 53.8424
153.927 2913 53.9722
154.044 3035 55.0908
154.162 2971 54.5069
154.279 3136 56
154.396 3233 56.8595
154.513 3196 56.5332
154.63 3268 57.1664
154.747 3286 57.3236
154.864 3292 57.376
154.981 3284 57.3062
155.098 3330 57.7062
155.215 3415 58.438
155.332 3490 59.0762
155.449 3520 59.3296
155.566 3508 59.2284
155.683 3653 60.4401
155.8 3532 59.4306
155.917 3519 59.3212
156.033 3574 59.7829
156.15 0 1
156.267 0 1
156.383 0 1
156.5 0 1
156.617 0 1
156.733 0 1
156.85 0 1
156.966 0 1
157.082 0 1
157.199 0 1
157.315 0 1
157.431 0 1
157.547 0 1
157.664 0 1
157.78 0 1
157.896 0 1
158.012 0 1
158.128 0 1
158.244 0 1
158.359 0 1
158.475 0 1
158.591 0 1
158.706 0 1
