
6.15755 0 1
6.2731 0 1
6.3887 0 1
6.50437 0 1
6.62009 0 1
6.73587 0 1
6.8517 0 1
6.96759 0 1
7.08353 0 1
7.19952 0 1
7.31557 0 1
7.43166 0 1
7.54781 0 1
7.664 0 1
7.78024 0 1
7.89653 0 1
8.01286 0 1
8.12924 0 1
8.24567 0 1
8.36213 0 1
8.47864 0 1
8.59519 0 1
8.71178 0 1
8.82841 0 1
8.94508 0 1
9.06179 0 1
9.17853 0 1
9.29531 0 1
9.41212 0 1
9.52897 0 1
9.64584 0 1
9.76276 0 1
9.8797 0 1
9.99667 0 1
10.1137 0 1
10.2307 0 1
10.3478 0 1
10.4648 0 1
10.5819 0 1
10.6991 0 1
10.8162 0 1
10.9334 0 1
11.0506 0 1
11.1678 0 1
11.285 0 1
11.4023 0 1
11.5196 0 1
11.6369 0 1
11.7542 0 1
11.8715 0 1
11.9888 0 1
12.1062 0 1
12.2235 0 1
12.3409 0 1
12.4582 0 1
12.5756 0 1
12.693 0 1
12.8104 0 1
12.9278 0 1
13.0452 0 1
13.1626 0 1
13.28 0 1
13.3974 0 1
13.5149 0 1
13.6323 0 1
13.7497 0 1
13.8671 0 1
13.9845 0 1
14.1019 0 1
14.2193 0 1
14.3367 0 1
14.4541 0 1
14.5714 0 1
14.6888 0 1
14.8062 0 1
14.9235 0 1
15.0408 0 0
15.1581 0 0
15.2755 0 0
15.3927 0 0
15.51 0 0
15.6273 0 0
15.7445 0 0
15.8617 0 0
15.9789 0 0
16.0961 0 0
16.2132 0 0
16.3304 0 0
16.4475 0 0
16.5646 0 0
16.6816 0 0
16.7986 0 0
16.9156 0 0
17.0326 0 0
17.1496 0 0
17.2665 0 0
17.3833 0 0
17.5002 0 0
17.617 0 0
17.7338 0 0
17.8505 0 0
17.9672 0 0
18.0839 0 0
18.2005 0 0
18.3171 0 0
18.4337 0 0
18.5502 0 0
18.6666 0 0
18.7831 0 0
18.8994 0 0
19.0158 0 0
19.1321 0 0
19.2483 0 0
19.3645 0 0
19.4806 0 0
19.5967 0 0
19.7128 0 0
19.8288 0 0
19.9447 0 0
20.0606 0 1
20.1764 0 1
20.2922 0 1
20.4079 0 1
20.5236 0 1
20.6392 0 1
20.7548 0 1
20.8702 0 1
23.3078 0 1
23.4233 0 1
23.539 0 1
23.6547 0 1
23.7704 0 1
23.8862 0 1
24.0021 0 1
24.118 0 1
24.234 0 1
24.35 0 1
24.4661 29351 171.321
24.5822 29240 170.997
24.6984 28917 170.05
24.8146 29120 170.646
24.9309 29455 171.625
25.0472 30046 173.338
25.1636 30613 174.966
25.28 30754 175.368
25.3965 31322 176.98
25.513 31484 177.437
25.6296 32466 180.183
25.7462 32826 181.179
25.8628 32520 180.333
25.9795 32778 181.047
26.0962 32649 180.69
26.213 32920 181.439
26.3298 32574 180.483
26.4466 32975 181.59
26.5635 33588 183.27
26.6804 33262 182.379
26.7973 32580 180.499
26.9143 32283 179.675
27.0313 32053 179.034
27.1483 32081 179.112
27.2653 32341 179.836
27.3824 32523 180.341
27.4996 32558 180.438
27.6167 32299 179.719
27.7339 31135 176.451
27.8511 30713 175.251
27.9683 30307 174.089
28.0855 29265 171.07
28.2028 29294 171.155
28.3201 28508 168.843
28.4374 29775 172.554
28.5547 29854 172.783
28.6721 30189 173.75
28.7894 31033 176.162
28.9068 31493 177.463
29.0242 31686 178.006
29.1416 31853 178.474
29.259 31835 178.424
29.3764 31836 178.426
29.4939 31509 177.508
29.6113 31542 177.601
29.7288 31960 178.774
29.8463 32196 179.432
29.9638 32842 181.224
30.0812 32531 180.364
30.1987 32555 180.43
30.3162 32558 180.438
30.4337 32106 179.181
30.5512 31344 177.042
30.6687 31466 177.387
30.7862 31800 178.326
30.9037 31862 178.499
31.0212 32070 179.081
31.1387 31993 178.866
31.2562 31227 176.712
31.3737 30660 175.1
31.4912 30203 173.79
31.6087 29446 171.598
31.7262 29158 170.757
31.8436 29271 171.088
31.9611 29993 173.185
32.0785 29507 171.776
32.1959 30185 173.738
32.3134 30433 174.451
32.4308 30821 175.559
32.5482 30843 175.622
32.6655 31210 176.664
32.7829 31083 176.304
32.9002 31203 176.644
33.0176 30627 175.006
33.1349 30858 175.664
33.2522 30794 175.482
33.3694 31296 176.907
33.4867 31652 177.91
33.6039 32130 179.248
33.7211 32336 179.822
33.8383 32074 179.092
33.9554 31637 177.868
34.0725 31948 178.74
34.1896 30647 175.063
34.3067 30453 174.508
34.4237 30372 174.276
34.5407 30918 175.835
34.6577 31136 176.454
34.7746 31042 176.187
34.8915 30672 175.134
35.0084 29954 173.072
35.1252 29439 171.578
35.242 28893 169.979
35.3587 28891 169.974
35.4755 28604 169.127
35.5921 28948 170.141
35.7088 29312 171.207
35.8254 29376 171.394
35.9419 30117 173.543
36.0584 29930 173.003
36.1749 30709 175.24
36.2913 30160 173.666
36.4077 30145 173.623
36.524 29946 173.049
36.6403 30046 173.338
36.7565 29915 172.96
36.8727 30233 173.876
36.9889 30409 174.382
37.1049 30070 173.407
37.221 0 1
37.3369 0 1
37.4529 0 1
37.5687 0 1
37.6845 0 1
37.8003 0 1
37.916 0 1
38.0316 0 1
38.1472 0 1
40.5851 0 1
40.7008 0 1
40.8164 0 1
40.9322 0 1
41.048 0 1
41.1639 0 1
41.2798 0 1
41.3958 0 1
41.5118 0 1
41.6279 0 1
41.744 24603 156.853
41.8602 25253 158.912
41.9765 25427 159.458
42.0928 25543 159.822
42.2091 25897 160.925
42.3255 25926 161.016
42.4419 26405 162.496
42.5584 26702 163.407
42.675 26624 163.169
42.7915 26633 163.196
42.9081 26167 161.762
43.0248 25768 160.524
43.1415 25342 159.192
43.2582 25292 159.035
43.375 25668 160.212
43.4918 26391 162.453
43.6087 25751 160.471
43.7256 25336 159.173
43.8425 24506 156.544
43.9595 23800 154.272
44.0765 23545 153.444
44.1935 23304 152.656
44.3106 23576 153.545
44.4277 23499 153.294
44.5448 23737 154.068
44.6619 23856 154.454
44.7791 23727 154.036
44.8963 23685 153.899
45.0136 23200 152.315
45.1308 22910 151.36
45.2481 22303 149.342
45.3654 22353 149.509
45.4827 22235 149.114
45.6001 22012 148.364
45.7174 21914 148.034
45.8348 21891 147.956
45.9522 22030 148.425
46.0697 22521 150.07
46.1871 21873 147.895
46.3046 21879 147.916
46.422 21581 146.905
46.5395 21486 146.581
46.657 20659 143.732
46.7745 20060 141.633
46.892 20236 142.253
47.0096 20632 143.638
47.1271 20940 144.707
47.2446 20726 143.965
47.3622 19990 141.386
47.4797 19408 139.313
47.5973 18864 137.346
47.7149 18271 135.17
47.8324 18411 135.687
47.95 18284 135.218
48.0675 18431 135.761
48.1851 18491 135.982
48.3027 18776 137.026
48.4202 18416 135.706
48.5378 18234 135.033
48.6554 18069 134.421
48.7729 17867 133.667
48.8904 18119 134.607
49.008 18096 134.521
49.1255 18651 136.569
49.243 18687 136.7
49.3605 18695 136.73
49.478 19025 137.931
49.5955 19660 140.214
49.713 20001 141.425
49.8304 20184 142.07
49.9479 20601 143.53
50.0653 20785 144.17
50.1827 20353 142.664
50.3001 20218 142.19
50.4175 20305 142.496
50.5348 20909 144.599
50.6521 22420 149.733
50.7694 22572 150.24
50.8867 23088 151.947
51.004 22708 150.692
51.1212 23172 152.224
51.2384 23712 153.987
51.3556 24398 156.199
51.4727 24563 156.726
51.5899 25457 159.552
51.707 26107 161.577
51.824 26548 162.936
51.9411 26469 162.693
52.0581 26354 162.339
52.175 26390 162.45
52.2919 26178 161.796
52.4088 26369 162.385
52.5257 27081 164.563
52.6425 27181 164.867
52.7593 27108 164.645
52.876 27559 166.009
52.9927 28234 168.03
53.1094 28671 169.325
53.226 29013 170.332
53.3426 29485 171.712
53.4591 30474 174.568
53.5756 30905 175.798
53.692 30859 175.667
53.8084 30052 173.355
53.9248 29446 171.598
54.0411 29533 171.852
54.1573 30043 173.329
54.2735 0 1
54.3896 0 1
54.5057 0 1
54.6217 0 1
54.7377 0 1
54.8537 0 1
54.9695 0 1
55.0853 0 1
55.2011 0 1
55.3168 0 1
55.4324 0 1
57.824 0 1
57.9396 0 1
58.0553 0 1
58.1711 0 1
58.2869 0 1
58.4028 0 1
58.5187 0 1
58.6347 0 1
58.7508 0 1
58.8669 0 1
58.983 35601 188.682
59.0992 35917 189.518
59.2155 35790 189.182
59.3318 35920 189.526
59.4482 36569 191.23
59.5646 37219 192.922
59.681 36975 192.289
59.7975 36776 191.771
59.9141 36455 190.932
60.0306 36671 191.497
60.1473 37257 193.021
60.2639 37330 193.21
60.3807 36733 191.659
60.4974 36755 191.716
60.6142 36429 190.864
60.731 35766 189.119
60.8479 35777 189.148
60.9648 35089 187.321
61.0818 35441 188.258
61.1987 35238 187.718
61.3158 35222 187.675
61.4328 34802 186.553
61.5499 34773 186.475
61.667 35113 187.385
61.7841 35340 187.989
61.9013 35806 189.225
62.0185 36111 190.029
62.1357 36013 189.771
62.253 36046 189.858
62.3702 35594 188.664
62.4875 35139 187.454
62.6049 35114 187.387
62.7222 35271 187.806
62.8396 35996 189.726
62.9569 36700 191.572
63.0743 35774 189.14
63.1918 35664 188.849
63.3092 35274 187.814
63.4267 36141 190.108
63.5441 36105 190.013
63.6616 36081 189.95
63.7791 36364 190.693
63.8966 36016 189.779
64.0142 35472 188.34
64.1317 35360 188.043
64.2492 35010 187.11
64.3668 34320 185.257
64.4843 34146 184.786
64.6019 34215 184.973
64.7195 33688 183.543
64.837 33910 184.147
64.9546 33935 184.215
65.0722 33563 183.202
65.1898 33823 183.91
65.3074 34305 185.216
65.4249 34226 185.003
65.5425 35119 187.401
65.6601 35101 187.353
65.7777 35689 188.915
65.8952 35373 188.077
66.0128 34966 186.992
66.1304 34278 185.143
66.2479 34146 184.786
66.3655 34602 186.016
66.483 35420 188.202
66.6005 35702 188.95
66.718 35409 188.173
66.8355 35573 188.608
66.953 36188 190.231
67.0705 36621 191.366
67.1879 36818 191.88
67.3054 36799 191.831
67.4228 36343 190.638
67.5402 35665 188.852
67.6576 35486 188.377
67.7749 35038 187.184
67.8923 35886 189.436
68.0096 35710 188.971
68.1269 35345 188.003
68.2442 35860 189.367
68.3614 35698 188.939
68.4787 36112 190.032
68.5958 35873 189.402
68.713 35982 189.689
68.8302 35844 189.325
68.9473 36622 191.369
69.0643 36592 191.29
69.1814 37339 193.233
69.2984 37851 194.553
69.4154 38266 195.617
69.5323 38322 195.76
69.6492 39208 198.01
69.7661 38401 195.962
69.8829 37289 193.104
69.9997 37356 193.277
70.1165 38143 195.302
70.2332 39119 197.785
70.3499 39056 197.626
70.4665 39322 198.298
70.5831 39643 199.105
70.6996 40559 201.393
70.8161 39634 199.083
70.9326 39647 199.116
71.049 39347 198.361
71.1653 38461 196.115
71.2817 37880 194.628
71.3979 37361 193.29
71.5141 37050 192.484
71.6303 36086 189.963
71.7464 33375 182.688
71.8624 0 1
71.9784 0 1
72.0944 0 1
72.2102 0 1
72.3261 0 1
72.4418 0 1
72.5575 0 1
72.6732 0 1
75.1054 0 1
75.2209 0 1
75.3365 0 1
75.4521 0 1
75.5678 0 1
75.6835 0 1
75.7993 0 1
75.9151 0 1
76.031 0 1
76.147 37790 194.397
76.263 40731 201.819
76.3791 40542 201.35
76.4952 40273 200.681
76.6113 40406 201.012
76.7276 40735 201.829
76.8438 40134 200.335
76.9601 40258 200.644
77.0765 40195 200.487
77.1929 40806 202.005
77.3093 41355 203.359
77.4258 41729 204.277
77.5423 41885 204.658
77.6589 40753 201.874
77.7755 40441 201.099
77.8921 40603 201.502
78.0088 40415 201.035
78.1256 40048 200.12
78.2423 40651 201.621
78.3591 40795 201.978
78.4759 41479 203.664
78.5928 41909 204.717
78.7097 42274 205.606
78.8266 43227 207.911
78.9436 37270 193.054
79.0606 35162 187.515
79.1776 35116 187.393
79.2946 38475 196.15
79.4117 41458 203.612
79.5288 43194 207.832
79.6459 44002 209.767
79.7631 43019 207.41
79.8802 42807 206.899
79.9974 41735 204.291
80.1147 41208 202.998
80.2319 40984 202.445
80.3491 40430 201.072
80.4664 40135 200.337
80.5837 39935 199.837
80.701 39540 198.847
80.8183 40033 200.082
80.9357 40436 201.087
81.053 41663 204.115
81.1704 41016 202.524
81.2877 40902 202.242
81.4051 39654 199.133
81.5225 40146 200.365
81.6399 38750 196.85
81.7573 39674 199.183
81.8747 38832 197.058
81.9922 39458 198.64
82.1096 39923 199.807
82.227 40694 201.728
82.3444 40462 201.152
82.4619 41295 203.212
82.5793 39506 198.761
82.6967 36177 190.203
82.8142 32926 181.455
82.9316 35474 188.345
83.049 39465 198.658
83.1664 41022 202.539
83.2838 40947 202.354
83.4012 40103 200.257
83.5186 39266 198.157
83.636 38644 196.581
83.7534 37968 194.854
83.8708 37747 194.286
83.9881 37641 194.013
84.1055 37434 193.479
84.2228 36854 191.974
84.3401 37206 192.889
84.4575 36921 192.148
84.5747 38339 195.803
84.692 38990 197.459
84.8093 39384 198.454
84.9265 38608 196.489
85.0437 37712 194.196
85.1609 37413 193.424
85.2781 37279 193.078
85.3952 37213 192.907
85.5123 37454 193.53
85.6294 37922 194.736
85.7465 39140 197.838
85.8636 39087 197.704
85.9806 39910 199.775
86.0976 40385 200.96
86.2145 37874 194.612
86.3315 31817 178.373
86.4484 33748 183.706
86.5652 39258 198.136
86.682 42193 205.409
86.7988 42000 204.939
86.9156 41490 203.691
87.0323 40564 201.405
87.149 40193 200.482
87.2657 39595 198.985
87.3823 39456 198.635
87.4988 39062 197.641
87.6154 38360 195.857
87.7318 38814 197.013
87.8483 38799 196.975
87.9647 38721 196.777
88.081 39804 199.509
88.1973 40311 200.776
88.3136 41347 203.34
88.4298 40822 202.045
88.546 39347 198.361
88.6621 38424 196.02
88.7781 37413 193.424
88.8942 0 1
89.0101 0 1
89.126 0 1
89.2419 0 1
89.3577 0 1
89.4734 0 1
89.5891 0 1
89.7047 0 1
89.8203 0 1
89.9358 0 1
92.3269 0 1
92.4424 0 1
92.558 0 1
92.6736 0 1
92.7893 0 1
92.905 0 1
93.0208 0 1
93.1366 0 1
93.2525 0 1
93.3685 0 1
93.4845 0 1
93.6005 28888 169.965
93.7167 30513 174.68
93.8328 31290 176.89
93.949 31622 177.826
94.0653 31666 177.949
94.1816 32235 179.541
94.2979 32669 180.746
94.4143 32636 180.654
94.5307 33241 182.321
94.6472 33204 182.22
94.7637 33764 183.75
94.8803 35046 187.206
94.9969 36407 190.806
95.1135 37487 193.616
95.2302 37668 194.082
95.3469 36942 192.203
95.4637 33818 183.897
95.5805 30728 175.294
95.6973 35966 189.647
95.8142 40909 202.26
95.9311 42228 205.495
96.048 41900 204.695
96.1649 41328 203.293
96.2819 41361 203.374
96.3989 40526 201.311
96.516 40843 202.097
96.633 40729 201.814
96.7501 40703 201.75
96.8673 40087 200.217
96.9844 40766 201.906
97.1016 40818 202.035
97.2188 40913 202.27
97.336 42070 205.11
97.4532 42755 206.773
97.5704 43162 207.755
97.6877 43036 207.451
97.805 42394 205.898
97.9223 41981 204.893
98.0396 42270 205.597
98.1569 42032 205.017
98.2743 42158 205.324
98.3916 42059 205.083
98.509 42367 205.832
98.6264 42955 207.256
98.7438 43216 207.885
98.8612 43693 209.029
98.9786 41652 204.088
99.096 36865 192.003
99.2134 34396 185.462
99.3308 39988 199.97
99.4482 44946 212.005
99.5656 46365 215.325
99.6831 45794 213.995
99.8005 45018 212.174
99.9179 44312 210.504
100.035 43675 208.986
100.153 42743 206.744
100.27 42522 206.209
100.388 41552 203.843
100.505 41577 203.904
100.622 41194 202.963
100.74 41386 203.435
100.857 41405 203.482
100.975 42055 205.073
101.092 42696 206.63
101.209 42403 205.92
101.327 42233 205.507
101.444 41210 203.002
101.561 41426 203.534
101.679 41440 203.568
101.796 40952 202.366
101.913 41135 202.818
102.03 40853 202.121
102.148 41209 203
102.265 43743 209.148
102.382 40248 200.619
102.499 40875 202.176
102.616 37807 194.44
102.733 35666 188.854
102.851 38570 196.392
102.968 43625 208.866
103.085 45146 212.476
103.202 44279 210.426
103.319 44060 209.905
103.436 43568 208.729
103.552 43192 207.827
103.669 41869 204.619
103.786 41840 204.548
103.903 41064 202.643
104.02 41522 203.769
104.137 40702 201.747
104.253 41674 204.142
104.37 40337 200.841
104.487 41722 204.26
104.603 42186 205.392
104.72 41552 203.843
104.836 41110 202.756
104.953 40524 201.306
105.069 40285 200.711
105.186 40543 201.353
105.302 40245 200.612
105.418 40255 200.636
105.535 39529 198.819
105.651 39624 199.058
105.767 39391 198.472
105.883 38746 196.84
105.999 36066 189.911
106.115 0 1
106.231 0 1
106.347 0 1
106.463 0 1
106.579 0 1
106.694 0 1
106.81 0 1
106.926 0 1
107.041 0 1
107.157 0 1
109.576 0 1
109.692 0 1
109.807 0 1
109.923 0 1
110.039 0 1
110.155 0 1
110.27 0 1
110.386 0 1
110.502 0 1
110.618 27058 164.493
110.735 28028 167.416
110.851 28494 168.802
110.967 28545 168.953
111.083 28686 169.369
111.199 27511 165.864
111.316 26397 162.472
111.432 26773 163.625
111.549 27463 165.72
111.665 27706 166.451
111.782 26921 164.076
111.898 26050 161.4
112.015 25094 158.411
112.132 24745 157.305
112.248 24054 155.094
112.365 23540 153.428
112.482 22930 151.427
112.599 22015 148.375
112.716 21721 147.38
112.832 21214 145.65
112.949 21476 146.547
113.066 21420 146.356
113.183 21194 145.582
113.3 20599 143.524
113.417 20593 143.503
113.534 20142 141.923
113.652 20279 142.404
113.769 20497 143.168
113.886 20720 143.944
114.003 20719 143.941
114.12 20781 144.156
114.238 20479 143.105
114.355 19741 140.503
114.472 20331 142.587
114.589 21214 145.65
114.707 22258 149.191
114.824 22898 151.321
114.942 22156 148.849
115.059 22184 148.943
115.176 22531 150.103
115.294 22464 149.88
115.411 21921 148.057
115.529 21562 146.84
115.646 21236 145.726
115.764 20937 144.696
115.881 20993 144.89
115.999 20625 143.614
116.116 20163 141.996
116.234 19988 141.379
116.351 19902 141.074
116.469 20077 141.693
116.586 20208 142.155
116.704 20581 143.461
116.821 20476 143.094
116.939 20749 144.045
117.056 20827 144.316
117.174 21247 145.764
117.291 21475 146.544
117.409 22100 148.661
117.526 22612 150.373
117.644 23081 151.924
117.761 22371 149.569
117.879 21405 146.304
117.996 19917 141.128
118.114 20251 142.306
118.231 22718 150.725
118.349 24890 157.766
118.466 25927 161.019
118.584 26445 162.619
118.701 26112 161.592
118.819 26148 161.703
118.936 25543 159.822
119.053 25196 158.732
119.171 25470 159.593
119.288 25166 158.638
119.405 25122 158.499
119.523 24823 157.553
119.64 24980 158.051
119.757 24187 155.522
119.875 24035 155.032
119.992 23716 154
120.109 23219 152.378
120.226 23865 154.483
120.343 23799 154.269
120.46 24002 154.926
120.578 23937 154.716
120.695 24724 157.239
120.812 24510 156.557
120.929 25386 159.33
121.046 25676 160.237
121.163 26207 161.886
121.279 26137 161.669
121.396 25327 159.145
121.513 23998 154.913
121.63 22228 149.091
121.747 20734 143.993
121.863 22158 148.856
121.98 24968 158.013
122.097 27132 164.718
122.213 28640 169.234
122.33 29359 171.345
122.446 29081 170.532
122.563 28951 170.15
122.679 28372 168.44
122.795 28222 167.994
122.912 28161 167.812
123.028 27828 166.817
123.144 27967 167.233
123.26 27863 166.922
123.377 0 1
123.493 0 1
123.609 0 1
123.725 0 1
123.84 0 1
123.956 0 1
124.072 0 1
124.188 0 1
124.303 0 1
124.419 0 1
126.852 0 1
126.968 0 1
127.083 0 1
127.199 0 1
127.315 0 1
127.431 0 1
127.547 0 1
127.663 0 1
127.779 0 1
127.895 0 1
128.011 0 1
128.127 0 1
128.243 0 1
128.359 35081 187.299
128.476 34920 186.869
128.592 35136 187.446
128.708 34948 186.944
128.825 34839 186.652
128.941 34639 186.116
129.058 34344 185.321
129.174 34598 186.005
129.291 34113 184.697
129.408 34347 185.329
129.524 34504 185.753
129.641 35198 187.611
129.758 35412 188.181
129.875 36003 189.745
129.992 36349 190.654
130.108 35816 189.251
130.225 34245 185.054
130.342 32989 181.629
130.459 29945 173.046
130.576 29786 172.586
130.693 28283 168.176
130.81 28778 169.641
130.928 31376 177.133
131.045 35048 187.211
131.162 37743 194.276
131.279 38880 197.18
131.396 39190 197.965
131.513 39220 198.04
131.631 38275 195.64
131.748 38570 196.392
131.865 38246 195.566
131.983 37567 193.822
132.1 38241 195.553
132.217 38296 195.694
132.335 37955 194.82
132.452 37485 193.61
132.57 37455 193.533
132.687 35861 189.37
132.804 38697 196.716
132.922 37252 193.008
133.039 37377 193.331
133.157 37921 194.733
133.274 38175 195.384
133.392 38690 196.698
133.509 38307 195.722
133.627 38508 196.235
133.744 37310 193.158
133.862 35151 187.486
133.979 34133 184.751
134.097 32163 179.34
134.214 32267 179.63
134.332 31253 176.785
134.449 33003 181.667
134.567 34508 185.763
134.684 38209 195.471
134.802 41476 203.657
134.919 41755 204.34
135.037 42011 204.966
135.154 42223 205.482
135.272 42393 205.896
135.389 41766 204.367
135.507 41475 203.654
135.624 41444 203.578
135.742 41524 203.774
135.859 41935 204.78
135.977 41595 203.949
136.094 41112 202.761
136.211 40513 201.278
136.329 41218 203.022
136.446 41098 202.726
136.564 41152 202.86
136.681 41768 204.372
136.798 41233 203.059
136.915 41948 204.812
137.033 42194 205.412
137.15 41575 203.899
137.267 40490 201.221
137.384 39293 198.225
137.502 37294 193.117
137.619 35423 188.21
137.736 34755 186.427
137.853 33948 184.25
137.97 34428 185.548
138.087 36841 191.94
138.204 37385 193.352
138.321 39470 198.671
138.438 43166 207.764
138.555 44593 211.171
138.672 44944 212
138.788 44772 211.594
138.905 44640 211.282
139.022 45150 212.485
139.139 45407 213.089
139.255 44739 211.516
139.372 44646 211.296
139.488 44040 209.857
139.605 43997 209.755
139.721 43954 209.652
139.838 43806 209.299
139.954 43697 209.038
140.071 42618 206.441
140.187 43220 207.894
140.303 42685 206.603
140.419 42946 207.234
140.535 43119 207.651
140.652 42521 206.206
140.768 0 1
140.884 0 1
141 0 1
141.115 0 1
141.231 0 1
141.347 0 1
141.463 0 1
141.578 0 1
141.694 0 1
144.104 0 1
144.219 0 1
144.335 0 1
144.45 0 1
144.566 0 1
144.682 0 1
144.798 0 1
144.914 0 1
145.03 0 1
145.146 40786 201.955
145.262 42012 204.968
145.378 42005 204.951
145.494 41484 203.676
145.61 41620 204.01
145.726 41075 202.67
145.842 40374 200.933
145.959 38451 196.089
146.075 37694 194.149
146.192 35859 189.365
146.308 35209 187.641
146.425 34580 185.957
146.541 35132 187.435
146.658 35948 189.6
146.774 36880 192.042
146.891 38007 194.954
147.008 39730 199.324
147.125 41651 204.086
147.241 43122 207.658
147.358 43291 208.065
147.475 43431 208.401
147.592 42707 206.657
147.709 43051 207.487
147.826 42573 206.332
147.943 42540 206.252
148.06 42104 205.193
148.177 41899 204.692
148.294 41677 204.149
148.411 41473 203.649
148.528 41357 203.364
148.645 40897 202.23
148.762 41226 203.042
148.88 41157 202.872
148.997 39543 198.854
149.114 42416 205.951
149.231 41044 202.593
149.349 40404 201.007
149.466 38876 197.17
149.583 37456 193.536
149.701 36350 190.657
149.818 35510 188.441
149.935 34855 186.695
150.053 34978 187.024
150.17 35154 187.494
150.287 36302 190.531
150.405 36956 192.239
150.522 38352 195.837
150.64 39403 198.502
150.757 41246 203.091
150.875 41537 203.806
150.992 42772 206.814
151.11 42590 206.373
151.227 42568 206.32
151.344 42155 205.317
151.462 42037 205.029
151.579 42123 205.239
151.697 42418 205.956
151.814 42313 205.701
151.932 41839 204.546
152.049 41992 204.919
152.167 41922 204.749
152.284 42370 205.84
152.402 42430 205.985
152.519 42126 205.246
152.636 42061 205.088
152.754 42009 204.961
152.871 41175 202.916
152.989 40470 201.172
153.106 39763 199.407
153.223 38635 196.558
153.341 37381 193.342
153.458 36049 189.866
153.575 36607 191.33
153.693 36477 190.99
153.81 37608 193.928
153.927 38333 195.788
154.044 39726 199.314
154.162 40912 202.267
154.279 42588 206.369
154.396 44356 210.609
154.513 44932 211.972
154.63 45632 213.616
154.747 46198 214.937
154.864 45882 214.201
154.981 45823 214.063
155.098 45206 212.617
155.215 44367 210.635
155.332 44726 211.485
155.449 44796 211.651
155.566 44800 211.66
155.683 44213 210.269
155.8 45048 212.245
155.917 44356 210.609
156.033 44659 211.327
156.15 0 1
156.267 0 1
156.383 0 1
156.5 0 1
156.617 0 1
156.733 0 1
156.85 0 1
156.966 0 1
157.082 0 1
157.199 0 1
157.315 0 1
157.431 0 1
157.547 0 1
157.664 0 1
157.78 0 1
157.896 0 1
158.012 0 1
158.128 0 1
158.244 0 1
158.359 0 1
158.475 0 1
158.591 0 1
158.706 0 1
