
6.15755 0 1
6.2731 0 1
6.3887 0 1
6.50437 0 1
6.62009 0 1
6.73587 0 1
6.8517 0 1
6.96759 0 1
7.08353 0 1
7.19952 0 1
7.31557 0 1
7.43166 0 1
7.54781 0 1
7.664 0 1
7.78024 0 1
7.89653 0 1
8.01286 0 1
8.12924 0 1
8.24567 0 1
8.36213 0 1
8.47864 0 1
8.59519 0 1
8.71178 0 1
8.82841 0 1
8.94508 0 1
9.06179 0 1
9.17853 0 1
9.29531 0 1
9.41212 0 1
9.52897 0 1
9.64584 0 1
9.76276 0 1
9.8797 0 1
9.99667 0 1
10.1137 0 1
10.2307 0 1
10.3478 0 1
10.4648 0 1
10.5819 0 1
10.6991 0 1
10.8162 0 1
10.9334 0 1
11.0506 0 1
11.1678 0 1
11.285 0 1
11.4023 0 1
11.5196 0 1
11.6369 0 1
11.7542 0 1
11.8715 0 1
11.9888 0 1
12.1062 0 1
12.2235 0 1
12.3409 0 1
12.4582 0 1
12.5756 0 1
12.693 0 1
12.8104 0 1
12.9278 0 1
13.0452 0 1
13.1626 0 1
13.28 0 1
13.3974 0 1
13.5149 0 1
13.6323 0 1
13.7497 0 1
13.8671 0 1
13.9845 0 1
14.1019 0 1
14.2193 0 1
14.3367 0 1
14.4541 0 1
14.5714 0 1
14.6888 0 1
14.8062 0 1
14.9235 0 1
15.0408 1881 43.3705
15.1581 1935 43.9886
15.2755 2036 45.1221
15.3927 2175 46.6369
15.51 2031 45.0666
15.6273 2009 44.8219
15.7445 2027 45.0222
15.8617 1858 43.1045
15.9789 1993 44.643
16.0961 1941 44.0568
16.2132 2005 44.7772
16.3304 2139 46.2493
16.4475 2071 45.5082
16.5646 2164 46.5188
16.6816 2278 47.7284
16.7986 2457 49.5681
16.9156 2556 50.5569
17.0326 2668 51.6527
17.1496 2720 52.1536
17.2665 2729 52.2398
17.3833 2820 53.1037
17.5002 2812 53.0283
17.617 2806 52.9717
17.7338 2747 52.4118
17.8505 2844 53.3292
17.9672 2929 54.1202
18.0839 2841 53.301
18.2005 2833 53.2259
18.3171 2863 53.507
18.4337 3042 55.1543
18.5502 2881 53.6749
18.6666 2991 54.69
18.7831 2987 54.6535
18.8994 3028 55.0273
19.0158 2865 53.5257
19.1321 2744 52.3832
19.2483 2818 53.0848
19.3645 2780 52.7257
19.4806 2610 51.0882
19.5967 2576 50.7543
19.7128 2407 49.0612
19.8288 2227 47.1911
19.9447 1895 43.5316
20.0606 0 1
20.1764 0 1
20.2922 0 1
20.4079 0 1
20.5236 0 1
20.6392 0 1
20.7548 0 1
20.8702 0 1
23.3078 0 1
23.4233 0 1
23.539 0 1
23.6547 0 1
23.7704 0 1
23.8862 0 1
24.0021 0 1
24.118 0 1
24.234 0 1
24.35 0 1
24.4661 2626 51.2445
24.5822 2671 51.6817
24.6984 2789 52.811
24.8146 2702 51.9808
24.9309 2597 50.9608
25.0472 2402 49.0102
25.1636 2165 46.5296
25.28 2160 46.4758
25.3965 2292 47.8748
25.513 2389 48.8774
25.6296 2689 51.8556
25.7462 2777 52.6972
25.8628 3053 55.254
25.9795 3204 56.6039
26.0962 3062 55.3353
26.213 3178 56.3738
26.3298 3137 56.0089
26.4466 3179 56.3826
26.5635 3189 56.4712
26.6804 3163 56.2406
26.7973 3140 56.0357
26.9143 3210 56.6569
27.0313 3185 56.4358
27.1483 3212 56.6745
27.2653 3083 55.5248
27.3824 3099 55.6687
27.4996 3280 57.2713
27.6167 3131 55.9553
27.7339 3038 55.1181
27.8511 2912 53.963
27.9683 3003 54.7996
28.0855 2854 53.4228
28.2028 2968 54.4794
28.3201 2851 53.3948
28.4374 2724 52.192
28.5547 2516 50.1597
28.6721 2271 47.655
28.7894 2113 45.9674
28.9068 2194 46.8402
29.0242 2378 48.7647
29.1416 2506 50.06
29.259 2675 51.7204
29.3764 2905 53.8981
29.4939 3065 55.3624
29.6113 3113 55.7943
29.7288 3021 54.9636
29.8463 3000 54.7723
29.9638 2993 54.7083
30.0812 3128 55.9285
30.1987 3020 54.9545
30.3162 3107 55.7405
30.4337 3116 55.8211
30.5512 3006 54.827
30.6687 3007 54.8361
30.7862 3028 55.0273
30.9037 3083 55.5248
31.0212 3012 54.8817
31.1387 3006 54.827
31.2562 3004 54.8088
31.3737 2938 54.2033
31.4912 2866 53.535
31.6087 2888 53.7401
31.7262 2920 54.037
31.8436 2880 53.6656
31.9611 2710 52.0577
32.0785 2574 50.7346
32.1959 2390 48.8876
32.3134 2242 47.3498
32.4308 2143 46.2925
32.5482 2216 47.0744
32.6655 2363 48.6107
32.7829 2712 52.0769
32.9002 2786 52.7826
33.0176 2857 53.4509
33.1349 2950 54.3139
33.2522 2969 54.4885
33.3694 3063 55.3444
33.4867 3055 55.2721
33.6039 3031 55.0545
33.7211 2975 54.5436
33.8383 2974 54.5344
33.9554 3011 54.8726
34.0725 2933 54.1572
34.1896 2941 54.231
34.3067 2923 54.0648
34.4237 2867 53.5444
34.5407 3002 54.7905
34.6577 2946 54.2771
34.7746 3037 55.109
34.8915 2910 53.9444
35.0084 2750 52.4404
35.1252 2861 53.4883
35.242 2885 53.7122
35.3587 2925 54.0833
35.4755 2948 54.2955
35.5921 2860 53.479
35.7088 2632 51.303
35.8254 2474 49.7393
35.9419 2274 47.6865
36.0584 2093 45.7493
36.1749 2188 46.7761
36.2913 2230 47.2229
36.4077 2313 48.0937
36.524 2476 49.7594
36.6403 2682 51.788
36.7565 2811 53.0189
36.8727 2884 53.7029
36.9889 2993 54.7083
37.1049 2882 53.6843
37.221 0 1
37.3369 0 1
37.4529 0 1
37.5687 0 1
37.6845 0 1
37.8003 0 1
37.916 0 1
38.0316 0 1
38.1472 0 1
40.5851 0 1
40.7008 0 1
40.8164 0 1
40.9322 0 1
41.048 0 1
41.1639 0 1
41.2798 0 1
41.3958 0 1
41.5118 0 1
41.6279 0 1
41.744 2043 45.1996
41.8602 2201 46.9148
41.9765 2440 49.3964
42.0928 2403 49.0204
42.2091 2480 49.7996
42.3255 2534 50.3389
42.4419 2541 50.4083
42.5584 2518 50.1797
42.675 2557 50.5668
42.7915 2486 49.8598
42.9081 2324 48.2079
43.0248 2374 48.7237
43.1415 2342 48.3942
43.2582 2342 48.3942
43.375 2445 49.4469
43.4918 2372 48.7032
43.6087 2413 49.1223
43.7256 2297 47.927
43.8425 2337 48.3425
43.9595 2396 48.949
44.0765 2277 47.7179
44.1935 2263 47.571
44.3106 2195 46.8508
44.4277 2082 45.6289
44.5448 2038 45.1442
44.6619 1807 42.5088
44.7791 1731 41.6053
44.8963 1593 39.9124
45.0136 1579 39.7366
45.1308 1500 38.7298
45.2481 1682 41.0122
45.3654 1726 41.5452
45.4827 1901 43.6005
45.6001 1942 44.0681
45.7174 1933 43.9659
45.8348 1922 43.8406
45.9522 1957 44.238
46.0697 1909 43.6921
46.1871 1894 43.5201
46.3046 1777 42.1545
46.422 1788 42.2847
46.5395 1673 40.9023
46.657 1726 41.5452
46.7745 1726 41.5452
46.892 1729 41.5812
47.0096 1705 41.2916
47.1271 1798 42.4028
47.2446 1828 42.7551
47.3622 1779 42.1782
47.4797 1690 41.1096
47.5973 1762 41.9762
47.7149 1647 40.5832
47.8324 1561 39.5095
47.95 1586 39.8246
48.0675 1473 38.3797
48.1851 1422 37.7094
48.3027 1244 35.2704
48.4202 1170 34.2053
48.5378 1161 34.0735
48.6554 1248 35.327
48.7729 1257 35.4542
48.8904 1307 36.1525
49.008 1522 39.0128
49.1255 1478 38.4448
49.243 1542 39.2683
49.3605 1487 38.5616
49.478 1487 38.5616
49.5955 1511 38.8716
49.713 1476 38.4187
49.8304 1573 39.6611
49.9479 1503 38.7685
50.0653 1404 37.47
50.1827 1475 38.4057
50.3001 1541 39.2556
50.4175 1610 40.1248
50.5348 1648 40.5956
50.6521 1667 40.8289
50.7694 1768 42.0476
50.8867 1903 43.6234
51.004 1928 43.909
51.1212 1918 43.795
51.2384 1873 43.2782
51.3556 1924 43.8634
51.4727 1906 43.6578
51.5899 1820 42.6615
51.707 1765 42.0119
51.824 1660 40.7431
51.9411 1657 40.7063
52.0581 1608 40.0999
52.175 1629 40.3609
52.2919 1818 42.638
52.4088 1978 44.4747
52.5257 2197 46.8722
52.6425 2269 47.634
52.7593 2315 48.1144
52.876 2261 47.55
52.9927 2444 49.4368
53.1094 2408 49.0714
53.226 2383 48.816
53.3426 2467 49.6689
53.4591 2464 49.6387
53.5756 2313 48.0937
53.692 2287 47.8226
53.8084 2367 48.6518
53.9248 2425 49.2443
54.0411 2522 50.2195
54.1573 2568 50.6754
54.2735 0 1
54.3896 0 1
54.5057 0 1
54.6217 0 1
54.7377 0 1
54.8537 0 1
54.9695 0 1
55.0853 0 1
55.2011 0 1
55.3168 0 1
55.4324 0 1
57.824 0 1
57.9396 0 1
58.0553 0 1
58.1711 0 1
58.2869 0 1
58.4028 0 1
58.5187 0 1
58.6347 0 1
58.7508 0 1
58.8669 0 1
58.983 2472 49.7192
59.0992 2698 51.9423
59.2155 2792 52.8394
59.3318 3108 55.7494
59.4482 3058 55.2992
59.5646 3236 56.8859
59.681 3134 55.9821
59.7975 3071 55.4166
59.9141 3082 55.5158
60.0306 2963 54.4334
60.1473 2892 53.7773
60.2639 2683 51.7977
60.3807 2587 50.8626
60.4974 2490 49.8999
60.6142 2423 49.224
60.731 2326 48.2286
60.8479 2315 48.1144
60.9648 2416 49.1528
61.0818 2535 50.3488
61.1987 2641 51.3907
61.3158 2673 51.7011
61.4328 2743 52.3737
61.5499 2707 52.0288
61.667 2687 51.8363
61.7841 2696 51.923
61.9013 2665 51.6236
62.0185 2467 49.6689
62.1357 2503 50.03
62.253 2531 50.309
62.3702 2550 50.4975
62.4875 2544 50.4381
62.6049 2735 52.2972
62.7222 2727 52.2207
62.8396 2926 54.0925
62.9569 2920 54.037
63.0743 2880 53.6656
63.1918 2840 53.2917
63.3092 2875 53.619
63.4267 2775 52.6783
63.5441 2782 52.7447
63.6616 2698 51.9423
63.7791 2625 51.2348
63.8966 2405 49.0408
64.0142 2223 47.1487
64.1317 2122 46.0652
64.2492 2114 45.9783
64.3668 2060 45.3872
64.4843 2158 46.4543
64.6019 2296 47.9166
64.7195 2352 48.4974
64.837 2461 49.6085
64.9546 2483 49.8297
65.0722 2538 50.3786
65.1898 2488 49.8799
65.3074 2499 49.99
65.4249 2350 48.4768
65.5425 2308 48.0416
65.6601 2344 48.4149
65.7777 2218 47.0956
65.8952 2308 48.0416
66.0128 2338 48.3529
66.1304 2427 49.2646
66.2479 2507 50.07
66.3655 2723 52.1824
66.483 2674 51.7107
66.6005 2696 51.923
66.718 2668 51.6527
66.8355 2704 52
66.953 2697 51.9326
67.0705 2623 51.2152
67.1879 2566 50.6557
67.3054 2397 48.9592
67.4228 2325 48.2183
67.5402 2241 47.3392
67.6576 2087 45.6837
67.7749 1989 44.5982
67.8923 2117 46.0109
68.0096 2107 45.9021
68.1269 2220 47.1169
68.2442 2360 48.5798
68.3614 2525 50.2494
68.4787 2588 50.8724
68.5958 2629 51.2738
68.713 2553 50.5272
68.8302 2630 51.2835
68.9473 2613 51.1175
69.0643 2503 50.03
69.1814 2383 48.816
69.2984 2491 49.9099
69.4154 2326 48.2286
69.5323 2436 49.3559
69.6492 2555 50.547
69.7661 2679 51.7591
69.8829 2750 52.4404
69.9997 2961 54.4151
70.1165 2864 53.5164
70.2332 3019 54.9454
70.3499 2978 54.5711
70.4665 3095 55.6327
70.5831 3003 54.7996
70.6996 2872 53.591
70.8161 2845 53.3385
70.9326 2846 53.3479
71.049 2595 50.9411
71.1653 2543 50.4282
71.2817 2383 48.816
71.3979 2257 47.5079
71.5141 2101 45.8367
71.6303 2042 45.1885
71.7464 1795 42.3674
71.8624 0 1
71.9784 0 1
72.0944 0 1
72.2102 0 1
72.3261 0 1
72.4418 0 1
72.5575 0 1
72.6732 0 1
75.1054 0 1
75.2209 0 1
75.3365 0 1
75.4521 0 1
75.5678 0 1
75.6835 0 1
75.7993 0 1
75.9151 0 1
76.031 0 1
76.147 2615 51.1371
76.263 2747 52.4118
76.3791 2677 51.7397
76.4952 2713 52.0865
76.6113 2524 50.2394
76.7276 2301 47.9687
76.8438 2183 46.7226
76.9601 2257 47.5079
77.0765 2367 48.6518
77.1929 2507 50.07
77.3093 2705 52.0096
77.4258 2807 52.9811
77.5423 2924 54.074
77.6589 2729 52.2398
77.7755 2819 53.0943
77.8921 2758 52.5167
78.0088 2650 51.4782
78.1256 2428 49.2747
78.2423 2313 48.0937
78.3591 2167 46.551
78.4759 2185 46.744
78.5928 2272 47.6655
78.7097 2600 50.9902
78.8266 2680 51.7687
78.9436 2974 54.5344
79.0606 2953 54.3415
79.1776 3015 54.909
79.2946 3005 54.8179
79.4117 3008 54.8452
79.5288 2907 53.9166
79.6459 2961 54.4151
79.7631 2821 53.1131
79.8802 2663 51.6043
79.9974 2648 51.4587
80.1147 2490 49.8999
80.2319 2323 48.1975
80.3491 2066 45.4533
80.4664 2144 46.3033
80.5837 2089 45.7056
80.701 2186 46.7547
80.8183 2305 48.0104
80.9357 2456 49.558
81.053 2442 49.4166
81.1704 2501 50.01
81.2877 2484 49.8397
81.4051 2554 50.5371
81.5225 2416 49.1528
81.6399 2418 49.1732
81.7573 2276 47.7074
81.8747 2072 45.5192
81.9922 1939 44.0341
82.1096 1884 43.4051
82.227 2035 45.111
82.3444 2217 47.085
82.4619 2457 49.5681
82.5793 2509 50.0899
82.6967 2604 51.0294
82.8142 2644 51.4198
82.9316 2689 51.8556
83.049 2645 51.4296
83.1664 2603 51.0196
83.2838 2499 49.99
83.4012 2430 49.295
83.5186 2354 48.518
83.636 2216 47.0744
83.7534 2164 46.5188
83.8708 2012 44.8553
83.9881 1955 44.2154
84.1055 1773 42.107
84.2228 1854 43.0581
84.3401 1977 44.4635
84.4575 2096 45.7821
84.5747 2216 47.0744
84.692 2284 47.7912
84.8093 2286 47.8121
84.9265 2400 48.9898
85.0437 2317 48.1352
85.1609 2307 48.0312
85.2781 2169 46.5725
85.3952 1944 44.0908
85.5123 1866 43.1972
85.6294 1733 41.6293
85.7465 1842 42.9185
85.8636 2070 45.4973
85.9806 2248 47.4131
86.0976 2529 50.2892
86.2145 2645 51.4296
86.3315 2809 53
86.4484 2769 52.6213
86.5652 2999 54.7631
86.682 2976 54.5527
86.7988 2811 53.0189
86.9156 2794 52.8583
87.0323 2811 53.0189
87.149 2643 51.4101
87.2657 2601 51
87.3823 2446 49.4571
87.4988 2265 47.592
87.6154 2239 47.3181
87.7318 2319 48.156
87.8483 2401 49
87.9647 2367 48.6518
88.081 2623 51.2152
88.1973 2787 52.792
88.3136 2839 53.2823
88.4298 2778 52.7067
88.546 2827 53.1695
88.6621 2749 52.4309
88.7781 2611 51.0979
88.8942 0 1
89.0101 0 1
89.126 0 1
89.2419 0 1
89.3577 0 1
89.4734 0 1
89.5891 0 1
89.7047 0 1
89.8203 0 1
89.9358 0 1
92.3269 0 1
92.4424 0 1
92.558 0 1
92.6736 0 1
92.7893 0 1
92.905 0 1
93.0208 0 1
93.1366 0 1
93.2525 0 1
93.3685 0 1
93.4845 0 1
93.6005 2684 51.8073
93.7167 2690 51.8652
93.8328 2747 52.4118
93.949 2733 52.2781
94.0653 2725 52.2015
94.1816 2576 50.7543
94.2979 2501 50.01
94.4143 2251 47.4447
94.5307 2185 46.744
94.6472 1953 44.1928
94.7637 2089 45.7056
94.8803 2265 47.592
94.9969 2549 50.4876
95.1135 2745 52.3927
95.2302 2979 54.5802
95.3469 2984 54.626
95.4637 2979 54.5802
95.5805 3110 55.7674
95.6973 3076 55.4617
95.8142 3136 56
95.9311 3023 54.9818
96.048 2927 54.1018
96.1649 2857 53.4509
96.2819 2870 53.5724
96.3989 2704 52
96.516 2516 50.1597
96.633 2453 49.5278
96.7501 2443 49.4267
96.8673 2398 48.9694
96.9844 2403 49.0204
97.1016 2473 49.7293
97.2188 2655 51.5267
97.336 2653 51.5073
97.4532 2804 52.9528
97.5704 2802 52.9339
97.6877 2781 52.7352
97.805 2761 52.5452
97.9223 2586 50.8527
98.0396 2344 48.4149
98.1569 2105 45.8803
98.2743 1926 43.8862
98.3916 1958 44.2493
98.509 2094 45.7602
98.6264 2518 50.1797
98.7438 2720 52.1536
98.8612 2845 53.3385
98.9786 3003 54.7996
99.096 3060 55.3173
99.2134 3080 55.4977
99.3308 3115 55.8122
99.4482 3099 55.6687
99.5656 2962 54.4243
99.6831 3016 54.9181
99.8005 2871 53.5817
99.9179 2834 53.2353
100.035 2624 51.225
100.153 2579 50.7839
100.27 2436 49.3559
100.388 2502 50.02
100.505 2466 49.6588
100.622 2585 50.8429
100.74 2592 50.9117
100.857 2754 52.4786
100.975 2868 53.5537
101.092 2842 53.3104
101.209 2811 53.0189
101.327 2756 52.4976
101.444 2696 51.923
101.561 2547 50.4678
101.679 2269 47.634
101.796 2096 45.7821
101.913 2009 44.8219
102.03 2134 46.1952
102.148 2482 49.8197
102.265 2818 53.0848
102.382 3040 55.1362
102.499 3083 55.5248
102.616 2996 54.7357
102.733 3162 56.2317
102.851 3391 58.2323
102.968 3208 56.6392
103.085 3173 56.3294
103.202 3102 55.6956
103.319 3074 55.4437
103.436 2941 54.231
103.552 2807 52.9811
103.669 2736 52.3068
103.786 2649 51.4684
103.903 2704 52
104.02 2621 51.1957
104.137 2761 52.5452
104.253 2739 52.3355
104.37 3028 55.0273
104.487 3080 55.4977
104.603 2957 54.3783
104.72 2970 54.4977
104.836 2931 54.1387
104.953 2872 53.591
105.069 2644 51.4198
105.186 2320 48.1664
105.302 2297 47.927
105.418 2246 47.392
105.535 2405 49.0408
105.651 2802 52.9339
105.767 3146 56.0892
105.883 3357 57.9396
105.999 3432 58.5833
106.115 0 1
106.231 0 1
106.347 0 1
106.463 0 1
106.579 0 1
106.694 0 1
106.81 0 1
106.926 0 1
107.041 0 1
107.157 0 1
109.576 0 1
109.692 0 1
109.807 0 1
109.923 0 1
110.039 0 1
110.155 0 1
110.27 0 1
110.386 0 1
110.502 0 1
110.618 2501 50.01
110.735 2898 53.8331
110.851 3164 56.2494
110.967 3291 57.3672
111.083 3246 56.9737
111.199 3331 57.7148
111.316 3411 58.4038
111.432 3478 58.9746
111.549 3450 58.7367
111.665 3438 58.6345
111.782 3250 57.0088
111.898 3126 55.9106
112.015 3043 55.1634
112.132 3013 54.8908
112.248 2863 53.507
112.365 2919 54.0278
112.482 2796 52.8772
112.599 2881 53.6749
112.716 2889 53.7494
112.832 3023 54.9818
112.949 3100 55.6776
113.066 3021 54.9636
113.183 3060 55.3173
113.3 2940 54.2218
113.417 2983 54.6168
113.534 2792 52.8394
113.652 2648 51.4587
113.769 2235 47.2758
113.886 2108 45.913
114.003 2111 45.9456
114.12 2347 48.4458
114.238 2704 52
114.355 3063 55.3444
114.472 3121 55.8659
114.589 3475 58.9491
114.707 3470 58.9067
114.824 3403 58.3352
114.942 3458 58.8048
115.059 3449 58.7282
115.176 3358 57.9483
115.294 3374 58.0861
115.411 3316 57.5847
115.529 3168 56.285
115.646 3071 55.4166
115.764 2996 54.7357
115.881 2988 54.6626
115.999 2951 54.3231
116.116 3022 54.9727
116.234 3044 55.1725
116.351 3067 55.3805
116.469 3122 55.8749
116.586 3274 57.2189
116.704 3167 56.2761
116.821 3129 55.9375
116.939 3126 55.9106
117.056 3073 55.4346
117.174 2898 53.8331
117.291 2578 50.774
117.409 2309 48.0521
117.526 2195 46.8508
117.644 2255 47.4868
117.761 2542 50.4183
117.879 3032 55.0636
117.996 3164 56.2494
118.114 3378 58.1206
118.231 3420 58.4808
118.349 3335 57.7495
118.466 3481 59
118.584 3570 59.7495
118.701 3531 59.4222
118.819 3442 58.6686
118.936 3353 57.9051
119.053 3184 56.4269
119.171 3170 56.3028
119.288 3185 56.4358
119.405 2931 54.1387
119.523 3040 55.1362
119.64 2997 54.7449
119.757 2926 54.0925
119.875 3021 54.9636
119.992 3121 55.8659
120.109 3081 55.5068
120.226 3117 55.8301
120.343 3139 56.0268
120.46 3026 55.0091
120.578 2951 54.3231
120.695 3048 55.2087
120.812 2828 53.1789
120.929 2558 50.5767
121.046 2369 48.6724
121.163 2277 47.7179
121.279 2157 46.4435
121.396 2355 48.5283
121.513 2717 52.1249
121.63 3141 56.0446
121.747 3144 56.0714
121.863 3336 57.7581
121.98 3416 58.4466
122.097 3371 58.0603
122.213 3347 57.8533
122.33 3356 57.931
122.446 3361 57.9741
122.563 3247 56.9825
122.679 3187 56.4535
122.795 3184 56.4269
122.912 3024 54.9909
123.028 3061 55.3263
123.144 2863 53.507
123.26 2959 54.3967
123.377 0 1
123.493 0 1
123.609 0 1
123.725 0 1
123.84 0 1
123.956 0 1
124.072 0 1
124.188 0 1
124.303 0 1
124.419 0 1
126.852 0 1
126.968 0 1
127.083 0 1
127.199 0 1
127.315 0 1
127.431 0 1
127.547 0 1
127.663 0 1
127.779 0 1
127.895 0 1
128.011 0 1
128.127 0 1
128.243 0 1
128.359 3195 56.5243
128.476 3265 57.1402
128.592 3308 57.5152
128.708 3191 56.4889
128.825 3273 57.2101
128.941 3292 57.376
129.058 3340 57.7927
129.174 3458 58.8048
129.291 3413 58.4209
129.408 3270 57.1839
129.524 3408 58.3781
129.641 3344 57.8273
129.758 3096 55.6417
129.875 2864 53.5164
129.992 2613 51.1175
130.108 2422 49.2138
130.225 2352 48.4974
130.342 2715 52.1057
130.459 2955 54.3599
130.576 3312 57.55
130.693 3507 59.2199
130.81 3535 59.4559
130.928 3604 60.0333
131.045 3643 60.3573
131.162 3517 59.3043
131.279 3641 60.3407
131.396 3651 60.4235
131.513 3640 60.3324
131.631 3576 59.7997
131.748 3536 59.4643
131.865 3494 59.1101
131.983 3579 59.8247
132.1 3541 59.5063
132.217 3524 59.3633
132.335 3509 59.2368
132.452 3500 59.1608
132.57 3378 58.1206
132.687 3489 59.0678
132.804 3635 60.291
132.922 3511 59.2537
133.039 3382 58.155
133.157 3475 58.9491
133.274 3257 57.0701
133.392 3034 55.0818
133.509 2797 52.8867
133.627 2517 50.1697
133.744 2383 48.816
133.862 2456 49.558
133.979 2828 53.1789
134.097 3212 56.6745
134.214 3373 58.0775
134.332 3520 59.3296
134.449 3634 60.2827
134.567 3700 60.8276
134.684 3622 60.1831
134.802 3772 61.4166
134.919 3688 60.7289
135.037 3722 61.0082
135.154 3621 60.1747
135.272 3601 60.0083
135.389 3487 59.0508
135.507 3554 59.6154
135.624 3495 59.1185
135.742 3517 59.3043
135.859 3557 59.6406
135.977 3541 59.5063
136.094 3530 59.4138
136.211 3554 59.6154
136.329 3614 60.1166
136.446 3479 58.983
136.564 3568 59.7327
136.681 3516 59.2959
136.798 3372 58.0689
136.915 3283 57.2975
137.033 2962 54.4243
137.15 2680 51.7687
137.267 2490 49.8999
137.384 2493 49.93
137.502 2516 50.1597
137.619 2925 54.0833
137.736 3166 56.2672
137.853 3242 56.9386
137.97 3516 59.2959
138.087 3437 58.6259
138.204 3570 59.7495
138.321 3650 60.4152
138.438 3718 60.9754
138.555 3713 60.9344
138.672 3590 59.9166
138.788 3718 60.9754
138.905 3699 60.8194
139.022 3708 60.8933
139.139 3737 61.131
139.255 3679 60.6548
139.372 3584 59.8665
139.488 3545 59.5399
139.605 3639 60.3241
139.721 3604 60.0333
139.838 3710 60.9098
139.954 3642 60.349
140.071 3619 60.1581
140.187 3638 60.3158
140.303 3676 60.63
140.419 3552 59.5987
140.535 3322 57.6368
140.652 2989 54.6717
140.768 0 1
140.884 0 1
141 0 1
141.115 0 1
141.231 0 1
141.347 0 1
141.463 0 1
141.578 0 1
141.694 0 1
144.104 0 1
144.219 0 1
144.335 0 1
144.45 0 1
144.566 0 1
144.682 0 1
144.798 0 1
144.914 0 1
145.03 0 1
145.146 2600 50.9902
145.262 2806 52.9717
145.378 2936 54.1849
145.494 2868 53.5537
145.61 2805 52.9623
145.726 2631 51.2933
145.842 2391 48.8979
145.959 2322 48.1871
146.075 2232 47.244
146.192 2057 45.3542
146.308 2258 47.5184
146.425 2392 48.9081
146.541 2402 49.0102
146.658 2598 50.9706
146.774 2801 52.9245
146.891 2910 53.9444
147.008 2918 54.0185
147.125 3088 55.5698
147.241 2992 54.6992
147.358 3206 56.6216
147.475 3278 57.2538
147.592 3165 56.2583
147.709 3163 56.2406
147.826 3117 55.8301
147.943 3136 56
148.06 3187 56.4535
148.177 3104 55.7136
148.294 2964 54.4426
148.411 3067 55.3805
148.528 3028 55.0273
148.645 2997 54.7449
148.762 3143 56.0625
148.88 3118 55.8391
148.997 3207 56.6304
149.114 3187 56.4535
149.231 3142 56.0535
149.349 3199 56.5597
149.466 2961 54.4151
149.583 2765 52.5833
149.701 2613 51.1175
149.818 2490 49.8999
149.935 2303 47.9896
150.053 2202 46.9255
150.17 2393 48.9183
150.287 2320 48.1664
150.405 2657 51.5461
150.522 2882 53.6843
150.64 3009 54.8544
150.757 2998 54.754
150.875 3187 56.4535
150.992 3374 58.0861
151.11 3361 57.9741
151.227 3341 57.8014
151.344 3416 58.4466
151.462 3302 57.463
151.579 3422 58.4979
151.697 3356 57.931
151.814 3390 58.2237
151.932 3295 57.4021
152.049 3196 56.5332
152.167 3199 56.5597
152.284 3231 56.8419
152.402 3210 56.6569
152.519 3319 57.6108
152.636 3290 57.3585
152.754 3237 56.8946
152.871 3264 57.1314
152.989 3245 56.9649
153.106 3103 55.7046
153.223 2947 54.2863
153.341 2652 51.4976
153.458 2570 50.6952
153.575 2400 48.9898
153.693 2482 49.8197
153.81 2445 49.4469
153.927 2622 51.2055
154.044 2719 52.144
154.162 2975 54.5436
154.279 3047 55.1996
154.396 3278 57.2538
154.513 3311 57.5413
154.63 3605 60.0417
154.747 3472 58.9237
154.864 3575 59.7913
154.981 3454 58.7707
155.098 3382 58.155
155.215 3536 59.4643
155.332 3426 58.532
155.449 3516 59.2959
155.566 3394 58.258
155.683 3361 57.9741
155.8 3343 57.8187
155.917 3350 57.8792
156.033 3400 58.3095
156.15 0 1
156.267 0 1
156.383 0 1
156.5 0 1
156.617 0 1
156.733 0 1
156.85 0 1
156.966 0 1
157.082 0 1
157.199 0 1
157.315 0 1
157.431 0 1
157.547 0 1
157.664 0 1
157.78 0 1
157.896 0 1
158.012 0 1
158.128 0 1
158.244 0 1
158.359 0 1
158.475 0 1
158.591 0 1
158.706 0 1
