
6.15755 0 1
6.2731 0 1
6.3887 0 1
6.50437 0 1
6.62009 0 1
6.73587 0 1
6.8517 0 1
6.96759 0 1
7.08353 0 1
7.19952 0 1
7.31557 0 1
7.43166 0 1
7.54781 0 1
7.664 0 1
7.78024 0 1
7.89653 0 1
8.01286 0 1
8.12924 0 1
8.24567 0 1
8.36213 0 1
8.47864 0 1
8.59519 0 1
8.71178 0 1
8.82841 0 1
8.94508 0 1
9.06179 0 1
9.17853 0 1
9.29531 0 1
9.41212 0 1
9.52897 0 1
9.64584 0 1
9.76276 0 1
9.8797 0 1
9.99667 0 1
10.1137 0 1
10.2307 0 1
10.3478 0 1
10.4648 0 1
10.5819 0 1
10.6991 0 1
10.8162 0 1
10.9334 0 1
11.0506 0 1
11.1678 0 1
11.285 0 1
11.4023 0 1
11.5196 0 1
11.6369 0 1
11.7542 0 1
11.8715 0 1
11.9888 0 1
12.1062 0 1
12.2235 0 1
12.3409 0 1
12.4582 0 1
12.5756 0 1
12.693 0 1
12.8104 0 1
12.9278 0 1
13.0452 0 1
13.1626 0 1
13.28 0 1
13.3974 0 1
13.5149 0 1
13.6323 0 1
13.7497 0 1
13.8671 0 1
13.9845 0 1
14.1019 0 1
14.2193 0 1
14.3367 0 1
14.4541 0 1
14.5714 0 1
14.6888 0 1
14.8062 0 1
14.9235 0 1
15.0408 0 0
15.1581 0 0
15.2755 0 0
15.3927 0 0
15.51 0 0
15.6273 0 0
15.7445 0 0
15.8617 0 0
15.9789 0 0
16.0961 0 0
16.2132 0 0
16.3304 0 0
16.4475 0 0
16.5646 0 0
16.6816 0 0
16.7986 0 0
16.9156 0 0
17.0326 0 0
17.1496 0 0
17.2665 0 0
17.3833 0 0
17.5002 0 0
17.617 0 0
17.7338 0 0
17.8505 0 0
17.9672 0 0
18.0839 0 0
18.2005 0 0
18.3171 0 0
18.4337 0 0
18.5502 0 0
18.6666 0 0
18.7831 0 0
18.8994 0 0
19.0158 0 0
19.1321 0 0
19.2483 0 0
19.3645 0 0
19.4806 0 0
19.5967 0 0
19.7128 0 0
19.8288 0 0
19.9447 0 0
20.0606 0 1
20.1764 0 1
20.2922 0 1
20.4079 0 1
20.5236 0 1
20.6392 0 1
20.7548 0 1
20.8702 0 1
23.3078 0 1
23.4233 0 1
23.539 0 1
23.6547 0 1
23.7704 0 1
23.8862 0 1
24.0021 0 1
24.118 0 1
24.234 0 1
24.35 0 1
24.4661 1392 37.3095
24.5822 1356 36.8239
24.6984 1342 36.6333
24.8146 1276 35.7211
24.9309 1305 36.1248
25.0472 1289 35.9026
25.1636 1354 36.7967
25.28 1356 36.8239
25.3965 1355 36.8103
25.513 1516 38.9358
25.6296 1473 38.3797
25.7462 1585 39.8121
25.8628 1544 39.2938
25.9795 1560 39.4968
26.0962 1589 39.8623
26.213 1575 39.6863
26.3298 1564 39.5474
26.4466 1538 39.2173
26.5635 1478 38.4448
26.6804 1474 38.3927
26.7973 1386 37.229
26.9143 1485 38.5357
27.0313 1433 37.855
27.1483 1488 38.5746
27.2653 1439 37.9342
27.3824 1504 38.7814
27.4996 1516 38.9358
27.6167 1568 39.598
27.7339 1532 39.1408
27.8511 1522 39.0128
27.9683 1440 37.9473
28.0855 1411 37.5633
28.2028 1367 36.973
28.3201 1344 36.6606
28.4374 1239 35.1994
28.5547 1242 35.242
28.6721 1321 36.3456
28.7894 1247 35.3129
28.9068 1344 36.6606
29.0242 1333 36.5103
29.1416 1454 38.1314
29.259 1443 37.9868
29.3764 1462 38.2361
29.4939 1547 39.3319
29.6113 1502 38.7556
29.7288 1604 40.05
29.8463 1539 39.2301
29.9638 1496 38.6782
30.0812 1404 37.47
30.1987 1371 37.027
30.3162 1447 38.0395
30.4337 1348 36.7151
30.5512 1363 36.9188
30.6687 1468 38.3145
30.7862 1511 38.8716
30.9037 1543 39.281
31.0212 1583 39.7869
31.1387 1559 39.4842
31.2562 1484 38.5227
31.3737 1535 39.1791
31.4912 1446 38.0263
31.6087 1455 38.1445
31.7262 1360 36.8782
31.8436 1279 35.7631
31.9611 1292 35.9444
32.0785 1214 34.8425
32.1959 1219 34.9142
32.3134 1331 36.4829
32.4308 1279 35.7631
32.5482 1373 37.054
32.6655 1431 37.8286
32.7829 1498 38.704
32.9002 1472 38.3667
33.0176 1502 38.7556
33.1349 1524 39.0384
33.2522 1523 39.0256
33.3694 1560 39.4968
33.4867 1563 39.5348
33.6039 1519 38.9744
33.7211 1505 38.7943
33.8383 1368 36.9865
33.9554 1410 37.55
34.0725 1363 36.9188
34.1896 1430 37.8153
34.3067 1470 38.3406
34.4237 1526 39.064
34.5407 1591 39.8873
34.6577 1612 40.1497
34.7746 1558 39.4715
34.8915 1466 38.2884
35.0084 1497 38.6911
35.1252 1438 37.921
35.242 1474 38.3927
35.3587 1386 37.229
35.4755 1349 36.7287
35.5921 1309 36.1801
35.7088 1244 35.2704
35.8254 1194 34.5543
35.9419 1243 35.2562
36.0584 1248 35.327
36.1749 1328 36.4417
36.2913 1377 37.108
36.4077 1401 37.4299
36.524 1457 38.1707
36.6403 1541 39.2556
36.7565 1537 39.2046
36.8727 1524 39.0384
36.9889 1538 39.2173
37.1049 1542 39.2683
37.221 0 1
37.3369 0 1
37.4529 0 1
37.5687 0 1
37.6845 0 1
37.8003 0 1
37.916 0 1
38.0316 0 1
38.1472 0 1
40.5851 0 1
40.7008 0 1
40.8164 0 1
40.9322 0 1
41.048 0 1
41.1639 0 1
41.2798 0 1
41.3958 0 1
41.5118 0 1
41.6279 0 1
41.744 1278 35.7491
41.8602 1345 36.6742
41.9765 1413 37.5899
42.0928 1343 36.647
42.2091 1394 37.3363
42.3255 1356 36.8239
42.4419 1352 36.7696
42.5584 1339 36.5923
42.675 1242 35.242
42.7915 1226 35.0143
42.9081 1289 35.9026
43.0248 1328 36.4417
43.1415 1376 37.0945
43.2582 1387 37.2424
43.375 1437 37.9078
43.4918 1395 37.3497
43.6087 1492 38.6264
43.7256 1344 36.6606
43.8425 1376 37.0945
43.9595 1375 37.081
44.0765 1277 35.7351
44.1935 1196 34.5832
44.3106 1170 34.2053
44.4277 1055 32.4808
44.5448 1004 31.686
44.6619 1040 32.249
44.7791 1006 31.7175
44.8963 1033 32.1403
45.0136 1104 33.2265
45.1308 1167 34.1614
45.2481 1248 35.327
45.3654 1235 35.1426
45.4827 1204 34.6987
45.6001 1241 35.2278
45.7174 1213 34.8281
45.8348 1229 35.0571
45.9522 1129 33.6006
46.0697 1082 32.8938
46.1871 1057 32.5115
46.3046 1038 32.218
46.422 1084 32.9242
46.5395 1053 32.45
46.657 1100 33.1662
46.7745 1110 33.3167
46.892 1111 33.3317
47.0096 1084 32.9242
47.1271 1119 33.4515
47.2446 1085 32.9393
47.3622 1104 33.2265
47.4797 1053 32.45
47.5973 1006 31.7175
47.7149 1008 31.749
47.8324 943 30.7083
47.95 901 30.0167
48.0675 863 29.3769
48.1851 792 28.1425
48.3027 796 28.2135
48.4202 843 29.0345
48.5378 858 29.2916
48.6554 888 29.7993
48.7729 886 29.7658
48.8904 1014 31.8434
49.008 997 31.5753
49.1255 1013 31.8277
49.243 1042 32.28
49.3605 1045 32.3265
49.478 974 31.209
49.5955 972 31.1769
49.713 937 30.6105
49.8304 936 30.5941
49.9479 975 31.225
50.0653 1023 31.9844
50.1827 1094 33.0757
50.3001 1097 33.121
50.4175 1106 33.2566
50.5348 1150 33.9116
50.6521 1225 35
50.7694 1157 34.0147
50.8867 1253 35.3977
51.004 1241 35.2278
51.1212 1303 36.0971
51.2384 1251 35.3695
51.3556 1223 34.9714
51.4727 1169 34.1906
51.5899 1071 32.7261
51.707 1060 32.5576
51.824 1060 32.5576
51.9411 1146 33.8526
52.0581 1232 35.0999
52.175 1365 36.9459
52.2919 1379 37.1349
52.4088 1411 37.5633
52.5257 1537 39.2046
52.6425 1487 38.5616
52.7593 1428 37.7889
52.876 1471 38.3536
52.9927 1480 38.4708
53.1094 1531 39.128
53.226 1486 38.5487
53.3426 1458 38.1838
53.4591 1419 37.6696
53.5756 1492 38.6264
53.692 1503 38.7685
53.8084 1607 40.0874
53.9248 1650 40.6202
54.0411 1619 40.2368
54.1573 1655 40.6817
54.2735 0 1
54.3896 0 1
54.5057 0 1
54.6217 0 1
54.7377 0 1
54.8537 0 1
54.9695 0 1
55.0853 0 1
55.2011 0 1
55.3168 0 1
55.4324 0 1
57.824 0 1
57.9396 0 1
58.0553 0 1
58.1711 0 1
58.2869 0 1
58.4028 0 1
58.5187 0 1
58.6347 0 1
58.7508 0 1
58.8669 0 1
58.983 1957 44.238
59.0992 2073 45.5302
59.2155 2158 46.4543
59.3318 2108 45.913
59.4482 2097 45.793
59.5646 2115 45.9891
59.681 2087 45.6837
59.7975 2014 44.8776
59.9141 2027 45.0222
60.0306 1869 43.2319
60.1473 1748 41.8091
60.2639 1709 41.3401
60.3807 1497 38.6911
60.4974 1517 38.9487
60.6142 1535 39.1791
60.731 1642 40.5216
60.8479 1745 41.7732
60.9648 1883 43.3935
61.0818 1951 44.1701
61.1987 1951 44.1701
61.3158 1955 44.2154
61.4328 2023 44.9778
61.5499 1987 44.5758
61.667 1929 43.9204
61.7841 1994 44.6542
61.9013 1963 44.3058
62.0185 1945 44.1022
62.1357 1936 44
62.253 1928 43.909
62.3702 2145 46.3141
62.4875 2097 45.793
62.6049 2156 46.4327
62.7222 2141 46.2709
62.8396 2166 46.5403
62.9569 2159 46.465
63.0743 2121 46.0543
63.1918 2103 45.8585
63.3092 2060 45.3872
63.4267 1952 44.1814
63.5441 1926 43.8862
63.6616 1689 41.0974
63.7791 1540 39.2428
63.8966 1476 38.4187
64.0142 1443 37.9868
64.1317 1546 39.3192
64.2492 1665 40.8044
64.3668 1776 42.1426
64.4843 1863 43.1625
64.6019 2059 45.3762
64.7195 2067 45.4643
64.837 2084 45.6508
64.9546 2038 45.1442
65.0722 2054 45.3211
65.1898 2015 44.8888
65.3074 2091 45.7275
65.4249 2024 44.9889
65.5425 2023 44.9778
65.6601 1905 43.6463
65.7777 2077 45.5741
65.8952 2105 45.8803
66.0128 2078 45.5851
66.1304 2040 45.1664
66.2479 2160 46.4758
66.3655 2149 46.3573
66.483 2221 47.1275
66.6005 2233 47.2546
66.718 2223 47.1487
66.8355 2154 46.4112
66.953 2197 46.8722
67.0705 2028 45.0333
67.1879 1982 44.5197
67.3054 1751 41.845
67.4228 1592 39.8999
67.5402 1498 38.704
67.6576 1458 38.1838
67.7749 1516 38.9358
67.8923 1782 42.2137
68.0096 2024 44.9889
68.1269 2101 45.8367
68.2442 2220 47.1169
68.3614 2198 46.8828
68.4787 2265 47.592
68.5958 2248 47.4131
68.713 2297 47.927
68.8302 2292 47.8748
68.9473 2227 47.1911
69.0643 2194 46.8402
69.1814 2184 46.7333
69.2984 2099 45.8148
69.4154 2289 47.8435
69.5323 2379 48.775
69.6492 2456 49.558
69.7661 2529 50.2892
69.8829 2454 49.5379
69.9997 2578 50.774
70.1165 2558 50.5767
70.2332 2781 52.7352
70.3499 2462 49.6185
70.4665 2444 49.4368
70.5831 2441 49.4065
70.6996 2329 48.2597
70.8161 2222 47.1381
70.9326 2182 46.7119
71.049 1878 43.3359
71.1653 1639 40.4846
71.2817 1543 39.281
71.3979 1552 39.3954
71.5141 1634 40.4228
71.6303 1903 43.6234
71.7464 1883 43.3935
71.8624 0 1
71.9784 0 1
72.0944 0 1
72.2102 0 1
72.3261 0 1
72.4418 0 1
72.5575 0 1
72.6732 0 1
75.1054 0 1
75.2209 0 1
75.3365 0 1
75.4521 0 1
75.5678 0 1
75.6835 0 1
75.7993 0 1
75.9151 0 1
76.031 0 1
76.147 2224 47.1593
76.263 2284 47.7912
76.3791 2119 46.0326
76.4952 1861 43.1393
76.6113 1615 40.1871
76.7276 1917 43.7836
76.8438 2001 44.7325
76.9601 2334 48.3115
77.0765 2546 50.4579
77.1929 2795 52.8678
77.3093 2795 52.8678
77.4258 2833 53.2259
77.5423 2888 53.7401
77.6589 2862 53.4977
77.7755 2801 52.9245
77.8921 2838 53.2729
78.0088 2820 53.1037
78.1256 2674 51.7107
78.2423 2643 51.4101
78.3591 2648 51.4587
78.4759 2694 51.9038
78.5928 2824 53.1413
78.7097 2896 53.8145
78.8266 3023 54.9818
78.9436 2889 53.7494
79.0606 3002 54.7905
79.1776 3060 55.3173
79.2946 3005 54.8179
79.4117 2946 54.2771
79.5288 2986 54.6443
79.6459 2888 53.7401
79.7631 2817 53.0754
79.8802 2710 52.0577
79.9974 2497 49.97
80.1147 2123 46.076
80.2319 1942 44.0681
80.3491 1937 44.0114
80.4664 2122 46.0652
80.5837 2417 49.163
80.701 2751 52.45
80.8183 2932 54.1479
80.9357 2938 54.2033
81.053 3132 55.9643
81.1704 3071 55.4166
81.2877 3152 56.1427
81.4051 3041 55.1453
81.5225 3102 55.6956
81.6399 2985 54.6352
81.7573 2987 54.6535
81.8747 2840 53.2917
81.9922 2836 53.2541
82.1096 2875 53.619
82.227 2948 54.2955
82.3444 3046 55.1906
82.4619 3068 55.3895
82.5793 2989 54.6717
82.6967 3289 57.3498
82.8142 3171 56.3116
82.9316 3097 55.6507
83.049 3157 56.1872
83.1664 2984 54.626
83.2838 3017 54.9272
83.4012 2923 54.0648
83.5186 2833 53.2259
83.636 2480 49.7996
83.7534 2262 47.5605
83.8708 1936 44
83.9881 1919 43.8064
84.1055 2052 45.299
84.2228 2345 48.4252
84.3401 2669 51.6624
84.4575 3024 54.9909
84.5747 3078 55.4797
84.692 3274 57.2189
84.8093 3277 57.2451
84.9265 3364 58
85.0437 3206 56.6216
85.1609 3259 57.0877
85.2781 3137 56.0089
85.3952 3210 56.6569
85.5123 3064 55.3534
85.6294 3183 56.4181
85.7465 3149 56.116
85.8636 3253 57.0351
85.9806 3476 58.9576
86.0976 3582 59.8498
86.2145 3615 60.1249
86.3315 3611 60.0916
86.4484 3830 61.887
86.5652 3733 61.0983
86.682 3786 61.5305
86.7988 3595 59.9583
86.9156 3566 59.716
87.0323 3337 57.7668
87.149 3393 58.2495
87.2657 2952 54.3323
87.3823 2649 51.4684
87.4988 2411 49.1019
87.6154 2491 49.9099
87.7318 2891 53.768
87.8483 3250 57.0088
87.9647 3803 61.6685
88.081 3820 61.8061
88.1973 3937 62.7455
88.3136 4069 63.7887
88.4298 4091 63.9609
88.546 4068 63.7809
88.6621 3828 61.8708
88.7781 3905 62.49
88.8942 0 1
89.0101 0 1
89.126 0 1
89.2419 0 1
89.3577 0 1
89.4734 0 1
89.5891 0 1
89.7047 0 1
89.8203 0 1
89.9358 0 1
92.3269 0 1
92.4424 0 1
92.558 0 1
92.6736 0 1
92.7893 0 1
92.905 0 1
93.0208 0 1
93.1366 0 1
93.2525 0 1
93.3685 0 1
93.4845 0 1
93.6005 4263 65.2917
93.7167 4218 64.9461
93.8328 4262 65.284
93.949 4261 65.2763
94.0653 4229 65.0308
94.1816 4184 64.6838
94.2979 4327 65.7799
94.4143 4186 64.6993
94.5307 4216 64.9307
94.6472 4073 63.8201
94.7637 3939 62.7615
94.8803 4234 65.0692
94.9969 4267 65.3223
95.1135 4267 65.3223
95.2302 4372 66.1211
95.3469 4492 67.0224
95.4637 4467 66.8356
95.5805 4583 67.6979
95.6973 4638 68.1029
95.8142 4642 68.1322
95.9311 4602 67.838
96.048 4408 66.3928
96.1649 4314 65.681
96.2819 4028 63.4665
96.3989 3779 61.4736
96.516 3338 57.7754
96.633 2928 54.111
96.7501 2818 53.0848
96.8673 3101 55.6866
96.9844 3581 59.8415
97.1016 4059 63.7103
97.2188 4311 65.6582
97.336 4784 69.1665
97.4532 4734 68.8041
97.5704 4717 68.6804
97.6877 4765 69.029
97.805 4891 69.9357
97.9223 4787 69.1881
98.0396 4675 68.374
98.1569 4588 67.7348
98.2743 4555 67.4907
98.3916 4334 65.8331
98.509 4537 67.3573
98.6264 4394 66.2873
98.7438 4734 68.8041
98.8612 4791 69.217
98.9786 4963 70.4486
99.096 5092 71.3583
99.2134 4960 70.4273
99.3308 5030 70.9225
99.4482 5078 71.2601
99.5656 4957 70.406
99.6831 4876 69.8284
99.8005 4679 68.4032
99.9179 4432 66.5733
100.035 4117 64.1639
100.153 3550 59.5819
100.27 3229 56.8243
100.388 3225 56.7891
100.505 3804 61.6766
100.622 4299 65.5668
100.74 4735 68.8113
100.857 5159 71.8262
100.975 5151 71.7705
101.092 5205 72.1457
101.209 5164 71.861
101.327 5218 72.2357
101.444 5064 71.1618
101.561 5211 72.1873
101.679 5225 72.2842
101.796 5055 71.0985
101.913 4979 70.562
102.03 4934 70.2424
102.148 4907 70.05
102.265 5308 72.856
102.382 4893 69.95
102.499 5215 72.215
102.616 5378 73.3348
102.733 5385 73.3826
102.851 5626 75.0067
102.968 5504 74.1889
103.085 5359 73.2052
103.202 5254 72.4845
103.319 5181 71.9792
103.436 4917 70.1213
103.552 4413 66.4304
103.669 3826 61.8547
103.786 3415 58.438
103.903 3625 60.208
104.02 4072 63.8122
104.137 4682 68.4251
104.253 5413 73.5731
104.37 5303 72.8217
104.487 5723 75.6505
104.603 5576 74.6726
104.72 5693 75.452
104.836 5691 75.4387
104.953 5663 75.2529
105.069 5737 75.743
105.186 5616 74.94
105.302 5508 74.2159
105.418 5348 73.13
105.535 5374 73.3076
105.651 5208 72.1665
105.767 5384 73.3757
105.883 5578 74.686
105.999 5576 74.6726
106.115 0 1
106.231 0 1
106.347 0 1
106.463 0 1
106.579 0 1
106.694 0 1
106.81 0 1
106.926 0 1
107.041 0 1
107.157 0 1
109.576 0 1
109.692 0 1
109.807 0 1
109.923 0 1
110.039 0 1
110.155 0 1
110.27 0 1
110.386 0 1
110.502 0 1
110.618 4918 70.1285
110.735 4988 70.6258
110.851 5258 72.5121
110.967 5293 72.753
111.083 5473 73.9797
111.199 5522 74.3102
111.316 5576 74.6726
111.432 5541 74.4379
111.549 5489 74.0878
111.665 5323 72.9589
111.782 5070 71.2039
111.898 4751 68.9275
112.015 4464 66.8132
112.132 3782 61.498
112.248 3318 57.6021
112.365 3299 57.4369
112.482 3631 60.2578
112.599 4139 64.3351
112.716 4726 68.7459
112.832 4920 70.1427
112.949 5034 70.9507
113.066 5117 71.5332
113.183 5093 71.3653
113.3 5050 71.0634
113.417 5068 71.1899
113.534 4877 69.8355
113.652 4840 69.5701
113.769 4746 68.8912
113.886 4800 69.282
114.003 4599 67.8159
114.12 4653 68.2129
114.238 4408 66.3928
114.355 4406 66.3777
114.472 4557 67.5056
114.589 4675 68.374
114.707 4723 68.7241
114.824 4787 69.1881
114.942 4785 69.1737
115.059 4880 69.857
115.176 4842 69.5845
115.294 4709 68.6222
115.411 4455 66.7458
115.529 4250 65.192
115.646 3872 62.2254
115.764 3316 57.5847
115.881 3088 55.5698
115.999 3187 56.4535
116.116 3564 59.6992
116.234 4147 64.3972
116.351 4425 66.5207
116.469 4631 68.0515
116.586 4683 68.4324
116.704 4742 68.8622
116.821 4766 69.0362
116.939 4705 68.593
117.056 4740 68.8477
117.174 4565 67.5648
117.291 4735 68.8113
117.409 4672 68.352
117.526 4625 68.0074
117.644 4479 66.9253
117.761 4411 66.4154
117.879 4443 66.6558
117.996 4425 66.5207
118.114 4563 67.55
118.231 4633 68.0661
118.349 4632 68.0588
118.466 4766 69.0362
118.584 4667 68.3154
118.701 4907 70.05
118.819 4764 69.0217
118.936 4670 68.3374
119.053 4455 66.7458
119.171 4108 64.0937
119.288 3701 60.8358
119.405 3331 57.7148
119.523 3007 54.8361
119.64 3216 56.7098
119.757 3541 59.5063
119.875 3848 62.0322
119.992 4367 66.0833
120.109 4550 67.4537
120.226 4596 67.7938
120.343 4632 68.0588
120.46 4646 68.1616
120.578 4458 66.7683
120.695 4662 68.2788
120.812 4567 67.5796
120.929 4497 67.0597
121.046 4318 65.7115
121.163 4411 66.4154
121.279 4371 66.1135
121.396 4252 65.2074
121.513 4265 65.307
121.63 4318 65.7115
121.747 4312 65.6658
121.863 4330 65.8027
121.98 4367 66.0833
122.097 4418 66.468
122.213 4507 67.1342
122.33 4499 67.0746
122.446 4438 66.6183
122.563 4318 65.7115
122.679 4172 64.591
122.795 4235 65.0769
122.912 3807 61.7009
123.028 3614 60.1166
123.144 3068 55.3895
123.26 2841 53.301
123.377 0 1
123.493 0 1
123.609 0 1
123.725 0 1
123.84 0 1
123.956 0 1
124.072 0 1
124.188 0 1
124.303 0 1
124.419 0 1
126.852 0 1
126.968 0 1
127.083 0 1
127.199 0 1
127.315 0 1
127.431 0 1
127.547 0 1
127.663 0 1
127.779 0 1
127.895 0 1
128.011 0 1
128.127 0 1
128.243 0 1
128.359 3389 58.2151
128.476 3139 56.0268
128.592 3213 56.6833
128.708 3764 61.3514
128.825 4122 64.2028
128.941 4580 67.6757
129.058 4873 69.8069
129.174 4720 68.7023
129.291 4706 68.6003
129.408 4744 68.8767
129.524 4805 69.3181
129.641 4619 67.9632
129.758 4801 69.2892
129.875 4623 67.9926
129.992 4610 67.897
130.108 4633 68.0661
130.225 4535 67.3424
130.342 4423 66.5056
130.459 4412 66.4229
130.576 4660 68.2642
130.693 4489 67
130.81 4412 66.4229
130.928 4552 67.4685
131.045 4613 67.9191
131.162 4627 68.0221
131.279 4685 68.4471
131.396 4668 68.3228
131.513 4477 66.9104
131.631 4383 66.2042
131.748 4143 64.3661
131.865 3607 60.0583
131.983 3213 56.6833
132.1 3269 57.1752
132.217 3448 58.7197
132.335 3844 62
132.452 4246 65.1613
132.57 4462 66.7982
132.687 4412 66.4229
132.804 4665 68.3008
132.922 4591 67.7569
133.039 4450 66.7083
133.157 4558 67.513
133.274 4397 66.3099
133.392 4433 66.5808
133.509 4485 66.9701
133.627 4575 67.6387
133.744 4292 65.5134
133.862 4316 65.6963
133.979 4304 65.6049
134.097 4308 65.6354
134.214 4334 65.8331
134.332 4084 63.9062
134.449 4461 66.7907
134.567 4403 66.3551
134.684 4501 67.0895
134.802 4352 65.9697
134.919 4502 67.0969
135.037 4316 65.6963
135.154 4245 65.1537
135.272 4142 64.3584
135.389 3707 60.8851
135.507 3392 58.2409
135.624 3082 55.5158
135.742 3181 56.4004
135.859 3443 58.6771
135.977 3878 62.2736
136.094 4287 65.4752
136.211 4458 66.7683
136.329 4433 66.5808
136.446 4478 66.9179
136.564 4361 66.0379
136.681 4458 66.7683
136.798 4386 66.2269
136.915 4313 65.6734
137.033 4307 65.6277
137.15 4301 65.582
137.267 4296 65.5439
137.384 4199 64.7997
137.502 4163 64.5213
137.619 4113 64.1327
137.736 4170 64.5755
137.853 4044 63.5925
137.97 4122 64.2028
138.087 4227 65.0154
138.204 4124 64.2184
138.321 4190 64.7302
138.438 4433 66.5808
138.555 4294 65.5286
138.672 4343 65.9014
138.788 4132 64.2806
138.905 3952 62.8649
139.022 3740 61.1555
139.139 3428 58.5491
139.255 3164 56.2494
139.372 3175 56.3471
139.488 3401 58.3181
139.605 3848 62.0322
139.721 4092 63.9687
139.838 4198 64.792
139.954 4345 65.9166
140.071 4092 63.9687
140.187 4309 65.643
140.303 4342 65.8939
140.419 4243 65.1383
140.535 4119 64.1794
140.652 4103 64.0547
140.768 0 1
140.884 0 1
141 0 1
141.115 0 1
141.231 0 1
141.347 0 1
141.463 0 1
141.578 0 1
141.694 0 1
144.104 0 1
144.219 0 1
144.335 0 1
144.45 0 1
144.566 0 1
144.682 0 1
144.798 0 1
144.914 0 1
145.03 0 1
145.146 3759 61.3107
145.262 3732 61.0901
145.378 3691 60.7536
145.494 3776 61.4492
145.61 3602 60.0167
145.726 3544 59.5315
145.842 3540 59.4979
145.959 3395 58.2666
146.075 3494 59.1101
146.192 3398 58.2924
146.308 3470 58.9067
146.425 3584 59.8665
146.541 3493 59.1016
146.658 3412 58.4123
146.774 3518 59.3127
146.891 3401 58.3181
147.008 3460 58.8218
147.125 3555 59.6238
147.241 3504 59.1946
147.358 3368 58.0345
147.475 3377 58.112
147.592 3196 56.5332
147.709 2872 53.591
147.826 2586 50.8527
147.943 2615 51.1371
148.06 2655 51.5267
148.177 3111 55.7763
148.294 3258 57.0789
148.411 3379 58.1292
148.528 3508 59.2284
148.645 3364 58
148.762 3339 57.7841
148.88 3323 57.6455
148.997 3160 56.2139
149.114 3409 58.3866
149.231 3339 57.7841
149.349 3211 56.6657
149.466 3142 56.0535
149.583 3206 56.6216
149.701 3172 56.3205
149.818 3262 57.1139
149.935 3244 56.9561
150.053 3247 56.9825
150.17 3264 57.1314
150.287 3127 55.9196
150.405 3159 56.205
150.522 3285 57.3149
150.64 3175 56.3471
150.757 3267 57.1577
150.875 3277 57.2451
150.992 3182 56.4092
151.11 3064 55.3534
151.227 2959 54.3967
151.344 2768 52.6118
151.462 2623 51.2152
151.579 2418 49.1732
151.697 2706 52.0192
151.814 2821 53.1131
151.932 3152 56.1427
152.049 3274 57.2189
152.167 3327 57.6802
152.284 3362 57.9828
152.402 3464 58.8558
152.519 3359 57.9569
152.636 3308 57.5152
152.754 3342 57.81
152.871 3254 57.0438
152.989 3235 56.8771
153.106 3167 56.2761
153.223 3120 55.857
153.341 3130 55.9464
153.458 3136 56
153.575 3143 56.0625
153.693 3215 56.701
153.81 3272 57.2014
153.927 3305 57.4891
154.044 3178 56.3738
154.162 3318 57.6021
154.279 3337 57.7668
154.396 3350 57.8792
154.513 3356 57.931
154.63 3292 57.376
154.747 3228 56.8155
154.864 3054 55.263
154.981 2907 53.9166
155.098 2725 52.2015
155.215 2658 51.5558
155.332 2822 53.1225
155.449 3106 55.7315
155.566 3286 57.3236
155.683 3406 58.3609
155.8 3272 57.2014
155.917 3407 58.3695
156.033 3409 58.3866
156.15 0 1
156.267 0 1
156.383 0 1
156.5 0 1
156.617 0 1
156.733 0 1
156.85 0 1
156.966 0 1
157.082 0 1
157.199 0 1
157.315 0 1
157.431 0 1
157.547 0 1
157.664 0 1
157.78 0 1
157.896 0 1
158.012 0 1
158.128 0 1
158.244 0 1
158.359 0 1
158.475 0 1
158.591 0 1
158.706 0 1
