
6.15755 0 1
6.2731 0 1
6.3887 0 1
6.50437 0 1
6.62009 0 1
6.73587 0 1
6.8517 0 1
6.96759 0 1
7.08353 0 1
7.19952 0 1
7.31557 0 1
7.43166 0 1
7.54781 0 1
7.664 0 1
7.78024 0 1
7.89653 0 1
8.01286 0 1
8.12924 0 1
8.24567 0 1
8.36213 0 1
8.47864 0 1
8.59519 0 1
8.71178 0 1
8.82841 0 1
8.94508 0 1
9.06179 0 1
9.17853 0 1
9.29531 0 1
9.41212 0 1
9.52897 0 1
9.64584 0 1
9.76276 0 1
9.8797 0 1
9.99667 0 1
10.1137 0 1
10.2307 0 1
10.3478 0 1
10.4648 0 1
10.5819 0 1
10.6991 0 1
10.8162 0 1
10.9334 0 1
11.0506 0 1
11.1678 0 1
11.285 0 1
11.4023 0 1
11.5196 0 1
11.6369 0 1
11.7542 0 1
11.8715 0 1
11.9888 0 1
12.1062 0 1
12.2235 0 1
12.3409 0 1
12.4582 0 1
12.5756 0 1
12.693 0 1
12.8104 0 1
12.9278 0 1
13.0452 0 1
13.1626 0 1
13.28 0 1
13.3974 0 1
13.5149 0 1
13.6323 0 1
13.7497 0 1
13.8671 0 1
13.9845 0 1
14.1019 0 1
14.2193 0 1
14.3367 0 1
14.4541 0 1
14.5714 0 1
14.6888 0 1
14.8062 0 1
14.9235 0 1
15.0408 1562 39.5221
15.1581 1674 40.9145
15.2755 1672 40.8901
15.3927 1732 41.6173
15.51 1700 41.2311
15.6273 1768 42.0476
15.7445 1718 41.4488
15.8617 1649 40.6079
15.9789 1650 40.6202
16.0961 1631 40.3856
16.2132 1619 40.2368
16.3304 1537 39.2046
16.4475 1451 38.092
16.5646 1403 37.4566
16.6816 1459 38.1969
16.7986 1469 38.3275
16.9156 1468 38.3145
17.0326 1376 37.0945
17.1496 1395 37.3497
17.2665 1331 36.4829
17.3833 1401 37.4299
17.5002 1306 36.1386
17.617 1406 37.4967
17.7338 1452 38.1051
17.8505 1407 37.51
17.9672 1484 38.5227
18.0839 1503 38.7685
18.2005 1547 39.3319
18.3171 1504 38.7814
18.4337 1538 39.2173
18.5502 1594 39.9249
18.6666 1569 39.6106
18.7831 1644 40.5463
18.8994 1558 39.4715
19.0158 1511 38.8716
19.1321 1492 38.6264
19.2483 1376 37.0945
19.3645 1354 36.7967
19.4806 1291 35.9305
19.5967 1332 36.4966
19.7128 1219 34.9142
19.8288 1053 32.45
19.9447 1002 31.6544
20.0606 0 1
20.1764 0 1
20.2922 0 1
20.4079 0 1
20.5236 0 1
20.6392 0 1
20.7548 0 1
20.8702 0 1
23.3078 0 1
23.4233 0 1
23.539 0 1
23.6547 0 1
23.7704 0 1
23.8862 0 1
24.0021 0 1
24.118 0 1
24.234 0 1
24.35 0 1
24.4661 690 26.2679
24.5822 762 27.6043
24.6984 873 29.5466
24.8146 940 30.6594
24.9309 1122 33.4963
25.0472 1222 34.9571
25.1636 1333 36.5103
25.28 1377 37.108
25.3965 1490 38.6005
25.513 1539 39.2301
25.6296 1622 40.2741
25.7462 1582 39.7744
25.8628 1641 40.5093
25.9795 1638 40.4722
26.0962 1570 39.6232
26.213 1630 40.3733
26.3298 1504 38.7814
26.4466 1634 40.4228
26.5635 1613 40.1622
26.6804 1560 39.4968
26.7973 1597 39.9625
26.9143 1690 41.1096
27.0313 1601 40.0125
27.1483 1638 40.4722
27.2653 1816 42.6146
27.3824 1692 41.1339
27.4996 1738 41.6893
27.6167 1698 41.2068
27.7339 1709 41.3401
27.8511 1572 39.6485
27.9683 1562 39.5221
28.0855 1680 40.9878
28.2028 1612 40.1497
28.3201 1639 40.4846
28.4374 1583 39.7869
28.5547 1585 39.8121
28.6721 1579 39.7366
28.7894 1674 40.9145
28.9068 1554 39.4208
29.0242 1643 40.5339
29.1416 1519 38.9744
29.259 1582 39.7744
29.3764 1532 39.1408
29.4939 1477 38.4318
29.6113 1542 39.2683
29.7288 1487 38.5616
29.8463 1579 39.7366
29.9638 1584 39.7995
30.0812 1528 39.0896
30.1987 1585 39.8121
30.3162 1638 40.4722
30.4337 1594 39.9249
30.5512 1698 41.2068
30.6687 1622 40.2741
30.7862 1694 41.1582
30.9037 1715 41.4126
31.0212 1747 41.7971
31.1387 1713 41.3884
31.2562 1747 41.7971
31.3737 1667 40.8289
31.4912 1633 40.4104
31.6087 1654 40.6694
31.7262 1655 40.6817
31.8436 1650 40.6202
31.9611 1658 40.7185
32.0785 1640 40.4969
32.1959 1700 41.2311
32.3134 1648 40.5956
32.4308 1632 40.398
32.5482 1643 40.5339
32.6655 1657 40.7063
32.7829 1644 40.5463
32.9002 1612 40.1497
33.0176 1644 40.5463
33.1349 1619 40.2368
33.2522 1580 39.7492
33.3694 1544 39.2938
33.4867 1569 39.6106
33.6039 1692 41.1339
33.7211 1674 40.9145
33.8383 1630 40.3733
33.9554 1721 41.4849
34.0725 1635 40.4351
34.1896 1637 40.4599
34.3067 1651 40.6325
34.4237 1699 41.2189
34.5407 1719 41.4608
34.6577 1768 42.0476
34.7746 1756 41.9047
34.8915 1714 41.4005
35.0084 1669 40.8534
35.1252 1704 41.2795
35.242 1673 40.9023
35.3587 1684 41.0366
35.4755 1693 41.1461
35.5921 1666 40.8167
35.7088 1608 40.0999
35.8254 1688 41.0853
35.9419 1674 40.9145
36.0584 1583 39.7869
36.1749 1596 39.95
36.2913 1614 40.1746
36.4077 1476 38.4187
36.524 1465 38.2753
36.6403 1366 36.9594
36.7565 1311 36.2077
36.8727 1132 33.6452
36.9889 1091 33.0303
37.1049 997 31.5753
37.221 0 1
37.3369 0 1
37.4529 0 1
37.5687 0 1
37.6845 0 1
37.8003 0 1
37.916 0 1
38.0316 0 1
38.1472 0 1
40.5851 0 1
40.7008 0 1
40.8164 0 1
40.9322 0 1
41.048 0 1
41.1639 0 1
41.2798 0 1
41.3958 0 1
41.5118 0 1
41.6279 0 1
41.744 845 29.0689
41.8602 965 31.0644
41.9765 1065 32.6343
42.0928 1197 34.5977
42.2091 1276 35.7211
42.3255 1315 36.2629
42.4419 1511 38.8716
42.5584 1493 38.6394
42.675 1431 37.8286
42.7915 1474 38.3927
42.9081 1476 38.4187
43.0248 1504 38.7814
43.1415 1553 39.4081
43.2582 1640 40.4969
43.375 1612 40.1497
43.4918 1720 41.4729
43.6087 1742 41.7373
43.7256 1768 42.0476
43.8425 1811 42.5558
43.9595 1762 41.9762
44.0765 1875 43.3013
44.1935 1910 43.7035
44.3106 1887 43.4396
44.4277 1945 44.1022
44.5448 1983 44.5309
44.6619 1987 44.5758
44.7791 2027 45.0222
44.8963 2096 45.7821
45.0136 2078 45.5851
45.1308 2016 44.8999
45.2481 2228 47.2017
45.3654 2283 47.7807
45.4827 2309 48.0521
45.6001 2296 47.9166
45.7174 2297 47.927
45.8348 2349 48.4665
45.9522 2407 49.0612
46.0697 2406 49.051
46.1871 2465 49.6488
46.3046 2406 49.051
46.422 2398 48.9694
46.5395 2316 48.1248
46.657 2361 48.5901
46.7745 2514 50.1398
46.892 2699 51.9519
47.0096 2725 52.2015
47.1271 2918 54.0185
47.2446 2923 54.0648
47.3622 2861 53.4883
47.4797 2745 52.3927
47.5973 2798 52.8961
47.7149 2767 52.6023
47.8324 2822 53.1225
47.95 2764 52.5738
48.0675 2770 52.6308
48.1851 2663 51.6043
48.3027 2597 50.9608
48.4202 2657 51.5461
48.5378 2580 50.7937
48.6554 2518 50.1797
48.7729 2503 50.03
48.8904 2431 49.3052
49.008 2390 48.8876
49.1255 2276 47.7074
49.243 2326 48.2286
49.3605 2283 47.7807
49.478 2221 47.1275
49.5955 2265 47.592
49.713 2062 45.4093
49.8304 2012 44.8553
49.9479 1883 43.3935
50.0653 1834 42.8252
50.1827 1893 43.5086
50.3001 2010 44.833
50.4175 2046 45.2327
50.5348 2120 46.0435
50.6521 2121 46.0543
50.7694 2142 46.2817
50.8867 2023 44.9778
51.004 2103 45.8585
51.1212 2070 45.4973
51.2384 2173 46.6154
51.3556 1962 44.2945
51.4727 2013 44.8665
51.5899 1928 43.909
51.707 1925 43.8748
51.824 1996 44.6766
51.9411 1904 43.6348
52.0581 1922 43.8406
52.175 1831 42.7902
52.2919 1806 42.4971
52.4088 1867 43.2088
52.5257 1811 42.5558
52.6425 1858 43.1045
52.7593 1737 41.6773
52.876 1703 41.2674
52.9927 1716 41.4246
53.1094 1676 40.939
53.226 1653 40.6571
53.3426 1615 40.1871
53.4591 1565 39.5601
53.5756 1515 38.923
53.692 1443 37.9868
53.8084 1398 37.3898
53.9248 1299 36.0416
54.0411 1217 34.8855
54.1573 1147 33.8674
54.2735 0 1
54.3896 0 1
54.5057 0 1
54.6217 0 1
54.7377 0 1
54.8537 0 1
54.9695 0 1
55.0853 0 1
55.2011 0 1
55.3168 0 1
55.4324 0 1
57.824 0 1
57.9396 0 1
58.0553 0 1
58.1711 0 1
58.2869 0 1
58.4028 0 1
58.5187 0 1
58.6347 0 1
58.7508 0 1
58.8669 0 1
58.983 1562 39.5221
59.0992 1853 43.0465
59.2155 1899 43.5775
59.3318 2114 45.9783
59.4482 2433 49.3254
59.5646 2431 49.3052
59.681 2528 50.2792
59.7975 2658 51.5558
59.9141 2608 51.0686
60.0306 2697 51.9326
60.1473 2507 50.07
60.2639 2562 50.6162
60.3807 2575 50.7445
60.4974 2542 50.4183
60.6142 2479 49.7896
60.731 2548 50.4777
60.8479 2495 49.95
60.9648 2342 48.3942
61.0818 2526 50.2593
61.1987 2495 49.95
61.3158 2371 48.6929
61.4328 2484 49.8397
61.5499 2424 49.2341
61.667 2456 49.558
61.7841 2481 49.8096
61.9013 2399 48.9796
62.0185 2411 49.1019
62.1357 2397 48.9592
62.253 2484 49.8397
62.3702 2518 50.1797
62.4875 2574 50.7346
62.6049 2687 51.8363
62.7222 2837 53.2635
62.8396 2989 54.6717
62.9569 2957 54.3783
63.0743 3079 55.4887
63.1918 2997 54.7449
63.3092 2987 54.6535
63.4267 2906 53.9073
63.5441 2881 53.6749
63.6616 2823 53.1319
63.7791 2758 52.5167
63.8966 2783 52.7541
64.0142 2688 51.8459
64.1317 2581 50.8035
64.2492 2677 51.7397
64.3668 2555 50.547
64.4843 2464 49.6387
64.6019 2412 49.1121
64.7195 2546 50.4579
64.837 2507 50.07
64.9546 2562 50.6162
65.0722 2581 50.8035
65.1898 2483 49.8297
65.3074 2525 50.2494
65.4249 2594 50.9313
65.5425 2396 48.949
65.6601 2470 49.6991
65.7777 2484 49.8397
65.8952 2571 50.705
66.0128 2701 51.9711
66.1304 2695 51.9134
66.2479 2939 54.2125
66.3655 2877 53.6377
66.483 3032 55.0636
66.6005 3157 56.1872
66.718 3069 55.3986
66.8355 3181 56.4004
66.953 3008 54.8452
67.0705 2986 54.6443
67.1879 2867 53.5444
67.3054 2831 53.2071
67.4228 2771 52.6403
67.5402 2760 52.5357
67.6576 2696 51.923
67.7749 2662 51.5946
67.8923 2687 51.8363
68.0096 2670 51.672
68.1269 2567 50.6656
68.2442 2639 51.3712
68.3614 2554 50.5371
68.4787 2564 50.636
68.5958 2621 51.1957
68.713 2642 51.4004
68.8302 2562 50.6162
68.9473 2511 50.1099
69.0643 2504 50.04
69.1814 2383 48.816
69.2984 2321 48.1768
69.4154 2454 49.5379
69.5323 2469 49.689
69.6492 2558 50.5767
69.7661 2803 52.9434
69.8829 2836 53.2541
69.9997 2822 53.1225
70.1165 2810 53.0094
70.2332 2708 52.0384
70.3499 2661 51.5849
70.4665 2458 49.5782
70.5831 2257 47.5079
70.6996 2135 46.2061
70.8161 1893 43.5086
70.9326 1805 42.4853
71.049 1580 39.7492
71.1653 1448 38.0526
71.2817 1367 36.973
71.3979 1336 36.5513
71.5141 1218 34.8999
71.6303 1115 33.3916
71.7464 1003 31.6702
71.8624 0 1
71.9784 0 1
72.0944 0 1
72.2102 0 1
72.3261 0 1
72.4418 0 1
72.5575 0 1
72.6732 0 1
75.1054 0 1
75.2209 0 1
75.3365 0 1
75.4521 0 1
75.5678 0 1
75.6835 0 1
75.7993 0 1
75.9151 0 1
76.031 0 1
76.147 2094 45.7602
76.263 2250 47.4342
76.3791 2403 49.0204
76.4952 2337 48.3425
76.6113 2387 48.8569
76.7276 2322 48.1871
76.8438 2439 49.3862
76.9601 2383 48.816
77.0765 2441 49.4065
77.1929 2477 49.7695
77.3093 2554 50.5371
77.4258 2613 51.1175
77.5423 2717 52.1249
77.6589 2615 51.1371
77.7755 2593 50.9215
77.8921 2612 51.1077
78.0088 2526 50.2593
78.1256 2398 48.9694
78.2423 2290 47.8539
78.3591 2302 47.9792
78.4759 2444 49.4368
78.5928 2533 50.3289
78.7097 2788 52.8015
78.8266 2897 53.8238
78.9436 3072 55.4256
79.0606 3039 55.1271
79.1776 3085 55.5428
79.2946 3276 57.2364
79.4117 3198 56.5509
79.5288 3286 57.3236
79.6459 3296 57.4108
79.7631 3215 56.701
79.8802 3017 54.9272
79.9974 2862 53.4977
80.1147 2841 53.301
80.2319 2802 52.9339
80.3491 2810 53.0094
80.4664 2936 54.1849
80.5837 2914 53.9815
80.701 2834 53.2353
80.8183 2819 53.0943
80.9357 2850 53.3854
81.053 2928 54.111
81.1704 2998 54.754
81.2877 2849 53.376
81.4051 3045 55.1815
81.5225 2902 53.8702
81.6399 2931 54.1387
81.7573 2755 52.4881
81.8747 2600 50.9902
81.9922 2552 50.5173
82.1096 2608 51.0686
82.227 2902 53.8702
82.3444 3035 55.0908
82.4619 3291 57.3672
82.5793 3417 58.4551
82.6967 3423 58.5064
82.8142 3429 58.5577
82.9316 3653 60.4401
83.049 3588 59.8999
83.1664 3512 59.2621
83.2838 3515 59.2874
83.4012 3360 57.9655
83.5186 3288 57.3411
83.636 3150 56.1249
83.7534 3207 56.6304
83.8708 3090 55.5878
83.9881 3145 56.0803
84.1055 3183 56.4181
84.2228 3269 57.1752
84.3401 3135 55.9911
84.4575 3148 56.107
84.5747 3313 57.5587
84.692 3274 57.2189
84.8093 3557 59.6406
84.9265 3464 58.8558
85.0437 3280 57.2713
85.1609 3255 57.0526
85.2781 2951 54.3231
85.3952 2864 53.5164
85.5123 2807 52.9811
85.6294 2779 52.7162
85.7465 2993 54.7083
85.8636 3227 56.8067
85.9806 3426 58.532
86.0976 3694 60.7783
86.2145 3747 61.2127
86.3315 3531 59.4222
86.4484 3872 62.2254
86.5652 3851 62.0564
86.682 3959 62.9206
86.7988 3834 61.9193
86.9156 3705 60.8687
87.0323 3579 59.8247
87.149 3647 60.3904
87.2657 3544 59.5315
87.3823 3408 58.3781
87.4988 3232 56.8507
87.6154 3039 55.1271
87.7318 3053 55.254
87.8483 2868 53.5537
87.9647 2616 51.1468
88.081 2494 49.94
88.1973 2405 49.0408
88.3136 2305 48.0104
88.4298 2130 46.1519
88.546 1825 42.72
88.6621 1786 42.2611
88.7781 1561 39.5095
88.8942 0 1
89.0101 0 1
89.126 0 1
89.2419 0 1
89.3577 0 1
89.4734 0 1
89.5891 0 1
89.7047 0 1
89.8203 0 1
89.9358 0 1
92.3269 0 1
92.4424 0 1
92.558 0 1
92.6736 0 1
92.7893 0 1
92.905 0 1
93.0208 0 1
93.1366 0 1
93.2525 0 1
93.3685 0 1
93.4845 0 1
93.6005 3040 55.1362
93.7167 3421 58.4893
93.8328 3611 60.0916
93.949 3949 62.8411
94.0653 3901 62.458
94.1816 3864 62.1611
94.2979 3768 61.384
94.4143 3684 60.696
94.5307 3557 59.6406
94.6472 3309 57.5239
94.7637 3262 57.1139
94.8803 3416 58.4466
94.9969 3661 60.5062
95.1135 3817 61.7819
95.2302 4031 63.4902
95.3469 4292 65.5134
95.4637 4463 66.8057
95.5805 4565 67.5648
95.6973 4588 67.7348
95.8142 4528 67.2904
95.9311 4412 66.4229
96.048 4494 67.0373
96.1649 4582 67.6905
96.2819 4407 66.3852
96.3989 4362 66.0454
96.516 4148 64.405
96.633 4111 64.1171
96.7501 4128 64.2495
96.8673 4131 64.2729
96.9844 4098 64.0156
97.1016 4117 64.1639
97.2188 4089 63.9453
97.336 4210 64.8845
97.4532 4343 65.9014
97.5704 4469 66.8506
97.6877 4435 66.5958
97.805 4445 66.6708
97.9223 4183 64.6761
98.0396 4100 64.0312
98.1569 3922 62.6259
98.2743 3582 59.8498
98.3916 3380 58.1378
98.509 3497 59.1354
98.6264 3680 60.663
98.7438 3892 62.3859
98.8612 4277 65.3988
98.9786 4569 67.5944
99.096 4769 69.0579
99.2134 4773 69.0869
99.3308 4857 69.6922
99.4482 4912 70.0857
99.5656 5063 71.1548
99.6831 4991 70.647
99.8005 4831 69.5054
99.9179 4867 69.7639
100.035 4468 66.8431
100.153 4470 66.8581
100.27 4613 67.9191
100.388 4500 67.082
100.505 4451 66.7158
100.622 4477 66.9104
100.74 4402 66.3476
100.857 4468 66.8431
100.975 4529 67.2978
101.092 4664 68.2935
101.209 4623 67.9926
101.327 4666 68.3081
101.444 4696 68.5274
101.561 4591 67.7569
101.679 4366 66.0757
101.796 4015 63.364
101.913 3746 61.2046
102.03 3678 60.6465
102.148 4029 63.4744
102.265 4103 64.0547
102.382 4581 67.6831
102.499 4869 69.7782
102.616 5027 70.9013
102.733 5028 70.9084
102.851 5229 72.3118
102.968 5231 72.3257
103.085 5254 72.4845
103.202 5157 71.8123
103.319 5208 72.1665
103.436 4931 70.2211
103.552 4894 69.9571
103.669 4655 68.2276
103.786 4761 69
103.903 4740 68.8477
104.02 4700 68.5565
104.137 4648 68.1762
104.253 4533 67.3276
104.37 4807 69.3325
104.487 4762 69.0072
104.603 4708 68.6149
104.72 4686 68.4544
104.836 4658 68.2495
104.953 4251 65.1997
105.069 3747 61.2127
105.186 3551 59.5903
105.302 3109 55.7584
105.418 2907 53.9166
105.535 2560 50.5964
105.651 2492 49.9199
105.767 2324 48.2079
105.883 2287 47.8226
105.999 2347 48.4458
106.115 0 1
106.231 0 1
106.347 0 1
106.463 0 1
106.579 0 1
106.694 0 1
106.81 0 1
106.926 0 1
107.041 0 1
107.157 0 1
109.576 0 1
109.692 0 1
109.807 0 1
109.923 0 1
110.039 0 1
110.155 0 1
110.27 0 1
110.386 0 1
110.502 0 1
110.618 1969 44.3734
110.735 2573 50.7247
110.851 2995 54.7266
110.967 3415 58.438
111.083 3752 61.2536
111.199 4077 63.8514
111.316 4341 65.8863
111.432 4204 64.8383
111.549 4334 65.8331
111.665 4472 66.873
111.782 4361 66.0379
111.898 4288 65.4828
112.015 4250 65.192
112.132 4088 63.9375
112.248 4067 63.773
112.365 3888 62.3538
112.482 3824 61.8385
112.599 3902 62.466
112.716 3926 62.6578
112.832 3755 61.2781
112.949 3741 61.1637
113.066 3769 61.3922
113.183 3928 62.6738
113.3 3878 62.2736
113.417 3968 62.9921
113.534 3811 61.7333
113.652 3721 61
113.769 3586 59.8832
113.886 3438 58.6345
114.003 3096 55.6417
114.12 3059 55.3082
114.238 3129 55.9375
114.355 3484 59.0254
114.472 3434 58.6003
114.589 4102 64.0469
114.707 4143 64.3661
114.824 4309 65.643
114.942 4231 65.0461
115.059 4366 66.0757
115.176 4338 65.8635
115.294 4298 65.5591
115.411 4345 65.9166
115.529 4207 64.8614
115.646 4083 63.8984
115.764 3936 62.7375
115.881 3862 62.145
115.999 3826 61.8547
116.116 3731 61.0819
116.234 3679 60.6548
116.351 3724 61.0246
116.469 3629 60.2412
116.586 3608 60.0666
116.704 3802 61.6604
116.821 3824 61.8385
116.939 3887 62.3458
117.056 3941 62.7774
117.174 3797 61.6198
117.291 3849 62.0403
117.409 3587 59.8916
117.526 3288 57.3411
117.644 3276 57.2364
117.761 3127 55.9196
117.879 3323 57.6455
117.996 3598 59.9833
118.114 3758 61.3025
118.231 4137 64.3195
118.349 4261 65.2763
118.466 4195 64.7688
118.584 4335 65.8407
118.701 4283 65.4446
118.819 4220 64.9615
118.936 4132 64.2806
119.053 4103 64.0547
119.171 4101 64.0391
119.288 3969 63
119.405 3913 62.554
119.523 3830 61.887
119.64 3784 61.5142
119.757 3832 61.9032
119.875 3634 60.2827
119.992 3685 60.7042
120.109 3683 60.6877
120.226 3608 60.0666
120.343 3638 60.3158
120.46 3655 60.4566
120.578 3748 61.2209
120.695 3732 61.0901
120.812 3690 60.7454
120.929 3412 58.4123
121.046 3334 57.7408
121.163 3160 56.2139
121.279 2913 53.9722
121.396 2840 53.2917
121.513 2860 53.479
121.63 2815 53.0566
121.747 3015 54.909
121.863 3057 55.2901
121.98 3259 57.0877
122.097 3199 56.5597
122.213 3124 55.8928
122.33 2915 53.9907
122.446 2811 53.0189
122.563 2531 50.309
122.679 2527 50.2693
122.795 2359 48.5695
122.912 2175 46.6369
123.028 1988 44.587
123.144 1895 43.5316
123.26 1758 41.9285
123.377 0 1
123.493 0 1
123.609 0 1
123.725 0 1
123.84 0 1
123.956 0 1
124.072 0 1
124.188 0 1
124.303 0 1
124.419 0 1
126.852 0 1
126.968 0 1
127.083 0 1
127.199 0 1
127.315 0 1
127.431 0 1
127.547 0 1
127.663 0 1
127.779 0 1
127.895 0 1
128.011 0 1
128.127 0 1
128.243 0 1
128.359 4079 63.867
128.476 3921 62.6179
128.592 4014 63.3561
128.708 3939 62.7615
128.825 3876 62.2575
128.941 3919 62.6019
129.058 3741 61.1637
129.174 3730 61.0737
129.291 3782 61.498
129.408 3903 62.474
129.524 3817 61.7819
129.641 3946 62.8172
129.758 3914 62.562
129.875 3746 61.2046
129.992 3881 62.2977
130.108 3682 60.6795
130.225 3476 58.9576
130.342 3298 57.4282
130.459 3117 55.8301
130.576 3115 55.8122
130.693 3295 57.4021
130.81 3514 59.279
130.928 3719 60.9836
131.045 3904 62.482
131.162 4022 63.4192
131.279 4136 64.3117
131.396 4011 63.3325
131.513 4047 63.616
131.631 3936 62.7375
131.748 3948 62.8331
131.865 3907 62.506
131.983 3797 61.6198
132.1 3855 62.0886
132.217 3693 60.7701
132.335 3602 60.0167
132.452 3758 61.3025
132.57 3658 60.4814
132.687 3596 59.9667
132.804 3575 59.7913
132.922 3604 60.0333
133.039 3508 59.2284
133.157 3624 60.1997
133.274 3650 60.4152
133.392 3537 59.4727
133.509 3663 60.5227
133.627 3450 58.7367
133.744 3368 58.0345
133.862 3129 55.9375
133.979 3034 55.0818
134.097 3040 55.1362
134.214 3125 55.9017
134.332 3228 56.8155
134.449 3620 60.1664
134.567 3747 61.2127
134.684 3786 61.5305
134.802 3844 62
134.919 3885 62.3298
135.037 3856 62.0967
135.154 3746 61.2046
135.272 3731 61.0819
135.389 3817 61.7819
135.507 3734 61.1065
135.624 3866 62.1772
135.742 3840 61.9677
135.859 3725 61.0328
135.977 3707 60.8851
136.094 3594 59.95
136.211 3575 59.7913
136.329 3686 60.7124
136.446 3528 59.397
136.564 3553 59.607
136.681 3577 59.808
136.798 3623 60.1914
136.915 3618 60.1498
137.033 3520 59.3296
137.15 3558 59.649
137.267 3470 58.9067
137.384 3252 57.0263
137.502 3155 56.1694
137.619 3027 55.0182
137.736 2972 54.5161
137.853 2979 54.5802
137.97 3131 55.9553
138.087 3306 57.4978
138.204 3581 59.8415
138.321 3520 59.3296
138.438 3664 60.531
138.555 3669 60.5723
138.672 3530 59.4138
138.788 3410 58.3952
138.905 3272 57.2014
139.022 3188 56.4624
139.139 3016 54.9181
139.255 3009 54.8544
139.372 2831 53.2071
139.488 2599 50.9804
139.605 2461 49.6085
139.721 2345 48.4252
139.838 2183 46.7226
139.954 2099 45.8148
140.071 1980 44.4972
140.187 1880 43.359
140.303 1720 41.4729
140.419 1633 40.4104
140.535 1567 39.5854
140.652 1541 39.2556
140.768 0 1
140.884 0 1
141 0 1
141.115 0 1
141.231 0 1
141.347 0 1
141.463 0 1
141.578 0 1
141.694 0 1
144.104 0 1
144.219 0 1
144.335 0 1
144.45 0 1
144.566 0 1
144.682 0 1
144.798 0 1
144.914 0 1
145.03 0 1
145.146 2535 50.3488
145.262 2682 51.788
145.378 2757 52.5071
145.494 2760 52.5357
145.61 2671 51.6817
145.726 2776 52.6878
145.842 2753 52.469
145.959 2710 52.0577
146.075 2654 51.517
146.192 2593 50.9215
146.308 2586 50.8527
146.425 2429 49.2849
146.541 2398 48.9694
146.658 2429 49.2849
146.774 2552 50.5173
146.891 2602 51.0098
147.008 2772 52.6498
147.125 2741 52.3546
147.241 2935 54.1756
147.358 2857 53.4509
147.475 2855 53.4322
147.592 2868 53.5537
147.709 2811 53.0189
147.826 2882 53.6843
147.943 2841 53.301
148.06 2930 54.1295
148.177 2826 53.1601
148.294 2798 52.8961
148.411 2933 54.1572
148.528 2895 53.8052
148.645 2834 53.2353
148.762 2769 52.6213
148.88 2723 52.1824
148.997 2820 53.1037
149.114 2737 52.3163
149.231 2748 52.4214
149.349 2749 52.4309
149.466 2714 52.0961
149.583 2728 52.2303
149.701 2710 52.0577
149.818 2744 52.3832
149.935 2644 51.4198
150.053 2523 50.2295
150.17 2339 48.3632
150.287 2462 49.6185
150.405 2396 48.949
150.522 2616 51.1468
150.64 2644 51.4198
150.757 2785 52.7731
150.875 2908 53.9259
150.992 2819 53.0943
151.11 2839 53.2823
151.227 2918 54.0185
151.344 2808 52.9906
151.462 2810 53.0094
151.579 2823 53.1319
151.697 2839 53.2823
151.814 2874 53.6097
151.932 2866 53.535
152.049 2816 53.066
152.167 2693 51.8941
152.284 3007 54.8361
152.402 2798 52.8961
152.519 2752 52.4595
152.636 2628 51.264
152.754 2674 51.7107
152.871 2786 52.7826
152.989 2703 51.9904
153.106 2758 52.5167
153.223 2722 52.1728
153.341 2716 52.1153
153.458 2636 51.342
153.575 2544 50.4381
153.693 2343 48.4045
153.81 2390 48.8876
153.927 2311 48.0729
154.044 2539 50.3885
154.162 2581 50.8035
154.279 2601 51
154.396 2795 52.8678
154.513 2879 53.6563
154.63 2800 52.915
154.747 2783 52.7541
154.864 2782 52.7447
154.981 2786 52.7826
155.098 2891 53.768
155.215 2805 52.9623
155.332 2738 52.3259
155.449 2799 52.9056
155.566 2579 50.7839
155.683 2588 50.8724
155.8 2533 50.3289
155.917 2459 49.5883
156.033 2216 47.0744
156.15 0 1
156.267 0 1
156.383 0 1
156.5 0 1
156.617 0 1
156.733 0 1
156.85 0 1
156.966 0 1
157.082 0 1
157.199 0 1
157.315 0 1
157.431 0 1
157.547 0 1
157.664 0 1
157.78 0 1
157.896 0 1
158.012 0 1
158.128 0 1
158.244 0 1
158.359 0 1
158.475 0 1
158.591 0 1
158.706 0 1
