
6.15755 0 1
6.2731 0 1
6.3887 0 1
6.50437 0 1
6.62009 0 1
6.73587 0 1
6.8517 0 1
6.96759 0 1
7.08353 0 1
7.19952 0 1
7.31557 0 1
7.43166 0 1
7.54781 0 1
7.664 0 1
7.78024 0 1
7.89653 0 1
8.01286 0 1
8.12924 0 1
8.24567 0 1
8.36213 0 1
8.47864 0 1
8.59519 0 1
8.71178 0 1
8.82841 0 1
8.94508 0 1
9.06179 0 1
9.17853 0 1
9.29531 0 1
9.41212 0 1
9.52897 0 1
9.64584 0 1
9.76276 0 1
9.8797 0 1
9.99667 0 1
10.1137 0 1
10.2307 0 1
10.3478 0 1
10.4648 0 1
10.5819 0 1
10.6991 0 1
10.8162 0 1
10.9334 0 1
11.0506 0 1
11.1678 0 1
11.285 0 1
11.4023 0 1
11.5196 0 1
11.6369 0 1
11.7542 0 1
11.8715 0 1
11.9888 0 1
12.1062 0 1
12.2235 0 1
12.3409 0 1
12.4582 0 1
12.5756 0 1
12.693 0 1
12.8104 0 1
12.9278 0 1
13.0452 0 1
13.1626 0 1
13.28 0 1
13.3974 0 1
13.5149 0 1
13.6323 0 1
13.7497 0 1
13.8671 0 1
13.9845 0 1
14.1019 0 1
14.2193 0 1
14.3367 0 1
14.4541 0 1
14.5714 0 1
14.6888 0 1
14.8062 0 1
14.9235 0 1
15.0408 9119 95.4935
15.1581 9321 96.5453
15.2755 9438 97.1494
15.3927 9143 95.619
15.51 9352 96.7057
15.6273 9060 95.184
15.7445 8801 93.8136
15.8617 8739 93.4826
15.9789 9061 95.1893
16.0961 9400 96.9536
16.2132 9856 99.2774
16.3304 10146 100.727
16.4475 10492 102.43
16.5646 10531 102.621
16.6816 10573 102.825
16.7986 10500 102.47
16.9156 10555 102.738
17.0326 10477 102.357
17.1496 10328 101.627
17.2665 10257 101.277
17.3833 10194 100.965
17.5002 10243 101.208
17.617 10496 102.45
17.7338 10539 102.66
17.8505 11012 104.938
17.9672 11027 105.01
18.0839 10969 104.733
18.2005 11510 107.285
18.3171 11662 107.991
18.4337 11933 109.238
18.5502 12224 110.562
18.6666 12484 111.732
18.7831 12050 109.772
18.8994 12067 109.85
19.0158 11640 107.889
19.1321 11299 106.297
19.2483 11009 104.924
19.3645 10850 104.163
19.4806 10895 104.379
19.5967 11500 107.238
19.7128 11808 108.665
19.8288 11689 108.116
19.9447 10962 104.7
20.0606 0 1
20.1764 0 1
20.2922 0 1
20.4079 0 1
20.5236 0 1
20.6392 0 1
20.7548 0 1
20.8702 0 1
23.3078 0 1
23.4233 0 1
23.539 0 1
23.6547 0 1
23.7704 0 1
23.8862 0 1
24.0021 0 1
24.118 0 1
24.234 0 1
24.35 0 1
24.4661 11641 107.893
24.5822 11238 106.009
24.6984 11457 107.037
24.8146 11999 109.54
24.9309 12344 111.104
25.0472 12842 113.323
25.1636 13120 114.543
25.28 13254 115.126
25.3965 13136 114.612
25.513 12945 113.776
25.6296 12684 112.623
25.7462 13019 114.101
25.8628 12404 111.373
25.9795 12507 111.835
26.0962 12455 111.602
26.213 12706 112.721
26.3298 12934 113.728
26.4466 13322 115.421
26.5635 13602 116.628
26.6804 13945 118.089
26.7973 14022 118.415
26.9143 14562 120.673
27.0313 14515 120.478
27.1483 14605 120.851
27.2653 14958 122.303
27.3824 14813 121.709
27.4996 14549 120.619
27.6167 14521 120.503
27.7339 13932 118.034
27.8511 13288 115.274
27.9683 13147 114.66
28.0855 12713 112.752
28.2028 12592 112.214
28.3201 12458 111.615
28.4374 13120 114.543
28.5547 13327 115.443
28.6721 13569 116.486
28.7894 14257 119.403
28.9068 14162 119.004
29.0242 13566 116.473
29.1416 13315 115.391
29.259 12755 112.938
29.3764 12370 111.221
29.4939 12526 111.92
29.6113 12277 110.802
29.7288 12387 111.297
29.8463 12820 113.225
29.9638 13172 114.769
30.0812 13562 116.456
30.1987 13946 118.093
30.3162 14123 118.84
30.4337 14733 121.38
30.5512 14760 121.491
30.6687 14782 121.581
30.7862 15472 124.386
30.9037 15270 123.572
31.0212 15236 123.434
31.1387 14965 122.332
31.2562 14513 120.47
31.3737 14088 118.693
31.4912 13966 118.178
31.6087 13335 115.477
31.7262 13111 114.503
31.8436 13083 114.381
31.9611 13422 115.853
32.0785 14017 118.393
32.1959 14325 119.687
32.3134 14481 120.337
32.4308 14648 121.029
32.5482 14522 120.507
32.6655 14030 118.448
32.7829 13749 117.256
32.9002 13333 115.469
33.0176 13176 114.787
33.1349 13173 114.774
33.2522 13070 114.324
33.3694 12913 113.635
33.4867 13464 116.034
33.6039 13908 117.932
33.7211 14342 119.758
33.8383 14583 120.76
33.9554 15173 123.179
34.0725 14839 121.815
34.1896 15542 124.668
34.3067 15822 125.786
34.4237 15736 125.443
34.5407 15771 125.583
34.6577 15866 125.96
34.7746 15538 124.652
34.8915 15021 122.56
35.0084 14849 121.856
35.1252 14446 120.192
35.242 13737 117.205
35.3587 13698 117.038
35.4755 13552 116.413
35.5921 13452 115.983
35.7088 14021 118.41
35.8254 14518 120.491
35.9419 14973 122.364
36.0584 15298 123.685
36.1749 15061 122.723
36.2913 14901 122.07
36.4077 14598 120.822
36.524 13821 117.563
36.6403 13166 114.743
36.7565 13220 114.978
36.8727 13027 114.136
36.9889 13117 114.529
37.1049 13330 115.456
37.221 0 1
37.3369 0 1
37.4529 0 1
37.5687 0 1
37.6845 0 1
37.8003 0 1
37.916 0 1
38.0316 0 1
38.1472 0 1
40.5851 0 1
40.7008 0 1
40.8164 0 1
40.9322 0 1
41.048 0 1
41.1639 0 1
41.2798 0 1
41.3958 0 1
41.5118 0 1
41.6279 0 1
41.744 10962 104.7
41.8602 11499 107.233
41.9765 11284 106.226
42.0928 11352 106.546
42.2091 11804 108.646
42.3255 12209 110.494
42.4419 12585 112.183
42.5584 12995 113.996
42.675 13539 116.357
42.7915 13836 117.627
42.9081 14234 119.306
43.0248 14371 119.879
43.1415 14383 119.929
43.2582 14536 120.565
43.375 14530 120.54
43.4918 14692 121.211
43.6087 14259 119.411
43.7256 13850 117.686
43.8425 13540 116.362
43.9595 13034 114.167
44.0765 12815 113.203
44.1935 12412 111.409
44.3106 11986 109.481
44.4277 11892 109.05
44.5448 12268 110.761
44.6619 12502 111.812
44.7791 12724 112.801
44.8963 12484 111.732
45.0136 12188 110.399
45.1308 11817 108.706
45.2481 11311 106.353
45.3654 10508 102.509
45.4827 10220 101.094
45.6001 10122 100.608
45.7174 10193 100.96
45.8348 10108 100.539
45.9522 10534 102.635
46.0697 11127 105.485
46.1871 11449 107
46.3046 11612 107.759
46.422 11877 108.982
46.5395 12304 110.923
46.657 12508 111.839
46.7745 12227 110.576
46.892 12392 111.319
47.0096 12478 111.705
47.1271 12294 110.878
47.2446 12115 110.068
47.3622 11753 108.411
47.4797 11684 108.093
47.5973 11072 105.224
47.7149 10706 103.47
47.8324 10229 101.139
47.95 10101 100.504
48.0675 10082 100.409
48.1851 10469 102.318
48.3027 10659 103.242
48.4202 10677 103.33
48.5378 10485 102.396
48.6554 9970 99.8499
48.7729 9449 97.206
48.8904 8959 94.652
49.008 8517 92.2876
49.1255 8413 91.7224
49.243 8223 90.6808
49.3605 8530 92.358
49.478 9064 95.205
49.5955 9532 97.632
49.713 10035 100.175
49.8304 10384 101.902
49.9479 10900 104.403
50.0653 11151 105.598
50.1827 11620 107.796
50.3001 11688 108.111
50.4175 11732 108.314
50.5348 11949 109.311
50.6521 11804 108.646
50.7694 11888 109.032
50.8867 11796 108.609
51.004 11575 107.587
51.1212 11629 107.838
51.2384 11481 107.149
51.3556 11413 106.832
51.4727 11547 107.457
51.5899 12050 109.772
51.707 12604 112.268
51.824 12954 113.816
51.9411 13445 115.953
52.0581 13220 114.978
52.175 13165 114.739
52.2919 12558 112.062
52.4088 12089 109.95
52.5257 11673 108.042
52.6425 11466 107.079
52.7593 11636 107.87
52.876 11743 108.365
52.9927 12568 112.107
53.1094 13254 115.126
53.226 14140 118.912
53.3426 15140 123.045
53.4591 15993 126.463
53.5756 16699 129.225
53.692 16809 129.65
53.8084 17509 132.322
53.9248 17482 132.22
54.0411 17785 133.36
54.1573 18318 135.344
54.2735 0 1
54.3896 0 1
54.5057 0 1
54.6217 0 1
54.7377 0 1
54.8537 0 1
54.9695 0 1
55.0853 0 1
55.2011 0 1
55.3168 0 1
55.4324 0 1
57.824 0 1
57.9396 0 1
58.0553 0 1
58.1711 0 1
58.2869 0 1
58.4028 0 1
58.5187 0 1
58.6347 0 1
58.7508 0 1
58.8669 0 1
58.983 20289 142.439
59.0992 21405 146.304
59.2155 21426 146.376
59.3318 21986 148.277
59.4482 21591 146.939
59.5646 21519 146.694
59.681 21052 145.093
59.7975 20776 144.139
59.9141 20548 143.346
60.0306 20373 142.734
60.1473 19829 140.815
60.2639 20365 142.706
60.3807 19809 140.744
60.4974 19955 141.262
60.6142 19967 141.305
60.731 19242 138.716
60.8479 18188 134.863
60.9648 17585 132.608
61.0818 16556 128.67
61.1987 16129 127
61.3158 15640 125.06
61.4328 15776 125.603
61.5499 16091 126.85
61.667 16839 129.765
61.7841 17801 133.42
61.9013 18734 136.872
62.0185 19540 139.786
62.1357 20442 142.976
62.253 21104 145.272
62.3702 20926 144.658
62.4875 21260 145.808
62.6049 21139 145.393
62.7222 21116 145.313
62.8396 21216 145.657
62.9569 21021 144.986
63.0743 20654 143.715
63.1918 20217 142.186
63.3092 19721 140.431
63.4267 19481 139.574
63.5441 19273 138.827
63.6616 19230 138.672
63.7791 19290 138.888
63.8966 19560 139.857
64.0142 19267 138.806
64.1317 19310 138.96
64.2492 18844 137.273
64.3668 18002 134.172
64.4843 16907 130.027
64.6019 15751 125.503
64.7195 15202 123.296
64.837 14688 121.194
64.9546 15010 122.515
65.0722 14830 121.778
65.1898 15636 125.044
65.3074 16883 129.935
65.4249 17886 133.739
65.5425 18693 136.722
65.6601 19892 141.039
65.7777 20230 142.232
65.8952 20800 144.222
66.0128 21043 145.062
66.1304 21486 146.581
66.2479 21419 146.352
66.3655 21656 147.16
66.483 21216 145.657
66.6005 21393 146.263
66.718 21056 145.107
66.8355 20692 143.847
66.953 20333 142.594
67.0705 19950 141.244
67.1879 20008 141.45
67.3054 20119 141.841
67.4228 20252 142.31
67.5402 20494 143.157
67.6576 21073 145.165
67.7749 20706 143.896
67.8923 20328 142.576
68.0096 19328 139.025
68.1269 18518 136.081
68.2442 17174 131.05
68.3614 16330 127.789
68.4787 16023 126.582
68.5958 15804 125.714
68.713 16377 127.973
68.8302 17462 132.144
68.9473 18616 136.44
69.0643 20324 142.562
69.1814 21420 146.356
69.2984 22545 150.15
69.4154 23642 153.76
69.5323 24387 156.163
69.6492 24785 157.433
69.7661 25103 158.439
69.8829 25380 159.311
69.9997 25861 160.814
70.1165 25884 160.885
70.2332 25824 160.698
70.3499 25806 160.642
70.4665 25682 160.256
70.5831 25508 159.712
70.6996 24937 157.915
70.8161 24530 156.621
70.9326 24629 156.936
71.049 24504 156.538
71.1653 24925 157.877
71.2817 24752 157.328
71.3979 24389 156.17
71.5141 24018 154.977
71.6303 22025 148.408
71.7464 19111 138.243
71.8624 0 1
71.9784 0 1
72.0944 0 1
72.2102 0 1
72.3261 0 1
72.4418 0 1
72.5575 0 1
72.6732 0 1
75.1054 0 1
75.2209 0 1
75.3365 0 1
75.4521 0 1
75.5678 0 1
75.6835 0 1
75.7993 0 1
75.9151 0 1
76.031 0 1
76.147 24410 156.237
76.263 26130 161.648
76.3791 27109 164.648
76.4952 28178 167.863
76.6113 28511 168.852
76.7276 29010 170.323
76.8438 28155 167.795
76.9601 26873 163.93
77.0765 24761 157.356
77.1929 22597 150.323
77.3093 20817 144.281
77.4258 19700 140.357
77.5423 19054 138.036
77.6589 19784 140.656
77.7755 20975 144.827
77.8921 23235 152.43
78.0088 25042 158.247
78.1256 27228 165.009
78.2423 29082 170.534
78.3591 30565 174.828
78.4759 31454 177.353
78.5928 31737 178.149
78.7097 31650 177.904
78.8266 30863 175.679
78.9436 33370 182.675
79.0606 31826 178.398
79.1776 31302 176.924
79.2946 30854 175.653
79.4117 30894 175.767
79.5288 30381 174.301
79.6459 29771 172.543
79.7631 29383 171.415
79.8802 28722 169.476
79.9974 28734 169.511
80.1147 29136 170.693
80.2319 29734 172.435
80.3491 30240 173.897
80.4664 30112 173.528
80.5837 28765 169.602
80.701 26854 163.872
80.8183 24492 156.499
80.9357 21726 147.397
81.053 20148 141.944
81.1704 19510 139.678
81.2877 19457 139.488
81.4051 20187 142.081
81.5225 21789 147.611
81.6399 24707 157.185
81.7573 26903 164.021
81.8747 28566 169.015
81.9922 30022 173.269
82.1096 30878 175.721
82.227 31084 176.307
82.3444 31639 177.874
82.4619 31731 178.132
82.5793 32052 179.031
82.6967 31234 176.731
82.8142 30919 175.838
82.9316 30877 175.719
83.049 29975 173.133
83.1664 29270 171.085
83.2838 28984 170.247
83.4012 28464 168.713
83.5186 28004 167.344
83.636 27861 166.916
83.7534 28133 167.729
83.8708 28950 170.147
83.9881 29333 171.269
84.1055 29059 170.467
84.2228 27901 167.036
84.3401 25742 160.443
84.4575 23870 154.499
84.5747 21567 146.857
84.692 19922 141.145
84.8093 19034 137.964
84.9265 19395 139.266
85.0437 20526 143.269
85.1609 22616 150.386
85.2781 25431 159.471
85.3952 27693 166.412
85.5123 29978 173.142
85.6294 32152 179.31
85.7465 33658 183.461
85.8636 34708 186.301
85.9806 35277 187.822
86.0976 35158 187.505
86.2145 35932 189.557
86.3315 37654 194.046
86.4484 35540 188.521
86.5652 36247 190.386
86.682 37167 192.787
86.7988 36502 191.055
86.9156 36621 191.366
87.0323 35975 189.671
87.149 36103 190.008
87.2657 36454 190.929
87.3823 37214 192.909
87.4988 38079 195.138
87.6154 38674 196.657
87.7318 38507 196.232
87.8483 36089 189.971
87.9647 33368 182.669
88.081 30638 175.037
88.1973 28278 168.161
88.3136 26066 161.45
88.4298 25787 160.583
88.546 26369 162.385
88.6621 28551 168.97
88.7781 32010 178.913
88.8942 0 1
89.0101 0 1
89.126 0 1
89.2419 0 1
89.3577 0 1
89.4734 0 1
89.5891 0 1
89.7047 0 1
89.8203 0 1
89.9358 0 1
92.3269 0 1
92.4424 0 1
92.558 0 1
92.6736 0 1
92.7893 0 1
92.905 0 1
93.0208 0 1
93.1366 0 1
93.2525 0 1
93.3685 0 1
93.4845 0 1
93.6005 29473 171.677
93.7167 28602 169.121
93.8328 28671 169.325
93.949 29764 172.522
94.0653 31638 177.871
94.1816 35054 187.227
94.2979 38419 196.008
94.4143 41213 203.01
94.5307 43601 208.809
94.6472 46256 215.072
94.7637 46739 216.192
94.8803 47849 218.744
94.9969 48269 219.702
95.1135 48478 220.177
95.2302 48357 219.902
95.3469 48411 220.025
95.4637 48379 219.952
95.5805 48482 220.186
95.6973 48229 219.611
95.8142 48007 219.105
95.9311 47572 218.11
96.048 46681 216.058
96.1649 46401 215.409
96.2819 45982 214.434
96.3989 46577 215.817
96.516 47042 216.892
96.633 47342 217.582
96.7501 47278 217.435
96.8673 46323 215.228
96.9844 43355 208.219
97.1016 39598 198.992
97.2188 36476 190.987
97.336 33640 183.412
97.4532 31119 176.406
97.5704 29990 173.176
97.6877 30734 175.311
97.805 33149 182.069
97.9223 36012 189.768
98.0396 38975 197.421
98.1569 42543 206.26
98.2743 45355 212.967
98.3916 47569 218.103
98.509 49099 221.583
98.6264 49661 222.847
98.7438 50230 224.121
98.8612 50348 224.384
98.9786 50296 224.268
99.096 50156 223.955
99.2134 49404 222.27
99.3308 50324 224.33
99.4482 50020 223.652
99.5656 49386 222.23
99.6831 48971 221.294
99.8005 48474 220.168
99.9179 47444 217.816
100.035 47446 217.821
100.153 49136 221.666
100.27 49684 222.899
100.388 49443 222.358
100.505 47677 218.351
100.622 44729 211.492
100.74 41168 202.899
100.857 37570 193.83
100.975 34121 184.719
101.092 31631 177.851
101.209 31698 178.039
101.327 32522 180.339
101.444 35363 188.051
101.561 39259 198.139
101.679 42997 207.357
101.796 45937 214.329
101.913 48961 221.271
102.03 51137 226.135
102.148 51374 226.658
102.265 50362 224.415
102.382 53548 231.404
102.499 52330 228.758
102.616 52477 229.079
102.733 51930 227.882
102.851 52073 228.195
102.968 52194 228.46
103.085 52331 228.76
103.202 51388 226.689
103.319 50857 225.515
103.436 50141 223.922
103.552 49792 223.141
103.669 51020 225.876
103.786 52528 229.19
103.903 52457 229.035
104.02 51324 226.548
104.137 47370 217.647
104.253 44525 211.009
104.37 41189 202.951
104.487 37430 193.468
104.603 35056 187.232
104.72 33963 184.291
104.836 35137 187.449
104.953 37640 194.01
105.069 41392 203.45
105.186 45163 212.516
105.302 48978 221.31
105.418 52163 228.392
105.535 54269 232.957
105.651 54856 234.214
105.767 55752 236.119
105.883 56270 237.213
105.999 55660 235.924
106.115 0 1
106.231 0 1
106.347 0 1
106.463 0 1
106.579 0 1
106.694 0 1
106.81 0 1
106.926 0 1
107.041 0 1
107.157 0 1
109.576 0 1
109.692 0 1
109.807 0 1
109.923 0 1
110.039 0 1
110.155 0 1
110.27 0 1
110.386 0 1
110.502 0 1
110.618 48410 220.023
110.735 50747 225.271
110.851 51743 227.471
110.967 51608 227.174
111.083 51706 227.39
111.199 51461 226.85
111.316 51273 226.435
111.432 52210 228.495
111.549 51493 226.921
111.665 50775 225.333
111.782 49213 221.84
111.898 48714 220.712
112.015 48747 220.787
112.132 49682 222.895
112.248 49901 223.385
112.365 50457 224.626
112.482 46950 216.679
112.599 46421 215.455
112.716 42558 206.296
112.832 39735 199.336
112.949 36057 189.887
113.066 33728 183.652
113.183 32644 180.677
113.3 31902 178.611
113.417 33435 182.852
113.534 36101 190.003
113.652 38915 197.269
113.769 42129 205.254
113.886 44749 211.54
114.003 46214 214.974
114.12 47704 218.412
114.238 48321 219.82
114.355 48420 220.045
114.472 48087 219.287
114.589 48855 221.032
114.707 47323 217.539
114.824 46899 216.562
114.942 47268 217.412
115.059 47975 219.032
115.176 48209 219.565
115.294 47297 217.479
115.411 46043 214.576
115.529 45869 214.17
115.646 46726 216.162
115.764 47052 216.915
115.881 47776 218.577
115.999 47090 217.002
116.116 45151 212.488
116.234 43012 207.393
116.351 40516 201.286
116.469 37842 194.53
116.586 34960 186.976
116.704 32801 181.11
116.821 31995 178.871
116.939 32432 180.089
117.056 33439 182.863
117.174 35847 189.333
117.291 38553 196.349
117.409 41695 204.194
117.526 43585 208.77
117.644 45306 212.852
117.761 46390 215.383
117.879 47087 216.995
117.996 46921 216.613
118.114 47133 217.101
118.231 46679 216.053
118.349 45913 214.273
118.466 45157 212.502
118.584 46373 215.344
118.701 46379 215.358
118.819 46077 214.656
118.936 45507 213.324
119.053 44129 210.069
119.171 43307 208.103
119.288 43834 209.366
119.405 45464 213.223
119.523 45495 213.296
119.64 44944 212
119.757 43784 209.246
119.875 42017 204.98
119.992 39633 199.08
120.109 37471 193.574
120.226 34444 185.591
120.343 32400 180
120.46 31632 177.854
120.578 31463 177.378
120.695 31901 178.609
120.812 33266 182.39
120.929 35494 188.399
121.046 37922 194.736
121.163 40357 200.891
121.279 42420 205.961
121.396 43490 208.543
121.513 43972 209.695
121.63 45216 212.641
121.747 44712 211.452
121.863 44625 211.246
121.98 44352 210.599
122.097 43113 207.637
122.213 43081 207.56
122.33 43425 208.387
122.446 44012 209.79
122.563 42715 206.676
122.679 42162 205.334
122.795 41560 203.863
122.912 41148 202.85
123.028 42121 205.234
123.144 41625 204.022
123.26 42104 205.193
123.377 0 1
123.493 0 1
123.609 0 1
123.725 0 1
123.84 0 1
123.956 0 1
124.072 0 1
124.188 0 1
124.303 0 1
124.419 0 1
126.852 0 1
126.968 0 1
127.083 0 1
127.199 0 1
127.315 0 1
127.431 0 1
127.547 0 1
127.663 0 1
127.779 0 1
127.895 0 1
128.011 0 1
128.127 0 1
128.243 0 1
128.359 44651 211.308
128.476 44946 212.005
128.592 44538 211.04
128.708 43391 208.305
128.825 41677 204.149
128.941 39480 198.696
129.058 37417 193.435
129.174 35412 188.181
129.291 34040 184.499
129.408 34334 185.294
129.524 34248 185.062
129.641 35172 187.542
129.758 36752 191.708
129.875 38645 196.583
129.992 41084 202.692
130.108 42091 205.161
130.225 43060 207.509
130.342 44258 210.376
130.459 43564 208.72
130.576 45133 212.445
130.693 43455 208.459
130.81 43171 207.776
130.928 42378 205.859
131.045 42857 207.019
131.162 43414 208.36
131.279 44732 211.499
131.396 44080 209.952
131.513 43288 208.058
131.631 43023 207.42
131.748 42936 207.21
131.865 44205 210.25
131.983 43972 209.695
132.1 44112 210.029
132.217 42959 207.266
132.335 41541 203.816
132.452 39869 199.672
132.57 37920 194.731
132.687 35683 188.899
132.804 34775 186.481
132.922 33554 183.178
133.039 33182 182.159
133.157 33672 183.499
133.274 35074 187.281
133.392 36967 192.268
133.509 38892 197.211
133.627 40223 200.557
133.744 41087 202.699
133.862 41663 204.115
133.979 41896 204.685
134.097 42344 205.777
134.214 41459 203.615
134.332 41482 203.671
134.449 40577 201.437
134.567 40354 200.883
134.684 41539 203.811
134.802 42383 205.871
134.919 42344 205.777
135.037 41794 204.436
135.154 40971 202.413
135.272 41577 203.904
135.389 41472 203.647
135.507 41738 204.299
135.624 42026 205.002
135.742 41874 204.631
135.859 40831 202.067
135.977 39338 198.338
136.094 37596 193.897
136.211 35698 188.939
136.329 34464 185.645
136.446 33421 182.814
136.564 32466 180.183
136.681 32718 180.881
136.798 33375 182.688
136.915 34289 185.173
137.033 35311 187.912
137.15 36716 191.614
137.267 38028 195.008
137.384 39483 198.703
137.502 39333 198.325
137.619 39883 199.707
137.736 39968 199.92
137.853 38905 197.244
137.97 39085 197.699
138.087 37269 193.052
138.204 38311 195.732
138.321 39285 198.204
138.438 40088 200.22
138.555 40699 201.74
138.672 40232 200.579
138.788 39965 199.912
138.905 39805 199.512
139.022 40607 201.512
139.139 41269 203.148
139.255 40724 201.802
139.372 40595 201.482
139.488 39825 199.562
139.605 38686 196.688
139.721 37307 193.15
139.838 36261 190.423
139.954 34336 185.3
140.071 32881 181.331
140.187 32618 180.605
140.303 31935 178.704
140.419 31935 178.704
140.535 32676 180.765
140.652 33308 182.505
140.768 0 1
140.884 0 1
141 0 1
141.115 0 1
141.231 0 1
141.347 0 1
141.463 0 1
141.578 0 1
141.694 0 1
144.104 0 1
144.219 0 1
144.335 0 1
144.45 0 1
144.566 0 1
144.682 0 1
144.798 0 1
144.914 0 1
145.03 0 1
145.146 22382 149.606
145.262 24444 156.346
145.378 25288 159.022
145.494 25719 160.371
145.61 25954 161.102
145.726 26417 162.533
145.842 27352 165.384
145.959 28335 168.33
146.075 29083 170.537
146.192 29076 170.517
146.308 29722 172.401
146.425 29971 173.121
146.541 29298 171.167
146.658 28730 169.499
146.774 28909 170.026
146.891 28399 168.52
147.008 29136 170.693
147.125 28882 169.947
147.241 30036 173.309
147.358 30337 174.175
147.475 30194 173.764
147.592 29957 173.081
147.709 30115 173.537
147.826 30705 175.228
147.943 30630 175.014
148.06 30586 174.889
148.177 30574 174.854
148.294 30374 174.281
148.411 29454 171.622
148.528 28713 169.449
148.645 28253 168.086
148.762 27210 164.955
148.88 26785 163.661
148.997 26242 161.994
149.114 26753 163.563
149.231 26338 162.29
149.349 26304 162.185
149.466 27385 165.484
149.583 27753 166.592
149.701 28553 168.976
149.818 29170 170.792
149.935 29880 172.858
150.053 29922 172.98
150.17 29592 172.023
150.287 29825 172.699
150.405 29102 170.593
150.522 28898 169.994
150.64 28558 168.991
150.757 29286 171.132
150.875 29251 171.029
150.992 29918 172.968
151.11 30600 174.929
151.227 30764 175.397
151.344 30467 174.548
151.462 30548 174.78
151.579 31080 176.295
151.697 30808 175.522
151.814 30915 175.827
151.932 30539 174.754
152.049 29962 173.095
152.167 29430 171.552
152.284 28621 169.177
152.402 28089 167.598
152.519 27254 165.088
152.636 27229 165.012
152.754 26816 163.756
152.871 27325 165.303
152.989 27563 166.021
153.106 27555 165.997
153.223 28172 167.845
153.341 28890 169.971
153.458 29694 172.319
153.575 30196 173.77
153.693 30076 173.424
153.81 29805 172.641
153.927 29977 173.139
154.044 29475 171.683
154.162 29035 170.397
154.279 29040 170.411
154.396 29310 171.202
154.513 30553 174.794
154.63 31320 176.975
154.747 31732 178.135
154.864 31949 178.743
154.981 31809 178.351
155.098 31954 178.757
155.215 32298 179.716
155.332 31957 178.765
155.449 31717 178.093
155.566 31054 176.221
155.683 30813 175.536
155.8 30197 173.773
155.917 30222 173.845
156.033 29543 171.881
156.15 0 1
156.267 0 1
156.383 0 1
156.5 0 1
156.617 0 1
156.733 0 1
156.85 0 1
156.966 0 1
157.082 0 1
157.199 0 1
157.315 0 1
157.431 0 1
157.547 0 1
157.664 0 1
157.78 0 1
157.896 0 1
158.012 0 1
158.128 0 1
158.244 0 1
158.359 0 1
158.475 0 1
158.591 0 1
158.706 0 1
