
6.15755 0 1
6.2731 0 1
6.3887 0 1
6.50437 0 1
6.62009 0 1
6.73587 0 1
6.8517 0 1
6.96759 0 1
7.08353 0 1
7.19952 0 1
7.31557 0 1
7.43166 0 1
7.54781 0 1
7.664 0 1
7.78024 0 1
7.89653 0 1
8.01286 0 1
8.12924 0 1
8.24567 0 1
8.36213 0 1
8.47864 0 1
8.59519 0 1
8.71178 0 1
8.82841 0 1
8.94508 0 1
9.06179 0 1
9.17853 0 1
9.29531 0 1
9.41212 0 1
9.52897 0 1
9.64584 0 1
9.76276 0 1
9.8797 0 1
9.99667 0 1
10.1137 0 1
10.2307 0 1
10.3478 0 1
10.4648 0 1
10.5819 0 1
10.6991 0 1
10.8162 0 1
10.9334 0 1
11.0506 0 1
11.1678 0 1
11.285 0 1
11.4023 0 1
11.5196 0 1
11.6369 0 1
11.7542 0 1
11.8715 0 1
11.9888 0 1
12.1062 0 1
12.2235 0 1
12.3409 0 1
12.4582 0 1
12.5756 0 1
12.693 0 1
12.8104 0 1
12.9278 0 1
13.0452 0 1
13.1626 0 1
13.28 0 1
13.3974 0 1
13.5149 0 1
13.6323 0 1
13.7497 0 1
13.8671 0 1
13.9845 0 1
14.1019 0 1
14.2193 0 1
14.3367 0 1
14.4541 0 1
14.5714 0 1
14.6888 0 1
14.8062 0 1
14.9235 0 1
15.0408 861 29.3428
15.1581 898 29.9666
15.2755 903 30.05
15.3927 826 28.7402
15.51 864 29.3939
15.6273 889 29.8161
15.7445 862 29.3598
15.8617 840 28.9828
15.9789 932 30.5287
16.0961 881 29.6816
16.2132 980 31.305
16.3304 920 30.3315
16.4475 979 31.289
16.5646 1019 31.9218
16.6816 1060 32.5576
16.7986 1030 32.0936
16.9156 1049 32.3883
17.0326 998 31.5911
17.1496 1052 32.4345
17.2665 1037 32.2025
17.3833 932 30.5287
17.5002 1050 32.4037
17.617 993 31.5119
17.7338 1046 32.3419
17.8505 1020 31.9374
17.9672 1076 32.8024
18.0839 1089 33
18.2005 1103 33.2114
18.3171 1179 34.3366
18.4337 1193 34.5398
18.5502 1176 34.2929
18.6666 1165 34.1321
18.7831 1161 34.0735
18.8994 1225 35
19.0158 1164 34.1174
19.1321 1086 32.9545
19.2483 1039 32.2335
19.3645 1082 32.8938
19.4806 1110 33.3167
19.5967 1135 33.6898
19.7128 1129 33.6006
19.8288 1161 34.0735
19.9447 1089 33
20.0606 0 1
20.1764 0 1
20.2922 0 1
20.4079 0 1
20.5236 0 1
20.6392 0 1
20.7548 0 1
20.8702 0 1
23.3078 0 1
23.4233 0 1
23.539 0 1
23.6547 0 1
23.7704 0 1
23.8862 0 1
24.0021 0 1
24.118 0 1
24.234 0 1
24.35 0 1
24.4661 1071 32.7261
24.5822 1089 33
24.6984 1087 32.9697
24.8146 1179 34.3366
24.9309 1192 34.5254
25.0472 1217 34.8855
25.1636 1212 34.8138
25.28 1292 35.9444
25.3965 1350 36.7423
25.513 1314 36.2491
25.6296 1258 35.4683
25.7462 1233 35.1141
25.8628 1223 34.9714
25.9795 1217 34.8855
26.0962 1183 34.3948
26.213 1236 35.1568
26.3298 1288 35.8887
26.4466 1260 35.4965
26.5635 1347 36.7015
26.6804 1293 35.9583
26.7973 1356 36.8239
26.9143 1451 38.092
27.0313 1436 37.8946
27.1483 1413 37.5899
27.2653 1349 36.7287
27.3824 1407 37.51
27.4996 1530 39.1152
27.6167 1328 36.4417
27.7339 1382 37.1753
27.8511 1394 37.3363
27.9683 1352 36.7696
28.0855 1228 35.0428
28.2028 1240 35.2136
28.3201 1085 32.9393
28.4374 1254 35.4119
28.5547 1332 36.4966
28.6721 1372 37.0405
28.7894 1403 37.4566
28.9068 1435 37.8814
29.0242 1301 36.0694
29.1416 1297 36.0139
29.259 1254 35.4119
29.3764 1255 35.426
29.4939 1284 35.8329
29.6113 1201 34.6554
29.7288 1206 34.7275
29.8463 1286 35.8608
29.9638 1249 35.3412
30.0812 1356 36.8239
30.1987 1349 36.7287
30.3162 1405 37.4833
30.4337 1435 37.8814
30.5512 1490 38.6005
30.6687 1490 38.6005
30.7862 1509 38.8458
30.9037 1435 37.8814
31.0212 1457 38.1707
31.1387 1477 38.4318
31.2562 1467 38.3014
31.3737 1438 37.921
31.4912 1325 36.4005
31.6087 1241 35.2278
31.7262 1287 35.8748
31.8436 1288 35.8887
31.9611 1308 36.1663
32.0785 1326 36.4143
32.1959 1405 37.4833
32.3134 1442 37.9737
32.4308 1434 37.8682
32.5482 1366 36.9594
32.6655 1403 37.4566
32.7829 1308 36.1663
32.9002 1352 36.7696
33.0176 1320 36.3318
33.1349 1279 35.7631
33.2522 1345 36.6742
33.3694 1267 35.5949
33.4867 1309 36.1801
33.6039 1394 37.3363
33.7211 1399 37.4032
33.8383 1382 37.1753
33.9554 1390 37.2827
34.0725 1429 37.8021
34.1896 1484 38.5227
34.3067 1526 39.064
34.4237 1543 39.281
34.5407 1528 39.0896
34.6577 1546 39.3192
34.7746 1488 38.5746
34.8915 1474 38.3927
35.0084 1418 37.6563
35.1252 1431 37.8286
35.242 1404 37.47
35.3587 1344 36.6606
35.4755 1260 35.4965
35.5921 1352 36.7696
35.7088 1318 36.3043
35.8254 1366 36.9594
35.9419 1426 37.7624
36.0584 1392 37.3095
36.1749 1479 38.4578
36.2913 1391 37.2961
36.4077 1426 37.7624
36.524 1315 36.2629
36.6403 1239 35.1994
36.7565 1184 34.4093
36.8727 1293 35.9583
36.9889 1229 35.0571
37.1049 1243 35.2562
37.221 0 1
37.3369 0 1
37.4529 0 1
37.5687 0 1
37.6845 0 1
37.8003 0 1
37.916 0 1
38.0316 0 1
38.1472 0 1
40.5851 0 1
40.7008 0 1
40.8164 0 1
40.9322 0 1
41.048 0 1
41.1639 0 1
41.2798 0 1
41.3958 0 1
41.5118 0 1
41.6279 0 1
41.744 1081 32.8786
41.8602 1079 32.8481
41.9765 1139 33.7491
42.0928 1091 33.0303
42.2091 1104 33.2265
42.3255 1134 33.6749
42.4419 1207 34.7419
42.5584 1256 35.4401
42.675 1286 35.8608
42.7915 1336 36.5513
42.9081 1363 36.9188
43.0248 1377 37.108
43.1415 1412 37.5766
43.2582 1408 37.5233
43.375 1329 36.4555
43.4918 1386 37.229
43.6087 1366 36.9594
43.7256 1309 36.1801
43.8425 1264 35.5528
43.9595 1345 36.6742
44.0765 1213 34.8281
44.1935 1187 34.4529
44.3106 1115 33.3916
44.4277 1100 33.1662
44.5448 1223 34.9714
44.6619 1189 34.4819
44.7791 1200 34.641
44.8963 1211 34.7994
45.0136 1145 33.8378
45.1308 1159 34.0441
45.2481 1045 32.3265
45.3654 977 31.257
45.4827 968 31.1127
45.6001 963 31.0322
45.7174 936 30.5941
45.8348 1015 31.8591
45.9522 1034 32.1559
46.0697 1045 32.3265
46.1871 1032 32.1248
46.3046 1122 33.4963
46.422 1119 33.4515
46.5395 1245 35.2846
46.657 1158 34.0294
46.7745 1109 33.3017
46.892 1217 34.8855
47.0096 1185 34.4238
47.1271 1232 35.0999
47.2446 1168 34.176
47.3622 1103 33.2114
47.4797 1067 32.665
47.5973 1064 32.619
47.7149 1029 32.078
47.8324 1029 32.078
47.95 971 31.1609
48.0675 962 31.0161
48.1851 1004 31.686
48.3027 996 31.5595
48.4202 959 30.9677
48.5378 992 31.496
48.6554 921 30.348
48.7729 908 30.133
48.8904 826 28.7402
49.008 805 28.3725
49.1255 793 28.1603
49.243 814 28.5307
49.3605 873 29.5466
49.478 896 29.9333
49.5955 938 30.6268
49.713 910 30.1662
49.8304 1016 31.8748
49.9479 1034 32.1559
50.0653 1113 33.3617
50.1827 1096 33.1059
50.3001 1080 32.8634
50.4175 1096 33.1059
50.5348 1167 34.1614
50.6521 1162 34.0881
50.7694 1247 35.3129
50.8867 1156 34
51.004 1098 33.1361
51.1212 1098 33.1361
51.2384 1114 33.3766
51.3556 1082 32.8938
51.4727 1130 33.6155
51.5899 1228 35.0428
51.707 1227 35.0286
51.824 1246 35.2987
51.9411 1322 36.3593
52.0581 1307 36.1525
52.175 1291 35.9305
52.2919 1196 34.5832
52.4088 1201 34.6554
52.5257 1149 33.8969
52.6425 1117 33.4215
52.7593 1135 33.6898
52.876 1136 33.7046
52.9927 1208 34.7563
53.1094 1226 35.0143
53.226 1332 36.4966
53.3426 1441 37.9605
53.4591 1502 38.7556
53.5756 1525 39.0512
53.692 1583 39.7869
53.8084 1661 40.7554
53.9248 1588 39.8497
54.0411 1766 42.0238
54.1573 1753 41.8688
54.2735 0 1
54.3896 0 1
54.5057 0 1
54.6217 0 1
54.7377 0 1
54.8537 0 1
54.9695 0 1
55.0853 0 1
55.2011 0 1
55.3168 0 1
55.4324 0 1
57.824 0 1
57.9396 0 1
58.0553 0 1
58.1711 0 1
58.2869 0 1
58.4028 0 1
58.5187 0 1
58.6347 0 1
58.7508 0 1
58.8669 0 1
58.983 1928 43.909
59.0992 2006 44.7884
59.2155 2060 45.3872
59.3318 2038 45.1442
59.4482 2039 45.1553
59.5646 2104 45.8694
59.681 1971 44.3959
59.7975 1863 43.1625
59.9141 1918 43.795
60.0306 1965 44.3283
60.1473 1973 44.4185
60.2639 1934 43.9773
60.3807 1910 43.7035
60.4974 1962 44.2945
60.6142 1847 42.9767
60.731 1804 42.4735
60.8479 1752 41.8569
60.9648 1669 40.8534
61.0818 1580 39.7492
61.1987 1478 38.4448
61.3158 1433 37.855
61.4328 1436 37.8946
61.5499 1555 39.4335
61.667 1615 40.1871
61.7841 1688 41.0853
61.9013 1752 41.8569
62.0185 1768 42.0476
62.1357 1938 44.0227
62.253 1968 44.3621
62.3702 1975 44.441
62.4875 2025 45
62.6049 1977 44.4635
62.7222 2084 45.6508
62.8396 1995 44.6654
62.9569 1958 44.2493
63.0743 1881 43.3705
63.1918 1897 43.5546
63.3092 1805 42.4853
63.4267 1848 42.9884
63.5441 1730 41.5933
63.6616 1874 43.2897
63.7791 1705 41.2916
63.8966 1769 42.0595
64.0142 1782 42.2137
64.1317 1803 42.4617
64.2492 1775 42.1307
64.3668 1725 41.5331
64.4843 1639 40.4846
64.6019 1490 38.6005
64.7195 1413 37.5899
64.837 1434 37.8682
64.9546 1404 37.47
65.0722 1483 38.5097
65.1898 1486 38.5487
65.3074 1609 40.1123
65.4249 1601 40.0125
65.5425 1777 42.1545
65.6601 1908 43.6807
65.7777 1911 43.715
65.8952 1935 43.9886
66.0128 1969 44.3734
66.1304 2000 44.7214
66.2479 1981 44.5084
66.3655 2013 44.8665
66.483 1968 44.3621
66.6005 2058 45.3652
66.718 1922 43.8406
66.8355 1911 43.715
66.953 1912 43.7264
67.0705 1919 43.8064
67.1879 1853 43.0465
67.3054 1770 42.0714
67.4228 1948 44.1362
67.5402 1965 44.3283
67.6576 1992 44.6318
67.7749 1882 43.382
67.8923 1877 43.3244
68.0096 1841 42.9069
68.1269 1690 41.1096
68.2442 1603 40.0375
68.3614 1521 39
68.4787 1524 39.0384
68.5958 1470 38.3406
68.713 1563 39.5348
68.8302 1597 39.9625
68.9473 1788 42.2847
69.0643 1902 43.6119
69.1814 2025 45
69.2984 2065 45.4423
69.4154 2191 46.8081
69.5323 2214 47.0532
69.6492 2386 48.8467
69.7661 2270 47.6445
69.8829 2373 48.7134
69.9997 2502 50.02
70.1165 2407 49.0612
70.2332 2396 48.949
70.3499 2341 48.3839
70.4665 2368 48.6621
70.5831 2374 48.7237
70.6996 2326 48.2286
70.8161 2282 47.7703
70.9326 2291 47.8644
71.049 2222 47.1381
71.1653 2263 47.571
71.2817 2279 47.7389
71.3979 2303 47.9896
71.5141 2250 47.4342
71.6303 2081 45.618
71.7464 1716 41.4246
71.8624 0 1
71.9784 0 1
72.0944 0 1
72.2102 0 1
72.3261 0 1
72.4418 0 1
72.5575 0 1
72.6732 0 1
75.1054 0 1
75.2209 0 1
75.3365 0 1
75.4521 0 1
75.5678 0 1
75.6835 0 1
75.7993 0 1
75.9151 0 1
76.031 0 1
76.147 2271 47.655
76.263 2464 49.6387
76.3791 2503 50.03
76.4952 2488 49.8799
76.6113 2683 51.7977
76.7276 2725 52.2015
76.8438 2623 51.2152
76.9601 2510 50.0999
77.0765 2332 48.2908
77.1929 2108 45.913
77.3093 1897 43.5546
77.4258 1837 42.8602
77.5423 1761 41.9643
77.6589 1819 42.6497
77.7755 1919 43.8064
77.8921 2174 46.6262
78.0088 2372 48.7032
78.1256 2540 50.3984
78.2423 2606 51.049
78.3591 2895 53.8052
78.4759 2971 54.5069
78.5928 2898 53.8331
78.7097 3042 55.1543
78.8266 2911 53.9537
78.9436 3068 55.3895
79.0606 2984 54.626
79.1776 2915 53.9907
79.2946 2879 53.6563
79.4117 2825 53.1507
79.5288 2798 52.8961
79.6459 2762 52.5547
79.7631 2735 52.2972
79.8802 2671 51.6817
79.9974 2615 51.1371
80.1147 2668 51.6527
80.2319 2719 52.144
80.3491 2788 52.8015
80.4664 2780 52.7257
80.5837 2675 51.7204
80.701 2490 49.8999
80.8183 2203 46.9361
80.9357 1964 44.317
81.053 1855 43.0697
81.1704 1775 42.1307
81.2877 1785 42.2493
81.4051 1881 43.3705
81.5225 1972 44.4072
81.6399 2274 47.6865
81.7573 2580 50.7937
81.8747 2583 50.8232
81.9922 2797 52.8867
82.1096 2862 53.4977
82.227 2927 54.1018
82.3444 2882 53.6843
82.4619 2893 53.7866
82.5793 2902 53.8702
82.6967 2893 53.7866
82.8142 2765 52.5833
82.9316 2797 52.8867
83.049 2727 52.2207
83.1664 2737 52.3163
83.2838 2692 51.8845
83.4012 2705 52.0096
83.5186 2605 51.0392
83.636 2595 50.9411
83.7534 2628 51.264
83.8708 2596 50.951
83.9881 2685 51.817
84.1055 2611 51.0979
84.2228 2608 51.0686
84.3401 2359 48.5695
84.4575 2168 46.5618
84.5747 2056 45.3431
84.692 1772 42.0951
84.8093 1771 42.0833
84.9265 1811 42.5558
85.0437 1894 43.5201
85.1609 2021 44.9555
85.2781 2339 48.3632
85.3952 2496 49.96
85.5123 2612 51.1077
85.6294 2846 53.3479
85.7465 3103 55.7046
85.8636 3115 55.8122
85.9806 3288 57.3411
86.0976 3375 58.0948
86.2145 3274 57.2189
86.3315 3416 58.4466
86.4484 3206 56.6216
86.5652 3384 58.1722
86.682 3350 57.8792
86.7988 3433 58.5918
86.9156 3435 58.6089
87.0323 3226 56.7979
87.149 3237 56.8946
87.2657 3326 57.6715
87.3823 3419 58.4722
87.4988 3495 59.1185
87.6154 3446 58.7026
87.7318 3520 59.3296
87.8483 3353 57.9051
87.9647 2991 54.69
88.081 2730 52.2494
88.1973 2581 50.8035
88.3136 2432 49.3153
88.4298 2357 48.5489
88.546 2445 49.4469
88.6621 2551 50.5074
88.7781 2843 53.3198
88.8942 0 1
89.0101 0 1
89.126 0 1
89.2419 0 1
89.3577 0 1
89.4734 0 1
89.5891 0 1
89.7047 0 1
89.8203 0 1
89.9358 0 1
92.3269 0 1
92.4424 0 1
92.558 0 1
92.6736 0 1
92.7893 0 1
92.905 0 1
93.0208 0 1
93.1366 0 1
93.2525 0 1
93.3685 0 1
93.4845 0 1
93.6005 2635 51.3323
93.7167 2561 50.6063
93.8328 2531 50.309
93.949 2631 51.2933
94.0653 2875 53.619
94.1816 3032 55.0636
94.2979 3493 59.1016
94.4143 3746 61.2046
94.5307 3820 61.8061
94.6472 4027 63.4586
94.7637 4269 65.3376
94.8803 4306 65.6201
94.9969 4405 66.3702
95.1135 4319 65.7191
95.2302 4276 65.3911
95.3469 4403 66.3551
95.4637 4337 65.8559
95.5805 4225 65
95.6973 4269 65.3376
95.8142 4287 65.4752
95.9311 4244 65.146
96.048 4232 65.0538
96.1649 3970 63.0079
96.2819 4114 64.1405
96.3989 4063 63.7417
96.516 4194 64.7611
96.633 4222 64.9769
96.7501 4277 65.3988
96.8673 4086 63.9218
96.9844 3869 62.2013
97.1016 3555 59.6238
97.2188 3268 57.1664
97.336 3051 55.2359
97.4532 2668 51.6527
97.5704 2632 51.303
97.6877 2649 51.4684
97.805 2838 53.2729
97.9223 3200 56.5685
98.0396 3498 59.1439
98.1569 3756 61.2862
98.2743 4006 63.293
98.3916 4125 64.2262
98.509 4209 64.8768
98.6264 4408 66.3928
98.7438 4409 66.4003
98.8612 4393 66.2797
98.9786 4489 67
99.096 4467 66.8356
99.2134 4441 66.6408
99.3308 4454 66.7383
99.4482 4381 66.1891
99.5656 4456 66.7533
99.6831 4323 65.7495
99.8005 4162 64.5136
99.9179 4216 64.9307
100.035 4237 65.0922
100.153 4246 65.1613
100.27 4337 65.8559
100.388 4219 64.9538
100.505 4207 64.8614
100.622 3855 62.0886
100.74 3637 60.3075
100.857 3253 57.0351
100.975 3001 54.7814
101.092 2903 53.8795
101.209 2757 52.5071
101.327 2906 53.9073
101.444 3108 55.7494
101.561 3426 58.532
101.679 3879 62.2816
101.796 4106 64.0781
101.913 4521 67.2384
102.03 4458 66.7683
102.148 4527 67.283
102.265 4574 67.6314
102.382 4615 67.9338
102.499 4583 67.6979
102.616 4677 68.3886
102.733 4540 67.3795
102.851 4545 67.4166
102.968 4534 67.335
103.085 4667 68.3154
103.202 4532 67.3201
103.319 4417 66.4605
103.436 4424 66.5132
103.552 4417 66.4605
103.669 4561 67.5352
103.786 4555 67.4907
103.903 4681 68.4178
104.02 4473 66.8805
104.137 4237 65.0922
104.253 3858 62.1128
104.37 3483 59.0169
104.487 3367 58.0259
104.603 3033 55.0727
104.72 3043 55.1634
104.836 3089 55.5788
104.953 3198 56.5509
105.069 3776 61.4492
105.186 3984 63.1189
105.302 4287 65.4752
105.418 4602 67.838
105.535 4797 69.2604
105.651 4960 70.4273
105.767 4972 70.5124
105.883 5070 71.2039
105.999 4876 69.8284
106.115 0 1
106.231 0 1
106.347 0 1
106.463 0 1
106.579 0 1
106.694 0 1
106.81 0 1
106.926 0 1
107.041 0 1
107.157 0 1
109.576 0 1
109.692 0 1
109.807 0 1
109.923 0 1
110.039 0 1
110.155 0 1
110.27 0 1
110.386 0 1
110.502 0 1
110.618 4280 65.4217
110.735 4422 66.4981
110.851 4594 67.7791
110.967 4537 67.3573
111.083 4452 66.7233
111.199 4531 67.3127
111.316 4441 66.6408
111.432 4518 67.2161
111.549 4372 66.1211
111.665 4512 67.1714
111.782 4287 65.4752
111.898 4226 65.0077
112.015 4297 65.5515
112.132 4291 65.5057
112.248 4459 66.7757
112.365 4439 66.6258
112.482 4204 64.8383
112.599 4093 63.9766
112.716 3723 61.0164
112.832 3350 57.8792
112.949 3148 56.107
113.066 2885 53.7122
113.183 2933 54.1572
113.3 2893 53.7866
113.417 3051 55.2359
113.534 3285 57.3149
113.652 3410 58.3952
113.769 3825 61.8466
113.886 3886 62.3378
114.003 4033 63.5059
114.12 4332 65.8179
114.238 4210 64.8845
114.355 4242 65.1306
114.472 4180 64.6529
114.589 4216 64.9307
114.707 4179 64.6452
114.824 4093 63.9766
114.942 4146 64.3894
115.059 4272 65.3605
115.176 4207 64.8614
115.294 4124 64.2184
115.411 4047 63.616
115.529 4177 64.6297
115.646 4126 64.2339
115.764 4203 64.8305
115.881 4000 63.2456
115.999 4110 64.1093
116.116 4062 63.7338
116.234 3738 61.1392
116.351 3498 59.1439
116.469 3251 57.0175
116.586 3211 56.6657
116.704 2863 53.507
116.821 2861 53.4883
116.939 2842 53.3104
117.056 2942 54.2402
117.174 3164 56.2494
117.291 3420 58.4808
117.409 3631 60.2578
117.526 3779 61.4736
117.644 3905 62.49
117.761 4040 63.561
117.879 4133 64.2884
117.996 4198 64.792
118.114 4146 64.3894
118.231 4080 63.8749
118.349 3961 62.9365
118.466 3915 62.57
118.584 4027 63.4586
118.701 4025 63.4429
118.819 4128 64.2495
118.936 4029 63.4744
119.053 3864 62.1611
119.171 3728 61.0574
119.288 3800 61.6441
119.405 3964 62.9603
119.523 4047 63.616
119.64 3947 62.8252
119.757 3925 62.6498
119.875 3661 60.5062
119.992 3522 59.3464
120.109 3340 57.7927
120.226 3161 56.2228
120.343 3034 55.0818
120.46 2838 53.2729
120.578 2692 51.8845
120.695 2820 53.1037
120.812 2976 54.5527
120.929 3165 56.2583
121.046 3411 58.4038
121.163 3585 59.8749
121.279 3779 61.4736
121.396 3771 61.4085
121.513 3879 62.2816
121.63 3980 63.0872
121.747 3872 62.2254
121.863 3962 62.9444
121.98 3845 62.0081
122.097 3941 62.7774
122.213 3912 62.546
122.33 3807 61.7009
122.446 3874 62.2415
122.563 3786 61.5305
122.679 3796 61.6117
122.795 3696 60.7947
122.912 3657 60.4731
123.028 3637 60.3075
123.144 3701 60.8358
123.26 3690 60.7454
123.377 0 1
123.493 0 1
123.609 0 1
123.725 0 1
123.84 0 1
123.956 0 1
124.072 0 1
124.188 0 1
124.303 0 1
124.419 0 1
126.852 0 1
126.968 0 1
127.083 0 1
127.199 0 1
127.315 0 1
127.431 0 1
127.547 0 1
127.663 0 1
127.779 0 1
127.895 0 1
128.011 0 1
128.127 0 1
128.243 0 1
128.359 3941 62.7774
128.476 4049 63.6318
128.592 3853 62.0725
128.708 3937 62.7455
128.825 3872 62.2254
128.941 3539 59.4895
129.058 3231 56.8419
129.174 3217 56.7186
129.291 3024 54.9909
129.408 3170 56.3028
129.524 3087 55.5608
129.641 3065 55.3624
129.758 3226 56.7979
129.875 3463 58.8473
129.992 3686 60.7124
130.108 3782 61.498
130.225 3915 62.57
130.342 3881 62.2977
130.459 3922 62.6259
130.576 3959 62.9206
130.693 3844 62
130.81 3783 61.5061
130.928 3891 62.3779
131.045 3953 62.8729
131.162 3940 62.7694
131.279 3910 62.53
131.396 3949 62.8411
131.513 3873 62.2334
131.631 3862 62.145
131.748 4010 63.3246
131.865 3909 62.522
131.983 3912 62.546
132.1 3913 62.554
132.217 3727 61.0492
132.335 3765 61.3596
132.452 3551 59.5903
132.57 3338 57.7754
132.687 3152 56.1427
132.804 3135 55.9911
132.922 3011 54.8726
133.039 2980 54.5894
133.157 3082 55.5158
133.274 3106 55.7315
133.392 3294 57.3934
133.509 3521 59.338
133.627 3601 60.0083
133.744 3766 61.3677
133.862 3715 60.9508
133.979 3712 60.9262
134.097 3768 61.384
134.214 3721 61
134.332 3780 61.4817
134.449 3608 60.0666
134.567 3575 59.7913
134.684 3704 60.8605
134.802 3818 61.79
134.919 3961 62.9365
135.037 3748 61.2209
135.154 3677 60.6383
135.272 3721 61
135.389 3645 60.3738
135.507 3911 62.538
135.624 3718 60.9754
135.742 3786 61.5305
135.859 3549 59.5735
135.977 3488 59.0593
136.094 3391 58.2323
136.211 3160 56.2139
136.329 3149 56.116
136.446 2979 54.5802
136.564 3015 54.909
136.681 2805 52.9623
136.798 3071 55.4166
136.915 3088 55.5698
137.033 3174 56.3383
137.15 3267 57.1577
137.267 3471 58.9152
137.384 3501 59.1692
137.502 3560 59.6657
137.619 3585 59.8749
137.736 3630 60.2495
137.853 3507 59.2199
137.97 3557 59.6406
138.087 3393 58.2495
138.204 3378 58.1206
138.321 3436 58.6174
138.438 3547 59.5567
138.555 3654 60.4483
138.672 3724 61.0246
138.788 3607 60.0583
138.905 3638 60.3158
139.022 3646 60.3821
139.139 3613 60.1082
139.255 3630 60.2495
139.372 3575 59.7913
139.488 3495 59.1185
139.605 3412 58.4123
139.721 3311 57.5413
139.838 3257 57.0701
139.954 3219 56.7362
140.071 2979 54.5802
140.187 2960 54.4059
140.303 2842 53.3104
140.419 2927 54.1018
140.535 2922 54.0555
140.652 2928 54.111
140.768 0 1
140.884 0 1
141 0 1
141.115 0 1
141.231 0 1
141.347 0 1
141.463 0 1
141.578 0 1
141.694 0 1
144.104 0 1
144.219 0 1
144.335 0 1
144.45 0 1
144.566 0 1
144.682 0 1
144.798 0 1
144.914 0 1
145.03 0 1
145.146 2097 45.793
145.262 2180 46.6905
145.378 2227 47.1911
145.494 2239 47.3181
145.61 2329 48.2597
145.726 2434 49.3356
145.842 2575 50.7445
145.959 2548 50.4777
146.075 2585 50.8429
146.192 2643 51.4101
146.308 2667 51.643
146.425 2716 52.1153
146.541 2749 52.4309
146.658 2660 51.5752
146.774 2580 50.7937
146.891 2605 51.0392
147.008 2630 51.2835
147.125 2635 51.3323
147.241 2761 52.5452
147.358 2721 52.1632
147.475 2794 52.8583
147.592 2727 52.2207
147.709 2769 52.6213
147.826 2903 53.8795
147.943 2813 53.0377
148.06 2739 52.3355
148.177 2766 52.5928
148.294 2721 52.1632
148.411 2773 52.6593
148.528 2633 51.3128
148.645 2594 50.9313
148.762 2560 50.5964
148.88 2411 49.1019
148.997 2438 49.3761
149.114 2463 49.6286
149.231 2431 49.3052
149.349 2365 48.6313
149.466 2571 50.705
149.583 2530 50.2991
149.701 2636 51.342
149.818 2706 52.0192
149.935 2665 51.6236
150.053 2802 52.9339
150.17 2750 52.4404
150.287 2802 52.9339
150.405 2731 52.259
150.522 2608 51.0686
150.64 2613 51.1175
150.757 2666 51.6333
150.875 2708 52.0384
150.992 2767 52.6023
151.11 2847 53.3573
151.227 2716 52.1153
151.344 2774 52.6688
151.462 2768 52.6118
151.579 2830 53.1977
151.697 2952 54.3323
151.814 2827 53.1695
151.932 2880 53.6656
152.049 2781 52.7352
152.167 2732 52.2685
152.284 2587 50.8626
152.402 2569 50.6853
152.519 2527 50.2693
152.636 2607 51.0588
152.754 2432 49.3153
152.871 2530 50.2991
152.989 2472 49.7192
153.106 2578 50.774
153.223 2577 50.7642
153.341 2598 50.9706
153.458 2735 52.2972
153.575 2772 52.6498
153.693 2770 52.6308
153.81 2827 53.1695
153.927 2721 52.1632
154.044 2678 51.7494
154.162 2631 51.2933
154.279 2689 51.8556
154.396 2659 51.5655
154.513 2764 52.5738
154.63 2855 53.4322
154.747 2978 54.5711
154.864 2857 53.4509
154.981 2892 53.7773
155.098 2927 54.1018
155.215 2893 53.7866
155.332 2891 53.768
155.449 3006 54.827
155.566 2851 53.3948
155.683 2862 53.4977
155.8 2831 53.2071
155.917 2687 51.8363
156.033 2710 52.0577
156.15 0 1
156.267 0 1
156.383 0 1
156.5 0 1
156.617 0 1
156.733 0 1
156.85 0 1
156.966 0 1
157.082 0 1
157.199 0 1
157.315 0 1
157.431 0 1
157.547 0 1
157.664 0 1
157.78 0 1
157.896 0 1
158.012 0 1
158.128 0 1
158.244 0 1
158.359 0 1
158.475 0 1
158.591 0 1
158.706 0 1
