
6.15755 0 1
6.2731 0 1
6.3887 0 1
6.50437 0 1
6.62009 0 1
6.73587 0 1
6.8517 0 1
6.96759 0 1
7.08353 0 1
7.19952 0 1
7.31557 0 1
7.43166 0 1
7.54781 0 1
7.664 0 1
7.78024 0 1
7.89653 0 1
8.01286 0 1
8.12924 0 1
8.24567 0 1
8.36213 0 1
8.47864 0 1
8.59519 0 1
8.71178 0 1
8.82841 0 1
8.94508 0 1
9.06179 0 1
9.17853 0 1
9.29531 0 1
9.41212 0 1
9.52897 0 1
9.64584 0 1
9.76276 0 1
9.8797 0 1
9.99667 0 1
10.1137 0 1
10.2307 0 1
10.3478 0 1
10.4648 0 1
10.5819 0 1
10.6991 0 1
10.8162 0 1
10.9334 0 1
11.0506 0 1
11.1678 0 1
11.285 0 1
11.4023 0 1
11.5196 0 1
11.6369 0 1
11.7542 0 1
11.8715 0 1
11.9888 0 1
12.1062 0 1
12.2235 0 1
12.3409 0 1
12.4582 0 1
12.5756 0 1
12.693 0 1
12.8104 0 1
12.9278 0 1
13.0452 0 1
13.1626 0 1
13.28 0 1
13.3974 0 1
13.5149 0 1
13.6323 0 1
13.7497 0 1
13.8671 0 1
13.9845 0 1
14.1019 0 1
14.2193 0 1
14.3367 0 1
14.4541 0 1
14.5714 0 1
14.6888 0 1
14.8062 0 1
14.9235 0 1
15.0408 0 0
15.1581 0 0
15.2755 0 0
15.3927 0 0
15.51 0 0
15.6273 0 0
15.7445 0 0
15.8617 0 0
15.9789 0 0
16.0961 0 0
16.2132 0 0
16.3304 0 0
16.4475 0 0
16.5646 0 0
16.6816 0 0
16.7986 0 0
16.9156 0 0
17.0326 0 0
17.1496 0 0
17.2665 0 0
17.3833 0 0
17.5002 0 0
17.617 0 0
17.7338 0 0
17.8505 0 0
17.9672 0 0
18.0839 0 0
18.2005 0 0
18.3171 0 0
18.4337 0 0
18.5502 0 0
18.6666 0 0
18.7831 0 0
18.8994 0 0
19.0158 0 0
19.1321 0 0
19.2483 0 0
19.3645 0 0
19.4806 0 0
19.5967 0 0
19.7128 0 0
19.8288 0 0
19.9447 0 0
20.0606 0 1
20.1764 0 1
20.2922 0 1
20.4079 0 1
20.5236 0 1
20.6392 0 1
20.7548 0 1
20.8702 0 1
23.3078 0 1
23.4233 0 1
23.539 0 1
23.6547 0 1
23.7704 0 1
23.8862 0 1
24.0021 0 1
24.118 0 1
24.234 0 1
24.35 0 1
24.4661 1122 33.4963
24.5822 1134 33.6749
24.6984 1118 33.4365
24.8146 1177 34.3074
24.9309 1169 34.1906
25.0472 1206 34.7275
25.1636 1128 33.5857
25.28 1207 34.7419
25.3965 1258 35.4683
25.513 1212 34.8138
25.6296 1322 36.3593
25.7462 1364 36.9324
25.8628 1310 36.1939
25.9795 1383 37.1887
26.0962 1276 35.7211
26.213 1372 37.0405
26.3298 1408 37.5233
26.4466 1406 37.4967
26.5635 1368 36.9865
26.6804 1281 35.7911
26.7973 1280 35.7771
26.9143 1210 34.7851
27.0313 1222 34.9571
27.1483 1329 36.4555
27.2653 1387 37.2424
27.3824 1407 37.51
27.4996 1350 36.7423
27.6167 1408 37.5233
27.7339 1342 36.6333
27.8511 1355 36.8103
27.9683 1299 36.0416
28.0855 1315 36.2629
28.2028 1427 37.7757
28.3201 1398 37.3898
28.4374 1372 37.0405
28.5547 1336 36.5513
28.6721 1287 35.8748
28.7894 1329 36.4555
28.9068 1362 36.9053
29.0242 1377 37.108
29.1416 1374 37.0675
29.259 1495 38.6652
29.3764 1409 37.5366
29.4939 1509 38.8458
29.6113 1563 39.5348
29.7288 1501 38.7427
29.8463 1490 38.6005
29.9638 1518 38.9615
30.0812 1441 37.9605
30.1987 1336 36.5513
30.3162 1260 35.4965
30.4337 1145 33.8378
30.5512 1262 35.5246
30.6687 1288 35.8887
30.7862 1419 37.6696
30.9037 1374 37.0675
31.0212 1313 36.2353
31.1387 1362 36.9053
31.2562 1385 37.2156
31.3737 1305 36.1248
31.4912 1390 37.2827
31.6087 1303 36.0971
31.7262 1315 36.2629
31.8436 1263 35.5387
31.9611 1260 35.4965
32.0785 1235 35.1426
32.1959 1160 34.0588
32.3134 1189 34.4819
32.4308 1231 35.0856
32.5482 1219 34.9142
32.6655 1274 35.6931
32.7829 1311 36.2077
32.9002 1251 35.3695
33.0176 1392 37.3095
33.1349 1278 35.7491
33.2522 1320 36.3318
33.3694 1315 36.2629
33.4867 1294 35.9722
33.6039 1223 34.9714
33.7211 1236 35.1568
33.8383 1283 35.819
33.9554 1214 34.8425
34.0725 1077 32.8177
34.1896 1081 32.8786
34.3067 1163 34.1028
34.4237 1240 35.2136
34.5407 1175 34.2783
34.6577 1211 34.7994
34.7746 1218 34.8999
34.8915 1191 34.5109
35.0084 1130 33.6155
35.1252 1186 34.4384
35.242 1159 34.0441
35.3587 1214 34.8425
35.4755 1118 33.4365
35.5921 1167 34.1614
35.7088 1164 34.1174
35.8254 1094 33.0757
35.9419 1080 32.8634
36.0584 1106 33.2566
36.1749 1198 34.6121
36.2913 1152 33.9411
36.4077 1173 34.2491
36.524 1139 33.7491
36.6403 1216 34.8712
36.7565 1234 35.1283
36.8727 1184 34.4093
36.9889 1223 34.9714
37.1049 1204 34.6987
37.221 0 1
37.3369 0 1
37.4529 0 1
37.5687 0 1
37.6845 0 1
37.8003 0 1
37.916 0 1
38.0316 0 1
38.1472 0 1
40.5851 0 1
40.7008 0 1
40.8164 0 1
40.9322 0 1
41.048 0 1
41.1639 0 1
41.2798 0 1
41.3958 0 1
41.5118 0 1
41.6279 0 1
41.744 975 31.225
41.8602 966 31.0805
41.9765 1079 32.8481
42.0928 1058 32.5269
42.2091 1009 31.7648
42.3255 973 31.1929
42.4419 1080 32.8634
42.5584 1055 32.4808
42.675 955 30.9031
42.7915 971 31.1609
42.9081 880 29.6648
43.0248 876 29.5973
43.1415 937 30.6105
43.2582 983 31.3528
43.375 996 31.5595
43.4918 961 31
43.6087 991 31.4802
43.7256 855 29.2404
43.8425 830 28.8097
43.9595 892 29.8664
44.0765 856 29.2575
44.1935 906 30.0998
44.3106 867 29.4449
44.4277 820 28.6356
44.5448 864 29.3939
44.6619 793 28.1603
44.7791 724 26.9072
44.8963 769 27.7308
45.0136 749 27.3679
45.1308 790 28.1069
45.2481 789 28.0891
45.3654 777 27.8747
45.4827 788 28.0713
45.6001 833 28.8617
45.7174 802 28.3196
45.8348 771 27.7669
45.9522 788 28.0713
46.0697 749 27.3679
46.1871 742 27.2397
46.3046 738 27.1662
46.422 696 26.3818
46.5395 657 25.632
46.657 676 26
46.7745 671 25.9037
46.892 695 26.3629
47.0096 719 26.8142
47.1271 759 27.55
47.2446 714 26.7208
47.3622 729 27
47.4797 678 26.0384
47.5973 664 25.7682
47.7149 661 25.7099
47.8324 721 26.8514
47.95 686 26.1916
48.0675 627 25.04
48.1851 613 24.7588
48.3027 567 23.8118
48.4202 632 25.1396
48.5378 594 24.3721
48.6554 629 25.0799
48.7729 589 24.2693
48.8904 645 25.3969
49.008 677 26.0192
49.1255 652 25.5343
49.243 637 25.2389
49.3605 660 25.6905
49.478 663 25.7488
49.5955 655 25.593
49.713 659 25.671
49.8304 519 22.7816
49.9479 567 23.8118
50.0653 519 22.7816
50.1827 599 24.4745
50.3001 650 25.4951
50.4175 658 25.6515
50.5348 658 25.6515
50.6521 656 25.6125
50.7694 685 26.1725
50.8867 704 26.533
51.004 679 26.0576
51.1212 690 26.2679
51.2384 689 26.2488
51.3556 732 27.0555
51.4727 750 27.3861
51.5899 749 27.3679
51.707 698 26.4197
51.824 749 27.3679
51.9411 774 27.8209
52.0581 800 28.2843
52.175 831 28.8271
52.2919 816 28.5657
52.4088 886 29.7658
52.5257 912 30.1993
52.6425 897 29.95
52.7593 928 30.4631
52.876 892 29.8664
52.9927 934 30.5614
53.1094 994 31.5278
53.226 962 31.0161
53.3426 920 30.3315
53.4591 921 30.348
53.5756 888 29.7993
53.692 808 28.4253
53.8084 857 29.2746
53.9248 904 30.0666
54.0411 962 31.0161
54.1573 1001 31.6386
54.2735 0 1
54.3896 0 1
54.5057 0 1
54.6217 0 1
54.7377 0 1
54.8537 0 1
54.9695 0 1
55.0853 0 1
55.2011 0 1
55.3168 0 1
55.4324 0 1
57.824 0 1
57.9396 0 1
58.0553 0 1
58.1711 0 1
58.2869 0 1
58.4028 0 1
58.5187 0 1
58.6347 0 1
58.7508 0 1
58.8669 0 1
58.983 987 31.4166
59.0992 1016 31.8748
59.2155 1135 33.6898
59.3318 1089 33
59.4482 1114 33.3766
59.5646 1096 33.1059
59.681 1132 33.6452
59.7975 980 31.305
59.9141 1010 31.7805
60.0306 1072 32.7414
60.1473 1033 32.1403
60.2639 1038 32.218
60.3807 997 31.5753
60.4974 1029 32.078
60.6142 1036 32.187
60.731 1034 32.1559
60.8479 1035 32.1714
60.9648 1071 32.7261
61.0818 1034 32.1559
61.1987 1073 32.7567
61.3158 1102 33.1964
61.4328 1063 32.6037
61.5499 1060 32.5576
61.667 1010 31.7805
61.7841 1089 33
61.9013 960 30.9839
62.0185 1002 31.6544
62.1357 935 30.5778
62.253 889 29.8161
62.3702 906 30.0998
62.4875 933 30.545
62.6049 930 30.4959
62.7222 992 31.496
62.8396 1011 31.7962
62.9569 1033 32.1403
63.0743 1001 31.6386
63.1918 999 31.607
63.3092 921 30.348
63.4267 900 30
63.5441 998 31.5911
63.6616 877 29.6142
63.7791 966 31.0805
63.8966 913 30.2159
64.0142 981 31.3209
64.1317 891 29.8496
64.2492 955 30.9031
64.3668 924 30.3974
64.4843 990 31.4643
64.6019 996 31.5595
64.7195 936 30.5941
64.837 945 30.7409
64.9546 946 30.7571
65.0722 945 30.7409
65.1898 940 30.6594
65.3074 957 30.9354
65.4249 937 30.6105
65.5425 959 30.9677
65.6601 836 28.9137
65.7777 819 28.6182
65.8952 848 29.1204
66.0128 874 29.5635
66.1304 941 30.6757
66.2479 890 29.8329
66.3655 966 31.0805
66.483 1063 32.6037
66.6005 992 31.496
66.718 989 31.4484
66.8355 930 30.4959
66.953 907 30.1164
67.0705 890 29.8329
67.1879 888 29.7993
67.3054 899 29.9833
67.4228 879 29.6479
67.5402 879 29.6479
67.6576 872 29.5296
67.7749 893 29.8831
67.8923 892 29.8664
68.0096 972 31.1769
68.1269 918 30.2985
68.2442 910 30.1662
68.3614 962 31.0161
68.4787 972 31.1769
68.5958 1017 31.8904
68.713 943 30.7083
68.8302 1047 32.3574
68.9473 983 31.3528
69.0643 997 31.5753
69.1814 986 31.4006
69.2984 890 29.8329
69.4154 868 29.4618
69.5323 865 29.4109
69.6492 856 29.2575
69.7661 1004 31.686
69.8829 1001 31.6386
69.9997 1073 32.7567
70.1165 1067 32.665
70.2332 1154 33.9706
70.3499 1122 33.4963
70.4665 1053 32.45
70.5831 1012 31.8119
70.6996 920 30.3315
70.8161 928 30.4631
70.9326 895 29.9166
71.049 898 29.9666
71.1653 953 30.8707
71.2817 949 30.8058
71.3979 933 30.545
71.5141 950 30.8221
71.6303 952 30.8545
71.7464 856 29.2575
71.8624 0 1
71.9784 0 1
72.0944 0 1
72.2102 0 1
72.3261 0 1
72.4418 0 1
72.5575 0 1
72.6732 0 1
75.1054 0 1
75.2209 0 1
75.3365 0 1
75.4521 0 1
75.5678 0 1
75.6835 0 1
75.7993 0 1
75.9151 0 1
76.031 0 1
76.147 856 29.2575
76.263 864 29.3939
76.3791 925 30.4138
76.4952 945 30.7409
76.6113 906 30.0998
76.7276 923 30.3809
76.8438 1011 31.7962
76.9601 997 31.5753
77.0765 1031 32.1092
77.1929 1080 32.8634
77.3093 1050 32.4037
77.4258 1057 32.5115
77.5423 1046 32.3419
77.6589 1078 32.8329
77.7755 979 31.289
77.8921 979 31.289
78.0088 1042 32.28
78.1256 949 30.8058
78.2423 932 30.5287
78.3591 878 29.6311
78.4759 878 29.6311
78.5928 758 27.5318
78.7097 939 30.6431
78.8266 945 30.7409
78.9436 1044 32.311
79.0606 1038 32.218
79.1776 1010 31.7805
79.2946 1077 32.8177
79.4117 1063 32.6037
79.5288 1002 31.6544
79.6459 980 31.305
79.7631 892 29.8664
79.8802 870 29.4958
79.9974 800 28.2843
80.1147 895 29.9166
80.2319 889 29.8161
80.3491 945 30.7409
80.4664 851 29.1719
80.5837 922 30.3645
80.701 958 30.9516
80.8183 952 30.8545
80.9357 1012 31.8119
81.053 956 30.9192
81.1704 970 31.1448
81.2877 956 30.9192
81.4051 1033 32.1403
81.5225 903 30.05
81.6399 993 31.5119
81.7573 909 30.1496
81.8747 873 29.5466
81.9922 849 29.1376
82.1096 853 29.2062
82.227 782 27.9643
82.3444 828 28.775
82.4619 869 29.4788
82.5793 928 30.4631
82.6967 947 30.7734
82.8142 970 31.1448
82.9316 936 30.5941
83.049 1045 32.3265
83.1664 936 30.5941
83.2838 899 29.9833
83.4012 876 29.5973
83.5186 736 27.1293
83.636 693 26.3249
83.7534 712 26.6833
83.8708 816 28.5657
83.9881 792 28.1425
84.1055 851 29.1719
84.2228 830 28.8097
84.3401 950 30.8221
84.4575 850 29.1548
84.5747 846 29.0861
84.692 973 31.1929
84.8093 885 29.7489
84.9265 899 29.9833
85.0437 985 31.3847
85.1609 905 30.0832
85.2781 846 29.0861
85.3952 801 28.3019
85.5123 850 29.1548
85.6294 807 28.4077
85.7465 812 28.4956
85.8636 893 29.8831
85.9806 874 29.5635
86.0976 930 30.4959
86.2145 937 30.6105
86.3315 1079 32.8481
86.4484 1024 32
86.5652 1068 32.6803
86.682 1091 33.0303
86.7988 1023 31.9844
86.9156 954 30.8869
87.0323 911 30.1828
87.149 855 29.2404
87.2657 829 28.7924
87.3823 927 30.4467
87.4988 991 31.4802
87.6154 1025 32.0156
87.7318 1094 33.0757
87.8483 1105 33.2415
87.9647 1009 31.7648
88.081 1096 33.1059
88.1973 1147 33.8674
88.3136 1125 33.541
88.4298 1034 32.1559
88.546 1076 32.8024
88.6621 1120 33.4664
88.7781 1070 32.7109
88.8942 0 1
89.0101 0 1
89.126 0 1
89.2419 0 1
89.3577 0 1
89.4734 0 1
89.5891 0 1
89.7047 0 1
89.8203 0 1
89.9358 0 1
92.3269 0 1
92.4424 0 1
92.558 0 1
92.6736 0 1
92.7893 0 1
92.905 0 1
93.0208 0 1
93.1366 0 1
93.2525 0 1
93.3685 0 1
93.4845 0 1
93.6005 1099 33.1512
93.7167 1084 32.9242
93.8328 1092 33.0454
93.949 1107 33.2716
94.0653 1115 33.3916
94.1816 1094 33.0757
94.2979 1053 32.45
94.4143 1060 32.5576
94.5307 951 30.8383
94.6472 994 31.5278
94.7637 921 30.348
94.8803 955 30.9031
94.9969 1023 31.9844
95.1135 1071 32.7261
95.2302 1098 33.1361
95.3469 1151 33.9264
95.4637 1101 33.1813
95.5805 1146 33.8526
95.6973 1167 34.1614
95.8142 1188 34.4674
95.9311 1193 34.5398
96.048 1138 33.7343
96.1649 1060 32.5576
96.2819 986 31.4006
96.3989 907 30.1164
96.516 865 29.4109
96.633 885 29.7489
96.7501 1027 32.0468
96.8673 1133 33.6601
96.9844 1124 33.5261
97.1016 1161 34.0735
97.2188 1179 34.3366
97.336 1202 34.6699
97.4532 1111 33.3317
97.5704 1181 34.3657
97.6877 1110 33.3167
97.805 1101 33.1813
97.9223 1082 32.8938
98.0396 1029 32.078
98.1569 963 31.0322
98.2743 948 30.7896
98.3916 992 31.496
98.509 987 31.4166
98.6264 1002 31.6544
98.7438 1031 32.1092
98.8612 1136 33.7046
98.9786 1113 33.3617
99.096 1172 34.2345
99.2134 1170 34.2053
99.3308 1171 34.2199
99.4482 1160 34.0588
99.5656 1195 34.5688
99.6831 1162 34.0881
99.8005 1115 33.3916
99.9179 951 30.8383
100.035 900 30
100.153 910 30.1662
100.27 967 31.0966
100.388 1111 33.3317
100.505 1108 33.2866
100.622 1149 33.8969
100.74 1132 33.6452
100.857 1121 33.4813
100.975 1144 33.8231
101.092 1178 34.322
101.209 1199 34.6266
101.327 1099 33.1512
101.444 1084 32.9242
101.561 1116 33.4066
101.679 1010 31.7805
101.796 953 30.8707
101.913 960 30.9839
102.03 964 31.0483
102.148 1088 32.9848
102.265 1055 32.4808
102.382 1190 34.4964
102.499 1136 33.7046
102.616 1180 34.3511
102.733 1237 35.171
102.851 1195 34.5688
102.968 1245 35.2846
103.085 1216 34.8712
103.202 1208 34.7563
103.319 1113 33.3617
103.436 1079 32.8481
103.552 896 29.9333
103.669 935 30.5778
103.786 1041 32.2645
103.903 1076 32.8024
104.02 1155 33.9853
104.137 1206 34.7275
104.253 1215 34.8569
104.37 1209 34.7707
104.487 1302 36.0832
104.603 1249 35.3412
104.72 1185 34.4238
104.836 1166 34.1467
104.953 1190 34.4964
105.069 1075 32.7872
105.186 1065 32.6343
105.302 1039 32.2335
105.418 1054 32.4654
105.535 1033 32.1403
105.651 1167 34.1614
105.767 1290 35.9166
105.883 1205 34.7131
105.999 1283 35.819
106.115 0 1
106.231 0 1
106.347 0 1
106.463 0 1
106.579 0 1
106.694 0 1
106.81 0 1
106.926 0 1
107.041 0 1
107.157 0 1
109.576 0 1
109.692 0 1
109.807 0 1
109.923 0 1
110.039 0 1
110.155 0 1
110.27 0 1
110.386 0 1
110.502 0 1
110.618 1027 32.0468
110.735 1136 33.7046
110.851 1129 33.6006
110.967 1231 35.0856
111.083 1260 35.4965
111.199 1241 35.2278
111.316 1296 36
111.432 1211 34.7994
111.549 1268 35.609
111.665 1280 35.7771
111.782 1185 34.4238
111.898 1137 33.7194
112.015 1107 33.2716
112.132 931 30.5123
112.248 900 30
112.365 1025 32.0156
112.482 1109 33.3017
112.599 1198 34.6121
112.716 1173 34.2491
112.832 1164 34.1174
112.949 1197 34.5977
113.066 1196 34.5832
113.183 1153 33.9559
113.3 1115 33.3916
113.417 1056 32.4962
113.534 1097 33.121
113.652 986 31.4006
113.769 951 30.8383
113.886 908 30.133
114.003 974 31.209
114.12 1020 31.9374
114.238 1089 33
114.355 1244 35.2704
114.472 1201 34.6554
114.589 1116 33.4066
114.707 1198 34.6121
114.824 1140 33.7639
114.942 1222 34.9571
115.059 1212 34.8138
115.176 1198 34.6121
115.294 1185 34.4238
115.411 1156 34
115.529 1041 32.2645
115.646 1024 32
115.764 877 29.6142
115.881 932 30.5287
115.999 1067 32.665
116.116 1109 33.3017
116.234 1122 33.4963
116.351 1154 33.9706
116.469 1150 33.9116
116.586 1181 34.3657
116.704 1173 34.2491
116.821 1189 34.4819
116.939 1115 33.3916
117.056 1129 33.6006
117.174 998 31.5911
117.291 1022 31.9687
117.409 911 30.1828
117.526 948 30.7896
117.644 1020 31.9374
117.761 1072 32.7414
117.879 1185 34.4238
117.996 1171 34.2199
118.114 1210 34.7851
118.231 1146 33.8526
118.349 1207 34.7419
118.466 1173 34.2491
118.584 1254 35.4119
118.701 1256 35.4401
118.819 1207 34.7419
118.936 1150 33.9116
119.053 1124 33.5261
119.171 1098 33.1361
119.288 913 30.2159
119.405 887 29.7825
119.523 940 30.6594
119.64 1001 31.6386
119.757 1131 33.6303
119.875 1141 33.7787
119.992 1100 33.1662
120.109 1105 33.2415
120.226 1187 34.4529
120.343 1127 33.5708
120.46 1125 33.541
120.578 1124 33.5261
120.695 1051 32.4191
120.812 1057 32.5115
120.929 999 31.607
121.046 961 31
121.163 959 30.9677
121.279 991 31.4802
121.396 1074 32.7719
121.513 1072 32.7414
121.63 1181 34.3657
121.747 1175 34.2783
121.863 1201 34.6554
121.98 1120 33.4664
122.097 1175 34.2783
122.213 1143 33.8083
122.33 1196 34.5832
122.446 1190 34.4964
122.563 1205 34.7131
122.679 1125 33.541
122.795 1048 32.3728
122.912 1041 32.2645
123.028 907 30.1164
123.144 833 28.8617
123.26 882 29.6985
123.377 0 1
123.493 0 1
123.609 0 1
123.725 0 1
123.84 0 1
123.956 0 1
124.072 0 1
124.188 0 1
124.303 0 1
124.419 0 1
126.852 0 1
126.968 0 1
127.083 0 1
127.199 0 1
127.315 0 1
127.431 0 1
127.547 0 1
127.663 0 1
127.779 0 1
127.895 0 1
128.011 0 1
128.127 0 1
128.243 0 1
128.359 949 30.8058
128.476 902 30.0333
128.592 978 31.273
128.708 1167 34.1614
128.825 1186 34.4384
128.941 1229 35.0571
129.058 1192 34.5254
129.174 1255 35.426
129.291 1209 34.7707
129.408 1206 34.7275
129.524 1167 34.1614
129.641 1143 33.8083
129.758 1144 33.8231
129.875 1038 32.218
129.992 1014 31.8434
130.108 921 30.348
130.225 1022 31.9687
130.342 1024 32
130.459 1149 33.8969
130.576 1231 35.0856
130.693 1262 35.5246
130.81 1243 35.2562
130.928 1287 35.8748
131.045 1257 35.4542
131.162 1277 35.7351
131.279 1242 35.242
131.396 1242 35.242
131.513 1204 34.6987
131.631 1220 34.9285
131.748 1107 33.2716
131.865 977 31.257
131.983 1020 31.9374
132.1 1063 32.6037
132.217 1162 34.0881
132.335 1189 34.4819
132.452 1211 34.7994
132.57 1214 34.8425
132.687 1155 33.9853
132.804 1233 35.1141
132.922 1264 35.5528
133.039 1182 34.3802
133.157 1198 34.6121
133.274 1131 33.6303
133.392 1095 33.0908
133.509 1066 32.6497
133.627 1059 32.5423
133.744 1028 32.0624
133.862 1071 32.7261
133.979 1120 33.4664
134.097 1206 34.7275
134.214 1218 34.8999
134.332 1243 35.2562
134.449 1279 35.7631
134.567 1200 34.641
134.684 1277 35.7351
134.802 1291 35.9305
134.919 1290 35.9166
135.037 1257 35.4542
135.154 1269 35.623
135.272 1165 34.1321
135.389 1012 31.8119
135.507 968 31.1127
135.624 966 31.0805
135.742 1061 32.573
135.859 1177 34.3074
135.977 1181 34.3657
136.094 1229 35.0571
136.211 1195 34.5688
136.329 1185 34.4238
136.446 1179 34.3366
136.564 1161 34.0735
136.681 1213 34.8281
136.798 1153 33.9559
136.915 1100 33.1662
137.033 1118 33.4365
137.15 1050 32.4037
137.267 1020 31.9374
137.384 1054 32.4654
137.502 1086 32.9545
137.619 1198 34.6121
137.736 1244 35.2704
137.853 1241 35.2278
137.97 1227 35.0286
138.087 1272 35.6651
138.204 1244 35.2704
138.321 1194 34.5543
138.438 1270 35.6371
138.555 1281 35.7911
138.672 1269 35.623
138.788 1275 35.7071
138.905 1177 34.3074
139.022 1089 33
139.139 1003 31.6702
139.255 924 30.3974
139.372 1106 33.2566
139.488 1185 34.4238
139.605 1241 35.2278
139.721 1271 35.6511
139.838 1227 35.0286
139.954 1256 35.4401
140.071 1231 35.0856
140.187 1287 35.8748
140.303 1224 34.9857
140.419 1193 34.5398
140.535 1156 34
140.652 1094 33.0757
140.768 0 1
140.884 0 1
141 0 1
141.115 0 1
141.231 0 1
141.347 0 1
141.463 0 1
141.578 0 1
141.694 0 1
144.104 0 1
144.219 0 1
144.335 0 1
144.45 0 1
144.566 0 1
144.682 0 1
144.798 0 1
144.914 0 1
145.03 0 1
145.146 893 29.8831
145.262 886 29.7658
145.378 977 31.257
145.494 927 30.4467
145.61 916 30.2655
145.726 915 30.249
145.842 882 29.6985
145.959 811 28.4781
146.075 787 28.0535
146.192 835 28.8964
146.308 807 28.4077
146.425 853 29.2062
146.541 902 30.0333
146.658 966 31.0805
146.774 983 31.3528
146.891 975 31.225
147.008 1016 31.8748
147.125 943 30.7083
147.241 985 31.3847
147.358 929 30.4795
147.475 1045 32.3265
147.592 1007 31.7333
147.709 963 31.0322
147.826 872 29.5296
147.943 830 28.8097
148.06 806 28.3901
148.177 744 27.2764
148.294 835 28.8964
148.411 882 29.6985
148.528 937 30.6105
148.645 971 31.1609
148.762 980 31.305
148.88 934 30.5614
148.997 930 30.4959
149.114 1042 32.28
149.231 1006 31.7175
149.349 1005 31.7017
149.466 968 31.1127
149.583 908 30.133
149.701 869 29.4788
149.818 801 28.3019
149.935 852 29.189
150.053 899 29.9833
150.17 897 29.95
150.287 862 29.3598
150.405 924 30.3974
150.522 953 30.8707
150.64 968 31.1127
150.757 998 31.5911
150.875 1002 31.6544
150.992 1002 31.6544
151.11 1040 32.249
151.227 1003 31.6702
151.344 996 31.5595
151.462 931 30.5123
151.579 924 30.3974
151.697 833 28.8617
151.814 791 28.1247
151.932 881 29.6816
152.049 876 29.5973
152.167 909 30.1496
152.284 1006 31.7175
152.402 1022 31.9687
152.519 1007 31.7333
152.636 965 31.0644
152.754 1002 31.6544
152.871 1007 31.7333
152.989 986 31.4006
153.106 944 30.7246
153.223 900 30
153.341 862 29.3598
153.458 793 28.1603
153.575 873 29.5466
153.693 851 29.1719
153.81 906 30.0998
153.927 983 31.3528
154.044 994 31.5278
154.162 1059 32.5423
154.279 1028 32.0624
154.396 1010 31.7805
154.513 1122 33.4963
154.63 1046 32.3419
154.747 1052 32.4345
154.864 1047 32.3574
154.981 1050 32.4037
155.098 946 30.7571
155.215 937 30.6105
155.332 1029 32.078
155.449 953 30.8707
155.566 1005 31.7017
155.683 1057 32.5115
155.8 1124 33.5261
155.917 1030 32.0936
156.033 1122 33.4963
156.15 0 1
156.267 0 1
156.383 0 1
156.5 0 1
156.617 0 1
156.733 0 1
156.85 0 1
156.966 0 1
157.082 0 1
157.199 0 1
157.315 0 1
157.431 0 1
157.547 0 1
157.664 0 1
157.78 0 1
157.896 0 1
158.012 0 1
158.128 0 1
158.244 0 1
158.359 0 1
158.475 0 1
158.591 0 1
158.706 0 1
