
6.15755 0 1
6.2731 0 1
6.3887 0 1
6.50437 0 1
6.62009 0 1
6.73587 0 1
6.8517 0 1
6.96759 0 1
7.08353 0 1
7.19952 0 1
7.31557 0 1
7.43166 0 1
7.54781 0 1
7.664 0 1
7.78024 0 1
7.89653 0 1
8.01286 0 1
8.12924 0 1
8.24567 0 1
8.36213 0 1
8.47864 0 1
8.59519 0 1
8.71178 0 1
8.82841 0 1
8.94508 0 1
9.06179 0 1
9.17853 0 1
9.29531 0 1
9.41212 0 1
9.52897 0 1
9.64584 0 1
9.76276 0 1
9.8797 0 1
9.99667 0 1
10.1137 0 1
10.2307 0 1
10.3478 0 1
10.4648 0 1
10.5819 0 1
10.6991 0 1
10.8162 0 1
10.9334 0 1
11.0506 0 1
11.1678 0 1
11.285 0 1
11.4023 0 1
11.5196 0 1
11.6369 0 1
11.7542 0 1
11.8715 0 1
11.9888 0 1
12.1062 0 1
12.2235 0 1
12.3409 0 1
12.4582 0 1
12.5756 0 1
12.693 0 1
12.8104 0 1
12.9278 0 1
13.0452 0 1
13.1626 0 1
13.28 0 1
13.3974 0 1
13.5149 0 1
13.6323 0 1
13.7497 0 1
13.8671 0 1
13.9845 0 1
14.1019 0 1
14.2193 0 1
14.3367 0 1
14.4541 0 1
14.5714 0 1
14.6888 0 1
14.8062 0 1
14.9235 0 1
15.0408 0 0
15.1581 0 0
15.2755 0 0
15.3927 0 0
15.51 0 0
15.6273 0 0
15.7445 0 0
15.8617 0 0
15.9789 0 0
16.0961 0 0
16.2132 0 0
16.3304 0 0
16.4475 0 0
16.5646 0 0
16.6816 0 0
16.7986 0 0
16.9156 0 0
17.0326 0 0
17.1496 0 0
17.2665 0 0
17.3833 0 0
17.5002 0 0
17.617 0 0
17.7338 0 0
17.8505 0 0
17.9672 0 0
18.0839 0 0
18.2005 0 0
18.3171 0 0
18.4337 0 0
18.5502 0 0
18.6666 0 0
18.7831 0 0
18.8994 0 0
19.0158 0 0
19.1321 0 0
19.2483 0 0
19.3645 0 0
19.4806 0 0
19.5967 0 0
19.7128 0 0
19.8288 0 0
19.9447 0 0
20.0606 0 1
20.1764 0 1
20.2922 0 1
20.4079 0 1
20.5236 0 1
20.6392 0 1
20.7548 0 1
20.8702 0 1
23.3078 0 1
23.4233 0 1
23.539 0 1
23.6547 0 1
23.7704 0 1
23.8862 0 1
24.0021 0 1
24.118 0 1
24.234 0 1
24.35 0 1
24.4661 4695 68.5201
24.5822 5324 72.9657
24.6984 5748 75.8156
24.8146 6182 78.6257
24.9309 6674 81.6946
25.0472 7139 84.4926
25.1636 7560 86.9483
25.28 8044 89.6883
25.3965 8421 91.766
25.513 8989 94.8103
25.6296 9331 96.5971
25.7462 9541 97.678
25.8628 9626 98.1122
25.9795 9576 97.857
26.0962 9710 98.5393
26.213 9734 98.661
26.3298 9555 97.7497
26.4466 9103 95.4096
26.5635 8962 94.6678
26.6804 8533 92.3742
26.7973 8494 92.1629
26.9143 8559 92.5149
27.0313 8948 94.5939
27.1483 8925 94.4722
27.2653 9418 97.0464
27.3824 9446 97.1905
27.4996 9368 96.7884
27.6167 9230 96.0729
27.7339 8964 94.6784
27.8511 8791 93.7603
27.9683 8642 92.9624
28.0855 8574 92.5959
28.2028 8475 92.0598
28.3201 7984 89.3532
28.4374 8152 90.2884
28.5547 7974 89.2973
28.6721 8073 89.8499
28.7894 8418 91.7497
28.9068 8652 93.0161
29.0242 9027 95.0105
29.1416 9265 96.2549
29.259 9581 97.8826
29.3764 9597 97.9643
29.4939 9600 97.9796
29.6113 9674 98.3565
29.7288 9762 98.8028
29.8463 9586 97.9081
29.9638 9323 96.5557
30.0812 8756 93.5735
30.1987 8399 91.6461
30.3162 8297 91.0879
30.4337 8263 90.901
30.5512 8609 92.7847
30.6687 8734 93.4559
30.7862 8820 93.9149
30.9037 9014 94.9421
31.0212 9143 95.619
31.1387 8990 94.8156
31.2562 9190 95.8645
31.3737 9122 95.5092
31.4912 8935 94.5251
31.6087 8591 92.6876
31.7262 8358 91.4221
31.8436 8309 91.1537
31.9611 8254 90.8515
32.0785 7999 89.4371
32.1959 7900 88.8819
32.3134 8121 90.1166
32.4308 8480 92.0869
32.5482 8499 92.19
32.6655 8930 94.4987
32.7829 9144 95.6243
32.9002 9264 96.2497
33.0176 9345 96.6695
33.1349 9452 97.2214
33.2522 9616 98.0612
33.3694 9440 97.1597
33.4867 9298 96.4261
33.6039 9172 95.7706
33.7211 8929 94.4934
33.8383 8510 92.2497
33.9554 8204 90.5759
34.0725 7734 87.9432
34.1896 7975 89.3029
34.3067 8212 90.6201
34.4237 8370 91.4877
34.5407 8622 92.8547
34.6577 8954 94.6256
34.7746 9038 95.0684
34.8915 8971 94.7154
35.0084 8722 93.3916
35.1252 8565 92.5473
35.242 8513 92.2659
35.3587 8254 90.8515
35.4755 8142 90.233
35.5921 7919 88.9888
35.7088 7964 89.2412
35.8254 7652 87.4757
35.9419 7570 87.0057
36.0584 7566 86.9828
36.1749 7601 87.1837
36.2913 7323 85.5745
36.4077 7408 86.0697
36.524 7404 86.0465
36.6403 7356 85.7671
36.7565 7021 83.7914
36.8727 6858 82.813
36.9889 6474 80.4612
37.1049 5973 77.2852
37.221 0 1
37.3369 0 1
37.4529 0 1
37.5687 0 1
37.6845 0 1
37.8003 0 1
37.916 0 1
38.0316 0 1
38.1472 0 1
40.5851 0 1
40.7008 0 1
40.8164 0 1
40.9322 0 1
41.048 0 1
41.1639 0 1
41.2798 0 1
41.3958 0 1
41.5118 0 1
41.6279 0 1
41.744 5160 71.8331
41.8602 5839 76.4133
41.9765 6024 77.6144
42.0928 6365 79.781
42.2091 6608 81.2896
42.3255 6714 81.939
42.4419 6512 80.697
42.5584 6501 80.6288
42.675 6328 79.5487
42.7915 6488 80.5481
42.9081 6837 82.6862
43.0248 7028 83.8332
43.1415 7230 85.0294
43.2582 7530 86.7756
43.375 7892 88.8369
43.4918 7710 87.8066
43.6087 7616 87.2697
43.7256 7691 87.6983
43.8425 7519 86.7122
43.9595 7334 85.6388
44.0765 7174 84.6995
44.1935 7080 84.1427
44.3106 6872 82.8975
44.4277 6679 81.7251
44.5448 6497 80.604
44.6619 6776 82.3165
44.7791 6761 82.2253
44.8963 7089 84.1962
45.0136 7468 86.4176
45.1308 7609 87.2296
45.2481 7804 88.3403
45.3654 8062 89.7886
45.4827 7926 89.0281
45.6001 7956 89.1964
45.7174 7943 89.1235
45.8348 7966 89.2525
45.9522 7941 89.1123
46.0697 7453 86.3308
46.1871 6996 83.6421
46.3046 6632 81.4371
46.422 6401 80.0062
46.5395 6896 83.0422
46.657 7098 84.2496
46.7745 7370 85.8487
46.892 7687 87.6755
47.0096 7870 88.713
47.1271 8061 89.7831
47.2446 7938 89.0955
47.3622 7756 88.0682
47.4797 7772 88.1589
47.5973 7656 87.4986
47.7149 7513 86.6776
47.8324 7336 85.6505
47.95 7153 84.5754
48.0675 6905 83.0963
48.1851 6820 82.5833
48.3027 6659 81.6027
48.4202 6728 82.0244
48.5378 7087 84.1843
48.6554 7399 86.0174
48.7729 7768 88.1363
48.8904 7911 88.9438
49.008 7918 88.9831
49.1255 8098 89.9889
49.243 8151 90.2829
49.3605 7969 89.2693
49.478 7666 87.5557
49.5955 7521 86.7237
49.713 6986 83.5823
49.8304 6496 80.5978
49.9479 6117 78.2113
50.0653 6315 79.467
50.1827 6496 80.5978
50.3001 6888 82.994
50.4175 7415 86.1104
50.5348 7604 87.2009
50.6521 7512 86.6718
50.7694 7821 88.4364
50.8867 7630 87.3499
51.004 7581 87.0689
51.1212 7490 86.5448
51.2384 7418 86.1278
51.3556 7179 84.729
51.4727 7090 84.2021
51.5899 6938 83.2947
51.707 6607 81.2835
51.824 6501 80.6288
51.9411 6748 82.1462
52.0581 6762 82.2314
52.175 7240 85.0882
52.2919 7522 86.7295
52.4088 7746 88.0114
52.5257 7951 89.1684
52.6425 8008 89.4874
52.7593 7955 89.1908
52.876 7835 88.5155
52.9927 7830 88.4873
53.1094 7690 87.6926
53.226 7239 85.0823
53.3426 6614 81.3265
53.4591 6158 78.4729
53.5756 5663 75.2529
53.692 5201 72.118
53.8084 5187 72.0208
53.9248 5090 71.3442
54.0411 4847 69.6204
54.1573 4802 69.2965
54.2735 0 1
54.3896 0 1
54.5057 0 1
54.6217 0 1
54.7377 0 1
54.8537 0 1
54.9695 0 1
55.0853 0 1
55.2011 0 1
55.3168 0 1
55.4324 0 1
57.824 0 1
57.9396 0 1
58.0553 0 1
58.1711 0 1
58.2869 0 1
58.4028 0 1
58.5187 0 1
58.6347 0 1
58.7508 0 1
58.8669 0 1
58.983 6187 78.6575
59.0992 6890 83.006
59.2155 7421 86.1452
59.3318 8096 89.9778
59.4482 8257 90.868
59.5646 8486 92.1195
59.681 8509 92.2442
59.7975 8698 93.2631
59.9141 8574 92.5959
60.0306 8512 92.2605
60.1473 8428 91.8041
60.2639 8075 89.861
60.3807 8190 90.4986
60.4974 8302 91.1153
60.6142 8412 91.717
60.731 8788 93.7443
60.8479 9293 96.4002
60.9648 9289 96.3795
61.0818 9488 97.4064
61.1987 9596 97.9592
61.3158 9653 98.2497
61.4328 9386 96.8814
61.5499 9283 96.3483
61.667 8817 93.8989
61.7841 8455 91.9511
61.9013 7781 88.21
62.0185 7620 87.2926
62.1357 7539 86.8274
62.253 8146 90.2552
62.3702 8290 91.0494
62.4875 8850 94.0744
62.6049 9099 95.3887
62.7222 9419 97.0515
62.8396 9368 96.7884
62.9569 9305 96.4624
63.0743 9511 97.5244
63.1918 9249 96.1717
63.3092 9173 95.7758
63.4267 8885 94.2603
63.5441 8821 93.9202
63.6616 8394 91.6188
63.7791 8123 90.1277
63.8966 7913 88.955
64.0142 7927 89.0337
64.1317 8153 90.294
64.2492 8491 92.1466
64.3668 8878 94.2231
64.4843 9143 95.619
64.6019 9390 96.902
64.7195 9662 98.2955
64.837 9501 97.4731
64.9546 9433 97.1236
65.0722 9490 97.4166
65.1898 9085 95.3153
65.3074 8815 93.8882
65.4249 8093 89.9611
65.5425 7457 86.3539
65.6601 7167 84.6581
65.7777 7199 84.8469
65.8952 7557 86.931
66.0128 7836 88.5212
66.1304 8495 92.1683
66.2479 8867 94.1647
66.3655 8887 94.2709
66.483 8966 94.689
66.6005 9150 95.6556
66.718 9109 95.4411
66.8355 9014 94.9421
66.953 8939 94.5463
67.0705 8744 93.5094
67.1879 8834 93.9894
67.3054 8311 91.1647
67.4228 7921 89
67.5402 7794 88.2836
67.6576 7586 87.0976
67.7749 7571 87.0115
67.8923 7824 88.4534
68.0096 8191 90.5041
68.1269 8621 92.8493
68.2442 8689 93.2148
68.3614 9047 95.1157
68.4787 9080 95.289
68.5958 9005 94.8947
68.713 9157 95.6922
68.8302 9021 94.9789
68.9473 8670 93.1128
69.0643 8337 91.3072
69.1814 7608 87.2238
69.2984 6915 83.1565
69.4154 6995 83.6361
69.5323 7053 83.9821
69.6492 7360 85.7904
69.7661 7682 87.647
69.8829 7925 89.0225
69.9997 7896 88.8594
70.1165 7752 88.0454
70.2332 7584 87.0862
70.3499 7339 85.668
70.4665 6953 83.3847
70.5831 6554 80.9568
70.6996 6315 79.467
70.8161 5964 77.2269
70.9326 5616 74.94
71.049 5072 71.218
71.1653 4431 66.5658
71.2817 3884 62.3217
71.3979 3505 59.203
71.5141 3191 56.4889
71.6303 2963 54.4334
71.7464 2854 53.4228
71.8624 0 1
71.9784 0 1
72.0944 0 1
72.2102 0 1
72.3261 0 1
72.4418 0 1
72.5575 0 1
72.6732 0 1
75.1054 0 1
75.2209 0 1
75.3365 0 1
75.4521 0 1
75.5678 0 1
75.6835 0 1
75.7993 0 1
75.9151 0 1
76.031 0 1
76.147 6065 77.8781
76.263 6440 80.2496
76.3791 6639 81.4801
76.4952 6488 80.5481
76.6113 6795 82.4318
76.7276 6974 83.5105
76.8438 7581 87.0689
76.9601 7838 88.5325
77.0765 8138 90.2109
77.1929 8476 92.0652
77.3093 8566 92.5527
77.4258 8591 92.6876
77.5423 8566 92.5527
77.6589 8413 91.7224
77.7755 8116 90.0888
77.8921 7599 87.1722
78.0088 7092 84.214
78.1256 6661 81.6149
78.2423 6089 78.032
78.3591 6168 78.5366
78.4759 6644 81.5107
78.5928 7035 83.8749
78.7097 7562 86.9598
78.8266 7695 87.7211
78.9436 7915 88.9663
79.0606 8275 90.967
79.1776 8401 91.657
79.2946 8589 92.6769
79.4117 8361 91.4385
79.5288 8453 91.9402
79.6459 8386 91.5751
79.7631 8321 91.2195
79.8802 7928 89.0393
79.9974 7763 88.1079
80.1147 7480 86.487
80.2319 7119 84.3742
80.3491 7173 84.6936
80.4664 7515 86.6891
80.5837 7970 89.2749
80.701 8315 91.1866
80.8183 8746 93.5201
80.9357 8835 93.9947
81.053 8819 93.9095
81.1704 8922 94.4563
81.2877 8825 93.9415
81.4051 8846 94.0532
81.5225 8674 93.1343
81.6399 7875 88.7412
81.7573 7429 86.1916
81.8747 6878 82.9337
81.9922 6444 80.2745
82.1096 6516 80.7217
82.227 6820 82.5833
82.3444 7412 86.093
82.4619 7873 88.7299
82.5793 8305 91.1318
82.6967 8503 92.2117
82.8142 8502 92.2063
82.9316 8649 93
83.049 8926 94.4775
83.1664 8665 93.086
83.2838 8784 93.723
83.4012 8466 92.0109
83.5186 8335 91.2962
83.636 8380 91.5423
83.7534 7976 89.3085
83.8708 7507 86.6429
83.9881 7364 85.8138
84.1055 7478 86.4754
84.2228 7747 88.017
84.3401 8113 90.0722
84.4575 8484 92.1086
84.5747 8864 94.1488
84.692 8891 94.2921
84.8093 9137 95.5877
84.9265 9138 95.5929
85.0437 8978 94.7523
85.1609 8669 93.1075
85.2781 8068 89.822
85.3952 7373 85.8662
85.5123 6964 83.4506
85.6294 6520 80.7465
85.7465 6654 81.5721
85.8636 6948 83.3547
85.9806 7448 86.3018
86.0976 7734 87.9432
86.2145 8197 90.5373
86.3315 8198 90.5428
86.4484 9010 94.921
86.5652 8881 94.2391
86.682 8723 93.397
86.7988 8775 93.675
86.9156 8723 93.397
87.0323 8853 94.0904
87.149 8413 91.7224
87.2657 7938 89.0955
87.3823 7057 84.006
87.4988 6389 79.9312
87.6154 6021 77.5951
87.7318 5922 76.9545
87.8483 5973 77.2852
87.9647 6105 78.1345
88.081 6260 79.1202
88.1973 6336 79.599
88.3136 6001 77.4661
88.4298 5636 75.0733
88.546 5166 71.8749
88.6621 4811 69.3614
88.7781 4120 64.1872
88.8942 0 1
89.0101 0 1
89.126 0 1
89.2419 0 1
89.3577 0 1
89.4734 0 1
89.5891 0 1
89.7047 0 1
89.8203 0 1
89.9358 0 1
92.3269 0 1
92.4424 0 1
92.558 0 1
92.6736 0 1
92.7893 0 1
92.905 0 1
93.0208 0 1
93.1366 0 1
93.2525 0 1
93.3685 0 1
93.4845 0 1
93.6005 8594 92.7038
93.7167 8916 94.4246
93.8328 8858 94.1169
93.949 8610 92.7901
94.0653 8021 89.56
94.1816 7667 87.5614
94.2979 7329 85.6096
94.4143 7315 85.5278
94.5307 7576 87.0402
94.6472 8127 90.1499
94.7637 8554 92.4878
94.8803 8921 94.451
94.9969 9327 96.5764
95.1135 9364 96.7678
95.2302 9722 98.6002
95.3469 9691 98.4429
95.4637 9728 98.6306
95.5805 9623 98.0969
95.6973 9215 95.9948
95.8142 9242 96.1353
95.9311 8895 94.3133
96.048 8658 93.0484
96.1649 8380 91.5423
96.2819 8358 91.4221
96.3989 8504 92.2171
96.516 8900 94.3398
96.633 9299 96.4313
96.7501 9832 99.1564
96.8673 9642 98.1937
96.9844 9578 97.8673
97.1016 9604 98
97.2188 9489 97.4115
97.336 8957 94.6414
97.4532 8605 92.7631
97.5704 7793 88.278
97.6877 7500 86.6025
97.805 7016 83.7616
97.9223 6997 83.6481
98.0396 7404 86.0465
98.1569 8032 89.6214
98.2743 8424 91.7824
98.3916 8791 93.7603
98.509 9156 95.687
98.6264 9505 97.4936
98.7438 9430 97.1082
98.8612 9459 97.2574
98.9786 9509 97.5141
99.096 9451 97.2163
99.2134 9422 97.067
99.3308 9125 95.5249
99.4482 8833 93.984
99.5656 8484 92.1086
99.6831 8124 90.1332
99.8005 8109 90.05
99.9179 8267 90.923
100.035 8682 93.1773
100.153 8978 94.7523
100.27 9271 96.286
100.388 9399 96.9484
100.505 9379 96.8452
100.622 9389 96.8969
100.74 9447 97.1957
100.857 9404 96.9742
100.975 8891 94.2921
101.092 8279 90.989
101.209 7787 88.244
101.327 7142 84.5104
101.444 6789 82.3954
101.561 6827 82.6257
101.679 6969 83.4805
101.796 7410 86.0814
101.913 7963 89.2356
102.03 8195 90.5262
102.148 8608 92.7793
102.265 8572 92.5851
102.382 9141 95.6086
102.499 9001 94.8736
102.616 8959 94.652
102.733 8961 94.6626
102.851 8920 94.4458
102.968 8680 93.1665
103.085 8614 92.8116
103.202 8400 91.6515
103.319 8279 90.989
103.436 7638 87.3957
103.552 7702 87.761
103.669 7870 88.713
103.786 8227 90.7028
103.903 8295 91.0769
104.02 8672 93.1236
104.137 8889 94.2815
104.253 9105 95.4201
104.37 8643 92.9677
104.487 8409 91.7006
104.603 7963 89.2356
104.72 7527 86.7583
104.836 7011 83.7317
104.953 6471 80.4425
105.069 5937 77.0519
105.186 5399 73.4779
105.302 5014 70.8096
105.418 4892 69.9428
105.535 4776 69.1086
105.651 4674 68.3667
105.767 4513 67.1789
105.883 4306 65.6201
105.999 3817 61.7819
106.115 0 1
106.231 0 1
106.347 0 1
106.463 0 1
106.579 0 1
106.694 0 1
106.81 0 1
106.926 0 1
107.041 0 1
107.157 0 1
109.576 0 1
109.692 0 1
109.807 0 1
109.923 0 1
110.039 0 1
110.155 0 1
110.27 0 1
110.386 0 1
110.502 0 1
110.618 5724 75.6571
110.735 6864 82.8493
110.851 7611 87.241
110.967 8285 91.022
111.083 8880 94.2338
111.199 9126 95.5301
111.316 9449 97.206
111.432 9728 98.6306
111.549 9756 98.7725
111.665 9606 98.0102
111.782 9501 97.4731
111.898 9451 97.2163
112.015 8994 94.8367
112.132 8805 93.835
112.248 8710 93.3274
112.365 8976 94.7418
112.482 8823 93.9308
112.599 9720 98.5901
112.716 9648 98.2242
112.832 10036 100.18
112.949 9908 99.5389
113.066 9910 99.549
113.183 9897 99.4837
113.3 9623 98.0969
113.417 9320 96.5401
113.534 8627 92.8816
113.652 8017 89.5377
113.769 7479 86.4812
113.886 6903 83.0843
114.003 7138 84.4867
114.12 7522 86.7295
114.238 8133 90.1831
114.355 8476 92.0652
114.472 8764 93.6162
114.589 9482 97.3756
114.707 9549 97.719
114.824 9430 97.1082
114.942 9720 98.5901
115.059 9575 97.8519
115.176 9563 97.7906
115.294 9624 98.102
115.411 9379 96.8452
115.529 9091 95.3467
115.646 8712 93.3381
115.764 8471 92.038
115.881 8256 90.8625
115.999 8439 91.864
116.116 8708 93.3167
116.234 9161 95.7131
116.351 9496 97.4474
116.469 9439 97.1545
116.586 9294 96.4054
116.704 9483 97.3807
116.821 9391 96.9072
116.939 9231 96.0781
117.056 8911 94.3981
117.174 8425 91.7878
117.291 7819 88.4251
117.409 7141 84.5044
117.526 6703 81.8719
117.644 6679 81.7251
117.761 6946 83.3427
117.879 7498 86.591
117.996 7858 88.6454
118.114 7955 89.1908
118.231 8348 91.3674
118.349 8635 92.9247
118.466 8679 93.1612
118.584 8636 92.9301
118.701 8566 92.5527
118.819 8805 93.835
118.936 8478 92.0761
119.053 8438 91.8586
119.171 8174 90.4102
119.288 8018 89.5433
119.405 7929 89.0449
119.523 7788 88.2496
119.64 7686 87.6698
119.757 7814 88.3968
119.875 8134 90.1887
119.992 8274 90.9615
120.109 8522 92.3147
120.226 8521 92.3093
120.343 8663 93.0752
120.46 8614 92.8116
120.578 8544 92.4338
120.695 8423 91.7769
120.812 8093 89.9611
120.929 7632 87.3613
121.046 7067 84.0655
121.163 6637 81.4678
121.279 6440 80.2496
121.396 6088 78.0256
121.513 6251 79.0633
121.63 6107 78.1473
121.747 6478 80.486
121.863 6471 80.4425
121.98 6579 81.111
122.097 6315 79.467
122.213 6300 79.3725
122.33 6140 78.3582
122.446 6066 77.8845
122.563 5732 75.71
122.679 5500 74.162
122.795 5131 71.631
122.912 4595 67.7864
123.028 4331 65.8103
123.144 3952 62.8649
123.26 3636 60.2993
123.377 0 1
123.493 0 1
123.609 0 1
123.725 0 1
123.84 0 1
123.956 0 1
124.072 0 1
124.188 0 1
124.303 0 1
124.419 0 1
126.852 0 1
126.968 0 1
127.083 0 1
127.199 0 1
127.315 0 1
127.431 0 1
127.547 0 1
127.663 0 1
127.779 0 1
127.895 0 1
128.011 0 1
128.127 0 1
128.243 0 1
128.359 7936 89.0842
128.476 8280 90.9945
128.592 8452 91.9348
128.708 8905 94.3663
128.825 9147 95.6399
128.941 9097 95.3782
129.058 9332 96.6023
129.174 9155 95.6818
129.291 9137 95.5877
129.408 9061 95.1893
129.524 8910 94.3928
129.641 8611 92.7955
129.758 8066 89.8109
129.875 7589 87.1149
129.992 7321 85.5628
130.108 7088 84.1903
130.225 7075 84.113
130.342 7456 86.3481
130.459 7523 86.7352
130.576 8334 91.2907
130.693 8178 90.4323
130.81 8575 92.6013
130.928 8555 92.4932
131.045 8963 94.6731
131.162 9087 95.3258
131.279 9178 95.8019
131.396 9019 94.9684
131.513 8895 94.3133
131.631 8867 94.1647
131.748 8604 92.7577
131.865 8528 92.3472
131.983 8455 91.9511
132.1 8652 93.0161
132.217 8728 93.4238
132.335 9000 94.8683
132.452 9250 96.1769
132.57 9270 96.2808
132.687 8865 94.1541
132.804 9662 98.2955
132.922 9444 97.1802
133.039 9118 95.4882
133.157 8823 93.9308
133.274 8490 92.1412
133.392 8072 89.8443
133.509 7659 87.5157
133.627 7279 85.3171
133.744 6923 83.2046
133.862 7185 84.7644
133.979 7495 86.5737
134.097 7782 88.2156
134.214 8018 89.5433
134.332 8281 91
134.449 8348 91.3674
134.567 8523 92.3201
134.684 8802 93.819
134.802 8755 93.5682
134.919 8861 94.1329
135.037 8907 94.3769
135.154 8692 93.2309
135.272 8528 92.3472
135.389 8601 92.7416
135.507 8275 90.967
135.624 8132 90.1776
135.742 8280 90.9945
135.859 8520 92.3038
135.977 8897 94.3239
136.094 9103 95.4096
136.211 9227 96.0573
136.329 9007 94.9052
136.446 9257 96.2133
136.564 9147 95.6399
136.681 9085 95.3153
136.798 8872 94.1913
136.915 8404 91.6733
137.033 7975 89.3029
137.15 7599 87.1722
137.267 7289 85.3756
137.384 7080 84.1427
137.502 6833 82.662
137.619 7150 84.5577
137.736 7287 85.3639
137.853 7605 87.2067
137.97 8027 89.5935
138.087 7805 88.3459
138.204 8235 90.7469
138.321 8540 92.4121
138.438 8532 92.3688
138.555 8582 92.6391
138.672 8634 92.9193
138.788 8454 91.9456
138.905 8074 89.8554
139.022 7737 87.9602
139.139 6959 83.4206
139.255 6807 82.5045
139.372 6555 80.963
139.488 6635 81.4555
139.605 6334 79.5864
139.721 6196 78.7147
139.838 6155 78.4538
139.954 5749 75.8222
140.071 5323 72.9589
140.187 4922 70.157
140.303 4681 68.4178
140.419 4400 66.3325
140.535 4029 63.4744
140.652 3675 60.6218
140.768 0 1
140.884 0 1
141 0 1
141.115 0 1
141.231 0 1
141.347 0 1
141.463 0 1
141.578 0 1
141.694 0 1
144.104 0 1
144.219 0 1
144.335 0 1
144.45 0 1
144.566 0 1
144.682 0 1
144.798 0 1
144.914 0 1
145.03 0 1
145.146 6942 83.3187
145.262 7304 85.4634
145.378 7321 85.5628
145.494 6941 83.3127
145.61 6629 81.4187
145.726 6187 78.6575
145.842 5955 77.1686
145.959 5974 77.2917
146.075 5817 76.2693
146.192 5904 76.8375
146.308 6099 78.0961
146.425 6321 79.5047
146.541 6526 80.7837
146.658 6629 81.4187
146.774 6860 82.8251
146.891 7034 83.8689
147.008 7218 84.9588
147.125 7316 85.5336
147.241 7215 84.9412
147.358 7247 85.1293
147.475 7173 84.6936
147.592 6989 83.6002
147.709 6921 83.1925
147.826 6602 81.2527
147.943 6745 82.1279
148.06 7050 83.9643
148.177 7261 85.2115
148.294 7401 86.0291
148.411 7363 85.8079
148.528 7657 87.5043
148.645 7622 87.3041
148.762 7456 86.3481
148.88 7456 86.3481
148.997 7175 84.7054
149.114 7665 87.55
149.231 6937 83.2887
149.349 7020 83.7854
149.466 6416 80.0999
149.583 6173 78.5684
149.701 5901 76.818
149.818 5742 75.776
149.935 5963 77.2205
150.053 6135 78.3262
150.17 6375 79.8436
150.287 6553 80.9506
150.405 6711 81.9207
150.522 6894 83.0301
150.64 7037 83.8868
150.757 7111 84.3267
150.875 7134 84.463
150.992 7311 85.5044
151.11 6971 83.4925
151.227 6981 83.5524
151.344 6826 82.6196
151.462 6623 81.3818
151.579 6575 81.0864
151.697 6638 81.4739
151.814 6810 82.5227
151.932 7122 84.3919
152.049 7284 85.3464
152.167 7276 85.2995
152.284 7483 86.5043
152.402 7087 84.1843
152.519 7384 85.9302
152.636 7225 85
152.754 7194 84.8175
152.871 6959 83.4206
152.989 6740 82.0975
153.106 6293 79.3284
153.223 6016 77.5629
153.341 5919 76.935
153.458 5629 75.0267
153.575 5694 75.4586
153.693 5801 76.1643
153.81 5998 77.4468
153.927 6144 78.3837
154.044 6234 78.9557
154.162 6583 81.1357
154.279 6491 80.5667
154.396 6763 82.2375
154.513 6720 81.9756
154.63 6994 83.6301
154.747 6895 83.0361
154.864 6734 82.061
154.981 6710 81.9146
155.098 6507 80.666
155.215 6396 79.975
155.332 6360 79.7496
155.449 6352 79.6994
155.566 6687 81.7741
155.683 6939 83.3007
155.8 6819 82.5772
155.917 6760 82.2192
156.033 6611 81.3081
156.15 0 1
156.267 0 1
156.383 0 1
156.5 0 1
156.617 0 1
156.733 0 1
156.85 0 1
156.966 0 1
157.082 0 1
157.199 0 1
157.315 0 1
157.431 0 1
157.547 0 1
157.664 0 1
157.78 0 1
157.896 0 1
158.012 0 1
158.128 0 1
158.244 0 1
158.359 0 1
158.475 0 1
158.591 0 1
158.706 0 1
