
6.15755 0 1
6.2731 0 1
6.3887 0 1
6.50437 0 1
6.62009 0 1
6.73587 0 1
6.8517 0 1
6.96759 0 1
7.08353 0 1
7.19952 0 1
7.31557 0 1
7.43166 0 1
7.54781 0 1
7.664 0 1
7.78024 0 1
7.89653 0 1
8.01286 0 1
8.12924 0 1
8.24567 0 1
8.36213 0 1
8.47864 0 1
8.59519 0 1
8.71178 0 1
8.82841 0 1
8.94508 0 1
9.06179 0 1
9.17853 0 1
9.29531 0 1
9.41212 0 1
9.52897 0 1
9.64584 0 1
9.76276 0 1
9.8797 0 1
9.99667 0 1
10.1137 0 1
10.2307 0 1
10.3478 0 1
10.4648 0 1
10.5819 0 1
10.6991 0 1
10.8162 0 1
10.9334 0 1
11.0506 0 1
11.1678 0 1
11.285 0 1
11.4023 0 1
11.5196 0 1
11.6369 0 1
11.7542 0 1
11.8715 0 1
11.9888 0 1
12.1062 0 1
12.2235 0 1
12.3409 0 1
12.4582 0 1
12.5756 0 1
12.693 0 1
12.8104 0 1
12.9278 0 1
13.0452 0 1
13.1626 0 1
13.28 0 1
13.3974 0 1
13.5149 0 1
13.6323 0 1
13.7497 0 1
13.8671 0 1
13.9845 0 1
14.1019 0 1
14.2193 0 1
14.3367 0 1
14.4541 0 1
14.5714 0 1
14.6888 0 1
14.8062 0 1
14.9235 0 1
15.0408 12011 109.595
15.1581 12534 111.955
15.2755 12978 113.921
15.3927 13017 114.092
15.51 13111 114.503
15.6273 12874 113.464
15.7445 12696 112.677
15.8617 12463 111.638
15.9789 12540 111.982
16.0961 12323 111.009
16.2132 12156 110.254
16.3304 12280 110.815
16.4475 12178 110.354
16.5646 12269 110.766
16.6816 12506 111.83
16.7986 12455 111.602
16.9156 12256 110.707
17.0326 12247 110.666
17.1496 12464 111.642
17.2665 12537 111.969
17.3833 12164 110.291
17.5002 12287 110.847
17.617 12527 111.924
17.7338 12513 111.862
17.8505 12563 112.085
17.9672 12716 112.765
18.0839 12702 112.703
18.2005 12955 113.82
18.3171 13064 114.298
18.4337 13213 114.948
18.5502 13423 115.858
18.6666 13639 116.786
18.7831 13602 116.628
18.8994 13577 116.52
19.0158 13091 114.416
19.1321 12803 113.15
19.2483 11855 108.881
19.3645 11522 107.341
19.4806 11038 105.062
19.5967 10678 103.334
19.7128 10281 101.395
19.8288 9485 97.391
19.9447 8635 92.9247
20.0606 0 1
20.1764 0 1
20.2922 0 1
20.4079 0 1
20.5236 0 1
20.6392 0 1
20.7548 0 1
20.8702 0 1
23.3078 0 1
23.4233 0 1
23.539 0 1
23.6547 0 1
23.7704 0 1
23.8862 0 1
24.0021 0 1
24.118 0 1
24.234 0 1
24.35 0 1
24.4661 5301 72.808
24.5822 5769 75.9539
24.6984 6574 81.0802
24.8146 7219 84.9647
24.9309 8147 90.2607
25.0472 9003 94.8841
25.1636 9761 98.7978
25.28 10817 104.005
25.3965 11556 107.499
25.513 12611 112.299
25.6296 13445 115.953
25.7462 13748 117.252
25.8628 14042 118.499
25.9795 14140 118.912
26.0962 14398 119.992
26.213 14294 119.558
26.3298 14118 118.819
26.4466 14131 118.874
26.5635 14219 119.243
26.6804 14287 119.528
26.7973 14311 119.629
26.9143 14387 119.946
27.0313 14101 118.748
27.1483 14415 120.062
27.2653 14542 120.59
27.3824 14759 121.487
27.4996 14910 122.107
27.6167 14573 120.719
27.7339 13794 117.448
27.8511 13540 116.362
27.9683 13262 115.161
28.0855 13016 114.088
28.2028 13108 114.49
28.3201 13102 114.464
28.4374 13294 115.3
28.5547 13383 115.685
28.6721 13237 115.052
28.7894 13812 117.524
28.9068 13999 118.317
29.0242 14075 118.638
29.1416 14161 119
29.259 14076 118.642
29.3764 14278 119.491
29.4939 13999 118.317
29.6113 14121 118.832
29.7288 14340 119.75
29.8463 14292 119.549
29.9638 14366 119.858
30.0812 14394 119.975
30.1987 14570 120.706
30.3162 14427 120.112
30.4337 14582 120.756
30.5512 14497 120.403
30.6687 14609 120.868
30.7862 14658 121.07
30.9037 14811 121.7
31.0212 14900 122.066
31.1387 14879 121.98
31.2562 14321 119.67
31.3737 13953 118.123
31.4912 13638 116.782
31.6087 13233 115.035
31.7262 13482 116.112
31.8436 13149 114.669
31.9611 13399 115.754
32.0785 13736 117.201
32.1959 13829 117.597
32.3134 14095 118.722
32.4308 14388 119.95
32.5482 14368 119.867
32.6655 14426 120.108
32.7829 14398 119.992
32.9002 14571 120.71
33.0176 14171 119.042
33.1349 14377 119.904
33.2522 14566 120.69
33.3694 14514 120.474
33.4867 14752 121.458
33.6039 14811 121.7
33.7211 14820 121.737
33.8383 14969 122.348
33.9554 14876 121.967
34.0725 15102 122.89
34.1896 15157 123.114
34.3067 14984 122.409
34.4237 15122 122.972
34.5407 15027 122.585
34.6577 15307 123.721
34.7746 15208 123.321
34.8915 14612 120.88
35.0084 14308 119.616
35.1252 13722 117.141
35.242 13336 115.482
35.3587 13251 115.113
35.4755 13481 116.108
35.5921 13572 116.499
35.7088 13730 117.175
35.8254 13896 117.881
35.9419 14124 118.844
36.0584 14191 119.126
36.1749 14564 120.681
36.2913 14308 119.616
36.4077 14095 118.722
36.524 13951 118.114
36.6403 13649 116.829
36.7565 13034 114.167
36.8727 12240 110.635
36.9889 11522 107.341
37.1049 10494 102.44
37.221 0 1
37.3369 0 1
37.4529 0 1
37.5687 0 1
37.6845 0 1
37.8003 0 1
37.916 0 1
38.0316 0 1
38.1472 0 1
40.5851 0 1
40.7008 0 1
40.8164 0 1
40.9322 0 1
41.048 0 1
41.1639 0 1
41.2798 0 1
41.3958 0 1
41.5118 0 1
41.6279 0 1
41.744 5855 76.518
41.8602 6786 82.3772
41.9765 7908 88.9269
42.0928 8681 93.1719
42.2091 9665 98.3107
42.3255 10691 103.397
42.4419 11533 107.392
42.5584 12260 110.725
42.675 12894 113.552
42.7915 13354 115.56
42.9081 13539 116.357
43.0248 13776 117.371
43.1415 13940 118.068
43.2582 14016 118.389
43.375 14417 120.071
43.4918 14633 120.967
43.6087 14484 120.349
43.7256 14269 119.453
43.8425 13950 118.11
43.9595 13486 116.129
44.0765 13058 114.272
44.1935 13033 114.162
44.3106 12998 114.009
44.4277 13424 115.862
44.5448 13701 117.051
44.6619 13821 117.563
44.7791 14157 118.983
44.8963 14238 119.323
45.0136 14487 120.362
45.1308 14349 119.787
45.2481 14460 120.25
45.3654 14234 119.306
45.4827 14332 119.716
45.6001 14346 119.775
45.7174 14511 120.462
45.8348 14515 120.478
45.9522 14351 119.796
46.0697 14697 121.231
46.1871 14911 122.111
46.3046 15113 122.935
46.422 15489 124.455
46.5395 15367 123.964
46.657 15681 125.224
46.7745 15686 125.244
46.892 15917 126.163
47.0096 16140 127.043
47.1271 16195 127.26
47.2446 16047 126.677
47.3622 15653 125.112
47.4797 14833 121.791
47.5973 14797 121.643
47.7149 14565 120.686
47.8324 14342 119.758
47.95 14547 120.611
48.0675 14967 122.34
48.1851 14762 121.499
48.3027 15423 124.189
48.4202 15367 123.964
48.5378 15474 124.395
48.6554 15428 124.21
48.7729 15607 124.928
48.8904 15577 124.808
49.008 15275 123.592
49.1255 15146 123.069
49.243 15100 122.882
49.3605 15314 123.75
49.478 15134 123.02
49.5955 15398 124.089
49.713 15514 124.555
49.8304 16075 126.787
49.9479 15966 126.357
50.0653 16232 127.405
50.1827 16382 127.992
50.3001 16272 127.562
50.4175 16474 128.351
50.5348 16711 129.271
50.6521 16625 128.938
50.7694 16779 129.534
50.8867 16015 126.55
51.004 15707 125.328
51.1212 15384 124.032
51.2384 15065 122.74
51.3556 15408 124.129
51.4727 15207 123.317
51.5899 15636 125.044
51.707 15966 126.357
51.824 16075 126.787
51.9411 16274 127.57
52.0581 16270 127.554
52.175 16133 127.016
52.2919 16041 126.653
52.4088 15798 125.69
52.5257 15614 124.956
52.6425 15644 125.076
52.7593 15573 124.792
52.876 15505 124.519
52.9927 15473 124.391
53.1094 15470 124.378
53.226 15533 124.631
53.3426 15760 125.539
53.4591 15867 125.964
53.5756 16078 126.799
53.692 15936 126.238
53.8084 15631 125.024
53.9248 15025 122.577
54.0411 13797 117.461
54.1573 12267 110.756
54.2735 0 1
54.3896 0 1
54.5057 0 1
54.6217 0 1
54.7377 0 1
54.8537 0 1
54.9695 0 1
55.0853 0 1
55.2011 0 1
55.3168 0 1
55.4324 0 1
57.824 0 1
57.9396 0 1
58.0553 0 1
58.1711 0 1
58.2869 0 1
58.4028 0 1
58.5187 0 1
58.6347 0 1
58.7508 0 1
58.8669 0 1
58.983 10761 103.735
59.0992 12075 109.886
59.2155 13898 117.89
59.3318 15207 123.317
59.4482 16735 129.364
59.5646 18091 134.503
59.681 18707 136.774
59.7975 18982 137.775
59.9141 19321 139
60.0306 19559 139.853
60.1473 20135 141.898
60.2639 20320 142.548
60.3807 21183 145.544
60.4974 21594 146.949
60.6142 22070 148.56
60.731 21936 148.108
60.8479 21694 147.289
60.9648 21679 147.238
61.0818 21923 148.064
61.1987 21733 147.421
61.3158 21857 147.841
61.4328 21490 146.595
61.5499 21474 146.54
61.667 21600 146.969
61.7841 21887 147.943
61.9013 22135 148.778
62.0185 22303 149.342
62.1357 22959 151.522
62.253 23155 152.168
62.3702 23781 154.211
62.4875 23976 154.842
62.6049 24253 155.734
62.7222 24262 155.763
62.8396 24715 157.21
62.9569 24651 157.006
63.0743 24343 156.022
63.1918 23634 153.734
63.3092 22844 151.142
63.4267 21882 147.926
63.5441 22062 148.533
63.6616 21912 148.027
63.7791 22348 149.492
63.8966 22773 150.907
64.0142 23021 151.727
64.1317 22880 151.261
64.2492 23153 152.161
64.3668 22956 151.512
64.4843 22630 150.433
64.6019 22727 150.755
64.7195 22394 149.646
64.837 22443 149.81
64.9546 22323 149.409
65.0722 22362 149.539
65.1898 22439 149.797
65.3074 22391 149.636
65.4249 22974 151.572
65.5425 23365 152.856
65.6601 23320 152.709
65.7777 23760 154.143
65.8952 24314 155.929
66.0128 24580 156.78
66.1304 25049 158.269
66.2479 25290 159.028
66.3655 25492 159.662
66.483 25585 159.953
66.6005 25753 160.477
66.718 24831 157.579
66.8355 24036 155.035
66.953 22986 151.611
67.0705 22476 149.92
67.1879 22625 150.416
67.3054 22851 151.165
67.4228 22885 151.278
67.5402 22996 151.644
67.6576 23043 151.799
67.7749 22855 151.179
67.8923 23279 152.575
68.0096 23269 152.542
68.1269 23319 152.706
68.2442 23806 154.292
68.3614 23807 154.295
68.4787 23669 153.847
68.5958 23480 153.232
68.713 23173 152.227
68.8302 23527 153.385
68.9473 23102 151.993
69.0643 23467 153.189
69.1814 23626 153.708
69.2984 23620 153.688
69.4154 24231 155.663
69.5323 24625 156.924
69.6492 24937 157.915
69.7661 25126 158.512
69.8829 25462 159.568
69.9997 25080 158.367
70.1165 25250 158.902
70.2332 24931 157.896
70.3499 24208 155.589
70.4665 22592 150.306
70.5831 21104 145.272
70.6996 19681 140.289
70.8161 17826 133.514
70.9326 16750 129.422
71.049 14959 122.307
71.1653 13719 117.128
71.2817 12516 111.875
71.3979 11516 107.313
71.5141 10612 103.015
71.6303 9904 99.5188
71.7464 8765 93.6216
71.8624 0 1
71.9784 0 1
72.0944 0 1
72.2102 0 1
72.3261 0 1
72.4418 0 1
72.5575 0 1
72.6732 0 1
75.1054 0 1
75.2209 0 1
75.3365 0 1
75.4521 0 1
75.5678 0 1
75.6835 0 1
75.7993 0 1
75.9151 0 1
76.031 0 1
76.147 12376 111.247
76.263 14496 120.399
76.3791 16651 129.039
76.4952 19188 138.521
76.6113 20618 143.59
76.7276 21384 146.233
76.8438 22237 149.121
76.9601 22523 150.077
77.0765 22869 151.225
77.1929 23124 152.066
77.3093 23734 154.058
77.4258 23983 154.864
77.5423 24233 155.67
77.6589 24010 154.952
77.7755 24025 155
77.8921 24382 156.147
78.0088 24208 155.589
78.1256 24627 156.93
78.2423 24776 157.404
78.3591 24615 156.892
78.4759 25509 159.715
78.5928 26110 161.586
78.7097 26428 162.567
78.8266 27110 164.651
78.9436 27640 166.253
79.0606 27166 164.821
79.1776 26710 163.432
79.2946 26918 164.067
79.4117 26687 163.362
79.5288 25550 159.844
79.6459 24949 157.953
79.7631 23966 154.81
79.8802 24116 155.293
79.9974 24823 157.553
80.1147 25056 158.291
80.2319 25742 160.443
80.3491 25713 160.353
80.4664 26231 161.96
80.5837 26603 163.104
80.701 27009 164.344
80.8183 26987 164.277
80.9357 27405 165.545
81.053 27679 166.37
81.1704 27957 167.203
81.2877 27996 167.32
81.4051 27562 166.018
81.5225 27224 164.997
81.6399 28026 167.41
81.7573 27820 166.793
81.8747 28037 167.443
81.9922 28031 167.425
82.1096 29016 170.341
82.227 29167 170.783
82.3444 29853 172.78
82.4619 30338 174.178
82.5793 31166 176.539
82.6967 30722 175.277
82.8142 30584 174.883
82.9316 31023 176.133
83.049 29644 172.174
83.1664 28674 169.334
83.2838 27468 165.735
83.4012 26172 161.778
83.5186 26029 161.335
83.636 26656 163.267
83.7534 27215 164.97
83.8708 28105 167.645
83.9881 28485 168.775
84.1055 28996 170.282
84.2228 29840 172.743
84.3401 29967 173.11
84.4575 30500 174.642
84.5747 30928 175.864
84.692 31238 176.743
84.8093 32023 178.95
84.9265 31451 177.344
85.0437 30852 175.647
85.1609 30993 176.048
85.2781 30782 175.448
85.3952 30894 175.767
85.5123 31228 176.714
85.6294 31695 178.031
85.7465 32370 179.917
85.8636 32414 180.039
85.9806 33130 182.016
86.0976 33204 182.22
86.2145 33458 182.915
86.3315 33369 182.672
86.4484 33802 183.853
86.5652 33568 183.216
86.682 32884 181.339
86.7988 31433 177.294
86.9156 30141 173.612
87.0323 29533 171.852
87.149 29577 171.98
87.2657 29929 173
87.3823 30536 174.746
87.4988 30677 175.149
87.6154 31796 178.314
87.7318 31599 177.761
87.8483 31788 178.292
87.9647 31047 176.202
88.081 29602 172.052
88.1973 27024 164.39
88.3136 24713 157.204
88.4298 21664 147.187
88.546 18940 137.623
88.6621 16789 129.572
88.7781 15189 123.244
88.8942 0 1
89.0101 0 1
89.126 0 1
89.2419 0 1
89.3577 0 1
89.4734 0 1
89.5891 0 1
89.7047 0 1
89.8203 0 1
89.9358 0 1
92.3269 0 1
92.4424 0 1
92.558 0 1
92.6736 0 1
92.7893 0 1
92.905 0 1
93.0208 0 1
93.1366 0 1
93.2525 0 1
93.3685 0 1
93.4845 0 1
93.6005 20379 142.755
93.7167 24578 156.774
93.8328 28515 168.864
93.949 31558 177.646
94.0653 33551 183.169
94.1816 34742 186.392
94.2979 35795 189.196
94.4143 36022 189.795
94.5307 36584 191.269
94.6472 36666 191.484
94.7637 37163 192.777
94.8803 37313 193.166
94.9969 37463 193.554
95.1135 38362 195.862
95.2302 38238 195.545
95.3469 38436 196.051
95.4637 38668 196.642
95.5805 38630 196.545
95.6973 38883 197.188
95.8142 38249 195.574
95.9311 36842 191.943
96.048 35422 188.207
96.1649 34306 185.219
96.2819 33933 184.209
96.3989 33382 182.707
96.516 33195 182.195
96.633 33711 183.606
96.7501 34492 185.72
96.8673 35426 188.218
96.9844 36142 190.11
97.1016 37482 193.603
97.2188 37674 194.098
97.336 38406 195.974
97.4532 38648 196.591
97.5704 39393 198.477
97.6877 39641 199.1
97.805 39291 198.22
97.9223 39129 197.811
98.0396 38873 197.162
98.1569 39006 197.499
98.2743 38767 196.893
98.3916 38706 196.738
98.509 39859 199.647
98.6264 40161 200.402
98.7438 39982 199.955
98.8612 40393 200.98
98.9786 40202 200.504
99.096 40163 200.407
99.2134 40813 202.022
99.3308 41714 204.24
99.4482 42373 205.847
99.5656 41923 204.751
99.6831 40716 201.782
99.8005 39603 199.005
99.9179 38482 196.168
100.035 37102 192.619
100.153 36912 192.125
100.27 37385 193.352
100.388 38426 196.026
100.505 38666 196.637
100.622 39568 198.917
100.74 40257 200.641
100.857 40382 200.953
100.975 40635 201.581
101.092 41420 203.519
101.209 41817 204.492
101.327 41903 204.702
101.444 41264 203.135
101.561 41365 203.384
101.679 41471 203.644
101.796 41081 202.684
101.913 41283 203.182
102.03 41630 204.034
102.148 41996 204.929
102.265 42074 205.119
102.382 42796 206.872
102.499 42131 205.258
102.616 42380 205.864
102.733 42748 206.756
102.851 43797 209.277
102.968 44079 209.95
103.085 44145 210.107
103.202 42995 207.352
103.319 41539 203.811
103.436 40050 200.125
103.552 38795 196.964
103.669 37934 194.767
103.786 38468 196.133
103.903 39500 198.746
104.02 40898 202.233
104.137 41648 204.078
104.253 41651 204.086
104.37 43693 209.029
104.487 42654 206.528
104.603 42692 206.62
104.72 43242 207.947
104.836 42560 206.301
104.953 41775 204.389
105.069 41115 202.768
105.186 40795 201.978
105.302 39808 199.519
105.418 37749 194.291
105.535 35070 187.27
105.651 32438 180.106
105.767 29320 171.231
105.883 25155 158.603
105.999 21913 148.03
106.115 0 1
106.231 0 1
106.347 0 1
106.463 0 1
106.579 0 1
106.694 0 1
106.81 0 1
106.926 0 1
107.041 0 1
107.157 0 1
109.576 0 1
109.692 0 1
109.807 0 1
109.923 0 1
110.039 0 1
110.155 0 1
110.27 0 1
110.386 0 1
110.502 0 1
110.618 18703 136.759
110.735 21752 147.486
110.851 24799 157.477
110.967 26710 163.432
111.083 28886 169.959
111.199 31213 176.672
111.316 33531 183.115
111.432 35928 189.547
111.549 37073 192.544
111.665 37052 192.489
111.782 36242 190.373
111.898 35115 187.39
112.015 33457 182.913
112.132 32394 179.983
112.248 31788 178.292
112.365 32302 179.728
112.482 32561 180.447
112.599 34840 186.655
112.716 34787 186.513
112.832 35130 187.43
112.949 35296 187.872
113.066 35232 187.702
113.183 35662 188.844
113.3 35791 189.185
113.417 35655 188.825
113.534 35218 187.665
113.652 35132 187.435
113.769 35247 187.742
113.886 35042 187.195
114.003 35134 187.441
114.12 35579 188.624
114.238 35799 189.206
114.355 35429 188.226
114.472 33371 182.677
114.589 35426 188.218
114.707 34581 185.96
114.824 35740 189.05
114.942 36748 191.698
115.059 36870 192.016
115.176 37481 193.6
115.294 36220 190.316
115.411 35024 187.147
115.529 33792 183.826
115.646 32320 179.778
115.764 31025 176.139
115.881 30944 175.909
115.999 31559 177.649
116.116 31697 178.037
116.234 32937 181.486
116.351 33080 181.879
116.469 33350 182.62
116.586 33251 182.349
116.704 33167 182.118
116.821 33649 183.437
116.939 33888 184.087
117.056 33497 183.022
117.174 33108 181.956
117.291 33345 182.606
117.409 33191 182.184
117.526 33220 182.264
117.644 33242 182.324
117.761 33621 183.36
117.879 32859 181.271
117.996 32607 180.574
118.114 32549 180.413
118.231 33119 181.986
118.349 33116 181.978
118.466 33919 184.171
118.584 34533 185.831
118.701 35109 187.374
118.819 34452 185.612
118.936 33065 181.838
119.053 31818 178.376
119.171 30592 174.906
119.288 29218 170.933
119.405 28256 168.095
119.523 28118 167.684
119.64 28996 170.282
119.757 29359 171.345
119.875 29917 172.965
119.992 30465 174.542
120.109 30434 174.453
120.226 30374 174.281
120.343 29979 173.144
120.46 30499 174.64
120.578 30529 174.725
120.695 30609 174.954
120.812 30322 174.132
120.929 29955 173.075
121.046 30084 173.447
121.163 29898 172.91
121.279 29965 173.104
121.396 29873 172.838
121.513 29118 170.64
121.63 29379 171.403
121.747 28391 168.496
121.863 27894 167.015
121.98 28146 167.768
122.097 27595 166.117
122.213 27211 164.958
122.33 26749 163.551
122.446 25397 159.364
122.563 23484 153.245
122.679 21507 146.653
122.795 19091 138.17
122.912 16727 129.333
123.028 14747 121.437
123.144 13859 117.724
123.26 13011 114.066
123.377 0 1
123.493 0 1
123.609 0 1
123.725 0 1
123.84 0 1
123.956 0 1
124.072 0 1
124.188 0 1
124.303 0 1
124.419 0 1
126.852 0 1
126.968 0 1
127.083 0 1
127.199 0 1
127.315 0 1
127.431 0 1
127.547 0 1
127.663 0 1
127.779 0 1
127.895 0 1
128.011 0 1
128.127 0 1
128.243 0 1
128.359 27710 166.463
128.476 28299 168.223
128.592 28688 169.375
128.708 28619 169.172
128.825 29798 172.621
128.941 30568 174.837
129.058 31057 176.23
129.174 31823 178.39
129.291 31907 178.625
129.408 31397 177.192
129.524 31529 177.564
129.641 31576 177.696
129.758 31687 178.008
129.875 32036 178.986
129.992 31683 177.997
130.108 31795 178.312
130.225 31931 178.692
130.342 32046 179.014
130.459 31293 176.898
130.576 31108 176.375
130.693 30765 175.4
130.81 30577 174.863
130.928 30054 173.361
131.045 31049 176.207
131.162 32161 179.335
131.279 32508 180.3
131.396 32979 181.601
131.513 32991 181.634
131.631 31778 178.264
131.748 30879 175.724
131.865 29356 171.336
131.983 28729 169.496
132.1 28576 169.044
132.217 29029 170.379
132.335 29209 170.906
132.452 30031 173.295
132.57 30848 175.636
132.687 30789 175.468
132.804 30483 174.594
132.922 30696 175.203
133.039 31085 176.309
133.157 31208 176.658
133.274 30897 175.775
133.392 31136 176.454
133.509 31201 176.638
133.627 31516 177.527
133.744 31307 176.938
133.862 31022 176.131
133.979 30615 174.971
134.097 30357 174.233
134.214 30111 173.525
134.332 29600 172.047
134.449 29738 172.447
134.567 29710 172.366
134.684 30908 175.807
134.802 31705 178.059
134.919 32035 178.983
135.037 31805 178.34
135.154 31458 177.364
135.272 30597 174.92
135.389 29331 171.263
135.507 28375 168.449
135.624 28037 167.443
135.742 28157 167.8
135.859 28658 169.287
135.977 29331 171.263
136.094 29613 172.084
136.211 30065 173.393
136.329 30161 173.669
136.446 30531 174.731
136.564 29840 172.743
136.681 30434 174.453
136.798 30215 173.825
136.915 29894 172.899
137.033 30177 173.715
137.15 30467 174.548
137.267 30772 175.419
137.384 29993 173.185
137.502 29436 171.569
137.619 28946 170.135
137.736 29056 170.458
137.853 27187 164.885
137.97 27955 167.197
138.087 27503 165.84
138.204 28529 168.905
138.321 29290 171.143
138.438 29844 172.754
138.555 30341 174.187
138.672 30152 173.643
138.788 29439 171.578
138.905 28085 167.586
139.022 26235 161.972
139.139 24704 157.175
139.255 23494 153.278
139.372 22737 150.788
139.488 22213 149.04
139.605 21596 146.956
139.721 20824 144.305
139.838 19659 140.211
139.954 18886 137.426
140.071 17349 131.716
140.187 15651 125.104
140.303 14713 121.297
140.419 13574 116.508
140.535 13126 114.569
140.652 12489 111.754
140.768 0 1
140.884 0 1
141 0 1
141.115 0 1
141.231 0 1
141.347 0 1
141.463 0 1
141.578 0 1
141.694 0 1
144.104 0 1
144.219 0 1
144.335 0 1
144.45 0 1
144.566 0 1
144.682 0 1
144.798 0 1
144.914 0 1
145.03 0 1
145.146 19986 141.372
145.262 21471 146.53
145.378 21934 148.101
145.494 22652 150.506
145.61 22452 149.84
145.726 23030 151.756
145.842 22667 150.556
145.959 22925 151.41
146.075 22650 150.499
146.192 22253 149.174
146.308 22076 148.58
146.425 21735 147.428
146.541 21674 147.221
146.658 21555 146.816
146.774 21102 145.265
146.891 21279 145.873
147.008 22332 149.439
147.125 22336 149.452
147.241 23163 152.194
147.358 23196 152.302
147.475 23338 152.768
147.592 23063 151.865
147.709 22425 149.75
147.826 21557 146.823
147.943 20707 143.899
148.06 21198 145.595
148.177 20806 144.243
148.294 21089 145.221
148.411 21416 146.342
148.528 21636 147.092
148.645 21658 147.167
148.762 22218 149.057
148.88 22448 149.827
148.997 22868 151.222
149.114 21969 148.219
149.231 22597 150.323
149.349 22086 148.614
149.466 22356 149.519
149.583 22286 149.285
149.701 22111 148.698
149.818 21641 147.109
149.935 21179 145.53
150.053 21075 145.172
150.17 21044 145.066
150.287 20842 144.368
150.405 20694 143.854
150.522 21045 145.069
150.64 21445 146.441
150.757 21957 148.179
150.875 22463 149.877
150.992 22230 149.097
151.11 22859 151.192
151.227 22698 150.659
151.344 21951 148.159
151.462 21090 145.224
151.579 20834 144.34
151.697 20756 144.069
151.814 20625 143.614
151.932 20924 144.651
152.049 20593 143.503
152.167 21238 145.733
152.284 21306 145.966
152.402 21801 147.652
152.519 21539 146.762
152.636 21431 146.393
152.754 21233 145.715
152.871 21734 147.425
152.989 21260 145.808
153.106 21328 146.041
153.223 21066 145.141
153.341 20583 143.468
153.458 20162 141.993
153.575 20198 142.12
153.693 19901 141.071
153.81 20173 142.032
153.927 19814 140.762
154.044 19406 139.305
154.162 20057 141.623
154.279 20301 142.482
154.396 21146 145.417
154.513 21556 146.82
154.63 21651 147.143
154.747 21444 146.438
154.864 21110 145.293
154.981 20456 143.024
155.098 19719 140.424
155.215 19318 138.989
155.332 19230 138.672
155.449 19221 138.64
155.566 19104 138.217
155.683 18846 137.281
155.8 19125 138.293
155.917 19013 137.888
156.033 18735 136.876
156.15 0 1
156.267 0 1
156.383 0 1
156.5 0 1
156.617 0 1
156.733 0 1
156.85 0 1
156.966 0 1
157.082 0 1
157.199 0 1
157.315 0 1
157.431 0 1
157.547 0 1
157.664 0 1
157.78 0 1
157.896 0 1
158.012 0 1
158.128 0 1
158.244 0 1
158.359 0 1
158.475 0 1
158.591 0 1
158.706 0 1
