
6.15755 0 1
6.2731 0 1
6.3887 0 1
6.50437 0 1
6.62009 0 1
6.73587 0 1
6.8517 0 1
6.96759 0 1
7.08353 0 1
7.19952 0 1
7.31557 0 1
7.43166 0 1
7.54781 0 1
7.664 0 1
7.78024 0 1
7.89653 0 1
8.01286 0 1
8.12924 0 1
8.24567 0 1
8.36213 0 1
8.47864 0 1
8.59519 0 1
8.71178 0 1
8.82841 0 1
8.94508 0 1
9.06179 0 1
9.17853 0 1
9.29531 0 1
9.41212 0 1
9.52897 0 1
9.64584 0 1
9.76276 0 1
9.8797 0 1
9.99667 0 1
10.1137 0 1
10.2307 0 1
10.3478 0 1
10.4648 0 1
10.5819 0 1
10.6991 0 1
10.8162 0 1
10.9334 0 1
11.0506 0 1
11.1678 0 1
11.285 0 1
11.4023 0 1
11.5196 0 1
11.6369 0 1
11.7542 0 1
11.8715 0 1
11.9888 0 1
12.1062 0 1
12.2235 0 1
12.3409 0 1
12.4582 0 1
12.5756 0 1
12.693 0 1
12.8104 0 1
12.9278 0 1
13.0452 0 1
13.1626 0 1
13.28 0 1
13.3974 0 1
13.5149 0 1
13.6323 0 1
13.7497 0 1
13.8671 0 1
13.9845 0 1
14.1019 0 1
14.2193 0 1
14.3367 0 1
14.4541 0 1
14.5714 0 1
14.6888 0 1
14.8062 0 1
14.9235 0 1
15.0408 0 0
15.1581 0 0
15.2755 0 0
15.3927 0 0
15.51 0 0
15.6273 0 0
15.7445 0 0
15.8617 0 0
15.9789 0 0
16.0961 0 0
16.2132 0 0
16.3304 0 0
16.4475 0 0
16.5646 0 0
16.6816 0 0
16.7986 0 0
16.9156 0 0
17.0326 0 0
17.1496 0 0
17.2665 0 0
17.3833 0 0
17.5002 0 0
17.617 0 0
17.7338 0 0
17.8505 0 0
17.9672 0 0
18.0839 0 0
18.2005 0 0
18.3171 0 0
18.4337 0 0
18.5502 0 0
18.6666 0 0
18.7831 0 0
18.8994 0 0
19.0158 0 0
19.1321 0 0
19.2483 0 0
19.3645 0 0
19.4806 0 0
19.5967 0 0
19.7128 0 0
19.8288 0 0
19.9447 0 0
20.0606 0 1
20.1764 0 1
20.2922 0 1
20.4079 0 1
20.5236 0 1
20.6392 0 1
20.7548 0 1
20.8702 0 1
23.3078 0 1
23.4233 0 1
23.539 0 1
23.6547 0 1
23.7704 0 1
23.8862 0 1
24.0021 0 1
24.118 0 1
24.234 0 1
24.35 0 1
24.4661 61591 248.175
24.5822 62951 250.9
24.6984 64059 253.099
24.8146 63954 252.891
24.9309 65023 254.996
25.0472 65414 255.762
25.1636 66586 258.043
25.28 66663 258.192
25.3965 66640 258.147
25.513 66329 257.544
25.6296 67145 259.124
25.7462 67524 259.854
25.8628 66761 258.382
25.9795 65984 256.874
26.0962 66114 257.126
26.213 65851 256.614
26.3298 64555 254.077
26.4466 64492 253.953
26.5635 63687 252.363
26.6804 62335 249.67
26.7973 61135 247.255
26.9143 59629 244.19
27.0313 57571 239.94
27.1483 56963 238.669
27.2653 56610 237.929
27.3824 56389 237.464
27.4996 55930 236.495
27.6167 54487 233.425
27.7339 52237 228.554
27.8511 50507 224.738
27.9683 50279 224.23
28.0855 50533 224.795
28.2028 52369 228.843
28.3201 51771 227.532
28.4374 53009 230.237
28.5547 53846 232.047
28.6721 54590 233.645
28.7894 54930 234.371
28.9068 55323 235.208
29.0242 54815 234.126
29.1416 54464 233.375
29.259 54243 232.901
29.3764 54451 233.347
29.4939 53430 231.149
29.6113 53866 232.09
29.7288 53385 231.052
29.8463 53097 230.428
29.9638 52887 229.972
30.0812 52349 228.799
30.1987 51356 226.619
30.3162 50202 224.058
30.4337 48996 221.35
30.5512 47170 217.187
30.6687 46284 215.137
30.7862 46423 215.46
30.9037 46556 215.768
31.0212 46459 215.543
31.1387 45591 213.52
31.2562 44725 211.483
31.3737 43794 209.27
31.4912 42872 207.056
31.6087 43603 208.813
31.7262 44285 210.44
31.8436 44767 211.582
31.9611 45701 213.778
32.0785 46571 215.803
32.1959 46809 216.354
32.3134 47344 217.587
32.4308 47028 216.859
32.5482 47191 217.235
32.6655 46782 216.291
32.7829 46323 215.228
32.9002 46788 216.305
33.0176 46451 215.525
33.1349 46481 215.595
33.2522 46030 214.546
33.3694 46176 214.886
33.4867 45768 213.935
33.6039 45883 214.203
33.7211 44826 211.722
33.8383 45132 212.443
33.9554 44730 211.495
34.0725 43360 208.231
34.1896 41924 204.754
34.3067 40690 201.718
34.4237 40216 200.539
34.5407 40106 200.265
34.6577 40182 200.454
34.7746 39377 198.436
34.8915 39024 197.545
35.0084 37170 192.795
35.1252 37334 193.22
35.242 37558 193.799
35.3587 38479 196.161
35.4755 39679 199.196
35.5921 40258 200.644
35.7088 40969 202.408
35.8254 41525 203.777
35.9419 42385 205.876
36.0584 41838 204.543
36.1749 42061 205.088
36.2913 41698 204.201
36.4077 41151 202.857
36.524 40774 201.926
36.6403 40910 202.262
36.7565 40739 201.839
36.8727 40802 201.995
36.9889 40643 201.601
37.1049 40020 200.05
37.221 0 1
37.3369 0 1
37.4529 0 1
37.5687 0 1
37.6845 0 1
37.8003 0 1
37.916 0 1
38.0316 0 1
38.1472 0 1
40.5851 0 1
40.7008 0 1
40.8164 0 1
40.9322 0 1
41.048 0 1
41.1639 0 1
41.2798 0 1
41.3958 0 1
41.5118 0 1
41.6279 0 1
41.744 29967 173.11
41.8602 30681 175.16
41.9765 30352 174.218
42.0928 30689 175.183
42.2091 30964 175.966
42.3255 31081 176.298
42.4419 30756 175.374
42.5584 31176 176.567
42.675 30784 175.454
42.7915 30731 175.303
42.9081 29676 172.267
43.0248 28678 169.346
43.1415 27908 167.057
43.2582 27548 165.976
43.375 27487 165.792
43.4918 28046 167.469
43.6087 27250 165.076
43.7256 26398 162.475
43.8425 25427 159.458
43.9595 25037 158.231
44.0765 25500 159.687
44.1935 25663 160.197
44.3106 25814 160.667
44.4277 26298 162.167
44.5448 26744 163.536
44.6619 26557 162.963
44.7791 26701 163.404
44.8963 25932 161.034
45.0136 25389 159.339
45.1308 24966 158.006
45.2481 25069 158.332
45.3654 24353 156.054
45.4827 24669 157.064
45.6001 24473 156.438
45.7174 24531 156.624
45.8348 24371 156.112
45.9522 24425 156.285
46.0697 24024 154.997
46.1871 23457 153.157
46.3046 23437 153.091
46.422 23180 152.25
46.5395 22618 150.393
46.657 22296 149.318
46.7745 21023 144.993
46.892 20661 143.739
47.0096 20951 144.745
47.1271 20636 143.652
47.2446 20447 142.993
47.3622 19544 139.8
47.4797 18929 137.583
47.5973 18756 136.953
47.7149 18953 137.67
47.8324 19132 138.318
47.95 19359 139.137
48.0675 19696 140.342
48.1851 19570 139.893
48.3027 19586 139.95
48.4202 19170 138.456
48.5378 19273 138.827
48.6554 18774 137.018
48.7729 18851 137.299
48.8904 18808 137.142
49.008 18969 137.728
49.1255 19184 138.506
49.243 18999 137.837
49.3605 19563 139.868
49.478 19783 140.652
49.5955 20129 141.877
49.713 20038 141.556
49.8304 20299 142.475
49.9479 20747 144.038
50.0653 20252 142.31
50.1827 20161 141.989
50.3001 19562 139.864
50.4175 19172 138.463
50.5348 19092 138.174
50.6521 19995 141.404
50.7694 20514 143.227
50.8867 20794 144.201
51.004 20889 144.53
51.1212 21521 146.7
51.2384 22540 150.133
51.3556 23120 152.053
51.4727 24494 156.506
51.5899 24862 157.677
51.707 25425 159.452
51.824 25621 160.066
51.9411 25755 160.484
52.0581 25845 160.764
52.175 26206 161.883
52.2919 25914 160.978
52.4088 26184 161.815
52.5257 26654 163.261
52.6425 26920 164.073
52.7593 27068 164.524
52.876 27915 167.078
52.9927 28382 168.47
53.1094 28732 169.505
53.226 28723 169.479
53.3426 29236 170.985
53.4591 29644 172.174
53.5756 30024 173.274
53.692 30195 173.767
53.8084 29496 171.744
53.9248 28786 169.664
54.0411 28045 167.466
54.1573 27868 166.937
54.2735 0 1
54.3896 0 1
54.5057 0 1
54.6217 0 1
54.7377 0 1
54.8537 0 1
54.9695 0 1
55.0853 0 1
55.2011 0 1
55.3168 0 1
55.4324 0 1
57.824 0 1
57.9396 0 1
58.0553 0 1
58.1711 0 1
58.2869 0 1
58.4028 0 1
58.5187 0 1
58.6347 0 1
58.7508 0 1
58.8669 0 1
58.983 34038 184.494
59.0992 33345 182.606
59.2155 32567 180.463
59.3318 31483 177.434
59.4482 31463 177.378
59.5646 31250 176.777
59.681 31604 177.775
59.7975 32083 179.117
59.9141 33011 181.689
60.0306 33755 183.725
60.1473 34174 184.862
60.2639 33876 184.054
60.3807 33622 183.363
60.4974 33451 182.896
60.6142 33458 182.915
60.731 32324 179.789
60.8479 32614 180.593
60.9648 32210 179.471
61.0818 32494 180.261
61.1987 32278 179.661
61.3158 32711 180.862
61.4328 32158 179.327
61.5499 31961 178.776
61.667 32477 180.214
61.7841 32129 179.246
61.9013 32056 179.042
62.0185 32493 180.258
62.1357 32032 178.975
62.253 31883 178.558
62.3702 31942 178.723
62.4875 31210 176.664
62.6049 30565 174.828
62.7222 29573 171.968
62.8396 29318 171.225
62.9569 29041 170.414
63.0743 28568 169.021
63.1918 28974 170.218
63.3092 29665 172.235
63.4267 30135 173.594
63.5441 30276 174
63.6616 30526 174.717
63.7791 30159 173.663
63.8966 30493 174.622
64.0142 29760 172.511
64.1317 29906 172.934
64.2492 29630 172.134
64.3668 28909 170.026
64.4843 29190 170.851
64.6019 29100 170.587
64.7195 29273 171.094
64.837 29025 170.367
64.9546 29192 170.857
65.0722 28935 170.103
65.1898 28724 169.482
65.3074 29590 172.017
65.4249 28912 170.035
65.5425 29101 170.59
65.6601 29144 170.716
65.7777 28953 170.156
65.8952 29144 170.716
66.0128 28934 170.1
66.1304 28613 169.154
66.2479 27470 165.741
66.3655 26592 163.071
66.483 26115 161.601
66.6005 26052 161.406
66.718 26358 162.351
66.8355 26472 162.702
66.953 27565 166.027
67.0705 28359 168.401
67.1879 28889 169.968
67.3054 28607 169.136
67.4228 28537 168.929
67.5402 28273 168.146
67.6576 28260 168.107
67.7749 27609 166.16
67.8923 28299 168.223
68.0096 28218 167.982
68.1269 27987 167.293
68.2442 28432 168.618
68.3614 28369 168.431
68.4787 28626 169.192
68.5958 28558 168.991
68.713 28515 168.864
68.8302 28880 169.941
68.9473 29089 170.555
69.0643 28681 169.355
69.1814 29034 170.394
69.2984 29076 170.517
69.4154 29572 171.965
69.5323 29142 170.71
69.6492 30072 173.413
69.7661 29749 172.479
69.8829 29323 171.24
69.9997 28085 167.586
70.1165 27121 164.685
70.2332 26890 163.982
70.3499 26411 162.515
70.4665 26922 164.079
70.5831 28016 167.38
70.6996 29030 170.382
70.8161 29203 170.889
70.9326 29237 170.988
71.049 29277 171.105
71.1653 28783 169.656
71.2817 28263 168.116
71.3979 27990 167.302
71.5141 27416 165.578
71.6303 27041 164.441
71.7464 25100 158.43
71.8624 0 1
71.9784 0 1
72.0944 0 1
72.2102 0 1
72.3261 0 1
72.4418 0 1
72.5575 0 1
72.6732 0 1
75.1054 0 1
75.2209 0 1
75.3365 0 1
75.4521 0 1
75.5678 0 1
75.6835 0 1
75.7993 0 1
75.9151 0 1
76.031 0 1
76.147 25917 160.988
76.263 27520 165.892
76.3791 27745 166.568
76.4952 27529 165.919
76.6113 27525 165.907
76.7276 27600 166.132
76.8438 27544 165.964
76.9601 27418 165.584
77.0765 27483 165.78
77.1929 27837 166.844
77.3093 28324 168.297
77.4258 28024 167.404
77.5423 28064 167.523
77.6589 27426 165.608
77.7755 27240 165.045
77.8921 27172 164.839
78.0088 27471 165.744
78.1256 27206 164.942
78.2423 27159 164.8
78.3591 26848 163.854
78.4759 26914 164.055
78.5928 27354 165.39
78.7097 27232 165.021
78.8266 28484 168.772
78.9436 26339 162.293
79.0606 25551 159.847
79.1776 22625 150.416
79.2946 21318 146.007
79.4117 23561 153.496
79.5288 25604 160.012
79.6459 26687 163.362
79.7631 25888 160.897
79.8802 25624 160.075
79.9974 25497 159.678
80.1147 25277 158.987
80.2319 25149 158.584
80.3491 24976 158.038
80.4664 25041 158.243
80.5837 24808 157.506
80.701 24677 157.089
80.8183 24504 156.538
80.9357 24834 157.588
81.053 25298 159.053
81.1704 24719 157.223
81.2877 24570 156.748
81.4051 24375 156.125
81.5225 24488 156.486
81.6399 23591 153.594
81.7573 24030 155.016
81.8747 23436 153.088
81.9922 23531 153.398
82.1096 23648 153.779
82.227 23404 152.984
82.3444 23482 153.238
82.4619 23757 154.133
82.5793 23296 152.63
82.6967 23805 154.289
82.8142 20999 144.91
82.9316 18345 135.444
83.049 19175 138.474
83.1664 21584 146.915
83.2838 22461 149.87
83.4012 21930 148.088
83.5186 21909 148.017
83.636 21757 147.503
83.7534 21223 145.681
83.8708 21410 146.322
83.9881 21236 145.726
84.1055 21075 145.172
84.2228 20614 143.576
84.3401 20671 143.774
84.4575 21293 145.921
84.5747 21394 146.267
84.692 21794 147.628
84.8093 21586 146.922
84.9265 21258 145.801
85.0437 21114 145.307
85.1609 20958 144.769
85.2781 20923 144.648
85.3952 20951 144.745
85.5123 20990 144.879
85.6294 21100 145.258
85.7465 21302 145.952
85.8636 21312 145.986
85.9806 21624 147.051
86.0976 22073 148.57
86.2145 22269 149.228
86.3315 21189 145.564
86.4484 19882 141.004
86.5652 18979 137.764
86.682 21332 146.055
86.7988 22174 148.909
86.9156 22317 149.389
87.0323 22147 148.819
87.149 22302 149.339
87.2657 21647 147.129
87.3823 22231 149.101
87.4988 22014 148.371
87.6154 22059 148.523
87.7318 21950 148.155
87.8483 22053 148.503
87.9647 22351 149.503
88.081 23009 151.687
88.1973 23677 153.873
88.3136 24066 155.132
88.4298 23605 153.639
88.546 23253 152.489
88.6621 22941 151.463
88.7781 22862 151.202
88.8942 0 1
89.0101 0 1
89.126 0 1
89.2419 0 1
89.3577 0 1
89.4734 0 1
89.5891 0 1
89.7047 0 1
89.8203 0 1
89.9358 0 1
92.3269 0 1
92.4424 0 1
92.558 0 1
92.6736 0 1
92.7893 0 1
92.905 0 1
93.0208 0 1
93.1366 0 1
93.2525 0 1
93.3685 0 1
93.4845 0 1
93.6005 23178 152.243
93.7167 23501 153.3
93.8328 23956 154.777
93.949 23958 154.784
94.0653 23764 154.156
94.1816 23783 154.217
94.2979 23907 154.619
94.4143 23602 153.629
94.5307 23714 153.994
94.6472 23529 153.392
94.7637 23355 152.823
94.8803 23851 154.438
94.9969 24195 155.547
95.1135 24497 156.515
95.2302 24668 157.06
95.3469 24570 156.748
95.4637 23923 154.671
95.5805 22531 150.103
95.6973 20519 143.245
95.8142 20730 143.979
95.9311 22502 150.007
96.048 23822 154.344
96.1649 23776 154.195
96.2819 23559 153.489
96.3989 23308 152.67
96.516 23241 152.45
96.633 23124 152.066
96.7501 23053 151.832
96.8673 22888 151.288
96.9844 22659 150.529
97.1016 22723 150.742
97.2188 22594 150.313
97.336 22957 151.516
97.4532 22883 151.271
97.5704 23256 152.499
97.6877 22928 151.42
97.805 22548 150.16
97.9223 22330 149.432
98.0396 21667 147.197
98.1569 21852 147.824
98.2743 21770 147.547
98.3916 22044 148.472
98.509 22193 148.973
98.6264 22082 148.6
98.7438 22145 148.812
98.8612 22334 149.446
98.9786 22785 150.947
99.096 21800 147.648
99.2134 21233 145.715
99.3308 20591 143.496
99.4482 21172 145.506
99.5656 22229 149.094
99.6831 22236 149.117
99.8005 22251 149.168
99.9179 21797 147.638
100.035 21345 146.099
100.153 21179 145.53
100.27 21158 145.458
100.388 20873 144.475
100.505 21015 144.966
100.622 21125 145.344
100.74 20779 144.149
100.857 21000 144.914
100.975 21308 145.973
101.092 21513 146.673
101.209 21595 146.952
101.327 20974 144.824
101.444 20631 143.635
101.561 20394 142.808
101.679 20329 142.58
101.796 20247 142.292
101.913 20097 141.764
102.03 20094 141.753
102.148 20491 143.147
102.265 21251 145.777
102.382 19904 141.082
102.499 20835 144.343
102.616 20760 144.083
102.733 19818 140.776
102.851 18647 136.554
102.968 18513 136.062
103.085 18889 137.437
103.202 19194 138.542
103.319 19341 139.072
103.436 18620 136.455
103.552 18208 134.937
103.669 17912 133.836
103.786 17558 132.507
103.903 17358 131.75
104.02 17058 130.606
104.137 17136 130.905
104.253 16900 130
104.37 16458 128.289
104.487 16858 129.838
104.603 16892 129.969
104.72 16463 128.308
104.836 16033 126.621
104.953 15779 125.614
105.069 15484 124.435
105.186 15458 124.33
105.302 15101 122.886
105.418 14988 122.425
105.535 14834 121.795
105.651 14944 122.246
105.767 15090 122.841
105.883 15427 124.205
105.999 15191 123.252
106.115 0 1
106.231 0 1
106.347 0 1
106.463 0 1
106.579 0 1
106.694 0 1
106.81 0 1
106.926 0 1
107.041 0 1
107.157 0 1
109.576 0 1
109.692 0 1
109.807 0 1
109.923 0 1
110.039 0 1
110.155 0 1
110.27 0 1
110.386 0 1
110.502 0 1
110.618 9473 97.3293
110.735 9747 98.7269
110.851 9942 99.7096
110.967 10026 100.13
111.083 9871 99.3529
111.199 10118 100.588
111.316 10681 103.349
111.432 10767 103.764
111.549 10063 100.315
111.665 9587 97.9132
111.782 9245 96.1509
111.898 9264 96.2497
112.015 9277 96.3172
112.132 9151 95.6609
112.248 8813 93.8776
112.365 8810 93.8616
112.482 8388 91.586
112.599 8164 90.3549
112.716 8254 90.8515
112.832 8237 90.7579
112.949 8123 90.1277
113.066 8364 91.4549
113.183 8421 91.766
113.3 8416 91.7388
113.417 8276 90.9725
113.534 8205 90.5815
113.652 8399 91.6461
113.769 8567 92.5581
113.886 8513 92.2659
114.003 8658 93.0484
114.12 8916 94.4246
114.238 9173 95.7758
114.355 9005 94.8947
114.472 8844 94.0425
114.589 8331 91.2743
114.707 8091 89.95
114.824 9082 95.2995
114.942 9799 98.9899
115.059 10348 101.725
115.176 10295 101.464
115.294 9952 99.7597
115.411 9575 97.8519
115.529 10098 100.489
115.646 9742 98.7016
115.764 9949 99.7447
115.881 9949 99.7447
115.999 9803 99.0101
116.116 9858 99.2875
116.234 9734 98.661
116.351 9787 98.9293
116.469 9814 99.0656
116.586 9972 99.8599
116.704 10361 101.789
116.821 10536 102.645
116.939 10437 102.162
117.056 10498 102.46
117.174 10679 103.339
117.291 11115 105.428
117.409 11400 106.771
117.526 11530 107.378
117.644 11995 109.522
117.761 12143 110.195
117.879 12217 110.531
117.996 11993 109.513
118.114 11574 107.583
118.231 11116 105.432
118.349 10692 103.402
118.466 11546 107.452
118.584 12924 113.684
118.701 13466 116.043
118.819 14081 118.663
118.936 13806 117.499
119.053 13557 116.435
119.171 13526 116.301
119.288 13696 117.03
119.405 13640 116.79
119.523 13442 115.94
119.64 13696 117.03
119.757 13365 115.607
119.875 13274 115.213
119.992 13316 115.395
120.109 13163 114.73
120.226 13340 115.499
120.343 13351 115.547
120.46 13448 115.966
120.578 13733 117.188
120.695 13706 117.073
120.812 14201 119.168
120.929 14347 119.779
121.046 14490 120.374
121.163 14899 122.061
121.279 15306 123.717
121.396 15503 124.511
121.513 15329 123.81
121.63 15459 124.334
121.747 14516 120.482
121.863 13835 117.622
121.98 13171 114.765
122.097 12780 113.049
122.213 13747 117.248
122.33 15301 123.697
122.446 16297 127.66
122.563 16699 129.225
122.679 16853 129.819
122.795 16745 129.402
122.912 16680 129.151
123.028 16707 129.256
123.144 16633 128.969
123.26 16356 127.891
123.377 0 1
123.493 0 1
123.609 0 1
123.725 0 1
123.84 0 1
123.956 0 1
124.072 0 1
124.188 0 1
124.303 0 1
124.419 0 1
126.852 0 1
126.968 0 1
127.083 0 1
127.199 0 1
127.315 0 1
127.431 0 1
127.547 0 1
127.663 0 1
127.779 0 1
127.895 0 1
128.011 0 1
128.127 0 1
128.243 0 1
128.359 21969 148.219
128.476 21834 147.763
128.592 21645 147.122
128.708 21556 146.82
128.825 21434 146.404
128.941 21604 146.983
129.058 21422 146.363
129.174 21203 145.612
129.291 21013 144.959
129.408 21032 145.024
129.524 21042 145.059
129.641 21495 146.612
129.758 21785 147.597
129.875 22235 149.114
129.992 22603 150.343
130.108 22580 150.266
130.225 22733 150.775
130.342 22894 151.308
130.459 21726 147.397
130.576 22120 148.728
130.693 21082 145.196
130.81 19617 140.061
130.928 19090 138.167
131.045 18672 136.646
131.162 19976 141.336
131.279 21701 147.313
131.396 23041 151.793
131.513 23387 152.928
131.631 23866 154.486
131.748 23778 154.201
131.865 23893 154.574
131.983 24019 154.981
132.1 23637 153.743
132.217 23597 153.613
132.335 23262 152.519
132.452 23481 153.235
132.57 23287 152.601
132.687 22403 149.676
132.804 23520 153.362
132.922 22724 150.745
133.039 22506 150.02
133.157 22854 151.175
133.274 23035 151.773
133.392 23622 153.695
133.509 23730 154.045
133.627 24105 155.258
133.744 24120 155.306
133.862 23901 154.599
133.979 23639 153.75
134.097 23285 152.594
134.214 22959 151.522
134.332 21258 145.801
134.449 21132 145.368
134.567 20556 143.374
134.684 21352 146.123
134.802 22599 150.33
134.919 23382 152.912
135.037 24602 156.85
135.154 25115 158.477
135.272 25254 158.915
135.389 25664 160.2
135.507 25510 159.719
135.624 25669 160.215
135.742 25274 158.978
135.859 25210 158.777
135.977 25215 158.792
136.094 25218 158.802
136.211 24956 157.975
136.329 24890 157.766
136.446 24861 157.674
136.564 24670 157.067
136.681 24776 157.404
136.798 24680 157.099
136.915 24788 157.442
137.033 24949 157.953
137.15 25248 158.896
137.267 25733 160.415
137.384 25700 160.312
137.502 25308 159.085
137.619 24951 157.959
137.736 24336 156
137.853 23017 151.714
137.97 22300 149.332
138.087 22645 150.483
138.204 22015 148.375
138.321 22919 151.39
138.438 24087 155.2
138.555 24731 157.261
138.672 25267 158.956
138.788 26166 161.759
138.905 26876 163.939
139.022 27278 165.161
139.139 27398 165.523
139.255 27053 164.478
139.372 27260 165.106
139.488 27100 164.621
139.605 26825 163.783
139.721 26795 163.692
139.838 26301 162.176
139.954 26134 161.66
140.071 25963 161.13
140.187 25775 160.546
140.303 25364 159.261
140.419 25386 159.33
140.535 25468 159.587
140.652 25426 159.455
140.768 0 1
140.884 0 1
141 0 1
141.115 0 1
141.231 0 1
141.347 0 1
141.463 0 1
141.578 0 1
141.694 0 1
144.104 0 1
144.219 0 1
144.335 0 1
144.45 0 1
144.566 0 1
144.682 0 1
144.798 0 1
144.914 0 1
145.03 0 1
145.146 24036 155.035
145.262 24327 155.971
145.378 24310 155.917
145.494 24386 156.16
145.61 24552 156.691
145.726 24483 156.47
145.842 24719 157.223
145.959 24510 156.557
146.075 24100 155.242
146.192 23735 154.062
146.308 23318 152.702
146.425 22731 150.768
146.541 22067 148.55
146.658 21516 146.683
146.774 20841 144.364
146.891 21460 146.492
147.008 22165 148.879
147.125 22906 151.347
147.241 22776 150.917
147.358 22946 151.479
147.475 23094 151.967
147.592 24277 155.811
147.709 24722 157.232
147.826 24654 157.016
147.943 24959 157.984
148.06 24462 156.403
148.177 24539 156.649
148.294 24353 156.054
148.411 24000 154.919
148.528 23570 153.525
148.645 23486 153.251
148.762 23687 153.906
148.88 23447 153.124
148.997 22779 150.927
149.114 24364 156.09
149.231 23531 153.398
149.349 23547 153.45
149.466 23320 152.709
149.583 23000 151.658
149.701 22483 149.943
149.818 22697 150.655
149.935 22271 149.235
150.053 21569 146.864
150.17 20988 144.872
150.287 20730 143.979
150.405 20645 143.684
150.522 21045 145.069
150.64 22228 149.091
150.757 22507 150.023
150.875 22143 148.805
150.992 22092 148.634
151.11 21791 147.618
151.227 22735 150.781
151.344 23381 152.908
151.462 24284 155.833
151.579 24468 156.423
151.697 23971 154.826
151.814 23999 154.916
151.932 23797 154.263
152.049 23739 154.075
152.167 23961 154.793
152.284 23654 153.799
152.402 23214 152.361
152.519 23513 153.339
152.636 23562 153.499
152.754 23746 154.097
152.871 23409 153
152.989 23378 152.899
153.106 23714 153.994
153.223 23372 152.879
153.341 22627 150.423
153.458 22574 150.246
153.575 22091 148.63
153.693 21810 147.682
153.81 21353 146.127
153.927 21044 145.066
154.044 21420 146.356
154.162 21968 148.216
154.279 23082 151.928
154.396 23748 154.104
154.513 24180 155.499
154.63 23765 154.159
154.747 23425 153.052
154.864 23705 153.964
154.981 24500 156.525
155.098 24818 157.537
155.215 24812 157.518
155.332 24923 157.87
155.449 25238 158.865
155.566 24839 157.604
155.683 24681 157.102
155.8 24584 156.793
155.917 24801 157.483
156.033 24675 157.083
156.15 0 1
156.267 0 1
156.383 0 1
156.5 0 1
156.617 0 1
156.733 0 1
156.85 0 1
156.966 0 1
157.082 0 1
157.199 0 1
157.315 0 1
157.431 0 1
157.547 0 1
157.664 0 1
157.78 0 1
157.896 0 1
158.012 0 1
158.128 0 1
158.244 0 1
158.359 0 1
158.475 0 1
158.591 0 1
158.706 0 1
