
6.15755 0 1
6.2731 0 1
6.3887 0 1
6.50437 0 1
6.62009 0 1
6.73587 0 1
6.8517 0 1
6.96759 0 1
7.08353 0 1
7.19952 0 1
7.31557 0 1
7.43166 0 1
7.54781 0 1
7.664 0 1
7.78024 0 1
7.89653 0 1
8.01286 0 1
8.12924 0 1
8.24567 0 1
8.36213 0 1
8.47864 0 1
8.59519 0 1
8.71178 0 1
8.82841 0 1
8.94508 0 1
9.06179 0 1
9.17853 0 1
9.29531 0 1
9.41212 0 1
9.52897 0 1
9.64584 0 1
9.76276 0 1
9.8797 0 1
9.99667 0 1
10.1137 0 1
10.2307 0 1
10.3478 0 1
10.4648 0 1
10.5819 0 1
10.6991 0 1
10.8162 0 1
10.9334 0 1
11.0506 0 1
11.1678 0 1
11.285 0 1
11.4023 0 1
11.5196 0 1
11.6369 0 1
11.7542 0 1
11.8715 0 1
11.9888 0 1
12.1062 0 1
12.2235 0 1
12.3409 0 1
12.4582 0 1
12.5756 0 1
12.693 0 1
12.8104 0 1
12.9278 0 1
13.0452 0 1
13.1626 0 1
13.28 0 1
13.3974 0 1
13.5149 0 1
13.6323 0 1
13.7497 0 1
13.8671 0 1
13.9845 0 1
14.1019 0 1
14.2193 0 1
14.3367 0 1
14.4541 0 1
14.5714 0 1
14.6888 0 1
14.8062 0 1
14.9235 0 1
15.0408 0 0
15.1581 0 0
15.2755 0 0
15.3927 0 0
15.51 0 0
15.6273 0 0
15.7445 0 0
15.8617 0 0
15.9789 0 0
16.0961 0 0
16.2132 0 0
16.3304 0 0
16.4475 0 0
16.5646 0 0
16.6816 0 0
16.7986 0 0
16.9156 0 0
17.0326 0 0
17.1496 0 0
17.2665 0 0
17.3833 0 0
17.5002 0 0
17.617 0 0
17.7338 0 0
17.8505 0 0
17.9672 0 0
18.0839 0 0
18.2005 0 0
18.3171 0 0
18.4337 0 0
18.5502 0 0
18.6666 0 0
18.7831 0 0
18.8994 0 0
19.0158 0 0
19.1321 0 0
19.2483 0 0
19.3645 0 0
19.4806 0 0
19.5967 0 0
19.7128 0 0
19.8288 0 0
19.9447 0 0
20.0606 0 1
20.1764 0 1
20.2922 0 1
20.4079 0 1
20.5236 0 1
20.6392 0 1
20.7548 0 1
20.8702 0 1
23.3078 0 1
23.4233 0 1
23.539 0 1
23.6547 0 1
23.7704 0 1
23.8862 0 1
24.0021 0 1
24.118 0 1
24.234 0 1
24.35 0 1
24.4661 373539 611.178
24.5822 378308 615.067
24.6984 382799 618.708
24.8146 388026 622.917
24.9309 396849 629.96
25.0472 405468 636.764
25.1636 420498 648.458
25.28 432454 657.612
25.3965 448113 669.412
25.513 459230 677.665
25.6296 473011 687.758
25.7462 486062 697.181
25.8628 486587 697.558
25.9795 490508 700.363
26.0962 491603 701.144
26.213 494445 703.168
26.3298 486868 697.759
26.4466 488215 698.724
26.5635 483922 695.645
26.6804 476925 690.598
26.7973 462942 680.398
26.9143 451809 672.167
27.0313 435710 660.083
27.1483 434503 659.168
27.2653 432359 657.54
27.3824 430383 656.036
27.4996 422059 649.661
27.6167 411100 641.171
27.7339 391978 626.081
27.8511 372557 610.374
27.9683 360649 600.541
28.0855 350997 592.45
28.2028 350074 591.671
28.3201 341572 584.442
28.4374 347728 589.685
28.5547 348103 590.003
28.6721 353183 594.292
28.7894 357840 598.197
28.9068 360531 600.442
29.0242 362703 602.248
29.1416 363174 602.639
29.259 363351 602.786
29.3764 362743 602.281
29.4939 359764 599.803
29.6113 356489 597.067
29.7288 351740 593.077
29.8463 348949 590.719
29.9638 348791 590.585
30.0812 342860 585.542
30.1987 340563 583.578
30.3162 330884 575.225
30.4337 319987 565.674
30.5512 310834 557.525
30.6687 304452 551.772
30.7862 308863 555.754
30.9037 307447 554.479
31.0212 310700 557.405
31.1387 307469 554.499
31.2562 298317 546.184
31.3737 289530 538.08
31.4912 282485 531.493
31.6087 278165 527.414
31.7262 277289 526.582
31.8436 276998 526.306
31.9611 281353 530.427
32.0785 285449 534.274
32.1959 292944 541.243
32.3134 300482 548.162
32.4308 305671 552.875
32.5482 311333 557.972
32.6655 317479 563.453
32.7829 317593 563.554
32.9002 321708 567.193
33.0176 319498 565.242
33.1349 320839 566.427
33.2522 318970 564.774
33.3694 320246 565.903
33.4867 318895 564.708
33.6039 320028 565.71
33.7211 319159 564.942
33.8383 318168 564.064
33.9554 314400 560.714
34.0725 304929 552.204
34.1896 297006 544.983
34.3067 291898 540.276
34.4237 290880 539.333
34.5407 291930 540.305
34.6577 295168 543.294
34.7746 291966 540.339
34.8915 289153 537.729
35.0084 277635 526.911
35.1252 273484 522.957
35.242 266923 516.646
35.3587 267980 517.668
35.4755 267435 517.141
35.5921 270358 519.96
35.7088 275280 524.671
35.8254 280022 529.171
35.9419 288077 536.728
36.0584 294550 542.725
36.1749 300443 548.127
36.2913 303894 551.266
36.4077 308019 554.995
36.524 307871 554.861
36.6403 308456 555.388
36.7565 308884 555.773
36.8727 307465 554.495
36.9889 306505 553.629
37.1049 301619 549.199
37.221 0 1
37.3369 0 1
37.4529 0 1
37.5687 0 1
37.6845 0 1
37.8003 0 1
37.916 0 1
38.0316 0 1
38.1472 0 1
40.5851 0 1
40.7008 0 1
40.8164 0 1
40.9322 0 1
41.048 0 1
41.1639 0 1
41.2798 0 1
41.3958 0 1
41.5118 0 1
41.6279 0 1
41.744 244578 494.548
41.8602 251125 501.124
41.9765 253200 503.19
42.0928 252317 502.312
42.2091 254108 504.091
42.3255 252808 502.8
42.4419 253638 503.625
42.5584 253318 503.307
42.675 252466 502.46
42.7915 248269 498.266
42.9081 238249 488.108
43.0248 232987 482.687
43.1415 228281 477.788
43.2582 229960 479.541
43.375 232595 482.281
43.4918 235558 485.343
43.6087 230267 479.861
43.7256 223419 472.672
43.8425 216162 464.932
43.9595 208873 457.026
44.0765 204768 452.513
44.1935 203093 450.658
44.3106 203800 451.442
44.4277 206175 454.065
44.5448 209278 457.469
44.6619 213197 461.733
44.7791 216041 464.802
44.8963 219308 468.303
45.0136 219522 468.532
45.1308 219212 468.201
45.2481 218367 467.298
45.3654 215964 464.719
45.4827 213881 462.473
45.6001 211906 460.332
45.7174 209905 458.154
45.8348 207905 455.966
45.9522 206033 453.909
46.0697 204537 452.258
46.1871 202390 449.878
46.3046 199595 446.761
46.422 193546 439.939
46.5395 185765 431.005
46.657 179049 423.142
46.7745 174848 418.148
46.892 174583 417.831
47.0096 176618 420.259
47.1271 178399 422.373
47.2446 174558 417.801
47.3622 168331 410.282
47.4797 160815 401.017
47.5973 155817 394.737
47.7149 152487 390.496
47.8324 152477 390.483
47.95 153111 391.294
48.0675 155673 394.554
48.1851 159367 399.208
48.3027 162802 403.487
48.4202 164867 406.038
48.5378 166416 407.941
48.6554 167960 409.829
48.7729 167225 408.932
48.8904 167091 408.768
49.008 168254 410.188
49.1255 169130 411.254
49.243 170867 413.361
49.3605 171353 413.948
49.478 172240 415.018
49.5955 175171 418.534
49.713 176881 420.572
49.8304 177413 421.204
49.9479 176182 419.74
50.0653 172259 415.041
50.1827 168398 410.363
50.3001 166414 407.939
50.4175 169019 411.119
50.5348 172127 414.882
50.6521 182823 427.578
50.7694 186930 432.354
50.8867 185621 430.838
51.004 184524 429.563
51.1212 185514 430.713
51.2384 189018 434.762
51.3556 193395 439.767
51.4727 200520 447.795
51.5899 210439 458.736
51.707 219748 468.773
51.824 226959 476.402
51.9411 233478 483.196
52.0581 236598 486.413
52.175 240431 490.338
52.2919 242487 492.43
52.4088 244980 494.955
52.5257 248152 498.149
52.6425 249798 499.798
52.7593 251157 501.156
52.876 253254 503.243
52.9927 256112 506.075
53.1094 257203 507.152
53.226 260610 510.5
53.3426 261612 511.48
53.4591 264759 514.547
53.5756 261773 511.638
53.692 255502 505.472
53.8084 245767 495.749
53.9248 240699 490.611
54.0411 241184 491.105
54.1573 245345 495.323
54.2735 0 1
54.3896 0 1
54.5057 0 1
54.6217 0 1
54.7377 0 1
54.8537 0 1
54.9695 0 1
55.0853 0 1
55.2011 0 1
55.3168 0 1
55.4324 0 1
57.824 0 1
57.9396 0 1
58.0553 0 1
58.1711 0 1
58.2869 0 1
58.4028 0 1
58.5187 0 1
58.6347 0 1
58.7508 0 1
58.8669 0 1
58.983 287734 536.408
59.0992 286179 534.957
59.2155 287120 535.836
59.3318 289605 538.15
59.4482 292558 540.886
59.5646 292290 540.639
59.681 291773 540.16
59.7975 290924 539.374
59.9141 290955 539.402
60.0306 295927 543.992
60.1473 302731 550.21
60.2639 308403 555.34
60.3807 311515 558.135
60.4974 315364 561.573
60.6142 313785 560.165
60.731 312948 559.418
60.8479 315048 561.291
60.9648 312563 559.073
61.0818 311571 558.185
61.1987 308879 555.769
61.3158 308641 555.555
61.4328 307351 554.392
61.5499 305608 552.818
61.667 306293 553.437
61.7841 305487 552.709
61.9013 304966 552.237
62.0185 303226 550.66
62.1357 296039 544.095
62.253 289702 538.24
62.3702 278572 527.799
62.4875 271242 520.809
62.6049 269060 518.71
62.7222 271619 521.171
62.8396 274393 523.825
62.9569 275718 525.089
63.0743 272696 522.203
63.1918 270391 519.991
63.3092 267688 517.386
63.4267 270695 520.284
63.5441 276575 525.904
63.6616 283582 532.524
63.7791 287493 536.184
63.8966 290597 539.07
64.0142 291694 540.087
64.1317 291438 539.85
64.2492 289248 537.818
64.3668 287295 535.999
64.4843 287018 535.741
64.6019 286620 535.369
64.7195 284638 533.515
64.837 284530 533.414
64.9546 284750 533.62
65.0722 282004 531.04
65.1898 281429 530.499
65.3074 284490 533.376
65.4249 279235 528.427
65.5425 282025 531.06
65.6601 279693 528.86
65.7777 275625 525
65.8952 267419 517.126
66.0128 255954 505.919
66.1304 246634 496.623
66.2479 243661 493.62
66.3655 248022 498.018
66.483 254887 504.863
66.6005 256517 506.475
66.718 255955 505.92
66.8355 253756 503.742
66.953 256525 506.483
67.0705 262205 512.06
67.1879 268598 518.264
67.3054 276043 525.398
67.4228 277554 526.834
67.5402 277836 527.102
67.6576 280588 529.706
67.7749 275794 525.161
67.8923 283162 532.13
68.0096 279270 528.46
68.1269 279966 529.118
68.2442 280252 529.388
68.3614 278602 527.828
68.4787 279599 528.771
68.5958 281315 530.391
68.713 280988 530.083
68.8302 282027 531.062
68.9473 283644 532.582
69.0643 283178 532.145
69.1814 284272 533.172
69.2984 284648 533.524
69.4154 284011 532.927
69.5323 280282 529.417
69.6492 270767 520.353
69.7661 258705 508.631
69.8829 250265 500.265
69.9997 253938 503.923
70.1165 260667 510.556
70.2332 267740 517.436
70.3499 264898 514.682
70.4665 263363 513.189
70.5831 265639 515.402
70.6996 271636 521.187
70.8161 278434 527.668
70.9326 284950 533.807
71.049 285780 534.584
71.1653 284715 533.587
71.2817 283137 532.106
71.3979 278822 528.036
71.5141 275342 524.73
71.6303 268327 518.003
71.7464 248140 498.137
71.8624 0 1
71.9784 0 1
72.0944 0 1
72.2102 0 1
72.3261 0 1
72.4418 0 1
72.5575 0 1
72.6732 0 1
75.1054 0 1
75.2209 0 1
75.3365 0 1
75.4521 0 1
75.5678 0 1
75.6835 0 1
75.7993 0 1
75.9151 0 1
76.031 0 1
76.147 246658 496.647
76.263 270961 520.539
76.3791 277754 527.024
76.4952 276466 525.8
76.6113 277967 527.226
76.7276 280856 529.958
76.8438 276427 525.763
76.9601 277894 527.157
77.0765 278790 528.006
77.1929 277892 527.155
77.3093 278168 527.416
77.4258 275613 524.989
77.5423 276528 525.859
77.6589 275497 524.878
77.7755 274488 523.916
77.8921 273959 523.411
78.0088 275801 525.168
78.1256 272505 522.02
78.2423 272768 522.272
78.3591 272564 522.077
78.4759 271026 520.602
78.5928 266281 516.024
78.7097 253910 503.895
78.8266 241829 491.761
78.9436 203145 450.716
79.0606 204423 452.132
79.1776 213430 461.985
79.2946 232141 481.81
79.4117 243527 493.485
79.5288 252755 502.747
79.6459 259348 509.262
79.7631 262557 512.403
79.8802 262953 512.789
79.9974 263623 513.442
80.1147 261404 511.277
80.2319 260872 510.756
80.3491 258119 508.054
80.4664 258671 508.597
80.5837 257408 507.354
80.701 255757 505.724
80.8183 255001 504.976
80.9357 254707 504.685
81.053 255356 505.328
81.1704 251946 501.942
81.2877 252964 502.955
81.4051 250122 500.122
81.5225 253536 503.524
81.6399 244459 494.428
81.7573 250210 500.21
81.8747 244504 494.473
81.9922 245597 495.577
82.1096 245524 495.504
82.227 242046 491.982
82.3444 236210 486.014
82.4619 224068 473.358
82.5793 197057 443.911
82.6967 189662 435.502
82.8142 189107 434.864
82.9316 203974 451.635
83.049 215114 463.804
83.1664 223456 472.711
83.2838 231348 480.986
83.4012 232675 482.364
83.5186 231858 481.516
83.636 229985 479.568
83.7534 230596 480.204
83.8708 227724 477.204
83.9881 228012 477.506
84.1055 227314 476.775
84.2228 223507 472.765
84.3401 225692 475.071
84.4575 225253 474.608
84.5747 225588 474.961
84.692 225933 475.324
84.8093 225257 474.612
84.9265 224489 473.803
85.0437 225167 474.518
85.1609 225418 474.782
85.2781 225211 474.564
85.3952 225740 475.121
85.5123 226962 476.405
85.6294 226698 476.128
85.7465 227852 477.338
85.8636 226554 475.977
85.9806 221642 470.789
86.0976 205324 453.127
86.2145 181225 425.705
86.3315 165526 406.849
86.4484 188607 434.289
86.5652 208705 456.842
86.682 224595 473.915
86.7988 230714 480.327
86.9156 233681 483.406
87.0323 233585 483.306
87.149 233865 483.596
87.2657 232250 481.923
87.3823 231701 481.353
87.4988 232435 482.115
87.6154 232171 481.841
87.7318 231088 480.716
87.8483 232241 481.914
87.9647 231687 481.339
88.081 232405 482.084
88.1973 233695 483.42
88.3136 233338 483.051
88.4298 230953 480.576
88.546 229691 479.261
88.6621 227649 477.126
88.7781 224693 474.018
88.8942 0 1
89.0101 0 1
89.126 0 1
89.2419 0 1
89.3577 0 1
89.4734 0 1
89.5891 0 1
89.7047 0 1
89.8203 0 1
89.9358 0 1
92.3269 0 1
92.4424 0 1
92.558 0 1
92.6736 0 1
92.7893 0 1
92.905 0 1
93.0208 0 1
93.1366 0 1
93.2525 0 1
93.3685 0 1
93.4845 0 1
93.6005 179040 423.131
93.7167 180824 425.234
93.8328 179241 423.369
93.949 177999 421.899
94.0653 175849 419.344
94.1816 172900 415.812
94.2979 171113 413.658
94.4143 168474 410.456
94.5307 167712 409.527
94.6472 165350 406.633
94.7637 162423 403.017
94.8803 163527 404.385
94.9969 160059 400.074
95.1135 157397 396.733
95.2302 147735 384.363
95.3469 132374 363.832
95.4637 109468 330.859
95.5805 108940 330.061
95.6973 133132 364.873
95.8142 148819 385.771
95.9311 151061 388.666
96.048 149019 386.03
96.1649 146190 382.348
96.2819 143506 378.822
96.3989 141169 375.725
96.516 139294 373.221
96.633 135541 368.159
96.7501 132633 364.188
96.8673 129920 360.444
96.9844 126438 355.581
97.1016 123847 351.919
97.2188 120424 347.022
97.336 119972 346.37
97.4532 116156 340.817
97.5704 114507 338.389
97.6877 110418 332.292
97.805 107657 328.111
97.9223 103634 321.922
98.0396 99612 315.614
98.1569 97846 312.803
98.2743 94566 307.516
98.3916 91669 302.769
98.509 89872 299.787
98.6264 86309 293.784
98.7438 83634 289.195
98.8612 78260 279.75
98.9786 70090 264.745
99.096 53763 231.868
99.2134 50626 225.002
99.3308 64257 253.49
99.4482 69091 262.852
99.5656 67662 260.119
99.6831 65231 255.404
99.8005 63166 251.328
99.9179 60979 246.939
100.035 59817 244.575
100.153 58444 241.752
100.27 57474 239.737
100.388 57710 240.229
100.505 58022 240.878
100.622 58693 242.266
100.74 59508 243.943
100.857 60981 246.943
100.975 63545 252.081
101.092 65161 255.267
101.209 66954 258.755
101.327 70165 264.887
101.444 72256 268.805
101.561 75415 274.618
101.679 78099 279.462
101.796 80535 283.787
101.913 84203 290.178
102.03 87779 296.275
102.148 90942 301.566
102.265 99583 315.568
102.382 91588 302.635
102.499 90489 300.814
102.616 71040 266.533
102.733 67217 259.262
102.851 96069 309.95
102.968 112299 335.11
103.085 118551 344.312
103.202 120722 347.451
103.319 123784 351.83
103.436 126087 355.087
103.552 129191 359.431
103.669 131135 362.126
103.786 133517 365.4
103.903 136134 368.963
104.02 139442 373.419
104.137 141816 376.585
104.253 148155 384.909
104.37 145682 381.683
104.487 152502 390.515
104.603 154797 393.442
104.72 156364 395.429
104.836 160195 400.244
104.953 162496 403.108
105.069 164152 405.157
105.186 167529 409.303
105.302 168972 411.062
105.418 170861 413.353
105.535 173189 416.16
105.651 174415 417.63
105.767 174175 417.343
105.883 160329 400.411
105.999 125649 354.47
106.115 0 1
106.231 0 1
106.347 0 1
106.463 0 1
106.579 0 1
106.694 0 1
106.81 0 1
106.926 0 1
107.041 0 1
107.157 0 1
109.576 0 1
109.692 0 1
109.807 0 1
109.923 0 1
110.039 0 1
110.155 0 1
110.27 0 1
110.386 0 1
110.502 0 1
110.618 163953 404.911
110.735 167680 409.487
110.851 160520 400.649
110.967 145348 381.245
111.083 125588 354.384
111.199 118118 343.683
111.316 137105 370.277
111.432 163555 404.419
111.549 172101 414.851
111.665 175195 418.563
111.782 173344 416.346
111.898 171558 414.196
112.015 170558 412.987
112.132 169249 411.399
112.248 167741 409.562
112.365 166373 407.888
112.482 163723 404.627
112.599 159046 398.806
112.716 159707 399.634
112.832 158278 397.842
112.949 155071 393.791
113.066 154908 393.584
113.183 153007 391.161
113.3 150323 387.715
113.417 148942 385.93
113.534 146796 383.14
113.652 145294 381.175
113.769 144031 379.514
113.886 141634 376.343
114.003 139320 373.256
114.12 137259 370.485
114.238 134290 366.456
114.355 130116 360.716
114.472 118847 344.742
114.589 100111 316.403
114.707 87977 296.609
114.824 90472 300.786
114.942 105540 324.869
115.059 119728 346.017
115.176 123010 350.728
115.294 122972 350.674
115.411 121358 348.365
115.529 119439 345.599
115.646 117090 342.184
115.764 115715 340.169
115.881 114405 338.238
115.999 111851 334.441
116.116 109284 330.581
116.234 109322 330.639
116.351 107255 327.498
116.469 105710 325.131
116.586 104350 323.033
116.704 102731 320.517
116.821 101137 318.02
116.939 100794 317.481
117.056 98678 314.131
117.174 96583 310.778
117.291 95771 309.469
117.409 94943 308.128
117.526 93680 306.072
117.644 93753 306.191
117.761 90876 301.456
117.879 89246 298.741
117.996 87159 295.227
118.114 86074 293.384
118.231 81783 285.977
118.349 70621 265.746
118.466 67545 259.894
118.584 72973 270.135
118.701 80752 284.169
118.819 84129 290.05
118.936 83684 289.282
119.053 82982 288.066
119.171 82417 287.084
119.288 81250 285.044
119.405 81230 285.009
119.523 78622 280.396
119.64 79014 281.094
119.757 77700 278.747
119.875 77198 277.845
119.992 76530 276.641
120.109 75333 274.469
120.226 75754 275.234
120.343 75216 274.255
120.46 75073 273.995
120.578 75213 274.25
120.695 74496 272.94
120.812 74741 273.388
120.929 74831 273.553
121.046 75128 274.095
121.163 74965 273.797
121.279 73268 270.681
121.396 67721 260.233
121.513 59855 244.653
121.63 56610 237.929
121.747 57413 239.61
121.863 66155 257.206
121.98 71855 268.058
122.097 71769 267.897
122.213 69754 264.11
122.33 69251 263.156
122.446 73214 270.581
122.563 76578 276.727
122.679 77166 277.788
122.795 77566 278.507
122.912 78241 279.716
123.028 77455 278.307
123.144 77722 278.787
123.26 77187 277.825
123.377 0 1
123.493 0 1
123.609 0 1
123.725 0 1
123.84 0 1
123.956 0 1
124.072 0 1
124.188 0 1
124.303 0 1
124.419 0 1
126.852 0 1
126.968 0 1
127.083 0 1
127.199 0 1
127.315 0 1
127.431 0 1
127.547 0 1
127.663 0 1
127.779 0 1
127.895 0 1
128.011 0 1
128.127 0 1
128.243 0 1
128.359 112819 335.885
128.476 114280 338.053
128.592 114829 338.864
128.708 116382 341.148
128.825 117490 342.768
128.941 118384 344.07
129.058 118749 344.6
129.174 120836 347.615
129.291 121219 348.165
129.408 122286 349.694
129.524 122686 350.266
129.641 124617 353.011
129.758 125706 354.55
129.875 126524 355.702
129.992 126322 355.418
130.108 121049 347.921
130.225 112525 335.447
130.342 99427 315.32
130.459 79414 281.805
130.576 67953 260.678
130.693 67104 259.044
130.81 89329 298.88
130.928 117018 342.079
131.045 131784 363.021
131.162 136869 369.958
131.279 138780 372.532
131.396 139159 373.04
131.513 140192 374.422
131.631 141529 376.203
131.748 143652 379.015
131.865 143647 379.008
131.983 143390 378.669
132.1 145030 380.828
132.217 145559 381.522
132.335 146357 382.566
132.452 146698 383.012
132.57 147222 383.695
132.687 144218 379.76
132.804 153515 391.81
132.922 150045 387.356
133.039 149984 387.278
133.157 152044 389.928
133.274 151902 389.746
133.392 152952 391.091
133.509 150194 387.549
133.627 146382 382.599
133.744 137265 370.493
133.862 124173 352.382
133.979 109509 330.921
134.097 94145 306.831
134.214 87710 296.159
134.332 87473 295.758
134.449 112375 335.224
134.567 141002 375.502
134.684 157496 396.858
134.802 162349 402.926
134.919 164604 405.714
135.037 166245 407.732
135.154 167717 409.533
135.272 168754 410.797
135.389 167647 409.447
135.507 170467 412.876
135.624 171253 413.827
135.742 170858 413.35
135.859 172632 415.49
135.977 172524 415.36
136.094 174022 417.159
136.211 173127 416.085
136.329 174700 417.971
136.446 176315 419.899
136.564 176789 420.463
136.681 179579 423.768
136.798 177529 421.342
136.915 179174 423.289
137.033 178133 422.058
137.15 174151 417.314
137.267 167655 409.457
137.384 156639 395.776
137.502 142760 377.836
137.619 128484 358.447
137.736 118114 343.677
137.853 108406 329.251
137.97 109334 330.657
138.087 127965 357.722
138.204 152342 390.31
138.321 176538 420.164
138.438 188032 433.627
138.555 191265 437.339
138.672 194155 440.63
138.788 194319 440.816
138.905 196653 443.456
139.022 197692 444.626
139.139 198755 445.819
139.255 198339 445.353
139.372 198913 445.997
139.488 199670 446.844
139.605 199988 447.2
139.721 200513 447.787
139.838 201095 448.436
139.954 201706 449.117
140.071 199162 446.276
140.187 203663 451.29
140.303 201701 449.111
140.419 202319 449.799
140.535 201276 448.638
140.652 198999 446.093
140.768 0 1
140.884 0 1
141 0 1
141.115 0 1
141.231 0 1
141.347 0 1
141.463 0 1
141.578 0 1
141.694 0 1
144.104 0 1
144.219 0 1
144.335 0 1
144.45 0 1
144.566 0 1
144.682 0 1
144.798 0 1
144.914 0 1
145.03 0 1
145.146 193585 439.983
145.262 196455 443.232
145.378 196726 443.538
145.494 195012 441.602
145.61 192139 438.337
145.726 186727 432.119
145.842 180399 424.734
145.959 169766 412.027
146.075 160097 400.121
146.192 149817 387.062
146.308 141683 376.408
146.425 136493 369.45
146.541 136414 369.343
146.658 139308 373.24
146.774 148989 385.991
146.891 162910 403.621
147.008 181648 426.202
147.125 194810 441.373
147.241 198595 445.64
147.358 199896 447.097
147.475 200186 447.422
147.592 200064 447.285
147.709 200460 447.728
147.826 199626 446.795
147.943 199763 446.949
148.06 197768 444.711
148.177 197897 444.856
148.294 197965 444.933
148.411 198224 445.224
148.528 198478 445.509
148.645 197091 443.949
148.762 198257 445.261
148.88 197033 443.884
148.997 190036 435.931
149.114 201135 448.481
149.231 192061 438.248
149.349 187491 433.002
149.466 177811 421.676
149.583 168978 411.069
149.701 160799 400.998
149.818 152908 391.035
149.935 146450 382.688
150.053 143974 379.439
150.17 144648 380.326
150.287 149589 386.767
150.405 156466 395.558
150.522 168836 410.897
150.64 180342 424.667
150.757 191556 437.671
150.875 199453 446.602
150.992 203313 450.902
151.11 198600 445.646
151.227 202680 450.2
151.344 201405 448.782
151.462 201865 449.294
151.579 203443 451.047
151.697 203670 451.298
151.814 204438 452.148
151.932 203466 451.072
152.049 204719 452.459
152.167 203980 451.641
152.284 204636 452.367
152.402 205473 453.291
152.519 204046 451.715
152.636 203986 451.648
152.754 200274 447.52
152.871 195257 441.879
152.989 187969 433.554
153.106 182326 426.996
153.223 174299 417.491
153.341 165267 406.53
153.458 158821 398.524
153.575 156014 394.986
153.693 155476 394.304
153.81 157255 396.554
153.927 161902 402.37
154.044 170736 413.202
154.162 182813 427.566
154.279 193636 440.041
154.396 202529 450.032
154.513 211185 459.549
154.63 213673 462.248
154.747 214348 462.977
154.864 213248 461.788
154.981 215133 463.824
155.098 215640 464.371
155.215 214746 463.407
155.332 215465 464.182
155.449 215236 463.935
155.566 215833 464.578
155.683 214722 463.381
155.8 216472 465.266
155.917 216484 465.278
156.033 217646 466.525
156.15 0 1
156.267 0 1
156.383 0 1
156.5 0 1
156.617 0 1
156.733 0 1
156.85 0 1
156.966 0 1
157.082 0 1
157.199 0 1
157.315 0 1
157.431 0 1
157.547 0 1
157.664 0 1
157.78 0 1
157.896 0 1
158.012 0 1
158.128 0 1
158.244 0 1
158.359 0 1
158.475 0 1
158.591 0 1
158.706 0 1
