
6.15755 0 1
6.2731 0 1
6.3887 0 1
6.50437 0 1
6.62009 0 1
6.73587 0 1
6.8517 0 1
6.96759 0 1
7.08353 0 1
7.19952 0 1
7.31557 0 1
7.43166 0 1
7.54781 0 1
7.664 0 1
7.78024 0 1
7.89653 0 1
8.01286 0 1
8.12924 0 1
8.24567 0 1
8.36213 0 1
8.47864 0 1
8.59519 0 1
8.71178 0 1
8.82841 0 1
8.94508 0 1
9.06179 0 1
9.17853 0 1
9.29531 0 1
9.41212 0 1
9.52897 0 1
9.64584 0 1
9.76276 0 1
9.8797 0 1
9.99667 0 1
10.1137 0 1
10.2307 0 1
10.3478 0 1
10.4648 0 1
10.5819 0 1
10.6991 0 1
10.8162 0 1
10.9334 0 1
11.0506 0 1
11.1678 0 1
11.285 0 1
11.4023 0 1
11.5196 0 1
11.6369 0 1
11.7542 0 1
11.8715 0 1
11.9888 0 1
12.1062 0 1
12.2235 0 1
12.3409 0 1
12.4582 0 1
12.5756 0 1
12.693 0 1
12.8104 0 1
12.9278 0 1
13.0452 0 1
13.1626 0 1
13.28 0 1
13.3974 0 1
13.5149 0 1
13.6323 0 1
13.7497 0 1
13.8671 0 1
13.9845 0 1
14.1019 0 1
14.2193 0 1
14.3367 0 1
14.4541 0 1
14.5714 0 1
14.6888 0 1
14.8062 0 1
14.9235 0 1
15.0408 0 0
15.1581 0 0
15.2755 0 0
15.3927 0 0
15.51 0 0
15.6273 0 0
15.7445 0 0
15.8617 0 0
15.9789 0 0
16.0961 0 0
16.2132 0 0
16.3304 0 0
16.4475 0 0
16.5646 0 0
16.6816 0 0
16.7986 0 0
16.9156 0 0
17.0326 0 0
17.1496 0 0
17.2665 0 0
17.3833 0 0
17.5002 0 0
17.617 0 0
17.7338 0 0
17.8505 0 0
17.9672 0 0
18.0839 0 0
18.2005 0 0
18.3171 0 0
18.4337 0 0
18.5502 0 0
18.6666 0 0
18.7831 0 0
18.8994 0 0
19.0158 0 0
19.1321 0 0
19.2483 0 0
19.3645 0 0
19.4806 0 0
19.5967 0 0
19.7128 0 0
19.8288 0 0
19.9447 0 0
20.0606 0 1
20.1764 0 1
20.2922 0 1
20.4079 0 1
20.5236 0 1
20.6392 0 1
20.7548 0 1
20.8702 0 1
23.3078 0 1
23.4233 0 1
23.539 0 1
23.6547 0 1
23.7704 0 1
23.8862 0 1
24.0021 0 1
24.118 0 1
24.234 0 1
24.35 0 1
24.4661 1236 35.1568
24.5822 1403 37.4566
24.6984 1483 38.5097
24.8146 1554 39.4208
24.9309 1875 43.3013
25.0472 2202 46.9255
25.1636 2449 49.4874
25.28 2449 49.4874
25.3965 2597 50.9608
25.513 2639 51.3712
25.6296 2695 51.9134
25.7462 2640 51.3809
25.8628 2670 51.672
25.9795 2728 52.2303
26.0962 2635 51.3323
26.213 2720 52.1536
26.3298 2849 53.376
26.4466 2652 51.4976
26.5635 2646 51.4393
26.6804 2676 51.7301
26.7973 2613 51.1175
26.9143 2658 51.5558
27.0313 2526 50.2593
27.1483 2556 50.5569
27.2653 2495 49.95
27.3824 2360 48.5798
27.4996 2320 48.1664
27.6167 2134 46.1952
27.7339 2216 47.0744
27.8511 2258 47.5184
27.9683 2413 49.1223
28.0855 2523 50.2295
28.2028 2553 50.5272
28.3201 2561 50.6063
28.4374 2512 50.1199
28.5547 2533 50.3289
28.6721 2484 49.8397
28.7894 2432 49.3153
28.9068 2533 50.3289
29.0242 2644 51.4198
29.1416 2524 50.2394
29.259 2560 50.5964
29.3764 2432 49.3153
29.4939 2358 48.5592
29.6113 2388 48.8672
29.7288 2445 49.4469
29.8463 2355 48.5283
29.9638 2389 48.8774
30.0812 2369 48.6724
30.1987 2457 49.5681
30.3162 2420 49.1935
30.4337 2450 49.4975
30.5512 2491 49.9099
30.6687 2443 49.4267
30.7862 2439 49.3862
30.9037 2285 47.8017
31.0212 2224 47.1593
31.1387 2220 47.1169
31.2562 2272 47.6655
31.3737 2458 49.5782
31.4912 2487 49.8698
31.6087 2548 50.4777
31.7262 2515 50.1498
31.8436 2548 50.4777
31.9611 2516 50.1597
32.0785 2500 50
32.1959 2441 49.4065
32.3134 2450 49.4975
32.4308 2308 48.0416
32.5482 2323 48.1975
32.6655 2303 47.9896
32.7829 2245 47.3814
32.9002 2285 47.8017
33.0176 2162 46.4973
33.1349 2247 47.4025
33.2522 2239 47.3181
33.3694 2155 46.422
33.4867 2138 46.2385
33.6039 2198 46.8828
33.7211 2159 46.465
33.8383 2374 48.7237
33.9554 2300 47.9583
34.0725 2360 48.5798
34.1896 2336 48.3322
34.3067 2426 49.2544
34.4237 2423 49.224
34.5407 2338 48.3529
34.6577 2246 47.392
34.7746 2194 46.8402
34.8915 2224 47.1593
35.0084 2370 48.6826
35.1252 2506 50.06
35.242 2490 49.8999
35.3587 2565 50.6458
35.4755 2338 48.3529
35.5921 2321 48.1768
35.7088 2323 48.1975
35.8254 2216 47.0744
35.9419 2178 46.669
36.0584 2082 45.6289
36.1749 2134 46.1952
36.2913 2146 46.3249
36.4077 2018 44.9222
36.524 1906 43.6578
36.6403 1726 41.5452
36.7565 1569 39.6106
36.8727 1498 38.704
36.9889 1493 38.6394
37.1049 1402 37.4433
37.221 0 1
37.3369 0 1
37.4529 0 1
37.5687 0 1
37.6845 0 1
37.8003 0 1
37.916 0 1
38.0316 0 1
38.1472 0 1
40.5851 0 1
40.7008 0 1
40.8164 0 1
40.9322 0 1
41.048 0 1
41.1639 0 1
41.2798 0 1
41.3958 0 1
41.5118 0 1
41.6279 0 1
41.744 1872 43.2666
41.8602 2406 49.051
41.9765 3013 54.8908
42.0928 3228 56.8155
42.2091 3289 57.3498
42.3255 3177 56.3649
42.4419 3271 57.1927
42.5584 3261 57.1052
42.675 3395 58.2666
42.7915 3442 58.6686
42.9081 3517 59.3043
43.0248 3488 59.0593
43.1415 3571 59.7578
43.2582 3291 57.3672
43.375 3063 55.3444
43.4918 3138 56.0179
43.6087 3148 56.107
43.7256 3290 57.3585
43.8425 3302 57.463
43.9595 3237 56.8946
44.0765 3174 56.3383
44.1935 3093 55.6147
44.3106 2961 54.4151
44.4277 2911 53.9537
44.5448 2815 53.0566
44.6619 2635 51.3323
44.7791 2491 49.9099
44.8963 2393 48.9183
45.0136 2223 47.1487
45.1308 2227 47.1911
45.2481 2041 45.1774
45.3654 2058 45.3652
45.4827 1936 44
45.6001 1937 44.0114
45.7174 1880 43.359
45.8348 1882 43.382
45.9522 1815 42.6028
46.0697 1944 44.0908
46.1871 2002 44.7437
46.3046 2037 45.1331
46.422 2077 45.5741
46.5395 2113 45.9674
46.657 2120 46.0435
46.7745 2130 46.1519
46.892 1977 44.4635
47.0096 1845 42.9535
47.1271 1976 44.4522
47.2446 1968 44.3621
47.3622 2013 44.8665
47.4797 2128 46.1303
47.5973 2082 45.6289
47.7149 2031 45.0666
47.8324 2057 45.3542
47.95 2030 45.0555
48.0675 1973 44.4185
48.1851 2005 44.7772
48.3027 1996 44.6766
48.4202 2021 44.9555
48.5378 1941 44.0568
48.6554 1925 43.8748
48.7729 1771 42.0833
48.8904 1787 42.2729
49.008 1801 42.4382
49.1255 1739 41.7013
49.243 1830 42.7785
49.3605 1892 43.4971
49.478 1956 44.2267
49.5955 1895 43.5316
49.713 1907 43.6692
49.8304 1944 44.0908
49.9479 2013 44.8665
50.0653 2009 44.8219
50.1827 2004 44.7661
50.3001 1871 43.2551
50.4175 1633 40.4104
50.5348 1621 40.2616
50.6521 1670 40.8656
50.7694 1849 43
50.8867 1977 44.4635
51.004 2058 45.3652
51.1212 2047 45.2438
51.2384 2115 45.9891
51.3556 2141 46.2709
51.4727 2032 45.0777
51.5899 1916 43.7721
51.707 1970 44.3847
51.824 2002 44.7437
51.9411 1969 44.3734
52.0581 1961 44.2832
52.175 1896 43.5431
52.2919 1878 43.3359
52.4088 1826 42.7317
52.5257 1833 42.8135
52.6425 1779 42.1782
52.7593 1808 42.5206
52.876 1817 42.6263
52.9927 1770 42.0714
53.1094 1750 41.833
53.226 1857 43.0929
53.3426 1818 42.638
53.4591 1785 42.2493
53.5756 1631 40.3856
53.692 1403 37.4566
53.8084 1350 36.7423
53.9248 1231 35.0856
54.0411 1043 32.2955
54.1573 1025 32.0156
54.2735 0 1
54.3896 0 1
54.5057 0 1
54.6217 0 1
54.7377 0 1
54.8537 0 1
54.9695 0 1
55.0853 0 1
55.2011 0 1
55.3168 0 1
55.4324 0 1
57.824 0 1
57.9396 0 1
58.0553 0 1
58.1711 0 1
58.2869 0 1
58.4028 0 1
58.5187 0 1
58.6347 0 1
58.7508 0 1
58.8669 0 1
58.983 1686 41.0609
59.0992 1617 40.2119
59.2155 1721 41.4849
59.3318 1766 42.0238
59.4482 1994 44.6542
59.5646 2058 45.3652
59.681 2279 47.7389
59.7975 2276 47.7074
59.9141 2404 49.0306
60.0306 2408 49.0714
60.1473 2426 49.2544
60.2639 2467 49.6689
60.3807 2288 47.833
60.4974 2307 48.0312
60.6142 2393 48.9183
60.731 2314 48.1041
60.8479 2404 49.0306
60.9648 2395 48.9387
61.0818 2367 48.6518
61.1987 2408 49.0714
61.3158 2387 48.8569
61.4328 2288 47.833
61.5499 2311 48.0729
61.667 2312 48.0833
61.7841 2297 47.927
61.9013 2293 47.8853
62.0185 2411 49.1019
62.1357 2390 48.8876
62.253 2399 48.9796
62.3702 2318 48.1456
62.4875 2194 46.8402
62.6049 2070 45.4973
62.7222 2138 46.2385
62.8396 2231 47.2335
62.9569 2321 48.1768
63.0743 2441 49.4065
63.1918 2543 50.4282
63.3092 2514 50.1398
63.4267 2481 49.8096
63.5441 2505 50.05
63.6616 2432 49.3153
63.7791 2372 48.7032
63.8966 2452 49.5177
64.0142 2422 49.2138
64.1317 2536 50.3587
64.2492 2438 49.3761
64.3668 2523 50.2295
64.4843 2390 48.8876
64.6019 2331 48.2804
64.7195 2325 48.2183
64.837 2306 48.0208
64.9546 2268 47.6235
65.0722 2188 46.7761
65.1898 2203 46.9361
65.3074 2199 46.8935
65.4249 2279 47.7389
65.5425 2343 48.4045
65.6601 2334 48.3115
65.7777 2323 48.1975
65.8952 2221 47.1275
66.0128 2148 46.3465
66.1304 1946 44.1135
66.2479 1915 43.7607
66.3655 2019 44.9333
66.483 2129 46.1411
66.6005 2361 48.5901
66.718 2487 49.8698
66.8355 2393 48.9183
66.953 2386 48.8467
67.0705 2378 48.7647
67.1879 2348 48.4562
67.3054 2389 48.8774
67.4228 2443 49.4267
67.5402 2398 48.9694
67.6576 2309 48.0521
67.7749 2281 47.7598
67.8923 2275 47.697
68.0096 2348 48.4562
68.1269 2266 47.6025
68.2442 2331 48.2804
68.3614 2299 47.9479
68.4787 2174 46.6262
68.5958 2193 46.8295
68.713 2206 46.9681
68.8302 2084 45.6508
68.9473 2062 45.4093
69.0643 2062 45.4093
69.1814 2285 47.8017
69.2984 2244 47.3709
69.4154 2217 47.085
69.5323 2211 47.0213
69.6492 2147 46.3357
69.7661 1813 42.5793
69.8829 1795 42.3674
69.9997 1861 43.1393
70.1165 2019 44.9333
70.2332 1966 44.3396
70.3499 1921 43.8292
70.4665 1756 41.9047
70.5831 1635 40.4351
70.6996 1490 38.6005
70.8161 1512 38.8844
70.9326 1457 38.1707
71.049 1342 36.6333
71.1653 1306 36.1386
71.2817 1279 35.7631
71.3979 1266 35.5809
71.5141 1151 33.9264
71.6303 1174 34.2637
71.7464 1032 32.1248
71.8624 0 1
71.9784 0 1
72.0944 0 1
72.2102 0 1
72.3261 0 1
72.4418 0 1
72.5575 0 1
72.6732 0 1
75.1054 0 1
75.2209 0 1
75.3365 0 1
75.4521 0 1
75.5678 0 1
75.6835 0 1
75.7993 0 1
75.9151 0 1
76.031 0 1
76.147 1859 43.1161
76.263 1972 44.4072
76.3791 2066 45.4533
76.4952 2063 45.4203
76.6113 2156 46.4327
76.7276 2167 46.551
76.8438 2143 46.2925
76.9601 2120 46.0435
77.0765 2146 46.3249
77.1929 2153 46.4004
77.3093 2236 47.2864
77.4258 2076 45.5631
77.5423 2078 45.5851
77.6589 2080 45.607
77.7755 2100 45.8258
77.8921 2027 45.0222
78.0088 2069 45.4863
78.1256 2136 46.2169
78.2423 2094 45.7602
78.3591 2188 46.7761
78.4759 2098 45.8039
78.5928 2118 46.0217
78.7097 1813 42.5793
78.8266 1616 40.1995
78.9436 1604 40.05
79.0606 1547 39.3319
79.1776 1821 42.6732
79.2946 2117 46.0109
79.4117 2190 46.7974
79.5288 2227 47.1911
79.6459 2279 47.7389
79.7631 2279 47.7389
79.8802 2260 47.5395
79.9974 2283 47.7807
80.1147 2240 47.3286
80.2319 2312 48.0833
80.3491 2179 46.6798
80.4664 2256 47.4974
80.5837 2250 47.4342
80.701 2374 48.7237
80.8183 2338 48.3529
80.9357 2299 47.9479
81.053 2341 48.3839
81.1704 2307 48.0312
81.2877 2335 48.3218
81.4051 2190 46.7974
81.5225 2322 48.1871
81.6399 2222 47.1381
81.7573 2345 48.4252
81.8747 2413 49.1223
81.9922 2430 49.295
82.1096 2535 50.3488
82.227 2625 51.2348
82.3444 2487 49.8698
82.4619 2171 46.594
82.5793 2080 45.607
82.6967 2155 46.422
82.8142 2730 52.2494
82.9316 3236 56.8859
83.049 3489 59.0678
83.1664 3558 59.649
83.2838 3714 60.9426
83.4012 3911 62.538
83.5186 3974 63.0397
83.636 3915 62.57
83.7534 4180 64.6529
83.8708 4204 64.8383
83.9881 4220 64.9615
84.1055 4396 66.3023
84.2228 4313 65.6734
84.3401 4292 65.5134
84.4575 4313 65.6734
84.5747 4390 66.2571
84.692 4286 65.4675
84.8093 4262 65.284
84.9265 4090 63.9531
85.0437 4126 64.2339
85.1609 4186 64.6993
85.2781 4112 64.1249
85.3952 4052 63.6553
85.5123 4119 64.1794
85.6294 4115 64.1483
85.7465 4002 63.2614
85.8636 3687 60.7207
85.9806 3305 57.4891
86.0976 2702 51.9808
86.2145 2624 51.225
86.3315 2979 54.5802
86.4484 3802 61.6604
86.5652 3895 62.4099
86.682 4079 63.867
86.7988 4114 64.1405
86.9156 4014 63.3561
87.0323 4015 63.364
87.149 4123 64.2106
87.2657 4182 64.6684
87.3823 4128 64.2495
87.4988 3864 62.1611
87.6154 3543 59.5231
87.7318 3223 56.7715
87.8483 3141 56.0446
87.9647 3066 55.3715
88.081 2955 54.3599
88.1973 2851 53.3948
88.3136 2792 52.8394
88.4298 2523 50.2295
88.546 2403 49.0204
88.6621 2399 48.9796
88.7781 2373 48.7134
88.8942 0 1
89.0101 0 1
89.126 0 1
89.2419 0 1
89.3577 0 1
89.4734 0 1
89.5891 0 1
89.7047 0 1
89.8203 0 1
89.9358 0 1
92.3269 0 1
92.4424 0 1
92.558 0 1
92.6736 0 1
92.7893 0 1
92.905 0 1
93.0208 0 1
93.1366 0 1
93.2525 0 1
93.3685 0 1
93.4845 0 1
93.6005 4435 66.5958
93.7167 4372 66.1211
93.8328 4337 65.8559
93.949 4314 65.681
94.0653 4305 65.6125
94.1816 4234 65.0692
94.2979 4263 65.2917
94.4143 4373 66.1287
94.5307 4249 65.1844
94.6472 4156 64.467
94.7637 4102 64.0469
94.8803 3612 60.0999
94.9969 3319 57.6108
95.1135 2887 53.7308
95.2302 3109 55.7584
95.3469 3490 59.0762
95.4637 3910 62.53
95.5805 4312 65.6658
95.6973 4246 65.1613
95.8142 4316 65.6963
95.9311 4510 67.1565
96.048 4398 66.3174
96.1649 4448 66.6933
96.2819 4349 65.9469
96.3989 4430 66.5582
96.516 4364 66.0606
96.633 4487 66.9851
96.7501 4460 66.7832
96.8673 4508 67.1416
96.9844 4471 66.8655
97.1016 4434 66.5883
97.2188 4423 66.5056
97.336 4394 66.2873
97.4532 4357 66.0076
97.5704 4267 65.3223
97.6877 4209 64.8768
97.805 4097 64.0078
97.9223 4082 63.8905
98.0396 4115 64.1483
98.1569 3903 62.474
98.2743 3757 61.2944
98.3916 3366 58.0172
98.509 2907 53.9166
98.6264 2600 50.9902
98.7438 2662 51.5946
98.8612 2868 53.5537
98.9786 3090 55.5878
99.096 3198 56.5509
99.2134 3071 55.4166
99.3308 3029 55.0364
99.4482 2924 54.074
99.5656 2880 53.6656
99.6831 2787 52.792
99.8005 2801 52.9245
99.9179 2851 53.3948
100.035 2803 52.9434
100.153 2864 53.5164
100.27 2883 53.6936
100.388 2943 54.2494
100.505 3000 54.7723
100.622 2993 54.7083
100.74 2948 54.2955
100.857 2927 54.1018
100.975 2983 54.6168
101.092 2880 53.6656
101.209 2945 54.2679
101.327 2836 53.2541
101.444 2771 52.6403
101.561 2970 54.4977
101.679 2978 54.5711
101.796 2883 53.6936
101.913 2858 53.4603
102.03 2572 50.7149
102.148 2277 47.7179
102.265 2024 44.9889
102.382 2325 48.2183
102.499 2517 50.1697
102.616 2789 52.811
102.733 2718 52.1344
102.851 2856 53.4416
102.968 2671 51.6817
103.085 2671 51.6817
103.202 2640 51.3809
103.319 2712 52.0769
103.436 2702 51.9808
103.552 2462 49.6185
103.669 2643 51.4101
103.786 2630 51.2835
103.903 2692 51.8845
104.02 2667 51.643
104.137 2689 51.8556
104.253 2784 52.7636
104.37 2738 52.3259
104.487 2636 51.342
104.603 2489 49.8899
104.72 2543 50.4282
104.836 2306 48.0208
104.953 2100 45.8258
105.069 1809 42.5323
105.186 1711 41.3642
105.302 1637 40.4599
105.418 1443 37.9868
105.535 1393 37.3229
105.651 1125 33.541
105.767 972 31.1769
105.883 825 28.7228
105.999 882 29.6985
106.115 0 1
106.231 0 1
106.347 0 1
106.463 0 1
106.579 0 1
106.694 0 1
106.81 0 1
106.926 0 1
107.041 0 1
107.157 0 1
109.576 0 1
109.692 0 1
109.807 0 1
109.923 0 1
110.039 0 1
110.155 0 1
110.27 0 1
110.386 0 1
110.502 0 1
110.618 2706 52.0192
110.735 2729 52.2398
110.851 2687 51.8363
110.967 2415 49.1426
111.083 2391 48.8979
111.199 2442 49.4166
111.316 2827 53.1695
111.432 2894 53.7959
111.549 3001 54.7814
111.665 2926 54.0925
111.782 2831 53.2071
111.898 2939 54.2125
112.015 2908 53.9259
112.132 2959 54.3967
112.248 2937 54.1941
112.365 2842 53.3104
112.482 2871 53.5817
112.599 3073 55.4346
112.716 3167 56.2761
112.832 3233 56.8595
112.949 3145 56.0803
113.066 3248 56.9912
113.183 3200 56.5685
113.3 3178 56.3738
113.417 3142 56.0535
113.534 3206 56.6216
113.652 3201 56.5774
113.769 3186 56.4447
113.886 3257 57.0701
114.003 3206 56.6216
114.12 3234 56.8683
114.238 3139 56.0268
114.355 2945 54.2679
114.472 2648 51.4587
114.589 2326 48.2286
114.707 2460 49.5984
114.824 2766 52.5928
114.942 2979 54.5802
115.059 3086 55.5518
115.176 3086 55.5518
115.294 3098 55.6597
115.411 3029 55.0364
115.529 3049 55.2178
115.646 3004 54.8088
115.764 2986 54.6443
115.881 3001 54.7814
115.999 3011 54.8726
116.116 3081 55.5068
116.234 3090 55.5878
116.351 3256 57.0614
116.469 3209 56.648
116.586 3360 57.9655
116.704 3302 57.463
116.821 3261 57.1052
116.939 3305 57.4891
117.056 3320 57.6194
117.174 3289 57.3498
117.291 3281 57.28
117.409 3240 56.921
117.526 3315 57.576
117.644 3284 57.3062
117.761 3167 56.2761
117.879 3130 55.9464
117.996 2823 53.1319
118.114 2551 50.5074
118.231 2558 50.5767
118.349 2697 51.9326
118.466 2872 53.591
118.584 3039 55.1271
118.701 3058 55.2992
118.819 2997 54.7449
118.936 2952 54.3323
119.053 2947 54.2863
119.171 2915 53.9907
119.288 2880 53.6656
119.405 2968 54.4794
119.523 2884 53.7029
119.64 2852 53.4041
119.757 2862 53.4977
119.875 3004 54.8088
119.992 2968 54.4794
120.109 2944 54.2586
120.226 3052 55.2449
120.343 3123 55.8838
120.46 3146 56.0892
120.578 3036 55.0999
120.695 3113 55.7943
120.812 3071 55.4166
120.929 3046 55.1906
121.046 3018 54.9363
121.163 3058 55.2992
121.279 2955 54.3599
121.396 3049 55.2178
121.513 2907 53.9166
121.63 2652 51.4976
121.747 2356 48.5386
121.863 2100 45.8258
121.98 2014 44.8776
122.097 2064 45.4313
122.213 2115 45.9891
122.33 2155 46.422
122.446 2116 46
122.563 1952 44.1814
122.679 2024 44.9889
122.795 1900 43.589
122.912 1891 43.4856
123.028 1770 42.0714
123.144 1726 41.5452
123.26 1752 41.8569
123.377 0 1
123.493 0 1
123.609 0 1
123.725 0 1
123.84 0 1
123.956 0 1
124.072 0 1
124.188 0 1
124.303 0 1
124.419 0 1
126.852 0 1
126.968 0 1
127.083 0 1
127.199 0 1
127.315 0 1
127.431 0 1
127.547 0 1
127.663 0 1
127.779 0 1
127.895 0 1
128.011 0 1
128.127 0 1
128.243 0 1
128.359 3539 59.4895
128.476 3449 58.7282
128.592 3402 58.3267
128.708 3578 59.8164
128.825 3480 58.9915
128.941 3504 59.1946
129.058 3548 59.5651
129.174 3650 60.4152
129.291 3715 60.9508
129.408 3789 61.5549
129.524 3889 62.3618
129.641 3957 62.9047
129.758 4013 63.3482
129.875 4066 63.7652
129.992 4117 64.1639
130.108 4109 64.1015
130.225 4088 63.9375
130.342 3967 62.9841
130.459 3925 62.6498
130.576 3959 62.9206
130.693 3762 61.3351
130.81 3486 59.0424
130.928 3623 60.1914
131.045 3803 61.6685
131.162 3735 61.1146
131.279 3991 63.1744
131.396 3893 62.3939
131.513 3910 62.53
131.631 3900 62.45
131.748 3984 63.1189
131.865 3816 61.7738
131.983 3958 62.9126
132.1 3869 62.2013
132.217 3954 62.8808
132.335 3845 62.0081
132.452 3761 61.327
132.57 3919 62.6019
132.687 3778 61.4654
132.804 4042 63.5767
132.922 3858 62.1128
133.039 3903 62.474
133.157 3867 62.1852
133.274 4045 63.6003
133.392 4071 63.8044
133.509 4180 64.6529
133.627 4280 65.4217
133.744 4402 66.3476
133.862 4449 66.7008
133.979 4261 65.2763
134.097 4308 65.6354
134.214 4175 64.6142
134.332 4052 63.6553
134.449 3902 62.466
134.567 4173 64.5988
134.684 4163 64.5213
134.802 4351 65.9621
134.919 4214 64.9153
135.037 4230 65.0385
135.154 4206 64.8537
135.272 4184 64.6838
135.389 4258 65.2534
135.507 4201 64.8151
135.624 4017 63.3798
135.742 4010 63.3246
135.859 4091 63.9609
135.977 4005 63.2851
136.094 3969 63
136.211 4013 63.3482
136.329 3908 62.514
136.446 4073 63.8201
136.564 3939 62.7615
136.681 4053 63.6632
136.798 4234 65.0692
136.915 4035 63.5216
137.033 4183 64.6761
137.15 4237 65.0922
137.267 4303 65.5973
137.384 4228 65.0231
137.502 4252 65.2074
137.619 4241 65.123
137.736 4125 64.2262
137.853 3918 62.5939
137.97 3836 61.9355
138.087 3733 61.0983
138.204 3956 62.8967
138.321 3893 62.3939
138.438 4059 63.7103
138.555 4205 64.846
138.672 3988 63.1506
138.788 3978 63.0714
138.905 4022 63.4192
139.022 3877 62.2656
139.139 3760 61.3188
139.255 3632 60.2661
139.372 3414 58.4294
139.488 3232 56.8507
139.605 3214 56.6922
139.721 3103 55.7046
139.838 2932 54.1479
139.954 2921 54.0463
140.071 2778 52.7067
140.187 2766 52.5928
140.303 2841 53.301
140.419 2821 53.1131
140.535 2874 53.6097
140.652 2887 53.7308
140.768 0 1
140.884 0 1
141 0 1
141.115 0 1
141.231 0 1
141.347 0 1
141.463 0 1
141.578 0 1
141.694 0 1
144.104 0 1
144.219 0 1
144.335 0 1
144.45 0 1
144.566 0 1
144.682 0 1
144.798 0 1
144.914 0 1
145.03 0 1
145.146 8416 91.7388
145.262 8544 92.4338
145.378 8699 93.2684
145.494 8923 94.4616
145.61 8983 94.7787
145.726 9070 95.2365
145.842 8983 94.7787
145.959 9006 94.8999
146.075 9158 95.6974
146.192 8929 94.4934
146.308 8928 94.4881
146.425 8803 93.8243
146.541 7916 88.9719
146.658 6910 83.1264
146.774 6004 77.4855
146.891 5714 75.591
147.008 6458 80.3617
147.125 7764 88.1136
147.241 8513 92.2659
147.358 8728 93.4238
147.475 8720 93.3809
147.592 8907 94.3769
147.709 9008 94.9105
147.826 8984 94.784
147.943 8653 93.0215
148.06 8784 93.723
148.177 8902 94.3504
148.294 8648 92.9946
148.411 8859 94.1223
148.528 8890 94.2868
148.645 8899 94.3345
148.762 8973 94.7259
148.88 8996 94.8472
148.997 8801 93.8136
149.114 9382 96.8607
149.231 8806 93.8403
149.349 9126 95.5301
149.466 8947 94.5886
149.583 9326 96.5712
149.701 9126 95.5301
149.818 9140 95.6033
149.935 9077 95.2733
150.053 9143 95.619
150.17 8429 91.8096
150.287 7843 88.5607
150.405 6554 80.9568
150.522 5968 77.2528
150.64 6369 79.806
150.757 7506 86.6372
150.875 8429 91.8096
150.992 8862 94.1382
151.11 8670 93.1128
151.227 8804 93.8296
151.344 8679 93.1612
151.462 8486 92.1195
151.579 8938 94.541
151.697 8815 93.8882
151.814 8845 94.0479
151.932 8804 93.8296
152.049 8862 94.1382
152.167 8948 94.5939
152.284 9098 95.3834
152.402 9078 95.2785
152.519 9014 94.9421
152.636 9083 95.3048
152.754 9124 95.5196
152.871 9178 95.8019
152.989 9354 96.7161
153.106 9237 96.1093
153.223 9219 96.0156
153.341 9310 96.4883
153.458 9534 97.6422
153.575 9306 96.4676
153.693 9263 96.2445
153.81 8924 94.4669
153.927 7966 89.2525
154.044 6881 82.9518
154.162 6341 79.6304
154.279 6941 83.3127
154.396 8130 90.1665
154.513 8903 94.3557
154.63 9236 96.1041
154.747 9158 95.6974
154.864 9199 95.9114
154.981 9164 95.7288
155.098 9092 95.352
155.215 9016 94.9526
155.332 8685 93.1933
155.449 8500 92.1954
155.566 8406 91.6842
155.683 8448 91.913
155.8 8071 89.8387
155.917 7914 88.9607
156.033 7873 88.7299
156.15 0 1
156.267 0 1
156.383 0 1
156.5 0 1
156.617 0 1
156.733 0 1
156.85 0 1
156.966 0 1
157.082 0 1
157.199 0 1
157.315 0 1
157.431 0 1
157.547 0 1
157.664 0 1
157.78 0 1
157.896 0 1
158.012 0 1
158.128 0 1
158.244 0 1
158.359 0 1
158.475 0 1
158.591 0 1
158.706 0 1
