
6.15755 0 1
6.2731 0 1
6.3887 0 1
6.50437 0 1
6.62009 0 1
6.73587 0 1
6.8517 0 1
6.96759 0 1
7.08353 0 1
7.19952 0 1
7.31557 0 1
7.43166 0 1
7.54781 0 1
7.664 0 1
7.78024 0 1
7.89653 0 1
8.01286 0 1
8.12924 0 1
8.24567 0 1
8.36213 0 1
8.47864 0 1
8.59519 0 1
8.71178 0 1
8.82841 0 1
8.94508 0 1
9.06179 0 1
9.17853 0 1
9.29531 0 1
9.41212 0 1
9.52897 0 1
9.64584 0 1
9.76276 0 1
9.8797 0 1
9.99667 0 1
10.1137 0 1
10.2307 0 1
10.3478 0 1
10.4648 0 1
10.5819 0 1
10.6991 0 1
10.8162 0 1
10.9334 0 1
11.0506 0 1
11.1678 0 1
11.285 0 1
11.4023 0 1
11.5196 0 1
11.6369 0 1
11.7542 0 1
11.8715 0 1
11.9888 0 1
12.1062 0 1
12.2235 0 1
12.3409 0 1
12.4582 0 1
12.5756 0 1
12.693 0 1
12.8104 0 1
12.9278 0 1
13.0452 0 1
13.1626 0 1
13.28 0 1
13.3974 0 1
13.5149 0 1
13.6323 0 1
13.7497 0 1
13.8671 0 1
13.9845 0 1
14.1019 0 1
14.2193 0 1
14.3367 0 1
14.4541 0 1
14.5714 0 1
14.6888 0 1
14.8062 0 1
14.9235 0 1
15.0408 843 29.0345
15.1581 869 29.4788
15.2755 883 29.7153
15.3927 883 29.7153
15.51 860 29.3258
15.6273 857 29.2746
15.7445 841 29
15.8617 915 30.249
15.9789 863 29.3769
16.0961 795 28.1957
16.2132 817 28.5832
16.3304 781 27.9464
16.4475 838 28.9482
16.5646 781 27.9464
16.6816 758 27.5318
16.7986 777 27.8747
16.9156 821 28.6531
17.0326 801 28.3019
17.1496 843 29.0345
17.2665 840 28.9828
17.3833 782 27.9643
17.5002 832 28.8444
17.617 797 28.2312
17.7338 813 28.5132
17.8505 814 28.5307
17.9672 796 28.2135
18.0839 795 28.1957
18.2005 856 29.2575
18.3171 801 28.3019
18.4337 770 27.7489
18.5502 760 27.5681
18.6666 736 27.1293
18.7831 802 28.3196
18.8994 809 28.4429
19.0158 760 27.5681
19.1321 700 26.4575
19.2483 709 26.6271
19.3645 634 25.1794
19.4806 691 26.2869
19.5967 676 26
19.7128 618 24.8596
19.8288 572 23.9165
19.9447 489 22.1133
20.0606 0 1
20.1764 0 1
20.2922 0 1
20.4079 0 1
20.5236 0 1
20.6392 0 1
20.7548 0 1
20.8702 0 1
23.3078 0 1
23.4233 0 1
23.539 0 1
23.6547 0 1
23.7704 0 1
23.8862 0 1
24.0021 0 1
24.118 0 1
24.234 0 1
24.35 0 1
24.4661 324 18
24.5822 397 19.9249
24.6984 447 21.1424
24.8146 431 20.7605
24.9309 591 24.3105
25.0472 631 25.1197
25.1636 667 25.8263
25.28 696 26.3818
25.3965 811 28.4781
25.513 797 28.2312
25.6296 845 29.0689
25.7462 896 29.9333
25.8628 893 29.8831
25.9795 833 28.8617
26.0962 908 30.133
26.213 794 28.178
26.3298 848 29.1204
26.4466 782 27.9643
26.5635 779 27.9106
26.6804 726 26.9444
26.7973 749 27.3679
26.9143 756 27.4955
27.0313 676 26
27.1483 713 26.7021
27.2653 680 26.0768
27.3824 740 27.2029
27.4996 760 27.5681
27.6167 731 27.037
27.7339 715 26.7395
27.8511 664 25.7682
27.9683 767 27.6948
28.0855 759 27.55
28.2028 775 27.8388
28.3201 778 27.8927
28.4374 802 28.3196
28.5547 754 27.4591
28.6721 726 26.9444
28.7894 749 27.3679
28.9068 709 26.6271
29.0242 746 27.313
29.1416 720 26.8328
29.259 729 27
29.3764 790 28.1069
29.4939 761 27.5862
29.6113 731 27.037
29.7288 685 26.1725
29.8463 699 26.4386
29.9638 703 26.5141
30.0812 688 26.2298
30.1987 728 26.9815
30.3162 672 25.923
30.4337 719 26.8142
30.5512 675 25.9808
30.6687 679 26.0576
30.7862 740 27.2029
30.9037 728 26.9815
31.0212 794 28.178
31.1387 751 27.4044
31.2562 726 26.9444
31.3737 766 27.6767
31.4912 805 28.3725
31.6087 753 27.4408
31.7262 739 27.1846
31.8436 781 27.9464
31.9611 659 25.671
32.0785 718 26.7955
32.1959 656 25.6125
32.3134 637 25.2389
32.4308 660 25.6905
32.5482 700 26.4575
32.6655 664 25.7682
32.7829 665 25.7876
32.9002 667 25.8263
33.0176 662 25.7294
33.1349 636 25.219
33.2522 720 26.8328
33.3694 686 26.1916
33.4867 704 26.533
33.6039 634 25.1794
33.7211 676 26
33.8383 676 26
33.9554 713 26.7021
34.0725 667 25.8263
34.1896 649 25.4755
34.3067 672 25.923
34.4237 647 25.4362
34.5407 720 26.8328
34.6577 722 26.8701
34.7746 707 26.5895
34.8915 724 26.9072
35.0084 704 26.533
35.1252 667 25.8263
35.242 690 26.2679
35.3587 652 25.5343
35.4755 641 25.318
35.5921 603 24.5561
35.7088 614 24.779
35.8254 612 24.7386
35.9419 610 24.6982
36.0584 563 23.7276
36.1749 578 24.0416
36.2913 643 25.3574
36.4077 634 25.1794
36.524 607 24.6374
36.6403 559 23.6432
36.7565 575 23.9792
36.8727 501 22.383
36.9889 481 21.9317
37.1049 427 20.664
37.221 0 1
37.3369 0 1
37.4529 0 1
37.5687 0 1
37.6845 0 1
37.8003 0 1
37.916 0 1
38.0316 0 1
38.1472 0 1
40.5851 0 1
40.7008 0 1
40.8164 0 1
40.9322 0 1
41.048 0 1
41.1639 0 1
41.2798 0 1
41.3958 0 1
41.5118 0 1
41.6279 0 1
41.744 235 15.3297
41.8602 354 18.8149
41.9765 402 20.0499
42.0928 411 20.2731
42.2091 452 21.2603
42.3255 484 22
42.4419 523 22.8692
42.5584 511 22.6053
42.675 520 22.8035
42.7915 512 22.6274
42.9081 511 22.6053
43.0248 476 21.8174
43.1415 453 21.2838
43.2582 503 22.4277
43.375 512 22.6274
43.4918 553 23.516
43.6087 497 22.2935
43.7256 509 22.561
43.8425 513 22.6495
43.9595 489 22.1133
44.0765 495 22.2486
44.1935 537 23.1733
44.3106 493 22.2036
44.4277 487 22.0681
44.5448 443 21.0476
44.6619 477 21.8403
44.7791 453 21.2838
44.8963 417 20.4206
45.0136 535 23.1301
45.1308 516 22.7156
45.2481 472 21.7256
45.3654 549 23.4307
45.4827 544 23.3238
45.6001 570 23.8747
45.7174 522 22.8473
45.8348 522 22.8473
45.9522 574 23.9583
46.0697 538 23.1948
46.1871 552 23.4947
46.3046 527 22.9565
46.422 519 22.7816
46.5395 477 21.8403
46.657 478 21.8632
46.7745 462 21.4942
46.892 511 22.6053
47.0096 506 22.4944
47.1271 544 23.3238
47.2446 518 22.7596
47.3622 547 23.388
47.4797 531 23.0434
47.5973 494 22.2261
47.7149 502 22.4054
47.8324 509 22.561
47.95 486 22.0454
48.0675 470 21.6795
48.1851 431 20.7605
48.3027 460 21.4476
48.4202 408 20.199
48.5378 490 22.1359
48.6554 531 23.0434
48.7729 564 23.7487
48.8904 547 23.388
49.008 564 23.7487
49.1255 542 23.2809
49.243 566 23.7908
49.3605 560 23.6643
49.478 593 24.3516
49.5955 520 22.8035
49.713 538 23.1948
49.8304 542 23.2809
49.9479 471 21.7025
50.0653 466 21.587
50.1827 436 20.8806
50.3001 460 21.4476
50.4175 470 21.6795
50.5348 506 22.4944
50.6521 517 22.7376
50.7694 509 22.561
50.8867 511 22.6053
51.004 558 23.622
51.1212 563 23.7276
51.2384 516 22.7156
51.3556 551 23.4734
51.4727 486 22.0454
51.5899 464 21.5407
51.707 474 21.7715
51.824 438 20.9284
51.9411 494 22.2261
52.0581 591 24.3105
52.175 624 24.98
52.2919 653 25.5539
52.4088 663 25.7488
52.5257 702 26.4953
52.6425 710 26.6458
52.7593 710 26.6458
52.876 731 27.037
52.9927 740 27.2029
53.1094 717 26.7769
53.226 736 27.1293
53.3426 709 26.6271
53.4591 768 27.7128
53.5756 880 29.6648
53.692 1025 32.0156
53.8084 1214 34.8425
53.9248 1652 40.6448
54.0411 2273 47.676
54.1573 3040 55.1362
54.2735 0 1
54.3896 0 1
54.5057 0 1
54.6217 0 1
54.7377 0 1
54.8537 0 1
54.9695 0 1
55.0853 0 1
55.2011 0 1
55.3168 0 1
55.4324 0 1
57.824 0 1
57.9396 0 1
58.0553 0 1
58.1711 0 1
58.2869 0 1
58.4028 0 1
58.5187 0 1
58.6347 0 1
58.7508 0 1
58.8669 0 1
58.983 51526 226.993
59.0992 64102 253.184
59.2155 77860 279.034
59.3318 88658 297.755
59.4482 97754 312.656
59.5646 104306 322.964
59.681 110297 332.11
59.7975 113456 336.832
59.9141 114449 338.303
60.0306 112348 335.184
60.1473 106578 326.463
60.2639 97540 312.314
60.3807 87544 295.878
60.4974 80250 283.284
60.6142 75980 275.645
60.731 76084 275.833
60.8479 76157 275.966
60.9648 75901 275.501
61.0818 73349 270.83
61.1987 69774 264.148
61.3158 64285 253.545
61.4328 58694 242.268
61.5499 52657 229.471
61.667 46368 215.332
61.7841 40312 200.778
61.9013 33705 183.589
62.0185 27550 165.982
62.1357 21598 146.963
62.253 16507 128.48
62.3702 13530 116.319
62.4875 12294 110.878
62.6049 11671 108.032
62.7222 10737 103.619
62.8396 9050 95.1315
62.9569 7246 85.1234
63.0743 5521 74.3034
63.1918 3973 63.0317
63.3092 2959 54.3967
63.4267 2165 46.5296
63.5441 1683 41.0244
63.6616 1365 36.9459
63.7791 1132 33.6452
63.8966 869 29.4788
64.0142 735 27.1109
64.1317 719 26.8142
64.2492 771 27.7669
64.3668 790 28.1069
64.4843 799 28.2666
64.6019 728 26.9815
64.7195 782 27.9643
64.837 749 27.3679
64.9546 784 28
65.0722 754 27.4591
65.1898 727 26.9629
65.3074 728 26.9815
65.4249 717 26.7769
65.5425 699 26.4386
65.6601 668 25.8457
65.7777 603 24.5561
65.8952 569 23.8537
66.0128 597 24.4336
66.1304 548 23.4094
66.2479 573 23.9374
66.3655 547 23.388
66.483 568 23.8328
66.6005 577 24.0208
66.718 597 24.4336
66.8355 582 24.1247
66.953 610 24.6982
67.0705 588 24.2487
67.1879 557 23.6008
67.3054 541 23.2594
67.4228 544 23.3238
67.5402 488 22.0907
67.6576 497 22.2935
67.7749 546 23.3666
67.8923 538 23.1948
68.0096 526 22.9347
68.1269 555 23.5584
68.2442 510 22.5832
68.3614 515 22.6936
68.4787 545 23.3452
68.5958 534 23.1084
68.713 545 23.3452
68.8302 557 23.6008
68.9473 587 24.2281
69.0643 531 23.0434
69.1814 512 22.6274
69.2984 531 23.0434
69.4154 512 22.6274
69.5323 500 22.3607
69.6492 500 22.3607
69.7661 457 21.3776
69.8829 465 21.5639
69.9997 488 22.0907
70.1165 511 22.6053
70.2332 469 21.6564
70.3499 564 23.7487
70.4665 488 22.0907
70.5831 445 21.095
70.6996 454 21.3073
70.8161 397 19.9249
70.9326 409 20.2237
71.049 364 19.0788
71.1653 325 18.0278
71.2817 257 16.0312
71.3979 261 16.1555
71.5141 269 16.4012
71.6303 230 15.1658
71.7464 227 15.0665
71.8624 0 1
71.9784 0 1
72.0944 0 1
72.2102 0 1
72.3261 0 1
72.4418 0 1
72.5575 0 1
72.6732 0 1
75.1054 0 1
75.2209 0 1
75.3365 0 1
75.4521 0 1
75.5678 0 1
75.6835 0 1
75.7993 0 1
75.9151 0 1
76.031 0 1
76.147 327 18.0831
76.263 358 18.9209
76.3791 369 19.2094
76.4952 414 20.347
76.6113 407 20.1742
76.7276 433 20.8087
76.8438 459 21.4243
76.9601 467 21.6102
77.0765 491 22.1585
77.1929 463 21.5174
77.3093 431 20.7605
77.4258 449 21.1896
77.5423 491 22.1585
77.6589 470 21.6795
77.7755 477 21.8403
77.8921 504 22.4499
78.0088 504 22.4499
78.1256 478 21.8632
78.2423 517 22.7376
78.3591 405 20.1246
78.4759 391 19.7737
78.5928 405 20.1246
78.7097 386 19.6469
78.8266 428 20.6882
78.9436 456 21.3542
79.0606 470 21.6795
79.1776 468 21.6333
79.2946 507 22.5167
79.4117 493 22.2036
79.5288 487 22.0681
79.6459 513 22.6495
79.7631 463 21.5174
79.8802 454 21.3073
79.9974 439 20.9523
80.1147 407 20.1742
80.2319 479 21.8861
80.3491 488 22.0907
80.4664 471 21.7025
80.5837 532 23.0651
80.701 486 22.0454
80.8183 479 21.8861
80.9357 481 21.9317
81.053 450 21.2132
81.1704 489 22.1133
81.2877 471 21.7025
81.4051 541 23.2594
81.5225 508 22.5389
81.6399 477 21.8403
81.7573 453 21.2838
81.8747 450 21.2132
81.9922 449 21.1896
82.1096 451 21.2368
82.227 405 20.1246
82.3444 404 20.0998
82.4619 466 21.587
82.5793 421 20.5183
82.6967 512 22.6274
82.8142 461 21.4709
82.9316 494 22.2261
83.049 497 22.2935
83.1664 473 21.7486
83.2838 504 22.4499
83.4012 479 21.8861
83.5186 443 21.0476
83.636 438 20.9284
83.7534 454 21.3073
83.8708 452 21.2603
83.9881 479 21.8861
84.1055 479 21.8861
84.2228 457 21.3776
84.3401 470 21.6795
84.4575 495 22.2486
84.5747 453 21.2838
84.692 469 21.6564
84.8093 473 21.7486
84.9265 483 21.9773
85.0437 499 22.3383
85.1609 537 23.1733
85.2781 476 21.8174
85.3952 508 22.5389
85.5123 457 21.3776
85.6294 474 21.7715
85.7465 428 20.6882
85.8636 434 20.8327
85.9806 444 21.0713
86.0976 457 21.3776
86.2145 498 22.3159
86.3315 540 23.2379
86.4484 504 22.4499
86.5652 468 21.6333
86.682 474 21.7715
86.7988 489 22.1133
86.9156 507 22.5167
87.0323 540 23.2379
87.149 481 21.9317
87.2657 398 19.9499
87.3823 454 21.3073
87.4988 468 21.6333
87.6154 443 21.0476
87.7318 447 21.1424
87.8483 451 21.2368
87.9647 405 20.1246
88.081 405 20.1246
88.1973 321 17.9165
88.3136 315 17.7482
88.4298 322 17.9444
88.546 321 17.9165
88.6621 273 16.5227
88.7781 261 16.1555
88.8942 0 1
89.0101 0 1
89.126 0 1
89.2419 0 1
89.3577 0 1
89.4734 0 1
89.5891 0 1
89.7047 0 1
89.8203 0 1
89.9358 0 1
92.3269 0 1
92.4424 0 1
92.558 0 1
92.6736 0 1
92.7893 0 1
92.905 0 1
93.0208 0 1
93.1366 0 1
93.2525 0 1
93.3685 0 1
93.4845 0 1
93.6005 389 19.7231
93.7167 388 19.6977
93.8328 417 20.4206
93.949 418 20.445
94.0653 485 22.0227
94.1816 498 22.3159
94.2979 507 22.5167
94.4143 451 21.2368
94.5307 474 21.7715
94.6472 443 21.0476
94.7637 480 21.9089
94.8803 453 21.2838
94.9969 444 21.0713
95.1135 465 21.5639
95.2302 409 20.2237
95.3469 527 22.9565
95.4637 508 22.5389
95.5805 504 22.4499
95.6973 499 22.3383
95.8142 458 21.4009
95.9311 482 21.9545
96.048 484 22
96.1649 441 21
96.2819 452 21.2603
96.3989 451 21.2368
96.516 445 21.095
96.633 471 21.7025
96.7501 486 22.0454
96.8673 522 22.8473
96.9844 501 22.383
97.1016 502 22.4054
97.2188 429 20.7123
97.336 526 22.9347
97.4532 519 22.7816
97.5704 469 21.6564
97.6877 458 21.4009
97.805 504 22.4499
97.9223 515 22.6936
98.0396 440 20.9762
98.1569 524 22.891
98.2743 464 21.5407
98.3916 481 21.9317
98.509 449 21.1896
98.6264 480 21.9089
98.7438 436 20.8806
98.8612 499 22.3383
98.9786 534 23.1084
99.096 515 22.6936
99.2134 597 24.4336
99.3308 532 23.0651
99.4482 520 22.8035
99.5656 519 22.7816
99.6831 570 23.8747
99.8005 500 22.3607
99.9179 472 21.7256
100.035 460 21.4476
100.153 553 23.516
100.27 509 22.561
100.388 530 23.0217
100.505 502 22.4054
100.622 469 21.6564
100.74 513 22.6495
100.857 491 22.1585
100.975 511 22.6053
101.092 524 22.891
101.209 506 22.4944
101.327 501 22.383
101.444 517 22.7376
101.561 532 23.0651
101.679 515 22.6936
101.796 497 22.2935
101.913 489 22.1133
102.03 470 21.6795
102.148 491 22.1585
102.265 526 22.9347
102.382 511 22.6053
102.499 551 23.4734
102.616 565 23.7697
102.733 581 24.1039
102.851 565 23.7697
102.968 537 23.1733
103.085 568 23.8328
103.202 538 23.1948
103.319 504 22.4499
103.436 487 22.0681
103.552 521 22.8254
103.669 542 23.2809
103.786 556 23.5797
103.903 501 22.383
104.02 526 22.9347
104.137 532 23.0651
104.253 525 22.9129
104.37 538 23.1948
104.487 496 22.2711
104.603 541 23.2594
104.72 499 22.3383
104.836 538 23.1948
104.953 498 22.3159
105.069 490 22.1359
105.186 481 21.9317
105.302 440 20.9762
105.418 426 20.6398
105.535 373 19.3132
105.651 348 18.6548
105.767 309 17.5784
105.883 286 16.9115
105.999 264 16.2481
106.115 0 1
106.231 0 1
106.347 0 1
106.463 0 1
106.579 0 1
106.694 0 1
106.81 0 1
106.926 0 1
107.041 0 1
107.157 0 1
109.576 0 1
109.692 0 1
109.807 0 1
109.923 0 1
110.039 0 1
110.155 0 1
110.27 0 1
110.386 0 1
110.502 0 1
110.618 232 15.2315
110.735 280 16.7332
110.851 326 18.0555
110.967 370 19.2354
111.083 418 20.445
111.199 416 20.3961
111.316 475 21.7945
111.432 516 22.7156
111.549 508 22.5389
111.665 525 22.9129
111.782 482 21.9545
111.898 431 20.7605
112.015 498 22.3159
112.132 472 21.7256
112.248 461 21.4709
112.365 437 20.9045
112.482 500 22.3607
112.599 493 22.2036
112.716 499 22.3383
112.832 494 22.2261
112.949 492 22.1811
113.066 440 20.9762
113.183 472 21.7256
113.3 424 20.5913
113.417 467 21.6102
113.534 455 21.3307
113.652 472 21.7256
113.769 434 20.8327
113.886 452 21.2603
114.003 428 20.6882
114.12 442 21.0238
114.238 456 21.3542
114.355 424 20.5913
114.472 413 20.3224
114.589 455 21.3307
114.707 458 21.4009
114.824 446 21.1187
114.942 499 22.3383
115.059 479 21.8861
115.176 452 21.2603
115.294 498 22.3159
115.411 407 20.1742
115.529 423 20.567
115.646 433 20.8087
115.764 462 21.4942
115.881 450 21.2132
115.999 477 21.8403
116.116 464 21.5407
116.234 445 21.095
116.351 414 20.347
116.469 432 20.7846
116.586 417 20.4206
116.704 418 20.445
116.821 446 21.1187
116.939 423 20.567
117.056 441 21
117.174 428 20.6882
117.291 451 21.2368
117.409 433 20.8087
117.526 412 20.2978
117.644 424 20.5913
117.761 389 19.7231
117.879 402 20.0499
117.996 375 19.3649
118.114 427 20.664
118.231 453 21.2838
118.349 428 20.6882
118.466 475 21.7945
118.584 446 21.1187
118.701 469 21.6564
118.819 416 20.3961
118.936 418 20.445
119.053 447 21.1424
119.171 411 20.2731
119.288 393 19.8242
119.405 414 20.347
119.523 477 21.8403
119.64 439 20.9523
119.757 418 20.445
119.875 464 21.5407
119.992 443 21.0476
120.109 412 20.2978
120.226 437 20.9045
120.343 402 20.0499
120.46 417 20.4206
120.578 406 20.1494
120.695 418 20.445
120.812 401 20.025
120.929 423 20.567
121.046 398 19.9499
121.163 409 20.2237
121.279 371 19.2614
121.396 363 19.0526
121.513 361 19
121.63 384 19.5959
121.747 350 18.7083
121.863 346 18.6011
121.98 360 18.9737
122.097 316 17.7764
122.213 392 19.799
122.33 354 18.8149
122.446 316 17.7764
122.563 327 18.0831
122.679 251 15.843
122.795 277 16.6433
122.912 239 15.4596
123.028 218 14.7648
123.144 232 15.2315
123.26 218 14.7648
123.377 0 1
123.493 0 1
123.609 0 1
123.725 0 1
123.84 0 1
123.956 0 1
124.072 0 1
124.188 0 1
124.303 0 1
124.419 0 1
126.852 0 1
126.968 0 1
127.083 0 1
127.199 0 1
127.315 0 1
127.431 0 1
127.547 0 1
127.663 0 1
127.779 0 1
127.895 0 1
128.011 0 1
128.127 0 1
128.243 0 1
128.359 438 20.9284
128.476 404 20.0998
128.592 510 22.5832
128.708 506 22.4944
128.825 558 23.622
128.941 459 21.4243
129.058 506 22.4944
129.174 505 22.4722
129.291 475 21.7945
129.408 478 21.8632
129.524 504 22.4499
129.641 517 22.7376
129.758 550 23.4521
129.875 514 22.6716
129.992 579 24.0624
130.108 550 23.4521
130.225 539 23.2164
130.342 530 23.0217
130.459 568 23.8328
130.576 578 24.0416
130.693 601 24.5153
130.81 633 25.1595
130.928 582 24.1247
131.045 689 26.2488
131.162 754 27.4591
131.279 814 28.5307
131.396 805 28.3725
131.513 889 29.8161
131.631 876 29.5973
131.748 842 29.0172
131.865 825 28.7228
131.983 876 29.5973
132.1 960 30.9839
132.217 1068 32.6803
132.335 1086 32.9545
132.452 1115 33.3916
132.57 1198 34.6121
132.687 1123 33.5112
132.804 1129 33.6006
132.922 1193 34.5398
133.039 1241 35.2278
133.157 1249 35.3412
133.274 1267 35.5949
133.392 1270 35.6371
133.509 1279 35.7631
133.627 1189 34.4819
133.744 1265 35.5668
133.862 1183 34.3948
133.979 1131 33.6303
134.097 1182 34.3802
134.214 1096 33.1059
134.332 1161 34.0735
134.449 1169 34.1906
134.567 1198 34.6121
134.684 1257 35.4542
134.802 1202 34.6699
134.919 1313 36.2353
135.037 1368 36.9865
135.154 1259 35.4824
135.272 1167 34.1614
135.389 1083 32.909
135.507 1089 33
135.624 1217 34.8855
135.742 1347 36.7015
135.859 1352 36.7696
135.977 1308 36.1663
136.094 1208 34.7563
136.211 1288 35.8887
136.329 1284 35.8329
136.446 1332 36.4966
136.564 1222 34.9571
136.681 1324 36.3868
136.798 1267 35.5949
136.915 1273 35.6791
137.033 1220 34.9285
137.15 1236 35.1568
137.267 1218 34.8999
137.384 1197 34.5977
137.502 1125 33.541
137.619 1045 32.3265
137.736 1086 32.9545
137.853 1004 31.686
137.97 1022 31.9687
138.087 1019 31.9218
138.204 1039 32.2335
138.321 1079 32.8481
138.438 1100 33.1662
138.555 1121 33.4813
138.672 1169 34.1906
138.788 1092 33.0454
138.905 1030 32.0936
139.022 948 30.7896
139.139 953 30.8707
139.255 922 30.3645
139.372 893 29.8831
139.488 848 29.1204
139.605 879 29.6479
139.721 802 28.3196
139.838 739 27.1846
139.954 692 26.3059
140.071 633 25.1595
140.187 673 25.9422
140.303 602 24.5357
140.419 613 24.7588
140.535 615 24.7992
140.652 565 23.7697
140.768 0 1
140.884 0 1
141 0 1
141.115 0 1
141.231 0 1
141.347 0 1
141.463 0 1
141.578 0 1
141.694 0 1
144.104 0 1
144.219 0 1
144.335 0 1
144.45 0 1
144.566 0 1
144.682 0 1
144.798 0 1
144.914 0 1
145.03 0 1
145.146 1046 32.3419
145.262 1093 33.0606
145.378 1068 32.6803
145.494 1157 34.0147
145.61 1212 34.8138
145.726 1263 35.5387
145.842 1215 34.8569
145.959 1252 35.3836
146.075 1246 35.2987
146.192 1328 36.4417
146.308 1291 35.9305
146.425 1282 35.805
146.541 1236 35.1568
146.658 1190 34.4964
146.774 1152 33.9411
146.891 1151 33.9264
147.008 1241 35.2278
147.125 1295 35.9861
147.241 1442 37.9737
147.358 1428 37.7889
147.475 1492 38.6264
147.592 1479 38.4578
147.709 1426 37.7624
147.826 1477 38.4318
147.943 1352 36.7696
148.06 1384 37.2022
148.177 1312 36.2215
148.294 1534 39.1663
148.411 1500 38.7298
148.528 1611 40.1373
148.645 1530 39.1152
148.762 1560 39.4968
148.88 1477 38.4318
148.997 1528 39.0896
149.114 1555 39.4335
149.231 1621 40.2616
149.349 1628 40.3485
149.466 1547 39.3319
149.583 1601 40.0125
149.701 1576 39.6989
149.818 1606 40.0749
149.935 1635 40.4351
150.053 1571 39.6358
150.17 1564 39.5474
150.287 1477 38.4318
150.405 1383 37.1887
150.522 1356 36.8239
150.64 1399 37.4032
150.757 1523 39.0256
150.875 1550 39.37
150.992 1539 39.2301
151.11 1477 38.4318
151.227 1526 39.064
151.344 1487 38.5616
151.462 1542 39.2683
151.579 1533 39.1535
151.697 1620 40.2492
151.814 1565 39.5601
151.932 1665 40.8044
152.049 1620 40.2492
152.167 1676 40.939
152.284 1726 41.5452
152.402 1740 41.7133
152.519 1714 41.4005
152.636 1717 41.4367
152.754 1716 41.4246
152.871 1670 40.8656
152.989 1796 42.3792
153.106 1721 41.4849
153.223 1769 42.0595
153.341 1699 41.2189
153.458 1694 41.1582
153.575 1655 40.6817
153.693 1613 40.1622
153.81 1675 40.9268
153.927 1495 38.6652
154.044 1486 38.5487
154.162 1383 37.1887
154.279 1468 38.3145
154.396 1570 39.6232
154.513 1665 40.8044
154.63 1642 40.5216
154.747 1752 41.8569
154.864 1679 40.9756
154.981 1729 41.5812
155.098 1617 40.2119
155.215 1627 40.3361
155.332 1654 40.6694
155.449 1666 40.8167
155.566 1718 41.4488
155.683 1780 42.19
155.8 1855 43.0697
155.917 1838 42.8719
156.033 1818 42.638
156.15 0 1
156.267 0 1
156.383 0 1
156.5 0 1
156.617 0 1
156.733 0 1
156.85 0 1
156.966 0 1
157.082 0 1
157.199 0 1
157.315 0 1
157.431 0 1
157.547 0 1
157.664 0 1
157.78 0 1
157.896 0 1
158.012 0 1
158.128 0 1
158.244 0 1
158.359 0 1
158.475 0 1
158.591 0 1
158.706 0 1
