
6.15755 0 1
6.2731 0 1
6.3887 0 1
6.50437 0 1
6.62009 0 1
6.73587 0 1
6.8517 0 1
6.96759 0 1
7.08353 0 1
7.19952 0 1
7.31557 0 1
7.43166 0 1
7.54781 0 1
7.664 0 1
7.78024 0 1
7.89653 0 1
8.01286 0 1
8.12924 0 1
8.24567 0 1
8.36213 0 1
8.47864 0 1
8.59519 0 1
8.71178 0 1
8.82841 0 1
8.94508 0 1
9.06179 0 1
9.17853 0 1
9.29531 0 1
9.41212 0 1
9.52897 0 1
9.64584 0 1
9.76276 0 1
9.8797 0 1
9.99667 0 1
10.1137 0 1
10.2307 0 1
10.3478 0 1
10.4648 0 1
10.5819 0 1
10.6991 0 1
10.8162 0 1
10.9334 0 1
11.0506 0 1
11.1678 0 1
11.285 0 1
11.4023 0 1
11.5196 0 1
11.6369 0 1
11.7542 0 1
11.8715 0 1
11.9888 0 1
12.1062 0 1
12.2235 0 1
12.3409 0 1
12.4582 0 1
12.5756 0 1
12.693 0 1
12.8104 0 1
12.9278 0 1
13.0452 0 1
13.1626 0 1
13.28 0 1
13.3974 0 1
13.5149 0 1
13.6323 0 1
13.7497 0 1
13.8671 0 1
13.9845 0 1
14.1019 0 1
14.2193 0 1
14.3367 0 1
14.4541 0 1
14.5714 0 1
14.6888 0 1
14.8062 0 1
14.9235 0 1
15.0408 0 0
15.1581 0 0
15.2755 0 0
15.3927 0 0
15.51 0 0
15.6273 0 0
15.7445 0 0
15.8617 0 0
15.9789 0 0
16.0961 0 0
16.2132 0 0
16.3304 0 0
16.4475 0 0
16.5646 0 0
16.6816 0 0
16.7986 0 0
16.9156 0 0
17.0326 0 0
17.1496 0 0
17.2665 0 0
17.3833 0 0
17.5002 0 0
17.617 0 0
17.7338 0 0
17.8505 0 0
17.9672 0 0
18.0839 0 0
18.2005 0 0
18.3171 0 0
18.4337 0 0
18.5502 0 0
18.6666 0 0
18.7831 0 0
18.8994 0 0
19.0158 0 0
19.1321 0 0
19.2483 0 0
19.3645 0 0
19.4806 0 0
19.5967 0 0
19.7128 0 0
19.8288 0 0
19.9447 0 0
20.0606 0 1
20.1764 0 1
20.2922 0 1
20.4079 0 1
20.5236 0 1
20.6392 0 1
20.7548 0 1
20.8702 0 1
23.3078 0 1
23.4233 0 1
23.539 0 1
23.6547 0 1
23.7704 0 1
23.8862 0 1
24.0021 0 1
24.118 0 1
24.234 0 1
24.35 0 1
24.4661 63252 251.5
24.5822 63811 252.608
24.6984 64024 253.03
24.8146 65062 255.073
24.9309 66640 258.147
25.0472 67967 260.705
25.1636 69144 262.952
25.28 69561 263.744
25.3965 70733 265.957
25.513 70599 265.705
25.6296 71508 267.41
25.7462 72269 268.829
25.8628 71017 266.49
25.9795 71295 267.011
26.0962 70979 266.419
26.213 70695 265.885
26.3298 69005 262.688
26.4466 69453 263.539
26.5635 68035 260.835
26.6804 66265 257.42
26.7973 64461 253.892
26.9143 63075 251.147
27.0313 62125 249.249
27.1483 62483 249.966
27.2653 62813 250.625
27.3824 63247 251.49
27.4996 62474 249.948
27.6167 61141 247.267
27.7339 57943 240.714
27.8511 55922 236.478
27.9683 54675 233.827
28.0855 54079 232.549
28.2028 54874 234.252
28.3201 54721 233.925
28.4374 56865 238.464
28.5547 58182 241.209
28.6721 60308 245.577
28.7894 60886 246.751
28.9068 61997 248.992
29.0242 61423 247.837
29.1416 61876 248.749
29.259 61474 247.94
29.3764 60873 246.725
29.4939 61073 247.13
29.6113 60878 246.735
29.7288 60522 246.012
29.8463 59759 244.457
29.9638 59349 243.617
30.0812 58802 242.491
30.1987 57207 239.18
30.3162 55792 236.203
30.4337 54401 233.24
30.5512 53215 230.684
30.6687 52759 229.693
30.7862 53769 231.881
30.9037 53653 231.631
31.0212 54862 234.226
31.1387 53854 232.065
31.2562 52064 228.175
31.3737 50315 224.31
31.4912 48946 221.237
31.6087 48704 220.69
31.7262 49040 221.45
31.8436 50339 224.364
31.9611 51856 227.719
32.0785 52691 229.545
32.1959 53860 232.078
32.3134 54828 234.154
32.4308 54911 234.331
32.5482 55386 235.342
32.6655 55087 234.706
32.7829 54767 234.024
32.9002 55172 234.887
33.0176 54374 233.182
33.1349 54837 234.173
33.2522 54979 234.476
33.3694 54771 234.032
33.4867 54363 233.159
33.6039 54425 233.292
33.7211 53812 231.974
33.8383 52815 229.815
33.9554 51947 227.919
34.0725 49412 222.288
34.1896 49012 221.387
34.3067 47813 218.662
34.4237 48260 219.682
34.5407 48266 219.695
34.6577 48949 221.244
34.7746 48639 220.543
34.8915 47448 217.826
35.0084 45291 212.817
35.1252 44571 211.118
35.242 44212 210.266
35.3587 44572 211.121
35.4755 45434 213.153
35.5921 46911 216.589
35.7088 48245 219.647
35.8254 49088 221.558
35.9419 50660 225.078
36.0584 50785 225.355
36.1749 51439 226.802
36.2913 51077 226.002
36.4077 50951 225.723
36.524 50714 225.198
36.6403 50385 224.466
36.7565 50728 225.229
36.8727 50857 225.515
36.9889 50242 224.147
37.1049 48921 221.181
37.221 0 1
37.3369 0 1
37.4529 0 1
37.5687 0 1
37.6845 0 1
37.8003 0 1
37.916 0 1
38.0316 0 1
38.1472 0 1
40.5851 0 1
40.7008 0 1
40.8164 0 1
40.9322 0 1
41.048 0 1
41.1639 0 1
41.2798 0 1
41.3958 0 1
41.5118 0 1
41.6279 0 1
41.744 38479 196.161
41.8602 39107 197.755
41.9765 38913 197.264
42.0928 39155 197.876
42.2091 38991 197.461
42.3255 39088 197.707
42.4419 38806 196.992
42.5584 39170 197.914
42.675 38808 196.997
42.7915 37980 194.885
42.9081 36587 191.277
43.0248 35830 189.288
43.1415 35022 187.142
43.2582 34628 186.086
43.375 35055 187.23
43.4918 35746 189.066
43.6087 34438 185.575
43.7256 33567 183.213
43.8425 31941 178.72
43.9595 30836 175.602
44.0765 30577 174.863
44.1935 30828 175.579
44.3106 31093 176.332
44.4277 31868 178.516
44.5448 32698 180.826
44.6619 33166 182.115
44.7791 33403 182.765
44.8963 32813 181.144
45.0136 32809 181.133
45.1308 32485 180.236
45.2481 32114 179.204
45.3654 31782 178.275
45.4827 31435 177.299
45.6001 31438 177.308
45.7174 31507 177.502
45.8348 30705 175.228
45.9522 30671 175.131
46.0697 30560 174.814
46.1871 30342 174.19
46.3046 30103 173.502
46.422 29213 170.918
46.5395 28302 168.232
46.657 27430 165.62
46.7745 26319 162.231
46.892 26524 162.862
47.0096 26609 163.123
47.1271 26661 163.282
47.2446 26537 162.902
47.3622 25062 158.31
47.4797 23920 154.661
47.5973 23448 153.127
47.7149 23366 152.859
47.8324 23958 154.784
47.95 24401 156.208
48.0675 25029 158.206
48.1851 25192 158.72
48.3027 25479 159.621
48.4202 25215 158.792
48.5378 25085 158.382
48.6554 25278 158.991
48.7729 25016 158.164
48.8904 24986 158.07
49.008 25057 158.294
49.1255 25466 159.581
49.243 25664 160.2
49.3605 25445 159.515
49.478 25775 160.546
49.5955 25853 160.789
49.713 26264 162.062
49.8304 26454 162.647
49.9479 26177 161.793
50.0653 25592 159.975
50.1827 25444 159.512
50.3001 24654 157.016
50.4175 24824 157.556
50.5348 24912 157.835
50.6521 26353 162.336
50.7694 26769 163.612
50.8867 26336 162.284
51.004 26261 162.052
51.1212 26889 163.979
51.2384 27737 166.544
51.3556 29329 171.257
51.4727 30394 174.339
51.5899 31747 178.177
51.707 32679 180.773
51.824 33368 182.669
51.9411 33745 183.698
52.0581 33800 183.848
52.175 34478 185.683
52.2919 34509 185.766
52.4088 34485 185.701
52.5257 35908 189.494
52.6425 35560 188.574
52.7593 36097 189.992
52.876 36293 190.507
52.9927 37088 192.582
53.1094 36889 192.065
53.226 38081 195.144
53.3426 37901 194.682
53.4591 38626 196.535
53.5756 38414 195.995
53.692 37915 194.718
53.8084 36849 191.961
53.9248 36150 190.132
54.0411 35513 188.449
54.1573 36247 190.386
54.2735 0 1
54.3896 0 1
54.5057 0 1
54.6217 0 1
54.7377 0 1
54.8537 0 1
54.9695 0 1
55.0853 0 1
55.2011 0 1
55.3168 0 1
55.4324 0 1
57.824 0 1
57.9396 0 1
58.0553 0 1
58.1711 0 1
58.2869 0 1
58.4028 0 1
58.5187 0 1
58.6347 0 1
58.7508 0 1
58.8669 0 1
58.983 42798 206.877
59.0992 42233 205.507
59.2155 41297 203.217
59.3318 41096 202.721
59.4482 41245 203.089
59.5646 40789 201.963
59.681 40496 201.236
59.7975 40421 201.05
59.9141 41452 203.598
60.0306 42267 205.589
60.1473 43830 209.356
60.2639 44081 209.955
60.3807 44138 210.09
60.4974 44053 209.888
60.6142 43548 208.682
60.731 43160 207.75
60.8479 43474 208.504
60.9648 42764 206.795
61.0818 42754 206.77
61.1987 42409 205.934
61.3158 42890 207.099
61.4328 42648 206.514
61.5499 41794 204.436
61.667 42087 205.151
61.7841 42348 205.786
61.9013 41881 204.648
62.0185 42192 205.407
62.1357 41674 204.142
62.253 41276 203.165
62.3702 40849 202.111
62.4875 39198 197.985
62.6049 38799 196.975
62.7222 38568 196.387
62.8396 37620 193.959
62.9569 37682 194.119
63.0743 36759 191.726
63.1918 36071 189.924
63.3092 36549 191.178
63.4267 37749 194.291
63.5441 39025 197.547
63.6616 39769 199.422
63.7791 39753 199.382
63.8966 39610 199.023
64.0142 39318 198.288
64.1317 39229 198.063
64.2492 39399 198.492
64.3668 38788 196.947
64.4843 38542 196.321
64.6019 38726 196.789
64.7195 38347 195.824
64.837 38437 196.054
64.9546 38428 196.031
65.0722 38065 195.103
65.1898 37972 194.864
65.3074 39042 197.59
65.4249 38096 195.182
65.5425 37851 194.553
65.6601 38068 195.11
65.7777 38076 195.131
65.8952 38029 195.01
66.0128 37655 194.049
66.1304 36124 190.063
66.2479 34937 186.914
66.3655 34536 185.839
66.483 34260 185.095
66.6005 34150 184.797
66.718 33047 181.788
66.8355 33561 183.197
66.953 35141 187.459
67.0705 36086 189.963
67.1879 37147 192.736
67.3054 37496 193.639
67.4228 37348 193.256
67.5402 37169 192.793
67.6576 37654 194.046
67.7749 36193 190.245
67.8923 37113 192.647
68.0096 37050 192.484
68.1269 37275 193.067
68.2442 36988 192.323
68.3614 37214 192.909
68.4787 37446 193.51
68.5958 37501 193.652
68.713 37578 193.85
68.8302 37505 193.662
68.9473 37602 193.912
69.0643 37769 194.342
69.1814 37878 194.623
69.2984 38364 195.867
69.4154 38317 195.747
69.5323 38362 195.862
69.6492 38863 197.137
69.7661 38273 195.635
69.8829 36978 192.297
69.9997 36338 190.625
70.1165 35925 189.539
70.2332 35732 189.029
70.3499 33736 183.674
70.4665 33626 183.374
70.5831 35106 187.366
70.6996 36839 191.935
70.8161 38152 195.325
70.9326 38314 195.74
71.049 38276 195.643
71.1653 38312 195.735
71.2817 37186 192.837
71.3979 36910 192.12
71.5141 36214 190.3
71.6303 35472 188.34
71.7464 33162 182.104
71.8624 0 1
71.9784 0 1
72.0944 0 1
72.2102 0 1
72.3261 0 1
72.4418 0 1
72.5575 0 1
72.6732 0 1
75.1054 0 1
75.2209 0 1
75.3365 0 1
75.4521 0 1
75.5678 0 1
75.6835 0 1
75.7993 0 1
75.9151 0 1
76.031 0 1
76.147 33542 183.145
76.263 35625 188.746
76.3791 35898 189.468
76.4952 36132 190.084
76.6113 36166 190.174
76.7276 36625 191.377
76.8438 36169 190.181
76.9601 35917 189.518
77.0765 35768 189.124
77.1929 36417 190.832
77.3093 36038 189.837
77.4258 35903 189.481
77.5423 35882 189.425
77.6589 35796 189.198
77.7755 35810 189.235
77.8921 35340 187.989
78.0088 35518 188.462
78.1256 35119 187.401
78.2423 35023 187.144
78.3591 35244 187.734
78.4759 34798 186.542
78.5928 34704 186.29
78.7097 34842 186.66
78.8266 35958 189.626
78.9436 32883 181.337
79.0606 31583 177.716
79.1776 28298 168.22
79.2946 28087 167.592
79.4117 28945 170.132
79.5288 31492 177.46
79.6459 32782 181.058
79.7631 33205 182.222
79.8802 33115 181.975
79.9974 32376 179.933
80.1147 32429 180.081
80.2319 32143 179.285
80.3491 31874 178.533
80.4664 31592 177.741
80.5837 31490 177.454
80.701 31280 176.862
80.8183 31193 176.615
80.9357 31136 176.454
81.053 31353 177.068
81.1704 31082 176.301
81.2877 31268 176.828
81.4051 30461 174.531
81.5225 30332 174.161
81.6399 29546 171.889
81.7573 29792 172.604
81.8747 29811 172.659
81.9922 29456 171.628
82.1096 29656 172.209
82.227 29527 171.834
82.3444 29058 170.464
82.4619 29275 171.099
82.5793 28631 169.207
82.6967 29006 170.311
82.8142 25409 159.402
82.9316 22775 150.914
83.049 23039 151.786
83.1664 25488 159.65
83.2838 27362 165.415
83.4012 27324 165.3
83.5186 26875 163.936
83.636 26423 162.552
83.7534 26592 163.071
83.8708 26243 161.997
83.9881 26101 161.558
84.1055 26331 162.268
84.2228 25560 159.875
84.3401 25755 160.484
84.4575 25828 160.711
84.5747 26173 161.781
84.692 26098 161.549
84.8093 26297 162.163
84.9265 25780 160.562
85.0437 25610 160.031
85.1609 25614 160.044
85.2781 25439 159.496
85.3952 25560 159.875
85.5123 25405 159.389
85.6294 25391 159.346
85.7465 25495 159.672
85.8636 25565 159.891
85.9806 26039 161.366
86.0976 26240 161.988
86.2145 25722 160.381
86.3315 24353 156.054
86.4484 22960 151.526
86.5652 21783 147.591
86.682 24091 155.213
86.7988 25624 160.075
86.9156 25640 160.125
87.0323 25100 158.43
87.149 24979 158.047
87.2657 24818 157.537
87.3823 24800 157.48
87.4988 24256 155.743
87.6154 24822 157.55
87.7318 24576 156.767
87.8483 24554 156.697
87.9647 24641 156.975
88.081 24941 157.927
88.1973 25318 159.116
88.3136 25240 158.871
88.4298 25060 158.304
88.546 24854 157.652
88.6621 24334 155.994
88.7781 23920 154.661
88.8942 0 1
89.0101 0 1
89.126 0 1
89.2419 0 1
89.3577 0 1
89.4734 0 1
89.5891 0 1
89.7047 0 1
89.8203 0 1
89.9358 0 1
92.3269 0 1
92.4424 0 1
92.558 0 1
92.6736 0 1
92.7893 0 1
92.905 0 1
93.0208 0 1
93.1366 0 1
93.2525 0 1
93.3685 0 1
93.4845 0 1
93.6005 23494 153.278
93.7167 24022 154.99
93.8328 23980 154.855
93.949 24463 156.407
94.0653 24553 156.694
94.1816 24299 155.881
94.2979 24622 156.914
94.4143 24645 156.987
94.5307 24874 157.715
94.6472 24918 157.854
94.7637 24939 157.921
94.8803 25273 158.975
94.9969 26017 161.298
95.1135 25916 160.984
95.2302 26269 162.077
95.3469 26288 162.136
95.4637 26174 161.784
95.5805 24487 156.483
95.6973 22353 149.509
95.8142 22550 150.167
95.9311 25307 159.082
96.048 27135 164.727
96.1649 27700 166.433
96.2819 27532 165.928
96.3989 27286 165.185
96.516 27536 165.94
96.633 27503 165.84
96.7501 27596 166.12
96.8673 27355 165.393
96.9844 26927 164.094
97.1016 26933 164.113
97.2188 26631 163.19
97.336 27146 164.76
97.4532 27111 164.654
97.5704 26966 164.213
97.6877 26662 163.285
97.805 26714 163.444
97.9223 26150 161.71
98.0396 25947 161.081
98.1569 26076 161.481
98.2743 25912 160.972
98.3916 25888 160.897
98.509 26036 161.357
98.6264 25832 160.723
98.7438 25915 160.981
98.8612 25937 161.05
98.9786 26264 162.062
99.096 25524 159.762
99.2134 24220 155.628
99.3308 23048 151.816
99.4482 24079 155.174
99.5656 25379 159.308
99.6831 25856 160.798
99.8005 26088 161.518
99.9179 25619 160.059
100.035 25816 160.674
100.153 25644 160.137
100.27 25391 159.346
100.388 25757 160.49
100.505 25840 160.748
100.622 25947 161.081
100.74 25887 160.894
100.857 26030 161.338
100.975 26523 162.859
101.092 26832 163.805
101.209 26834 163.811
101.327 26740 163.524
101.444 26651 163.251
101.561 26695 163.386
101.679 26690 163.371
101.796 26775 163.631
101.913 26651 163.251
102.03 27021 164.381
102.148 27112 164.657
102.265 28511 168.852
102.382 26235 161.972
102.499 27345 165.363
102.616 26792 163.683
102.733 24899 157.794
102.851 23579 153.555
102.968 24886 157.753
103.085 25345 159.201
103.202 25973 161.161
103.319 26553 162.951
103.436 25960 161.121
103.552 25795 160.608
103.669 25514 159.731
103.786 25332 159.16
103.903 24943 157.934
104.02 24630 156.939
104.137 24451 156.368
104.253 25330 159.154
104.37 23772 154.182
104.487 24543 156.662
104.603 24513 156.566
104.72 24368 156.103
104.836 23386 152.925
104.953 23500 153.297
105.069 23193 152.292
105.186 23050 151.822
105.302 22580 150.266
105.418 22160 148.862
105.535 22155 148.846
105.651 21784 147.594
105.767 22140 148.795
105.883 22049 148.489
105.999 21655 147.156
106.115 0 1
106.231 0 1
106.347 0 1
106.463 0 1
106.579 0 1
106.694 0 1
106.81 0 1
106.926 0 1
107.041 0 1
107.157 0 1
109.576 0 1
109.692 0 1
109.807 0 1
109.923 0 1
110.039 0 1
110.155 0 1
110.27 0 1
110.386 0 1
110.502 0 1
110.618 13199 114.887
110.735 13832 117.61
110.851 13874 117.788
110.967 13838 117.635
111.083 13660 116.876
111.199 14306 119.608
111.316 14367 119.862
111.432 13793 117.444
111.549 13133 114.599
111.665 12224 110.562
111.782 12100 110
111.898 12831 113.274
112.015 13136 114.612
112.132 12930 113.71
112.248 12848 113.349
112.365 12791 113.097
112.482 12548 112.018
112.599 12054 109.791
112.716 12101 110.005
112.832 12239 110.63
112.949 12210 110.499
113.066 12169 110.313
113.183 12354 111.149
113.3 12144 110.2
113.417 12205 110.476
113.534 12150 110.227
113.652 12282 110.824
113.769 12426 111.472
113.886 12416 111.427
114.003 12517 111.879
114.12 12794 113.111
114.238 12765 112.982
114.355 12893 113.547
114.472 11903 109.101
114.589 10672 103.305
114.707 10607 102.99
114.824 12147 110.213
114.942 13500 116.19
115.059 13667 116.906
115.176 13390 115.715
115.294 13223 114.991
115.411 13197 114.878
115.529 13316 115.395
115.646 13690 117.004
115.764 13891 117.86
115.881 13819 117.554
115.999 14091 118.706
116.116 14052 118.541
116.234 14172 119.046
116.351 14105 118.764
116.469 14205 119.185
116.586 14305 119.604
116.704 14442 120.175
116.821 14657 121.066
116.939 14913 122.119
117.056 15199 123.284
117.174 15312 123.742
117.291 15578 124.812
117.409 15788 125.65
117.526 15974 126.388
117.644 16285 127.613
117.761 16403 128.074
117.879 16396 128.047
117.996 15859 125.933
118.114 14792 121.622
118.231 13617 116.692
118.349 13082 114.377
118.466 14892 122.033
118.584 16771 129.503
118.701 18170 134.796
118.819 18323 135.362
118.936 17948 133.97
119.053 17571 132.556
119.171 17563 132.525
119.288 18105 134.555
119.405 18400 135.647
119.523 18073 134.436
119.64 18569 136.268
119.757 18475 135.923
119.875 18666 136.624
119.992 18398 135.639
120.109 18624 136.47
120.226 18627 136.481
120.343 18970 137.732
120.46 18966 137.717
120.578 19075 138.112
120.695 19206 138.586
120.812 19525 139.732
120.929 19764 140.584
121.046 20001 141.425
121.163 20274 142.387
121.279 20641 143.67
121.396 20584 143.471
121.513 20537 143.307
121.63 20002 141.428
121.747 18681 136.678
121.863 17118 130.836
121.98 16169 127.157
122.097 15853 125.909
122.213 17977 134.078
122.33 20211 142.165
122.446 21614 147.017
122.563 22143 148.805
122.679 22195 148.98
122.795 22017 148.381
122.912 21995 148.307
123.028 21851 147.821
123.144 22402 149.673
123.26 22248 149.158
123.377 0 1
123.493 0 1
123.609 0 1
123.725 0 1
123.84 0 1
123.956 0 1
124.072 0 1
124.188 0 1
124.303 0 1
124.419 0 1
126.852 0 1
126.968 0 1
127.083 0 1
127.199 0 1
127.315 0 1
127.431 0 1
127.547 0 1
127.663 0 1
127.779 0 1
127.895 0 1
128.011 0 1
128.127 0 1
128.243 0 1
128.359 28470 168.731
128.476 28749 169.555
128.592 28962 170.182
128.708 28868 169.906
128.825 29053 170.449
128.941 28982 170.241
129.058 29153 170.742
129.174 28963 170.185
129.291 28780 169.647
129.408 28850 169.853
129.524 28979 170.232
129.641 29289 171.14
129.758 29510 171.785
129.875 29755 172.496
129.992 30072 173.413
130.108 30129 173.577
130.225 30052 173.355
130.342 29382 171.412
130.459 28102 167.637
130.576 27646 166.271
130.693 25350 159.217
130.81 23904 154.609
130.928 23408 152.997
131.045 24194 155.544
131.162 25831 160.72
131.279 28568 169.021
131.396 30213 173.819
131.513 31323 176.983
131.631 30997 176.06
131.748 31112 176.386
131.865 31106 176.369
131.983 30992 176.045
132.1 31111 176.383
132.217 31205 176.649
132.335 30877 175.719
132.452 30946 175.915
132.57 30962 175.96
132.687 29962 173.095
132.804 31520 177.539
132.922 30538 174.751
133.039 30767 175.405
133.157 30755 175.371
133.274 30908 175.807
133.392 31301 176.921
133.509 31407 177.22
133.627 31690 178.017
133.744 31417 177.248
133.862 31005 176.082
133.979 30554 174.797
134.097 28923 170.068
134.214 27742 166.559
134.332 25945 161.075
134.449 25602 160.006
134.567 26258 162.043
134.684 27413 165.569
134.802 29219 170.936
134.919 30722 175.277
135.037 31910 178.634
135.154 32837 181.21
135.272 33147 182.063
135.389 32867 181.293
135.507 33167 182.118
135.624 33345 182.606
135.742 33584 183.259
135.859 33103 181.942
135.977 33023 181.722
136.094 32840 181.218
136.211 33063 181.832
136.329 32883 181.337
136.446 33288 182.45
136.564 32931 181.469
136.681 33009 181.684
136.798 32489 180.247
136.915 33219 182.261
137.033 33338 182.587
137.15 33795 183.834
137.267 33557 183.186
137.384 33282 182.434
137.502 32611 180.585
137.619 31461 177.372
137.736 30083 173.445
137.853 28471 168.734
137.97 26962 164.201
138.087 27732 166.529
138.204 28089 167.598
138.321 29364 171.359
138.438 31489 177.451
138.555 32593 180.535
138.672 33347 182.612
138.788 34023 184.453
138.905 34866 186.724
139.022 35269 187.8
139.139 35096 187.339
139.255 35247 187.742
139.372 35102 187.355
139.488 35310 187.91
139.605 35231 187.699
139.721 35619 188.73
139.838 35170 187.537
139.954 34830 186.628
140.071 34199 184.93
140.187 34659 186.169
140.303 34190 184.905
140.419 34402 185.478
140.535 34459 185.631
140.652 34000 184.391
140.768 0 1
140.884 0 1
141 0 1
141.115 0 1
141.231 0 1
141.347 0 1
141.463 0 1
141.578 0 1
141.694 0 1
144.104 0 1
144.219 0 1
144.335 0 1
144.45 0 1
144.566 0 1
144.682 0 1
144.798 0 1
144.914 0 1
145.03 0 1
145.146 31879 178.547
145.262 32192 179.421
145.378 32276 179.655
145.494 32167 179.352
145.61 32464 180.178
145.726 32340 179.833
145.842 31943 178.726
145.959 31571 177.682
146.075 30942 175.903
146.192 30127 173.571
146.308 28941 170.121
146.425 27885 166.988
146.541 26672 163.316
146.658 26516 162.837
146.774 26475 162.711
146.891 27333 165.327
147.008 29046 170.429
147.125 30159 173.663
147.241 30721 175.274
147.358 29982 173.153
147.475 30165 173.681
147.592 30886 175.744
147.709 32031 178.972
147.826 31893 178.586
147.943 32406 180.017
148.06 31309 176.943
148.177 32069 179.078
148.294 31470 177.398
148.411 31217 176.683
148.528 31535 177.581
148.645 31307 176.938
148.762 30989 176.037
148.88 31148 176.488
148.997 29860 172.8
149.114 32263 179.619
149.231 30866 175.687
149.349 30760 175.385
149.466 30830 175.585
149.583 29933 173.012
149.701 29373 171.386
149.818 28540 168.938
149.935 27331 165.321
150.053 26681 163.343
150.17 25824 160.698
150.287 26033 161.347
150.405 26233 161.966
150.522 26997 164.308
150.64 28281 168.17
150.757 29657 172.212
150.875 29684 172.29
150.992 29467 171.66
151.11 28501 168.822
151.227 29469 171.665
151.344 30285 174.026
151.462 31183 176.587
151.579 31387 177.164
151.697 31765 178.227
151.814 31724 178.112
151.932 30874 175.71
152.049 31677 177.98
152.167 31419 177.254
152.284 31131 176.44
152.402 31370 177.116
152.519 30961 175.957
152.636 31257 176.796
152.754 31144 176.477
152.871 31219 176.689
152.989 30900 175.784
153.106 30932 175.875
153.223 30174 173.707
153.341 28742 169.535
153.458 28053 167.49
153.575 27408 165.554
153.693 26630 163.187
153.81 26510 162.819
153.927 26568 162.997
154.044 27262 165.112
154.162 28599 169.112
154.279 29998 173.199
154.396 30802 175.505
154.513 31374 177.127
154.63 31439 177.31
154.747 30547 174.777
154.864 30712 175.248
154.981 31591 177.739
155.098 32526 180.35
155.215 32727 180.906
155.332 32467 180.186
155.449 32468 180.189
155.566 32484 180.233
155.683 32682 180.782
155.8 32610 180.582
155.917 32147 179.296
156.033 32335 179.819
156.15 0 1
156.267 0 1
156.383 0 1
156.5 0 1
156.617 0 1
156.733 0 1
156.85 0 1
156.966 0 1
157.082 0 1
157.199 0 1
157.315 0 1
157.431 0 1
157.547 0 1
157.664 0 1
157.78 0 1
157.896 0 1
158.012 0 1
158.128 0 1
158.244 0 1
158.359 0 1
158.475 0 1
158.591 0 1
158.706 0 1
