
6.15755 0 1
6.2731 0 1
6.3887 0 1
6.50437 0 1
6.62009 0 1
6.73587 0 1
6.8517 0 1
6.96759 0 1
7.08353 0 1
7.19952 0 1
7.31557 0 1
7.43166 0 1
7.54781 0 1
7.664 0 1
7.78024 0 1
7.89653 0 1
8.01286 0 1
8.12924 0 1
8.24567 0 1
8.36213 0 1
8.47864 0 1
8.59519 0 1
8.71178 0 1
8.82841 0 1
8.94508 0 1
9.06179 0 1
9.17853 0 1
9.29531 0 1
9.41212 0 1
9.52897 0 1
9.64584 0 1
9.76276 0 1
9.8797 0 1
9.99667 0 1
10.1137 0 1
10.2307 0 1
10.3478 0 1
10.4648 0 1
10.5819 0 1
10.6991 0 1
10.8162 0 1
10.9334 0 1
11.0506 0 1
11.1678 0 1
11.285 0 1
11.4023 0 1
11.5196 0 1
11.6369 0 1
11.7542 0 1
11.8715 0 1
11.9888 0 1
12.1062 0 1
12.2235 0 1
12.3409 0 1
12.4582 0 1
12.5756 0 1
12.693 0 1
12.8104 0 1
12.9278 0 1
13.0452 0 1
13.1626 0 1
13.28 0 1
13.3974 0 1
13.5149 0 1
13.6323 0 1
13.7497 0 1
13.8671 0 1
13.9845 0 1
14.1019 0 1
14.2193 0 1
14.3367 0 1
14.4541 0 1
14.5714 0 1
14.6888 0 1
14.8062 0 1
14.9235 0 1
15.0408 0 0
15.1581 0 0
15.2755 0 0
15.3927 0 0
15.51 0 0
15.6273 0 0
15.7445 0 0
15.8617 0 0
15.9789 0 0
16.0961 0 0
16.2132 0 0
16.3304 0 0
16.4475 0 0
16.5646 0 0
16.6816 0 0
16.7986 0 0
16.9156 0 0
17.0326 0 0
17.1496 0 0
17.2665 0 0
17.3833 0 0
17.5002 0 0
17.617 0 0
17.7338 0 0
17.8505 0 0
17.9672 0 0
18.0839 0 0
18.2005 0 0
18.3171 0 0
18.4337 0 0
18.5502 0 0
18.6666 0 0
18.7831 0 0
18.8994 0 0
19.0158 0 0
19.1321 0 0
19.2483 0 0
19.3645 0 0
19.4806 0 0
19.5967 0 0
19.7128 0 0
19.8288 0 0
19.9447 0 0
20.0606 0 1
20.1764 0 1
20.2922 0 1
20.4079 0 1
20.5236 0 1
20.6392 0 1
20.7548 0 1
20.8702 0 1
23.3078 0 1
23.4233 0 1
23.539 0 1
23.6547 0 1
23.7704 0 1
23.8862 0 1
24.0021 0 1
24.118 0 1
24.234 0 1
24.35 0 1
24.4661 5682 75.379
24.5822 5926 76.9805
24.6984 6224 78.8923
24.8146 6361 79.7559
24.9309 6188 78.6638
25.0472 6439 80.2434
25.1636 6406 80.0375
25.28 6358 79.7371
25.3965 6548 80.9197
25.513 6575 81.0864
25.6296 6684 81.7557
25.7462 6618 81.3511
25.8628 6442 80.2621
25.9795 6440 80.2496
26.0962 6255 79.0886
26.213 6133 78.3135
26.3298 6138 78.3454
26.4466 6046 77.756
26.5635 6047 77.7625
26.6804 6048 77.7689
26.7973 6137 78.339
26.9143 5917 76.922
27.0313 5900 76.8115
27.1483 5769 75.9539
27.2653 5556 74.5386
27.3824 5683 75.3857
27.4996 5650 75.1665
27.6167 5559 74.5587
27.7339 5549 74.4916
27.8511 5688 75.4188
27.9683 6358 79.7371
28.0855 6830 82.6438
28.2028 7546 86.8677
28.3201 7784 88.227
28.4374 7967 89.2581
28.5547 8469 92.0272
28.6721 8755 93.5682
28.7894 9084 95.31
28.9068 9539 97.6678
29.0242 10067 100.334
29.1416 10219 101.089
29.259 11036 105.052
29.3764 11640 107.889
29.4939 12158 110.263
29.6113 12681 112.61
29.7288 13309 115.365
29.8463 13782 117.397
29.9638 14652 121.045
30.0812 15035 122.617
30.1987 15148 123.077
30.3162 15944 126.27
30.4337 15982 126.42
30.5512 15724 125.395
30.6687 15412 124.145
30.7862 15022 122.564
30.9037 15034 122.613
31.0212 15957 126.321
31.1387 15758 125.531
31.2562 15487 124.447
31.3737 15975 126.392
31.4912 16439 128.215
31.6087 17116 130.828
31.7262 16987 130.334
31.8436 16948 130.184
31.9611 16824 129.707
32.0785 16541 128.612
32.1959 15969 126.369
32.3134 15496 124.483
32.4308 15233 123.422
32.5482 14832 121.787
32.6655 14159 118.992
32.7829 13838 117.635
32.9002 13370 115.629
33.0176 12882 113.499
33.1349 12311 110.955
33.2522 11549 107.466
33.3694 11397 106.757
33.4867 10759 103.726
33.6039 10305 101.514
33.7211 9997 99.985
33.8383 9655 98.2599
33.9554 9297 96.421
34.0725 9003 94.8841
34.1896 8001 89.4483
34.3067 7422 86.151
34.4237 6855 82.7949
34.5407 6693 81.8108
34.6577 6577 81.0987
34.7746 6488 80.5481
34.8915 6238 78.981
35.0084 5948 77.1233
35.1252 6036 77.6917
35.242 6097 78.0833
35.3587 6048 77.7689
35.4755 5974 77.2917
35.5921 5930 77.0065
35.7088 5838 76.4068
35.8254 5802 76.1709
35.9419 5684 75.3923
36.0584 5577 74.6793
36.1749 5448 73.8106
36.2913 5602 74.8465
36.4077 5510 74.2294
36.524 5519 74.29
36.6403 5522 74.3102
36.7565 5446 73.797
36.8727 5573 74.6525
36.9889 5476 74
37.1049 5425 73.6546
37.221 0 1
37.3369 0 1
37.4529 0 1
37.5687 0 1
37.6845 0 1
37.8003 0 1
37.916 0 1
38.0316 0 1
38.1472 0 1
40.5851 0 1
40.7008 0 1
40.8164 0 1
40.9322 0 1
41.048 0 1
41.1639 0 1
41.2798 0 1
41.3958 0 1
41.5118 0 1
41.6279 0 1
41.744 4547 67.4314
41.8602 4567 67.5796
41.9765 4786 69.1809
42.0928 4795 69.2459
42.2091 4862 69.728
42.3255 4902 70.0143
42.4419 4718 68.6877
42.5584 4730 68.775
42.675 4693 68.5055
42.7915 4714 68.6586
42.9081 4520 67.2309
43.0248 4370 66.106
43.1415 4033 63.5059
43.2582 3818 61.79
43.375 4028 63.4665
43.4918 4054 63.671
43.6087 4213 64.9076
43.7256 3957 62.9047
43.8425 3942 62.7853
43.9595 4129 64.2573
44.0765 4180 64.6529
44.1935 4289 65.4905
44.3106 4349 65.9469
44.4277 4146 64.3894
44.5448 4193 64.7534
44.6619 4073 63.8201
44.7791 4108 64.0937
44.8963 3990 63.1664
45.0136 4130 64.2651
45.1308 4165 64.5368
45.2481 4232 65.0538
45.3654 4059 63.7103
45.4827 4210 64.8845
45.6001 4079 63.867
45.7174 3856 62.0967
45.8348 3837 61.9435
45.9522 3836 61.9355
46.0697 3624 60.1997
46.1871 3551 59.5903
46.3046 3715 60.9508
46.422 3512 59.2621
46.5395 3339 57.7841
46.657 3215 56.701
46.7745 2926 54.0925
46.892 2837 53.2635
47.0096 3086 55.5518
47.1271 3284 57.3062
47.2446 3116 55.8211
47.3622 3009 54.8544
47.4797 2998 54.754
47.5973 3095 55.6327
47.7149 3184 56.4269
47.8324 3201 56.5774
47.95 3189 56.4712
48.0675 3221 56.7539
48.1851 3112 55.7853
48.3027 3130 55.9464
48.4202 3082 55.5158
48.5378 3189 56.4712
48.6554 3215 56.701
48.7729 3214 56.6922
48.8904 3283 57.2975
49.008 3338 57.7754
49.1255 3152 56.1427
49.243 3240 56.921
49.3605 3211 56.6657
49.478 3311 57.5413
49.5955 3205 56.6127
49.713 3350 57.8792
49.8304 3310 57.5326
49.9479 3357 57.9396
50.0653 3117 55.8301
50.1827 2894 53.7959
50.3001 2832 53.2165
50.4175 2919 54.0278
50.5348 3013 54.8908
50.6521 3354 57.9137
50.7694 3437 58.6259
50.8867 3549 59.5735
51.004 3770 61.4003
51.1212 3887 62.3458
51.2384 4038 63.5453
51.3556 4026 63.4508
51.4727 4234 65.0692
51.5899 4295 65.5362
51.707 4251 65.1997
51.824 4447 66.6858
51.9411 4587 67.7274
52.0581 4495 67.0448
52.175 4640 68.1175
52.2919 4641 68.1249
52.4088 4804 69.3109
52.5257 4722 68.7168
52.6425 4769 69.0579
52.7593 4965 70.4628
52.876 4819 69.419
52.9927 5065 71.1688
53.1094 4955 70.3918
53.226 4963 70.4486
53.3426 5027 70.9013
53.4591 5057 71.1126
53.5756 4957 70.406
53.692 4681 68.4178
53.8084 4279 65.4141
53.9248 4114 64.1405
54.0411 4030 63.4823
54.1573 4535 67.3424
54.2735 0 1
54.3896 0 1
54.5057 0 1
54.6217 0 1
54.7377 0 1
54.8537 0 1
54.9695 0 1
55.0853 0 1
55.2011 0 1
55.3168 0 1
55.4324 0 1
57.824 0 1
57.9396 0 1
58.0553 0 1
58.1711 0 1
58.2869 0 1
58.4028 0 1
58.5187 0 1
58.6347 0 1
58.7508 0 1
58.8669 0 1
58.983 5282 72.6774
59.0992 5114 71.5122
59.2155 5282 72.6774
59.3318 5459 73.885
59.4482 5611 74.9066
59.5646 5873 76.6355
59.681 6020 77.5887
59.7975 6300 79.3725
59.9141 6277 79.2275
60.0306 6359 79.7433
60.1473 6337 79.6053
60.2639 6354 79.712
60.3807 6415 80.0937
60.4974 6554 80.9568
60.6142 6455 80.343
60.731 6407 80.0437
60.8479 6617 81.3449
60.9648 6602 81.2527
61.0818 6529 80.8022
61.1987 6528 80.796
61.3158 6545 80.9012
61.4328 6384 79.8999
61.5499 6435 80.2185
61.667 6367 79.7935
61.7841 6594 81.2034
61.9013 6285 79.278
62.0185 6372 79.8248
62.1357 6204 78.7655
62.253 5824 76.3151
62.3702 5574 74.6592
62.4875 5262 72.5396
62.6049 5357 73.1915
62.7222 5726 75.6703
62.8396 5827 76.3348
62.9569 5987 77.3757
63.0743 6012 77.5371
63.1918 6273 79.2023
63.3092 6356 79.7245
63.4267 6488 80.5481
63.5441 6427 80.1686
63.6616 6438 80.2371
63.7791 6438 80.2371
63.8966 6483 80.5171
64.0142 6378 79.8624
64.1317 6525 80.7775
64.2492 6528 80.796
64.3668 6476 80.4736
64.4843 6552 80.9444
64.6019 6352 79.6994
64.7195 6497 80.604
64.837 6556 80.9691
64.9546 6469 80.4301
65.0722 6365 79.781
65.1898 6368 79.7997
65.3074 6496 80.5978
65.4249 6393 79.9562
65.5425 6403 80.0187
65.6601 6266 79.1581
65.7777 5862 76.5637
65.8952 5598 74.8198
66.0128 5075 71.239
66.1304 5070 71.2039
66.2479 5084 71.3022
66.3655 5489 74.0878
66.483 5610 74.8999
66.6005 5813 76.243
66.718 5991 77.4016
66.8355 6143 78.3773
66.953 6363 79.7684
67.0705 6302 79.3851
67.1879 6392 79.95
67.3054 6432 80.1998
67.4228 6490 80.5605
67.5402 6374 79.8373
67.6576 6534 80.8332
67.7749 6567 81.037
67.8923 6629 81.4187
68.0096 6698 81.8413
68.1269 6607 81.2835
68.2442 6792 82.4136
68.3614 6550 80.9321
68.4787 6758 82.2071
68.5958 6756 82.1949
68.713 6743 82.1158
68.8302 6853 82.7828
68.9473 6931 83.2526
69.0643 6947 83.3487
69.1814 7044 83.9285
69.2984 6859 82.8191
69.4154 6774 82.3043
69.5323 6265 79.1518
69.6492 5970 77.2658
69.7661 5878 76.6681
69.8829 5934 77.0325
69.9997 6379 79.8686
70.1165 6725 82.0061
70.2332 6861 82.8312
70.3499 7079 84.1368
70.4665 7267 85.2467
70.5831 7531 86.7813
70.6996 7886 88.8032
70.8161 7957 89.202
70.9326 8055 89.7497
71.049 8037 89.6493
71.1653 7884 88.7919
71.2817 8081 89.8944
71.3979 7964 89.2412
71.5141 7961 89.2244
71.6303 7985 89.3588
71.7464 7257 85.188
71.8624 0 1
71.9784 0 1
72.0944 0 1
72.2102 0 1
72.3261 0 1
72.4418 0 1
72.5575 0 1
72.6732 0 1
75.1054 0 1
75.2209 0 1
75.3365 0 1
75.4521 0 1
75.5678 0 1
75.6835 0 1
75.7993 0 1
75.9151 0 1
76.031 0 1
76.147 7886 88.8032
76.263 8656 93.0376
76.3791 8776 93.6803
76.4952 8967 94.6942
76.6113 8936 94.5304
76.7276 9024 94.9947
76.8438 8989 94.8103
76.9601 9036 95.0579
77.0765 9100 95.3939
77.1929 9116 95.4777
77.3093 9201 95.9218
77.4258 8971 94.7154
77.5423 9172 95.7706
77.6589 9098 95.3834
77.7755 9042 95.0894
77.8921 9184 95.8332
78.0088 9184 95.8332
78.1256 8961 94.6626
78.2423 9218 96.0104
78.3591 8877 94.2178
78.4759 8396 91.6297
78.5928 7590 87.1206
78.7097 6889 83
78.8266 6894 83.0301
78.9436 6307 79.4166
79.0606 7181 84.7408
79.1776 7647 87.4471
79.2946 8243 90.791
79.4117 8423 91.7769
79.5288 8930 94.4987
79.6459 8981 94.7681
79.7631 9251 96.1821
79.8802 9098 95.3834
79.9974 9081 95.2943
80.1147 9204 95.9375
80.2319 9173 95.7758
80.3491 8990 94.8156
80.4664 9154 95.6765
80.5837 9228 96.0625
80.701 9079 95.2838
80.8183 9286 96.3639
80.9357 9061 95.1893
81.053 9035 95.0526
81.1704 9032 95.0368
81.2877 9040 95.0789
81.4051 8976 94.7418
81.5225 9111 95.4516
81.6399 8810 93.8616
81.7573 8858 94.1169
81.8747 8799 93.803
81.9922 8656 93.0376
82.1096 8181 90.4489
82.227 7397 86.0058
82.3444 6809 82.5167
82.4619 6419 80.1187
82.5793 6255 79.0886
82.6967 6860 82.8251
82.8142 7133 84.4571
82.9316 7455 86.3423
83.049 7721 87.8692
83.1664 7763 88.1079
83.2838 8110 90.0555
83.4012 8094 89.9667
83.5186 8080 89.8888
83.636 8171 90.3936
83.7534 8125 90.1388
83.8708 8028 89.5991
83.9881 7917 88.9775
84.1055 8070 89.8332
84.2228 7721 87.8692
84.3401 7983 89.3476
84.4575 7903 88.8988
84.5747 7774 88.1703
84.692 7946 89.1403
84.8093 7973 89.2917
84.9265 7869 88.7074
85.0437 7921 89
85.1609 7854 88.6228
85.2781 7939 89.1011
85.3952 7774 88.1703
85.5123 7948 89.1516
85.6294 7501 86.6083
85.7465 7065 84.0536
85.8636 6470 80.4363
85.9806 6066 77.8845
86.0976 6057 77.8267
86.2145 6171 78.5557
86.3315 6625 81.3941
86.4484 7611 87.241
86.5652 8097 89.9833
86.682 8461 91.9837
86.7988 8560 92.5203
86.9156 8910 94.3928
87.0323 8903 94.3557
87.149 9102 95.4044
87.2657 9274 96.3016
87.3823 9298 96.4261
87.4988 9383 96.8659
87.6154 9679 98.3819
87.7318 9940 99.6995
87.8483 9961 99.8048
87.9647 10214 101.064
88.081 10344 101.705
88.1973 10385 101.907
88.3136 10215 101.069
88.4298 10431 102.132
88.546 10579 102.854
88.6621 10427 102.113
88.7781 10369 101.828
88.8942 0 1
89.0101 0 1
89.126 0 1
89.2419 0 1
89.3577 0 1
89.4734 0 1
89.5891 0 1
89.7047 0 1
89.8203 0 1
89.9358 0 1
92.3269 0 1
92.4424 0 1
92.558 0 1
92.6736 0 1
92.7893 0 1
92.905 0 1
93.0208 0 1
93.1366 0 1
93.2525 0 1
93.3685 0 1
93.4845 0 1
93.6005 10128 100.638
93.7167 10024 100.12
93.8328 10208 101.035
93.949 10367 101.818
94.0653 10090 100.449
94.1816 10160 100.797
94.2979 10086 100.429
94.4143 9904 99.5188
94.5307 10014 100.07
94.6472 9778 98.8838
94.7637 9418 97.0464
94.8803 9099 95.3887
94.9969 8419 91.7551
95.1135 7887 88.8088
95.2302 7738 87.9659
95.3469 7811 88.3799
95.4637 8168 90.377
95.5805 8644 92.9731
95.6973 9323 96.5557
95.8142 9633 98.1478
95.9311 9728 98.6306
96.048 10411 102.034
96.1649 10455 102.25
96.2819 10338 101.676
96.3989 10483 102.387
96.516 10537 102.65
96.633 10572 102.82
96.7501 10740 103.634
96.8673 10530 102.616
96.9844 10773 103.793
97.1016 10711 103.494
97.2188 10698 103.431
97.336 10613 103.019
97.4532 10803 103.937
97.5704 10642 103.16
97.6877 10442 102.186
97.805 10488 102.411
97.9223 10631 103.107
98.0396 10500 102.47
98.1569 10543 102.679
98.2743 10513 102.533
98.3916 10237 101.178
98.509 9531 97.6268
98.6264 9019 94.9684
98.7438 8093 89.9611
98.8612 7717 87.8465
98.9786 7926 89.0281
99.096 8254 90.8515
99.2134 9019 94.9684
99.3308 9697 98.4733
99.4482 10153 100.762
99.5656 10510 102.518
99.6831 10779 103.822
99.8005 10608 102.995
99.9179 10779 103.822
100.035 10928 104.537
100.153 10928 104.537
100.27 11006 104.909
100.388 11135 105.523
100.505 11318 106.386
100.622 11205 105.854
100.74 11255 106.09
100.857 11173 105.702
100.975 11403 106.785
101.092 11436 106.939
101.209 11444 106.977
101.327 11499 107.233
101.444 11355 106.56
101.561 11237 106.005
101.679 11245 106.042
101.796 11367 106.616
101.913 11026 105.005
102.03 10652 103.209
102.148 10165 100.822
102.265 9594 97.949
102.382 8238 90.7634
102.499 8318 91.2031
102.616 8831 93.9734
102.733 9476 97.3447
102.851 10209 101.04
102.968 10779 103.822
103.085 10936 104.575
103.202 11031 105.029
103.319 11263 106.127
103.436 11117 105.437
103.552 11295 106.278
103.669 11177 105.721
103.786 11228 105.962
103.903 11487 107.177
104.02 11266 106.141
104.137 11426 106.892
104.253 11454 107.023
104.37 11124 105.47
104.487 11271 106.165
104.603 11362 106.593
104.72 11316 106.377
104.836 11084 105.281
104.953 11309 106.344
105.069 11077 105.247
105.186 11229 105.967
105.302 11068 105.205
105.418 10788 103.865
105.535 10221 101.099
105.651 9433 97.1236
105.767 8394 91.6188
105.883 8127 90.1499
105.999 8351 91.3838
106.115 0 1
106.231 0 1
106.347 0 1
106.463 0 1
106.579 0 1
106.694 0 1
106.81 0 1
106.926 0 1
107.041 0 1
107.157 0 1
109.576 0 1
109.692 0 1
109.807 0 1
109.923 0 1
110.039 0 1
110.155 0 1
110.27 0 1
110.386 0 1
110.502 0 1
110.618 9414 97.0258
110.735 9122 95.5092
110.851 8300 91.1043
110.967 7914 88.9607
111.083 7867 88.6961
111.199 8407 91.6897
111.316 8948 94.5939
111.432 9722 98.6002
111.549 9831 99.1514
111.665 9916 99.5791
111.782 10132 100.658
111.898 10018 100.09
112.015 10245 101.218
112.132 10141 100.703
112.248 10024 100.12
112.365 10144 100.717
112.482 10063 100.315
112.599 9800 98.9949
112.716 9999 99.995
112.832 10074 100.369
112.949 9979 99.8949
113.066 9841 99.2018
113.183 9774 98.8635
113.3 9813 99.0606
113.417 9661 98.2904
113.534 9467 97.2985
113.652 9416 97.0361
113.769 9323 96.5557
113.886 9283 96.3483
114.003 9124 95.5196
114.12 8692 93.2309
114.238 8154 90.2995
114.355 7365 85.8196
114.472 6624 81.388
114.589 6607 81.2835
114.707 6880 82.9458
114.824 7479 86.4812
114.942 8048 89.7106
115.059 8259 90.879
115.176 8696 93.2523
115.294 8943 94.5674
115.411 8882 94.2444
115.529 8853 94.0904
115.646 8855 94.101
115.764 9021 94.9789
115.881 8916 94.4246
115.999 9095 95.3677
116.116 9046 95.1105
116.234 9094 95.3625
116.351 9241 96.1301
116.469 9285 96.3587
116.586 9294 96.4054
116.704 9426 97.0876
116.821 9623 98.0969
116.939 9700 98.4886
117.056 9573 97.8417
117.174 9499 97.4628
117.291 9452 97.2214
117.409 9562 97.7855
117.526 9736 98.6712
117.644 9664 98.3056
117.761 9273 96.2964
117.879 8787 93.739
117.996 7941 89.1123
118.114 7703 87.7667
118.231 7787 88.244
118.349 7826 88.4647
118.466 8756 93.5735
118.584 9240 96.1249
118.701 10117 100.583
118.819 10309 101.533
118.936 10449 102.22
119.053 10832 104.077
119.171 10569 102.806
119.288 10787 103.86
119.405 10919 104.494
119.523 10672 103.305
119.64 10839 104.111
119.757 11100 105.357
119.875 10906 104.432
119.992 10831 104.072
120.109 10770 103.779
120.226 11040 105.071
120.343 10986 104.814
120.46 10791 103.88
120.578 10774 103.798
120.695 10483 102.387
120.812 10798 103.913
120.929 10694 103.412
121.046 10822 104.029
121.163 10583 102.874
121.279 10468 102.313
121.396 9931 99.6544
121.513 9422 97.067
121.63 8540 92.4121
121.747 7970 89.2749
121.863 7508 86.6487
121.98 7492 86.5563
122.097 7960 89.2188
122.213 8563 92.5365
122.33 9249 96.1717
122.446 9542 97.6832
122.563 9924 99.6193
122.679 9882 99.4082
122.795 9937 99.6845
122.912 10169 100.841
123.028 10222 101.104
123.144 9931 99.6544
123.26 10049 100.245
123.377 0 1
123.493 0 1
123.609 0 1
123.725 0 1
123.84 0 1
123.956 0 1
124.072 0 1
124.188 0 1
124.303 0 1
124.419 0 1
126.852 0 1
126.968 0 1
127.083 0 1
127.199 0 1
127.315 0 1
127.431 0 1
127.547 0 1
127.663 0 1
127.779 0 1
127.895 0 1
128.011 0 1
128.127 0 1
128.243 0 1
128.359 11053 105.133
128.476 11188 105.773
128.592 11176 105.717
128.708 11035 105.048
128.825 11324 106.414
128.941 11467 107.084
129.058 11330 106.442
129.174 11566 107.545
129.291 11188 105.773
129.408 11257 106.099
129.524 11625 107.819
129.641 11288 106.245
129.758 11305 106.325
129.875 11270 106.16
129.992 11334 106.461
130.108 10919 104.494
130.225 11105 105.38
130.342 10852 104.173
130.459 10135 100.673
130.576 9335 96.6178
130.693 8185 90.471
130.81 7756 88.0682
130.928 8029 89.6047
131.045 8474 92.0543
131.162 9332 96.6023
131.279 9811 99.0505
131.396 10510 102.518
131.513 10677 103.33
131.631 10687 103.378
131.748 10801 103.928
131.865 10680 103.344
131.983 10490 102.421
132.1 10852 104.173
132.217 10546 102.694
132.335 10796 103.904
132.452 10641 103.155
132.57 10531 102.621
132.687 10221 101.099
132.804 10749 103.677
132.922 10599 102.951
133.039 10318 101.578
133.157 10226 101.124
133.274 10339 101.681
133.392 10305 101.514
133.509 10034 100.17
133.627 10307 101.523
133.744 10023 100.115
133.862 9853 99.2623
133.979 9445 97.1854
134.097 8845 94.0479
134.214 7919 88.9888
134.332 6964 83.4506
134.449 7241 85.0941
134.567 7632 87.3613
134.684 8165 90.3604
134.802 8835 93.9947
134.919 9347 96.6799
135.037 9988 99.94
135.154 9954 99.7697
135.272 10209 101.04
135.389 9923 99.6143
135.507 10070 100.349
135.624 9968 99.8399
135.742 9956 99.7798
135.859 10218 101.084
135.977 10131 100.653
136.094 10176 100.876
136.211 10065 100.324
136.329 10022 100.11
136.446 10254 101.262
136.564 10139 100.693
136.681 10288 101.43
136.798 10210 101.045
136.915 10192 100.955
137.033 10005 100.025
137.15 10030 100.15
137.267 9906 99.5289
137.384 9760 98.7927
137.502 9633 98.1478
137.619 9128 95.5406
137.736 8491 92.1466
137.853 7702 87.761
137.97 7023 83.8033
138.087 7374 85.872
138.204 7346 85.7088
138.321 8079 89.8833
138.438 8768 93.6376
138.555 9225 96.0469
138.672 9767 98.8281
138.788 10016 100.08
138.905 10221 101.099
139.022 10001 100.005
139.139 10002 100.01
139.255 10118 100.588
139.372 9917 99.5841
139.488 10031 100.155
139.605 9772 98.8534
139.721 9801 99
139.838 9730 98.6408
139.954 9897 99.4837
140.071 9723 98.6053
140.187 9870 99.3479
140.303 9846 99.227
140.419 10089 100.444
140.535 9900 99.4987
140.652 9923 99.6143
140.768 0 1
140.884 0 1
141 0 1
141.115 0 1
141.231 0 1
141.347 0 1
141.463 0 1
141.578 0 1
141.694 0 1
144.104 0 1
144.219 0 1
144.335 0 1
144.45 0 1
144.566 0 1
144.682 0 1
144.798 0 1
144.914 0 1
145.03 0 1
145.146 8302 91.1153
145.262 8636 92.9301
145.378 8360 91.433
145.494 8606 92.7685
145.61 8759 93.5895
145.726 8898 94.3292
145.842 9047 95.1157
145.959 8968 94.6995
146.075 9109 95.4411
146.192 9336 96.623
146.308 9065 95.2103
146.425 8503 92.2117
146.541 7722 87.8749
146.658 7330 85.6154
146.774 7307 85.481
146.891 7858 88.6454
147.008 8575 92.6013
147.125 8970 94.7101
147.241 9410 97.0052
147.358 9774 98.8635
147.475 9888 99.4384
147.592 9886 99.4284
147.709 9744 98.7117
147.826 9434 97.1288
147.943 9468 97.3036
148.06 9142 95.6138
148.177 9003 94.8841
148.294 9296 96.4158
148.411 8987 94.7998
148.528 8933 94.5145
148.645 8874 94.2019
148.762 8987 94.7998
148.88 8966 94.689
148.997 8614 92.8116
149.114 9240 96.1249
149.231 9015 94.9474
149.349 9224 96.0417
149.466 9097 95.3782
149.583 9049 95.1262
149.701 9123 95.5144
149.818 9212 95.9792
149.935 8787 93.739
150.053 8290 91.0494
150.17 7463 86.3887
150.287 7130 84.4393
150.405 7025 83.8153
150.522 7444 86.2786
150.64 7990 89.3868
150.757 8238 90.7634
150.875 8800 93.8083
150.992 8935 94.5251
151.11 8779 93.6963
151.227 8957 94.6414
151.344 8686 93.1987
151.462 8718 93.3702
151.579 8871 94.186
151.697 8900 94.3398
151.814 9013 94.9368
151.932 8809 93.8563
152.049 8817 93.8989
152.167 8944 94.5727
152.284 8930 94.4987
152.402 9017 94.9579
152.519 9003 94.8841
152.636 8998 94.8578
152.754 9007 94.9052
152.871 9032 95.0368
152.989 8962 94.6678
153.106 9236 96.1041
153.223 9120 95.4987
153.341 8910 94.3928
153.458 9198 95.9062
153.575 8718 93.3702
153.693 8013 89.5154
153.81 7354 85.7555
153.927 6906 83.1023
154.044 6978 83.5344
154.162 7452 86.325
154.279 7990 89.3868
154.396 8286 91.0275
154.513 8697 93.2577
154.63 8986 94.7945
154.747 8830 93.9681
154.864 9103 95.4096
154.981 8979 94.7576
155.098 8827 93.9521
155.215 9182 95.8228
155.332 8979 94.7576
155.449 9027 95.0105
155.566 9046 95.1105
155.683 9039 95.0737
155.8 9116 95.4777
155.917 8872 94.1913
156.033 8802 93.819
156.15 0 1
156.267 0 1
156.383 0 1
156.5 0 1
156.617 0 1
156.733 0 1
156.85 0 1
156.966 0 1
157.082 0 1
157.199 0 1
157.315 0 1
157.431 0 1
157.547 0 1
157.664 0 1
157.78 0 1
157.896 0 1
158.012 0 1
158.128 0 1
158.244 0 1
158.359 0 1
158.475 0 1
158.591 0 1
158.706 0 1
