
6.15755 0 1
6.2731 0 1
6.3887 0 1
6.50437 0 1
6.62009 0 1
6.73587 0 1
6.8517 0 1
6.96759 0 1
7.08353 0 1
7.19952 0 1
7.31557 0 1
7.43166 0 1
7.54781 0 1
7.664 0 1
7.78024 0 1
7.89653 0 1
8.01286 0 1
8.12924 0 1
8.24567 0 1
8.36213 0 1
8.47864 0 1
8.59519 0 1
8.71178 0 1
8.82841 0 1
8.94508 0 1
9.06179 0 1
9.17853 0 1
9.29531 0 1
9.41212 0 1
9.52897 0 1
9.64584 0 1
9.76276 0 1
9.8797 0 1
9.99667 0 1
10.1137 0 1
10.2307 0 1
10.3478 0 1
10.4648 0 1
10.5819 0 1
10.6991 0 1
10.8162 0 1
10.9334 0 1
11.0506 0 1
11.1678 0 1
11.285 0 1
11.4023 0 1
11.5196 0 1
11.6369 0 1
11.7542 0 1
11.8715 0 1
11.9888 0 1
12.1062 0 1
12.2235 0 1
12.3409 0 1
12.4582 0 1
12.5756 0 1
12.693 0 1
12.8104 0 1
12.9278 0 1
13.0452 0 1
13.1626 0 1
13.28 0 1
13.3974 0 1
13.5149 0 1
13.6323 0 1
13.7497 0 1
13.8671 0 1
13.9845 0 1
14.1019 0 1
14.2193 0 1
14.3367 0 1
14.4541 0 1
14.5714 0 1
14.6888 0 1
14.8062 0 1
14.9235 0 1
15.0408 1414 37.6032
15.1581 1445 38.0132
15.2755 1557 39.4588
15.3927 1617 40.2119
15.51 1622 40.2741
15.6273 1600 40
15.7445 1543 39.281
15.8617 1639 40.4846
15.9789 1563 39.5348
16.0961 1575 39.6863
16.2132 1629 40.3609
16.3304 1570 39.6232
16.4475 1641 40.5093
16.5646 1766 42.0238
16.6816 1771 42.0833
16.7986 1912 43.7264
16.9156 1855 43.0697
17.0326 1933 43.9659
17.1496 1876 43.3128
17.2665 1866 43.1972
17.3833 1875 43.3013
17.5002 1763 41.9881
17.617 1730 41.5933
17.7338 1719 41.4608
17.8505 1601 40.0125
17.9672 1716 41.4246
18.0839 1659 40.7308
18.2005 1608 40.0999
18.3171 1762 41.9762
18.4337 1738 41.6893
18.5502 1805 42.4853
18.6666 1804 42.4735
18.7831 1879 43.3474
18.8994 1813 42.5793
19.0158 1910 43.7035
19.1321 1892 43.4971
19.2483 1731 41.6053
19.3645 1659 40.7308
19.4806 1499 38.7169
19.5967 1471 38.3536
19.7128 1265 35.5668
19.8288 1176 34.2929
19.9447 1092 33.0454
20.0606 0 1
20.1764 0 1
20.2922 0 1
20.4079 0 1
20.5236 0 1
20.6392 0 1
20.7548 0 1
20.8702 0 1
23.3078 0 1
23.4233 0 1
23.539 0 1
23.6547 0 1
23.7704 0 1
23.8862 0 1
24.0021 0 1
24.118 0 1
24.234 0 1
24.35 0 1
24.4661 741 27.2213
24.5822 916 30.2655
24.6984 935 30.5778
24.8146 1126 33.5559
24.9309 1187 34.4529
25.0472 1320 36.3318
25.1636 1473 38.3797
25.28 1541 39.2556
25.3965 1677 40.9512
25.513 1808 42.5206
25.6296 1996 44.6766
25.7462 1979 44.486
25.8628 2010 44.833
25.9795 2094 45.7602
26.0962 2022 44.9667
26.213 1932 43.9545
26.3298 1849 43
26.4466 1748 41.8091
26.5635 1738 41.6893
26.6804 1752 41.8569
26.7973 1759 41.9404
26.9143 1842 42.9185
27.0313 1794 42.3556
27.1483 1941 44.0568
27.2653 1874 43.2897
27.3824 1885 43.4166
27.4996 1887 43.4396
27.6167 1900 43.589
27.7339 1777 42.1545
27.8511 1741 41.7253
27.9683 1734 41.6413
28.0855 1674 40.9145
28.2028 1651 40.6325
28.3201 1614 40.1746
28.4374 1520 38.9872
28.5547 1611 40.1373
28.6721 1664 40.7922
28.7894 1747 41.7971
28.9068 1826 42.7317
29.0242 1853 43.0465
29.1416 1918 43.795
29.259 1927 43.8976
29.3764 1940 44.0454
29.4939 1913 43.7379
29.6113 1870 43.2435
29.7288 1865 43.1856
29.8463 1771 42.0833
29.9638 1594 39.9249
30.0812 1534 39.1663
30.1987 1591 39.8873
30.3162 1648 40.5956
30.4337 1691 41.1218
30.5512 1775 42.1307
30.6687 1917 43.7836
30.7862 1780 42.19
30.9037 1770 42.0714
31.0212 1864 43.1741
31.1387 1863 43.1625
31.2562 1773 42.107
31.3737 1771 42.0833
31.4912 1771 42.0833
31.6087 1715 41.4126
31.7262 1590 39.8748
31.8436 1574 39.6737
31.9611 1550 39.37
32.0785 1507 38.8201
32.1959 1611 40.1373
32.3134 1646 40.5709
32.4308 1804 42.4735
32.5482 1794 42.3556
32.6655 1905 43.6463
32.7829 1815 42.6028
32.9002 1850 43.0116
33.0176 1891 43.4856
33.1349 1829 42.7668
33.2522 1814 42.5911
33.3694 1774 42.1189
33.4867 1608 40.0999
33.6039 1617 40.2119
33.7211 1568 39.598
33.8383 1642 40.5216
33.9554 1536 39.1918
34.0725 1611 40.1373
34.1896 1693 41.1461
34.3067 1683 41.0244
34.4237 1678 40.9634
34.5407 1764 42
34.6577 1731 41.6053
34.7746 1718 41.4488
34.8915 1759 41.9404
35.0084 1723 41.509
35.1252 1756 41.9047
35.242 1633 40.4104
35.3587 1555 39.4335
35.4755 1583 39.7869
35.5921 1459 38.1969
35.7088 1482 38.4968
35.8254 1514 38.9102
35.9419 1482 38.4968
36.0584 1536 39.1918
36.1749 1572 39.6485
36.2913 1582 39.7744
36.4077 1605 40.0625
36.524 1625 40.3113
36.6403 1543 39.281
36.7565 1519 38.9744
36.8727 1354 36.7967
36.9889 1328 36.4417
37.1049 1222 34.9571
37.221 0 1
37.3369 0 1
37.4529 0 1
37.5687 0 1
37.6845 0 1
37.8003 0 1
37.916 0 1
38.0316 0 1
38.1472 0 1
40.5851 0 1
40.7008 0 1
40.8164 0 1
40.9322 0 1
41.048 0 1
41.1639 0 1
41.2798 0 1
41.3958 0 1
41.5118 0 1
41.6279 0 1
41.744 848 29.1204
41.8602 999 31.607
41.9765 1009 31.7648
42.0928 1071 32.7261
42.2091 1057 32.5115
42.3255 1009 31.7648
42.4419 999 31.607
42.5584 1019 31.9218
42.675 1132 33.6452
42.7915 1265 35.5668
42.9081 1302 36.0832
43.0248 1386 37.229
43.1415 1371 37.027
43.2582 1370 37.0135
43.375 1447 38.0395
43.4918 1480 38.4708
43.6087 1497 38.6911
43.7256 1442 37.9737
43.8425 1480 38.4708
43.9595 1340 36.606
44.0765 1339 36.5923
44.1935 1380 37.1484
44.3106 1271 35.6511
44.4277 1252 35.3836
44.5448 1112 33.3467
44.6619 1160 34.0588
44.7791 1278 35.7491
44.8963 1325 36.4005
45.0136 1415 37.6165
45.1308 1410 37.55
45.2481 1469 38.3275
45.3654 1477 38.4318
45.4827 1505 38.7943
45.6001 1488 38.5746
45.7174 1419 37.6696
45.8348 1348 36.7151
45.9522 1213 34.8281
46.0697 1197 34.5977
46.1871 1156 34
46.3046 1161 34.0735
46.422 1274 35.6931
46.5395 1428 37.7889
46.657 1400 37.4166
46.7745 1416 37.6298
46.892 1485 38.5357
47.0096 1536 39.1918
47.1271 1520 38.9872
47.2446 1508 38.833
47.3622 1452 38.1051
47.4797 1415 37.6165
47.5973 1425 37.7492
47.7149 1443 37.9868
47.8324 1426 37.7624
47.95 1305 36.1248
48.0675 1295 35.9861
48.1851 1157 34.0147
48.3027 1300 36.0555
48.4202 1332 36.4966
48.5378 1421 37.6962
48.6554 1545 39.3065
48.7729 1434 37.8682
48.8904 1558 39.4715
49.008 1486 38.5487
49.1255 1538 39.2173
49.243 1524 39.0384
49.3605 1350 36.7423
49.478 1351 36.756
49.5955 1169 34.1906
49.713 1202 34.6699
49.8304 1169 34.1906
49.9479 1243 35.2562
50.0653 1406 37.4967
50.1827 1448 38.0526
50.3001 1476 38.4187
50.4175 1533 39.1535
50.5348 1592 39.8999
50.6521 1510 38.8587
50.7694 1623 40.2865
50.8867 1594 39.9249
51.004 1518 38.9615
51.1212 1638 40.4722
51.2384 1457 38.1707
51.3556 1521 39
51.4727 1464 38.2623
51.5899 1363 36.9188
51.707 1402 37.4433
51.824 1410 37.55
51.9411 1617 40.2119
52.0581 1700 41.2311
52.175 1855 43.0697
52.2919 1872 43.2666
52.4088 1949 44.1475
52.5257 1886 43.4281
52.6425 2055 45.3321
52.7593 2041 45.1774
52.876 1950 44.1588
52.9927 1853 43.0465
53.1094 1893 43.5086
53.226 1697 41.1947
53.3426 1618 40.2244
53.4591 1748 41.8091
53.5756 1696 41.1825
53.692 1725 41.5331
53.8084 1795 42.3674
53.9248 1704 41.2795
54.0411 1590 39.8748
54.1573 1685 41.0488
54.2735 0 1
54.3896 0 1
54.5057 0 1
54.6217 0 1
54.7377 0 1
54.8537 0 1
54.9695 0 1
55.0853 0 1
55.2011 0 1
55.3168 0 1
55.4324 0 1
57.824 0 1
57.9396 0 1
58.0553 0 1
58.1711 0 1
58.2869 0 1
58.4028 0 1
58.5187 0 1
58.6347 0 1
58.7508 0 1
58.8669 0 1
58.983 1276 35.7211
59.0992 1387 37.2424
59.2155 1525 39.0512
59.3318 1659 40.7308
59.4482 1742 41.7373
59.5646 1820 42.6615
59.681 1844 42.9418
59.7975 1793 42.3438
59.9141 1744 41.7612
60.0306 1784 42.2374
60.1473 1749 41.821
60.2639 1571 39.6358
60.3807 1632 40.398
60.4974 1632 40.398
60.6142 1719 41.4608
60.731 1781 42.2019
60.8479 1883 43.3935
60.9648 1904 43.6348
61.0818 1911 43.715
61.1987 1887 43.4396
61.3158 1914 43.7493
61.4328 1854 43.0581
61.5499 1749 41.821
61.667 1702 41.2553
61.7841 1518 38.9615
61.9013 1360 36.8782
62.0185 1461 38.223
62.1357 1541 39.2556
62.253 1652 40.6448
62.3702 1757 41.9166
62.4875 1780 42.19
62.6049 1833 42.8135
62.7222 1806 42.4971
62.8396 1839 42.8836
62.9569 1911 43.715
63.0743 1863 43.1625
63.1918 1854 43.0581
63.3092 1796 42.3792
63.4267 1833 42.8135
63.5441 1760 41.9524
63.6616 1588 39.8497
63.7791 1566 39.5727
63.8966 1450 38.0789
64.0142 1512 38.8844
64.1317 1565 39.5601
64.2492 1686 41.0609
64.3668 1777 42.1545
64.4843 1922 43.8406
64.6019 1849 43
64.7195 1877 43.3244
64.837 1805 42.4853
64.9546 1932 43.9545
65.0722 1863 43.1625
65.1898 1684 41.0366
65.3074 1580 39.7492
65.4249 1424 37.7359
65.5425 1329 36.4555
65.6601 1489 38.5876
65.7777 1446 38.0263
65.8952 1603 40.0375
66.0128 1737 41.6773
66.1304 1727 41.5572
66.2479 1807 42.5088
66.3655 1846 42.9651
66.483 1828 42.7551
66.6005 1862 43.1509
66.718 1783 42.2256
66.8355 1836 42.8486
66.953 1809 42.5323
67.0705 1776 42.1426
67.1879 1648 40.5956
67.3054 1634 40.4228
67.4228 1503 38.7685
67.5402 1462 38.2361
67.6576 1432 37.8418
67.7749 1517 38.9487
67.8923 1590 39.8748
68.0096 1673 40.9023
68.1269 1789 42.2966
68.2442 1819 42.6497
68.3614 1834 42.8252
68.4787 1813 42.5793
68.5958 1779 42.1782
68.713 1728 41.5692
68.8302 1526 39.064
68.9473 1503 38.7685
69.0643 1432 37.8418
69.1814 1303 36.0971
69.2984 1348 36.7151
69.4154 1433 37.855
69.5323 1518 38.9615
69.6492 1681 41
69.7661 1714 41.4005
69.8829 1724 41.5211
69.9997 1741 41.7253
70.1165 1725 41.5331
70.2332 1675 40.9268
70.3499 1510 38.8587
70.4665 1428 37.7889
70.5831 1372 37.0405
70.6996 1352 36.7696
70.8161 1254 35.4119
70.9326 1158 34.0294
71.049 979 31.289
71.1653 861 29.3428
71.2817 729 27
71.3979 699 26.4386
71.5141 657 25.632
71.6303 644 25.3772
71.7464 545 23.3452
71.8624 0 1
71.9784 0 1
72.0944 0 1
72.2102 0 1
72.3261 0 1
72.4418 0 1
72.5575 0 1
72.6732 0 1
75.1054 0 1
75.2209 0 1
75.3365 0 1
75.4521 0 1
75.5678 0 1
75.6835 0 1
75.7993 0 1
75.9151 0 1
76.031 0 1
76.147 1087 32.9697
76.263 1088 32.9848
76.3791 1101 33.1813
76.4952 1115 33.3916
76.6113 1145 33.8378
76.7276 1167 34.1614
76.8438 1363 36.9188
76.9601 1457 38.1707
77.0765 1426 37.7624
77.1929 1503 38.7685
77.3093 1626 40.3237
77.4258 1555 39.4335
77.5423 1533 39.1535
77.6589 1545 39.3065
77.7755 1390 37.2827
77.8921 1274 35.6931
78.0088 1225 35
78.1256 1213 34.8281
78.2423 1096 33.1059
78.3591 1219 34.9142
78.4759 1288 35.8887
78.5928 1380 37.1484
78.7097 1485 38.5357
78.8266 1405 37.4833
78.9436 1521 39
79.0606 1448 38.0526
79.1776 1514 38.9102
79.2946 1526 39.064
79.4117 1578 39.724
79.5288 1602 40.025
79.6459 1533 39.1535
79.7631 1619 40.2368
79.8802 1405 37.4833
79.9974 1435 37.8814
80.1147 1319 36.318
80.2319 1217 34.8855
80.3491 1261 35.5106
80.4664 1300 36.0555
80.5837 1414 37.6032
80.701 1527 39.0768
80.8183 1638 40.4722
80.9357 1624 40.2989
81.053 1635 40.4351
81.1704 1575 39.6863
81.2877 1564 39.5474
81.4051 1601 40.0125
81.5225 1524 39.0384
81.6399 1360 36.8782
81.7573 1252 35.3836
81.8747 1158 34.0294
81.9922 1137 33.7194
82.1096 1260 35.4965
82.227 1423 37.7227
82.3444 1404 37.47
82.4619 1582 39.7744
82.5793 1568 39.598
82.6967 1629 40.3609
82.8142 1595 39.9375
82.9316 1635 40.4351
83.049 1608 40.0999
83.1664 1664 40.7922
83.2838 1643 40.5339
83.4012 1584 39.7995
83.5186 1594 39.9249
83.636 1454 38.1314
83.7534 1401 37.4299
83.8708 1241 35.2278
83.9881 1307 36.1525
84.1055 1265 35.5668
84.2228 1416 37.6298
84.3401 1543 39.281
84.4575 1578 39.724
84.5747 1625 40.3113
84.692 1670 40.8656
84.8093 1650 40.6202
84.9265 1670 40.8656
85.0437 1583 39.7869
85.1609 1451 38.092
85.2781 1314 36.2491
85.3952 1208 34.7563
85.5123 1127 33.5708
85.6294 1191 34.5109
85.7465 1310 36.1939
85.8636 1458 38.1838
85.9806 1531 39.128
86.0976 1533 39.1535
86.2145 1586 39.8246
86.3315 1586 39.8246
86.4484 1642 40.5216
86.5652 1726 41.5452
86.682 1658 40.7185
86.7988 1670 40.8656
86.9156 1578 39.724
87.0323 1557 39.4588
87.149 1582 39.7744
87.2657 1514 38.9102
87.3823 1340 36.606
87.4988 1135 33.6898
87.6154 1139 33.7491
87.7318 1138 33.7343
87.8483 1170 34.2053
87.9647 1229 35.0571
88.081 1248 35.327
88.1973 1325 36.4005
88.3136 1209 34.7707
88.4298 1184 34.4093
88.546 1088 32.9848
88.6621 979 31.289
88.7781 762 27.6043
88.8942 0 1
89.0101 0 1
89.126 0 1
89.2419 0 1
89.3577 0 1
89.4734 0 1
89.5891 0 1
89.7047 0 1
89.8203 0 1
89.9358 0 1
92.3269 0 1
92.4424 0 1
92.558 0 1
92.6736 0 1
92.7893 0 1
92.905 0 1
93.0208 0 1
93.1366 0 1
93.2525 0 1
93.3685 0 1
93.4845 0 1
93.6005 1306 36.1386
93.7167 1336 36.5513
93.8328 1340 36.606
93.949 1422 37.7094
94.0653 1437 37.9078
94.1816 1460 38.2099
94.2979 1341 36.6197
94.4143 1285 35.8469
94.5307 1296 36
94.6472 1242 35.242
94.7637 1216 34.8712
94.8803 1309 36.1801
94.9969 1487 38.5616
95.1135 1518 38.9615
95.2302 1563 39.5348
95.3469 1612 40.1497
95.4637 1582 39.7744
95.5805 1670 40.8656
95.6973 1723 41.509
95.8142 1690 41.1096
95.9311 1688 41.0853
96.048 1637 40.4599
96.1649 1652 40.6448
96.2819 1604 40.05
96.3989 1542 39.2683
96.516 1478 38.4448
96.633 1386 37.229
96.7501 1364 36.9324
96.8673 1377 37.108
96.9844 1332 36.4966
97.1016 1547 39.3319
97.2188 1627 40.3361
97.336 1661 40.7554
97.4532 1652 40.6448
97.5704 1733 41.6293
97.6877 1657 40.7063
97.805 1754 41.8808
97.9223 1519 38.9744
98.0396 1489 38.5876
98.1569 1316 36.2767
98.2743 1239 35.1994
98.3916 1171 34.2199
98.509 1391 37.2961
98.6264 1466 38.2884
98.7438 1515 38.923
98.8612 1715 41.4126
98.9786 1722 41.497
99.096 1715 41.4126
99.2134 1685 41.0488
99.3308 1818 42.638
99.4482 1782 42.2137
99.5656 1763 41.9881
99.6831 1793 42.3438
99.8005 1733 41.6293
99.9179 1703 41.2674
100.035 1683 41.0244
100.153 1577 39.7115
100.27 1515 38.923
100.388 1388 37.2559
100.505 1423 37.7227
100.622 1582 39.7744
100.74 1703 41.2674
100.857 1777 42.1545
100.975 1735 41.6533
101.092 1778 42.1663
101.209 1812 42.5676
101.327 1770 42.0714
101.444 1750 41.833
101.561 1638 40.4722
101.679 1443 37.9868
101.796 1410 37.55
101.913 1290 35.9166
102.03 1302 36.0832
102.148 1505 38.7943
102.265 1567 39.5854
102.382 1799 42.4146
102.499 1714 41.4005
102.616 1778 42.1663
102.733 1739 41.7013
102.851 1814 42.5911
102.968 1858 43.1045
103.085 1897 43.5546
103.202 1884 43.4051
103.319 1771 42.0833
103.436 1783 42.2256
103.552 1763 41.9881
103.669 1673 40.9023
103.786 1557 39.4588
103.903 1516 38.9358
104.02 1512 38.8844
104.137 1576 39.6989
104.253 1674 40.9145
104.37 1921 43.8292
104.487 1965 44.3283
104.603 1917 43.7836
104.72 1826 42.7317
104.836 1902 43.6119
104.953 1719 41.4608
105.069 1474 38.3927
105.186 1378 37.1214
105.302 1278 35.7491
105.418 1241 35.2278
105.535 1087 32.9697
105.651 1219 34.9142
105.767 1244 35.2704
105.883 1153 33.9559
105.999 1130 33.6155
106.115 0 1
106.231 0 1
106.347 0 1
106.463 0 1
106.579 0 1
106.694 0 1
106.81 0 1
106.926 0 1
107.041 0 1
107.157 0 1
109.576 0 1
109.692 0 1
109.807 0 1
109.923 0 1
110.039 0 1
110.155 0 1
110.27 0 1
110.386 0 1
110.502 0 1
110.618 782 27.9643
110.735 1005 31.7017
110.851 1155 33.9853
110.967 1386 37.229
111.083 1417 37.6431
111.199 1521 39
111.316 1669 40.8534
111.432 1602 40.025
111.549 1745 41.7732
111.665 1789 42.2966
111.782 1766 42.0238
111.898 1737 41.6773
112.015 1635 40.4351
112.132 1690 41.1096
112.248 1542 39.2683
112.365 1437 37.9078
112.482 1444 38
112.599 1467 38.3014
112.716 1625 40.3113
112.832 1792 42.332
112.949 1756 41.9047
113.066 1767 42.0357
113.183 1735 41.6533
113.3 1759 41.9404
113.417 1782 42.2137
113.534 1695 41.1704
113.652 1512 38.8844
113.769 1437 37.9078
113.886 1291 35.9305
114.003 1238 35.1852
114.12 1281 35.7911
114.238 1456 38.1576
114.355 1629 40.3609
114.472 1627 40.3361
114.589 1755 41.8927
114.707 1821 42.6732
114.824 1749 41.821
114.942 1852 43.0349
115.059 1822 42.6849
115.176 1793 42.3438
115.294 1808 42.5206
115.411 1798 42.4028
115.529 1769 42.0595
115.646 1696 41.1825
115.764 1541 39.2556
115.881 1477 38.4318
115.999 1503 38.7685
116.116 1551 39.3827
116.234 1567 39.5854
116.351 1591 39.8873
116.469 1791 42.3202
116.586 1841 42.9069
116.704 1772 42.0951
116.821 1790 42.3084
116.939 1824 42.7083
117.056 1728 41.5692
117.174 1652 40.6448
117.291 1496 38.6782
117.409 1364 36.9324
117.526 1359 36.8646
117.644 1239 35.1994
117.761 1378 37.1214
117.879 1457 38.1707
117.996 1541 39.2556
118.114 1687 41.0731
118.231 1718 41.4488
118.349 1809 42.5323
118.466 1704 41.2795
118.584 1783 42.2256
118.701 1817 42.6263
118.819 1804 42.4735
118.936 1717 41.4367
119.053 1693 41.1461
119.171 1645 40.5586
119.288 1595 39.9375
119.405 1557 39.4588
119.523 1450 38.0789
119.64 1465 38.2753
119.757 1428 37.7889
119.875 1494 38.6523
119.992 1591 39.8873
120.109 1644 40.5463
120.226 1736 41.6653
120.343 1670 40.8656
120.46 1721 41.4849
120.578 1644 40.5463
120.695 1703 41.2674
120.812 1575 39.6863
120.929 1512 38.8844
121.046 1324 36.3868
121.163 1272 35.6651
121.279 1186 34.4384
121.396 1227 35.0286
121.513 1251 35.3695
121.63 1274 35.6931
121.747 1299 36.0416
121.863 1386 37.229
121.98 1415 37.6165
122.097 1404 37.47
122.213 1404 37.47
122.33 1409 37.5366
122.446 1322 36.3593
122.563 1200 34.641
122.679 1188 34.4674
122.795 1104 33.2265
122.912 1006 31.7175
123.028 880 29.6648
123.144 754 27.4591
123.26 649 25.4755
123.377 0 1
123.493 0 1
123.609 0 1
123.725 0 1
123.84 0 1
123.956 0 1
124.072 0 1
124.188 0 1
124.303 0 1
124.419 0 1
126.852 0 1
126.968 0 1
127.083 0 1
127.199 0 1
127.315 0 1
127.431 0 1
127.547 0 1
127.663 0 1
127.779 0 1
127.895 0 1
128.011 0 1
128.127 0 1
128.243 0 1
128.359 1595 39.9375
128.476 1625 40.3113
128.592 1613 40.1622
128.708 1459 38.1969
128.825 1581 39.7618
128.941 1606 40.0749
129.058 1594 39.9249
129.174 1808 42.5206
129.291 1788 42.2847
129.408 1761 41.9643
129.524 1891 43.4856
129.641 1846 42.9651
129.758 1809 42.5323
129.875 1724 41.5211
129.992 1583 39.7869
130.108 1500 38.7298
130.225 1431 37.8286
130.342 1318 36.3043
130.459 1371 37.027
130.576 1508 38.833
130.693 1534 39.1663
130.81 1639 40.4846
130.928 1669 40.8534
131.045 1752 41.8569
131.162 1786 42.2611
131.279 1784 42.2374
131.396 1862 43.1509
131.513 1850 43.0116
131.631 1796 42.3792
131.748 1716 41.4246
131.865 1687 41.0731
131.983 1674 40.9145
132.1 1622 40.2741
132.217 1486 38.5487
132.335 1510 38.8587
132.452 1685 41.0488
132.57 1696 41.1825
132.687 1811 42.5558
132.804 1785 42.2493
132.922 1847 42.9767
133.039 1892 43.4971
133.157 1813 42.5793
133.274 1731 41.6053
133.392 1773 42.107
133.509 1643 40.5339
133.627 1556 39.4462
133.744 1459 38.1969
133.862 1318 36.3043
133.979 1403 37.4566
134.097 1521 39
134.214 1560 39.4968
134.332 1640 40.4969
134.449 1691 41.1218
134.567 1712 41.3763
134.684 1844 42.9418
134.802 1899 43.5775
134.919 1764 42
135.037 1766 42.0238
135.154 1786 42.2611
135.272 1747 41.7971
135.389 1762 41.9762
135.507 1767 42.0357
135.624 1680 40.9878
135.742 1583 39.7869
135.859 1566 39.5727
135.977 1589 39.8623
136.094 1687 41.0731
136.211 1733 41.6293
136.329 1831 42.7902
136.446 1872 43.2666
136.564 1874 43.2897
136.681 1853 43.0465
136.798 1866 43.1972
136.915 1792 42.332
137.033 1787 42.2729
137.15 1660 40.7431
137.267 1571 39.6358
137.384 1488 38.5746
137.502 1429 37.8021
137.619 1389 37.2693
137.736 1542 39.2683
137.853 1637 40.4599
137.97 1681 41
138.087 1673 40.9023
138.204 1727 41.5572
138.321 1840 42.8952
138.438 1760 41.9524
138.555 1764 42
138.672 1855 43.0697
138.788 1721 41.4849
138.905 1702 41.2553
139.022 1609 40.1123
139.139 1502 38.7556
139.255 1381 37.1618
139.372 1295 35.9861
139.488 1213 34.8281
139.605 1183 34.3948
139.721 1234 35.1283
139.838 1167 34.1614
139.954 1327 36.428
140.071 1252 35.3836
140.187 1110 33.3167
140.303 991 31.4802
140.419 961 31
140.535 866 29.4279
140.652 857 29.2746
140.768 0 1
140.884 0 1
141 0 1
141.115 0 1
141.231 0 1
141.347 0 1
141.463 0 1
141.578 0 1
141.694 0 1
144.104 0 1
144.219 0 1
144.335 0 1
144.45 0 1
144.566 0 1
144.682 0 1
144.798 0 1
144.914 0 1
145.03 0 1
145.146 1273 35.6791
145.262 1338 36.5787
145.378 1440 37.9473
145.494 1479 38.4578
145.61 1407 37.51
145.726 1455 38.1445
145.842 1343 36.647
145.959 1246 35.2987
146.075 1272 35.6651
146.192 1159 34.0441
146.308 1104 33.2265
146.425 1205 34.7131
146.541 1208 34.7563
146.658 1257 35.4542
146.774 1313 36.2353
146.891 1379 37.1349
147.008 1310 36.1939
147.125 1410 37.55
147.241 1434 37.8682
147.358 1440 37.9473
147.475 1319 36.318
147.592 1353 36.7831
147.709 1423 37.7227
147.826 1368 36.9865
147.943 1298 36.0278
148.06 1279 35.7631
148.177 1207 34.7419
148.294 1184 34.4093
148.411 1233 35.1141
148.528 1280 35.7771
148.645 1355 36.8103
148.762 1342 36.6333
148.88 1404 37.47
148.997 1391 37.2961
149.114 1452 38.1051
149.231 1400 37.4166
149.349 1443 37.9868
149.466 1369 37
149.583 1367 36.973
149.701 1247 35.3129
149.818 1180 34.3511
149.935 1137 33.7194
150.053 1081 32.8786
150.17 1188 34.4674
150.287 1183 34.3948
150.405 1272 35.6651
150.522 1244 35.2704
150.64 1337 36.565
150.757 1340 36.606
150.875 1370 37.0135
150.992 1388 37.2559
151.11 1357 36.8375
151.227 1383 37.1887
151.344 1272 35.6651
151.462 1328 36.4417
151.579 1306 36.1386
151.697 1264 35.5528
151.814 1204 34.6987
151.932 1197 34.5977
152.049 1186 34.4384
152.167 1217 34.8855
152.284 1282 35.805
152.402 1322 36.3593
152.519 1409 37.5366
152.636 1343 36.647
152.754 1352 36.7696
152.871 1384 37.2022
152.989 1288 35.8887
153.106 1282 35.805
153.223 1180 34.3511
153.341 1144 33.8231
153.458 1053 32.45
153.575 1112 33.3467
153.693 1084 32.9242
153.81 1128 33.5857
153.927 1128 33.5857
154.044 1145 33.8378
154.162 1231 35.0856
154.279 1303 36.0971
154.396 1268 35.609
154.513 1285 35.8469
154.63 1269 35.623
154.747 1213 34.8281
154.864 1106 33.2566
154.981 1223 34.9714
155.098 1146 33.8526
155.215 1178 34.322
155.332 1153 33.9559
155.449 1078 32.8329
155.566 1120 33.4664
155.683 1138 33.7343
155.8 1166 34.1467
155.917 1125 33.541
156.033 1191 34.5109
156.15 0 1
156.267 0 1
156.383 0 1
156.5 0 1
156.617 0 1
156.733 0 1
156.85 0 1
156.966 0 1
157.082 0 1
157.199 0 1
157.315 0 1
157.431 0 1
157.547 0 1
157.664 0 1
157.78 0 1
157.896 0 1
158.012 0 1
158.128 0 1
158.244 0 1
158.359 0 1
158.475 0 1
158.591 0 1
158.706 0 1
