
6.15755 0 1
6.2731 0 1
6.3887 0 1
6.50437 0 1
6.62009 0 1
6.73587 0 1
6.8517 0 1
6.96759 0 1
7.08353 0 1
7.19952 0 1
7.31557 0 1
7.43166 0 1
7.54781 0 1
7.664 0 1
7.78024 0 1
7.89653 0 1
8.01286 0 1
8.12924 0 1
8.24567 0 1
8.36213 0 1
8.47864 0 1
8.59519 0 1
8.71178 0 1
8.82841 0 1
8.94508 0 1
9.06179 0 1
9.17853 0 1
9.29531 0 1
9.41212 0 1
9.52897 0 1
9.64584 0 1
9.76276 0 1
9.8797 0 1
9.99667 0 1
10.1137 0 1
10.2307 0 1
10.3478 0 1
10.4648 0 1
10.5819 0 1
10.6991 0 1
10.8162 0 1
10.9334 0 1
11.0506 0 1
11.1678 0 1
11.285 0 1
11.4023 0 1
11.5196 0 1
11.6369 0 1
11.7542 0 1
11.8715 0 1
11.9888 0 1
12.1062 0 1
12.2235 0 1
12.3409 0 1
12.4582 0 1
12.5756 0 1
12.693 0 1
12.8104 0 1
12.9278 0 1
13.0452 0 1
13.1626 0 1
13.28 0 1
13.3974 0 1
13.5149 0 1
13.6323 0 1
13.7497 0 1
13.8671 0 1
13.9845 0 1
14.1019 0 1
14.2193 0 1
14.3367 0 1
14.4541 0 1
14.5714 0 1
14.6888 0 1
14.8062 0 1
14.9235 0 1
15.0408 2237 47.2969
15.1581 2304 48
15.2755 2436 49.3559
15.3927 2387 48.8569
15.51 2537 50.3686
15.6273 2476 49.7594
15.7445 2382 48.8057
15.8617 2471 49.7092
15.9789 2218 47.0956
16.0961 2243 47.3603
16.2132 2359 48.5695
16.3304 2482 49.8197
16.4475 2541 50.4083
16.5646 2652 51.4976
16.6816 2628 51.264
16.7986 2716 52.1153
16.9156 2537 50.3686
17.0326 2671 51.6817
17.1496 2656 51.5364
17.2665 2650 51.4782
17.3833 2535 50.3488
17.5002 2360 48.5798
17.617 2298 47.9375
17.7338 2338 48.3529
17.8505 2230 47.2229
17.9672 2398 48.9694
18.0839 2474 49.7393
18.2005 2595 50.9411
18.3171 2582 50.8134
18.4337 2615 51.1371
18.5502 2638 51.3615
18.6666 2728 52.2303
18.7831 2708 52.0384
18.8994 2649 51.4684
19.0158 2662 51.5946
19.1321 2558 50.5767
19.2483 2436 49.3559
19.3645 2361 48.5901
19.4806 2209 47
19.5967 2292 47.8748
19.7128 2383 48.816
19.8288 2442 49.4166
19.9447 2282 47.7703
20.0606 0 1
20.1764 0 1
20.2922 0 1
20.4079 0 1
20.5236 0 1
20.6392 0 1
20.7548 0 1
20.8702 0 1
23.3078 0 1
23.4233 0 1
23.539 0 1
23.6547 0 1
23.7704 0 1
23.8862 0 1
24.0021 0 1
24.118 0 1
24.234 0 1
24.35 0 1
24.4661 2326 48.2286
24.5822 2263 47.571
24.6984 2298 47.9375
24.8146 2451 49.5076
24.9309 2501 50.01
25.0472 2667 51.643
25.1636 2706 52.0192
25.28 2864 53.5164
25.3965 2727 52.2207
25.513 2848 53.3667
25.6296 2798 52.8961
25.7462 2680 51.7687
25.8628 2790 52.8205
25.9795 2643 51.4101
26.0962 2644 51.4198
26.213 2380 48.7852
26.3298 2331 48.2804
26.4466 2340 48.3735
26.5635 2419 49.1833
26.6804 2507 50.07
26.7973 2613 51.1175
26.9143 2564 50.636
27.0313 2753 52.469
27.1483 2762 52.5547
27.2653 2813 53.0377
27.3824 2876 53.6284
27.4996 2785 52.7731
27.6167 2730 52.2494
27.7339 2608 51.0686
27.8511 2508 50.0799
27.9683 2329 48.2597
28.0855 2227 47.1911
28.2028 2288 47.833
28.3201 2330 48.2701
28.4374 2410 49.0918
28.5547 2490 49.8999
28.6721 2695 51.9134
28.7894 2671 51.6817
28.9068 2678 51.7494
29.0242 2680 51.7687
29.1416 2720 52.1536
29.259 2645 51.4296
29.3764 2549 50.4876
29.4939 2549 50.4876
29.6113 2267 47.613
29.7288 2199 46.8935
29.8463 2115 45.9891
29.9638 2096 45.7821
30.0812 2130 46.1519
30.1987 2251 47.4447
30.3162 2369 48.6724
30.4337 2334 48.3115
30.5512 2411 49.1019
30.6687 2553 50.5272
30.7862 2560 50.5964
30.9037 2600 50.9902
31.0212 2664 51.614
31.1387 2591 50.9019
31.2562 2485 49.8498
31.3737 2450 49.4975
31.4912 2303 47.9896
31.6087 2178 46.669
31.7262 2154 46.4112
31.8436 2100 45.8258
31.9611 2329 48.2597
32.0785 2345 48.4252
32.1959 2522 50.2195
32.3134 2547 50.4678
32.4308 2556 50.5569
32.5482 2621 51.1957
32.6655 2455 49.548
32.7829 2593 50.9215
32.9002 2565 50.6458
33.0176 2463 49.6286
33.1349 2516 50.1597
33.2522 2242 47.3498
33.3694 2109 45.9239
33.4867 2064 45.4313
33.6039 1919 43.8064
33.7211 1978 44.4747
33.8383 2071 45.5082
33.9554 2080 45.607
34.0725 2284 47.7912
34.1896 2241 47.3392
34.3067 2358 48.5592
34.4237 2327 48.239
34.5407 2436 49.3559
34.6577 2356 48.5386
34.7746 2422 49.2138
34.8915 2320 48.1664
35.0084 2322 48.1871
35.1252 2166 46.5403
35.242 1991 44.6206
35.3587 1975 44.441
35.4755 1907 43.6692
35.5921 2043 45.1996
35.7088 2109 45.9239
35.8254 2305 48.0104
35.9419 2400 48.9898
36.0584 2357 48.5489
36.1749 2510 50.0999
36.2913 2429 49.2849
36.4077 2366 48.6415
36.524 2390 48.8876
36.6403 2501 50.01
36.7565 2270 47.6445
36.8727 2166 46.5403
36.9889 2025 45
37.1049 1867 43.2088
37.221 0 1
37.3369 0 1
37.4529 0 1
37.5687 0 1
37.6845 0 1
37.8003 0 1
37.916 0 1
38.0316 0 1
38.1472 0 1
40.5851 0 1
40.7008 0 1
40.8164 0 1
40.9322 0 1
41.048 0 1
41.1639 0 1
41.2798 0 1
41.3958 0 1
41.5118 0 1
41.6279 0 1
41.744 1745 41.7732
41.8602 1876 43.3128
41.9765 1892 43.4971
42.0928 1786 42.2611
42.2091 1633 40.4104
42.3255 1550 39.37
42.4419 1389 37.2693
42.5584 1428 37.7889
42.675 1418 37.6563
42.7915 1532 39.1408
42.9081 1605 40.0625
43.0248 1629 40.3609
43.1415 1672 40.8901
43.2582 1621 40.2616
43.375 1678 40.9634
43.4918 1740 41.7133
43.6087 1688 41.0853
43.7256 1681 41
43.8425 1666 40.8167
43.9595 1560 39.4968
44.0765 1481 38.4838
44.1935 1386 37.229
44.3106 1365 36.9459
44.4277 1320 36.3318
44.5448 1402 37.4433
44.6619 1448 38.0526
44.7791 1443 37.9868
44.8963 1480 38.4708
45.0136 1417 37.6431
45.1308 1370 37.0135
45.2481 1409 37.5366
45.3654 1321 36.3456
45.4827 1364 36.9324
45.6001 1250 35.3553
45.7174 1178 34.322
45.8348 1167 34.1614
45.9522 996 31.5595
46.0697 1025 32.0156
46.1871 972 31.1769
46.3046 979 31.289
46.422 1062 32.5883
46.5395 1136 33.7046
46.657 1169 34.1906
46.7745 1095 33.0908
46.892 1136 33.7046
47.0096 1134 33.6749
47.1271 1184 34.4093
47.2446 1143 33.8083
47.3622 1119 33.4515
47.4797 1098 33.1361
47.5973 1026 32.0312
47.7149 1005 31.7017
47.8324 958 30.9516
47.95 902 30.0333
48.0675 954 30.8869
48.1851 958 30.9516
48.3027 1027 32.0468
48.4202 1126 33.5559
48.5378 1100 33.1662
48.6554 1098 33.1361
48.7729 1138 33.7343
48.8904 1083 32.909
49.008 1079 32.8481
49.1255 1113 33.3617
49.243 988 31.4325
49.3605 902 30.0333
49.478 923 30.3809
49.5955 862 29.3598
49.713 871 29.5127
49.8304 891 29.8496
49.9479 1017 31.8904
50.0653 1131 33.6303
50.1827 1171 34.2199
50.3001 1298 36.0278
50.4175 1309 36.1801
50.5348 1346 36.6879
50.6521 1375 37.081
50.7694 1428 37.7889
50.8867 1431 37.8286
51.004 1527 39.0768
51.1212 1511 38.8716
51.2384 1515 38.923
51.3556 1468 38.3145
51.4727 1479 38.4578
51.5899 1626 40.3237
51.707 1732 41.6173
51.824 1932 43.9545
51.9411 1981 44.5084
52.0581 2065 45.4423
52.175 2181 46.7012
52.2919 2188 46.7761
52.4088 2179 46.6798
52.5257 2294 47.8957
52.6425 2293 47.8853
52.7593 2288 47.833
52.876 2144 46.3033
52.9927 2055 45.3321
53.1094 1898 43.566
53.226 1892 43.4971
53.3426 1863 43.1625
53.4591 2025 45
53.5756 2147 46.3357
53.692 2337 48.3425
53.8084 2526 50.2593
53.9248 2626 51.2445
54.0411 2638 51.3615
54.1573 2730 52.2494
54.2735 0 1
54.3896 0 1
54.5057 0 1
54.6217 0 1
54.7377 0 1
54.8537 0 1
54.9695 0 1
55.0853 0 1
55.2011 0 1
55.3168 0 1
55.4324 0 1
57.824 0 1
57.9396 0 1
58.0553 0 1
58.1711 0 1
58.2869 0 1
58.4028 0 1
58.5187 0 1
58.6347 0 1
58.7508 0 1
58.8669 0 1
58.983 2361 48.5901
59.0992 2470 49.6991
59.2155 2591 50.9019
59.3318 2594 50.9313
59.4482 2649 51.4684
59.5646 2699 51.9519
59.681 2580 50.7937
59.7975 2620 51.1859
59.9141 2622 51.2055
60.0306 2421 49.2037
60.1473 2433 49.3254
60.2639 2359 48.5695
60.3807 2410 49.0918
60.4974 2375 48.734
60.6142 2525 50.2494
60.731 2623 51.2152
60.8479 2620 51.1859
60.9648 2687 51.8363
61.0818 2662 51.5946
61.1987 2597 50.9608
61.3158 2476 49.7594
61.4328 2533 50.3289
61.5499 2276 47.7074
61.667 2120 46.0435
61.7841 1913 43.7379
61.9013 1861 43.1393
62.0185 1870 43.2435
62.1357 1894 43.5201
62.253 2070 45.4973
62.3702 2239 47.3181
62.4875 2324 48.2079
62.6049 2310 48.0625
62.7222 2458 49.5782
62.8396 2420 49.1935
62.9569 2434 49.3356
63.0743 2478 49.7795
63.1918 2444 49.4368
63.3092 2368 48.6621
63.4267 2362 48.6004
63.5441 2323 48.1975
63.6616 2263 47.571
63.7791 2089 45.7056
63.8966 2008 44.8107
64.0142 2200 46.9042
64.1317 2217 47.085
64.2492 2171 46.594
64.3668 2425 49.2443
64.4843 2342 48.3942
64.6019 2340 48.3735
64.7195 2306 48.0208
64.837 2275 47.697
64.9546 2240 47.3286
65.0722 2120 46.0435
65.1898 1888 43.4511
65.3074 1789 42.2966
65.4249 1633 40.4104
65.5425 1648 40.5956
65.6601 1529 39.1024
65.7777 1705 41.2916
65.8952 1844 42.9418
66.0128 2063 45.4203
66.1304 2094 45.7602
66.2479 2238 47.3075
66.3655 2211 47.0213
66.483 2337 48.3425
66.6005 2257 47.5079
66.718 2366 48.6415
66.8355 2494 49.94
66.953 2337 48.3425
67.0705 2494 49.94
67.1879 2413 49.1223
67.3054 2276 47.7074
67.4228 2263 47.571
67.5402 2225 47.1699
67.6576 2311 48.0729
67.7749 2450 49.4975
67.8923 2549 50.4876
68.0096 2653 51.5073
68.1269 2882 53.6843
68.2442 2837 53.2635
68.3614 2921 54.0463
68.4787 2817 53.0754
68.5958 3006 54.827
68.713 2878 53.647
68.8302 2668 51.6527
68.9473 2422 49.2138
69.0643 2295 47.9062
69.1814 2094 45.7602
69.2984 2015 44.8888
69.4154 2296 47.9166
69.5323 2619 51.1762
69.6492 2787 52.792
69.7661 3073 55.4346
69.8829 3201 56.5774
69.9997 3083 55.5248
70.1165 3208 56.6392
70.2332 3173 56.3294
70.3499 3291 57.3672
70.4665 3297 57.4195
70.5831 3304 57.4804
70.6996 3338 57.7754
70.8161 3233 56.8595
70.9326 3188 56.4624
71.049 3100 55.6776
71.1653 2990 54.6809
71.2817 2955 54.3599
71.3979 2823 53.1319
71.5141 2899 53.8424
71.6303 2950 54.3139
71.7464 2880 53.6656
71.8624 0 1
71.9784 0 1
72.0944 0 1
72.2102 0 1
72.3261 0 1
72.4418 0 1
72.5575 0 1
72.6732 0 1
75.1054 0 1
75.2209 0 1
75.3365 0 1
75.4521 0 1
75.5678 0 1
75.6835 0 1
75.7993 0 1
75.9151 0 1
76.031 0 1
76.147 2197 46.8722
76.263 2334 48.3115
76.3791 2325 48.2183
76.4952 2124 46.0869
76.6113 2161 46.4866
76.7276 2254 47.4763
76.8438 2371 48.6929
76.9601 2448 49.4773
77.0765 2339 48.3632
77.1929 2337 48.3425
77.3093 2361 48.5901
77.4258 2414 49.1325
77.5423 2343 48.4045
77.6589 2152 46.3897
77.7755 1966 44.3396
77.8921 1801 42.4382
78.0088 1563 39.5348
78.1256 1487 38.5616
78.2423 1443 37.9868
78.3591 1533 39.1535
78.4759 1748 41.8091
78.5928 1962 44.2945
78.7097 2063 45.4203
78.8266 2070 45.4973
78.9436 2143 46.2925
79.0606 2164 46.5188
79.1776 2141 46.2709
79.2946 2190 46.7974
79.4117 2162 46.4973
79.5288 2235 47.2758
79.6459 2331 48.2804
79.7631 2183 46.7226
79.8802 2112 45.9565
79.9974 2061 45.3982
80.1147 1972 44.4072
80.2319 1909 43.6921
80.3491 2101 45.8367
80.4664 2189 46.7868
80.5837 2336 48.3322
80.701 2243 47.3603
80.8183 2211 47.0213
80.9357 2166 46.5403
81.053 2261 47.55
81.1704 2251 47.4447
81.2877 2249 47.4236
81.4051 2035 45.111
81.5225 1886 43.4281
81.6399 1656 40.694
81.7573 1488 38.5746
81.8747 1476 38.4187
81.9922 1418 37.6563
82.1096 1734 41.6413
82.227 1864 43.1741
82.3444 2003 44.7549
82.4619 2177 46.6583
82.5793 2059 45.3762
82.6967 2040 45.1664
82.8142 2194 46.8402
82.9316 2208 46.9894
83.049 2271 47.655
83.1664 2232 47.244
83.2838 2218 47.0956
83.4012 2235 47.2758
83.5186 2242 47.3498
83.636 2182 46.7119
83.7534 2018 44.9222
83.8708 2024 44.9889
83.9881 2078 45.5851
84.1055 2205 46.9574
84.2228 2326 48.2286
84.3401 2392 48.9081
84.4575 2430 49.295
84.5747 2391 48.8979
84.692 2349 48.4665
84.8093 2338 48.3529
84.9265 2248 47.4131
85.0437 2075 45.5522
85.1609 1856 43.0813
85.2781 1694 41.1582
85.3952 1537 39.2046
85.5123 1570 39.6232
85.6294 1699 41.2189
85.7465 2012 44.8553
85.8636 2171 46.594
85.9806 2191 46.8081
86.0976 2278 47.7284
86.2145 2338 48.3529
86.3315 2380 48.7852
86.4484 2458 49.5782
86.5652 2506 50.06
86.682 2597 50.9608
86.7988 2632 51.303
86.9156 2648 51.4587
87.0323 2651 51.4879
87.149 2539 50.3885
87.2657 2516 50.1597
87.3823 2454 49.5379
87.4988 2425 49.2443
87.6154 2583 50.8232
87.7318 2770 52.6308
87.8483 2836 53.2541
87.9647 2986 54.6443
88.081 2962 54.4243
88.1973 2980 54.5894
88.3136 3082 55.5158
88.4298 2985 54.6352
88.546 2803 52.9434
88.6621 2591 50.9019
88.7781 2371 48.6929
88.8942 0 1
89.0101 0 1
89.126 0 1
89.2419 0 1
89.3577 0 1
89.4734 0 1
89.5891 0 1
89.7047 0 1
89.8203 0 1
89.9358 0 1
92.3269 0 1
92.4424 0 1
92.558 0 1
92.6736 0 1
92.7893 0 1
92.905 0 1
93.0208 0 1
93.1366 0 1
93.2525 0 1
93.3685 0 1
93.4845 0 1
93.6005 3646 60.3821
93.7167 3788 61.5467
93.8328 3453 58.7622
93.949 3179 56.3826
94.0653 2923 54.0648
94.1816 2847 53.3573
94.2979 2592 50.9117
94.4143 2544 50.4381
94.5307 2669 51.6624
94.6472 2993 54.7083
94.7637 3208 56.6392
94.8803 3219 56.7362
94.9969 3598 59.9833
95.1135 3718 60.9754
95.2302 3758 61.3025
95.3469 3938 62.7535
95.4637 4057 63.6946
95.5805 4056 63.6867
95.6973 4136 64.3117
95.8142 4169 64.5678
95.9311 4263 65.2917
96.048 4097 64.0078
96.1649 4128 64.2495
96.2819 3929 62.6817
96.3989 3838 61.9516
96.516 3872 62.2254
96.633 3920 62.6099
96.7501 4067 63.773
96.8673 4181 64.6607
96.9844 4261 65.2763
97.1016 4246 65.1613
97.2188 4293 65.521
97.336 4293 65.521
97.4532 4101 64.0391
97.5704 3822 61.8223
97.6877 3547 59.5567
97.805 3203 56.5951
97.9223 3012 54.8817
98.0396 2828 53.1789
98.1569 2638 51.3615
98.2743 2820 53.1037
98.3916 2951 54.3231
98.509 3207 56.6304
98.6264 3279 57.2626
98.7438 3484 59.0254
98.8612 3602 60.0167
98.9786 3664 60.531
99.096 3646 60.3821
99.2134 3653 60.4401
99.3308 3812 61.7414
99.4482 3552 59.5987
99.5656 3438 58.6345
99.6831 3562 59.6825
99.8005 3465 58.8643
99.9179 3359 57.9569
100.035 3144 56.0714
100.153 3123 55.8838
100.27 3220 56.745
100.388 3335 57.7495
100.505 3462 58.8388
100.622 3450 58.7367
100.74 3251 57.0175
100.857 3448 58.7197
100.975 3338 57.7754
101.092 3345 57.836
101.209 3175 56.3471
101.327 2931 54.1387
101.444 2614 51.1273
101.561 2475 49.7494
101.679 2335 48.3218
101.796 2261 47.55
101.913 2368 48.6621
102.03 2468 49.679
102.148 2562 50.6162
102.265 2443 49.4267
102.382 3132 55.9643
102.499 2992 54.6992
102.616 3170 56.3028
102.733 3085 55.5428
102.851 3232 56.8507
102.968 3257 57.0701
103.085 3031 55.0545
103.202 3127 55.9196
103.319 3188 56.4624
103.436 3089 55.5788
103.552 2908 53.9259
103.669 2820 53.1037
103.786 2919 54.0278
103.903 2933 54.1572
104.02 3171 56.3116
104.137 3011 54.8726
104.253 3146 56.0892
104.37 3095 55.6327
104.487 3006 54.827
104.603 2909 53.9351
104.72 2757 52.5071
104.836 2647 51.449
104.953 2349 48.4665
105.069 2179 46.6798
105.186 2026 45.0111
105.302 1948 44.1362
105.418 2063 45.4203
105.535 2179 46.6798
105.651 2241 47.3392
105.767 2299 47.9479
105.883 2457 49.5681
105.999 2483 49.8297
106.115 0 1
106.231 0 1
106.347 0 1
106.463 0 1
106.579 0 1
106.694 0 1
106.81 0 1
106.926 0 1
107.041 0 1
107.157 0 1
109.576 0 1
109.692 0 1
109.807 0 1
109.923 0 1
110.039 0 1
110.155 0 1
110.27 0 1
110.386 0 1
110.502 0 1
110.618 1632 40.398
110.735 1835 42.8369
110.851 1974 44.4297
110.967 2035 45.111
111.083 2121 46.0543
111.199 2246 47.392
111.316 2286 47.8121
111.432 2333 48.3011
111.549 2312 48.0833
111.665 2323 48.1975
111.782 2309 48.0521
111.898 2189 46.7868
112.015 2079 45.5961
112.132 2046 45.2327
112.248 2077 45.5741
112.365 2090 45.7165
112.482 2249 47.4236
112.599 2203 46.9361
112.716 2285 47.8017
112.832 2339 48.3632
112.949 2289 47.8435
113.066 2241 47.3392
113.183 2330 48.2701
113.3 2205 46.9574
113.417 2136 46.2169
113.534 1872 43.2666
113.652 1791 42.3202
113.769 1707 41.3159
113.886 1608 40.0999
114.003 1629 40.3609
114.12 1673 40.9023
114.238 1850 43.0116
114.355 2049 45.2659
114.472 2086 45.6727
114.589 2109 45.9239
114.707 2224 47.1593
114.824 2250 47.4342
114.942 2282 47.7703
115.059 2300 47.9583
115.176 2293 47.8853
115.294 2258 47.5184
115.411 2248 47.4131
115.529 2108 45.913
115.646 2117 46.0109
115.764 2062 45.4093
115.881 2057 45.3542
115.999 2116 46
116.116 2237 47.2969
116.234 2208 46.9894
116.351 2217 47.085
116.469 2143 46.2925
116.586 2151 46.3789
116.704 2091 45.7275
116.821 2215 47.0638
116.939 2046 45.2327
117.056 1897 43.5546
117.174 1759 41.9404
117.291 1589 39.8623
117.409 1500 38.7298
117.526 1386 37.229
117.644 1576 39.6989
117.761 1693 41.1461
117.879 1819 42.6497
117.996 1832 42.8019
118.114 1894 43.5201
118.231 2027 45.0222
118.349 2149 46.3573
118.466 2093 45.7493
118.584 2230 47.2229
118.701 2082 45.6289
118.819 2251 47.4447
118.936 2214 47.0532
119.053 2122 46.0652
119.171 2108 45.913
119.288 2088 45.6946
119.405 2052 45.299
119.523 2143 46.2925
119.64 2195 46.8508
119.757 2410 49.0918
119.875 2297 47.927
119.992 2438 49.3761
120.109 2270 47.6445
120.226 2421 49.2037
120.343 2348 48.4562
120.46 2470 49.6991
120.578 2479 49.7896
120.695 2255 47.4868
120.812 2115 45.9891
120.929 1966 44.3396
121.046 1791 42.3202
121.163 1661 40.7554
121.279 1718 41.4488
121.396 1837 42.8602
121.513 2031 45.0666
121.63 2277 47.7179
121.747 2338 48.3529
121.863 2419 49.1833
121.98 2583 50.8232
122.097 2658 51.5558
122.213 2653 51.5073
122.33 2656 51.5364
122.446 2651 51.4879
122.563 2658 51.5558
122.679 2623 51.2152
122.795 2614 51.1273
122.912 2620 51.1859
123.028 2449 49.4874
123.144 2594 50.9313
123.26 2536 50.3587
123.377 0 1
123.493 0 1
123.609 0 1
123.725 0 1
123.84 0 1
123.956 0 1
124.072 0 1
124.188 0 1
124.303 0 1
124.419 0 1
126.852 0 1
126.968 0 1
127.083 0 1
127.199 0 1
127.315 0 1
127.431 0 1
127.547 0 1
127.663 0 1
127.779 0 1
127.895 0 1
128.011 0 1
128.127 0 1
128.243 0 1
128.359 2822 53.1225
128.476 2780 52.7257
128.592 2778 52.7067
128.708 2769 52.6213
128.825 2873 53.6004
128.941 2931 54.1387
129.058 2879 53.6563
129.174 2830 53.1977
129.291 2928 54.111
129.408 2847 53.3573
129.524 2789 52.811
129.641 2833 53.2259
129.758 2712 52.0769
129.875 2415 49.1426
129.992 2137 46.2277
130.108 1947 44.1248
130.225 1783 42.2256
130.342 1775 42.1307
130.459 1960 44.2719
130.576 2072 45.5192
130.693 2118 46.0217
130.81 2278 47.7284
130.928 2396 48.949
131.045 2477 49.7695
131.162 2427 49.2646
131.279 2461 49.6085
131.396 2416 49.1528
131.513 2581 50.8035
131.631 2389 48.8774
131.748 2374 48.7237
131.865 2252 47.4552
131.983 2294 47.8957
132.1 2287 47.8226
132.217 2353 48.5077
132.335 2403 49.0204
132.452 2366 48.6415
132.57 2361 48.5901
132.687 2224 47.1593
132.804 2390 48.8876
132.922 2377 48.7545
133.039 2228 47.2017
133.157 2264 47.5815
133.274 2183 46.7226
133.392 2071 45.5082
133.509 1884 43.4051
133.627 1709 41.3401
133.744 1616 40.1995
133.862 1445 38.0132
133.979 1499 38.7169
134.097 1656 40.694
134.214 1890 43.4741
134.332 1800 42.4264
134.449 1930 43.9318
134.567 1915 43.7607
134.684 2024 44.9889
134.802 1964 44.317
134.919 1930 43.9318
135.037 1896 43.5431
135.154 1894 43.5201
135.272 1798 42.4028
135.389 1885 43.4166
135.507 1809 42.5323
135.624 1833 42.8135
135.742 1846 42.9651
135.859 1856 43.0813
135.977 1910 43.7035
136.094 1837 42.8602
136.211 1830 42.7785
136.329 1819 42.6497
136.446 1888 43.4511
136.564 1928 43.909
136.681 1821 42.6732
136.798 1834 42.8252
136.915 1795 42.3674
137.033 1694 41.1582
137.15 1453 38.1182
137.267 1389 37.2693
137.384 1329 36.4555
137.502 1266 35.5809
137.619 1299 36.0416
137.736 1532 39.1408
137.853 1575 39.6863
137.97 1712 41.3763
138.087 1793 42.3438
138.204 1817 42.6263
138.321 1888 43.4511
138.438 1973 44.4185
138.555 1905 43.6463
138.672 2134 46.1952
138.788 1867 43.2088
138.905 1934 43.9773
139.022 1993 44.643
139.139 2039 45.1553
139.255 2026 45.0111
139.372 2041 45.1774
139.488 2128 46.1303
139.605 2081 45.618
139.721 2209 47
139.838 2135 46.2061
139.954 2238 47.3075
140.071 2239 47.3181
140.187 2256 47.4974
140.303 2314 48.1041
140.419 2235 47.2758
140.535 2239 47.3181
140.652 2084 45.6508
140.768 0 1
140.884 0 1
141 0 1
141.115 0 1
141.231 0 1
141.347 0 1
141.463 0 1
141.578 0 1
141.694 0 1
144.104 0 1
144.219 0 1
144.335 0 1
144.45 0 1
144.566 0 1
144.682 0 1
144.798 0 1
144.914 0 1
145.03 0 1
145.146 1956 44.2267
145.262 1925 43.8748
145.378 1930 43.9318
145.494 1909 43.6921
145.61 1913 43.7379
145.726 1835 42.8369
145.842 1701 41.2432
145.959 1600 40
146.075 1438 37.921
146.192 1338 36.5787
146.308 1253 35.3977
146.425 1331 36.4829
146.541 1429 37.8021
146.658 1502 38.7556
146.774 1541 39.2556
146.891 1644 40.5463
147.008 1644 40.5463
147.125 1623 40.2865
147.241 1642 40.5216
147.358 1660 40.7431
147.475 1565 39.5601
147.592 1541 39.2556
147.709 1562 39.5221
147.826 1517 38.9487
147.943 1520 38.9872
148.06 1579 39.7366
148.177 1604 40.05
148.294 1571 39.6358
148.411 1515 38.923
148.528 1554 39.4208
148.645 1515 38.923
148.762 1537 39.2046
148.88 1511 38.8716
148.997 1596 39.95
149.114 1416 37.6298
149.231 1517 38.9487
149.349 1420 37.6829
149.466 1362 36.9053
149.583 1200 34.641
149.701 1159 34.0441
149.818 1115 33.3916
149.935 1062 32.5883
150.053 1138 33.7343
150.17 1223 34.9714
150.287 1299 36.0416
150.405 1331 36.4829
150.522 1378 37.1214
150.64 1412 37.5766
150.757 1513 38.8973
150.875 1463 38.2492
150.992 1422 37.7094
151.11 1468 38.3145
151.227 1362 36.9053
151.344 1375 37.081
151.462 1373 37.054
151.579 1409 37.5366
151.697 1373 37.054
151.814 1417 37.6431
151.932 1481 38.4838
152.049 1553 39.4081
152.167 1491 38.6135
152.284 1519 38.9744
152.402 1535 39.1791
152.519 1469 38.3275
152.636 1533 39.1535
152.754 1534 39.1663
152.871 1608 40.0999
152.989 1530 39.1152
153.106 1373 37.054
153.223 1368 36.9865
153.341 1214 34.8425
153.458 1191 34.5109
153.575 1247 35.3129
153.693 1261 35.5106
153.81 1336 36.5513
153.927 1357 36.8375
154.044 1469 38.3275
154.162 1516 38.9358
154.279 1653 40.6571
154.396 1656 40.694
154.513 1657 40.7063
154.63 1652 40.6448
154.747 1737 41.6773
154.864 1699 41.2189
154.981 1672 40.8901
155.098 1675 40.9268
155.215 1726 41.5452
155.332 1728 41.5692
155.449 1839 42.8836
155.566 1802 42.45
155.683 1842 42.9185
155.8 1847 42.9767
155.917 1859 43.1161
156.033 1890 43.4741
156.15 0 1
156.267 0 1
156.383 0 1
156.5 0 1
156.617 0 1
156.733 0 1
156.85 0 1
156.966 0 1
157.082 0 1
157.199 0 1
157.315 0 1
157.431 0 1
157.547 0 1
157.664 0 1
157.78 0 1
157.896 0 1
158.012 0 1
158.128 0 1
158.244 0 1
158.359 0 1
158.475 0 1
158.591 0 1
158.706 0 1
