
6.15755 0 1
6.2731 0 1
6.3887 0 1
6.50437 0 1
6.62009 0 1
6.73587 0 1
6.8517 0 1
6.96759 0 1
7.08353 0 1
7.19952 0 1
7.31557 0 1
7.43166 0 1
7.54781 0 1
7.664 0 1
7.78024 0 1
7.89653 0 1
8.01286 0 1
8.12924 0 1
8.24567 0 1
8.36213 0 1
8.47864 0 1
8.59519 0 1
8.71178 0 1
8.82841 0 1
8.94508 0 1
9.06179 0 1
9.17853 0 1
9.29531 0 1
9.41212 0 1
9.52897 0 1
9.64584 0 1
9.76276 0 1
9.8797 0 1
9.99667 0 1
10.1137 0 1
10.2307 0 1
10.3478 0 1
10.4648 0 1
10.5819 0 1
10.6991 0 1
10.8162 0 1
10.9334 0 1
11.0506 0 1
11.1678 0 1
11.285 0 1
11.4023 0 1
11.5196 0 1
11.6369 0 1
11.7542 0 1
11.8715 0 1
11.9888 0 1
12.1062 0 1
12.2235 0 1
12.3409 0 1
12.4582 0 1
12.5756 0 1
12.693 0 1
12.8104 0 1
12.9278 0 1
13.0452 0 1
13.1626 0 1
13.28 0 1
13.3974 0 1
13.5149 0 1
13.6323 0 1
13.7497 0 1
13.8671 0 1
13.9845 0 1
14.1019 0 1
14.2193 0 1
14.3367 0 1
14.4541 0 1
14.5714 0 1
14.6888 0 1
14.8062 0 1
14.9235 0 1
15.0408 0 0
15.1581 0 0
15.2755 0 0
15.3927 0 0
15.51 0 0
15.6273 0 0
15.7445 0 0
15.8617 0 0
15.9789 0 0
16.0961 0 0
16.2132 0 0
16.3304 0 0
16.4475 0 0
16.5646 0 0
16.6816 0 0
16.7986 0 0
16.9156 0 0
17.0326 0 0
17.1496 0 0
17.2665 0 0
17.3833 0 0
17.5002 0 0
17.617 0 0
17.7338 0 0
17.8505 0 0
17.9672 0 0
18.0839 0 0
18.2005 0 0
18.3171 0 0
18.4337 0 0
18.5502 0 0
18.6666 0 0
18.7831 0 0
18.8994 0 0
19.0158 0 0
19.1321 0 0
19.2483 0 0
19.3645 0 0
19.4806 0 0
19.5967 0 0
19.7128 0 0
19.8288 0 0
19.9447 0 0
20.0606 0 1
20.1764 0 1
20.2922 0 1
20.4079 0 1
20.5236 0 1
20.6392 0 1
20.7548 0 1
20.8702 0 1
23.3078 0 1
23.4233 0 1
23.539 0 1
23.6547 0 1
23.7704 0 1
23.8862 0 1
24.0021 0 1
24.118 0 1
24.234 0 1
24.35 0 1
24.4661 35301 187.886
24.5822 35467 188.327
24.6984 34716 186.322
24.8146 34753 186.422
24.9309 34884 186.773
25.0472 34847 186.674
25.1636 34620 186.065
25.28 35722 189.003
25.3965 36422 190.845
25.513 37960 194.833
25.6296 39582 198.952
25.7462 41022 202.539
25.8628 41612 203.99
25.9795 42720 206.688
26.0962 43296 208.077
26.213 43377 208.271
26.3298 43000 207.364
26.4466 43752 209.17
26.5635 42980 207.316
26.6804 41876 204.636
26.7973 40215 200.537
26.9143 39004 197.494
27.0313 40102 200.255
27.1483 42522 206.209
27.2653 43279 208.036
27.3824 43174 207.784
27.4996 42828 206.949
27.6167 42433 205.993
27.7339 41642 204.064
27.8511 40507 201.264
27.9683 39567 198.915
28.0855 38833 197.061
28.2028 37324 193.194
28.3201 36327 190.596
28.4374 35363 188.051
28.5547 35157 187.502
28.6721 34892 186.794
28.7894 34749 186.411
28.9068 35847 189.333
29.0242 36897 192.086
29.1416 38204 195.458
29.259 39522 198.801
29.3764 40371 200.925
29.4939 41820 204.499
29.6113 42523 206.211
29.7288 43018 207.408
29.8463 43212 207.875
29.9638 43586 208.773
30.0812 42622 206.451
30.1987 41232 203.057
30.3162 39255 198.129
30.4337 38393 195.941
30.5512 39559 198.894
30.6687 41055 202.62
30.7862 42360 205.815
30.9037 43093 207.589
31.0212 43034 207.446
31.1387 43349 208.204
31.2562 42729 206.71
31.3737 41734 204.289
31.4912 40258 200.644
31.6087 39547 198.864
31.7262 38400 195.959
31.8436 37471 193.574
31.9611 36444 190.903
32.0785 35629 188.756
32.1959 35016 187.126
32.3134 34862 186.714
32.4308 35526 188.483
32.5482 36668 191.489
32.6655 37968 194.854
32.7829 39401 198.497
32.9002 40729 201.814
33.0176 41860 204.597
33.1349 42783 206.841
33.2522 42872 207.056
33.3694 43689 209.019
33.4867 43580 208.758
33.6039 43590 208.782
33.7211 43608 208.825
33.8383 41785 204.414
33.9554 39678 199.193
34.0725 38519 196.263
34.1896 39014 197.52
34.3067 41212 203.007
34.4237 42712 206.669
34.5407 43638 208.897
34.6577 44303 210.483
34.7746 44112 210.029
34.8915 44446 210.822
35.0084 43901 209.526
35.1252 42556 206.291
35.242 41903 204.702
35.3587 40844 202.099
35.4755 40341 200.851
35.5921 39095 197.725
35.7088 38451 196.089
35.8254 37602 193.912
35.9419 36950 192.224
36.0584 36759 191.726
36.1749 37875 194.615
36.2913 39364 198.404
36.4077 40804 202
36.524 43121 207.656
36.6403 44601 211.189
36.7565 46286 215.142
36.8727 47582 218.133
36.9889 48641 220.547
37.1049 48370 219.932
37.221 0 1
37.3369 0 1
37.4529 0 1
37.5687 0 1
37.6845 0 1
37.8003 0 1
37.916 0 1
38.0316 0 1
38.1472 0 1
40.5851 0 1
40.7008 0 1
40.8164 0 1
40.9322 0 1
41.048 0 1
41.1639 0 1
41.2798 0 1
41.3958 0 1
41.5118 0 1
41.6279 0 1
41.744 33083 181.887
41.8602 35150 187.483
41.9765 36988 192.323
42.0928 37610 193.933
42.2091 38198 195.443
42.3255 38832 197.058
42.4419 38245 195.563
42.5584 37085 192.575
42.675 34528 185.817
42.7915 32118 179.215
42.9081 31352 177.065
43.0248 32522 180.339
43.1415 34293 185.184
43.2582 35375 188.082
43.375 36192 190.242
43.4918 36114 190.037
43.6087 35459 188.306
43.7256 35014 187.12
43.8425 34184 184.889
43.9595 33072 181.857
44.0765 32236 179.544
44.1935 30805 175.514
44.3106 29481 171.7
44.4277 28622 169.18
44.5448 27301 165.23
44.6619 25826 160.705
44.7791 24981 158.054
44.8963 24923 157.87
45.0136 24930 157.892
45.1308 25653 160.166
45.2481 26646 163.236
45.3654 27255 165.091
45.4827 28698 169.405
45.6001 28452 168.677
45.7174 28561 169
45.8348 28540 168.938
45.9522 28016 167.38
46.0697 27916 167.081
46.1871 26495 162.773
46.3046 24591 156.815
46.422 22622 150.406
46.5395 22846 151.149
46.657 23902 154.603
46.7745 25227 158.83
46.892 25469 159.59
47.0096 25689 160.278
47.1271 26003 161.254
47.2446 25440 159.499
47.3622 25027 158.199
47.4797 24461 156.4
47.5973 23695 153.932
47.7149 22838 151.122
47.8324 22028 148.418
47.95 20934 144.686
48.0675 20398 142.822
48.1851 19327 139.022
48.3027 18444 135.809
48.4202 17893 133.765
48.5378 18675 136.657
48.6554 18970 137.732
48.7729 19395 139.266
48.8904 20494 143.157
49.008 21224 145.685
49.1255 22089 148.624
49.243 22215 149.047
49.3605 22501 150.003
49.478 22532 150.107
49.5955 22158 148.856
49.713 21001 144.917
49.8304 19543 139.796
49.9479 18743 136.905
50.0653 19165 138.438
50.1827 20870 144.465
50.3001 22897 151.318
50.4175 23908 154.622
50.5348 25273 158.975
50.6521 25886 160.891
50.7694 26390 162.45
50.8867 26504 162.8
51.004 26813 163.747
51.1212 27060 164.499
51.2384 27208 164.948
51.3556 27242 165.052
51.4727 26637 163.208
51.5899 26072 161.468
51.707 25521 159.753
51.824 24846 157.626
51.9411 24683 157.108
52.0581 25723 160.384
52.175 27585 166.087
52.2919 29395 171.45
52.4088 31014 176.108
52.5257 32885 181.342
52.6425 33863 184.019
52.7593 35085 187.31
52.876 35207 187.635
52.9927 35464 188.319
53.1094 36078 189.942
53.226 35642 188.791
53.3426 33732 183.663
53.4591 31573 177.688
53.5756 30263 173.963
53.692 30796 175.488
53.8084 32975 181.59
53.9248 36171 190.187
54.0411 37782 194.376
54.1573 38667 196.639
54.2735 0 1
54.3896 0 1
54.5057 0 1
54.6217 0 1
54.7377 0 1
54.8537 0 1
54.9695 0 1
55.0853 0 1
55.2011 0 1
55.3168 0 1
55.4324 0 1
57.824 0 1
57.9396 0 1
58.0553 0 1
58.1711 0 1
58.2869 0 1
58.4028 0 1
58.5187 0 1
58.6347 0 1
58.7508 0 1
58.8669 0 1
58.983 38335 195.793
59.0992 41843 204.556
59.2155 43880 209.476
59.3318 45208 212.622
59.4482 45690 213.752
59.5646 45756 213.907
59.681 46076 214.653
59.7975 44830 211.731
59.9141 43983 209.721
60.0306 42203 205.434
60.1473 40767 201.908
60.2639 38754 196.86
60.3807 36587 191.277
60.4974 34878 186.757
60.6142 33540 183.139
60.731 33914 184.158
60.8479 34898 186.81
60.9648 36730 191.651
61.0818 38792 196.957
61.1987 40339 200.846
61.3158 41602 203.966
61.4328 42276 205.611
61.5499 42466 206.073
61.667 41683 204.164
61.7841 40386 200.963
61.9013 38207 195.466
62.0185 35541 188.523
62.1357 34345 185.324
62.253 34468 185.656
62.3702 36372 190.714
62.4875 38652 196.601
62.6049 39879 199.697
62.7222 41670 204.132
62.8396 41608 203.98
62.9569 42667 206.56
63.0743 42574 206.335
63.1918 42055 205.073
63.3092 41104 202.741
63.4267 40278 200.694
63.5441 38960 197.383
63.6616 37594 193.892
63.7791 35374 188.08
63.8966 33408 182.779
64.0142 31771 178.244
64.1317 30490 174.614
64.2492 30911 175.815
64.3668 31315 176.96
64.4843 33365 182.661
64.6019 35333 187.971
64.7195 37059 192.507
64.837 38319 195.752
64.9546 38403 195.967
65.0722 38798 196.972
65.1898 38719 196.771
65.3074 37750 194.294
65.4249 35546 188.536
65.5425 33231 182.294
65.6601 31426 177.274
65.7777 30919 175.838
65.8952 32500 180.278
66.0128 34257 185.086
66.1304 36599 191.309
66.2479 37701 194.167
66.3655 38801 196.98
66.483 40090 200.225
66.6005 40216 200.539
66.718 40065 200.162
66.8355 39990 199.975
66.953 39087 197.704
67.0705 38082 195.146
67.1879 37116 192.655
67.3054 35401 188.152
67.4228 33929 184.198
67.5402 31920 178.662
67.6576 29599 172.044
67.7749 28704 169.423
67.8923 28921 170.062
68.0096 30293 174.049
68.1269 32530 180.361
68.2442 34996 187.072
68.3614 36949 192.221
68.4787 38457 196.105
68.5958 38616 196.51
68.713 39145 197.851
68.8302 39264 198.151
68.9473 38933 197.314
69.0643 36590 191.285
69.1814 34002 184.396
69.2984 32386 179.961
69.4154 31938 178.712
69.5323 33090 181.907
69.6492 35797 189.201
69.7661 37716 194.206
69.8829 40174 200.435
69.9997 41556 203.853
70.1165 42285 205.633
70.2332 42546 206.267
70.3499 43125 207.666
70.4665 42857 207.019
70.5831 42387 205.881
70.6996 41464 203.627
70.8161 39973 199.932
70.9326 38541 196.319
71.049 36618 191.358
71.1653 34347 185.329
71.2817 31713 178.081
71.3979 29342 171.295
71.5141 28749 169.555
71.6303 29296 171.161
71.7464 27948 167.177
71.8624 0 1
71.9784 0 1
72.0944 0 1
72.2102 0 1
72.3261 0 1
72.4418 0 1
72.5575 0 1
72.6732 0 1
75.1054 0 1
75.2209 0 1
75.3365 0 1
75.4521 0 1
75.5678 0 1
75.6835 0 1
75.7993 0 1
75.9151 0 1
76.031 0 1
76.147 36167 190.176
76.263 37713 194.198
76.3791 37517 193.693
76.4952 35748 189.071
76.6113 32957 181.541
76.7276 30393 174.336
76.8438 30169 173.692
76.9601 31166 176.539
77.0765 32812 181.141
77.1929 35523 188.475
77.3093 38342 195.811
77.4258 40799 201.988
77.5423 41002 202.49
77.6589 41567 203.88
77.7755 41257 203.118
77.8921 41544 203.823
78.0088 39500 198.746
78.1256 36602 191.316
78.2423 33759 183.736
78.3591 31889 178.575
78.4759 31286 176.878
78.5928 32923 181.447
78.7097 35871 189.396
78.8266 37908 194.7
78.9436 40174 200.435
79.0606 41145 202.842
79.1776 41836 204.539
79.2946 42538 206.247
79.4117 42441 206.012
79.5288 42406 205.927
79.6459 42610 206.422
79.7631 40620 201.544
79.8802 39549 198.869
79.9974 37818 194.469
80.1147 35993 189.718
80.2319 33176 182.143
80.3491 30303 174.078
80.4664 29370 171.377
80.5837 30136 173.597
80.701 31257 176.796
80.8183 33608 183.325
80.9357 36655 191.455
81.053 38549 196.339
81.1704 39058 197.631
81.2877 39285 198.204
81.4051 38954 197.368
81.5225 39071 197.664
81.6399 36846 191.953
81.7573 35288 187.851
81.8747 31945 178.732
81.9922 30017 173.254
82.1096 29221 170.942
82.227 30241 173.899
82.3444 32607 180.574
82.4619 35217 187.662
82.5793 36765 191.742
82.6967 36960 192.25
82.8142 38103 195.2
82.9316 38345 195.819
83.049 38691 196.7
83.1664 38462 196.117
83.2838 37455 193.533
83.4012 36308 190.547
83.5186 35639 188.783
83.636 34015 184.432
83.7534 32438 180.106
83.8708 30028 173.286
83.9881 27576 166.06
84.1055 26420 162.542
84.2228 26846 163.847
84.3401 28209 167.955
84.4575 30523 174.708
84.5747 33034 181.753
84.692 34734 186.371
84.8093 35847 189.333
84.9265 36127 190.071
85.0437 36188 190.231
85.1609 35518 188.462
85.2781 33445 182.88
85.3952 31271 176.836
85.5123 29316 171.219
85.6294 28127 167.711
85.7465 28921 170.062
85.8636 31629 177.845
85.9806 33745 183.698
86.0976 35890 189.447
86.2145 37634 193.995
86.3315 38926 197.297
86.4484 40501 201.249
86.5652 41205 202.99
86.682 41276 203.165
86.7988 41114 202.766
86.9156 40393 200.98
87.0323 40149 200.372
87.149 38945 197.345
87.2657 37521 193.703
87.3823 35750 189.077
87.4988 33023 181.722
87.6154 30989 176.037
87.7318 30943 175.906
87.8483 32612 180.588
87.9647 35137 187.449
88.081 38482 196.168
88.1973 40477 201.189
88.3136 41624 204.02
88.4298 42031 205.015
88.546 41804 204.46
88.6621 41660 204.108
88.7781 39749 199.372
88.8942 0 1
89.0101 0 1
89.126 0 1
89.2419 0 1
89.3577 0 1
89.4734 0 1
89.5891 0 1
89.7047 0 1
89.8203 0 1
89.9358 0 1
92.3269 0 1
92.4424 0 1
92.558 0 1
92.6736 0 1
92.7893 0 1
92.905 0 1
93.0208 0 1
93.1366 0 1
93.2525 0 1
93.3685 0 1
93.4845 0 1
93.6005 38662 196.627
93.7167 40435 201.085
93.8328 40344 200.858
93.949 40615 201.532
94.0653 39887 199.717
94.1816 39110 197.762
94.2979 37363 193.295
94.4143 35680 188.892
94.5307 34218 184.981
94.6472 32632 180.643
94.7637 32892 181.362
94.8803 33962 184.288
94.9969 36201 190.266
95.1135 37571 193.832
95.2302 39190 197.965
95.3469 40766 201.906
95.4637 41693 204.189
95.5805 42745 206.749
95.6973 43630 208.878
95.8142 43656 208.94
95.9311 43791 209.263
96.048 43152 207.731
96.1649 42273 205.604
96.2819 40999 202.482
96.3989 39803 199.507
96.516 37792 194.402
96.633 35177 187.555
96.7501 33217 182.255
96.8673 32651 180.696
96.9844 33453 182.902
97.1016 35268 187.798
97.2188 37612 193.938
97.336 39836 199.59
97.4532 41333 203.305
97.5704 41227 203.044
97.6877 41234 203.062
97.805 40359 200.895
97.9223 38688 196.693
98.0396 36287 190.491
98.1569 34294 185.186
98.2743 32941 181.497
98.3916 32265 179.625
98.509 33876 184.054
98.6264 35134 187.441
98.7438 37575 193.843
98.8612 39409 198.517
98.9786 41013 202.517
99.096 42062 205.09
99.2134 42886 207.089
99.3308 44086 209.967
99.4482 43755 209.177
99.5656 43627 208.871
99.6831 43062 207.514
99.8005 42283 205.628
99.9179 41311 203.251
100.035 39904 199.76
100.153 37947 194.8
100.27 35307 187.902
100.388 34185 184.892
100.505 34271 185.124
100.622 36582 191.264
100.74 38579 196.415
100.857 41174 202.914
100.975 41956 204.832
101.092 42242 205.529
101.209 42382 205.869
101.327 42041 205.039
101.444 40970 202.41
101.561 38947 197.35
101.679 36929 192.169
101.796 35167 187.529
101.913 33787 183.812
102.03 34387 185.437
102.148 36499 191.047
102.265 41293 203.207
102.382 38200 195.448
102.499 42104 205.193
102.616 44053 209.888
102.733 45048 212.245
102.851 46103 214.716
102.968 45927 214.306
103.085 45806 214.023
103.202 45270 212.767
103.319 44752 211.547
103.436 43626 208.868
103.552 42646 206.509
103.669 40436 201.087
103.786 38115 195.231
103.903 36464 190.955
104.02 36967 192.268
104.137 39041 197.588
104.253 42039 205.034
104.37 42511 206.182
104.487 45082 212.325
104.603 45402 213.077
104.72 45572 213.476
104.836 45406 213.087
104.953 44012 209.79
105.069 41509 203.738
105.186 39560 198.897
105.302 37950 194.808
105.418 37124 192.676
105.535 38321 195.758
105.651 41221 203.03
105.767 42578 206.344
105.883 45146 212.476
105.999 46566 215.792
106.115 0 1
106.231 0 1
106.347 0 1
106.463 0 1
106.579 0 1
106.694 0 1
106.81 0 1
106.926 0 1
107.041 0 1
107.157 0 1
109.576 0 1
109.692 0 1
109.807 0 1
109.923 0 1
110.039 0 1
110.155 0 1
110.27 0 1
110.386 0 1
110.502 0 1
110.618 37877 194.62
110.735 40647 201.611
110.851 42840 206.978
110.967 44584 211.149
111.083 45388 213.045
111.199 46862 216.476
111.316 47867 218.785
111.432 48701 220.683
111.549 48229 219.611
111.665 48028 219.153
111.782 46702 216.106
111.898 46324 215.23
112.015 45115 212.403
112.132 43793 209.268
112.248 40611 201.522
112.365 38893 197.213
112.482 39103 197.745
112.599 39893 199.732
112.716 42258 205.568
112.832 44455 210.844
112.949 45175 212.544
113.066 45404 213.082
113.183 45603 213.549
113.3 45609 213.563
113.417 44102 210.005
113.534 42697 206.633
113.652 40895 202.225
113.769 39492 198.726
113.886 37759 194.317
114.003 37149 192.741
114.12 38584 196.428
114.238 40201 200.502
114.355 41809 204.472
114.472 45677 213.722
114.589 42222 205.48
114.707 45342 212.937
114.824 46392 215.388
114.942 47815 218.666
115.059 48016 219.126
115.176 47562 218.087
115.294 47330 217.555
115.411 46603 215.877
115.529 45850 214.126
115.646 44282 210.433
115.764 42433 205.993
115.881 40130 200.325
115.999 39660 199.148
116.116 40121 200.302
116.234 42199 205.424
116.351 43679 208.995
116.469 45258 212.739
116.586 45716 213.813
116.704 45367 212.995
116.821 45629 213.609
116.939 44724 211.48
117.056 43423 208.382
117.174 42366 205.83
117.291 40224 200.559
117.409 38807 196.995
117.526 38091 195.169
117.644 38742 196.83
117.761 39791 199.477
117.879 41229 203.049
117.996 42010 204.963
118.114 43994 209.747
118.231 45174 212.542
118.349 45050 212.25
118.466 46140 214.802
118.584 46658 216.005
118.701 46934 216.643
118.819 46775 216.275
118.936 45748 213.888
119.053 44640 211.282
119.171 44035 209.845
119.288 42707 206.657
119.405 41331 203.3
119.523 39364 198.404
119.64 39052 197.616
119.757 39976 199.94
119.875 41618 204.005
119.992 42794 206.867
120.109 43655 208.938
120.226 43858 209.423
120.343 44322 210.528
120.46 44249 210.354
120.578 43412 208.355
120.695 42778 206.828
120.812 41121 202.783
120.929 39862 199.655
121.046 38993 197.466
121.163 38216 195.489
121.279 38182 195.402
121.396 38999 197.482
121.513 40240 200.599
121.63 41347 203.34
121.747 42972 207.297
121.863 43373 208.262
121.98 43807 209.301
122.097 45060 212.273
122.213 45046 212.24
122.33 45527 213.371
122.446 45172 212.537
122.563 44303 210.483
122.679 43708 209.065
122.795 42899 207.121
122.912 42033 205.02
123.028 41106 202.746
123.144 39490 198.721
123.26 38016 194.977
123.377 0 1
123.493 0 1
123.609 0 1
123.725 0 1
123.84 0 1
123.956 0 1
124.072 0 1
124.188 0 1
124.303 0 1
124.419 0 1
126.852 0 1
126.968 0 1
127.083 0 1
127.199 0 1
127.315 0 1
127.431 0 1
127.547 0 1
127.663 0 1
127.779 0 1
127.895 0 1
128.011 0 1
128.127 0 1
128.243 0 1
128.359 43694 209.031
128.476 42758 206.78
128.592 43046 207.475
128.708 44439 210.806
128.825 45833 214.086
128.941 46951 216.682
129.058 47656 218.303
129.174 47967 219.014
129.291 47540 218.037
129.408 47631 218.245
129.524 46455 215.534
129.641 45464 213.223
129.758 44468 210.874
129.875 43183 207.805
129.992 41769 204.375
130.108 41471 203.644
130.225 41704 204.216
130.342 42514 206.189
130.459 42894 207.109
130.576 45040 212.226
130.693 45649 213.656
130.81 46236 215.026
130.928 46660 216.009
131.045 47570 218.105
131.162 47978 219.039
131.279 48737 220.765
131.396 48529 220.293
131.513 47835 218.712
131.631 46695 216.09
131.748 46348 215.286
131.865 45698 213.771
131.983 44179 210.188
132.1 44744 211.528
132.217 45404 213.082
132.335 46810 216.356
132.452 47727 218.465
132.57 48413 220.03
132.687 46823 216.386
132.804 49880 223.338
132.922 48055 219.215
133.039 47158 217.159
133.157 46487 215.608
133.274 44778 211.608
133.392 43826 209.347
133.509 42737 206.729
133.627 42487 206.124
133.744 41661 204.11
133.862 42471 206.085
133.979 43542 208.667
134.097 44519 210.995
134.214 44899 211.894
134.332 45503 213.314
134.449 46848 216.444
134.567 47169 217.184
134.684 47767 218.557
134.802 48887 221.104
134.919 48604 220.463
135.037 48317 219.811
135.154 47364 217.633
135.272 46069 214.637
135.389 45629 213.609
135.507 44448 210.827
135.624 44403 210.72
135.742 45373 213.009
135.859 46496 215.629
135.977 47305 217.497
136.094 48047 219.196
136.211 48220 219.591
136.329 48404 220.009
136.446 48763 220.823
136.564 47930 218.929
136.681 46550 215.754
136.798 45766 213.93
136.915 44752 211.547
137.033 43605 208.818
137.15 42754 206.77
137.267 41765 204.365
137.384 41727 204.272
137.502 42348 205.786
137.619 43167 207.767
137.736 43659 208.947
137.853 43423 208.382
137.97 45559 213.446
138.087 45126 212.429
138.204 46603 215.877
138.321 47673 218.341
138.438 47828 218.696
138.555 48707 220.697
138.672 48316 219.809
138.788 47701 218.406
138.905 46178 214.891
139.022 46012 214.504
139.139 45882 214.201
139.255 45755 213.904
139.372 47073 216.963
139.488 47844 218.733
139.605 49393 222.245
139.721 49192 221.793
139.838 49848 223.267
139.954 49254 221.932
140.071 48596 220.445
140.187 48739 220.769
140.303 47617 218.213
140.419 46807 216.349
140.535 45191 212.582
140.652 43588 208.777
140.768 0 1
140.884 0 1
141 0 1
141.115 0 1
141.231 0 1
141.347 0 1
141.463 0 1
141.578 0 1
141.694 0 1
144.104 0 1
144.219 0 1
144.335 0 1
144.45 0 1
144.566 0 1
144.682 0 1
144.798 0 1
144.914 0 1
145.03 0 1
145.146 43965 209.678
145.262 43628 208.873
145.378 42476 206.097
145.494 42239 205.521
145.61 41102 202.736
145.726 40559 201.393
145.842 39836 199.59
145.959 39893 199.732
146.075 39945 199.862
146.192 40788 201.96
146.308 41193 202.961
146.425 41460 203.617
146.541 42184 205.387
146.658 42719 206.686
146.774 43038 207.456
146.891 43346 208.197
147.008 44068 209.924
147.125 45640 213.635
147.241 45008 212.151
147.358 44270 210.404
147.475 42970 207.292
147.592 42216 205.465
147.709 41700 204.206
147.826 42048 205.056
147.943 43413 208.358
148.06 44146 210.109
148.177 45635 213.624
148.294 45577 213.488
148.411 45633 213.619
148.528 45212 212.631
148.645 44931 211.969
148.762 44715 211.459
148.88 44198 210.233
148.997 42471 206.085
149.114 43688 209.017
149.231 41760 204.353
149.349 41959 204.839
149.466 39819 199.547
149.583 39922 199.805
149.701 40287 200.716
149.818 40844 202.099
149.935 40577 201.437
150.053 41426 203.534
150.17 41470 203.642
150.287 42266 205.587
150.405 42509 206.177
150.522 43095 207.593
150.64 44031 209.836
150.757 44531 211.024
150.875 44828 211.726
150.992 43778 209.232
151.11 43021 207.415
151.227 41812 204.48
151.344 41453 203.6
151.462 41507 203.733
151.579 43578 208.753
151.697 44194 210.224
151.814 45634 213.621
151.932 46186 214.909
152.049 45803 214.016
152.167 45902 214.248
152.284 45718 213.818
152.402 44883 211.856
152.519 44269 210.402
152.636 43562 208.715
152.754 42764 206.795
152.871 41959 204.839
152.989 41562 203.868
153.106 40844 202.099
153.223 40681 201.695
153.341 40570 201.42
153.458 41250 203.101
153.575 41207 202.995
153.693 42014 204.973
153.81 42306 205.684
153.927 42645 206.507
154.044 43535 208.65
154.162 43511 208.593
154.279 44995 212.12
154.396 45874 214.182
154.513 46495 215.627
154.63 45843 214.11
154.747 45216 212.641
154.864 43874 209.461
154.981 43481 208.521
155.098 43612 208.835
155.215 44628 211.253
155.332 46054 214.602
155.449 46342 215.272
155.566 46686 216.069
155.683 46768 216.259
155.8 46289 215.149
155.917 46092 214.69
156.033 46310 215.198
156.15 0 1
156.267 0 1
156.383 0 1
156.5 0 1
156.617 0 1
156.733 0 1
156.85 0 1
156.966 0 1
157.082 0 1
157.199 0 1
157.315 0 1
157.431 0 1
157.547 0 1
157.664 0 1
157.78 0 1
157.896 0 1
158.012 0 1
158.128 0 1
158.244 0 1
158.359 0 1
158.475 0 1
158.591 0 1
158.706 0 1
