
6.15755 0 1
6.2731 0 1
6.3887 0 1
6.50437 0 1
6.62009 0 1
6.73587 0 1
6.8517 0 1
6.96759 0 1
7.08353 0 1
7.19952 0 1
7.31557 0 1
7.43166 0 1
7.54781 0 1
7.664 0 1
7.78024 0 1
7.89653 0 1
8.01286 0 1
8.12924 0 1
8.24567 0 1
8.36213 0 1
8.47864 0 1
8.59519 0 1
8.71178 0 1
8.82841 0 1
8.94508 0 1
9.06179 0 1
9.17853 0 1
9.29531 0 1
9.41212 0 1
9.52897 0 1
9.64584 0 1
9.76276 0 1
9.8797 0 1
9.99667 0 1
10.1137 0 1
10.2307 0 1
10.3478 0 1
10.4648 0 1
10.5819 0 1
10.6991 0 1
10.8162 0 1
10.9334 0 1
11.0506 0 1
11.1678 0 1
11.285 0 1
11.4023 0 1
11.5196 0 1
11.6369 0 1
11.7542 0 1
11.8715 0 1
11.9888 0 1
12.1062 0 1
12.2235 0 1
12.3409 0 1
12.4582 0 1
12.5756 0 1
12.693 0 1
12.8104 0 1
12.9278 0 1
13.0452 0 1
13.1626 0 1
13.28 0 1
13.3974 0 1
13.5149 0 1
13.6323 0 1
13.7497 0 1
13.8671 0 1
13.9845 0 1
14.1019 0 1
14.2193 0 1
14.3367 0 1
14.4541 0 1
14.5714 0 1
14.6888 0 1
14.8062 0 1
14.9235 0 1
15.0408 1262 35.5246
15.1581 1312 36.2215
15.2755 1426 37.7624
15.3927 1418 37.6563
15.51 1446 38.0263
15.6273 1371 37.027
15.7445 1471 38.3536
15.8617 1394 37.3363
15.9789 1436 37.8946
16.0961 1414 37.6032
16.2132 1461 38.223
16.3304 1462 38.2361
16.4475 1585 39.8121
16.5646 1555 39.4335
16.6816 1651 40.6325
16.7986 1677 40.9512
16.9156 1803 42.4617
17.0326 1746 41.7852
17.1496 1707 41.3159
17.2665 1691 41.1218
17.3833 1684 41.0366
17.5002 1632 40.398
17.617 1544 39.2938
17.7338 1425 37.7492
17.8505 1449 38.0657
17.9672 1458 38.1838
18.0839 1459 38.1969
18.2005 1545 39.3065
18.3171 1557 39.4588
18.4337 1575 39.6863
18.5502 1570 39.6232
18.6666 1557 39.4588
18.7831 1556 39.4462
18.8994 1698 41.2068
19.0158 1703 41.2674
19.1321 1627 40.3361
19.2483 1489 38.5876
19.3645 1407 37.51
19.4806 1391 37.2961
19.5967 1256 35.4401
19.7128 1166 34.1467
19.8288 1131 33.6303
19.9447 1065 32.6343
20.0606 0 1
20.1764 0 1
20.2922 0 1
20.4079 0 1
20.5236 0 1
20.6392 0 1
20.7548 0 1
20.8702 0 1
23.3078 0 1
23.4233 0 1
23.539 0 1
23.6547 0 1
23.7704 0 1
23.8862 0 1
24.0021 0 1
24.118 0 1
24.234 0 1
24.35 0 1
24.4661 671 25.9037
24.5822 835 28.8964
24.6984 911 30.1828
24.8146 1012 31.8119
24.9309 1118 33.4365
25.0472 1223 34.9714
25.1636 1292 35.9444
25.28 1452 38.1051
25.3965 1488 38.5746
25.513 1616 40.1995
25.6296 1802 42.45
25.7462 1765 42.0119
25.8628 1906 43.6578
25.9795 1793 42.3438
26.0962 1797 42.391
26.213 1750 41.833
26.3298 1575 39.6863
26.4466 1568 39.598
26.5635 1487 38.5616
26.6804 1544 39.2938
26.7973 1610 40.1248
26.9143 1567 39.5854
27.0313 1640 40.4969
27.1483 1639 40.4846
27.2653 1725 41.5331
27.3824 1755 41.8927
27.4996 1724 41.5211
27.6167 1674 40.9145
27.7339 1678 40.9634
27.8511 1593 39.9124
27.9683 1546 39.3192
28.0855 1596 39.95
28.2028 1479 38.4578
28.3201 1472 38.3667
28.4374 1460 38.2099
28.5547 1442 37.9737
28.6721 1537 39.2046
28.7894 1622 40.2741
28.9068 1550 39.37
29.0242 1678 40.9634
29.1416 1770 42.0714
29.259 1800 42.4264
29.3764 1758 41.9285
29.4939 1761 41.9643
29.6113 1688 41.0853
29.7288 1642 40.5216
29.8463 1568 39.598
29.9638 1443 37.9868
30.0812 1459 38.1969
30.1987 1556 39.4462
30.3162 1528 39.0896
30.4337 1522 39.0128
30.5512 1617 40.2119
30.6687 1586 39.8246
30.7862 1578 39.724
30.9037 1555 39.4335
31.0212 1669 40.8534
31.1387 1640 40.4969
31.2562 1686 41.0609
31.3737 1596 39.95
31.4912 1547 39.3319
31.6087 1494 38.6523
31.7262 1513 38.8973
31.8436 1455 38.1445
31.9611 1347 36.7015
32.0785 1388 37.2559
32.1959 1527 39.0768
32.3134 1499 38.7169
32.4308 1677 40.9512
32.5482 1659 40.7308
32.6655 1681 41
32.7829 1660 40.7431
32.9002 1760 41.9524
33.0176 1729 41.5812
33.1349 1700 41.2311
33.2522 1646 40.5709
33.3694 1598 39.975
33.4867 1438 37.921
33.6039 1380 37.1484
33.7211 1364 36.9324
33.8383 1397 37.3765
33.9554 1397 37.3765
34.0725 1481 38.4838
34.1896 1505 38.7943
34.3067 1460 38.2099
34.4237 1531 39.128
34.5407 1557 39.4588
34.6577 1629 40.3609
34.7746 1549 39.3573
34.8915 1442 37.9737
35.0084 1557 39.4588
35.1252 1491 38.6135
35.242 1442 37.9737
35.3587 1409 37.5366
35.4755 1454 38.1314
35.5921 1343 36.647
35.7088 1343 36.647
35.8254 1353 36.7831
35.9419 1378 37.1214
36.0584 1497 38.6911
36.1749 1445 38.0132
36.2913 1439 37.9342
36.4077 1500 38.7298
36.524 1477 38.4318
36.6403 1350 36.7423
36.7565 1360 36.8782
36.8727 1307 36.1525
36.9889 1197 34.5977
37.1049 1047 32.3574
37.221 0 1
37.3369 0 1
37.4529 0 1
37.5687 0 1
37.6845 0 1
37.8003 0 1
37.916 0 1
38.0316 0 1
38.1472 0 1
40.5851 0 1
40.7008 0 1
40.8164 0 1
40.9322 0 1
41.048 0 1
41.1639 0 1
41.2798 0 1
41.3958 0 1
41.5118 0 1
41.6279 0 1
41.744 760 27.5681
41.8602 851 29.1719
41.9765 920 30.3315
42.0928 995 31.5436
42.2091 996 31.5595
42.3255 901 30.0167
42.4419 882 29.6985
42.5584 934 30.5614
42.675 1039 32.2335
42.7915 1106 33.2566
42.9081 1117 33.4215
43.0248 1233 35.1141
43.1415 1246 35.2987
43.2582 1304 36.1109
43.375 1378 37.1214
43.4918 1296 36
43.6087 1328 36.4417
43.7256 1300 36.0555
43.8425 1274 35.6931
43.9595 1257 35.4542
44.0765 1219 34.9142
44.1935 1205 34.7131
44.3106 1176 34.2929
44.4277 1070 32.7109
44.5448 1047 32.3574
44.6619 1017 31.8904
44.7791 1173 34.2491
44.8963 1232 35.0999
45.0136 1291 35.9305
45.1308 1287 35.8748
45.2481 1308 36.1663
45.3654 1361 36.8917
45.4827 1290 35.9166
45.6001 1287 35.8748
45.7174 1262 35.5246
45.8348 1240 35.2136
45.9522 1181 34.3657
46.0697 1094 33.0757
46.1871 1089 33
46.3046 1123 33.5112
46.422 1169 34.1906
46.5395 1206 34.7275
46.657 1221 34.9428
46.7745 1307 36.1525
46.892 1268 35.609
47.0096 1387 37.2424
47.1271 1366 36.9594
47.2446 1307 36.1525
47.3622 1269 35.623
47.4797 1242 35.242
47.5973 1261 35.5106
47.7149 1252 35.3836
47.8324 1177 34.3074
47.95 1149 33.8969
48.0675 1097 33.121
48.1851 1052 32.4345
48.3027 1150 33.9116
48.4202 1163 34.1028
48.5378 1324 36.3868
48.6554 1330 36.4692
48.7729 1429 37.8021
48.8904 1395 37.3497
49.008 1328 36.4417
49.1255 1302 36.0832
49.243 1328 36.4417
49.3605 1215 34.8569
49.478 1126 33.5559
49.5955 1076 32.8024
49.713 1034 32.1559
49.8304 1012 31.8119
49.9479 1116 33.4066
50.0653 1171 34.2199
50.1827 1193 34.5398
50.3001 1223 34.9714
50.4175 1271 35.6511
50.5348 1359 36.8646
50.6521 1323 36.3731
50.7694 1322 36.3593
50.8867 1390 37.2827
51.004 1351 36.756
51.1212 1348 36.7151
51.2384 1297 36.0139
51.3556 1258 35.4683
51.4727 1232 35.0999
51.5899 1147 33.8674
51.707 1154 33.9706
51.824 1265 35.5668
51.9411 1368 36.9865
52.0581 1458 38.1838
52.175 1617 40.2119
52.2919 1686 41.0609
52.4088 1624 40.2989
52.5257 1686 41.0609
52.6425 1704 41.2795
52.7593 1709 41.3401
52.876 1684 41.0366
52.9927 1612 40.1497
53.1094 1453 38.1182
53.226 1388 37.2559
53.3426 1362 36.9053
53.4591 1414 37.6032
53.5756 1386 37.229
53.692 1406 37.4967
53.8084 1484 38.5227
53.9248 1384 37.2022
54.0411 1335 36.5377
54.1573 1233 35.1141
54.2735 0 1
54.3896 0 1
54.5057 0 1
54.6217 0 1
54.7377 0 1
54.8537 0 1
54.9695 0 1
55.0853 0 1
55.2011 0 1
55.3168 0 1
55.4324 0 1
57.824 0 1
57.9396 0 1
58.0553 0 1
58.1711 0 1
58.2869 0 1
58.4028 0 1
58.5187 0 1
58.6347 0 1
58.7508 0 1
58.8669 0 1
58.983 996 31.5595
59.0992 1118 33.4365
59.2155 1304 36.1109
59.3318 1383 37.1887
59.4482 1438 37.921
59.5646 1487 38.5616
59.681 1500 38.7298
59.7975 1525 39.0512
59.9141 1478 38.4448
60.0306 1480 38.4708
60.1473 1418 37.6563
60.2639 1402 37.4433
60.3807 1407 37.51
60.4974 1437 37.9078
60.6142 1529 39.1024
60.731 1527 39.0768
60.8479 1637 40.4599
60.9648 1642 40.5216
61.0818 1658 40.7185
61.1987 1703 41.2674
61.3158 1614 40.1746
61.4328 1645 40.5586
61.5499 1478 38.4448
61.667 1471 38.3536
61.7841 1247 35.3129
61.9013 1278 35.7491
62.0185 1274 35.6931
62.1357 1348 36.7151
62.253 1404 37.47
62.3702 1437 37.9078
62.4875 1431 37.8286
62.6049 1638 40.4722
62.7222 1558 39.4715
62.8396 1596 39.95
62.9569 1643 40.5339
63.0743 1602 40.025
63.1918 1582 39.7744
63.3092 1592 39.8999
63.4267 1570 39.6232
63.5441 1483 38.5097
63.6616 1430 37.8153
63.7791 1399 37.4032
63.8966 1311 36.2077
64.0142 1358 36.8511
64.1317 1400 37.4166
64.2492 1430 37.8153
64.3668 1569 39.6106
64.4843 1596 39.95
64.6019 1664 40.7922
64.7195 1676 40.939
64.837 1646 40.5709
64.9546 1716 41.4246
65.0722 1504 38.7814
65.1898 1528 39.0896
65.3074 1323 36.3731
65.4249 1276 35.7211
65.5425 1252 35.3836
65.6601 1258 35.4683
65.7777 1292 35.9444
65.8952 1372 37.0405
66.0128 1423 37.7227
66.1304 1499 38.7169
66.2479 1535 39.1791
66.3655 1572 39.6485
66.483 1602 40.025
66.6005 1577 39.7115
66.718 1619 40.2368
66.8355 1553 39.4081
66.953 1518 38.9615
67.0705 1430 37.8153
67.1879 1475 38.4057
67.3054 1320 36.3318
67.4228 1310 36.1939
67.5402 1230 35.0714
67.6576 1298 36.0278
67.7749 1360 36.8782
67.8923 1442 37.9737
68.0096 1470 38.3406
68.1269 1607 40.0874
68.2442 1548 39.3446
68.3614 1542 39.2683
68.4787 1565 39.5601
68.5958 1602 40.025
68.713 1573 39.6611
68.8302 1391 37.2961
68.9473 1321 36.3456
69.0643 1208 34.7563
69.1814 1137 33.7194
69.2984 1168 34.176
69.4154 1214 34.8425
69.5323 1310 36.1939
69.6492 1420 37.6829
69.7661 1522 39.0128
69.8829 1525 39.0512
69.9997 1506 38.8072
70.1165 1435 37.8814
70.2332 1398 37.3898
70.3499 1339 36.5923
70.4665 1251 35.3695
70.5831 1214 34.8425
70.6996 1147 33.8674
70.8161 1084 32.9242
70.9326 950 30.8221
71.049 877 29.6142
71.1653 723 26.8887
71.2817 667 25.8263
71.3979 612 24.7386
71.5141 635 25.1992
71.6303 609 24.6779
71.7464 564 23.7487
71.8624 0 1
71.9784 0 1
72.0944 0 1
72.2102 0 1
72.3261 0 1
72.4418 0 1
72.5575 0 1
72.6732 0 1
75.1054 0 1
75.2209 0 1
75.3365 0 1
75.4521 0 1
75.5678 0 1
75.6835 0 1
75.7993 0 1
75.9151 0 1
76.031 0 1
76.147 900 30
76.263 1035 32.1714
76.3791 971 31.1609
76.4952 1003 31.6702
76.6113 1026 32.0312
76.7276 1063 32.6037
76.8438 1159 34.0441
76.9601 1270 35.6371
77.0765 1311 36.2077
77.1929 1355 36.8103
77.3093 1318 36.3043
77.4258 1374 37.0675
77.5423 1415 37.6165
77.6589 1304 36.1109
77.7755 1171 34.2199
77.8921 1040 32.249
78.0088 1023 31.9844
78.1256 959 30.9677
78.2423 921 30.348
78.3591 1067 32.665
78.4759 1107 33.2716
78.5928 1145 33.8378
78.7097 1230 35.0714
78.8266 1232 35.0999
78.9436 1336 36.5513
79.0606 1285 35.8469
79.1776 1382 37.1753
79.2946 1364 36.9324
79.4117 1377 37.108
79.5288 1340 36.606
79.6459 1361 36.8917
79.7631 1254 35.4119
79.8802 1304 36.1109
79.9974 1261 35.5106
80.1147 1103 33.2114
80.2319 1121 33.4813
80.3491 1186 34.4384
80.4664 1185 34.4238
80.5837 1245 35.2846
80.701 1425 37.7492
80.8183 1406 37.4967
80.9357 1469 38.3275
81.053 1376 37.0945
81.1704 1433 37.855
81.2877 1455 38.1445
81.4051 1400 37.4166
81.5225 1288 35.8887
81.6399 1180 34.3511
81.7573 1124 33.5261
81.8747 1018 31.9061
81.9922 950 30.8221
82.1096 1074 32.7719
82.227 1225 35
82.3444 1236 35.1568
82.4619 1327 36.428
82.5793 1397 37.3765
82.6967 1351 36.756
82.8142 1411 37.5633
82.9316 1424 37.7359
83.049 1430 37.8153
83.1664 1424 37.7359
83.2838 1418 37.6563
83.4012 1352 36.7696
83.5186 1340 36.606
83.636 1323 36.3731
83.7534 1149 33.8969
83.8708 1107 33.2716
83.9881 1095 33.0908
84.1055 1128 33.5857
84.2228 1164 34.1174
84.3401 1330 36.4692
84.4575 1395 37.3497
84.5747 1425 37.7492
84.692 1433 37.855
84.8093 1437 37.9078
84.9265 1442 37.9737
85.0437 1332 36.4966
85.1609 1168 34.176
85.2781 1064 32.619
85.3952 1011 31.7962
85.5123 1004 31.686
85.6294 997 31.5753
85.7465 1088 32.9848
85.8636 1247 35.3129
85.9806 1241 35.2278
86.0976 1337 36.565
86.2145 1347 36.7015
86.3315 1392 37.3095
86.4484 1395 37.3497
86.5652 1474 38.3927
86.682 1498 38.704
86.7988 1429 37.8021
86.9156 1405 37.4833
87.0323 1401 37.4299
87.149 1280 35.7771
87.2657 1246 35.2987
87.3823 1118 33.4365
87.4988 1105 33.2415
87.6154 996 31.5595
87.7318 1076 32.8024
87.8483 1016 31.8748
87.9647 1072 32.7414
88.081 1135 33.6898
88.1973 1143 33.8083
88.3136 1094 33.0757
88.4298 1019 31.9218
88.546 940 30.6594
88.6621 804 28.3549
88.7781 668 25.8457
88.8942 0 1
89.0101 0 1
89.126 0 1
89.2419 0 1
89.3577 0 1
89.4734 0 1
89.5891 0 1
89.7047 0 1
89.8203 0 1
89.9358 0 1
92.3269 0 1
92.4424 0 1
92.558 0 1
92.6736 0 1
92.7893 0 1
92.905 0 1
93.0208 0 1
93.1366 0 1
93.2525 0 1
93.3685 0 1
93.4845 0 1
93.6005 1078 32.8329
93.7167 1206 34.7275
93.8328 1196 34.5832
93.949 1232 35.0999
94.0653 1242 35.242
94.1816 1212 34.8138
94.2979 1232 35.0999
94.4143 1147 33.8674
94.5307 1075 32.7872
94.6472 1039 32.2335
94.7637 1053 32.45
94.8803 1158 34.0294
94.9969 1188 34.4674
95.1135 1266 35.5809
95.2302 1393 37.3229
95.3469 1404 37.47
95.4637 1450 38.0789
95.5805 1424 37.7359
95.6973 1454 38.1314
95.8142 1412 37.5766
95.9311 1434 37.8682
96.048 1430 37.8153
96.1649 1454 38.1314
96.2819 1399 37.4032
96.3989 1377 37.108
96.516 1304 36.1109
96.633 1168 34.176
96.7501 1162 34.0881
96.8673 1202 34.6699
96.9844 1275 35.7071
97.1016 1306 36.1386
97.2188 1385 37.2156
97.336 1481 38.4838
97.4532 1422 37.7094
97.5704 1463 38.2492
97.6877 1430 37.8153
97.805 1442 37.9737
97.9223 1321 36.3456
98.0396 1220 34.9285
98.1569 1144 33.8231
98.2743 1068 32.6803
98.3916 1033 32.1403
98.509 1115 33.3916
98.6264 1208 34.7563
98.7438 1317 36.2905
98.8612 1404 37.47
98.9786 1436 37.8946
99.096 1422 37.7094
99.2134 1424 37.7359
99.3308 1476 38.4187
99.4482 1521 39
99.5656 1576 39.6989
99.6831 1523 39.0256
99.8005 1544 39.2938
99.9179 1467 38.3014
100.035 1388 37.2559
100.153 1398 37.3898
100.27 1250 35.3553
100.388 1265 35.5668
100.505 1342 36.6333
100.622 1397 37.3765
100.74 1492 38.6264
100.857 1537 39.2046
100.975 1587 39.8372
101.092 1610 40.1248
101.209 1562 39.5221
101.327 1509 38.8458
101.444 1564 39.5474
101.561 1301 36.0694
101.679 1214 34.8425
101.796 1159 34.0441
101.913 1070 32.7109
102.03 1119 33.4515
102.148 1227 35.0286
102.265 1388 37.2559
102.382 1461 38.223
102.499 1409 37.5366
102.616 1516 38.9358
102.733 1477 38.4318
102.851 1646 40.5709
102.968 1542 39.2683
103.085 1576 39.6989
103.202 1612 40.1497
103.319 1651 40.6325
103.436 1522 39.0128
103.552 1468 38.3145
103.669 1399 37.4032
103.786 1330 36.4692
103.903 1349 36.7287
104.02 1339 36.5923
104.137 1401 37.4299
104.253 1537 39.2046
104.37 1605 40.0625
104.487 1702 41.2553
104.603 1638 40.4722
104.72 1631 40.3856
104.836 1594 39.9249
104.953 1410 37.55
105.069 1348 36.7151
105.186 1207 34.7419
105.302 1049 32.3883
105.418 934 30.5614
105.535 1033 32.1403
105.651 1059 32.5423
105.767 1032 32.1248
105.883 1077 32.8177
105.999 969 31.1288
106.115 0 1
106.231 0 1
106.347 0 1
106.463 0 1
106.579 0 1
106.694 0 1
106.81 0 1
106.926 0 1
107.041 0 1
107.157 0 1
109.576 0 1
109.692 0 1
109.807 0 1
109.923 0 1
110.039 0 1
110.155 0 1
110.27 0 1
110.386 0 1
110.502 0 1
110.618 662 25.7294
110.735 805 28.3725
110.851 1013 31.8277
110.967 1121 33.4813
111.083 1242 35.242
111.199 1282 35.805
111.316 1454 38.1314
111.432 1446 38.0263
111.549 1511 38.8716
111.665 1501 38.7427
111.782 1472 38.3667
111.898 1531 39.128
112.015 1451 38.092
112.132 1433 37.855
112.248 1294 35.9722
112.365 1239 35.1994
112.482 1262 35.5246
112.599 1333 36.5103
112.716 1487 38.5616
112.832 1461 38.223
112.949 1533 39.1535
113.066 1549 39.3573
113.183 1490 38.6005
113.3 1527 39.0768
113.417 1526 39.064
113.534 1428 37.7889
113.652 1276 35.7211
113.769 1109 33.3017
113.886 1118 33.4365
114.003 1068 32.6803
114.12 1128 33.5857
114.238 1252 35.3836
114.355 1353 36.7831
114.472 1349 36.7287
114.589 1518 38.9615
114.707 1570 39.6232
114.824 1489 38.5876
114.942 1567 39.5854
115.059 1529 39.1024
115.176 1531 39.128
115.294 1523 39.0256
115.411 1500 38.7298
115.529 1429 37.8021
115.646 1381 37.1618
115.764 1406 37.4967
115.881 1289 35.9026
115.999 1320 36.3318
116.116 1341 36.6197
116.234 1380 37.1484
116.351 1461 38.223
116.469 1553 39.4081
116.586 1520 38.9872
116.704 1539 39.2301
116.821 1470 38.3406
116.939 1523 39.0256
117.056 1461 38.223
117.174 1333 36.5103
117.291 1201 34.6554
117.409 1109 33.3017
117.526 1135 33.6898
117.644 1042 32.28
117.761 1095 33.0908
117.879 1276 35.7211
117.996 1248 35.327
118.114 1383 37.1887
118.231 1497 38.6911
118.349 1399 37.4032
118.466 1426 37.7624
118.584 1461 38.223
118.701 1487 38.5616
118.819 1459 38.1969
118.936 1423 37.7227
119.053 1446 38.0263
119.171 1417 37.6431
119.288 1309 36.1801
119.405 1250 35.3553
119.523 1198 34.6121
119.64 1204 34.6987
119.757 1251 35.3695
119.875 1316 36.2767
119.992 1379 37.1349
120.109 1361 36.8917
120.226 1413 37.5899
120.343 1422 37.7094
120.46 1395 37.3497
120.578 1402 37.4433
120.695 1457 38.1707
120.812 1343 36.647
120.929 1226 35.0143
121.046 1081 32.8786
121.163 1084 32.9242
121.279 1014 31.8434
121.396 1026 32.0312
121.513 1044 32.311
121.63 1099 33.1512
121.747 1108 33.2866
121.863 1109 33.3017
121.98 1121 33.4813
122.097 1126 33.5559
122.213 1121 33.4813
122.33 1091 33.0303
122.446 1074 32.7719
122.563 957 30.9354
122.679 990 31.4643
122.795 931 30.5123
122.912 786 28.0357
123.028 731 27.037
123.144 622 24.9399
123.26 603 24.5561
123.377 0 1
123.493 0 1
123.609 0 1
123.725 0 1
123.84 0 1
123.956 0 1
124.072 0 1
124.188 0 1
124.303 0 1
124.419 0 1
126.852 0 1
126.968 0 1
127.083 0 1
127.199 0 1
127.315 0 1
127.431 0 1
127.547 0 1
127.663 0 1
127.779 0 1
127.895 0 1
128.011 0 1
128.127 0 1
128.243 0 1
128.359 1327 36.428
128.476 1307 36.1525
128.592 1348 36.7151
128.708 1315 36.2629
128.825 1353 36.7831
128.941 1359 36.8646
129.058 1493 38.6394
129.174 1480 38.4708
129.291 1533 39.1535
129.408 1556 39.4462
129.524 1557 39.4588
129.641 1583 39.7869
129.758 1523 39.0256
129.875 1462 38.2361
129.992 1267 35.5949
130.108 1121 33.4813
130.225 1102 33.1964
130.342 1127 33.5708
130.459 1215 34.8569
130.576 1333 36.5103
130.693 1303 36.0971
130.81 1463 38.2492
130.928 1412 37.5766
131.045 1441 37.9605
131.162 1548 39.3446
131.279 1517 38.9487
131.396 1525 39.0512
131.513 1553 39.4081
131.631 1559 39.4842
131.748 1434 37.8682
131.865 1428 37.7889
131.983 1472 38.3667
132.1 1458 38.1838
132.217 1380 37.1484
132.335 1322 36.3593
132.452 1340 36.606
132.57 1453 38.1182
132.687 1544 39.2938
132.804 1500 38.7298
132.922 1568 39.598
133.039 1591 39.8873
133.157 1598 39.975
133.274 1615 40.1871
133.392 1558 39.4715
133.509 1393 37.3229
133.627 1289 35.9026
133.744 1219 34.9142
133.862 1123 33.5112
133.979 1116 33.4066
134.097 1239 35.1994
134.214 1359 36.8646
134.332 1373 37.054
134.449 1460 38.2099
134.567 1493 38.6394
134.684 1562 39.5221
134.802 1556 39.4462
134.919 1563 39.5348
135.037 1547 39.3319
135.154 1499 38.7169
135.272 1436 37.8946
135.389 1472 38.3667
135.507 1408 37.5233
135.624 1422 37.7094
135.742 1345 36.6742
135.859 1370 37.0135
135.977 1342 36.6333
136.094 1467 38.3014
136.211 1462 38.2361
136.329 1537 39.2046
136.446 1604 40.05
136.564 1623 40.2865
136.681 1531 39.128
136.798 1609 40.1123
136.915 1585 39.8121
137.033 1477 38.4318
137.15 1437 37.9078
137.267 1296 36
137.384 1154 33.9706
137.502 1153 33.9559
137.619 1167 34.1614
137.736 1252 35.3836
137.853 1294 35.9722
137.97 1341 36.6197
138.087 1384 37.2022
138.204 1473 38.3797
138.321 1561 39.5095
138.438 1482 38.4968
138.555 1564 39.5474
138.672 1495 38.6652
138.788 1497 38.6911
138.905 1446 38.0263
139.022 1340 36.606
139.139 1252 35.3836
139.255 1193 34.5398
139.372 1124 33.5261
139.488 1168 34.176
139.605 1001 31.6386
139.721 1096 33.1059
139.838 1014 31.8434
139.954 1081 32.8786
140.071 1084 32.9242
140.187 974 31.209
140.303 861 29.3428
140.419 851 29.1719
140.535 810 28.4605
140.652 740 27.2029
140.768 0 1
140.884 0 1
141 0 1
141.115 0 1
141.231 0 1
141.347 0 1
141.463 0 1
141.578 0 1
141.694 0 1
144.104 0 1
144.219 0 1
144.335 0 1
144.45 0 1
144.566 0 1
144.682 0 1
144.798 0 1
144.914 0 1
145.03 0 1
145.146 1124 33.5261
145.262 1185 34.4238
145.378 1165 34.1321
145.494 1241 35.2278
145.61 1272 35.6651
145.726 1195 34.5688
145.842 1115 33.3916
145.959 1120 33.4664
146.075 1015 31.8591
146.192 902 30.0333
146.308 922 30.3645
146.425 949 30.8058
146.541 982 31.3369
146.658 1112 33.3467
146.774 1053 32.45
146.891 1140 33.7639
147.008 1149 33.8969
147.125 1187 34.4529
147.241 1187 34.4529
147.358 1154 33.9706
147.475 1198 34.6121
147.592 1147 33.8674
147.709 1168 34.176
147.826 1169 34.1906
147.943 1152 33.9411
148.06 1057 32.5115
148.177 1108 33.2866
148.294 1007 31.7333
148.411 1084 32.9242
148.528 1189 34.4819
148.645 1168 34.176
148.762 1191 34.5109
148.88 1221 34.9428
148.997 1221 34.9428
149.114 1192 34.5254
149.231 1215 34.8569
149.349 1250 35.3553
149.466 1202 34.6699
149.583 1066 32.6497
149.701 1096 33.1059
149.818 1005 31.7017
149.935 998 31.5911
150.053 909 30.1496
150.17 984 31.3688
150.287 1078 32.8329
150.405 1052 32.4345
150.522 1111 33.3317
150.64 1128 33.5857
150.757 1145 33.8378
150.875 1169 34.1906
150.992 1179 34.3366
151.11 1151 33.9264
151.227 1127 33.5708
151.344 1116 33.4066
151.462 1120 33.4664
151.579 1092 33.0454
151.697 1016 31.8748
151.814 1041 32.2645
151.932 1021 31.9531
152.049 1068 32.6803
152.167 1114 33.3766
152.284 1133 33.6601
152.402 1215 34.8569
152.519 1194 34.5543
152.636 1146 33.8526
152.754 1163 34.1028
152.871 1154 33.9706
152.989 1124 33.5261
153.106 1086 32.9545
153.223 1034 32.1559
153.341 947 30.7734
153.458 960 30.9839
153.575 916 30.2655
153.693 899 29.9833
153.81 928 30.4631
153.927 1006 31.7175
154.044 1014 31.8434
154.162 1040 32.249
154.279 1068 32.6803
154.396 1039 32.2335
154.513 1100 33.1662
154.63 1078 32.8329
154.747 1047 32.3574
154.864 1072 32.7414
154.981 1004 31.686
155.098 972 31.1769
155.215 934 30.5614
155.332 969 31.1288
155.449 969 31.1288
155.566 913 30.2159
155.683 959 30.9677
155.8 1008 31.749
155.917 1001 31.6386
156.033 976 31.241
156.15 0 1
156.267 0 1
156.383 0 1
156.5 0 1
156.617 0 1
156.733 0 1
156.85 0 1
156.966 0 1
157.082 0 1
157.199 0 1
157.315 0 1
157.431 0 1
157.547 0 1
157.664 0 1
157.78 0 1
157.896 0 1
158.012 0 1
158.128 0 1
158.244 0 1
158.359 0 1
158.475 0 1
158.591 0 1
158.706 0 1
