
6.15755 0 1
6.2731 0 1
6.3887 0 1
6.50437 0 1
6.62009 0 1
6.73587 0 1
6.8517 0 1
6.96759 0 1
7.08353 0 1
7.19952 0 1
7.31557 0 1
7.43166 0 1
7.54781 0 1
7.664 0 1
7.78024 0 1
7.89653 0 1
8.01286 0 1
8.12924 0 1
8.24567 0 1
8.36213 0 1
8.47864 0 1
8.59519 0 1
8.71178 0 1
8.82841 0 1
8.94508 0 1
9.06179 0 1
9.17853 0 1
9.29531 0 1
9.41212 0 1
9.52897 0 1
9.64584 0 1
9.76276 0 1
9.8797 0 1
9.99667 0 1
10.1137 0 1
10.2307 0 1
10.3478 0 1
10.4648 0 1
10.5819 0 1
10.6991 0 1
10.8162 0 1
10.9334 0 1
11.0506 0 1
11.1678 0 1
11.285 0 1
11.4023 0 1
11.5196 0 1
11.6369 0 1
11.7542 0 1
11.8715 0 1
11.9888 0 1
12.1062 0 1
12.2235 0 1
12.3409 0 1
12.4582 0 1
12.5756 0 1
12.693 0 1
12.8104 0 1
12.9278 0 1
13.0452 0 1
13.1626 0 1
13.28 0 1
13.3974 0 1
13.5149 0 1
13.6323 0 1
13.7497 0 1
13.8671 0 1
13.9845 0 1
14.1019 0 1
14.2193 0 1
14.3367 0 1
14.4541 0 1
14.5714 0 1
14.6888 0 1
14.8062 0 1
14.9235 0 1
15.0408 4868 69.7711
15.1581 5381 73.3553
15.2755 5392 73.4302
15.3927 5318 72.9246
15.51 5207 72.1595
15.6273 5228 72.3049
15.7445 5213 72.2011
15.8617 5154 71.7914
15.9789 5365 73.2462
16.0961 5511 74.2361
16.2132 5478 74.0135
16.3304 5523 74.3169
16.4475 5590 74.7663
16.5646 5788 76.0789
16.6816 5942 77.0844
16.7986 5909 76.87
16.9156 6132 78.3071
17.0326 6169 78.543
17.1496 6124 78.256
17.2665 6329 79.555
17.3833 6200 78.7401
17.5002 6222 78.8797
17.617 6199 78.7337
17.7338 6227 78.9113
17.8505 6120 78.2304
17.9672 6126 78.2688
18.0839 5852 76.4984
18.2005 6139 78.3518
18.3171 6026 77.6273
18.4337 6194 78.702
18.5502 6275 79.2149
18.6666 6548 80.9197
18.7831 6434 80.2122
18.8994 6530 80.8084
19.0158 6435 80.2185
19.1321 6110 78.1665
19.2483 5986 77.3692
19.3645 5886 76.7203
19.4806 5691 75.4387
19.5967 5687 75.4122
19.7128 5560 74.5654
19.8288 5007 70.7602
19.9447 4343 65.9014
20.0606 0 1
20.1764 0 1
20.2922 0 1
20.4079 0 1
20.5236 0 1
20.6392 0 1
20.7548 0 1
20.8702 0 1
23.3078 0 1
23.4233 0 1
23.539 0 1
23.6547 0 1
23.7704 0 1
23.8862 0 1
24.0021 0 1
24.118 0 1
24.234 0 1
24.35 0 1
24.4661 3327 57.6802
24.5822 3873 62.2334
24.6984 4484 66.9627
24.8146 5096 71.3863
24.9309 5523 74.3169
25.0472 5983 77.3499
25.1636 6485 80.5295
25.28 6940 83.3067
25.3965 7347 85.7146
25.513 7843 88.5607
25.6296 8170 90.3881
25.7462 8216 90.6422
25.8628 8498 92.1846
25.9795 8567 92.5581
26.0962 8701 93.2792
26.213 8614 92.8116
26.3298 8449 91.9184
26.4466 8424 91.7824
26.5635 8507 92.2334
26.6804 8411 91.7115
26.7973 8496 92.1737
26.9143 8573 92.5905
27.0313 8794 93.7763
27.1483 9054 95.1525
27.2653 9228 96.0625
27.3824 9332 96.6023
27.4996 9362 96.7574
27.6167 9280 96.3328
27.7339 9014 94.9421
27.8511 8683 93.1826
27.9683 8715 93.3542
28.0855 8870 94.1807
28.2028 8693 93.2363
28.3201 8815 93.8882
28.4374 8752 93.5521
28.5547 8630 92.8978
28.6721 8509 92.2442
28.7894 8360 91.433
28.9068 8436 91.8477
29.0242 8515 92.2768
29.1416 8754 93.5628
29.259 8730 93.4345
29.3764 8746 93.5201
29.4939 8840 94.0213
29.6113 8894 94.308
29.7288 8932 94.5093
29.8463 9032 95.0368
29.9638 8949 94.5992
30.0812 8886 94.2656
30.1987 8967 94.6942
30.3162 9055 95.1578
30.4337 9381 96.8556
30.5512 9535 97.6473
30.6687 9607 98.0153
30.7862 9822 99.106
30.9037 10039 100.195
31.0212 10138 100.688
31.1387 9890 99.4485
31.2562 9760 98.7927
31.3737 9673 98.3514
31.4912 9549 97.719
31.6087 9588 97.9183
31.7262 9836 99.1766
31.8436 9873 99.363
31.9611 9845 99.222
32.0785 9355 96.7212
32.1959 9373 96.8143
32.3134 9298 96.4261
32.4308 9239 96.1197
32.5482 9271 96.286
32.6655 9439 97.1545
32.7829 9597 97.9643
32.9002 9607 98.0153
33.0176 9899 99.4937
33.1349 9902 99.5088
33.2522 9926 99.6293
33.3694 9844 99.2169
33.4867 10017 100.085
33.6039 10028 100.14
33.7211 10003 100.015
33.8383 10200 100.995
33.9554 10331 101.642
34.0725 10306 101.518
34.1896 10596 102.937
34.3067 10700 103.441
34.4237 11087 105.295
34.5407 11382 106.686
34.6577 11545 107.448
34.7746 11655 107.958
34.8915 11442 106.967
35.0084 11206 105.858
35.1252 11088 105.3
35.242 10961 104.695
35.3587 11229 105.967
35.4755 11486 107.173
35.5921 11264 106.132
35.7088 11098 105.347
35.8254 10763 103.745
35.9419 10250 101.242
36.0584 9880 99.3982
36.1749 9761 98.7978
36.2913 9357 96.7316
36.4077 9365 96.7729
36.524 9365 96.7729
36.6403 9107 95.4306
36.7565 9138 95.5929
36.8727 9162 95.7183
36.9889 8623 92.8601
37.1049 8271 90.945
37.221 0 1
37.3369 0 1
37.4529 0 1
37.5687 0 1
37.6845 0 1
37.8003 0 1
37.916 0 1
38.0316 0 1
38.1472 0 1
40.5851 0 1
40.7008 0 1
40.8164 0 1
40.9322 0 1
41.048 0 1
41.1639 0 1
41.2798 0 1
41.3958 0 1
41.5118 0 1
41.6279 0 1
41.744 6339 79.6178
41.8602 6991 83.6122
41.9765 7831 88.4929
42.0928 8562 92.5311
42.2091 9552 97.7343
42.3255 10319 101.582
42.4419 11211 105.882
42.5584 11687 108.106
42.675 12355 111.153
42.7915 12795 113.115
42.9081 13373 115.642
43.0248 14432 120.133
43.1415 15013 122.528
43.2582 15605 124.92
43.375 16362 127.914
43.4918 16602 128.849
43.6087 16551 128.651
43.7256 16620 128.919
43.8425 16493 128.425
43.9595 16201 127.283
44.0765 16108 126.917
44.1935 16600 128.841
44.3106 16763 129.472
44.4277 16977 130.296
44.5448 16339 127.824
44.6619 15580 124.82
44.7791 14989 122.43
44.8963 13832 117.61
45.0136 13668 116.91
45.1308 13504 116.207
45.2481 13494 116.164
45.3654 13782 117.397
45.4827 14020 118.406
45.6001 14571 120.71
45.7174 15665 125.16
45.8348 16230 127.397
45.9522 16822 129.7
46.0697 17575 132.571
46.1871 17720 133.116
46.3046 17634 132.793
46.422 18032 134.283
46.5395 18145 134.703
46.657 18884 137.419
46.7745 19254 138.759
46.892 19941 141.213
47.0096 19929 141.17
47.1271 20221 142.201
47.2446 20377 142.748
47.3622 20333 142.594
47.4797 19698 140.35
47.5973 19206 138.586
47.7149 19173 138.467
47.8324 19643 140.153
47.95 19596 139.986
48.0675 19074 138.109
48.1851 18585 136.327
48.3027 17341 131.685
48.4202 16018 126.562
48.5378 14468 120.283
48.6554 14028 118.44
48.7729 13791 117.435
48.8904 13942 118.076
49.008 14293 119.553
49.1255 14801 121.659
49.243 15891 126.06
49.3605 17304 131.545
49.478 18013 134.213
49.5955 18354 135.477
49.713 18379 135.569
49.8304 18608 136.411
49.9479 18320 135.351
50.0653 18825 137.204
50.1827 19015 137.895
50.3001 19425 139.374
50.4175 19632 140.114
50.5348 19901 141.071
50.6521 20156 141.972
50.7694 19903 141.078
50.8867 19470 139.535
51.004 19157 138.409
51.1212 18873 137.379
51.2384 18610 136.418
51.3556 18969 137.728
51.4727 19067 138.083
51.5899 18839 137.255
51.707 18037 134.302
51.824 16926 130.1
51.9411 15605 124.92
52.0581 13669 116.914
52.175 12953 113.811
52.2919 12610 112.294
52.4088 12707 112.725
52.5257 12845 113.336
52.6425 13229 115.017
52.7593 14026 118.431
52.876 14581 120.752
52.9927 14947 122.258
53.1094 14985 122.413
53.226 15340 123.855
53.3426 14783 121.585
53.4591 14254 119.39
53.5756 13641 116.795
53.692 13048 114.228
53.8084 12711 112.743
53.9248 12369 111.216
54.0411 11962 109.371
54.1573 11309 106.344
54.2735 0 1
54.3896 0 1
54.5057 0 1
54.6217 0 1
54.7377 0 1
54.8537 0 1
54.9695 0 1
55.0853 0 1
55.2011 0 1
55.3168 0 1
55.4324 0 1
57.824 0 1
57.9396 0 1
58.0553 0 1
58.1711 0 1
58.2869 0 1
58.4028 0 1
58.5187 0 1
58.6347 0 1
58.7508 0 1
58.8669 0 1
58.983 10104 100.519
59.0992 11243 106.033
59.2155 12299 110.901
59.3318 13036 114.175
59.4482 13669 116.914
59.5646 14056 118.558
59.681 14466 120.275
59.7975 14792 121.622
59.9141 15026 122.581
60.0306 15240 123.45
60.1473 15881 126.02
60.2639 15723 125.391
60.3807 15601 124.904
60.4974 14734 121.384
60.6142 13697 117.034
60.731 12247 110.666
60.8479 10849 104.159
60.9648 9983 99.915
61.0818 9769 98.8383
61.1987 9896 99.4786
61.3158 10591 102.913
61.4328 11612 107.759
61.5499 13109 114.495
61.667 14421 120.087
61.7841 14819 121.733
61.9013 15337 123.843
62.0185 15202 123.296
62.1357 14933 122.201
62.253 14894 122.041
62.3702 14999 122.47
62.4875 15197 123.276
62.6049 15277 123.6
62.7222 15482 124.427
62.8396 15446 124.282
62.9569 15565 124.76
63.0743 15495 124.479
63.1918 15060 122.719
63.3092 14925 122.168
63.4267 14618 120.905
63.5441 14567 120.694
63.6616 14481 120.337
63.7791 14572 120.715
63.8966 14155 118.975
64.0142 13392 115.724
64.1317 12136 110.164
64.2492 10873 104.274
64.3668 9461 97.2677
64.4843 8688 93.2094
64.6019 8069 89.8276
64.7195 8258 90.8735
64.837 8609 92.7847
64.9546 9621 98.0867
65.0722 10836 104.096
65.1898 12273 110.784
65.3074 13017 114.092
65.4249 13317 115.399
65.5425 13490 116.146
65.6601 13294 115.3
65.7777 13075 114.346
65.8952 12969 113.882
66.0128 12880 113.49
66.1304 13259 115.148
66.2479 13188 114.839
66.3655 13717 117.12
66.483 13554 116.422
66.6005 13547 116.392
66.718 13452 115.983
66.8355 13511 116.237
66.953 12880 113.49
67.0705 12658 112.508
67.1879 12753 112.929
67.3054 12794 113.111
67.4228 12721 112.787
67.5402 12557 112.058
67.6576 11805 108.651
67.7749 11069 105.209
67.8923 9390 96.902
68.0096 8287 91.033
68.1269 7429 86.1916
68.2442 7057 84.006
68.3614 7033 83.863
68.4787 7404 86.0465
68.5958 8107 90.0389
68.713 9457 97.2471
68.8302 10485 102.396
68.9473 11693 108.134
69.0643 12118 110.082
69.1814 12135 110.159
69.2984 11831 108.77
69.4154 11410 106.818
69.5323 10805 103.947
69.6492 10679 103.339
69.7661 10541 102.669
69.8829 10663 103.262
69.9997 10540 102.665
70.1165 10904 104.422
70.2332 10599 102.951
70.3499 10301 101.494
70.4665 9727 98.6256
70.5831 9039 95.0737
70.6996 8665 93.086
70.8161 7991 89.3924
70.9326 7899 88.8763
71.049 7305 85.4693
71.1653 7086 84.1784
71.2817 6636 81.4616
71.3979 5737 75.743
71.5141 5022 70.8661
71.6303 3947 62.8252
71.7464 2753 52.469
71.8624 0 1
71.9784 0 1
72.0944 0 1
72.2102 0 1
72.3261 0 1
72.4418 0 1
72.5575 0 1
72.6732 0 1
75.1054 0 1
75.2209 0 1
75.3365 0 1
75.4521 0 1
75.5678 0 1
75.6835 0 1
75.7993 0 1
75.9151 0 1
76.031 0 1
76.147 6907 83.1084
76.263 7785 88.2326
76.3791 8084 89.9111
76.4952 8059 89.7719
76.6113 7941 89.1123
76.7276 7456 86.3481
76.8438 7112 84.3327
76.9601 6398 79.9875
77.0765 6066 77.8845
77.1929 5602 74.8465
77.3093 5511 74.2361
77.4258 5786 76.0658
77.5423 6365 79.781
77.6589 7316 85.5336
77.7755 8693 93.2363
77.8921 9751 98.7472
78.0088 10344 101.705
78.1256 10626 103.082
78.2423 10594 102.927
78.3591 10079 100.394
78.4759 9842 99.2069
78.5928 9763 98.8079
78.7097 9791 98.9495
78.8266 9903 99.5138
78.9436 10318 101.578
79.0606 10359 101.779
79.1776 10403 101.995
79.2946 10666 103.276
79.4117 10536 102.645
79.5288 10430 102.127
79.6459 10525 102.591
79.7631 10010 100.05
79.8802 9934 99.6695
79.9974 10164 100.817
80.1147 10193 100.96
80.2319 10097 100.484
80.3491 9250 96.1769
80.4664 8730 93.4345
80.5837 7792 88.2723
80.701 6666 81.6456
80.8183 5924 76.9675
80.9357 5853 76.5049
81.053 5704 75.5248
81.1704 6022 77.6015
81.2877 6916 83.1625
81.4051 8124 90.1332
81.5225 9590 97.9285
81.6399 10281 101.395
81.7573 10730 103.586
81.8747 10759 103.726
81.9922 10524 102.587
82.1096 10305 101.514
82.227 10019 100.095
82.3444 9671 98.3412
82.4619 10106 100.529
82.5793 9971 99.8549
82.6967 10370 101.833
82.8142 10739 103.629
82.9316 10629 103.097
83.049 10486 102.401
83.1664 10391 101.936
83.2838 10174 100.866
83.4012 10291 101.445
83.5186 10212 101.054
83.636 10180 100.896
83.7534 10177 100.881
83.8708 9773 98.8585
83.9881 9137 95.5877
84.1055 8617 92.8278
84.2228 8089 89.9389
84.3401 7100 84.2615
84.4575 6410 80.0625
84.5747 5916 76.9155
84.692 5975 77.2981
84.8093 6613 81.3204
84.9265 7771 88.1533
85.0437 8992 94.8262
85.1609 10024 100.12
85.2781 11084 105.281
85.3952 11418 106.855
85.5123 11491 107.196
85.6294 11319 106.391
85.7465 11164 105.66
85.8636 10899 104.398
85.9806 11131 105.504
86.0976 11244 106.038
86.2145 11684 108.093
86.3315 12028 109.672
86.4484 11432 106.921
86.5652 11889 109.037
86.682 11192 105.792
86.7988 11203 105.844
86.9156 10782 103.836
87.0323 10336 101.666
87.149 10087 100.434
87.2657 9854 99.2673
87.3823 9708 98.5292
87.4988 9389 96.8969
87.6154 8741 93.4933
87.7318 8041 89.6716
87.8483 7305 85.4693
87.9647 6286 79.2843
88.081 5534 74.3909
88.1973 5040 70.993
88.3136 4862 69.728
88.4298 4921 70.1498
88.546 5706 75.5381
88.6621 6511 80.6908
88.7781 7018 83.7735
88.8942 0 1
89.0101 0 1
89.126 0 1
89.2419 0 1
89.3577 0 1
89.4734 0 1
89.5891 0 1
89.7047 0 1
89.8203 0 1
89.9358 0 1
92.3269 0 1
92.4424 0 1
92.558 0 1
92.6736 0 1
92.7893 0 1
92.905 0 1
93.0208 0 1
93.1366 0 1
93.2525 0 1
93.3685 0 1
93.4845 0 1
93.6005 7653 87.4814
93.7167 8364 91.4549
93.8328 9178 95.8019
93.949 10788 103.865
94.0653 12402 111.364
94.1816 14225 119.269
94.2979 15491 124.463
94.4143 16948 130.184
94.5307 17904 133.806
94.6472 19014 137.891
94.7637 19266 138.802
94.8803 19546 139.807
94.9969 19453 139.474
95.1135 19005 137.859
95.2302 19330 139.032
95.3469 19703 140.367
95.4637 19744 140.513
95.5805 19772 140.613
95.6973 19637 140.132
95.8142 19311 138.964
95.9311 18907 137.503
96.048 18588 136.338
96.1649 17946 133.963
96.2819 17451 132.102
96.3989 17306 131.552
96.516 17007 130.411
96.633 16321 127.754
96.7501 15427 124.205
96.8673 14385 119.937
96.9844 13201 114.896
97.1016 12528 111.929
97.2188 11740 108.351
97.336 11511 107.289
97.4532 11805 108.651
97.5704 13154 114.691
97.6877 14751 121.454
97.805 16549 128.643
97.9223 18891 137.445
98.0396 20509 143.21
98.1569 22102 148.667
98.2743 23450 153.134
98.3916 24143 155.38
98.509 24667 157.057
98.6264 23999 154.916
98.7438 24069 155.142
98.8612 23815 154.321
98.9786 23835 154.386
99.096 24211 155.599
99.2134 24016 154.971
99.3308 22892 151.301
99.4482 22181 148.933
99.5656 21786 147.601
99.6831 21066 145.141
99.8005 19843 140.865
99.9179 19779 140.638
100.035 19574 139.907
100.153 19406 139.305
100.27 17830 133.529
100.388 16331 127.793
100.505 14266 119.44
100.622 13051 114.241
100.74 12468 111.66
100.857 12118 110.082
100.975 12243 110.648
101.092 12651 112.477
101.209 14399 119.996
101.327 16718 129.298
101.444 19174 138.47
101.561 21464 146.506
101.679 23133 152.095
101.796 23825 154.353
101.913 24399 156.202
102.03 24444 156.346
102.148 24208 155.589
102.265 24078 155.171
102.382 22801 151
102.499 22880 151.261
102.616 22509 150.03
102.733 22869 151.225
102.851 22272 149.238
102.968 21974 148.236
103.085 21055 145.103
103.202 20117 141.834
103.319 19817 140.773
103.436 19333 139.043
103.552 19276 138.838
103.669 19321 139
103.786 18651 136.569
103.903 17039 130.534
104.02 15323 123.786
104.137 13687 116.991
104.253 12524 111.911
104.37 11506 107.266
104.487 11573 107.578
104.603 11606 107.731
104.72 12639 112.423
104.836 13594 116.593
104.953 14725 121.347
105.069 15403 124.109
105.186 15638 125.052
105.302 15575 124.8
105.418 14844 121.836
105.535 13771 117.35
105.651 12426 111.472
105.767 11326 106.424
105.883 10286 101.42
105.999 9219 96.0156
106.115 0 1
106.231 0 1
106.347 0 1
106.463 0 1
106.579 0 1
106.694 0 1
106.81 0 1
106.926 0 1
107.041 0 1
107.157 0 1
109.576 0 1
109.692 0 1
109.807 0 1
109.923 0 1
110.039 0 1
110.155 0 1
110.27 0 1
110.386 0 1
110.502 0 1
110.618 10591 102.913
110.735 11500 107.238
110.851 12078 109.9
110.967 12764 112.978
111.083 13800 117.473
111.199 15263 123.544
111.316 16243 127.448
111.432 16817 129.68
111.549 17562 132.522
111.665 17843 133.578
111.782 17941 133.944
111.898 18069 134.421
112.015 17888 133.746
112.132 17687 132.992
112.248 17848 133.596
112.365 18144 134.7
112.482 17236 131.286
112.599 15393 124.069
112.716 13618 116.696
112.832 12065 109.841
112.949 10816 104
113.066 10408 102.02
113.183 10510 102.518
113.3 10939 104.59
113.417 11930 109.225
113.534 14126 118.853
113.652 16168 127.153
113.769 17979 134.086
113.886 18781 137.044
114.003 18978 137.761
114.12 19098 138.196
114.238 18534 136.14
114.355 17661 132.895
114.472 17449 132.095
114.589 17488 132.242
114.707 18118 134.603
114.824 18337 135.414
114.942 18582 136.316
115.059 18683 136.686
115.176 18605 136.4
115.294 18537 136.151
115.411 18561 136.239
115.529 18155 134.74
115.646 17800 133.417
115.764 17225 131.244
115.881 17490 132.25
115.999 17333 131.655
116.116 16380 127.984
116.234 15069 122.756
116.351 13119 114.538
116.469 11859 108.899
116.586 11069 105.209
116.704 10593 102.922
116.821 10836 104.096
116.939 11138 105.537
117.056 12505 111.826
117.174 14490 120.374
117.291 16277 127.581
117.409 17242 131.309
117.526 18121 134.614
117.644 17974 134.067
117.761 18090 134.499
117.879 17477 132.201
117.996 16634 128.973
118.114 16373 127.957
118.231 16597 128.829
118.349 17319 131.602
118.466 17663 132.902
118.584 17520 132.363
118.701 17900 133.791
118.819 17248 131.332
118.936 17379 131.829
119.053 16873 129.896
119.171 16575 128.744
119.288 16221 127.362
119.405 16286 127.617
119.523 16378 127.977
119.64 16076 126.791
119.757 15815 125.758
119.875 14564 120.681
119.992 12934 113.728
120.109 11786 108.563
120.226 10819 104.014
120.343 10382 101.892
120.46 10431 102.132
120.578 10745 103.658
120.695 11098 105.347
120.812 12446 111.562
120.929 13905 117.919
121.046 14878 121.975
121.163 15312 123.742
121.279 15370 123.976
121.396 15678 125.212
121.513 15098 122.874
121.63 14644 121.012
121.747 13906 117.924
121.863 13275 115.217
121.98 13439 115.927
122.097 13281 115.243
122.213 13026 114.132
122.33 12809 113.177
122.446 12439 111.53
122.563 11924 109.197
122.679 11229 105.967
122.795 10520 102.567
122.912 9863 99.3126
123.028 8992 94.8262
123.144 8457 91.9619
123.26 7768 88.1363
123.377 0 1
123.493 0 1
123.609 0 1
123.725 0 1
123.84 0 1
123.956 0 1
124.072 0 1
124.188 0 1
124.303 0 1
124.419 0 1
126.852 0 1
126.968 0 1
127.083 0 1
127.199 0 1
127.315 0 1
127.431 0 1
127.547 0 1
127.663 0 1
127.779 0 1
127.895 0 1
128.011 0 1
128.127 0 1
128.243 0 1
128.359 15407 124.125
128.476 15597 124.888
128.592 16084 126.823
128.708 16449 128.254
128.825 16490 128.413
128.941 15982 126.42
129.058 14976 122.376
129.174 13886 117.839
129.291 13503 116.202
129.408 12803 113.15
129.524 12827 113.256
129.641 12629 112.379
129.758 12603 112.263
129.875 13379 115.668
129.992 14721 121.33
130.108 16050 126.689
130.225 16662 129.081
130.342 17350 131.719
130.459 17620 132.74
130.576 17759 133.263
130.693 16863 129.858
130.81 16471 128.339
130.928 17053 130.587
131.045 17359 131.754
131.162 17789 133.375
131.279 17743 133.203
131.396 17774 133.319
131.513 17665 132.91
131.631 17651 132.857
131.748 17390 131.871
131.865 17045 130.557
131.983 16466 128.32
132.1 16626 128.942
132.217 16507 128.48
132.335 16584 128.779
132.452 16023 126.582
132.57 15241 123.454
132.687 14237 119.319
132.804 13490 116.146
132.922 13070 114.324
133.039 12630 112.383
133.157 12281 110.82
133.274 12240 110.635
133.392 12528 111.929
133.509 13152 114.682
133.627 14369 119.871
133.744 15084 122.817
133.862 15920 126.174
133.979 16402 128.07
134.097 16441 128.222
134.214 16025 126.59
134.332 15575 124.8
134.449 15361 123.94
134.567 15884 126.032
134.684 16269 127.55
134.802 16218 127.35
134.919 16570 128.725
135.037 16295 127.652
135.154 16273 127.566
135.272 16137 127.031
135.389 16053 126.7
135.507 15534 124.635
135.624 15373 123.988
135.742 15278 123.604
135.859 15392 124.064
135.977 15217 123.357
136.094 15157 123.114
136.211 14399 119.996
136.329 13865 117.75
136.446 13160 114.717
136.564 13015 114.083
136.681 12715 112.761
136.798 12439 111.53
136.915 12278 110.806
137.033 12325 111.018
137.15 12831 113.274
137.267 13618 116.696
137.384 14409 120.037
137.502 14848 121.852
137.619 14984 122.409
137.736 15435 124.238
137.853 14919 122.143
137.97 15101 122.886
138.087 14582 120.756
138.204 15250 123.491
138.321 15329 123.81
138.438 15092 122.85
138.555 14999 122.47
138.672 14550 120.623
138.788 14315 119.645
138.905 13824 117.576
139.022 13408 115.793
139.139 12792 113.102
139.255 12184 110.381
139.372 11322 106.405
139.488 10936 104.575
139.605 10483 102.387
139.721 9857 99.2824
139.838 9476 97.3447
139.954 8370 91.4877
140.071 7811 88.3799
140.187 7190 84.7939
140.303 6414 80.0875
140.419 6004 77.4855
140.535 5471 73.9662
140.652 4894 69.9571
140.768 0 1
140.884 0 1
141 0 1
141.115 0 1
141.231 0 1
141.347 0 1
141.463 0 1
141.578 0 1
141.694 0 1
144.104 0 1
144.219 0 1
144.335 0 1
144.45 0 1
144.566 0 1
144.682 0 1
144.798 0 1
144.914 0 1
145.03 0 1
145.146 9841 99.2018
145.262 10044 100.22
145.378 9954 99.7697
145.494 10164 100.817
145.61 10067 100.334
145.726 9888 99.4384
145.842 9898 99.4887
145.959 9754 98.7623
146.075 10173 100.861
146.192 10359 101.779
146.308 10656 103.228
146.425 10957 104.676
146.541 11188 105.773
146.658 10945 104.618
146.774 10712 103.499
146.891 10979 104.781
147.008 11213 105.891
147.125 11390 106.724
147.241 11525 107.355
147.358 11952 109.325
147.475 11728 108.296
147.592 11607 107.736
147.709 11617 107.782
147.826 11534 107.396
147.943 11342 106.499
148.06 11012 104.938
148.177 10878 104.298
148.294 11008 104.919
148.411 11420 106.864
148.528 11322 106.405
148.645 11141 105.551
148.762 11053 105.133
148.88 11201 105.835
148.997 11324 106.414
149.114 10705 103.465
149.231 10756 103.711
149.349 10733 103.6
149.466 10284 101.41
149.583 10285 101.415
149.701 10196 100.975
149.818 10090 100.449
149.935 10505 102.494
150.053 10424 102.098
150.17 11064 105.186
150.287 11017 104.962
150.405 10863 104.226
150.522 10845 104.139
150.64 10901 104.408
150.757 11435 106.935
150.875 11690 108.12
150.992 11857 108.89
151.11 11867 108.936
151.227 11985 109.476
151.344 11672 108.037
151.462 11326 106.424
151.579 11159 105.636
151.697 10942 104.604
151.814 10976 104.766
151.932 10907 104.437
152.049 10903 104.417
152.167 11038 105.062
152.284 11136 105.527
152.402 10951 104.647
152.519 11055 105.143
152.636 11116 105.432
152.754 10973 104.752
152.871 10852 104.173
152.989 10588 102.898
153.106 10237 101.178
153.223 10158 100.787
153.341 10187 100.931
153.458 10101 100.504
153.575 10219 101.089
153.693 10314 101.558
153.81 10447 102.211
153.927 10557 102.747
154.044 10169 100.841
154.162 10322 101.597
154.279 10405 102.005
154.396 10606 102.985
154.513 11072 105.224
154.63 11378 106.668
154.747 11332 106.452
154.864 11026 105.005
154.981 10740 103.634
155.098 10821 104.024
155.215 10433 102.142
155.332 10226 101.124
155.449 10033 100.165
155.566 10112 100.558
155.683 10214 101.064
155.8 10174 100.866
155.917 9912 99.559
156.033 9709 98.5343
156.15 0 1
156.267 0 1
156.383 0 1
156.5 0 1
156.617 0 1
156.733 0 1
156.85 0 1
156.966 0 1
157.082 0 1
157.199 0 1
157.315 0 1
157.431 0 1
157.547 0 1
157.664 0 1
157.78 0 1
157.896 0 1
158.012 0 1
158.128 0 1
158.244 0 1
158.359 0 1
158.475 0 1
158.591 0 1
158.706 0 1
