
6.15755 0 1
6.2731 0 1
6.3887 0 1
6.50437 0 1
6.62009 0 1
6.73587 0 1
6.8517 0 1
6.96759 0 1
7.08353 0 1
7.19952 0 1
7.31557 0 1
7.43166 0 1
7.54781 0 1
7.664 0 1
7.78024 0 1
7.89653 0 1
8.01286 0 1
8.12924 0 1
8.24567 0 1
8.36213 0 1
8.47864 0 1
8.59519 0 1
8.71178 0 1
8.82841 0 1
8.94508 0 1
9.06179 0 1
9.17853 0 1
9.29531 0 1
9.41212 0 1
9.52897 0 1
9.64584 0 1
9.76276 0 1
9.8797 0 1
9.99667 0 1
10.1137 0 1
10.2307 0 1
10.3478 0 1
10.4648 0 1
10.5819 0 1
10.6991 0 1
10.8162 0 1
10.9334 0 1
11.0506 0 1
11.1678 0 1
11.285 0 1
11.4023 0 1
11.5196 0 1
11.6369 0 1
11.7542 0 1
11.8715 0 1
11.9888 0 1
12.1062 0 1
12.2235 0 1
12.3409 0 1
12.4582 0 1
12.5756 0 1
12.693 0 1
12.8104 0 1
12.9278 0 1
13.0452 0 1
13.1626 0 1
13.28 0 1
13.3974 0 1
13.5149 0 1
13.6323 0 1
13.7497 0 1
13.8671 0 1
13.9845 0 1
14.1019 0 1
14.2193 0 1
14.3367 0 1
14.4541 0 1
14.5714 0 1
14.6888 0 1
14.8062 0 1
14.9235 0 1
15.0408 0 0
15.1581 0 0
15.2755 0 0
15.3927 0 0
15.51 0 0
15.6273 0 0
15.7445 0 0
15.8617 0 0
15.9789 0 0
16.0961 0 0
16.2132 0 0
16.3304 0 0
16.4475 0 0
16.5646 0 0
16.6816 0 0
16.7986 0 0
16.9156 0 0
17.0326 0 0
17.1496 0 0
17.2665 0 0
17.3833 0 0
17.5002 0 0
17.617 0 0
17.7338 0 0
17.8505 0 0
17.9672 0 0
18.0839 0 0
18.2005 0 0
18.3171 0 0
18.4337 0 0
18.5502 0 0
18.6666 0 0
18.7831 0 0
18.8994 0 0
19.0158 0 0
19.1321 0 0
19.2483 0 0
19.3645 0 0
19.4806 0 0
19.5967 0 0
19.7128 0 0
19.8288 0 0
19.9447 0 0
20.0606 0 1
20.1764 0 1
20.2922 0 1
20.4079 0 1
20.5236 0 1
20.6392 0 1
20.7548 0 1
20.8702 0 1
23.3078 0 1
23.4233 0 1
23.539 0 1
23.6547 0 1
23.7704 0 1
23.8862 0 1
24.0021 0 1
24.118 0 1
24.234 0 1
24.35 0 1
24.4661 1346 36.6879
24.5822 1282 35.805
24.6984 1268 35.609
24.8146 1179 34.3366
24.9309 1163 34.1028
25.0472 1109 33.3017
25.1636 1173 34.2491
25.28 1209 34.7707
25.3965 1281 35.7911
25.513 1407 37.51
25.6296 1432 37.8418
25.7462 1458 38.1838
25.8628 1498 38.704
25.9795 1539 39.2301
26.0962 1490 38.6005
26.213 1496 38.6782
26.3298 1419 37.6696
26.4466 1395 37.3497
26.5635 1372 37.0405
26.6804 1340 36.606
26.7973 1282 35.805
26.9143 1351 36.756
27.0313 1401 37.4299
27.1483 1449 38.0657
27.2653 1402 37.4433
27.3824 1419 37.6696
27.4996 1430 37.8153
27.6167 1491 38.6135
27.7339 1380 37.1484
27.8511 1481 38.4838
27.9683 1451 38.092
28.0855 1341 36.6197
28.2028 1305 36.1248
28.3201 1142 33.7935
28.4374 1103 33.2114
28.5547 1083 32.909
28.6721 1107 33.2716
28.7894 1139 33.7491
28.9068 1192 34.5254
29.0242 1313 36.2353
29.1416 1335 36.5377
29.259 1392 37.3095
29.3764 1445 38.0132
29.4939 1351 36.756
29.6113 1381 37.1618
29.7288 1412 37.5766
29.8463 1398 37.3898
29.9638 1441 37.9605
30.0812 1282 35.805
30.1987 1246 35.2987
30.3162 1266 35.5809
30.4337 1350 36.7423
30.5512 1323 36.3731
30.6687 1430 37.8153
30.7862 1425 37.7492
30.9037 1453 38.1182
31.0212 1407 37.51
31.1387 1421 37.6962
31.2562 1411 37.5633
31.3737 1385 37.2156
31.4912 1363 36.9188
31.6087 1420 37.6829
31.7262 1251 35.3695
31.8436 1195 34.5688
31.9611 1115 33.3916
32.0785 1069 32.6956
32.1959 1121 33.4813
32.3134 1131 33.6303
32.4308 1187 34.4529
32.5482 1297 36.0139
32.6655 1404 37.47
32.7829 1427 37.7757
32.9002 1442 37.9737
33.0176 1460 38.2099
33.1349 1436 37.8946
33.2522 1461 38.223
33.3694 1442 37.9737
33.4867 1388 37.2559
33.6039 1412 37.5766
33.7211 1431 37.8286
33.8383 1403 37.4566
33.9554 1326 36.4143
34.0725 1320 36.3318
34.1896 1341 36.6197
34.3067 1433 37.855
34.4237 1439 37.9342
34.5407 1443 37.9868
34.6577 1447 38.0395
34.7746 1450 38.0789
34.8915 1370 37.0135
35.0084 1517 38.9487
35.1252 1414 37.6032
35.242 1364 36.9324
35.3587 1318 36.3043
35.4755 1311 36.2077
35.5921 1166 34.1467
35.7088 1084 32.9242
35.8254 1054 32.4654
35.9419 1043 32.2955
36.0584 1155 33.9853
36.1749 1226 35.0143
36.2913 1299 36.0416
36.4077 1484 38.5227
36.524 1348 36.7151
36.6403 1438 37.921
36.7565 1427 37.7757
36.8727 1551 39.3827
36.9889 1531 39.128
37.1049 1401 37.4299
37.221 0 1
37.3369 0 1
37.4529 0 1
37.5687 0 1
37.6845 0 1
37.8003 0 1
37.916 0 1
38.0316 0 1
38.1472 0 1
40.5851 0 1
40.7008 0 1
40.8164 0 1
40.9322 0 1
41.048 0 1
41.1639 0 1
41.2798 0 1
41.3958 0 1
41.5118 0 1
41.6279 0 1
41.744 1199 34.6266
41.8602 1262 35.5246
41.9765 1304 36.1109
42.0928 1277 35.7351
42.2091 1277 35.7351
42.3255 1317 36.2905
42.4419 1283 35.819
42.5584 1209 34.7707
42.675 1222 34.9571
42.7915 1193 34.5398
42.9081 1182 34.3802
43.0248 1177 34.3074
43.1415 1216 34.8712
43.2582 1257 35.4542
43.375 1287 35.8748
43.4918 1193 34.5398
43.6087 1210 34.7851
43.7256 1228 35.0428
43.8425 1270 35.6371
43.9595 1233 35.1141
44.0765 1172 34.2345
44.1935 1123 33.5112
44.3106 1058 32.5269
44.4277 890 29.8329
44.5448 815 28.5482
44.6619 796 28.2135
44.7791 829 28.7924
44.8963 969 31.1288
45.0136 1039 32.2335
45.1308 1036 32.187
45.2481 1129 33.6006
45.3654 1148 33.8821
45.4827 1140 33.7639
45.6001 1139 33.7491
45.7174 1176 34.2929
45.8348 1097 33.121
45.9522 1085 32.9393
46.0697 1106 33.2566
46.1871 1014 31.8434
46.3046 1025 32.0156
46.422 1014 31.8434
46.5395 1077 32.8177
46.657 1079 32.8481
46.7745 968 31.1127
46.892 1024 32
47.0096 1086 32.9545
47.1271 1099 33.1512
47.2446 1064 32.619
47.3622 1002 31.6544
47.4797 1023 31.9844
47.5973 955 30.9031
47.7149 986 31.4006
47.8324 907 30.1164
47.95 835 28.8964
48.0675 773 27.8029
48.1851 686 26.1916
48.3027 686 26.1916
48.4202 752 27.4226
48.5378 798 28.2489
48.6554 910 30.1662
48.7729 963 31.0322
48.8904 959 30.9677
49.008 994 31.5278
49.1255 977 31.257
49.243 995 31.5436
49.3605 976 31.241
49.478 1034 32.1559
49.5955 989 31.4484
49.713 975 31.225
49.8304 998 31.5911
49.9479 1003 31.6702
50.0653 992 31.496
50.1827 1015 31.8591
50.3001 1124 33.5261
50.4175 1127 33.5708
50.5348 1147 33.8674
50.6521 1240 35.2136
50.7694 1260 35.4965
50.8867 1227 35.0286
51.004 1261 35.5106
51.1212 1205 34.7131
51.2384 1281 35.7911
51.3556 1211 34.7994
51.4727 1178 34.322
51.5899 1019 31.9218
51.707 1010 31.7805
51.824 976 31.241
51.9411 1138 33.7343
52.0581 1350 36.7423
52.175 1415 37.6165
52.2919 1487 38.5616
52.4088 1534 39.1663
52.5257 1544 39.2938
52.6425 1548 39.3446
52.7593 1665 40.8044
52.876 1703 41.2674
52.9927 1684 41.0366
53.1094 1700 41.2311
53.226 1671 40.8779
53.3426 1687 41.0731
53.4591 1661 40.7554
53.5756 1627 40.3361
53.692 1728 41.5692
53.8084 1674 40.9145
53.9248 1773 42.107
54.0411 1852 43.0349
54.1573 1824 42.7083
54.2735 0 1
54.3896 0 1
54.5057 0 1
54.6217 0 1
54.7377 0 1
54.8537 0 1
54.9695 0 1
55.0853 0 1
55.2011 0 1
55.3168 0 1
55.4324 0 1
57.824 0 1
57.9396 0 1
58.0553 0 1
58.1711 0 1
58.2869 0 1
58.4028 0 1
58.5187 0 1
58.6347 0 1
58.7508 0 1
58.8669 0 1
58.983 2478 49.7795
59.0992 2548 50.4777
59.2155 2574 50.7346
59.3318 2602 51.0098
59.4482 2692 51.8845
59.5646 2636 51.342
59.681 2584 50.8331
59.7975 2561 50.6063
59.9141 2504 50.04
60.0306 2409 49.0816
60.1473 2204 46.9468
60.2639 2019 44.9333
60.3807 1849 43
60.4974 1916 43.7721
60.6142 2071 45.5082
60.731 2269 47.634
60.8479 2690 51.8652
60.9648 2581 50.8035
61.0818 2788 52.8015
61.1987 2805 52.9623
61.3158 2777 52.6972
61.4328 2745 52.3927
61.5499 2883 53.6936
61.667 2839 53.2823
61.7841 2842 53.3104
61.9013 2777 52.6972
62.0185 2793 52.8488
62.1357 2682 51.788
62.253 2810 53.0094
62.3702 2802 52.9339
62.4875 2949 54.3047
62.6049 2911 53.9537
62.7222 2938 54.2033
62.8396 3021 54.9636
62.9569 3051 55.2359
63.0743 2944 54.2586
63.1918 2963 54.4334
63.3092 2852 53.4041
63.4267 2731 52.259
63.5441 2717 52.1249
63.6616 2383 48.816
63.7791 2160 46.4758
63.8966 1976 44.4522
64.0142 2113 45.9674
64.1317 2213 47.0425
64.2492 2514 50.1398
64.3668 2817 53.0754
64.4843 3052 55.2449
64.6019 3004 54.8088
64.7195 3095 55.6327
64.837 3209 56.648
64.9546 3124 55.8928
65.0722 3170 56.3028
65.1898 3081 55.5068
65.3074 3258 57.0789
65.4249 3154 56.1605
65.5425 3098 55.6597
65.6601 3041 55.1453
65.7777 3050 55.2268
65.8952 3162 56.2317
66.0128 3176 56.356
66.1304 3136 56
66.2479 3137 56.0089
66.3655 3377 58.112
66.483 3341 57.8014
66.6005 3344 57.8273
66.718 3365 58.0086
66.8355 3174 56.3383
66.953 3134 55.9821
67.0705 3186 56.4447
67.1879 2893 53.7866
67.3054 2716 52.1153
67.4228 2384 48.8262
67.5402 2146 46.3249
67.6576 2338 48.3529
67.7749 2493 49.93
67.8923 3069 55.3986
68.0096 3217 56.7186
68.1269 3409 58.3866
68.2442 3500 59.1608
68.3614 3625 60.208
68.4787 3641 60.3407
68.5958 3688 60.7289
68.713 3699 60.8194
68.8302 3791 61.5711
68.9473 3788 61.5467
69.0643 3671 60.5888
69.1814 3649 60.407
69.2984 3610 60.0833
69.4154 3652 60.4318
69.5323 3681 60.6712
69.6492 3676 60.63
69.7661 3769 61.3922
69.8829 3817 61.7819
69.9997 3935 62.7296
70.1165 3917 62.5859
70.2332 4052 63.6553
70.3499 3999 63.2376
70.4665 3816 61.7738
70.5831 3700 60.8276
70.6996 3449 58.7282
70.8161 3484 59.0254
70.9326 3256 57.0614
71.049 2876 53.6284
71.1653 2489 49.8899
71.2817 2535 50.3488
71.3979 2468 49.679
71.5141 2878 53.647
71.6303 3093 55.6147
71.7464 3161 56.2228
71.8624 0 1
71.9784 0 1
72.0944 0 1
72.2102 0 1
72.3261 0 1
72.4418 0 1
72.5575 0 1
72.6732 0 1
75.1054 0 1
75.2209 0 1
75.3365 0 1
75.4521 0 1
75.5678 0 1
75.6835 0 1
75.7993 0 1
75.9151 0 1
76.031 0 1
76.147 3305 57.4891
76.263 3364 58
76.3791 3099 55.6687
76.4952 2684 51.8073
76.6113 2576 50.7543
76.7276 2877 53.6377
76.8438 3329 57.6975
76.9601 3718 60.9754
77.0765 4139 64.3351
77.1929 4181 64.6607
77.3093 4334 65.8331
77.4258 4284 65.4523
77.5423 4249 65.1844
77.6589 4331 65.8103
77.7755 4230 65.0385
77.8921 4423 66.5056
78.0088 4274 65.3758
78.1256 4329 65.7951
78.2423 4243 65.1383
78.3591 4098 64.0156
78.4759 4142 64.3584
78.5928 4125 64.2262
78.7097 4110 64.1093
78.8266 4372 66.1211
78.9436 3984 63.1189
79.0606 4143 64.3661
79.1776 4254 65.2227
79.2946 4156 64.467
79.4117 4252 65.2074
79.5288 4215 64.923
79.6459 3907 62.506
79.7631 3651 60.4235
79.8802 3675 60.6218
79.9974 3328 57.6888
80.1147 2901 53.8609
80.2319 2769 52.6213
80.3491 2808 52.9906
80.4664 3235 56.8771
80.5837 3557 59.6406
80.701 4040 63.561
80.8183 4108 64.0937
80.9357 4128 64.2495
81.053 4294 65.5286
81.1704 4223 64.9846
81.2877 4058 63.7024
81.4051 4146 64.3894
81.5225 4283 65.4446
81.6399 4072 63.8122
81.7573 4208 64.8691
81.8747 4073 63.8201
81.9922 3957 62.9047
82.1096 3971 63.0159
82.227 4008 63.3088
82.3444 3956 62.8967
82.4619 4014 63.3561
82.5793 3870 62.2093
82.6967 4253 65.215
82.8142 4044 63.5925
82.9316 4054 63.671
83.049 3969 63
83.1664 3857 62.1048
83.2838 3711 60.918
83.4012 3575 59.7913
83.5186 3288 57.3411
83.636 3012 54.8817
83.7534 2686 51.8266
83.8708 2471 49.7092
83.9881 2602 51.0098
84.1055 2884 53.7029
84.2228 3213 56.6833
84.3401 3604 60.0333
84.4575 3918 62.5939
84.5747 3932 62.7057
84.692 3935 62.7296
84.8093 4050 63.6396
84.9265 4039 63.5531
85.0437 4047 63.616
85.1609 4076 63.8436
85.2781 4088 63.9375
85.3952 3974 63.0397
85.5123 3952 62.8649
85.6294 3995 63.206
85.7465 4079 63.867
85.8636 3937 62.7455
85.9806 4021 63.4114
86.0976 4085 63.914
86.2145 4155 64.4593
86.3315 4009 63.3167
86.4484 4440 66.6333
86.5652 4351 65.9621
86.682 4347 65.9318
86.7988 4216 64.9307
86.9156 4107 64.0859
87.0323 3719 60.9836
87.149 3653 60.4401
87.2657 3364 58
87.3823 3126 55.9106
87.4988 3013 54.8908
87.6154 3213 56.6833
87.7318 3528 59.397
87.8483 4092 63.9687
87.9647 4465 66.8207
88.081 4602 67.838
88.1973 4587 67.7274
88.3136 4643 68.1396
88.4298 4757 68.971
88.546 4613 67.9191
88.6621 4718 68.6877
88.7781 4611 67.9043
88.8942 0 1
89.0101 0 1
89.126 0 1
89.2419 0 1
89.3577 0 1
89.4734 0 1
89.5891 0 1
89.7047 0 1
89.8203 0 1
89.9358 0 1
92.3269 0 1
92.4424 0 1
92.558 0 1
92.6736 0 1
92.7893 0 1
92.905 0 1
93.0208 0 1
93.1366 0 1
93.2525 0 1
93.3685 0 1
93.4845 0 1
93.6005 4585 67.7126
93.7167 4735 68.8113
93.8328 4751 68.9275
93.949 4692 68.4982
94.0653 4647 68.1689
94.1816 4708 68.6149
94.2979 4663 68.2862
94.4143 4702 68.5711
94.5307 4575 67.6387
94.6472 4738 68.8331
94.7637 4559 67.5204
94.8803 4645 68.1542
94.9969 4570 67.6018
95.1135 4629 68.0368
95.2302 4674 68.3667
95.3469 4718 68.6877
95.4637 4628 68.0294
95.5805 4677 68.3886
95.6973 4817 69.4046
95.8142 4892 69.9428
95.9311 4655 68.2276
96.048 4566 67.5722
96.1649 4200 64.8074
96.2819 4039 63.5531
96.3989 3649 60.407
96.516 3327 57.6802
96.633 3128 55.9285
96.7501 3255 57.0526
96.8673 3642 60.349
96.9844 3905 62.49
97.1016 4551 67.4611
97.2188 4860 69.7137
97.336 4884 69.8856
97.4532 5093 71.3653
97.5704 4968 70.484
97.6877 4961 70.4344
97.805 4945 70.3207
97.9223 4973 70.5195
98.0396 4911 70.0785
98.1569 4818 69.4118
98.2743 5028 70.9084
98.3916 5101 71.4213
98.509 4962 70.4415
98.6264 4832 69.5126
98.7438 4792 69.2243
98.8612 4709 68.6222
98.9786 4830 69.4982
99.096 4937 70.2638
99.2134 4929 70.2068
99.3308 4980 70.5691
99.4482 5041 71
99.5656 4874 69.814
99.6831 4862 69.728
99.8005 4722 68.7168
99.9179 4219 64.9538
100.035 3784 61.5142
100.153 3639 60.3241
100.27 3401 58.3181
100.388 3824 61.8385
100.505 4180 64.6529
100.622 4542 67.3944
100.74 5003 70.7319
100.857 5240 72.3878
100.975 5106 71.4563
101.092 5123 71.5751
101.209 5263 72.5465
101.327 5188 72.0278
101.444 5240 72.3878
101.561 5261 72.5328
101.679 5263 72.5465
101.796 5245 72.4224
101.913 5112 71.4983
102.03 5171 71.9097
102.148 5121 71.5612
102.265 5540 74.4312
102.382 4998 70.6965
102.499 5166 71.8749
102.616 5220 72.2496
102.733 5390 73.4166
102.851 5396 73.4575
102.968 5385 73.3826
103.085 5281 72.6705
103.202 5163 71.854
103.319 4924 70.1712
103.436 4647 68.1689
103.552 4218 64.9461
103.669 3734 61.1065
103.786 3672 60.597
103.903 4025 63.4429
104.02 4473 66.8805
104.137 5002 70.7248
104.253 5513 74.2496
104.37 5444 73.7835
104.487 5664 75.2596
104.603 5690 75.4321
104.72 5552 74.5117
104.836 5482 74.0405
104.953 5691 75.4387
105.069 5605 74.8665
105.186 5728 75.6836
105.302 5793 76.1118
105.418 5684 75.3923
105.535 5849 76.4788
105.651 5695 75.4652
105.767 5745 75.7958
105.883 5845 76.4526
105.999 5633 75.0533
106.115 0 1
106.231 0 1
106.347 0 1
106.463 0 1
106.579 0 1
106.694 0 1
106.81 0 1
106.926 0 1
107.041 0 1
107.157 0 1
109.576 0 1
109.692 0 1
109.807 0 1
109.923 0 1
110.039 0 1
110.155 0 1
110.27 0 1
110.386 0 1
110.502 0 1
110.618 5271 72.6017
110.735 5387 73.3962
110.851 5337 73.0548
110.967 5351 73.1505
111.083 5443 73.7767
111.199 5433 73.7089
111.316 5408 73.5391
111.432 5416 73.5935
111.549 5262 72.5396
111.665 5189 72.0347
111.782 5061 71.1407
111.898 4672 68.352
112.015 4210 64.8845
112.132 3799 61.636
112.248 3528 59.397
112.365 3844 62
112.482 4121 64.195
112.599 4537 67.3573
112.716 5004 70.739
112.832 5099 71.4073
112.949 5172 71.9166
113.066 5120 71.5542
113.183 5067 71.1829
113.3 5040 70.993
113.417 5046 71.0352
113.534 5145 71.7287
113.652 4887 69.9071
113.769 4900 70
113.886 4957 70.406
114.003 4723 68.7241
114.12 4753 68.942
114.238 4768 69.0507
114.355 4731 68.7823
114.472 4705 68.593
114.589 4655 68.2276
114.707 4722 68.7168
114.824 4675 68.374
114.942 4752 68.9348
115.059 4769 69.0579
115.176 4787 69.1881
115.294 4547 67.4314
115.411 4463 66.8057
115.529 4094 63.9844
115.646 3655 60.4566
115.764 3223 56.7715
115.881 3373 58.0775
115.999 3692 60.7618
116.116 4017 63.3798
116.234 4487 66.9851
116.351 4697 68.5347
116.469 4738 68.8331
116.586 4747 68.8985
116.704 4755 68.9565
116.821 4872 69.7997
116.939 4909 70.0643
117.056 4793 69.2315
117.174 4831 69.5054
117.291 4794 69.2387
117.409 4846 69.6132
117.526 4823 69.4478
117.644 4852 69.6563
117.761 4720 68.7023
117.879 4688 68.469
117.996 4657 68.2422
118.114 4720 68.7023
118.231 4773 69.0869
118.349 4658 68.2495
118.466 4721 68.7095
118.584 4757 68.971
118.701 4694 68.5128
118.819 4850 69.6419
118.936 4646 68.1616
119.053 4436 66.6033
119.171 4067 63.773
119.288 3812 61.7414
119.405 3368 58.0345
119.523 3318 57.6021
119.64 3613 60.1082
119.757 3940 62.7694
119.875 4316 65.6963
119.992 4714 68.6586
120.109 4565 67.5648
120.226 4792 69.2243
120.343 4909 70.0643
120.46 4658 68.2495
120.578 4752 68.9348
120.695 4682 68.4251
120.812 4768 69.0507
120.929 4778 69.1231
121.046 4706 68.6003
121.163 4830 69.4982
121.279 4732 68.7895
121.396 4727 68.7532
121.513 4674 68.3667
121.63 4750 68.9202
121.747 4632 68.0588
121.863 4554 67.4833
121.98 4658 68.2495
122.097 4726 68.7459
122.213 4564 67.5574
122.33 4755 68.9565
122.446 4623 67.9926
122.563 4545 67.4166
122.679 4551 67.4611
122.795 4247 65.169
122.912 3969 63
123.028 3641 60.3407
123.144 3291 57.3672
123.26 3378 58.1206
123.377 0 1
123.493 0 1
123.609 0 1
123.725 0 1
123.84 0 1
123.956 0 1
124.072 0 1
124.188 0 1
124.303 0 1
124.419 0 1
126.852 0 1
126.968 0 1
127.083 0 1
127.199 0 1
127.315 0 1
127.431 0 1
127.547 0 1
127.663 0 1
127.779 0 1
127.895 0 1
128.011 0 1
128.127 0 1
128.243 0 1
128.359 3783 61.5061
128.476 3682 60.6795
128.592 3856 62.0967
128.708 4531 67.3127
128.825 4961 70.4344
128.941 5222 72.2634
129.058 5258 72.5121
129.174 5304 72.8286
129.291 5321 72.9452
129.408 5330 73.0068
129.524 5372 73.2939
129.641 5226 72.2911
129.758 5406 73.5255
129.875 5320 72.9383
129.992 5354 73.171
130.108 5278 72.6498
130.225 5121 71.5612
130.342 5230 72.3187
130.459 4999 70.7036
130.576 5161 71.8401
130.693 4963 70.4486
130.81 4936 70.2567
130.928 5073 71.225
131.045 4955 70.3918
131.162 5085 71.3092
131.279 5116 71.5262
131.396 5145 71.7287
131.513 4921 70.1498
131.631 4580 67.6757
131.748 4329 65.7951
131.865 3995 63.206
131.983 3661 60.5062
132.1 3597 59.975
132.217 4009 63.3167
132.335 4642 68.1322
132.452 4821 69.4334
132.57 5092 71.3583
132.687 4908 70.0571
132.804 5159 71.8262
132.922 5151 71.7705
133.039 5029 70.9154
133.157 5056 71.1056
133.274 5141 71.7008
133.392 5161 71.8401
133.509 5065 71.1688
133.627 4910 70.0714
133.744 5055 71.0985
133.862 4759 68.9855
133.979 4907 70.05
134.097 4865 69.7496
134.214 5088 71.3302
134.332 4906 70.0428
134.449 4907 70.05
134.567 4834 69.527
134.684 4872 69.7997
134.802 4989 70.6329
134.919 5005 70.746
135.037 4790 69.2098
135.154 4739 68.8404
135.272 4393 66.2797
135.389 3964 62.9603
135.507 3635 60.291
135.624 3615 60.1249
135.742 3806 61.6928
135.859 4141 64.3506
135.977 4564 67.5574
136.094 4947 70.3349
136.211 4994 70.6682
136.329 5111 71.4913
136.446 5102 71.4283
136.564 4987 70.6187
136.681 5106 71.4563
136.798 5071 71.211
136.915 5078 71.2601
137.033 5006 70.7531
137.15 4887 69.9071
137.267 4714 68.6586
137.384 4835 69.5342
137.502 4787 69.1881
137.619 4701 68.5638
137.736 4742 68.8622
137.853 4619 67.9632
137.97 4572 67.6166
138.087 4815 69.3902
138.204 4653 68.2129
138.321 4724 68.7314
138.438 4827 69.4766
138.555 4828 69.4838
138.672 4839 69.5629
138.788 4646 68.1616
138.905 4345 65.9166
139.022 4106 64.0781
139.139 3833 61.9112
139.255 3644 60.3656
139.372 3745 61.1964
139.488 4159 64.4903
139.605 4643 68.1396
139.721 4839 69.5629
139.838 4948 70.342
139.954 4928 70.1997
140.071 5153 71.7844
140.187 5038 70.9789
140.303 5027 70.9013
140.419 4938 70.2709
140.535 4996 70.6824
140.652 4791 69.217
140.768 0 1
140.884 0 1
141 0 1
141.115 0 1
141.231 0 1
141.347 0 1
141.463 0 1
141.578 0 1
141.694 0 1
144.104 0 1
144.219 0 1
144.335 0 1
144.45 0 1
144.566 0 1
144.682 0 1
144.798 0 1
144.914 0 1
145.03 0 1
145.146 4242 65.1306
145.262 4265 65.307
145.378 4410 66.4078
145.494 4177 64.6297
145.61 4159 64.4903
145.726 4186 64.6993
145.842 4157 64.4748
145.959 3968 62.9921
146.075 3975 63.0476
146.192 3854 62.0806
146.308 3893 62.3939
146.425 3889 62.3618
146.541 3933 62.7136
146.658 4000 63.2456
146.774 3954 62.8808
146.891 4079 63.867
147.008 3979 63.0793
147.125 4048 63.6239
147.241 3933 62.7136
147.358 3868 62.1932
147.475 3862 62.145
147.592 3524 59.3633
147.709 3053 55.254
147.826 3027 55.0182
147.943 2961 54.4151
148.06 3310 57.5326
148.177 3674 60.6135
148.294 3821 61.8142
148.411 3924 62.6418
148.528 3952 62.8649
148.645 3971 63.0159
148.762 4078 63.8592
148.88 3971 63.0159
148.997 3817 61.7819
149.114 4092 63.9687
149.231 3912 62.546
149.349 3802 61.6604
149.466 3805 61.6847
149.583 3741 61.1637
149.701 3575 59.7913
149.818 3632 60.2661
149.935 3559 59.6574
150.053 3619 60.1581
150.17 3568 59.7327
150.287 3591 59.925
150.405 3686 60.7124
150.522 3739 61.1474
150.64 3788 61.5467
150.757 3764 61.3514
150.875 3739 61.1474
150.992 3689 60.7371
151.11 3473 58.9322
151.227 3383 58.1636
151.344 2970 54.4977
151.462 2717 52.1249
151.579 2762 52.5547
151.697 3241 56.9298
151.814 3567 59.7244
151.932 3730 61.0737
152.049 3831 61.8951
152.167 3815 61.7657
152.284 3831 61.8951
152.402 3750 61.2372
152.519 3837 61.9435
152.636 3920 62.6099
152.754 3796 61.6117
152.871 3675 60.6218
152.989 3779 61.4736
153.106 3650 60.4152
153.223 3614 60.1166
153.341 3502 59.1777
153.458 3549 59.5735
153.575 3593 59.9416
153.693 3614 60.1166
153.81 3472 58.9237
153.927 3648 60.3987
154.044 3550 59.5819
154.162 3704 60.8605
154.279 3743 61.1801
154.396 3659 60.4897
154.513 3795 61.6036
154.63 3753 61.2617
154.747 3647 60.3904
154.864 3513 59.2706
154.981 3244 56.9561
155.098 2973 54.5252
155.215 3161 56.2228
155.332 3459 58.8133
155.449 3684 60.696
155.566 3815 61.7657
155.683 3809 61.7171
155.8 3874 62.2415
155.917 3970 63.0079
156.033 3934 62.7216
156.15 0 1
156.267 0 1
156.383 0 1
156.5 0 1
156.617 0 1
156.733 0 1
156.85 0 1
156.966 0 1
157.082 0 1
157.199 0 1
157.315 0 1
157.431 0 1
157.547 0 1
157.664 0 1
157.78 0 1
157.896 0 1
158.012 0 1
158.128 0 1
158.244 0 1
158.359 0 1
158.475 0 1
158.591 0 1
158.706 0 1
