
6.15755 0 1
6.2731 0 1
6.3887 0 1
6.50437 0 1
6.62009 0 1
6.73587 0 1
6.8517 0 1
6.96759 0 1
7.08353 0 1
7.19952 0 1
7.31557 0 1
7.43166 0 1
7.54781 0 1
7.664 0 1
7.78024 0 1
7.89653 0 1
8.01286 0 1
8.12924 0 1
8.24567 0 1
8.36213 0 1
8.47864 0 1
8.59519 0 1
8.71178 0 1
8.82841 0 1
8.94508 0 1
9.06179 0 1
9.17853 0 1
9.29531 0 1
9.41212 0 1
9.52897 0 1
9.64584 0 1
9.76276 0 1
9.8797 0 1
9.99667 0 1
10.1137 0 1
10.2307 0 1
10.3478 0 1
10.4648 0 1
10.5819 0 1
10.6991 0 1
10.8162 0 1
10.9334 0 1
11.0506 0 1
11.1678 0 1
11.285 0 1
11.4023 0 1
11.5196 0 1
11.6369 0 1
11.7542 0 1
11.8715 0 1
11.9888 0 1
12.1062 0 1
12.2235 0 1
12.3409 0 1
12.4582 0 1
12.5756 0 1
12.693 0 1
12.8104 0 1
12.9278 0 1
13.0452 0 1
13.1626 0 1
13.28 0 1
13.3974 0 1
13.5149 0 1
13.6323 0 1
13.7497 0 1
13.8671 0 1
13.9845 0 1
14.1019 0 1
14.2193 0 1
14.3367 0 1
14.4541 0 1
14.5714 0 1
14.6888 0 1
14.8062 0 1
14.9235 0 1
15.0408 9144 95.6243
15.1581 9241 96.1301
15.2755 9522 97.5807
15.3927 9408 96.9948
15.51 9331 96.5971
15.6273 9109 95.4411
15.7445 9060 95.184
15.8617 9026 95.0053
15.9789 9431 97.1133
16.0961 9661 98.2904
16.2132 10063 100.315
16.3304 10398 101.971
16.4475 10543 102.679
16.5646 10776 103.808
16.6816 10567 102.796
16.7986 10766 103.759
16.9156 10629 103.097
17.0326 10576 102.84
17.1496 10556 102.742
17.2665 10347 101.72
17.3833 10269 101.336
17.5002 10508 102.509
17.617 10575 102.835
17.7338 10756 103.711
17.8505 10998 104.871
17.9672 11122 105.461
18.0839 11258 106.104
18.2005 11656 107.963
18.3171 11696 108.148
18.4337 12312 110.959
18.5502 12545 112.004
18.6666 12368 111.212
18.7831 12554 112.045
18.8994 12076 109.891
19.0158 12036 109.709
19.1321 11574 107.583
19.2483 11145 105.57
19.3645 11244 106.038
19.4806 11179 105.731
19.5967 11623 107.81
19.7128 12072 109.873
19.8288 12058 109.809
19.9447 11209 105.873
20.0606 0 1
20.1764 0 1
20.2922 0 1
20.4079 0 1
20.5236 0 1
20.6392 0 1
20.7548 0 1
20.8702 0 1
23.3078 0 1
23.4233 0 1
23.539 0 1
23.6547 0 1
23.7704 0 1
23.8862 0 1
24.0021 0 1
24.118 0 1
24.234 0 1
24.35 0 1
24.4661 11705 108.19
24.5822 11821 108.724
24.6984 11883 109.009
24.8146 12104 110.018
24.9309 12757 112.947
25.0472 12991 113.978
25.1636 13440 115.931
25.28 13413 115.815
25.3965 13368 115.62
25.513 13373 115.642
25.6296 12994 113.991
25.7462 12863 113.415
25.8628 12956 113.824
25.9795 12833 113.283
26.0962 12766 112.987
26.213 13127 114.573
26.3298 13144 114.647
26.4466 13701 117.051
26.5635 13959 118.148
26.6804 14162 119.004
26.7973 14781 121.577
26.9143 14659 121.074
27.0313 14711 121.289
27.1483 15084 122.817
27.2653 15092 122.85
27.3824 15238 123.442
27.4996 14999 122.47
27.6167 14860 121.902
27.7339 14050 118.533
27.8511 13708 117.081
27.9683 13317 115.399
28.0855 13023 114.118
28.2028 12689 112.645
28.3201 12790 113.093
28.4374 13257 115.139
28.5547 13853 117.699
28.6721 14105 118.764
28.7894 14470 120.291
28.9068 14191 119.126
29.0242 13914 117.958
29.1416 13516 116.258
29.259 13095 114.433
29.3764 12687 112.637
29.4939 12706 112.721
29.6113 12642 112.437
29.7288 12999 114.013
29.8463 13076 114.35
29.9638 13392 115.724
30.0812 14012 118.372
30.1987 14260 119.415
30.3162 14611 120.876
30.4337 14683 121.173
30.5512 15385 124.036
30.6687 15157 123.114
30.7862 15685 125.24
30.9037 15778 125.611
31.0212 15633 125.032
31.1387 15252 123.499
31.2562 14883 121.996
31.3737 14554 120.64
31.4912 14265 119.436
31.6087 13770 117.346
31.7262 13211 114.939
31.8436 13556 116.43
31.9611 13769 117.341
32.0785 14190 119.122
32.1959 14805 121.676
32.3134 14913 122.119
32.4308 15048 122.67
32.5482 14687 121.19
32.6655 14443 120.179
32.7829 14076 118.642
32.9002 13587 116.563
33.0176 13314 115.386
33.1349 13292 115.291
33.2522 13311 115.373
33.3694 13155 114.695
33.4867 13555 116.426
33.6039 14102 118.752
33.7211 14569 120.702
33.8383 14996 122.458
33.9554 15426 124.201
34.0725 15593 124.872
34.1896 15641 125.064
34.3067 15860 125.936
34.4237 16171 127.165
34.5407 15994 126.467
34.6577 16144 127.059
34.7746 15849 125.893
34.8915 15348 123.887
35.0084 15114 122.939
35.1252 15014 122.532
35.242 14349 119.787
35.3587 14165 119.017
35.4755 13801 117.478
35.5921 13722 117.141
35.7088 14329 119.704
35.8254 14811 121.7
35.9419 15120 122.963
36.0584 15363 123.948
36.1749 15522 124.587
36.2913 15180 123.207
36.4077 14677 121.149
36.524 14147 118.941
36.6403 13718 117.124
36.7565 13414 115.819
36.8727 13254 115.126
36.9889 13298 115.317
37.1049 13265 115.174
37.221 0 1
37.3369 0 1
37.4529 0 1
37.5687 0 1
37.6845 0 1
37.8003 0 1
37.916 0 1
38.0316 0 1
38.1472 0 1
40.5851 0 1
40.7008 0 1
40.8164 0 1
40.9322 0 1
41.048 0 1
41.1639 0 1
41.2798 0 1
41.3958 0 1
41.5118 0 1
41.6279 0 1
41.744 11419 106.86
41.8602 11567 107.55
41.9765 11729 108.301
42.0928 11651 107.94
42.2091 11928 109.215
42.3255 12575 112.138
42.4419 12848 113.349
42.5584 13205 114.913
42.675 13884 117.83
42.7915 14191 119.126
42.9081 14547 120.611
43.0248 14648 121.029
43.1415 14519 120.495
43.2582 14599 120.826
43.375 14764 121.507
43.4918 14668 121.112
43.6087 14668 121.112
43.7256 14097 118.731
43.8425 13863 117.741
43.9595 13399 115.754
44.0765 13129 114.582
44.1935 12448 111.571
44.3106 12170 110.318
44.4277 12276 110.797
44.5448 12553 112.04
44.6619 12661 112.521
44.7791 13248 115.1
44.8963 12973 113.899
45.0136 12679 112.601
45.1308 12023 109.649
45.2481 11421 106.869
45.3654 10847 104.149
45.4827 10319 101.582
45.6001 10377 101.868
45.7174 10281 101.395
45.8348 10521 102.572
45.9522 10913 104.465
46.0697 11101 105.361
46.1871 11593 107.671
46.3046 12009 109.586
46.422 12455 111.602
46.5395 12587 112.192
46.657 12784 113.066
46.7745 12627 112.37
46.892 12476 111.696
47.0096 12533 111.951
47.1271 12746 112.898
47.2446 12265 110.747
47.3622 12165 110.295
47.4797 11646 107.917
47.5973 11357 106.569
47.7149 10925 104.523
47.8324 10458 102.264
47.95 10567 102.796
48.0675 10498 102.46
48.1851 10945 104.618
48.3027 10849 104.159
48.4202 10904 104.422
48.5378 10818 104.01
48.6554 10050 100.25
48.7729 9603 97.9949
48.8904 9106 95.4254
49.008 8851 94.0798
49.1255 8511 92.2551
49.243 8568 92.5635
49.3605 8753 93.5575
49.478 9396 96.933
49.5955 9792 98.9545
49.713 9982 99.91
49.8304 10594 102.927
49.9479 11008 104.919
50.0653 11619 107.791
50.1827 11639 107.884
50.3001 12035 109.704
50.4175 11992 109.508
50.5348 12155 110.25
50.6521 12136 110.164
50.7694 12055 109.795
50.8867 12133 110.15
51.004 11954 109.334
51.1212 11671 108.032
51.2384 11821 108.724
51.3556 11753 108.411
51.4727 11591 107.662
51.5899 12286 110.842
51.707 12712 112.748
51.824 13189 114.843
51.9411 13875 117.792
52.0581 13848 117.678
52.175 13495 116.168
52.2919 12883 113.503
52.4088 12201 110.458
52.5257 11818 108.711
52.6425 11852 108.867
52.7593 11677 108.06
52.876 11960 109.362
52.9927 12568 112.107
53.1094 13584 116.55
53.226 14612 120.88
53.3426 15743 125.471
53.4591 16335 127.808
53.5756 17027 130.488
53.692 17324 131.621
53.8084 17746 133.214
53.9248 17799 133.413
54.0411 18160 134.759
54.1573 18551 136.202
54.2735 0 1
54.3896 0 1
54.5057 0 1
54.6217 0 1
54.7377 0 1
54.8537 0 1
54.9695 0 1
55.0853 0 1
55.2011 0 1
55.3168 0 1
55.4324 0 1
57.824 0 1
57.9396 0 1
58.0553 0 1
58.1711 0 1
58.2869 0 1
58.4028 0 1
58.5187 0 1
58.6347 0 1
58.7508 0 1
58.8669 0 1
58.983 20682 143.812
59.0992 21934 148.101
59.2155 22262 149.205
59.3318 22193 148.973
59.4482 22048 148.486
59.5646 21549 146.796
59.681 21815 147.699
59.7975 21055 145.103
59.9141 20872 144.471
60.0306 20453 143.014
60.1473 20457 143.028
60.2639 20491 143.147
60.3807 20581 143.461
60.4974 20434 142.948
60.6142 20640 143.666
60.731 19734 140.478
60.8479 18791 137.08
60.9648 17960 134.015
61.0818 16825 129.711
61.1987 16432 128.187
61.3158 16088 126.838
61.4328 15866 125.96
61.5499 16684 129.167
61.667 17664 132.906
61.7841 18151 134.726
61.9013 19069 138.091
62.0185 19760 140.57
62.1357 20470 143.073
62.253 21131 145.365
62.3702 21631 147.075
62.4875 21930 148.088
62.6049 21644 147.119
62.7222 21770 147.547
62.8396 21512 146.67
62.9569 21270 145.842
63.0743 21104 145.272
63.1918 20655 143.718
63.3092 19834 140.833
63.4267 20107 141.799
63.5441 19906 141.089
63.6616 19282 138.86
63.7791 19722 140.435
63.8966 19958 141.273
64.0142 19998 141.414
64.1317 19959 141.276
64.2492 19426 139.377
64.3668 18399 135.643
64.4843 17336 131.666
64.6019 16427 128.168
64.7195 15415 124.157
64.837 15286 123.637
64.9546 15194 123.264
65.0722 15261 123.535
65.1898 15929 126.21
65.3074 17433 132.034
65.4249 17842 133.574
65.5425 18996 137.826
65.6601 20180 142.056
65.7777 20763 144.094
65.8952 21243 145.75
66.0128 21222 145.678
66.1304 21540 146.765
66.2479 21901 147.99
66.3655 21988 148.284
66.483 21750 147.479
66.6005 21874 147.899
66.718 21404 146.301
66.8355 21588 146.929
66.953 20914 144.617
67.0705 20567 143.412
67.1879 20409 142.86
67.3054 20330 142.583
67.4228 20751 144.052
67.5402 20836 144.347
67.6576 21414 146.335
67.7749 20886 144.52
67.8923 20931 144.675
68.0096 19799 140.709
68.1269 18886 137.426
68.2442 17512 132.333
68.3614 16887 129.95
68.4787 16246 127.46
68.5958 16100 126.886
68.713 16847 129.796
68.8302 17814 133.469
68.9473 19068 138.087
69.0643 20194 142.106
69.1814 21504 146.642
69.2984 23087 151.944
69.4154 24140 155.371
69.5323 24863 157.68
69.6492 25193 158.723
69.7661 25629 160.091
69.8829 26571 163.006
69.9997 26664 163.291
70.1165 26541 162.914
70.2332 26489 162.754
70.3499 26330 162.265
70.4665 25721 160.378
70.5831 25740 160.437
70.6996 25205 158.761
70.8161 25046 158.259
70.9326 24978 158.044
71.049 25124 158.506
71.1653 25016 158.164
71.2817 25581 159.941
71.3979 25397 159.364
71.5141 24598 156.837
71.6303 22412 149.706
71.7464 19680 140.285
71.8624 0 1
71.9784 0 1
72.0944 0 1
72.2102 0 1
72.3261 0 1
72.4418 0 1
72.5575 0 1
72.6732 0 1
75.1054 0 1
75.2209 0 1
75.3365 0 1
75.4521 0 1
75.5678 0 1
75.6835 0 1
75.7993 0 1
75.9151 0 1
76.031 0 1
76.147 25055 158.288
76.263 26834 163.811
76.3791 27590 166.102
76.4952 28767 169.608
76.6113 29266 171.073
76.7276 29837 172.734
76.8438 28722 169.476
76.9601 27340 165.348
77.0765 25234 158.852
77.1929 23050 151.822
77.3093 21407 146.311
77.4258 19983 141.361
77.5423 19692 140.328
77.6589 20155 141.968
77.7755 21344 146.096
77.8921 23334 152.755
78.0088 25793 160.602
78.1256 27792 166.709
78.2423 29370 171.377
78.3591 31122 176.414
78.4759 31857 178.485
78.5928 32292 179.7
78.7097 32548 180.411
78.8266 31534 177.578
78.9436 34109 184.686
79.0606 32327 179.797
79.1776 31926 178.678
79.2946 32094 179.148
79.4117 31600 177.764
79.5288 30994 176.051
79.6459 30748 175.351
79.7631 29822 172.69
79.8802 29298 171.167
79.9974 29461 171.642
80.1147 29621 172.108
80.2319 30600 174.929
80.3491 31322 176.98
80.4664 30836 175.602
80.5837 29603 172.055
80.701 27689 166.4
80.8183 24895 157.781
80.9357 22359 149.529
81.053 20672 143.778
81.1704 19865 140.943
81.2877 19681 140.289
81.4051 20376 142.745
81.5225 22135 148.778
81.6399 25120 158.493
81.7573 27259 165.103
81.8747 28893 169.979
81.9922 30742 175.334
82.1096 31662 177.938
82.227 31861 178.496
82.3444 31905 178.62
82.4619 32391 179.975
82.5793 32578 180.494
82.6967 31940 178.718
82.8142 31479 177.423
82.9316 30920 175.841
83.049 30865 175.684
83.1664 30226 173.856
83.2838 29601 172.049
83.4012 29293 171.152
83.5186 28446 168.659
83.636 28502 168.825
83.7534 28878 169.935
83.8708 29467 171.66
83.9881 30046 173.338
84.1055 29852 172.777
84.2228 28611 169.148
84.3401 26417 162.533
84.4575 24294 155.865
84.5747 22068 148.553
84.692 20333 142.594
84.8093 19458 139.492
84.9265 19683 140.296
85.0437 20915 144.62
85.1609 23198 152.309
85.2781 25606 160.019
85.3952 28374 168.446
85.5123 30817 175.548
85.6294 32618 180.605
85.7465 34141 184.773
85.8636 35303 187.891
85.9806 36023 189.797
86.0976 36052 189.874
86.2145 36529 191.126
86.3315 38054 195.074
86.4484 36324 190.589
86.5652 37693 194.147
86.682 37427 193.461
86.7988 37544 193.763
86.9156 37179 192.819
87.0323 37217 192.917
87.149 36889 192.065
87.2657 37022 192.411
87.3823 38039 195.036
87.4988 38844 197.089
87.6154 39792 199.479
87.7318 39022 197.54
87.8483 37094 192.598
87.9647 34322 185.262
88.081 31661 177.935
88.1973 28980 170.235
88.3136 26552 162.948
88.4298 26178 161.796
88.546 26932 164.11
88.6621 29245 171.012
88.7781 32356 179.878
88.8942 0 1
89.0101 0 1
89.126 0 1
89.2419 0 1
89.3577 0 1
89.4734 0 1
89.5891 0 1
89.7047 0 1
89.8203 0 1
89.9358 0 1
92.3269 0 1
92.4424 0 1
92.558 0 1
92.6736 0 1
92.7893 0 1
92.905 0 1
93.0208 0 1
93.1366 0 1
93.2525 0 1
93.3685 0 1
93.4845 0 1
93.6005 30123 173.56
93.7167 29638 172.157
93.8328 29594 172.029
93.949 30809 175.525
94.0653 32046 179.014
94.1816 35606 188.696
94.2979 38939 197.33
94.4143 42051 205.063
94.5307 44389 210.687
94.6472 46462 215.55
94.7637 48197 219.538
94.8803 48508 220.245
94.9969 49288 222.009
95.1135 49579 222.663
95.2302 49620 222.755
95.3469 49796 223.15
95.4637 49637 222.794
95.5805 49222 221.86
95.6973 49886 223.352
95.8142 49754 223.056
95.9311 48550 220.341
96.048 48529 220.293
96.1649 47457 217.846
96.2819 46674 216.042
96.3989 47254 217.38
96.516 48015 219.123
96.633 48507 220.243
96.7501 48566 220.377
96.8673 47231 217.327
96.9844 44528 211.017
97.1016 40731 201.819
97.2188 37297 193.124
97.336 34515 185.782
97.4532 31885 178.564
97.5704 31064 176.25
97.6877 31496 177.471
97.805 33427 182.831
97.9223 36684 191.531
98.0396 40293 200.731
98.1569 42922 207.176
98.2743 45911 214.269
98.3916 48646 220.558
98.509 49957 223.511
98.6264 51317 226.533
98.7438 51432 226.786
98.8612 51967 227.963
98.9786 51984 228
99.096 51210 226.296
99.2134 50853 225.506
99.3308 51044 225.929
99.4482 51600 227.156
99.5656 51492 226.918
99.6831 50581 224.902
99.8005 49484 222.45
99.9179 48668 220.608
100.035 49123 221.637
100.153 49933 223.457
100.27 50865 225.533
100.388 50940 225.699
100.505 49262 221.95
100.622 45725 213.834
100.74 42139 205.278
100.857 38503 196.222
100.975 35206 187.633
101.092 32555 180.43
101.209 32129 179.246
101.327 33211 182.239
101.444 35670 188.865
101.561 40271 200.676
101.679 43664 208.959
101.796 47184 217.219
101.913 50352 224.393
102.03 52087 228.226
102.148 52646 229.447
102.265 52043 228.129
102.382 55036 234.598
102.499 53840 232.034
102.616 53473 231.242
102.733 53518 231.34
102.851 53216 230.686
102.968 53697 231.726
103.085 53875 232.11
103.202 52853 229.898
103.319 51853 227.713
103.436 51356 226.619
103.552 51439 226.802
103.669 51594 227.143
103.786 53132 230.504
103.903 53350 230.976
104.02 52035 228.112
104.137 49345 222.137
104.253 45820 214.056
104.37 42083 205.141
104.487 38332 195.786
104.603 36253 190.402
104.72 35041 187.192
104.836 35674 188.876
104.953 38385 195.921
105.069 42392 205.893
105.186 46312 215.202
105.302 50351 224.39
105.418 53218 230.69
105.535 55649 235.9
105.651 56551 237.805
105.767 57285 239.343
105.883 57811 240.439
105.999 57415 239.614
106.115 0 1
106.231 0 1
106.347 0 1
106.463 0 1
106.579 0 1
106.694 0 1
106.81 0 1
106.926 0 1
107.041 0 1
107.157 0 1
109.576 0 1
109.692 0 1
109.807 0 1
109.923 0 1
110.039 0 1
110.155 0 1
110.27 0 1
110.386 0 1
110.502 0 1
110.618 50284 224.241
110.735 52020 228.079
110.851 52738 229.648
110.967 53118 230.473
111.083 53239 230.736
111.199 52787 229.754
111.316 52926 230.057
111.432 53324 230.92
111.549 52792 229.765
111.665 51994 228.022
111.782 50903 225.617
111.898 49861 223.296
112.015 49839 223.247
112.132 51052 225.947
112.248 50994 225.819
112.365 51149 226.161
112.482 48169 219.474
112.599 47561 218.085
112.716 43712 209.074
112.832 40578 201.44
112.949 36768 191.75
113.066 34283 185.157
113.183 33123 181.997
113.3 33479 182.973
113.417 34776 186.483
113.534 36758 191.724
113.652 40057 200.142
113.769 43478 208.514
113.886 46447 215.516
114.003 47635 218.254
114.12 48960 221.269
114.238 49546 222.589
114.355 49975 223.551
114.472 49066 221.508
114.589 49917 223.421
114.707 48428 220.064
114.824 47756 218.531
114.942 48834 220.984
115.059 49558 222.616
115.176 49024 221.414
115.294 48469 220.157
115.411 47198 217.251
115.529 46947 216.673
115.646 47057 216.926
115.764 48216 219.581
115.881 48924 221.188
115.999 48227 219.606
116.116 46265 215.093
116.234 44460 210.855
116.351 41674 204.142
116.469 38925 197.294
116.586 35953 189.613
116.704 33739 183.682
116.821 32784 181.064
116.939 33155 182.085
117.056 34451 185.61
117.174 36886 192.057
117.291 38976 197.423
117.409 42684 206.601
117.526 44713 211.454
117.644 46881 216.52
117.761 47323 217.539
117.879 48342 219.868
117.996 47792 218.614
118.114 48204 219.554
118.231 47658 218.307
118.349 46786 216.301
118.466 46286 215.142
118.584 47594 218.16
118.701 47683 218.364
118.819 47339 217.575
118.936 46301 215.177
119.053 45549 213.422
119.171 44824 211.717
119.288 45239 212.695
119.405 45985 214.441
119.523 46770 216.264
119.64 45708 213.794
119.757 45145 212.474
119.875 42594 206.383
119.992 40307 200.766
120.109 38493 196.196
120.226 35623 188.741
120.343 33518 183.079
120.46 32680 180.776
120.578 31965 178.788
120.695 32468 180.189
120.812 33996 184.38
120.929 36553 191.188
121.046 39164 197.899
121.163 41224 203.037
121.279 43301 208.089
121.396 44425 210.772
121.513 45361 212.981
121.63 46367 215.33
121.747 45543 213.408
121.863 45313 212.869
121.98 44871 211.828
122.097 44366 210.632
122.213 43937 209.612
122.33 44309 210.497
122.446 45039 212.224
122.563 44552 211.073
122.679 43799 209.282
122.795 42503 206.163
122.912 42080 205.134
123.028 42610 206.422
123.144 42995 207.352
123.26 43213 207.877
123.377 0 1
123.493 0 1
123.609 0 1
123.725 0 1
123.84 0 1
123.956 0 1
124.072 0 1
124.188 0 1
124.303 0 1
124.419 0 1
126.852 0 1
126.968 0 1
127.083 0 1
127.199 0 1
127.315 0 1
127.431 0 1
127.547 0 1
127.663 0 1
127.779 0 1
127.895 0 1
128.011 0 1
128.127 0 1
128.243 0 1
128.359 45501 213.31
128.476 45556 213.439
128.592 45251 212.723
128.708 44489 210.924
128.825 42551 206.279
128.941 40677 201.685
129.058 38605 196.482
129.174 36503 191.058
129.291 35064 187.254
129.408 35029 187.16
129.524 34826 186.617
129.641 35735 189.037
129.758 37412 193.422
129.875 40035 200.087
129.992 41745 204.316
130.108 43780 209.237
130.225 44098 209.995
130.342 44952 212.019
130.459 44615 211.223
130.576 46307 215.191
130.693 44849 211.776
130.81 44220 210.286
130.928 43927 209.588
131.045 44231 210.312
131.162 45244 212.706
131.279 45833 214.086
131.396 45676 213.719
131.513 44484 210.912
131.631 44159 210.14
131.748 44540 211.045
131.865 45101 212.37
131.983 45290 212.814
132.1 44656 211.32
132.217 43663 208.957
132.335 42284 205.631
132.452 40944 202.346
132.57 38743 196.832
132.687 36231 190.344
132.804 35380 188.096
132.922 34292 185.181
133.039 33927 184.193
133.157 34546 185.866
133.274 36087 189.966
133.392 37978 194.879
133.509 39579 198.945
133.627 40411 201.025
133.744 41836 204.539
133.862 42866 207.041
133.979 43094 207.591
134.097 43727 209.11
134.214 42555 206.289
134.332 42696 206.63
134.449 41658 204.103
134.567 41894 204.68
134.684 42166 205.344
134.802 43265 208.002
134.919 43674 208.983
135.037 42769 206.807
135.154 41870 204.622
135.272 42499 206.153
135.389 42344 205.777
135.507 43275 208.026
135.624 42987 207.333
135.742 42542 206.257
135.859 41500 203.715
135.977 40778 201.936
136.094 38799 196.975
136.211 37447 193.512
136.329 35374 188.08
136.446 33853 183.992
136.564 33596 183.292
136.681 33414 182.795
136.798 33982 184.342
136.915 34501 185.744
137.033 36515 191.089
137.15 38178 195.392
137.267 39132 197.818
137.384 40033 200.082
137.502 40302 200.754
137.619 40068 200.17
137.736 41038 202.578
137.853 40314 200.783
137.97 39716 199.289
138.087 38379 195.906
138.204 39247 198.109
138.321 40131 200.327
138.438 40957 202.378
138.555 41709 204.228
138.672 41348 203.342
138.788 40758 201.886
138.905 40685 201.705
139.022 41655 204.096
139.139 41939 204.79
139.255 41572 203.892
139.372 41473 203.649
139.488 40664 201.653
139.605 39249 198.114
139.721 38078 195.136
139.838 37113 192.647
139.954 35382 188.101
140.071 33685 183.535
140.187 33764 183.75
140.303 32723 180.895
140.419 33068 181.846
140.535 32836 181.207
140.652 33681 183.524
140.768 0 1
140.884 0 1
141 0 1
141.115 0 1
141.231 0 1
141.347 0 1
141.463 0 1
141.578 0 1
141.694 0 1
144.104 0 1
144.219 0 1
144.335 0 1
144.45 0 1
144.566 0 1
144.682 0 1
144.798 0 1
144.914 0 1
145.03 0 1
145.146 23148 152.145
145.262 25172 158.657
145.378 25627 160.084
145.494 25920 160.997
145.61 26643 163.227
145.726 27127 164.703
145.842 28074 167.553
145.959 28909 170.026
146.075 29313 171.21
146.192 29625 172.119
146.308 30416 174.402
146.425 30135 173.594
146.541 30201 173.784
146.658 29960 173.09
146.774 29241 171
146.891 28790 169.676
147.008 29570 171.959
147.125 29962 173.095
147.241 30589 174.897
147.358 31144 176.477
147.475 30806 175.516
147.592 30763 175.394
147.709 31102 176.358
147.826 31340 177.031
147.943 31108 176.375
148.06 31381 177.147
148.177 31281 176.864
148.294 30416 174.402
148.411 30117 173.543
148.528 29667 172.241
148.645 28552 168.973
148.762 27850 166.883
148.88 27361 165.412
148.997 26714 163.444
149.114 27539 165.949
149.231 27038 164.432
149.349 27296 165.215
149.466 28038 167.446
149.583 28376 168.452
149.701 29075 170.514
149.818 29469 171.665
149.935 30240 173.897
150.053 30362 174.247
150.17 30376 174.287
150.287 30628 175.009
150.405 29876 172.847
150.522 29635 172.148
150.64 29350 171.318
150.757 29625 172.119
150.875 30345 174.198
150.992 30838 175.608
151.11 31409 177.226
151.227 31303 176.927
151.344 31207 176.655
151.462 30981 176.014
151.579 31783 178.278
151.697 31874 178.533
151.814 31049 176.207
151.932 31108 176.375
152.049 30773 175.422
152.167 29731 172.427
152.284 29499 171.753
152.402 28684 169.364
152.519 28210 167.958
152.636 27925 167.108
152.754 27912 167.069
152.871 28049 167.478
152.989 28012 167.368
153.106 28640 169.234
153.223 29179 170.819
153.341 29435 171.566
153.458 30048 173.344
153.575 30627 175.006
153.693 30625 175
153.81 30805 175.514
153.927 30594 174.911
154.044 30119 173.548
154.162 29497 171.747
154.279 29745 172.467
154.396 30237 173.888
154.513 31209 176.661
154.63 31988 178.852
154.747 32337 179.825
154.864 32361 179.892
154.981 33055 181.81
155.098 32530 180.361
155.215 32838 181.213
155.332 32852 181.251
155.449 32397 179.992
155.566 32081 179.112
155.683 31671 177.963
155.8 30966 175.972
155.917 30221 173.842
156.033 29962 173.095
156.15 0 1
156.267 0 1
156.383 0 1
156.5 0 1
156.617 0 1
156.733 0 1
156.85 0 1
156.966 0 1
157.082 0 1
157.199 0 1
157.315 0 1
157.431 0 1
157.547 0 1
157.664 0 1
157.78 0 1
157.896 0 1
158.012 0 1
158.128 0 1
158.244 0 1
158.359 0 1
158.475 0 1
158.591 0 1
158.706 0 1
