
6.15755 0 1
6.2731 0 1
6.3887 0 1
6.50437 0 1
6.62009 0 1
6.73587 0 1
6.8517 0 1
6.96759 0 1
7.08353 0 1
7.19952 0 1
7.31557 0 1
7.43166 0 1
7.54781 0 1
7.664 0 1
7.78024 0 1
7.89653 0 1
8.01286 0 1
8.12924 0 1
8.24567 0 1
8.36213 0 1
8.47864 0 1
8.59519 0 1
8.71178 0 1
8.82841 0 1
8.94508 0 1
9.06179 0 1
9.17853 0 1
9.29531 0 1
9.41212 0 1
9.52897 0 1
9.64584 0 1
9.76276 0 1
9.8797 0 1
9.99667 0 1
10.1137 0 1
10.2307 0 1
10.3478 0 1
10.4648 0 1
10.5819 0 1
10.6991 0 1
10.8162 0 1
10.9334 0 1
11.0506 0 1
11.1678 0 1
11.285 0 1
11.4023 0 1
11.5196 0 1
11.6369 0 1
11.7542 0 1
11.8715 0 1
11.9888 0 1
12.1062 0 1
12.2235 0 1
12.3409 0 1
12.4582 0 1
12.5756 0 1
12.693 0 1
12.8104 0 1
12.9278 0 1
13.0452 0 1
13.1626 0 1
13.28 0 1
13.3974 0 1
13.5149 0 1
13.6323 0 1
13.7497 0 1
13.8671 0 1
13.9845 0 1
14.1019 0 1
14.2193 0 1
14.3367 0 1
14.4541 0 1
14.5714 0 1
14.6888 0 1
14.8062 0 1
14.9235 0 1
15.0408 1129 33.6006
15.1581 1177 34.3074
15.2755 1246 35.2987
15.3927 1199 34.6266
15.51 1197 34.5977
15.6273 1203 34.6843
15.7445 1152 33.9411
15.8617 1193 34.5398
15.9789 1154 33.9706
16.0961 1094 33.0757
16.2132 1132 33.6452
16.3304 1179 34.3366
16.4475 1115 33.3916
16.5646 1154 33.9706
16.6816 1160 34.0588
16.7986 1096 33.1059
16.9156 1185 34.4238
17.0326 1158 34.0294
17.1496 1151 33.9264
17.2665 1117 33.4215
17.3833 1165 34.1321
17.5002 1237 35.171
17.617 1226 35.0143
17.7338 1249 35.3412
17.8505 1263 35.5387
17.9672 1343 36.647
18.0839 1360 36.8782
18.2005 1408 37.5233
18.3171 1458 38.1838
18.4337 1544 39.2938
18.5502 1478 38.4448
18.6666 1467 38.3014
18.7831 1472 38.3667
18.8994 1406 37.4967
19.0158 1377 37.108
19.1321 1332 36.4966
19.2483 1287 35.8748
19.3645 1293 35.9583
19.4806 1216 34.8712
19.5967 1201 34.6554
19.7128 1191 34.5109
19.8288 1089 33
19.9447 1046 32.3419
20.0606 0 1
20.1764 0 1
20.2922 0 1
20.4079 0 1
20.5236 0 1
20.6392 0 1
20.7548 0 1
20.8702 0 1
23.3078 0 1
23.4233 0 1
23.539 0 1
23.6547 0 1
23.7704 0 1
23.8862 0 1
24.0021 0 1
24.118 0 1
24.234 0 1
24.35 0 1
24.4661 1171 34.2199
24.5822 1185 34.4238
24.6984 1216 34.8712
24.8146 1196 34.5832
24.9309 1163 34.1028
25.0472 1173 34.2491
25.1636 1181 34.3657
25.28 1176 34.2929
25.3965 1184 34.4093
25.513 1245 35.2846
25.6296 1297 36.0139
25.7462 1345 36.6742
25.8628 1309 36.1801
25.9795 1349 36.7287
26.0962 1338 36.5787
26.213 1346 36.6879
26.3298 1330 36.4692
26.4466 1320 36.3318
26.5635 1406 37.4967
26.6804 1420 37.6829
26.7973 1392 37.3095
26.9143 1467 38.3014
27.0313 1427 37.7757
27.1483 1470 38.3406
27.2653 1423 37.7227
27.3824 1457 38.1707
27.4996 1410 37.55
27.6167 1325 36.4005
27.7339 1242 35.242
27.8511 1217 34.8855
27.9683 1187 34.4529
28.0855 1131 33.6303
28.2028 1135 33.6898
28.3201 1181 34.3657
28.4374 1143 33.8083
28.5547 1155 33.9853
28.6721 1153 33.9559
28.7894 1175 34.2783
28.9068 1194 34.5543
29.0242 1221 34.9428
29.1416 1191 34.5109
29.259 1179 34.3366
29.3764 1180 34.3511
29.4939 1222 34.9571
29.6113 1182 34.3802
29.7288 1125 33.541
29.8463 1273 35.6791
29.9638 1326 36.4143
30.0812 1299 36.0416
30.1987 1368 36.9865
30.3162 1333 36.5103
30.4337 1429 37.8021
30.5512 1336 36.5513
30.6687 1356 36.8239
30.7862 1361 36.8917
30.9037 1350 36.7423
31.0212 1293 35.9583
31.1387 1225 35
31.2562 1236 35.1568
31.3737 1201 34.6554
31.4912 1185 34.4238
31.6087 1137 33.7194
31.7262 1167 34.1614
31.8436 1163 34.1028
31.9611 1058 32.5269
32.0785 1153 33.9559
32.1959 1116 33.4066
32.3134 1110 33.3167
32.4308 1262 35.5246
32.5482 1118 33.4365
32.6655 1098 33.1361
32.7829 1185 34.4238
32.9002 1139 33.7491
33.0176 1153 33.9559
33.1349 1228 35.0428
33.2522 1204 34.6987
33.3694 1231 35.0856
33.4867 1210 34.7851
33.6039 1296 36
33.7211 1237 35.171
33.8383 1354 36.7967
33.9554 1361 36.8917
34.0725 1275 35.7071
34.1896 1355 36.8103
34.3067 1255 35.426
34.4237 1197 34.5977
34.5407 1272 35.6651
34.6577 1172 34.2345
34.7746 1149 33.8969
34.8915 1141 33.7787
35.0084 1066 32.6497
35.1252 1124 33.5261
35.242 1092 33.0454
35.3587 1052 32.4345
35.4755 1057 32.5115
35.5921 1096 33.1059
35.7088 1101 33.1813
35.8254 1150 33.9116
35.9419 1155 33.9853
36.0584 1169 34.1906
36.1749 1152 33.9411
36.2913 1177 34.3074
36.4077 1154 33.9706
36.524 1079 32.8481
36.6403 1107 33.2716
36.7565 1116 33.4066
36.8727 1105 33.2415
36.9889 1076 32.8024
37.1049 1129 33.6006
37.221 0 1
37.3369 0 1
37.4529 0 1
37.5687 0 1
37.6845 0 1
37.8003 0 1
37.916 0 1
38.0316 0 1
38.1472 0 1
40.5851 0 1
40.7008 0 1
40.8164 0 1
40.9322 0 1
41.048 0 1
41.1639 0 1
41.2798 0 1
41.3958 0 1
41.5118 0 1
41.6279 0 1
41.744 899 29.9833
41.8602 936 30.5941
41.9765 985 31.3847
42.0928 993 31.5119
42.2091 1011 31.7962
42.3255 973 31.1929
42.4419 980 31.305
42.5584 1028 32.0624
42.675 1076 32.8024
42.7915 1110 33.3167
42.9081 1078 32.8329
43.0248 1021 31.9531
43.1415 1052 32.4345
43.2582 1136 33.7046
43.375 1093 33.0606
43.4918 1028 32.0624
43.6087 1111 33.3317
43.7256 1105 33.2415
43.8425 1041 32.2645
43.9595 1010 31.7805
44.0765 959 30.9677
44.1935 938 30.6268
44.3106 1002 31.6544
44.4277 1019 31.9218
44.5448 1000 31.6228
44.6619 1004 31.686
44.7791 976 31.241
44.8963 918 30.2985
45.0136 935 30.5778
45.1308 908 30.133
45.2481 933 30.545
45.3654 921 30.348
45.4827 893 29.8831
45.6001 853 29.2062
45.7174 849 29.1376
45.8348 816 28.5657
45.9522 846 29.0861
46.0697 779 27.9106
46.1871 827 28.7576
46.3046 814 28.5307
46.422 795 28.1957
46.5395 764 27.6405
46.657 766 27.6767
46.7745 765 27.6586
46.892 811 28.4781
47.0096 810 28.4605
47.1271 775 27.8388
47.2446 764 27.6405
47.3622 794 28.178
47.4797 713 26.7021
47.5973 730 27.0185
47.7149 729 27
47.8324 772 27.7849
47.95 734 27.0924
48.0675 726 26.9444
48.1851 653 25.5539
48.3027 640 25.2982
48.4202 653 25.5539
48.5378 640 25.2982
48.6554 650 25.4951
48.7729 678 26.0384
48.8904 659 25.671
49.008 650 25.4951
49.1255 632 25.1396
49.243 639 25.2784
49.3605 596 24.4131
49.478 619 24.8797
49.5955 625 25
49.713 648 25.4558
49.8304 628 25.0599
49.9479 651 25.5147
50.0653 694 26.3439
50.1827 735 27.1109
50.3001 659 25.671
50.4175 723 26.8887
50.5348 675 25.9808
50.6521 789 28.0891
50.7694 763 27.6225
50.8867 741 27.2213
51.004 737 27.1477
51.1212 810 28.4605
51.2384 859 29.3087
51.3556 880 29.6648
51.4727 821 28.6531
51.5899 870 29.4958
51.707 868 29.4618
51.824 856 29.2575
51.9411 854 29.2233
52.0581 856 29.2575
52.175 847 29.1033
52.2919 799 28.2666
52.4088 856 29.2575
52.5257 831 28.8271
52.6425 868 29.4618
52.7593 799 28.2666
52.876 875 29.5804
52.9927 830 28.8097
53.1094 838 28.9482
53.226 850 29.1548
53.3426 931 30.5123
53.4591 939 30.6431
53.5756 951 30.8383
53.692 978 31.273
53.8084 986 31.4006
53.9248 1045 32.3265
54.0411 997 31.5753
54.1573 1012 31.8119
54.2735 0 1
54.3896 0 1
54.5057 0 1
54.6217 0 1
54.7377 0 1
54.8537 0 1
54.9695 0 1
55.0853 0 1
55.2011 0 1
55.3168 0 1
55.4324 0 1
57.824 0 1
57.9396 0 1
58.0553 0 1
58.1711 0 1
58.2869 0 1
58.4028 0 1
58.5187 0 1
58.6347 0 1
58.7508 0 1
58.8669 0 1
58.983 1102 33.1964
59.0992 1226 35.0143
59.2155 1185 34.4238
59.3318 1202 34.6699
59.4482 1225 35
59.5646 1277 35.7351
59.681 1380 37.1484
59.7975 1346 36.6879
59.9141 1420 37.6829
60.0306 1344 36.6606
60.1473 1272 35.6651
60.2639 1225 35
60.3807 1207 34.7419
60.4974 1213 34.8281
60.6142 1188 34.4674
60.731 1091 33.0303
60.8479 1063 32.6037
60.9648 1015 31.8591
61.0818 991 31.4802
61.1987 999 31.607
61.3158 1081 32.8786
61.4328 983 31.3528
61.5499 1057 32.5115
61.667 1081 32.8786
61.7841 1072 32.7414
61.9013 1058 32.5269
62.0185 1066 32.6497
62.1357 1057 32.5115
62.253 1050 32.4037
62.3702 1174 34.2637
62.4875 1129 33.6006
62.6049 1134 33.6749
62.7222 1081 32.8786
62.8396 1176 34.2929
62.9569 1262 35.5246
63.0743 1219 34.9142
63.1918 1228 35.0428
63.3092 1326 36.4143
63.4267 1291 35.9305
63.5441 1335 36.5377
63.6616 1252 35.3836
63.7791 1222 34.9571
63.8966 1177 34.3074
64.0142 1089 33
64.1317 1050 32.4037
64.2492 979 31.289
64.3668 1004 31.686
64.4843 952 30.8545
64.6019 850 29.1548
64.7195 884 29.7321
64.837 957 30.9354
64.9546 918 30.2985
65.0722 1002 31.6544
65.1898 967 31.0966
65.3074 1013 31.8277
65.4249 898 29.9666
65.5425 963 31.0322
65.6601 1000 31.6228
65.7777 1073 32.7567
65.8952 1031 32.1092
66.0128 1077 32.8177
66.1304 1114 33.3766
66.2479 1111 33.3317
66.3655 1076 32.8024
66.483 1200 34.641
66.6005 1250 35.3553
66.718 1182 34.3802
66.8355 1285 35.8469
66.953 1262 35.5246
67.0705 1284 35.8329
67.1879 1237 35.171
67.3054 1184 34.4093
67.4228 1136 33.7046
67.5402 1005 31.7017
67.6576 1025 32.0156
67.7749 903 30.05
67.8923 922 30.3645
68.0096 912 30.1993
68.1269 871 29.5127
68.2442 958 30.9516
68.3614 876 29.5973
68.4787 913 30.2159
68.5958 894 29.8998
68.713 1035 32.1714
68.8302 1049 32.3883
68.9473 1026 32.0312
69.0643 975 31.225
69.1814 964 31.0483
69.2984 1004 31.686
69.4154 1067 32.665
69.5323 1071 32.7261
69.6492 1074 32.7719
69.7661 1139 33.7491
69.8829 1197 34.5977
69.9997 1256 35.4401
70.1165 1249 35.3412
70.2332 1280 35.7771
70.3499 1269 35.623
70.4665 1332 36.4966
70.5831 1284 35.8329
70.6996 1350 36.7423
70.8161 1300 36.0555
70.9326 1220 34.9285
71.049 1103 33.2114
71.1653 1022 31.9687
71.2817 966 31.0805
71.3979 967 31.0966
71.5141 847 29.1033
71.6303 880 29.6648
71.7464 806 28.3901
71.8624 0 1
71.9784 0 1
72.0944 0 1
72.2102 0 1
72.3261 0 1
72.4418 0 1
72.5575 0 1
72.6732 0 1
75.1054 0 1
75.2209 0 1
75.3365 0 1
75.4521 0 1
75.5678 0 1
75.6835 0 1
75.7993 0 1
75.9151 0 1
76.031 0 1
76.147 1191 34.5109
76.263 1183 34.3948
76.3791 1044 32.311
76.4952 1030 32.0936
76.6113 963 31.0322
76.7276 1066 32.6497
76.8438 999 31.607
76.9601 983 31.3528
77.0765 1015 31.8591
77.1929 1006 31.7175
77.3093 1001 31.6386
77.4258 1021 31.9531
77.5423 1023 31.9844
77.6589 1084 32.9242
77.7755 1095 33.0908
77.8921 1019 31.9218
78.0088 1016 31.8748
78.1256 972 31.1769
78.2423 1073 32.7567
78.3591 1085 32.9393
78.4759 1145 33.8378
78.5928 1198 34.6121
78.7097 1211 34.7994
78.8266 1171 34.2199
78.9436 1242 35.242
79.0606 1269 35.623
79.1776 1258 35.4683
79.2946 1282 35.805
79.4117 1354 36.7967
79.5288 1381 37.1618
79.6459 1323 36.3731
79.7631 1283 35.819
79.8802 1201 34.6554
79.9974 1184 34.4093
80.1147 1064 32.619
80.2319 1022 31.9687
80.3491 991 31.4802
80.4664 994 31.5278
80.5837 980 31.305
80.701 933 30.545
80.8183 1018 31.9061
80.9357 1022 31.9687
81.053 1041 32.2645
81.1704 1063 32.6037
81.2877 1032 32.1248
81.4051 1148 33.8821
81.5225 1043 32.2955
81.6399 936 30.5941
81.7573 1011 31.7962
81.8747 1071 32.7261
81.9922 1066 32.6497
82.1096 1160 34.0588
82.227 1205 34.7131
82.3444 1263 35.5387
82.4619 1307 36.1525
82.5793 1256 35.4401
82.6967 1340 36.606
82.8142 1298 36.0278
82.9316 1356 36.8239
83.049 1368 36.9865
83.1664 1379 37.1349
83.2838 1356 36.8239
83.4012 1191 34.5109
83.5186 1186 34.4384
83.636 1100 33.1662
83.7534 1114 33.3766
83.8708 1054 32.4654
83.9881 1030 32.0936
84.1055 1004 31.686
84.2228 1027 32.0468
84.3401 1052 32.4345
84.4575 1048 32.3728
84.5747 1007 31.7333
84.692 1092 33.0454
84.8093 1148 33.8821
84.9265 1157 34.0147
85.0437 1141 33.7787
85.1609 1062 32.5883
85.2781 1069 32.6956
85.3952 1086 32.9545
85.5123 1107 33.2716
85.6294 1167 34.1614
85.7465 1188 34.4674
85.8636 1301 36.0694
85.9806 1389 37.2693
86.0976 1392 37.3095
86.2145 1388 37.2559
86.3315 1405 37.4833
86.4484 1395 37.3497
86.5652 1472 38.3667
86.682 1436 37.8946
86.7988 1481 38.4838
86.9156 1399 37.4032
87.0323 1273 35.6791
87.149 1227 35.0286
87.2657 1180 34.3511
87.3823 1110 33.3167
87.4988 1134 33.6749
87.6154 1186 34.4384
87.7318 1171 34.2199
87.8483 1139 33.7491
87.9647 1162 34.0881
88.081 1118 33.4365
88.1973 1143 33.8083
88.3136 1164 34.1174
88.4298 1223 34.9714
88.546 1202 34.6699
88.6621 1074 32.7719
88.7781 1038 32.218
88.8942 0 1
89.0101 0 1
89.126 0 1
89.2419 0 1
89.3577 0 1
89.4734 0 1
89.5891 0 1
89.7047 0 1
89.8203 0 1
89.9358 0 1
92.3269 0 1
92.4424 0 1
92.558 0 1
92.6736 0 1
92.7893 0 1
92.905 0 1
93.0208 0 1
93.1366 0 1
93.2525 0 1
93.3685 0 1
93.4845 0 1
93.6005 1078 32.8329
93.7167 1099 33.1512
93.8328 1121 33.4813
93.949 1100 33.1662
94.0653 1038 32.218
94.1816 1059 32.5423
94.2979 1114 33.3766
94.4143 1109 33.3017
94.5307 1191 34.5109
94.6472 1211 34.7994
94.7637 1178 34.322
94.8803 1320 36.3318
94.9969 1348 36.7151
95.1135 1332 36.4966
95.2302 1414 37.6032
95.3469 1352 36.7696
95.4637 1410 37.55
95.5805 1476 38.4187
95.6973 1382 37.1753
95.8142 1370 37.0135
95.9311 1344 36.6606
96.048 1235 35.1426
96.1649 1197 34.5977
96.2819 1227 35.0286
96.3989 1111 33.3317
96.516 1141 33.7787
96.633 1092 33.0454
96.7501 1091 33.0303
96.8673 1148 33.8821
96.9844 1057 32.5115
97.1016 1120 33.4664
97.2188 1125 33.541
97.336 1143 33.8083
97.4532 1207 34.7419
97.5704 1100 33.1662
97.6877 1056 32.4962
97.805 1007 31.7333
97.9223 1072 32.7414
98.0396 1081 32.8786
98.1569 1070 32.7109
98.2743 1140 33.7639
98.3916 1233 35.1141
98.509 1207 34.7419
98.6264 1199 34.6266
98.7438 1273 35.6791
98.8612 1375 37.081
98.9786 1306 36.1386
99.096 1386 37.229
99.2134 1393 37.3229
99.3308 1392 37.3095
99.4482 1372 37.0405
99.5656 1298 36.0278
99.6831 1275 35.7071
99.8005 1213 34.8281
99.9179 1147 33.8674
100.035 1171 34.2199
100.153 1110 33.3167
100.27 1096 33.1059
100.388 1058 32.5269
100.505 996 31.5595
100.622 1115 33.3916
100.74 1070 32.7109
100.857 1063 32.6037
100.975 1109 33.3017
101.092 1084 32.9242
101.209 1133 33.6601
101.327 1040 32.249
101.444 1073 32.7567
101.561 1020 31.9374
101.679 1069 32.6956
101.796 1101 33.1813
101.913 1224 34.9857
102.03 1288 35.8887
102.148 1305 36.1248
102.265 1322 36.3593
102.382 1513 38.8973
102.499 1382 37.1753
102.616 1422 37.7094
102.733 1459 38.1969
102.851 1474 38.3927
102.968 1449 38.0657
103.085 1433 37.855
103.202 1298 36.0278
103.319 1279 35.7631
103.436 1346 36.6879
103.552 1251 35.3695
103.669 1191 34.5109
103.786 1078 32.8329
103.903 1174 34.2637
104.02 1196 34.5832
104.137 1135 33.6898
104.253 1161 34.0735
104.37 1168 34.176
104.487 1195 34.5688
104.603 1178 34.322
104.72 1100 33.1662
104.836 1102 33.1964
104.953 1165 34.1321
105.069 1105 33.2415
105.186 1106 33.2566
105.302 1214 34.8425
105.418 1294 35.9722
105.535 1343 36.647
105.651 1453 38.1182
105.767 1393 37.3229
105.883 1351 36.756
105.999 1324 36.3868
106.115 0 1
106.231 0 1
106.347 0 1
106.463 0 1
106.579 0 1
106.694 0 1
106.81 0 1
106.926 0 1
107.041 0 1
107.157 0 1
109.576 0 1
109.692 0 1
109.807 0 1
109.923 0 1
110.039 0 1
110.155 0 1
110.27 0 1
110.386 0 1
110.502 0 1
110.618 1147 33.8674
110.735 1249 35.3412
110.851 1313 36.2353
110.967 1252 35.3836
111.083 1199 34.6266
111.199 1244 35.2704
111.316 1311 36.2077
111.432 1331 36.4829
111.549 1334 36.524
111.665 1343 36.647
111.782 1294 35.9722
111.898 1209 34.7707
112.015 1132 33.6452
112.132 1151 33.9264
112.248 1073 32.7567
112.365 1000 31.6228
112.482 1058 32.5269
112.599 991 31.4802
112.716 1039 32.2335
112.832 972 31.1769
112.949 984 31.3688
113.066 936 30.5941
113.183 910 30.1662
113.3 893 29.8831
113.417 934 30.5614
113.534 830 28.8097
113.652 903 30.05
113.769 911 30.1828
113.886 925 30.4138
114.003 913 30.2159
114.12 1008 31.749
114.238 964 31.0483
114.355 1060 32.5576
114.472 1008 31.749
114.589 1013 31.8277
114.707 990 31.4643
114.824 1061 32.573
114.942 1033 32.1403
115.059 1089 33
115.176 983 31.3528
115.294 1034 32.1559
115.411 894 29.8998
115.529 905 30.0832
115.646 867 29.4449
115.764 892 29.8664
115.881 910 30.1662
115.999 822 28.6705
116.116 767 27.6948
116.234 797 28.2312
116.351 783 27.9821
116.469 762 27.6043
116.586 758 27.5318
116.704 727 26.9629
116.821 776 27.8568
116.939 749 27.3679
117.056 722 26.8701
117.174 776 27.8568
117.291 833 28.8617
117.409 818 28.6007
117.526 845 29.0689
117.644 819 28.6182
117.761 858 29.2916
117.879 798 28.2489
117.996 834 28.8791
118.114 760 27.5681
118.231 727 26.9629
118.349 821 28.6531
118.466 842 29.0172
118.584 879 29.6479
118.701 909 30.1496
118.819 921 30.348
118.936 926 30.4302
119.053 917 30.282
119.171 865 29.4109
119.288 871 29.5127
119.405 870 29.4958
119.523 882 29.6985
119.64 796 28.2135
119.757 773 27.8029
119.875 742 27.2397
119.992 749 27.3679
120.109 734 27.0924
120.226 738 27.1662
120.343 750 27.3861
120.46 729 27
120.578 738 27.1662
120.695 753 27.4408
120.812 784 28
120.929 868 29.4618
121.046 910 30.1662
121.163 862 29.3598
121.279 906 30.0998
121.396 934 30.5614
121.513 975 31.225
121.63 983 31.3528
121.747 892 29.8664
121.863 772 27.7849
121.98 903 30.05
122.097 940 30.6594
122.213 975 31.225
122.33 944 30.7246
122.446 1025 32.0156
122.563 1069 32.6956
122.679 1041 32.2645
122.795 1076 32.8024
122.912 1009 31.7648
123.028 972 31.1769
123.144 955 30.9031
123.26 998 31.5911
123.377 0 1
123.493 0 1
123.609 0 1
123.725 0 1
123.84 0 1
123.956 0 1
124.072 0 1
124.188 0 1
124.303 0 1
124.419 0 1
126.852 0 1
126.968 0 1
127.083 0 1
127.199 0 1
127.315 0 1
127.431 0 1
127.547 0 1
127.663 0 1
127.779 0 1
127.895 0 1
128.011 0 1
128.127 0 1
128.243 0 1
128.359 1161 34.0735
128.476 1145 33.8378
128.592 1157 34.0147
128.708 1039 32.2335
128.825 1051 32.4191
128.941 1026 32.0312
129.058 1003 31.6702
129.174 992 31.496
129.291 962 31.0161
129.408 942 30.692
129.524 947 30.7734
129.641 926 30.4302
129.758 956 30.9192
129.875 998 31.5911
129.992 1029 32.078
130.108 1014 31.8434
130.225 969 31.1288
130.342 1017 31.8904
130.459 985 31.3847
130.576 1020 31.9374
130.693 876 29.5973
130.81 756 27.4955
130.928 759 27.55
131.045 911 30.1828
131.162 999 31.607
131.279 991 31.4802
131.396 1038 32.218
131.513 1037 32.2025
131.631 1084 32.9242
131.748 1048 32.3728
131.865 1019 31.9218
131.983 1008 31.749
132.1 901 30.0167
132.217 978 31.273
132.335 933 30.545
132.452 900 30
132.57 883 29.7153
132.687 806 28.3901
132.804 920 30.3315
132.922 856 29.2575
133.039 872 29.5296
133.157 802 28.3196
133.274 784 28
133.392 890 29.8329
133.509 878 29.6311
133.627 851 29.1719
133.744 855 29.2404
133.862 858 29.2916
133.979 827 28.7576
134.097 860 29.3258
134.214 710 26.6458
134.332 580 24.0832
134.449 622 24.9399
134.567 726 26.9444
134.684 784 28
134.802 858 29.2916
134.919 848 29.1204
135.037 870 29.4958
135.154 798 28.2489
135.272 847 29.1033
135.389 810 28.4605
135.507 841 29
135.624 776 27.8568
135.742 786 28.0357
135.859 775 27.8388
135.977 789 28.0891
136.094 760 27.5681
136.211 704 26.533
136.329 743 27.258
136.446 742 27.2397
136.564 665 25.7876
136.681 662 25.7294
136.798 694 26.3439
136.915 657 25.632
137.033 676 26
137.15 691 26.2869
137.267 611 24.7184
137.384 639 25.2784
137.502 700 26.4575
137.619 647 25.4362
137.736 586 24.2074
137.853 506 22.4944
137.97 487 22.0681
138.087 508 22.5389
138.204 661 25.7099
138.321 656 25.6125
138.438 720 26.8328
138.555 740 27.2029
138.672 745 27.2947
138.788 741 27.2213
138.905 765 27.6586
139.022 781 27.9464
139.139 756 27.4955
139.255 753 27.4408
139.372 808 28.4253
139.488 772 27.7849
139.605 756 27.4955
139.721 769 27.7308
139.838 815 28.5482
139.954 739 27.1846
140.071 813 28.5132
140.187 762 27.6043
140.303 726 26.9444
140.419 774 27.8209
140.535 763 27.6225
140.652 736 27.1293
140.768 0 1
140.884 0 1
141 0 1
141.115 0 1
141.231 0 1
141.347 0 1
141.463 0 1
141.578 0 1
141.694 0 1
144.104 0 1
144.219 0 1
144.335 0 1
144.45 0 1
144.566 0 1
144.682 0 1
144.798 0 1
144.914 0 1
145.03 0 1
145.146 630 25.0998
145.262 665 25.7876
145.378 643 25.3574
145.494 636 25.219
145.61 638 25.2587
145.726 571 23.8956
145.842 565 23.7697
145.959 579 24.0624
146.075 610 24.6982
146.192 557 23.6008
146.308 578 24.0416
146.425 547 23.388
146.541 509 22.561
146.658 463 21.5174
146.774 443 21.0476
146.891 517 22.7376
147.008 501 22.383
147.125 531 23.0434
147.241 552 23.4947
147.358 537 23.1733
147.475 538 23.1948
147.592 547 23.388
147.709 506 22.4944
147.826 523 22.8692
147.943 513 22.6495
148.06 506 22.4944
148.177 489 22.1133
148.294 475 21.7945
148.411 488 22.0907
148.528 509 22.561
148.645 469 21.6564
148.762 459 21.4243
148.88 465 21.5639
148.997 460 21.4476
149.114 404 20.0998
149.231 400 20
149.349 417 20.4206
149.466 474 21.7715
149.583 420 20.4939
149.701 424 20.5913
149.818 441 21
149.935 442 21.0238
150.053 431 20.7605
150.17 413 20.3224
150.287 403 20.0749
150.405 421 20.5183
150.522 420 20.4939
150.64 441 21
150.757 408 20.199
150.875 476 21.8174
150.992 454 21.3073
151.11 428 20.6882
151.227 490 22.1359
151.344 481 21.9317
151.462 509 22.561
151.579 448 21.166
151.697 487 22.0681
151.814 474 21.7715
151.932 489 22.1133
152.049 458 21.4009
152.167 434 20.8327
152.284 483 21.9773
152.402 485 22.0227
152.519 441 21
152.636 475 21.7945
152.754 448 21.166
152.871 460 21.4476
152.989 443 21.0476
153.106 461 21.4709
153.223 438 20.9284
153.341 489 22.1133
153.458 433 20.8087
153.575 443 21.0476
153.693 427 20.664
153.81 451 21.2368
153.927 523 22.8692
154.044 538 23.1948
154.162 524 22.891
154.279 522 22.8473
154.396 594 24.3721
154.513 552 23.4947
154.63 610 24.6982
154.747 623 24.96
154.864 594 24.3721
154.981 553 23.516
155.098 678 26.0384
155.215 618 24.8596
155.332 637 25.2389
155.449 608 24.6577
155.566 620 24.8998
155.683 548 23.4094
155.8 552 23.4947
155.917 550 23.4521
156.033 524 22.891
156.15 0 1
156.267 0 1
156.383 0 1
156.5 0 1
156.617 0 1
156.733 0 1
156.85 0 1
156.966 0 1
157.082 0 1
157.199 0 1
157.315 0 1
157.431 0 1
157.547 0 1
157.664 0 1
157.78 0 1
157.896 0 1
158.012 0 1
158.128 0 1
158.244 0 1
158.359 0 1
158.475 0 1
158.591 0 1
158.706 0 1
