
6.15755 0 1
6.2731 0 1
6.3887 0 1
6.50437 0 1
6.62009 0 1
6.73587 0 1
6.8517 0 1
6.96759 0 1
7.08353 0 1
7.19952 0 1
7.31557 0 1
7.43166 0 1
7.54781 0 1
7.664 0 1
7.78024 0 1
7.89653 0 1
8.01286 0 1
8.12924 0 1
8.24567 0 1
8.36213 0 1
8.47864 0 1
8.59519 0 1
8.71178 0 1
8.82841 0 1
8.94508 0 1
9.06179 0 1
9.17853 0 1
9.29531 0 1
9.41212 0 1
9.52897 0 1
9.64584 0 1
9.76276 0 1
9.8797 0 1
9.99667 0 1
10.1137 0 1
10.2307 0 1
10.3478 0 1
10.4648 0 1
10.5819 0 1
10.6991 0 1
10.8162 0 1
10.9334 0 1
11.0506 0 1
11.1678 0 1
11.285 0 1
11.4023 0 1
11.5196 0 1
11.6369 0 1
11.7542 0 1
11.8715 0 1
11.9888 0 1
12.1062 0 1
12.2235 0 1
12.3409 0 1
12.4582 0 1
12.5756 0 1
12.693 0 1
12.8104 0 1
12.9278 0 1
13.0452 0 1
13.1626 0 1
13.28 0 1
13.3974 0 1
13.5149 0 1
13.6323 0 1
13.7497 0 1
13.8671 0 1
13.9845 0 1
14.1019 0 1
14.2193 0 1
14.3367 0 1
14.4541 0 1
14.5714 0 1
14.6888 0 1
14.8062 0 1
14.9235 0 1
15.0408 0 0
15.1581 0 0
15.2755 0 0
15.3927 0 0
15.51 0 0
15.6273 0 0
15.7445 0 0
15.8617 0 0
15.9789 0 0
16.0961 0 0
16.2132 0 0
16.3304 0 0
16.4475 0 0
16.5646 0 0
16.6816 0 0
16.7986 0 0
16.9156 0 0
17.0326 0 0
17.1496 0 0
17.2665 0 0
17.3833 0 0
17.5002 0 0
17.617 0 0
17.7338 0 0
17.8505 0 0
17.9672 0 0
18.0839 0 0
18.2005 0 0
18.3171 0 0
18.4337 0 0
18.5502 0 0
18.6666 0 0
18.7831 0 0
18.8994 0 0
19.0158 0 0
19.1321 0 0
19.2483 0 0
19.3645 0 0
19.4806 0 0
19.5967 0 0
19.7128 0 0
19.8288 0 0
19.9447 0 0
20.0606 0 1
20.1764 0 1
20.2922 0 1
20.4079 0 1
20.5236 0 1
20.6392 0 1
20.7548 0 1
20.8702 0 1
23.3078 0 1
23.4233 0 1
23.539 0 1
23.6547 0 1
23.7704 0 1
23.8862 0 1
24.0021 0 1
24.118 0 1
24.234 0 1
24.35 0 1
24.4661 2871 53.5817
24.5822 2837 53.2635
24.6984 2791 52.8299
24.8146 2722 52.1728
24.9309 2701 51.9711
25.0472 2669 51.6624
25.1636 2662 51.5946
25.28 2696 51.923
25.3965 2767 52.6023
25.513 2889 53.7494
25.6296 2966 54.461
25.7462 3042 55.1543
25.8628 2994 54.7175
25.9795 3003 54.7996
26.0962 2997 54.7449
26.213 3004 54.8088
26.3298 3014 54.8999
26.4466 2816 53.066
26.5635 2717 52.1249
26.6804 2766 52.5928
26.7973 2763 52.5642
26.9143 2818 53.0848
27.0313 2821 53.1131
27.1483 2992 54.6992
27.2653 3016 54.9181
27.3824 3118 55.8391
27.4996 3085 55.5428
27.6167 3075 55.4527
27.7339 2956 54.3691
27.8511 2918 54.0185
27.9683 2902 53.8702
28.0855 2865 53.5257
28.2028 2825 53.1507
28.3201 2650 51.4782
28.4374 2635 51.3323
28.5547 2468 49.679
28.6721 2500 50
28.7894 2514 50.1398
28.9068 2568 50.6754
29.0242 2667 51.643
29.1416 2640 51.3809
29.259 2681 51.7784
29.3764 2604 51.0294
29.4939 2672 51.6914
29.6113 2630 51.2835
29.7288 2658 51.5558
29.8463 2798 52.8961
29.9638 2569 50.6853
30.0812 2535 50.3488
30.1987 2449 49.4874
30.3162 2526 50.2593
30.4337 2546 50.4579
30.5512 2628 51.264
30.6687 2716 52.1153
30.7862 2826 53.1601
30.9037 2816 53.066
31.0212 2849 53.376
31.1387 2931 54.1387
31.2562 2787 52.792
31.3737 2815 53.0566
31.4912 2711 52.0673
31.6087 2779 52.7162
31.7262 2588 50.8724
31.8436 2674 51.7107
31.9611 2536 50.3587
32.0785 2460 49.5984
32.1959 2457 49.5681
32.3134 2388 48.8672
32.4308 2462 49.6185
32.5482 2477 49.7695
32.6655 2648 51.4587
32.7829 2581 50.8035
32.9002 2584 50.8331
33.0176 2647 51.449
33.1349 2577 50.7642
33.2522 2630 51.2835
33.3694 2668 51.6527
33.4867 2600 50.9902
33.6039 2514 50.1398
33.7211 2398 48.9694
33.8383 2422 49.2138
33.9554 2417 49.163
34.0725 2637 51.3517
34.1896 2645 51.4296
34.3067 2743 52.3737
34.4237 2863 53.507
34.5407 2735 52.2972
34.6577 2817 53.0754
34.7746 2793 52.8488
34.8915 2817 53.0754
35.0084 2793 52.8488
35.1252 2818 53.0848
35.242 2672 51.6914
35.3587 2656 51.5364
35.4755 2606 51.049
35.5921 2467 49.6689
35.7088 2362 48.6004
35.8254 2324 48.2079
35.9419 2335 48.3218
36.0584 2267 47.613
36.1749 2402 49.0102
36.2913 2355 48.5283
36.4077 2439 49.3862
36.524 2561 50.6063
36.6403 2443 49.4267
36.7565 2561 50.6063
36.8727 2609 51.0784
36.9889 2481 49.8096
37.1049 2431 49.3052
37.221 0 1
37.3369 0 1
37.4529 0 1
37.5687 0 1
37.6845 0 1
37.8003 0 1
37.916 0 1
38.0316 0 1
38.1472 0 1
40.5851 0 1
40.7008 0 1
40.8164 0 1
40.9322 0 1
41.048 0 1
41.1639 0 1
41.2798 0 1
41.3958 0 1
41.5118 0 1
41.6279 0 1
41.744 1929 43.9204
41.8602 2051 45.288
41.9765 2033 45.0888
42.0928 2106 45.8912
42.2091 2104 45.8694
42.3255 2024 44.9889
42.4419 2003 44.7549
42.5584 1896 43.5431
42.675 1914 43.7493
42.7915 1971 44.3959
42.9081 2150 46.3681
43.0248 2058 45.3652
43.1415 2184 46.7333
43.2582 2178 46.669
43.375 2211 47.0213
43.4918 2308 48.0416
43.6087 2306 48.0208
43.7256 2286 47.8121
43.8425 2183 46.7226
43.9595 2173 46.6154
44.0765 2165 46.5296
44.1935 2172 46.6047
44.3106 2011 44.8442
44.4277 1894 43.5201
44.5448 1794 42.3556
44.6619 1651 40.6325
44.7791 1763 41.9881
44.8963 1733 41.6293
45.0136 1729 41.5812
45.1308 1869 43.2319
45.2481 1825 42.72
45.3654 1825 42.72
45.4827 1853 43.0465
45.6001 1832 42.8019
45.7174 1860 43.1277
45.8348 1818 42.638
45.9522 1671 40.8779
46.0697 1677 40.9512
46.1871 1600 40
46.3046 1607 40.0874
46.422 1686 41.0609
46.5395 1790 42.3084
46.657 1780 42.19
46.7745 1818 42.638
46.892 1878 43.3359
47.0096 1821 42.6732
47.1271 1787 42.2729
47.2446 1774 42.1189
47.3622 1859 43.1161
47.4797 1743 41.7493
47.5973 1709 41.3401
47.7149 1641 40.5093
47.8324 1639 40.4846
47.95 1587 39.8372
48.0675 1486 38.5487
48.1851 1332 36.4966
48.3027 1369 37
48.4202 1380 37.1484
48.5378 1350 36.7423
48.6554 1367 36.973
48.7729 1573 39.6611
48.8904 1527 39.0768
49.008 1530 39.1152
49.1255 1498 38.704
49.243 1531 39.128
49.3605 1419 37.6696
49.478 1372 37.0405
49.5955 1369 37
49.713 1325 36.4005
49.8304 1419 37.6696
49.9479 1494 38.6523
50.0653 1612 40.1497
50.1827 1789 42.2966
50.3001 1706 41.3038
50.4175 1827 42.7434
50.5348 1857 43.0929
50.6521 1961 44.2832
50.7694 1936 44
50.8867 2097 45.793
51.004 2132 46.1736
51.1212 2125 46.0977
51.2384 2056 45.3431
51.3556 1974 44.4297
51.4727 1981 44.5084
51.5899 1791 42.3202
51.707 1732 41.6173
51.824 1711 41.3642
51.9411 1807 42.5088
52.0581 1839 42.8836
52.175 1959 44.2606
52.2919 2032 45.0777
52.4088 2114 45.9783
52.5257 2121 46.0543
52.6425 2053 45.31
52.7593 2114 45.9783
52.876 2213 47.0425
52.9927 2072 45.5192
53.1094 2041 45.1774
53.226 1925 43.8748
53.3426 1947 44.1248
53.4591 2065 45.4423
53.5756 2306 48.0208
53.692 2379 48.775
53.8084 2431 49.3052
53.9248 2550 50.4975
54.0411 2607 51.0588
54.1573 2557 50.5668
54.2735 0 1
54.3896 0 1
54.5057 0 1
54.6217 0 1
54.7377 0 1
54.8537 0 1
54.9695 0 1
55.0853 0 1
55.2011 0 1
55.3168 0 1
55.4324 0 1
57.824 0 1
57.9396 0 1
58.0553 0 1
58.1711 0 1
58.2869 0 1
58.4028 0 1
58.5187 0 1
58.6347 0 1
58.7508 0 1
58.8669 0 1
58.983 2910 53.9444
59.0992 2943 54.2494
59.2155 2990 54.6809
59.3318 3196 56.5332
59.4482 3293 57.3847
59.5646 3097 55.6507
59.681 3184 56.4269
59.7975 3113 55.7943
59.9141 3016 54.9181
60.0306 2855 53.4322
60.1473 2745 52.3927
60.2639 2547 50.4678
60.3807 2417 49.163
60.4974 2314 48.1041
60.6142 2419 49.1833
60.731 2435 49.3457
60.8479 2534 50.3389
60.9648 2584 50.8331
61.0818 2634 51.3225
61.1987 2685 51.817
61.3158 2604 51.0294
61.4328 2549 50.4876
61.5499 2523 50.2295
61.667 2393 48.9183
61.7841 2404 49.0306
61.9013 2299 47.9479
62.0185 2414 49.1325
62.1357 2468 49.679
62.253 2638 51.3615
62.3702 2743 52.3737
62.4875 2818 53.0848
62.6049 2989 54.6717
62.7222 3003 54.7996
62.8396 2999 54.7631
62.9569 3042 55.1543
63.0743 3013 54.8908
63.1918 3039 55.1271
63.3092 2780 52.7257
63.4267 2826 53.1601
63.5441 2640 51.3809
63.6616 2524 50.2394
63.7791 2285 47.8017
63.8966 2217 47.085
64.0142 2159 46.465
64.1317 2181 46.7012
64.2492 2297 47.927
64.3668 2354 48.518
64.4843 2431 49.3052
64.6019 2413 49.1223
64.7195 2608 51.0686
64.837 2585 50.8429
64.9546 2497 49.97
65.0722 2333 48.3011
65.1898 2262 47.5605
65.3074 2288 47.833
65.4249 2093 45.7493
65.5425 2186 46.7547
65.6601 2258 47.5184
65.7777 2331 48.2804
65.8952 2401 49
66.0128 2605 51.0392
66.1304 2674 51.7107
66.2479 2825 53.1507
66.3655 2811 53.0189
66.483 2869 53.563
66.6005 2845 53.3385
66.718 2895 53.8052
66.8355 2867 53.5444
66.953 2751 52.45
67.0705 2604 51.0294
67.1879 2499 49.99
67.3054 2358 48.5592
67.4228 2190 46.7974
67.5402 2078 45.5851
67.6576 2096 45.7821
67.7749 2101 45.8367
67.8923 2216 47.0744
68.0096 2266 47.6025
68.1269 2368 48.6621
68.2442 2525 50.2494
68.3614 2530 50.2991
68.4787 2496 49.96
68.5958 2527 50.2693
68.713 2429 49.2849
68.8302 2366 48.6415
68.9473 2268 47.6235
69.0643 2148 46.3465
69.1814 2208 46.9894
69.2984 2348 48.4562
69.4154 2490 49.8999
69.5323 2603 51.0196
69.6492 2730 52.2494
69.7661 2907 53.9166
69.8829 2895 53.8052
69.9997 2963 54.4334
70.1165 3012 54.8817
70.2332 3109 55.7584
70.3499 2976 54.5527
70.4665 3088 55.5698
70.5831 2958 54.3875
70.6996 2780 52.7257
70.8161 2569 50.6853
70.9326 2429 49.2849
71.049 2250 47.4342
71.1653 2155 46.422
71.2817 2126 46.1086
71.3979 1995 44.6654
71.5141 2105 45.8803
71.6303 2152 46.3897
71.7464 2259 47.5289
71.8624 0 1
71.9784 0 1
72.0944 0 1
72.2102 0 1
72.3261 0 1
72.4418 0 1
72.5575 0 1
72.6732 0 1
75.1054 0 1
75.2209 0 1
75.3365 0 1
75.4521 0 1
75.5678 0 1
75.6835 0 1
75.7993 0 1
75.9151 0 1
76.031 0 1
76.147 2345 48.4252
76.263 2484 49.8397
76.3791 2365 48.6313
76.4952 2190 46.7974
76.6113 2128 46.1303
76.7276 2167 46.551
76.8438 2249 47.4236
76.9601 2270 47.6445
77.0765 2555 50.547
77.1929 2619 51.1762
77.3093 2704 52
77.4258 2695 51.9134
77.5423 2808 52.9906
77.6589 2632 51.303
77.7755 2440 49.3964
77.8921 2308 48.0416
78.0088 2231 47.2335
78.1256 2195 46.8508
78.2423 2203 46.9361
78.3591 2272 47.6655
78.4759 2482 49.8197
78.5928 2587 50.8626
78.7097 2777 52.6972
78.8266 3092 55.6058
78.9436 2843 53.3198
79.0606 2916 54
79.1776 3045 55.1815
79.2946 3038 55.1181
79.4117 3058 55.2992
79.5288 3002 54.7905
79.6459 2895 53.8052
79.7631 2797 52.8867
79.8802 2607 51.0588
79.9974 2439 49.3862
80.1147 2181 46.7012
80.2319 2054 45.3211
80.3491 2088 45.6946
80.4664 2140 46.2601
80.5837 2240 47.3286
80.701 2455 49.548
80.8183 2486 49.8598
80.9357 2544 50.4381
81.053 2567 50.6656
81.1704 2644 51.4198
81.2877 2443 49.4267
81.4051 2388 48.8672
81.5225 2269 47.634
81.6399 2082 45.6289
81.7573 2087 45.6837
81.8747 2113 45.9674
81.9922 2091 45.7275
82.1096 2286 47.8121
82.227 2513 50.1298
82.3444 2561 50.6063
82.4619 2754 52.4786
82.5793 2669 51.6624
82.6967 2851 53.3948
82.8142 2835 53.2447
82.9316 2917 54.0093
83.049 2692 51.8845
83.1664 2762 52.5547
83.2838 2462 49.6185
83.4012 2458 49.5782
83.5186 2296 47.9166
83.636 2115 45.9891
83.7534 1996 44.6766
83.8708 1858 43.1045
83.9881 1869 43.2319
84.1055 1913 43.7379
84.2228 2054 45.3211
84.3401 2114 45.9783
84.4575 2253 47.4658
84.5747 2544 50.4381
84.692 2545 50.448
84.8093 2538 50.3786
84.9265 2448 49.4773
85.0437 2227 47.1911
85.1609 2075 45.5522
85.2781 2113 45.9674
85.3952 2024 44.9889
85.5123 1942 44.0681
85.6294 2240 47.3286
85.7465 2382 48.8057
85.8636 2520 50.1996
85.9806 2600 50.9902
86.0976 2795 52.8678
86.2145 2986 54.6443
86.3315 2928 54.111
86.4484 3112 55.7853
86.5652 3215 56.701
86.682 3056 55.2811
86.7988 3004 54.8088
86.9156 2947 54.2863
87.0323 2766 52.5928
87.149 2499 49.99
87.2657 2442 49.4166
87.3823 2267 47.613
87.4988 2218 47.0956
87.6154 2324 48.2079
87.7318 2398 48.9694
87.8483 2639 51.3712
87.9647 2695 51.9134
88.081 2886 53.7215
88.1973 3026 55.0091
88.3136 2957 54.3783
88.4298 2923 54.0648
88.546 2626 51.2445
88.6621 2597 50.9608
88.7781 2288 47.833
88.8942 0 1
89.0101 0 1
89.126 0 1
89.2419 0 1
89.3577 0 1
89.4734 0 1
89.5891 0 1
89.7047 0 1
89.8203 0 1
89.9358 0 1
92.3269 0 1
92.4424 0 1
92.558 0 1
92.6736 0 1
92.7893 0 1
92.905 0 1
93.0208 0 1
93.1366 0 1
93.2525 0 1
93.3685 0 1
93.4845 0 1
93.6005 4002 63.2614
93.7167 4260 65.2687
93.8328 4475 66.8954
93.949 4564 67.5574
94.0653 4673 68.3593
94.1816 4522 67.2458
94.2979 4396 66.3023
94.4143 4489 67
94.5307 4668 68.3228
94.6472 4917 70.1213
94.7637 5176 71.9444
94.8803 5931 77.013
94.9969 6300 79.3725
95.1135 6812 82.5348
95.2302 7149 84.5518
95.3469 7394 85.9884
95.4637 7674 87.6014
95.5805 7935 89.0786
95.6973 8435 91.8423
95.8142 8581 92.6337
95.9311 8447 91.9076
96.048 8487 92.1249
96.1649 8459 91.9728
96.2819 8315 91.1866
96.3989 7930 89.0505
96.516 7453 86.3308
96.633 7090 84.2021
96.7501 7129 84.4334
96.8673 7415 86.1104
96.9844 7871 88.7187
97.1016 8790 93.755
97.2188 9133 95.5667
97.336 9641 98.1886
97.4532 9725 98.6154
97.5704 9635 98.158
97.6877 9360 96.7471
97.805 8720 93.3809
97.9223 7972 89.2861
98.0396 7570 87.0057
98.1569 7259 85.1998
98.2743 7188 84.7821
98.3916 7543 86.8504
98.509 8068 89.822
98.6264 8601 92.7416
98.7438 9199 95.9114
98.8612 9417 97.0412
98.9786 9577 97.8621
99.096 9788 98.9343
99.2134 9894 99.4686
99.3308 9827 99.1312
99.4482 9881 99.4032
99.5656 10004 100.02
99.6831 9672 98.3463
99.8005 9321 96.5453
99.9179 8889 94.2815
100.035 8535 92.3851
100.153 8023 89.5712
100.27 7517 86.7006
100.388 7607 87.2181
100.505 8069 89.8276
100.622 8750 93.5414
100.74 9153 95.6713
100.857 9422 97.067
100.975 9558 97.765
101.092 9343 96.6592
101.209 9350 96.6954
101.327 8951 94.6097
101.444 8078 89.8777
101.561 7460 86.3713
101.679 7198 84.841
101.796 6665 81.6395
101.913 6630 81.4248
102.03 6992 83.6182
102.148 7437 86.238
102.265 8477 92.0706
102.382 7714 87.8294
102.499 8296 91.0824
102.616 8184 90.4655
102.733 8119 90.1055
102.851 8035 89.6382
102.968 7815 88.4025
103.085 7634 87.3728
103.202 7156 84.5931
103.319 6693 81.8108
103.436 6376 79.8499
103.552 5668 75.2861
103.669 5145 71.7287
103.786 4688 68.469
103.903 4574 67.6314
104.02 4678 68.3959
104.137 4763 69.0145
104.253 4885 69.8928
104.37 4643 68.1396
104.487 4645 68.1542
104.603 4587 67.7274
104.72 4224 64.9923
104.836 3824 61.8385
104.953 3486 59.0424
105.069 3164 56.2494
105.186 3059 55.3082
105.302 2971 54.5069
105.418 3004 54.8088
105.535 3158 56.1961
105.651 3293 57.3847
105.767 3505 59.203
105.883 3635 60.291
105.999 3660 60.4979
106.115 0 1
106.231 0 1
106.347 0 1
106.463 0 1
106.579 0 1
106.694 0 1
106.81 0 1
106.926 0 1
107.041 0 1
107.157 0 1
109.576 0 1
109.692 0 1
109.807 0 1
109.923 0 1
110.039 0 1
110.155 0 1
110.27 0 1
110.386 0 1
110.502 0 1
110.618 2645 51.4296
110.735 2863 53.507
110.851 3118 55.8391
110.967 3255 57.0526
111.083 3322 57.6368
111.199 3279 57.2626
111.316 3298 57.4282
111.432 3453 58.7622
111.549 3339 57.7841
111.665 3172 56.3205
111.782 3097 55.6507
111.898 2987 54.6535
112.015 2824 53.1413
112.132 2733 52.2781
112.248 2454 49.5379
112.365 2474 49.7393
112.482 2430 49.295
112.599 2438 49.3761
112.716 2600 50.9902
112.832 2654 51.517
112.949 2754 52.4786
113.066 2839 53.2823
113.183 2697 51.9326
113.3 2599 50.9804
113.417 2523 50.2295
113.534 2353 48.5077
113.652 2276 47.7074
113.769 2251 47.4447
113.886 2190 46.7974
114.003 2316 48.1248
114.12 2437 49.366
114.238 2686 51.8266
114.355 2897 53.8238
114.472 2893 53.7866
114.589 3010 54.8635
114.707 2986 54.6443
114.824 2983 54.6168
114.942 3047 55.1996
115.059 3024 54.9909
115.176 3019 54.9454
115.294 2878 53.647
115.411 2745 52.3927
115.529 2718 52.1344
115.646 2690 51.8652
115.764 2523 50.2295
115.881 2358 48.5592
115.999 2194 46.8402
116.116 2267 47.613
116.234 2502 50.02
116.351 2537 50.3686
116.469 2689 51.8556
116.586 2727 52.2207
116.704 2719 52.144
116.821 2583 50.8232
116.939 2594 50.9313
117.056 2393 48.9183
117.174 2317 48.1352
117.291 2314 48.1041
117.409 2287 47.8226
117.526 2356 48.5386
117.644 2388 48.8672
117.761 2614 51.1273
117.879 2838 53.2729
117.996 2852 53.4041
118.114 2980 54.5894
118.231 3119 55.848
118.349 3120 55.857
118.466 3123 55.8838
118.584 3249 57
118.701 3221 56.7539
118.819 3204 56.6039
118.936 3052 55.2449
119.053 3039 55.1271
119.171 2781 52.7352
119.288 2662 51.5946
119.405 2712 52.0769
119.523 2435 49.3457
119.64 2446 49.4571
119.757 2478 49.7795
119.875 2597 50.9608
119.992 2618 51.1664
120.109 2627 51.2543
120.226 2833 53.2259
120.343 2724 52.192
120.46 2737 52.3163
120.578 2604 51.0294
120.695 2528 50.2792
120.812 2447 49.4672
120.929 2350 48.4768
121.046 2382 48.8057
121.163 2394 48.9285
121.279 2383 48.816
121.396 2605 51.0392
121.513 2750 52.4404
121.63 2925 54.0833
121.747 2920 54.037
121.863 3079 55.4887
121.98 3102 55.6956
122.097 3060 55.3173
122.213 3278 57.2538
122.33 3099 55.6687
122.446 3120 55.857
122.563 3003 54.7996
122.679 3104 55.7136
122.795 2976 54.5527
122.912 2878 53.647
123.028 2682 51.788
123.144 2565 50.6458
123.26 2394 48.9285
123.377 0 1
123.493 0 1
123.609 0 1
123.725 0 1
123.84 0 1
123.956 0 1
124.072 0 1
124.188 0 1
124.303 0 1
124.419 0 1
126.852 0 1
126.968 0 1
127.083 0 1
127.199 0 1
127.315 0 1
127.431 0 1
127.547 0 1
127.663 0 1
127.779 0 1
127.895 0 1
128.011 0 1
128.127 0 1
128.243 0 1
128.359 2936 54.1849
128.476 2812 53.0283
128.592 2795 52.8678
128.708 2787 52.792
128.825 2929 54.1202
128.941 3022 54.9727
129.058 3068 55.3895
129.174 3048 55.2087
129.291 3108 55.7494
129.408 3126 55.9106
129.524 2976 54.5527
129.641 2820 53.1037
129.758 2734 52.2877
129.875 2671 51.6817
129.992 2687 51.8363
130.108 2699 51.9519
130.225 2707 52.0288
130.342 3005 54.8179
130.459 3049 55.2178
130.576 3350 57.8792
130.693 3295 57.4021
130.81 3285 57.3149
130.928 3343 57.8187
131.045 3354 57.9137
131.162 3421 58.4893
131.279 3381 58.1464
131.396 3493 59.1016
131.513 3280 57.2713
131.631 3190 56.4801
131.748 3126 55.9106
131.865 2949 54.3047
131.983 2805 52.9623
132.1 2762 52.5547
132.217 2765 52.5833
132.335 2931 54.1387
132.452 2962 54.4243
132.57 2998 54.754
132.687 2789 52.811
132.804 3115 55.8122
132.922 3007 54.8361
133.039 2911 53.9537
133.157 2824 53.1413
133.274 2765 52.5833
133.392 2701 51.9711
133.509 2608 51.0686
133.627 2579 50.7839
133.744 2683 51.7977
133.862 2753 52.469
133.979 2961 54.4151
134.097 3004 54.8088
134.214 3201 56.5774
134.332 3224 56.7803
134.449 3327 57.6802
134.567 3263 57.1227
134.684 3400 58.3095
134.802 3374 58.0861
134.919 3353 57.9051
135.037 3248 56.9912
135.154 3317 57.5934
135.272 3159 56.205
135.389 2982 54.6077
135.507 2975 54.5436
135.624 2821 53.1131
135.742 2836 53.2541
135.859 2795 52.8678
135.977 2962 54.4243
136.094 2852 53.4041
136.211 3100 55.6776
136.329 3057 55.2901
136.446 3084 55.5338
136.564 3005 54.8179
136.681 3022 54.9727
136.798 2843 53.3198
136.915 2705 52.0096
137.033 2752 52.4595
137.15 2678 51.7494
137.267 2717 52.1249
137.384 2791 52.8299
137.502 2893 53.7866
137.619 2942 54.2402
137.736 3128 55.9285
137.853 3137 56.0089
137.97 3204 56.6039
138.087 3345 57.836
138.204 3314 57.5674
138.321 3315 57.576
138.438 3332 57.7235
138.555 3306 57.4978
138.672 3374 58.0861
138.788 3395 58.2666
138.905 3236 56.8859
139.022 3146 56.0892
139.139 3066 55.3715
139.255 2881 53.6749
139.372 2746 52.4023
139.488 2925 54.0833
139.605 2941 54.231
139.721 3025 55
139.838 3035 55.0908
139.954 3109 55.7584
140.071 3066 55.3715
140.187 3090 55.5878
140.303 2896 53.8145
140.419 2963 54.4334
140.535 2723 52.1824
140.652 2676 51.7301
140.768 0 1
140.884 0 1
141 0 1
141.115 0 1
141.231 0 1
141.347 0 1
141.463 0 1
141.578 0 1
141.694 0 1
144.104 0 1
144.219 0 1
144.335 0 1
144.45 0 1
144.566 0 1
144.682 0 1
144.798 0 1
144.914 0 1
145.03 0 1
145.146 2809 53
145.262 2872 53.591
145.378 2828 53.1789
145.494 2717 52.1249
145.61 2648 51.4587
145.726 2613 51.1175
145.842 2578 50.774
145.959 2510 50.0999
146.075 2616 51.1468
146.192 2674 51.7107
146.308 2782 52.7447
146.425 2858 53.4603
146.541 2854 53.4228
146.658 2973 54.5252
146.774 2982 54.6077
146.891 3055 55.2721
147.008 3066 55.3715
147.125 3094 55.6237
147.241 3058 55.2992
147.358 2979 54.5802
147.475 3014 54.8999
147.592 2956 54.3691
147.709 2715 52.1057
147.826 2758 52.5167
147.943 2667 51.643
148.06 2493 49.93
148.177 2568 50.6754
148.294 2788 52.8015
148.411 2874 53.6097
148.528 2895 53.8052
148.645 2756 52.4976
148.762 2665 51.6236
148.88 2838 53.2729
148.997 2638 51.3615
149.114 2742 52.3641
149.231 2541 50.4083
149.349 2578 50.774
149.466 2528 50.2792
149.583 2390 48.8876
149.701 2446 49.4571
149.818 2556 50.5569
149.935 2767 52.6023
150.053 2696 51.923
150.17 2740 52.345
150.287 2772 52.6498
150.405 2940 54.2218
150.522 2849 53.376
150.64 2893 53.7866
150.757 3009 54.8544
150.875 2948 54.2955
150.992 2899 53.8424
151.11 2869 53.563
151.227 2874 53.6097
151.344 2710 52.0577
151.462 2592 50.9117
151.579 2618 51.1664
151.697 2686 51.8266
151.814 2639 51.3712
151.932 2766 52.5928
152.049 2879 53.6563
152.167 2792 52.8394
152.284 2751 52.45
152.402 2768 52.6118
152.519 2805 52.9623
152.636 2693 51.8941
152.754 2713 52.0865
152.871 2583 50.8232
152.989 2585 50.8429
153.106 2580 50.7937
153.223 2626 51.2445
153.341 2586 50.8527
153.458 2659 51.5655
153.575 2849 53.376
153.693 2814 53.0471
153.81 2857 53.4509
153.927 2927 54.1018
154.044 2930 54.1295
154.162 3063 55.3444
154.279 3129 55.9375
154.396 3142 56.0535
154.513 3184 56.4269
154.63 3084 55.5338
154.747 3148 56.107
154.864 2961 54.4151
154.981 2934 54.1664
155.098 2863 53.507
155.215 2842 53.3104
155.332 2800 52.915
155.449 2848 53.3667
155.566 2936 54.1849
155.683 2919 54.0278
155.8 2932 54.1479
155.917 2974 54.5344
156.033 2885 53.7122
156.15 0 1
156.267 0 1
156.383 0 1
156.5 0 1
156.617 0 1
156.733 0 1
156.85 0 1
156.966 0 1
157.082 0 1
157.199 0 1
157.315 0 1
157.431 0 1
157.547 0 1
157.664 0 1
157.78 0 1
157.896 0 1
158.012 0 1
158.128 0 1
158.244 0 1
158.359 0 1
158.475 0 1
158.591 0 1
158.706 0 1
