
6.15755 0 1
6.2731 0 1
6.3887 0 1
6.50437 0 1
6.62009 0 1
6.73587 0 1
6.8517 0 1
6.96759 0 1
7.08353 0 1
7.19952 0 1
7.31557 0 1
7.43166 0 1
7.54781 0 1
7.664 0 1
7.78024 0 1
7.89653 0 1
8.01286 0 1
8.12924 0 1
8.24567 0 1
8.36213 0 1
8.47864 0 1
8.59519 0 1
8.71178 0 1
8.82841 0 1
8.94508 0 1
9.06179 0 1
9.17853 0 1
9.29531 0 1
9.41212 0 1
9.52897 0 1
9.64584 0 1
9.76276 0 1
9.8797 0 1
9.99667 0 1
10.1137 0 1
10.2307 0 1
10.3478 0 1
10.4648 0 1
10.5819 0 1
10.6991 0 1
10.8162 0 1
10.9334 0 1
11.0506 0 1
11.1678 0 1
11.285 0 1
11.4023 0 1
11.5196 0 1
11.6369 0 1
11.7542 0 1
11.8715 0 1
11.9888 0 1
12.1062 0 1
12.2235 0 1
12.3409 0 1
12.4582 0 1
12.5756 0 1
12.693 0 1
12.8104 0 1
12.9278 0 1
13.0452 0 1
13.1626 0 1
13.28 0 1
13.3974 0 1
13.5149 0 1
13.6323 0 1
13.7497 0 1
13.8671 0 1
13.9845 0 1
14.1019 0 1
14.2193 0 1
14.3367 0 1
14.4541 0 1
14.5714 0 1
14.6888 0 1
14.8062 0 1
14.9235 0 1
15.0408 0 0
15.1581 0 0
15.2755 0 0
15.3927 0 0
15.51 0 0
15.6273 0 0
15.7445 0 0
15.8617 0 0
15.9789 0 0
16.0961 0 0
16.2132 0 0
16.3304 0 0
16.4475 0 0
16.5646 0 0
16.6816 0 0
16.7986 0 0
16.9156 0 0
17.0326 0 0
17.1496 0 0
17.2665 0 0
17.3833 0 0
17.5002 0 0
17.617 0 0
17.7338 0 0
17.8505 0 0
17.9672 0 0
18.0839 0 0
18.2005 0 0
18.3171 0 0
18.4337 0 0
18.5502 0 0
18.6666 0 0
18.7831 0 0
18.8994 0 0
19.0158 0 0
19.1321 0 0
19.2483 0 0
19.3645 0 0
19.4806 0 0
19.5967 0 0
19.7128 0 0
19.8288 0 0
19.9447 0 0
20.0606 0 1
20.1764 0 1
20.2922 0 1
20.4079 0 1
20.5236 0 1
20.6392 0 1
20.7548 0 1
20.8702 0 1
23.3078 0 1
23.4233 0 1
23.539 0 1
23.6547 0 1
23.7704 0 1
23.8862 0 1
24.0021 0 1
24.118 0 1
24.234 0 1
24.35 0 1
24.4661 27460 165.711
24.5822 27364 165.421
24.6984 27435 165.635
24.8146 26665 163.294
24.9309 26421 162.545
25.0472 25901 160.938
25.1636 25696 160.3
25.28 25239 158.868
25.3965 25483 159.634
25.513 25427 159.458
25.6296 25490 159.656
25.7462 25550 159.844
25.8628 25835 160.733
25.9795 26373 162.398
26.0962 26770 163.615
26.213 27287 165.188
26.3298 27525 165.907
26.4466 28339 168.342
26.5635 28515 168.864
26.6804 28845 169.838
26.7973 29116 170.634
26.9143 29461 171.642
27.0313 29593 172.026
27.1483 29901 172.919
27.2653 29941 173.035
27.3824 29811 172.659
27.4996 29259 171.053
27.6167 29226 170.956
27.7339 28591 169.089
27.8511 27757 166.604
27.9683 27433 165.629
28.0855 26762 163.591
28.2028 26440 162.604
28.3201 25764 160.512
28.4374 25523 159.759
28.5547 24780 157.417
28.6721 24454 156.378
28.7894 24149 155.399
28.9068 24025 155
29.0242 23422 153.042
29.1416 23472 153.206
29.259 23532 153.401
29.3764 23784 154.221
29.4939 24352 156.051
29.6113 24698 157.156
29.7288 24905 157.813
29.8463 25697 160.303
29.9638 26295 162.157
30.0812 26959 164.192
30.1987 27231 165.018
30.3162 27408 165.554
30.4337 27697 166.424
30.5512 27191 164.897
30.6687 27897 167.024
30.7862 27886 166.991
30.9037 27726 166.511
31.0212 27462 165.717
31.1387 27573 166.051
31.2562 26607 163.117
31.3737 26689 163.368
31.4912 25921 161
31.6087 25419 159.433
31.7262 24981 158.054
31.8436 24613 156.885
31.9611 24300 155.885
32.0785 24039 155.045
32.1959 23829 154.366
32.3134 23747 154.101
32.4308 23620 153.688
32.5482 23173 152.227
32.6655 23368 152.866
32.7829 23543 153.437
32.9002 23614 153.668
33.0176 24091 155.213
33.1349 24466 156.416
33.2522 24834 157.588
33.3694 25525 159.765
33.4867 26189 161.83
33.6039 26446 162.622
33.7211 27272 165.142
33.8383 27065 164.514
33.9554 27175 164.848
34.0725 26975 164.241
34.1896 26504 162.8
34.3067 26593 163.074
34.4237 26789 163.673
34.5407 26712 163.438
34.6577 26855 163.875
34.7746 26098 161.549
34.8915 26170 161.771
35.0084 25389 159.339
35.1252 25297 159.05
35.242 24885 157.75
35.3587 24850 157.639
35.4755 24915 157.845
35.5921 24997 158.104
35.7088 25444 159.512
35.8254 25034 158.221
35.9419 25144 158.569
36.0584 24833 157.585
36.1749 24603 156.853
36.2913 24417 156.259
36.4077 24131 155.342
36.524 23601 153.626
36.6403 23700 153.948
36.7565 23990 154.887
36.8727 23817 154.328
36.9889 24041 155.052
37.1049 23666 153.838
37.221 0 1
37.3369 0 1
37.4529 0 1
37.5687 0 1
37.6845 0 1
37.8003 0 1
37.916 0 1
38.0316 0 1
38.1472 0 1
40.5851 0 1
40.7008 0 1
40.8164 0 1
40.9322 0 1
41.048 0 1
41.1639 0 1
41.2798 0 1
41.3958 0 1
41.5118 0 1
41.6279 0 1
41.744 17843 133.578
41.8602 18567 136.261
41.9765 19108 138.232
42.0928 19361 139.144
42.2091 19237 138.698
42.3255 19618 140.064
42.4419 19715 140.41
42.5584 19857 140.915
42.675 19555 139.839
42.7915 19475 139.553
42.9081 19145 138.365
43.0248 19544 139.8
43.1415 19582 139.936
43.2582 19694 140.335
43.375 19834 140.833
43.4918 20007 141.446
43.6087 19862 140.933
43.7256 19751 140.538
43.8425 19674 140.264
43.9595 19688 140.314
44.0765 20213 142.172
44.1935 20595 143.51
44.3106 20751 144.052
44.4277 20447 142.993
44.5448 20144 141.93
44.6619 19630 140.107
44.7791 19049 138.018
44.8963 18577 136.297
45.0136 18092 134.507
45.1308 17754 133.244
45.2481 17188 131.103
45.3654 16981 130.311
45.4827 16902 130.008
45.6001 16593 128.814
45.7174 16318 127.742
45.8348 16536 128.592
45.9522 16595 128.822
46.0697 16298 127.664
46.1871 16197 127.267
46.3046 15789 125.654
46.422 15751 125.503
46.5395 15852 125.905
46.657 15740 125.459
46.7745 16079 126.803
46.892 16058 126.72
47.0096 16403 128.074
47.1271 16430 128.18
47.2446 16269 127.55
47.3622 16726 129.329
47.4797 16970 130.269
47.5973 17131 130.885
47.7149 17268 131.408
47.8324 17165 131.015
47.95 16718 129.298
48.0675 16232 127.405
48.1851 15488 124.451
48.3027 15138 123.037
48.4202 14953 122.282
48.5378 14465 120.271
48.6554 14275 119.478
48.7729 13863 117.741
48.8904 13875 117.792
49.008 13688 116.996
49.1255 13941 118.072
49.243 13889 117.852
49.3605 13647 116.82
49.478 13732 117.184
49.5955 13738 117.209
49.713 13616 116.688
49.8304 13740 117.218
49.9479 13940 118.068
50.0653 14409 120.037
50.1827 14925 122.168
50.3001 15335 123.835
50.4175 16353 127.879
50.5348 16737 129.372
50.6521 17193 131.122
50.7694 17483 132.223
50.8867 18778 137.033
51.004 19928 141.167
51.1212 21124 145.341
51.2384 21829 147.746
51.3556 22498 149.993
51.4727 22235 149.114
51.5899 21536 146.751
51.707 20856 144.416
51.824 20593 143.503
51.9411 19736 140.485
52.0581 19365 139.158
52.175 19175 138.474
52.2919 17784 133.357
52.4088 16715 129.287
52.5257 16595 128.822
52.6425 16897 129.988
52.7593 16900 130
52.876 17039 130.534
52.9927 17288 131.484
53.1094 17503 132.299
53.226 18202 134.915
53.3426 18547 136.187
53.4591 19220 138.636
53.5756 19235 138.69
53.692 19743 140.51
53.8084 20365 142.706
53.9248 21552 146.806
54.0411 22070 148.56
54.1573 22907 151.351
54.2735 0 1
54.3896 0 1
54.5057 0 1
54.6217 0 1
54.7377 0 1
54.8537 0 1
54.9695 0 1
55.0853 0 1
55.2011 0 1
55.3168 0 1
55.4324 0 1
57.824 0 1
57.9396 0 1
58.0553 0 1
58.1711 0 1
58.2869 0 1
58.4028 0 1
58.5187 0 1
58.6347 0 1
58.7508 0 1
58.8669 0 1
58.983 24516 156.576
59.0992 25962 161.127
59.2155 28058 167.505
59.3318 30024 173.274
59.4482 31966 178.79
59.5646 33105 181.948
59.681 33514 183.068
59.7975 33215 182.25
59.9141 32009 178.911
60.0306 31062 176.244
60.1473 29344 171.301
60.2639 27728 166.517
60.3807 26077 161.484
60.4974 24065 155.129
60.6142 21628 147.065
60.731 19448 139.456
60.8479 18416 135.706
60.9648 17501 132.291
61.0818 18101 134.54
61.1987 18952 137.666
61.3158 19545 139.803
61.4328 19790 140.677
61.5499 19852 140.897
61.667 19978 141.344
61.7841 20692 143.847
61.9013 20573 143.433
62.0185 20841 144.364
62.1357 20997 144.903
62.253 21946 148.142
62.3702 22817 151.053
62.4875 24270 155.788
62.6049 25919 160.994
62.7222 28451 168.674
62.8396 30252 173.931
62.9569 31401 177.203
63.0743 31796 178.314
63.1918 31138 176.46
63.3092 30750 175.357
63.4267 30209 173.807
63.5441 28544 168.95
63.6616 26836 163.817
63.7791 24988 158.076
63.8966 22930 151.427
64.0142 20037 141.552
64.1317 17638 132.808
64.2492 16157 127.11
64.3668 15214 123.345
64.4843 15167 123.154
64.6019 15490 124.459
64.7195 16585 128.783
64.837 17537 132.427
64.9546 17667 132.917
65.0722 17640 132.816
65.1898 17700 133.041
65.3074 18506 136.037
65.4249 18564 136.25
65.5425 18705 136.766
65.6601 18911 137.517
65.7777 19717 140.417
65.8952 20704 143.889
66.0128 22285 149.282
66.1304 24716 157.213
66.2479 27267 165.127
66.3655 29686 172.296
66.483 30377 174.29
66.6005 30422 174.419
66.718 30585 174.886
66.8355 29938 173.026
66.953 29752 172.488
67.0705 28663 169.302
67.1879 26042 161.375
67.3054 23038 151.783
67.4228 19548 139.814
67.5402 17025 130.48
67.6576 16141 127.047
67.7749 14890 122.025
67.8923 14750 121.45
68.0096 14215 119.227
68.1269 14395 119.979
68.2442 15476 124.403
68.3614 17107 130.794
68.4787 17977 134.078
68.5958 17925 133.884
68.713 17783 133.353
68.8302 17957 134.004
68.9473 18312 135.322
69.0643 18457 135.857
69.1814 18965 137.713
69.2984 19048 138.014
69.4154 19769 140.602
69.5323 22033 148.435
69.6492 25204 158.758
69.7661 27926 167.111
69.8829 30274 173.994
69.9997 32253 179.591
70.1165 32382 179.95
70.2332 33008 181.681
70.3499 32591 180.53
70.4665 32535 180.375
70.5831 31734 178.14
70.6996 28996 170.282
70.8161 25028 158.202
70.9326 22266 149.218
71.049 20650 143.701
71.1653 18862 137.339
71.2817 17431 132.027
71.3979 16660 129.074
71.5141 15820 125.778
71.6303 15577 124.808
71.7464 14778 121.565
71.8624 0 1
71.9784 0 1
72.0944 0 1
72.2102 0 1
72.3261 0 1
72.4418 0 1
72.5575 0 1
72.6732 0 1
75.1054 0 1
75.2209 0 1
75.3365 0 1
75.4521 0 1
75.5678 0 1
75.6835 0 1
75.7993 0 1
75.9151 0 1
76.031 0 1
76.147 25955 161.106
76.263 25151 158.591
76.3791 23364 152.853
76.4952 21301 145.949
76.6113 20199 142.123
76.7276 19167 138.445
76.8438 18201 134.911
76.9601 18130 134.648
77.0765 18205 134.926
77.1929 18688 136.704
77.3093 20468 143.066
77.4258 22046 148.479
77.5423 22164 148.876
77.6589 21776 147.567
77.7755 20465 143.056
77.8921 20444 142.983
78.0088 20520 143.248
78.1256 20126 141.866
78.2423 20143 141.926
78.3591 20329 142.58
78.4759 21973 148.233
78.5928 24501 156.528
78.7097 27322 165.294
78.8266 31355 177.073
78.9436 31563 177.66
79.0606 33607 183.322
79.1776 34022 184.451
79.2946 33789 183.818
79.4117 33153 182.08
79.5288 31367 177.107
79.6459 29451 171.613
79.7631 26627 163.178
79.8802 23962 154.797
79.9974 21507 146.653
80.1147 19444 139.442
80.2319 17629 132.774
80.3491 16193 127.252
80.4664 15453 124.31
80.5837 15002 122.483
80.701 14605 120.851
80.8183 14919 122.143
80.9357 16039 126.645
81.053 17689 133
81.1704 18107 134.562
81.2877 17160 130.996
81.4051 16015 126.55
81.5225 16162 127.13
81.6399 15766 125.563
81.7573 16218 127.35
81.8747 16539 128.604
81.9922 17472 132.182
82.1096 19764 140.584
82.227 22505 150.017
82.3444 24875 157.718
82.4619 27766 166.631
82.5793 28645 169.248
82.6967 30550 174.786
82.8142 30589 174.897
82.9316 29447 171.601
83.049 28434 168.624
83.1664 26948 164.158
83.2838 24987 158.073
83.4012 22109 148.691
83.5186 19927 141.163
83.636 17965 134.034
83.7534 16577 128.752
83.8708 15065 122.74
83.9881 13956 118.136
84.1055 13308 115.36
84.2228 12817 113.212
84.3401 12994 113.991
84.4575 13581 116.538
84.5747 15427 124.205
84.692 16801 129.619
84.8093 17123 130.855
84.9265 16148 127.075
85.0437 15128 122.996
85.1609 14893 122.037
85.2781 15050 122.678
85.3952 15116 122.947
85.5123 16675 129.132
85.6294 18296 135.263
85.7465 20417 142.888
85.8636 23092 151.961
85.9806 25630 160.094
86.0976 28249 168.074
86.2145 30873 175.707
86.3315 30660 175.1
86.4484 32307 179.741
86.5652 31060 176.238
86.682 30291 174.043
86.7988 28473 168.739
86.9156 26425 162.558
87.0323 23492 153.271
87.149 21546 146.786
87.2657 19613 140.046
87.3823 17794 133.394
87.4988 16268 127.546
87.6154 15502 124.507
87.7318 14859 121.897
87.8483 15230 123.41
87.9647 15636 125.044
88.081 17090 130.729
88.1973 19014 137.891
88.3136 19883 141.007
88.4298 18899 137.474
88.546 17125 130.863
88.6621 15623 124.992
88.7781 15259 123.527
88.8942 0 1
89.0101 0 1
89.126 0 1
89.2419 0 1
89.3577 0 1
89.4734 0 1
89.5891 0 1
89.7047 0 1
89.8203 0 1
89.9358 0 1
92.3269 0 1
92.4424 0 1
92.558 0 1
92.6736 0 1
92.7893 0 1
92.905 0 1
93.0208 0 1
93.1366 0 1
93.2525 0 1
93.3685 0 1
93.4845 0 1
93.6005 16475 128.355
93.7167 17447 132.087
93.8328 17676 132.951
93.949 16853 129.819
94.0653 16011 126.535
94.1816 15697 125.288
94.2979 16232 127.405
94.4143 16891 129.965
94.5307 18123 134.622
94.6472 19825 140.801
94.7637 21211 145.64
94.8803 23955 154.774
94.9969 26150 161.71
95.1135 29069 170.496
95.2302 31263 176.813
95.3469 32156 179.321
95.4637 32788 181.075
95.5805 32884 181.339
95.6973 32629 180.635
95.8142 31910 178.634
95.9311 30698 175.208
96.048 28444 168.653
96.1649 26068 161.456
96.2819 23634 153.734
96.3989 21761 147.516
96.516 19727 140.453
96.633 18070 134.425
96.7501 17293 131.503
96.8673 16706 129.252
96.9844 16272 127.562
97.1016 16743 129.395
97.2188 17238 131.294
97.336 18752 136.938
97.4532 19271 138.82
97.5704 19234 138.687
97.6877 17877 133.705
97.805 16691 129.194
97.9223 15787 125.646
98.0396 16090 126.846
98.1569 17045 130.557
98.2743 18285 135.222
98.3916 20086 141.725
98.509 22502 150.007
98.6264 24628 156.933
98.7438 27489 165.798
98.8612 30138 173.603
98.9786 32768 181.019
99.096 33921 184.177
99.2134 33908 184.141
99.3308 33335 182.579
99.4482 33150 182.071
99.5656 31356 177.076
99.6831 29356 171.336
99.8005 26591 163.067
99.9179 24108 155.268
100.035 21945 148.138
100.153 19658 140.207
100.27 18373 135.547
100.388 17644 132.831
100.505 17481 132.216
100.622 17232 131.271
100.74 17345 131.7
100.857 18262 135.137
100.975 19281 138.856
101.092 19719 140.424
101.209 18889 137.437
101.327 17239 131.297
101.444 16261 127.519
101.561 16311 127.715
101.679 17494 132.265
101.796 18455 135.849
101.913 20359 142.685
102.03 22660 150.532
102.148 25698 160.306
102.265 30999 176.065
102.382 32067 179.073
102.499 35133 187.438
102.616 36230 190.342
102.733 36509 191.073
102.851 36051 189.871
102.968 35673 188.873
103.085 34307 185.221
103.202 31738 178.152
103.319 29189 170.848
103.436 26367 162.379
103.552 23677 153.873
103.669 22055 148.509
103.786 21011 144.952
103.903 20198 142.12
104.02 19585 139.946
104.137 19636 140.129
104.253 20498 143.171
104.37 20369 142.72
104.487 21381 146.222
104.603 21625 147.054
104.72 20185 142.074
104.836 18686 136.697
104.953 18136 134.67
105.069 18821 137.19
105.186 19867 140.95
105.302 21862 147.858
105.418 24189 155.528
105.535 27961 167.215
105.651 31015 176.111
105.767 34528 185.817
105.883 36407 190.806
105.999 37094 192.598
106.115 0 1
106.231 0 1
106.347 0 1
106.463 0 1
106.579 0 1
106.694 0 1
106.81 0 1
106.926 0 1
107.041 0 1
107.157 0 1
109.576 0 1
109.692 0 1
109.807 0 1
109.923 0 1
110.039 0 1
110.155 0 1
110.27 0 1
110.386 0 1
110.502 0 1
110.618 26587 163.055
110.735 29606 172.064
110.851 32813 181.144
110.967 34052 184.532
111.083 34763 186.448
111.199 35376 188.085
111.316 35335 187.976
111.432 35256 187.766
111.549 33650 183.439
111.665 31482 177.432
111.782 28483 168.769
111.898 26535 162.896
112.015 25126 158.512
112.132 23723 154.023
112.248 22238 149.124
112.365 21528 146.724
112.482 20957 144.765
112.599 19822 140.791
112.716 19875 140.979
112.832 20065 141.651
112.949 19656 140.2
113.066 19648 140.171
113.183 18321 135.355
113.3 17045 130.557
113.417 16545 128.627
113.534 16699 129.225
113.652 17613 132.714
113.769 19648 140.171
113.886 21614 147.017
114.003 23664 153.831
114.12 25602 160.006
114.238 28188 167.893
114.355 29903 172.925
114.472 31091 176.326
114.589 31646 177.893
114.707 32289 179.691
114.824 32456 180.155
114.942 32104 179.176
115.059 31163 176.53
115.176 28642 169.239
115.294 26883 163.96
115.411 25387 159.333
115.529 24534 156.633
115.646 23765 154.159
115.764 22789 150.96
115.881 21721 147.38
115.999 21068 145.148
116.116 20990 144.879
116.234 20326 142.569
116.351 20577 143.447
116.469 20056 141.619
116.586 20034 141.542
116.704 19668 140.243
116.821 18433 135.768
116.939 17969 134.048
117.056 18087 134.488
117.174 19397 139.273
117.291 21221 145.674
117.409 22314 149.379
117.526 23545 153.444
117.644 25329 159.151
117.761 27953 167.192
117.879 30047 173.341
117.996 31277 176.853
118.114 32260 179.611
118.231 33380 182.702
118.349 33020 181.714
118.466 33114 181.973
118.584 32294 179.705
118.701 30616 174.974
118.819 29259 171.053
118.936 27785 166.688
119.053 27426 165.608
119.171 26174 161.784
119.288 25275 158.981
119.405 23974 154.835
119.523 23214 152.361
119.64 23069 151.885
119.757 22512 150.04
119.875 21820 147.716
119.992 21550 146.799
120.109 21024 144.997
120.226 21056 145.107
120.343 20207 142.151
120.46 19702 140.364
120.578 19283 138.863
120.695 20421 142.902
120.812 21496 146.615
120.929 22277 149.255
121.046 23284 152.591
121.163 24185 155.515
121.279 25411 159.408
121.396 26801 163.71
121.513 28928 170.082
121.63 30817 175.548
121.747 30969 175.98
121.863 31783 178.278
121.98 32146 179.293
122.097 31850 178.466
122.213 30889 175.753
122.33 29808 172.65
122.446 28646 169.251
122.563 28050 167.481
122.679 27256 165.094
122.795 26637 163.208
122.912 25864 160.823
123.028 24845 157.623
123.144 23998 154.913
123.26 22914 151.374
123.377 0 1
123.493 0 1
123.609 0 1
123.725 0 1
123.84 0 1
123.956 0 1
124.072 0 1
124.188 0 1
124.303 0 1
124.419 0 1
126.852 0 1
126.968 0 1
127.083 0 1
127.199 0 1
127.315 0 1
127.431 0 1
127.547 0 1
127.663 0 1
127.779 0 1
127.895 0 1
128.011 0 1
128.127 0 1
128.243 0 1
128.359 28161 167.812
128.476 27582 166.078
128.592 27213 164.964
128.708 27498 165.825
128.825 27450 165.68
128.941 26939 164.131
129.058 26678 163.334
129.174 26011 161.279
129.291 26546 162.929
129.408 26513 162.828
129.524 26347 162.318
129.641 26475 162.711
129.758 27061 164.502
129.875 27425 165.605
129.992 27717 166.484
130.108 28488 168.784
130.225 29885 172.873
130.342 31194 176.618
130.459 31767 178.233
130.576 33728 183.652
130.693 32884 181.339
130.81 32474 180.205
130.928 32054 179.036
131.045 30939 175.895
131.162 31296 176.907
131.279 30997 176.06
131.396 30972 175.989
131.513 30163 173.675
131.631 30210 173.81
131.748 29524 171.825
131.865 28759 169.585
131.983 27936 167.141
132.1 28071 167.544
132.217 28189 167.896
132.335 28094 167.613
132.452 28051 167.484
132.57 27918 167.087
132.687 26900 164.012
132.804 28759 169.585
132.922 27203 164.933
133.039 26549 162.939
133.157 26299 162.17
133.274 26691 163.374
133.392 27068 164.524
133.509 28236 168.036
133.627 28604 169.127
133.744 29168 170.786
133.862 30017 173.254
133.979 31013 176.105
134.097 31268 176.828
134.214 31028 176.148
134.332 30463 174.537
134.449 29905 172.931
134.567 30088 173.459
134.684 30380 174.299
134.802 30778 175.437
134.919 30656 175.089
135.037 30844 175.625
135.154 30311 174.101
135.272 30084 173.447
135.389 29797 172.618
135.507 29286 171.132
135.624 29422 171.528
135.742 29696 172.325
135.859 29997 173.196
135.977 30332 174.161
136.094 30129 173.577
136.211 29842 172.748
136.329 30123 173.56
136.446 29540 171.872
136.564 28879 169.938
136.681 28276 168.155
136.798 27616 166.181
136.915 28681 169.355
137.033 28566 169.015
137.15 28907 170.021
137.267 29461 171.642
137.384 30094 173.476
137.502 30891 175.758
137.619 31187 176.598
137.736 30987 176.031
137.853 30255 173.94
137.97 29489 171.724
138.087 30598 174.923
138.204 30640 175.043
138.321 30740 175.328
138.438 31154 176.505
138.555 31442 177.319
138.672 31691 178.02
138.788 31601 177.767
138.905 31633 177.857
139.022 31276 176.85
139.139 31087 176.315
139.255 30761 175.388
139.372 31099 176.349
139.488 31033 176.162
139.605 31422 177.263
139.721 31394 177.184
139.838 31209 176.661
139.954 30760 175.385
140.071 29552 171.907
140.187 29126 170.663
140.303 27834 166.835
140.419 27421 165.593
140.535 26842 163.835
140.652 26958 164.189
140.768 0 1
140.884 0 1
141 0 1
141.115 0 1
141.231 0 1
141.347 0 1
141.463 0 1
141.578 0 1
141.694 0 1
144.104 0 1
144.219 0 1
144.335 0 1
144.45 0 1
144.566 0 1
144.682 0 1
144.798 0 1
144.914 0 1
145.03 0 1
145.146 27762 166.619
145.262 27785 166.688
145.378 27426 165.608
145.494 27548 165.976
145.61 27438 165.644
145.726 27572 166.048
145.842 27638 166.247
145.959 27927 167.114
146.075 28319 168.283
146.192 28638 169.228
146.308 28723 169.479
146.425 28639 169.231
146.541 28761 169.591
146.658 29263 171.064
146.774 29371 171.38
146.891 29696 172.325
147.008 30026 173.28
147.125 30373 174.279
147.241 30443 174.479
147.358 30735 175.314
147.475 30458 174.522
147.592 30030 173.292
147.709 29710 172.366
147.826 29102 170.593
147.943 29847 172.763
148.06 29671 172.253
148.177 29658 172.215
148.294 29329 171.257
148.411 29374 171.388
148.528 28796 169.694
148.645 28302 168.232
148.762 27771 166.646
148.88 27063 164.508
148.997 26113 161.595
149.114 27993 167.311
149.231 26808 163.731
149.349 26924 164.085
149.466 26614 163.138
149.583 27067 164.521
149.701 26985 164.271
149.818 27417 165.581
149.935 27832 166.829
150.053 28342 168.351
150.17 28276 168.155
150.287 29042 170.417
150.405 29333 171.269
150.522 29876 172.847
150.64 30116 173.54
150.757 30106 173.511
150.875 30325 174.141
150.992 30241 173.899
151.11 29519 171.811
151.227 29093 170.567
151.344 28490 168.79
151.462 28856 169.871
151.579 28804 169.717
151.697 28983 170.244
151.814 28789 169.673
151.932 28616 169.163
152.049 28646 169.251
152.167 27697 166.424
152.284 27211 164.958
152.402 27143 164.751
152.519 26314 162.216
152.636 26497 162.779
152.754 26427 162.564
152.871 26688 163.365
152.989 26507 162.81
153.106 27084 164.572
153.223 27622 166.199
153.341 28252 168.083
153.458 28421 168.585
153.575 29126 170.663
153.693 29812 172.662
153.81 30667 175.12
153.927 31150 176.494
154.044 31914 178.645
154.162 32442 180.117
154.279 33196 182.198
154.396 33157 182.091
154.513 33586 183.265
154.63 33916 184.163
154.747 33346 182.609
154.864 32305 179.736
154.981 31816 178.37
155.098 31458 177.364
155.215 31292 176.895
155.332 30948 175.92
155.449 30653 175.08
155.566 29797 172.618
155.683 29007 170.314
155.8 28249 168.074
155.917 27950 167.183
156.033 26939 164.131
156.15 0 1
156.267 0 1
156.383 0 1
156.5 0 1
156.617 0 1
156.733 0 1
156.85 0 1
156.966 0 1
157.082 0 1
157.199 0 1
157.315 0 1
157.431 0 1
157.547 0 1
157.664 0 1
157.78 0 1
157.896 0 1
158.012 0 1
158.128 0 1
158.244 0 1
158.359 0 1
158.475 0 1
158.591 0 1
158.706 0 1
