
6.15755 0 1
6.2731 0 1
6.3887 0 1
6.50437 0 1
6.62009 0 1
6.73587 0 1
6.8517 0 1
6.96759 0 1
7.08353 0 1
7.19952 0 1
7.31557 0 1
7.43166 0 1
7.54781 0 1
7.664 0 1
7.78024 0 1
7.89653 0 1
8.01286 0 1
8.12924 0 1
8.24567 0 1
8.36213 0 1
8.47864 0 1
8.59519 0 1
8.71178 0 1
8.82841 0 1
8.94508 0 1
9.06179 0 1
9.17853 0 1
9.29531 0 1
9.41212 0 1
9.52897 0 1
9.64584 0 1
9.76276 0 1
9.8797 0 1
9.99667 0 1
10.1137 0 1
10.2307 0 1
10.3478 0 1
10.4648 0 1
10.5819 0 1
10.6991 0 1
10.8162 0 1
10.9334 0 1
11.0506 0 1
11.1678 0 1
11.285 0 1
11.4023 0 1
11.5196 0 1
11.6369 0 1
11.7542 0 1
11.8715 0 1
11.9888 0 1
12.1062 0 1
12.2235 0 1
12.3409 0 1
12.4582 0 1
12.5756 0 1
12.693 0 1
12.8104 0 1
12.9278 0 1
13.0452 0 1
13.1626 0 1
13.28 0 1
13.3974 0 1
13.5149 0 1
13.6323 0 1
13.7497 0 1
13.8671 0 1
13.9845 0 1
14.1019 0 1
14.2193 0 1
14.3367 0 1
14.4541 0 1
14.5714 0 1
14.6888 0 1
14.8062 0 1
14.9235 0 1
15.0408 792 28.1425
15.1581 873 29.5466
15.2755 888 29.7993
15.3927 921 30.348
15.51 889 29.8161
15.6273 888 29.7993
15.7445 930 30.4959
15.8617 874 29.5635
15.9789 882 29.6985
16.0961 834 28.8791
16.2132 849 29.1376
16.3304 756 27.4955
16.4475 749 27.3679
16.5646 861 29.3428
16.6816 822 28.6705
16.7986 800 28.2843
16.9156 823 28.688
17.0326 818 28.6007
17.1496 792 28.1425
17.2665 881 29.6816
17.3833 805 28.3725
17.5002 882 29.6985
17.617 815 28.5482
17.7338 842 29.0172
17.8505 854 29.2233
17.9672 875 29.5804
18.0839 793 28.1603
18.2005 766 27.6767
18.3171 810 28.4605
18.4337 710 26.6458
18.5502 793 28.1603
18.6666 825 28.7228
18.7831 865 29.4109
18.8994 788 28.0713
19.0158 766 27.6767
19.1321 727 26.9629
19.2483 769 27.7308
19.3645 747 27.3313
19.4806 672 25.923
19.5967 651 25.5147
19.7128 574 23.9583
19.8288 500 22.3607
19.9447 438 20.9284
20.0606 0 1
20.1764 0 1
20.2922 0 1
20.4079 0 1
20.5236 0 1
20.6392 0 1
20.7548 0 1
20.8702 0 1
23.3078 0 1
23.4233 0 1
23.539 0 1
23.6547 0 1
23.7704 0 1
23.8862 0 1
24.0021 0 1
24.118 0 1
24.234 0 1
24.35 0 1
24.4661 308 17.5499
24.5822 408 20.199
24.6984 442 21.0238
24.8146 476 21.8174
24.9309 581 24.1039
25.0472 649 25.4755
25.1636 726 26.9444
25.28 812 28.4956
25.3965 785 28.0179
25.513 859 29.3087
25.6296 859 29.3087
25.7462 866 29.4279
25.8628 841 29
25.9795 812 28.4956
26.0962 846 29.0861
26.213 849 29.1376
26.3298 818 28.6007
26.4466 830 28.8097
26.5635 803 28.3373
26.6804 711 26.6646
26.7973 666 25.807
26.9143 613 24.7588
27.0313 697 26.4008
27.1483 676 26
27.2653 702 26.4953
27.3824 757 27.5136
27.4996 767 27.6948
27.6167 755 27.4773
27.7339 730 27.0185
27.8511 796 28.2135
27.9683 772 27.7849
28.0855 761 27.5862
28.2028 744 27.2764
28.3201 681 26.096
28.4374 689 26.2488
28.5547 637 25.2389
28.6721 685 26.1725
28.7894 764 27.6405
28.9068 755 27.4773
29.0242 764 27.6405
29.1416 757 27.5136
29.259 735 27.1109
29.3764 743 27.258
29.4939 724 26.9072
29.6113 696 26.3818
29.7288 715 26.7395
29.8463 700 26.4575
29.9638 675 25.9808
30.0812 702 26.4953
30.1987 658 25.6515
30.3162 584 24.1661
30.4337 577 24.0208
30.5512 642 25.3377
30.6687 697 26.4008
30.7862 752 27.4226
30.9037 748 27.3496
31.0212 718 26.7955
31.1387 728 26.9815
31.2562 766 27.6767
31.3737 787 28.0535
31.4912 728 26.9815
31.6087 722 26.8701
31.7262 671 25.9037
31.8436 671 25.9037
31.9611 724 26.9072
32.0785 685 26.1725
32.1959 656 25.6125
32.3134 658 25.6515
32.4308 701 26.4764
32.5482 679 26.0576
32.6655 680 26.0768
32.7829 655 25.593
32.9002 652 25.5343
33.0176 625 25
33.1349 652 25.5343
33.2522 623 24.96
33.3694 665 25.7876
33.4867 694 26.3439
33.6039 645 25.3969
33.7211 576 24
33.8383 564 23.7487
33.9554 607 24.6374
34.0725 646 25.4165
34.1896 599 24.4745
34.3067 628 25.0599
34.4237 656 25.6125
34.5407 613 24.7588
34.6577 718 26.7955
34.7746 709 26.6271
34.8915 658 25.6515
35.0084 685 26.1725
35.1252 647 25.4362
35.242 651 25.5147
35.3587 616 24.8193
35.4755 598 24.454
35.5921 589 24.2693
35.7088 558 23.622
35.8254 587 24.2281
35.9419 662 25.7294
36.0584 643 25.3574
36.1749 581 24.1039
36.2913 593 24.3516
36.4077 575 23.9792
36.524 576 24
36.6403 500 22.3607
36.7565 473 21.7486
36.8727 461 21.4709
36.9889 486 22.0454
37.1049 438 20.9284
37.221 0 1
37.3369 0 1
37.4529 0 1
37.5687 0 1
37.6845 0 1
37.8003 0 1
37.916 0 1
38.0316 0 1
38.1472 0 1
40.5851 0 1
40.7008 0 1
40.8164 0 1
40.9322 0 1
41.048 0 1
41.1639 0 1
41.2798 0 1
41.3958 0 1
41.5118 0 1
41.6279 0 1
41.744 274 16.5529
41.8602 317 17.8045
41.9765 369 19.2094
42.0928 406 20.1494
42.2091 435 20.8567
42.3255 415 20.3715
42.4419 495 22.2486
42.5584 422 20.5426
42.675 486 22.0454
42.7915 396 19.8997
42.9081 452 21.2603
43.0248 453 21.2838
43.1415 489 22.1133
43.2582 478 21.8632
43.375 516 22.7156
43.4918 490 22.1359
43.6087 505 22.4722
43.7256 486 22.0454
43.8425 512 22.6274
43.9595 455 21.3307
44.0765 475 21.7945
44.1935 472 21.7256
44.3106 406 20.1494
44.4277 480 21.9089
44.5448 455 21.3307
44.6619 463 21.5174
44.7791 482 21.9545
44.8963 506 22.4944
45.0136 497 22.2935
45.1308 498 22.3159
45.2481 523 22.8692
45.3654 526 22.9347
45.4827 468 21.6333
45.6001 482 21.9545
45.7174 512 22.6274
45.8348 524 22.891
45.9522 507 22.5167
46.0697 475 21.7945
46.1871 498 22.3159
46.3046 430 20.7364
46.422 442 21.0238
46.5395 412 20.2978
46.657 444 21.0713
46.7745 483 21.9773
46.892 461 21.4709
47.0096 461 21.4709
47.1271 478 21.8632
47.2446 463 21.5174
47.3622 508 22.5389
47.4797 470 21.6795
47.5973 436 20.8806
47.7149 404 20.0998
47.8324 463 21.5174
47.95 419 20.4695
48.0675 460 21.4476
48.1851 501 22.383
48.3027 492 22.1811
48.4202 455 21.3307
48.5378 453 21.2838
48.6554 479 21.8861
48.7729 503 22.4277
48.8904 505 22.4722
49.008 510 22.5832
49.1255 507 22.5167
49.243 478 21.8632
49.3605 473 21.7486
49.478 483 21.9773
49.5955 449 21.1896
49.713 411 20.2731
49.8304 406 20.1494
49.9479 414 20.347
50.0653 397 19.9249
50.1827 438 20.9284
50.3001 435 20.8567
50.4175 441 21
50.5348 457 21.3776
50.6521 484 22
50.7694 481 21.9317
50.8867 436 20.8806
51.004 465 21.5639
51.1212 422 20.5426
51.2384 399 19.975
51.3556 387 19.6723
51.4727 426 20.6398
51.5899 416 20.3961
51.707 461 21.4709
51.824 503 22.4277
51.9411 438 20.9284
52.0581 458 21.4009
52.175 430 20.7364
52.2919 464 21.5407
52.4088 455 21.3307
52.5257 451 21.2368
52.6425 452 21.2603
52.7593 454 21.3073
52.876 462 21.4942
52.9927 461 21.4709
53.1094 431 20.7605
53.226 395 19.8746
53.3426 390 19.7484
53.4591 379 19.4679
53.5756 367 19.1572
53.692 387 19.6723
53.8084 383 19.5704
53.9248 351 18.735
54.0411 353 18.7883
54.1573 339 18.412
54.2735 0 1
54.3896 0 1
54.5057 0 1
54.6217 0 1
54.7377 0 1
54.8537 0 1
54.9695 0 1
55.0853 0 1
55.2011 0 1
55.3168 0 1
55.4324 0 1
57.824 0 1
57.9396 0 1
58.0553 0 1
58.1711 0 1
58.2869 0 1
58.4028 0 1
58.5187 0 1
58.6347 0 1
58.7508 0 1
58.8669 0 1
58.983 455 21.3307
59.0992 570 23.8747
59.2155 676 26
59.3318 804 28.3549
59.4482 831 28.8271
59.5646 834 28.8791
59.681 823 28.688
59.7975 856 29.2575
59.9141 870 29.4958
60.0306 911 30.1828
60.1473 946 30.7571
60.2639 941 30.6757
60.3807 951 30.8383
60.4974 957 30.9354
60.6142 925 30.4138
60.731 932 30.5287
60.8479 914 30.2324
60.9648 880 29.6648
61.0818 928 30.4631
61.1987 935 30.5778
61.3158 890 29.8329
61.4328 853 29.2062
61.5499 855 29.2404
61.667 788 28.0713
61.7841 746 27.313
61.9013 756 27.4955
62.0185 683 26.1343
62.1357 658 25.6515
62.253 630 25.0998
62.3702 632 25.1396
62.4875 646 25.4165
62.6049 704 26.533
62.7222 689 26.2488
62.8396 675 25.9808
62.9569 619 24.8797
63.0743 651 25.5147
63.1918 626 25.02
63.3092 561 23.6854
63.4267 553 23.516
63.5441 562 23.7065
63.6616 557 23.6008
63.7791 579 24.0624
63.8966 545 23.3452
64.0142 562 23.7065
64.1317 559 23.6432
64.2492 564 23.7487
64.3668 526 22.9347
64.4843 508 22.5389
64.6019 494 22.2261
64.7195 564 23.7487
64.837 535 23.1301
64.9546 554 23.5372
65.0722 521 22.8254
65.1898 523 22.8692
65.3074 474 21.7715
65.4249 444 21.0713
65.5425 491 22.1585
65.6601 463 21.5174
65.7777 455 21.3307
65.8952 460 21.4476
66.0128 503 22.4277
66.1304 497 22.2935
66.2479 484 22
66.3655 514 22.6716
66.483 539 23.2164
66.6005 532 23.0651
66.718 493 22.2036
66.8355 526 22.9347
66.953 486 22.0454
67.0705 472 21.7256
67.1879 467 21.6102
67.3054 522 22.8473
67.4228 519 22.7816
67.5402 547 23.388
67.6576 515 22.6936
67.7749 516 22.7156
67.8923 578 24.0416
68.0096 541 23.2594
68.1269 511 22.6053
68.2442 519 22.7816
68.3614 554 23.5372
68.4787 493 22.2036
68.5958 522 22.8473
68.713 516 22.7156
68.8302 521 22.8254
68.9473 494 22.2261
69.0643 508 22.5389
69.1814 526 22.9347
69.2984 467 21.6102
69.4154 443 21.0476
69.5323 497 22.2935
69.6492 506 22.4944
69.7661 496 22.2711
69.8829 549 23.4307
69.9997 558 23.622
70.1165 481 21.9317
70.2332 499 22.3383
70.3499 464 21.5407
70.4665 435 20.8567
70.5831 422 20.5426
70.6996 353 18.7883
70.8161 355 18.8414
70.9326 314 17.72
71.049 304 17.4356
71.1653 302 17.3781
71.2817 306 17.4929
71.3979 282 16.7929
71.5141 255 15.9687
71.6303 244 15.6205
71.7464 202 14.2127
71.8624 0 1
71.9784 0 1
72.0944 0 1
72.2102 0 1
72.3261 0 1
72.4418 0 1
72.5575 0 1
72.6732 0 1
75.1054 0 1
75.2209 0 1
75.3365 0 1
75.4521 0 1
75.5678 0 1
75.6835 0 1
75.7993 0 1
75.9151 0 1
76.031 0 1
76.147 307 17.5214
76.263 380 19.4936
76.3791 413 20.3224
76.4952 443 21.0476
76.6113 476 21.8174
76.7276 452 21.2603
76.8438 481 21.9317
76.9601 427 20.664
77.0765 447 21.1424
77.1929 478 21.8632
77.3093 464 21.5407
77.4258 443 21.0476
77.5423 474 21.7715
77.6589 494 22.2261
77.7755 440 20.9762
77.8921 445 21.095
78.0088 414 20.347
78.1256 445 21.095
78.2423 396 19.8997
78.3591 419 20.4695
78.4759 399 19.975
78.5928 428 20.6882
78.7097 430 20.7364
78.8266 409 20.2237
78.9436 494 22.2261
79.0606 456 21.3542
79.1776 463 21.5174
79.2946 478 21.8632
79.4117 458 21.4009
79.5288 467 21.6102
79.6459 437 20.9045
79.7631 424 20.5913
79.8802 458 21.4009
79.9974 458 21.4009
80.1147 500 22.3607
80.2319 489 22.1133
80.3491 511 22.6053
80.4664 534 23.1084
80.5837 499 22.3383
80.701 517 22.7376
80.8183 486 22.0454
80.9357 411 20.2731
81.053 442 21.0238
81.1704 487 22.0681
81.2877 483 21.9773
81.4051 450 21.2132
81.5225 498 22.3159
81.6399 504 22.4499
81.7573 446 21.1187
81.8747 446 21.1187
81.9922 428 20.6882
82.1096 459 21.4243
82.227 422 20.5426
82.3444 436 20.8806
82.4619 462 21.4942
82.5793 474 21.7715
82.6967 476 21.8174
82.8142 504 22.4499
82.9316 528 22.9783
83.049 528 22.9783
83.1664 482 21.9545
83.2838 504 22.4499
83.4012 423 20.567
83.5186 471 21.7025
83.636 470 21.6795
83.7534 509 22.561
83.8708 465 21.5639
83.9881 500 22.3607
84.1055 548 23.4094
84.2228 529 23
84.3401 506 22.4944
84.4575 495 22.2486
84.5747 469 21.6564
84.692 514 22.6716
84.8093 504 22.4499
84.9265 496 22.2711
85.0437 468 21.6333
85.1609 502 22.4054
85.2781 513 22.6495
85.3952 472 21.7256
85.5123 489 22.1133
85.6294 449 21.1896
85.7465 465 21.5639
85.8636 478 21.8632
85.9806 469 21.6564
86.0976 459 21.4243
86.2145 453 21.2838
86.3315 495 22.2486
86.4484 492 22.1811
86.5652 532 23.0651
86.682 540 23.2379
86.7988 469 21.6564
86.9156 473 21.7486
87.0323 457 21.3776
87.149 515 22.6936
87.2657 436 20.8806
87.3823 487 22.0681
87.4988 485 22.0227
87.6154 496 22.2711
87.7318 463 21.5174
87.8483 448 21.166
87.9647 433 20.8087
88.081 359 18.9473
88.1973 333 18.2483
88.3136 347 18.6279
88.4298 313 17.6918
88.546 307 17.5214
88.6621 268 16.3707
88.7781 255 15.9687
88.8942 0 1
89.0101 0 1
89.126 0 1
89.2419 0 1
89.3577 0 1
89.4734 0 1
89.5891 0 1
89.7047 0 1
89.8203 0 1
89.9358 0 1
92.3269 0 1
92.4424 0 1
92.558 0 1
92.6736 0 1
92.7893 0 1
92.905 0 1
93.0208 0 1
93.1366 0 1
93.2525 0 1
93.3685 0 1
93.4845 0 1
93.6005 426 20.6398
93.7167 444 21.0713
93.8328 463 21.5174
93.949 496 22.2711
94.0653 535 23.1301
94.1816 476 21.8174
94.2979 493 22.2036
94.4143 487 22.0681
94.5307 533 23.0868
94.6472 482 21.9545
94.7637 440 20.9762
94.8803 486 22.0454
94.9969 481 21.9317
95.1135 451 21.2368
95.2302 486 22.0454
95.3469 474 21.7715
95.4637 494 22.2261
95.5805 517 22.7376
95.6973 502 22.4054
95.8142 539 23.2164
95.9311 482 21.9545
96.048 476 21.8174
96.1649 481 21.9317
96.2819 538 23.1948
96.3989 514 22.6716
96.516 514 22.6716
96.633 511 22.6053
96.7501 550 23.4521
96.8673 514 22.6716
96.9844 480 21.9089
97.1016 534 23.1084
97.2188 491 22.1585
97.336 496 22.2711
97.4532 488 22.0907
97.5704 484 22
97.6877 498 22.3159
97.805 515 22.6936
97.9223 528 22.9783
98.0396 506 22.4944
98.1569 472 21.7256
98.2743 479 21.8861
98.3916 482 21.9545
98.509 483 21.9773
98.6264 488 22.0907
98.7438 525 22.9129
98.8612 487 22.0681
98.9786 518 22.7596
99.096 564 23.7487
99.2134 558 23.622
99.3308 520 22.8035
99.4482 543 23.3024
99.5656 530 23.0217
99.6831 564 23.7487
99.8005 489 22.1133
99.9179 562 23.7065
100.035 570 23.8747
100.153 548 23.4094
100.27 532 23.0651
100.388 548 23.4094
100.505 513 22.6495
100.622 508 22.5389
100.74 511 22.6053
100.857 509 22.561
100.975 492 22.1811
101.092 518 22.7596
101.209 533 23.0868
101.327 526 22.9347
101.444 543 23.3024
101.561 522 22.8473
101.679 517 22.7376
101.796 529 23
101.913 538 23.1948
102.03 506 22.4944
102.148 516 22.7156
102.265 534 23.1084
102.382 520 22.8035
102.499 518 22.7596
102.616 532 23.0651
102.733 561 23.6854
102.851 607 24.6374
102.968 567 23.8118
103.085 572 23.9165
103.202 571 23.8956
103.319 550 23.4521
103.436 526 22.9347
103.552 611 24.7184
103.669 556 23.5797
103.786 588 24.2487
103.903 553 23.516
104.02 570 23.8747
104.137 571 23.8956
104.253 544 23.3238
104.37 544 23.3238
104.487 522 22.8473
104.603 548 23.4094
104.72 551 23.4734
104.836 487 22.0681
104.953 479 21.8861
105.069 517 22.7376
105.186 460 21.4476
105.302 458 21.4009
105.418 386 19.6469
105.535 404 20.0998
105.651 338 18.3848
105.767 308 17.5499
105.883 272 16.4924
105.999 281 16.7631
106.115 0 1
106.231 0 1
106.347 0 1
106.463 0 1
106.579 0 1
106.694 0 1
106.81 0 1
106.926 0 1
107.041 0 1
107.157 0 1
109.576 0 1
109.692 0 1
109.807 0 1
109.923 0 1
110.039 0 1
110.155 0 1
110.27 0 1
110.386 0 1
110.502 0 1
110.618 257 16.0312
110.735 304 17.4356
110.851 340 18.4391
110.967 374 19.3391
111.083 408 20.199
111.199 459 21.4243
111.316 478 21.8632
111.432 484 22
111.549 508 22.5389
111.665 546 23.3666
111.782 542 23.2809
111.898 488 22.0907
112.015 496 22.2711
112.132 452 21.2603
112.248 466 21.587
112.365 439 20.9523
112.482 487 22.0681
112.599 513 22.6495
112.716 502 22.4054
112.832 549 23.4307
112.949 500 22.3607
113.066 476 21.8174
113.183 490 22.1359
113.3 469 21.6564
113.417 485 22.0227
113.534 475 21.7945
113.652 483 21.9773
113.769 492 22.1811
113.886 458 21.4009
114.003 459 21.4243
114.12 434 20.8327
114.238 458 21.4009
114.355 478 21.8632
114.472 409 20.2237
114.589 439 20.9523
114.707 416 20.3961
114.824 484 22
114.942 450 21.2132
115.059 493 22.2036
115.176 461 21.4709
115.294 532 23.0651
115.411 488 22.0907
115.529 452 21.2603
115.646 442 21.0238
115.764 465 21.5639
115.881 434 20.8327
115.999 456 21.3542
116.116 470 21.6795
116.234 469 21.6564
116.351 474 21.7715
116.469 441 21
116.586 447 21.1424
116.704 418 20.445
116.821 465 21.5639
116.939 432 20.7846
117.056 451 21.2368
117.174 470 21.6795
117.291 425 20.6155
117.409 440 20.9762
117.526 395 19.8746
117.644 435 20.8567
117.761 450 21.2132
117.879 416 20.3961
117.996 343 18.5203
118.114 407 20.1742
118.231 410 20.2485
118.349 431 20.7605
118.466 430 20.7364
118.584 448 21.166
118.701 449 21.1896
118.819 457 21.3776
118.936 464 21.5407
119.053 395 19.8746
119.171 465 21.5639
119.288 442 21.0238
119.405 398 19.9499
119.523 447 21.1424
119.64 436 20.8806
119.757 446 21.1187
119.875 435 20.8567
119.992 420 20.4939
120.109 417 20.4206
120.226 405 20.1246
120.343 423 20.567
120.46 399 19.975
120.578 416 20.3961
120.695 429 20.7123
120.812 422 20.5426
120.929 419 20.4695
121.046 399 19.975
121.163 393 19.8242
121.279 369 19.2094
121.396 359 18.9473
121.513 347 18.6279
121.63 358 18.9209
121.747 325 18.0278
121.863 335 18.303
121.98 374 19.3391
122.097 346 18.6011
122.213 343 18.5203
122.33 364 19.0788
122.446 299 17.2916
122.563 325 18.0278
122.679 301 17.3494
122.795 290 17.0294
122.912 281 16.7631
123.028 234 15.2971
123.144 232 15.2315
123.26 217 14.7309
123.377 0 1
123.493 0 1
123.609 0 1
123.725 0 1
123.84 0 1
123.956 0 1
124.072 0 1
124.188 0 1
124.303 0 1
124.419 0 1
126.852 0 1
126.968 0 1
127.083 0 1
127.199 0 1
127.315 0 1
127.431 0 1
127.547 0 1
127.663 0 1
127.779 0 1
127.895 0 1
128.011 0 1
128.127 0 1
128.243 0 1
128.359 492 22.1811
128.476 462 21.4942
128.592 459 21.4243
128.708 458 21.4009
128.825 495 22.2486
128.941 508 22.5389
129.058 468 21.6333
129.174 476 21.8174
129.291 495 22.2486
129.408 481 21.9317
129.524 568 23.8328
129.641 670 25.8844
129.758 748 27.3496
129.875 855 29.2404
129.992 1117 33.4215
130.108 1282 35.805
130.225 1358 36.8511
130.342 1440 37.9473
130.459 1557 39.4588
130.576 2006 44.7884
130.693 2734 52.2877
130.81 3757 61.2944
130.928 4993 70.6612
131.045 6386 79.9125
131.162 8090 89.9444
131.279 10210 101.045
131.396 12277 110.802
131.513 15182 123.215
131.631 18207 134.933
131.748 22021 148.395
131.865 26096 161.543
131.983 31191 176.61
132.1 35869 189.391
132.217 40399 200.995
132.335 43947 209.635
132.452 46587 215.84
132.57 48802 220.912
132.687 49864 223.302
132.804 52446 229.011
132.922 52240 228.561
133.039 52061 228.169
133.157 52182 228.434
133.274 51194 226.261
133.392 49090 221.563
133.509 45565 213.46
133.627 41340 203.322
133.744 35897 189.465
133.862 32675 180.762
133.979 31883 178.558
134.097 34288 185.17
134.214 38213 195.481
134.332 41479 203.664
134.449 42323 205.726
134.567 41579 203.909
134.684 39147 197.856
134.802 38204 195.458
134.919 37664 194.072
135.037 37526 193.716
135.154 36123 190.061
135.272 34811 186.577
135.389 32775 181.039
135.507 31112 176.386
135.624 29150 170.734
135.742 27197 164.915
135.859 25508 159.712
135.977 23730 154.045
136.094 22385 149.616
136.211 20864 144.444
136.329 19374 139.191
136.446 18032 134.283
136.564 16607 128.868
136.681 15325 123.794
136.798 13730 117.175
136.915 11745 108.374
137.033 9566 97.8059
137.15 7896 88.8594
137.267 6161 78.492
137.384 4713 68.6513
137.502 4070 63.7966
137.619 4774 69.0941
137.736 6195 78.7083
137.853 7443 86.2728
137.97 8190 90.4986
138.087 8053 89.7385
138.204 7921 89
138.321 7509 86.6545
138.438 7293 85.3991
138.555 7210 84.9117
138.672 6635 81.4555
138.788 6004 77.4855
138.905 5207 72.1595
139.022 4675 68.374
139.139 4286 65.4675
139.255 4182 64.6684
139.372 3850 62.0484
139.488 3548 59.5651
139.605 3291 57.3672
139.721 3086 55.5518
139.838 2858 53.4603
139.954 2656 51.5364
140.071 2506 50.06
140.187 2280 47.7493
140.303 2189 46.7868
140.419 2014 44.8776
140.535 1933 43.9659
140.652 1552 39.3954
140.768 0 1
140.884 0 1
141 0 1
141.115 0 1
141.231 0 1
141.347 0 1
141.463 0 1
141.578 0 1
141.694 0 1
144.104 0 1
144.219 0 1
144.335 0 1
144.45 0 1
144.566 0 1
144.682 0 1
144.798 0 1
144.914 0 1
145.03 0 1
145.146 3919 62.6019
145.262 4410 66.4078
145.378 4661 68.2715
145.494 4909 70.0643
145.61 5155 71.7983
145.726 5422 73.6342
145.842 5679 75.3591
145.959 5836 76.3937
146.075 5838 76.4068
146.192 6177 78.5939
146.308 6150 78.4219
146.425 6224 78.8923
146.541 6120 78.2304
146.658 5537 74.411
146.774 3874 62.2415
146.891 2681 51.7784
147.008 3363 57.9914
147.125 5022 70.8661
147.241 5854 76.5114
147.358 6057 77.8267
147.475 6130 78.2943
147.592 5980 77.3305
147.709 5754 75.8551
147.826 5466 73.9324
147.943 5320 72.9383
148.06 5047 71.0422
148.177 5047 71.0422
148.294 4812 69.3686
148.411 4631 68.0515
148.528 4293 65.521
148.645 3853 62.0725
148.762 3790 61.563
148.88 3648 60.3987
148.997 3587 59.8916
149.114 3194 56.5155
149.231 3173 56.3294
149.349 3141 56.0446
149.466 2870 53.5724
149.583 2741 52.3546
149.701 2701 51.9711
149.818 2596 50.951
149.935 2605 51.0392
150.053 2599 50.9804
150.17 2511 50.1099
150.287 2238 47.3075
150.405 1844 42.9418
150.522 1481 38.4838
150.64 1667 40.8289
150.757 1963 44.3058
150.875 2156 46.4327
150.992 2187 46.7654
151.11 2238 47.3075
151.227 2211 47.0213
151.344 2225 47.1699
151.462 2127 46.1194
151.579 2142 46.2817
151.697 2081 45.618
151.814 2199 46.8935
151.932 2264 47.5815
152.049 2206 46.9681
152.167 2219 47.1063
152.284 2163 46.5081
152.402 2205 46.9574
152.519 2176 46.6476
152.636 2200 46.9042
152.754 2204 46.9468
152.871 2155 46.422
152.989 2069 45.4863
153.106 2130 46.1519
153.223 2120 46.0435
153.341 2063 45.4203
153.458 2016 44.8999
153.575 2112 45.9565
153.693 2074 45.5412
153.81 1964 44.317
153.927 1869 43.2319
154.044 1461 38.223
154.162 1243 35.2562
154.279 1457 38.1707
154.396 1733 41.6293
154.513 1874 43.2897
154.63 1829 42.7668
154.747 1857 43.0929
154.864 1778 42.1663
154.981 1737 41.6773
155.098 1783 42.2256
155.215 1776 42.1426
155.332 1804 42.4735
155.449 1735 41.6533
155.566 1720 41.4729
155.683 1835 42.8369
155.8 1774 42.1189
155.917 1726 41.5452
156.033 1648 40.5956
156.15 0 1
156.267 0 1
156.383 0 1
156.5 0 1
156.617 0 1
156.733 0 1
156.85 0 1
156.966 0 1
157.082 0 1
157.199 0 1
157.315 0 1
157.431 0 1
157.547 0 1
157.664 0 1
157.78 0 1
157.896 0 1
158.012 0 1
158.128 0 1
158.244 0 1
158.359 0 1
158.475 0 1
158.591 0 1
158.706 0 1
