
6.15755 0 1
6.2731 0 1
6.3887 0 1
6.50437 0 1
6.62009 0 1
6.73587 0 1
6.8517 0 1
6.96759 0 1
7.08353 0 1
7.19952 0 1
7.31557 0 1
7.43166 0 1
7.54781 0 1
7.664 0 1
7.78024 0 1
7.89653 0 1
8.01286 0 1
8.12924 0 1
8.24567 0 1
8.36213 0 1
8.47864 0 1
8.59519 0 1
8.71178 0 1
8.82841 0 1
8.94508 0 1
9.06179 0 1
9.17853 0 1
9.29531 0 1
9.41212 0 1
9.52897 0 1
9.64584 0 1
9.76276 0 1
9.8797 0 1
9.99667 0 1
10.1137 0 1
10.2307 0 1
10.3478 0 1
10.4648 0 1
10.5819 0 1
10.6991 0 1
10.8162 0 1
10.9334 0 1
11.0506 0 1
11.1678 0 1
11.285 0 1
11.4023 0 1
11.5196 0 1
11.6369 0 1
11.7542 0 1
11.8715 0 1
11.9888 0 1
12.1062 0 1
12.2235 0 1
12.3409 0 1
12.4582 0 1
12.5756 0 1
12.693 0 1
12.8104 0 1
12.9278 0 1
13.0452 0 1
13.1626 0 1
13.28 0 1
13.3974 0 1
13.5149 0 1
13.6323 0 1
13.7497 0 1
13.8671 0 1
13.9845 0 1
14.1019 0 1
14.2193 0 1
14.3367 0 1
14.4541 0 1
14.5714 0 1
14.6888 0 1
14.8062 0 1
14.9235 0 1
15.0408 7988 89.3756
15.1581 8518 92.293
15.2755 8871 94.186
15.3927 9059 95.1788
15.51 8861 94.1329
15.6273 8764 93.6162
15.7445 8648 92.9946
15.8617 8470 92.0326
15.9789 8393 91.6133
16.0961 7985 89.3588
16.2132 8078 89.8777
16.3304 7882 88.7806
16.4475 7828 88.476
16.5646 7638 87.3957
16.6816 7410 86.0814
16.7986 7291 85.3874
16.9156 7226 85.0059
17.0326 7041 83.9107
17.1496 7004 83.6899
17.2665 6800 82.4621
17.3833 6804 82.4864
17.5002 6993 83.6242
17.617 6764 82.2435
17.7338 7098 84.2496
17.8505 7022 83.7974
17.9672 7529 86.7698
18.0839 7538 86.8217
18.2005 7771 88.1533
18.3171 7831 88.4929
18.4337 7905 88.9101
18.5502 7997 89.4259
18.6666 8172 90.3991
18.7831 8340 91.3236
18.8994 8251 90.835
19.0158 8016 89.5321
19.1321 7780 88.2043
19.2483 7404 86.0465
19.3645 7062 84.0357
19.4806 6535 80.8393
19.5967 6399 79.9937
19.7128 6100 78.1025
19.8288 5484 74.054
19.9447 4935 70.2496
20.0606 0 1
20.1764 0 1
20.2922 0 1
20.4079 0 1
20.5236 0 1
20.6392 0 1
20.7548 0 1
20.8702 0 1
23.3078 0 1
23.4233 0 1
23.539 0 1
23.6547 0 1
23.7704 0 1
23.8862 0 1
24.0021 0 1
24.118 0 1
24.234 0 1
24.35 0 1
24.4661 3534 59.4475
24.5822 3904 62.482
24.6984 4331 65.8103
24.8146 5010 70.7814
24.9309 5491 74.1013
25.0472 6073 77.9295
25.1636 6696 81.8291
25.28 7037 83.8868
25.3965 7424 86.1626
25.513 7754 88.0568
25.6296 7928 89.0393
25.7462 8083 89.9055
25.8628 8148 90.2663
25.9795 8315 91.1866
26.0962 8159 90.3272
26.213 8141 90.2275
26.3298 8188 90.4876
26.4466 8166 90.3659
26.5635 8137 90.2053
26.6804 8271 90.945
26.7973 8444 91.8912
26.9143 8277 90.978
27.0313 8287 91.033
27.1483 8336 91.3017
27.2653 8453 91.9402
27.3824 8505 92.2226
27.4996 8888 94.2762
27.6167 8810 93.8616
27.7339 8407 91.6897
27.8511 8342 91.3345
27.9683 8365 91.4604
28.0855 7924 89.0169
28.2028 8178 90.4323
28.3201 8095 89.9722
28.4374 8245 90.802
28.5547 8209 90.6035
28.6721 8206 90.587
28.7894 8373 91.5041
28.9068 8368 91.4768
29.0242 8367 91.4713
29.1416 8207 90.5925
29.259 7970 89.2749
29.3764 7941 89.1123
29.4939 7929 89.0449
29.6113 7816 88.4081
29.7288 7979 89.3252
29.8463 7926 89.0281
29.9638 7947 89.1459
30.0812 8209 90.6035
30.1987 8540 92.4121
30.3162 8282 91.0055
30.4337 8333 91.2853
30.5512 8320 91.214
30.6687 8289 91.0439
30.7862 8524 92.3255
30.9037 8691 93.2255
31.0212 8985 94.7892
31.1387 8938 94.541
31.2562 8760 93.5949
31.3737 8628 92.887
31.4912 8721 93.3863
31.6087 8633 92.9139
31.7262 8291 91.0549
31.8436 8294 91.0714
31.9611 8403 91.6679
32.0785 8381 91.5478
32.1959 8261 90.89
32.3134 8349 91.3729
32.4308 8607 92.7739
32.5482 8482 92.0978
32.6655 8355 91.4057
32.7829 8232 90.7304
32.9002 8002 89.4539
33.0176 8135 90.1942
33.1349 8032 89.6214
33.2522 8108 90.0444
33.3694 8298 91.0934
33.4867 8175 90.4157
33.6039 8262 90.8955
33.7211 8425 91.7878
33.8383 8408 91.6951
33.9554 8475 92.0598
34.0725 8423 91.7769
34.1896 8421 91.766
34.3067 8460 91.9783
34.4237 8491 92.1466
34.5407 8857 94.1116
34.6577 9109 95.4411
34.7746 9265 96.2549
34.8915 9027 95.0105
35.0084 8670 93.1128
35.1252 8907 94.3769
35.242 8574 92.5959
35.3587 8490 92.1412
35.4755 8457 91.9619
35.5921 8554 92.4878
35.7088 8363 91.4494
35.8254 8386 91.5751
35.9419 8334 91.2907
36.0584 8340 91.3236
36.1749 8306 91.1373
36.2913 8223 90.6808
36.4077 7790 88.261
36.524 7212 84.9235
36.6403 6666 81.6456
36.7565 6447 80.2932
36.8727 6031 77.6595
36.9889 5467 73.9392
37.1049 4925 70.1783
37.221 0 1
37.3369 0 1
37.4529 0 1
37.5687 0 1
37.6845 0 1
37.8003 0 1
37.916 0 1
38.0316 0 1
38.1472 0 1
40.5851 0 1
40.7008 0 1
40.8164 0 1
40.9322 0 1
41.048 0 1
41.1639 0 1
41.2798 0 1
41.3958 0 1
41.5118 0 1
41.6279 0 1
41.744 4479 66.9253
41.8602 5466 73.9324
41.9765 6054 77.8075
42.0928 6777 82.3225
42.2091 7314 85.5219
42.3255 7817 88.4138
42.4419 8240 90.7744
42.5584 8570 92.5743
42.675 8825 93.9415
42.7915 9014 94.9421
42.9081 9017 94.9579
43.0248 9128 95.5406
43.1415 9455 97.2368
43.2582 9936 99.6795
43.375 10542 102.674
43.4918 11157 105.627
43.6087 11517 107.317
43.7256 11705 108.19
43.8425 11681 108.079
43.9595 11823 108.734
44.0765 11988 109.49
44.1935 11884 109.014
44.3106 12289 110.856
44.4277 12284 110.833
44.5448 12228 110.58
44.6619 12274 110.788
44.7791 12306 110.932
44.8963 12533 111.951
45.0136 12445 111.557
45.1308 12328 111.032
45.2481 12287 110.847
45.3654 12113 110.059
45.4827 12004 109.563
45.6001 11602 107.713
45.7174 11489 107.187
45.8348 11373 106.644
45.9522 11389 106.719
46.0697 11037 105.057
46.1871 10928 104.537
46.3046 10607 102.99
46.422 10107 100.534
46.5395 9727 98.6256
46.657 9945 99.7246
46.7745 10340 101.686
46.892 10688 103.383
47.0096 10999 104.876
47.1271 11268 106.151
47.2446 10894 104.374
47.3622 10770 103.779
47.4797 10643 103.165
47.5973 10434 102.147
47.7149 10300 101.489
47.8324 10105 100.524
47.95 9780 98.8939
48.0675 9787 98.9293
48.1851 9707 98.5241
48.3027 9588 97.9183
48.4202 9381 96.8556
48.5378 9338 96.6333
48.6554 9256 96.2081
48.7729 9134 95.572
48.8904 9192 95.8749
49.008 8982 94.7734
49.1255 9118 95.4882
49.243 8967 94.6942
49.3605 8791 93.7603
49.478 8817 93.8989
49.5955 8805 93.835
49.713 8769 93.6429
49.8304 8546 92.4446
49.9479 8530 92.358
50.0653 8541 92.4175
50.1827 8795 93.7817
50.3001 9188 95.8541
50.4175 9395 96.9278
50.5348 9854 99.2673
50.6521 9982 99.91
50.7694 10336 101.666
50.8867 10267 101.326
51.004 10143 100.712
51.1212 10404 102
51.2384 10180 100.896
51.3556 10287 101.425
51.4727 9884 99.4183
51.5899 9857 99.2824
51.707 9761 98.7978
51.824 9720 98.5901
51.9411 9645 98.209
52.0581 9559 97.7701
52.175 9496 97.4474
52.2919 9171 95.7653
52.4088 9181 95.8175
52.5257 9268 96.2705
52.6425 9118 95.4882
52.7593 8881 94.2391
52.876 8754 93.5628
52.9927 8976 94.7418
53.1094 8780 93.7017
53.226 8943 94.5674
53.3426 8447 91.9076
53.4591 7792 88.2723
53.5756 7740 87.9773
53.692 7368 85.8371
53.8084 7196 84.8292
53.9248 6769 82.2739
54.0411 6417 80.1062
54.1573 5841 76.4264
54.2735 0 1
54.3896 0 1
54.5057 0 1
54.6217 0 1
54.7377 0 1
54.8537 0 1
54.9695 0 1
55.0853 0 1
55.2011 0 1
55.3168 0 1
55.4324 0 1
57.824 0 1
57.9396 0 1
58.0553 0 1
58.1711 0 1
58.2869 0 1
58.4028 0 1
58.5187 0 1
58.6347 0 1
58.7508 0 1
58.8669 0 1
58.983 7930 89.0505
59.0992 9012 94.9316
59.2155 10152 100.757
59.3318 11120 105.451
59.4482 11992 109.508
59.5646 12771 113.009
59.681 13221 114.983
59.7975 13441 115.935
59.9141 13364 115.603
60.0306 13248 115.1
60.1473 13284 115.256
60.2639 13181 114.809
60.3807 13318 115.404
60.4974 13251 115.113
60.6142 13216 114.961
60.731 12942 113.763
60.8479 12822 113.234
60.9648 12698 112.685
61.0818 12581 112.165
61.1987 12996 114
61.3158 12732 112.836
61.4328 12809 113.177
61.5499 12815 113.203
61.667 12631 112.388
61.7841 12706 112.721
61.9013 12662 112.526
62.0185 12328 111.032
62.1357 12618 112.33
62.253 12792 113.102
62.3702 12917 113.653
62.4875 13564 116.465
62.6049 14227 119.277
62.7222 14534 120.557
62.8396 15186 123.231
62.9569 15357 123.923
63.0743 15588 124.852
63.1918 15483 124.431
63.3092 15354 123.911
63.4267 15217 123.357
63.5441 14775 121.552
63.6616 14397 119.987
63.7791 14130 118.87
63.8966 14041 118.495
64.0142 14074 118.634
64.1317 13646 116.816
64.2492 13397 115.745
64.3668 13265 115.174
64.4843 12957 113.829
64.6019 13036 114.175
64.7195 13031 114.153
64.837 13076 114.35
64.9546 13150 114.673
65.0722 13034 114.167
65.1898 13005 114.039
65.3074 12844 113.331
65.4249 12747 112.903
65.5425 12591 112.21
65.6601 12663 112.53
65.7777 12777 113.035
65.8952 13113 114.512
66.0128 13775 117.367
66.1304 14390 119.958
66.2479 14954 122.287
66.3655 15282 123.62
66.483 16012 126.539
66.6005 16078 126.799
66.718 16099 126.882
66.8355 15813 125.75
66.953 15734 125.435
67.0705 15505 124.519
67.1879 14942 122.237
67.3054 14499 120.412
67.4228 14374 119.892
67.5402 13888 117.847
67.6576 14002 118.33
67.7749 13630 116.748
67.8923 13266 115.178
68.0096 13248 115.1
68.1269 13150 114.673
68.2442 13374 115.646
68.3614 13645 116.812
68.4787 13624 116.722
68.5958 13644 116.808
68.713 13411 115.806
68.8302 13492 116.155
68.9473 13184 114.822
69.0643 12692 112.659
69.1814 12397 111.342
69.2984 12108 110.036
69.4154 12174 110.336
69.5323 12599 112.245
69.6492 13141 114.634
69.7661 13694 117.021
69.8829 13974 118.212
69.9997 14262 119.424
70.1165 14107 118.773
70.2332 13784 117.405
70.3499 13605 116.64
70.4665 12994 113.991
70.5831 11938 109.261
70.6996 10856 104.192
70.8161 9700 98.4886
70.9326 8909 94.3875
71.049 8176 90.4212
71.1653 7715 87.8351
71.2817 7319 85.5512
71.3979 6678 81.719
71.5141 6395 79.9687
71.6303 5983 77.3499
71.7464 5330 73.0068
71.8624 0 1
71.9784 0 1
72.0944 0 1
72.2102 0 1
72.3261 0 1
72.4418 0 1
72.5575 0 1
72.6732 0 1
75.1054 0 1
75.2209 0 1
75.3365 0 1
75.4521 0 1
75.5678 0 1
75.6835 0 1
75.7993 0 1
75.9151 0 1
76.031 0 1
76.147 10772 103.788
76.263 11674 108.046
76.3791 11905 109.11
76.4952 12102 110.009
76.6113 12129 110.132
76.7276 12110 110.045
76.8438 12395 111.333
76.9601 12622 112.348
77.0765 12466 111.651
77.1929 12843 113.327
77.3093 13353 115.555
77.4258 13400 115.758
77.5423 13505 116.211
77.6589 13405 115.78
77.7755 13590 116.576
77.8921 13227 115.009
78.0088 12545 112.004
78.1256 12301 110.91
78.2423 11964 109.38
78.3591 11873 108.963
78.4759 12370 111.221
78.5928 13378 115.663
78.7097 14246 119.357
78.8266 14751 121.454
78.9436 15347 123.883
79.0606 15271 123.576
79.1776 15960 126.333
79.2946 16475 128.355
79.4117 16566 128.709
79.5288 16655 129.054
79.6459 16669 129.108
79.7631 16186 127.224
79.8802 15725 125.399
79.9974 14659 121.074
80.1147 14518 120.491
80.2319 14635 120.975
80.3491 14500 120.416
80.4664 14548 120.615
80.5837 14708 121.277
80.701 14327 119.695
80.8183 14265 119.436
80.9357 14698 121.235
81.053 15221 123.373
81.1704 15219 123.365
81.2877 15179 123.203
81.4051 15225 123.39
81.5225 14948 122.262
81.6399 14809 121.692
81.7573 13617 116.692
81.8747 13371 115.633
81.9922 12879 113.486
82.1096 13462 116.026
82.227 14493 120.387
82.3444 15524 124.595
82.4619 16430 128.18
82.5793 16956 130.215
82.6967 17015 130.442
82.8142 17437 132.049
82.9316 18284 135.218
83.049 18395 135.628
83.1664 18304 135.292
83.2838 18218 134.974
83.4012 17658 132.883
83.5186 16848 129.8
83.636 16070 126.768
83.7534 16001 126.495
83.8708 15983 126.424
83.9881 16021 126.574
84.1055 16156 127.106
84.2228 16173 127.173
84.3401 16115 126.945
84.4575 16290 127.632
84.5747 16718 129.298
84.692 16838 129.761
84.8093 17395 131.89
84.9265 17105 130.786
85.0437 16817 129.68
85.1609 16284 127.609
85.2781 15365 123.956
85.3952 14731 121.371
85.5123 14230 119.29
85.6294 14198 119.155
85.7465 15264 123.548
85.8636 16391 128.027
85.9806 17237 131.29
86.0976 17964 134.03
86.2145 18201 134.911
86.3315 18483 135.952
86.4484 19095 138.185
86.5652 19500 139.642
86.682 19090 138.167
86.7988 19499 139.639
86.9156 18834 137.237
87.0323 18539 136.158
87.149 18029 134.272
87.2657 17463 132.148
87.3823 16809 129.65
87.4988 16032 126.618
87.6154 15672 125.188
87.7318 14925 122.168
87.8483 14342 119.758
87.9647 13289 115.278
88.081 12436 111.517
88.1973 12205 110.476
88.3136 11486 107.173
88.4298 10408 102.02
88.546 9836 99.1766
88.6621 8873 94.1966
88.7781 8023 89.5712
88.8942 0 1
89.0101 0 1
89.126 0 1
89.2419 0 1
89.3577 0 1
89.4734 0 1
89.5891 0 1
89.7047 0 1
89.8203 0 1
89.9358 0 1
92.3269 0 1
92.4424 0 1
92.558 0 1
92.6736 0 1
92.7893 0 1
92.905 0 1
93.0208 0 1
93.1366 0 1
93.2525 0 1
93.3685 0 1
93.4845 0 1
93.6005 15512 124.547
93.7167 17233 131.275
93.8328 18484 135.956
93.949 19380 139.212
94.0653 20014 141.471
94.1816 19951 141.248
94.2979 20137 141.905
94.4143 19200 138.564
94.5307 17925 133.884
94.6472 17270 131.415
94.7637 17076 130.675
94.8803 17574 132.567
94.9969 18440 135.794
95.1135 19822 140.791
95.2302 20710 143.91
95.3469 21525 146.714
95.4637 22762 150.871
95.5805 23159 152.181
95.6973 23180 152.25
95.8142 23597 153.613
95.9311 23317 152.699
96.048 23534 153.408
96.1649 23322 152.715
96.2819 22817 151.053
96.3989 22195 148.98
96.516 21795 147.631
96.633 21293 145.921
96.7501 21428 146.383
96.8673 21694 147.289
96.9844 21394 146.267
97.1016 21675 147.224
97.2188 21436 146.41
97.336 21958 148.182
97.4532 22445 149.817
97.5704 22808 151.023
97.6877 23116 152.039
97.805 22985 151.608
97.9223 22517 150.057
98.0396 21131 145.365
98.1569 19930 141.174
98.2743 18762 136.974
98.3916 18244 135.07
98.509 18182 134.841
98.6264 19430 139.392
98.7438 20482 143.115
98.8612 22068 148.553
98.9786 23110 152.02
99.096 24055 155.097
99.2134 24712 157.201
99.3308 25225 158.824
99.4482 25734 160.418
99.5656 25803 160.633
99.6831 25710 160.343
99.8005 25439 159.496
99.9179 24649 157
100.035 23777 154.198
100.153 23346 152.794
100.27 23323 152.719
100.388 23080 151.921
100.505 22845 151.146
100.622 22621 150.403
100.74 22842 151.136
100.857 22953 151.502
100.975 22885 151.278
101.092 23635 153.737
101.209 24474 156.442
101.327 23860 154.467
101.444 24111 155.277
101.561 22963 151.535
101.679 21722 147.384
101.796 20457 143.028
101.913 19446 139.449
102.03 19160 138.42
102.148 19874 140.975
102.265 20788 144.18
102.382 22809 151.026
102.499 24175 155.483
102.616 24918 157.854
102.733 25012 158.152
102.851 26051 161.403
102.968 26174 161.784
103.085 26574 163.015
103.202 26504 162.8
103.319 26012 161.282
103.436 24862 157.677
103.552 24489 156.49
103.669 23868 154.493
103.786 23651 153.789
103.903 23215 152.365
104.02 22966 151.545
104.137 22994 151.638
104.253 22509 150.03
104.37 23070 151.888
104.487 22882 151.268
104.603 23208 152.342
104.72 23350 152.807
104.836 22167 148.886
104.953 20784 144.167
105.069 18858 137.324
105.186 17248 131.332
105.302 15602 124.908
105.418 14089 118.697
105.535 12674 112.579
105.651 11812 108.683
105.767 11339 106.485
105.883 11142 105.556
105.999 10922 104.508
106.115 0 1
106.231 0 1
106.347 0 1
106.463 0 1
106.579 0 1
106.694 0 1
106.81 0 1
106.926 0 1
107.041 0 1
107.157 0 1
109.576 0 1
109.692 0 1
109.807 0 1
109.923 0 1
110.039 0 1
110.155 0 1
110.27 0 1
110.386 0 1
110.502 0 1
110.618 10350 101.735
110.735 12770 113.004
110.851 15093 122.854
110.967 17408 131.939
111.083 19460 139.499
111.199 21029 145.014
111.316 21647 147.129
111.432 22308 149.359
111.549 22880 151.261
111.665 22792 150.97
111.782 23112 152.026
111.898 22802 151.003
112.015 22497 149.99
112.132 21782 147.587
112.248 21808 147.675
112.365 21534 146.745
112.482 20903 144.579
112.599 21314 145.993
112.716 20866 144.451
112.832 20756 144.069
112.949 20618 143.59
113.066 20629 143.628
113.183 21497 146.619
113.3 21590 146.935
113.417 21786 147.601
113.534 21447 146.448
113.652 21028 145.01
113.769 20024 141.506
113.886 18585 136.327
114.003 17673 132.94
114.12 17207 131.175
114.238 17508 132.318
114.355 18471 135.908
114.472 19162 138.427
114.589 22327 149.422
114.707 22905 151.344
114.824 23436 153.088
114.942 23022 151.73
115.059 23475 153.216
115.176 23818 154.331
115.294 23292 152.617
115.411 23609 153.652
115.529 22895 151.311
115.646 22175 148.913
115.764 21662 147.18
115.881 21228 145.698
115.999 20672 143.778
116.116 20536 143.304
116.234 20330 142.583
116.351 20351 142.657
116.469 20140 141.915
116.586 19848 140.883
116.704 20411 142.867
116.821 20605 143.544
116.939 21195 145.585
117.056 20917 144.627
117.174 20536 143.304
117.291 19634 140.121
117.409 18793 137.088
117.526 17629 132.774
117.644 16695 129.209
117.761 16714 129.283
117.879 17287 131.48
117.996 18441 135.798
118.114 20010 141.457
118.231 21276 145.863
118.349 21822 147.723
118.466 22286 149.285
118.584 21730 147.411
118.701 22097 148.651
118.819 21735 147.428
118.936 21859 147.848
119.053 21835 147.767
119.171 21223 145.681
119.288 20482 143.115
119.405 19962 141.287
119.523 19623 140.082
119.64 19274 138.831
119.757 19007 137.866
119.875 18656 136.587
119.992 18448 135.823
120.109 18266 135.152
120.226 18357 135.488
120.343 18590 136.345
120.46 18664 136.616
120.578 19057 138.047
120.695 18740 136.894
120.812 18436 135.779
120.929 17825 133.51
121.046 16821 129.696
121.163 15854 125.913
121.279 14660 121.078
121.396 14196 119.147
121.513 14128 118.861
121.63 14289 119.537
121.747 15121 122.967
121.863 15360 123.935
121.98 16354 127.883
122.097 16039 126.645
122.213 15420 124.177
122.33 14466 120.275
122.446 14040 118.491
122.563 12978 113.921
122.679 12213 110.512
122.795 11613 107.764
122.912 10844 104.135
123.028 9982 99.91
123.144 9332 96.6023
123.26 8615 92.817
123.377 0 1
123.493 0 1
123.609 0 1
123.725 0 1
123.84 0 1
123.956 0 1
124.072 0 1
124.188 0 1
124.303 0 1
124.419 0 1
126.852 0 1
126.968 0 1
127.083 0 1
127.199 0 1
127.315 0 1
127.431 0 1
127.547 0 1
127.663 0 1
127.779 0 1
127.895 0 1
128.011 0 1
128.127 0 1
128.243 0 1
128.359 19212 138.607
128.476 19389 139.244
128.592 19223 138.647
128.708 18642 136.536
128.825 18870 137.368
128.941 18069 134.421
129.058 18307 135.303
129.174 18309 135.311
129.291 18459 135.864
129.408 18638 136.521
129.524 18904 137.492
129.641 18555 136.217
129.758 18886 137.426
129.875 18697 136.737
129.992 18464 135.882
130.108 17496 132.272
130.225 16577 128.752
130.342 15748 125.491
130.459 15247 123.479
130.576 15807 125.726
130.693 16356 127.891
130.81 17470 132.174
130.928 18352 135.47
131.045 19381 139.216
131.162 19688 140.314
131.279 19799 140.709
131.396 20115 141.827
131.513 19900 141.067
131.631 19556 139.843
131.748 19800 140.712
131.865 19444 139.442
131.983 19459 139.496
132.1 19266 138.802
132.217 18937 137.612
132.335 18583 136.319
132.452 18158 134.752
132.57 18283 135.215
132.687 18499 136.011
132.804 18053 134.361
132.922 18298 135.27
133.039 18455 135.849
133.157 18365 135.518
133.274 18755 136.949
133.392 18874 137.383
133.509 18501 136.018
133.627 18061 134.391
133.744 17590 132.627
133.862 16902 130.008
133.979 16390 128.023
134.097 16064 126.744
134.214 16351 127.871
134.332 17025 130.48
134.449 18667 136.627
134.567 19750 140.535
134.684 20621 143.6
134.802 20868 144.458
134.919 20806 144.243
135.037 21028 145.01
135.154 20580 143.457
135.272 20586 143.478
135.389 20840 144.361
135.507 21179 145.53
135.624 20931 144.675
135.742 20779 144.149
135.859 20684 143.819
135.977 20411 142.867
136.094 20479 143.105
136.211 20177 142.046
136.329 20352 142.66
136.446 20376 142.745
136.564 20342 142.625
136.681 20410 142.864
136.798 20487 143.133
136.915 20516 143.234
137.033 20349 142.65
137.15 20628 143.625
137.267 19688 140.314
137.384 19193 138.539
137.502 18277 135.192
137.619 17131 130.885
137.736 16748 129.414
137.853 16616 128.903
137.97 17726 133.139
138.087 18977 137.757
138.204 20174 142.035
138.321 20216 142.183
138.438 20480 143.108
138.555 20541 143.321
138.672 20476 143.094
138.788 19628 140.1
138.905 18973 137.743
139.022 18390 135.61
139.139 17590 132.627
139.255 16838 129.761
139.372 16042 126.657
139.488 15157 123.114
139.605 14102 118.752
139.721 13065 114.302
139.838 12445 111.557
139.954 11790 108.582
140.071 11351 106.541
140.187 10735 103.61
140.303 10137 100.683
140.419 9644 98.2039
140.535 9258 96.2185
140.652 8759 93.5895
140.768 0 1
140.884 0 1
141 0 1
141.115 0 1
141.231 0 1
141.347 0 1
141.463 0 1
141.578 0 1
141.694 0 1
144.104 0 1
144.219 0 1
144.335 0 1
144.45 0 1
144.566 0 1
144.682 0 1
144.798 0 1
144.914 0 1
145.03 0 1
145.146 14740 121.408
145.262 15206 123.313
145.378 15282 123.62
145.494 15508 124.531
145.61 15459 124.334
145.726 15538 124.652
145.842 15649 125.096
145.959 15567 124.768
146.075 15152 123.093
146.192 15015 122.536
146.308 14528 120.532
146.425 13939 118.064
146.541 13531 116.323
146.658 13217 114.965
146.774 13409 115.797
146.891 14318 119.658
147.008 15399 124.093
147.125 16028 126.602
147.241 16040 126.649
147.358 16502 128.46
147.475 16241 127.44
147.592 16011 126.535
147.709 16022 126.578
147.826 15925 126.194
147.943 16021 126.574
148.06 16673 129.124
148.177 16120 126.965
148.294 16283 127.605
148.411 16072 126.775
148.528 15971 126.376
148.645 15763 125.551
148.762 16015 126.55
148.88 15637 125.048
148.997 15834 125.833
149.114 15011 122.519
149.231 15555 124.72
149.349 15366 123.96
149.466 15620 124.98
149.583 15311 123.738
149.701 15356 123.919
149.818 15243 123.463
149.935 14807 121.684
150.053 14248 119.365
150.17 13828 117.593
150.287 13454 115.991
150.405 13437 115.918
150.522 13889 117.852
150.64 14777 121.561
150.757 15560 124.74
150.875 15996 126.475
150.992 16187 127.228
151.11 16141 127.047
151.227 15672 125.188
151.344 15528 124.611
151.462 15899 126.091
151.579 15940 126.254
151.697 16354 127.883
151.814 16202 127.287
151.932 16211 127.322
152.049 15853 125.909
152.167 15667 125.168
152.284 15661 125.144
152.402 15470 124.378
152.519 15141 123.049
152.636 15104 122.898
152.754 15026 122.581
152.871 14869 121.939
152.989 15023 122.568
153.106 15070 122.76
153.223 15060 122.719
153.341 14862 121.91
153.458 14592 120.797
153.575 14355 119.812
153.693 13574 116.508
153.81 13392 115.724
153.927 13061 114.285
154.044 13287 115.269
154.162 14020 118.406
154.279 14684 121.178
154.396 15191 123.252
154.513 15379 124.012
154.63 15613 124.952
154.747 15591 124.864
154.864 15427 124.205
154.981 15250 123.491
155.098 15194 123.264
155.215 15480 124.419
155.332 14996 122.458
155.449 15202 123.296
155.566 14763 121.503
155.683 14393 119.971
155.8 14224 119.264
155.917 13694 117.021
156.033 13377 115.659
156.15 0 1
156.267 0 1
156.383 0 1
156.5 0 1
156.617 0 1
156.733 0 1
156.85 0 1
156.966 0 1
157.082 0 1
157.199 0 1
157.315 0 1
157.431 0 1
157.547 0 1
157.664 0 1
157.78 0 1
157.896 0 1
158.012 0 1
158.128 0 1
158.244 0 1
158.359 0 1
158.475 0 1
158.591 0 1
158.706 0 1
