
6.15755 0 1
6.2731 0 1
6.3887 0 1
6.50437 0 1
6.62009 0 1
6.73587 0 1
6.8517 0 1
6.96759 0 1
7.08353 0 1
7.19952 0 1
7.31557 0 1
7.43166 0 1
7.54781 0 1
7.664 0 1
7.78024 0 1
7.89653 0 1
8.01286 0 1
8.12924 0 1
8.24567 0 1
8.36213 0 1
8.47864 0 1
8.59519 0 1
8.71178 0 1
8.82841 0 1
8.94508 0 1
9.06179 0 1
9.17853 0 1
9.29531 0 1
9.41212 0 1
9.52897 0 1
9.64584 0 1
9.76276 0 1
9.8797 0 1
9.99667 0 1
10.1137 0 1
10.2307 0 1
10.3478 0 1
10.4648 0 1
10.5819 0 1
10.6991 0 1
10.8162 0 1
10.9334 0 1
11.0506 0 1
11.1678 0 1
11.285 0 1
11.4023 0 1
11.5196 0 1
11.6369 0 1
11.7542 0 1
11.8715 0 1
11.9888 0 1
12.1062 0 1
12.2235 0 1
12.3409 0 1
12.4582 0 1
12.5756 0 1
12.693 0 1
12.8104 0 1
12.9278 0 1
13.0452 0 1
13.1626 0 1
13.28 0 1
13.3974 0 1
13.5149 0 1
13.6323 0 1
13.7497 0 1
13.8671 0 1
13.9845 0 1
14.1019 0 1
14.2193 0 1
14.3367 0 1
14.4541 0 1
14.5714 0 1
14.6888 0 1
14.8062 0 1
14.9235 0 1
15.0408 1027 32.0468
15.1581 1100 33.1662
15.2755 1104 33.2265
15.3927 1066 32.6497
15.51 970 31.1448
15.6273 939 30.6431
15.7445 944 30.7246
15.8617 943 30.7083
15.9789 942 30.692
16.0961 938 30.6268
16.2132 953 30.8707
16.3304 942 30.692
16.4475 998 31.5911
16.5646 867 29.4449
16.6816 865 29.4109
16.7986 906 30.0998
16.9156 838 28.9482
17.0326 875 29.5804
17.1496 828 28.775
17.2665 873 29.5466
17.3833 836 28.9137
17.5002 866 29.4279
17.617 856 29.2575
17.7338 864 29.3939
17.8505 860 29.3258
17.9672 900 30
18.0839 815 28.5482
18.2005 864 29.3939
18.3171 856 29.2575
18.4337 827 28.7576
18.5502 877 29.6142
18.6666 901 30.0167
18.7831 852 29.189
18.8994 766 27.6767
19.0158 768 27.7128
19.1321 743 27.258
19.2483 766 27.6767
19.3645 722 26.8701
19.4806 705 26.5518
19.5967 678 26.0384
19.7128 667 25.8263
19.8288 614 24.779
19.9447 572 23.9165
20.0606 0 1
20.1764 0 1
20.2922 0 1
20.4079 0 1
20.5236 0 1
20.6392 0 1
20.7548 0 1
20.8702 0 1
23.3078 0 1
23.4233 0 1
23.539 0 1
23.6547 0 1
23.7704 0 1
23.8862 0 1
24.0021 0 1
24.118 0 1
24.234 0 1
24.35 0 1
24.4661 338 18.3848
24.5822 406 20.1494
24.6984 466 21.587
24.8146 571 23.8956
24.9309 668 25.8457
25.0472 717 26.7769
25.1636 722 26.8701
25.28 817 28.5832
25.3965 934 30.5614
25.513 911 30.1828
25.6296 914 30.2324
25.7462 937 30.6105
25.8628 967 31.0966
25.9795 860 29.3258
26.0962 942 30.692
26.213 875 29.5804
26.3298 918 30.2985
26.4466 816 28.5657
26.5635 797 28.2312
26.6804 789 28.0891
26.7973 745 27.2947
26.9143 745 27.2947
27.0313 795 28.1957
27.1483 748 27.3496
27.2653 858 29.2916
27.3824 816 28.5657
27.4996 832 28.8444
27.6167 828 28.775
27.7339 815 28.5482
27.8511 803 28.3373
27.9683 764 27.6405
28.0855 779 27.9106
28.2028 793 28.1603
28.3201 882 29.6985
28.4374 874 29.5635
28.5547 875 29.5804
28.6721 874 29.5635
28.7894 923 30.3809
28.9068 885 29.7489
29.0242 932 30.5287
29.1416 844 29.0517
29.259 882 29.6985
29.3764 858 29.2916
29.4939 883 29.7153
29.6113 935 30.5778
29.7288 965 31.0644
29.8463 911 30.1828
29.9638 957 30.9354
30.0812 862 29.3598
30.1987 911 30.1828
30.3162 873 29.5466
30.4337 905 30.0832
30.5512 963 31.0322
30.6687 1015 31.8591
30.7862 1076 32.8024
30.9037 1104 33.2265
31.0212 1055 32.4808
31.1387 1032 32.1248
31.2562 1090 33.0151
31.3737 1028 32.0624
31.4912 990 31.4643
31.6087 924 30.3974
31.7262 991 31.4802
31.8436 939 30.6431
31.9611 1012 31.8119
32.0785 930 30.4959
32.1959 984 31.3688
32.3134 940 30.6594
32.4308 939 30.6431
32.5482 908 30.133
32.6655 894 29.8998
32.7829 914 30.2324
32.9002 932 30.5287
33.0176 872 29.5296
33.1349 964 31.0483
33.2522 904 30.0666
33.3694 938 30.6268
33.4867 963 31.0322
33.6039 920 30.3315
33.7211 883 29.7153
33.8383 865 29.4109
33.9554 850 29.1548
34.0725 798 28.2489
34.1896 796 28.2135
34.3067 830 28.8097
34.4237 847 29.1033
34.5407 838 28.9482
34.6577 873 29.5466
34.7746 797 28.2312
34.8915 836 28.9137
35.0084 816 28.5657
35.1252 770 27.7489
35.242 718 26.7955
35.3587 749 27.3679
35.4755 761 27.5862
35.5921 860 29.3258
35.7088 768 27.7128
35.8254 818 28.6007
35.9419 791 28.1247
36.0584 737 27.1477
36.1749 760 27.5681
36.2913 727 26.9629
36.4077 729 27
36.524 677 26.0192
36.6403 611 24.7184
36.7565 593 24.3516
36.8727 527 22.9565
36.9889 557 23.6008
37.1049 500 22.3607
37.221 0 1
37.3369 0 1
37.4529 0 1
37.5687 0 1
37.6845 0 1
37.8003 0 1
37.916 0 1
38.0316 0 1
38.1472 0 1
40.5851 0 1
40.7008 0 1
40.8164 0 1
40.9322 0 1
41.048 0 1
41.1639 0 1
41.2798 0 1
41.3958 0 1
41.5118 0 1
41.6279 0 1
41.744 282 16.7929
41.8602 366 19.1311
41.9765 431 20.7605
42.0928 503 22.4277
42.2091 491 22.1585
42.3255 483 21.9773
42.4419 512 22.6274
42.5584 598 24.454
42.675 598 24.454
42.7915 570 23.8747
42.9081 556 23.5797
43.0248 549 23.4307
43.1415 554 23.5372
43.2582 557 23.6008
43.375 579 24.0624
43.4918 604 24.5764
43.6087 618 24.8596
43.7256 614 24.779
43.8425 581 24.1039
43.9595 564 23.7487
44.0765 502 22.4054
44.1935 526 22.9347
44.3106 506 22.4944
44.4277 551 23.4734
44.5448 588 24.2487
44.6619 615 24.7992
44.7791 603 24.5561
44.8963 615 24.7992
45.0136 603 24.5561
45.1308 576 24
45.2481 576 24
45.3654 624 24.98
45.4827 589 24.2693
45.6001 599 24.4745
45.7174 575 23.9792
45.8348 589 24.2693
45.9522 575 23.9792
46.0697 590 24.2899
46.1871 532 23.0651
46.3046 528 22.9783
46.422 507 22.5167
46.5395 554 23.5372
46.657 520 22.8035
46.7745 527 22.9565
46.892 540 23.2379
47.0096 577 24.0208
47.1271 607 24.6374
47.2446 553 23.516
47.3622 580 24.0832
47.4797 566 23.7908
47.5973 559 23.6432
47.7149 495 22.2486
47.8324 515 22.6936
47.95 546 23.3666
48.0675 587 24.2281
48.1851 613 24.7588
48.3027 584 24.1661
48.4202 591 24.3105
48.5378 550 23.4521
48.6554 547 23.388
48.7729 543 23.3024
48.8904 580 24.0832
49.008 612 24.7386
49.1255 608 24.6577
49.243 565 23.7697
49.3605 512 22.6274
49.478 587 24.2281
49.5955 502 22.4054
49.713 535 23.1301
49.8304 489 22.1133
49.9479 459 21.4243
50.0653 473 21.7486
50.1827 452 21.2603
50.3001 517 22.7376
50.4175 532 23.0651
50.5348 537 23.1733
50.6521 568 23.8328
50.7694 534 23.1084
50.8867 552 23.4947
51.004 556 23.5797
51.1212 478 21.8632
51.2384 501 22.383
51.3556 487 22.0681
51.4727 531 23.0434
51.5899 567 23.8118
51.707 566 23.7908
51.824 585 24.1868
51.9411 560 23.6643
52.0581 562 23.7065
52.175 588 24.2487
52.2919 544 23.3238
52.4088 515 22.6936
52.5257 544 23.3238
52.6425 570 23.8747
52.7593 572 23.9165
52.876 567 23.8118
52.9927 553 23.516
53.1094 512 22.6274
53.226 528 22.9783
53.3426 532 23.0651
53.4591 484 22
53.5756 467 21.6102
53.692 450 21.2132
53.8084 420 20.4939
53.9248 436 20.8806
54.0411 379 19.4679
54.1573 383 19.5704
54.2735 0 1
54.3896 0 1
54.5057 0 1
54.6217 0 1
54.7377 0 1
54.8537 0 1
54.9695 0 1
55.0853 0 1
55.2011 0 1
55.3168 0 1
55.4324 0 1
57.824 0 1
57.9396 0 1
58.0553 0 1
58.1711 0 1
58.2869 0 1
58.4028 0 1
58.5187 0 1
58.6347 0 1
58.7508 0 1
58.8669 0 1
58.983 559 23.6432
59.0992 764 27.6405
59.2155 996 31.5595
59.3318 1122 33.4963
59.4482 1277 35.7351
59.5646 1326 36.4143
59.681 1446 38.0263
59.7975 1387 37.2424
59.9141 1397 37.3765
60.0306 1410 37.55
60.1473 1391 37.2961
60.2639 1465 38.2753
60.3807 1512 38.8844
60.4974 1491 38.6135
60.6142 1526 39.064
60.731 1454 38.1314
60.8479 1473 38.3797
60.9648 1349 36.7287
61.0818 1374 37.0675
61.1987 1348 36.7151
61.3158 1302 36.0832
61.4328 1340 36.606
61.5499 1330 36.4692
61.667 1244 35.2704
61.7841 1140 33.7639
61.9013 1113 33.3617
62.0185 1088 32.9848
62.1357 983 31.3528
62.253 899 29.9833
62.3702 940 30.6594
62.4875 925 30.4138
62.6049 925 30.4138
62.7222 908 30.133
62.8396 904 30.0666
62.9569 931 30.5123
63.0743 919 30.315
63.1918 868 29.4618
63.3092 829 28.7924
63.4267 767 27.6948
63.5441 698 26.4197
63.6616 715 26.7395
63.7791 716 26.7582
63.8966 692 26.3059
64.0142 703 26.5141
64.1317 729 27
64.2492 704 26.533
64.3668 658 25.6515
64.4843 691 26.2869
64.6019 634 25.1794
64.7195 641 25.318
64.837 682 26.1151
64.9546 607 24.6374
65.0722 684 26.1534
65.1898 712 26.6833
65.3074 652 25.5343
65.4249 613 24.7588
65.5425 654 25.5734
65.6601 624 24.98
65.7777 620 24.8998
65.8952 596 24.4131
66.0128 601 24.5153
66.1304 619 24.8797
66.2479 638 25.2587
66.3655 659 25.671
66.483 668 25.8457
66.6005 668 25.8457
66.718 716 26.7582
66.8355 698 26.4197
66.953 690 26.2679
67.0705 659 25.671
67.1879 655 25.593
67.3054 651 25.5147
67.4228 602 24.5357
67.5402 695 26.3629
67.6576 637 25.2389
67.7749 634 25.1794
67.8923 664 25.7682
68.0096 675 25.9808
68.1269 612 24.7386
68.2442 641 25.318
68.3614 657 25.632
68.4787 629 25.0799
68.5958 602 24.5357
68.713 633 25.1595
68.8302 655 25.593
68.9473 701 26.4764
69.0643 608 24.6577
69.1814 592 24.3311
69.2984 583 24.1454
69.4154 541 23.2594
69.5323 600 24.4949
69.6492 568 23.8328
69.7661 625 25
69.8829 636 25.219
69.9997 599 24.4745
70.1165 609 24.6779
70.2332 668 25.8457
70.3499 624 24.98
70.4665 577 24.0208
70.5831 534 23.1084
70.6996 464 21.5407
70.8161 446 21.1187
70.9326 383 19.5704
71.049 377 19.4165
71.1653 375 19.3649
71.2817 369 19.2094
71.3979 338 18.3848
71.5141 340 18.4391
71.6303 301 17.3494
71.7464 203 14.2478
71.8624 0 1
71.9784 0 1
72.0944 0 1
72.2102 0 1
72.3261 0 1
72.4418 0 1
72.5575 0 1
72.6732 0 1
75.1054 0 1
75.2209 0 1
75.3365 0 1
75.4521 0 1
75.5678 0 1
75.6835 0 1
75.7993 0 1
75.9151 0 1
76.031 0 1
76.147 416 20.3961
76.263 468 21.6333
76.3791 493 22.2036
76.4952 509 22.561
76.6113 567 23.8118
76.7276 594 24.3721
76.8438 558 23.622
76.9601 605 24.5967
77.0765 528 22.9783
77.1929 567 23.8118
77.3093 573 23.9374
77.4258 549 23.4307
77.5423 592 24.3311
77.6589 549 23.4307
77.7755 570 23.8747
77.8921 541 23.2594
78.0088 547 23.388
78.1256 516 22.7156
78.2423 480 21.9089
78.3591 530 23.0217
78.4759 461 21.4709
78.5928 514 22.6716
78.7097 506 22.4944
78.8266 523 22.8692
78.9436 494 22.2261
79.0606 514 22.6716
79.1776 500 22.3607
79.2946 571 23.8956
79.4117 556 23.5797
79.5288 528 22.9783
79.6459 559 23.6432
79.7631 548 23.4094
79.8802 572 23.9165
79.9974 602 24.5357
80.1147 546 23.3666
80.2319 562 23.7065
80.3491 590 24.2899
80.4664 572 23.9165
80.5837 578 24.0416
80.701 622 24.9399
80.8183 559 23.6432
80.9357 534 23.1084
81.053 529 23
81.1704 557 23.6008
81.2877 542 23.2809
81.4051 593 24.3516
81.5225 584 24.1661
81.6399 537 23.1733
81.7573 521 22.8254
81.8747 557 23.6008
81.9922 541 23.2594
82.1096 486 22.0454
82.227 505 22.4722
82.3444 521 22.8254
82.4619 559 23.6432
82.5793 525 22.9129
82.6967 547 23.388
82.8142 561 23.6854
82.9316 585 24.1868
83.049 608 24.6577
83.1664 588 24.2487
83.2838 612 24.7386
83.4012 609 24.6779
83.5186 578 24.0416
83.636 590 24.2899
83.7534 560 23.6643
83.8708 624 24.98
83.9881 582 24.1247
84.1055 603 24.5561
84.2228 627 25.04
84.3401 612 24.7386
84.4575 603 24.5561
84.5747 570 23.8747
84.692 624 24.98
84.8093 571 23.8956
84.9265 581 24.1039
85.0437 534 23.1084
85.1609 618 24.8596
85.2781 548 23.4094
85.3952 533 23.0868
85.5123 536 23.1517
85.6294 537 23.1733
85.7465 510 22.5832
85.8636 551 23.4734
85.9806 504 22.4499
86.0976 603 24.5561
86.2145 573 23.9374
86.3315 551 23.4734
86.4484 561 23.6854
86.5652 661 25.7099
86.682 610 24.6982
86.7988 603 24.5561
86.9156 654 25.5734
87.0323 603 24.5561
87.149 555 23.5584
87.2657 572 23.9165
87.3823 592 24.3311
87.4988 530 23.0217
87.6154 597 24.4336
87.7318 589 24.2693
87.8483 529 23
87.9647 473 21.7486
88.081 506 22.4944
88.1973 459 21.4243
88.3136 446 21.1187
88.4298 360 18.9737
88.546 372 19.2873
88.6621 356 18.868
88.7781 304 17.4356
88.8942 0 1
89.0101 0 1
89.126 0 1
89.2419 0 1
89.3577 0 1
89.4734 0 1
89.5891 0 1
89.7047 0 1
89.8203 0 1
89.9358 0 1
92.3269 0 1
92.4424 0 1
92.558 0 1
92.6736 0 1
92.7893 0 1
92.905 0 1
93.0208 0 1
93.1366 0 1
93.2525 0 1
93.3685 0 1
93.4845 0 1
93.6005 499 22.3383
93.7167 526 22.9347
93.8328 559 23.6432
93.949 539 23.2164
94.0653 575 23.9792
94.1816 545 23.3452
94.2979 582 24.1247
94.4143 565 23.7697
94.5307 597 24.4336
94.6472 528 22.9783
94.7637 593 24.3516
94.8803 574 23.9583
94.9969 531 23.0434
95.1135 581 24.1039
95.2302 605 24.5967
95.3469 581 24.1039
95.4637 613 24.7588
95.5805 633 25.1595
95.6973 609 24.6779
95.8142 619 24.8797
95.9311 589 24.2693
96.048 618 24.8596
96.1649 582 24.1247
96.2819 650 25.4951
96.3989 648 25.4558
96.516 604 24.5764
96.633 602 24.5357
96.7501 684 26.1534
96.8673 645 25.3969
96.9844 638 25.2587
97.1016 628 25.0599
97.2188 626 25.02
97.336 620 24.8998
97.4532 608 24.6577
97.5704 601 24.5153
97.6877 548 23.4094
97.805 537 23.1733
97.9223 571 23.8956
98.0396 557 23.6008
98.1569 579 24.0624
98.2743 575 23.9792
98.3916 616 24.8193
98.509 599 24.4745
98.6264 640 25.2982
98.7438 573 23.9374
98.8612 584 24.1661
98.9786 597 24.4336
99.096 669 25.865
99.2134 684 26.1534
99.3308 608 24.6577
99.4482 706 26.5707
99.5656 660 25.6905
99.6831 662 25.7294
99.8005 625 25
99.9179 632 25.1396
100.035 586 24.2074
100.153 674 25.9615
100.27 631 25.1197
100.388 586 24.2074
100.505 637 25.2389
100.622 625 25
100.74 690 26.2679
100.857 560 23.6643
100.975 654 25.5734
101.092 603 24.5561
101.209 597 24.4336
101.327 564 23.7487
101.444 585 24.1868
101.561 607 24.6374
101.679 559 23.6432
101.796 558 23.622
101.913 649 25.4755
102.03 654 25.5734
102.148 640 25.2982
102.265 630 25.0998
102.382 643 25.3574
102.499 647 25.4362
102.616 678 26.0384
102.733 674 25.9615
102.851 652 25.5343
102.968 685 26.1725
103.085 683 26.1343
103.202 674 25.9615
103.319 632 25.1396
103.436 612 24.7386
103.552 645 25.3969
103.669 713 26.7021
103.786 677 26.0192
103.903 630 25.0998
104.02 689 26.2488
104.137 675 25.9808
104.253 640 25.2982
104.37 638 25.2587
104.487 630 25.0998
104.603 647 25.4362
104.72 645 25.3969
104.836 607 24.6374
104.953 568 23.8328
105.069 618 24.8596
105.186 554 23.5372
105.302 522 22.8473
105.418 515 22.6936
105.535 511 22.6053
105.651 446 21.1187
105.767 424 20.5913
105.883 373 19.3132
105.999 357 18.8944
106.115 0 1
106.231 0 1
106.347 0 1
106.463 0 1
106.579 0 1
106.694 0 1
106.81 0 1
106.926 0 1
107.041 0 1
107.157 0 1
109.576 0 1
109.692 0 1
109.807 0 1
109.923 0 1
110.039 0 1
110.155 0 1
110.27 0 1
110.386 0 1
110.502 0 1
110.618 314 17.72
110.735 463 21.5174
110.851 467 21.6102
110.967 496 22.2711
111.083 455 21.3307
111.199 540 23.2379
111.316 561 23.6854
111.432 621 24.9199
111.549 668 25.8457
111.665 583 24.1454
111.782 568 23.8328
111.898 559 23.6432
112.015 628 25.0599
112.132 636 25.219
112.248 605 24.5967
112.365 561 23.6854
112.482 635 25.1992
112.599 586 24.2074
112.716 618 24.8596
112.832 577 24.0208
112.949 572 23.9165
113.066 556 23.5797
113.183 548 23.4094
113.3 547 23.388
113.417 574 23.9583
113.534 532 23.0651
113.652 505 22.4722
113.769 505 22.4722
113.886 479 21.8861
114.003 520 22.8035
114.12 520 22.8035
114.238 537 23.1733
114.355 597 24.4336
114.472 595 24.3926
114.589 524 22.891
114.707 555 23.5584
114.824 516 22.7156
114.942 565 23.7697
115.059 624 24.98
115.176 559 23.6432
115.294 576 24
115.411 547 23.388
115.529 590 24.2899
115.646 529 23
115.764 572 23.9165
115.881 543 23.3024
115.999 581 24.1039
116.116 553 23.516
116.234 560 23.6643
116.351 505 22.4722
116.469 524 22.891
116.586 554 23.5372
116.704 499 22.3383
116.821 521 22.8254
116.939 489 22.1133
117.056 458 21.4009
117.174 498 22.3159
117.291 498 22.3159
117.409 434 20.8327
117.526 455 21.3307
117.644 484 22
117.761 597 24.4336
117.879 504 22.4499
117.996 550 23.4521
118.114 487 22.0681
118.231 502 22.4054
118.349 493 22.2036
118.466 517 22.7376
118.584 566 23.7908
118.701 540 23.2379
118.819 531 23.0434
118.936 484 22
119.053 478 21.8632
119.171 505 22.4722
119.288 510 22.5832
119.405 484 22
119.523 532 23.0651
119.64 498 22.3159
119.757 536 23.1517
119.875 531 23.0434
119.992 470 21.6795
120.109 495 22.2486
120.226 451 21.2368
120.343 447 21.1424
120.46 494 22.2261
120.578 459 21.4243
120.695 423 20.567
120.812 394 19.8494
120.929 430 20.7364
121.046 422 20.5426
121.163 424 20.5913
121.279 457 21.3776
121.396 462 21.4942
121.513 450 21.2132
121.63 437 20.9045
121.747 465 21.5639
121.863 468 21.6333
121.98 438 20.9284
122.097 419 20.4695
122.213 402 20.0499
122.33 380 19.4936
122.446 397 19.9249
122.563 361 19
122.679 309 17.5784
122.795 309 17.5784
122.912 293 17.1172
123.028 265 16.2788
123.144 306 17.4929
123.26 278 16.6733
123.377 0 1
123.493 0 1
123.609 0 1
123.725 0 1
123.84 0 1
123.956 0 1
124.072 0 1
124.188 0 1
124.303 0 1
124.419 0 1
126.852 0 1
126.968 0 1
127.083 0 1
127.199 0 1
127.315 0 1
127.431 0 1
127.547 0 1
127.663 0 1
127.779 0 1
127.895 0 1
128.011 0 1
128.127 0 1
128.243 0 1
128.359 535 23.1301
128.476 548 23.4094
128.592 519 22.7816
128.708 523 22.8692
128.825 564 23.7487
128.941 624 24.98
129.058 575 23.9792
129.174 581 24.1039
129.291 604 24.5764
129.408 615 24.7992
129.524 567 23.8118
129.641 602 24.5357
129.758 526 22.9347
129.875 529 23
129.992 518 22.7596
130.108 498 22.3159
130.225 533 23.0868
130.342 565 23.7697
130.459 597 24.4336
130.576 600 24.4949
130.693 606 24.6171
130.81 664 25.7682
130.928 666 25.807
131.045 662 25.7294
131.162 688 26.2298
131.279 722 26.8701
131.396 723 26.8887
131.513 730 27.0185
131.631 737 27.1477
131.748 720 26.8328
131.865 754 27.4591
131.983 841 29
132.1 913 30.2159
132.217 950 30.8221
132.335 1051 32.4191
132.452 1044 32.311
132.57 1097 33.121
132.687 1113 33.3617
132.804 1132 33.6452
132.922 1232 35.0999
133.039 1130 33.6155
133.157 1172 34.2345
133.274 1195 34.5688
133.392 1182 34.3802
133.509 1145 33.8378
133.627 1144 33.8231
133.744 1069 32.6956
133.862 1199 34.6266
133.979 1205 34.7131
134.097 1170 34.2053
134.214 1134 33.6749
134.332 1212 34.8138
134.449 1192 34.5254
134.567 1127 33.5708
134.684 1143 33.8083
134.802 1113 33.3617
134.919 1212 34.8138
135.037 1119 33.4515
135.154 1053 32.45
135.272 979 31.289
135.389 1031 32.1092
135.507 1036 32.187
135.624 1003 31.6702
135.742 1130 33.6155
135.859 1165 34.1321
135.977 1071 32.7261
136.094 1095 33.0908
136.211 1136 33.7046
136.329 1086 32.9545
136.446 1125 33.541
136.564 1042 32.28
136.681 1024 32
136.798 1125 33.541
136.915 1042 32.28
137.033 1028 32.0624
137.15 959 30.9677
137.267 1022 31.9687
137.384 962 31.0161
137.502 1011 31.7962
137.619 1070 32.7109
137.736 1015 31.8591
137.853 1061 32.573
137.97 991 31.4802
138.087 1041 32.2645
138.204 1057 32.5115
138.321 1025 32.0156
138.438 1024 32
138.555 1068 32.6803
138.672 1057 32.5115
138.788 1027 32.0468
138.905 927 30.4467
139.022 954 30.8869
139.139 1011 31.7962
139.255 1026 32.0312
139.372 1050 32.4037
139.488 991 31.4802
139.605 880 29.6648
139.721 892 29.8664
139.838 722 26.8701
139.954 739 27.1846
140.071 710 26.6458
140.187 669 25.865
140.303 584 24.1661
140.419 598 24.454
140.535 540 23.2379
140.652 534 23.1084
140.768 0 1
140.884 0 1
141 0 1
141.115 0 1
141.231 0 1
141.347 0 1
141.463 0 1
141.578 0 1
141.694 0 1
144.104 0 1
144.219 0 1
144.335 0 1
144.45 0 1
144.566 0 1
144.682 0 1
144.798 0 1
144.914 0 1
145.03 0 1
145.146 1090 33.0151
145.262 1076 32.8024
145.378 1106 33.2566
145.494 1144 33.8231
145.61 1080 32.8634
145.726 1211 34.7994
145.842 1167 34.1614
145.959 1185 34.4238
146.075 1170 34.2053
146.192 1161 34.0735
146.308 1209 34.7707
146.425 1236 35.1568
146.541 1283 35.819
146.658 1304 36.1109
146.774 1354 36.7967
146.891 1319 36.318
147.008 1368 36.9865
147.125 1356 36.8239
147.241 1359 36.8646
147.358 1335 36.5377
147.475 1327 36.428
147.592 1280 35.7771
147.709 1271 35.6511
147.826 1362 36.9053
147.943 1407 37.51
148.06 1482 38.4968
148.177 1523 39.0256
148.294 1468 38.3145
148.411 1495 38.6652
148.528 1528 39.0896
148.645 1505 38.7943
148.762 1500 38.7298
148.88 1460 38.2099
148.997 1516 38.9358
149.114 1456 38.1576
149.231 1546 39.3192
149.349 1583 39.7869
149.466 1560 39.4968
149.583 1532 39.1408
149.701 1446 38.0263
149.818 1492 38.6264
149.935 1420 37.6829
150.053 1481 38.4838
150.17 1550 39.37
150.287 1484 38.5227
150.405 1417 37.6431
150.522 1500 38.7298
150.64 1458 38.1838
150.757 1373 37.054
150.875 1493 38.6394
150.992 1420 37.6829
151.11 1365 36.9459
151.227 1323 36.3731
151.344 1247 35.3129
151.462 1331 36.4829
151.579 1342 36.6333
151.697 1356 36.8239
151.814 1403 37.4566
151.932 1458 38.1838
152.049 1467 38.3014
152.167 1411 37.5633
152.284 1406 37.4967
152.402 1363 36.9188
152.519 1478 38.4448
152.636 1464 38.2623
152.754 1356 36.8239
152.871 1456 38.1576
152.989 1422 37.7094
153.106 1417 37.6431
153.223 1330 36.4692
153.341 1320 36.3318
153.458 1287 35.8748
153.575 1284 35.8329
153.693 1289 35.9026
153.81 1312 36.2215
153.927 1375 37.081
154.044 1316 36.2767
154.162 1227 35.0286
154.279 1207 34.7419
154.396 1232 35.0999
154.513 1168 34.176
154.63 1195 34.5688
154.747 1183 34.3948
154.864 1138 33.7343
154.981 1070 32.7109
155.098 1103 33.2114
155.215 1122 33.4963
155.332 1110 33.3167
155.449 1150 33.9116
155.566 1205 34.7131
155.683 1244 35.2704
155.8 1166 34.1467
155.917 1153 33.9559
156.033 1176 34.2929
156.15 0 1
156.267 0 1
156.383 0 1
156.5 0 1
156.617 0 1
156.733 0 1
156.85 0 1
156.966 0 1
157.082 0 1
157.199 0 1
157.315 0 1
157.431 0 1
157.547 0 1
157.664 0 1
157.78 0 1
157.896 0 1
158.012 0 1
158.128 0 1
158.244 0 1
158.359 0 1
158.475 0 1
158.591 0 1
158.706 0 1
