
6.15755 0 1
6.2731 0 1
6.3887 0 1
6.50437 0 1
6.62009 0 1
6.73587 0 1
6.8517 0 1
6.96759 0 1
7.08353 0 1
7.19952 0 1
7.31557 0 1
7.43166 0 1
7.54781 0 1
7.664 0 1
7.78024 0 1
7.89653 0 1
8.01286 0 1
8.12924 0 1
8.24567 0 1
8.36213 0 1
8.47864 0 1
8.59519 0 1
8.71178 0 1
8.82841 0 1
8.94508 0 1
9.06179 0 1
9.17853 0 1
9.29531 0 1
9.41212 0 1
9.52897 0 1
9.64584 0 1
9.76276 0 1
9.8797 0 1
9.99667 0 1
10.1137 0 1
10.2307 0 1
10.3478 0 1
10.4648 0 1
10.5819 0 1
10.6991 0 1
10.8162 0 1
10.9334 0 1
11.0506 0 1
11.1678 0 1
11.285 0 1
11.4023 0 1
11.5196 0 1
11.6369 0 1
11.7542 0 1
11.8715 0 1
11.9888 0 1
12.1062 0 1
12.2235 0 1
12.3409 0 1
12.4582 0 1
12.5756 0 1
12.693 0 1
12.8104 0 1
12.9278 0 1
13.0452 0 1
13.1626 0 1
13.28 0 1
13.3974 0 1
13.5149 0 1
13.6323 0 1
13.7497 0 1
13.8671 0 1
13.9845 0 1
14.1019 0 1
14.2193 0 1
14.3367 0 1
14.4541 0 1
14.5714 0 1
14.6888 0 1
14.8062 0 1
14.9235 0 1
15.0408 1626 40.3237
15.1581 1785 42.2493
15.2755 1799 42.4146
15.3927 1819 42.6497
15.51 1817 42.6263
15.6273 1738 41.6893
15.7445 1712 41.3763
15.8617 1684 41.0366
15.9789 1619 40.2368
16.0961 1647 40.5832
16.2132 1675 40.9268
16.3304 1739 41.7013
16.4475 1792 42.332
16.5646 1812 42.5676
16.6816 1911 43.715
16.7986 2070 45.4973
16.9156 2136 46.2169
17.0326 2405 49.0408
17.1496 2249 47.4236
17.2665 2328 48.2494
17.3833 2371 48.6929
17.5002 2320 48.1664
17.617 2358 48.5592
17.7338 2460 49.5984
17.8505 2365 48.6313
17.9672 2421 49.2037
18.0839 2459 49.5883
18.2005 2560 50.5964
18.3171 2505 50.05
18.4337 2525 50.2494
18.5502 2631 51.2933
18.6666 2547 50.4678
18.7831 2602 51.0098
18.8994 2555 50.547
19.0158 2521 50.2096
19.1321 2398 48.9694
19.2483 2268 47.6235
19.3645 2222 47.1381
19.4806 2309 48.0521
19.5967 2113 45.9674
19.7128 2010 44.833
19.8288 1859 43.1161
19.9447 1485 38.5357
20.0606 0 1
20.1764 0 1
20.2922 0 1
20.4079 0 1
20.5236 0 1
20.6392 0 1
20.7548 0 1
20.8702 0 1
23.3078 0 1
23.4233 0 1
23.539 0 1
23.6547 0 1
23.7704 0 1
23.8862 0 1
24.0021 0 1
24.118 0 1
24.234 0 1
24.35 0 1
24.4661 2224 47.1593
24.5822 2299 47.9479
24.6984 2280 47.7493
24.8146 2161 46.4866
24.9309 2155 46.422
25.0472 2004 44.7661
25.1636 1851 43.0232
25.28 1776 42.1426
25.3965 1936 44
25.513 2047 45.2438
25.6296 2195 46.8508
25.7462 2338 48.3529
25.8628 2525 50.2494
25.9795 2646 51.4393
26.0962 2651 51.4879
26.213 2645 51.4296
26.3298 2736 52.3068
26.4466 2650 51.4782
26.5635 2605 51.0392
26.6804 2569 50.6853
26.7973 2620 51.1859
26.9143 2674 51.7107
27.0313 2627 51.2543
27.1483 2517 50.1697
27.2653 2584 50.8331
27.3824 2738 52.3259
27.4996 2501 50.01
27.6167 2546 50.4579
27.7339 2473 49.7293
27.8511 2473 49.7293
27.9683 2382 48.8057
28.0855 2386 48.8467
28.2028 2470 49.6991
28.3201 2407 49.0612
28.4374 2289 47.8435
28.5547 2070 45.4973
28.6721 1821 42.6732
28.7894 1743 41.7493
28.9068 1794 42.3556
29.0242 1823 42.6966
29.1416 2001 44.7325
29.259 2122 46.0652
29.3764 2385 48.8365
29.4939 2453 49.5278
29.6113 2454 49.5379
29.7288 2437 49.366
29.8463 2505 50.05
29.9638 2534 50.3389
30.0812 2522 50.2195
30.1987 2582 50.8134
30.3162 2577 50.7642
30.4337 2509 50.0899
30.5512 2519 50.1896
30.6687 2473 49.7293
30.7862 2464 49.6387
30.9037 2536 50.3587
31.0212 2531 50.309
31.1387 2516 50.1597
31.2562 2468 49.679
31.3737 2332 48.2908
31.4912 2381 48.7955
31.6087 2423 49.224
31.7262 2383 48.816
31.8436 2346 48.4355
31.9611 2295 47.9062
32.0785 2075 45.5522
32.1959 1793 42.3438
32.3134 1669 40.8534
32.4308 1705 41.2916
32.5482 1872 43.2666
32.6655 1884 43.4051
32.7829 2076 45.5631
32.9002 2260 47.5395
33.0176 2425 49.2443
33.1349 2434 49.3356
33.2522 2481 49.8096
33.3694 2504 50.04
33.4867 2496 49.96
33.6039 2448 49.4773
33.7211 2463 49.6286
33.8383 2477 49.7695
33.9554 2532 50.319
34.0725 2376 48.7442
34.1896 2422 49.2138
34.3067 2333 48.3011
34.4237 2359 48.5695
34.5407 2364 48.621
34.6577 2303 47.9896
34.7746 2459 49.5883
34.8915 2389 48.8774
35.0084 2318 48.1456
35.1252 2242 47.3498
35.242 2424 49.2341
35.3587 2312 48.0833
35.4755 2323 48.1975
35.5921 2315 48.1144
35.7088 2149 46.3573
35.8254 1968 44.3621
35.9419 1773 42.107
36.0584 1683 41.0244
36.1749 1770 42.0714
36.2913 1748 41.8091
36.4077 1814 42.5911
36.524 1928 43.909
36.6403 2143 46.2925
36.7565 2315 48.1144
36.8727 2281 47.7598
36.9889 2338 48.3529
37.1049 2328 48.2494
37.221 0 1
37.3369 0 1
37.4529 0 1
37.5687 0 1
37.6845 0 1
37.8003 0 1
37.916 0 1
38.0316 0 1
38.1472 0 1
40.5851 0 1
40.7008 0 1
40.8164 0 1
40.9322 0 1
41.048 0 1
41.1639 0 1
41.2798 0 1
41.3958 0 1
41.5118 0 1
41.6279 0 1
41.744 1593 39.9124
41.8602 1743 41.7493
41.9765 1832 42.8019
42.0928 1904 43.6348
42.2091 1879 43.3474
42.3255 1957 44.238
42.4419 1932 43.9545
42.5584 1862 43.1509
42.675 1897 43.5546
42.7915 1935 43.9886
42.9081 1860 43.1277
43.0248 1831 42.7902
43.1415 1807 42.5088
43.2582 1847 42.9767
43.375 1894 43.5201
43.4918 1867 43.2088
43.6087 1870 43.2435
43.7256 1755 41.8927
43.8425 1726 41.5452
43.9595 1796 42.3792
44.0765 1854 43.0581
44.1935 1680 40.9878
44.3106 1716 41.4246
44.4277 1633 40.4104
44.5448 1574 39.6737
44.6619 1361 36.8917
44.7791 1230 35.0714
44.8963 1093 33.0606
45.0136 1159 34.0441
45.1308 1131 33.6303
45.2481 1170 34.2053
45.3654 1288 35.8887
45.4827 1392 37.3095
45.6001 1376 37.0945
45.7174 1391 37.2961
45.8348 1406 37.4967
45.9522 1406 37.4967
46.0697 1356 36.8239
46.1871 1357 36.8375
46.3046 1410 37.55
46.422 1381 37.1618
46.5395 1364 36.9324
46.657 1262 35.5246
46.7745 1236 35.1568
46.892 1332 36.4966
47.0096 1319 36.318
47.1271 1344 36.6606
47.2446 1325 36.4005
47.3622 1291 35.9305
47.4797 1268 35.609
47.5973 1200 34.641
47.7149 1198 34.6121
47.8324 1153 33.9559
47.95 1134 33.6749
48.0675 1138 33.7343
48.1851 1078 32.8329
48.3027 911 30.1828
48.4202 870 29.4958
48.5378 817 28.5832
48.6554 848 29.1204
48.7729 842 29.0172
48.8904 915 30.249
49.008 1000 31.6228
49.1255 1000 31.6228
49.243 1069 32.6956
49.3605 1088 32.9848
49.478 1080 32.8634
49.5955 1153 33.9559
49.713 1062 32.5883
49.8304 1115 33.3916
49.9479 1086 32.9545
50.0653 1038 32.218
50.1827 1051 32.4191
50.3001 1128 33.5857
50.4175 1136 33.7046
50.5348 1288 35.8887
50.6521 1295 35.9861
50.7694 1383 37.1887
50.8867 1355 36.8103
51.004 1383 37.1887
51.1212 1368 36.9865
51.2384 1389 37.2693
51.3556 1434 37.8682
51.4727 1301 36.0694
51.5899 1399 37.4032
51.707 1326 36.4143
51.824 1172 34.2345
51.9411 1097 33.121
52.0581 1127 33.5708
52.175 1181 34.3657
52.2919 1339 36.5923
52.4088 1398 37.3898
52.5257 1630 40.3733
52.6425 1671 40.8779
52.7593 1715 41.4126
52.876 1752 41.8569
52.9927 1741 41.7253
53.1094 1763 41.9881
53.226 1878 43.3359
53.3426 1838 42.8719
53.4591 1759 41.9404
53.5756 1750 41.833
53.692 1758 41.9285
53.8084 1687 41.0731
53.9248 1881 43.3705
54.0411 1871 43.2551
54.1573 1979 44.486
54.2735 0 1
54.3896 0 1
54.5057 0 1
54.6217 0 1
54.7377 0 1
54.8537 0 1
54.9695 0 1
55.0853 0 1
55.2011 0 1
55.3168 0 1
55.4324 0 1
57.824 0 1
57.9396 0 1
58.0553 0 1
58.1711 0 1
58.2869 0 1
58.4028 0 1
58.5187 0 1
58.6347 0 1
58.7508 0 1
58.8669 0 1
58.983 1914 43.7493
59.0992 2057 45.3542
59.2155 2140 46.2601
59.3318 2193 46.8295
59.4482 2450 49.4975
59.5646 2360 48.5798
59.681 2321 48.1768
59.7975 2337 48.3425
59.9141 2269 47.634
60.0306 2207 46.9787
60.1473 2239 47.3181
60.2639 2055 45.3321
60.3807 1947 44.1248
60.4974 1867 43.2088
60.6142 1780 42.19
60.731 1739 41.7013
60.8479 1712 41.3763
60.9648 1875 43.3013
61.0818 1831 42.7902
61.1987 1990 44.6094
61.3158 1977 44.4635
61.4328 2025 45
61.5499 2067 45.4643
61.667 2080 45.607
61.7841 2043 45.1996
61.9013 1966 44.3396
62.0185 1887 43.4396
62.1357 1936 44
62.253 1890 43.4741
62.3702 1906 43.6578
62.4875 2073 45.5302
62.6049 1980 44.4972
62.7222 2093 45.7493
62.8396 2116 46
62.9569 2046 45.2327
63.0743 2184 46.7333
63.1918 2109 45.9239
63.3092 2125 46.0977
63.4267 2049 45.2659
63.5441 2077 45.5741
63.6616 1970 44.3847
63.7791 1796 42.3792
63.8966 1711 41.3642
64.0142 1642 40.5216
64.1317 1685 41.0488
64.2492 1492 38.6264
64.3668 1552 39.3954
64.4843 1611 40.1373
64.6019 1653 40.6571
64.7195 1708 41.328
64.837 1812 42.5676
64.9546 1869 43.2319
65.0722 1857 43.0929
65.1898 1870 43.2435
65.3074 1956 44.2267
65.4249 1857 43.0929
65.5425 1754 41.8808
65.6601 1743 41.7493
65.7777 1659 40.7308
65.8952 1739 41.7013
66.0128 1814 42.5911
66.1304 1768 42.0476
66.2479 1869 43.2319
66.3655 1985 44.5533
66.483 1937 44.0114
66.6005 2008 44.8107
66.718 1992 44.6318
66.8355 2067 45.4643
66.953 1963 44.3058
67.0705 1967 44.3509
67.1879 1862 43.1509
67.3054 1806 42.4971
67.4228 1787 42.2729
67.5402 1727 41.5572
67.6576 1602 40.025
67.7749 1452 38.1051
67.8923 1524 39.0384
68.0096 1662 40.7676
68.1269 1663 40.7799
68.2442 1682 41.0122
68.3614 1834 42.8252
68.4787 1921 43.8292
68.5958 1878 43.3359
68.713 1880 43.359
68.8302 2010 44.833
68.9473 1904 43.6348
69.0643 1870 43.2435
69.1814 1868 43.2204
69.2984 1773 42.107
69.4154 1753 41.8688
69.5323 1896 43.5431
69.6492 1911 43.715
69.7661 1939 44.0341
69.8829 2152 46.3897
69.9997 2270 47.6445
70.1165 2209 47
70.2332 2261 47.55
70.3499 2223 47.1487
70.4665 2190 46.7974
70.5831 2259 47.5289
70.6996 2169 46.5725
70.8161 2116 46
70.9326 2004 44.7661
71.049 1923 43.852
71.1653 1860 43.1277
71.2817 1822 42.6849
71.3979 1689 41.0974
71.5141 1633 40.4104
71.6303 1449 38.0657
71.7464 1305 36.1248
71.8624 0 1
71.9784 0 1
72.0944 0 1
72.2102 0 1
72.3261 0 1
72.4418 0 1
72.5575 0 1
72.6732 0 1
75.1054 0 1
75.2209 0 1
75.3365 0 1
75.4521 0 1
75.5678 0 1
75.6835 0 1
75.7993 0 1
75.9151 0 1
76.031 0 1
76.147 1858 43.1045
76.263 1976 44.4522
76.3791 2038 45.1442
76.4952 1939 44.0341
76.6113 1821 42.6732
76.7276 1708 41.328
76.8438 1658 40.7185
76.9601 1769 42.0595
77.0765 1748 41.8091
77.1929 1883 43.3935
77.3093 2007 44.7996
77.4258 2015 44.8888
77.5423 2071 45.5082
77.6589 2071 45.5082
77.7755 2037 45.1331
77.8921 2031 45.0666
78.0088 2000 44.7214
78.1256 1869 43.2319
78.2423 1734 41.6413
78.3591 1644 40.5463
78.4759 1606 40.0749
78.5928 1762 41.9762
78.7097 1821 42.6732
78.8266 1973 44.4185
78.9436 2182 46.7119
79.0606 2196 46.8615
79.1776 2223 47.1487
79.2946 2175 46.6369
79.4117 2234 47.2652
79.5288 2049 45.2659
79.6459 2141 46.2709
79.7631 2026 45.0111
79.8802 2033 45.0888
79.9974 1904 43.6348
80.1147 1761 41.9643
80.2319 1646 40.5709
80.3491 1582 39.7744
80.4664 1545 39.3065
80.5837 1589 39.8623
80.701 1635 40.4351
80.8183 1583 39.7869
80.9357 1816 42.6146
81.053 1967 44.3509
81.1704 1860 43.1277
81.2877 1832 42.8019
81.4051 1735 41.6533
81.5225 1779 42.1782
81.6399 1788 42.2847
81.7573 1660 40.7431
81.8747 1511 38.8716
81.9922 1468 38.3145
82.1096 1468 38.3145
82.227 1428 37.7889
82.3444 1568 39.598
82.4619 1664 40.7922
82.5793 1863 43.1625
82.6967 1907 43.6692
82.8142 1880 43.359
82.9316 1849 43
83.049 1783 42.2256
83.1664 1775 42.1307
83.2838 1844 42.9418
83.4012 1738 41.6893
83.5186 1715 41.4126
83.636 1588 39.8497
83.7534 1578 39.724
83.8708 1393 37.3229
83.9881 1442 37.9737
84.1055 1408 37.5233
84.2228 1423 37.7227
84.3401 1390 37.2827
84.4575 1479 38.4578
84.5747 1610 40.1248
84.692 1663 40.7799
84.8093 1717 41.4367
84.9265 1660 40.7431
85.0437 1666 40.8167
85.1609 1706 41.3038
85.2781 1535 39.1791
85.3952 1440 37.9473
85.5123 1343 36.647
85.6294 1362 36.9053
85.7465 1419 37.6696
85.8636 1460 38.2099
85.9806 1731 41.6053
86.0976 1883 43.3935
86.2145 1926 43.8862
86.3315 2061 45.3982
86.4484 1883 43.3935
86.5652 2075 45.5522
86.682 2015 44.8888
86.7988 2080 45.607
86.9156 2027 45.0222
87.0323 1985 44.5533
87.149 1954 44.2041
87.2657 1810 42.5441
87.3823 1776 42.1426
87.4988 1646 40.5709
87.6154 1663 40.7799
87.7318 1726 41.5452
87.8483 1791 42.3202
87.9647 1786 42.2611
88.081 1903 43.6234
88.1973 2077 45.5741
88.3136 2069 45.4863
88.4298 2118 46.0217
88.546 2057 45.3542
88.6621 1955 44.2154
88.7781 1865 43.1856
88.8942 0 1
89.0101 0 1
89.126 0 1
89.2419 0 1
89.3577 0 1
89.4734 0 1
89.5891 0 1
89.7047 0 1
89.8203 0 1
89.9358 0 1
92.3269 0 1
92.4424 0 1
92.558 0 1
92.6736 0 1
92.7893 0 1
92.905 0 1
93.0208 0 1
93.1366 0 1
93.2525 0 1
93.3685 0 1
93.4845 0 1
93.6005 1980 44.4972
93.7167 2095 45.7712
93.8328 2100 45.8258
93.949 2036 45.1221
94.0653 2033 45.0888
94.1816 1978 44.4747
94.2979 1845 42.9535
94.4143 1830 42.7785
94.5307 1702 41.2553
94.6472 1508 38.833
94.7637 1554 39.4208
94.8803 1667 40.8289
94.9969 1879 43.3474
95.1135 2196 46.8615
95.2302 2154 46.4112
95.3469 2231 47.2335
95.4637 2276 47.7074
95.5805 2260 47.5395
95.6973 2311 48.0729
95.8142 2368 48.6621
95.9311 2247 47.4025
96.048 2144 46.3033
96.1649 2113 45.9674
96.2819 2073 45.5302
96.3989 2045 45.2217
96.516 1842 42.9185
96.633 1822 42.6849
96.7501 1794 42.3556
96.8673 1859 43.1161
96.9844 1796 42.3792
97.1016 1858 43.1045
97.2188 1892 43.4971
97.336 2031 45.0666
97.4532 2085 45.6618
97.5704 2055 45.3321
97.6877 2006 44.7884
97.805 2077 45.5741
97.9223 1833 42.8135
98.0396 1696 41.1825
98.1569 1511 38.8716
98.2743 1459 38.1969
98.3916 1529 39.1024
98.509 1515 38.923
98.6264 1746 41.7852
98.7438 2003 44.7549
98.8612 2133 46.1844
98.9786 2200 46.9042
99.096 2198 46.8828
99.2134 2186 46.7547
99.3308 2225 47.1699
99.4482 2287 47.8226
99.5656 2204 46.9468
99.6831 2174 46.6262
99.8005 2113 45.9674
99.9179 2057 45.3542
100.035 1831 42.7902
100.153 1827 42.7434
100.27 1881 43.3705
100.388 1828 42.7551
100.505 1805 42.4853
100.622 1913 43.7379
100.74 1980 44.4972
100.857 2057 45.3542
100.975 2094 45.7602
101.092 2106 45.8912
101.209 2058 45.3652
101.327 2039 45.1553
101.444 1909 43.6921
101.561 1841 42.9069
101.679 1670 40.8656
101.796 1495 38.6652
101.913 1496 38.6782
102.03 1548 39.3446
102.148 1813 42.5793
102.265 2001 44.7325
102.382 2263 47.571
102.499 2255 47.4868
102.616 2230 47.2229
102.733 2294 47.8957
102.851 2394 48.9285
102.968 2396 48.949
103.085 2365 48.6313
103.202 2292 47.8748
103.319 2213 47.0425
103.436 2123 46.076
103.552 2179 46.6798
103.669 2042 45.1885
103.786 2046 45.2327
103.903 1946 44.1135
104.02 2004 44.7661
104.137 2140 46.2601
104.253 2205 46.9574
104.37 2145 46.3141
104.487 2275 47.697
104.603 2269 47.634
104.72 2287 47.8226
104.836 2201 46.9148
104.953 2242 47.3498
105.069 1998 44.699
105.186 1767 42.0357
105.302 1600 40
105.418 1579 39.7366
105.535 1805 42.4853
105.651 2174 46.6262
105.767 2357 48.5489
105.883 2458 49.5782
105.999 2583 50.8232
106.115 0 1
106.231 0 1
106.347 0 1
106.463 0 1
106.579 0 1
106.694 0 1
106.81 0 1
106.926 0 1
107.041 0 1
107.157 0 1
109.576 0 1
109.692 0 1
109.807 0 1
109.923 0 1
110.039 0 1
110.155 0 1
110.27 0 1
110.386 0 1
110.502 0 1
110.618 1626 40.3237
110.735 2076 45.5631
110.851 2287 47.8226
110.967 2354 48.518
111.083 2523 50.2295
111.199 2581 50.8035
111.316 2464 49.6387
111.432 2550 50.4975
111.549 2523 50.2295
111.665 2499 49.99
111.782 2339 48.3632
111.898 2274 47.6865
112.015 2133 46.1844
112.132 2114 45.9783
112.248 2161 46.4866
112.365 2202 46.9255
112.482 2065 45.4423
112.599 2195 46.8508
112.716 2175 46.6369
112.832 2262 47.5605
112.949 2294 47.8957
113.066 2271 47.655
113.183 2240 47.3286
113.3 2241 47.3392
113.417 2176 46.6476
113.534 2145 46.3141
113.652 1841 42.9069
113.769 1656 40.694
113.886 1542 39.2683
114.003 1451 38.092
114.12 1686 41.0609
114.238 2018 44.9222
114.355 2258 47.5184
114.472 2341 48.3839
114.589 2433 49.3254
114.707 2540 50.3984
114.824 2509 50.0899
114.942 2498 49.98
115.059 2545 50.448
115.176 2505 50.05
115.294 2525 50.2494
115.411 2346 48.4355
115.529 2373 48.7134
115.646 2391 48.8979
115.764 2218 47.0956
115.881 2284 47.7912
115.999 2325 48.2183
116.116 2252 47.4552
116.234 2456 49.558
116.351 2389 48.8774
116.469 2336 48.3322
116.586 2441 49.4065
116.704 2410 49.0918
116.821 2440 49.3964
116.939 2279 47.7389
117.056 2310 48.0625
117.174 2175 46.6369
117.291 1868 43.2204
117.409 1665 40.8044
117.526 1572 39.6485
117.644 1623 40.2865
117.761 1863 43.1625
117.879 2270 47.6445
117.996 2373 48.7134
118.114 2454 49.5379
118.231 2552 50.5173
118.349 2613 51.1175
118.466 2669 51.6624
118.584 2694 51.9038
118.701 2730 52.2494
118.819 2669 51.6624
118.936 2546 50.4579
119.053 2510 50.0999
119.171 2326 48.2286
119.288 2402 49.0102
119.405 2389 48.8774
119.523 2424 49.2341
119.64 2271 47.655
119.757 2374 48.7237
119.875 2337 48.3425
119.992 2377 48.7545
120.109 2411 49.1019
120.226 2337 48.3425
120.343 2328 48.2494
120.46 2366 48.6415
120.578 2216 47.0744
120.695 2221 47.1275
120.812 2142 46.2817
120.929 1923 43.852
121.046 1833 42.8135
121.163 1731 41.6053
121.279 1606 40.0749
121.396 1756 41.9047
121.513 2046 45.2327
121.63 2325 48.2183
121.747 2439 49.3862
121.863 2552 50.5173
121.98 2474 49.7393
122.097 2513 50.1298
122.213 2616 51.1468
122.33 2519 50.1896
122.446 2568 50.6754
122.563 2477 49.7695
122.679 2455 49.548
122.795 2340 48.3735
122.912 2388 48.8672
123.028 2267 47.613
123.144 2262 47.5605
123.26 2274 47.6865
123.377 0 1
123.493 0 1
123.609 0 1
123.725 0 1
123.84 0 1
123.956 0 1
124.072 0 1
124.188 0 1
124.303 0 1
124.419 0 1
126.852 0 1
126.968 0 1
127.083 0 1
127.199 0 1
127.315 0 1
127.431 0 1
127.547 0 1
127.663 0 1
127.779 0 1
127.895 0 1
128.011 0 1
128.127 0 1
128.243 0 1
128.359 2537 50.3686
128.476 2611 51.0979
128.592 2557 50.5668
128.708 2538 50.3786
128.825 2561 50.6063
128.941 2630 51.2835
129.058 2585 50.8429
129.174 2665 51.6236
129.291 2538 50.3786
129.408 2637 51.3517
129.524 2559 50.5866
129.641 2559 50.5866
129.758 2373 48.7134
129.875 2101 45.8367
129.992 1919 43.8064
130.108 1733 41.6293
130.225 1752 41.8569
130.342 1908 43.6807
130.459 2140 46.2601
130.576 2595 50.9411
130.693 2743 52.3737
130.81 2766 52.5928
130.928 2792 52.8394
131.045 2830 53.1977
131.162 2780 52.7257
131.279 2916 54
131.396 2916 54
131.513 2880 53.6656
131.631 2697 51.9326
131.748 2838 53.2729
131.865 2834 53.2353
131.983 2688 51.8459
132.1 2854 53.4228
132.217 2774 52.6688
132.335 2842 53.3104
132.452 2818 53.0848
132.57 2672 51.6914
132.687 2677 51.7397
132.804 2804 52.9528
132.922 2672 51.6914
133.039 2662 51.5946
133.157 2823 53.1319
133.274 2456 49.558
133.392 2287 47.8226
133.509 2034 45.0999
133.627 1812 42.5676
133.744 1699 41.2189
133.862 1776 42.1426
133.979 2060 45.3872
134.097 2366 48.6415
134.214 2556 50.5569
134.332 2798 52.8961
134.449 2794 52.8583
134.567 2649 51.4684
134.684 2787 52.792
134.802 2722 52.1728
134.919 2842 53.3104
135.037 2735 52.2972
135.154 2728 52.2303
135.272 2738 52.3259
135.389 2816 53.066
135.507 2742 52.3641
135.624 2765 52.5833
135.742 2775 52.6783
135.859 2812 53.0283
135.977 2582 50.8134
136.094 2795 52.8678
136.211 2705 52.0096
136.329 2675 51.7204
136.446 2795 52.8678
136.564 2764 52.5738
136.681 2722 52.1728
136.798 2708 52.0384
136.915 2337 48.3425
137.033 2159 46.465
137.15 1917 43.7836
137.267 1807 42.5088
137.384 1667 40.8289
137.502 1825 42.72
137.619 2037 45.1331
137.736 2340 48.3735
137.853 2446 49.4571
137.97 2716 52.1153
138.087 2744 52.3832
138.204 2723 52.1824
138.321 2835 53.2447
138.438 2769 52.6213
138.555 2938 54.2033
138.672 2853 53.4135
138.788 2946 54.2771
138.905 2898 53.8331
139.022 2806 52.9717
139.139 2800 52.915
139.255 2735 52.2972
139.372 2717 52.1249
139.488 2842 53.3104
139.605 2737 52.3163
139.721 2744 52.3832
139.838 2852 53.4041
139.954 2733 52.2781
140.071 2790 52.8205
140.187 2760 52.5357
140.303 2621 51.1957
140.419 2534 50.3389
140.535 2439 49.3862
140.652 2159 46.465
140.768 0 1
140.884 0 1
141 0 1
141.115 0 1
141.231 0 1
141.347 0 1
141.463 0 1
141.578 0 1
141.694 0 1
144.104 0 1
144.219 0 1
144.335 0 1
144.45 0 1
144.566 0 1
144.682 0 1
144.798 0 1
144.914 0 1
145.03 0 1
145.146 1839 42.8836
145.262 2071 45.5082
145.378 2071 45.5082
145.494 2099 45.8148
145.61 2026 45.0111
145.726 1837 42.8602
145.842 1729 41.5812
145.959 1582 39.7744
146.075 1420 37.6829
146.192 1456 38.1576
146.308 1379 37.1349
146.425 1649 40.6079
146.541 1782 42.2137
146.658 1890 43.4741
146.774 2053 45.31
146.891 2090 45.7165
147.008 2166 46.5403
147.125 2195 46.8508
147.241 2306 48.0208
147.358 2322 48.1871
147.475 2350 48.4768
147.592 2356 48.5386
147.709 2311 48.0729
147.826 2436 49.3559
147.943 2404 49.0306
148.06 2346 48.4355
148.177 2412 49.1121
148.294 2328 48.2494
148.411 2312 48.0833
148.528 2308 48.0416
148.645 2297 47.927
148.762 2368 48.6621
148.88 2271 47.655
148.997 2273 47.676
149.114 2426 49.2544
149.231 2339 48.3632
149.349 2310 48.0625
149.466 2268 47.6235
149.583 2040 45.1664
149.701 1852 43.0349
149.818 1723 41.509
149.935 1583 39.7869
150.053 1565 39.5601
150.17 1536 39.1918
150.287 1739 41.7013
150.405 1870 43.2435
150.522 2001 44.7325
150.64 2201 46.9148
150.757 2253 47.4658
150.875 2317 48.1352
150.992 2291 47.8644
151.11 2458 49.5782
151.227 2396 48.949
151.344 2453 49.5278
151.462 2360 48.5798
151.579 2489 49.8899
151.697 2422 49.2138
151.814 2343 48.4045
151.932 2406 49.051
152.049 2472 49.7192
152.167 2429 49.2849
152.284 2383 48.816
152.402 2410 49.0918
152.519 2463 49.6286
152.636 2427 49.2646
152.754 2420 49.1935
152.871 2495 49.95
152.989 2376 48.7442
153.106 2298 47.9375
153.223 2106 45.8912
153.341 2017 44.911
153.458 1733 41.6293
153.575 1707 41.3159
153.693 1648 40.5956
153.81 1763 41.9881
153.927 1868 43.2204
154.044 2096 45.7821
154.162 2151 46.3789
154.279 2370 48.6826
154.396 2388 48.8672
154.513 2549 50.4876
154.63 2640 51.3809
154.747 2578 50.774
154.864 2702 51.9808
154.981 2608 51.0686
155.098 2667 51.643
155.215 2702 51.9808
155.332 2617 51.1566
155.449 2629 51.2738
155.566 2555 50.547
155.683 2458 49.5782
155.8 2609 51.0784
155.917 2666 51.6333
156.033 2485 49.8498
156.15 0 1
156.267 0 1
156.383 0 1
156.5 0 1
156.617 0 1
156.733 0 1
156.85 0 1
156.966 0 1
157.082 0 1
157.199 0 1
157.315 0 1
157.431 0 1
157.547 0 1
157.664 0 1
157.78 0 1
157.896 0 1
158.012 0 1
158.128 0 1
158.244 0 1
158.359 0 1
158.475 0 1
158.591 0 1
158.706 0 1
