
6.15755 0 1
6.2731 0 1
6.3887 0 1
6.50437 0 1
6.62009 0 1
6.73587 0 1
6.8517 0 1
6.96759 0 1
7.08353 0 1
7.19952 0 1
7.31557 0 1
7.43166 0 1
7.54781 0 1
7.664 0 1
7.78024 0 1
7.89653 0 1
8.01286 0 1
8.12924 0 1
8.24567 0 1
8.36213 0 1
8.47864 0 1
8.59519 0 1
8.71178 0 1
8.82841 0 1
8.94508 0 1
9.06179 0 1
9.17853 0 1
9.29531 0 1
9.41212 0 1
9.52897 0 1
9.64584 0 1
9.76276 0 1
9.8797 0 1
9.99667 0 1
10.1137 0 1
10.2307 0 1
10.3478 0 1
10.4648 0 1
10.5819 0 1
10.6991 0 1
10.8162 0 1
10.9334 0 1
11.0506 0 1
11.1678 0 1
11.285 0 1
11.4023 0 1
11.5196 0 1
11.6369 0 1
11.7542 0 1
11.8715 0 1
11.9888 0 1
12.1062 0 1
12.2235 0 1
12.3409 0 1
12.4582 0 1
12.5756 0 1
12.693 0 1
12.8104 0 1
12.9278 0 1
13.0452 0 1
13.1626 0 1
13.28 0 1
13.3974 0 1
13.5149 0 1
13.6323 0 1
13.7497 0 1
13.8671 0 1
13.9845 0 1
14.1019 0 1
14.2193 0 1
14.3367 0 1
14.4541 0 1
14.5714 0 1
14.6888 0 1
14.8062 0 1
14.9235 0 1
15.0408 0 0
15.1581 0 0
15.2755 0 0
15.3927 0 0
15.51 0 0
15.6273 0 0
15.7445 0 0
15.8617 0 0
15.9789 0 0
16.0961 0 0
16.2132 0 0
16.3304 0 0
16.4475 0 0
16.5646 0 0
16.6816 0 0
16.7986 0 0
16.9156 0 0
17.0326 0 0
17.1496 0 0
17.2665 0 0
17.3833 0 0
17.5002 0 0
17.617 0 0
17.7338 0 0
17.8505 0 0
17.9672 0 0
18.0839 0 0
18.2005 0 0
18.3171 0 0
18.4337 0 0
18.5502 0 0
18.6666 0 0
18.7831 0 0
18.8994 0 0
19.0158 0 0
19.1321 0 0
19.2483 0 0
19.3645 0 0
19.4806 0 0
19.5967 0 0
19.7128 0 0
19.8288 0 0
19.9447 0 0
20.0606 0 1
20.1764 0 1
20.2922 0 1
20.4079 0 1
20.5236 0 1
20.6392 0 1
20.7548 0 1
20.8702 0 1
23.3078 0 1
23.4233 0 1
23.539 0 1
23.6547 0 1
23.7704 0 1
23.8862 0 1
24.0021 0 1
24.118 0 1
24.234 0 1
24.35 0 1
24.4661 1726 41.5452
24.5822 1658 40.7185
24.6984 1771 42.0833
24.8146 1840 42.8952
24.9309 2036 45.1221
25.0472 2107 45.9021
25.1636 2391 48.8979
25.28 2791 52.8299
25.3965 2897 53.8238
25.513 3115 55.8122
25.6296 3314 57.5674
25.7462 3574 59.7829
25.8628 3760 61.3188
25.9795 3672 60.597
26.0962 3714 60.9426
26.213 3728 61.0574
26.3298 3741 61.1637
26.4466 3646 60.3821
26.5635 3710 60.9098
26.6804 3709 60.9016
26.7973 3737 61.131
26.9143 3812 61.7414
27.0313 3782 61.498
27.1483 3811 61.7333
27.2653 3853 62.0725
27.3824 3873 62.2334
27.4996 3862 62.145
27.6167 3659 60.4897
27.7339 3690 60.7454
27.8511 3656 60.4649
27.9683 3587 59.8916
28.0855 3285 57.3149
28.2028 3152 56.1427
28.3201 2971 54.5069
28.4374 2788 52.8015
28.5547 2828 53.1789
28.6721 3165 56.2583
28.7894 3211 56.6657
28.9068 3449 58.7282
29.0242 3517 59.3043
29.1416 3493 59.1016
29.259 3450 58.7367
29.3764 3427 58.5406
29.4939 3452 58.7537
29.6113 3536 59.4643
29.7288 3381 58.1464
29.8463 3461 58.8303
29.9638 3471 58.9152
30.0812 3514 59.279
30.1987 3627 60.2246
30.3162 3684 60.696
30.4337 3608 60.0666
30.5512 3639 60.3241
30.6687 3614 60.1166
30.7862 3723 61.0164
30.9037 3726 61.041
31.0212 3711 60.918
31.1387 3615 60.1249
31.2562 3615 60.1249
31.3737 3615 60.1249
31.4912 3521 59.338
31.6087 3298 57.4282
31.7262 3160 56.2139
31.8436 2909 53.9351
31.9611 2702 51.9808
32.0785 2899 53.8424
32.1959 3011 54.8726
32.3134 3191 56.4889
32.4308 3220 56.745
32.5482 3348 57.8619
32.6655 3296 57.4108
32.7829 3351 57.8878
32.9002 3327 57.6802
33.0176 3207 56.6304
33.1349 3112 55.7853
33.2522 3311 57.5413
33.3694 3304 57.4804
33.4867 3444 58.6856
33.6039 3359 57.9569
33.7211 3508 59.2284
33.8383 3508 59.2284
33.9554 3504 59.1946
34.0725 3585 59.8749
34.1896 3518 59.3127
34.3067 3620 60.1664
34.4237 3604 60.0333
34.5407 3540 59.4979
34.6577 3606 60.05
34.7746 3542 59.5147
34.8915 3564 59.6992
35.0084 3433 58.5918
35.1252 3301 57.4543
35.242 3350 57.8792
35.3587 3221 56.7539
35.4755 2949 54.3047
35.5921 2624 51.225
35.7088 2678 51.7494
35.8254 2755 52.4881
35.9419 2752 52.4595
36.0584 3020 54.9545
36.1749 3139 56.0268
36.2913 3039 55.1271
36.4077 2928 54.111
36.524 2845 53.3385
36.6403 2825 53.1507
36.7565 2741 52.3546
36.8727 2634 51.3225
36.9889 2559 50.5866
37.1049 2463 49.6286
37.221 0 1
37.3369 0 1
37.4529 0 1
37.5687 0 1
37.6845 0 1
37.8003 0 1
37.916 0 1
38.0316 0 1
38.1472 0 1
40.5851 0 1
40.7008 0 1
40.8164 0 1
40.9322 0 1
41.048 0 1
41.1639 0 1
41.2798 0 1
41.3958 0 1
41.5118 0 1
41.6279 0 1
41.744 1519 38.9744
41.8602 1589 39.8623
41.9765 1894 43.5201
42.0928 1953 44.1928
42.2091 1983 44.5309
42.3255 2210 47.0106
42.4419 2246 47.392
42.5584 2336 48.3322
42.675 2491 49.9099
42.7915 2725 52.2015
42.9081 2834 53.2353
43.0248 2867 53.5444
43.1415 3018 54.9363
43.2582 3013 54.8908
43.375 3153 56.1516
43.4918 3119 55.848
43.6087 3135 55.9911
43.7256 3302 57.463
43.8425 3180 56.3915
43.9595 3080 55.4977
44.0765 3141 56.0446
44.1935 2957 54.3783
44.3106 2848 53.3667
44.4277 2633 51.3128
44.5448 2495 49.95
44.6619 2630 51.2835
44.7791 2657 51.5461
44.8963 2769 52.6213
45.0136 2936 54.1849
45.1308 2884 53.7029
45.2481 2874 53.6097
45.3654 2891 53.768
45.4827 2829 53.1883
45.6001 2644 51.4198
45.7174 2841 53.301
45.8348 2727 52.2207
45.9522 2823 53.1319
46.0697 2937 54.1941
46.1871 2968 54.4794
46.3046 2999 54.7631
46.422 3081 55.5068
46.5395 3132 55.9643
46.657 3233 56.8595
46.7745 3383 58.1636
46.892 3445 58.6941
47.0096 3509 59.2368
47.1271 3425 58.5235
47.2446 3369 58.0431
47.3622 3499 59.1523
47.4797 3362 57.9828
47.5973 3261 57.1052
47.7149 3255 57.0526
47.8324 3104 55.7136
47.95 2833 53.2259
48.0675 2776 52.6878
48.1851 2720 52.1536
48.3027 2732 52.2685
48.4202 2944 54.2586
48.5378 2956 54.3691
48.6554 3004 54.8088
48.7729 3009 54.8544
48.8904 2883 53.6936
49.008 2922 54.0555
49.1255 2741 52.3546
49.243 2831 53.2071
49.3605 2791 52.8299
49.478 2901 53.8609
49.5955 2939 54.2125
49.713 2937 54.1941
49.8304 2920 54.037
49.9479 3039 55.1271
50.0653 3249 57
50.1827 3321 57.6281
50.3001 3491 59.0847
50.4175 3572 59.7662
50.5348 3594 59.95
50.6521 3534 59.4475
50.7694 3571 59.7578
50.8867 3606 60.05
51.004 3642 60.349
51.1212 3503 59.1861
51.2384 3445 58.6941
51.3556 3318 57.6021
51.4727 3081 55.5068
51.5899 2875 53.619
51.707 2871 53.5817
51.824 2824 53.1413
51.9411 2924 54.074
52.0581 3006 54.827
52.175 2923 54.0648
52.2919 2834 53.2353
52.4088 2815 53.0566
52.5257 2701 51.9711
52.6425 2633 51.3128
52.7593 2660 51.5752
52.876 2617 51.1566
52.9927 2582 50.8134
53.1094 2530 50.2991
53.226 2579 50.7839
53.3426 2558 50.5767
53.4591 2696 51.923
53.5756 2674 51.7107
53.692 2837 53.2635
53.8084 2933 54.1572
53.9248 2824 53.1413
54.0411 2800 52.915
54.1573 2581 50.8035
54.2735 0 1
54.3896 0 1
54.5057 0 1
54.6217 0 1
54.7377 0 1
54.8537 0 1
54.9695 0 1
55.0853 0 1
55.2011 0 1
55.3168 0 1
55.4324 0 1
57.824 0 1
57.9396 0 1
58.0553 0 1
58.1711 0 1
58.2869 0 1
58.4028 0 1
58.5187 0 1
58.6347 0 1
58.7508 0 1
58.8669 0 1
58.983 2212 47.0319
59.0992 2503 50.03
59.2155 2757 52.5071
59.3318 2861 53.4883
59.4482 3305 57.4891
59.5646 3401 58.3181
59.681 3641 60.3407
59.7975 3515 59.2874
59.9141 3467 58.8812
60.0306 3554 59.6154
60.1473 3452 58.7537
60.2639 3346 57.8446
60.3807 3183 56.4181
60.4974 3347 57.8533
60.6142 3300 57.4456
60.731 3358 57.9483
60.8479 3390 58.2237
60.9648 3535 59.4559
61.0818 3664 60.531
61.1987 3396 58.2752
61.3158 3378 58.1206
61.4328 3396 58.2752
61.5499 3335 57.7495
61.667 3295 57.4021
61.7841 3332 57.7235
61.9013 3283 57.2975
62.0185 3467 58.8812
62.1357 3504 59.1946
62.253 3772 61.4166
62.3702 3941 62.7774
62.4875 4157 64.4748
62.6049 4358 66.0151
62.7222 4391 66.2646
62.8396 4621 67.9779
62.9569 4668 68.3228
63.0743 4863 69.7352
63.1918 4815 69.3902
63.3092 4649 68.1836
63.4267 4417 66.4605
63.5441 4310 65.6506
63.6616 4070 63.7966
63.7791 3783 61.5061
63.8966 3697 60.803
64.0142 3548 59.5651
64.1317 3357 57.9396
64.2492 3319 57.6108
64.3668 3281 57.28
64.4843 3430 58.5662
64.6019 3427 58.5406
64.7195 3340 57.7927
64.837 3273 57.2101
64.9546 3372 58.0689
65.0722 3106 55.7315
65.1898 3213 56.6833
65.3074 3149 56.116
65.4249 3314 57.5674
65.5425 3214 56.6922
65.6601 3410 58.3952
65.7777 3568 59.7327
65.8952 3829 61.8789
66.0128 4035 63.5216
66.1304 4252 65.2074
66.2479 4362 66.0454
66.3655 4525 67.2681
66.483 4652 68.2056
66.6005 4735 68.8113
66.718 4703 68.5784
66.8355 4677 68.3886
66.953 4487 66.9851
67.0705 4303 65.5973
67.1879 4157 64.4748
67.3054 3922 62.6259
67.4228 3464 58.8558
67.5402 3431 58.5747
67.6576 3209 56.648
67.7749 3085 55.5428
67.8923 3104 55.7136
68.0096 3079 55.4887
68.1269 3216 56.7098
68.2442 3329 57.6975
68.3614 3422 58.4979
68.4787 3406 58.3609
68.5958 3158 56.1961
68.713 3094 55.6237
68.8302 2987 54.6535
68.9473 3065 55.3624
69.0643 3031 55.0545
69.1814 2873 53.6004
69.2984 2986 54.6443
69.4154 3034 55.0818
69.5323 3184 56.4269
69.6492 3332 57.7235
69.7661 3612 60.0999
69.8829 3924 62.6418
69.9997 4034 63.5138
70.1165 3812 61.7414
70.2332 3872 62.2254
70.3499 3774 61.4329
70.4665 3681 60.6712
70.5831 3505 59.203
70.6996 3366 58.0172
70.8161 3093 55.6147
70.9326 2983 54.6168
71.049 2660 51.5752
71.1653 2327 48.239
71.2817 2110 45.9347
71.3979 1969 44.3734
71.5141 1903 43.6234
71.6303 1788 42.2847
71.7464 1641 40.5093
71.8624 0 1
71.9784 0 1
72.0944 0 1
72.2102 0 1
72.3261 0 1
72.4418 0 1
72.5575 0 1
72.6732 0 1
75.1054 0 1
75.2209 0 1
75.3365 0 1
75.4521 0 1
75.5678 0 1
75.6835 0 1
75.7993 0 1
75.9151 0 1
76.031 0 1
76.147 2290 47.8539
76.263 2200 46.9042
76.3791 2166 46.5403
76.4952 2157 46.4435
76.6113 2022 44.9667
76.7276 2050 45.2769
76.8438 2113 45.9674
76.9601 2142 46.2817
77.0765 2299 47.9479
77.1929 2624 51.225
77.3093 2819 53.0943
77.4258 2928 54.111
77.5423 2735 52.2972
77.6589 2716 52.1153
77.7755 2819 53.0943
77.8921 2617 51.1566
78.0088 2661 51.5849
78.1256 2749 52.4309
78.2423 2735 52.2972
78.3591 2784 52.7636
78.4759 2975 54.5436
78.5928 3181 56.4004
78.7097 3444 58.6856
78.8266 3907 62.506
78.9436 3992 63.1823
79.0606 4135 64.304
79.1776 4159 64.4903
79.2946 4152 64.436
79.4117 4176 64.622
79.5288 4071 63.8044
79.6459 4008 63.3088
79.7631 3737 61.131
79.8802 3545 59.5399
79.9974 3144 56.0714
80.1147 3010 54.8635
80.2319 2881 53.6749
80.3491 2743 52.3737
80.4664 2725 52.2015
80.5837 2622 51.2055
80.701 2696 51.923
80.8183 2611 51.0979
80.9357 3033 55.0727
81.053 3151 56.1338
81.1704 3090 55.5878
81.2877 2939 54.2125
81.4051 2968 54.4794
81.5225 2844 53.3292
81.6399 2835 53.2447
81.7573 2691 51.8748
81.8747 2691 51.8748
81.9922 2704 52
82.1096 3030 55.0454
82.227 3168 56.285
82.3444 3578 59.8164
82.4619 3812 61.7414
82.5793 4193 64.7534
82.6967 4244 65.146
82.8142 4371 66.1135
82.9316 4226 65.0077
83.049 4299 65.5668
83.1664 4321 65.7343
83.2838 4131 64.2729
83.4012 3749 61.2291
83.5186 3450 58.7367
83.636 3280 57.2713
83.7534 3104 55.7136
83.8708 2949 54.3047
83.9881 2690 51.8652
84.1055 2735 52.2972
84.2228 2673 51.7011
84.3401 2629 51.2738
84.4575 2834 53.2353
84.5747 3269 57.1752
84.692 3284 57.3062
84.8093 3355 57.9224
84.9265 3251 57.0175
85.0437 3012 54.8817
85.1609 2924 54.074
85.2781 2814 53.0471
85.3952 2733 52.2781
85.5123 2786 52.7826
85.6294 2768 52.6118
85.7465 3022 54.9727
85.8636 3190 56.4801
85.9806 3540 59.4979
86.0976 3833 61.9112
86.2145 4117 64.1639
86.3315 4119 64.1794
86.4484 4224 64.9923
86.5652 4228 65.0231
86.682 3993 63.1902
86.7988 3896 62.4179
86.9156 3915 62.57
87.0323 3575 59.7913
87.149 3507 59.2199
87.2657 3346 57.8446
87.3823 3050 55.2268
87.4988 2831 53.2071
87.6154 2579 50.7839
87.7318 2517 50.1697
87.8483 2448 49.4773
87.9647 2452 49.5177
88.081 2589 50.8822
88.1973 2663 51.6043
88.3136 2654 51.517
88.4298 2332 48.2908
88.546 2043 45.1996
88.6621 1591 39.8873
88.7781 1486 38.5487
88.8942 0 1
89.0101 0 1
89.126 0 1
89.2419 0 1
89.3577 0 1
89.4734 0 1
89.5891 0 1
89.7047 0 1
89.8203 0 1
89.9358 0 1
92.3269 0 1
92.4424 0 1
92.558 0 1
92.6736 0 1
92.7893 0 1
92.905 0 1
93.0208 0 1
93.1366 0 1
93.2525 0 1
93.3685 0 1
93.4845 0 1
93.6005 1873 43.2782
93.7167 2260 47.5395
93.8328 2496 49.96
93.949 2827 53.1695
94.0653 2897 53.8238
94.1816 2944 54.2586
94.2979 2899 53.8424
94.4143 3074 55.4437
94.5307 3016 54.9181
94.6472 2937 54.1941
94.7637 2944 54.2586
94.8803 3060 55.3173
94.9969 3253 57.0351
95.1135 3464 58.8558
95.2302 3968 62.9921
95.3469 4218 64.9461
95.4637 4343 65.9014
95.5805 4418 66.468
95.6973 4600 67.8233
95.8142 4599 67.8159
95.9311 4550 67.4537
96.048 4446 66.6783
96.1649 4227 65.0154
96.2819 3961 62.9365
96.3989 3463 58.8473
96.516 3470 58.9067
96.633 3275 57.2276
96.7501 2972 54.5161
96.8673 3011 54.8726
96.9844 2759 52.5262
97.1016 2845 53.3385
97.2188 2859 53.4696
97.336 3060 55.3173
97.4532 3344 57.8273
97.5704 3567 59.7244
97.6877 3720 60.9918
97.805 3424 58.515
97.9223 3326 57.6715
98.0396 3262 57.1139
98.1569 3083 55.5248
98.2743 3046 55.1906
98.3916 2851 53.3948
98.509 3014 54.8999
98.6264 3334 57.7408
98.7438 3570 59.7495
98.8612 3862 62.145
98.9786 4104 64.0625
99.096 4417 66.4605
99.2134 4635 68.0808
99.3308 4724 68.7314
99.4482 4728 68.7605
99.5656 4736 68.8186
99.6831 4768 69.0507
99.8005 4345 65.9166
99.9179 4092 63.9687
100.035 3955 62.8888
100.153 3634 60.2827
100.27 3251 57.0175
100.388 3167 56.2761
100.505 2910 53.9444
100.622 2802 52.9339
100.74 2934 54.1664
100.857 3017 54.9272
100.975 3362 57.9828
101.092 3669 60.5723
101.209 3705 60.8687
101.327 3633 60.2744
101.444 3456 58.7878
101.561 3320 57.6194
101.679 3293 57.3847
101.796 3187 56.4535
101.913 3153 56.1516
102.03 3255 57.0526
102.148 3456 58.7878
102.265 3705 60.8687
102.382 4144 64.3739
102.499 4387 66.2344
102.616 4668 68.3228
102.733 4783 69.1592
102.851 4852 69.6563
102.968 4944 70.3136
103.085 5001 70.7177
103.202 4882 69.8713
103.319 4694 68.5128
103.436 4286 65.4675
103.552 4015 63.364
103.669 3777 61.4573
103.786 3478 58.9746
103.903 3256 57.0614
104.02 3011 54.8726
104.137 3006 54.827
104.253 3009 54.8544
104.37 3122 55.8749
104.487 3355 57.9224
104.603 3476 58.9576
104.72 3514 59.279
104.836 3182 56.4092
104.953 2859 53.4696
105.069 2661 51.5849
105.186 2451 49.5076
105.302 2496 49.96
105.418 2295 47.9062
105.535 2285 47.8017
105.651 2221 47.1275
105.767 2267 47.613
105.883 2429 49.2849
105.999 2445 49.4469
106.115 0 1
106.231 0 1
106.347 0 1
106.463 0 1
106.579 0 1
106.694 0 1
106.81 0 1
106.926 0 1
107.041 0 1
107.157 0 1
109.576 0 1
109.692 0 1
109.807 0 1
109.923 0 1
110.039 0 1
110.155 0 1
110.27 0 1
110.386 0 1
110.502 0 1
110.618 1922 43.8406
110.735 2134 46.1952
110.851 2488 49.8799
110.967 2855 53.4322
111.083 3017 54.9272
111.199 3186 56.4447
111.316 3433 58.5918
111.432 3699 60.8194
111.549 3705 60.8687
111.665 3809 61.7171
111.782 3882 62.3057
111.898 3673 60.6053
112.015 3381 58.1464
112.132 3215 56.701
112.248 3196 56.5332
112.365 3032 55.0636
112.482 2864 53.5164
112.599 2665 51.6236
112.716 2728 52.2303
112.832 2696 51.923
112.949 2621 51.1957
113.066 2845 53.3385
113.183 3082 55.5158
113.3 3177 56.3649
113.417 3203 56.5951
113.534 3051 55.2359
113.652 3056 55.2811
113.769 3175 56.3471
113.886 2984 54.626
114.003 2984 54.626
114.12 2969 54.4885
114.238 3201 56.5774
114.355 3460 58.8218
114.472 3876 62.2575
114.589 3897 62.426
114.707 4359 66.0227
114.824 4446 66.6783
114.942 4528 67.2904
115.059 4641 68.1249
115.176 4471 66.8655
115.294 4492 67.0224
115.411 4565 67.5648
115.529 4163 64.5213
115.646 3869 62.2013
115.764 3515 59.2874
115.881 3274 57.2189
115.999 3222 56.7627
116.116 2931 54.1387
116.234 2853 53.4135
116.351 2739 52.3355
116.469 2692 51.8845
116.586 2843 53.3198
116.704 3030 55.0454
116.821 3106 55.7315
116.939 3286 57.3236
117.056 3144 56.0714
117.174 3123 55.8838
117.291 3215 56.701
117.409 3157 56.1872
117.526 3096 55.6417
117.644 3165 56.2583
117.761 3269 57.1752
117.879 3350 57.8792
117.996 3764 61.3514
118.114 4002 63.2614
118.231 4373 66.1287
118.349 4422 66.4981
118.466 4488 66.9925
118.584 4630 68.0441
118.701 4524 67.2607
118.819 4390 66.2571
118.936 4421 66.4906
119.053 4282 65.437
119.171 4032 63.498
119.288 3698 60.8112
119.405 3489 59.0678
119.523 3328 57.6888
119.64 3136 56
119.757 3028 55.0273
119.875 2804 52.9528
119.992 2823 53.1319
120.109 2613 51.1175
120.226 2685 51.817
120.343 2873 53.6004
120.46 3055 55.2721
120.578 3046 55.1906
120.695 2902 53.8702
120.812 2866 53.535
120.929 2914 53.9815
121.046 2863 53.507
121.163 2900 53.8516
121.279 2747 52.4118
121.396 2805 52.9623
121.513 2944 54.2586
121.63 3078 55.4797
121.747 3357 57.9396
121.863 3373 58.0775
121.98 3594 59.95
122.097 3558 59.649
122.213 3331 57.7148
122.33 3406 58.3609
122.446 3284 57.3062
122.563 3247 56.9825
122.679 2998 54.754
122.795 2771 52.6403
122.912 2518 50.1797
123.028 2284 47.7912
123.144 1971 44.3959
123.26 1850 43.0116
123.377 0 1
123.493 0 1
123.609 0 1
123.725 0 1
123.84 0 1
123.956 0 1
124.072 0 1
124.188 0 1
124.303 0 1
124.419 0 1
126.852 0 1
126.968 0 1
127.083 0 1
127.199 0 1
127.315 0 1
127.431 0 1
127.547 0 1
127.663 0 1
127.779 0 1
127.895 0 1
128.011 0 1
128.127 0 1
128.243 0 1
128.359 3676 60.63
128.476 3412 58.4123
128.592 3252 57.0263
128.708 3378 58.1206
128.825 3336 57.7581
128.941 3044 55.1725
129.058 2893 53.7866
129.174 3005 54.8179
129.291 3019 54.9454
129.408 3104 55.7136
129.524 3294 57.3934
129.641 3404 58.3438
129.758 3346 57.8446
129.875 3574 59.7829
129.992 3592 59.9333
130.108 3501 59.1692
130.225 3501 59.1692
130.342 3391 58.2323
130.459 3428 58.5491
130.576 3643 60.3573
130.693 3923 62.6339
130.81 4019 63.3956
130.928 4306 65.6201
131.045 4374 66.1362
131.162 4319 65.7191
131.279 4304 65.6049
131.396 4321 65.7343
131.513 4324 65.7571
131.631 4325 65.7647
131.748 4155 64.4593
131.865 4130 64.2651
131.983 3977 63.0635
132.1 3870 62.2093
132.217 3613 60.1082
132.335 3571 59.7578
132.452 3413 58.4209
132.57 3273 57.2101
132.687 3167 56.2761
132.804 3063 55.3444
132.922 3151 56.1338
133.039 3240 56.921
133.157 3353 57.9051
133.274 3440 58.6515
133.392 3496 59.127
133.509 3599 59.9917
133.627 3677 60.6383
133.744 3509 59.2368
133.862 3656 60.4649
133.979 3609 60.075
134.097 3632 60.2661
134.214 3725 61.0328
134.332 4072 63.8122
134.449 4146 64.3894
134.567 4277 65.3988
134.684 4337 65.8559
134.802 4226 65.0077
134.919 4223 64.9846
135.037 4208 64.8691
135.154 4266 65.3146
135.272 4256 65.238
135.389 4137 64.3195
135.507 4102 64.0469
135.624 3830 61.887
135.742 3805 61.6847
135.859 3654 60.4483
135.977 3664 60.531
136.094 3382 58.155
136.211 3435 58.6089
136.329 3264 57.1314
136.446 3335 57.7495
136.564 3257 57.0701
136.681 3398 58.2924
136.798 3482 59.0085
136.915 3653 60.4401
137.033 3645 60.3738
137.15 3684 60.696
137.267 3655 60.4566
137.384 3681 60.6712
137.502 3601 60.0083
137.619 3628 60.2329
137.736 3568 59.7327
137.853 3702 60.8441
137.97 3787 61.5386
138.087 3981 63.0952
138.204 3958 62.9126
138.321 3932 62.7057
138.438 3893 62.3939
138.555 3982 63.1031
138.672 3849 62.0403
138.788 3847 62.0242
138.905 3689 60.7371
139.022 3512 59.2621
139.139 3319 57.6108
139.255 3129 55.9375
139.372 3031 55.0545
139.488 2790 52.8205
139.605 2639 51.3712
139.721 2505 50.05
139.838 2342 48.3942
139.954 2269 47.634
140.071 2068 45.4753
140.187 1988 44.587
140.303 1822 42.6849
140.419 1839 42.8836
140.535 1681 41
140.652 1669 40.8534
140.768 0 1
140.884 0 1
141 0 1
141.115 0 1
141.231 0 1
141.347 0 1
141.463 0 1
141.578 0 1
141.694 0 1
144.104 0 1
144.219 0 1
144.335 0 1
144.45 0 1
144.566 0 1
144.682 0 1
144.798 0 1
144.914 0 1
145.03 0 1
145.146 2399 48.9796
145.262 2425 49.2443
145.378 2503 50.03
145.494 2764 52.5738
145.61 2686 51.8266
145.726 2802 52.9339
145.842 3023 54.9818
145.959 3061 55.3263
146.075 2968 54.4794
146.192 2999 54.7631
146.308 2846 53.3479
146.425 2817 53.0754
146.541 3011 54.8726
146.658 3116 55.8211
146.774 3163 56.2406
146.891 3259 57.0877
147.008 3278 57.2538
147.125 3280 57.2713
147.241 3472 58.9237
147.358 3547 59.5567
147.475 3543 59.5231
147.592 3428 58.5491
147.709 3477 58.9661
147.826 3354 57.9137
147.943 3342 57.81
148.06 3331 57.7148
148.177 3224 56.7803
148.294 3227 56.8067
148.411 3025 55
148.528 2935 54.1756
148.645 2970 54.4977
148.762 2945 54.2679
148.88 2973 54.5252
148.997 2858 53.4603
149.114 2901 53.8609
149.231 2903 53.8795
149.349 3018 54.9363
149.466 3003 54.7996
149.583 3112 55.7853
149.701 3157 56.1872
149.818 3017 54.9272
149.935 3052 55.2449
150.053 2931 54.1387
150.17 3040 55.1362
150.287 2983 54.6168
150.405 3153 56.1516
150.522 3368 58.0345
150.64 3431 58.5747
150.757 3563 59.6909
150.875 3575 59.7913
150.992 3464 58.8558
151.11 3522 59.3464
151.227 3545 59.5399
151.344 3506 59.2115
151.462 3597 59.975
151.579 3519 59.3212
151.697 3429 58.5577
151.814 3363 57.9914
151.932 3452 58.7537
152.049 3304 57.4804
152.167 3227 56.8067
152.284 3097 55.6507
152.402 3124 55.8928
152.519 3114 55.8032
152.636 3104 55.7136
152.754 3248 56.9912
152.871 3148 56.107
152.989 3210 56.6569
153.106 3259 57.0877
153.223 3286 57.3236
153.341 3142 56.0535
153.458 3060 55.3173
153.575 3219 56.7362
153.693 3046 55.1906
153.81 3068 55.3895
153.927 3251 57.0175
154.044 3378 58.1206
154.162 3567 59.7244
154.279 3516 59.2959
154.396 3800 61.6441
154.513 3747 61.2127
154.63 3765 61.3596
154.747 3787 61.5386
154.864 3667 60.5558
154.981 3676 60.63
155.098 3494 59.1101
155.215 3494 59.1101
155.332 3354 57.9137
155.449 3329 57.6975
155.566 3246 56.9737
155.683 3098 55.6597
155.8 3045 55.1815
155.917 2910 53.9444
156.033 2850 53.3854
156.15 0 1
156.267 0 1
156.383 0 1
156.5 0 1
156.617 0 1
156.733 0 1
156.85 0 1
156.966 0 1
157.082 0 1
157.199 0 1
157.315 0 1
157.431 0 1
157.547 0 1
157.664 0 1
157.78 0 1
157.896 0 1
158.012 0 1
158.128 0 1
158.244 0 1
158.359 0 1
158.475 0 1
158.591 0 1
158.706 0 1
