
6.15755 0 1
6.2731 0 1
6.3887 0 1
6.50437 0 1
6.62009 0 1
6.73587 0 1
6.8517 0 1
6.96759 0 1
7.08353 0 1
7.19952 0 1
7.31557 0 1
7.43166 0 1
7.54781 0 1
7.664 0 1
7.78024 0 1
7.89653 0 1
8.01286 0 1
8.12924 0 1
8.24567 0 1
8.36213 0 1
8.47864 0 1
8.59519 0 1
8.71178 0 1
8.82841 0 1
8.94508 0 1
9.06179 0 1
9.17853 0 1
9.29531 0 1
9.41212 0 1
9.52897 0 1
9.64584 0 1
9.76276 0 1
9.8797 0 1
9.99667 0 1
10.1137 0 1
10.2307 0 1
10.3478 0 1
10.4648 0 1
10.5819 0 1
10.6991 0 1
10.8162 0 1
10.9334 0 1
11.0506 0 1
11.1678 0 1
11.285 0 1
11.4023 0 1
11.5196 0 1
11.6369 0 1
11.7542 0 1
11.8715 0 1
11.9888 0 1
12.1062 0 1
12.2235 0 1
12.3409 0 1
12.4582 0 1
12.5756 0 1
12.693 0 1
12.8104 0 1
12.9278 0 1
13.0452 0 1
13.1626 0 1
13.28 0 1
13.3974 0 1
13.5149 0 1
13.6323 0 1
13.7497 0 1
13.8671 0 1
13.9845 0 1
14.1019 0 1
14.2193 0 1
14.3367 0 1
14.4541 0 1
14.5714 0 1
14.6888 0 1
14.8062 0 1
14.9235 0 1
15.0408 0 0
15.1581 0 0
15.2755 0 0
15.3927 0 0
15.51 0 0
15.6273 0 0
15.7445 0 0
15.8617 0 0
15.9789 0 0
16.0961 0 0
16.2132 0 0
16.3304 0 0
16.4475 0 0
16.5646 0 0
16.6816 0 0
16.7986 0 0
16.9156 0 0
17.0326 0 0
17.1496 0 0
17.2665 0 0
17.3833 0 0
17.5002 0 0
17.617 0 0
17.7338 0 0
17.8505 0 0
17.9672 0 0
18.0839 0 0
18.2005 0 0
18.3171 0 0
18.4337 0 0
18.5502 0 0
18.6666 0 0
18.7831 0 0
18.8994 0 0
19.0158 0 0
19.1321 0 0
19.2483 0 0
19.3645 0 0
19.4806 0 0
19.5967 0 0
19.7128 0 0
19.8288 0 0
19.9447 0 0
20.0606 0 1
20.1764 0 1
20.2922 0 1
20.4079 0 1
20.5236 0 1
20.6392 0 1
20.7548 0 1
20.8702 0 1
23.3078 0 1
23.4233 0 1
23.539 0 1
23.6547 0 1
23.7704 0 1
23.8862 0 1
24.0021 0 1
24.118 0 1
24.234 0 1
24.35 0 1
24.4661 5887 76.7268
24.5822 5758 75.8815
24.6984 5709 75.5579
24.8146 5804 76.184
24.9309 5581 74.7061
25.0472 5450 73.8241
25.1636 5555 74.5319
25.28 5653 75.1864
25.3965 5856 76.5245
25.513 5736 75.7364
25.6296 6070 77.9102
25.7462 6339 79.6178
25.8628 6125 78.2624
25.9795 6158 78.4729
26.0962 6184 78.6384
26.213 6270 79.1833
26.3298 5957 77.1816
26.4466 5760 75.8947
26.5635 5569 74.6257
26.6804 5583 74.7195
26.7973 5743 75.7826
26.9143 5743 75.7826
27.0313 5815 76.2561
27.1483 6095 78.0705
27.2653 6081 77.9808
27.3824 5962 77.214
27.4996 6101 78.1089
27.6167 5902 76.8245
27.7339 5976 77.3046
27.8511 5759 75.8881
27.9683 5647 75.1465
28.0855 5747 75.809
28.2028 5531 74.3707
28.3201 5425 73.6546
28.4374 5151 71.7705
28.5547 4834 69.527
28.6721 4940 70.2851
28.7894 4987 70.6187
28.9068 4936 70.2567
29.0242 4911 70.0785
29.1416 5025 70.8872
29.259 5150 71.7635
29.3764 5174 71.9305
29.4939 5246 72.4293
29.6113 5205 72.1457
29.7288 5100 71.4143
29.8463 5066 71.1758
29.9638 5104 71.4423
30.0812 4938 70.2709
30.1987 4989 70.6329
30.3162 5048 71.0493
30.4337 5142 71.7077
30.5512 5305 72.8354
30.6687 5460 73.8918
30.7862 5356 73.1847
30.9037 5477 74.0068
31.0212 5432 73.7021
31.1387 5492 74.108
31.2562 5536 74.4043
31.3737 5352 73.1574
31.4912 5187 72.0208
31.6087 5219 72.2426
31.7262 5232 72.3326
31.8436 4857 69.6922
31.9611 4777 69.1158
32.0785 4730 68.775
32.1959 4601 67.8307
32.3134 4708 68.6149
32.4308 4572 67.6166
32.5482 4481 66.9403
32.6655 4745 68.884
32.7829 4773 69.0869
32.9002 4754 68.9493
33.0176 4761 69
33.1349 4810 69.3542
33.2522 4802 69.2965
33.3694 4922 70.157
33.4867 4771 69.0724
33.6039 4889 69.9214
33.7211 4722 68.7168
33.8383 4811 69.3614
33.9554 4515 67.1937
34.0725 4788 69.1954
34.1896 4971 70.5053
34.3067 4959 70.4202
34.4237 5125 71.5891
34.5407 5253 72.4776
34.6577 5198 72.0972
34.7746 4944 70.3136
34.8915 5005 70.746
35.0084 4914 70.0999
35.1252 4985 70.6045
35.242 5030 70.9225
35.3587 4924 70.1712
35.4755 4732 68.7895
35.5921 4862 69.728
35.7088 4492 67.0224
35.8254 4356 66
35.9419 4357 66.0076
36.0584 4319 65.7191
36.1749 4285 65.4599
36.2913 4321 65.7343
36.4077 4299 65.5668
36.524 4335 65.8407
36.6403 4237 65.0922
36.7565 4273 65.3682
36.8727 4423 66.5056
36.9889 4518 67.2161
37.1049 4322 65.7419
37.221 0 1
37.3369 0 1
37.4529 0 1
37.5687 0 1
37.6845 0 1
37.8003 0 1
37.916 0 1
38.0316 0 1
38.1472 0 1
40.5851 0 1
40.7008 0 1
40.8164 0 1
40.9322 0 1
41.048 0 1
41.1639 0 1
41.2798 0 1
41.3958 0 1
41.5118 0 1
41.6279 0 1
41.744 3213 56.6833
41.8602 3312 57.55
41.9765 3349 57.8705
42.0928 3516 59.2959
42.2091 3621 60.1747
42.3255 3569 59.7411
42.4419 3636 60.2993
42.5584 3506 59.2115
42.675 3434 58.6003
42.7915 3428 58.5491
42.9081 3672 60.597
43.0248 3603 60.025
43.1415 3695 60.7865
43.2582 3717 60.9672
43.375 3848 62.0322
43.4918 3877 62.2656
43.6087 3828 61.8708
43.7256 3863 62.153
43.8425 3673 60.6053
43.9595 3725 61.0328
44.0765 3522 59.3464
44.1935 3417 58.4551
44.3106 3401 58.3181
44.4277 3339 57.7841
44.5448 3296 57.4108
44.6619 2891 53.768
44.7791 2839 53.2823
44.8963 2840 53.2917
45.0136 2787 52.792
45.1308 2764 52.5738
45.2481 2830 53.1977
45.3654 2811 53.0189
45.4827 2904 53.8888
45.6001 2820 53.1037
45.7174 2842 53.3104
45.8348 2871 53.5817
45.9522 2785 52.7731
46.0697 2778 52.7067
46.1871 2629 51.2738
46.3046 2663 51.6043
46.422 2637 51.3517
46.5395 2737 52.3163
46.657 2821 53.1131
46.7745 2732 52.2685
46.892 2930 54.1295
47.0096 2828 53.1789
47.1271 2958 54.3875
47.2446 2786 52.7826
47.3622 2805 52.9623
47.4797 2732 52.2685
47.5973 2658 51.5558
47.7149 2664 51.614
47.8324 2532 50.319
47.95 2429 49.2849
48.0675 2406 49.051
48.1851 2185 46.744
48.3027 2128 46.1303
48.4202 2082 45.6289
48.5378 2037 45.1331
48.6554 1986 44.5646
48.7729 2008 44.8107
48.8904 2009 44.8219
49.008 2218 47.0956
49.1255 2141 46.2709
49.243 2127 46.1194
49.3605 2261 47.55
49.478 2196 46.8615
49.5955 2101 45.8367
49.713 2066 45.4533
49.8304 2157 46.4435
49.9479 2192 46.8188
50.0653 2237 47.2969
50.1827 2431 49.3052
50.3001 2465 49.6488
50.4175 2658 51.5558
50.5348 2768 52.6118
50.6521 2688 51.8459
50.7694 2921 54.0463
50.8867 2860 53.479
51.004 2899 53.8424
51.1212 2907 53.9166
51.2384 2916 54
51.3556 2962 54.4243
51.4727 2864 53.5164
51.5899 2707 52.0288
51.707 2704 52
51.824 2582 50.8134
51.9411 2605 51.0392
52.0581 2634 51.3225
52.175 2559 50.5866
52.2919 2642 51.4004
52.4088 2633 51.3128
52.5257 2777 52.6972
52.6425 2845 53.3385
52.7593 2903 53.8795
52.876 3046 55.1906
52.9927 3061 55.3263
53.1094 3098 55.6597
53.226 3078 55.4797
53.3426 3055 55.2721
53.4591 3101 55.6866
53.5756 3199 56.5597
53.692 3422 58.4979
53.8084 3574 59.7829
53.9248 3724 61.0246
54.0411 3851 62.0564
54.1573 4019 63.3956
54.2735 0 1
54.3896 0 1
54.5057 0 1
54.6217 0 1
54.7377 0 1
54.8537 0 1
54.9695 0 1
55.0853 0 1
55.2011 0 1
55.3168 0 1
55.4324 0 1
57.824 0 1
57.9396 0 1
58.0553 0 1
58.1711 0 1
58.2869 0 1
58.4028 0 1
58.5187 0 1
58.6347 0 1
58.7508 0 1
58.8669 0 1
58.983 4069 63.7887
59.0992 4474 66.888
59.2155 4552 67.4685
59.3318 4723 68.7241
59.4482 4906 70.0428
59.5646 5023 70.8731
59.681 4847 69.6204
59.7975 4887 69.9071
59.9141 4813 69.3758
60.0306 4470 66.8581
60.1473 4226 65.0077
60.2639 3977 63.0635
60.3807 3657 60.4731
60.4974 3510 59.2453
60.6142 3417 58.4551
60.731 3250 57.0088
60.8479 3286 57.3236
60.9648 3337 57.7668
61.0818 3346 57.8446
61.1987 3521 59.338
61.3158 3576 59.7997
61.4328 3552 59.5987
61.5499 3555 59.6238
61.667 3584 59.8665
61.7841 3380 58.1378
61.9013 3422 58.4979
62.0185 3381 58.1464
62.1357 3503 59.1861
62.253 3724 61.0246
62.3702 3859 62.1208
62.4875 4063 63.7417
62.6049 4210 64.8845
62.7222 4502 67.0969
62.8396 4442 66.6483
62.9569 4488 66.9925
63.0743 4520 67.2309
63.1918 4359 66.0227
63.3092 4516 67.2012
63.4267 4216 64.9307
63.5441 4104 64.0625
63.6616 3772 61.4166
63.7791 3666 60.5475
63.8966 3387 58.1979
64.0142 3041 55.1453
64.1317 2900 53.8516
64.2492 2895 53.8052
64.3668 2836 53.2541
64.4843 2873 53.6004
64.6019 2922 54.0555
64.7195 3114 55.8032
64.837 3138 56.0179
64.9546 3243 56.9473
65.0722 3281 57.28
65.1898 3191 56.4889
65.3074 3044 55.1725
65.4249 3140 56.0357
65.5425 2974 54.5344
65.6601 3056 55.2811
65.7777 3163 56.2406
65.8952 3438 58.6345
66.0128 3660 60.4979
66.1304 3710 60.9098
66.2479 4013 63.3482
66.3655 4139 64.3351
66.483 4252 65.2074
66.6005 4269 65.3376
66.718 4148 64.405
66.8355 4233 65.0615
66.953 3962 62.9444
67.0705 3940 62.7694
67.1879 3605 60.0417
67.3054 3541 59.5063
67.4228 3209 56.648
67.5402 2990 54.6809
67.6576 2725 52.2015
67.7749 2694 51.9038
67.8923 2573 50.7247
68.0096 2614 51.1273
68.1269 2791 52.8299
68.2442 3081 55.5068
68.3614 3099 55.6687
68.4787 3149 56.116
68.5958 3311 57.5413
68.713 3134 55.9821
68.8302 3225 56.7891
68.9473 3192 56.4978
69.0643 3066 55.3715
69.1814 3035 55.0908
69.2984 3092 55.6058
69.4154 3323 57.6455
69.5323 3548 59.5651
69.6492 3792 61.5792
69.7661 4027 63.4586
69.8829 4353 65.9773
69.9997 4545 67.4166
70.1165 4585 67.7126
70.2332 4569 67.5944
70.3499 4543 67.4018
70.4665 4572 67.6166
70.5831 4431 66.5658
70.6996 4212 64.8999
70.8161 3921 62.6179
70.9326 3586 59.8832
71.049 3407 58.3695
71.1653 3213 56.6833
71.2817 2931 54.1387
71.3979 2831 53.2071
71.5141 2703 51.9904
71.6303 2742 52.3641
71.7464 2507 50.07
71.8624 0 1
71.9784 0 1
72.0944 0 1
72.2102 0 1
72.3261 0 1
72.4418 0 1
72.5575 0 1
72.6732 0 1
75.1054 0 1
75.2209 0 1
75.3365 0 1
75.4521 0 1
75.5678 0 1
75.6835 0 1
75.7993 0 1
75.9151 0 1
76.031 0 1
76.147 3575 59.7913
76.263 3634 60.2827
76.3791 3576 59.7997
76.4952 3414 58.4294
76.6113 3194 56.5155
76.7276 2890 53.7587
76.8438 2837 53.2635
76.9601 2892 53.7773
77.0765 2826 53.1601
77.1929 3118 55.8391
77.3093 3351 57.8878
77.4258 3561 59.6741
77.5423 3573 59.7746
77.6589 3418 58.4637
77.7755 3346 57.8446
77.8921 3432 58.5833
78.0088 3309 57.5239
78.1256 3176 56.356
78.2423 3117 55.8301
78.3591 2999 54.7631
78.4759 3316 57.5847
78.5928 3590 59.9166
78.7097 3909 62.522
78.8266 4224 64.9923
78.9436 4482 66.9477
79.0606 4468 66.8431
79.1776 4535 67.3424
79.2946 4586 67.72
79.4117 4516 67.2012
79.5288 4605 67.8602
79.6459 4413 66.4304
79.7631 3947 62.8252
79.8802 3626 60.2163
79.9974 3415 58.438
80.1147 3248 56.9912
80.2319 2899 53.8424
80.3491 2724 52.192
80.4664 2802 52.9339
80.5837 2640 51.3809
80.701 2625 51.2348
80.8183 2691 51.8748
80.9357 2988 54.6626
81.053 3103 55.7046
81.1704 3131 55.9553
81.2877 3095 55.6327
81.4051 2999 54.7631
81.5225 3022 54.9727
81.6399 2886 53.7215
81.7573 2815 53.0566
81.8747 2694 51.9038
81.9922 2732 52.2685
82.1096 2918 54.0185
82.227 3135 55.9911
82.3444 3365 58.0086
82.4619 3658 60.4814
82.5793 3855 62.0886
82.6967 3802 61.6604
82.8142 3891 62.3779
82.9316 3820 61.8061
83.049 3910 62.53
83.1664 3715 60.9508
83.2838 3558 59.649
83.4012 3264 57.1314
83.5186 3082 55.5158
83.636 2950 54.3139
83.7534 2726 52.2111
83.8708 2595 50.9411
83.9881 2347 48.4458
84.1055 2356 48.5386
84.2228 2283 47.7807
84.3401 2346 48.4355
84.4575 2487 49.8698
84.5747 2808 52.9906
84.692 2987 54.6535
84.8093 3006 54.827
84.9265 2906 53.9073
85.0437 2913 53.9722
85.1609 2816 53.066
85.2781 2651 51.4879
85.3952 2567 50.6656
85.5123 2621 51.1957
85.6294 2741 52.3546
85.7465 2899 53.8424
85.8636 3265 57.1402
85.9806 3620 60.1664
86.0976 3746 61.2046
86.2145 4095 63.9922
86.3315 4155 64.4593
86.4484 4325 65.7647
86.5652 4377 66.1589
86.682 4272 65.3605
86.7988 4146 64.3894
86.9156 3962 62.9444
87.0323 3766 61.3677
87.149 3475 58.9491
87.2657 3420 58.4808
87.3823 3231 56.8419
87.4988 3101 55.6866
87.6154 2917 54.0093
87.7318 2887 53.7308
87.8483 2947 54.2863
87.9647 3220 56.745
88.081 3455 58.7792
88.1973 3730 61.0737
88.3136 3804 61.6766
88.4298 3883 62.3137
88.546 3760 61.3188
88.6621 3765 61.3596
88.7781 3499 59.1523
88.8942 0 1
89.0101 0 1
89.126 0 1
89.2419 0 1
89.3577 0 1
89.4734 0 1
89.5891 0 1
89.7047 0 1
89.8203 0 1
89.9358 0 1
92.3269 0 1
92.4424 0 1
92.558 0 1
92.6736 0 1
92.7893 0 1
92.905 0 1
93.0208 0 1
93.1366 0 1
93.2525 0 1
93.3685 0 1
93.4845 0 1
93.6005 8697 93.2577
93.7167 9567 97.811
93.8328 10382 101.892
93.949 11189 105.778
94.0653 11598 107.694
94.1816 12327 111.027
94.2979 11984 109.471
94.4143 12274 110.788
94.5307 12245 110.657
94.6472 12894 113.552
94.7637 13819 117.554
94.8803 15397 124.085
94.9969 17395 131.89
95.1135 19211 138.604
95.2302 20425 142.916
95.3469 21861 147.855
95.4637 23020 151.723
95.5805 24470 156.429
95.6973 25382 159.317
95.8142 26143 161.688
95.9311 26444 162.616
96.048 26168 161.765
96.1649 26766 163.603
96.2819 26499 162.785
96.3989 26447 162.625
96.516 25560 159.875
96.633 24658 157.029
96.7501 24170 155.467
96.8673 24080 155.177
96.9844 25154 158.6
97.1016 26527 162.871
97.2188 27876 166.961
97.336 29962 173.095
97.4532 30579 174.869
97.5704 30522 174.705
97.6877 30102 173.499
97.805 29649 172.189
97.9223 28118 167.684
98.0396 25566 159.894
98.1569 23424 153.049
98.2743 21977 148.246
98.3916 21565 146.85
98.509 23224 152.394
98.6264 25224 158.821
98.7438 27363 165.418
98.8612 28840 169.823
98.9786 29288 171.137
99.096 30104 173.505
99.2134 30605 174.943
99.3308 30915 175.827
99.4482 30783 175.451
99.5656 30269 173.98
99.6831 30184 173.735
99.8005 28722 169.476
99.9179 28290 168.196
100.035 27528 165.916
100.153 26387 162.441
100.27 25270 158.965
100.388 24509 156.554
100.505 24847 157.629
100.622 25748 160.462
100.74 27277 165.158
100.857 28461 168.704
100.975 29145 170.719
101.092 29231 170.971
101.209 29006 170.311
101.327 28864 169.894
101.444 27955 167.197
101.561 25661 160.191
101.679 23569 153.522
101.796 21355 146.134
101.913 20285 142.425
102.03 20518 143.241
102.148 22359 149.529
102.265 25779 160.558
102.382 23623 153.698
102.499 25822 160.692
102.616 26046 161.388
102.733 26192 161.839
102.851 25781 160.565
102.968 25274 158.978
103.085 24329 155.978
103.202 23130 152.086
103.319 22082 148.6
103.436 20714 143.924
103.552 19240 138.708
103.669 17738 133.184
103.786 16162 127.13
103.903 14971 122.356
104.02 14298 119.574
104.137 13883 117.826
104.253 14093 118.714
104.37 13348 115.534
104.487 13536 116.344
104.603 12845 113.336
104.72 11790 108.582
104.836 10956 104.671
104.953 10026 100.13
105.069 8660 93.0591
105.186 7753 88.0511
105.302 6847 82.7466
105.418 6433 80.206
105.535 6627 81.4064
105.651 6880 82.9458
105.767 7293 85.3991
105.883 7500 86.6025
105.999 7477 86.4696
106.115 0 1
106.231 0 1
106.347 0 1
106.463 0 1
106.579 0 1
106.694 0 1
106.81 0 1
106.926 0 1
107.041 0 1
107.157 0 1
109.576 0 1
109.692 0 1
109.807 0 1
109.923 0 1
110.039 0 1
110.155 0 1
110.27 0 1
110.386 0 1
110.502 0 1
110.618 4204 64.8383
110.735 4817 69.4046
110.851 5405 73.5187
110.967 5801 76.1643
111.083 5782 76.0395
111.199 6010 77.5242
111.316 6057 77.8267
111.432 6202 78.7528
111.549 5982 77.3434
111.665 5912 76.8895
111.782 5542 74.4446
111.898 5105 71.4493
112.015 4859 69.7065
112.132 4822 69.4406
112.248 4533 67.3276
112.365 4266 65.3146
112.482 4152 64.436
112.599 3849 62.0403
112.716 3958 62.9126
112.832 4049 63.6318
112.949 4188 64.7148
113.066 4143 64.3661
113.183 4205 64.846
113.3 3996 63.2139
113.417 4010 63.3246
113.534 3904 62.482
113.652 3848 62.0322
113.769 3766 61.3677
113.886 4017 63.3798
114.003 3875 62.2495
114.12 4206 64.8537
114.238 4664 68.2935
114.355 5038 70.9789
114.472 5638 75.0866
114.589 5231 72.3257
114.707 5646 75.1399
114.824 5629 75.0267
114.942 5747 75.809
115.059 5684 75.3923
115.176 5641 75.1066
115.294 5423 73.641
115.411 5153 71.7844
115.529 4824 69.455
115.646 4641 68.1249
115.764 4647 68.1689
115.881 4417 66.4605
115.999 4113 64.1327
116.116 4062 63.7338
116.234 3953 62.8729
116.351 3881 62.2977
116.469 4074 63.8279
116.586 4230 65.0385
116.704 4216 64.9307
116.821 4028 63.4665
116.939 4130 64.2651
117.056 4025 63.4429
117.174 4154 64.4515
117.291 4140 64.3428
117.409 4260 65.2687
117.526 4365 66.0681
117.644 4670 68.3374
117.761 4928 70.1997
117.879 5555 74.5319
117.996 5589 74.7596
118.114 6021 77.5951
118.231 6320 79.4984
118.349 6186 78.6511
118.466 6264 79.1454
118.584 6259 79.1138
118.701 6251 79.0633
118.819 6115 78.1985
118.936 5846 76.4591
119.053 5586 74.7395
119.171 5394 73.4439
119.288 5114 71.5122
119.405 4823 69.4478
119.523 4810 69.3542
119.64 4605 67.8602
119.757 4465 66.8207
119.875 4275 65.3835
119.992 4281 65.4294
120.109 4365 66.0681
120.226 4363 66.053
120.343 4328 65.7875
120.46 4210 64.8845
120.578 4205 64.846
120.695 4310 65.6506
120.812 4440 66.6333
120.929 4393 66.2797
121.046 4435 66.5958
121.163 4514 67.1863
121.279 4765 69.029
121.396 4900 70
121.513 5330 73.0068
121.63 5562 74.5788
121.747 5892 76.7594
121.863 5994 77.4209
121.98 6053 77.801
122.097 6256 79.0949
122.213 6130 78.2943
122.33 6163 78.5048
122.446 6021 77.5951
122.563 5630 75.0333
122.679 5518 74.2832
122.795 5467 73.9392
122.912 5194 72.0694
123.028 5078 71.2601
123.144 4886 69.8999
123.26 4689 68.4763
123.377 0 1
123.493 0 1
123.609 0 1
123.725 0 1
123.84 0 1
123.956 0 1
124.072 0 1
124.188 0 1
124.303 0 1
124.419 0 1
126.852 0 1
126.968 0 1
127.083 0 1
127.199 0 1
127.315 0 1
127.431 0 1
127.547 0 1
127.663 0 1
127.779 0 1
127.895 0 1
128.011 0 1
128.127 0 1
128.243 0 1
128.359 5649 75.1598
128.476 5429 73.6817
128.592 5181 71.9792
128.708 5094 71.3723
128.825 4903 70.0214
128.941 5008 70.7672
129.058 4910 70.0714
129.174 5055 71.0985
129.291 4928 70.1997
129.408 4735 68.8113
129.524 4748 68.9057
129.641 4865 69.7496
129.758 4963 70.4486
129.875 4979 70.562
129.992 4929 70.2068
130.108 4975 70.5337
130.225 5165 71.8679
130.342 5361 73.2189
130.459 5422 73.6342
130.576 5847 76.4657
130.693 5906 76.8505
130.81 5838 76.4068
130.928 5937 77.0519
131.045 5964 77.2269
131.162 5811 76.2299
131.279 5851 76.4918
131.396 5776 76
131.513 5592 74.7797
131.631 5499 74.1552
131.748 5207 72.1595
131.865 5172 71.9166
131.983 5115 71.5192
132.1 4866 69.7567
132.217 4576 67.6461
132.335 4546 67.424
132.452 4420 66.4831
132.57 4512 67.1714
132.687 4344 65.909
132.804 4622 67.9853
132.922 4521 67.2384
133.039 4492 67.0224
133.157 4307 65.6277
133.274 4391 66.2646
133.392 4433 66.5808
133.509 4395 66.2948
133.627 4385 66.2193
133.744 4254 65.2227
133.862 4370 66.106
133.979 4512 67.1714
134.097 4838 69.5557
134.214 4919 70.1356
134.332 4928 70.1997
134.449 4930 70.214
134.567 5037 70.9718
134.684 5162 71.8471
134.802 5157 71.8123
134.919 5065 71.1688
135.037 5042 71.007
135.154 5044 71.0211
135.272 5000 70.7107
135.389 5016 70.8237
135.507 4702 68.5711
135.624 4594 67.7791
135.742 4438 66.6183
135.859 4493 67.0298
135.977 4253 65.215
136.094 4488 66.9925
136.211 4549 67.4463
136.329 4457 66.7608
136.446 4674 68.3667
136.564 4554 67.4833
136.681 4450 66.7083
136.798 4481 66.9403
136.915 4519 67.2235
137.033 4451 66.7158
137.15 4362 66.0454
137.267 4380 66.1816
137.384 4376 66.1513
137.502 4573 67.624
137.619 4716 68.6731
137.736 4855 69.6778
137.853 4770 69.0652
137.97 4926 70.1855
138.087 5080 71.2741
138.204 4985 70.6045
138.321 5184 72
138.438 5104 71.4423
138.555 5193 72.0625
138.672 5264 72.5534
138.788 5191 72.0486
138.905 5004 70.739
139.022 5027 70.9013
139.139 4938 70.2709
139.255 4841 69.5773
139.372 4643 68.1396
139.488 4585 67.7126
139.605 4653 68.2129
139.721 4686 68.4544
139.838 4657 68.2422
139.954 4627 68.0221
140.071 4596 67.7938
140.187 4602 67.838
140.303 4591 67.7569
140.419 4581 67.6831
140.535 4630 68.0441
140.652 4530 67.3053
140.768 0 1
140.884 0 1
141 0 1
141.115 0 1
141.231 0 1
141.347 0 1
141.463 0 1
141.578 0 1
141.694 0 1
144.104 0 1
144.219 0 1
144.335 0 1
144.45 0 1
144.566 0 1
144.682 0 1
144.798 0 1
144.914 0 1
145.03 0 1
145.146 4104 64.0625
145.262 4087 63.9296
145.378 4170 64.5755
145.494 4201 64.8151
145.61 4172 64.591
145.726 4037 63.5374
145.842 4051 63.6475
145.959 4060 63.7181
146.075 3964 62.9603
146.192 4041 63.5689
146.308 4247 65.169
146.425 4417 66.4605
146.541 4392 66.2722
146.658 4342 65.8939
146.774 4499 67.0746
146.891 4532 67.3201
147.008 4646 68.1616
147.125 4708 68.6149
147.241 4790 69.2098
147.358 4593 67.7717
147.475 4535 67.3424
147.592 4518 67.2161
147.709 4505 67.1193
147.826 4256 65.238
147.943 4194 64.7611
148.06 4101 64.0391
148.177 4182 64.6684
148.294 4164 64.5291
148.411 4142 64.3584
148.528 4153 64.4438
148.645 4155 64.4593
148.762 4168 64.56
148.88 4307 65.6277
148.997 4168 64.56
149.114 4258 65.2534
149.231 4032 63.498
149.349 4174 64.6065
149.466 3956 62.8967
149.583 3978 63.0714
149.701 3898 62.434
149.818 3922 62.6259
149.935 4131 64.2729
150.053 4174 64.6065
150.17 4287 65.4752
150.287 4348 65.9394
150.405 4357 66.0076
150.522 4512 67.1714
150.64 4581 67.6831
150.757 4646 68.1616
150.875 4607 67.8749
150.992 4616 67.9412
151.11 4569 67.5944
151.227 4531 67.3127
151.344 4510 67.1565
151.462 4426 66.5282
151.579 4308 65.6354
151.697 4187 64.707
151.814 4182 64.6684
151.932 4084 63.9062
152.049 4196 64.7765
152.167 4166 64.5446
152.284 4335 65.8407
152.402 4197 64.7843
152.519 4323 65.7495
152.636 4167 64.5523
152.754 4209 64.8768
152.871 4155 64.4593
152.989 4191 64.7379
153.106 4067 63.773
153.223 4160 64.4981
153.341 4131 64.2729
153.458 4272 65.3605
153.575 4266 65.3146
153.693 4509 67.1491
153.81 4624 68
153.927 4678 68.3959
154.044 5034 70.9507
154.162 5079 71.2671
154.279 5154 71.7914
154.396 5406 73.5255
154.513 5300 72.8011
154.63 5417 73.6003
154.747 5481 74.0338
154.864 5459 73.885
154.981 5285 72.698
155.098 5252 72.4707
155.215 5126 71.5961
155.332 4991 70.647
155.449 4991 70.647
155.566 5026 70.8943
155.683 5046 71.0352
155.8 5135 71.6589
155.917 4888 69.9142
156.033 4988 70.6258
156.15 0 1
156.267 0 1
156.383 0 1
156.5 0 1
156.617 0 1
156.733 0 1
156.85 0 1
156.966 0 1
157.082 0 1
157.199 0 1
157.315 0 1
157.431 0 1
157.547 0 1
157.664 0 1
157.78 0 1
157.896 0 1
158.012 0 1
158.128 0 1
158.244 0 1
158.359 0 1
158.475 0 1
158.591 0 1
158.706 0 1
