
6.15755 0 1
6.2731 0 1
6.3887 0 1
6.50437 0 1
6.62009 0 1
6.73587 0 1
6.8517 0 1
6.96759 0 1
7.08353 0 1
7.19952 0 1
7.31557 0 1
7.43166 0 1
7.54781 0 1
7.664 0 1
7.78024 0 1
7.89653 0 1
8.01286 0 1
8.12924 0 1
8.24567 0 1
8.36213 0 1
8.47864 0 1
8.59519 0 1
8.71178 0 1
8.82841 0 1
8.94508 0 1
9.06179 0 1
9.17853 0 1
9.29531 0 1
9.41212 0 1
9.52897 0 1
9.64584 0 1
9.76276 0 1
9.8797 0 1
9.99667 0 1
10.1137 0 1
10.2307 0 1
10.3478 0 1
10.4648 0 1
10.5819 0 1
10.6991 0 1
10.8162 0 1
10.9334 0 1
11.0506 0 1
11.1678 0 1
11.285 0 1
11.4023 0 1
11.5196 0 1
11.6369 0 1
11.7542 0 1
11.8715 0 1
11.9888 0 1
12.1062 0 1
12.2235 0 1
12.3409 0 1
12.4582 0 1
12.5756 0 1
12.693 0 1
12.8104 0 1
12.9278 0 1
13.0452 0 1
13.1626 0 1
13.28 0 1
13.3974 0 1
13.5149 0 1
13.6323 0 1
13.7497 0 1
13.8671 0 1
13.9845 0 1
14.1019 0 1
14.2193 0 1
14.3367 0 1
14.4541 0 1
14.5714 0 1
14.6888 0 1
14.8062 0 1
14.9235 0 1
15.0408 1031 32.1092
15.1581 1039 32.2335
15.2755 1051 32.4191
15.3927 1069 32.6956
15.51 1112 33.3467
15.6273 1023 31.9844
15.7445 1026 32.0312
15.8617 1028 32.0624
15.9789 939 30.6431
16.0961 950 30.8221
16.2132 977 31.257
16.3304 1000 31.6228
16.4475 956 30.9192
16.5646 1014 31.8434
16.6816 973 31.1929
16.7986 957 30.9354
16.9156 914 30.2324
17.0326 893 29.8831
17.1496 944 30.7246
17.2665 923 30.3809
17.3833 937 30.6105
17.5002 899 29.9833
17.617 945 30.7409
17.7338 906 30.0998
17.8505 936 30.5941
17.9672 960 30.9839
18.0839 937 30.6105
18.2005 981 31.3209
18.3171 973 31.1929
18.4337 917 30.282
18.5502 923 30.3809
18.6666 976 31.241
18.7831 961 31
18.8994 890 29.8329
19.0158 847 29.1033
19.1321 901 30.0167
19.2483 821 28.6531
19.3645 782 27.9643
19.4806 841 29
19.5967 792 28.1425
19.7128 806 28.3901
19.8288 712 26.6833
19.9447 682 26.1151
20.0606 0 1
20.1764 0 1
20.2922 0 1
20.4079 0 1
20.5236 0 1
20.6392 0 1
20.7548 0 1
20.8702 0 1
23.3078 0 1
23.4233 0 1
23.539 0 1
23.6547 0 1
23.7704 0 1
23.8862 0 1
24.0021 0 1
24.118 0 1
24.234 0 1
24.35 0 1
24.4661 411 20.2731
24.5822 497 22.2935
24.6984 507 22.5167
24.8146 601 24.5153
24.9309 606 24.6171
25.0472 697 26.4008
25.1636 761 27.5862
25.28 851 29.1719
25.3965 946 30.7571
25.513 952 30.8545
25.6296 986 31.4006
25.7462 978 31.273
25.8628 1035 32.1714
25.9795 1051 32.4191
26.0962 1070 32.7109
26.213 981 31.3209
26.3298 938 30.6268
26.4466 963 31.0322
26.5635 900 30
26.6804 903 30.05
26.7973 857 29.2746
26.9143 886 29.7658
27.0313 841 29
27.1483 867 29.4449
27.2653 822 28.6705
27.3824 834 28.8791
27.4996 838 28.9482
27.6167 883 29.7153
27.7339 800 28.2843
27.8511 833 28.8617
27.9683 803 28.3373
28.0855 860 29.3258
28.2028 854 29.2233
28.3201 897 29.95
28.4374 815 28.5482
28.5547 810 28.4605
28.6721 857 29.2746
28.7894 861 29.3428
28.9068 911 30.1828
29.0242 913 30.2159
29.1416 885 29.7489
29.259 919 30.315
29.3764 863 29.3769
29.4939 851 29.1719
29.6113 856 29.2575
29.7288 793 28.1603
29.8463 852 29.189
29.9638 779 27.9106
30.0812 808 28.4253
30.1987 785 28.0179
30.3162 822 28.6705
30.4337 856 29.2575
30.5512 833 28.8617
30.6687 878 29.6311
30.7862 856 29.2575
30.9037 861 29.3428
31.0212 892 29.8664
31.1387 880 29.6648
31.2562 825 28.7228
31.3737 780 27.9285
31.4912 860 29.3258
31.6087 899 29.9833
31.7262 867 29.4449
31.8436 798 28.2489
31.9611 786 28.0357
32.0785 777 27.8747
32.1959 738 27.1662
32.3134 830 28.8097
32.4308 758 27.5318
32.5482 788 28.0713
32.6655 764 27.6405
32.7829 783 27.9821
32.9002 756 27.4955
33.0176 778 27.8927
33.1349 739 27.1846
33.2522 785 28.0179
33.3694 751 27.4044
33.4867 760 27.5681
33.6039 764 27.6405
33.7211 789 28.0891
33.8383 806 28.3901
33.9554 759 27.55
34.0725 822 28.6705
34.1896 790 28.1069
34.3067 759 27.55
34.4237 761 27.5862
34.5407 805 28.3725
34.6577 800 28.2843
34.7746 815 28.5482
34.8915 739 27.1846
35.0084 712 26.6833
35.1252 747 27.3313
35.242 828 28.775
35.3587 800 28.2843
35.4755 736 27.1293
35.5921 731 27.037
35.7088 695 26.3629
35.8254 727 26.9629
35.9419 740 27.2029
36.0584 688 26.2298
36.1749 710 26.6458
36.2913 715 26.7395
36.4077 740 27.2029
36.524 650 25.4951
36.6403 616 24.8193
36.7565 593 24.3516
36.8727 587 24.2281
36.9889 559 23.6432
37.1049 501 22.383
37.221 0 1
37.3369 0 1
37.4529 0 1
37.5687 0 1
37.6845 0 1
37.8003 0 1
37.916 0 1
38.0316 0 1
38.1472 0 1
40.5851 0 1
40.7008 0 1
40.8164 0 1
40.9322 0 1
41.048 0 1
41.1639 0 1
41.2798 0 1
41.3958 0 1
41.5118 0 1
41.6279 0 1
41.744 287 16.9411
41.8602 337 18.3576
41.9765 413 20.3224
42.0928 461 21.4709
42.2091 492 22.1811
42.3255 568 23.8328
42.4419 554 23.5372
42.5584 612 24.7386
42.675 563 23.7276
42.7915 607 24.6374
42.9081 578 24.0416
43.0248 598 24.454
43.1415 559 23.6432
43.2582 556 23.5797
43.375 581 24.1039
43.4918 618 24.8596
43.6087 556 23.5797
43.7256 560 23.6643
43.8425 552 23.4947
43.9595 532 23.0651
44.0765 613 24.7588
44.1935 601 24.5153
44.3106 576 24
44.4277 556 23.5797
44.5448 548 23.4094
44.6619 507 22.5167
44.7791 521 22.8254
44.8963 562 23.7065
45.0136 591 24.3105
45.1308 595 24.3926
45.2481 585 24.1868
45.3654 599 24.4745
45.4827 571 23.8956
45.6001 625 25
45.7174 657 25.632
45.8348 643 25.3574
45.9522 609 24.6779
46.0697 610 24.6982
46.1871 627 25.04
46.3046 530 23.0217
46.422 567 23.8118
46.5395 537 23.1733
46.657 542 23.2809
46.7745 532 23.0651
46.892 558 23.622
47.0096 594 24.3721
47.1271 541 23.2594
47.2446 588 24.2487
47.3622 550 23.4521
47.4797 533 23.0868
47.5973 521 22.8254
47.7149 581 24.1039
47.8324 570 23.8747
47.95 573 23.9374
48.0675 541 23.2594
48.1851 527 22.9565
48.3027 511 22.6053
48.4202 510 22.5832
48.5378 530 23.0217
48.6554 562 23.7065
48.7729 595 24.3926
48.8904 625 25
49.008 631 25.1197
49.1255 585 24.1868
49.243 569 23.8537
49.3605 586 24.2074
49.478 563 23.7276
49.5955 556 23.5797
49.713 504 22.4499
49.8304 545 23.3452
49.9479 552 23.4947
50.0653 491 22.1585
50.1827 462 21.4942
50.3001 502 22.4054
50.4175 489 22.1133
50.5348 576 24
50.6521 553 23.516
50.7694 530 23.0217
50.8867 498 22.3159
51.004 515 22.6936
51.1212 528 22.9783
51.2384 534 23.1084
51.3556 583 24.1454
51.4727 504 22.4499
51.5899 479 21.8861
51.707 478 21.8632
51.824 531 23.0434
51.9411 508 22.5389
52.0581 534 23.1084
52.175 532 23.0651
52.2919 530 23.0217
52.4088 575 23.9792
52.5257 528 22.9783
52.6425 556 23.5797
52.7593 546 23.3666
52.876 549 23.4307
52.9927 573 23.9374
53.1094 560 23.6643
53.226 578 24.0416
53.3426 566 23.7908
53.4591 550 23.4521
53.5756 516 22.7156
53.692 492 22.1811
53.8084 373 19.3132
53.9248 372 19.2873
54.0411 391 19.7737
54.1573 376 19.3907
54.2735 0 1
54.3896 0 1
54.5057 0 1
54.6217 0 1
54.7377 0 1
54.8537 0 1
54.9695 0 1
55.0853 0 1
55.2011 0 1
55.3168 0 1
55.4324 0 1
57.824 0 1
57.9396 0 1
58.0553 0 1
58.1711 0 1
58.2869 0 1
58.4028 0 1
58.5187 0 1
58.6347 0 1
58.7508 0 1
58.8669 0 1
58.983 367 19.1572
59.0992 419 20.4695
59.2155 511 22.6053
59.3318 560 23.6643
59.4482 668 25.8457
59.5646 702 26.4953
59.681 749 27.3679
59.7975 711 26.6646
59.9141 737 27.1477
60.0306 760 27.5681
60.1473 781 27.9464
60.2639 803 28.3373
60.3807 806 28.3901
60.4974 727 26.9629
60.6142 736 27.1293
60.731 778 27.8927
60.8479 785 28.0179
60.9648 748 27.3496
61.0818 796 28.2135
61.1987 765 27.6586
61.3158 763 27.6225
61.4328 804 28.3549
61.5499 784 28
61.667 854 29.2233
61.7841 825 28.7228
61.9013 815 28.5482
62.0185 747 27.3313
62.1357 806 28.3901
62.253 670 25.8844
62.3702 673 25.9422
62.4875 616 24.8193
62.6049 678 26.0384
62.7222 680 26.0768
62.8396 704 26.533
62.9569 757 27.5136
63.0743 706 26.5707
63.1918 751 27.4044
63.3092 711 26.6646
63.4267 684 26.1534
63.5441 651 25.5147
63.6616 648 25.4558
63.7791 630 25.0998
63.8966 656 25.6125
64.0142 603 24.5561
64.1317 615 24.7992
64.2492 615 24.7992
64.3668 622 24.9399
64.4843 624 24.98
64.6019 628 25.0599
64.7195 615 24.7992
64.837 663 25.7488
64.9546 678 26.0384
65.0722 585 24.1868
65.1898 622 24.9399
65.3074 675 25.9808
65.4249 683 26.1343
65.5425 687 26.2107
65.6601 664 25.7682
65.7777 637 25.2389
65.8952 583 24.1454
66.0128 553 23.516
66.1304 587 24.2281
66.2479 572 23.9165
66.3655 596 24.4131
66.483 627 25.04
66.6005 626 25.02
66.718 630 25.0998
66.8355 636 25.219
66.953 613 24.7588
67.0705 606 24.6171
67.1879 667 25.8263
67.3054 604 24.5764
67.4228 593 24.3516
67.5402 574 23.9583
67.6576 572 23.9165
67.7749 565 23.7697
67.8923 611 24.7184
68.0096 585 24.1868
68.1269 578 24.0416
68.2442 607 24.6374
68.3614 632 25.1396
68.4787 646 25.4165
68.5958 637 25.2389
68.713 635 25.1992
68.8302 645 25.3969
68.9473 649 25.4755
69.0643 640 25.2982
69.1814 601 24.5153
69.2984 600 24.4949
69.4154 601 24.5153
69.5323 570 23.8747
69.6492 547 23.388
69.7661 539 23.2164
69.8829 600 24.4949
69.9997 625 25
70.1165 617 24.8395
70.2332 634 25.1794
70.3499 556 23.5797
70.4665 552 23.4947
70.5831 511 22.6053
70.6996 524 22.891
70.8161 442 21.0238
70.9326 421 20.5183
71.049 416 20.3961
71.1653 330 18.1659
71.2817 293 17.1172
71.3979 319 17.8606
71.5141 287 16.9411
71.6303 249 15.7797
71.7464 208 14.4222
71.8624 0 1
71.9784 0 1
72.0944 0 1
72.2102 0 1
72.3261 0 1
72.4418 0 1
72.5575 0 1
72.6732 0 1
75.1054 0 1
75.2209 0 1
75.3365 0 1
75.4521 0 1
75.5678 0 1
75.6835 0 1
75.7993 0 1
75.9151 0 1
76.031 0 1
76.147 386 19.6469
76.263 393 19.8242
76.3791 477 21.8403
76.4952 429 20.7123
76.6113 462 21.4942
76.7276 467 21.6102
76.8438 458 21.4009
76.9601 545 23.3452
77.0765 475 21.7945
77.1929 535 23.1301
77.3093 523 22.8692
77.4258 533 23.0868
77.5423 547 23.388
77.6589 549 23.4307
77.7755 552 23.4947
77.8921 558 23.622
78.0088 583 24.1454
78.1256 557 23.6008
78.2423 563 23.7276
78.3591 549 23.4307
78.4759 470 21.6795
78.5928 491 22.1585
78.7097 484 22
78.8266 457 21.3776
78.9436 473 21.7486
79.0606 483 21.9773
79.1776 542 23.2809
79.2946 529 23
79.4117 536 23.1517
79.5288 584 24.1661
79.6459 573 23.9374
79.7631 579 24.0624
79.8802 530 23.0217
79.9974 518 22.7596
80.1147 492 22.1811
80.2319 490 22.1359
80.3491 501 22.383
80.4664 524 22.891
80.5837 500 22.3607
80.701 527 22.9565
80.8183 537 23.1733
80.9357 562 23.7065
81.053 545 23.3452
81.1704 563 23.7276
81.2877 560 23.6643
81.4051 567 23.8118
81.5225 572 23.9165
81.6399 615 24.7992
81.7573 562 23.7065
81.8747 548 23.4094
81.9922 549 23.4307
82.1096 570 23.8747
82.227 550 23.4521
82.3444 461 21.4709
82.4619 473 21.7486
82.5793 542 23.2809
82.6967 518 22.7596
82.8142 562 23.7065
82.9316 535 23.1301
83.049 556 23.5797
83.1664 615 24.7992
83.2838 594 24.3721
83.4012 589 24.2693
83.5186 633 25.1595
83.636 553 23.516
83.7534 524 22.891
83.8708 493 22.2036
83.9881 488 22.0907
84.1055 486 22.0454
84.2228 571 23.8956
84.3401 532 23.0651
84.4575 578 24.0416
84.5747 570 23.8747
84.692 582 24.1247
84.8093 583 24.1454
84.9265 600 24.4949
85.0437 558 23.622
85.1609 611 24.7184
85.2781 558 23.622
85.3952 575 23.9792
85.5123 616 24.8193
85.6294 600 24.4949
85.7465 552 23.4947
85.8636 491 22.1585
85.9806 473 21.7486
86.0976 548 23.4094
86.2145 610 24.6982
86.3315 573 23.9374
86.4484 555 23.5584
86.5652 615 24.7992
86.682 585 24.1868
86.7988 627 25.04
86.9156 605 24.5967
87.0323 607 24.6374
87.149 577 24.0208
87.2657 522 22.8473
87.3823 556 23.5797
87.4988 517 22.7376
87.6154 525 22.9129
87.7318 509 22.561
87.8483 528 22.9783
87.9647 492 22.1811
88.081 434 20.8327
88.1973 447 21.1424
88.3136 436 20.8806
88.4298 432 20.7846
88.546 418 20.445
88.6621 375 19.3649
88.7781 347 18.6279
88.8942 0 1
89.0101 0 1
89.126 0 1
89.2419 0 1
89.3577 0 1
89.4734 0 1
89.5891 0 1
89.7047 0 1
89.8203 0 1
89.9358 0 1
92.3269 0 1
92.4424 0 1
92.558 0 1
92.6736 0 1
92.7893 0 1
92.905 0 1
93.0208 0 1
93.1366 0 1
93.2525 0 1
93.3685 0 1
93.4845 0 1
93.6005 479 21.8861
93.7167 527 22.9565
93.8328 529 23
93.949 533 23.0868
94.0653 593 24.3516
94.1816 571 23.8956
94.2979 610 24.6982
94.4143 664 25.7682
94.5307 627 25.04
94.6472 582 24.1247
94.7637 574 23.9583
94.8803 560 23.6643
94.9969 573 23.9374
95.1135 565 23.7697
95.2302 611 24.7184
95.3469 585 24.1868
95.4637 644 25.3772
95.5805 646 25.4165
95.6973 661 25.7099
95.8142 707 26.5895
95.9311 623 24.96
96.048 625 25
96.1649 637 25.2389
96.2819 644 25.3772
96.3989 617 24.8395
96.516 581 24.1039
96.633 553 23.516
96.7501 559 23.6432
96.8673 571 23.8956
96.9844 573 23.9374
97.1016 612 24.7386
97.2188 647 25.4362
97.336 622 24.9399
97.4532 651 25.5147
97.5704 665 25.7876
97.6877 643 25.3574
97.805 690 26.2679
97.9223 695 26.3629
98.0396 675 25.9808
98.1569 671 25.9037
98.2743 697 26.4008
98.3916 655 25.593
98.509 643 25.3574
98.6264 620 24.8998
98.7438 679 26.0576
98.8612 661 25.7099
98.9786 714 26.7208
99.096 671 25.9037
99.2134 744 27.2764
99.3308 762 27.6043
99.4482 732 27.0555
99.5656 772 27.7849
99.6831 709 26.6271
99.8005 736 27.1293
99.9179 706 26.5707
100.035 704 26.533
100.153 705 26.5518
100.27 681 26.096
100.388 729 27
100.505 692 26.3059
100.622 760 27.5681
100.74 729 27
100.857 706 26.5707
100.975 738 27.1662
101.092 709 26.6271
101.209 730 27.0185
101.327 735 27.1109
101.444 763 27.6225
101.561 766 27.6767
101.679 720 26.8328
101.796 682 26.1151
101.913 647 25.4362
102.03 663 25.7488
102.148 648 25.4558
102.265 612 24.7386
102.382 621 24.9199
102.499 741 27.2213
102.616 778 27.8927
102.733 676 26
102.851 716 26.7582
102.968 713 26.7021
103.085 726 26.9444
103.202 773 27.8029
103.319 744 27.2764
103.436 718 26.7955
103.552 641 25.318
103.669 685 26.1725
103.786 653 25.5539
103.903 706 26.5707
104.02 664 25.7682
104.137 747 27.3313
104.253 710 26.6458
104.37 721 26.8514
104.487 743 27.258
104.603 724 26.9072
104.72 726 26.9444
104.836 696 26.3818
104.953 692 26.3059
105.069 743 27.258
105.186 646 25.4165
105.302 628 25.0599
105.418 556 23.5797
105.535 517 22.7376
105.651 447 21.1424
105.767 417 20.4206
105.883 435 20.8567
105.999 373 19.3132
106.115 0 1
106.231 0 1
106.347 0 1
106.463 0 1
106.579 0 1
106.694 0 1
106.81 0 1
106.926 0 1
107.041 0 1
107.157 0 1
109.576 0 1
109.692 0 1
109.807 0 1
109.923 0 1
110.039 0 1
110.155 0 1
110.27 0 1
110.386 0 1
110.502 0 1
110.618 339 18.412
110.735 375 19.3649
110.851 386 19.6469
110.967 467 21.6102
111.083 515 22.6936
111.199 602 24.5357
111.316 594 24.3721
111.432 662 25.7294
111.549 665 25.7876
111.665 649 25.4755
111.782 713 26.7021
111.898 601 24.5153
112.015 669 25.865
112.132 609 24.6779
112.248 591 24.3105
112.365 586 24.2074
112.482 612 24.7386
112.599 635 25.1992
112.716 630 25.0998
112.832 635 25.1992
112.949 644 25.3772
113.066 608 24.6577
113.183 593 24.3516
113.3 618 24.8596
113.417 630 25.0998
113.534 659 25.671
113.652 637 25.2389
113.769 642 25.3377
113.886 633 25.1595
114.003 566 23.7908
114.12 621 24.9199
114.238 553 23.516
114.355 550 23.4521
114.472 515 22.6936
114.589 550 23.4521
114.707 596 24.4131
114.824 594 24.3721
114.942 589 24.2693
115.059 590 24.2899
115.176 579 24.0624
115.294 572 23.9165
115.411 557 23.6008
115.529 536 23.1517
115.646 540 23.2379
115.764 529 23
115.881 511 22.6053
115.999 567 23.8118
116.116 538 23.1948
116.234 571 23.8956
116.351 545 23.3452
116.469 541 23.2594
116.586 536 23.1517
116.704 492 22.1811
116.821 544 23.3238
116.939 541 23.2594
117.056 570 23.8747
117.174 586 24.2074
117.291 560 23.6643
117.409 517 22.7376
117.526 494 22.2261
117.644 522 22.8473
117.761 515 22.6936
117.879 522 22.8473
117.996 477 21.8403
118.114 543 23.3024
118.231 494 22.2261
118.349 557 23.6008
118.466 559 23.6432
118.584 519 22.7816
118.701 533 23.0868
118.819 556 23.5797
118.936 537 23.1733
119.053 519 22.7816
119.171 511 22.6053
119.288 479 21.8861
119.405 478 21.8632
119.523 494 22.2261
119.64 537 23.1733
119.757 482 21.9545
119.875 514 22.6716
119.992 537 23.1733
120.109 453 21.2838
120.226 501 22.383
120.343 455 21.3307
120.46 472 21.7256
120.578 557 23.6008
120.695 525 22.9129
120.812 513 22.6495
120.929 553 23.516
121.046 484 22
121.163 502 22.4054
121.279 489 22.1133
121.396 493 22.2036
121.513 414 20.347
121.63 458 21.4009
121.747 444 21.0713
121.863 444 21.0713
121.98 410 20.2485
122.097 479 21.8861
122.213 436 20.8806
122.33 479 21.8861
122.446 424 20.5913
122.563 385 19.6214
122.679 347 18.6279
122.795 327 18.0831
122.912 303 17.4069
123.028 285 16.8819
123.144 264 16.2481
123.26 253 15.906
123.377 0 1
123.493 0 1
123.609 0 1
123.725 0 1
123.84 0 1
123.956 0 1
124.072 0 1
124.188 0 1
124.303 0 1
124.419 0 1
126.852 0 1
126.968 0 1
127.083 0 1
127.199 0 1
127.315 0 1
127.431 0 1
127.547 0 1
127.663 0 1
127.779 0 1
127.895 0 1
128.011 0 1
128.127 0 1
128.243 0 1
128.359 518 22.7596
128.476 487 22.0681
128.592 541 23.2594
128.708 597 24.4336
128.825 608 24.6577
128.941 583 24.1454
129.058 572 23.9165
129.174 566 23.7908
129.291 522 22.8473
129.408 625 25
129.524 609 24.6779
129.641 567 23.8118
129.758 561 23.6854
129.875 550 23.4521
129.992 617 24.8395
130.108 617 24.8395
130.225 571 23.8956
130.342 536 23.1517
130.459 564 23.7487
130.576 583 24.1454
130.693 532 23.0651
130.81 560 23.6643
130.928 593 24.3516
131.045 696 26.3818
131.162 697 26.4008
131.279 726 26.9444
131.396 817 28.5832
131.513 778 27.8927
131.631 720 26.8328
131.748 799 28.2666
131.865 774 27.8209
131.983 857 29.2746
132.1 911 30.1828
132.217 970 31.1448
132.335 1019 31.9218
132.452 1045 32.3265
132.57 1060 32.5576
132.687 1136 33.7046
132.804 1131 33.6303
132.922 1162 34.0881
133.039 1259 35.4824
133.157 1300 36.0555
133.274 1296 36
133.392 1381 37.1618
133.509 1352 36.7696
133.627 1296 36
133.744 1198 34.6121
133.862 1130 33.6155
133.979 1136 33.7046
134.097 1169 34.1906
134.214 1411 37.5633
134.332 1396 37.3631
134.449 1487 38.5616
134.567 1628 40.3485
134.684 1642 40.5216
134.802 1737 41.6773
134.919 1724 41.5211
135.037 1684 41.0366
135.154 1661 40.7554
135.272 1401 37.4299
135.389 1433 37.855
135.507 1438 37.921
135.624 1584 39.7995
135.742 1734 41.6413
135.859 1668 40.8412
135.977 1731 41.6053
136.094 1705 41.2916
136.211 1679 40.9756
136.329 1650 40.6202
136.446 1612 40.1497
136.564 1627 40.3361
136.681 1588 39.8497
136.798 1523 39.0256
136.915 1532 39.1408
137.033 1548 39.3446
137.15 1416 37.6298
137.267 1304 36.1109
137.384 1243 35.2562
137.502 1119 33.4515
137.619 1085 32.9393
137.736 1182 34.3802
137.853 1097 33.121
137.97 1164 34.1174
138.087 1196 34.5832
138.204 1247 35.3129
138.321 1277 35.7351
138.438 1233 35.1141
138.555 1237 35.171
138.672 1254 35.4119
138.788 1187 34.4529
138.905 1001 31.6386
139.022 965 31.0644
139.139 947 30.7734
139.255 1075 32.7872
139.372 985 31.3847
139.488 978 31.273
139.605 968 31.1127
139.721 915 30.249
139.838 874 29.5635
139.954 745 27.2947
140.071 717 26.7769
140.187 739 27.1846
140.303 675 25.9808
140.419 618 24.8596
140.535 646 25.4165
140.652 583 24.1454
140.768 0 1
140.884 0 1
141 0 1
141.115 0 1
141.231 0 1
141.347 0 1
141.463 0 1
141.578 0 1
141.694 0 1
144.104 0 1
144.219 0 1
144.335 0 1
144.45 0 1
144.566 0 1
144.682 0 1
144.798 0 1
144.914 0 1
145.03 0 1
145.146 1276 35.7211
145.262 1417 37.6431
145.378 1476 38.4187
145.494 1465 38.2753
145.61 1531 39.128
145.726 1479 38.4578
145.842 1655 40.6817
145.959 1544 39.2938
146.075 1585 39.8121
146.192 1597 39.9625
146.308 1579 39.7366
146.425 1573 39.6611
146.541 1634 40.4228
146.658 1599 39.9875
146.774 1644 40.5463
146.891 1551 39.3827
147.008 1708 41.328
147.125 1767 42.0357
147.241 1855 43.0697
147.358 1793 42.3438
147.475 1842 42.9185
147.592 1684 41.0366
147.709 1652 40.6448
147.826 1538 39.2173
147.943 1570 39.6232
148.06 1616 40.1995
148.177 1796 42.3792
148.294 1840 42.8952
148.411 1850 43.0116
148.528 1966 44.3396
148.645 1999 44.7102
148.762 2106 45.8912
148.88 2030 45.0555
148.997 2230 47.2229
149.114 2270 47.6445
149.231 2387 48.8569
149.349 2545 50.448
149.466 2806 52.9717
149.583 3134 55.9821
149.701 3191 56.4889
149.818 3228 56.8155
149.935 3387 58.1979
150.053 3630 60.2495
150.17 3863 62.153
150.287 4240 65.1153
150.405 4281 65.4294
150.522 4576 67.6461
150.64 4671 68.3447
150.757 5029 70.9154
150.875 5094 71.3723
150.992 5323 72.9589
151.11 5217 72.2288
151.227 4429 66.5507
151.344 3557 59.6406
151.462 4013 63.3482
151.579 5302 72.8148
151.697 6066 77.8845
151.814 6528 80.796
151.932 6581 81.1234
152.049 6885 82.9759
152.167 7013 83.7437
152.284 7141 84.5044
152.402 7191 84.7998
152.519 7251 85.1528
152.636 7398 86.0116
152.754 7486 86.5217
152.871 7484 86.5101
152.989 7429 86.1916
153.106 7563 86.9655
153.223 7473 86.4465
153.341 7319 85.5512
153.458 7362 85.8021
153.575 7059 84.0179
153.693 7175 84.7054
153.81 6953 83.3847
153.927 7126 84.4156
154.044 6966 83.4626
154.162 6853 82.7828
154.279 7190 84.7939
154.396 7261 85.2115
154.513 7318 85.5453
154.63 7007 83.7078
154.747 6507 80.666
154.864 6825 82.6136
154.981 7645 87.4357
155.098 8123 90.1277
155.215 8401 91.657
155.332 8799 93.803
155.449 9011 94.9263
155.566 9551 97.7292
155.683 9571 97.8315
155.8 9821 99.101
155.917 10027 100.135
156.033 10227 101.129
156.15 0 1
156.267 0 1
156.383 0 1
156.5 0 1
156.617 0 1
156.733 0 1
156.85 0 1
156.966 0 1
157.082 0 1
157.199 0 1
157.315 0 1
157.431 0 1
157.547 0 1
157.664 0 1
157.78 0 1
157.896 0 1
158.012 0 1
158.128 0 1
158.244 0 1
158.359 0 1
158.475 0 1
158.591 0 1
158.706 0 1
