
6.15755 0 1
6.2731 0 1
6.3887 0 1
6.50437 0 1
6.62009 0 1
6.73587 0 1
6.8517 0 1
6.96759 0 1
7.08353 0 1
7.19952 0 1
7.31557 0 1
7.43166 0 1
7.54781 0 1
7.664 0 1
7.78024 0 1
7.89653 0 1
8.01286 0 1
8.12924 0 1
8.24567 0 1
8.36213 0 1
8.47864 0 1
8.59519 0 1
8.71178 0 1
8.82841 0 1
8.94508 0 1
9.06179 0 1
9.17853 0 1
9.29531 0 1
9.41212 0 1
9.52897 0 1
9.64584 0 1
9.76276 0 1
9.8797 0 1
9.99667 0 1
10.1137 0 1
10.2307 0 1
10.3478 0 1
10.4648 0 1
10.5819 0 1
10.6991 0 1
10.8162 0 1
10.9334 0 1
11.0506 0 1
11.1678 0 1
11.285 0 1
11.4023 0 1
11.5196 0 1
11.6369 0 1
11.7542 0 1
11.8715 0 1
11.9888 0 1
12.1062 0 1
12.2235 0 1
12.3409 0 1
12.4582 0 1
12.5756 0 1
12.693 0 1
12.8104 0 1
12.9278 0 1
13.0452 0 1
13.1626 0 1
13.28 0 1
13.3974 0 1
13.5149 0 1
13.6323 0 1
13.7497 0 1
13.8671 0 1
13.9845 0 1
14.1019 0 1
14.2193 0 1
14.3367 0 1
14.4541 0 1
14.5714 0 1
14.6888 0 1
14.8062 0 1
14.9235 0 1
15.0408 0 0
15.1581 0 0
15.2755 0 0
15.3927 0 0
15.51 0 0
15.6273 0 0
15.7445 0 0
15.8617 0 0
15.9789 0 0
16.0961 0 0
16.2132 0 0
16.3304 0 0
16.4475 0 0
16.5646 0 0
16.6816 0 0
16.7986 0 0
16.9156 0 0
17.0326 0 0
17.1496 0 0
17.2665 0 0
17.3833 0 0
17.5002 0 0
17.617 0 0
17.7338 0 0
17.8505 0 0
17.9672 0 0
18.0839 0 0
18.2005 0 0
18.3171 0 0
18.4337 0 0
18.5502 0 0
18.6666 0 0
18.7831 0 0
18.8994 0 0
19.0158 0 0
19.1321 0 0
19.2483 0 0
19.3645 0 0
19.4806 0 0
19.5967 0 0
19.7128 0 0
19.8288 0 0
19.9447 0 0
20.0606 0 1
20.1764 0 1
20.2922 0 1
20.4079 0 1
20.5236 0 1
20.6392 0 1
20.7548 0 1
20.8702 0 1
23.3078 0 1
23.4233 0 1
23.539 0 1
23.6547 0 1
23.7704 0 1
23.8862 0 1
24.0021 0 1
24.118 0 1
24.234 0 1
24.35 0 1
24.4661 44825 211.719
24.5822 44193 210.221
24.6984 44172 210.171
24.8146 44564 211.102
24.9309 44437 210.801
25.0472 44477 210.896
25.1636 45524 213.364
25.28 46046 214.583
25.3965 47159 217.161
25.513 46684 216.065
25.6296 47795 218.621
25.7462 48658 220.586
25.8628 47927 218.922
25.9795 47474 217.885
26.0962 47700 218.403
26.213 47801 218.634
26.3298 47462 217.858
26.4466 48195 219.534
26.5635 47800 218.632
26.6804 47068 216.952
26.7973 45983 214.436
26.9143 44805 211.672
27.0313 44552 211.073
27.1483 45168 212.528
27.2653 45649 213.656
27.3824 45852 214.131
27.4996 46126 214.77
27.6167 45466 213.228
27.7339 44388 210.685
27.8511 43089 207.579
27.9683 42065 205.098
28.0855 41315 203.261
28.2028 41362 203.376
28.3201 39478 198.691
28.4374 40541 201.348
28.5547 40632 201.574
28.6721 41504 203.725
28.7894 42190 205.402
28.9068 43215 207.882
29.0242 43584 208.768
29.1416 43698 209.041
29.259 43660 208.95
29.3764 43344 208.192
29.4939 43624 208.864
29.6113 44198 210.233
29.7288 44089 209.974
29.8463 44158 210.138
29.9638 44752 211.547
30.0812 44819 211.705
30.1987 44791 211.639
30.3162 43829 209.354
30.4337 42708 206.659
30.5512 42203 205.434
30.6687 42437 206.002
30.7862 43477 208.511
30.9037 43890 209.499
31.0212 44231 210.312
31.1387 44229 210.307
31.2562 43414 208.36
31.3737 42694 206.625
31.4912 41957 204.834
31.6087 41169 202.901
31.7262 40479 201.194
31.8436 40420 201.047
31.9611 41024 202.544
32.0785 41074 202.667
32.1959 41875 204.634
32.3134 42193 205.409
32.4308 42922 207.176
32.5482 43180 207.798
32.6655 43849 209.402
32.7829 43284 208.048
32.9002 43417 208.367
33.0176 42859 207.024
33.1349 43611 208.832
33.2522 43855 209.416
33.3694 44340 210.571
33.4867 44061 209.907
33.6039 44611 211.213
33.7211 45114 212.401
33.8383 44407 210.73
33.9554 44323 210.53
34.0725 42879 207.072
34.1896 42171 205.356
34.3067 42047 205.054
34.4237 42765 206.797
34.5407 43271 208.017
34.6577 44155 210.131
34.7746 43936 209.609
34.8915 43725 209.105
35.0084 42516 206.194
35.1252 42222 205.48
35.242 41227 203.044
35.3587 41604 203.971
35.4755 40713 201.775
35.5921 41065 202.645
35.7088 41206 202.993
35.8254 41598 203.956
35.9419 42260 205.572
36.0584 43204 207.856
36.1749 43254 207.976
36.2913 43661 208.952
36.4077 43506 208.581
36.524 43775 209.225
36.6403 43202 207.851
36.7565 43635 208.89
36.8727 43645 208.914
36.9889 43668 208.969
37.1049 43432 208.403
37.221 0 1
37.3369 0 1
37.4529 0 1
37.5687 0 1
37.6845 0 1
37.8003 0 1
37.916 0 1
38.0316 0 1
38.1472 0 1
40.5851 0 1
40.7008 0 1
40.8164 0 1
40.9322 0 1
41.048 0 1
41.1639 0 1
41.2798 0 1
41.3958 0 1
41.5118 0 1
41.6279 0 1
41.744 36045 189.855
41.8602 36788 191.802
41.9765 37434 193.479
42.0928 37565 193.817
42.2091 38072 195.12
42.3255 38277 195.645
42.4419 38482 196.168
42.5584 39174 197.924
42.675 39388 198.464
42.7915 38816 197.018
42.9081 37267 193.047
43.0248 36615 191.35
43.1415 36559 191.204
43.2582 37285 193.093
43.375 37510 193.675
43.4918 38460 196.112
43.6087 37956 194.823
43.7256 37240 192.977
43.8425 35959 189.629
43.9595 35290 187.856
44.0765 34742 186.392
44.1935 34105 184.675
44.3106 33421 182.814
44.4277 34122 184.721
44.5448 34388 185.44
44.6619 34437 185.572
44.7791 35269 187.8
44.8963 34837 186.647
45.0136 34054 184.537
45.1308 33459 182.918
45.2481 33201 182.211
45.3654 33157 182.091
45.4827 32973 181.585
45.6001 32843 181.226
45.7174 32897 181.375
45.8348 32821 181.166
45.9522 32933 181.475
46.0697 33196 182.198
46.1871 32872 181.306
46.3046 32438 180.106
46.422 31989 178.855
46.5395 30849 175.639
46.657 30052 173.355
46.7745 29789 172.595
46.892 30236 173.885
47.0096 30583 174.88
47.1271 31350 177.059
47.2446 30531 174.731
47.3622 29592 172.023
47.4797 28928 170.082
47.5973 28219 167.985
47.7149 27413 165.569
47.8324 27177 164.854
47.95 27172 164.839
48.0675 27315 165.273
48.1851 28092 167.607
48.3027 27843 166.862
48.4202 27795 166.718
48.5378 27765 166.628
48.6554 27710 166.463
48.7729 27218 164.979
48.8904 27759 166.61
49.008 27879 166.97
49.1255 28220 167.988
49.243 28378 168.458
49.3605 28639 169.231
49.478 28932 170.094
49.5955 29739 172.45
49.713 30147 173.629
49.8304 30686 175.174
49.9479 30437 174.462
50.0653 30092 173.47
50.1827 29380 171.406
50.3001 29660 172.221
50.4175 30613 174.966
50.5348 31661 177.935
50.6521 33583 183.257
50.7694 34527 185.814
50.8867 34683 186.234
51.004 34555 185.89
51.1212 34998 187.078
51.2384 35563 188.582
51.3556 35930 189.552
51.4727 37165 192.782
51.5899 38451 196.089
51.707 39603 199.005
51.824 40831 202.067
51.9411 40459 201.144
52.0581 41049 202.606
52.175 40864 202.148
52.2919 40853 202.121
52.4088 41494 203.701
52.5257 41934 204.778
52.6425 42477 206.099
52.7593 42307 205.687
52.876 43479 208.516
52.9927 44093 209.983
53.1094 44725 211.483
53.226 45779 213.96
53.3426 46814 216.365
53.4591 47365 217.635
53.5756 47819 218.676
53.692 46662 216.014
53.8084 45405 213.084
53.9248 44673 211.36
54.0411 45187 212.572
54.1573 46582 215.829
54.2735 0 1
54.3896 0 1
54.5057 0 1
54.6217 0 1
54.7377 0 1
54.8537 0 1
54.9695 0 1
55.0853 0 1
55.2011 0 1
55.3168 0 1
55.4324 0 1
57.824 0 1
57.9396 0 1
58.0553 0 1
58.1711 0 1
58.2869 0 1
58.4028 0 1
58.5187 0 1
58.6347 0 1
58.7508 0 1
58.8669 0 1
58.983 55618 235.835
59.0992 54991 234.502
59.2155 56018 236.681
59.3318 57066 238.885
59.4482 57986 240.803
59.5646 58339 241.535
59.681 58566 242.004
59.7975 58076 240.99
59.9141 57447 239.681
60.0306 58190 241.226
60.1473 59334 243.586
60.2639 59461 243.846
60.3807 59121 243.148
60.4974 59020 242.94
60.6142 58249 241.348
60.731 57341 239.46
60.8479 57693 240.194
60.9648 56975 238.694
61.0818 56981 238.707
61.1987 56318 237.314
61.3158 56893 238.523
61.4328 56272 237.217
61.5499 56808 238.344
61.667 56823 238.376
61.7841 57084 238.923
61.9013 57172 239.107
62.0185 58100 241.039
62.1357 57573 239.944
62.253 57588 239.975
62.3702 56090 236.833
62.4875 54888 234.282
62.6049 54794 234.081
62.7222 55421 235.417
62.8396 56689 238.095
62.9569 57273 239.318
63.0743 57145 239.05
63.1918 56521 237.741
63.3092 56331 237.342
63.4267 56495 237.687
63.5441 57822 240.462
63.6616 58196 241.238
63.7791 57802 240.42
63.8966 57405 239.593
64.0142 57333 239.443
64.1317 56434 237.558
64.2492 56645 238.002
64.3668 55533 235.654
64.4843 55109 234.753
64.6019 55529 235.646
64.7195 55440 235.457
64.837 54916 234.342
64.9546 55363 235.293
65.0722 54821 234.139
65.1898 54624 233.718
65.3074 55838 236.301
65.4249 55597 235.79
65.5425 56605 237.918
65.6601 56607 237.922
65.7777 57117 238.992
65.8952 56078 236.808
66.0128 55255 235.064
66.1304 53307 230.883
66.2479 52818 229.822
66.3655 53626 231.573
66.483 55496 235.576
66.6005 56561 237.826
66.718 55934 236.504
66.8355 55854 236.335
66.953 57360 239.499
67.0705 58181 241.207
67.1879 58561 241.994
67.3054 58282 241.417
67.4228 58215 241.278
67.5402 57426 239.637
67.6576 57538 239.871
67.7749 56503 237.704
67.8923 57646 240.096
68.0096 57126 239.01
68.1269 57656 240.117
68.2442 58021 240.875
68.3614 58226 241.301
68.4787 58513 241.895
68.5958 58539 241.948
68.713 58183 241.212
68.8302 58496 241.859
68.9473 59617 244.166
69.0643 59641 244.215
69.1814 59882 244.708
69.2984 60635 246.242
69.4154 61879 248.755
69.5323 61633 248.26
69.6492 61858 248.713
69.7661 60045 245.041
69.8829 58076 240.99
69.9997 58575 242.023
70.1165 60478 245.923
70.2332 61700 248.395
70.3499 61513 248.018
70.4665 62173 249.345
70.5831 62728 250.456
70.6996 63483 251.958
70.8161 64160 253.298
70.9326 64186 253.35
71.049 63236 251.468
71.1653 62362 249.724
71.2817 61533 248.058
71.3979 60967 246.915
71.5141 59917 244.779
71.6303 58945 242.786
71.7464 54452 233.35
71.8624 0 1
71.9784 0 1
72.0944 0 1
72.2102 0 1
72.3261 0 1
72.4418 0 1
72.5575 0 1
72.6732 0 1
75.1054 0 1
75.2209 0 1
75.3365 0 1
75.4521 0 1
75.5678 0 1
75.6835 0 1
75.7993 0 1
75.9151 0 1
76.031 0 1
76.147 59735 244.407
76.263 64646 254.256
76.3791 65194 255.331
76.4952 64942 254.837
76.6113 64855 254.666
76.7276 65565 256.057
76.8438 64659 254.281
76.9601 64753 254.466
77.0765 65148 255.241
77.1929 65345 255.627
77.3093 66860 258.573
77.4258 66833 258.521
77.5423 66839 258.532
77.6589 65488 255.906
77.7755 65173 255.29
77.8921 65086 255.12
78.0088 65392 255.719
78.1256 64958 254.869
78.2423 65364 255.664
78.3591 65677 256.275
78.4759 66115 257.128
78.5928 66725 258.312
78.7097 67094 259.025
78.8266 68143 261.042
78.9436 57828 240.475
79.0606 54459 233.365
79.1776 53913 232.192
79.2946 60321 245.603
79.4117 64470 253.909
79.5288 68204 261.159
79.6459 69290 263.23
79.7631 68458 261.645
79.8802 67012 258.867
79.9974 66195 257.284
80.1147 65275 255.49
80.2319 64778 254.515
80.3491 64469 253.907
80.4664 64056 253.093
80.5837 63849 252.684
80.701 63899 252.783
80.8183 64069 253.119
80.9357 64287 253.549
81.053 65790 256.496
81.1704 65233 255.408
81.2877 64905 254.765
81.4051 63579 252.149
81.5225 63530 252.052
81.6399 61342 247.673
81.7573 63276 251.547
81.8747 61725 248.445
81.9922 62200 249.399
82.1096 62641 250.282
82.227 62577 250.154
82.3444 63422 251.837
82.4619 64356 253.685
82.5793 60098 245.149
82.6967 55516 235.618
82.8142 50636 225.024
82.9316 55009 234.54
83.049 60807 246.591
83.1664 63170 251.336
83.2838 63021 251.04
83.4012 62333 249.666
83.5186 61203 247.392
83.636 60351 245.664
83.7534 59775 244.489
83.8708 59111 243.128
83.9881 58493 241.853
84.1055 58388 241.636
84.2228 57284 239.341
84.3401 58337 241.531
84.4575 58174 241.193
84.5747 59524 243.975
84.692 60833 246.643
84.8093 60798 246.573
84.9265 60088 245.129
85.0437 59497 243.92
85.1609 58448 241.76
85.2781 58141 241.124
85.3952 58419 241.7
85.5123 58601 242.076
85.6294 58261 241.373
85.7465 59521 243.969
85.8636 60533 246.035
85.9806 60788 246.552
86.0976 61341 247.671
86.2145 56776 238.277
86.3315 47325 217.543
86.4484 50154 223.951
86.5652 58635 242.147
86.682 63696 252.381
86.7988 63730 252.448
86.9156 63076 251.149
87.0323 61567 248.127
87.149 61303 247.594
87.2657 60516 246
87.3823 59755 244.448
87.4988 58570 242.012
87.6154 58563 241.998
87.7318 58689 242.258
87.8483 58173 241.191
87.9647 58343 241.543
88.081 58945 242.786
88.1973 60573 246.116
88.3136 60733 246.441
88.4298 59543 244.014
88.546 57815 240.447
88.6621 56475 237.645
88.7781 54603 233.673
88.8942 0 1
89.0101 0 1
89.126 0 1
89.2419 0 1
89.3577 0 1
89.4734 0 1
89.5891 0 1
89.7047 0 1
89.8203 0 1
89.9358 0 1
92.3269 0 1
92.4424 0 1
92.558 0 1
92.6736 0 1
92.7893 0 1
92.905 0 1
93.0208 0 1
93.1366 0 1
93.2525 0 1
93.3685 0 1
93.4845 0 1
93.6005 49049 221.47
93.7167 51295 226.484
93.8328 51898 227.811
93.949 52692 229.547
94.0653 53682 231.694
94.1816 53370 231.019
94.2979 54072 232.534
94.4143 53558 231.426
94.5307 54039 232.463
94.6472 54332 233.092
94.7637 54817 234.13
94.8803 56187 237.038
94.9969 57348 239.474
95.1135 59371 243.662
95.2302 59322 243.561
95.3469 57943 240.714
95.4637 52632 229.417
95.5805 47046 216.901
95.6973 54597 233.66
95.8142 62643 250.286
95.9311 64998 254.947
96.048 64959 254.871
96.1649 64582 254.13
96.2819 64052 253.085
96.3989 63563 252.117
96.516 63408 251.809
96.633 63012 251.022
96.7501 63142 251.281
96.8673 62756 250.511
96.9844 63089 251.175
97.1016 63238 251.472
97.2188 63443 251.879
97.336 65554 256.035
97.4532 66321 257.529
97.5704 66694 258.252
97.6877 66528 257.93
97.805 65774 256.464
97.9223 65309 255.556
98.0396 65348 255.633
98.1569 64763 254.486
98.2743 64589 254.144
98.3916 63715 252.418
98.509 64792 254.543
98.6264 64728 254.417
98.7438 65399 255.732
98.8612 65037 255.024
98.9786 62470 249.94
99.096 54406 233.251
99.2134 50564 224.864
99.3308 56558 237.819
99.4482 64481 253.931
99.5656 66783 258.424
99.6831 65480 255.891
99.8005 63816 252.618
99.9179 62901 250.801
100.035 62781 250.561
100.153 61794 248.584
100.27 61591 248.175
100.388 61131 247.247
100.505 60501 245.97
100.622 60309 245.579
100.74 60156 245.267
100.857 60921 246.822
100.975 62078 249.155
101.092 62384 249.768
101.209 62303 249.606
101.327 62447 249.894
101.444 61424 247.839
101.561 61318 247.625
101.679 61588 248.169
101.796 61734 248.463
101.913 62390 249.78
102.03 62425 249.85
102.148 62134 249.267
102.265 65896 256.702
102.382 60380 245.723
102.499 59543 244.014
102.616 56261 237.194
102.733 54213 232.837
102.851 56924 238.588
102.968 62473 249.946
103.085 65404 255.742
103.202 64988 254.927
103.319 63809 252.604
103.436 62705 250.41
103.552 61594 248.181
103.669 60240 245.438
103.786 59525 243.977
103.903 58680 242.24
104.02 58786 242.458
104.137 57483 239.756
104.253 58589 242.052
104.37 56801 238.33
104.487 58420 241.702
104.603 58275 241.402
104.72 56840 238.411
104.836 56596 237.899
104.953 55909 236.451
105.069 55395 235.361
105.186 55625 235.85
105.302 55267 235.089
105.418 54950 234.414
105.535 54389 233.214
105.651 53946 232.263
105.767 53646 231.616
105.883 53706 231.746
105.999 51490 226.914
106.115 0 1
106.231 0 1
106.347 0 1
106.463 0 1
106.579 0 1
106.694 0 1
106.81 0 1
106.926 0 1
107.041 0 1
107.157 0 1
109.576 0 1
109.692 0 1
109.807 0 1
109.923 0 1
110.039 0 1
110.155 0 1
110.27 0 1
110.386 0 1
110.502 0 1
110.618 37167 192.787
110.735 38282 195.658
110.851 38328 195.775
110.967 38848 197.099
111.083 39733 199.331
111.199 39360 198.394
111.316 37984 194.895
111.432 37832 194.504
111.549 37883 194.636
111.665 37949 194.805
111.782 38012 194.967
111.898 37055 192.497
112.015 36105 190.013
112.132 35049 187.214
112.248 34718 186.328
112.365 34057 184.545
112.482 33643 183.42
112.599 32173 179.368
112.716 32302 179.728
112.832 31661 177.935
112.949 31848 178.46
113.066 32288 179.689
113.183 31656 177.921
113.3 31631 177.851
113.417 31089 176.321
113.534 30995 176.054
113.652 31417 177.248
113.769 31596 177.753
113.886 31745 178.171
114.003 31797 178.317
114.12 31867 178.513
114.238 30313 174.106
114.355 28786 169.664
114.472 28699 169.408
114.589 30715 175.257
114.707 33431 182.841
114.824 34638 186.113
114.942 34994 187.067
115.059 34394 185.456
115.176 33846 183.973
115.294 34105 184.675
115.411 33950 184.255
115.529 33784 183.804
115.646 33198 182.203
115.764 32896 181.373
115.881 32733 180.923
115.999 32494 180.261
116.116 32217 179.491
116.234 31760 178.213
116.351 32040 178.997
116.469 31816 178.37
116.586 32221 179.502
116.704 32577 180.491
116.821 32155 179.318
116.939 32512 180.311
117.056 32542 180.394
117.174 33312 182.516
117.291 33584 183.259
117.409 34360 185.365
117.526 34707 186.298
117.644 35069 187.267
117.761 34205 184.946
117.879 32191 179.419
117.996 29352 171.324
118.114 30041 173.323
118.231 34290 185.176
118.349 36737 191.669
118.466 39183 197.947
118.584 39581 198.95
118.701 39398 198.489
118.819 38467 196.13
118.936 38010 194.962
119.053 38307 195.722
119.171 38237 195.543
119.288 38229 195.522
119.405 37839 194.522
119.523 37453 193.528
119.64 37419 193.44
119.757 36988 192.323
119.875 36512 191.081
119.992 36378 190.73
120.109 36163 190.166
120.226 36334 190.615
120.343 36135 190.092
120.46 36477 190.99
120.578 36559 191.204
120.695 36767 191.747
120.812 36929 192.169
120.929 38195 195.435
121.046 38531 196.293
121.163 39239 198.088
121.279 38647 196.588
121.396 37004 192.364
121.513 35127 187.422
121.63 33014 181.698
121.747 31379 177.141
121.863 32524 180.344
121.98 36347 190.649
122.097 39890 199.725
122.213 42232 205.504
122.33 43126 207.668
122.446 43055 207.497
122.563 41285 203.187
122.679 41139 202.828
122.795 41425 203.531
122.912 41746 204.318
123.028 41756 204.343
123.144 41410 203.494
123.26 41241 203.079
123.377 0 1
123.493 0 1
123.609 0 1
123.725 0 1
123.84 0 1
123.956 0 1
124.072 0 1
124.188 0 1
124.303 0 1
124.419 0 1
126.852 0 1
126.968 0 1
127.083 0 1
127.199 0 1
127.315 0 1
127.431 0 1
127.547 0 1
127.663 0 1
127.779 0 1
127.895 0 1
128.011 0 1
128.127 0 1
128.243 0 1
128.359 50250 224.165
128.476 49777 223.108
128.592 49359 222.169
128.708 49652 222.827
128.825 49026 221.418
128.941 48575 220.397
129.058 48659 220.588
129.174 48294 219.759
129.291 48205 219.556
129.408 48316 219.809
129.524 48268 219.7
129.641 48407 220.016
129.758 49357 222.164
129.875 49670 222.868
129.992 50084 223.795
130.108 48453 220.12
130.225 46724 216.157
130.342 44711 211.45
130.459 40978 202.43
130.576 42118 205.227
130.693 40257 200.641
130.81 41186 202.943
130.928 43036 207.451
131.045 47070 216.956
131.162 51698 227.372
131.279 53701 231.735
131.396 53227 230.71
131.513 53162 230.569
131.631 53153 230.549
131.748 53089 230.411
131.865 52628 229.408
131.983 51964 227.956
132.1 51689 227.352
132.217 51664 227.297
132.335 51818 227.636
132.452 50840 225.477
132.57 50825 225.444
132.687 49442 222.356
132.804 52099 228.252
132.922 50479 224.675
133.039 50595 224.933
133.157 50955 225.732
133.274 51466 226.861
133.392 51850 227.706
133.509 51369 226.647
133.627 50856 225.513
133.744 48952 221.251
133.862 46585 215.836
133.979 45014 212.165
134.097 43893 209.507
134.214 44005 209.774
134.332 43230 207.918
134.449 45403 213.08
134.567 47729 218.47
134.684 51335 226.572
134.802 54520 233.495
134.919 56065 236.78
135.037 56461 237.615
135.154 55640 235.881
135.272 56472 237.638
135.389 55797 236.214
135.507 55571 235.735
135.624 55683 235.972
135.742 55215 234.979
135.859 55253 235.06
135.977 54911 234.331
136.094 54822 234.141
136.211 54299 233.021
136.329 54714 233.91
136.446 54496 233.444
136.564 54278 232.976
136.681 55252 235.057
136.798 54743 233.972
136.915 56350 237.382
137.033 55944 236.525
137.15 54926 234.363
137.267 52961 230.133
137.384 51451 226.828
137.502 49153 221.705
137.619 47432 217.789
137.736 46893 216.548
137.853 46643 215.97
137.97 46890 216.541
138.087 49833 223.233
138.204 50860 225.522
138.321 53112 230.46
138.438 56472 237.638
138.555 58830 242.549
138.672 60181 245.318
138.788 59495 243.916
138.905 59348 243.614
139.022 60010 244.969
139.139 60200 245.357
139.255 59907 244.759
139.372 59252 243.417
139.488 58869 242.629
139.605 58827 242.543
139.721 58499 241.866
139.838 57689 240.185
139.954 57819 240.456
140.071 57260 239.291
140.187 57919 240.664
140.303 57497 239.785
140.419 57333 239.443
140.535 57276 239.324
140.652 56041 236.73
140.768 0 1
140.884 0 1
141 0 1
141.115 0 1
141.231 0 1
141.347 0 1
141.463 0 1
141.578 0 1
141.694 0 1
144.104 0 1
144.219 0 1
144.335 0 1
144.45 0 1
144.566 0 1
144.682 0 1
144.798 0 1
144.914 0 1
145.03 0 1
145.146 54169 232.742
145.262 54951 234.416
145.378 55084 234.7
145.494 55201 234.949
145.61 54797 234.088
145.726 53481 231.26
145.842 52129 228.318
145.959 50119 223.873
146.075 48726 220.74
146.192 47280 217.44
146.308 46552 215.759
146.425 46926 216.624
146.541 47859 218.767
146.658 48263 219.688
146.774 49574 222.652
146.891 51343 226.59
147.008 53289 230.844
147.125 54302 233.028
147.241 55739 236.091
147.358 57262 239.295
147.475 57649 240.102
147.592 56697 238.111
147.709 56481 237.657
147.826 56042 236.732
147.943 55996 236.635
148.06 55205 234.957
148.177 55255 235.064
148.294 55197 234.94
148.411 54284 232.989
148.528 54451 233.347
148.645 54007 232.394
148.762 54061 232.51
148.88 54448 233.341
148.997 52468 229.059
149.114 56139 236.937
149.231 53425 231.138
149.349 52355 228.812
149.466 49973 223.546
149.583 48622 220.504
149.701 47575 218.117
149.818 46804 216.342
149.935 46162 214.853
150.053 46384 215.369
150.17 47076 216.97
150.287 48523 220.279
150.405 49527 222.547
150.522 51487 226.907
150.64 52776 229.73
150.757 54178 232.762
150.875 54741 233.968
150.992 55513 235.612
151.11 55854 236.335
151.227 56419 237.527
151.344 55582 235.758
151.462 55432 235.44
151.579 55501 235.587
151.697 55282 235.121
151.814 55626 235.852
151.932 54644 233.761
152.049 55596 235.788
152.167 55076 234.683
152.284 55503 235.591
152.402 55930 236.495
152.519 55568 235.729
152.636 55914 236.461
152.754 55709 236.028
152.871 54420 233.281
152.989 52500 229.129
153.106 51051 225.945
153.223 49740 223.025
153.341 48712 220.708
153.458 48446 220.105
153.575 48633 220.529
153.693 50026 223.665
153.81 50187 224.025
153.927 51784 227.561
154.044 53180 230.608
154.162 55635 235.871
154.279 57170 239.102
154.396 58390 241.64
154.513 59112 243.13
154.63 59479 243.883
154.747 60246 245.451
154.864 60485 245.937
154.981 60461 245.888
155.098 59500 243.926
155.215 59603 244.137
155.332 59435 243.793
155.449 58777 242.44
155.566 58803 242.493
155.683 59259 243.432
155.8 58588 242.05
155.917 58965 242.827
156.033 59334 243.586
156.15 0 1
156.267 0 1
156.383 0 1
156.5 0 1
156.617 0 1
156.733 0 1
156.85 0 1
156.966 0 1
157.082 0 1
157.199 0 1
157.315 0 1
157.431 0 1
157.547 0 1
157.664 0 1
157.78 0 1
157.896 0 1
158.012 0 1
158.128 0 1
158.244 0 1
158.359 0 1
158.475 0 1
158.591 0 1
158.706 0 1
