
6.15755 0 1
6.2731 0 1
6.3887 0 1
6.50437 0 1
6.62009 0 1
6.73587 0 1
6.8517 0 1
6.96759 0 1
7.08353 0 1
7.19952 0 1
7.31557 0 1
7.43166 0 1
7.54781 0 1
7.664 0 1
7.78024 0 1
7.89653 0 1
8.01286 0 1
8.12924 0 1
8.24567 0 1
8.36213 0 1
8.47864 0 1
8.59519 0 1
8.71178 0 1
8.82841 0 1
8.94508 0 1
9.06179 0 1
9.17853 0 1
9.29531 0 1
9.41212 0 1
9.52897 0 1
9.64584 0 1
9.76276 0 1
9.8797 0 1
9.99667 0 1
10.1137 0 1
10.2307 0 1
10.3478 0 1
10.4648 0 1
10.5819 0 1
10.6991 0 1
10.8162 0 1
10.9334 0 1
11.0506 0 1
11.1678 0 1
11.285 0 1
11.4023 0 1
11.5196 0 1
11.6369 0 1
11.7542 0 1
11.8715 0 1
11.9888 0 1
12.1062 0 1
12.2235 0 1
12.3409 0 1
12.4582 0 1
12.5756 0 1
12.693 0 1
12.8104 0 1
12.9278 0 1
13.0452 0 1
13.1626 0 1
13.28 0 1
13.3974 0 1
13.5149 0 1
13.6323 0 1
13.7497 0 1
13.8671 0 1
13.9845 0 1
14.1019 0 1
14.2193 0 1
14.3367 0 1
14.4541 0 1
14.5714 0 1
14.6888 0 1
14.8062 0 1
14.9235 0 1
15.0408 5444 73.7835
15.1581 5737 75.743
15.2755 5864 76.5768
15.3927 5922 76.9545
15.51 5709 75.5579
15.6273 5624 74.9933
15.7445 5585 74.7329
15.8617 5868 76.6029
15.9789 5787 76.0723
16.0961 5953 77.1557
16.2132 5928 76.9935
16.3304 5925 76.974
16.4475 6132 78.3071
16.5646 6287 79.2906
16.6816 6452 80.3243
16.7986 6398 79.9875
16.9156 6620 81.3634
17.0326 6600 81.2404
17.1496 6765 82.2496
17.2665 6962 83.4386
17.3833 6913 83.1445
17.5002 6791 82.4075
17.617 6790 82.4015
17.7338 6726 82.0122
17.8505 6739 82.0914
17.9672 6455 80.343
18.0839 6613 81.3204
18.2005 6547 80.9135
18.3171 6579 81.111
18.4337 6888 82.994
18.5502 7012 83.7377
18.6666 6925 83.2166
18.7831 7142 84.5104
18.8994 7042 83.9166
19.0158 6973 83.5045
19.1321 6668 81.6578
19.2483 6388 79.925
19.3645 6317 79.4796
19.4806 6298 79.3599
19.5967 6222 78.8797
19.7128 5872 76.629
19.8288 5247 72.4362
19.9447 4636 68.0882
20.0606 0 1
20.1764 0 1
20.2922 0 1
20.4079 0 1
20.5236 0 1
20.6392 0 1
20.7548 0 1
20.8702 0 1
23.3078 0 1
23.4233 0 1
23.539 0 1
23.6547 0 1
23.7704 0 1
23.8862 0 1
24.0021 0 1
24.118 0 1
24.234 0 1
24.35 0 1
24.4661 3642 60.349
24.5822 4205 64.846
24.6984 4992 70.6541
24.8146 5560 74.5654
24.9309 6035 77.6853
25.0472 6426 80.1623
25.1636 6929 83.2406
25.28 7402 86.0349
25.3965 7930 89.0505
25.513 8206 90.587
25.6296 8650 93.0054
25.7462 8834 93.9894
25.8628 9047 95.1157
25.9795 9348 96.6851
26.0962 9139 95.5981
26.213 9095 95.3677
26.3298 9052 95.142
26.4466 9037 95.0631
26.5635 8981 94.7681
26.6804 8986 94.7945
26.7973 9187 95.8488
26.9143 9152 95.6661
27.0313 9432 97.1185
27.1483 9458 97.2522
27.2653 9848 99.2371
27.3824 9964 99.8198
27.4996 9996 99.98
27.6167 9770 98.8433
27.7339 9467 97.2985
27.8511 9434 97.1288
27.9683 9163 95.7236
28.0855 9256 96.2081
28.2028 9438 97.1494
28.3201 9436 97.1391
28.4374 9349 96.6902
28.5547 9219 96.0156
28.6721 9038 95.0684
28.7894 9022 94.9842
28.9068 9043 95.0947
29.0242 9145 95.6295
29.1416 9301 96.4417
29.259 9501 97.4731
29.3764 9452 97.2214
29.4939 9554 97.7446
29.6113 9414 97.0258
29.7288 9401 96.9588
29.8463 9613 98.0459
29.9638 9576 97.857
30.0812 9691 98.4429
30.1987 9716 98.5698
30.3162 9554 97.7446
30.4337 9901 99.5038
30.5512 9950 99.7497
30.6687 10442 102.186
30.7862 10587 102.893
30.9037 10720 103.537
31.0212 10899 104.398
31.1387 10734 103.605
31.2562 10344 101.705
31.3737 10249 101.237
31.4912 10199 100.99
31.6087 9981 99.905
31.7262 10295 101.464
31.8436 10252 101.252
31.9611 10187 100.931
32.0785 9814 99.0656
32.1959 9727 98.6256
32.3134 9671 98.3412
32.4308 9897 99.4837
32.5482 9913 99.564
32.6655 10049 100.245
32.7829 10301 101.494
32.9002 10283 101.405
33.0176 10380 101.882
33.1349 10353 101.75
33.2522 10492 102.43
33.3694 10548 102.703
33.4867 10441 102.181
33.6039 10708 103.479
33.7211 10684 103.363
33.8383 10755 103.706
33.9554 10682 103.354
34.0725 11070 105.214
34.1896 11223 105.939
34.3067 11465 107.075
34.4237 11845 108.835
34.5407 12065 109.841
34.6577 12080 109.909
34.7746 12161 110.277
34.8915 11965 109.385
35.0084 11841 108.816
35.1252 11608 107.74
35.242 11599 107.699
35.3587 11728 108.296
35.4755 11876 108.977
35.5921 11961 109.366
35.7088 11686 108.102
35.8254 11221 105.929
35.9419 10766 103.759
36.0584 10327 101.622
36.1749 10053 100.265
36.2913 9863 99.3126
36.4077 9910 99.549
36.524 9795 98.9697
36.6403 9594 97.949
36.7565 9533 97.6371
36.8727 9333 96.6075
36.9889 9007 94.9052
37.1049 8642 92.9624
37.221 0 1
37.3369 0 1
37.4529 0 1
37.5687 0 1
37.6845 0 1
37.8003 0 1
37.916 0 1
38.0316 0 1
38.1472 0 1
40.5851 0 1
40.7008 0 1
40.8164 0 1
40.9322 0 1
41.048 0 1
41.1639 0 1
41.2798 0 1
41.3958 0 1
41.5118 0 1
41.6279 0 1
41.744 6501 80.6288
41.8602 7428 86.1858
41.9765 8175 90.4157
42.0928 8891 94.2921
42.2091 9864 99.3177
42.3255 10952 104.652
42.4419 11628 107.833
42.5584 12488 111.75
42.675 12793 113.106
42.7915 13375 115.65
42.9081 14265 119.436
43.0248 14875 121.963
43.1415 15865 125.956
43.2582 16353 127.879
43.375 16994 130.361
43.4918 17165 131.015
43.6087 17154 130.973
43.7256 17162 131.004
43.8425 16891 129.965
43.9595 16930 130.115
44.0765 16570 128.725
44.1935 16987 130.334
44.3106 17383 131.845
44.4277 17049 130.572
44.5448 16798 129.607
44.6619 15878 126.008
44.7791 15527 124.607
44.8963 14373 119.887
45.0136 13953 118.123
45.1308 14111 118.79
45.2481 14015 118.385
45.3654 14304 119.599
45.4827 14229 119.285
45.6001 15286 123.637
45.7174 15970 126.372
45.8348 16831 129.734
45.9522 17363 131.769
46.0697 17721 133.12
46.1871 18106 134.559
46.3046 18012 134.209
46.422 18226 135.004
46.5395 18726 136.843
46.657 19395 139.266
46.7745 20011 141.46
46.892 20371 142.727
47.0096 20357 142.678
47.1271 20665 143.753
47.2446 20792 144.194
47.3622 20510 143.213
47.4797 20098 141.767
47.5973 19774 140.62
47.7149 19677 140.275
47.8324 20183 142.067
47.95 20296 142.464
48.0675 19601 140.004
48.1851 19110 138.239
48.3027 18187 134.859
48.4202 16045 126.669
48.5378 15121 122.967
48.6554 14256 119.398
48.7729 14385 119.937
48.8904 14187 119.109
49.008 14579 120.744
49.1255 15386 124.04
49.243 16583 128.775
49.3605 17452 132.106
49.478 18427 135.746
49.5955 18833 137.233
49.713 18706 136.77
49.8304 18896 137.463
49.9479 18732 136.865
50.0653 19070 138.094
50.1827 19778 140.634
50.3001 19721 140.431
50.4175 20277 142.397
50.5348 20653 143.712
50.6521 20449 143
50.7694 20468 143.066
50.8867 20328 142.576
51.004 19934 141.188
51.1212 19063 138.069
51.2384 18941 137.626
51.3556 19494 139.621
51.4727 19491 139.61
51.5899 19292 138.896
51.707 18369 135.532
51.824 17280 131.453
51.9411 15598 124.892
52.0581 14048 118.524
52.175 13411 115.806
52.2919 13063 114.293
52.4088 12845 113.336
52.5257 13038 114.184
52.6425 13539 116.357
52.7593 14446 120.192
52.876 15022 122.564
52.9927 15312 123.742
53.1094 15482 124.427
53.226 15644 125.076
53.3426 15070 122.76
53.4591 14622 120.921
53.5756 14094 118.718
53.692 13539 116.357
53.8084 13128 114.577
53.9248 12794 113.111
54.0411 12370 111.221
54.1573 11537 107.41
54.2735 0 1
54.3896 0 1
54.5057 0 1
54.6217 0 1
54.7377 0 1
54.8537 0 1
54.9695 0 1
55.0853 0 1
55.2011 0 1
55.3168 0 1
55.4324 0 1
57.824 0 1
57.9396 0 1
58.0553 0 1
58.1711 0 1
58.2869 0 1
58.4028 0 1
58.5187 0 1
58.6347 0 1
58.7508 0 1
58.8669 0 1
58.983 10559 102.757
59.0992 11836 108.793
59.2155 12859 113.398
59.3318 13560 116.447
59.4482 14389 119.954
59.5646 14773 121.544
59.681 15137 123.033
59.7975 15172 123.175
59.9141 15542 124.668
60.0306 15843 125.869
60.1473 16347 127.855
60.2639 16528 128.561
60.3807 16284 127.609
60.4974 15388 124.048
60.6142 14493 120.387
60.731 13002 114.026
60.8479 11371 106.635
60.9648 10554 102.733
61.0818 10264 101.311
61.1987 10378 101.872
61.3158 11025 105
61.4328 12282 110.824
61.5499 13569 116.486
61.667 14809 121.692
61.7841 15675 125.2
61.9013 16129 127
62.0185 16062 126.736
62.1357 15755 125.519
62.253 15533 124.631
62.3702 15719 125.375
62.4875 15821 125.782
62.6049 16082 126.815
62.7222 16218 127.35
62.8396 16207 127.307
62.9569 16341 127.832
63.0743 16321 127.754
63.1918 15947 126.281
63.3092 15502 124.507
63.4267 15046 122.662
63.5441 15287 123.641
63.6616 15259 123.527
63.7791 15450 124.298
63.8966 15032 122.605
64.0142 14028 118.44
64.1317 12979 113.925
64.2492 11369 106.626
64.3668 9935 99.6745
64.4843 9144 95.6243
64.6019 8731 93.4398
64.7195 8698 93.2631
64.837 9113 95.462
64.9546 10263 101.306
65.0722 11573 107.578
65.1898 12677 112.592
65.3074 13776 117.371
65.4249 14133 118.882
65.5425 14237 119.319
65.6601 14262 119.424
65.7777 13784 117.405
65.8952 13778 117.38
66.0128 13690 117.004
66.1304 14006 118.347
66.2479 14254 119.39
66.3655 14490 120.374
66.483 14266 119.44
66.6005 14287 119.528
66.718 14328 119.7
66.8355 13980 118.237
66.953 13913 117.953
67.0705 13525 116.297
67.1879 13243 115.078
67.3054 13611 116.666
67.4228 13821 117.563
67.5402 13282 115.248
67.6576 12584 112.178
67.7749 11700 108.167
67.8923 10136 100.678
68.0096 8730 93.4345
68.1269 7775 88.176
68.2442 7638 87.3957
68.3614 7453 86.3308
68.4787 7830 88.4873
68.5958 8827 93.9521
68.713 9961 99.8048
68.8302 11538 107.415
68.9473 12477 111.7
69.0643 13038 114.184
69.1814 13028 114.14
69.2984 12682 112.614
69.4154 12476 111.696
69.5323 11692 108.13
69.6492 11638 107.88
69.7661 11601 107.708
69.8829 11369 106.626
69.9997 11460 107.051
70.1165 11388 106.715
70.2332 11336 106.471
70.3499 10864 104.231
70.4665 10286 101.42
70.5831 9715 98.5647
70.6996 9103 95.4096
70.8161 8491 92.1466
70.9326 8148 90.2663
71.049 8141 90.2275
71.1653 7571 87.0115
71.2817 7128 84.4275
71.3979 6446 80.287
71.5141 5350 73.1437
71.6303 4316 65.6963
71.7464 2962 54.4243
71.8624 0 1
71.9784 0 1
72.0944 0 1
72.2102 0 1
72.3261 0 1
72.4418 0 1
72.5575 0 1
72.6732 0 1
75.1054 0 1
75.2209 0 1
75.3365 0 1
75.4521 0 1
75.5678 0 1
75.6835 0 1
75.7993 0 1
75.9151 0 1
76.031 0 1
76.147 7606 87.2124
76.263 8347 91.3619
76.3791 8909 94.3875
76.4952 8781 93.707
76.6113 8644 92.9731
76.7276 8344 91.3455
76.8438 7645 87.4357
76.9601 7190 84.7939
77.0765 6349 79.6806
77.1929 6316 79.4733
77.3093 6094 78.0641
77.4258 6084 78
77.5423 7007 83.7078
77.6589 8127 90.1499
77.7755 9640 98.1835
77.8921 10822 104.029
78.0088 11146 105.575
78.1256 11448 106.995
78.2423 11671 108.032
78.3591 11118 105.442
78.4759 10866 104.24
78.5928 10657 103.233
78.7097 10687 103.378
78.8266 10771 103.783
78.9436 11301 106.306
79.0606 11193 105.797
79.1776 11291 106.259
79.2946 11496 107.219
79.4117 11595 107.68
79.5288 11259 106.108
79.6459 11223 105.939
79.7631 11289 106.25
79.8802 10811 103.976
79.9974 11135 105.523
80.1147 11383 106.691
80.2319 10920 104.499
80.3491 10417 102.064
80.4664 9528 97.6115
80.5837 8406 91.6842
80.701 7268 85.2526
80.8183 6747 82.1401
80.9357 6537 80.8517
81.053 6481 80.5047
81.1704 6733 82.0549
81.2877 7731 87.9261
81.4051 9146 95.6347
81.5225 10594 102.927
81.6399 11083 105.276
81.7573 11811 108.678
81.8747 11387 106.71
81.9922 11617 107.782
82.1096 10917 104.484
82.227 10774 103.798
82.3444 10583 102.874
82.4619 10980 104.785
82.5793 11076 105.243
82.6967 11370 106.63
82.8142 11342 106.499
82.9316 11710 108.213
83.049 11433 106.925
83.1664 11419 106.86
83.2838 11516 107.313
83.4012 11100 105.357
83.5186 10981 104.79
83.636 10947 104.628
83.7534 11070 105.214
83.8708 10757 103.716
83.9881 9994 99.97
84.1055 9474 97.3345
84.2228 8688 93.2094
84.3401 7820 88.4308
84.4575 6972 83.4985
84.5747 6562 81.0062
84.692 6830 82.6438
84.8093 7344 85.6971
84.9265 8562 92.5311
85.0437 9689 98.4327
85.1609 10900 104.403
85.2781 11963 109.375
85.3952 12475 111.692
85.5123 12538 111.973
85.6294 12047 109.759
85.7465 11827 108.752
85.8636 12047 109.759
85.9806 12177 110.349
86.0976 12358 111.167
86.2145 12400 111.355
86.3315 12911 113.627
86.4484 12513 111.862
86.5652 12560 112.071
86.682 12380 111.265
86.7988 11967 109.394
86.9156 11667 108.014
87.0323 11338 106.48
87.149 10838 104.106
87.2657 10657 103.233
87.3823 10574 102.83
87.4988 10085 100.424
87.6154 9441 97.1648
87.7318 8830 93.9681
87.8483 7798 88.3063
87.9647 6792 82.4136
88.081 5997 77.4403
88.1973 5512 74.2428
88.3136 5318 72.9246
88.4298 5520 74.2967
88.546 6174 78.5748
88.6621 6910 83.1264
88.7781 7603 87.1952
88.8942 0 1
89.0101 0 1
89.126 0 1
89.2419 0 1
89.3577 0 1
89.4734 0 1
89.5891 0 1
89.7047 0 1
89.8203 0 1
89.9358 0 1
92.3269 0 1
92.4424 0 1
92.558 0 1
92.6736 0 1
92.7893 0 1
92.905 0 1
93.0208 0 1
93.1366 0 1
93.2525 0 1
93.3685 0 1
93.4845 0 1
93.6005 7884 88.7919
93.7167 8616 92.8224
93.8328 9635 98.158
93.949 11242 106.028
94.0653 12879 113.486
94.1816 14523 120.511
94.2979 16020 126.57
94.4143 17338 131.674
94.5307 18288 135.233
94.6472 19193 138.539
94.7637 19578 139.921
94.8803 19619 140.068
94.9969 19357 139.129
95.1135 19314 138.975
95.2302 19689 140.317
95.3469 20033 141.538
95.4637 20128 141.873
95.5805 19901 141.071
95.6973 19643 140.153
95.8142 19434 139.406
95.9311 19462 139.506
96.048 18733 136.869
96.1649 18386 135.595
96.2819 17828 133.522
96.3989 17581 132.593
96.516 17080 130.69
96.633 16837 129.757
96.7501 15554 124.716
96.8673 14248 119.365
96.9844 13328 115.447
97.1016 12656 112.499
97.2188 12036 109.709
97.336 11648 107.926
97.4532 12113 110.059
97.5704 13303 115.339
97.6877 14930 122.188
97.805 17341 131.685
97.9223 19402 139.291
98.0396 21443 146.434
98.1569 22987 151.615
98.2743 24066 155.132
98.3916 24548 156.678
98.509 25137 158.547
98.6264 24184 155.512
98.7438 24052 155.087
98.8612 23659 153.815
98.9786 24040 155.048
99.096 24212 155.602
99.2134 23651 153.789
99.3308 22853 151.172
99.4482 22342 149.472
99.5656 21657 147.163
99.6831 20689 143.837
99.8005 20269 142.369
99.9179 20062 141.64
100.035 19741 140.503
100.153 19589 139.961
100.27 18075 134.443
100.388 16055 126.708
100.505 14192 119.13
100.622 13229 115.017
100.74 12585 112.183
100.857 12226 110.571
100.975 12297 110.892
101.092 12821 113.23
101.209 14404 120.017
101.327 17019 130.457
101.444 19707 140.382
101.561 21876 147.905
101.679 23654 153.799
101.796 24402 156.211
101.913 24749 157.318
102.03 24661 157.038
102.148 24007 154.942
102.265 23754 154.123
102.382 22559 150.197
102.499 22512 150.04
102.616 22831 151.099
102.733 22492 149.973
102.851 22093 148.637
102.968 21703 147.319
103.085 20837 144.35
103.202 20617 143.586
103.319 20141 141.919
103.436 19709 140.389
103.552 19719 140.424
103.669 19342 139.076
103.786 18950 137.659
103.903 17114 130.82
104.02 15177 123.195
104.137 13556 116.43
104.253 12259 110.72
104.37 11181 105.74
104.487 11111 105.409
104.603 11659 107.977
104.72 12455 111.602
104.836 13575 116.512
104.953 14570 120.706
105.069 15490 124.459
105.186 15438 124.25
105.302 15246 123.475
105.418 14514 120.474
105.535 13618 116.696
105.651 12656 112.499
105.767 11270 106.16
105.883 10343 101.701
105.999 9305 96.4624
106.115 0 1
106.231 0 1
106.347 0 1
106.463 0 1
106.579 0 1
106.694 0 1
106.81 0 1
106.926 0 1
107.041 0 1
107.157 0 1
109.576 0 1
109.692 0 1
109.807 0 1
109.923 0 1
110.039 0 1
110.155 0 1
110.27 0 1
110.386 0 1
110.502 0 1
110.618 11159 105.636
110.735 11850 108.858
110.851 12372 111.229
110.967 13419 115.84
111.083 14342 119.758
111.199 15879 126.012
111.316 17172 131.042
111.432 17650 132.853
111.549 18341 135.429
111.665 18867 137.357
111.782 18501 136.018
111.898 18448 135.823
112.015 18375 135.554
112.132 18583 136.319
112.248 18825 137.204
112.365 18449 135.827
112.482 18048 134.343
112.599 15868 125.968
112.716 14096 118.727
112.832 12241 110.639
112.949 11385 106.701
113.066 10856 104.192
113.183 11045 105.095
113.3 11393 106.738
113.417 12500 111.803
113.534 14662 121.087
113.652 16810 129.653
113.769 18470 135.904
113.886 19270 138.816
114.003 19717 140.417
114.12 19678 140.278
114.238 19084 138.145
114.355 18311 135.318
114.472 18059 134.384
114.589 18036 134.298
114.707 18257 135.118
114.824 18905 137.495
114.942 19283 138.863
115.059 19414 139.334
115.176 19402 139.291
115.294 19131 138.315
115.411 18890 137.441
115.529 18645 136.547
115.646 18215 134.963
115.764 18024 134.253
115.881 17873 133.69
115.999 18158 134.752
116.116 17108 130.798
116.234 15364 123.952
116.351 13595 116.598
116.469 12244 110.653
116.586 11367 106.616
116.704 10945 104.618
116.821 11284 106.226
116.939 11554 107.49
117.056 12879 113.486
117.174 15075 122.78
117.291 16624 128.934
117.409 17973 134.063
117.526 18766 136.989
117.644 19059 138.054
117.761 18621 136.459
117.879 18172 134.804
117.996 17209 131.183
118.114 16986 130.33
118.231 17280 131.453
118.349 18036 134.298
118.466 18216 134.967
118.584 18222 134.989
118.701 18143 134.696
118.819 18174 134.811
118.936 17858 133.634
119.053 17852 133.611
119.171 17367 131.784
119.288 17088 130.721
119.405 16833 129.742
119.523 17244 131.316
119.64 16977 130.296
119.757 16365 127.926
119.875 14902 122.074
119.992 13363 115.598
120.109 12275 110.793
120.226 11578 107.601
120.343 11242 106.028
120.46 11033 105.038
120.578 11104 105.376
120.695 11775 108.513
120.812 13003 114.031
120.929 14371 119.879
121.046 15300 123.693
121.163 15852 125.905
121.279 16184 127.216
121.396 16019 126.566
121.513 15513 124.551
121.63 15269 123.568
121.747 14282 119.507
121.863 13944 118.085
121.98 14144 118.929
122.097 14041 118.495
122.213 13762 117.312
122.33 13341 115.503
122.446 12834 113.287
122.563 12260 110.725
122.679 11691 108.125
122.795 10824 104.038
122.912 10068 100.339
123.028 9377 96.8349
123.144 8785 93.7283
123.26 8082 89.8999
123.377 0 1
123.493 0 1
123.609 0 1
123.725 0 1
123.84 0 1
123.956 0 1
124.072 0 1
124.188 0 1
124.303 0 1
124.419 0 1
126.852 0 1
126.968 0 1
127.083 0 1
127.199 0 1
127.315 0 1
127.431 0 1
127.547 0 1
127.663 0 1
127.779 0 1
127.895 0 1
128.011 0 1
128.127 0 1
128.243 0 1
128.359 15863 125.948
128.476 16201 127.283
128.592 16811 129.657
128.708 16861 129.85
128.825 17132 130.889
128.941 16392 128.031
129.058 15345 123.875
129.174 14532 120.549
129.291 13862 117.737
129.408 13390 115.715
129.524 12775 113.027
129.641 12943 113.767
129.758 13319 115.408
129.875 14314 119.641
129.992 15207 123.317
130.108 16620 128.919
130.225 17679 132.962
130.342 18199 134.904
130.459 18173 134.807
130.576 18320 135.351
130.693 17421 131.989
130.81 17179 131.069
130.928 17621 132.744
131.045 17680 132.966
131.162 18458 135.86
131.279 18644 136.543
131.396 18656 136.587
131.513 18127 134.637
131.631 18319 135.348
131.748 17873 133.69
131.865 17347 131.708
131.983 17193 131.122
132.1 17035 130.518
132.217 16912 130.046
132.335 16631 128.961
132.452 16420 128.141
132.57 15733 125.431
132.687 14494 120.391
132.804 13889 117.852
132.922 13438 115.922
133.039 12791 113.097
133.157 12493 111.772
133.274 12597 112.236
133.392 13036 114.175
133.509 13736 117.201
133.627 15008 122.507
133.744 15680 125.22
133.862 16457 128.285
133.979 16890 129.962
134.097 16848 129.8
134.214 16681 129.155
134.332 16322 127.758
134.449 16313 127.722
134.567 16857 129.835
134.684 17160 130.996
134.802 17270 131.415
134.919 17533 132.412
135.037 17709 133.075
135.154 17161 131
135.272 17180 131.072
135.389 16963 130.242
135.507 16636 128.981
135.624 16363 127.918
135.742 16379 127.98
135.859 16336 127.812
135.977 16103 126.898
136.094 15959 126.329
136.211 15279 123.608
136.329 14822 121.746
136.446 14116 118.811
136.564 13927 118.013
136.681 13306 115.352
136.798 13205 114.913
136.915 12848 113.349
137.033 13187 114.835
137.15 13383 115.685
137.267 14279 119.495
137.384 14742 121.417
137.502 15515 124.559
137.619 15985 126.432
137.736 16256 127.499
137.853 15666 125.164
137.97 16086 126.831
138.087 15318 123.766
138.204 15989 126.448
138.321 16058 126.72
138.438 15906 126.119
138.555 15741 125.463
138.672 15521 124.583
138.788 15154 123.102
138.905 14660 121.078
139.022 14115 118.807
139.139 13516 116.258
139.255 12874 113.464
139.372 12236 110.616
139.488 11805 108.651
139.605 11346 106.518
139.721 10596 102.937
139.838 9961 99.8048
139.954 9205 95.9427
140.071 8215 90.6366
140.187 7573 87.023
140.303 6976 83.5225
140.419 6367 79.7935
140.535 5882 76.6942
140.652 5224 72.2772
140.768 0 1
140.884 0 1
141 0 1
141.115 0 1
141.231 0 1
141.347 0 1
141.463 0 1
141.578 0 1
141.694 0 1
144.104 0 1
144.219 0 1
144.335 0 1
144.45 0 1
144.566 0 1
144.682 0 1
144.798 0 1
144.914 0 1
145.03 0 1
145.146 10417 102.064
145.262 10716 103.518
145.378 10599 102.951
145.494 10721 103.542
145.61 10543 102.679
145.726 10388 101.922
145.842 10602 102.966
145.959 10505 102.494
146.075 10546 102.694
146.192 11178 105.726
146.308 11429 106.907
146.425 11665 108.005
146.541 11836 108.793
146.658 11754 108.416
146.774 11593 107.671
146.891 11738 108.342
147.008 12143 110.195
147.125 12098 109.991
147.241 12641 112.432
147.358 12774 113.022
147.475 12779 113.044
147.592 12751 112.92
147.709 12859 113.398
147.826 12455 111.602
147.943 11986 109.481
148.06 11953 109.33
148.177 11788 108.573
148.294 11871 108.954
148.411 12072 109.873
148.528 12158 110.263
148.645 12224 110.562
148.762 12139 110.177
148.88 11845 108.835
148.997 12436 111.517
149.114 11818 108.711
149.231 11616 107.778
149.349 11554 107.49
149.466 11208 105.868
149.583 10774 103.798
149.701 11211 105.882
149.818 10904 104.422
149.935 11283 106.221
150.053 11665 108.005
150.17 11646 107.917
150.287 11829 108.761
150.405 11565 107.541
150.522 11781 108.54
150.64 11927 109.211
150.757 12272 110.779
150.875 12462 111.633
150.992 12708 112.73
151.11 12944 113.772
151.227 12745 112.894
151.344 12749 112.911
151.462 12326 111.023
151.579 11978 109.444
151.697 11678 108.065
151.814 11723 108.273
151.932 11607 107.736
152.049 11839 108.807
152.167 11927 109.211
152.284 11865 108.927
152.402 11978 109.444
152.519 11867 108.936
152.636 11643 107.903
152.754 11832 108.775
152.871 11509 107.28
152.989 11367 106.616
153.106 11226 105.953
153.223 10874 104.278
153.341 10713 103.504
153.458 10757 103.716
153.575 11031 105.029
153.693 11388 106.715
153.81 11282 106.217
153.927 11183 105.75
154.044 11317 106.381
154.162 11210 105.877
154.279 11482 107.154
154.396 11746 108.379
154.513 11902 109.096
154.63 12190 110.408
154.747 12032 109.69
154.864 11902 109.096
154.981 11673 108.042
155.098 11411 106.822
155.215 11155 105.617
155.332 11208 105.868
155.449 11121 105.456
155.566 11101 105.361
155.683 11079 105.257
155.8 10721 103.542
155.917 10728 103.576
156.033 10563 102.776
156.15 0 1
156.267 0 1
156.383 0 1
156.5 0 1
156.617 0 1
156.733 0 1
156.85 0 1
156.966 0 1
157.082 0 1
157.199 0 1
157.315 0 1
157.431 0 1
157.547 0 1
157.664 0 1
157.78 0 1
157.896 0 1
158.012 0 1
158.128 0 1
158.244 0 1
158.359 0 1
158.475 0 1
158.591 0 1
158.706 0 1
