
6.15755 0 1
6.2731 0 1
6.3887 0 1
6.50437 0 1
6.62009 0 1
6.73587 0 1
6.8517 0 1
6.96759 0 1
7.08353 0 1
7.19952 0 1
7.31557 0 1
7.43166 0 1
7.54781 0 1
7.664 0 1
7.78024 0 1
7.89653 0 1
8.01286 0 1
8.12924 0 1
8.24567 0 1
8.36213 0 1
8.47864 0 1
8.59519 0 1
8.71178 0 1
8.82841 0 1
8.94508 0 1
9.06179 0 1
9.17853 0 1
9.29531 0 1
9.41212 0 1
9.52897 0 1
9.64584 0 1
9.76276 0 1
9.8797 0 1
9.99667 0 1
10.1137 0 1
10.2307 0 1
10.3478 0 1
10.4648 0 1
10.5819 0 1
10.6991 0 1
10.8162 0 1
10.9334 0 1
11.0506 0 1
11.1678 0 1
11.285 0 1
11.4023 0 1
11.5196 0 1
11.6369 0 1
11.7542 0 1
11.8715 0 1
11.9888 0 1
12.1062 0 1
12.2235 0 1
12.3409 0 1
12.4582 0 1
12.5756 0 1
12.693 0 1
12.8104 0 1
12.9278 0 1
13.0452 0 1
13.1626 0 1
13.28 0 1
13.3974 0 1
13.5149 0 1
13.6323 0 1
13.7497 0 1
13.8671 0 1
13.9845 0 1
14.1019 0 1
14.2193 0 1
14.3367 0 1
14.4541 0 1
14.5714 0 1
14.6888 0 1
14.8062 0 1
14.9235 0 1
15.0408 0 0
15.1581 0 0
15.2755 0 0
15.3927 0 0
15.51 0 0
15.6273 0 0
15.7445 0 0
15.8617 0 0
15.9789 0 0
16.0961 0 0
16.2132 0 0
16.3304 0 0
16.4475 0 0
16.5646 0 0
16.6816 0 0
16.7986 0 0
16.9156 0 0
17.0326 0 0
17.1496 0 0
17.2665 0 0
17.3833 0 0
17.5002 0 0
17.617 0 0
17.7338 0 0
17.8505 0 0
17.9672 0 0
18.0839 0 0
18.2005 0 0
18.3171 0 0
18.4337 0 0
18.5502 0 0
18.6666 0 0
18.7831 0 0
18.8994 0 0
19.0158 0 0
19.1321 0 0
19.2483 0 0
19.3645 0 0
19.4806 0 0
19.5967 0 0
19.7128 0 0
19.8288 0 0
19.9447 0 0
20.0606 0 1
20.1764 0 1
20.2922 0 1
20.4079 0 1
20.5236 0 1
20.6392 0 1
20.7548 0 1
20.8702 0 1
23.3078 0 1
23.4233 0 1
23.539 0 1
23.6547 0 1
23.7704 0 1
23.8862 0 1
24.0021 0 1
24.118 0 1
24.234 0 1
24.35 0 1
24.4661 1518 38.9615
24.5822 1531 39.128
24.6984 1514 38.9102
24.8146 1492 38.6264
24.9309 1484 38.5227
25.0472 1488 38.5746
25.1636 1506 38.8072
25.28 1504 38.7814
25.3965 1588 39.8497
25.513 1506 38.8072
25.6296 1548 39.3446
25.7462 1612 40.1497
25.8628 1684 41.0366
25.9795 1553 39.4081
26.0962 1622 40.2741
26.213 1553 39.4081
26.3298 1593 39.9124
26.4466 1514 38.9102
26.5635 1415 37.6165
26.6804 1362 36.9053
26.7973 1341 36.6197
26.9143 1403 37.4566
27.0313 1392 37.3095
27.1483 1472 38.3667
27.2653 1517 38.9487
27.3824 1558 39.4715
27.4996 1576 39.6989
27.6167 1559 39.4842
27.7339 1606 40.0749
27.8511 1589 39.8623
27.9683 1620 40.2492
28.0855 1548 39.3446
28.2028 1531 39.128
28.3201 1555 39.4335
28.4374 1460 38.2099
28.5547 1513 38.8973
28.6721 1401 37.4299
28.7894 1458 38.1838
28.9068 1428 37.7889
29.0242 1475 38.4057
29.1416 1456 38.1576
29.259 1490 38.6005
29.3764 1521 39
29.4939 1459 38.1969
29.6113 1604 40.05
29.7288 1468 38.3145
29.8463 1444 38
29.9638 1390 37.2827
30.0812 1394 37.3363
30.1987 1308 36.1663
30.3162 1309 36.1801
30.4337 1337 36.565
30.5512 1269 35.623
30.6687 1407 37.51
30.7862 1468 38.3145
30.9037 1533 39.1535
31.0212 1511 38.8716
31.1387 1525 39.0512
31.2562 1570 39.6232
31.3737 1541 39.2556
31.4912 1485 38.5357
31.6087 1445 38.0132
31.7262 1500 38.7298
31.8436 1509 38.8458
31.9611 1460 38.2099
32.0785 1464 38.2623
32.1959 1351 36.756
32.3134 1451 38.092
32.4308 1387 37.2424
32.5482 1443 37.9868
32.6655 1372 37.0405
32.7829 1417 37.6431
32.9002 1429 37.8021
33.0176 1432 37.8418
33.1349 1406 37.4967
33.2522 1467 38.3014
33.3694 1482 38.4968
33.4867 1469 38.3275
33.6039 1351 36.756
33.7211 1312 36.2215
33.8383 1225 35
33.9554 1255 35.426
34.0725 1255 35.426
34.1896 1322 36.3593
34.3067 1300 36.0555
34.4237 1399 37.4032
34.5407 1410 37.55
34.6577 1445 38.0132
34.7746 1442 37.9737
34.8915 1528 39.0896
35.0084 1534 39.1663
35.1252 1483 38.5097
35.242 1440 37.9473
35.3587 1514 38.9102
35.4755 1434 37.8682
35.5921 1396 37.3631
35.7088 1378 37.1214
35.8254 1367 36.973
35.9419 1415 37.6165
36.0584 1393 37.3229
36.1749 1406 37.4967
36.2913 1368 36.9865
36.4077 1446 38.0263
36.524 1345 36.6742
36.6403 1405 37.4833
36.7565 1446 38.0263
36.8727 1403 37.4566
36.9889 1441 37.9605
37.1049 1437 37.9078
37.221 0 1
37.3369 0 1
37.4529 0 1
37.5687 0 1
37.6845 0 1
37.8003 0 1
37.916 0 1
38.0316 0 1
38.1472 0 1
40.5851 0 1
40.7008 0 1
40.8164 0 1
40.9322 0 1
41.048 0 1
41.1639 0 1
41.2798 0 1
41.3958 0 1
41.5118 0 1
41.6279 0 1
41.744 994 31.5278
41.8602 1109 33.3017
41.9765 1164 34.1174
42.0928 1099 33.1512
42.2091 1083 32.909
42.3255 1095 33.0908
42.4419 1086 32.9545
42.5584 987 31.4166
42.675 874 29.5635
42.7915 867 29.4449
42.9081 908 30.133
43.0248 986 31.4006
43.1415 954 30.8869
43.2582 999 31.607
43.375 1107 33.2716
43.4918 1065 32.6343
43.6087 1033 32.1403
43.7256 1033 32.1403
43.8425 1076 32.8024
43.9595 1025 32.0156
44.0765 1091 33.0303
44.1935 1019 31.9218
44.3106 982 31.3369
44.4277 918 30.2985
44.5448 923 30.3809
44.6619 886 29.7658
44.7791 796 28.2135
44.8963 838 28.9482
45.0136 794 28.178
45.1308 853 29.2062
45.2481 828 28.775
45.3654 847 29.1033
45.4827 791 28.1247
45.6001 859 29.3087
45.7174 817 28.5832
45.8348 877 29.6142
45.9522 838 28.9482
46.0697 703 26.5141
46.1871 658 25.6515
46.3046 620 24.8998
46.422 670 25.8844
46.5395 658 25.6515
46.657 741 27.2213
46.7745 753 27.4408
46.892 812 28.4956
47.0096 816 28.5657
47.1271 751 27.4044
47.2446 753 27.4408
47.3622 772 27.7849
47.4797 745 27.2947
47.5973 756 27.4955
47.7149 731 27.037
47.8324 699 26.4386
47.95 716 26.7582
48.0675 646 25.4165
48.1851 617 24.8395
48.3027 628 25.0599
48.4202 578 24.0416
48.5378 628 25.0599
48.6554 619 24.8797
48.7729 585 24.1868
48.8904 652 25.5343
49.008 624 24.98
49.1255 624 24.98
49.243 621 24.9199
49.3605 653 25.5539
49.478 592 24.3311
49.5955 521 22.8254
49.713 517 22.7376
49.8304 479 21.8861
49.9479 512 22.6274
50.0653 543 23.3024
50.1827 582 24.1247
50.3001 644 25.3772
50.4175 723 26.8887
50.5348 765 27.6586
50.6521 772 27.7849
50.7694 784 28
50.8867 838 28.9482
51.004 805 28.3725
51.1212 845 29.0689
51.2384 815 28.5482
51.3556 866 29.4279
51.4727 812 28.4956
51.5899 848 29.1204
51.707 861 29.3428
51.824 854 29.2233
51.9411 834 28.8791
52.0581 807 28.4077
52.175 874 29.5635
52.2919 925 30.4138
52.4088 935 30.5778
52.5257 950 30.8221
52.6425 968 31.1127
52.7593 1040 32.249
52.876 1017 31.8904
52.9927 1069 32.6956
53.1094 968 31.1127
53.226 855 29.2404
53.3426 774 27.8209
53.4591 799 28.2666
53.5756 856 29.2575
53.692 963 31.0322
53.8084 1068 32.6803
53.9248 1188 34.4674
54.0411 1239 35.1994
54.1573 1198 34.6121
54.2735 0 1
54.3896 0 1
54.5057 0 1
54.6217 0 1
54.7377 0 1
54.8537 0 1
54.9695 0 1
55.0853 0 1
55.2011 0 1
55.3168 0 1
55.4324 0 1
57.824 0 1
57.9396 0 1
58.0553 0 1
58.1711 0 1
58.2869 0 1
58.4028 0 1
58.5187 0 1
58.6347 0 1
58.7508 0 1
58.8669 0 1
58.983 1148 33.8821
59.0992 1313 36.2353
59.2155 1404 37.47
59.3318 1481 38.4838
59.4482 1347 36.7015
59.5646 1517 38.9487
59.681 1444 38
59.7975 1417 37.6431
59.9141 1392 37.3095
60.0306 1405 37.4833
60.1473 1250 35.3553
60.2639 1318 36.3043
60.3807 1247 35.3129
60.4974 1162 34.0881
60.6142 1159 34.0441
60.731 1195 34.5688
60.8479 1169 34.1906
60.9648 1157 34.0147
61.0818 1236 35.1568
61.1987 1254 35.4119
61.3158 1216 34.8712
61.4328 1178 34.322
61.5499 1206 34.7275
61.667 1071 32.7261
61.7841 988 31.4325
61.9013 925 30.4138
62.0185 904 30.0666
62.1357 975 31.225
62.253 1081 32.8786
62.3702 1196 34.5832
62.4875 1238 35.1852
62.6049 1315 36.2629
62.7222 1378 37.1214
62.8396 1333 36.5103
62.9569 1416 37.6298
63.0743 1407 37.51
63.1918 1460 38.2099
63.3092 1434 37.8682
63.4267 1405 37.4833
63.5441 1320 36.3318
63.6616 1308 36.1663
63.7791 1294 35.9722
63.8966 1277 35.7351
64.0142 1250 35.3553
64.1317 1217 34.8855
64.2492 1212 34.8138
64.3668 1198 34.6121
64.4843 1224 34.9857
64.6019 1270 35.6371
64.7195 1267 35.5949
64.837 1309 36.1801
64.9546 1307 36.1525
65.0722 1267 35.5949
65.1898 1232 35.0999
65.3074 1084 32.9242
65.4249 951 30.8383
65.5425 884 29.7321
65.6601 880 29.6648
65.7777 989 31.4484
65.8952 1217 34.8855
66.0128 1166 34.1467
66.1304 1334 36.524
66.2479 1401 37.4299
66.3655 1406 37.4967
66.483 1407 37.51
66.6005 1477 38.4318
66.718 1451 38.092
66.8355 1369 37
66.953 1385 37.2156
67.0705 1325 36.4005
67.1879 1268 35.609
67.3054 1218 34.8999
67.4228 1236 35.1568
67.5402 1135 33.6898
67.6576 1128 33.5857
67.7749 1106 33.2566
67.8923 1118 33.4365
68.0096 1023 31.9844
68.1269 1133 33.6601
68.2442 1099 33.1512
68.3614 1215 34.8569
68.4787 1185 34.4238
68.5958 1193 34.5398
68.713 1132 33.6452
68.8302 1092 33.0454
68.9473 989 31.4484
69.0643 871 29.5127
69.1814 779 27.9106
69.2984 833 28.8617
69.4154 997 31.5753
69.5323 1082 32.8938
69.6492 1147 33.8674
69.7661 1269 35.623
69.8829 1242 35.242
69.9997 1438 37.921
70.1165 1359 36.8646
70.2332 1408 37.5233
70.3499 1296 36
70.4665 1336 36.5513
70.5831 1343 36.647
70.6996 1264 35.5528
70.8161 1265 35.5668
70.9326 1193 34.5398
71.049 1174 34.2637
71.1653 1153 33.9559
71.2817 1099 33.1512
71.3979 1013 31.8277
71.5141 1059 32.5423
71.6303 1005 31.7017
71.7464 936 30.5941
71.8624 0 1
71.9784 0 1
72.0944 0 1
72.2102 0 1
72.3261 0 1
72.4418 0 1
72.5575 0 1
72.6732 0 1
75.1054 0 1
75.2209 0 1
75.3365 0 1
75.4521 0 1
75.5678 0 1
75.6835 0 1
75.7993 0 1
75.9151 0 1
76.031 0 1
76.147 1211 34.7994
76.263 1226 35.0143
76.3791 1169 34.1906
76.4952 1117 33.4215
76.6113 1096 33.1059
76.7276 1083 32.909
76.8438 1090 33.0151
76.9601 1086 32.9545
77.0765 1154 33.9706
77.1929 1185 34.4238
77.3093 1246 35.2987
77.4258 1233 35.1141
77.5423 1221 34.9428
77.6589 1146 33.8526
77.7755 1128 33.5857
77.8921 939 30.6431
78.0088 869 29.4788
78.1256 754 27.4591
78.2423 810 28.4605
78.3591 804 28.3549
78.4759 976 31.241
78.5928 1070 32.7109
78.7097 1225 35
78.8266 1221 34.9428
78.9436 1407 37.51
79.0606 1348 36.7151
79.1776 1324 36.3868
79.2946 1366 36.9594
79.4117 1399 37.4032
79.5288 1306 36.1386
79.6459 1264 35.5528
79.7631 1210 34.7851
79.8802 1231 35.0856
79.9974 1124 33.5261
80.1147 1014 31.8434
80.2319 993 31.5119
80.3491 975 31.225
80.4664 971 31.1609
80.5837 957 30.9354
80.701 1030 32.0936
80.8183 1054 32.4654
80.9357 1065 32.6343
81.053 1126 33.5559
81.1704 1120 33.4664
81.2877 1029 32.078
81.4051 1015 31.8591
81.5225 931 30.5123
81.6399 801 28.3019
81.7573 706 26.5707
81.8747 643 25.3574
81.9922 723 26.8887
82.1096 884 29.7321
82.227 974 31.209
82.3444 1051 32.4191
82.4619 1040 32.249
82.5793 1162 34.0881
82.6967 1134 33.6749
82.8142 1178 34.322
82.9316 1185 34.4238
83.049 1160 34.0588
83.1664 1178 34.322
83.2838 1061 32.573
83.4012 1003 31.6702
83.5186 945 30.7409
83.636 943 30.7083
83.7534 905 30.0832
83.8708 910 30.1662
83.9881 845 29.0689
84.1055 823 28.688
84.2228 864 29.3939
84.3401 857 29.2746
84.4575 950 30.8221
84.5747 1035 32.1714
84.692 1039 32.2335
84.8093 1041 32.2645
84.9265 966 31.0805
85.0437 861 29.3428
85.1609 747 27.3313
85.2781 729 27
85.3952 652 25.5343
85.5123 604 24.5764
85.6294 754 27.4591
85.7465 913 30.2159
85.8636 1095 33.0908
85.9806 1120 33.4664
86.0976 1111 33.3317
86.2145 1271 35.6511
86.3315 1274 35.6931
86.4484 1186 34.4384
86.5652 1217 34.8855
86.682 1275 35.7071
86.7988 1297 36.0139
86.9156 1137 33.7194
87.0323 1138 33.7343
87.149 1140 33.7639
87.2657 1088 32.9848
87.3823 1000 31.6228
87.4988 1040 32.249
87.6154 1016 31.8748
87.7318 1001 31.6386
87.8483 1111 33.3317
87.9647 1220 34.9285
88.081 1211 34.7994
88.1973 1229 35.0571
88.3136 1258 35.4683
88.4298 1202 34.6699
88.546 1107 33.2716
88.6621 1024 32
88.7781 891 29.8496
88.8942 0 1
89.0101 0 1
89.126 0 1
89.2419 0 1
89.3577 0 1
89.4734 0 1
89.5891 0 1
89.7047 0 1
89.8203 0 1
89.9358 0 1
92.3269 0 1
92.4424 0 1
92.558 0 1
92.6736 0 1
92.7893 0 1
92.905 0 1
93.0208 0 1
93.1366 0 1
93.2525 0 1
93.3685 0 1
93.4845 0 1
93.6005 1175 34.2783
93.7167 1226 35.0143
93.8328 1220 34.9285
93.949 1163 34.1028
94.0653 1033 32.1403
94.1816 967 31.0966
94.2979 837 28.931
94.4143 865 29.4109
94.5307 824 28.7054
94.6472 901 30.0167
94.7637 1016 31.8748
94.8803 1148 33.8821
94.9969 1227 35.0286
95.1135 1288 35.8887
95.2302 1316 36.2767
95.3469 1432 37.8418
95.4637 1426 37.7624
95.5805 1463 38.2492
95.6973 1426 37.7624
95.8142 1405 37.4833
95.9311 1407 37.51
96.048 1299 36.0416
96.1649 1287 35.8748
96.2819 1204 34.6987
96.3989 1204 34.6987
96.516 1138 33.7343
96.633 1073 32.7567
96.7501 1041 32.2645
96.8673 1060 32.5576
96.9844 1152 33.9411
97.1016 1238 35.1852
97.2188 1217 34.8855
97.336 1263 35.5387
97.4532 1282 35.805
97.5704 1223 34.9714
97.6877 1097 33.121
97.805 1042 32.28
97.9223 878 29.6311
98.0396 854 29.2233
98.1569 867 29.4449
98.2743 851 29.1719
98.3916 994 31.5278
98.509 1083 32.909
98.6264 1153 33.9559
98.7438 1305 36.1248
98.8612 1391 37.2961
98.9786 1402 37.4433
99.096 1422 37.7094
99.2134 1429 37.8021
99.3308 1402 37.4433
99.4482 1419 37.6696
99.5656 1411 37.5633
99.6831 1323 36.3731
99.8005 1265 35.5668
99.9179 1273 35.6791
100.035 1147 33.8674
100.153 1169 34.1906
100.27 1079 32.8481
100.388 1090 33.0151
100.505 1212 34.8138
100.622 1141 33.7787
100.74 1297 36.0139
100.857 1251 35.3695
100.975 1288 35.8887
101.092 1281 35.7911
101.209 1250 35.3553
101.327 1164 34.1174
101.444 1009 31.7648
101.561 970 31.1448
101.679 878 29.6311
101.796 841 29
101.913 1001 31.6386
102.03 1060 32.5576
102.148 1271 35.6511
102.265 1235 35.1426
102.382 1443 37.9868
102.499 1497 38.6911
102.616 1453 38.1182
102.733 1466 38.2884
102.851 1642 40.5216
102.968 1615 40.1871
103.085 1533 39.1535
103.202 1414 37.6032
103.319 1353 36.7831
103.436 1362 36.9053
103.552 1250 35.3553
103.669 1214 34.8425
103.786 1170 34.2053
103.903 1173 34.2491
104.02 1209 34.7707
104.137 1248 35.327
104.253 1335 36.5377
104.37 1292 35.9444
104.487 1442 37.9737
104.603 1369 37
104.72 1318 36.3043
104.836 1206 34.7275
104.953 1085 32.9393
105.069 1005 31.7017
105.186 1008 31.749
105.302 1071 32.7261
105.418 1082 32.8938
105.535 1232 35.0999
105.651 1383 37.1887
105.767 1560 39.4968
105.883 1621 40.2616
105.999 1659 40.7308
106.115 0 1
106.231 0 1
106.347 0 1
106.463 0 1
106.579 0 1
106.694 0 1
106.81 0 1
106.926 0 1
107.041 0 1
107.157 0 1
109.576 0 1
109.692 0 1
109.807 0 1
109.923 0 1
110.039 0 1
110.155 0 1
110.27 0 1
110.386 0 1
110.502 0 1
110.618 1240 35.2136
110.735 1398 37.3898
110.851 1536 39.1918
110.967 1413 37.5899
111.083 1523 39.0256
111.199 1545 39.3065
111.316 1600 40
111.432 1592 39.8999
111.549 1562 39.5221
111.665 1558 39.4715
111.782 1509 38.8458
111.898 1413 37.5899
112.015 1350 36.7423
112.132 1242 35.242
112.248 1183 34.3948
112.365 1170 34.2053
112.482 1154 33.9706
112.599 1298 36.0278
112.716 1226 35.0143
112.832 1286 35.8608
112.949 1334 36.524
113.066 1372 37.0405
113.183 1391 37.2961
113.3 1261 35.5106
113.417 1141 33.7787
113.534 1021 31.9531
113.652 1030 32.0936
113.769 957 30.9354
113.886 969 31.1288
114.003 985 31.3847
114.12 1185 34.4238
114.238 1328 36.4417
114.355 1379 37.1349
114.472 1476 38.4187
114.589 1474 38.3927
114.707 1485 38.5357
114.824 1550 39.37
114.942 1509 38.8458
115.059 1448 38.0526
115.176 1517 38.9487
115.294 1510 38.8587
115.411 1507 38.8201
115.529 1348 36.7151
115.646 1329 36.4555
115.764 1243 35.2562
115.881 1314 36.2491
115.999 1188 34.4674
116.116 1267 35.5949
116.234 1251 35.3695
116.351 1347 36.7015
116.469 1406 37.4967
116.586 1419 37.6696
116.704 1302 36.0832
116.821 1288 35.8887
116.939 1262 35.5246
117.056 1223 34.9714
117.174 1102 33.1964
117.291 1081 32.8786
117.409 1007 31.7333
117.526 1017 31.8904
117.644 1174 34.2637
117.761 1297 36.0139
117.879 1449 38.0657
117.996 1417 37.6431
118.114 1521 39
118.231 1644 40.5463
118.349 1558 39.4715
118.466 1684 41.0366
118.584 1618 40.2244
118.701 1596 39.95
118.819 1542 39.2683
118.936 1551 39.3827
119.053 1503 38.7685
119.171 1470 38.3406
119.288 1421 37.6962
119.405 1253 35.3977
119.523 1296 36
119.64 1267 35.5949
119.757 1292 35.9444
119.875 1291 35.9305
119.992 1359 36.8646
120.109 1291 35.9305
120.226 1392 37.3095
120.343 1415 37.6165
120.46 1269 35.623
120.578 1311 36.2077
120.695 1225 35
120.812 1196 34.5832
120.929 1075 32.7872
121.046 1114 33.3766
121.163 1163 34.1028
121.279 1142 33.7935
121.396 1269 35.623
121.513 1427 37.7757
121.63 1522 39.0128
121.747 1580 39.7492
121.863 1596 39.95
121.98 1560 39.4968
122.097 1568 39.598
122.213 1576 39.6989
122.33 1526 39.064
122.446 1511 38.8716
122.563 1544 39.2938
122.679 1457 38.1707
122.795 1472 38.3667
122.912 1330 36.4692
123.028 1392 37.3095
123.144 1298 36.0278
123.26 1285 35.8469
123.377 0 1
123.493 0 1
123.609 0 1
123.725 0 1
123.84 0 1
123.956 0 1
124.072 0 1
124.188 0 1
124.303 0 1
124.419 0 1
126.852 0 1
126.968 0 1
127.083 0 1
127.199 0 1
127.315 0 1
127.431 0 1
127.547 0 1
127.663 0 1
127.779 0 1
127.895 0 1
128.011 0 1
128.127 0 1
128.243 0 1
128.359 1413 37.5899
128.476 1366 36.9594
128.592 1427 37.7757
128.708 1388 37.2559
128.825 1480 38.4708
128.941 1485 38.5357
129.058 1498 38.704
129.174 1557 39.4588
129.291 1442 37.9737
129.408 1491 38.6135
129.524 1402 37.4433
129.641 1461 38.223
129.758 1262 35.5246
129.875 1252 35.3836
129.992 1239 35.1994
130.108 1231 35.0856
130.225 1267 35.5949
130.342 1431 37.8286
130.459 1377 37.108
130.576 1593 39.9124
130.693 1566 39.5727
130.81 1629 40.3609
130.928 1679 40.9756
131.045 1678 40.9634
131.162 1669 40.8534
131.279 1705 41.2916
131.396 1630 40.3733
131.513 1637 40.4599
131.631 1660 40.7431
131.748 1586 39.8246
131.865 1472 38.3667
131.983 1407 37.51
132.1 1474 38.3927
132.217 1465 38.2753
132.335 1489 38.5876
132.452 1539 39.2301
132.57 1523 39.0256
132.687 1511 38.8716
132.804 1571 39.6358
132.922 1488 38.5746
133.039 1467 38.3014
133.157 1454 38.1314
133.274 1378 37.1214
133.392 1441 37.9605
133.509 1327 36.428
133.627 1271 35.6511
133.744 1273 35.6791
133.862 1325 36.4005
133.979 1423 37.7227
134.097 1536 39.1918
134.214 1591 39.8873
134.332 1624 40.2989
134.449 1633 40.4104
134.567 1694 41.1582
134.684 1725 41.5331
134.802 1719 41.4608
134.919 1639 40.4846
135.037 1705 41.2916
135.154 1759 41.9404
135.272 1696 41.1825
135.389 1589 39.8623
135.507 1457 38.1707
135.624 1392 37.3095
135.742 1465 38.2753
135.859 1523 39.0256
135.977 1522 39.0128
136.094 1551 39.3827
136.211 1548 39.3446
136.329 1618 40.2244
136.446 1564 39.5474
136.564 1503 38.7685
136.681 1469 38.3275
136.798 1466 38.2884
136.915 1430 37.8153
137.033 1332 36.4966
137.15 1289 35.9026
137.267 1236 35.1568
137.384 1236 35.1568
137.502 1356 36.8239
137.619 1449 38.0657
137.736 1498 38.704
137.853 1467 38.3014
137.97 1593 39.9124
138.087 1604 40.05
138.204 1654 40.6694
138.321 1575 39.6863
138.438 1583 39.7869
138.555 1690 41.1096
138.672 1611 40.1373
138.788 1597 39.9625
138.905 1570 39.6232
139.022 1538 39.2173
139.139 1443 37.9868
139.255 1407 37.51
139.372 1420 37.6829
139.488 1409 37.5366
139.605 1572 39.6485
139.721 1581 39.7618
139.838 1523 39.0256
139.954 1546 39.3192
140.071 1589 39.8623
140.187 1468 38.3145
140.303 1489 38.5876
140.419 1465 38.2753
140.535 1363 36.9188
140.652 1373 37.054
140.768 0 1
140.884 0 1
141 0 1
141.115 0 1
141.231 0 1
141.347 0 1
141.463 0 1
141.578 0 1
141.694 0 1
144.104 0 1
144.219 0 1
144.335 0 1
144.45 0 1
144.566 0 1
144.682 0 1
144.798 0 1
144.914 0 1
145.03 0 1
145.146 1111 33.3317
145.262 1163 34.1028
145.378 1140 33.7639
145.494 1163 34.1028
145.61 1153 33.9559
145.726 1079 32.8481
145.842 1093 33.0606
145.959 1064 32.619
146.075 1141 33.7787
146.192 1067 32.665
146.308 1021 31.9531
146.425 1046 32.3419
146.541 1150 33.9116
146.658 1208 34.7563
146.774 1168 34.176
146.891 1118 33.4365
147.008 1212 34.8138
147.125 1238 35.1852
147.241 1254 35.4119
147.358 1272 35.6651
147.475 1280 35.7771
147.592 1331 36.4829
147.709 1244 35.2704
147.826 1254 35.4119
147.943 1195 34.5688
148.06 1200 34.641
148.177 1161 34.0735
148.294 1146 33.8526
148.411 1151 33.9264
148.528 1239 35.1994
148.645 1267 35.5949
148.762 1222 34.9571
148.88 1251 35.3695
148.997 1204 34.6987
149.114 1242 35.242
149.231 1272 35.6651
149.349 1120 33.4664
149.466 1257 35.4542
149.583 1316 36.2767
149.701 1121 33.4813
149.818 1123 33.5112
149.935 1068 32.6803
150.053 1063 32.6037
150.17 1095 33.0908
150.287 1155 33.9853
150.405 1200 34.641
150.522 1207 34.7419
150.64 1221 34.9428
150.757 1273 35.6791
150.875 1296 36
150.992 1301 36.0694
151.11 1327 36.428
151.227 1321 36.3456
151.344 1245 35.2846
151.462 1243 35.2562
151.579 1294 35.9722
151.697 1272 35.6651
151.814 1100 33.1662
151.932 1189 34.4819
152.049 1187 34.4529
152.167 1247 35.3129
152.284 1292 35.9444
152.402 1318 36.3043
152.519 1264 35.5528
152.636 1298 36.0278
152.754 1298 36.0278
152.871 1216 34.8712
152.989 1232 35.0999
153.106 1230 35.0714
153.223 1235 35.1426
153.341 1242 35.242
153.458 1173 34.2491
153.575 1174 34.2637
153.693 1176 34.2929
153.81 1194 34.5543
153.927 1173 34.2491
154.044 1212 34.8138
154.162 1242 35.242
154.279 1321 36.3456
154.396 1365 36.9459
154.513 1402 37.4433
154.63 1457 38.1707
154.747 1481 38.4838
154.864 1450 38.0789
154.981 1425 37.7492
155.098 1522 39.0128
155.215 1389 37.2693
155.332 1289 35.9026
155.449 1376 37.0945
155.566 1355 36.8103
155.683 1332 36.4966
155.8 1387 37.2424
155.917 1408 37.5233
156.033 1406 37.4967
156.15 0 1
156.267 0 1
156.383 0 1
156.5 0 1
156.617 0 1
156.733 0 1
156.85 0 1
156.966 0 1
157.082 0 1
157.199 0 1
157.315 0 1
157.431 0 1
157.547 0 1
157.664 0 1
157.78 0 1
157.896 0 1
158.012 0 1
158.128 0 1
158.244 0 1
158.359 0 1
158.475 0 1
158.591 0 1
158.706 0 1
