
6.15755 0 1
6.2731 0 1
6.3887 0 1
6.50437 0 1
6.62009 0 1
6.73587 0 1
6.8517 0 1
6.96759 0 1
7.08353 0 1
7.19952 0 1
7.31557 0 1
7.43166 0 1
7.54781 0 1
7.664 0 1
7.78024 0 1
7.89653 0 1
8.01286 0 1
8.12924 0 1
8.24567 0 1
8.36213 0 1
8.47864 0 1
8.59519 0 1
8.71178 0 1
8.82841 0 1
8.94508 0 1
9.06179 0 1
9.17853 0 1
9.29531 0 1
9.41212 0 1
9.52897 0 1
9.64584 0 1
9.76276 0 1
9.8797 0 1
9.99667 0 1
10.1137 0 1
10.2307 0 1
10.3478 0 1
10.4648 0 1
10.5819 0 1
10.6991 0 1
10.8162 0 1
10.9334 0 1
11.0506 0 1
11.1678 0 1
11.285 0 1
11.4023 0 1
11.5196 0 1
11.6369 0 1
11.7542 0 1
11.8715 0 1
11.9888 0 1
12.1062 0 1
12.2235 0 1
12.3409 0 1
12.4582 0 1
12.5756 0 1
12.693 0 1
12.8104 0 1
12.9278 0 1
13.0452 0 1
13.1626 0 1
13.28 0 1
13.3974 0 1
13.5149 0 1
13.6323 0 1
13.7497 0 1
13.8671 0 1
13.9845 0 1
14.1019 0 1
14.2193 0 1
14.3367 0 1
14.4541 0 1
14.5714 0 1
14.6888 0 1
14.8062 0 1
14.9235 0 1
15.0408 8852 94.0851
15.1581 9416 97.0361
15.2755 9460 97.2625
15.3927 9511 97.5244
15.51 9723 98.6053
15.6273 9648 98.2242
15.7445 9461 97.2677
15.8617 9483 97.3807
15.9789 9446 97.1905
16.0961 9652 98.2446
16.2132 9958 99.7898
16.3304 10280 101.39
16.4475 10376 101.863
16.5646 10830 104.067
16.6816 11191 105.788
16.7986 11442 106.967
16.9156 11716 108.24
17.0326 12099 109.995
17.1496 12102 110.009
17.2665 12631 112.388
17.3833 12543 111.996
17.5002 13080 114.368
17.617 13227 115.009
17.7338 12973 113.899
17.8505 13107 114.486
17.9672 12911 113.627
18.0839 12555 112.049
18.2005 11961 109.366
18.3171 12056 109.8
18.4337 12158 110.263
18.5502 12783 113.062
18.6666 13142 114.639
18.7831 13332 115.464
18.8994 13447 115.961
19.0158 13183 114.817
19.1321 12849 113.353
19.2483 12638 112.419
19.3645 12568 112.107
19.4806 12251 110.684
19.5967 11992 109.508
19.7128 11988 109.49
19.8288 11592 107.666
19.9447 10498 102.46
20.0606 0 1
20.1764 0 1
20.2922 0 1
20.4079 0 1
20.5236 0 1
20.6392 0 1
20.7548 0 1
20.8702 0 1
23.3078 0 1
23.4233 0 1
23.539 0 1
23.6547 0 1
23.7704 0 1
23.8862 0 1
24.0021 0 1
24.118 0 1
24.234 0 1
24.35 0 1
24.4661 11917 109.165
24.5822 11854 108.876
24.6984 11908 109.124
24.8146 11896 109.069
24.9309 11780 108.536
25.0472 11653 107.949
25.1636 11807 108.66
25.28 11909 109.128
25.3965 12349 111.126
25.513 12805 113.159
25.6296 13241 115.07
25.7462 13582 116.542
25.8628 13689 117
25.9795 13999 118.317
26.0962 14325 119.687
26.213 14077 118.647
26.3298 14215 119.227
26.4466 14163 119.008
26.5635 13914 117.958
26.6804 13199 114.887
26.7973 12566 112.098
26.9143 12465 111.647
27.0313 12585 112.183
27.1483 13395 115.737
27.2653 13583 116.546
27.3824 13547 116.392
27.4996 13840 117.644
27.6167 13260 115.152
27.7339 13243 115.078
27.8511 12834 113.287
27.9683 12769 113
28.0855 12332 111.05
28.2028 12314 110.968
28.3201 12050 109.772
28.4374 12103 110.014
28.5547 11869 108.945
28.6721 11503 107.252
28.7894 11539 107.42
28.9068 11774 108.508
29.0242 12291 110.865
29.1416 12271 110.775
29.259 12669 112.557
29.3764 13101 114.46
29.4939 13356 115.568
29.6113 13551 116.409
29.7288 13717 117.12
29.8463 13724 117.149
29.9638 13420 115.845
30.0812 13563 116.46
30.1987 12847 113.345
30.3162 12233 110.603
30.4337 11536 107.406
30.5512 11676 108.056
30.6687 12305 110.928
30.7862 13058 114.272
30.9037 13033 114.162
31.0212 13269 115.191
31.1387 13172 114.769
31.2562 13018 114.096
31.3737 12688 112.641
31.4912 12487 111.745
31.6087 12413 111.414
31.7262 12030 109.681
31.8436 11823 108.734
31.9611 11731 108.31
32.0785 11493 107.205
32.1959 11465 107.075
32.3134 11212 105.887
32.4308 11618 107.787
32.5482 11808 108.665
32.6655 11897 109.073
32.7829 12227 110.576
32.9002 12585 112.183
33.0176 12939 113.75
33.1349 13118 114.534
33.2522 13231 115.026
33.3694 13094 114.429
33.4867 13284 115.256
33.6039 13225 115
33.7211 13108 114.49
33.8383 12832 113.278
33.9554 11904 109.105
34.0725 11264 106.132
34.1896 11071 105.219
34.3067 11409 106.813
34.4237 12028 109.672
34.5407 12256 110.707
34.6577 12436 111.517
34.7746 12563 112.085
34.8915 12299 110.901
35.0084 12177 110.349
35.1252 12232 110.598
35.242 12024 109.654
35.3587 11711 108.217
35.4755 11629 107.838
35.5921 11460 107.051
35.7088 11139 105.541
35.8254 11124 105.47
35.9419 11002 104.89
36.0584 10802 103.933
36.1749 10986 104.814
36.2913 11031 105.029
36.4077 11357 106.569
36.524 11572 107.573
36.6403 11901 109.092
36.7565 12118 110.082
36.8727 12560 112.071
36.9889 12472 111.678
37.1049 12416 111.427
37.221 0 1
37.3369 0 1
37.4529 0 1
37.5687 0 1
37.6845 0 1
37.8003 0 1
37.916 0 1
38.0316 0 1
38.1472 0 1
40.5851 0 1
40.7008 0 1
40.8164 0 1
40.9322 0 1
41.048 0 1
41.1639 0 1
41.2798 0 1
41.3958 0 1
41.5118 0 1
41.6279 0 1
41.744 8958 94.6467
41.8602 9774 98.8635
41.9765 10174 100.866
42.0928 10439 102.171
42.2091 10678 103.334
42.3255 10623 103.068
42.4419 10543 102.679
42.5584 10417 102.064
42.675 10210 101.045
42.7915 9572 97.8366
42.9081 8799 93.803
43.0248 8528 92.3472
43.1415 8924 94.4669
43.2582 9253 96.1925
43.375 9409 97
43.4918 9509 97.5141
43.6087 9819 99.0909
43.7256 9748 98.732
43.8425 9571 97.8315
43.9595 9279 96.3276
44.0765 9210 95.9687
44.1935 9107 95.4306
44.3106 8865 94.1541
44.4277 8488 92.1303
44.5448 8406 91.6842
44.6619 7919 88.9888
44.7791 7876 88.7468
44.8963 7685 87.6641
45.0136 7418 86.1278
45.1308 7322 85.5687
45.2481 7643 87.4243
45.3654 7833 88.5042
45.4827 7845 88.572
45.6001 8197 90.5373
45.7174 8269 90.934
45.8348 8135 90.1942
45.9522 8196 90.5318
46.0697 8136 90.1998
46.1871 7878 88.7581
46.3046 7584 87.0862
46.422 7121 84.386
46.5395 6518 80.7341
46.657 6478 80.486
46.7745 6723 81.9939
46.892 7119 84.3742
47.0096 7167 84.6581
47.1271 7254 85.1704
47.2446 7162 84.6286
47.3622 7311 85.5044
47.4797 7215 84.9412
47.5973 6902 83.0783
47.7149 7025 83.8153
47.8324 6781 82.3468
47.95 6648 81.5353
48.0675 6427 80.1686
48.1851 6238 78.981
48.3027 6060 77.846
48.4202 5974 77.2917
48.5378 5836 76.3937
48.6554 5962 77.214
48.7729 6204 78.7655
48.8904 6322 79.511
49.008 6539 80.8641
49.1255 6625 81.3941
49.243 6982 83.5584
49.3605 6906 83.1023
49.478 7228 85.0176
49.5955 7191 84.7998
49.713 7126 84.4156
49.8304 6783 82.359
49.9479 6281 79.2528
50.0653 6098 78.0897
50.1827 5831 76.361
50.3001 6179 78.6066
50.4175 6556 80.9691
50.5348 6957 83.4086
50.6521 7256 85.1822
50.7694 7697 87.7325
50.8867 7770 88.1476
51.004 7813 88.3912
51.1212 7660 87.5214
51.2384 7930 89.0505
51.3556 8086 89.9222
51.4727 8051 89.7274
51.5899 7919 88.9888
51.707 7854 88.6228
51.824 7966 89.2525
51.9411 7627 87.3327
52.0581 7495 86.5737
52.175 7653 87.4814
52.2919 8105 90.0278
52.4088 8538 92.4013
52.5257 8918 94.4352
52.6425 9077 95.2733
52.7593 9437 97.1442
52.876 9604 98
52.9927 9861 99.3026
53.1094 10024 100.12
53.226 10098 100.489
53.3426 9752 98.7522
53.4591 9549 97.719
53.5756 8965 94.6837
53.692 8405 91.6788
53.8084 8167 90.3715
53.9248 8510 92.2497
54.0411 9231 96.0781
54.1573 9711 98.5444
54.2735 0 1
54.3896 0 1
54.5057 0 1
54.6217 0 1
54.7377 0 1
54.8537 0 1
54.9695 0 1
55.0853 0 1
55.2011 0 1
55.3168 0 1
55.4324 0 1
57.824 0 1
57.9396 0 1
58.0553 0 1
58.1711 0 1
58.2869 0 1
58.4028 0 1
58.5187 0 1
58.6347 0 1
58.7508 0 1
58.8669 0 1
58.983 9778 98.8838
59.0992 10718 103.528
59.2155 11132 105.508
59.3318 11547 107.457
59.4482 12324 111.014
59.5646 12486 111.741
59.681 12545 112.004
59.7975 12645 112.45
59.9141 12661 112.521
60.0306 12545 112.004
60.1473 12261 110.729
60.2639 11781 108.54
60.3807 11625 107.819
60.4974 11263 106.127
60.6142 10947 104.628
60.731 10788 103.865
60.8479 10366 101.814
60.9648 10259 101.287
61.0818 10864 104.231
61.1987 11063 105.181
61.3158 11548 107.462
61.4328 11912 109.142
61.5499 11996 109.526
61.667 12263 110.738
61.7841 12297 110.892
61.9013 12025 109.659
62.0185 11380 106.677
62.1357 10917 104.484
62.253 10105 100.524
62.3702 9831 99.1514
62.4875 9926 99.6293
62.6049 10442 102.186
62.7222 11057 105.152
62.8396 11721 108.264
62.9569 11955 109.339
63.0743 11973 109.421
63.1918 12127 110.123
63.3092 12012 109.599
63.4267 11940 109.27
63.5441 11771 108.494
63.6616 11509 107.28
63.7791 11531 107.382
63.8966 11133 105.513
64.0142 10581 102.864
64.1317 10226 101.124
64.2492 9594 97.949
64.3668 9533 97.6371
64.4843 9621 98.0867
64.6019 9938 99.6895
64.7195 10323 101.602
64.837 10807 103.957
64.9546 11236 106
65.0722 11738 108.342
65.1898 11601 107.708
65.3074 11935 109.247
65.4249 11520 107.331
65.5425 11416 106.846
65.6601 10651 103.204
65.7777 9982 99.91
65.8952 9308 96.478
66.0128 9187 95.8488
66.1304 9549 97.719
66.2479 10035 100.175
66.3655 10530 102.616
66.483 11096 105.338
66.6005 11448 106.995
66.718 11806 108.655
66.8355 11712 108.222
66.953 11700 108.167
67.0705 11547 107.457
67.1879 11453 107.019
67.3054 11282 106.217
67.4228 11127 105.485
67.5402 10826 104.048
67.6576 10486 102.401
67.7749 9977 99.8849
67.8923 9828 99.1363
68.0096 9370 96.7988
68.1269 9306 96.4676
68.2442 9680 98.387
68.3614 10116 100.578
68.4787 10676 103.325
68.5958 11349 106.532
68.713 11568 107.555
68.8302 11728 108.296
68.9473 11841 108.816
69.0643 11928 109.215
69.1814 11583 107.624
69.2984 11285 106.231
69.4154 10456 102.255
69.5323 9759 98.7877
69.6492 9448 97.2008
69.7661 9769 98.8383
69.8829 10375 101.858
69.9997 11120 105.451
70.1165 11480 107.145
70.2332 11896 109.069
70.3499 12304 110.923
70.4665 12533 111.951
70.5831 12543 111.996
70.6996 12487 111.745
70.8161 12585 112.183
70.9326 11985 109.476
71.049 11712 108.222
71.1653 11553 107.485
71.2817 11123 105.466
71.3979 10700 103.441
71.5141 10031 100.155
71.6303 9471 97.3191
71.7464 8669 93.1075
71.8624 0 1
71.9784 0 1
72.0944 0 1
72.2102 0 1
72.3261 0 1
72.4418 0 1
72.5575 0 1
72.6732 0 1
75.1054 0 1
75.2209 0 1
75.3365 0 1
75.4521 0 1
75.5678 0 1
75.6835 0 1
75.7993 0 1
75.9151 0 1
76.031 0 1
76.147 11261 106.118
76.263 11627 107.829
76.3791 11476 107.126
76.4952 11294 106.273
76.6113 10786 103.856
76.7276 10247 101.227
76.8438 9841 99.2018
76.9601 9930 99.6494
77.0765 10152 100.757
77.1929 10679 103.339
77.3093 11356 106.565
77.4258 11875 108.972
77.5423 12587 112.192
77.6589 12591 112.21
77.7755 12467 111.656
77.8921 12564 112.089
78.0088 11989 109.494
78.1256 11231 105.976
78.2423 10449 102.22
78.3591 9886 99.4284
78.4759 9250 96.1769
78.5928 9374 96.8194
78.7097 10102 100.509
78.8266 10870 104.259
78.9436 11820 108.72
79.0606 11778 108.526
79.1776 12029 109.677
79.2946 12420 111.445
79.4117 12453 111.593
79.5288 12612 112.303
79.6459 12544 112
79.7631 12246 110.662
79.8802 11768 108.48
79.9974 11775 108.513
80.1147 11608 107.74
80.2319 10905 104.427
80.3491 10344 101.705
80.4664 9515 97.5449
80.5837 9661 98.2904
80.701 10059 100.295
80.8183 10480 102.372
80.9357 11366 106.611
81.053 11834 108.784
81.1704 12302 110.914
81.2877 12343 111.099
81.4051 12404 111.373
81.5225 12497 111.79
81.6399 12053 109.786
81.7573 11856 108.885
81.8747 10694 103.412
81.9922 9769 98.8383
82.1096 9435 97.1339
82.227 9353 96.7109
82.3444 10049 100.245
82.4619 10892 104.365
82.5793 11537 107.41
82.6967 11642 107.898
82.8142 12281 110.82
82.9316 12443 111.548
83.049 12479 111.709
83.1664 12535 111.96
83.2838 12489 111.754
83.4012 12374 111.238
83.5186 12233 110.603
83.636 11797 108.614
83.7534 11665 108.005
83.8708 10965 104.714
83.9881 10422 102.088
84.1055 9881 99.4032
84.2228 9870 99.3479
84.3401 10074 100.369
84.4575 10648 103.189
84.5747 11101 105.361
84.692 12069 109.859
84.8093 12720 112.783
84.9265 12657 112.503
85.0437 12713 112.752
85.1609 12586 112.187
85.2781 12291 110.865
85.3952 11355 106.56
85.5123 10527 102.601
85.6294 9776 98.8737
85.7465 9669 98.3311
85.8636 10046 100.23
85.9806 11100 105.357
86.0976 11762 108.453
86.2145 12228 110.58
86.3315 12718 112.774
86.4484 13083 114.381
86.5652 13211 114.939
86.682 13278 115.23
86.7988 13414 115.819
86.9156 13373 115.642
87.0323 13257 115.139
87.149 12857 113.389
87.2657 12828 113.261
87.3823 12326 111.023
87.4988 11952 109.325
87.6154 10860 104.211
87.7318 10462 102.284
87.8483 10429 102.122
87.9647 11116 105.432
88.081 11882 109.005
88.1973 12833 113.283
88.3136 13280 115.239
88.4298 13389 115.711
88.546 13698 117.038
88.6621 13378 115.663
88.7781 13061 114.285
88.8942 0 1
89.0101 0 1
89.126 0 1
89.2419 0 1
89.3577 0 1
89.4734 0 1
89.5891 0 1
89.7047 0 1
89.8203 0 1
89.9358 0 1
92.3269 0 1
92.4424 0 1
92.558 0 1
92.6736 0 1
92.7893 0 1
92.905 0 1
93.0208 0 1
93.1366 0 1
93.2525 0 1
93.3685 0 1
93.4845 0 1
93.6005 12920 113.666
93.7167 13079 114.363
93.8328 12942 113.763
93.949 12632 112.392
94.0653 12244 110.653
94.1816 11499 107.233
94.2979 11121 105.456
94.4143 10464 102.294
94.5307 10173 100.861
94.6472 10421 102.083
94.7637 11158 105.631
94.8803 11602 107.713
94.9969 12038 109.718
95.1135 12790 113.093
95.2302 13109 114.495
95.3469 13332 115.464
95.4637 13421 115.849
95.5805 13510 116.233
95.6973 13535 116.34
95.8142 13749 117.256
95.9311 13306 115.352
96.048 13086 114.394
96.1649 12983 113.943
96.2819 12455 111.602
96.3989 11960 109.362
96.516 11440 106.958
96.633 10667 103.281
96.7501 10493 102.435
96.8673 11037 105.057
96.9844 11355 106.56
97.1016 12233 110.603
97.2188 12830 113.27
97.336 13578 116.525
97.4532 13310 115.369
97.5704 13304 115.343
97.6877 13075 114.346
97.805 12314 110.968
97.9223 11524 107.35
98.0396 10489 102.416
98.1569 10312 101.548
98.2743 10118 100.588
98.3916 10421 102.083
98.509 11163 105.655
98.6264 11850 108.858
98.7438 12066 109.845
98.8612 12628 112.374
98.9786 12869 113.442
99.096 12990 113.974
99.2134 13237 115.052
99.3308 13190 114.848
99.4482 13189 114.843
99.5656 12909 113.618
99.6831 12818 113.217
99.8005 12527 111.924
99.9179 12363 111.189
100.035 11637 107.875
100.153 10836 104.096
100.27 10269 101.336
100.388 10504 102.489
100.505 10812 103.981
100.622 11685 108.097
100.74 12412 111.409
100.857 12983 113.943
100.975 13074 114.342
101.092 13253 115.122
101.209 13163 114.73
101.327 12770 113.004
101.444 12232 110.598
101.561 11517 107.317
101.679 10971 104.743
101.796 10385 101.907
101.913 10464 102.294
102.03 10917 104.484
102.148 11823 108.734
102.265 11358 106.574
102.382 13750 117.26
102.499 13113 114.512
102.616 13792 117.439
102.733 13689 117
102.851 13932 118.034
102.968 14093 118.714
103.085 13854 117.703
103.202 13512 116.241
103.319 13479 116.099
103.436 13067 114.311
103.552 12673 112.574
103.669 11753 108.411
103.786 11171 105.693
103.903 11127 105.485
104.02 11547 107.457
104.137 12781 113.053
104.253 13413 115.815
104.37 13979 118.233
104.487 14144 118.929
104.603 14524 120.516
104.72 13943 118.08
104.836 13411 115.806
104.953 12795 113.115
105.069 11943 109.284
105.186 11353 106.55
105.302 11145 105.57
105.418 11238 106.009
105.535 12015 109.613
105.651 12441 111.539
105.767 13024 114.123
105.883 13642 116.799
105.999 13782 117.397
106.115 0 1
106.231 0 1
106.347 0 1
106.463 0 1
106.579 0 1
106.694 0 1
106.81 0 1
106.926 0 1
107.041 0 1
107.157 0 1
109.576 0 1
109.692 0 1
109.807 0 1
109.923 0 1
110.039 0 1
110.155 0 1
110.27 0 1
110.386 0 1
110.502 0 1
110.618 10899 104.398
110.735 11549 107.466
110.851 11808 108.665
110.967 12109 110.041
111.083 12251 110.684
111.199 12443 111.548
111.316 12409 111.396
111.432 12654 112.49
111.549 12417 111.432
111.665 12134 110.154
111.782 12112 110.055
111.898 11711 108.217
112.015 10772 103.788
112.132 10174 100.866
112.248 9461 97.2677
112.365 9634 98.1529
112.482 10131 100.653
112.599 10450 102.225
112.716 11379 106.672
112.832 11596 107.685
112.949 11631 107.847
113.066 11429 106.907
113.183 11193 105.797
113.3 10829 104.062
113.417 10266 101.321
113.534 9411 97.0103
113.652 8810 93.8616
113.769 8610 92.7901
113.886 8580 92.6283
114.003 8795 93.7817
114.12 9199 95.9114
114.238 9601 97.9847
114.355 9918 99.5892
114.472 10119 100.593
114.589 9890 99.4485
114.707 10241 101.198
114.824 9970 99.8499
114.942 10217 101.079
115.059 9983 99.915
115.176 9728 98.6306
115.294 9683 98.4022
115.411 9373 96.8143
115.529 8835 93.9947
115.646 8425 91.7878
115.764 7687 87.6755
115.881 7317 85.5395
115.999 7679 87.6299
116.116 8216 90.6422
116.234 8754 93.5628
116.351 8690 93.2202
116.469 8701 93.2792
116.586 8636 92.9301
116.704 8524 92.3255
116.821 8549 92.4608
116.939 7814 88.3968
117.056 7519 86.7122
117.174 7094 84.2259
117.291 6891 83.012
117.409 6637 81.4678
117.526 6766 82.2557
117.644 7163 84.6345
117.761 7526 86.7525
117.879 7812 88.3855
117.996 7860 88.6566
118.114 8262 90.8955
118.231 8360 91.433
118.349 8209 90.6035
118.466 8280 90.9945
118.584 8497 92.1792
118.701 8553 92.4824
118.819 8286 91.0275
118.936 8178 90.4323
119.053 8133 90.1831
119.171 7731 87.9261
119.288 7434 86.2206
119.405 6971 83.4925
119.523 7038 83.8928
119.64 7267 85.2467
119.757 7889 88.82
119.875 8347 91.3619
119.992 8422 91.7715
120.109 8836 94
120.226 8618 92.8332
120.343 8807 93.8456
120.46 8628 92.887
120.578 8527 92.3418
120.695 8106 90.0333
120.812 7790 88.261
120.929 7455 86.3423
121.046 7432 86.209
121.163 7317 85.5395
121.279 7642 87.4185
121.396 8167 90.3715
121.513 8608 92.7793
121.63 8966 94.689
121.747 9112 95.4568
121.863 9502 97.4782
121.98 9686 98.4175
122.097 9603 97.9949
122.213 9947 99.7346
122.33 9787 98.9293
122.446 9734 98.661
122.563 9816 99.0757
122.679 9792 98.9545
122.795 9465 97.2882
122.912 9335 96.6178
123.028 8802 93.819
123.144 8279 90.989
123.26 8239 90.7689
123.377 0 1
123.493 0 1
123.609 0 1
123.725 0 1
123.84 0 1
123.956 0 1
124.072 0 1
124.188 0 1
124.303 0 1
124.419 0 1
126.852 0 1
126.968 0 1
127.083 0 1
127.199 0 1
127.315 0 1
127.431 0 1
127.547 0 1
127.663 0 1
127.779 0 1
127.895 0 1
128.011 0 1
128.127 0 1
128.243 0 1
128.359 10079 100.394
128.476 9880 99.3982
128.592 10234 101.163
128.708 10450 102.225
128.825 11347 106.522
128.941 11715 108.236
129.058 11854 108.876
129.174 11866 108.931
129.291 12105 110.023
129.408 11593 107.671
129.524 11144 105.565
129.641 10393 101.946
129.758 10017 100.085
129.875 9613 98.0459
129.992 9167 95.7445
130.108 9099 95.3887
130.225 9428 97.0979
130.342 9855 99.2724
130.459 9996 99.98
130.576 10002 100.01
130.693 10328 101.627
130.81 10541 102.669
130.928 10515 102.543
131.045 10483 102.387
131.162 10670 103.296
131.279 10916 104.48
131.396 10651 103.204
131.513 10312 101.548
131.631 10072 100.359
131.748 9910 99.549
131.865 9246 96.1561
131.983 8920 94.4458
132.1 8891 94.2921
132.217 9297 96.421
132.335 9916 99.5791
132.452 10315 101.563
132.57 10225 101.119
132.687 9945 99.7246
132.804 10314 101.558
132.922 9876 99.3781
133.039 9532 97.632
133.157 9052 95.142
133.274 8532 92.3688
133.392 8380 91.5423
133.509 8091 89.95
133.627 7722 87.8749
133.744 7826 88.4647
133.862 8060 89.7775
133.979 8424 91.7824
134.097 8225 90.6918
134.214 8700 93.2738
134.332 8314 91.1811
134.449 8569 92.5689
134.567 8669 93.1075
134.684 8671 93.1182
134.802 8678 93.1558
134.919 8613 92.8062
135.037 8340 91.3236
135.154 8132 90.1776
135.272 7871 88.7187
135.389 7605 87.2067
135.507 7030 83.8451
135.624 6834 82.668
135.742 7173 84.6936
135.859 7345 85.703
135.977 7685 87.6641
136.094 7744 88
136.211 7645 87.4357
136.329 7531 86.7813
136.446 7560 86.9483
136.564 7371 85.8545
136.681 6967 83.4686
136.798 6730 82.0366
136.915 6615 81.3327
137.033 6219 78.8606
137.15 6091 78.0449
137.267 6103 78.1217
137.384 6141 78.3645
137.502 6428 80.1748
137.619 6657 81.5904
137.736 6869 82.8794
137.853 6788 82.3893
137.97 6829 82.6378
138.087 7183 84.7526
138.204 7190 84.7939
138.321 7386 85.9418
138.438 7510 86.6603
138.555 7558 86.9368
138.672 7727 87.9034
138.788 7574 87.0287
138.905 7515 86.6891
139.022 7433 86.2148
139.139 6970 83.4865
139.255 7121 84.386
139.372 7407 86.0639
139.488 8030 89.6103
139.605 8295 91.0769
139.721 8579 92.6229
139.838 8665 93.086
139.954 8655 93.0323
140.071 8526 92.3363
140.187 8819 93.9095
140.303 8364 91.4549
140.419 8043 89.6828
140.535 7819 88.4251
140.652 7647 87.4471
140.768 0 1
140.884 0 1
141 0 1
141.115 0 1
141.231 0 1
141.347 0 1
141.463 0 1
141.578 0 1
141.694 0 1
144.104 0 1
144.219 0 1
144.335 0 1
144.45 0 1
144.566 0 1
144.682 0 1
144.798 0 1
144.914 0 1
145.03 0 1
145.146 7323 85.5745
145.262 7439 86.2496
145.378 7215 84.9412
145.494 7042 83.9166
145.61 6696 81.8291
145.726 6473 80.455
145.842 6074 77.9359
145.959 6092 78.0513
146.075 6120 78.2304
146.192 6239 78.9873
146.308 6426 80.1623
146.425 6405 80.0312
146.541 6370 79.8123
146.658 6252 79.0696
146.774 6329 79.555
146.891 6333 79.5801
147.008 6533 80.827
147.125 6488 80.5481
147.241 6433 80.206
147.358 6391 79.9437
147.475 6183 78.6321
147.592 5925 76.974
147.709 5580 74.6994
147.826 5434 73.7157
147.943 5419 73.6139
148.06 5665 75.2662
148.177 5758 75.8815
148.294 5996 77.4338
148.411 6089 78.032
148.528 5948 77.1233
148.645 5875 76.6485
148.762 5841 76.4264
148.88 5638 75.0866
148.997 5792 76.1052
149.114 5041 71
149.231 5076 71.2461
149.349 4828 69.4838
149.466 4974 70.5266
149.583 4714 68.6586
149.701 4728 68.7605
149.818 4771 69.0724
149.935 4970 70.4982
150.053 5105 71.4493
150.17 5127 71.6031
150.287 5197 72.0902
150.405 5257 72.5052
150.522 5363 73.2325
150.64 5365 73.2462
150.757 5423 73.641
150.875 5425 73.6546
150.992 5351 73.1505
151.11 5475 73.9932
151.227 5318 72.9246
151.344 4993 70.6612
151.462 5105 71.4493
151.579 5069 71.1969
151.697 5329 73
151.814 5586 74.7395
151.932 5795 76.1249
152.049 5855 76.518
152.167 5936 77.0454
152.284 5833 76.3741
152.402 5989 77.3886
152.519 5675 75.3326
152.636 5522 74.3102
152.754 5594 74.793
152.871 5416 73.5935
152.989 5412 73.5663
153.106 5268 72.581
153.223 5132 71.638
153.341 5362 73.2257
153.458 5464 73.9189
153.575 5554 74.5252
153.693 5630 75.0333
153.81 5807 76.2037
153.927 5886 76.7203
154.044 6122 78.2432
154.162 6052 77.7946
154.279 6168 78.5366
154.396 6292 79.3221
154.513 6575 81.0864
154.63 6575 81.0864
154.747 6673 81.6884
154.864 6593 81.1973
154.981 6177 78.5939
155.098 6201 78.7464
155.215 6344 79.6492
155.332 6683 81.7496
155.449 6937 83.2887
155.566 7090 84.2021
155.683 7066 84.0595
155.8 7170 84.6759
155.917 7172 84.6877
156.033 7081 84.1487
156.15 0 1
156.267 0 1
156.383 0 1
156.5 0 1
156.617 0 1
156.733 0 1
156.85 0 1
156.966 0 1
157.082 0 1
157.199 0 1
157.315 0 1
157.431 0 1
157.547 0 1
157.664 0 1
157.78 0 1
157.896 0 1
158.012 0 1
158.128 0 1
158.244 0 1
158.359 0 1
158.475 0 1
158.591 0 1
158.706 0 1
