
6.15755 0 1
6.2731 0 1
6.3887 0 1
6.50437 0 1
6.62009 0 1
6.73587 0 1
6.8517 0 1
6.96759 0 1
7.08353 0 1
7.19952 0 1
7.31557 0 1
7.43166 0 1
7.54781 0 1
7.664 0 1
7.78024 0 1
7.89653 0 1
8.01286 0 1
8.12924 0 1
8.24567 0 1
8.36213 0 1
8.47864 0 1
8.59519 0 1
8.71178 0 1
8.82841 0 1
8.94508 0 1
9.06179 0 1
9.17853 0 1
9.29531 0 1
9.41212 0 1
9.52897 0 1
9.64584 0 1
9.76276 0 1
9.8797 0 1
9.99667 0 1
10.1137 0 1
10.2307 0 1
10.3478 0 1
10.4648 0 1
10.5819 0 1
10.6991 0 1
10.8162 0 1
10.9334 0 1
11.0506 0 1
11.1678 0 1
11.285 0 1
11.4023 0 1
11.5196 0 1
11.6369 0 1
11.7542 0 1
11.8715 0 1
11.9888 0 1
12.1062 0 1
12.2235 0 1
12.3409 0 1
12.4582 0 1
12.5756 0 1
12.693 0 1
12.8104 0 1
12.9278 0 1
13.0452 0 1
13.1626 0 1
13.28 0 1
13.3974 0 1
13.5149 0 1
13.6323 0 1
13.7497 0 1
13.8671 0 1
13.9845 0 1
14.1019 0 1
14.2193 0 1
14.3367 0 1
14.4541 0 1
14.5714 0 1
14.6888 0 1
14.8062 0 1
14.9235 0 1
15.0408 2788 52.8015
15.1581 2938 54.2033
15.2755 2957 54.3783
15.3927 3066 55.3715
15.51 3005 54.8179
15.6273 2884 53.7029
15.7445 2929 54.1202
15.8617 2749 52.4309
15.9789 2674 51.7107
16.0961 2671 51.6817
16.2132 2568 50.6754
16.3304 2590 50.892
16.4475 2561 50.6063
16.5646 2557 50.5668
16.6816 2422 49.2138
16.7986 2502 50.02
16.9156 2454 49.5379
17.0326 2436 49.3559
17.1496 2484 49.8397
17.2665 2433 49.3254
17.3833 2380 48.7852
17.5002 2385 48.8365
17.617 2464 49.6387
17.7338 2583 50.8232
17.8505 2483 49.8297
17.9672 2451 49.5076
18.0839 2323 48.1975
18.2005 2201 46.9148
18.3171 2264 47.5815
18.4337 2475 49.7494
18.5502 2463 49.6286
18.6666 2587 50.8626
18.7831 2414 49.1325
18.8994 2469 49.689
19.0158 2305 48.0104
19.1321 2258 47.5184
19.2483 2169 46.5725
19.3645 2095 45.7712
19.4806 1947 44.1248
19.5967 1943 44.0795
19.7128 1872 43.2666
19.8288 1780 42.19
19.9447 1573 39.6611
20.0606 0 1
20.1764 0 1
20.2922 0 1
20.4079 0 1
20.5236 0 1
20.6392 0 1
20.7548 0 1
20.8702 0 1
23.3078 0 1
23.4233 0 1
23.539 0 1
23.6547 0 1
23.7704 0 1
23.8862 0 1
24.0021 0 1
24.118 0 1
24.234 0 1
24.35 0 1
24.4661 1288 35.8887
24.5822 1541 39.2556
24.6984 2145 46.3141
24.8146 3078 55.4797
24.9309 3838 61.9516
25.0472 4304 65.6049
25.1636 4607 67.8749
25.28 4811 69.3614
25.3965 4981 70.5762
25.513 5012 70.7955
25.6296 5138 71.6798
25.7462 4926 70.1855
25.8628 4826 69.4694
25.9795 4696 68.5274
26.0962 4465 66.8207
26.213 4415 66.4455
26.3298 4361 66.0379
26.4466 4202 64.8228
26.5635 3866 62.1772
26.6804 2969 54.4885
26.7973 2261 47.55
26.9143 2167 46.551
27.0313 2607 51.0588
27.1483 3123 55.8838
27.2653 3241 56.9298
27.3824 3158 56.1961
27.4996 2943 54.2494
27.6167 2729 52.2398
27.7339 2565 50.6458
27.8511 2546 50.4579
27.9683 2392 48.9081
28.0855 2519 50.1896
28.2028 2496 49.96
28.3201 2618 51.1664
28.4374 2691 51.8748
28.5547 3006 54.827
28.6721 3291 57.3672
28.7894 3309 57.5239
28.9068 2940 54.2218
29.0242 2862 53.4977
29.1416 2513 50.1298
29.259 2453 49.5278
29.3764 2510 50.0999
29.4939 2306 48.0208
29.6113 2399 48.9796
29.7288 2342 48.3942
29.8463 2144 46.3033
29.9638 2264 47.5815
30.0812 2176 46.6476
30.1987 2054 45.3211
30.3162 1838 42.8719
30.4337 1990 44.6094
30.5512 2124 46.0869
30.6687 2268 47.6235
30.7862 2319 48.156
30.9037 2376 48.7442
31.0212 2431 49.3052
31.1387 2421 49.2037
31.2562 2348 48.4562
31.3737 2331 48.2804
31.4912 2385 48.8365
31.6087 2333 48.3011
31.7262 2401 49
31.8436 2234 47.2652
31.9611 2256 47.4974
32.0785 2224 47.1593
32.1959 2219 47.1063
32.3134 2284 47.7912
32.4308 2203 46.9361
32.5482 2159 46.465
32.6655 2113 45.9674
32.7829 2154 46.4112
32.9002 2029 45.0444
33.0176 2006 44.7884
33.1349 2054 45.3211
33.2522 2030 45.0555
33.3694 2095 45.7712
33.4867 2147 46.3357
33.6039 2165 46.5296
33.7211 2094 45.7602
33.8383 1995 44.6654
33.9554 1947 44.1248
34.0725 1839 42.8836
34.1896 2042 45.1885
34.3067 2209 47
34.4237 2160 46.4758
34.5407 2184 46.7333
34.6577 2238 47.3075
34.7746 2172 46.6047
34.8915 2156 46.4327
35.0084 2149 46.3573
35.1252 2059 45.3762
35.242 2017 44.911
35.3587 1944 44.0908
35.4755 2020 44.9444
35.5921 1986 44.5646
35.7088 2104 45.8694
35.8254 2009 44.8219
35.9419 2080 45.607
36.0584 2041 45.1774
36.1749 2031 45.0666
36.2913 1992 44.6318
36.4077 1881 43.3705
36.524 1813 42.5793
36.6403 1746 41.7852
36.7565 1634 40.4228
36.8727 1580 39.7492
36.9889 1530 39.1152
37.1049 1330 36.4692
37.221 0 1
37.3369 0 1
37.4529 0 1
37.5687 0 1
37.6845 0 1
37.8003 0 1
37.916 0 1
38.0316 0 1
38.1472 0 1
40.5851 0 1
40.7008 0 1
40.8164 0 1
40.9322 0 1
41.048 0 1
41.1639 0 1
41.2798 0 1
41.3958 0 1
41.5118 0 1
41.6279 0 1
41.744 940 30.6594
41.8602 1120 33.4664
41.9765 1164 34.1174
42.0928 1417 37.6431
42.2091 1325 36.4005
42.3255 1543 39.281
42.4419 1601 40.0125
42.5584 1580 39.7492
42.675 1542 39.2683
42.7915 1477 38.4318
42.9081 1523 39.0256
43.0248 1507 38.8201
43.1415 1633 40.4104
43.2582 1598 39.975
43.375 1641 40.5093
43.4918 1641 40.5093
43.6087 1639 40.4846
43.7256 1569 39.6106
43.8425 1538 39.2173
43.9595 1367 36.973
44.0765 1494 38.6523
44.1935 1472 38.3667
44.3106 1555 39.4335
44.4277 1538 39.2173
44.5448 1571 39.6358
44.6619 1584 39.7995
44.7791 1623 40.2865
44.8963 1646 40.5709
45.0136 1646 40.5709
45.1308 1685 41.0488
45.2481 1713 41.3884
45.3654 1676 40.939
45.4827 1701 41.2432
45.6001 1682 41.0122
45.7174 1681 41
45.8348 1688 41.0853
45.9522 1715 41.4126
46.0697 1672 40.8901
46.1871 1602 40.025
46.3046 1404 37.47
46.422 1482 38.4968
46.5395 1476 38.4187
46.657 1511 38.8716
46.7745 1578 39.724
46.892 1627 40.3361
47.0096 1619 40.2368
47.1271 1618 40.2244
47.2446 1608 40.0999
47.3622 1604 40.05
47.4797 1465 38.2753
47.5973 1428 37.7889
47.7149 1557 39.4588
47.8324 1565 39.5601
47.95 1549 39.3573
48.0675 1509 38.8458
48.1851 1605 40.0625
48.3027 1627 40.3361
48.4202 1462 38.2361
48.5378 1574 39.6737
48.6554 1595 39.9375
48.7729 1685 41.0488
48.8904 1619 40.2368
49.008 1696 41.1825
49.1255 1611 40.1373
49.243 1671 40.8779
49.3605 1642 40.5216
49.478 1587 39.8372
49.5955 1410 37.55
49.713 1397 37.3765
49.8304 1406 37.4967
49.9479 1415 37.6165
50.0653 1433 37.855
50.1827 1531 39.128
50.3001 1534 39.1663
50.4175 1548 39.3446
50.5348 1546 39.3192
50.6521 1516 38.9358
50.7694 1578 39.724
50.8867 1560 39.4968
51.004 1439 37.9342
51.1212 1497 38.6911
51.2384 1436 37.8946
51.3556 1526 39.064
51.4727 1492 38.6264
51.5899 1551 39.3827
51.707 1543 39.281
51.824 1580 39.7492
51.9411 1591 39.8873
52.0581 1594 39.9249
52.175 1542 39.2683
52.2919 1561 39.5095
52.4088 1609 40.1123
52.5257 1515 38.923
52.6425 1656 40.694
52.7593 1614 40.1746
52.876 1525 39.0512
52.9927 1562 39.5221
53.1094 1531 39.128
53.226 1531 39.128
53.3426 1387 37.2424
53.4591 1423 37.7227
53.5756 1395 37.3497
53.692 1349 36.7287
53.8084 1318 36.3043
53.9248 1352 36.7696
54.0411 1233 35.1141
54.1573 1099 33.1512
54.2735 0 1
54.3896 0 1
54.5057 0 1
54.6217 0 1
54.7377 0 1
54.8537 0 1
54.9695 0 1
55.0853 0 1
55.2011 0 1
55.3168 0 1
55.4324 0 1
57.824 0 1
57.9396 0 1
58.0553 0 1
58.1711 0 1
58.2869 0 1
58.4028 0 1
58.5187 0 1
58.6347 0 1
58.7508 0 1
58.8669 0 1
58.983 1946 44.1135
59.0992 2417 49.163
59.2155 2830 53.1977
59.3318 3222 56.7627
59.4482 3630 60.2495
59.5646 3961 62.9365
59.681 4178 64.6375
59.7975 4432 66.5733
59.9141 4536 67.3498
60.0306 4649 68.1836
60.1473 4922 70.157
60.2639 5181 71.9792
60.3807 5244 72.4155
60.4974 5332 73.0205
60.6142 5413 73.5731
60.731 5291 72.7393
60.8479 5306 72.8423
60.9648 5240 72.3878
61.0818 5087 71.3232
61.1987 4975 70.5337
61.3158 4907 70.05
61.4328 4742 68.8622
61.5499 4810 69.3542
61.667 4585 67.7126
61.7841 4435 66.5958
61.9013 4241 65.123
62.0185 4029 63.4744
62.1357 3976 63.0555
62.253 3889 62.3618
62.3702 3766 61.3677
62.4875 3584 59.8665
62.6049 3503 59.1861
62.7222 3255 57.0526
62.8396 3164 56.2494
62.9569 2987 54.6535
63.0743 2963 54.4334
63.1918 2836 53.2541
63.3092 2690 51.8652
63.4267 2565 50.6458
63.5441 2512 50.1199
63.6616 2563 50.6261
63.7791 2411 49.1019
63.8966 2331 48.2804
64.0142 2182 46.7119
64.1317 2094 45.7602
64.2492 2137 46.2277
64.3668 2155 46.422
64.4843 2080 45.607
64.6019 2164 46.5188
64.7195 2072 45.5192
64.837 2046 45.2327
64.9546 2071 45.5082
65.0722 2098 45.8039
65.1898 2041 45.1774
65.3074 2064 45.4313
65.4249 1973 44.4185
65.5425 2022 44.9667
65.6601 1948 44.1362
65.7777 2012 44.8553
65.8952 1901 43.6005
66.0128 2018 44.9222
66.1304 2095 45.7712
66.2479 2114 45.9783
66.3655 1973 44.4185
66.483 2054 45.3211
66.6005 1934 43.9773
66.718 1984 44.5421
66.8355 1942 44.0681
66.953 1921 43.8292
67.0705 1957 44.238
67.1879 1925 43.8748
67.3054 1867 43.2088
67.4228 1916 43.7721
67.5402 1963 44.3058
67.6576 2027 45.0222
67.7749 1990 44.6094
67.8923 1935 43.9886
68.0096 1991 44.6206
68.1269 1863 43.1625
68.2442 1956 44.2267
68.3614 1878 43.3359
68.4787 1881 43.3705
68.5958 1914 43.7493
68.713 2015 44.8888
68.8302 1920 43.8178
68.9473 1860 43.1277
69.0643 1890 43.4741
69.1814 1909 43.6921
69.2984 1877 43.3244
69.4154 1804 42.4735
69.5323 1895 43.5316
69.6492 1880 43.359
69.7661 1956 44.2267
69.8829 1982 44.5197
69.9997 1912 43.7264
70.1165 1804 42.4735
70.2332 1843 42.9302
70.3499 1774 42.1189
70.4665 1703 41.2674
70.5831 1711 41.3642
70.6996 1521 39
70.8161 1366 36.9594
70.9326 1252 35.3836
71.049 1112 33.3467
71.1653 1127 33.5708
71.2817 1038 32.218
71.3979 996 31.5595
71.5141 909 30.1496
71.6303 799 28.2666
71.7464 725 26.9258
71.8624 0 1
71.9784 0 1
72.0944 0 1
72.2102 0 1
72.3261 0 1
72.4418 0 1
72.5575 0 1
72.6732 0 1
75.1054 0 1
75.2209 0 1
75.3365 0 1
75.4521 0 1
75.5678 0 1
75.6835 0 1
75.7993 0 1
75.9151 0 1
76.031 0 1
76.147 1092 33.0454
76.263 1267 35.5949
76.3791 1414 37.6032
76.4952 1448 38.0526
76.6113 1588 39.8497
76.7276 1564 39.5474
76.8438 1609 40.1123
76.9601 1665 40.8044
77.0765 1531 39.128
77.1929 1570 39.6232
77.3093 1654 40.6694
77.4258 1614 40.1746
77.5423 1682 41.0122
77.6589 1666 40.8167
77.7755 1590 39.8748
77.8921 1659 40.7308
78.0088 1746 41.7852
78.1256 1677 40.9512
78.2423 1576 39.6989
78.3591 1462 38.2361
78.4759 1508 38.833
78.5928 1586 39.8246
78.7097 1647 40.5832
78.8266 1547 39.3319
78.9436 1657 40.7063
79.0606 1634 40.4228
79.1776 1656 40.694
79.2946 1575 39.6863
79.4117 1577 39.7115
79.5288 1666 40.8167
79.6459 1605 40.0625
79.7631 1595 39.9375
79.8802 1548 39.3446
79.9974 1644 40.5463
80.1147 1693 41.1461
80.2319 1599 39.9875
80.3491 1712 41.3763
80.4664 1553 39.4081
80.5837 1626 40.3237
80.701 1695 41.1704
80.8183 1645 40.5586
80.9357 1639 40.4846
81.053 1617 40.2119
81.1704 1679 40.9756
81.2877 1751 41.845
81.4051 1716 41.4246
81.5225 1691 41.1218
81.6399 1696 41.1825
81.7573 1682 41.0122
81.8747 1627 40.3361
81.9922 1571 39.6358
82.1096 1618 40.2244
82.227 1582 39.7744
82.3444 1602 40.025
82.4619 1677 40.9512
82.5793 1705 41.2916
82.6967 1666 40.8167
82.8142 1668 40.8412
82.9316 1723 41.509
83.049 1635 40.4351
83.1664 1683 41.0244
83.2838 1686 41.0609
83.4012 1824 42.7083
83.5186 1730 41.5933
83.636 1683 41.0244
83.7534 1762 41.9762
83.8708 1620 40.2492
83.9881 1696 41.1825
84.1055 1643 40.5339
84.2228 1741 41.7253
84.3401 1669 40.8534
84.4575 1695 41.1704
84.5747 1730 41.5933
84.692 1618 40.2244
84.8093 1640 40.4969
84.9265 1747 41.7971
85.0437 1751 41.845
85.1609 1653 40.6571
85.2781 1747 41.7971
85.3952 1688 41.0853
85.5123 1694 41.1582
85.6294 1748 41.8091
85.7465 1605 40.0625
85.8636 1626 40.3237
85.9806 1671 40.8779
86.0976 1715 41.4126
86.2145 1675 40.9268
86.3315 1727 41.5572
86.4484 1667 40.8289
86.5652 1776 42.1426
86.682 1724 41.5211
86.7988 1679 40.9756
86.9156 1627 40.3361
87.0323 1722 41.497
87.149 1698 41.2068
87.2657 1780 42.19
87.3823 1630 40.3733
87.4988 1584 39.7995
87.6154 1542 39.2683
87.7318 1575 39.6863
87.8483 1487 38.5616
87.9647 1392 37.3095
88.081 1414 37.6032
88.1973 1168 34.176
88.3136 1188 34.4674
88.4298 1099 33.1512
88.546 1076 32.8024
88.6621 1076 32.8024
88.7781 985 31.3847
88.8942 0 1
89.0101 0 1
89.126 0 1
89.2419 0 1
89.3577 0 1
89.4734 0 1
89.5891 0 1
89.7047 0 1
89.8203 0 1
89.9358 0 1
92.3269 0 1
92.4424 0 1
92.558 0 1
92.6736 0 1
92.7893 0 1
92.905 0 1
93.0208 0 1
93.1366 0 1
93.2525 0 1
93.3685 0 1
93.4845 0 1
93.6005 1337 36.565
93.7167 1464 38.2623
93.8328 1504 38.7814
93.949 1509 38.8458
94.0653 1674 40.9145
94.1816 1635 40.4351
94.2979 1774 42.1189
94.4143 1677 40.9512
94.5307 1720 41.4729
94.6472 1746 41.7852
94.7637 1751 41.845
94.8803 1724 41.5211
94.9969 1669 40.8534
95.1135 1696 41.1825
95.2302 1706 41.3038
95.3469 1753 41.8688
95.4637 1724 41.5211
95.5805 1795 42.3674
95.6973 1709 41.3401
95.8142 1756 41.9047
95.9311 1676 40.939
96.048 1726 41.5452
96.1649 1793 42.3438
96.2819 1761 41.9643
96.3989 1865 43.1856
96.516 1717 41.4367
96.633 1709 41.3401
96.7501 1638 40.4722
96.8673 1748 41.8091
96.9844 1737 41.6773
97.1016 1679 40.9756
97.2188 1747 41.7971
97.336 1693 41.1461
97.4532 1688 41.0853
97.5704 1826 42.7317
97.6877 1844 42.9418
97.805 1850 43.0116
97.9223 1931 43.9431
98.0396 1901 43.6005
98.1569 1843 42.9302
98.2743 1844 42.9418
98.3916 1766 42.0238
98.509 1812 42.5676
98.6264 1832 42.8019
98.7438 1765 42.0119
98.8612 1731 41.6053
98.9786 1751 41.845
99.096 1884 43.4051
99.2134 1919 43.8064
99.3308 1950 44.1588
99.4482 1925 43.8748
99.5656 1890 43.4741
99.6831 1965 44.3283
99.8005 1927 43.8976
99.9179 1936 44
100.035 1875 43.3013
100.153 1878 43.3359
100.27 1763 41.9881
100.388 1794 42.3556
100.505 1735 41.6533
100.622 1781 42.2019
100.74 1742 41.7373
100.857 1851 43.0232
100.975 1773 42.107
101.092 1913 43.7379
101.209 1822 42.6849
101.327 1980 44.4972
101.444 1924 43.8634
101.561 1925 43.8748
101.679 1975 44.441
101.796 1951 44.1701
101.913 1881 43.3705
102.03 1812 42.5676
102.148 1890 43.4741
102.265 1929 43.9204
102.382 1827 42.7434
102.499 1919 43.8064
102.616 1904 43.6348
102.733 1963 44.3058
102.851 2081 45.618
102.968 2064 45.4313
103.085 2094 45.7602
103.202 2052 45.299
103.319 2050 45.2769
103.436 2028 45.0333
103.552 2051 45.288
103.669 2028 45.0333
103.786 1903 43.6234
103.903 1880 43.359
104.02 1932 43.9545
104.137 1950 44.1588
104.253 1934 43.9773
104.37 1969 44.3734
104.487 2009 44.8219
104.603 1995 44.6654
104.72 1963 44.3058
104.836 2019 44.9333
104.953 1880 43.359
105.069 1953 44.1928
105.186 1858 43.1045
105.302 1753 41.8688
105.418 1619 40.2368
105.535 1481 38.4838
105.651 1382 37.1753
105.767 1235 35.1426
105.883 1156 34
105.999 1087 32.9697
106.115 0 1
106.231 0 1
106.347 0 1
106.463 0 1
106.579 0 1
106.694 0 1
106.81 0 1
106.926 0 1
107.041 0 1
107.157 0 1
109.576 0 1
109.692 0 1
109.807 0 1
109.923 0 1
110.039 0 1
110.155 0 1
110.27 0 1
110.386 0 1
110.502 0 1
110.618 1051 32.4191
110.735 1244 35.2704
110.851 1298 36.0278
110.967 1415 37.6165
111.083 1456 38.1576
111.199 1544 39.2938
111.316 1793 42.3438
111.432 1931 43.9431
111.549 1885 43.4166
111.665 1957 44.238
111.782 1860 43.1277
111.898 1943 44.0795
112.015 1913 43.7379
112.132 1950 44.1588
112.248 1972 44.4072
112.365 1942 44.0681
112.482 1930 43.9318
112.599 1676 40.939
112.716 1731 41.6053
112.832 1742 41.7373
112.949 1694 41.1582
113.066 1760 41.9524
113.183 1736 41.6653
113.3 1768 42.0476
113.417 1806 42.4971
113.534 1823 42.6966
113.652 1846 42.9651
113.769 1895 43.5316
113.886 1812 42.5676
114.003 1768 42.0476
114.12 1795 42.3674
114.238 1796 42.3792
114.355 1761 41.9643
114.472 1659 40.7308
114.589 1563 39.5348
114.707 1612 40.1497
114.824 1761 41.9643
114.942 1838 42.8719
115.059 1838 42.8719
115.176 1831 42.7902
115.294 1760 41.9524
115.411 1786 42.2611
115.529 1791 42.3202
115.646 1768 42.0476
115.764 1734 41.6413
115.881 1667 40.8289
115.999 1635 40.4351
116.116 1561 39.5095
116.234 1525 39.0512
116.351 1542 39.2683
116.469 1563 39.5348
116.586 1568 39.598
116.704 1628 40.3485
116.821 1549 39.3573
116.939 1634 40.4228
117.056 1614 40.1746
117.174 1654 40.6694
117.291 1668 40.8412
117.409 1659 40.7308
117.526 1747 41.7971
117.644 1588 39.8497
117.761 1642 40.5216
117.879 1583 39.7869
117.996 1509 38.8458
118.114 1404 37.47
118.231 1448 38.0526
118.349 1549 39.3573
118.466 1568 39.598
118.584 1610 40.1248
118.701 1547 39.3319
118.819 1593 39.9124
118.936 1593 39.9124
119.053 1670 40.8656
119.171 1575 39.6863
119.288 1585 39.8121
119.405 1549 39.3573
119.523 1468 38.3145
119.64 1454 38.1314
119.757 1435 37.8814
119.875 1398 37.3898
119.992 1414 37.6032
120.109 1380 37.1484
120.226 1494 38.6523
120.343 1543 39.281
120.46 1450 38.0789
120.578 1435 37.8814
120.695 1470 38.3406
120.812 1621 40.2616
120.929 1536 39.1918
121.046 1576 39.6989
121.163 1588 39.8497
121.279 1563 39.5348
121.396 1485 38.5357
121.513 1466 38.2884
121.63 1369 37
121.747 1399 37.4032
121.863 1300 36.0555
121.98 1247 35.3129
122.097 1369 37
122.213 1337 36.565
122.33 1274 35.6931
122.446 1265 35.5668
122.563 1223 34.9714
122.679 1069 32.6956
122.795 1072 32.7414
122.912 1049 32.3883
123.028 922 30.3645
123.144 839 28.9655
123.26 845 29.0689
123.377 0 1
123.493 0 1
123.609 0 1
123.725 0 1
123.84 0 1
123.956 0 1
124.072 0 1
124.188 0 1
124.303 0 1
124.419 0 1
126.852 0 1
126.968 0 1
127.083 0 1
127.199 0 1
127.315 0 1
127.431 0 1
127.547 0 1
127.663 0 1
127.779 0 1
127.895 0 1
128.011 0 1
128.127 0 1
128.243 0 1
128.359 1698 41.2068
128.476 1661 40.7554
128.592 1611 40.1373
128.708 1658 40.7185
128.825 1627 40.3361
128.941 1591 39.8873
129.058 1636 40.4475
129.174 1679 40.9756
129.291 1691 41.1218
129.408 1714 41.4005
129.524 1756 41.9047
129.641 1735 41.6533
129.758 1772 42.0951
129.875 1762 41.9762
129.992 1819 42.6497
130.108 1794 42.3556
130.225 1924 43.8634
130.342 1967 44.3509
130.459 1813 42.5793
130.576 1927 43.8976
130.693 1695 41.1704
130.81 1672 40.8901
130.928 1725 41.5331
131.045 1868 43.2204
131.162 1993 44.643
131.279 2128 46.1303
131.396 2368 48.6621
131.513 2296 47.9166
131.631 2387 48.8569
131.748 2405 49.0408
131.865 2471 49.7092
131.983 2636 51.342
132.1 2601 51
132.217 2723 52.1824
132.335 2518 50.1797
132.452 2783 52.7541
132.57 2777 52.6972
132.687 2871 53.5817
132.804 3134 55.9821
132.922 3243 56.9473
133.039 3403 58.3352
133.157 3377 58.112
133.274 3481 59
133.392 3609 60.075
133.509 3624 60.1997
133.627 3777 61.4573
133.744 3786 61.5305
133.862 3693 60.7701
133.979 3777 61.4573
134.097 3783 61.5061
134.214 3541 59.5063
134.332 3256 57.0614
134.449 3376 58.1034
134.567 3413 58.4209
134.684 3544 59.5315
134.802 3635 60.291
134.919 3818 61.79
135.037 3831 61.8951
135.154 3884 62.3217
135.272 4024 63.435
135.389 4166 64.5446
135.507 4022 63.4192
135.624 4009 63.3167
135.742 4046 63.6082
135.859 3991 63.1744
135.977 3995 63.206
136.094 4017 63.3798
136.211 4084 63.9062
136.329 4147 64.3972
136.446 4259 65.261
136.564 4318 65.7115
136.681 4369 66.0984
136.798 4307 65.6277
136.915 4365 66.0681
137.033 4374 66.1362
137.15 4316 65.6963
137.267 4431 66.5658
137.384 4428 66.5432
137.502 4395 66.2948
137.619 4360 66.0303
137.736 4204 64.8383
137.853 3888 62.3538
137.97 3684 60.696
138.087 3473 58.9322
138.204 3567 59.7244
138.321 3789 61.5549
138.438 3991 63.1744
138.555 4065 63.7574
138.672 4321 65.7343
138.788 4330 65.8027
138.905 4258 65.2534
139.022 4282 65.437
139.139 4239 65.1076
139.255 3864 62.1611
139.372 3399 58.3009
139.488 3127 55.9196
139.605 2939 54.2125
139.721 2751 52.45
139.838 2809 53
139.954 2756 52.4976
140.071 2642 51.4004
140.187 2571 50.705
140.303 2419 49.1833
140.419 2289 47.8435
140.535 2223 47.1487
140.652 2235 47.2758
140.768 0 1
140.884 0 1
141 0 1
141.115 0 1
141.231 0 1
141.347 0 1
141.463 0 1
141.578 0 1
141.694 0 1
144.104 0 1
144.219 0 1
144.335 0 1
144.45 0 1
144.566 0 1
144.682 0 1
144.798 0 1
144.914 0 1
145.03 0 1
145.146 3284 57.3062
145.262 3368 58.0345
145.378 3464 58.8558
145.494 3457 58.7963
145.61 3558 59.649
145.726 3659 60.4897
145.842 3669 60.5723
145.959 3718 60.9754
146.075 3774 61.4329
146.192 3717 60.9672
146.308 3765 61.3596
146.425 3747 61.2127
146.541 3570 59.7495
146.658 3351 57.8878
146.774 3251 57.0175
146.891 3246 56.9737
147.008 3345 57.836
147.125 3315 57.576
147.241 3506 59.2115
147.358 3573 59.7746
147.475 3737 61.131
147.592 3659 60.4897
147.709 3772 61.4166
147.826 3631 60.2578
147.943 3712 60.9262
148.06 3573 59.7746
148.177 3493 59.1016
148.294 3388 58.2065
148.411 3335 57.7495
148.528 3366 58.0172
148.645 3307 57.5065
148.762 3442 58.6686
148.88 3459 58.8133
148.997 3574 59.7829
149.114 3455 58.7792
149.231 3508 59.2284
149.349 3601 60.0083
149.466 3470 58.9067
149.583 3491 59.0847
149.701 3614 60.1166
149.818 3589 59.9083
149.935 3621 60.1747
150.053 3694 60.7783
150.17 3499 59.1523
150.287 3457 58.7963
150.405 3306 57.4978
150.522 3170 56.3028
150.64 3112 55.7853
150.757 3123 55.8838
150.875 3298 57.4282
150.992 3296 57.4108
151.11 3326 57.6715
151.227 3289 57.3498
151.344 3371 58.0603
151.462 3479 58.983
151.579 3453 58.7622
151.697 3330 57.7062
151.814 3397 58.2838
151.932 3335 57.7495
152.049 3461 58.8303
152.167 3401 58.3181
152.284 3408 58.3781
152.402 3480 58.9915
152.519 3484 59.0254
152.636 3600 60
152.754 3557 59.6406
152.871 3519 59.3212
152.989 3515 59.2874
153.106 3599 59.9917
153.223 3461 58.8303
153.341 3563 59.6909
153.458 3481 59
153.575 3431 58.5747
153.693 3443 58.6771
153.81 3312 57.55
153.927 3216 56.7098
154.044 2994 54.7175
154.162 2965 54.4518
154.279 2978 54.5711
154.396 3169 56.2939
154.513 3085 55.5428
154.63 3222 56.7627
154.747 3101 55.6866
154.864 3110 55.7674
154.981 3141 56.0446
155.098 3104 55.7136
155.215 3103 55.7046
155.332 3063 55.3444
155.449 2874 53.6097
155.566 3045 55.1815
155.683 3081 55.5068
155.8 3179 56.3826
155.917 3082 55.5158
156.033 3085 55.5428
156.15 0 1
156.267 0 1
156.383 0 1
156.5 0 1
156.617 0 1
156.733 0 1
156.85 0 1
156.966 0 1
157.082 0 1
157.199 0 1
157.315 0 1
157.431 0 1
157.547 0 1
157.664 0 1
157.78 0 1
157.896 0 1
158.012 0 1
158.128 0 1
158.244 0 1
158.359 0 1
158.475 0 1
158.591 0 1
158.706 0 1
