
6.15755 0 1
6.2731 0 1
6.3887 0 1
6.50437 0 1
6.62009 0 1
6.73587 0 1
6.8517 0 1
6.96759 0 1
7.08353 0 1
7.19952 0 1
7.31557 0 1
7.43166 0 1
7.54781 0 1
7.664 0 1
7.78024 0 1
7.89653 0 1
8.01286 0 1
8.12924 0 1
8.24567 0 1
8.36213 0 1
8.47864 0 1
8.59519 0 1
8.71178 0 1
8.82841 0 1
8.94508 0 1
9.06179 0 1
9.17853 0 1
9.29531 0 1
9.41212 0 1
9.52897 0 1
9.64584 0 1
9.76276 0 1
9.8797 0 1
9.99667 0 1
10.1137 0 1
10.2307 0 1
10.3478 0 1
10.4648 0 1
10.5819 0 1
10.6991 0 1
10.8162 0 1
10.9334 0 1
11.0506 0 1
11.1678 0 1
11.285 0 1
11.4023 0 1
11.5196 0 1
11.6369 0 1
11.7542 0 1
11.8715 0 1
11.9888 0 1
12.1062 0 1
12.2235 0 1
12.3409 0 1
12.4582 0 1
12.5756 0 1
12.693 0 1
12.8104 0 1
12.9278 0 1
13.0452 0 1
13.1626 0 1
13.28 0 1
13.3974 0 1
13.5149 0 1
13.6323 0 1
13.7497 0 1
13.8671 0 1
13.9845 0 1
14.1019 0 1
14.2193 0 1
14.3367 0 1
14.4541 0 1
14.5714 0 1
14.6888 0 1
14.8062 0 1
14.9235 0 1
15.0408 989 31.4484
15.1581 929 30.4795
15.2755 981 31.3209
15.3927 941 30.6757
15.51 890 29.8329
15.6273 903 30.05
15.7445 858 29.2916
15.8617 814 28.5307
15.9789 834 28.8791
16.0961 869 29.4788
16.2132 771 27.7669
16.3304 830 28.8097
16.4475 819 28.6182
16.5646 784 28
16.6816 740 27.2029
16.7986 813 28.5132
16.9156 790 28.1069
17.0326 741 27.2213
17.1496 788 28.0713
17.2665 757 27.5136
17.3833 723 26.8887
17.5002 743 27.258
17.617 794 28.178
17.7338 834 28.8791
17.8505 729 27
17.9672 765 27.6586
18.0839 739 27.1846
18.2005 688 26.2298
18.3171 697 26.4008
18.4337 705 26.5518
18.5502 723 26.8887
18.6666 777 27.8747
18.7831 732 27.0555
18.8994 752 27.4226
19.0158 688 26.2298
19.1321 713 26.7021
19.2483 706 26.5707
19.3645 656 25.6125
19.4806 608 24.6577
19.5967 541 23.2594
19.7128 544 23.3238
19.8288 539 23.2164
19.9447 513 22.6495
20.0606 0 1
20.1764 0 1
20.2922 0 1
20.4079 0 1
20.5236 0 1
20.6392 0 1
20.7548 0 1
20.8702 0 1
23.3078 0 1
23.4233 0 1
23.539 0 1
23.6547 0 1
23.7704 0 1
23.8862 0 1
24.0021 0 1
24.118 0 1
24.234 0 1
24.35 0 1
24.4661 289 17
24.5822 353 18.7883
24.6984 416 20.3961
24.8146 479 21.8861
24.9309 598 24.454
25.0472 617 24.8395
25.1636 660 25.6905
25.28 724 26.9072
25.3965 823 28.688
25.513 774 27.8209
25.6296 863 29.3769
25.7462 841 29
25.8628 811 28.4781
25.9795 815 28.5482
26.0962 841 29
26.213 830 28.8097
26.3298 775 27.8388
26.4466 803 28.3373
26.5635 745 27.2947
26.6804 774 27.8209
26.7973 715 26.7395
26.9143 640 25.2982
27.0313 687 26.2107
27.1483 718 26.7955
27.2653 802 28.3196
27.3824 835 28.8964
27.4996 764 27.6405
27.6167 758 27.5318
27.7339 717 26.7769
27.8511 707 26.5895
27.9683 667 25.8263
28.0855 695 26.3629
28.2028 718 26.7955
28.3201 745 27.2947
28.4374 722 26.8701
28.5547 720 26.8328
28.6721 772 27.7849
28.7894 737 27.1477
28.9068 715 26.7395
29.0242 736 27.1293
29.1416 762 27.6043
29.259 755 27.4773
29.3764 702 26.4953
29.4939 759 27.55
29.6113 716 26.7582
29.7288 726 26.9444
29.8463 694 26.3439
29.9638 719 26.8142
30.0812 640 25.2982
30.1987 596 24.4131
30.3162 604 24.5764
30.4337 620 24.8998
30.5512 667 25.8263
30.6687 700 26.4575
30.7862 760 27.5681
30.9037 741 27.2213
31.0212 705 26.5518
31.1387 739 27.1846
31.2562 653 25.5539
31.3737 688 26.2298
31.4912 674 25.9615
31.6087 716 26.7582
31.7262 688 26.2298
31.8436 678 26.0384
31.9611 695 26.3629
32.0785 695 26.3629
32.1959 666 25.807
32.3134 655 25.593
32.4308 650 25.4951
32.5482 656 25.6125
32.6655 665 25.7876
32.7829 632 25.1396
32.9002 627 25.04
33.0176 611 24.7184
33.1349 580 24.0832
33.2522 625 25
33.3694 600 24.4949
33.4867 620 24.8998
33.6039 623 24.96
33.7211 662 25.7294
33.8383 574 23.9583
33.9554 544 23.3238
34.0725 594 24.3721
34.1896 603 24.5561
34.3067 671 25.9037
34.4237 634 25.1794
34.5407 668 25.8457
34.6577 634 25.1794
34.7746 629 25.0799
34.8915 598 24.454
35.0084 594 24.3721
35.1252 600 24.4949
35.242 605 24.5967
35.3587 572 23.9165
35.4755 587 24.2281
35.5921 595 24.3926
35.7088 600 24.4949
35.8254 641 25.318
35.9419 560 23.6643
36.0584 605 24.5967
36.1749 584 24.1661
36.2913 606 24.6171
36.4077 534 23.1084
36.524 528 22.9783
36.6403 534 23.1084
36.7565 476 21.8174
36.8727 489 22.1133
36.9889 420 20.4939
37.1049 431 20.7605
37.221 0 1
37.3369 0 1
37.4529 0 1
37.5687 0 1
37.6845 0 1
37.8003 0 1
37.916 0 1
38.0316 0 1
38.1472 0 1
40.5851 0 1
40.7008 0 1
40.8164 0 1
40.9322 0 1
41.048 0 1
41.1639 0 1
41.2798 0 1
41.3958 0 1
41.5118 0 1
41.6279 0 1
41.744 283 16.8226
41.8602 304 17.4356
41.9765 359 18.9473
42.0928 412 20.2978
42.2091 436 20.8806
42.3255 435 20.8567
42.4419 449 21.1896
42.5584 474 21.7715
42.675 450 21.2132
42.7915 436 20.8806
42.9081 438 20.9284
43.0248 471 21.7025
43.1415 499 22.3383
43.2582 530 23.0217
43.375 481 21.9317
43.4918 541 23.2594
43.6087 475 21.7945
43.7256 487 22.0681
43.8425 458 21.4009
43.9595 471 21.7025
44.0765 400 20
44.1935 467 21.6102
44.3106 457 21.3776
44.4277 423 20.567
44.5448 493 22.2036
44.6619 533 23.0868
44.7791 530 23.0217
44.8963 492 22.1811
45.0136 493 22.2036
45.1308 528 22.9783
45.2481 516 22.7156
45.3654 466 21.587
45.4827 525 22.9129
45.6001 526 22.9347
45.7174 562 23.7065
45.8348 518 22.7596
45.9522 506 22.4944
46.0697 477 21.8403
46.1871 468 21.6333
46.3046 465 21.5639
46.422 477 21.8403
46.5395 458 21.4009
46.657 513 22.6495
46.7745 461 21.4709
46.892 445 21.095
47.0096 464 21.5407
47.1271 506 22.4944
47.2446 482 21.9545
47.3622 474 21.7715
47.4797 462 21.4942
47.5973 474 21.7715
47.7149 408 20.199
47.8324 442 21.0238
47.95 473 21.7486
48.0675 458 21.4009
48.1851 493 22.2036
48.3027 492 22.1811
48.4202 500 22.3607
48.5378 502 22.4054
48.6554 507 22.5167
48.7729 485 22.0227
48.8904 510 22.5832
49.008 504 22.4499
49.1255 512 22.6274
49.243 475 21.7945
49.3605 515 22.6936
49.478 456 21.3542
49.5955 450 21.2132
49.713 423 20.567
49.8304 410 20.2485
49.9479 452 21.2603
50.0653 475 21.7945
50.1827 479 21.8861
50.3001 489 22.1133
50.4175 474 21.7715
50.5348 456 21.3542
50.6521 443 21.0476
50.7694 442 21.0238
50.8867 450 21.2132
51.004 428 20.6882
51.1212 460 21.4476
51.2384 468 21.6333
51.3556 449 21.1896
51.4727 451 21.2368
51.5899 489 22.1133
51.707 523 22.8692
51.824 524 22.891
51.9411 544 23.3238
52.0581 506 22.4944
52.175 535 23.1301
52.2919 492 22.1811
52.4088 551 23.4734
52.5257 572 23.9165
52.6425 552 23.4947
52.7593 583 24.1454
52.876 655 25.593
52.9927 657 25.632
53.1094 703 26.5141
53.226 709 26.6271
53.3426 659 25.671
53.4591 676 26
53.5756 729 27
53.692 875 29.5804
53.8084 1137 33.7194
53.9248 1424 37.7359
54.0411 1717 41.4367
54.1573 2013 44.8665
54.2735 0 1
54.3896 0 1
54.5057 0 1
54.6217 0 1
54.7377 0 1
54.8537 0 1
54.9695 0 1
55.0853 0 1
55.2011 0 1
55.3168 0 1
55.4324 0 1
57.824 0 1
57.9396 0 1
58.0553 0 1
58.1711 0 1
58.2869 0 1
58.4028 0 1
58.5187 0 1
58.6347 0 1
58.7508 0 1
58.8669 0 1
58.983 56202 237.07
59.0992 68424 261.58
59.2155 75224 274.27
59.3318 78960 280.998
59.4482 83040 288.167
59.5646 86584 294.252
59.681 88650 297.741
59.7975 88152 296.904
59.9141 85087 291.697
60.0306 79806 282.5
60.1473 73079 270.331
60.2639 65765 256.447
60.3807 60537 246.043
60.4974 55945 236.527
60.6142 50942 225.703
60.731 47051 216.912
60.8479 42024 204.998
60.9648 37735 194.255
61.0818 33414 182.795
61.1987 29560 171.93
61.3158 25962 161.127
61.4328 23231 152.417
61.5499 20020 141.492
61.667 16678 129.143
61.7841 12835 113.292
61.9013 9811 99.0505
62.0185 6992 83.6182
62.1357 5115 71.5192
62.253 4086 63.9218
62.3702 3354 57.9137
62.4875 2996 54.7357
62.6049 2540 50.3984
62.7222 2185 46.744
62.8396 1879 43.3474
62.9569 1438 37.921
63.0743 1187 34.4529
63.1918 997 31.5753
63.3092 848 29.1204
63.4267 741 27.2213
63.5441 660 25.6905
63.6616 675 25.9808
63.7791 579 24.0624
63.8966 580 24.0832
64.0142 540 23.2379
64.1317 583 24.1454
64.2492 522 22.8473
64.3668 573 23.9374
64.4843 563 23.7276
64.6019 540 23.2379
64.7195 538 23.1948
64.837 559 23.6432
64.9546 562 23.7065
65.0722 587 24.2281
65.1898 523 22.8692
65.3074 541 23.2594
65.4249 503 22.4277
65.5425 568 23.8328
65.6601 505 22.4722
65.7777 525 22.9129
65.8952 551 23.4734
66.0128 499 22.3383
66.1304 548 23.4094
66.2479 544 23.3238
66.3655 522 22.8473
66.483 520 22.8035
66.6005 500 22.3607
66.718 489 22.1133
66.8355 520 22.8035
66.953 534 23.1084
67.0705 470 21.6795
67.1879 524 22.891
67.3054 511 22.6053
67.4228 489 22.1133
67.5402 484 22
67.6576 551 23.4734
67.7749 522 22.8473
67.8923 526 22.9347
68.0096 504 22.4499
68.1269 481 21.9317
68.2442 516 22.7156
68.3614 484 22
68.4787 479 21.8861
68.5958 490 22.1359
68.713 516 22.7156
68.8302 511 22.6053
68.9473 496 22.2711
69.0643 503 22.4277
69.1814 527 22.9565
69.2984 521 22.8254
69.4154 510 22.5832
69.5323 486 22.0454
69.6492 502 22.4054
69.7661 497 22.2935
69.8829 506 22.4944
69.9997 507 22.5167
70.1165 509 22.561
70.2332 497 22.2935
70.3499 510 22.5832
70.4665 447 21.1424
70.5831 464 21.5407
70.6996 408 20.199
70.8161 400 20
70.9326 369 19.2094
71.049 326 18.0555
71.1653 314 17.72
71.2817 276 16.6132
71.3979 261 16.1555
71.5141 218 14.7648
71.6303 235 15.3297
71.7464 177 13.3041
71.8624 0 1
71.9784 0 1
72.0944 0 1
72.2102 0 1
72.3261 0 1
72.4418 0 1
72.5575 0 1
72.6732 0 1
75.1054 0 1
75.2209 0 1
75.3365 0 1
75.4521 0 1
75.5678 0 1
75.6835 0 1
75.7993 0 1
75.9151 0 1
76.031 0 1
76.147 290 17.0294
76.263 344 18.5472
76.3791 374 19.3391
76.4952 409 20.2237
76.6113 426 20.6398
76.7276 404 20.0998
76.8438 442 21.0238
76.9601 422 20.5426
77.0765 462 21.4942
77.1929 478 21.8632
77.3093 447 21.1424
77.4258 401 20.025
77.5423 403 20.0749
77.6589 458 21.4009
77.7755 439 20.9523
77.8921 469 21.6564
78.0088 460 21.4476
78.1256 442 21.0238
78.2423 439 20.9523
78.3591 424 20.5913
78.4759 422 20.5426
78.5928 433 20.8087
78.7097 447 21.1424
78.8266 487 22.0681
78.9436 420 20.4939
79.0606 409 20.2237
79.1776 398 19.9499
79.2946 449 21.1896
79.4117 414 20.347
79.5288 424 20.5913
79.6459 432 20.7846
79.7631 434 20.8327
79.8802 431 20.7605
79.9974 469 21.6564
80.1147 389 19.7231
80.2319 429 20.7123
80.3491 419 20.4695
80.4664 401 20.025
80.5837 455 21.3307
80.701 440 20.9762
80.8183 446 21.1187
80.9357 395 19.8746
81.053 452 21.2603
81.1704 447 21.1424
81.2877 481 21.9317
81.4051 452 21.2603
81.5225 452 21.2603
81.6399 457 21.3776
81.7573 440 20.9762
81.8747 446 21.1187
81.9922 436 20.8806
82.1096 420 20.4939
82.227 442 21.0238
82.3444 440 20.9762
82.4619 426 20.6398
82.5793 440 20.9762
82.6967 426 20.6398
82.8142 432 20.7846
82.9316 453 21.2838
83.049 447 21.1424
83.1664 427 20.664
83.2838 470 21.6795
83.4012 415 20.3715
83.5186 432 20.7846
83.636 453 21.2838
83.7534 454 21.3073
83.8708 409 20.2237
83.9881 438 20.9284
84.1055 429 20.7123
84.2228 400 20
84.3401 434 20.8327
84.4575 435 20.8567
84.5747 438 20.9284
84.692 440 20.9762
84.8093 430 20.7364
84.9265 449 21.1896
85.0437 485 22.0227
85.1609 475 21.7945
85.2781 501 22.383
85.3952 473 21.7486
85.5123 466 21.587
85.6294 437 20.9045
85.7465 428 20.6882
85.8636 449 21.1896
85.9806 463 21.5174
86.0976 431 20.7605
86.2145 406 20.1494
86.3315 490 22.1359
86.4484 435 20.8567
86.5652 470 21.6795
86.682 454 21.3073
86.7988 423 20.567
86.9156 443 21.0476
87.0323 468 21.6333
87.149 450 21.2132
87.2657 449 21.1896
87.3823 422 20.5426
87.4988 399 19.975
87.6154 368 19.1833
87.7318 407 20.1742
87.8483 396 19.8997
87.9647 373 19.3132
88.081 353 18.7883
88.1973 325 18.0278
88.3136 293 17.1172
88.4298 289 17
88.546 311 17.6352
88.6621 276 16.6132
88.7781 281 16.7631
88.8942 0 1
89.0101 0 1
89.126 0 1
89.2419 0 1
89.3577 0 1
89.4734 0 1
89.5891 0 1
89.7047 0 1
89.8203 0 1
89.9358 0 1
92.3269 0 1
92.4424 0 1
92.558 0 1
92.6736 0 1
92.7893 0 1
92.905 0 1
93.0208 0 1
93.1366 0 1
93.2525 0 1
93.3685 0 1
93.4845 0 1
93.6005 338 18.3848
93.7167 393 19.8242
93.8328 373 19.3132
93.949 392 19.799
94.0653 475 21.7945
94.1816 431 20.7605
94.2979 455 21.3307
94.4143 481 21.9317
94.5307 462 21.4942
94.6472 474 21.7715
94.7637 457 21.3776
94.8803 473 21.7486
94.9969 429 20.7123
95.1135 436 20.8806
95.2302 435 20.8567
95.3469 419 20.4695
95.4637 422 20.5426
95.5805 419 20.4695
95.6973 465 21.5639
95.8142 430 20.7364
95.9311 460 21.4476
96.048 433 20.8087
96.1649 487 22.0681
96.2819 438 20.9284
96.3989 502 22.4054
96.516 450 21.2132
96.633 469 21.6564
96.7501 437 20.9045
96.8673 387 19.6723
96.9844 426 20.6398
97.1016 407 20.1742
97.2188 398 19.9499
97.336 463 21.5174
97.4532 464 21.5407
97.5704 472 21.7256
97.6877 481 21.9317
97.805 470 21.6795
97.9223 467 21.6102
98.0396 470 21.6795
98.1569 513 22.6495
98.2743 500 22.3607
98.3916 449 21.1896
98.509 481 21.9317
98.6264 464 21.5407
98.7438 413 20.3224
98.8612 483 21.9773
98.9786 478 21.8632
99.096 488 22.0907
99.2134 491 22.1585
99.3308 521 22.8254
99.4482 520 22.8035
99.5656 530 23.0217
99.6831 507 22.5167
99.8005 490 22.1359
99.9179 448 21.166
100.035 471 21.7025
100.153 479 21.8861
100.27 453 21.2838
100.388 479 21.8861
100.505 452 21.2603
100.622 441 21
100.74 456 21.3542
100.857 434 20.8327
100.975 454 21.3073
101.092 488 22.0907
101.209 520 22.8035
101.327 529 23
101.444 532 23.0651
101.561 539 23.2164
101.679 559 23.6432
101.796 508 22.5389
101.913 530 23.0217
102.03 524 22.891
102.148 523 22.8692
102.265 523 22.8692
102.382 469 21.6564
102.499 511 22.6053
102.616 550 23.4521
102.733 642 25.3377
102.851 614 24.779
102.968 646 25.4165
103.085 691 26.2869
103.202 811 28.4781
103.319 845 29.0689
103.436 1014 31.8434
103.552 1001 31.6386
103.669 1058 32.5269
103.786 1062 32.5883
103.903 1132 33.6452
104.02 1179 34.3366
104.137 1169 34.1906
104.253 1154 33.9706
104.37 1145 33.8378
104.487 1098 33.1361
104.603 1157 34.0147
104.72 1181 34.3657
104.836 1173 34.2491
104.953 1081 32.8786
105.069 1128 33.5857
105.186 980 31.305
105.302 900 30
105.418 806 28.3901
105.535 632 25.1396
105.651 560 23.6643
105.767 525 22.9129
105.883 408 20.199
105.999 408 20.199
106.115 0 1
106.231 0 1
106.347 0 1
106.463 0 1
106.579 0 1
106.694 0 1
106.81 0 1
106.926 0 1
107.041 0 1
107.157 0 1
109.576 0 1
109.692 0 1
109.807 0 1
109.923 0 1
110.039 0 1
110.155 0 1
110.27 0 1
110.386 0 1
110.502 0 1
110.618 341 18.4662
110.735 386 19.6469
110.851 427 20.664
110.967 483 21.9773
111.083 488 22.0907
111.199 567 23.8118
111.316 610 24.6982
111.432 664 25.7682
111.549 684 26.1534
111.665 700 26.4575
111.782 783 27.9821
111.898 821 28.6531
112.015 902 30.0333
112.132 861 29.3428
112.248 863 29.3769
112.365 810 28.4605
112.482 816 28.5657
112.599 789 28.0891
112.716 825 28.7228
112.832 843 29.0345
112.949 776 27.8568
113.066 830 28.8097
113.183 790 28.1069
113.3 768 27.7128
113.417 779 27.9106
113.534 736 27.1293
113.652 702 26.4953
113.769 699 26.4386
113.886 651 25.5147
114.003 608 24.6577
114.12 553 23.516
114.238 549 23.4307
114.355 468 21.6333
114.472 487 22.0681
114.589 441 21
114.707 455 21.3307
114.824 525 22.9129
114.942 492 22.1811
115.059 499 22.3383
115.176 527 22.9565
115.294 493 22.2036
115.411 549 23.4307
115.529 551 23.4734
115.646 468 21.6333
115.764 482 21.9545
115.881 423 20.567
115.999 439 20.9523
116.116 402 20.0499
116.234 379 19.4679
116.351 388 19.6977
116.469 391 19.7737
116.586 378 19.4422
116.704 397 19.9249
116.821 398 19.9499
116.939 419 20.4695
117.056 409 20.2237
117.174 445 21.095
117.291 467 21.6102
117.409 437 20.9045
117.526 426 20.6398
117.644 441 21
117.761 415 20.3715
117.879 416 20.3961
117.996 363 19.0526
118.114 385 19.6214
118.231 379 19.4679
118.349 425 20.6155
118.466 424 20.5913
118.584 458 21.4009
118.701 430 20.7364
118.819 431 20.7605
118.936 405 20.1246
119.053 381 19.5192
119.171 459 21.4243
119.288 420 20.4939
119.405 380 19.4936
119.523 360 18.9737
119.64 380 19.4936
119.757 351 18.735
119.875 389 19.7231
119.992 378 19.4422
120.109 388 19.6977
120.226 385 19.6214
120.343 408 20.199
120.46 377 19.4165
120.578 354 18.8149
120.695 392 19.799
120.812 426 20.6398
120.929 365 19.105
121.046 385 19.6214
121.163 409 20.2237
121.279 376 19.3907
121.396 402 20.0499
121.513 376 19.3907
121.63 347 18.6279
121.747 327 18.0831
121.863 319 17.8606
121.98 321 17.9165
122.097 341 18.4662
122.213 334 18.2757
122.33 336 18.3303
122.446 284 16.8523
122.563 330 18.1659
122.679 287 16.9411
122.795 260 16.1245
122.912 252 15.8745
123.028 217 14.7309
123.144 224 14.9666
123.26 199 14.1067
123.377 0 1
123.493 0 1
123.609 0 1
123.725 0 1
123.84 0 1
123.956 0 1
124.072 0 1
124.188 0 1
124.303 0 1
124.419 0 1
126.852 0 1
126.968 0 1
127.083 0 1
127.199 0 1
127.315 0 1
127.431 0 1
127.547 0 1
127.663 0 1
127.779 0 1
127.895 0 1
128.011 0 1
128.127 0 1
128.243 0 1
128.359 385 19.6214
128.476 401 20.025
128.592 404 20.0998
128.708 402 20.0499
128.825 365 19.105
128.941 405 20.1246
129.058 444 21.0713
129.174 436 20.8806
129.291 429 20.7123
129.408 452 21.2603
129.524 456 21.3542
129.641 444 21.0713
129.758 486 22.0454
129.875 480 21.9089
129.992 506 22.4944
130.108 486 22.0454
130.225 508 22.5389
130.342 490 22.1359
130.459 500 22.3607
130.576 520 22.8035
130.693 488 22.0907
130.81 473 21.7486
130.928 490 22.1359
131.045 518 22.7596
131.162 580 24.0832
131.279 581 24.1039
131.396 619 24.8797
131.513 682 26.1151
131.631 688 26.2298
131.748 726 26.9444
131.865 698 26.4197
131.983 730 27.0185
132.1 775 27.8388
132.217 689 26.2488
132.335 742 27.2397
132.452 776 27.8568
132.57 782 27.9643
132.687 869 29.4788
132.804 890 29.8329
132.922 896 29.9333
133.039 922 30.3645
133.157 928 30.4631
133.274 896 29.9333
133.392 958 30.9516
133.509 900 30
133.627 1000 31.6228
133.744 1003 31.6702
133.862 1037 32.2025
133.979 979 31.289
134.097 977 31.257
134.214 929 30.4795
134.332 847 29.1033
134.449 816 28.5657
134.567 902 30.0333
134.684 911 30.1828
134.802 983 31.3528
134.919 966 31.0805
135.037 1046 32.3419
135.154 967 31.0966
135.272 1041 32.2645
135.389 1020 31.9374
135.507 1058 32.5269
135.624 1016 31.8748
135.742 978 31.273
135.859 982 31.3369
135.977 976 31.241
136.094 1077 32.8177
136.211 1030 32.0936
136.329 1110 33.3167
136.446 1119 33.4515
136.564 1061 32.573
136.681 1106 33.2566
136.798 1113 33.3617
136.915 1118 33.4365
137.033 1168 34.176
137.15 1156 34
137.267 1149 33.8969
137.384 1129 33.6006
137.502 1112 33.3467
137.619 1152 33.9411
137.736 1094 33.0757
137.853 940 30.6594
137.97 903 30.05
138.087 868 29.4618
138.204 984 31.3688
138.321 1032 32.1248
138.438 1071 32.7261
138.555 1109 33.3017
138.672 1116 33.4066
138.788 1086 32.9545
138.905 1120 33.4664
139.022 1076 32.8024
139.139 1046 32.3419
139.255 964 31.0483
139.372 880 29.6648
139.488 803 28.3373
139.605 770 27.7489
139.721 741 27.2213
139.838 730 27.0185
139.954 706 26.5707
140.071 652 25.5343
140.187 620 24.8998
140.303 610 24.6982
140.419 647 25.4362
140.535 563 23.7276
140.652 506 22.4944
140.768 0 1
140.884 0 1
141 0 1
141.115 0 1
141.231 0 1
141.347 0 1
141.463 0 1
141.578 0 1
141.694 0 1
144.104 0 1
144.219 0 1
144.335 0 1
144.45 0 1
144.566 0 1
144.682 0 1
144.798 0 1
144.914 0 1
145.03 0 1
145.146 811 28.4781
145.262 849 29.1376
145.378 866 29.4279
145.494 899 29.9833
145.61 908 30.133
145.726 905 30.0832
145.842 924 30.3974
145.959 973 31.1929
146.075 937 30.6105
146.192 974 31.209
146.308 958 30.9516
146.425 870 29.4958
146.541 907 30.1164
146.658 845 29.0689
146.774 803 28.3373
146.891 874 29.5635
147.008 918 30.2985
147.125 992 31.496
147.241 984 31.3688
147.358 1052 32.4345
147.475 1064 32.619
147.592 1035 32.1714
147.709 1051 32.4191
147.826 1025 32.0156
147.943 1055 32.4808
148.06 994 31.5278
148.177 1017 31.8904
148.294 1008 31.749
148.411 1093 33.0606
148.528 1059 32.5423
148.645 996 31.5595
148.762 993 31.5119
148.88 1019 31.9218
148.997 1117 33.4215
149.114 1016 31.8748
149.231 972 31.1769
149.349 1028 32.0624
149.466 1029 32.078
149.583 1086 32.9545
149.701 1014 31.8434
149.818 999 31.607
149.935 994 31.5278
150.053 1032 32.1248
150.17 920 30.3315
150.287 850 29.1548
150.405 814 28.5307
150.522 838 28.9482
150.64 890 29.8329
150.757 942 30.692
150.875 939 30.6431
150.992 933 30.545
151.11 855 29.2404
151.227 842 29.0172
151.344 880 29.6648
151.462 905 30.0832
151.579 908 30.133
151.697 915 30.249
151.814 867 29.4449
151.932 881 29.6816
152.049 885 29.7489
152.167 913 30.2159
152.284 842 29.0172
152.402 931 30.5123
152.519 911 30.1828
152.636 881 29.6816
152.754 892 29.8664
152.871 942 30.692
152.989 868 29.4618
153.106 933 30.545
153.223 920 30.3315
153.341 883 29.7153
153.458 904 30.0666
153.575 794 28.178
153.693 737 27.1477
153.81 828 28.775
153.927 752 27.4226
154.044 707 26.5895
154.162 759 27.55
154.279 831 28.8271
154.396 805 28.3725
154.513 840 28.9828
154.63 810 28.4605
154.747 799 28.2666
154.864 813 28.5132
154.981 800 28.2843
155.098 794 28.178
155.215 859 29.3087
155.332 807 28.4077
155.449 800 28.2843
155.566 773 27.8029
155.683 823 28.688
155.8 863 29.3769
155.917 826 28.7402
156.033 847 29.1033
156.15 0 1
156.267 0 1
156.383 0 1
156.5 0 1
156.617 0 1
156.733 0 1
156.85 0 1
156.966 0 1
157.082 0 1
157.199 0 1
157.315 0 1
157.431 0 1
157.547 0 1
157.664 0 1
157.78 0 1
157.896 0 1
158.012 0 1
158.128 0 1
158.244 0 1
158.359 0 1
158.475 0 1
158.591 0 1
158.706 0 1
