
6.15755 0 1
6.2731 0 1
6.3887 0 1
6.50437 0 1
6.62009 0 1
6.73587 0 1
6.8517 0 1
6.96759 0 1
7.08353 0 1
7.19952 0 1
7.31557 0 1
7.43166 0 1
7.54781 0 1
7.664 0 1
7.78024 0 1
7.89653 0 1
8.01286 0 1
8.12924 0 1
8.24567 0 1
8.36213 0 1
8.47864 0 1
8.59519 0 1
8.71178 0 1
8.82841 0 1
8.94508 0 1
9.06179 0 1
9.17853 0 1
9.29531 0 1
9.41212 0 1
9.52897 0 1
9.64584 0 1
9.76276 0 1
9.8797 0 1
9.99667 0 1
10.1137 0 1
10.2307 0 1
10.3478 0 1
10.4648 0 1
10.5819 0 1
10.6991 0 1
10.8162 0 1
10.9334 0 1
11.0506 0 1
11.1678 0 1
11.285 0 1
11.4023 0 1
11.5196 0 1
11.6369 0 1
11.7542 0 1
11.8715 0 1
11.9888 0 1
12.1062 0 1
12.2235 0 1
12.3409 0 1
12.4582 0 1
12.5756 0 1
12.693 0 1
12.8104 0 1
12.9278 0 1
13.0452 0 1
13.1626 0 1
13.28 0 1
13.3974 0 1
13.5149 0 1
13.6323 0 1
13.7497 0 1
13.8671 0 1
13.9845 0 1
14.1019 0 1
14.2193 0 1
14.3367 0 1
14.4541 0 1
14.5714 0 1
14.6888 0 1
14.8062 0 1
14.9235 0 1
15.0408 0 0
15.1581 0 0
15.2755 0 0
15.3927 0 0
15.51 0 0
15.6273 0 0
15.7445 0 0
15.8617 0 0
15.9789 0 0
16.0961 0 0
16.2132 0 0
16.3304 0 0
16.4475 0 0
16.5646 0 0
16.6816 0 0
16.7986 0 0
16.9156 0 0
17.0326 0 0
17.1496 0 0
17.2665 0 0
17.3833 0 0
17.5002 0 0
17.617 0 0
17.7338 0 0
17.8505 0 0
17.9672 0 0
18.0839 0 0
18.2005 0 0
18.3171 0 0
18.4337 0 0
18.5502 0 0
18.6666 0 0
18.7831 0 0
18.8994 0 0
19.0158 0 0
19.1321 0 0
19.2483 0 0
19.3645 0 0
19.4806 0 0
19.5967 0 0
19.7128 0 0
19.8288 0 0
19.9447 0 0
20.0606 0 1
20.1764 0 1
20.2922 0 1
20.4079 0 1
20.5236 0 1
20.6392 0 1
20.7548 0 1
20.8702 0 1
23.3078 0 1
23.4233 0 1
23.539 0 1
23.6547 0 1
23.7704 0 1
23.8862 0 1
24.0021 0 1
24.118 0 1
24.234 0 1
24.35 0 1
24.4661 9151 95.6609
24.5822 9321 96.5453
24.6984 8971 94.7154
24.8146 8881 94.2391
24.9309 8873 94.1966
25.0472 8881 94.2391
25.1636 9051 95.1367
25.28 9351 96.7006
25.3965 9465 97.2882
25.513 9795 98.9697
25.6296 10011 100.055
25.7462 10119 100.593
25.8628 10094 100.469
25.9795 10303 101.504
26.0962 10346 101.715
26.213 10473 102.338
26.3298 9981 99.905
26.4466 10019 100.095
26.5635 9927 99.6343
26.6804 9774 98.8635
26.7973 9799 98.9899
26.9143 9360 96.7471
27.0313 9866 99.3277
27.1483 10044 100.22
27.2653 10028 100.14
27.3824 10143 100.712
27.4996 10022 100.11
27.6167 9936 99.6795
27.7339 9858 99.2875
27.8511 9500 97.4679
27.9683 9361 96.7523
28.0855 9194 95.8853
28.2028 9079 95.2838
28.3201 8933 94.5145
28.4374 8546 92.4446
28.5547 8539 92.4067
28.6721 8569 92.5689
28.7894 8418 91.7497
28.9068 8670 93.1128
29.0242 8925 94.4722
29.1416 8803 93.8243
29.259 8953 94.6203
29.3764 9188 95.8541
29.4939 9168 95.7497
29.6113 9147 95.6399
29.7288 9110 95.4463
29.8463 9291 96.3898
29.9638 9337 96.6282
30.0812 9272 96.2912
30.1987 8888 94.2762
30.3162 8893 94.3027
30.4337 8944 94.5727
30.5512 8878 94.2231
30.6687 9349 96.6902
30.7862 9266 96.2601
30.9037 9672 98.3463
31.0212 9367 96.7833
31.1387 9569 97.8213
31.2562 9504 97.4885
31.3737 9390 96.902
31.4912 9141 95.6086
31.6087 8764 93.6162
31.7262 8800 93.8083
31.8436 8526 92.3363
31.9611 8227 90.7028
32.0785 8305 91.1318
32.1959 8265 90.912
32.3134 8341 91.3291
32.4308 8307 91.1427
32.5482 8331 91.2743
32.6655 8460 91.9783
32.7829 8684 93.188
32.9002 8661 93.0645
33.0176 8696 93.2523
33.1349 8865 94.1541
33.2522 8782 93.7123
33.3694 9033 95.0421
33.4867 9114 95.4673
33.6039 9130 95.551
33.7211 9014 94.9421
33.8383 8753 93.5575
33.9554 8661 93.0645
34.0725 8530 92.358
34.1896 8474 92.0543
34.3067 9106 95.4254
34.4237 8986 94.7945
34.5407 9099 95.3887
34.6577 9273 96.2964
34.7746 9185 95.8384
34.8915 9082 95.2995
35.0084 9054 95.1525
35.1252 9012 94.9316
35.242 8748 93.5307
35.3587 8505 92.2226
35.4755 8392 91.6079
35.5921 8201 90.5594
35.7088 8050 89.7218
35.8254 7994 89.4092
35.9419 8034 89.6326
36.0584 7934 89.073
36.1749 7953 89.1796
36.2913 8207 90.5925
36.4077 8144 90.2441
36.524 8186 90.4765
36.6403 8261 90.89
36.7565 8514 92.2713
36.8727 8490 92.1412
36.9889 8627 92.8816
37.1049 8614 92.8116
37.221 0 1
37.3369 0 1
37.4529 0 1
37.5687 0 1
37.6845 0 1
37.8003 0 1
37.916 0 1
38.0316 0 1
38.1472 0 1
40.5851 0 1
40.7008 0 1
40.8164 0 1
40.9322 0 1
41.048 0 1
41.1639 0 1
41.2798 0 1
41.3958 0 1
41.5118 0 1
41.6279 0 1
41.744 6333 79.5801
41.8602 6550 80.9321
41.9765 6800 82.4621
42.0928 6861 82.8312
42.2091 7188 84.7821
42.3255 6985 83.5763
42.4419 7048 83.9524
42.5584 7111 84.3267
42.675 6739 82.0914
42.7915 6528 80.796
42.9081 6606 81.2773
43.0248 6759 82.2131
43.1415 6881 82.9518
43.2582 7079 84.1368
43.375 7299 85.4342
43.4918 7058 84.0119
43.6087 6928 83.2346
43.7256 6974 83.5105
43.8425 6773 82.2982
43.9595 6620 81.3634
44.0765 6415 80.0937
44.1935 6339 79.6178
44.3106 6219 78.8606
44.4277 6005 77.4919
44.5448 5924 76.9675
44.6619 5556 74.5386
44.7791 5442 73.7699
44.8963 5386 73.3894
45.0136 5317 72.9178
45.1308 5456 73.8647
45.2481 5338 73.0616
45.3654 5579 74.6927
45.4827 5726 75.6703
45.6001 5503 74.1822
45.7174 5550 74.4983
45.8348 5570 74.6324
45.9522 5456 73.8647
46.0697 5442 73.7699
46.1871 5133 71.645
46.3046 5032 70.9366
46.422 4808 69.3397
46.5395 4882 69.8713
46.657 5011 70.7884
46.7745 5163 71.854
46.892 5199 72.1041
47.0096 5364 73.2393
47.1271 5163 71.854
47.2446 5064 71.1618
47.3622 5062 71.1477
47.4797 4801 69.2892
47.5973 4808 69.3397
47.7149 4826 69.4694
47.8324 4611 67.9043
47.95 4382 66.1967
48.0675 4447 66.6858
48.1851 4086 63.9218
48.3027 3924 62.6418
48.4202 3964 62.9603
48.5378 3972 63.0238
48.6554 4035 63.5216
48.7729 4018 63.3877
48.8904 4065 63.7574
49.008 4131 64.2729
49.1255 4165 64.5368
49.243 4247 65.169
49.3605 4281 65.4294
49.478 4282 65.437
49.5955 4105 64.0703
49.713 4024 63.435
49.8304 3910 62.53
49.9479 3969 63
50.0653 4078 63.8592
50.1827 4439 66.6258
50.3001 4609 67.8896
50.4175 4820 69.4262
50.5348 4930 70.214
50.6521 5054 71.0915
50.7694 5180 71.9722
50.8867 5269 72.5879
51.004 5226 72.2911
51.1212 5260 72.5259
51.2384 5430 73.6885
51.3556 5379 73.3417
51.4727 5400 73.4847
51.5899 5172 71.9166
51.707 5137 71.6729
51.824 5141 71.7008
51.9411 5271 72.6017
52.0581 5295 72.7668
52.175 5642 75.1132
52.2919 5781 76.0329
52.4088 5793 76.1118
52.5257 6187 78.6575
52.6425 6063 77.8653
52.7593 6161 78.492
52.876 6527 80.7899
52.9927 6540 80.8703
53.1094 6593 81.1973
53.226 6547 80.9135
53.3426 6336 79.599
53.4591 6188 78.6638
53.5756 6352 79.6994
53.692 6248 79.0443
53.8084 6910 83.1264
53.9248 7304 85.4634
54.0411 7641 87.4128
54.1573 7828 88.476
54.2735 0 1
54.3896 0 1
54.5057 0 1
54.6217 0 1
54.7377 0 1
54.8537 0 1
54.9695 0 1
55.0853 0 1
55.2011 0 1
55.3168 0 1
55.4324 0 1
57.824 0 1
57.9396 0 1
58.0553 0 1
58.1711 0 1
58.2869 0 1
58.4028 0 1
58.5187 0 1
58.6347 0 1
58.7508 0 1
58.8669 0 1
58.983 8153 90.294
59.0992 8878 94.2231
59.2155 9233 96.0885
59.3318 9564 97.7957
59.4482 9561 97.7804
59.5646 9888 99.4384
59.681 9605 98.0051
59.7975 9659 98.2802
59.9141 9258 96.2185
60.0306 8961 94.6626
60.1473 8702 93.2845
60.2639 8319 91.2086
60.3807 7819 88.4251
60.4974 7673 87.5957
60.6142 7637 87.3899
60.731 7644 87.43
60.8479 7574 87.0287
60.9648 7573 87.023
61.0818 7791 88.2666
61.1987 7960 89.2188
61.3158 7850 88.6002
61.4328 7984 89.3532
61.5499 7964 89.2412
61.667 7918 88.9831
61.7841 7613 87.2525
61.9013 7438 86.2438
62.0185 7155 84.5872
62.1357 7321 85.5628
62.253 7434 86.2206
62.3702 7734 87.9432
62.4875 7928 89.0393
62.6049 8420 91.7606
62.7222 8680 93.1665
62.8396 8594 92.7038
62.9569 8826 93.9468
63.0743 8689 93.2148
63.1918 8635 92.9247
63.3092 8608 92.7793
63.4267 8326 91.2469
63.5441 8034 89.6326
63.6616 7530 86.7756
63.7791 7360 85.7904
63.8966 7067 84.0655
64.0142 6901 83.0723
64.1317 6541 80.8764
64.2492 6579 81.111
64.3668 6538 80.8579
64.4843 6605 81.2712
64.6019 6864 82.8493
64.7195 6886 82.9819
64.837 6916 83.1625
64.9546 7079 84.1368
65.0722 7166 84.6522
65.1898 7011 83.7317
65.3074 6952 83.3787
65.4249 6608 81.2896
65.5425 6450 80.3119
65.6601 6294 79.3347
65.7777 6475 80.4674
65.8952 6853 82.7828
66.0128 7044 83.9285
66.1304 7521 86.7237
66.2479 7697 87.7325
66.3655 7898 88.8707
66.483 8321 91.2195
66.6005 8355 91.4057
66.718 8429 91.8096
66.8355 8094 89.9667
66.953 7916 88.9719
67.0705 7767 88.1306
67.1879 7486 86.5217
67.3054 7317 85.5395
67.4228 6925 83.2166
67.5402 6527 80.7899
67.6576 6253 79.0759
67.7749 6263 79.1391
67.8923 6265 79.1518
68.0096 6572 81.0679
68.1269 6578 81.1049
68.2442 6934 83.2706
68.3614 7025 83.8153
68.4787 7013 83.7437
68.5958 7345 85.703
68.713 7314 85.5219
68.8302 7337 85.6563
68.9473 7167 84.6581
69.0643 6988 83.5943
69.1814 6715 81.9451
69.2984 6606 81.2773
69.4154 7008 83.7138
69.5323 7354 85.7555
69.6492 7600 87.178
69.7661 8023 89.5712
69.8829 8738 93.4773
69.9997 9131 95.5563
70.1165 9133 95.5667
70.2332 9149 95.6504
70.3499 9102 95.4044
70.4665 9077 95.2733
70.5831 9048 95.121
70.6996 8528 92.3472
70.8161 8370 91.4877
70.9326 7857 88.6397
71.049 7680 87.6356
71.1653 7125 84.4097
71.2817 6559 80.9877
71.3979 6476 80.4736
71.5141 6438 80.2371
71.6303 6410 80.0625
71.7464 6065 77.8781
71.8624 0 1
71.9784 0 1
72.0944 0 1
72.2102 0 1
72.3261 0 1
72.4418 0 1
72.5575 0 1
72.6732 0 1
75.1054 0 1
75.2209 0 1
75.3365 0 1
75.4521 0 1
75.5678 0 1
75.6835 0 1
75.7993 0 1
75.9151 0 1
76.031 0 1
76.147 7876 88.7468
76.263 8322 91.225
76.3791 8183 90.4599
76.4952 7814 88.3968
76.6113 7037 83.8868
76.7276 7001 83.672
76.8438 6943 83.3247
76.9601 6890 83.006
77.0765 7195 84.8233
77.1929 7332 85.6271
77.3093 7656 87.4986
77.4258 7834 88.5099
77.5423 7758 88.0795
77.6589 7915 88.9663
77.7755 7932 89.0618
77.8921 7723 87.8806
78.0088 7534 86.7986
78.1256 7029 83.8391
78.2423 6674 81.6946
78.3591 6550 80.9321
78.4759 6885 82.9759
78.5928 7387 85.9477
78.7097 7562 86.9598
78.8266 8169 90.3825
78.9436 8529 92.3526
79.0606 8608 92.7793
79.1776 8663 93.0752
79.2946 8937 94.5357
79.4117 8944 94.5727
79.5288 8794 93.7763
79.6459 8715 93.3542
79.7631 8260 90.8845
79.8802 7754 88.0568
79.9974 7363 85.8079
80.1147 6974 83.5105
80.2319 6525 80.7775
80.3491 6211 78.8099
80.4664 6037 77.6981
80.5837 6228 78.9177
80.701 6244 79.019
80.8183 6456 80.3492
80.9357 6735 82.067
81.053 6694 81.8169
81.1704 6765 82.2496
81.2877 6857 82.807
81.4051 6923 83.2046
81.5225 6999 83.66
81.6399 6436 80.2247
81.7573 6294 79.3347
81.8747 5768 75.9474
81.9922 5641 75.1066
82.1096 5837 76.4003
82.227 6331 79.5676
82.3444 6577 81.0987
82.4619 7125 84.4097
82.5793 7577 87.046
82.6967 7180 84.7349
82.8142 7439 86.2496
82.9316 7424 86.1626
83.049 7678 87.6242
83.1664 7413 86.0988
83.2838 7128 84.4275
83.4012 6801 82.4682
83.5186 6469 80.4301
83.636 6219 78.8606
83.7534 5972 77.2787
83.8708 5418 73.6071
83.9881 5265 72.5603
84.1055 5151 71.7705
84.2228 5273 72.6154
84.3401 5490 74.0945
84.4575 5805 76.1906
84.5747 6034 77.6788
84.692 6058 77.8332
84.8093 6295 79.341
84.9265 6291 79.3158
85.0437 6193 78.6956
85.1609 5952 77.1492
85.2781 5903 76.831
85.3952 5587 74.7462
85.5123 5363 73.2325
85.6294 5410 73.5527
85.7465 6039 77.711
85.8636 6655 81.5782
85.9806 6990 83.6062
86.0976 7614 87.2582
86.2145 7917 88.9775
86.3315 7989 89.3812
86.4484 8488 92.1303
86.5652 8469 92.0272
86.682 8713 93.3435
86.7988 8571 92.5797
86.9156 8212 90.6201
87.0323 7988 89.3756
87.149 7641 87.4128
87.2657 7523 86.7352
87.3823 7272 85.276
87.4988 6753 82.1766
87.6154 6871 82.8915
87.7318 7084 84.1665
87.8483 7123 84.3979
87.9647 7443 86.2728
88.081 7682 87.647
88.1973 7973 89.2917
88.3136 8110 90.0555
88.4298 8184 90.4655
88.546 8299 91.0988
88.6621 8105 90.0278
88.7781 7801 88.3233
88.8942 0 1
89.0101 0 1
89.126 0 1
89.2419 0 1
89.3577 0 1
89.4734 0 1
89.5891 0 1
89.7047 0 1
89.8203 0 1
89.9358 0 1
92.3269 0 1
92.4424 0 1
92.558 0 1
92.6736 0 1
92.7893 0 1
92.905 0 1
93.0208 0 1
93.1366 0 1
93.2525 0 1
93.3685 0 1
93.4845 0 1
93.6005 8057 89.7608
93.7167 8101 90.0056
93.8328 8266 90.9175
93.949 8299 91.0988
94.0653 8096 89.9778
94.1816 7850 88.6002
94.2979 7452 86.325
94.4143 7275 85.2936
94.5307 7163 84.6345
94.6472 7022 83.7974
94.7637 7482 86.4986
94.8803 7921 89
94.9969 8170 90.3881
95.1135 8566 92.5527
95.2302 9003 94.8841
95.3469 9257 96.2133
95.4637 9484 97.3858
95.5805 9453 97.2265
95.6973 10050 100.25
95.8142 9838 99.1867
95.9311 9635 98.158
96.048 9366 96.7781
96.1649 9206 95.9479
96.2819 8652 93.0161
96.3989 8276 90.9725
96.516 7850 88.6002
96.633 7277 85.3053
96.7501 7389 85.9593
96.8673 7180 84.7349
96.9844 7314 85.5219
97.1016 7411 86.0872
97.2188 7668 87.5671
97.336 7700 87.7496
97.4532 7799 88.3119
97.5704 7917 88.9775
97.6877 7823 88.4477
97.805 7517 86.7006
97.9223 6905 83.0963
98.0396 6798 82.45
98.1569 6605 81.2712
98.2743 6367 79.7935
98.3916 6688 81.7802
98.509 7114 84.3445
98.6264 7814 88.3968
98.7438 7998 89.4315
98.8612 8452 91.9348
98.9786 8648 92.9946
99.096 9043 95.0947
99.2134 9186 95.8436
99.3308 9371 96.8039
99.4482 9411 97.0103
99.5656 9165 95.734
99.6831 8939 94.5463
99.8005 8642 92.9624
99.9179 8368 91.4768
100.035 8104 90.0222
100.153 7652 87.4757
100.27 7353 85.7496
100.388 7512 86.6718
100.505 7714 87.8294
100.622 7967 89.2581
100.74 8222 90.6752
100.857 8403 91.6679
100.975 8721 93.3863
101.092 8644 92.9731
101.209 8768 93.6376
101.327 8662 93.0699
101.444 8259 90.879
101.561 8101 90.0056
101.679 7736 87.9545
101.796 7674 87.6014
101.913 7774 88.1703
102.03 8389 91.5915
102.148 9158 95.6974
102.265 10387 101.917
102.382 9549 97.719
102.499 10723 103.552
102.616 11282 106.217
102.733 11548 107.462
102.851 11879 108.991
102.968 11828 108.757
103.085 11849 108.853
103.202 11705 108.19
103.319 11492 107.201
103.436 11307 106.334
103.552 10782 103.836
103.669 10117 100.583
103.786 9901 99.5038
103.903 10078 100.389
104.02 10340 101.686
104.137 10572 102.82
104.253 11166 105.669
104.37 10721 103.542
104.487 11189 105.778
104.603 11164 105.66
104.72 11189 105.778
104.836 10882 104.317
104.953 10423 102.093
105.069 10217 101.079
105.186 9619 98.0765
105.302 9405 96.9794
105.418 9648 98.2242
105.535 10480 102.372
105.651 11168 105.679
105.767 12002 109.554
105.883 12707 112.725
105.999 13098 114.446
106.115 0 1
106.231 0 1
106.347 0 1
106.463 0 1
106.579 0 1
106.694 0 1
106.81 0 1
106.926 0 1
107.041 0 1
107.157 0 1
109.576 0 1
109.692 0 1
109.807 0 1
109.923 0 1
110.039 0 1
110.155 0 1
110.27 0 1
110.386 0 1
110.502 0 1
110.618 9718 98.5799
110.735 10712 103.499
110.851 11454 107.023
110.967 12006 109.572
111.083 12094 109.973
111.199 12656 112.499
111.316 12829 113.265
111.432 13199 114.887
111.549 12950 113.798
111.665 12736 112.854
111.782 12453 111.593
111.898 11989 109.494
112.015 11449 107
112.132 10969 104.733
112.248 10372 101.843
112.365 10131 100.653
112.482 10254 101.262
112.599 9941 99.7046
112.716 10249 101.237
112.832 10223 101.109
112.949 10140 100.698
113.066 10050 100.25
113.183 9939 99.6945
113.3 9547 97.7088
113.417 9335 96.6178
113.534 8907 94.3769
113.652 8621 92.8493
113.769 8168 90.377
113.886 8056 89.7552
114.003 8200 90.5539
114.12 8690 93.2202
114.238 9435 97.1339
114.355 9332 96.6023
114.472 10850 104.163
114.589 9912 99.559
114.707 10493 102.435
114.824 10817 104.005
114.942 10764 103.75
115.059 11023 104.99
115.176 10914 104.47
115.294 10757 103.716
115.411 10547 102.699
115.529 10280 101.39
115.646 9972 99.8599
115.764 9632 98.1428
115.881 9245 96.1509
115.999 9319 96.535
116.116 9321 96.5453
116.234 9549 97.719
116.351 9496 97.4474
116.469 9667 98.3209
116.586 9421 97.0618
116.704 9437 97.1442
116.821 9542 97.6832
116.939 9392 96.9123
117.056 9141 95.6086
117.174 8853 94.0904
117.291 8603 92.7524
117.409 8523 92.3201
117.526 8529 92.3526
117.644 9077 95.2733
117.761 9640 98.1835
117.879 10229 101.139
117.996 10480 102.372
118.114 10879 104.302
118.231 11260 106.113
118.349 11569 107.559
118.466 11701 108.171
118.584 11877 108.982
118.701 11965 109.385
118.819 11753 108.411
118.936 11598 107.694
119.053 11208 105.868
119.171 11005 104.905
119.288 10840 104.115
119.405 10411 102.034
119.523 10059 100.295
119.64 10125 100.623
119.757 10213 101.059
119.875 10123 100.613
119.992 10095 100.474
120.109 10015 100.075
120.226 10015 100.075
120.343 10118 100.588
120.46 9951 99.7547
120.578 9879 99.3932
120.695 9505 97.4936
120.812 9324 96.5609
120.929 9044 95.0999
121.046 8868 94.1701
121.163 9165 95.734
121.279 9372 96.8091
121.396 9765 98.818
121.513 10301 101.494
121.63 10692 103.402
121.747 11141 105.551
121.863 11280 106.207
121.98 11527 107.364
122.097 11798 108.619
122.213 12028 109.672
122.33 11900 109.087
122.446 11789 108.577
122.563 11566 107.545
122.679 11500 107.238
122.795 11074 105.233
122.912 11056 105.148
123.028 10694 103.412
123.144 10308 101.528
123.26 10240 101.193
123.377 0 1
123.493 0 1
123.609 0 1
123.725 0 1
123.84 0 1
123.956 0 1
124.072 0 1
124.188 0 1
124.303 0 1
124.419 0 1
126.852 0 1
126.968 0 1
127.083 0 1
127.199 0 1
127.315 0 1
127.431 0 1
127.547 0 1
127.663 0 1
127.779 0 1
127.895 0 1
128.011 0 1
128.127 0 1
128.243 0 1
128.359 11697 108.153
128.476 11645 107.912
128.592 11695 108.143
128.708 11609 107.745
128.825 11749 108.393
128.941 11911 109.138
129.058 11742 108.361
129.174 11580 107.61
129.291 11651 107.94
129.408 11444 106.977
129.524 10913 104.465
129.641 11020 104.976
129.758 10723 103.552
129.875 10094 100.469
129.992 10208 101.035
130.108 10097 100.484
130.225 10281 101.395
130.342 10543 102.679
130.459 11069 105.209
130.576 11804 108.646
130.693 11694 108.139
130.81 11957 109.348
130.928 12194 110.426
131.045 12311 110.955
131.162 12641 112.432
131.279 12528 111.929
131.396 12592 112.214
131.513 12178 110.354
131.631 11829 108.761
131.748 11910 109.133
131.865 11555 107.494
131.983 11132 105.508
132.1 11257 106.099
132.217 11525 107.355
132.335 11340 106.489
132.452 11489 107.187
132.57 11405 106.794
132.687 10938 104.585
132.804 11242 106.028
132.922 10879 104.302
133.039 10677 103.33
133.157 10451 102.23
133.274 10032 100.16
133.392 9815 99.0707
133.509 9459 97.2574
133.627 9391 96.9072
133.744 9370 96.7988
133.862 9764 98.813
133.979 10318 101.578
134.097 10575 102.835
134.214 10742 103.644
134.332 10826 104.048
134.449 11277 106.193
134.567 11182 105.745
134.684 11593 107.671
134.802 11678 108.065
134.919 11890 109.041
135.037 11680 108.074
135.154 11577 107.596
135.272 11373 106.644
135.389 11309 106.344
135.507 11340 106.489
135.624 11256 106.094
135.742 11299 106.297
135.859 11243 106.033
135.977 11463 107.065
136.094 11254 106.085
136.211 11400 106.771
136.329 11137 105.532
136.446 11190 105.783
136.564 11113 105.418
136.681 10665 103.271
136.798 10558 102.752
136.915 10108 100.539
137.033 9753 98.7573
137.15 9625 98.1071
137.267 9431 97.1133
137.384 9660 98.2853
137.502 10107 100.534
137.619 10527 102.601
137.736 10707 103.475
137.853 10606 102.985
137.97 11315 106.372
138.087 11075 105.238
138.204 11672 108.037
138.321 11684 108.093
138.438 11914 109.151
138.555 12118 110.082
138.672 11948 109.307
138.788 11870 108.95
138.905 11675 108.051
139.022 11751 108.402
139.139 11593 107.671
139.255 11630 107.842
139.372 11950 109.316
139.488 11800 108.628
139.605 12109 110.041
139.721 12096 109.982
139.838 12081 109.914
139.954 11673 108.042
140.071 11777 108.522
140.187 11849 108.853
140.303 11457 107.037
140.419 11225 105.948
140.535 10835 104.091
140.652 10510 102.518
140.768 0 1
140.884 0 1
141 0 1
141.115 0 1
141.231 0 1
141.347 0 1
141.463 0 1
141.578 0 1
141.694 0 1
144.104 0 1
144.219 0 1
144.335 0 1
144.45 0 1
144.566 0 1
144.682 0 1
144.798 0 1
144.914 0 1
145.03 0 1
145.146 12283 110.829
145.262 12266 110.752
145.378 12154 110.245
145.494 11963 109.375
145.61 11495 107.215
145.726 11233 105.986
145.842 11294 106.273
145.959 10975 104.762
146.075 11234 105.991
146.192 11204 105.849
146.308 11727 108.291
146.425 11710 108.213
146.541 11699 108.162
146.658 12135 110.159
146.774 12392 111.319
146.891 12486 111.741
147.008 12985 113.952
147.125 13363 115.598
147.241 13425 115.866
147.358 13177 114.791
147.475 13106 114.481
147.592 12624 112.357
147.709 12666 112.543
147.826 12546 112.009
147.943 13029 114.145
148.06 13060 114.28
148.177 13146 114.656
148.294 13286 115.265
148.411 13196 114.874
148.528 13008 114.053
148.645 12766 112.987
148.762 12867 113.433
148.88 12617 112.325
148.997 12082 109.918
149.114 12530 111.937
149.231 11711 108.217
149.349 11492 107.201
149.466 11002 104.89
149.583 11098 105.347
149.701 10993 104.848
149.818 11173 105.702
149.935 11255 106.09
150.053 11496 107.219
150.17 11690 108.12
150.287 12041 109.731
150.405 12350 111.131
150.522 12768 112.996
150.64 12862 113.411
150.757 13164 114.734
150.875 13243 115.078
150.992 12833 113.283
151.11 12558 112.062
151.227 12677 112.592
151.344 12336 111.068
151.462 12424 111.463
151.579 12840 113.314
151.697 12674 112.579
151.814 13119 114.538
151.932 13180 114.804
152.049 12965 113.864
152.167 12967 113.873
152.284 12986 113.956
152.402 12789 113.088
152.519 12666 112.543
152.636 12428 111.481
152.754 12129 110.132
152.871 11817 108.706
152.989 11685 108.097
153.106 11123 105.466
153.223 11005 104.905
153.341 11146 105.575
153.458 11126 105.48
153.575 11681 108.079
153.693 11991 109.503
153.81 12063 109.832
153.927 12567 112.103
154.044 13019 114.101
154.162 12927 113.697
154.279 13443 115.944
154.396 14031 118.453
154.513 14246 119.357
154.63 13968 118.186
154.747 13797 117.461
154.864 13781 117.393
154.981 13718 117.124
155.098 13713 117.103
155.215 13770 117.346
155.332 14074 118.634
155.449 14128 118.861
155.566 14209 119.202
155.683 14380 119.917
155.8 14062 118.583
155.917 13966 118.178
156.033 13680 116.962
156.15 0 1
156.267 0 1
156.383 0 1
156.5 0 1
156.617 0 1
156.733 0 1
156.85 0 1
156.966 0 1
157.082 0 1
157.199 0 1
157.315 0 1
157.431 0 1
157.547 0 1
157.664 0 1
157.78 0 1
157.896 0 1
158.012 0 1
158.128 0 1
158.244 0 1
158.359 0 1
158.475 0 1
158.591 0 1
158.706 0 1
