
6.15755 0 1
6.2731 0 1
6.3887 0 1
6.50437 0 1
6.62009 0 1
6.73587 0 1
6.8517 0 1
6.96759 0 1
7.08353 0 1
7.19952 0 1
7.31557 0 1
7.43166 0 1
7.54781 0 1
7.664 0 1
7.78024 0 1
7.89653 0 1
8.01286 0 1
8.12924 0 1
8.24567 0 1
8.36213 0 1
8.47864 0 1
8.59519 0 1
8.71178 0 1
8.82841 0 1
8.94508 0 1
9.06179 0 1
9.17853 0 1
9.29531 0 1
9.41212 0 1
9.52897 0 1
9.64584 0 1
9.76276 0 1
9.8797 0 1
9.99667 0 1
10.1137 0 1
10.2307 0 1
10.3478 0 1
10.4648 0 1
10.5819 0 1
10.6991 0 1
10.8162 0 1
10.9334 0 1
11.0506 0 1
11.1678 0 1
11.285 0 1
11.4023 0 1
11.5196 0 1
11.6369 0 1
11.7542 0 1
11.8715 0 1
11.9888 0 1
12.1062 0 1
12.2235 0 1
12.3409 0 1
12.4582 0 1
12.5756 0 1
12.693 0 1
12.8104 0 1
12.9278 0 1
13.0452 0 1
13.1626 0 1
13.28 0 1
13.3974 0 1
13.5149 0 1
13.6323 0 1
13.7497 0 1
13.8671 0 1
13.9845 0 1
14.1019 0 1
14.2193 0 1
14.3367 0 1
14.4541 0 1
14.5714 0 1
14.6888 0 1
14.8062 0 1
14.9235 0 1
15.0408 34962 186.981
15.1581 36718 191.619
15.2755 37825 194.487
15.3927 37744 194.278
15.51 37894 194.664
15.6273 36887 192.06
15.7445 36763 191.737
15.8617 36046 189.858
15.9789 35670 188.865
16.0961 35156 187.499
16.2132 35984 189.694
16.3304 37469 193.569
16.4475 38715 196.761
16.5646 40075 200.187
16.6816 41657 204.1
16.7986 44611 211.213
16.9156 46676 216.046
17.0326 49514 222.517
17.1496 50608 224.962
17.2665 50517 224.76
17.3833 50231 224.123
17.5002 50738 225.251
17.617 51259 226.405
17.7338 51666 227.302
17.8505 51914 227.846
17.9672 52640 229.434
18.0839 53123 230.484
18.2005 53571 231.454
18.3171 54006 232.392
18.4337 54350 233.131
18.5502 54763 234.015
18.6666 54949 234.412
18.7831 54794 234.081
18.8994 54582 233.628
19.0158 52885 229.967
19.1321 51015 225.865
19.2483 50145 223.931
19.3645 49594 222.697
19.4806 48260 219.682
19.5967 47273 217.424
19.7128 44184 210.2
19.8288 39832 199.58
19.9447 33735 183.671
20.0606 0 1
20.1764 0 1
20.2922 0 1
20.4079 0 1
20.5236 0 1
20.6392 0 1
20.7548 0 1
20.8702 0 1
23.3078 0 1
23.4233 0 1
23.539 0 1
23.6547 0 1
23.7704 0 1
23.8862 0 1
24.0021 0 1
24.118 0 1
24.234 0 1
24.35 0 1
24.4661 47926 218.92
24.5822 47862 218.774
24.6984 48856 221.034
24.8146 48390 219.977
24.9309 47049 216.908
25.0472 43598 208.801
25.1636 40184 200.459
25.28 39703 199.256
25.3965 41285 203.187
25.513 44130 210.071
25.6296 47662 218.316
25.7462 52388 228.884
25.8628 55976 236.592
25.9795 57319 239.414
26.0962 57490 239.771
26.213 57239 239.247
26.3298 57560 239.917
26.4466 57055 238.862
26.5635 57648 240.1
26.6804 56933 238.606
26.7973 57413 239.61
26.9143 57298 239.37
27.0313 57166 239.094
27.1483 56865 238.464
27.2653 56608 237.924
27.3824 57257 239.284
27.4996 57028 238.805
27.6167 56523 237.746
27.7339 54898 234.303
27.8511 53712 231.758
27.9683 53101 230.437
28.0855 52862 229.917
28.2028 53177 230.601
28.3201 51454 226.835
28.4374 50037 223.69
28.5547 45595 213.53
28.6721 40803 201.998
28.7894 39061 197.639
28.9068 39277 198.184
29.0242 41275 203.162
29.1416 43460 208.471
29.259 46390 215.383
29.3764 51208 226.292
29.4939 54426 233.294
29.6113 54910 234.329
29.7288 54712 233.906
29.8463 55395 235.361
29.9638 55080 234.691
30.0812 55621 235.841
30.1987 55364 235.296
30.3162 55290 235.138
30.4337 55471 235.523
30.5512 55219 234.987
30.6687 53960 232.293
30.7862 54482 233.414
30.9037 54181 232.768
31.0212 55430 235.436
31.1387 55092 234.717
31.2562 54269 232.957
31.3737 53981 232.338
31.4912 52738 229.648
31.6087 53032 230.287
31.7262 52776 229.73
31.8436 52465 229.052
31.9611 50758 225.295
32.0785 46428 215.472
32.1959 41238 203.071
32.3134 38544 196.326
32.4308 38720 196.774
32.5482 40318 200.793
32.6655 42436 206
32.7829 45885 214.208
32.9002 50669 225.098
33.0176 52825 229.837
33.1349 53791 231.929
33.2522 54451 233.347
33.3694 53920 232.207
33.4867 54588 233.641
33.6039 54663 233.801
33.7211 54640 233.752
33.8383 54177 232.76
33.9554 54531 233.519
34.0725 54001 232.381
34.1896 53105 230.445
34.3067 52069 228.186
34.4237 51933 227.888
34.5407 53205 230.662
34.6577 53391 231.065
34.7746 53859 232.075
34.8915 52942 230.091
35.0084 52097 228.248
35.1252 51715 227.409
35.242 51812 227.622
35.3587 52415 228.943
35.4755 51968 227.965
35.5921 50698 225.162
35.7088 48758 220.812
35.8254 44280 210.428
35.9419 39653 199.131
36.0584 37245 192.99
36.1749 38120 195.243
36.2913 38687 196.69
36.4077 40933 202.319
36.524 44101 210.002
36.6403 47683 218.364
36.7565 50516 224.758
36.8727 52111 228.278
36.9889 52614 229.377
37.1049 51753 227.493
37.221 0 1
37.3369 0 1
37.4529 0 1
37.5687 0 1
37.6845 0 1
37.8003 0 1
37.916 0 1
38.0316 0 1
38.1472 0 1
40.5851 0 1
40.7008 0 1
40.8164 0 1
40.9322 0 1
41.048 0 1
41.1639 0 1
41.2798 0 1
41.3958 0 1
41.5118 0 1
41.6279 0 1
41.744 35776 189.145
41.8602 39789 199.472
41.9765 42004 204.949
42.0928 42951 207.246
42.2091 44436 210.798
42.3255 44985 212.097
42.4419 44769 211.587
42.5584 44771 211.592
42.675 44231 210.312
42.7915 43707 209.062
42.9081 42451 206.036
43.0248 41378 203.416
43.1415 40766 201.906
43.2582 41966 204.856
43.375 41863 204.604
43.4918 42553 206.284
43.6087 42513 206.187
43.7256 41727 204.272
43.8425 41446 203.583
43.9595 40784 201.95
44.0765 40858 202.134
44.1935 40205 200.512
44.3106 38749 196.848
44.4277 37299 193.129
44.5448 35378 188.09
44.6619 31825 178.396
44.7791 28156 167.797
44.8963 26293 162.151
45.0136 26701 163.404
45.1308 26727 163.484
45.2481 28154 167.792
45.3654 30648 175.066
45.4827 32482 180.228
45.6001 34058 184.548
45.7174 33590 183.276
45.8348 33247 182.338
45.9522 33738 183.679
46.0697 33320 182.538
46.1871 32742 180.948
46.3046 32031 178.972
46.422 31347 177.051
46.5395 30480 174.585
46.657 30025 173.277
46.7745 30296 174.057
46.892 30538 174.751
47.0096 31142 176.471
47.1271 31293 176.898
47.2446 31188 176.601
47.3622 30488 174.608
47.4797 29727 172.415
47.5973 29623 172.113
47.7149 29377 171.397
47.8324 28243 168.057
47.95 27610 166.163
48.0675 25782 160.568
48.1851 24837 157.598
48.3027 21578 146.895
48.4202 20125 141.863
48.5378 19542 139.793
48.6554 20202 142.134
48.7729 20921 144.641
48.8904 22720 150.732
49.008 25181 158.685
49.1255 26452 162.641
49.243 26630 163.187
49.3605 26648 163.242
49.478 26525 162.865
49.5955 26816 163.756
49.713 26691 163.374
49.8304 26504 162.8
49.9479 25595 159.984
50.0653 25704 160.325
50.1827 26526 162.868
50.3001 27154 164.785
50.4175 28036 167.44
50.5348 29130 170.675
50.6521 30381 174.301
50.7694 30993 176.048
50.8867 31711 178.076
51.004 32709 180.856
51.1212 33024 181.725
51.2384 33270 182.401
51.3556 33088 181.901
51.4727 33241 182.321
51.5899 32714 180.87
51.707 31459 177.367
51.824 28288 168.19
51.9411 27494 165.813
52.0581 27999 167.329
52.175 29493 171.735
52.2919 31480 177.426
52.4088 35122 187.409
52.5257 38476 196.153
52.6425 40283 200.706
52.7593 40730 201.817
52.876 41171 202.906
52.9927 42400 205.913
53.1094 43088 207.576
53.226 43191 207.824
53.3426 43264 208
53.4591 42667 206.56
53.5756 41244 203.086
53.692 41527 203.782
53.8084 41958 204.837
53.9248 43878 209.471
54.0411 45512 213.335
54.1573 47064 216.942
54.2735 0 1
54.3896 0 1
54.5057 0 1
54.6217 0 1
54.7377 0 1
54.8537 0 1
54.9695 0 1
55.0853 0 1
55.2011 0 1
55.3168 0 1
55.4324 0 1
57.824 0 1
57.9396 0 1
58.0553 0 1
58.1711 0 1
58.2869 0 1
58.4028 0 1
58.5187 0 1
58.6347 0 1
58.7508 0 1
58.8669 0 1
58.983 45741 213.871
59.0992 49177 221.759
59.2155 51856 227.719
59.3318 54101 232.596
59.4482 55274 235.104
59.5646 55521 235.629
59.681 56245 237.16
59.7975 55274 235.104
59.9141 54825 234.147
60.0306 52912 230.026
60.1473 51283 226.458
60.2639 49810 223.182
60.3807 46531 215.71
60.4974 43830 209.356
60.6142 41451 203.595
60.731 40950 202.361
60.8479 40740 201.842
60.9648 42511 206.182
61.0818 44631 211.261
61.1987 46902 216.569
61.3158 47865 218.781
61.4328 48765 220.828
61.5499 48736 220.762
61.667 48405 220.011
61.7841 47974 219.03
61.9013 46913 216.594
62.0185 45971 214.408
62.1357 44927 211.96
62.253 44428 210.78
62.3702 44847 211.771
62.4875 46074 214.649
62.6049 47238 217.343
62.7222 48912 221.161
62.8396 50188 224.027
62.9569 50860 225.522
63.0743 50725 225.222
63.1918 50547 224.827
63.3092 49545 222.587
63.4267 48785 220.873
63.5441 47382 217.674
63.6616 45799 214.007
63.7791 43777 209.23
63.8966 41441 203.571
64.0142 39119 197.785
64.1317 37469 193.569
64.2492 36949 192.221
64.3668 36847 191.956
64.4843 38565 196.38
64.6019 40335 200.836
64.7195 42528 206.223
64.837 43566 208.725
64.9546 43805 209.296
65.0722 44210 210.262
65.1898 43974 209.7
65.3074 44448 210.827
65.4249 42236 205.514
65.5425 41705 204.218
65.6601 40094 200.235
65.7777 39459 198.643
65.8952 40114 200.285
66.0128 41235 203.064
66.1304 42866 207.041
66.2479 44854 211.788
66.3655 46137 214.795
66.483 47789 218.607
66.6005 47847 218.74
66.718 48162 219.458
66.8355 48597 220.447
66.953 47223 217.309
67.0705 46408 215.425
67.1879 45269 212.765
67.3054 43691 209.024
67.4228 41728 204.274
67.5402 39594 198.982
67.6576 37736 194.258
67.7749 35546 188.536
67.8923 36114 190.037
68.0096 36379 190.733
68.1269 38354 195.842
68.2442 40336 200.838
68.3614 43001 207.367
68.4787 44731 211.497
68.5958 44804 211.67
68.713 45569 213.469
68.8302 45717 213.815
68.9473 44973 212.068
69.0643 44470 210.879
69.1814 43081 207.56
69.2984 42204 205.436
69.4154 41343 203.33
69.5323 42379 205.862
69.6492 44397 210.706
69.7661 46831 216.405
69.8829 49280 221.991
69.9997 50665 225.089
70.1165 52101 228.256
70.2332 52926 230.057
70.3499 53517 231.337
70.4665 52832 229.852
70.5831 53020 230.261
70.6996 51460 226.848
70.8161 49807 223.175
70.9326 48411 220.025
71.049 46743 216.201
71.1653 44620 211.234
71.2817 42049 205.059
71.3979 39340 198.343
71.5141 37639 194.008
71.6303 35795 189.196
71.7464 31987 178.849
71.8624 0 1
71.9784 0 1
72.0944 0 1
72.2102 0 1
72.3261 0 1
72.4418 0 1
72.5575 0 1
72.6732 0 1
75.1054 0 1
75.2209 0 1
75.3365 0 1
75.4521 0 1
75.5678 0 1
75.6835 0 1
75.7993 0 1
75.9151 0 1
76.031 0 1
76.147 44511 210.976
76.263 47398 217.711
76.3791 47567 218.099
76.4952 46109 214.73
76.6113 43290 208.062
76.7276 40201 200.502
76.8438 38743 196.832
76.9601 39675 199.186
77.0765 41398 203.465
77.1929 44007 209.778
77.3093 47291 217.465
77.4258 49825 223.215
77.5423 49829 223.224
77.6589 49642 222.805
77.7755 49468 222.414
77.8921 49260 221.946
78.0088 47026 216.855
78.1256 43674 208.983
78.2423 40448 201.117
78.3591 38219 195.497
78.4759 37461 193.548
78.5928 40053 200.132
78.7097 44034 209.843
78.8266 45985 214.441
78.9436 52326 228.749
79.0606 51807 227.612
79.1776 52377 228.86
79.2946 52509 229.148
79.4117 52472 229.068
79.5288 51363 226.634
79.6459 50481 224.68
79.7631 49408 222.279
79.8802 47965 219.009
79.9974 45749 213.89
80.1147 43465 208.483
80.2319 40771 201.918
80.3491 37689 194.137
80.4664 36608 191.332
80.5837 36956 192.239
80.701 38372 195.888
80.8183 40430 201.072
80.9357 43010 207.389
81.053 44828 211.726
81.1704 45304 212.847
81.2877 44344 210.58
81.4051 44282 210.433
81.5225 43339 208.18
81.6399 42973 207.299
81.7573 40063 200.157
81.8747 36288 190.494
81.9922 34015 184.432
82.1096 33969 184.307
82.227 35742 189.056
82.3444 38982 197.439
82.4619 42980 207.316
82.5793 45719 213.82
82.6967 45611 213.567
82.8142 46147 214.819
82.9316 46001 214.478
83.049 45976 214.42
83.1664 45202 212.608
83.2838 43921 209.573
83.4012 42705 206.652
83.5186 40764 201.901
83.636 39087 197.704
83.7534 37201 192.876
83.8708 35028 187.158
83.9881 33104 181.945
84.1055 32156 179.321
84.2228 32981 181.607
84.3401 34336 185.3
84.4575 36329 190.602
84.5747 39094 197.722
84.692 41082 202.687
84.8093 41201 202.98
84.9265 40953 202.368
85.0437 41056 202.623
85.1609 40074 200.185
85.2781 37922 194.736
85.3952 34959 186.973
85.5123 32479 180.219
85.6294 31387 177.164
85.7465 32937 181.486
85.8636 36868 192.01
85.9806 41934 204.778
86.0976 44935 211.979
86.2145 46968 216.721
86.3315 50043 223.703
86.4484 48500 220.227
86.5652 50127 223.891
86.682 50622 224.993
86.7988 50450 224.611
86.9156 48855 221.032
87.0323 47481 217.901
87.149 46115 214.744
87.2657 44477 210.896
87.3823 42774 206.819
87.4988 40447 201.114
87.6154 39472 198.676
87.7318 39829 199.572
87.8483 41483 203.674
87.9647 43352 208.211
88.081 46063 214.623
88.1973 48831 220.977
88.3136 50240 224.143
88.4298 49530 222.553
88.546 49748 223.043
88.6621 48842 221.002
88.7781 46132 214.784
88.8942 0 1
89.0101 0 1
89.126 0 1
89.2419 0 1
89.3577 0 1
89.4734 0 1
89.5891 0 1
89.7047 0 1
89.8203 0 1
89.9358 0 1
92.3269 0 1
92.4424 0 1
92.558 0 1
92.6736 0 1
92.7893 0 1
92.905 0 1
93.0208 0 1
93.1366 0 1
93.2525 0 1
93.3685 0 1
93.4845 0 1
93.6005 46855 216.46
93.7167 48567 220.379
93.8328 48938 221.219
93.949 48780 220.862
94.0653 47517 217.984
94.1816 47172 217.191
94.2979 45353 212.962
94.4143 41019 202.531
94.5307 38076 195.131
94.6472 36157 190.15
94.7637 35859 189.365
94.8803 39560 198.897
94.9969 44722 211.476
95.1135 48903 221.14
95.2302 51065 225.976
95.3469 52336 228.771
95.4637 53606 231.53
95.5805 54259 232.936
95.6973 55166 234.874
95.8142 55166 234.874
95.9311 54014 232.409
96.048 52771 229.719
96.1649 51376 226.663
96.2819 49401 222.263
96.3989 47155 217.152
96.516 45485 213.272
96.633 44023 209.817
96.7501 42506 206.17
96.8673 42482 206.112
96.9844 43141 207.704
97.1016 44422 210.765
97.2188 46239 215.033
97.336 49404 222.27
97.4532 49626 222.769
97.5704 49787 223.13
97.6877 48653 220.574
97.805 47203 217.263
97.9223 45046 212.24
98.0396 41545 203.826
98.1569 36866 192.005
98.2743 34386 185.435
98.3916 34727 186.352
98.509 37648 194.031
98.6264 43821 209.335
98.7438 48190 219.522
98.8612 50407 224.515
98.9786 52056 228.158
99.096 53045 230.315
99.2134 53488 231.275
99.3308 53814 231.978
99.4482 54307 233.039
99.5656 53767 231.877
99.6831 52279 228.646
99.8005 50105 223.841
99.9179 48422 220.05
100.035 46708 216.12
100.153 45522 213.359
100.27 43604 208.816
100.388 42798 206.877
100.505 43959 209.664
100.622 44919 211.941
100.74 46613 215.9
100.857 48775 220.851
100.975 49546 222.589
101.092 50015 223.64
101.209 49245 221.912
101.327 48719 220.724
101.444 47174 217.196
101.561 44010 209.786
101.679 39208 198.01
101.796 36131 190.082
101.913 34582 185.962
102.03 37082 192.567
102.148 43341 208.185
102.265 48331 219.843
102.382 53807 231.963
102.499 54365 233.163
102.616 56265 237.202
102.733 56927 238.594
102.851 56935 238.611
102.968 57246 239.261
103.085 56663 238.04
103.202 55277 235.111
103.319 53170 230.586
103.436 52055 228.156
103.552 50263 224.194
103.669 48414 220.032
103.786 47158 217.159
103.903 47378 217.665
104.02 47717 218.442
104.137 49255 221.935
104.253 51026 225.889
104.37 52624 229.399
104.487 53829 232.011
104.603 54627 233.724
104.72 53829 232.011
104.836 52985 230.185
104.953 51460 226.848
105.069 46547 215.748
105.186 40599 201.492
105.302 38128 195.264
105.418 38538 196.311
105.535 43013 207.396
105.651 51010 225.854
105.767 56633 237.977
105.883 59783 244.506
105.999 61412 247.814
106.115 0 1
106.231 0 1
106.347 0 1
106.463 0 1
106.579 0 1
106.694 0 1
106.81 0 1
106.926 0 1
107.041 0 1
107.157 0 1
109.576 0 1
109.692 0 1
109.807 0 1
109.923 0 1
110.039 0 1
110.155 0 1
110.27 0 1
110.386 0 1
110.502 0 1
110.618 41761 204.355
110.735 50105 223.841
110.851 55492 235.567
110.967 57757 240.327
111.083 58463 241.791
111.199 59431 243.785
111.316 60671 246.315
111.432 60848 246.674
111.549 59938 244.822
111.665 59212 243.335
111.782 57226 239.22
111.898 55432 235.44
112.015 53407 231.1
112.132 51967 227.963
112.248 51246 226.376
112.365 50360 224.41
112.482 48928 221.197
112.599 52112 228.281
112.716 51648 227.262
112.832 52605 229.358
112.949 53447 231.186
113.066 54152 232.706
113.183 54203 232.815
113.3 52919 230.041
113.417 52333 228.764
113.534 50418 224.54
113.652 44578 211.135
113.769 39440 198.595
113.886 37280 193.08
114.003 36581 191.262
114.12 40639 201.591
114.238 49051 221.475
114.355 54355 233.142
114.472 57024 238.797
114.589 59558 244.045
114.707 59635 244.203
114.824 59961 244.869
114.942 61185 247.356
115.059 61343 247.675
115.176 60331 245.624
115.294 59495 243.916
115.411 57958 240.745
115.529 56110 236.875
115.646 55068 234.666
115.764 53649 231.623
115.881 53505 231.311
115.999 53415 231.117
116.116 53003 230.224
116.234 54677 233.831
116.351 55075 234.681
116.469 55425 235.425
116.586 56037 236.721
116.704 56362 237.407
116.821 55500 235.584
116.939 54981 234.48
117.056 53782 231.909
117.174 49940 223.473
117.291 44491 210.929
117.409 40287 200.716
117.526 38431 196.038
117.644 39676 199.188
117.761 45784 213.972
117.879 53111 230.458
117.996 56845 238.422
118.114 59555 244.039
118.231 61781 248.558
118.349 61259 247.506
118.466 62011 249.02
118.584 62366 249.732
118.701 62251 249.502
118.819 61255 247.497
118.936 59482 243.889
119.053 58063 240.963
119.171 56632 237.975
119.288 55318 235.198
119.405 54959 234.433
119.523 54137 232.674
119.64 53478 231.253
119.757 53707 231.748
119.875 54007 232.394
119.992 54350 233.131
120.109 54852 234.205
120.226 55259 235.072
120.343 54704 233.889
120.46 54112 232.62
120.578 53768 231.879
120.695 53380 231.041
120.812 50649 225.053
120.929 45777 213.956
121.046 41767 204.37
121.163 39073 197.669
121.279 38722 196.779
121.396 41797 204.443
121.513 48396 219.991
121.63 54500 233.452
121.747 57420 239.625
121.863 59266 243.446
121.98 60184 245.324
122.097 60930 246.84
122.213 60485 245.937
122.33 60302 245.565
122.446 60248 245.455
122.563 58691 242.262
122.679 57313 239.401
122.795 56138 236.935
122.912 55575 235.744
123.028 54727 233.938
123.144 53201 230.653
123.26 52869 229.933
123.377 0 1
123.493 0 1
123.609 0 1
123.725 0 1
123.84 0 1
123.956 0 1
124.072 0 1
124.188 0 1
124.303 0 1
124.419 0 1
126.852 0 1
126.968 0 1
127.083 0 1
127.199 0 1
127.315 0 1
127.431 0 1
127.547 0 1
127.663 0 1
127.779 0 1
127.895 0 1
128.011 0 1
128.127 0 1
128.243 0 1
128.359 58973 242.844
128.476 58968 242.833
128.592 58633 242.143
128.708 59134 243.175
128.825 59281 243.477
128.941 59606 244.143
129.058 60009 244.967
129.174 60303 245.567
129.291 59947 244.841
129.408 59762 244.463
129.524 59718 244.373
129.641 58596 242.066
129.758 55044 234.615
129.875 49599 222.708
129.992 45975 214.418
130.108 42380 205.864
130.225 41983 204.898
130.342 46141 214.805
130.459 52593 229.332
130.576 60828 246.633
130.693 63560 252.111
130.81 65139 255.223
130.928 65729 256.377
131.045 65743 256.404
131.162 66488 257.853
131.279 67009 258.861
131.396 67215 259.259
131.513 65587 256.1
131.631 64626 254.216
131.748 64424 253.819
131.865 63858 252.701
131.983 63529 252.05
132.1 63631 252.252
132.217 63433 251.859
132.335 63613 252.216
132.452 63574 252.139
132.57 63318 251.631
132.687 62608 250.216
132.804 64322 253.618
132.922 62836 250.671
133.039 62343 249.686
133.157 61860 248.717
133.274 58728 242.339
133.392 52364 228.832
133.509 47677 218.351
133.627 44630 211.258
133.744 41807 204.468
133.862 43764 209.198
133.979 50658 225.073
134.097 56985 238.715
134.214 61486 247.964
134.332 65216 255.374
134.449 65120 255.186
134.567 65592 256.109
134.684 66494 257.864
134.802 66566 258.004
134.919 66942 258.732
135.037 66252 257.395
135.154 65113 255.172
135.272 65330 255.597
135.389 63824 252.634
135.507 64615 254.195
135.624 64301 253.576
135.742 63947 252.877
135.859 64109 253.198
135.977 63664 252.317
136.094 63450 251.893
136.211 63792 252.571
136.329 63749 252.486
136.446 63192 251.38
136.564 63238 251.472
136.681 62601 250.202
136.798 61896 248.789
136.915 57570 239.937
137.033 51673 227.317
137.15 47337 217.571
137.267 44418 210.756
137.384 42048 205.056
137.502 44079 209.95
137.619 50132 223.902
137.736 55965 236.569
137.853 59055 243.012
137.97 63531 252.054
138.087 63480 251.952
138.204 65187 255.317
138.321 66501 257.878
138.438 66704 258.271
138.555 67020 258.882
138.672 67595 259.99
138.788 66412 257.705
138.905 65787 256.49
139.022 66166 257.228
139.139 66087 257.074
139.255 65991 256.887
139.372 64874 254.704
139.488 64746 254.452
139.605 64459 253.888
139.721 64326 253.626
139.838 64896 254.747
139.954 64600 254.165
140.071 63802 252.591
140.187 64680 254.323
140.303 62468 249.936
140.419 61847 248.691
140.535 58229 241.307
140.652 52721 229.611
140.768 0 1
140.884 0 1
141 0 1
141.115 0 1
141.231 0 1
141.347 0 1
141.463 0 1
141.578 0 1
141.694 0 1
144.104 0 1
144.219 0 1
144.335 0 1
144.45 0 1
144.566 0 1
144.682 0 1
144.798 0 1
144.914 0 1
145.03 0 1
145.146 45493 213.291
145.262 50743 225.262
145.378 51971 227.971
145.494 51204 226.283
145.61 50080 223.786
145.726 46515 215.673
145.842 43109 207.627
145.959 40164 200.41
146.075 38071 195.118
146.192 37031 192.434
146.308 37587 193.874
146.425 39993 199.982
146.541 43891 209.502
146.658 47176 217.2
146.774 50078 223.781
146.891 51998 228.031
147.008 54096 232.585
147.125 54363 233.159
147.241 55955 236.548
147.358 56808 238.344
147.475 56817 238.363
147.592 57575 239.948
147.709 56692 238.101
147.826 57282 239.337
147.943 57128 239.015
148.06 56394 237.474
148.177 56244 237.158
148.294 55560 235.712
148.411 55455 235.489
148.528 55936 236.508
148.645 56019 236.683
148.762 55597 235.79
148.88 55806 236.233
148.997 54786 234.064
149.114 56555 237.813
149.231 55374 235.317
149.349 54593 233.651
149.466 53222 230.699
149.583 49213 221.84
149.701 45656 213.673
149.818 42519 206.201
149.935 40189 200.472
150.053 39366 198.409
150.17 40948 202.356
150.287 43705 209.057
150.405 47323 217.539
150.522 50248 224.161
150.64 53106 230.447
150.757 55441 235.459
150.875 57007 238.761
150.992 58396 241.653
151.11 59507 243.941
151.227 59677 244.289
151.344 59216 243.343
151.462 59633 244.199
151.579 60586 246.142
151.697 60408 245.78
151.814 59006 242.912
151.932 59070 243.043
152.049 58417 241.696
152.167 58652 242.182
152.284 58926 242.747
152.402 58927 242.749
152.519 58961 242.819
152.636 58736 242.355
152.754 58826 242.541
152.871 58177 241.199
152.989 57820 240.458
153.106 55024 234.572
153.223 51134 226.128
153.341 47768 218.559
153.458 44449 210.829
153.575 42974 207.302
153.693 42199 205.424
153.81 44062 209.91
153.927 46962 216.707
154.044 50165 223.975
154.162 52770 229.717
154.279 56055 236.759
154.396 58608 242.091
154.513 60758 246.491
154.63 61434 247.859
154.747 62410 249.82
154.864 63062 251.121
154.981 63476 251.944
155.098 62920 250.839
155.215 62576 250.152
155.332 62298 249.596
155.449 61459 247.909
155.566 60369 245.701
155.683 60439 245.843
155.8 60522 246.012
155.917 60865 246.708
156.033 60889 246.757
156.15 0 1
156.267 0 1
156.383 0 1
156.5 0 1
156.617 0 1
156.733 0 1
156.85 0 1
156.966 0 1
157.082 0 1
157.199 0 1
157.315 0 1
157.431 0 1
157.547 0 1
157.664 0 1
157.78 0 1
157.896 0 1
158.012 0 1
158.128 0 1
158.244 0 1
158.359 0 1
158.475 0 1
158.591 0 1
158.706 0 1
