
6.15755 0 1
6.2731 0 1
6.3887 0 1
6.50437 0 1
6.62009 0 1
6.73587 0 1
6.8517 0 1
6.96759 0 1
7.08353 0 1
7.19952 0 1
7.31557 0 1
7.43166 0 1
7.54781 0 1
7.664 0 1
7.78024 0 1
7.89653 0 1
8.01286 0 1
8.12924 0 1
8.24567 0 1
8.36213 0 1
8.47864 0 1
8.59519 0 1
8.71178 0 1
8.82841 0 1
8.94508 0 1
9.06179 0 1
9.17853 0 1
9.29531 0 1
9.41212 0 1
9.52897 0 1
9.64584 0 1
9.76276 0 1
9.8797 0 1
9.99667 0 1
10.1137 0 1
10.2307 0 1
10.3478 0 1
10.4648 0 1
10.5819 0 1
10.6991 0 1
10.8162 0 1
10.9334 0 1
11.0506 0 1
11.1678 0 1
11.285 0 1
11.4023 0 1
11.5196 0 1
11.6369 0 1
11.7542 0 1
11.8715 0 1
11.9888 0 1
12.1062 0 1
12.2235 0 1
12.3409 0 1
12.4582 0 1
12.5756 0 1
12.693 0 1
12.8104 0 1
12.9278 0 1
13.0452 0 1
13.1626 0 1
13.28 0 1
13.3974 0 1
13.5149 0 1
13.6323 0 1
13.7497 0 1
13.8671 0 1
13.9845 0 1
14.1019 0 1
14.2193 0 1
14.3367 0 1
14.4541 0 1
14.5714 0 1
14.6888 0 1
14.8062 0 1
14.9235 0 1
15.0408 8123 90.1277
15.1581 8569 92.5689
15.2755 9040 95.0789
15.3927 9022 94.9842
15.51 9000 94.8683
15.6273 8942 94.5621
15.7445 8709 93.322
15.8617 8551 92.4716
15.9789 8405 91.6788
16.0961 8300 91.1043
16.2132 7951 89.1684
16.3304 7868 88.7017
16.4475 7865 88.6848
16.5646 7651 87.47
16.6816 7746 88.0114
16.7986 7520 86.7179
16.9156 7142 84.5104
17.0326 7124 84.4038
17.1496 7079 84.1368
17.2665 6950 83.3667
17.3833 6892 83.0181
17.5002 6993 83.6242
17.617 6965 83.4566
17.7338 7104 84.2852
17.8505 7351 85.738
17.9672 7697 87.7325
18.0839 7653 87.4814
18.2005 8006 89.4763
18.3171 7837 88.5268
18.4337 7976 89.3085
18.5502 8139 90.2164
18.6666 8335 91.2962
18.7831 8496 92.1737
18.8994 8251 90.835
19.0158 8130 90.1665
19.1321 7804 88.3403
19.2483 7331 85.6213
19.3645 7132 84.4512
19.4806 6801 82.4682
19.5967 6434 80.2122
19.7128 6063 77.8653
19.8288 5633 75.0533
19.9447 4834 69.527
20.0606 0 1
20.1764 0 1
20.2922 0 1
20.4079 0 1
20.5236 0 1
20.6392 0 1
20.7548 0 1
20.8702 0 1
23.3078 0 1
23.4233 0 1
23.539 0 1
23.6547 0 1
23.7704 0 1
23.8862 0 1
24.0021 0 1
24.118 0 1
24.234 0 1
24.35 0 1
24.4661 3535 59.4559
24.5822 3974 63.0397
24.6984 4423 66.5056
24.8146 5071 71.211
24.9309 5688 75.4188
25.0472 6199 78.7337
25.1636 6845 82.7345
25.28 7193 84.8116
25.3965 7580 87.0632
25.513 7792 88.2723
25.6296 8029 89.6047
25.7462 8290 91.0494
25.8628 8325 91.2414
25.9795 8286 91.0275
26.0962 8329 91.2634
26.213 8397 91.6351
26.3298 8361 91.4385
26.4466 8305 91.1318
26.5635 8282 91.0055
26.6804 8407 91.6897
26.7973 8340 91.3236
26.9143 8407 91.6897
27.0313 8283 91.011
27.1483 8394 91.6188
27.2653 8755 93.5682
27.3824 8741 93.4933
27.4996 8885 94.2603
27.6167 8799 93.803
27.7339 8629 92.8924
27.8511 8520 92.3038
27.9683 8278 90.9835
28.0855 8231 90.7249
28.2028 8244 90.7965
28.3201 8224 90.6863
28.4374 8255 90.857
28.5547 8355 91.4057
28.6721 8289 91.0439
28.7894 8434 91.8368
28.9068 8548 92.4554
29.0242 8351 91.3838
29.1416 8210 90.6091
29.259 8188 90.4876
29.3764 8021 89.56
29.4939 7867 88.6961
29.6113 7947 89.1459
29.7288 8036 89.6437
29.8463 8015 89.5265
29.9638 8211 90.6146
30.0812 8246 90.8075
30.1987 8311 91.1647
30.3162 8404 91.6733
30.4337 8402 91.6624
30.5512 8210 90.6091
30.6687 8409 91.7006
30.7862 8721 93.3863
30.9037 8826 93.9468
31.0212 8874 94.2019
31.1387 8979 94.7576
31.2562 9046 95.1105
31.3737 8700 93.2738
31.4912 8684 93.188
31.6087 8598 92.7254
31.7262 8516 92.2822
31.8436 8405 91.6788
31.9611 8509 92.2442
32.0785 8444 91.8912
32.1959 8343 91.34
32.3134 8511 92.2551
32.4308 8482 92.0978
32.5482 8522 92.3147
32.6655 8400 91.6515
32.7829 8341 91.3291
32.9002 8196 90.5318
33.0176 8230 90.7193
33.1349 8095 89.9722
33.2522 8115 90.0833
33.3694 8239 90.7689
33.4867 8433 91.8314
33.6039 8424 91.7824
33.7211 8596 92.7146
33.8383 8610 92.7901
33.9554 8503 92.2117
34.0725 8663 93.0752
34.1896 8353 91.3947
34.3067 8397 91.6351
34.4237 8701 93.2792
34.5407 8774 93.6696
34.6577 9165 95.734
34.7746 9205 95.9427
34.8915 9022 94.9842
35.0084 8794 93.7763
35.1252 8817 93.8989
35.242 8797 93.7923
35.3587 8766 93.6269
35.4755 8620 92.844
35.5921 8601 92.7416
35.7088 8394 91.6188
35.8254 8558 92.5095
35.9419 8532 92.3688
36.0584 8441 91.8749
36.1749 8518 92.293
36.2913 8115 90.0833
36.4077 7910 88.9382
36.524 7512 86.6718
36.6403 6902 83.0783
36.7565 6395 79.9687
36.8727 5821 76.2955
36.9889 5613 74.92
37.1049 5018 70.8378
37.221 0 1
37.3369 0 1
37.4529 0 1
37.5687 0 1
37.6845 0 1
37.8003 0 1
37.916 0 1
38.0316 0 1
38.1472 0 1
40.5851 0 1
40.7008 0 1
40.8164 0 1
40.9322 0 1
41.048 0 1
41.1639 0 1
41.2798 0 1
41.3958 0 1
41.5118 0 1
41.6279 0 1
41.744 4636 68.0882
41.8602 5417 73.6003
41.9765 6193 78.6956
42.0928 6740 82.0975
42.2091 7315 85.5278
42.3255 7888 88.8144
42.4419 8285 91.022
42.5584 8725 93.4077
42.675 9148 95.6452
42.7915 9119 95.4935
42.9081 9167 95.7445
43.0248 9235 96.0989
43.1415 9731 98.6458
43.2582 9896 99.4786
43.375 10706 103.47
43.4918 11226 105.953
43.6087 11585 107.634
43.7256 11458 107.042
43.8425 11611 107.754
43.9595 12057 109.804
44.0765 11978 109.444
44.1935 12309 110.946
44.3106 12296 110.887
44.4277 12448 111.571
44.5448 12324 111.014
44.6619 12424 111.463
44.7791 12663 112.53
44.8963 12834 113.287
45.0136 12753 112.929
45.1308 12431 111.494
45.2481 12419 111.441
45.3654 12585 112.183
45.4827 12171 110.322
45.6001 12145 110.204
45.7174 11841 108.816
45.8348 11573 107.578
45.9522 11339 106.485
46.0697 11251 106.071
46.1871 11038 105.062
46.3046 10558 102.752
46.422 10078 100.389
46.5395 10092 100.459
46.657 10153 100.762
46.7745 10595 102.932
46.892 10514 102.538
47.0096 11015 104.952
47.1271 11456 107.033
47.2446 11269 106.156
47.3622 11217 105.91
47.4797 10846 104.144
47.5973 10683 103.359
47.7149 10401 101.985
47.8324 10152 100.757
47.95 10004 100.02
48.0675 10099 100.494
48.1851 9644 98.2039
48.3027 9649 98.2293
48.4202 9745 98.7168
48.5378 9555 97.7497
48.6554 9182 95.8228
48.7729 9354 96.7161
48.8904 9333 96.6075
49.008 9243 96.1405
49.1255 8988 94.8051
49.243 9102 95.4044
49.3605 8890 94.2868
49.478 8870 94.1807
49.5955 8837 94.0053
49.713 8861 94.1329
49.8304 8750 93.5414
49.9479 8447 91.9076
50.0653 8644 92.9731
50.1827 8871 94.186
50.3001 9156 95.687
50.4175 9587 97.9132
50.5348 9927 99.6343
50.6521 10223 101.109
50.7694 10589 102.903
50.8867 10087 100.434
51.004 10556 102.742
51.1212 10370 101.833
51.2384 10168 100.837
51.3556 10350 101.735
51.4727 10158 100.787
51.5899 9953 99.7647
51.707 10024 100.12
51.824 9870 99.3479
51.9411 9807 99.0303
52.0581 9630 98.1326
52.175 9435 97.1339
52.2919 9443 97.1751
52.4088 9352 96.7057
52.5257 9492 97.4269
52.6425 9302 96.4469
52.7593 8903 94.3557
52.876 9009 94.9158
52.9927 9103 95.4096
53.1094 8949 94.5992
53.226 8883 94.2497
53.3426 8515 92.2768
53.4591 8038 89.6549
53.5756 7877 88.7525
53.692 7371 85.8545
53.8084 7233 85.047
53.9248 6834 82.668
54.0411 6539 80.8641
54.1573 5926 76.9805
54.2735 0 1
54.3896 0 1
54.5057 0 1
54.6217 0 1
54.7377 0 1
54.8537 0 1
54.9695 0 1
55.0853 0 1
55.2011 0 1
55.3168 0 1
55.4324 0 1
57.824 0 1
57.9396 0 1
58.0553 0 1
58.1711 0 1
58.2869 0 1
58.4028 0 1
58.5187 0 1
58.6347 0 1
58.7508 0 1
58.8669 0 1
58.983 8001 89.4483
59.0992 8998 94.8578
59.2155 10052 100.26
59.3318 11198 105.821
59.4482 11983 109.467
59.5646 12873 113.459
59.681 13430 115.888
59.7975 13607 116.649
59.9141 13482 116.112
60.0306 13299 115.321
60.1473 13445 115.953
60.2639 13130 114.586
60.3807 13408 115.793
60.4974 13198 114.883
60.6142 13293 115.295
60.731 13036 114.175
60.8479 12941 113.759
60.9648 12768 112.996
61.0818 12736 112.854
61.1987 12805 113.159
61.3158 12861 113.406
61.4328 12638 112.419
61.5499 12792 113.102
61.667 12738 112.863
61.7841 12909 113.618
61.9013 12691 112.654
62.0185 12509 111.844
62.1357 12538 111.973
62.253 12590 112.205
62.3702 13160 114.717
62.4875 13853 117.699
62.6049 14159 118.992
62.7222 14446 120.192
62.8396 15171 123.171
62.9569 15744 125.475
63.0743 15532 124.627
63.1918 15476 124.403
63.3092 15504 124.515
63.4267 15321 123.778
63.5441 14917 122.135
63.6616 14748 121.441
63.7791 14243 119.344
63.8966 14203 119.176
64.0142 13923 117.996
64.1317 13933 118.038
64.2492 13312 115.378
64.3668 13159 114.713
64.4843 13190 114.848
64.6019 12815 113.203
64.7195 13147 114.66
64.837 13176 114.787
64.9546 13107 114.486
65.0722 13372 115.637
65.1898 13209 114.93
65.3074 13154 114.691
65.4249 12865 113.424
65.5425 12860 113.402
65.6601 12546 112.009
65.7777 12859 113.398
65.8952 13073 114.337
66.0128 13633 116.76
66.1304 14398 119.992
66.2479 14869 121.939
66.3655 15463 124.35
66.483 15821 125.782
66.6005 16091 126.85
66.718 16117 126.953
66.8355 15901 126.099
66.953 15786 125.642
67.0705 15528 124.611
67.1879 15061 122.723
67.3054 14697 121.231
67.4228 14369 119.871
67.5402 14072 118.625
67.6576 13933 118.038
67.7749 13737 117.205
67.8923 13488 116.138
68.0096 13407 115.789
68.1269 13353 115.555
68.2442 13497 116.177
68.3614 13721 117.137
68.4787 13544 116.379
68.5958 13719 117.128
68.713 13504 116.207
68.8302 13343 115.512
68.9473 13066 114.307
69.0643 12858 113.393
69.1814 12337 111.072
69.2984 12256 110.707
69.4154 12152 110.236
69.5323 12683 112.619
69.6492 13458 116.009
69.7661 13964 118.169
69.8829 14109 118.781
69.9997 14488 120.366
70.1165 14340 119.75
70.2332 14097 118.731
70.3499 13733 117.188
70.4665 12865 113.424
70.5831 12086 109.936
70.6996 10964 104.709
70.8161 9905 99.5239
70.9326 9079 95.2838
71.049 8332 91.2798
71.1653 7620 87.2926
71.2817 7148 84.5458
71.3979 6780 82.3408
71.5141 6374 79.8373
71.6303 5830 76.3544
71.7464 5449 73.8173
71.8624 0 1
71.9784 0 1
72.0944 0 1
72.2102 0 1
72.3261 0 1
72.4418 0 1
72.5575 0 1
72.6732 0 1
75.1054 0 1
75.2209 0 1
75.3365 0 1
75.4521 0 1
75.5678 0 1
75.6835 0 1
75.7993 0 1
75.9151 0 1
76.031 0 1
76.147 10963 104.704
76.263 11682 108.083
76.3791 12054 109.791
76.4952 12099 109.995
76.6113 12331 111.045
76.7276 12388 111.301
76.8438 12470 111.669
76.9601 12663 112.53
77.0765 12388 111.301
77.1929 12875 113.468
77.3093 13103 114.468
77.4258 13699 117.043
77.5423 13659 116.872
77.6589 13415 115.823
77.7755 13753 117.273
77.8921 13807 117.503
78.0088 12849 113.353
78.1256 12376 111.247
78.2423 12009 109.586
78.3591 12051 109.777
78.4759 12506 111.83
78.5928 13658 116.867
78.7097 14083 118.672
78.8266 14534 120.557
78.9436 15534 124.635
79.0606 15524 124.595
79.1776 16145 127.063
79.2946 16579 128.759
79.4117 16877 129.912
79.5288 16907 130.027
79.6459 17020 130.461
79.7631 16194 127.256
79.8802 15639 125.056
79.9974 14889 122.02
80.1147 14599 120.826
80.2319 14739 121.404
80.3491 14607 120.859
80.4664 15055 122.699
80.5837 14868 121.934
80.701 14757 121.478
80.8183 14516 120.482
80.9357 14634 120.971
81.053 15355 123.915
81.1704 15478 124.411
81.2877 15495 124.479
81.4051 15319 123.77
81.5225 15009 122.511
81.6399 14727 121.355
81.7573 13834 117.618
81.8747 13529 116.314
81.9922 13026 114.132
82.1096 13548 116.396
82.227 14781 121.577
82.3444 15963 126.345
82.4619 17071 130.656
82.5793 17222 131.233
82.6967 17457 132.125
82.8142 17912 133.836
82.9316 18361 135.503
83.049 18784 137.055
83.1664 18875 137.386
83.2838 18250 135.093
83.4012 17846 133.589
83.5186 17093 130.74
83.636 16378 127.977
83.7534 16261 127.519
83.8708 16222 127.366
83.9881 16222 127.366
84.1055 16352 127.875
84.2228 16358 127.898
84.3401 16216 127.342
84.4575 16331 127.793
84.5747 16714 129.283
84.692 17340 131.681
84.8093 17771 133.308
84.9265 17303 131.541
85.0437 16849 129.804
85.1609 16380 127.984
85.2781 15433 124.23
85.3952 14940 122.229
85.5123 14558 120.657
85.6294 14457 120.237
85.7465 15124 122.98
85.8636 16251 127.479
85.9806 17299 131.526
86.0976 18177 134.822
86.2145 18332 135.396
86.3315 18783 137.051
86.4484 18986 137.79
86.5652 19347 139.093
86.682 19733 140.474
86.7988 19360 139.14
86.9156 19479 139.567
87.0323 18440 135.794
87.149 18127 134.637
87.2657 17369 131.792
87.3823 17101 130.771
87.4988 16422 128.148
87.6154 15766 125.563
87.7318 14930 122.188
87.8483 14633 120.967
87.9647 13462 116.026
88.081 12791 113.097
88.1973 12037 109.713
88.3136 11457 107.037
88.4298 10593 102.922
88.546 9686 98.4175
88.6621 8956 94.6361
88.7781 7900 88.8819
88.8942 0 1
89.0101 0 1
89.126 0 1
89.2419 0 1
89.3577 0 1
89.4734 0 1
89.5891 0 1
89.7047 0 1
89.8203 0 1
89.9358 0 1
92.3269 0 1
92.4424 0 1
92.558 0 1
92.6736 0 1
92.7893 0 1
92.905 0 1
93.0208 0 1
93.1366 0 1
93.2525 0 1
93.3685 0 1
93.4845 0 1
93.6005 15533 124.631
93.7167 17319 131.602
93.8328 18605 136.4
93.949 19523 139.725
94.0653 20002 141.428
94.1816 20169 142.018
94.2979 19999 141.418
94.4143 19501 139.646
94.5307 18401 135.65
94.6472 17526 132.386
94.7637 17525 132.382
94.8803 17375 131.814
94.9969 18851 137.299
95.1135 19692 140.328
95.2302 20821 144.295
95.3469 21739 147.442
95.4637 22962 151.532
95.5805 23113 152.03
95.6973 23361 152.843
95.8142 23580 153.558
95.9311 23290 152.611
96.048 23787 154.23
96.1649 23305 152.66
96.2819 22682 150.605
96.3989 22213 149.04
96.516 21485 146.578
96.633 22027 148.415
96.7501 21455 146.475
96.8673 21905 148.003
96.9844 21678 147.235
97.1016 21849 147.814
97.2188 21711 147.347
97.336 21979 148.253
97.4532 22599 150.33
97.5704 23046 151.809
97.6877 22960 151.526
97.805 22789 150.96
97.9223 22569 150.23
98.0396 21567 146.857
98.1569 20247 142.292
98.2743 18704 136.763
98.3916 18361 135.503
98.509 18282 135.211
98.6264 19686 140.307
98.7438 20743 144.024
98.8612 22105 148.678
98.9786 23201 152.319
99.096 23917 154.651
99.2134 24349 156.042
99.3308 24987 158.073
99.4482 25897 160.925
99.5656 25969 161.149
99.6831 25620 160.062
99.8005 26042 161.375
99.9179 25016 158.164
100.035 23814 154.318
100.153 23736 154.065
100.27 23495 153.281
100.388 23248 152.473
100.505 22950 151.493
100.622 23080 151.921
100.74 22664 150.546
100.857 22919 151.39
100.975 23189 152.279
101.092 23666 153.838
101.209 24047 155.071
101.327 24404 156.218
101.444 23871 154.502
101.561 23153 152.161
101.679 22077 148.583
101.796 20442 142.976
101.913 19561 139.861
102.03 19351 139.108
102.148 20024 141.506
102.265 20788 144.18
102.382 22866 151.215
102.499 23863 154.477
102.616 25248 158.896
102.733 25610 160.031
102.851 26276 162.099
102.968 26695 163.386
103.085 26625 163.172
103.202 26647 163.239
103.319 26119 161.614
103.436 25235 158.855
103.552 24402 156.211
103.669 23763 154.153
103.786 23391 152.941
103.903 23286 152.598
104.02 23057 151.845
104.137 22999 151.654
104.253 22487 149.957
104.37 23444 153.114
104.487 23329 152.738
104.603 23191 152.286
104.72 23248 152.473
104.836 22375 149.583
104.953 21014 144.962
105.069 19254 138.759
105.186 17309 131.564
105.302 15824 125.793
105.418 14043 118.503
105.535 12860 113.402
105.651 11952 109.325
105.767 11416 106.846
105.883 11292 106.264
105.999 11028 105.014
106.115 0 1
106.231 0 1
106.347 0 1
106.463 0 1
106.579 0 1
106.694 0 1
106.81 0 1
106.926 0 1
107.041 0 1
107.157 0 1
109.576 0 1
109.692 0 1
109.807 0 1
109.923 0 1
110.039 0 1
110.155 0 1
110.27 0 1
110.386 0 1
110.502 0 1
110.618 10505 102.494
110.735 13085 114.39
110.851 15567 124.768
110.967 17476 132.197
111.083 19546 139.807
111.199 21360 146.151
111.316 21999 148.321
111.432 22571 150.236
111.549 23026 151.743
111.665 23037 151.779
111.782 23017 151.714
111.898 22943 151.469
112.015 22611 150.37
112.132 22111 148.698
112.248 21308 145.973
112.365 21592 146.942
112.482 20892 144.541
112.599 21354 146.13
112.716 20989 144.876
112.832 20971 144.814
112.949 20847 144.385
113.066 20877 144.489
113.183 21328 146.041
113.3 22027 148.415
113.417 21865 147.868
113.534 21788 147.608
113.652 20960 144.776
113.769 20350 142.653
113.886 18900 137.477
114.003 17572 132.559
114.12 17031 130.503
114.238 17657 132.88
114.355 18720 136.821
114.472 19243 138.719
114.589 22601 150.336
114.707 23011 151.694
114.824 23634 153.734
114.942 23724 154.026
115.059 23884 154.544
115.176 23669 153.847
115.294 23567 153.515
115.411 23431 153.072
115.529 23298 152.637
115.646 22207 149.02
115.764 21861 147.855
115.881 21671 147.211
115.999 20616 143.583
116.116 20599 143.524
116.234 20539 143.314
116.351 20278 142.401
116.469 20320 142.548
116.586 19861 140.929
116.704 20329 142.58
116.821 21120 145.327
116.939 21371 146.188
117.056 20959 144.772
117.174 20622 143.604
117.291 19812 140.755
117.409 18972 137.739
117.526 17709 133.075
117.644 16989 130.342
117.761 16942 130.161
117.879 17438 132.053
117.996 18685 136.693
118.114 20155 141.968
118.231 21387 146.243
118.349 21914 148.034
118.466 22401 149.67
118.584 22511 150.037
118.701 22496 149.987
118.819 22181 148.933
118.936 21874 147.899
119.053 21698 147.302
119.171 21171 145.503
119.288 20682 143.812
119.405 20613 143.572
119.523 19720 140.428
119.64 19463 139.51
119.757 18895 137.459
119.875 18726 136.843
119.992 18850 137.295
120.109 18367 135.525
120.226 18254 135.107
120.343 18562 136.242
120.46 18991 137.808
120.578 19181 138.495
120.695 18918 137.543
120.812 18783 137.051
120.929 18178 134.826
121.046 16967 130.257
121.163 16354 127.883
121.279 15105 122.902
121.396 14484 120.349
121.513 14155 118.975
121.63 14499 120.412
121.747 15337 123.843
121.863 15973 126.384
121.98 16323 127.761
122.097 16101 126.89
122.213 15417 124.165
122.33 14597 120.818
122.446 13918 117.975
122.563 12815 113.203
122.679 12359 111.171
122.795 11602 107.713
122.912 10893 104.37
123.028 10057 100.285
123.144 9419 97.0515
123.26 8718 93.3702
123.377 0 1
123.493 0 1
123.609 0 1
123.725 0 1
123.84 0 1
123.956 0 1
124.072 0 1
124.188 0 1
124.303 0 1
124.419 0 1
126.852 0 1
126.968 0 1
127.083 0 1
127.199 0 1
127.315 0 1
127.431 0 1
127.547 0 1
127.663 0 1
127.779 0 1
127.895 0 1
128.011 0 1
128.127 0 1
128.243 0 1
128.359 19471 139.539
128.476 19555 139.839
128.592 19410 139.32
128.708 19031 137.953
128.825 18946 137.644
128.941 18731 136.861
129.058 18359 135.495
129.174 18295 135.259
129.291 18517 136.077
129.408 18659 136.598
129.524 18945 137.641
129.641 19228 138.665
129.758 19099 138.199
129.875 18623 136.466
129.992 18715 136.803
130.108 17845 133.585
130.225 16700 129.228
130.342 16330 127.789
130.459 15413 124.149
130.576 15827 125.805
130.693 16175 127.181
130.81 17414 131.962
130.928 18535 136.143
131.045 19516 139.7
131.162 19863 140.936
131.279 20236 142.253
131.396 20111 141.813
131.513 20192 142.099
131.631 19926 141.159
131.748 19798 140.705
131.865 19692 140.328
131.983 19478 139.564
132.1 19253 138.755
132.217 18994 137.819
132.335 18722 136.828
132.452 18647 136.554
132.57 18501 136.018
132.687 18497 136.004
132.804 18633 136.503
132.922 18592 136.352
133.039 18885 137.423
133.157 18803 137.124
133.274 18937 137.612
133.392 19118 138.268
133.509 18560 136.235
133.627 18533 136.136
133.744 18079 134.458
133.862 16924 130.092
133.979 16465 128.316
134.097 16241 127.44
134.214 16312 127.718
134.332 17050 130.576
134.449 18738 136.887
134.567 19974 141.329
134.684 20688 143.833
134.802 21067 145.145
134.919 21291 145.914
135.037 20891 144.537
135.154 20884 144.513
135.272 20969 144.807
135.389 21192 145.575
135.507 21569 146.864
135.624 21401 146.291
135.742 21146 145.417
135.859 20853 144.406
135.977 20759 144.08
136.094 20558 143.381
136.211 20648 143.694
136.329 20912 144.61
136.446 20643 143.677
136.564 20651 143.705
136.681 20751 144.052
136.798 20512 143.22
136.915 20854 144.409
137.033 20633 143.642
137.15 20743 144.024
137.267 20158 141.979
137.384 19170 138.456
137.502 18575 136.29
137.619 17346 131.704
137.736 17105 130.786
137.853 16577 128.752
137.97 17700 133.041
138.087 18780 137.04
138.204 19963 141.29
138.321 20786 144.174
138.438 20664 143.75
138.555 20990 144.879
138.672 20629 143.628
138.788 19895 141.05
138.905 19073 138.105
139.022 18539 136.158
139.139 17857 133.63
139.255 17251 131.343
139.372 16468 128.328
139.488 15125 122.984
139.605 14167 119.025
139.721 13476 116.086
139.838 12613 112.308
139.954 12038 109.718
140.071 11591 107.662
140.187 10821 104.024
140.303 10348 101.725
140.419 9734 98.661
140.535 9184 95.8332
140.652 8975 94.7365
140.768 0 1
140.884 0 1
141 0 1
141.115 0 1
141.231 0 1
141.347 0 1
141.463 0 1
141.578 0 1
141.694 0 1
144.104 0 1
144.219 0 1
144.335 0 1
144.45 0 1
144.566 0 1
144.682 0 1
144.798 0 1
144.914 0 1
145.03 0 1
145.146 15019 122.552
145.262 15572 124.788
145.378 15847 125.885
145.494 15661 125.144
145.61 15823 125.79
145.726 15992 126.459
145.842 15644 125.076
145.959 15954 126.309
146.075 15660 125.14
146.192 15090 122.841
146.308 14503 120.428
146.425 14050 118.533
146.541 13571 116.495
146.658 13706 117.073
146.774 13740 117.218
146.891 14277 119.486
147.008 15465 124.358
147.125 15677 125.208
147.241 16372 127.953
147.358 16422 128.148
147.475 16405 128.082
147.592 16370 127.945
147.709 16203 127.291
147.826 16249 127.472
147.943 16315 127.73
148.06 16401 128.066
148.177 16159 127.118
148.294 16338 127.82
148.411 16198 127.271
148.528 16348 127.859
148.645 15918 126.167
148.762 15956 126.317
148.88 15790 125.658
148.997 16085 126.827
149.114 15385 124.036
149.231 15510 124.539
149.349 15856 125.921
149.466 15534 124.635
149.583 15545 124.68
149.701 15418 124.169
149.818 15241 123.454
149.935 14961 122.315
150.053 14377 119.904
150.17 13963 118.165
150.287 13810 117.516
150.405 13851 117.69
150.522 14073 118.63
150.64 14998 122.466
150.757 15650 125.1
150.875 16193 127.252
150.992 16376 127.969
151.11 16176 127.185
151.227 15844 125.873
151.344 15642 125.068
151.462 15832 125.825
151.579 16395 128.043
151.697 16092 126.854
151.814 16073 126.779
151.932 16028 126.602
152.049 15722 125.387
152.167 16021 126.574
152.284 15812 125.746
152.402 15591 124.864
152.519 15716 125.363
152.636 15363 123.948
152.754 15263 123.544
152.871 15098 122.874
152.989 15270 123.572
153.106 15209 123.325
153.223 15152 123.093
153.341 14851 121.865
153.458 14832 121.787
153.575 14240 119.331
153.693 13795 117.452
153.81 13374 115.646
153.927 13296 115.308
154.044 13426 115.871
154.162 14368 119.867
154.279 14853 121.873
154.396 15190 123.248
154.513 15705 125.32
154.63 16036 126.633
154.747 15605 124.92
154.864 15442 124.266
154.981 15543 124.672
155.098 15286 123.637
155.215 15478 124.411
155.332 15295 123.673
155.449 15208 123.321
155.566 14926 122.172
155.683 14693 121.215
155.8 14681 121.165
155.917 14071 118.621
156.033 13605 116.64
156.15 0 1
156.267 0 1
156.383 0 1
156.5 0 1
156.617 0 1
156.733 0 1
156.85 0 1
156.966 0 1
157.082 0 1
157.199 0 1
157.315 0 1
157.431 0 1
157.547 0 1
157.664 0 1
157.78 0 1
157.896 0 1
158.012 0 1
158.128 0 1
158.244 0 1
158.359 0 1
158.475 0 1
158.591 0 1
158.706 0 1
