
6.15755 0 1
6.2731 0 1
6.3887 0 1
6.50437 0 1
6.62009 0 1
6.73587 0 1
6.8517 0 1
6.96759 0 1
7.08353 0 1
7.19952 0 1
7.31557 0 1
7.43166 0 1
7.54781 0 1
7.664 0 1
7.78024 0 1
7.89653 0 1
8.01286 0 1
8.12924 0 1
8.24567 0 1
8.36213 0 1
8.47864 0 1
8.59519 0 1
8.71178 0 1
8.82841 0 1
8.94508 0 1
9.06179 0 1
9.17853 0 1
9.29531 0 1
9.41212 0 1
9.52897 0 1
9.64584 0 1
9.76276 0 1
9.8797 0 1
9.99667 0 1
10.1137 0 1
10.2307 0 1
10.3478 0 1
10.4648 0 1
10.5819 0 1
10.6991 0 1
10.8162 0 1
10.9334 0 1
11.0506 0 1
11.1678 0 1
11.285 0 1
11.4023 0 1
11.5196 0 1
11.6369 0 1
11.7542 0 1
11.8715 0 1
11.9888 0 1
12.1062 0 1
12.2235 0 1
12.3409 0 1
12.4582 0 1
12.5756 0 1
12.693 0 1
12.8104 0 1
12.9278 0 1
13.0452 0 1
13.1626 0 1
13.28 0 1
13.3974 0 1
13.5149 0 1
13.6323 0 1
13.7497 0 1
13.8671 0 1
13.9845 0 1
14.1019 0 1
14.2193 0 1
14.3367 0 1
14.4541 0 1
14.5714 0 1
14.6888 0 1
14.8062 0 1
14.9235 0 1
15.0408 0 0
15.1581 0 0
15.2755 0 0
15.3927 0 0
15.51 0 0
15.6273 0 0
15.7445 0 0
15.8617 0 0
15.9789 0 0
16.0961 0 0
16.2132 0 0
16.3304 0 0
16.4475 0 0
16.5646 0 0
16.6816 0 0
16.7986 0 0
16.9156 0 0
17.0326 0 0
17.1496 0 0
17.2665 0 0
17.3833 0 0
17.5002 0 0
17.617 0 0
17.7338 0 0
17.8505 0 0
17.9672 0 0
18.0839 0 0
18.2005 0 0
18.3171 0 0
18.4337 0 0
18.5502 0 0
18.6666 0 0
18.7831 0 0
18.8994 0 0
19.0158 0 0
19.1321 0 0
19.2483 0 0
19.3645 0 0
19.4806 0 0
19.5967 0 0
19.7128 0 0
19.8288 0 0
19.9447 0 0
20.0606 0 1
20.1764 0 1
20.2922 0 1
20.4079 0 1
20.5236 0 1
20.6392 0 1
20.7548 0 1
20.8702 0 1
23.3078 0 1
23.4233 0 1
23.539 0 1
23.6547 0 1
23.7704 0 1
23.8862 0 1
24.0021 0 1
24.118 0 1
24.234 0 1
24.35 0 1
24.4661 2272 47.6655
24.5822 2402 49.0102
24.6984 2243 47.3603
24.8146 2273 47.676
24.9309 2290 47.8539
25.0472 2290 47.8539
25.1636 2255 47.4868
25.28 2226 47.1805
25.3965 2295 47.9062
25.513 2406 49.051
25.6296 2565 50.6458
25.7462 2622 51.2055
25.8628 2683 51.7977
25.9795 2705 52.0096
26.0962 2670 51.672
26.213 2761 52.5452
26.3298 2787 52.792
26.4466 2673 51.7011
26.5635 2515 50.1498
26.6804 2630 51.2835
26.7973 2496 49.96
26.9143 2471 49.7092
27.0313 2480 49.7996
27.1483 2579 50.7839
27.2653 2590 50.892
27.3824 2682 51.788
27.4996 2590 50.892
27.6167 2609 51.0784
27.7339 2529 50.2892
27.8511 2500 50
27.9683 2470 49.6991
28.0855 2372 48.7032
28.2028 2351 48.4871
28.3201 2294 47.8957
28.4374 2246 47.392
28.5547 2233 47.2546
28.6721 2104 45.8694
28.7894 2117 46.0109
28.9068 2312 48.0833
29.0242 2270 47.6445
29.1416 2382 48.8057
29.259 2330 48.2701
29.3764 2347 48.4458
29.4939 2419 49.1833
29.6113 2544 50.4381
29.7288 2423 49.224
29.8463 2497 49.97
29.9638 2663 51.6043
30.0812 2546 50.4579
30.1987 2369 48.6724
30.3162 2383 48.816
30.4337 2261 47.55
30.5512 2338 48.3529
30.6687 2370 48.6826
30.7862 2338 48.3529
30.9037 2433 49.3254
31.0212 2493 49.93
31.1387 2436 49.3559
31.2562 2439 49.3862
31.3737 2412 49.1121
31.4912 2390 48.8876
31.6087 2317 48.1352
31.7262 2332 48.2908
31.8436 2266 47.6025
31.9611 2160 46.4758
32.0785 2169 46.5725
32.1959 2028 45.0333
32.3134 2070 45.4973
32.4308 2100 45.8258
32.5482 2136 46.2169
32.6655 2233 47.2546
32.7829 2281 47.7598
32.9002 2364 48.621
33.0176 2309 48.0521
33.1349 2469 49.689
33.2522 2390 48.8876
33.3694 2483 49.8297
33.4867 2429 49.2849
33.6039 2502 50.02
33.7211 2559 50.5866
33.8383 2427 49.2646
33.9554 2297 47.927
34.0725 2209 47
34.1896 2229 47.2123
34.3067 2378 48.7647
34.4237 2301 47.9687
34.5407 2434 49.3356
34.6577 2389 48.8774
34.7746 2482 49.8197
34.8915 2441 49.4065
35.0084 2369 48.6724
35.1252 2260 47.5395
35.242 2371 48.6929
35.3587 2258 47.5184
35.4755 2216 47.0744
35.5921 2109 45.9239
35.7088 2103 45.8585
35.8254 2007 44.7996
35.9419 2102 45.8476
36.0584 2070 45.4973
36.1749 2034 45.0999
36.2913 2023 44.9778
36.4077 2152 46.3897
36.524 2137 46.2277
36.6403 2250 47.4342
36.7565 2323 48.1975
36.8727 2399 48.9796
36.9889 2359 48.5695
37.1049 2385 48.8365
37.221 0 1
37.3369 0 1
37.4529 0 1
37.5687 0 1
37.6845 0 1
37.8003 0 1
37.916 0 1
38.0316 0 1
38.1472 0 1
40.5851 0 1
40.7008 0 1
40.8164 0 1
40.9322 0 1
41.048 0 1
41.1639 0 1
41.2798 0 1
41.3958 0 1
41.5118 0 1
41.6279 0 1
41.744 1646 40.5709
41.8602 1697 41.1947
41.9765 1907 43.6692
42.0928 1893 43.5086
42.2091 1912 43.7264
42.3255 2053 45.31
42.4419 1950 44.1588
42.5584 1955 44.2154
42.675 1773 42.107
42.7915 1800 42.4264
42.9081 1686 41.0609
43.0248 1714 41.4005
43.1415 1798 42.4028
43.2582 1847 42.9767
43.375 1799 42.4146
43.4918 1903 43.6234
43.6087 1866 43.1972
43.7256 1867 43.2088
43.8425 1718 41.4488
43.9595 1740 41.7133
44.0765 1711 41.3642
44.1935 1636 40.4475
44.3106 1593 39.9124
44.4277 1592 39.8999
44.5448 1507 38.8201
44.6619 1439 37.9342
44.7791 1390 37.2827
44.8963 1375 37.081
45.0136 1428 37.7889
45.1308 1473 38.3797
45.2481 1469 38.3275
45.3654 1539 39.2301
45.4827 1562 39.5221
45.6001 1519 38.9744
45.7174 1555 39.4335
45.8348 1552 39.3954
45.9522 1503 38.7685
46.0697 1529 39.1024
46.1871 1481 38.4838
46.3046 1333 36.5103
46.422 1279 35.7631
46.5395 1212 34.8138
46.657 1223 34.9714
46.7745 1365 36.9459
46.892 1425 37.7492
47.0096 1403 37.4566
47.1271 1362 36.9053
47.2446 1363 36.9188
47.3622 1383 37.1887
47.4797 1264 35.5528
47.5973 1280 35.7771
47.7149 1261 35.5106
47.8324 1216 34.8712
47.95 1183 34.3948
48.0675 1081 32.8786
48.1851 1038 32.218
48.3027 1033 32.1403
48.4202 967 31.0966
48.5378 986 31.4006
48.6554 1019 31.9218
48.7729 1014 31.8434
48.8904 1107 33.2716
49.008 1152 33.9411
49.1255 1228 35.0428
49.243 1255 35.426
49.3605 1219 34.9142
49.478 1249 35.3412
49.5955 1180 34.3511
49.713 1139 33.7491
49.8304 1043 32.2955
49.9479 1072 32.7414
50.0653 1067 32.665
50.1827 1207 34.7419
50.3001 1175 34.2783
50.4175 1186 34.4384
50.5348 1303 36.0971
50.6521 1333 36.5103
50.7694 1349 36.7287
50.8867 1390 37.2827
51.004 1402 37.4433
51.1212 1375 37.081
51.2384 1438 37.921
51.3556 1428 37.7889
51.4727 1394 37.3363
51.5899 1365 36.9459
51.707 1344 36.6606
51.824 1321 36.3456
51.9411 1322 36.3593
52.0581 1350 36.7423
52.175 1451 38.092
52.2919 1509 38.8458
52.4088 1631 40.3856
52.5257 1740 41.7133
52.6425 1766 42.0238
52.7593 1780 42.19
52.876 1800 42.4264
52.9927 1869 43.2319
53.1094 1897 43.5546
53.226 1829 42.7668
53.3426 1707 41.3159
53.4591 1707 41.3159
53.5756 1615 40.1871
53.692 1637 40.4599
53.8084 1838 42.8719
53.9248 1917 43.7836
54.0411 2084 45.6508
54.1573 2021 44.9555
54.2735 0 1
54.3896 0 1
54.5057 0 1
54.6217 0 1
54.7377 0 1
54.8537 0 1
54.9695 0 1
55.0853 0 1
55.2011 0 1
55.3168 0 1
55.4324 0 1
57.824 0 1
57.9396 0 1
58.0553 0 1
58.1711 0 1
58.2869 0 1
58.4028 0 1
58.5187 0 1
58.6347 0 1
58.7508 0 1
58.8669 0 1
58.983 2164 46.5188
59.0992 2230 47.2229
59.2155 2457 49.5681
59.3318 2571 50.705
59.4482 2465 49.6488
59.5646 2570 50.6952
59.681 2523 50.2295
59.7975 2487 49.8698
59.9141 2376 48.7442
60.0306 2340 48.3735
60.1473 2362 48.6004
60.2639 2213 47.0425
60.3807 2107 45.9021
60.4974 1972 44.4072
60.6142 1911 43.715
60.731 1973 44.4185
60.8479 2056 45.3431
60.9648 2033 45.0888
61.0818 2143 46.2925
61.1987 2274 47.6865
61.3158 2242 47.3498
61.4328 2286 47.8121
61.5499 2263 47.571
61.667 2301 47.9687
61.7841 2281 47.7598
61.9013 2139 46.2493
62.0185 1948 44.1362
62.1357 1947 44.1248
62.253 1900 43.589
62.3702 2029 45.0444
62.4875 2165 46.5296
62.6049 2285 47.8017
62.7222 2227 47.1911
62.8396 2231 47.2335
62.9569 2238 47.3075
63.0743 2307 48.0312
63.1918 2154 46.4112
63.3092 2211 47.0213
63.4267 2235 47.2758
63.5441 2075 45.5522
63.6616 2075 45.5522
63.7791 1921 43.8292
63.8966 1758 41.9285
64.0142 1704 41.2795
64.1317 1785 42.2493
64.2492 1690 41.1096
64.3668 1691 41.1218
64.4843 1903 43.6234
64.6019 1960 44.2719
64.7195 2030 45.0555
64.837 1990 44.6094
64.9546 2185 46.744
65.0722 2072 45.5192
65.1898 2036 45.1221
65.3074 1980 44.4972
65.4249 1855 43.0697
65.5425 1707 41.3159
65.6601 1675 40.9268
65.7777 1727 41.5572
65.8952 1790 42.3084
66.0128 1849 43
66.1304 1978 44.4747
66.2479 1967 44.3509
66.3655 2134 46.1952
66.483 2163 46.5081
66.6005 2183 46.7226
66.718 2217 47.085
66.8355 2165 46.5296
66.953 2091 45.7275
67.0705 2056 45.3431
67.1879 1956 44.2267
67.3054 1909 43.6921
67.4228 1849 43
67.5402 1713 41.3884
67.6576 1633 40.4104
67.7749 1563 39.5348
67.8923 1637 40.4599
68.0096 1721 41.4849
68.1269 1820 42.6615
68.2442 2041 45.1774
68.3614 2157 46.4435
68.4787 2283 47.7807
68.5958 2331 48.2804
68.713 2412 49.1121
68.8302 2474 49.7393
68.9473 2541 50.4083
69.0643 2519 50.1896
69.1814 2424 49.2341
69.2984 2479 49.7896
69.4154 2571 50.705
69.5323 2873 53.6004
69.6492 3150 56.1249
69.7661 3431 58.5747
69.8829 3711 60.918
69.9997 3906 62.498
70.1165 4118 64.1716
70.2332 4348 65.9394
70.3499 4491 67.0149
70.4665 4585 67.7126
70.5831 4667 68.3154
70.6996 4787 69.1881
70.8161 4866 69.7567
70.9326 4723 68.7241
71.049 4607 67.8749
71.1653 4546 67.424
71.2817 4297 65.5515
71.3979 3948 62.8331
71.5141 4099 64.0234
71.6303 4211 64.8922
71.7464 4246 65.1613
71.8624 0 1
71.9784 0 1
72.0944 0 1
72.2102 0 1
72.3261 0 1
72.4418 0 1
72.5575 0 1
72.6732 0 1
75.1054 0 1
75.2209 0 1
75.3365 0 1
75.4521 0 1
75.5678 0 1
75.6835 0 1
75.7993 0 1
75.9151 0 1
76.031 0 1
76.147 5433 73.7089
76.263 5809 76.2168
76.3791 5712 75.5778
76.4952 5350 73.1437
76.6113 5083 71.2952
76.7276 4739 68.8404
76.8438 4663 68.2862
76.9601 4702 68.5711
77.0765 4819 69.419
77.1929 4986 70.6116
77.3093 5166 71.8749
77.4258 5279 72.6567
77.5423 4978 70.5549
77.6589 4950 70.3562
77.7755 4708 68.6149
77.8921 4484 66.9627
78.0088 4015 63.364
78.1256 3630 60.2495
78.2423 3040 55.1362
78.3591 2957 54.3783
78.4759 2755 52.4881
78.5928 2860 53.479
78.7097 3060 55.3173
78.8266 3095 55.6327
78.9436 3303 57.4717
79.0606 3247 56.9825
79.1776 3144 56.0714
79.2946 3166 56.2672
79.4117 3003 54.7996
79.5288 3015 54.909
79.6459 2805 52.9623
79.7631 2693 51.8941
79.8802 2486 49.8598
79.9974 2240 47.3286
80.1147 2217 47.085
80.2319 1943 44.0795
80.3491 1878 43.3359
80.4664 1752 41.8569
80.5837 1794 42.3556
80.701 1789 42.2966
80.8183 1836 42.8486
80.9357 2022 44.9667
81.053 2076 45.5631
81.1704 2028 45.0333
81.2877 2037 45.1331
81.4051 2095 45.7712
81.5225 2053 45.31
81.6399 1876 43.3128
81.7573 1750 41.833
81.8747 1602 40.025
81.9922 1556 39.4462
82.1096 1623 40.2865
82.227 1642 40.5216
82.3444 1767 42.0357
82.4619 1969 44.3734
82.5793 2050 45.2769
82.6967 2073 45.5302
82.8142 2103 45.8585
82.9316 2170 46.5833
83.049 2179 46.6798
83.1664 2182 46.7119
83.2838 2096 45.7821
83.4012 2143 46.2925
83.5186 2185 46.744
83.636 2031 45.0666
83.7534 2027 45.0222
83.8708 1748 41.8091
83.9881 1810 42.5441
84.1055 1886 43.4281
84.2228 1962 44.2945
84.3401 2071 45.5082
84.4575 2283 47.7807
84.5747 2600 50.9902
84.692 2687 51.8363
84.8093 2829 53.1883
84.9265 2910 53.9444
85.0437 2827 53.1695
85.1609 2902 53.8702
85.2781 2621 51.1957
85.3952 2513 50.1298
85.5123 2396 48.949
85.6294 2513 50.1298
85.7465 2551 50.5074
85.8636 2803 52.9434
85.9806 3112 55.7853
86.0976 3340 57.7927
86.2145 3485 59.0339
86.3315 3607 60.0583
86.4484 3767 61.3759
86.5652 3785 61.5224
86.682 3796 61.6117
86.7988 3940 62.7694
86.9156 3922 62.6259
87.0323 3845 62.0081
87.149 3702 60.8441
87.2657 3495 59.1185
87.3823 3431 58.5747
87.4988 3184 56.4269
87.6154 3207 56.6304
87.7318 3354 57.9137
87.8483 3410 58.3952
87.9647 3872 62.2254
88.081 4008 63.3088
88.1973 4074 63.8279
88.3136 4234 65.0692
88.4298 4298 65.5591
88.546 4144 64.3739
88.6621 4072 63.8122
88.7781 3722 61.0082
88.8942 0 1
89.0101 0 1
89.126 0 1
89.2419 0 1
89.3577 0 1
89.4734 0 1
89.5891 0 1
89.7047 0 1
89.8203 0 1
89.9358 0 1
92.3269 0 1
92.4424 0 1
92.558 0 1
92.6736 0 1
92.7893 0 1
92.905 0 1
93.0208 0 1
93.1366 0 1
93.2525 0 1
93.3685 0 1
93.4845 0 1
93.6005 3302 57.463
93.7167 3106 55.7315
93.8328 3262 57.1139
93.949 3146 56.0892
94.0653 3030 55.0454
94.1816 2780 52.7257
94.2979 2546 50.4579
94.4143 2394 48.9285
94.5307 2259 47.5289
94.6472 2172 46.6047
94.7637 2221 47.1275
94.8803 2318 48.1456
94.9969 2339 48.3632
95.1135 2485 49.8498
95.2302 2695 51.9134
95.3469 2726 52.2111
95.4637 2710 52.0577
95.5805 2684 51.8073
95.6973 2652 51.4976
95.8142 2588 50.8724
95.9311 2583 50.8232
96.048 2435 49.3457
96.1649 2421 49.2037
96.2819 2347 48.4458
96.3989 2228 47.2017
96.516 2123 46.076
96.633 1960 44.2719
96.7501 1959 44.2606
96.8673 1892 43.4971
96.9844 1960 44.2719
97.1016 2087 45.6837
97.2188 2231 47.2335
97.336 2222 47.1381
97.4532 2307 48.0312
97.5704 2256 47.4974
97.6877 2241 47.3392
97.805 2113 45.9674
97.9223 1982 44.5197
98.0396 1969 44.3734
98.1569 1697 41.1947
98.2743 1784 42.2374
98.3916 1762 41.9762
98.509 1758 41.9285
98.6264 2006 44.7884
98.7438 2201 46.9148
98.8612 2284 47.7912
98.9786 2423 49.224
99.096 2404 49.0306
99.2134 2384 48.8262
99.3308 2497 49.97
99.4482 2423 49.224
99.5656 2496 49.96
99.6831 2351 48.4871
99.8005 2300 47.9583
99.9179 2149 46.3573
100.035 2144 46.3033
100.153 1983 44.5309
100.27 1916 43.7721
100.388 1943 44.0795
100.505 2052 45.299
100.622 2057 45.3542
100.74 2156 46.4327
100.857 2256 47.4974
100.975 2260 47.5395
101.092 2317 48.1352
101.209 2313 48.0937
101.327 2296 47.9166
101.444 2149 46.3573
101.561 1986 44.5646
101.679 1981 44.5084
101.796 1803 42.4617
101.913 1892 43.4971
102.03 1933 43.9659
102.148 2079 45.5961
102.265 2457 49.5681
102.382 2189 46.7868
102.499 2511 50.1099
102.616 2502 50.02
102.733 2575 50.7445
102.851 2663 51.6043
102.968 2606 51.049
103.085 2550 50.4975
103.202 2623 51.2152
103.319 2476 49.7594
103.436 2432 49.3153
103.552 2340 48.3735
103.669 2169 46.5725
103.786 2198 46.8828
103.903 2038 45.1442
104.02 2127 46.1194
104.137 2250 47.4342
104.253 2391 48.8979
104.37 2512 50.1199
104.487 2531 50.309
104.603 2585 50.8429
104.72 2539 50.3885
104.836 2486 49.8598
104.953 2426 49.2544
105.069 2179 46.6798
105.186 2125 46.0977
105.302 2065 45.4423
105.418 2062 45.4093
105.535 2200 46.9042
105.651 2407 49.0612
105.767 2583 50.8232
105.883 2664 51.614
105.999 2865 53.5257
106.115 0 1
106.231 0 1
106.347 0 1
106.463 0 1
106.579 0 1
106.694 0 1
106.81 0 1
106.926 0 1
107.041 0 1
107.157 0 1
109.576 0 1
109.692 0 1
109.807 0 1
109.923 0 1
110.039 0 1
110.155 0 1
110.27 0 1
110.386 0 1
110.502 0 1
110.618 2056 45.3431
110.735 2268 47.6235
110.851 2433 49.3254
110.967 2587 50.8626
111.083 2658 51.5558
111.199 2803 52.9434
111.316 2697 51.9326
111.432 2807 52.9811
111.549 2700 51.9615
111.665 2707 52.0288
111.782 2654 51.517
111.898 2609 51.0784
112.015 2482 49.8197
112.132 2249 47.4236
112.248 2230 47.2229
112.365 2097 45.793
112.482 2194 46.8402
112.599 2220 47.1169
112.716 2341 48.3839
112.832 2319 48.156
112.949 2451 49.5076
113.066 2355 48.5283
113.183 2465 49.6488
113.3 2329 48.2597
113.417 2315 48.1144
113.534 2140 46.2601
113.652 2019 44.9333
113.769 1961 44.2832
113.886 1893 43.5086
114.003 1902 43.6119
114.12 2071 45.5082
114.238 2325 48.2183
114.355 2271 47.655
114.472 2521 50.2096
114.589 2351 48.4871
114.707 2520 50.1996
114.824 2536 50.3587
114.942 2583 50.8232
115.059 2691 51.8748
115.176 2685 51.817
115.294 2549 50.4876
115.411 2546 50.4579
115.529 2449 49.4874
115.646 2446 49.4571
115.764 2213 47.0425
115.881 2173 46.6154
115.999 2222 47.1381
116.116 2217 47.085
116.234 2364 48.621
116.351 2411 49.1019
116.469 2479 49.7896
116.586 2453 49.5278
116.704 2457 49.5681
116.821 2462 49.6185
116.939 2423 49.224
117.056 2241 47.3392
117.174 2163 46.5081
117.291 2108 45.913
117.409 1989 44.5982
117.526 2033 45.0888
117.644 2196 46.8615
117.761 2209 47
117.879 2376 48.7442
117.996 2479 49.7896
118.114 2598 50.9706
118.231 2654 51.517
118.349 2650 51.4782
118.466 2804 52.9528
118.584 2721 52.1632
118.701 2714 52.0961
118.819 2731 52.259
118.936 2623 51.2152
119.053 2544 50.4381
119.171 2598 50.9706
119.288 2389 48.8774
119.405 2298 47.9375
119.523 2275 47.697
119.64 2391 48.8979
119.757 2374 48.7237
119.875 2441 49.4065
119.992 2431 49.3052
120.109 2586 50.8527
120.226 2594 50.9313
120.343 2575 50.7445
120.46 2530 50.2991
120.578 2327 48.239
120.695 2390 48.8876
120.812 2303 47.9896
120.929 2132 46.1736
121.046 2094 45.7602
121.163 2078 45.5851
121.279 2065 45.4423
121.396 2286 47.8121
121.513 2388 48.8672
121.63 2499 49.99
121.747 2615 51.1371
121.863 2636 51.342
121.98 2698 51.9423
122.097 2848 53.3667
122.213 2840 53.2917
122.33 2692 51.8845
122.446 2689 51.8556
122.563 2711 52.0673
122.679 2616 51.1468
122.795 2594 50.9313
122.912 2540 50.3984
123.028 2438 49.3761
123.144 2311 48.0729
123.26 2346 48.4355
123.377 0 1
123.493 0 1
123.609 0 1
123.725 0 1
123.84 0 1
123.956 0 1
124.072 0 1
124.188 0 1
124.303 0 1
124.419 0 1
126.852 0 1
126.968 0 1
127.083 0 1
127.199 0 1
127.315 0 1
127.431 0 1
127.547 0 1
127.663 0 1
127.779 0 1
127.895 0 1
128.011 0 1
128.127 0 1
128.243 0 1
128.359 3423 58.5064
128.476 3361 57.9741
128.592 3472 58.9237
128.708 3703 60.8523
128.825 3784 61.5142
128.941 3831 61.8951
129.058 3964 62.9603
129.174 4008 63.3088
129.291 3974 63.0397
129.408 3990 63.1664
129.524 3723 61.0164
129.641 3622 60.1831
129.758 3466 58.8727
129.875 3196 56.5332
129.992 3212 56.6745
130.108 3244 56.9561
130.225 3187 56.4535
130.342 3455 58.7792
130.459 3541 59.5063
130.576 3704 60.8605
130.693 3757 61.2944
130.81 3776 61.4492
130.928 3819 61.7981
131.045 3899 62.442
131.162 4012 63.3404
131.279 4005 63.2851
131.396 3944 62.8013
131.513 3873 62.2334
131.631 3859 62.1208
131.748 3793 61.5873
131.865 3585 59.8749
131.983 3534 59.4475
132.1 3573 59.7746
132.217 3824 61.8385
132.335 3817 61.7819
132.452 3895 62.4099
132.57 3958 62.9126
132.687 3817 61.7819
132.804 3951 62.857
132.922 3811 61.7333
133.039 3676 60.63
133.157 3655 60.4566
133.274 3318 57.6021
133.392 3183 56.4181
133.509 3027 55.0182
133.627 2982 54.6077
133.744 3029 55.0364
133.862 3273 57.2101
133.979 3290 57.3585
134.097 3362 57.9828
134.214 3597 59.975
134.332 3453 58.7622
134.449 3614 60.1166
134.567 3603 60.025
134.684 3779 61.4736
134.802 3815 61.7657
134.919 3775 61.441
135.037 3702 60.8441
135.154 3737 61.131
135.272 3636 60.2993
135.389 3614 60.1166
135.507 3495 59.1185
135.624 3526 59.3801
135.742 3575 59.7913
135.859 3698 60.8112
135.977 3793 61.5873
136.094 3731 61.0819
136.211 3804 61.6766
136.329 3856 62.0967
136.446 3727 61.0492
136.564 3725 61.0328
136.681 3539 59.4895
136.798 3445 58.6941
136.915 3300 57.4456
137.033 3100 55.6776
137.15 3089 55.5788
137.267 3016 54.9181
137.384 3111 55.7763
137.502 3130 55.9464
137.619 3338 57.7754
137.736 3420 58.4808
137.853 3335 57.7495
137.97 3609 60.075
138.087 3541 59.5063
138.204 3644 60.3656
138.321 3737 61.131
138.438 3786 61.5305
138.555 3761 61.327
138.672 3853 62.0725
138.788 3809 61.7171
138.905 3733 61.0983
139.022 3596 59.9667
139.139 3634 60.2827
139.255 3618 60.1498
139.372 3688 60.7289
139.488 3693 60.7701
139.605 3800 61.6441
139.721 3925 62.6498
139.838 3874 62.2415
139.954 3908 62.514
140.071 3840 61.9677
140.187 3810 61.7252
140.303 3684 60.696
140.419 3572 59.7662
140.535 3358 57.9483
140.652 3391 58.2323
140.768 0 1
140.884 0 1
141 0 1
141.115 0 1
141.231 0 1
141.347 0 1
141.463 0 1
141.578 0 1
141.694 0 1
144.104 0 1
144.219 0 1
144.335 0 1
144.45 0 1
144.566 0 1
144.682 0 1
144.798 0 1
144.914 0 1
145.03 0 1
145.146 4006 63.293
145.262 4016 63.3719
145.378 3808 61.709
145.494 3889 62.3618
145.61 3621 60.1747
145.726 3589 59.9083
145.842 3502 59.1777
145.959 3532 59.4306
146.075 3588 59.8999
146.192 3789 61.5549
146.308 4048 63.6239
146.425 4035 63.5216
146.541 4123 64.2106
146.658 4101 64.0391
146.774 4259 65.261
146.891 4411 66.4154
147.008 4390 66.2571
147.125 4469 66.8506
147.241 4524 67.2607
147.358 4418 66.468
147.475 4386 66.2269
147.592 4208 64.8691
147.709 4283 65.4446
147.826 4154 64.4515
147.943 4374 66.1362
148.06 4158 64.4826
148.177 4414 66.4379
148.294 4484 66.9627
148.411 4392 66.2722
148.528 4537 67.3573
148.645 4447 66.6858
148.762 4351 65.9621
148.88 4232 65.0538
148.997 3964 62.9603
149.114 3885 62.3298
149.231 3749 61.2291
149.349 3624 60.1997
149.466 3521 59.338
149.583 3486 59.0424
149.701 3375 58.0948
149.818 3607 60.0583
149.935 3569 59.7411
150.053 3731 61.0819
150.17 3702 60.8441
150.287 3846 62.0161
150.405 3921 62.6179
150.522 3894 62.4019
150.64 3955 62.8888
150.757 4021 63.4114
150.875 3893 62.3939
150.992 3933 62.7136
151.11 3897 62.426
151.227 3833 61.9112
151.344 3720 60.9918
151.462 3782 61.498
151.579 4014 63.3561
151.697 3914 62.562
151.814 4006 63.293
151.932 4128 64.2495
152.049 4082 63.8905
152.167 4112 64.1249
152.284 3995 63.206
152.402 3888 62.3538
152.519 3825 61.8466
152.636 3737 61.131
152.754 3690 60.7454
152.871 3522 59.3464
152.989 3405 58.3524
153.106 3385 58.1808
153.223 3234 56.8683
153.341 3562 59.6825
153.458 3444 58.6856
153.575 3520 59.3296
153.693 3547 59.5567
153.81 3733 61.0983
153.927 3827 61.8628
154.044 3803 61.6685
154.162 4019 63.3956
154.279 4024 63.435
154.396 4078 63.8592
154.513 4235 65.0769
154.63 4130 64.2651
154.747 4053 63.6632
154.864 4047 63.616
154.981 3941 62.7774
155.098 3935 62.7296
155.215 4174 64.6065
155.332 4087 63.9296
155.449 4220 64.9615
155.566 4407 66.3852
155.683 4197 64.7843
155.8 4148 64.405
155.917 4231 65.0461
156.033 4244 65.146
156.15 0 1
156.267 0 1
156.383 0 1
156.5 0 1
156.617 0 1
156.733 0 1
156.85 0 1
156.966 0 1
157.082 0 1
157.199 0 1
157.315 0 1
157.431 0 1
157.547 0 1
157.664 0 1
157.78 0 1
157.896 0 1
158.012 0 1
158.128 0 1
158.244 0 1
158.359 0 1
158.475 0 1
158.591 0 1
158.706 0 1
