
6.15755 0 1
6.2731 0 1
6.3887 0 1
6.50437 0 1
6.62009 0 1
6.73587 0 1
6.8517 0 1
6.96759 0 1
7.08353 0 1
7.19952 0 1
7.31557 0 1
7.43166 0 1
7.54781 0 1
7.664 0 1
7.78024 0 1
7.89653 0 1
8.01286 0 1
8.12924 0 1
8.24567 0 1
8.36213 0 1
8.47864 0 1
8.59519 0 1
8.71178 0 1
8.82841 0 1
8.94508 0 1
9.06179 0 1
9.17853 0 1
9.29531 0 1
9.41212 0 1
9.52897 0 1
9.64584 0 1
9.76276 0 1
9.8797 0 1
9.99667 0 1
10.1137 0 1
10.2307 0 1
10.3478 0 1
10.4648 0 1
10.5819 0 1
10.6991 0 1
10.8162 0 1
10.9334 0 1
11.0506 0 1
11.1678 0 1
11.285 0 1
11.4023 0 1
11.5196 0 1
11.6369 0 1
11.7542 0 1
11.8715 0 1
11.9888 0 1
12.1062 0 1
12.2235 0 1
12.3409 0 1
12.4582 0 1
12.5756 0 1
12.693 0 1
12.8104 0 1
12.9278 0 1
13.0452 0 1
13.1626 0 1
13.28 0 1
13.3974 0 1
13.5149 0 1
13.6323 0 1
13.7497 0 1
13.8671 0 1
13.9845 0 1
14.1019 0 1
14.2193 0 1
14.3367 0 1
14.4541 0 1
14.5714 0 1
14.6888 0 1
14.8062 0 1
14.9235 0 1
15.0408 893 29.8831
15.1581 960 30.9839
15.2755 945 30.7409
15.3927 1011 31.7962
15.51 1015 31.8591
15.6273 873 29.5466
15.7445 934 30.5614
15.8617 928 30.4631
15.9789 858 29.2916
16.0961 938 30.6268
16.2132 883 29.7153
16.3304 842 29.0172
16.4475 811 28.4781
16.5646 904 30.0666
16.6816 823 28.688
16.7986 773 27.8029
16.9156 866 29.4279
17.0326 805 28.3725
17.1496 821 28.6531
17.2665 861 29.3428
17.3833 793 28.1603
17.5002 815 28.5482
17.617 855 29.2404
17.7338 836 28.9137
17.8505 804 28.3549
17.9672 837 28.931
18.0839 869 29.4788
18.2005 854 29.2233
18.3171 824 28.7054
18.4337 829 28.7924
18.5502 810 28.4605
18.6666 822 28.6705
18.7831 785 28.0179
18.8994 802 28.3196
19.0158 765 27.6586
19.1321 729 27
19.2483 708 26.6083
19.3645 702 26.4953
19.4806 645 25.3969
19.5967 687 26.2107
19.7128 631 25.1197
19.8288 554 23.5372
19.9447 510 22.5832
20.0606 0 1
20.1764 0 1
20.2922 0 1
20.4079 0 1
20.5236 0 1
20.6392 0 1
20.7548 0 1
20.8702 0 1
23.3078 0 1
23.4233 0 1
23.539 0 1
23.6547 0 1
23.7704 0 1
23.8862 0 1
24.0021 0 1
24.118 0 1
24.234 0 1
24.35 0 1
24.4661 315 17.7482
24.5822 386 19.6469
24.6984 418 20.445
24.8146 505 22.4722
24.9309 553 23.516
25.0472 563 23.7276
25.1636 703 26.5141
25.28 736 27.1293
25.3965 814 28.5307
25.513 826 28.7402
25.6296 812 28.4956
25.7462 879 29.6479
25.8628 835 28.8964
25.9795 831 28.8271
26.0962 882 29.6985
26.213 877 29.6142
26.3298 807 28.4077
26.4466 786 28.0357
26.5635 751 27.4044
26.6804 767 27.6948
26.7973 697 26.4008
26.9143 736 27.1293
27.0313 668 25.8457
27.1483 640 25.2982
27.2653 741 27.2213
27.3824 760 27.5681
27.4996 728 26.9815
27.6167 738 27.1662
27.7339 682 26.1151
27.8511 683 26.1343
27.9683 719 26.8142
28.0855 769 27.7308
28.2028 721 26.8514
28.3201 776 27.8568
28.4374 713 26.7021
28.5547 751 27.4044
28.6721 690 26.2679
28.7894 730 27.0185
28.9068 809 28.4429
29.0242 793 28.1603
29.1416 743 27.258
29.259 713 26.7021
29.3764 742 27.2397
29.4939 726 26.9444
29.6113 713 26.7021
29.7288 712 26.6833
29.8463 740 27.2029
29.9638 665 25.7876
30.0812 713 26.7021
30.1987 708 26.6083
30.3162 660 25.6905
30.4337 711 26.6646
30.5512 638 25.2587
30.6687 625 25
30.7862 726 26.9444
30.9037 755 27.4773
31.0212 774 27.8209
31.1387 722 26.8701
31.2562 728 26.9815
31.3737 744 27.2764
31.4912 747 27.3313
31.6087 790 28.1069
31.7262 744 27.2764
31.8436 694 26.3439
31.9611 669 25.865
32.0785 647 25.4362
32.1959 631 25.1197
32.3134 634 25.1794
32.4308 662 25.7294
32.5482 681 26.096
32.6655 692 26.3059
32.7829 715 26.7395
32.9002 659 25.671
33.0176 674 25.9615
33.1349 679 26.0576
33.2522 667 25.8263
33.3694 642 25.3377
33.4867 599 24.4745
33.6039 630 25.0998
33.7211 619 24.8797
33.8383 713 26.7021
33.9554 622 24.9399
34.0725 646 25.4165
34.1896 605 24.5967
34.3067 590 24.2899
34.4237 638 25.2587
34.5407 656 25.6125
34.6577 678 26.0384
34.7746 689 26.2488
34.8915 624 24.98
35.0084 698 26.4197
35.1252 687 26.2107
35.242 687 26.2107
35.3587 652 25.5343
35.4755 684 26.1534
35.5921 603 24.5561
35.7088 644 25.3772
35.8254 537 23.1733
35.9419 598 24.454
36.0584 594 24.3721
36.1749 589 24.2693
36.2913 592 24.3311
36.4077 602 24.5357
36.524 567 23.8118
36.6403 575 23.9792
36.7565 573 23.9374
36.8727 480 21.9089
36.9889 474 21.7715
37.1049 385 19.6214
37.221 0 1
37.3369 0 1
37.4529 0 1
37.5687 0 1
37.6845 0 1
37.8003 0 1
37.916 0 1
38.0316 0 1
38.1472 0 1
40.5851 0 1
40.7008 0 1
40.8164 0 1
40.9322 0 1
41.048 0 1
41.1639 0 1
41.2798 0 1
41.3958 0 1
41.5118 0 1
41.6279 0 1
41.744 253 15.906
41.8602 318 17.8326
41.9765 365 19.105
42.0928 410 20.2485
42.2091 452 21.2603
42.3255 486 22.0454
42.4419 529 23
42.5584 477 21.8403
42.675 546 23.3666
42.7915 500 22.3607
42.9081 502 22.4054
43.0248 492 22.1811
43.1415 436 20.8806
43.2582 429 20.7123
43.375 497 22.2935
43.4918 519 22.7816
43.6087 474 21.7715
43.7256 489 22.1133
43.8425 519 22.7816
43.9595 565 23.7697
44.0765 495 22.2486
44.1935 501 22.383
44.3106 513 22.6495
44.4277 497 22.2935
44.5448 463 21.5174
44.6619 450 21.2132
44.7791 496 22.2711
44.8963 454 21.3073
45.0136 490 22.1359
45.1308 550 23.4521
45.2481 513 22.6495
45.3654 520 22.8035
45.4827 524 22.891
45.6001 592 24.3311
45.7174 548 23.4094
45.8348 605 24.5967
45.9522 562 23.7065
46.0697 571 23.8956
46.1871 523 22.8692
46.3046 497 22.2935
46.422 501 22.383
46.5395 459 21.4243
46.657 438 20.9284
46.7745 448 21.166
46.892 520 22.8035
47.0096 468 21.6333
47.1271 550 23.4521
47.2446 528 22.9783
47.3622 515 22.6936
47.4797 547 23.388
47.5973 538 23.1948
47.7149 499 22.3383
47.8324 545 23.3452
47.95 504 22.4499
48.0675 419 20.4695
48.1851 489 22.1133
48.3027 464 21.5407
48.4202 489 22.1133
48.5378 524 22.891
48.6554 475 21.7945
48.7729 510 22.5832
48.8904 496 22.2711
49.008 529 23
49.1255 535 23.1301
49.243 535 23.1301
49.3605 491 22.1585
49.478 505 22.4722
49.5955 477 21.8403
49.713 481 21.9317
49.8304 504 22.4499
49.9479 432 20.7846
50.0653 423 20.567
50.1827 376 19.3907
50.3001 425 20.6155
50.4175 443 21.0476
50.5348 476 21.8174
50.6521 479 21.8861
50.7694 475 21.7945
50.8867 454 21.3073
51.004 504 22.4499
51.1212 513 22.6495
51.2384 495 22.2486
51.3556 499 22.3383
51.4727 431 20.7605
51.5899 424 20.5913
51.707 453 21.2838
51.824 439 20.9523
51.9411 442 21.0238
52.0581 480 21.9089
52.175 452 21.2603
52.2919 508 22.5389
52.4088 487 22.0681
52.5257 465 21.5639
52.6425 501 22.383
52.7593 525 22.9129
52.876 494 22.2261
52.9927 488 22.0907
53.1094 544 23.3238
53.226 498 22.3159
53.3426 517 22.7376
53.4591 479 21.8861
53.5756 431 20.7605
53.692 404 20.0998
53.8084 370 19.2354
53.9248 329 18.1384
54.0411 352 18.7617
54.1573 312 17.6635
54.2735 0 1
54.3896 0 1
54.5057 0 1
54.6217 0 1
54.7377 0 1
54.8537 0 1
54.9695 0 1
55.0853 0 1
55.2011 0 1
55.3168 0 1
55.4324 0 1
57.824 0 1
57.9396 0 1
58.0553 0 1
58.1711 0 1
58.2869 0 1
58.4028 0 1
58.5187 0 1
58.6347 0 1
58.7508 0 1
58.8669 0 1
58.983 935 30.5778
59.0992 982 31.3369
59.2155 968 31.1127
59.3318 966 31.0805
59.4482 921 30.348
59.5646 955 30.9031
59.681 992 31.496
59.7975 996 31.5595
59.9141 964 31.0483
60.0306 939 30.6431
60.1473 995 31.5436
60.2639 902 30.0333
60.3807 885 29.7489
60.4974 914 30.2324
60.6142 916 30.2655
60.731 888 29.7993
60.8479 924 30.3974
60.9648 907 30.1164
61.0818 920 30.3315
61.1987 874 29.5635
61.3158 902 30.0333
61.4328 907 30.1164
61.5499 913 30.2159
61.667 965 31.0644
61.7841 940 30.6594
61.9013 872 29.5296
62.0185 922 30.3645
62.1357 867 29.4449
62.253 788 28.0713
62.3702 781 27.9464
62.4875 734 27.0924
62.6049 701 26.4764
62.7222 695 26.3629
62.8396 690 26.2679
62.9569 718 26.7955
63.0743 740 27.2029
63.1918 643 25.3574
63.3092 653 25.5539
63.4267 602 24.5357
63.5441 621 24.9199
63.6616 586 24.2074
63.7791 540 23.2379
63.8966 567 23.8118
64.0142 483 21.9773
64.1317 529 23
64.2492 583 24.1454
64.3668 548 23.4094
64.4843 558 23.622
64.6019 554 23.5372
64.7195 607 24.6374
64.837 556 23.5797
64.9546 558 23.622
65.0722 585 24.1868
65.1898 592 24.3311
65.3074 638 25.2587
65.4249 626 25.02
65.5425 587 24.2281
65.6601 554 23.5372
65.7777 545 23.3452
65.8952 513 22.6495
66.0128 506 22.4944
66.1304 562 23.7065
66.2479 521 22.8254
66.3655 589 24.2693
66.483 620 24.8998
66.6005 620 24.8998
66.718 620 24.8998
66.8355 591 24.3105
66.953 583 24.1454
67.0705 590 24.2899
67.1879 626 25.02
67.3054 576 24
67.4228 549 23.4307
67.5402 510 22.5832
67.6576 563 23.7276
67.7749 518 22.7596
67.8923 494 22.2261
68.0096 528 22.9783
68.1269 574 23.9583
68.2442 562 23.7065
68.3614 552 23.4947
68.4787 570 23.8747
68.5958 548 23.4094
68.713 544 23.3238
68.8302 597 24.4336
68.9473 605 24.5967
69.0643 597 24.4336
69.1814 601 24.5153
69.2984 577 24.0208
69.4154 561 23.6854
69.5323 498 22.3159
69.6492 471 21.7025
69.7661 534 23.1084
69.8829 565 23.7697
69.9997 548 23.4094
70.1165 570 23.8747
70.2332 612 24.7386
70.3499 571 23.8956
70.4665 549 23.4307
70.5831 511 22.6053
70.6996 476 21.8174
70.8161 436 20.8806
70.9326 405 20.1246
71.049 345 18.5742
71.1653 319 17.8606
71.2817 271 16.4621
71.3979 260 16.1245
71.5141 250 15.8114
71.6303 249 15.7797
71.7464 206 14.3527
71.8624 0 1
71.9784 0 1
72.0944 0 1
72.2102 0 1
72.3261 0 1
72.4418 0 1
72.5575 0 1
72.6732 0 1
75.1054 0 1
75.2209 0 1
75.3365 0 1
75.4521 0 1
75.5678 0 1
75.6835 0 1
75.7993 0 1
75.9151 0 1
76.031 0 1
76.147 364 19.0788
76.263 407 20.1742
76.3791 421 20.5183
76.4952 386 19.6469
76.6113 398 19.9499
76.7276 411 20.2731
76.8438 458 21.4009
76.9601 494 22.2261
77.0765 503 22.4277
77.1929 465 21.5639
77.3093 448 21.166
77.4258 456 21.3542
77.5423 496 22.2711
77.6589 507 22.5167
77.7755 499 22.3383
77.8921 523 22.8692
78.0088 489 22.1133
78.1256 483 21.9773
78.2423 476 21.8174
78.3591 423 20.567
78.4759 468 21.6333
78.5928 401 20.025
78.7097 393 19.8242
78.8266 396 19.8997
78.9436 455 21.3307
79.0606 490 22.1359
79.1776 469 21.6564
79.2946 518 22.7596
79.4117 534 23.1084
79.5288 547 23.388
79.6459 518 22.7596
79.7631 478 21.8632
79.8802 468 21.6333
79.9974 417 20.4206
80.1147 445 21.095
80.2319 434 20.8327
80.3491 472 21.7256
80.4664 456 21.3542
80.5837 454 21.3073
80.701 508 22.5389
80.8183 470 21.6795
80.9357 523 22.8692
81.053 537 23.1733
81.1704 519 22.7816
81.2877 470 21.6795
81.4051 484 22
81.5225 481 21.9317
81.6399 531 23.0434
81.7573 510 22.5832
81.8747 496 22.2711
81.9922 467 21.6102
82.1096 456 21.3542
82.227 426 20.6398
82.3444 429 20.7123
82.4619 404 20.0998
82.5793 460 21.4476
82.6967 451 21.2368
82.8142 531 23.0434
82.9316 522 22.8473
83.049 518 22.7596
83.1664 504 22.4499
83.2838 523 22.8692
83.4012 489 22.1133
83.5186 501 22.383
83.636 504 22.4499
83.7534 404 20.0998
83.8708 460 21.4476
83.9881 481 21.9317
84.1055 471 21.7025
84.2228 503 22.4277
84.3401 506 22.4944
84.4575 479 21.8861
84.5747 506 22.4944
84.692 528 22.9783
84.8093 546 23.3666
84.9265 458 21.4009
85.0437 506 22.4944
85.1609 540 23.2379
85.2781 557 23.6008
85.3952 504 22.4499
85.5123 574 23.9583
85.6294 510 22.5832
85.7465 456 21.3542
85.8636 471 21.7025
85.9806 479 21.8861
86.0976 520 22.8035
86.2145 504 22.4499
86.3315 543 23.3024
86.4484 495 22.2486
86.5652 537 23.1733
86.682 537 23.1733
86.7988 514 22.6716
86.9156 512 22.6274
87.0323 515 22.6936
87.149 489 22.1133
87.2657 432 20.7846
87.3823 508 22.5389
87.4988 497 22.2935
87.6154 502 22.4054
87.7318 426 20.6398
87.8483 476 21.8174
87.9647 433 20.8087
88.081 417 20.4206
88.1973 390 19.7484
88.3136 364 19.0788
88.4298 315 17.7482
88.546 341 18.4662
88.6621 288 16.9706
88.7781 258 16.0624
88.8942 0 1
89.0101 0 1
89.126 0 1
89.2419 0 1
89.3577 0 1
89.4734 0 1
89.5891 0 1
89.7047 0 1
89.8203 0 1
89.9358 0 1
92.3269 0 1
92.4424 0 1
92.558 0 1
92.6736 0 1
92.7893 0 1
92.905 0 1
93.0208 0 1
93.1366 0 1
93.2525 0 1
93.3685 0 1
93.4845 0 1
93.6005 390 19.7484
93.7167 438 20.9284
93.8328 426 20.6398
93.949 458 21.4009
94.0653 454 21.3073
94.1816 521 22.8254
94.2979 495 22.2486
94.4143 558 23.622
94.5307 554 23.5372
94.6472 505 22.4722
94.7637 475 21.7945
94.8803 461 21.4709
94.9969 483 21.9773
95.1135 484 22
95.2302 476 21.8174
95.3469 518 22.7596
95.4637 542 23.2809
95.5805 520 22.8035
95.6973 534 23.1084
95.8142 512 22.6274
95.9311 583 24.1454
96.048 484 22
96.1649 461 21.4709
96.2819 513 22.6495
96.3989 466 21.587
96.516 518 22.7596
96.633 427 20.664
96.7501 548 23.4094
96.8673 502 22.4054
96.9844 526 22.9347
97.1016 515 22.6936
97.2188 553 23.516
97.336 461 21.4709
97.4532 495 22.2486
97.5704 489 22.1133
97.6877 527 22.9565
97.805 539 23.2164
97.9223 552 23.4947
98.0396 533 23.0868
98.1569 502 22.4054
98.2743 495 22.2486
98.3916 514 22.6716
98.509 471 21.7025
98.6264 453 21.2838
98.7438 524 22.891
98.8612 513 22.6495
98.9786 544 23.3238
99.096 561 23.6854
99.2134 525 22.9129
99.3308 519 22.7816
99.4482 561 23.6854
99.5656 567 23.8118
99.6831 531 23.0434
99.8005 563 23.7276
99.9179 500 22.3607
100.035 514 22.6716
100.153 506 22.4944
100.27 541 23.2594
100.388 511 22.6053
100.505 555 23.5584
100.622 550 23.4521
100.74 483 21.9773
100.857 516 22.7156
100.975 523 22.8692
101.092 519 22.7816
101.209 542 23.2809
101.327 576 24
101.444 565 23.7697
101.561 568 23.8328
101.679 522 22.8473
101.796 556 23.5797
101.913 532 23.0651
102.03 523 22.8692
102.148 520 22.8035
102.265 523 22.8692
102.382 535 23.1301
102.499 559 23.6432
102.616 556 23.5797
102.733 594 24.3721
102.851 616 24.8193
102.968 599 24.4745
103.085 605 24.5967
103.202 608 24.6577
103.319 544 23.3238
103.436 572 23.9165
103.552 509 22.561
103.669 579 24.0624
103.786 579 24.0624
103.903 573 23.9374
104.02 580 24.0832
104.137 546 23.3666
104.253 554 23.5372
104.37 537 23.1733
104.487 539 23.2164
104.603 565 23.7697
104.72 574 23.9583
104.836 568 23.8328
104.953 551 23.4734
105.069 490 22.1359
105.186 477 21.8403
105.302 478 21.8632
105.418 439 20.9523
105.535 395 19.8746
105.651 403 20.0749
105.767 358 18.9209
105.883 319 17.8606
105.999 328 18.1108
106.115 0 1
106.231 0 1
106.347 0 1
106.463 0 1
106.579 0 1
106.694 0 1
106.81 0 1
106.926 0 1
107.041 0 1
107.157 0 1
109.576 0 1
109.692 0 1
109.807 0 1
109.923 0 1
110.039 0 1
110.155 0 1
110.27 0 1
110.386 0 1
110.502 0 1
110.618 229 15.1327
110.735 286 16.9115
110.851 336 18.3303
110.967 354 18.8149
111.083 380 19.4936
111.199 454 21.3073
111.316 462 21.4942
111.432 545 23.3452
111.549 575 23.9792
111.665 560 23.6643
111.782 507 22.5167
111.898 531 23.0434
112.015 473 21.7486
112.132 456 21.3542
112.248 466 21.587
112.365 525 22.9129
112.482 507 22.5167
112.599 514 22.6716
112.716 504 22.4499
112.832 501 22.383
112.949 506 22.4944
113.066 463 21.5174
113.183 492 22.1811
113.3 478 21.8632
113.417 519 22.7816
113.534 512 22.6274
113.652 501 22.383
113.769 491 22.1585
113.886 494 22.2261
114.003 519 22.7816
114.12 453 21.2838
114.238 457 21.3776
114.355 440 20.9762
114.472 440 20.9762
114.589 490 22.1359
114.707 484 22
114.824 487 22.0681
114.942 516 22.7156
115.059 482 21.9545
115.176 513 22.6495
115.294 454 21.3073
115.411 393 19.8242
115.529 426 20.6398
115.646 453 21.2838
115.764 449 21.1896
115.881 493 22.2036
115.999 476 21.8174
116.116 438 20.9284
116.234 518 22.7596
116.351 436 20.8806
116.469 415 20.3715
116.586 431 20.7605
116.704 472 21.7256
116.821 452 21.2603
116.939 442 21.0238
117.056 454 21.3073
117.174 453 21.2838
117.291 462 21.4942
117.409 475 21.7945
117.526 445 21.095
117.644 422 20.5426
117.761 411 20.2731
117.879 398 19.9499
117.996 435 20.8567
118.114 445 21.095
118.231 400 20
118.349 428 20.6882
118.466 445 21.095
118.584 457 21.3776
118.701 437 20.9045
118.819 398 19.9499
118.936 395 19.8746
119.053 396 19.8997
119.171 376 19.3907
119.288 393 19.8242
119.405 437 20.9045
119.523 435 20.8567
119.64 429 20.7123
119.757 474 21.7715
119.875 437 20.9045
119.992 414 20.347
120.109 394 19.8494
120.226 449 21.1896
120.343 405 20.1246
120.46 436 20.8806
120.578 452 21.2603
120.695 382 19.5448
120.812 409 20.2237
120.929 409 20.2237
121.046 414 20.347
121.163 369 19.2094
121.279 390 19.7484
121.396 386 19.6469
121.513 407 20.1742
121.63 370 19.2354
121.747 345 18.5742
121.863 344 18.5472
121.98 375 19.3649
122.097 363 19.0526
122.213 384 19.5959
122.33 365 19.105
122.446 342 18.4932
122.563 297 17.2337
122.679 292 17.088
122.795 253 15.906
122.912 236 15.3623
123.028 223 14.9332
123.144 239 15.4596
123.26 225 15
123.377 0 1
123.493 0 1
123.609 0 1
123.725 0 1
123.84 0 1
123.956 0 1
124.072 0 1
124.188 0 1
124.303 0 1
124.419 0 1
126.852 0 1
126.968 0 1
127.083 0 1
127.199 0 1
127.315 0 1
127.431 0 1
127.547 0 1
127.663 0 1
127.779 0 1
127.895 0 1
128.011 0 1
128.127 0 1
128.243 0 1
128.359 416 20.3961
128.476 456 21.3542
128.592 419 20.4695
128.708 436 20.8806
128.825 501 22.383
128.941 440 20.9762
129.058 431 20.7605
129.174 448 21.166
129.291 422 20.5426
129.408 496 22.2711
129.524 484 22
129.641 577 24.0208
129.758 685 26.1725
129.875 819 28.6182
129.992 1067 32.665
130.108 1329 36.4555
130.225 1539 39.2301
130.342 1759 41.9404
130.459 1865 43.1856
130.576 2051 45.288
130.693 2271 47.655
130.81 2322 48.1871
130.928 2620 51.1859
131.045 3034 55.0818
131.162 3361 57.9741
131.279 3750 61.2372
131.396 3836 61.9355
131.513 3849 62.0403
131.631 3598 59.9833
131.748 3217 56.7186
131.865 3359 57.9569
131.983 4248 65.1767
132.1 5262 72.5396
132.217 6154 78.4474
132.335 7047 83.9464
132.452 7994 89.4092
132.57 9258 96.2185
132.687 10503 102.484
132.804 12098 109.991
132.922 13512 116.241
133.039 14691 121.206
133.157 16094 126.862
133.274 17677 132.955
133.392 19359 139.137
133.509 21199 145.599
133.627 23124 152.066
133.744 24461 156.4
133.862 26698 163.395
133.979 28025 167.407
134.097 29162 170.769
134.214 30951 175.929
134.332 32423 180.064
134.449 33599 183.3
134.567 35223 187.678
134.684 36960 192.25
134.802 37804 194.433
134.919 37121 192.668
135.037 34457 185.626
135.154 33043 181.777
135.272 34414 185.51
135.389 37436 193.484
135.507 41767 204.37
135.624 46402 215.411
135.742 49249 221.921
135.859 51058 225.96
135.977 53076 230.382
136.094 54920 234.35
136.211 56702 238.122
136.329 58487 241.841
136.446 59399 243.719
136.564 59950 244.847
136.681 61120 247.225
136.798 59924 244.794
136.915 59429 243.781
137.033 57852 240.524
137.15 55961 236.561
137.267 53395 231.074
137.384 50897 225.604
137.502 49177 221.759
137.619 49155 221.709
137.736 50390 224.477
137.853 49505 222.497
137.97 50127 223.891
138.087 47502 217.95
138.204 45529 213.375
138.321 41615 203.998
138.438 39162 197.894
138.555 39383 198.452
138.672 39332 198.323
138.788 38660 196.621
138.905 36749 191.7
139.022 36041 189.845
139.139 34396 185.462
139.255 32749 180.967
139.372 30678 175.151
139.488 27640 166.253
139.605 24844 157.62
139.721 22296 149.318
139.838 20131 141.884
139.954 18374 135.551
140.071 16871 129.888
140.187 15804 125.714
140.303 14354 119.808
140.419 13399 115.754
140.535 12917 113.653
140.652 12327 111.027
140.768 0 1
140.884 0 1
141 0 1
141.115 0 1
141.231 0 1
141.347 0 1
141.463 0 1
141.578 0 1
141.694 0 1
144.104 0 1
144.219 0 1
144.335 0 1
144.45 0 1
144.566 0 1
144.682 0 1
144.798 0 1
144.914 0 1
145.03 0 1
145.146 4586 67.72
145.262 4765 69.029
145.378 4606 67.8675
145.494 4410 66.4078
145.61 4103 64.0547
145.726 4036 63.5295
145.842 3776 61.4492
145.959 3604 60.0333
146.075 3548 59.5651
146.192 3365 58.0086
146.308 3184 56.4269
146.425 3199 56.5597
146.541 2937 54.1941
146.658 2784 52.7636
146.774 2780 52.7257
146.891 2471 49.7092
147.008 2301 47.9687
147.125 2145 46.3141
147.241 2407 49.0612
147.358 2471 49.7092
147.475 2473 49.7293
147.592 2389 48.8774
147.709 2251 47.4447
147.826 2094 45.7602
147.943 1947 44.1248
148.06 1849 43
148.177 1863 43.1625
148.294 1867 43.2088
148.411 1983 44.5309
148.528 1995 44.6654
148.645 1996 44.6766
148.762 1861 43.1393
148.88 1870 43.2435
148.997 1851 43.0232
149.114 1782 42.2137
149.231 1779 42.1782
149.349 1816 42.6146
149.466 1756 41.9047
149.583 1776 42.1426
149.701 1784 42.2374
149.818 1619 40.2368
149.935 1637 40.4599
150.053 1627 40.3361
150.17 1581 39.7618
150.287 1462 38.2361
150.405 1452 38.1051
150.522 1392 37.3095
150.64 1381 37.1618
150.757 1448 38.0526
150.875 1531 39.128
150.992 1486 38.5487
151.11 1533 39.1535
151.227 1509 38.8458
151.344 1418 37.6563
151.462 1297 36.0139
151.579 1280 35.7771
151.697 1287 35.8748
151.814 1331 36.4829
151.932 1423 37.7227
152.049 1508 38.833
152.167 1529 39.1024
152.284 1540 39.2428
152.402 1595 39.9375
152.519 1640 40.4969
152.636 1597 39.9625
152.754 1494 38.6523
152.871 1594 39.9249
152.989 1512 38.8844
153.106 1569 39.6106
153.223 1478 38.4448
153.341 1491 38.6135
153.458 1483 38.5097
153.575 1420 37.6829
153.693 1496 38.6782
153.81 1407 37.51
153.927 1353 36.7831
154.044 1409 37.5366
154.162 1467 38.3014
154.279 1401 37.4299
154.396 1455 38.1445
154.513 1423 37.7227
154.63 1470 38.3406
154.747 1508 38.833
154.864 1384 37.2022
154.981 1326 36.4143
155.098 1229 35.0571
155.215 1243 35.2562
155.332 1293 35.9583
155.449 1290 35.9166
155.566 1341 36.6197
155.683 1410 37.55
155.8 1336 36.5513
155.917 1381 37.1618
156.033 1398 37.3898
156.15 0 1
156.267 0 1
156.383 0 1
156.5 0 1
156.617 0 1
156.733 0 1
156.85 0 1
156.966 0 1
157.082 0 1
157.199 0 1
157.315 0 1
157.431 0 1
157.547 0 1
157.664 0 1
157.78 0 1
157.896 0 1
158.012 0 1
158.128 0 1
158.244 0 1
158.359 0 1
158.475 0 1
158.591 0 1
158.706 0 1
