
6.15755 0 1
6.2731 0 1
6.3887 0 1
6.50437 0 1
6.62009 0 1
6.73587 0 1
6.8517 0 1
6.96759 0 1
7.08353 0 1
7.19952 0 1
7.31557 0 1
7.43166 0 1
7.54781 0 1
7.664 0 1
7.78024 0 1
7.89653 0 1
8.01286 0 1
8.12924 0 1
8.24567 0 1
8.36213 0 1
8.47864 0 1
8.59519 0 1
8.71178 0 1
8.82841 0 1
8.94508 0 1
9.06179 0 1
9.17853 0 1
9.29531 0 1
9.41212 0 1
9.52897 0 1
9.64584 0 1
9.76276 0 1
9.8797 0 1
9.99667 0 1
10.1137 0 1
10.2307 0 1
10.3478 0 1
10.4648 0 1
10.5819 0 1
10.6991 0 1
10.8162 0 1
10.9334 0 1
11.0506 0 1
11.1678 0 1
11.285 0 1
11.4023 0 1
11.5196 0 1
11.6369 0 1
11.7542 0 1
11.8715 0 1
11.9888 0 1
12.1062 0 1
12.2235 0 1
12.3409 0 1
12.4582 0 1
12.5756 0 1
12.693 0 1
12.8104 0 1
12.9278 0 1
13.0452 0 1
13.1626 0 1
13.28 0 1
13.3974 0 1
13.5149 0 1
13.6323 0 1
13.7497 0 1
13.8671 0 1
13.9845 0 1
14.1019 0 1
14.2193 0 1
14.3367 0 1
14.4541 0 1
14.5714 0 1
14.6888 0 1
14.8062 0 1
14.9235 0 1
15.0408 0 0
15.1581 0 0
15.2755 0 0
15.3927 0 0
15.51 0 0
15.6273 0 0
15.7445 0 0
15.8617 0 0
15.9789 0 0
16.0961 0 0
16.2132 0 0
16.3304 0 0
16.4475 0 0
16.5646 0 0
16.6816 0 0
16.7986 0 0
16.9156 0 0
17.0326 0 0
17.1496 0 0
17.2665 0 0
17.3833 0 0
17.5002 0 0
17.617 0 0
17.7338 0 0
17.8505 0 0
17.9672 0 0
18.0839 0 0
18.2005 0 0
18.3171 0 0
18.4337 0 0
18.5502 0 0
18.6666 0 0
18.7831 0 0
18.8994 0 0
19.0158 0 0
19.1321 0 0
19.2483 0 0
19.3645 0 0
19.4806 0 0
19.5967 0 0
19.7128 0 0
19.8288 0 0
19.9447 0 0
20.0606 0 1
20.1764 0 1
20.2922 0 1
20.4079 0 1
20.5236 0 1
20.6392 0 1
20.7548 0 1
20.8702 0 1
23.3078 0 1
23.4233 0 1
23.539 0 1
23.6547 0 1
23.7704 0 1
23.8862 0 1
24.0021 0 1
24.118 0 1
24.234 0 1
24.35 0 1
24.4661 478 21.8632
24.5822 453 21.2838
24.6984 500 22.3607
24.8146 517 22.7376
24.9309 512 22.6274
25.0472 503 22.4277
25.1636 525 22.9129
25.28 558 23.622
25.3965 556 23.5797
25.513 541 23.2594
25.6296 562 23.7065
25.7462 583 24.1454
25.8628 555 23.5584
25.9795 592 24.3311
26.0962 574 23.9583
26.213 546 23.3666
26.3298 536 23.1517
26.4466 539 23.2164
26.5635 573 23.9374
26.6804 563 23.7276
26.7973 527 22.9565
26.9143 540 23.2379
27.0313 424 20.5913
27.1483 446 21.1187
27.2653 501 22.383
27.3824 506 22.4944
27.4996 515 22.6936
27.6167 472 21.7256
27.7339 479 21.8861
27.8511 438 20.9284
27.9683 501 22.383
28.0855 442 21.0238
28.2028 449 21.1896
28.3201 478 21.8632
28.4374 450 21.2132
28.5547 459 21.4243
28.6721 509 22.561
28.7894 523 22.8692
28.9068 495 22.2486
29.0242 528 22.9783
29.1416 498 22.3159
29.259 525 22.9129
29.3764 570 23.8747
29.4939 494 22.2261
29.6113 530 23.0217
29.7288 522 22.8473
29.8463 542 23.2809
29.9638 500 22.3607
30.0812 481 21.9317
30.1987 490 22.1359
30.3162 503 22.4277
30.4337 498 22.3159
30.5512 402 20.0499
30.6687 404 20.0998
30.7862 429 20.7123
30.9037 424 20.5913
31.0212 450 21.2132
31.1387 438 20.9284
31.2562 426 20.6398
31.3737 446 21.1187
31.4912 434 20.8327
31.6087 419 20.4695
31.7262 451 21.2368
31.8436 451 21.2368
31.9611 467 21.6102
32.0785 460 21.4476
32.1959 477 21.8403
32.3134 502 22.4054
32.4308 490 22.1359
32.5482 464 21.5407
32.6655 478 21.8632
32.7829 489 22.1133
32.9002 515 22.6936
33.0176 517 22.7376
33.1349 520 22.8035
33.2522 484 22
33.3694 483 21.9773
33.4867 507 22.5167
33.6039 491 22.1585
33.7211 480 21.9089
33.8383 438 20.9284
33.9554 514 22.6716
34.0725 435 20.8567
34.1896 453 21.2838
34.3067 423 20.567
34.4237 448 21.166
34.5407 464 21.5407
34.6577 432 20.7846
34.7746 441 21
34.8915 443 21.0476
35.0084 467 21.6102
35.1252 429 20.7123
35.242 427 20.664
35.3587 429 20.7123
35.4755 421 20.5183
35.5921 436 20.8806
35.7088 462 21.4942
35.8254 484 22
35.9419 505 22.4722
36.0584 460 21.4476
36.1749 469 21.6564
36.2913 450 21.2132
36.4077 473 21.7486
36.524 432 20.7846
36.6403 495 22.2486
36.7565 487 22.0681
36.8727 481 21.9317
36.9889 464 21.5407
37.1049 482 21.9545
37.221 0 1
37.3369 0 1
37.4529 0 1
37.5687 0 1
37.6845 0 1
37.8003 0 1
37.916 0 1
38.0316 0 1
38.1472 0 1
40.5851 0 1
40.7008 0 1
40.8164 0 1
40.9322 0 1
41.048 0 1
41.1639 0 1
41.2798 0 1
41.3958 0 1
41.5118 0 1
41.6279 0 1
41.744 376 19.3907
41.8602 363 19.0526
41.9765 414 20.347
42.0928 409 20.2237
42.2091 414 20.347
42.3255 409 20.2237
42.4419 395 19.8746
42.5584 394 19.8494
42.675 402 20.0499
42.7915 396 19.8997
42.9081 399 19.975
43.0248 372 19.2873
43.1415 299 17.2916
43.2582 335 18.303
43.375 340 18.4391
43.4918 376 19.3907
43.6087 382 19.5448
43.7256 394 19.8494
43.8425 359 18.9473
43.9595 349 18.6815
44.0765 331 18.1934
44.1935 334 18.2757
44.3106 369 19.2094
44.4277 388 19.6977
44.5448 383 19.5704
44.6619 372 19.2873
44.7791 375 19.3649
44.8963 343 18.5203
45.0136 316 17.7764
45.1308 317 17.8045
45.2481 341 18.4662
45.3654 356 18.868
45.4827 350 18.7083
45.6001 308 17.5499
45.7174 339 18.412
45.8348 362 19.0263
45.9522 332 18.2209
46.0697 315 17.7482
46.1871 328 18.1108
46.3046 325 18.0278
46.422 304 17.4356
46.5395 302 17.3781
46.657 273 16.5227
46.7745 252 15.8745
46.892 252 15.8745
47.0096 292 17.088
47.1271 295 17.1756
47.2446 273 16.5227
47.3622 265 16.2788
47.4797 263 16.2173
47.5973 238 15.4272
47.7149 253 15.906
47.8324 257 16.0312
47.95 263 16.2173
48.0675 248 15.748
48.1851 281 16.7631
48.3027 268 16.3707
48.4202 266 16.3095
48.5378 268 16.3707
48.6554 270 16.4317
48.7729 290 17.0294
48.8904 254 15.9374
49.008 246 15.6844
49.1255 262 16.1864
49.243 258 16.0624
49.3605 270 16.4317
49.478 318 17.8326
49.5955 256 16
49.713 285 16.8819
49.8304 295 17.1756
49.9479 277 16.6433
50.0653 255 15.9687
50.1827 233 15.2643
50.3001 232 15.2315
50.4175 243 15.5885
50.5348 249 15.7797
50.6521 255 15.9687
50.7694 277 16.6433
50.8867 270 16.4317
51.004 261 16.1555
51.1212 298 17.2627
51.2384 275 16.5831
51.3556 304 17.4356
51.4727 308 17.5499
51.5899 308 17.5499
51.707 330 18.1659
51.824 340 18.4391
51.9411 387 19.6723
52.0581 323 17.9722
52.175 322 17.9444
52.2919 351 18.735
52.4088 366 19.1311
52.5257 318 17.8326
52.6425 348 18.6548
52.7593 387 19.6723
52.876 358 18.9209
52.9927 359 18.9473
53.1094 372 19.2873
53.226 345 18.5742
53.3426 367 19.1572
53.4591 349 18.6815
53.5756 370 19.2354
53.692 383 19.5704
53.8084 341 18.4662
53.9248 322 17.9444
54.0411 318 17.8326
54.1573 301 17.3494
54.2735 0 1
54.3896 0 1
54.5057 0 1
54.6217 0 1
54.7377 0 1
54.8537 0 1
54.9695 0 1
55.0853 0 1
55.2011 0 1
55.3168 0 1
55.4324 0 1
57.824 0 1
57.9396 0 1
58.0553 0 1
58.1711 0 1
58.2869 0 1
58.4028 0 1
58.5187 0 1
58.6347 0 1
58.7508 0 1
58.8669 0 1
58.983 393 19.8242
59.0992 352 18.7617
59.2155 349 18.6815
59.3318 310 17.6068
59.4482 330 18.1659
59.5646 335 18.303
59.681 380 19.4936
59.7975 393 19.8242
59.9141 385 19.6214
60.0306 398 19.9499
60.1473 378 19.4422
60.2639 377 19.4165
60.3807 439 20.9523
60.4974 416 20.3961
60.6142 394 19.8494
60.731 374 19.3391
60.8479 343 18.5203
60.9648 395 19.8746
61.0818 387 19.6723
61.1987 379 19.4679
61.3158 385 19.6214
61.4328 360 18.9737
61.5499 358 18.9209
61.667 378 19.4422
61.7841 370 19.2354
61.9013 350 18.7083
62.0185 356 18.868
62.1357 364 19.0788
62.253 367 19.1572
62.3702 345 18.5742
62.4875 337 18.3576
62.6049 331 18.1934
62.7222 313 17.6918
62.8396 297 17.2337
62.9569 312 17.6635
63.0743 315 17.7482
63.1918 308 17.5499
63.3092 307 17.5214
63.4267 327 18.0831
63.5441 360 18.9737
63.6616 328 18.1108
63.7791 347 18.6279
63.8966 332 18.2209
64.0142 372 19.2873
64.1317 331 18.1934
64.2492 334 18.2757
64.3668 315 17.7482
64.4843 358 18.9209
64.6019 316 17.7764
64.7195 321 17.9165
64.837 308 17.5499
64.9546 327 18.0831
65.0722 300 17.3205
65.1898 311 17.6352
65.3074 311 17.6352
65.4249 327 18.0831
65.5425 338 18.3848
65.6601 320 17.8885
65.7777 352 18.7617
65.8952 330 18.1659
66.0128 315 17.7482
66.1304 285 16.8819
66.2479 276 16.6132
66.3655 250 15.8114
66.483 269 16.4012
66.6005 314 17.72
66.718 311 17.6352
66.8355 297 17.2337
66.953 297 17.2337
67.0705 301 17.3494
67.1879 310 17.6068
67.3054 300 17.3205
67.4228 348 18.6548
67.5402 294 17.1464
67.6576 310 17.6068
67.7749 310 17.6068
67.8923 285 16.8819
68.0096 320 17.8885
68.1269 313 17.6918
68.2442 322 17.9444
68.3614 272 16.4924
68.4787 325 18.0278
68.5958 314 17.72
68.713 279 16.7033
68.8302 276 16.6132
68.9473 291 17.0587
69.0643 290 17.0294
69.1814 288 16.9706
69.2984 255 15.9687
69.4154 317 17.8045
69.5323 322 17.9444
69.6492 287 16.9411
69.7661 259 16.0935
69.8829 289 17
69.9997 234 15.2971
70.1165 255 15.9687
70.2332 240 15.4919
70.3499 280 16.7332
70.4665 254 15.9374
70.5831 264 16.2481
70.6996 292 17.088
70.8161 264 16.2481
70.9326 273 16.5227
71.049 276 16.6132
71.1653 266 16.3095
71.2817 231 15.1987
71.3979 246 15.6844
71.5141 261 16.1555
71.6303 240 15.4919
71.7464 229 15.1327
71.8624 0 1
71.9784 0 1
72.0944 0 1
72.2102 0 1
72.3261 0 1
72.4418 0 1
72.5575 0 1
72.6732 0 1
75.1054 0 1
75.2209 0 1
75.3365 0 1
75.4521 0 1
75.5678 0 1
75.6835 0 1
75.7993 0 1
75.9151 0 1
76.031 0 1
76.147 188 13.7113
76.263 220 14.8324
76.3791 225 15
76.4952 234 15.2971
76.6113 211 14.5258
76.7276 199 14.1067
76.8438 197 14.0357
76.9601 206 14.3527
77.0765 207 14.3875
77.1929 168 12.9615
77.3093 207 14.3875
77.4258 188 13.7113
77.5423 165 12.8452
77.6589 221 14.8661
77.7755 187 13.6748
77.8921 201 14.1774
78.0088 185 13.6015
78.1256 153 12.3693
78.2423 190 13.784
78.3591 165 12.8452
78.4759 171 13.0767
78.5928 195 13.9642
78.7097 175 13.2288
78.8266 180 13.4164
78.9436 147 12.1244
79.0606 153 12.3693
79.1776 93 9.64365
79.2946 121 11
79.4117 128 11.3137
79.5288 126 11.225
79.6459 187 13.6748
79.7631 148 12.1655
79.8802 119 10.9087
79.9974 118 10.8628
80.1147 144 12
80.2319 143 11.9583
80.3491 138 11.7473
80.4664 128 11.3137
80.5837 139 11.7898
80.701 128 11.3137
80.8183 121 11
80.9357 116 10.7703
81.053 118 10.8628
81.1704 107 10.3441
81.2877 112 10.583
81.4051 108 10.3923
81.5225 89 9.43398
81.6399 95 9.74679
81.7573 91 9.53939
81.8747 95 9.74679
81.9922 85 9.21954
82.1096 77 8.77496
82.227 85 9.21954
82.3444 74 8.60233
82.4619 68 8.24621
82.5793 72 8.48528
82.6967 89 9.43398
82.8142 60 7.74597
82.9316 46 6.78233
83.049 60 7.74597
83.1664 65 8.06226
83.2838 59 7.68115
83.4012 62 7.87401
83.5186 49 7
83.636 57 7.54983
83.7534 43 6.55744
83.8708 48 6.9282
83.9881 42 6.48074
84.1055 54 7.34847
84.2228 40 6.32456
84.3401 41 6.40312
84.4575 36 6
84.5747 38 6.16441
84.692 44 6.63325
84.8093 33 5.74456
84.9265 27 5.19615
85.0437 37 6.08276
85.1609 29 5.38516
85.2781 34 5.83095
85.3952 35 5.91608
85.5123 32 5.65685
85.6294 23 4.79583
85.7465 32 5.65685
85.8636 25 5
85.9806 28 5.2915
86.0976 27 5.19615
86.2145 27 5.19615
86.3315 29 5.38516
86.4484 36 6
86.5652 34 5.83095
86.682 36 6
86.7988 50 7.07107
86.9156 54 7.34847
87.0323 48 6.9282
87.149 57 7.54983
87.2657 44 6.63325
87.3823 64 8
87.4988 56 7.48331
87.6154 66 8.12404
87.7318 61 7.81025
87.8483 57 7.54983
87.9647 63 7.93725
88.081 75 8.66025
88.1973 88 9.38083
88.3136 81 9
88.4298 74 8.60233
88.546 79 8.88819
88.6621 99 9.94987
88.7781 98 9.89949
88.8942 0 1
89.0101 0 1
89.126 0 1
89.2419 0 1
89.3577 0 1
89.4734 0 1
89.5891 0 1
89.7047 0 1
89.8203 0 1
89.9358 0 1
92.3269 0 1
92.4424 0 1
92.558 0 1
92.6736 0 1
92.7893 0 1
92.905 0 1
93.0208 0 1
93.1366 0 1
93.2525 0 1
93.3685 0 1
93.4845 0 1
93.6005 168 12.9615
93.7167 133 11.5326
93.8328 143 11.9583
93.949 145 12.0416
94.0653 145 12.0416
94.1816 152 12.3288
94.2979 133 11.5326
94.4143 135 11.619
94.5307 135 11.619
94.6472 144 12
94.7637 128 11.3137
94.8803 124 11.1355
94.9969 114 10.6771
95.1135 114 10.6771
95.2302 108 10.3923
95.3469 87 9.32738
95.4637 76 8.7178
95.5805 68 8.24621
95.6973 101 10.0499
95.8142 133 11.5326
95.9311 127 11.2694
96.048 122 11.0454
96.1649 155 12.4499
96.2819 145 12.0416
96.3989 130 11.4018
96.516 165 12.8452
96.633 152 12.3288
96.7501 158 12.5698
96.8673 168 12.9615
96.9844 151 12.2882
97.1016 192 13.8564
97.2188 169 13
97.336 170 13.0384
97.4532 187 13.6748
97.5704 179 13.3791
97.6877 190 13.784
97.805 202 14.2127
97.9223 182 13.4907
98.0396 194 13.9284
98.1569 178 13.3417
98.2743 214 14.6287
98.3916 208 14.4222
98.509 222 14.8997
98.6264 217 14.7309
98.7438 243 15.5885
98.8612 218 14.7648
98.9786 198 14.0712
99.096 153 12.3693
99.2134 128 11.3137
99.3308 176 13.2665
99.4482 210 14.4914
99.5656 285 16.8819
99.6831 265 16.2788
99.8005 275 16.5831
99.9179 262 16.1864
100.035 303 17.4069
100.153 248 15.748
100.27 273 16.5227
100.388 251 15.843
100.505 301 17.3494
100.622 294 17.1464
100.74 285 16.8819
100.857 273 16.5227
100.975 276 16.6132
101.092 313 17.6918
101.209 312 17.6635
101.327 313 17.6918
101.444 305 17.4642
101.561 287 16.9411
101.679 332 18.2209
101.796 310 17.6068
101.913 341 18.4662
102.03 329 18.1384
102.148 307 17.5214
102.265 359 18.9473
102.382 306 17.4929
102.499 291 17.0587
102.616 256 16
102.733 185 13.6015
102.851 239 15.4596
102.968 293 17.1172
103.085 311 17.6352
103.202 315 17.7482
103.319 309 17.5784
103.436 323 17.9722
103.552 330 18.1659
103.669 289 17
103.786 357 18.8944
103.903 318 17.8326
104.02 306 17.4929
104.137 292 17.088
104.253 350 18.7083
104.37 316 17.7764
104.487 349 18.6815
104.603 329 18.1384
104.72 338 18.3848
104.836 342 18.4932
104.953 329 18.1384
105.069 323 17.9722
105.186 330 18.1659
105.302 330 18.1659
105.418 329 18.1384
105.535 320 17.8885
105.651 321 17.9165
105.767 314 17.72
105.883 295 17.1756
105.999 287 16.9411
106.115 0 1
106.231 0 1
106.347 0 1
106.463 0 1
106.579 0 1
106.694 0 1
106.81 0 1
106.926 0 1
107.041 0 1
107.157 0 1
109.576 0 1
109.692 0 1
109.807 0 1
109.923 0 1
110.039 0 1
110.155 0 1
110.27 0 1
110.386 0 1
110.502 0 1
110.618 242 15.5563
110.735 227 15.0665
110.851 245 15.6525
110.967 228 15.0997
111.083 237 15.3948
111.199 212 14.5602
111.316 196 14
111.432 227 15.0665
111.549 255 15.9687
111.665 226 15.0333
111.782 226 15.0333
111.898 235 15.3297
112.015 235 15.3297
112.132 221 14.8661
112.248 215 14.6629
112.365 208 14.4222
112.482 210 14.4914
112.599 212 14.5602
112.716 212 14.5602
112.832 216 14.6969
112.949 201 14.1774
113.066 202 14.2127
113.183 202 14.2127
113.3 199 14.1067
113.417 184 13.5647
113.534 189 13.7477
113.652 176 13.2665
113.769 183 13.5277
113.886 197 14.0357
114.003 165 12.8452
114.12 186 13.6382
114.238 167 12.9228
114.355 164 12.8062
114.472 184 13.5647
114.589 154 12.4097
114.707 162 12.7279
114.824 169 13
114.942 168 12.9615
115.059 145 12.0416
115.176 173 13.1529
115.294 179 13.3791
115.411 214 14.6287
115.529 197 14.0357
115.646 171 13.0767
115.764 172 13.1149
115.881 160 12.6491
115.999 187 13.6748
116.116 165 12.8452
116.234 151 12.2882
116.351 159 12.6095
116.469 166 12.8841
116.586 178 13.3417
116.704 177 13.3041
116.821 166 12.8841
116.939 180 13.4164
117.056 144 12
117.174 187 13.6748
117.291 159 12.6095
117.409 167 12.9228
117.526 164 12.8062
117.644 188 13.7113
117.761 176 13.2665
117.879 142 11.9164
117.996 160 12.6491
118.114 110 10.4881
118.231 169 13
118.349 164 12.8062
118.466 155 12.4499
118.584 155 12.4499
118.701 180 13.4164
118.819 177 13.3041
118.936 163 12.7671
119.053 177 13.3041
119.171 168 12.9615
119.288 165 12.8452
119.405 174 13.1909
119.523 170 13.0384
119.64 192 13.8564
119.757 176 13.2665
119.875 150 12.2474
119.992 172 13.1149
120.109 150 12.2474
120.226 179 13.3791
120.343 175 13.2288
120.46 191 13.8203
120.578 184 13.5647
120.695 164 12.8062
120.812 186 13.6382
120.929 183 13.5277
121.046 167 12.9228
121.163 185 13.6015
121.279 176 13.2665
121.396 170 13.0384
121.513 159 12.6095
121.63 149 12.2066
121.747 117 10.8167
121.863 104 10.198
121.98 157 12.53
122.097 170 13.0384
122.213 182 13.4907
122.33 200 14.1421
122.446 176 13.2665
122.563 189 13.7477
122.679 208 14.4222
122.795 178 13.3417
122.912 202 14.2127
123.028 203 14.2478
123.144 194 13.9284
123.26 200 14.1421
123.377 0 1
123.493 0 1
123.609 0 1
123.725 0 1
123.84 0 1
123.956 0 1
124.072 0 1
124.188 0 1
124.303 0 1
124.419 0 1
126.852 0 1
126.968 0 1
127.083 0 1
127.199 0 1
127.315 0 1
127.431 0 1
127.547 0 1
127.663 0 1
127.779 0 1
127.895 0 1
128.011 0 1
128.127 0 1
128.243 0 1
128.359 270 16.4317
128.476 210 14.4914
128.592 285 16.8819
128.708 278 16.6733
128.825 266 16.3095
128.941 258 16.0624
129.058 271 16.4621
129.174 256 16
129.291 216 14.6969
129.408 265 16.2788
129.524 253 15.906
129.641 255 15.9687
129.758 282 16.7929
129.875 272 16.4924
129.992 242 15.5563
130.108 226 15.0333
130.225 273 16.5227
130.342 224 14.9666
130.459 204 14.2829
130.576 200 14.1421
130.693 180 13.4164
130.81 161 12.6886
130.928 163 12.7671
131.045 198 14.0712
131.162 268 16.3707
131.279 274 16.5529
131.396 263 16.2173
131.513 259 16.0935
131.631 238 15.4272
131.748 249 15.7797
131.865 279 16.7033
131.983 285 16.8819
132.1 277 16.6433
132.217 264 16.2481
132.335 288 16.9706
132.452 244 15.6205
132.57 260 16.1245
132.687 241 15.5242
132.804 278 16.6733
132.922 252 15.8745
133.039 264 16.2481
133.157 293 17.1172
133.274 254 15.9374
133.392 255 15.9687
133.509 289 17
133.627 300 17.3205
133.744 284 16.8523
133.862 241 15.5242
133.979 252 15.8745
134.097 227 15.0665
134.214 215 14.6629
134.332 203 14.2478
134.449 194 13.9284
134.567 217 14.7309
134.684 221 14.8661
134.802 296 17.2047
134.919 306 17.4929
135.037 298 17.2627
135.154 289 17
135.272 268 16.3707
135.389 290 17.0294
135.507 316 17.7764
135.624 291 17.0587
135.742 279 16.7033
135.859 314 17.72
135.977 303 17.4069
136.094 291 17.0587
136.211 321 17.9165
136.329 322 17.9444
136.446 279 16.7033
136.564 296 17.2047
136.681 289 17
136.798 280 16.7332
136.915 336 18.3303
137.033 324 18
137.15 306 17.4929
137.267 309 17.5784
137.384 320 17.8885
137.502 279 16.7033
137.619 244 15.6205
137.736 263 16.2173
137.853 211 14.5258
137.97 210 14.4914
138.087 244 15.6205
138.204 251 15.843
138.321 254 15.9374
138.438 297 17.2337
138.555 287 16.9411
138.672 340 18.4391
138.788 318 17.8326
138.905 344 18.5472
139.022 310 17.6068
139.139 346 18.6011
139.255 360 18.9737
139.372 359 18.9473
139.488 320 17.8885
139.605 337 18.3576
139.721 338 18.3848
139.838 346 18.6011
139.954 377 19.4165
140.071 317 17.8045
140.187 336 18.3303
140.303 310 17.6068
140.419 341 18.4662
140.535 341 18.4662
140.652 322 17.9444
140.768 0 1
140.884 0 1
141 0 1
141.115 0 1
141.231 0 1
141.347 0 1
141.463 0 1
141.578 0 1
141.694 0 1
144.104 0 1
144.219 0 1
144.335 0 1
144.45 0 1
144.566 0 1
144.682 0 1
144.798 0 1
144.914 0 1
145.03 0 1
145.146 322 17.9444
145.262 326 18.0555
145.378 284 16.8523
145.494 341 18.4662
145.61 301 17.3494
145.726 301 17.3494
145.842 313 17.6918
145.959 276 16.6132
146.075 298 17.2627
146.192 276 16.6132
146.308 267 16.3401
146.425 242 15.5563
146.541 228 15.0997
146.658 257 16.0312
146.774 254 15.9374
146.891 273 16.5227
147.008 258 16.0624
147.125 283 16.8226
147.241 298 17.2627
147.358 324 18
147.475 314 17.72
147.592 289 17
147.709 307 17.5214
147.826 312 17.6635
147.943 340 18.4391
148.06 320 17.8885
148.177 275 16.5831
148.294 324 18
148.411 330 18.1659
148.528 310 17.6068
148.645 327 18.0831
148.762 287 16.9411
148.88 285 16.8819
148.997 299 17.2916
149.114 342 18.4932
149.231 309 17.5784
149.349 330 18.1659
149.466 311 17.6352
149.583 282 16.7929
149.701 289 17
149.818 264 16.2481
149.935 273 16.5227
150.053 259 16.0935
150.17 257 16.0312
150.287 256 16
150.405 253 15.906
150.522 267 16.3401
150.64 282 16.7929
150.757 284 16.8523
150.875 298 17.2627
150.992 286 16.9115
151.11 301 17.3494
151.227 316 17.7764
151.344 317 17.8045
151.462 272 16.4924
151.579 320 17.8885
151.697 303 17.4069
151.814 299 17.2916
151.932 308 17.5499
152.049 320 17.8885
152.167 324 18
152.284 295 17.1756
152.402 315 17.7482
152.519 370 19.2354
152.636 306 17.4929
152.754 346 18.6011
152.871 287 16.9411
152.989 320 17.8885
153.106 328 18.1108
153.223 302 17.3781
153.341 287 16.9411
153.458 266 16.3095
153.575 278 16.6733
153.693 283 16.8226
153.81 280 16.7332
153.927 259 16.0935
154.044 284 16.8523
154.162 284 16.8523
154.279 286 16.9115
154.396 312 17.6635
154.513 334 18.2757
154.63 323 17.9722
154.747 352 18.7617
154.864 343 18.5203
154.981 314 17.72
155.098 349 18.6815
155.215 321 17.9165
155.332 366 19.1311
155.449 313 17.6918
155.566 338 18.3848
155.683 359 18.9473
155.8 321 17.9165
155.917 315 17.7482
156.033 351 18.735
156.15 0 1
156.267 0 1
156.383 0 1
156.5 0 1
156.617 0 1
156.733 0 1
156.85 0 1
156.966 0 1
157.082 0 1
157.199 0 1
157.315 0 1
157.431 0 1
157.547 0 1
157.664 0 1
157.78 0 1
157.896 0 1
158.012 0 1
158.128 0 1
158.244 0 1
158.359 0 1
158.475 0 1
158.591 0 1
158.706 0 1
