
6.15755 0 1
6.2731 0 1
6.3887 0 1
6.50437 0 1
6.62009 0 1
6.73587 0 1
6.8517 0 1
6.96759 0 1
7.08353 0 1
7.19952 0 1
7.31557 0 1
7.43166 0 1
7.54781 0 1
7.664 0 1
7.78024 0 1
7.89653 0 1
8.01286 0 1
8.12924 0 1
8.24567 0 1
8.36213 0 1
8.47864 0 1
8.59519 0 1
8.71178 0 1
8.82841 0 1
8.94508 0 1
9.06179 0 1
9.17853 0 1
9.29531 0 1
9.41212 0 1
9.52897 0 1
9.64584 0 1
9.76276 0 1
9.8797 0 1
9.99667 0 1
10.1137 0 1
10.2307 0 1
10.3478 0 1
10.4648 0 1
10.5819 0 1
10.6991 0 1
10.8162 0 1
10.9334 0 1
11.0506 0 1
11.1678 0 1
11.285 0 1
11.4023 0 1
11.5196 0 1
11.6369 0 1
11.7542 0 1
11.8715 0 1
11.9888 0 1
12.1062 0 1
12.2235 0 1
12.3409 0 1
12.4582 0 1
12.5756 0 1
12.693 0 1
12.8104 0 1
12.9278 0 1
13.0452 0 1
13.1626 0 1
13.28 0 1
13.3974 0 1
13.5149 0 1
13.6323 0 1
13.7497 0 1
13.8671 0 1
13.9845 0 1
14.1019 0 1
14.2193 0 1
14.3367 0 1
14.4541 0 1
14.5714 0 1
14.6888 0 1
14.8062 0 1
14.9235 0 1
15.0408 0 0
15.1581 0 0
15.2755 0 0
15.3927 0 0
15.51 0 0
15.6273 0 0
15.7445 0 0
15.8617 0 0
15.9789 0 0
16.0961 0 0
16.2132 0 0
16.3304 0 0
16.4475 0 0
16.5646 0 0
16.6816 0 0
16.7986 0 0
16.9156 0 0
17.0326 0 0
17.1496 0 0
17.2665 0 0
17.3833 0 0
17.5002 0 0
17.617 0 0
17.7338 0 0
17.8505 0 0
17.9672 0 0
18.0839 0 0
18.2005 0 0
18.3171 0 0
18.4337 0 0
18.5502 0 0
18.6666 0 0
18.7831 0 0
18.8994 0 0
19.0158 0 0
19.1321 0 0
19.2483 0 0
19.3645 0 0
19.4806 0 0
19.5967 0 0
19.7128 0 0
19.8288 0 0
19.9447 0 0
20.0606 0 1
20.1764 0 1
20.2922 0 1
20.4079 0 1
20.5236 0 1
20.6392 0 1
20.7548 0 1
20.8702 0 1
23.3078 0 1
23.4233 0 1
23.539 0 1
23.6547 0 1
23.7704 0 1
23.8862 0 1
24.0021 0 1
24.118 0 1
24.234 0 1
24.35 0 1
24.4661 5529 74.3572
24.5822 5934 77.0325
24.6984 5859 76.5441
24.8146 6037 77.6981
24.9309 6068 77.8974
25.0472 6162 78.4984
25.1636 6237 78.9747
25.28 6321 79.5047
25.3965 6442 80.2621
25.513 6295 79.341
25.6296 6487 80.5419
25.7462 6276 79.2212
25.8628 6174 78.5748
25.9795 6266 79.1581
26.0962 6017 77.5693
26.213 5982 77.3434
26.3298 5737 75.743
26.4466 5805 76.1906
26.5635 5798 76.1446
26.6804 5831 76.361
26.7973 5710 75.5645
26.9143 5469 73.9527
27.0313 5259 72.519
27.1483 5093 71.3653
27.2653 4892 69.9428
27.3824 5044 71.0211
27.4996 5117 71.5332
27.6167 5340 73.0753
27.7339 5504 74.1889
27.8511 5821 76.2955
27.9683 6009 77.5177
28.0855 6031 77.6595
28.2028 6256 79.0949
28.3201 6063 77.8653
28.4374 6104 78.1281
28.5547 6154 78.4474
28.6721 6085 78.0064
28.7894 5997 77.4403
28.9068 5777 76.0066
29.0242 5725 75.6637
29.1416 5658 75.2197
29.259 5751 75.8353
29.3764 5684 75.3923
29.4939 5583 74.7195
29.6113 5543 74.4513
29.7288 5574 74.6592
29.8463 5610 74.8999
29.9638 5604 74.8599
30.0812 5651 75.1731
30.1987 5623 74.9867
30.3162 5626 75.0067
30.4337 5532 74.3774
30.5512 5341 73.0821
30.6687 5069 71.1969
30.7862 4974 70.5266
30.9037 5051 71.0704
31.0212 5463 73.9121
31.1387 5811 76.2299
31.2562 5951 77.1427
31.3737 6258 79.1075
31.4912 6187 78.6575
31.6087 6302 79.3851
31.7262 6318 79.4858
31.8436 6162 78.4984
31.9611 6038 77.7046
32.0785 5829 76.3479
32.1959 5672 75.3127
32.3134 5690 75.4321
32.4308 5589 74.7596
32.5482 5535 74.3976
32.6655 5360 73.212
32.7829 5327 72.9863
32.9002 5278 72.6498
33.0176 5315 72.904
33.1349 5203 72.1318
33.2522 5293 72.753
33.3694 5267 72.5741
33.4867 5405 73.5187
33.6039 5449 73.8173
33.7211 5412 73.5663
33.8383 5613 74.92
33.9554 5715 75.5976
34.0725 5563 74.5855
34.1896 5636 75.0733
34.3067 5460 73.8918
34.4237 5138 71.6798
34.5407 5036 70.9648
34.6577 5070 71.2039
34.7746 5360 73.212
34.8915 5490 74.0945
35.0084 5471 73.9662
35.1252 5606 74.8732
35.242 5698 75.4851
35.3587 5633 75.0533
35.4755 5471 73.9662
35.5921 5549 74.4916
35.7088 5429 73.6817
35.8254 5360 73.212
35.9419 5305 72.8354
36.0584 5339 73.0685
36.1749 5396 73.4575
36.2913 5295 72.7668
36.4077 5154 71.7914
36.524 5195 72.0763
36.6403 5230 72.3187
36.7565 5073 71.225
36.8727 5283 72.6842
36.9889 5235 72.3533
37.1049 5130 71.624
37.221 0 1
37.3369 0 1
37.4529 0 1
37.5687 0 1
37.6845 0 1
37.8003 0 1
37.916 0 1
38.0316 0 1
38.1472 0 1
40.5851 0 1
40.7008 0 1
40.8164 0 1
40.9322 0 1
41.048 0 1
41.1639 0 1
41.2798 0 1
41.3958 0 1
41.5118 0 1
41.6279 0 1
41.744 4340 65.8787
41.8602 4590 67.7495
41.9765 4510 67.1565
42.0928 4748 68.9057
42.2091 4716 68.6731
42.3255 4831 69.5054
42.4419 4731 68.7823
42.5584 4727 68.7532
42.675 4768 69.0507
42.7915 4531 67.3127
42.9081 4379 66.174
43.0248 4179 64.6452
43.1415 3903 62.474
43.2582 3744 61.1882
43.375 3648 60.3987
43.4918 3905 62.49
43.6087 3997 63.2218
43.7256 4198 64.792
43.8425 4234 65.0692
43.9595 4230 65.0385
44.0765 4409 66.4003
44.1935 4307 65.6277
44.3106 4326 65.7723
44.4277 4315 65.6887
44.5448 4187 64.707
44.6619 4196 64.7765
44.7791 4218 64.9461
44.8963 4333 65.8255
45.0136 4173 64.5988
45.1308 4119 64.1794
45.2481 4246 65.1613
45.3654 4115 64.1483
45.4827 4195 64.7688
45.6001 4134 64.2962
45.7174 4061 63.726
45.8348 3850 62.0484
45.9522 3773 61.4248
46.0697 3854 62.0806
46.1871 3639 60.3241
46.3046 3667 60.5558
46.422 3541 59.5063
46.5395 3543 59.5231
46.657 3235 56.8771
46.7745 3096 55.6417
46.892 2853 53.4135
47.0096 2810 53.0094
47.1271 3068 55.3895
47.2446 3113 55.7943
47.3622 3045 55.1815
47.4797 3152 56.1427
47.5973 3093 55.6147
47.7149 3074 55.4437
47.8324 3163 56.2406
47.95 3010 54.8635
48.0675 3055 55.2721
48.1851 3042 55.1543
48.3027 3051 55.2359
48.4202 3052 55.2449
48.5378 3170 56.3028
48.6554 3112 55.7853
48.7729 3213 56.6833
48.8904 3124 55.8928
49.008 3181 56.4004
49.1255 3205 56.6127
49.243 3181 56.4004
49.3605 3243 56.9473
49.478 3198 56.5509
49.5955 3165 56.2583
49.713 3322 57.6368
49.8304 3311 57.5413
49.9479 3417 58.4551
50.0653 3275 57.2276
50.1827 3236 56.8859
50.3001 2922 54.0555
50.4175 2663 51.6043
50.5348 2634 51.3225
50.6521 3029 55.0364
50.7694 3381 58.1464
50.8867 3522 59.3464
51.004 3739 61.1474
51.1212 3835 61.9274
51.2384 3895 62.4099
51.3556 3984 63.1189
51.4727 3955 62.8888
51.5899 4112 64.1249
51.707 4064 63.7495
51.824 4217 64.9384
51.9411 4251 65.1997
52.0581 4349 65.9469
52.175 4287 65.4752
52.2919 4349 65.9469
52.4088 4468 66.8431
52.5257 4452 66.7233
52.6425 4316 65.6963
52.7593 4497 67.0597
52.876 4544 67.4092
52.9927 4543 67.4018
53.1094 4461 66.7907
53.226 4397 66.3099
53.3426 4512 67.1714
53.4591 4576 67.6461
53.5756 4559 67.5204
53.692 4430 66.5582
53.8084 4318 65.7115
53.9248 4178 64.6375
54.0411 3633 60.2744
54.1573 3631 60.2578
54.2735 0 1
54.3896 0 1
54.5057 0 1
54.6217 0 1
54.7377 0 1
54.8537 0 1
54.9695 0 1
55.0853 0 1
55.2011 0 1
55.3168 0 1
55.4324 0 1
57.824 0 1
57.9396 0 1
58.0553 0 1
58.1711 0 1
58.2869 0 1
58.4028 0 1
58.5187 0 1
58.6347 0 1
58.7508 0 1
58.8669 0 1
58.983 4962 70.4415
59.0992 4737 68.8259
59.2155 4457 66.7608
59.3318 4552 67.4685
59.4482 4729 68.7677
59.5646 5018 70.8378
59.681 5298 72.7874
59.7975 5390 73.4166
59.9141 5386 73.3894
60.0306 5663 75.2529
60.1473 5430 73.6885
60.2639 5540 74.4312
60.3807 5316 72.9109
60.4974 5434 73.7157
60.6142 5637 75.08
60.731 5447 73.8038
60.8479 5483 74.0473
60.9648 5670 75.2994
61.0818 5560 74.5654
61.1987 5476 74
61.3158 5475 73.9932
61.4328 5534 74.3909
61.5499 5473 73.9797
61.667 5430 73.6885
61.7841 5475 73.9932
61.9013 5403 73.5051
62.0185 5438 73.7428
62.1357 5378 73.3348
62.253 5221 72.2565
62.3702 5136 71.6659
62.4875 4779 69.1303
62.6049 4481 66.9403
62.7222 4418 66.468
62.8396 4733 68.7968
62.9569 4811 69.3614
63.0743 4987 70.6187
63.1918 5097 71.3933
63.3092 5066 71.1758
63.4267 5387 73.3962
63.5441 5367 73.2598
63.6616 5408 73.5391
63.7791 5261 72.5328
63.8966 5269 72.5879
64.0142 5375 73.3144
64.1317 5343 73.0958
64.2492 5178 71.9583
64.3668 5346 73.1163
64.4843 5244 72.4155
64.6019 5276 72.6361
64.7195 5361 73.2189
64.837 5325 72.9726
64.9546 5330 73.0068
65.0722 5434 73.7157
65.1898 5208 72.1665
65.3074 5197 72.0902
65.4249 5224 72.2772
65.5425 5157 71.8123
65.6601 5166 71.8749
65.7777 5067 71.1829
65.8952 4899 69.9929
66.0128 4834 69.527
66.1304 4407 66.3852
66.2479 4139 64.3351
66.3655 4074 63.8279
66.483 4350 65.9545
66.6005 4753 68.942
66.718 4775 69.1014
66.8355 4992 70.6541
66.953 4951 70.3633
67.0705 5000 70.7107
67.1879 5074 71.232
67.3054 5224 72.2772
67.4228 5223 72.2703
67.5402 5189 72.0347
67.6576 5303 72.8217
67.7749 5090 71.3442
67.8923 5274 72.6223
68.0096 5224 72.2772
68.1269 5254 72.4845
68.2442 5388 73.403
68.3614 5272 72.6085
68.4787 5305 72.8354
68.5958 5395 73.4507
68.713 5331 73.0137
68.8302 5168 71.8888
68.9473 5099 71.4073
69.0643 5237 72.3671
69.1814 5183 71.9931
69.2984 5190 72.0417
69.4154 5267 72.5741
69.5323 5088 71.3302
69.6492 4893 69.95
69.7661 4735 68.8113
69.8829 4453 66.7308
69.9997 4290 65.4981
70.1165 4345 65.9166
70.2332 4656 68.2349
70.3499 4797 69.2604
70.4665 5021 70.859
70.5831 4992 70.6541
70.6996 5051 71.0704
70.8161 5229 72.3118
70.9326 5175 71.9375
71.049 5056 71.1056
71.1653 4986 70.6116
71.2817 5155 71.7983
71.3979 5068 71.1899
71.5141 5007 70.7602
71.6303 4948 70.342
71.7464 4696 68.5274
71.8624 0 1
71.9784 0 1
72.0944 0 1
72.2102 0 1
72.3261 0 1
72.4418 0 1
72.5575 0 1
72.6732 0 1
75.1054 0 1
75.2209 0 1
75.3365 0 1
75.4521 0 1
75.5678 0 1
75.6835 0 1
75.7993 0 1
75.9151 0 1
76.031 0 1
76.147 4406 66.3777
76.263 4911 70.0785
76.3791 5146 71.7356
76.4952 4990 70.6399
76.6113 5023 70.8731
76.7276 5026 70.8943
76.8438 5131 71.631
76.9601 5128 71.6101
77.0765 5166 71.8749
77.1929 5134 71.6519
77.3093 5177 71.9514
77.4258 5226 72.2911
77.5423 5166 71.8749
77.6589 5142 71.7077
77.7755 5149 71.7565
77.8921 5151 71.7705
78.0088 5161 71.8401
78.1256 5161 71.8401
78.2423 5062 71.1477
78.3591 5108 71.4703
78.4759 5183 71.9931
78.5928 5113 71.5052
78.7097 4672 68.352
78.8266 4660 68.2642
78.9436 3968 62.9921
79.0606 3941 62.7774
79.1776 3861 62.1369
79.2946 4391 66.2646
79.4117 4589 67.7422
79.5288 4729 68.7677
79.6459 4870 69.7854
79.7631 4816 69.3974
79.8802 5079 71.2671
79.9974 4978 70.5549
80.1147 5136 71.6659
80.2319 5149 71.7565
80.3491 4897 69.9786
80.4664 5056 71.1056
80.5837 5131 71.631
80.701 5189 72.0347
80.8183 5280 72.6636
80.9357 5190 72.0417
81.053 5090 71.3442
81.1704 5183 71.9931
81.2877 5231 72.3257
81.4051 5187 72.0208
81.5225 5148 71.7496
81.6399 5153 71.7844
81.7573 5165 71.8679
81.8747 5067 71.1829
81.9922 5005 70.746
82.1096 4854 69.6707
82.227 4938 70.2709
82.3444 4844 69.5989
82.4619 4637 68.0955
82.5793 4319 65.7191
82.6967 4098 64.0156
82.8142 3881 62.2977
82.9316 4176 64.622
83.049 4464 66.8132
83.1664 4525 67.2681
83.2838 4754 68.9493
83.4012 4855 69.6778
83.5186 4865 69.7496
83.636 4882 69.8713
83.7534 4874 69.814
83.8708 4952 70.3704
83.9881 4872 69.7997
84.1055 4957 70.406
84.2228 4980 70.5691
84.3401 4953 70.3776
84.4575 5107 71.4633
84.5747 4928 70.1997
84.692 5091 71.3512
84.8093 5067 71.1829
84.9265 4995 70.6753
85.0437 4972 70.5124
85.1609 5119 71.5472
85.2781 4939 70.278
85.3952 4996 70.6824
85.5123 5014 70.8096
85.6294 4884 69.8856
85.7465 4992 70.6541
85.8636 4905 70.0357
85.9806 4905 70.0357
86.0976 4601 67.8307
86.2145 4349 65.9469
86.3315 3883 62.3137
86.4484 4233 65.0615
86.5652 4572 67.6166
86.682 4720 68.7023
86.7988 4894 69.9571
86.9156 4977 70.5479
87.0323 4917 70.1213
87.149 5087 71.3232
87.2657 5163 71.854
87.3823 5274 72.6223
87.4988 5143 71.7147
87.6154 5233 72.3395
87.7318 5303 72.8217
87.8483 5468 73.9459
87.9647 5483 74.0473
88.081 5378 73.3348
88.1973 5521 74.3034
88.3136 5368 73.2666
88.4298 5462 73.9053
88.546 5396 73.4575
88.6621 5339 73.0685
88.7781 5194 72.0694
88.8942 0 1
89.0101 0 1
89.126 0 1
89.2419 0 1
89.3577 0 1
89.4734 0 1
89.5891 0 1
89.7047 0 1
89.8203 0 1
89.9358 0 1
92.3269 0 1
92.4424 0 1
92.558 0 1
92.6736 0 1
92.7893 0 1
92.905 0 1
93.0208 0 1
93.1366 0 1
93.2525 0 1
93.3685 0 1
93.4845 0 1
93.6005 5180 71.9722
93.7167 5236 72.3602
93.8328 5301 72.808
93.949 5269 72.5879
94.0653 5293 72.753
94.1816 5217 72.2288
94.2979 5289 72.7255
94.4143 5268 72.581
94.5307 5250 72.4569
94.6472 5260 72.5259
94.7637 5123 71.5751
94.8803 5237 72.3671
94.9969 5139 71.6868
95.1135 5026 70.8943
95.2302 4974 70.5266
95.3469 4802 69.2965
95.4637 4552 67.4685
95.5805 4351 65.9621
95.6973 4462 66.7982
95.8142 4794 69.2387
95.9311 4860 69.7137
96.048 4992 70.6541
96.1649 5232 72.3326
96.2819 5305 72.8354
96.3989 5535 74.3976
96.516 5514 74.2563
96.633 5664 75.2596
96.7501 5530 74.364
96.8673 5744 75.7892
96.9844 5640 75.0999
97.1016 5680 75.3658
97.2188 5643 75.1199
97.336 5903 76.831
97.4532 5811 76.2299
97.5704 5845 76.4526
97.6877 5777 76.0066
97.805 5638 75.0866
97.9223 5697 75.4785
98.0396 5702 75.5116
98.1569 5570 74.6324
98.2743 5601 74.8398
98.3916 5603 74.8532
98.509 5580 74.6994
98.6264 5551 74.505
98.7438 5479 74.0203
98.8612 5483 74.0473
98.9786 5305 72.8354
99.096 4835 69.5342
99.2134 4718 68.6877
99.3308 4819 69.419
99.4482 5336 73.0479
99.5656 5417 73.6003
99.6831 5374 73.3076
99.8005 5481 74.0338
99.9179 5608 74.8866
100.035 5455 73.858
100.153 5774 75.9868
100.27 5831 76.361
100.388 5772 75.9737
100.505 5851 76.4918
100.622 5854 76.5114
100.74 6031 77.6595
100.857 5962 77.214
100.975 5990 77.3951
101.092 6000 77.4597
101.209 5962 77.214
101.327 6012 77.5371
101.444 6045 77.7496
101.561 5832 76.3675
101.679 5839 76.4133
101.796 5828 76.3413
101.913 5751 75.8353
102.03 5905 76.844
102.148 5664 75.2596
102.265 6056 77.8203
102.382 5470 73.9594
102.499 5478 74.0135
102.616 5306 72.8423
102.733 5060 71.1337
102.851 5025 70.8872
102.968 5218 72.2357
103.085 5432 73.7021
103.202 5456 73.8647
103.319 5726 75.6703
103.436 5730 75.6968
103.552 5849 76.4788
103.669 5903 76.831
103.786 6014 77.55
103.903 5969 77.2593
104.02 6145 78.3901
104.137 6163 78.5048
104.253 6309 79.4292
104.37 6139 78.3518
104.487 6350 79.6869
104.603 6376 79.8499
104.72 6203 78.7591
104.836 6313 79.4544
104.953 6232 78.943
105.069 6082 77.9872
105.186 6044 77.7432
105.302 6022 77.6015
105.418 5962 77.214
105.535 6152 78.4347
105.651 6090 78.0385
105.767 6140 78.3582
105.883 5836 76.3937
105.999 5681 75.3724
106.115 0 1
106.231 0 1
106.347 0 1
106.463 0 1
106.579 0 1
106.694 0 1
106.81 0 1
106.926 0 1
107.041 0 1
107.157 0 1
109.576 0 1
109.692 0 1
109.807 0 1
109.923 0 1
110.039 0 1
110.155 0 1
110.27 0 1
110.386 0 1
110.502 0 1
110.618 5636 75.0733
110.735 5699 75.4917
110.851 5862 76.5637
110.967 5609 74.8933
111.083 5444 73.7835
111.199 5132 71.638
111.316 5059 71.1266
111.432 5101 71.4213
111.549 5248 72.4431
111.665 5368 73.2666
111.782 5341 73.0821
111.898 5512 74.2428
112.015 5638 75.0866
112.132 5602 74.8465
112.248 5816 76.2627
112.365 5823 76.3086
112.482 5908 76.8635
112.599 5745 75.7958
112.716 5891 76.7529
112.832 5914 76.9025
112.949 5940 77.0714
113.066 5840 76.4199
113.183 5850 76.4853
113.3 5829 76.3479
113.417 5740 75.7628
113.534 5681 75.3724
113.652 5601 74.8398
113.769 5539 74.4245
113.886 5522 74.3102
114.003 5406 73.5255
114.12 5383 73.3689
114.238 5357 73.1915
114.355 5222 72.2634
114.472 5255 72.4914
114.589 5012 70.7955
114.707 4722 68.7168
114.824 4480 66.9328
114.942 4495 67.0448
115.059 4626 68.0147
115.176 4874 69.814
115.294 5081 71.2811
115.411 5002 70.7248
115.529 5123 71.5751
115.646 5257 72.5052
115.764 5363 73.2325
115.881 5422 73.6342
115.999 5383 73.3689
116.116 5403 73.5051
116.234 5380 73.3485
116.351 5381 73.3553
116.469 5516 74.2698
116.586 5588 74.7529
116.704 5683 75.3857
116.821 5562 74.5788
116.939 5511 74.2361
117.056 5490 74.0945
117.174 5510 74.2294
117.291 5533 74.3841
117.409 5558 74.552
117.526 5365 73.2462
117.644 5541 74.4379
117.761 5369 73.2735
117.879 5581 74.7061
117.996 5140 71.6938
118.114 5333 73.0274
118.231 5251 72.4638
118.349 4954 70.3847
118.466 4773 69.0869
118.584 4813 69.3758
118.701 4784 69.1665
118.819 4820 69.4262
118.936 4923 70.1641
119.053 5006 70.7531
119.171 5089 71.3372
119.288 5135 71.6589
119.405 5287 72.7118
119.523 5220 72.2496
119.64 5458 73.8783
119.757 5350 73.1437
119.875 5446 73.797
119.992 5455 73.858
120.109 5400 73.4847
120.226 5555 74.5319
120.343 5606 74.8732
120.46 5324 72.9657
120.578 5442 73.7699
120.695 5376 73.3212
120.812 5462 73.9053
120.929 5320 72.9383
121.046 5456 73.8647
121.163 5465 73.9256
121.279 5303 72.8217
121.396 5304 72.8286
121.513 5329 73
121.63 5363 73.2325
121.747 5153 71.7844
121.863 5242 72.4017
121.98 5074 71.232
122.097 4699 68.5493
122.213 4554 67.4833
122.33 4545 67.4166
122.446 4559 67.5204
122.563 4585 67.7126
122.679 4698 68.542
122.795 4933 70.2353
122.912 5051 71.0704
123.028 4991 70.647
123.144 4991 70.647
123.26 5172 71.9166
123.377 0 1
123.493 0 1
123.609 0 1
123.725 0 1
123.84 0 1
123.956 0 1
124.072 0 1
124.188 0 1
124.303 0 1
124.419 0 1
126.852 0 1
126.968 0 1
127.083 0 1
127.199 0 1
127.315 0 1
127.431 0 1
127.547 0 1
127.663 0 1
127.779 0 1
127.895 0 1
128.011 0 1
128.127 0 1
128.243 0 1
128.359 5637 75.08
128.476 5759 75.8881
128.592 5755 75.8617
128.708 5878 76.6681
128.825 5897 76.7919
128.941 5961 77.2075
129.058 6172 78.5621
129.174 6127 78.2752
129.291 6188 78.6638
129.408 6216 78.8416
129.524 6238 78.981
129.641 6237 78.9747
129.758 6295 79.341
129.875 6095 78.0705
129.992 6030 77.6531
130.108 6080 77.9744
130.225 6131 78.3007
130.342 6025 77.6209
130.459 5814 76.2496
130.576 6110 78.1665
130.693 5864 76.5768
130.81 5839 76.4133
130.928 5566 74.6056
131.045 5321 72.9452
131.162 4993 70.6612
131.279 4983 70.5904
131.396 5322 72.952
131.513 5489 74.0878
131.631 5565 74.5989
131.748 5807 76.2037
131.865 5996 77.4338
131.983 5708 75.5513
132.1 5935 77.039
132.217 6130 78.2943
132.335 6053 77.801
132.452 6018 77.5758
132.57 6045 77.7496
132.687 6006 77.4984
132.804 6181 78.6193
132.922 6190 78.6766
133.039 6197 78.721
133.157 6100 78.1025
133.274 6106 78.1409
133.392 6086 78.0128
133.509 6051 77.7882
133.627 6014 77.55
133.744 5986 77.3692
133.862 6013 77.5435
133.979 6110 78.1665
134.097 6073 77.9295
134.214 6132 78.3071
134.332 5875 76.6485
134.449 5791 76.0986
134.567 5484 74.054
134.684 5229 72.3118
134.802 5170 71.9027
134.919 5315 72.904
135.037 5407 73.5323
135.154 5457 73.8715
135.272 5599 74.8265
135.389 5921 76.948
135.507 5935 77.039
135.624 6183 78.6321
135.742 6034 77.6788
135.859 5968 77.2528
135.977 6207 78.7845
136.094 6181 78.6193
136.211 6343 79.643
136.329 6248 79.0443
136.446 6344 79.6492
136.564 6273 79.2023
136.681 6437 80.2309
136.798 6128 78.2815
136.915 6153 78.4411
137.033 6117 78.2113
137.15 6146 78.3964
137.267 6121 78.2368
137.384 6027 77.6338
137.502 5962 77.214
137.619 5973 77.2852
137.736 6044 77.7432
137.853 5883 76.7007
137.97 5855 76.518
138.087 5853 76.5049
138.204 5568 74.619
138.321 5203 72.1318
138.438 5403 73.5051
138.555 5523 74.3169
138.672 5533 74.3841
138.788 5534 74.3909
138.905 5909 76.87
139.022 5996 77.4338
139.139 6096 78.0769
139.255 6083 77.9936
139.372 6241 79
139.488 6015 77.5564
139.605 5899 76.8049
139.721 6060 77.846
139.838 5994 77.4209
139.954 6036 77.6917
140.071 5948 77.1233
140.187 6030 77.6531
140.303 6059 77.8396
140.419 6131 78.3007
140.535 6114 78.1921
140.652 6126 78.2688
140.768 0 1
140.884 0 1
141 0 1
141.115 0 1
141.231 0 1
141.347 0 1
141.463 0 1
141.578 0 1
141.694 0 1
144.104 0 1
144.219 0 1
144.335 0 1
144.45 0 1
144.566 0 1
144.682 0 1
144.798 0 1
144.914 0 1
145.03 0 1
145.146 4892 69.9428
145.262 5018 70.8378
145.378 5059 71.1266
145.494 5028 70.9084
145.61 5156 71.8053
145.726 5157 71.8123
145.842 5259 72.519
145.959 5223 72.2703
146.075 5376 73.3212
146.192 5511 74.2361
146.308 5751 75.8353
146.425 5850 76.4853
146.541 5971 77.2722
146.658 5876 76.6551
146.774 5602 74.8465
146.891 5515 74.263
147.008 5214 72.208
147.125 5063 71.1548
147.241 5279 72.6567
147.358 5136 71.6659
147.475 5090 71.3442
147.592 5108 71.4703
147.709 5333 73.0274
147.826 5227 72.298
147.943 5220 72.2496
148.06 5048 71.0493
148.177 5051 71.0704
148.294 4880 69.857
148.411 4869 69.7782
148.528 4928 70.1997
148.645 4803 69.3037
148.762 4903 70.0214
148.88 4807 69.3325
148.997 4658 68.2495
149.114 5181 71.9792
149.231 5063 71.1548
149.349 5095 71.3793
149.466 5099 71.4073
149.583 4994 70.6682
149.701 5036 70.9648
149.818 5367 73.2598
149.935 5302 72.8148
150.053 5283 72.6842
150.17 5195 72.0763
150.287 5172 71.9166
150.405 5041 71
150.522 4761 69
150.64 4562 67.5426
150.757 4559 67.5204
150.875 4406 66.3777
150.992 4369 66.0984
151.11 4382 66.1967
151.227 4559 67.5204
151.344 4712 68.644
151.462 4708 68.6149
151.579 4866 69.7567
151.697 4903 70.0214
151.814 4875 69.8212
151.932 4857 69.6922
152.049 4931 70.2211
152.167 4981 70.5762
152.284 4937 70.2638
152.402 5007 70.7602
152.519 5088 71.3302
152.636 5069 71.1969
152.754 5146 71.7356
152.871 5178 71.9583
152.989 5073 71.225
153.106 5313 72.8903
153.223 5223 72.2703
153.341 5297 72.7805
153.458 5160 71.8331
153.575 5258 72.5121
153.693 5253 72.4776
153.81 5078 71.2601
153.927 4910 70.0714
154.044 5014 70.8096
154.162 4705 68.593
154.279 4619 67.9632
154.396 4699 68.5493
154.513 4760 68.9928
154.63 4633 68.0661
154.747 4749 68.913
154.864 4661 68.2715
154.981 4889 69.9214
155.098 5153 71.7844
155.215 5076 71.2461
155.332 5152 71.7774
155.449 5253 72.4776
155.566 5319 72.9315
155.683 5158 71.8192
155.8 5224 72.2772
155.917 5212 72.1942
156.033 5205 72.1457
156.15 0 1
156.267 0 1
156.383 0 1
156.5 0 1
156.617 0 1
156.733 0 1
156.85 0 1
156.966 0 1
157.082 0 1
157.199 0 1
157.315 0 1
157.431 0 1
157.547 0 1
157.664 0 1
157.78 0 1
157.896 0 1
158.012 0 1
158.128 0 1
158.244 0 1
158.359 0 1
158.475 0 1
158.591 0 1
158.706 0 1
