
6.15755 0 1
6.2731 0 1
6.3887 0 1
6.50437 0 1
6.62009 0 1
6.73587 0 1
6.8517 0 1
6.96759 0 1
7.08353 0 1
7.19952 0 1
7.31557 0 1
7.43166 0 1
7.54781 0 1
7.664 0 1
7.78024 0 1
7.89653 0 1
8.01286 0 1
8.12924 0 1
8.24567 0 1
8.36213 0 1
8.47864 0 1
8.59519 0 1
8.71178 0 1
8.82841 0 1
8.94508 0 1
9.06179 0 1
9.17853 0 1
9.29531 0 1
9.41212 0 1
9.52897 0 1
9.64584 0 1
9.76276 0 1
9.8797 0 1
9.99667 0 1
10.1137 0 1
10.2307 0 1
10.3478 0 1
10.4648 0 1
10.5819 0 1
10.6991 0 1
10.8162 0 1
10.9334 0 1
11.0506 0 1
11.1678 0 1
11.285 0 1
11.4023 0 1
11.5196 0 1
11.6369 0 1
11.7542 0 1
11.8715 0 1
11.9888 0 1
12.1062 0 1
12.2235 0 1
12.3409 0 1
12.4582 0 1
12.5756 0 1
12.693 0 1
12.8104 0 1
12.9278 0 1
13.0452 0 1
13.1626 0 1
13.28 0 1
13.3974 0 1
13.5149 0 1
13.6323 0 1
13.7497 0 1
13.8671 0 1
13.9845 0 1
14.1019 0 1
14.2193 0 1
14.3367 0 1
14.4541 0 1
14.5714 0 1
14.6888 0 1
14.8062 0 1
14.9235 0 1
15.0408 1669 40.8534
15.1581 1766 42.0238
15.2755 1863 43.1625
15.3927 1902 43.6119
15.51 1867 43.2088
15.6273 1759 41.9404
15.7445 1820 42.6615
15.8617 1715 41.4126
15.9789 1723 41.509
16.0961 1693 41.1461
16.2132 1706 41.3038
16.3304 1795 42.3674
16.4475 1864 43.1741
16.5646 1907 43.6692
16.6816 1986 44.5646
16.7986 2160 46.4758
16.9156 2248 47.4131
17.0326 2427 49.2646
17.1496 2402 49.0102
17.2665 2527 50.2693
17.3833 2486 49.8598
17.5002 2459 49.5883
17.617 2473 49.7293
17.7338 2505 50.05
17.8505 2566 50.6557
17.9672 2604 51.0294
18.0839 2651 51.4879
18.2005 2573 50.7247
18.3171 2720 52.1536
18.4337 2583 50.8232
18.5502 2704 52
18.6666 2573 50.7247
18.7831 2683 51.7977
18.8994 2663 51.6043
19.0158 2634 51.3225
19.1321 2542 50.4183
19.2483 2476 49.7594
19.3645 2436 49.3559
19.4806 2396 48.949
19.5967 2302 47.9792
19.7128 2159 46.465
19.8288 1911 43.715
19.9447 1636 40.4475
20.0606 0 1
20.1764 0 1
20.2922 0 1
20.4079 0 1
20.5236 0 1
20.6392 0 1
20.7548 0 1
20.8702 0 1
23.3078 0 1
23.4233 0 1
23.539 0 1
23.6547 0 1
23.7704 0 1
23.8862 0 1
24.0021 0 1
24.118 0 1
24.234 0 1
24.35 0 1
24.4661 2359 48.5695
24.5822 2381 48.7955
24.6984 2312 48.0833
24.8146 2340 48.3735
24.9309 2305 48.0104
25.0472 2141 46.2709
25.1636 1996 44.6766
25.28 1929 43.9204
25.3965 2046 45.2327
25.513 2089 45.7056
25.6296 2311 48.0729
25.7462 2548 50.4777
25.8628 2690 51.8652
25.9795 2792 52.8394
26.0962 2850 53.3854
26.213 2764 52.5738
26.3298 2751 52.45
26.4466 2719 52.144
26.5635 2731 52.259
26.6804 2840 53.2917
26.7973 2845 53.3385
26.9143 2837 53.2635
27.0313 2739 52.3355
27.1483 2790 52.8205
27.2653 2766 52.5928
27.3824 2708 52.0384
27.4996 2714 52.0961
27.6167 2744 52.3832
27.7339 2671 51.6817
27.8511 2574 50.7346
27.9683 2599 50.9804
28.0855 2487 49.8698
28.2028 2519 50.1896
28.3201 2434 49.3356
28.4374 2376 48.7442
28.5547 2239 47.3181
28.6721 1979 44.486
28.7894 1840 42.8952
28.9068 1861 43.1393
29.0242 2001 44.7325
29.1416 2092 45.7384
29.259 2242 47.3498
29.3764 2501 50.01
29.4939 2674 51.7107
29.6113 2549 50.4876
29.7288 2769 52.6213
29.8463 2775 52.6783
29.9638 2649 51.4684
30.0812 2647 51.449
30.1987 2671 51.6817
30.3162 2682 51.788
30.4337 2724 52.192
30.5512 2677 51.7397
30.6687 2651 51.4879
30.7862 2716 52.1153
30.9037 2603 51.0196
31.0212 2695 51.9134
31.1387 2615 51.1371
31.2562 2626 51.2445
31.3737 2576 50.7543
31.4912 2539 50.3885
31.6087 2541 50.4083
31.7262 2574 50.7346
31.8436 2615 51.1371
31.9611 2493 49.93
32.0785 2286 47.8121
32.1959 2029 45.0444
32.3134 1950 44.1588
32.4308 1834 42.8252
32.5482 1921 43.8292
32.6655 2115 45.9891
32.7829 2241 47.3392
32.9002 2436 49.3559
33.0176 2576 50.7543
33.1349 2545 50.448
33.2522 2641 51.3907
33.3694 2592 50.9117
33.4867 2636 51.342
33.6039 2653 51.5073
33.7211 2643 51.4101
33.8383 2718 52.1344
33.9554 2597 50.9608
34.0725 2684 51.8073
34.1896 2612 51.1077
34.3067 2494 49.94
34.4237 2571 50.705
34.5407 2571 50.705
34.6577 2505 50.05
34.7746 2573 50.7247
34.8915 2534 50.3389
35.0084 2555 50.547
35.1252 2419 49.1833
35.242 2531 50.309
35.3587 2529 50.2892
35.4755 2615 51.1371
35.5921 2461 49.6085
35.7088 2297 47.927
35.8254 2191 46.8081
35.9419 1929 43.9204
36.0584 1773 42.107
36.1749 1850 43.0116
36.2913 1911 43.715
36.4077 1968 44.3621
36.524 2133 46.1844
36.6403 2292 47.8748
36.7565 2544 50.4381
36.8727 2473 49.7293
36.9889 2488 49.8799
37.1049 2521 50.2096
37.221 0 1
37.3369 0 1
37.4529 0 1
37.5687 0 1
37.6845 0 1
37.8003 0 1
37.916 0 1
38.0316 0 1
38.1472 0 1
40.5851 0 1
40.7008 0 1
40.8164 0 1
40.9322 0 1
41.048 0 1
41.1639 0 1
41.2798 0 1
41.3958 0 1
41.5118 0 1
41.6279 0 1
41.744 1613 40.1622
41.8602 1926 43.8862
41.9765 1979 44.486
42.0928 1982 44.5197
42.2091 2153 46.4004
42.3255 2141 46.2709
42.4419 2191 46.8081
42.5584 2199 46.8935
42.675 2051 45.288
42.7915 2069 45.4863
42.9081 2084 45.6508
43.0248 2013 44.8665
43.1415 2011 44.8442
43.2582 2026 45.0111
43.375 1981 44.5084
43.4918 2073 45.5302
43.6087 2120 46.0435
43.7256 2000 44.7214
43.8425 1995 44.6654
43.9595 1935 43.9886
44.0765 2037 45.1331
44.1935 1936 44
44.3106 1784 42.2374
44.4277 1800 42.4264
44.5448 1689 41.0974
44.6619 1556 39.4462
44.7791 1384 37.2022
44.8963 1302 36.0832
45.0136 1330 36.4692
45.1308 1227 35.0286
45.2481 1385 37.2156
45.3654 1450 38.0789
45.4827 1543 39.281
45.6001 1586 39.8246
45.7174 1585 39.8121
45.8348 1665 40.8044
45.9522 1579 39.7366
46.0697 1617 40.2119
46.1871 1536 39.1918
46.3046 1601 40.0125
46.422 1528 39.0896
46.5395 1443 37.9868
46.657 1397 37.3765
46.7745 1488 38.5746
46.892 1427 37.7757
47.0096 1502 38.7556
47.1271 1504 38.7814
47.2446 1411 37.5633
47.3622 1533 39.1535
47.4797 1393 37.3229
47.5973 1433 37.855
47.7149 1396 37.3631
47.8324 1356 36.8239
47.95 1312 36.2215
48.0675 1244 35.2704
48.1851 1198 34.6121
48.3027 1014 31.8434
48.4202 953 30.8707
48.5378 990 31.4643
48.6554 966 31.0805
48.7729 969 31.1288
48.8904 1092 33.0454
49.008 1155 33.9853
49.1255 1297 36.0139
49.243 1187 34.4529
49.3605 1244 35.2704
49.478 1358 36.8511
49.5955 1351 36.756
49.713 1271 35.6511
49.8304 1232 35.0999
49.9479 1279 35.7631
50.0653 1294 35.9722
50.1827 1271 35.6511
50.3001 1313 36.2353
50.4175 1437 37.9078
50.5348 1400 37.4166
50.6521 1441 37.9605
50.7694 1488 38.5746
50.8867 1528 39.0896
51.004 1546 39.3192
51.1212 1580 39.7492
51.2384 1621 40.2616
51.3556 1552 39.3954
51.4727 1639 40.4846
51.5899 1590 39.8748
51.707 1503 38.7685
51.824 1363 36.9188
51.9411 1330 36.4692
52.0581 1379 37.1349
52.175 1433 37.855
52.2919 1486 38.5487
52.4088 1640 40.4969
52.5257 1854 43.0581
52.6425 1888 43.4511
52.7593 1894 43.5201
52.876 2071 45.5082
52.9927 2061 45.3982
53.1094 2104 45.8694
53.226 2127 46.1194
53.3426 2102 45.8476
53.4591 2000 44.7214
53.5756 1960 44.2719
53.692 1936 44
53.8084 2057 45.3542
53.9248 2091 45.7275
54.0411 2198 46.8828
54.1573 2332 48.2908
54.2735 0 1
54.3896 0 1
54.5057 0 1
54.6217 0 1
54.7377 0 1
54.8537 0 1
54.9695 0 1
55.0853 0 1
55.2011 0 1
55.3168 0 1
55.4324 0 1
57.824 0 1
57.9396 0 1
58.0553 0 1
58.1711 0 1
58.2869 0 1
58.4028 0 1
58.5187 0 1
58.6347 0 1
58.7508 0 1
58.8669 0 1
58.983 2232 47.244
59.0992 2452 49.5177
59.2155 2490 49.8999
59.3318 2611 51.0979
59.4482 2642 51.4004
59.5646 2718 52.1344
59.681 2657 51.5461
59.7975 2697 51.9326
59.9141 2710 52.0577
60.0306 2450 49.4975
60.1473 2477 49.7695
60.2639 2354 48.518
60.3807 2267 47.613
60.4974 2095 45.7712
60.6142 1993 44.643
60.731 1913 43.7379
60.8479 1901 43.6005
60.9648 2052 45.299
61.0818 2240 47.3286
61.1987 2243 47.3603
61.3158 2314 48.1041
61.4328 2287 47.8226
61.5499 2359 48.5695
61.667 2301 47.9687
61.7841 2319 48.156
61.9013 2261 47.55
62.0185 2230 47.2229
62.1357 2167 46.551
62.253 2253 47.4658
62.3702 2145 46.3141
62.4875 2186 46.7547
62.6049 2247 47.4025
62.7222 2366 48.6415
62.8396 2516 50.1597
62.9569 2478 49.7795
63.0743 2491 49.9099
63.1918 2463 49.6286
63.3092 2378 48.7647
63.4267 2245 47.3814
63.5441 2260 47.5395
63.6616 2253 47.4658
63.7791 2105 45.8803
63.8966 1903 43.6234
64.0142 1832 42.8019
64.1317 1848 42.9884
64.2492 1709 41.3401
64.3668 1816 42.6146
64.4843 1824 42.7083
64.6019 2001 44.7325
64.7195 2056 45.3431
64.837 2060 45.3872
64.9546 2053 45.31
65.0722 2134 46.1952
65.1898 2111 45.9456
65.3074 2183 46.7226
65.4249 2035 45.111
65.5425 2030 45.0555
65.6601 1938 44.0227
65.7777 1961 44.2832
65.8952 1808 42.5206
66.0128 2025 45
66.1304 2047 45.2438
66.2479 2185 46.744
66.3655 2290 47.8539
66.483 2367 48.6518
66.6005 2330 48.2701
66.718 2307 48.0312
66.8355 2333 48.3011
66.953 2265 47.592
67.0705 2247 47.4025
67.1879 2201 46.9148
67.3054 2121 46.0543
67.4228 2013 44.8665
67.5402 1854 43.0581
67.6576 1746 41.7852
67.7749 1710 41.3521
67.8923 1673 40.9023
68.0096 1755 41.8927
68.1269 1836 42.8486
68.2442 1946 44.1135
68.3614 2011 44.8442
68.4787 2129 46.1411
68.5958 2142 46.2817
68.713 2225 47.1699
68.8302 2230 47.2229
68.9473 2167 46.551
69.0643 2174 46.6262
69.1814 2091 45.7275
69.2984 2058 45.3652
69.4154 1958 44.2493
69.5323 2026 45.0111
69.6492 2146 46.3249
69.7661 2262 47.5605
69.8829 2397 48.9592
69.9997 2509 50.0899
70.1165 2482 49.8197
70.2332 2542 50.4183
70.3499 2607 51.0588
70.4665 2559 50.5866
70.5831 2476 49.7594
70.6996 2389 48.8774
70.8161 2398 48.9694
70.9326 2330 48.2701
71.049 2310 48.0625
71.1653 2139 46.2493
71.2817 1965 44.3283
71.3979 1891 43.4856
71.5141 1734 41.6413
71.6303 1739 41.7013
71.7464 1510 38.8587
71.8624 0 1
71.9784 0 1
72.0944 0 1
72.2102 0 1
72.3261 0 1
72.4418 0 1
72.5575 0 1
72.6732 0 1
75.1054 0 1
75.2209 0 1
75.3365 0 1
75.4521 0 1
75.5678 0 1
75.6835 0 1
75.7993 0 1
75.9151 0 1
76.031 0 1
76.147 2119 46.0326
76.263 2349 48.4665
76.3791 2232 47.244
76.4952 2209 47
76.6113 2068 45.4753
76.7276 1916 43.7721
76.8438 1883 43.3935
76.9601 1872 43.2666
77.0765 1972 44.4072
77.1929 2199 46.8935
77.3093 2274 47.6865
77.4258 2389 48.8774
77.5423 2380 48.7852
77.6589 2386 48.8467
77.7755 2417 49.163
77.8921 2274 47.6865
78.0088 2332 48.2908
78.1256 2095 45.7712
78.2423 1946 44.1135
78.3591 1882 43.382
78.4759 1808 42.5206
78.5928 1929 43.9204
78.7097 2137 46.2277
78.8266 2205 46.9574
78.9436 2503 50.03
79.0606 2403 49.0204
79.1776 2529 50.2892
79.2946 2541 50.4083
79.4117 2594 50.9313
79.5288 2481 49.8096
79.6459 2500 50
79.7631 2385 48.8365
79.8802 2215 47.0638
79.9974 2162 46.4973
80.1147 2145 46.3141
80.2319 1982 44.5197
80.3491 1854 43.0581
80.4664 1692 41.1339
80.5837 1755 41.8927
80.701 1852 43.0349
80.8183 1890 43.4741
80.9357 2036 45.1221
81.053 2140 46.2601
81.1704 2227 47.1911
81.2877 2069 45.4863
81.4051 2092 45.7384
81.5225 2099 45.8148
81.6399 2005 44.7772
81.7573 1887 43.4396
81.8747 1692 41.1339
81.9922 1639 40.4846
82.1096 1590 39.8748
82.227 1718 41.4488
82.3444 1910 43.7035
82.4619 2037 45.1331
82.5793 2199 46.8935
82.6967 2182 46.7119
82.8142 2284 47.7912
82.9316 2249 47.4236
83.049 2227 47.1911
83.1664 2171 46.594
83.2838 2136 46.2169
83.4012 2044 45.2106
83.5186 1991 44.6206
83.636 1913 43.7379
83.7534 1733 41.6293
83.8708 1732 41.6173
83.9881 1627 40.3361
84.1055 1605 40.0625
84.2228 1666 40.8167
84.3401 1683 41.0244
84.4575 1710 41.3521
84.5747 1870 43.2435
84.692 1997 44.6878
84.8093 1974 44.4297
84.9265 1997 44.6878
85.0437 2068 45.4753
85.1609 1987 44.5758
85.2781 1839 42.8836
85.3952 1683 41.0244
85.5123 1495 38.6652
85.6294 1484 38.5227
85.7465 1549 39.3573
85.8636 1844 42.9418
85.9806 1983 44.5309
86.0976 2168 46.5618
86.2145 2317 48.1352
86.3315 2404 49.0306
86.4484 2338 48.3529
86.5652 2443 49.4267
86.682 2459 49.5883
86.7988 2363 48.6107
86.9156 2358 48.5592
87.0323 2362 48.6004
87.149 2218 47.0956
87.2657 2190 46.7974
87.3823 2110 45.9347
87.4988 2018 44.9222
87.6154 1926 43.8862
87.7318 1985 44.5533
87.8483 2052 45.299
87.9647 2065 45.4423
88.081 2204 46.9468
88.1973 2355 48.5283
88.3136 2402 49.0102
88.4298 2358 48.5592
88.546 2348 48.4562
88.6621 2412 49.1121
88.7781 2249 47.4236
88.8942 0 1
89.0101 0 1
89.126 0 1
89.2419 0 1
89.3577 0 1
89.4734 0 1
89.5891 0 1
89.7047 0 1
89.8203 0 1
89.9358 0 1
92.3269 0 1
92.4424 0 1
92.558 0 1
92.6736 0 1
92.7893 0 1
92.905 0 1
93.0208 0 1
93.1366 0 1
93.2525 0 1
93.3685 0 1
93.4845 0 1
93.6005 2301 47.9687
93.7167 2286 47.8121
93.8328 2367 48.6518
93.949 2344 48.4149
94.0653 2305 48.0104
94.1816 2265 47.592
94.2979 2195 46.8508
94.4143 1987 44.5758
94.5307 1862 43.1509
94.6472 1730 41.5933
94.7637 1747 41.7971
94.8803 1917 43.7836
94.9969 2135 46.2061
95.1135 2307 48.0312
95.2302 2490 49.8999
95.3469 2512 50.1199
95.4637 2628 51.264
95.5805 2559 50.5866
95.6973 2578 50.774
95.8142 2588 50.8724
95.9311 2597 50.9608
96.048 2571 50.705
96.1649 2495 49.95
96.2819 2393 48.9183
96.3989 2254 47.4763
96.516 2201 46.9148
96.633 2135 46.2061
96.7501 2123 46.076
96.8673 2065 45.4423
96.9844 2123 46.076
97.1016 2101 45.8367
97.2188 2331 48.2804
97.336 2329 48.2597
97.4532 2382 48.8057
97.5704 2382 48.8057
97.6877 2384 48.8262
97.805 2325 48.2183
97.9223 2146 46.3249
98.0396 1917 43.7836
98.1569 1822 42.6849
98.2743 1682 41.0122
98.3916 1675 40.9268
98.509 1817 42.6263
98.6264 2087 45.6837
98.7438 2261 47.55
98.8612 2527 50.2693
98.9786 2574 50.7346
99.096 2647 51.449
99.2134 2562 50.6162
99.3308 2662 51.5946
99.4482 2571 50.705
99.5656 2555 50.547
99.6831 2594 50.9313
99.8005 2435 49.3457
99.9179 2306 48.0208
100.035 2281 47.7598
100.153 2244 47.3709
100.27 2171 46.594
100.388 2015 44.8888
100.505 2141 46.2709
100.622 2196 46.8615
100.74 2279 47.7389
100.857 2277 47.7179
100.975 2305 48.0104
101.092 2413 49.1223
101.209 2318 48.1456
101.327 2339 48.3632
101.444 2240 47.3286
101.561 2173 46.6154
101.679 1936 44
101.796 1691 41.1218
101.913 1749 41.821
102.03 1873 43.2782
102.148 2081 45.618
102.265 2241 47.3392
102.382 2656 51.5364
102.499 2623 51.2152
102.616 2646 51.4393
102.733 2669 51.6624
102.851 2771 52.6403
102.968 2809 53
103.085 2753 52.469
103.202 2684 51.8073
103.319 2590 50.892
103.436 2424 49.2341
103.552 2387 48.8569
103.669 2252 47.4552
103.786 2254 47.4763
103.903 2343 48.4045
104.02 2307 48.0312
104.137 2313 48.0937
104.253 2432 49.3153
104.37 2600 50.9902
104.487 2564 50.636
104.603 2650 51.4782
104.72 2601 51
104.836 2530 50.2991
104.953 2410 49.0918
105.069 2185 46.744
105.186 2037 45.1331
105.302 1818 42.638
105.418 1855 43.0697
105.535 1990 44.6094
105.651 2446 49.4571
105.767 2753 52.469
105.883 2868 53.5537
105.999 3025 55
106.115 0 1
106.231 0 1
106.347 0 1
106.463 0 1
106.579 0 1
106.694 0 1
106.81 0 1
106.926 0 1
107.041 0 1
107.157 0 1
109.576 0 1
109.692 0 1
109.807 0 1
109.923 0 1
110.039 0 1
110.155 0 1
110.27 0 1
110.386 0 1
110.502 0 1
110.618 1950 44.1588
110.735 2422 49.2138
110.851 2658 51.5558
110.967 2765 52.5833
111.083 2839 53.2823
111.199 2853 53.4135
111.316 2877 53.6377
111.432 2886 53.7215
111.549 2934 54.1664
111.665 2814 53.0471
111.782 2754 52.4786
111.898 2694 51.9038
112.015 2536 50.3587
112.132 2532 50.319
112.248 2475 49.7494
112.365 2430 49.295
112.482 2435 49.3457
112.599 2480 49.7996
112.716 2531 50.309
112.832 2406 49.051
112.949 2601 51
113.066 2667 51.643
113.183 2629 51.2738
113.3 2506 50.06
113.417 2567 50.6656
113.534 2431 49.3052
113.652 2167 46.551
113.769 1893 43.5086
113.886 1773 42.107
114.003 1773 42.107
114.12 1976 44.4522
114.238 2276 47.7074
114.355 2608 51.0686
114.472 2825 53.1507
114.589 2924 54.074
114.707 2883 53.6936
114.824 2889 53.7494
114.942 3005 54.8179
115.059 2905 53.8981
115.176 2975 54.5436
115.294 2838 53.2729
115.411 2877 53.6377
115.529 2703 51.9904
115.646 2643 51.4101
115.764 2590 50.892
115.881 2567 50.6656
115.999 2567 50.6656
116.116 2578 50.774
116.234 2628 51.264
116.351 2648 51.4587
116.469 2715 52.1057
116.586 2813 53.0377
116.704 2729 52.2398
116.821 2637 51.3517
116.939 2651 51.4879
117.056 2592 50.9117
117.174 2373 48.7134
117.291 2166 46.5403
117.409 1892 43.4971
117.526 1886 43.4281
117.644 1897 43.5546
117.761 2254 47.4763
117.879 2626 51.2445
117.996 2795 52.8678
118.114 2860 53.479
118.231 3011 54.8726
118.349 2983 54.6168
118.466 2971 54.5069
118.584 3036 55.0999
118.701 3019 54.9454
118.819 2925 54.0833
118.936 2839 53.2823
119.053 2802 52.9339
119.171 2666 51.6333
119.288 2712 52.0769
119.405 2645 51.4296
119.523 2529 50.2892
119.64 2562 50.6162
119.757 2573 50.7247
119.875 2614 51.1273
119.992 2726 52.2111
120.109 2607 51.0588
120.226 2656 51.5364
120.343 2690 51.8652
120.46 2652 51.4976
120.578 2670 51.672
120.695 2672 51.6914
120.812 2320 48.1664
120.929 2289 47.8435
121.046 2014 44.8776
121.163 1928 43.909
121.279 1922 43.8406
121.396 1954 44.2041
121.513 2383 48.816
121.63 2598 50.9706
121.747 2740 52.345
121.863 2866 53.535
121.98 2890 53.7587
122.097 2913 53.9722
122.213 2963 54.4334
122.33 2931 54.1387
122.446 2829 53.1883
122.563 2775 52.6783
122.679 2848 53.3667
122.795 2680 51.7687
122.912 2639 51.3712
123.028 2716 52.1153
123.144 2567 50.6656
123.26 2518 50.1797
123.377 0 1
123.493 0 1
123.609 0 1
123.725 0 1
123.84 0 1
123.956 0 1
124.072 0 1
124.188 0 1
124.303 0 1
124.419 0 1
126.852 0 1
126.968 0 1
127.083 0 1
127.199 0 1
127.315 0 1
127.431 0 1
127.547 0 1
127.663 0 1
127.779 0 1
127.895 0 1
128.011 0 1
128.127 0 1
128.243 0 1
128.359 2849 53.376
128.476 2914 53.9815
128.592 2805 52.9623
128.708 2852 53.4041
128.825 2810 53.0094
128.941 2875 53.619
129.058 2911 53.9537
129.174 2997 54.7449
129.291 2796 52.8772
129.408 2949 54.3047
129.524 2880 53.6656
129.641 2777 52.6972
129.758 2581 50.8035
129.875 2393 48.9183
129.992 2207 46.9787
130.108 2042 45.1885
130.225 1994 44.6542
130.342 2248 47.4131
130.459 2514 50.1398
130.576 2861 53.4883
130.693 3127 55.9196
130.81 3131 55.9553
130.928 3210 56.6569
131.045 3162 56.2317
131.162 3166 56.2672
131.279 3280 57.2713
131.396 3200 56.5685
131.513 3168 56.285
131.631 3129 55.9375
131.748 3065 55.3624
131.865 3068 55.3895
131.983 3127 55.9196
132.1 3094 55.6237
132.217 3131 55.9553
132.335 3025 55
132.452 3083 55.5248
132.57 3097 55.6507
132.687 3008 54.8452
132.804 3095 55.6327
132.922 2987 54.6535
133.039 3007 54.8361
133.157 2989 54.6717
133.274 2910 53.9444
133.392 2603 51.0196
133.509 2314 48.1041
133.627 2107 45.9021
133.744 2059 45.3762
133.862 2164 46.5188
133.979 2433 49.3254
134.097 2687 51.8363
134.214 2928 54.111
134.332 3196 56.5332
134.449 3209 56.648
134.567 3130 55.9464
134.684 3094 55.6237
134.802 3171 56.3116
134.919 3102 55.6956
135.037 3288 57.3411
135.154 3139 56.0268
135.272 3111 55.7763
135.389 3160 56.2139
135.507 3119 55.848
135.624 3049 55.2178
135.742 3053 55.254
135.859 3127 55.9196
135.977 3048 55.2087
136.094 3107 55.7405
136.211 3043 55.1634
136.329 3130 55.9464
136.446 3077 55.4707
136.564 3061 55.3263
136.681 3070 55.4076
136.798 2986 54.6443
136.915 2780 52.7257
137.033 2403 49.0204
137.15 2295 47.9062
137.267 2161 46.4866
137.384 2015 44.8888
137.502 2107 45.9021
137.619 2346 48.4355
137.736 2748 52.4214
137.853 2851 53.3948
137.97 3035 55.0908
138.087 3021 54.9636
138.204 3181 56.4004
138.321 3124 55.8928
138.438 3256 57.0614
138.555 3217 56.7186
138.672 3135 55.9911
138.788 3190 56.4801
138.905 3127 55.9196
139.022 3201 56.5774
139.139 3252 57.0263
139.255 3131 55.9553
139.372 3095 55.6327
139.488 3155 56.1694
139.605 3039 55.1271
139.721 3175 56.3471
139.838 3151 56.1338
139.954 3090 55.5878
140.071 3034 55.0818
140.187 3130 55.9464
140.303 3118 55.8391
140.419 3024 54.9909
140.535 2746 52.4023
140.652 2516 50.1597
140.768 0 1
140.884 0 1
141 0 1
141.115 0 1
141.231 0 1
141.347 0 1
141.463 0 1
141.578 0 1
141.694 0 1
144.104 0 1
144.219 0 1
144.335 0 1
144.45 0 1
144.566 0 1
144.682 0 1
144.798 0 1
144.914 0 1
145.03 0 1
145.146 2191 46.8081
145.262 2468 49.679
145.378 2487 49.8698
145.494 2477 49.7695
145.61 2432 49.3153
145.726 2165 46.5296
145.842 2071 45.5082
145.959 1897 43.5546
146.075 1773 42.107
146.192 1782 42.2137
146.308 1742 41.7373
146.425 1905 43.6463
146.541 2175 46.6369
146.658 2327 48.239
146.774 2412 49.1121
146.891 2573 50.7247
147.008 2568 50.6754
147.125 2643 51.4101
147.241 2724 52.192
147.358 2708 52.0384
147.475 2772 52.6498
147.592 2729 52.2398
147.709 2750 52.4404
147.826 2812 53.0283
147.943 2707 52.0288
148.06 2773 52.6593
148.177 2725 52.2015
148.294 2659 51.5655
148.411 2596 50.951
148.528 2539 50.3885
148.645 2709 52.0481
148.762 2718 52.1344
148.88 2710 52.0577
148.997 2663 51.6043
149.114 2753 52.469
149.231 2702 51.9808
149.349 2656 51.5364
149.466 2590 50.892
149.583 2368 48.6621
149.701 2304 48
149.818 1979 44.486
149.935 1891 43.4856
150.053 1872 43.2666
150.17 1959 44.2606
150.287 2046 45.2327
150.405 2259 47.5289
150.522 2469 49.689
150.64 2550 50.4975
150.757 2657 51.5461
150.875 2698 51.9423
150.992 2846 53.3479
151.11 2798 52.8961
151.227 3004 54.8088
151.344 2853 53.4135
151.462 2842 53.3104
151.579 2800 52.915
151.697 2752 52.4595
151.814 2818 53.0848
151.932 2852 53.4041
152.049 2782 52.7447
152.167 2717 52.1249
152.284 2862 53.4977
152.402 2799 52.9056
152.519 2741 52.3546
152.636 2865 53.5257
152.754 2715 52.1057
152.871 2838 53.2729
152.989 2665 51.6236
153.106 2603 51.0196
153.223 2478 49.7795
153.341 2250 47.4342
153.458 2170 46.5833
153.575 2058 45.3652
153.693 2017 44.911
153.81 2193 46.8295
153.927 2288 47.833
154.044 2355 48.5283
154.162 2501 50.01
154.279 2696 51.923
154.396 2779 52.7162
154.513 2916 54
154.63 2950 54.3139
154.747 2926 54.0925
154.864 3131 55.9553
154.981 3137 56.0089
155.098 2972 54.5161
155.215 3051 55.2359
155.332 3022 54.9727
155.449 3053 55.254
155.566 2901 53.8609
155.683 2900 53.8516
155.8 2921 54.0463
155.917 2981 54.5985
156.033 2870 53.5724
156.15 0 1
156.267 0 1
156.383 0 1
156.5 0 1
156.617 0 1
156.733 0 1
156.85 0 1
156.966 0 1
157.082 0 1
157.199 0 1
157.315 0 1
157.431 0 1
157.547 0 1
157.664 0 1
157.78 0 1
157.896 0 1
158.012 0 1
158.128 0 1
158.244 0 1
158.359 0 1
158.475 0 1
158.591 0 1
158.706 0 1
