
6.15755 0 1
6.2731 0 1
6.3887 0 1
6.50437 0 1
6.62009 0 1
6.73587 0 1
6.8517 0 1
6.96759 0 1
7.08353 0 1
7.19952 0 1
7.31557 0 1
7.43166 0 1
7.54781 0 1
7.664 0 1
7.78024 0 1
7.89653 0 1
8.01286 0 1
8.12924 0 1
8.24567 0 1
8.36213 0 1
8.47864 0 1
8.59519 0 1
8.71178 0 1
8.82841 0 1
8.94508 0 1
9.06179 0 1
9.17853 0 1
9.29531 0 1
9.41212 0 1
9.52897 0 1
9.64584 0 1
9.76276 0 1
9.8797 0 1
9.99667 0 1
10.1137 0 1
10.2307 0 1
10.3478 0 1
10.4648 0 1
10.5819 0 1
10.6991 0 1
10.8162 0 1
10.9334 0 1
11.0506 0 1
11.1678 0 1
11.285 0 1
11.4023 0 1
11.5196 0 1
11.6369 0 1
11.7542 0 1
11.8715 0 1
11.9888 0 1
12.1062 0 1
12.2235 0 1
12.3409 0 1
12.4582 0 1
12.5756 0 1
12.693 0 1
12.8104 0 1
12.9278 0 1
13.0452 0 1
13.1626 0 1
13.28 0 1
13.3974 0 1
13.5149 0 1
13.6323 0 1
13.7497 0 1
13.8671 0 1
13.9845 0 1
14.1019 0 1
14.2193 0 1
14.3367 0 1
14.4541 0 1
14.5714 0 1
14.6888 0 1
14.8062 0 1
14.9235 0 1
15.0408 1719 41.4608
15.1581 1894 43.5201
15.2755 1868 43.2204
15.3927 1875 43.3013
15.51 1929 43.9204
15.6273 1946 44.1135
15.7445 1789 42.2966
15.8617 1762 41.9762
15.9789 1764 42
16.0961 1647 40.5832
16.2132 1800 42.4264
16.3304 1869 43.2319
16.4475 1951 44.1701
16.5646 2030 45.0555
16.6816 2125 46.0977
16.7986 2130 46.1519
16.9156 2346 48.4355
17.0326 2510 50.0999
17.1496 2519 50.1896
17.2665 2559 50.5866
17.3833 2494 49.94
17.5002 2565 50.6458
17.617 2515 50.1498
17.7338 2468 49.679
17.8505 2626 51.2445
17.9672 2665 51.6236
18.0839 2646 51.4393
18.2005 2784 52.7636
18.3171 2852 53.4041
18.4337 2761 52.5452
18.5502 2665 51.6236
18.6666 2771 52.6403
18.7831 2770 52.6308
18.8994 2769 52.6213
19.0158 2674 51.7107
19.1321 2521 50.2096
19.2483 2572 50.7149
19.3645 2424 49.2341
19.4806 2399 48.9796
19.5967 2375 48.734
19.7128 2193 46.8295
19.8288 1969 44.3734
19.9447 1711 41.3642
20.0606 0 1
20.1764 0 1
20.2922 0 1
20.4079 0 1
20.5236 0 1
20.6392 0 1
20.7548 0 1
20.8702 0 1
23.3078 0 1
23.4233 0 1
23.539 0 1
23.6547 0 1
23.7704 0 1
23.8862 0 1
24.0021 0 1
24.118 0 1
24.234 0 1
24.35 0 1
24.4661 2416 49.1528
24.5822 2400 48.9898
24.6984 2385 48.8365
24.8146 2298 47.9375
24.9309 2349 48.4665
25.0472 2204 46.9468
25.1636 2024 44.9889
25.28 2020 44.9444
25.3965 2055 45.3321
25.513 2244 47.3709
25.6296 2382 48.8057
25.7462 2596 50.951
25.8628 2838 53.2729
25.9795 2824 53.1413
26.0962 2856 53.4416
26.213 2975 54.5436
26.3298 2932 54.1479
26.4466 2881 53.6749
26.5635 2963 54.4334
26.6804 2804 52.9528
26.7973 2888 53.7401
26.9143 2930 54.1295
27.0313 2830 53.1977
27.1483 2836 53.2541
27.2653 2773 52.6593
27.3824 2840 53.2917
27.4996 2911 53.9537
27.6167 2824 53.1413
27.7339 2738 52.3259
27.8511 2701 51.9711
27.9683 2632 51.303
28.0855 2507 50.07
28.2028 2684 51.8073
28.3201 2564 50.636
28.4374 2462 49.6185
28.5547 2324 48.2079
28.6721 2022 44.9667
28.7894 1988 44.587
28.9068 1969 44.3734
29.0242 1998 44.699
29.1416 2185 46.744
29.259 2290 47.8539
29.3764 2558 50.5767
29.4939 2621 51.1957
29.6113 2753 52.469
29.7288 2646 51.4393
29.8463 2862 53.4977
29.9638 2826 53.1601
30.0812 2852 53.4041
30.1987 2883 53.6936
30.3162 2747 52.4118
30.4337 2713 52.0865
30.5512 2714 52.0961
30.6687 2640 51.3809
30.7862 2646 51.4393
30.9037 2640 51.3809
31.0212 2830 53.1977
31.1387 2739 52.3355
31.2562 2656 51.5364
31.3737 2663 51.6043
31.4912 2549 50.4876
31.6087 2634 51.3225
31.7262 2666 51.6333
31.8436 2684 51.8073
31.9611 2578 50.774
32.0785 2417 49.163
32.1959 2096 45.7821
32.3134 1943 44.0795
32.4308 1957 44.238
32.5482 2042 45.1885
32.6655 2101 45.8367
32.7829 2334 48.3115
32.9002 2453 49.5278
33.0176 2614 51.1273
33.1349 2697 51.9326
33.2522 2655 51.5267
33.3694 2743 52.3737
33.4867 2718 52.1344
33.6039 2720 52.1536
33.7211 2805 52.9623
33.8383 2710 52.0577
33.9554 2641 51.3907
34.0725 2655 51.5267
34.1896 2694 51.9038
34.3067 2560 50.5964
34.4237 2575 50.7445
34.5407 2664 51.614
34.6577 2753 52.469
34.7746 2680 51.7687
34.8915 2618 51.1664
35.0084 2581 50.8035
35.1252 2594 50.9313
35.242 2592 50.9117
35.3587 2711 52.0673
35.4755 2584 50.8331
35.5921 2516 50.1597
35.7088 2469 49.689
35.8254 2255 47.4868
35.9419 1945 44.1022
36.0584 1819 42.6497
36.1749 1963 44.3058
36.2913 1883 43.3935
36.4077 2034 45.0999
36.524 2128 46.1303
36.6403 2354 48.518
36.7565 2599 50.9804
36.8727 2614 51.1273
36.9889 2675 51.7204
37.1049 2528 50.2792
37.221 0 1
37.3369 0 1
37.4529 0 1
37.5687 0 1
37.6845 0 1
37.8003 0 1
37.916 0 1
38.0316 0 1
38.1472 0 1
40.5851 0 1
40.7008 0 1
40.8164 0 1
40.9322 0 1
41.048 0 1
41.1639 0 1
41.2798 0 1
41.3958 0 1
41.5118 0 1
41.6279 0 1
41.744 1767 42.0357
41.8602 2023 44.9778
41.9765 2073 45.5302
42.0928 2184 46.7333
42.2091 2121 46.0543
42.3255 2271 47.655
42.4419 2296 47.9166
42.5584 2284 47.7912
42.675 2215 47.0638
42.7915 2131 46.1628
42.9081 2083 45.6399
43.0248 1952 44.1814
43.1415 2025 45
43.2582 2131 46.1628
43.375 2106 45.8912
43.4918 2143 46.2925
43.6087 2129 46.1411
43.7256 2061 45.3982
43.8425 2084 45.6508
43.9595 1962 44.2945
44.0765 2020 44.9444
44.1935 1987 44.5758
44.3106 2009 44.8219
44.4277 1890 43.4741
44.5448 1839 42.8836
44.6619 1610 40.1248
44.7791 1491 38.6135
44.8963 1282 35.805
45.0136 1297 36.0139
45.1308 1353 36.7831
45.2481 1446 38.0263
45.3654 1599 39.9875
45.4827 1637 40.4599
45.6001 1670 40.8656
45.7174 1708 41.328
45.8348 1723 41.509
45.9522 1758 41.9285
46.0697 1577 39.7115
46.1871 1683 41.0244
46.3046 1623 40.2865
46.422 1532 39.1408
46.5395 1540 39.2428
46.657 1570 39.6232
46.7745 1546 39.3192
46.892 1556 39.4462
47.0096 1524 39.0384
47.1271 1527 39.0768
47.2446 1490 38.6005
47.3622 1536 39.1918
47.4797 1444 38
47.5973 1493 38.6394
47.7149 1489 38.5876
47.8324 1351 36.756
47.95 1383 37.1887
48.0675 1317 36.2905
48.1851 1291 35.9305
48.3027 1107 33.2716
48.4202 972 31.1769
48.5378 908 30.133
48.6554 1028 32.0624
48.7729 1035 32.1714
48.8904 1155 33.9853
49.008 1266 35.5809
49.1255 1330 36.4692
49.243 1322 36.3593
49.3605 1295 35.9861
49.478 1343 36.647
49.5955 1321 36.3456
49.713 1417 37.6431
49.8304 1283 35.819
49.9479 1327 36.428
50.0653 1257 35.4542
50.1827 1306 36.1386
50.3001 1418 37.6563
50.4175 1411 37.5633
50.5348 1510 38.8587
50.6521 1538 39.2173
50.7694 1598 39.975
50.8867 1618 40.2244
51.004 1610 40.1248
51.1212 1673 40.9023
51.2384 1652 40.6448
51.3556 1701 41.2432
51.4727 1628 40.3485
51.5899 1685 41.0488
51.707 1536 39.1918
51.824 1416 37.6298
51.9411 1426 37.7624
52.0581 1371 37.027
52.175 1467 38.3014
52.2919 1550 39.37
52.4088 1725 41.5331
52.5257 2002 44.7437
52.6425 1955 44.2154
52.7593 2013 44.8665
52.876 2047 45.2438
52.9927 2112 45.9565
53.1094 2164 46.5188
53.226 2108 45.913
53.3426 2206 46.9681
53.4591 2104 45.8694
53.5756 2110 45.9347
53.692 2011 44.8442
53.8084 2101 45.8367
53.9248 2122 46.0652
54.0411 2185 46.744
54.1573 2305 48.0104
54.2735 0 1
54.3896 0 1
54.5057 0 1
54.6217 0 1
54.7377 0 1
54.8537 0 1
54.9695 0 1
55.0853 0 1
55.2011 0 1
55.3168 0 1
55.4324 0 1
57.824 0 1
57.9396 0 1
58.0553 0 1
58.1711 0 1
58.2869 0 1
58.4028 0 1
58.5187 0 1
58.6347 0 1
58.7508 0 1
58.8669 0 1
58.983 2297 47.927
59.0992 2469 49.689
59.2155 2581 50.8035
59.3318 2712 52.0769
59.4482 2835 53.2447
59.5646 2864 53.5164
59.681 2891 53.768
59.7975 2773 52.6593
59.9141 2754 52.4786
60.0306 2635 51.3323
60.1473 2495 49.95
60.2639 2370 48.6826
60.3807 2363 48.6107
60.4974 2085 45.6618
60.6142 2140 46.2601
60.731 2043 45.1996
60.8479 2018 44.9222
60.9648 2176 46.6476
61.0818 2264 47.5815
61.1987 2358 48.5592
61.3158 2449 49.4874
61.4328 2411 49.1019
61.5499 2479 49.7896
61.667 2446 49.4571
61.7841 2500 50
61.9013 2410 49.0918
62.0185 2221 47.1275
62.1357 2231 47.2335
62.253 2220 47.1169
62.3702 2211 47.0213
62.4875 2295 47.9062
62.6049 2420 49.1935
62.7222 2480 49.7996
62.8396 2485 49.8498
62.9569 2467 49.6689
63.0743 2592 50.9117
63.1918 2621 51.1957
63.3092 2513 50.1298
63.4267 2452 49.5177
63.5441 2385 48.8365
63.6616 2286 47.8121
63.7791 2280 47.7493
63.8966 2109 45.9239
64.0142 1993 44.643
64.1317 1839 42.8836
64.2492 1870 43.2435
64.3668 1884 43.4051
64.4843 1921 43.8292
64.6019 2007 44.7996
64.7195 2171 46.594
64.837 2099 45.8148
64.9546 2179 46.6798
65.0722 2166 46.5403
65.1898 2156 46.4327
65.3074 2148 46.3465
65.4249 2138 46.2385
65.5425 1972 44.4072
65.6601 2063 45.4203
65.7777 1985 44.5533
65.8952 1978 44.4747
66.0128 2065 45.4423
66.1304 2119 46.0326
66.2479 2254 47.4763
66.3655 2393 48.9183
66.483 2294 47.8957
66.6005 2450 49.4975
66.718 2385 48.8365
66.8355 2407 49.0612
66.953 2335 48.3218
67.0705 2375 48.734
67.1879 2313 48.0937
67.3054 2217 47.085
67.4228 2107 45.9021
67.5402 2045 45.2217
67.6576 1840 42.8952
67.7749 1775 42.1307
67.8923 1851 43.0232
68.0096 1840 42.8952
68.1269 1860 43.1277
68.2442 1936 44
68.3614 2171 46.594
68.4787 2218 47.0956
68.5958 2224 47.1593
68.713 2259 47.5289
68.8302 2339 48.3632
68.9473 2149 46.3573
69.0643 2237 47.2969
69.1814 2171 46.594
69.2984 2107 45.9021
69.4154 2092 45.7384
69.5323 2153 46.4004
69.6492 2217 47.085
69.7661 2268 47.6235
69.8829 2441 49.4065
69.9997 2672 51.6914
70.1165 2590 50.892
70.2332 2588 50.8724
70.3499 2666 51.6333
70.4665 2622 51.2055
70.5831 2651 51.4879
70.6996 2526 50.2593
70.8161 2546 50.4579
70.9326 2453 49.5278
71.049 2291 47.8644
71.1653 2242 47.3498
71.2817 2212 47.0319
71.3979 2030 45.0555
71.5141 1871 43.2551
71.6303 1806 42.4971
71.7464 1632 40.398
71.8624 0 1
71.9784 0 1
72.0944 0 1
72.2102 0 1
72.3261 0 1
72.4418 0 1
72.5575 0 1
72.6732 0 1
75.1054 0 1
75.2209 0 1
75.3365 0 1
75.4521 0 1
75.5678 0 1
75.6835 0 1
75.7993 0 1
75.9151 0 1
76.031 0 1
76.147 2305 48.0104
76.263 2409 49.0816
76.3791 2422 49.2138
76.4952 2375 48.734
76.6113 2182 46.7119
76.7276 2028 45.0333
76.8438 2037 45.1331
76.9601 1970 44.3847
77.0765 2075 45.5522
77.1929 2198 46.8828
77.3093 2343 48.4045
77.4258 2471 49.7092
77.5423 2505 50.05
77.6589 2480 49.7996
77.7755 2399 48.9796
77.8921 2543 50.4282
78.0088 2271 47.655
78.1256 2128 46.1303
78.2423 2001 44.7325
78.3591 1857 43.0929
78.4759 1929 43.9204
78.5928 2044 45.2106
78.7097 2195 46.8508
78.8266 2302 47.9792
78.9436 2606 51.049
79.0606 2571 50.705
79.1776 2585 50.8429
79.2946 2569 50.6853
79.4117 2582 50.8134
79.5288 2564 50.636
79.6459 2564 50.636
79.7631 2526 50.2593
79.8802 2373 48.7134
79.9974 2281 47.7598
80.1147 2100 45.8258
80.2319 2020 44.9444
80.3491 1994 44.6542
80.4664 1817 42.6263
80.5837 1884 43.4051
80.701 1932 43.9545
80.8183 1981 44.5084
80.9357 2108 45.913
81.053 2218 47.0956
81.1704 2189 46.7868
81.2877 2219 47.1063
81.4051 2274 47.6865
81.5225 2126 46.1086
81.6399 2161 46.4866
81.7573 1966 44.3396
81.8747 1812 42.5676
81.9922 1664 40.7922
82.1096 1685 41.0488
82.227 1810 42.5441
82.3444 1989 44.5982
82.4619 2178 46.669
82.5793 2327 48.239
82.6967 2286 47.8121
82.8142 2312 48.0833
82.9316 2257 47.5079
83.049 2272 47.6655
83.1664 2209 47
83.2838 2205 46.9574
83.4012 2155 46.422
83.5186 1961 44.2832
83.636 1899 43.5775
83.7534 1904 43.6348
83.8708 1805 42.4853
83.9881 1695 41.1704
84.1055 1607 40.0874
84.2228 1651 40.6325
84.3401 1763 41.9881
84.4575 1802 42.45
84.5747 1907 43.6692
84.692 2080 45.607
84.8093 2091 45.7275
84.9265 2069 45.4863
85.0437 2149 46.3573
85.1609 2056 45.3431
85.2781 1955 44.2154
85.3952 1740 41.7133
85.5123 1642 40.5216
85.6294 1531 39.128
85.7465 1653 40.6571
85.8636 1825 42.72
85.9806 2105 45.8803
86.0976 2188 46.7761
86.2145 2415 49.1426
86.3315 2451 49.5076
86.4484 2539 50.3885
86.5652 2543 50.4282
86.682 2484 49.8397
86.7988 2489 49.8899
86.9156 2440 49.3964
87.0323 2375 48.734
87.149 2267 47.613
87.2657 2292 47.8748
87.3823 2142 46.2817
87.4988 1998 44.699
87.6154 1993 44.643
87.7318 2020 44.9444
87.8483 2065 45.4423
87.9647 2201 46.9148
88.081 2293 47.8853
88.1973 2461 49.6085
88.3136 2573 50.7247
88.4298 2489 49.8899
88.546 2419 49.1833
88.6621 2420 49.1935
88.7781 2381 48.7955
88.8942 0 1
89.0101 0 1
89.126 0 1
89.2419 0 1
89.3577 0 1
89.4734 0 1
89.5891 0 1
89.7047 0 1
89.8203 0 1
89.9358 0 1
92.3269 0 1
92.4424 0 1
92.558 0 1
92.6736 0 1
92.7893 0 1
92.905 0 1
93.0208 0 1
93.1366 0 1
93.2525 0 1
93.3685 0 1
93.4845 0 1
93.6005 2358 48.5592
93.7167 2485 49.8498
93.8328 2436 49.3559
93.949 2403 49.0204
94.0653 2423 49.224
94.1816 2372 48.7032
94.2979 2252 47.4552
94.4143 2074 45.5412
94.5307 1885 43.4166
94.6472 1784 42.2374
94.7637 1761 41.9643
94.8803 1984 44.5421
94.9969 2174 46.6262
95.1135 2492 49.9199
95.2302 2517 50.1697
95.3469 2636 51.342
95.4637 2598 50.9706
95.5805 2792 52.8394
95.6973 2759 52.5262
95.8142 2784 52.7636
95.9311 2778 52.7067
96.048 2700 51.9615
96.1649 2598 50.9706
96.2819 2515 50.1498
96.3989 2317 48.1352
96.516 2248 47.4131
96.633 2251 47.4447
96.7501 2096 45.7821
96.8673 2188 46.7761
96.9844 2165 46.5296
97.1016 2218 47.0956
97.2188 2274 47.6865
97.336 2458 49.5782
97.4532 2463 49.6286
97.5704 2415 49.1426
97.6877 2438 49.3761
97.805 2364 48.621
97.9223 2187 46.7654
98.0396 2049 45.2659
98.1569 1853 43.0465
98.2743 1718 41.4488
98.3916 1841 42.9069
98.509 1827 42.7434
98.6264 2217 47.085
98.7438 2481 49.8096
98.8612 2635 51.3323
98.9786 2623 51.2152
99.096 2685 51.817
99.2134 2715 52.1057
99.3308 2701 51.9711
99.4482 2703 51.9904
99.5656 2624 51.225
99.6831 2612 51.1077
99.8005 2460 49.5984
99.9179 2418 49.1732
100.035 2298 47.9375
100.153 2217 47.085
100.27 2200 46.9042
100.388 2127 46.1194
100.505 2153 46.4004
100.622 2365 48.6313
100.74 2296 47.9166
100.857 2489 49.8899
100.975 2487 49.8698
101.092 2532 50.319
101.209 2498 49.98
101.327 2407 49.0612
101.444 2439 49.3862
101.561 2305 48.0104
101.679 1946 44.1135
101.796 1786 42.2611
101.913 1729 41.5812
102.03 1900 43.589
102.148 2191 46.8081
102.265 2360 48.5798
102.382 2614 51.1273
102.499 2747 52.4118
102.616 2887 53.7308
102.733 2906 53.9073
102.851 2828 53.1789
102.968 2975 54.5436
103.085 2842 53.3104
103.202 2744 52.3832
103.319 2704 52
103.436 2592 50.9117
103.552 2546 50.4579
103.669 2488 49.8799
103.786 2336 48.3322
103.903 2371 48.6929
104.02 2382 48.8057
104.137 2421 49.2037
104.253 2557 50.5668
104.37 2632 51.303
104.487 2672 51.6914
104.603 2694 51.9038
104.72 2714 52.0961
104.836 2632 51.303
104.953 2604 51.0294
105.069 2328 48.2494
105.186 2065 45.4423
105.302 1901 43.6005
105.418 1899 43.5775
105.535 2119 46.0326
105.651 2477 49.7695
105.767 2920 54.037
105.883 2920 54.037
105.999 3059 55.3082
106.115 0 1
106.231 0 1
106.347 0 1
106.463 0 1
106.579 0 1
106.694 0 1
106.81 0 1
106.926 0 1
107.041 0 1
107.157 0 1
109.576 0 1
109.692 0 1
109.807 0 1
109.923 0 1
110.039 0 1
110.155 0 1
110.27 0 1
110.386 0 1
110.502 0 1
110.618 2173 46.6154
110.735 2665 51.6236
110.851 2723 52.1824
110.967 2844 53.3292
111.083 2936 54.1849
111.199 2955 54.3599
111.316 3047 55.1996
111.432 3021 54.9636
111.549 2922 54.0555
111.665 2938 54.2033
111.782 2832 53.2165
111.898 2848 53.3667
112.015 2670 51.672
112.132 2524 50.2394
112.248 2598 50.9706
112.365 2550 50.4975
112.482 2449 49.4874
112.599 2571 50.705
112.716 2593 50.9215
112.832 2580 50.7937
112.949 2661 51.5849
113.066 2788 52.8015
113.183 2722 52.1728
113.3 2597 50.9608
113.417 2597 50.9608
113.534 2553 50.5272
113.652 2256 47.4974
113.769 1969 44.3734
113.886 1833 42.8135
114.003 1746 41.7852
114.12 2058 45.3652
114.238 2414 49.1325
114.355 2738 52.3259
114.472 2898 53.8331
114.589 3024 54.9909
114.707 3060 55.3173
114.824 3060 55.3173
114.942 3086 55.5518
115.059 3004 54.8088
115.176 2993 54.7083
115.294 2968 54.4794
115.411 2927 54.1018
115.529 2841 53.301
115.646 2855 53.4322
115.764 2679 51.7591
115.881 2622 51.2055
115.999 2663 51.6043
116.116 2655 51.5267
116.234 2627 51.2543
116.351 2674 51.7107
116.469 2833 53.2259
116.586 2848 53.3667
116.704 2758 52.5167
116.821 2753 52.469
116.939 2730 52.2494
117.056 2620 51.1859
117.174 2544 50.4381
117.291 2217 47.085
117.409 2047 45.2438
117.526 2022 44.9667
117.644 1921 43.8292
117.761 2313 48.0937
117.879 2654 51.517
117.996 2922 54.0555
118.114 2945 54.2679
118.231 3114 55.8032
118.349 3086 55.5518
118.466 3085 55.5428
118.584 3120 55.857
118.701 3116 55.8211
118.819 3163 56.2406
118.936 3078 55.4797
119.053 2892 53.7773
119.171 2759 52.5262
119.288 2728 52.2303
119.405 2782 52.7447
119.523 2626 51.2445
119.64 2673 51.7011
119.757 2713 52.0865
119.875 2661 51.5849
119.992 2767 52.6023
120.109 2743 52.3737
120.226 2744 52.3832
120.343 2744 52.3832
120.46 2691 51.8748
120.578 2684 51.8073
120.695 2715 52.1057
120.812 2464 49.6387
120.929 2335 48.3218
121.046 2098 45.8039
121.163 1978 44.4747
121.279 1942 44.0681
121.396 2059 45.3762
121.513 2489 49.8899
121.63 2731 52.259
121.747 2850 53.3854
121.863 3011 54.8726
121.98 3018 54.9363
122.097 3050 55.2268
122.213 3053 55.254
122.33 3065 55.3624
122.446 3064 55.3534
122.563 2947 54.2863
122.679 2923 54.0648
122.795 2857 53.4509
122.912 2709 52.0481
123.028 2831 53.2071
123.144 2544 50.4381
123.26 2605 51.0392
123.377 0 1
123.493 0 1
123.609 0 1
123.725 0 1
123.84 0 1
123.956 0 1
124.072 0 1
124.188 0 1
124.303 0 1
124.419 0 1
126.852 0 1
126.968 0 1
127.083 0 1
127.199 0 1
127.315 0 1
127.431 0 1
127.547 0 1
127.663 0 1
127.779 0 1
127.895 0 1
128.011 0 1
128.127 0 1
128.243 0 1
128.359 2978 54.5711
128.476 2939 54.2125
128.592 2938 54.2033
128.708 2927 54.1018
128.825 2961 54.4151
128.941 2964 54.4426
129.058 2951 54.3231
129.174 2984 54.626
129.291 2987 54.6535
129.408 2919 54.0278
129.524 2905 53.8981
129.641 2959 54.3967
129.758 2708 52.0384
129.875 2396 48.949
129.992 2186 46.7547
130.108 2054 45.3211
130.225 2138 46.2385
130.342 2369 48.6724
130.459 2699 51.9519
130.576 3025 55
130.693 3207 56.6304
130.81 3219 56.7362
130.928 3227 56.8067
131.045 3273 57.2101
131.162 3320 57.6194
131.279 3415 58.438
131.396 3390 58.2237
131.513 3176 56.356
131.631 3202 56.5862
131.748 3109 55.7584
131.865 3168 56.285
131.983 3257 57.0701
132.1 3149 56.116
132.217 3230 56.8331
132.335 3109 55.7584
132.452 3159 56.205
132.57 3183 56.4181
132.687 3005 54.8179
132.804 3228 56.8155
132.922 3089 55.5788
133.039 3160 56.2139
133.157 3099 55.6687
133.274 2995 54.7266
133.392 2658 51.5558
133.509 2428 49.2747
133.627 2235 47.2758
133.744 2094 45.7602
133.862 2267 47.613
133.979 2500 50
134.097 2833 53.2259
134.214 3065 55.3624
134.332 3258 57.0789
134.449 3227 56.8067
134.567 3258 57.0789
134.684 3324 57.6541
134.802 3395 58.2666
134.919 3337 57.7668
135.037 3362 57.9828
135.154 3187 56.4535
135.272 3159 56.205
135.389 3286 57.3236
135.507 3221 56.7539
135.624 3180 56.3915
135.742 3181 56.4004
135.859 3145 56.0803
135.977 3240 56.921
136.094 3242 56.9386
136.211 3155 56.1694
136.329 3106 55.7315
136.446 3284 57.3062
136.564 3211 56.6657
136.681 3164 56.2494
136.798 3007 54.8361
136.915 2910 53.9444
137.033 2655 51.5267
137.15 2478 49.7795
137.267 2254 47.4763
137.384 2146 46.3249
137.502 2311 48.0729
137.619 2479 49.7896
137.736 2836 53.2541
137.853 2971 54.5069
137.97 3255 57.0526
138.087 3211 56.6657
138.204 3241 56.9298
138.321 3245 56.9649
138.438 3371 58.0603
138.555 3304 57.4804
138.672 3513 59.2706
138.788 3359 57.9569
138.905 3243 56.9473
139.022 3326 57.6715
139.139 3326 57.6715
139.255 3247 56.9825
139.372 3248 56.9912
139.488 3160 56.2139
139.605 3203 56.5951
139.721 3309 57.5239
139.838 3287 57.3324
139.954 3325 57.6628
140.071 3224 56.7803
140.187 3215 56.701
140.303 3210 56.6569
140.419 3132 55.9643
140.535 2953 54.3415
140.652 2680 51.7687
140.768 0 1
140.884 0 1
141 0 1
141.115 0 1
141.231 0 1
141.347 0 1
141.463 0 1
141.578 0 1
141.694 0 1
144.104 0 1
144.219 0 1
144.335 0 1
144.45 0 1
144.566 0 1
144.682 0 1
144.798 0 1
144.914 0 1
145.03 0 1
145.146 2351 48.4871
145.262 2603 51.0196
145.378 2549 50.4876
145.494 2537 50.3686
145.61 2511 50.1099
145.726 2272 47.6655
145.842 2170 46.5833
145.959 1988 44.587
146.075 1826 42.7317
146.192 1852 43.0349
146.308 1906 43.6578
146.425 2080 45.607
146.541 2216 47.0744
146.658 2257 47.5079
146.774 2439 49.3862
146.891 2478 49.7795
147.008 2731 52.259
147.125 2661 51.5849
147.241 2806 52.9717
147.358 2866 53.535
147.475 2884 53.7029
147.592 2847 53.3573
147.709 2815 53.0566
147.826 2822 53.1225
147.943 2860 53.479
148.06 2866 53.535
148.177 2714 52.0961
148.294 2811 53.0189
148.411 2787 52.792
148.528 2835 53.2447
148.645 2775 52.6783
148.762 2815 53.0566
148.88 2878 53.647
148.997 2701 51.9711
149.114 2841 53.301
149.231 2774 52.6688
149.349 2687 51.8363
149.466 2590 50.892
149.583 2535 50.3488
149.701 2296 47.9166
149.818 2117 46.0109
149.935 1971 44.3959
150.053 1983 44.5309
150.17 2075 45.5522
150.287 2275 47.697
150.405 2464 49.6387
150.522 2447 49.4672
150.64 2661 51.5849
150.757 2798 52.8961
150.875 2909 53.9351
150.992 3010 54.8635
151.11 2879 53.6563
151.227 2901 53.8609
151.344 3009 54.8544
151.462 3036 55.0999
151.579 3066 55.3715
151.697 3054 55.263
151.814 3058 55.2992
151.932 2982 54.6077
152.049 2986 54.6443
152.167 2967 54.4702
152.284 2986 54.6443
152.402 2942 54.2402
152.519 2943 54.2494
152.636 3058 55.2992
152.754 2962 54.4243
152.871 2839 53.2823
152.989 2843 53.3198
153.106 2700 51.9615
153.223 2597 50.9608
153.341 2409 49.0816
153.458 2259 47.5289
153.575 2146 46.3249
153.693 2161 46.4866
153.81 2303 47.9896
153.927 2418 49.1732
154.044 2558 50.5767
154.162 2611 51.0979
154.279 2878 53.647
154.396 3004 54.8088
154.513 3010 54.8635
154.63 3093 55.6147
154.747 3148 56.107
154.864 3170 56.3028
154.981 3145 56.0803
155.098 3219 56.7362
155.215 3055 55.2721
155.332 3031 55.0545
155.449 3139 56.0268
155.566 3013 54.8908
155.683 2993 54.7083
155.8 2996 54.7357
155.917 2975 54.5436
156.033 3179 56.3826
156.15 0 1
156.267 0 1
156.383 0 1
156.5 0 1
156.617 0 1
156.733 0 1
156.85 0 1
156.966 0 1
157.082 0 1
157.199 0 1
157.315 0 1
157.431 0 1
157.547 0 1
157.664 0 1
157.78 0 1
157.896 0 1
158.012 0 1
158.128 0 1
158.244 0 1
158.359 0 1
158.475 0 1
158.591 0 1
158.706 0 1
