
6.15755 0 1
6.2731 0 1
6.3887 0 1
6.50437 0 1
6.62009 0 1
6.73587 0 1
6.8517 0 1
6.96759 0 1
7.08353 0 1
7.19952 0 1
7.31557 0 1
7.43166 0 1
7.54781 0 1
7.664 0 1
7.78024 0 1
7.89653 0 1
8.01286 0 1
8.12924 0 1
8.24567 0 1
8.36213 0 1
8.47864 0 1
8.59519 0 1
8.71178 0 1
8.82841 0 1
8.94508 0 1
9.06179 0 1
9.17853 0 1
9.29531 0 1
9.41212 0 1
9.52897 0 1
9.64584 0 1
9.76276 0 1
9.8797 0 1
9.99667 0 1
10.1137 0 1
10.2307 0 1
10.3478 0 1
10.4648 0 1
10.5819 0 1
10.6991 0 1
10.8162 0 1
10.9334 0 1
11.0506 0 1
11.1678 0 1
11.285 0 1
11.4023 0 1
11.5196 0 1
11.6369 0 1
11.7542 0 1
11.8715 0 1
11.9888 0 1
12.1062 0 1
12.2235 0 1
12.3409 0 1
12.4582 0 1
12.5756 0 1
12.693 0 1
12.8104 0 1
12.9278 0 1
13.0452 0 1
13.1626 0 1
13.28 0 1
13.3974 0 1
13.5149 0 1
13.6323 0 1
13.7497 0 1
13.8671 0 1
13.9845 0 1
14.1019 0 1
14.2193 0 1
14.3367 0 1
14.4541 0 1
14.5714 0 1
14.6888 0 1
14.8062 0 1
14.9235 0 1
15.0408 3319 57.6108
15.1581 3409 58.3866
15.2755 3444 58.6856
15.3927 3413 58.4209
15.51 3393 58.2495
15.6273 3386 58.1893
15.7445 3299 57.4369
15.8617 3231 56.8419
15.9789 3291 57.3672
16.0961 3475 58.9491
16.2132 3564 59.6992
16.3304 3652 60.4318
16.4475 3900 62.45
16.5646 3869 62.2013
16.6816 3773 61.4248
16.7986 3921 62.6179
16.9156 3810 61.7252
17.0326 3741 61.1637
17.1496 3771 61.4085
17.2665 3752 61.2536
17.3833 3673 60.6053
17.5002 3696 60.7947
17.617 3844 62
17.7338 3818 61.79
17.8505 3874 62.2415
17.9672 4136 64.3117
18.0839 4001 63.2535
18.2005 4200 64.8074
18.3171 4296 65.5439
18.4337 4298 65.5591
18.5502 4442 66.6483
18.6666 4516 67.2012
18.7831 4458 66.7683
18.8994 4352 65.9697
19.0158 4298 65.5591
19.1321 4263 65.2917
19.2483 4195 64.7688
19.3645 4011 63.3325
19.4806 4104 64.0625
19.5967 4278 65.4064
19.7128 4335 65.8407
19.8288 4273 65.3682
19.9447 4171 64.5833
20.0606 0 1
20.1764 0 1
20.2922 0 1
20.4079 0 1
20.5236 0 1
20.6392 0 1
20.7548 0 1
20.8702 0 1
23.3078 0 1
23.4233 0 1
23.539 0 1
23.6547 0 1
23.7704 0 1
23.8862 0 1
24.0021 0 1
24.118 0 1
24.234 0 1
24.35 0 1
24.4661 4137 64.3195
24.5822 4297 65.5515
24.6984 4247 65.169
24.8146 4341 65.8863
24.9309 4573 67.624
25.0472 4569 67.5944
25.1636 4590 67.7495
25.28 4748 68.9057
25.3965 4678 68.3959
25.513 4587 67.7274
25.6296 4663 68.2862
25.7462 4558 67.513
25.8628 4624 68
25.9795 4636 68.0882
26.0962 4604 67.8528
26.213 4624 68
26.3298 4687 68.4617
26.4466 4823 69.4478
26.5635 4919 70.1356
26.6804 4983 70.5904
26.7973 5152 71.7774
26.9143 5128 71.6101
27.0313 5121 71.5612
27.1483 5319 72.9315
27.2653 5351 73.1505
27.3824 5420 73.6206
27.4996 5396 73.4575
27.6167 5104 71.4423
27.7339 4948 70.342
27.8511 4832 69.5126
27.9683 4719 68.695
28.0855 4476 66.9029
28.2028 4636 68.0882
28.3201 4610 67.897
28.4374 4771 69.0724
28.5547 4904 70.0286
28.6721 4980 70.5691
28.7894 5158 71.8192
28.9068 4939 70.278
29.0242 4856 69.685
29.1416 4719 68.695
29.259 4659 68.2569
29.3764 4500 67.082
29.4939 4591 67.7569
29.6113 4482 66.9477
29.7288 4698 68.542
29.8463 4659 68.2569
29.9638 4789 69.2026
30.0812 4938 70.2709
30.1987 5031 70.9295
30.3162 5202 72.1249
30.4337 5292 72.7461
30.5512 5319 72.9315
30.6687 5301 72.808
30.7862 5533 74.3841
30.9037 5435 73.7225
31.0212 5435 73.7225
31.1387 5142 71.7077
31.2562 5127 71.6031
31.3737 5029 70.9154
31.4912 4918 70.1285
31.6087 4693 68.5055
31.7262 4836 69.5414
31.8436 4772 69.0797
31.9611 4796 69.2532
32.0785 5096 71.3863
32.1959 5277 72.643
32.3134 5294 72.7599
32.4308 5220 72.2496
32.5482 5196 72.0833
32.6655 5017 70.8308
32.7829 4880 69.857
32.9002 4654 68.2202
33.0176 4601 67.8307
33.1349 4640 68.1175
33.2522 4693 68.5055
33.3694 4611 67.9043
33.4867 4852 69.6563
33.6039 5003 70.7319
33.7211 5144 71.7217
33.8383 5222 72.2634
33.9554 5369 73.2735
34.0725 5492 74.108
34.1896 5345 73.1095
34.3067 5384 73.3757
34.4237 5693 75.452
34.5407 5435 73.7225
34.6577 5465 73.9256
34.7746 5660 75.233
34.8915 5387 73.3962
35.0084 5238 72.374
35.1252 5202 72.1249
35.242 5071 71.211
35.3587 4945 70.3207
35.4755 4842 69.5845
35.5921 4937 70.2638
35.7088 5068 71.1899
35.8254 5094 71.3723
35.9419 5232 72.3326
36.0584 5365 73.2462
36.1749 5410 73.5527
36.2913 5325 72.9726
36.4077 5032 70.9366
36.524 4900 70
36.6403 4770 69.0652
36.7565 4730 68.775
36.8727 4629 68.0368
36.9889 4688 68.469
37.1049 4736 68.8186
37.221 0 1
37.3369 0 1
37.4529 0 1
37.5687 0 1
37.6845 0 1
37.8003 0 1
37.916 0 1
38.0316 0 1
38.1472 0 1
40.5851 0 1
40.7008 0 1
40.8164 0 1
40.9322 0 1
41.048 0 1
41.1639 0 1
41.2798 0 1
41.3958 0 1
41.5118 0 1
41.6279 0 1
41.744 3944 62.8013
41.8602 3855 62.0886
41.9765 4027 63.4586
42.0928 4030 63.4823
42.2091 4189 64.7225
42.3255 4322 65.7419
42.4419 4579 67.6683
42.5584 4712 68.644
42.675 4853 69.6635
42.7915 5137 71.6729
42.9081 5028 70.9084
43.0248 5046 71.0352
43.1415 5132 71.638
43.2582 5185 72.0069
43.375 5089 71.3372
43.4918 5190 72.0417
43.6087 5106 71.4563
43.7256 4852 69.6563
43.8425 4890 69.9285
43.9595 4537 67.3573
44.0765 4441 66.6408
44.1935 4321 65.7343
44.3106 4391 66.2646
44.4277 4246 65.1613
44.5448 4390 66.2571
44.6619 4518 67.2161
44.7791 4575 67.6387
44.8963 4455 66.7458
45.0136 4224 64.9923
45.1308 4086 63.9218
45.2481 3850 62.0484
45.3654 3699 60.8194
45.4827 3730 61.0737
45.6001 3581 59.8415
45.7174 3588 59.8999
45.8348 3632 60.2661
45.9522 3861 62.1369
46.0697 3960 62.9285
46.1871 4069 63.7887
46.3046 4270 65.3452
46.422 4257 65.2457
46.5395 4267 65.3223
46.657 4329 65.7951
46.7745 4382 66.1967
46.892 4343 65.9014
47.0096 4467 66.8356
47.1271 4412 66.4229
47.2446 4254 65.2227
47.3622 4131 64.2729
47.4797 4075 63.8357
47.5973 3887 62.3458
47.7149 3813 61.7495
47.8324 3717 60.9672
47.95 3682 60.6795
48.0675 3541 59.5063
48.1851 3831 61.8951
48.3027 3728 61.0574
48.4202 3709 60.9016
48.5378 3614 60.1166
48.6554 3517 59.3043
48.7729 3231 56.8419
48.8904 3093 55.6147
49.008 3035 55.0908
49.1255 2915 53.9907
49.243 3056 55.2811
49.3605 3063 55.3444
49.478 3265 57.1402
49.5955 3409 58.3866
49.713 3487 59.0508
49.8304 3626 60.2163
49.9479 3884 62.3217
50.0653 3926 62.6578
50.1827 3939 62.7615
50.3001 4182 64.6684
50.4175 4131 64.2729
50.5348 4142 64.3584
50.6521 4146 64.3894
50.7694 4164 64.5291
50.8867 4042 63.5767
51.004 4202 64.8228
51.1212 4097 64.0078
51.2384 4032 63.498
51.3556 4030 63.4823
51.4727 4141 64.3506
51.5899 4316 65.6963
51.707 4380 66.1816
51.824 4314 65.681
51.9411 4627 68.0221
52.0581 4631 68.0515
52.175 4378 66.1665
52.2919 4267 65.3223
52.4088 4104 64.0625
52.5257 4005 63.2851
52.6425 3967 62.9841
52.7593 4010 63.3246
52.876 4279 65.4141
52.9927 4435 66.5958
53.1094 4746 68.8912
53.226 5088 71.3302
53.3426 5297 72.7805
53.4591 5739 75.7562
53.5756 5727 75.6769
53.692 5853 76.5049
53.8084 5931 77.013
53.9248 6049 77.7753
54.0411 6181 78.6193
54.1573 6274 79.2086
54.2735 0 1
54.3896 0 1
54.5057 0 1
54.6217 0 1
54.7377 0 1
54.8537 0 1
54.9695 0 1
55.0853 0 1
55.2011 0 1
55.3168 0 1
55.4324 0 1
57.824 0 1
57.9396 0 1
58.0553 0 1
58.1711 0 1
58.2869 0 1
58.4028 0 1
58.5187 0 1
58.6347 0 1
58.7508 0 1
58.8669 0 1
58.983 6982 83.5584
59.0992 7421 86.1452
59.2155 7297 85.4225
59.3318 7380 85.9069
59.4482 7486 86.5217
59.5646 7253 85.1645
59.681 7204 84.8764
59.7975 7196 84.8292
59.9141 6930 83.2466
60.0306 6886 82.9819
60.1473 6928 83.2346
60.2639 7034 83.8689
60.3807 7001 83.672
60.4974 6938 83.2947
60.6142 6839 82.6982
60.731 6604 81.265
60.8479 5928 76.9935
60.9648 5651 75.1731
61.0818 5532 74.3774
61.1987 5318 72.9246
61.3158 5440 73.7564
61.4328 5347 73.1232
61.5499 5543 74.4513
61.667 6003 77.479
61.7841 6359 79.7433
61.9013 6598 81.2281
62.0185 6807 82.5045
62.1357 6997 83.6481
62.253 7096 84.2378
62.3702 7354 85.7555
62.4875 7359 85.7846
62.6049 7324 85.5804
62.7222 7283 85.3405
62.8396 7215 84.9412
62.9569 7030 83.8451
63.0743 7037 83.8868
63.1918 6840 82.7043
63.3092 6752 82.1706
63.4267 6732 82.0488
63.5441 6728 82.0244
63.6616 6621 81.3695
63.7791 6729 82.0305
63.8966 6632 81.4371
64.0142 6772 82.2922
64.1317 6721 81.9817
64.2492 6307 79.4166
64.3668 6037 77.6981
64.4843 5693 75.452
64.6019 5285 72.698
64.7195 5055 71.0985
64.837 5045 71.0282
64.9546 5026 70.8943
65.0722 5238 72.374
65.1898 5614 74.9266
65.3074 5883 76.7007
65.4249 6181 78.6193
65.5425 6449 80.3057
65.6601 6818 82.5712
65.7777 6942 83.3187
65.8952 7289 85.3756
66.0128 7134 84.463
66.1304 7131 84.4452
66.2479 7010 83.7257
66.3655 7376 85.8836
66.483 7276 85.2995
66.6005 7223 84.9882
66.718 7035 83.8749
66.8355 6975 83.5165
66.953 6848 82.7526
67.0705 6881 82.9518
67.1879 6826 82.6196
67.3054 7050 83.9643
67.4228 6821 82.5893
67.5402 6905 83.0963
67.6576 6934 83.2706
67.7749 6822 82.5954
67.8923 6538 80.8579
68.0096 6256 79.0949
68.1269 5866 76.5898
68.2442 5584 74.7262
68.3614 5346 73.1163
68.4787 5373 73.3008
68.5958 5404 73.5119
68.713 5712 75.5778
68.8302 5927 76.987
68.9473 6455 80.343
69.0643 6926 83.2226
69.1814 7335 85.6446
69.2984 7707 87.7895
69.4154 8072 89.8443
69.5323 8346 91.3564
69.6492 8413 91.7224
69.7661 8459 91.9728
69.8829 8590 92.6823
69.9997 8628 92.887
70.1165 8607 92.7739
70.2332 8625 92.8709
70.3499 8578 92.6175
70.4665 8534 92.3797
70.5831 8558 92.5095
70.6996 8410 91.7061
70.8161 8194 90.5207
70.9326 8000 89.4427
71.049 8167 90.3715
71.1653 8264 90.9065
71.2817 8274 90.9615
71.3979 8013 89.5154
71.5141 7626 87.327
71.6303 7288 85.3698
71.7464 6237 78.9747
71.8624 0 1
71.9784 0 1
72.0944 0 1
72.2102 0 1
72.3261 0 1
72.4418 0 1
72.5575 0 1
72.6732 0 1
75.1054 0 1
75.2209 0 1
75.3365 0 1
75.4521 0 1
75.5678 0 1
75.6835 0 1
75.7993 0 1
75.9151 0 1
76.031 0 1
76.147 8140 90.2219
76.263 8520 92.3038
76.3791 8873 94.1966
76.4952 9469 97.3088
76.6113 9390 96.902
76.7276 9426 97.0876
76.8438 9034 95.0474
76.9601 8235 90.7469
77.0765 7863 88.6736
77.1929 7077 84.1249
77.3093 6601 81.2465
77.4258 6314 79.4607
77.5423 6246 79.0316
77.6589 6690 81.7924
77.7755 7225 85
77.8921 7968 89.2637
78.0088 8682 93.1773
78.1256 9586 97.9081
78.2423 9913 99.564
78.3591 10107 100.534
78.4759 10352 101.745
78.5928 10402 101.99
78.7097 10327 101.622
78.8266 9953 99.7647
78.9436 10716 103.518
79.0606 10258 101.282
79.1776 10080 100.399
79.2946 10301 101.494
79.4117 10022 100.11
79.5288 9956 99.7798
79.6459 9912 99.559
79.7631 9549 97.719
79.8802 9362 96.7574
79.9974 9654 98.2548
80.1147 9709 98.5343
80.2319 10007 100.035
80.3491 9909 99.544
80.4664 9615 98.0561
80.5837 8886 94.2656
80.701 8284 91.0165
80.8183 7424 86.1626
80.9357 6824 82.6075
81.053 6369 79.806
81.1704 6421 80.1311
81.2877 6413 80.0812
81.4051 6863 82.8432
81.5225 7411 86.0872
81.6399 8543 92.4284
81.7573 9203 95.9323
81.8747 9456 97.242
81.9922 9901 99.5038
82.1096 10088 100.439
82.227 10233 101.158
82.3444 10181 100.901
82.4619 10218 101.084
82.5793 10397 101.966
82.6967 9801 99
82.8142 9776 98.8737
82.9316 9885 99.4233
83.049 9724 98.6103
83.1664 9463 97.278
83.2838 9322 96.5505
83.4012 9328 96.5816
83.5186 8992 94.8262
83.636 8963 94.6731
83.7534 9249 96.1717
83.8708 9446 97.1905
83.9881 9329 96.5867
84.1055 9179 95.8071
84.2228 8548 92.4554
84.3401 8024 89.5768
84.4575 7300 85.44
84.5747 6565 81.0247
84.692 6453 80.3306
84.8093 6218 78.8543
84.9265 6475 80.4674
85.0437 6835 82.6741
85.1609 7638 87.3957
85.2781 8557 92.5041
85.3952 9202 95.9271
85.5123 9906 99.5289
85.6294 10472 102.333
85.7465 10913 104.465
85.8636 10978 104.776
85.9806 11264 106.132
86.0976 11410 106.818
86.2145 11452 107.014
86.3315 11753 108.411
86.4484 11342 106.499
86.5652 11539 107.42
86.682 11656 107.963
86.7988 11731 108.31
86.9156 11599 107.699
87.0323 11563 107.531
87.149 11636 107.87
87.2657 11570 107.564
87.3823 11930 109.225
87.4988 12442 111.544
87.6154 12294 110.878
87.7318 11678 108.065
87.8483 11031 105.029
87.9647 10239 101.188
88.081 9344 96.6644
88.1973 8542 92.4229
88.3136 8227 90.7028
88.4298 8341 91.3291
88.546 8664 93.0806
88.6621 9437 97.1442
88.7781 10768 103.769
88.8942 0 1
89.0101 0 1
89.126 0 1
89.2419 0 1
89.3577 0 1
89.4734 0 1
89.5891 0 1
89.7047 0 1
89.8203 0 1
89.9358 0 1
92.3269 0 1
92.4424 0 1
92.558 0 1
92.6736 0 1
92.7893 0 1
92.905 0 1
93.0208 0 1
93.1366 0 1
93.2525 0 1
93.3685 0 1
93.4845 0 1
93.6005 8968 94.6995
93.7167 9092 95.352
93.8328 9120 95.4987
93.949 9685 98.4124
94.0653 10349 101.73
94.1816 11752 108.407
94.2979 12538 111.973
94.4143 13611 116.666
94.5307 14227 119.277
94.6472 14876 121.967
94.7637 14883 121.996
94.8803 15226 123.394
94.9969 15135 123.024
95.1135 15102 122.89
95.2302 15078 122.793
95.3469 15326 123.798
95.4637 14899 122.061
95.5805 14965 122.332
95.6973 15179 123.203
95.8142 15337 123.843
95.9311 14991 122.438
96.048 14995 122.454
96.1649 14786 121.598
96.2819 14570 120.706
96.3989 14603 120.843
96.516 14895 122.045
96.633 14925 122.168
96.7501 14813 121.709
96.8673 13921 117.987
96.9844 12954 113.816
97.1016 11871 108.954
97.2188 10799 103.918
97.336 10255 101.267
97.4532 9493 97.432
97.5704 9715 98.5647
97.6877 9999 99.995
97.805 10874 104.278
97.9223 11844 108.83
98.0396 13155 114.695
98.1569 13711 117.094
98.2743 14693 121.215
98.3916 15435 124.238
98.509 15429 124.214
98.6264 15522 124.587
98.7438 15788 125.65
98.8612 15965 126.353
98.9786 15879 126.012
99.096 15535 124.639
99.2134 15558 124.732
99.3308 15766 125.563
99.4482 15760 125.539
99.5656 15581 124.824
99.6831 15647 125.088
99.8005 15357 123.923
99.9179 15172 123.175
100.035 15396 124.081
100.153 15695 125.28
100.27 15658 125.132
100.388 15459 124.334
100.505 14644 121.012
100.622 13513 116.245
100.74 12393 111.324
100.857 11254 106.085
100.975 10242 101.203
101.092 10017 100.085
101.209 10190 100.946
101.327 10600 102.956
101.444 11672 108.037
101.561 13198 114.883
101.679 14126 118.853
101.796 15086 122.825
101.913 15809 125.734
102.03 16261 127.519
102.148 16080 126.807
102.265 16060 126.728
102.382 16843 129.781
102.499 16412 128.109
102.616 16403 128.074
102.733 16196 127.264
102.851 16005 126.511
102.968 16304 127.687
103.085 16663 129.085
103.202 16306 127.695
103.319 16105 126.905
103.436 15714 125.355
103.552 15971 126.376
103.669 16269 127.55
103.786 16298 127.664
103.903 16205 127.299
104.02 15408 124.129
104.137 14605 120.851
104.253 13440 115.931
104.37 12363 111.189
104.487 11382 106.686
104.603 10793 103.889
104.72 10937 104.58
104.836 11411 106.822
104.953 12385 111.288
105.069 13607 116.649
105.186 15009 122.511
105.302 16075 126.787
105.418 16617 128.907
105.535 17209 131.183
105.651 17538 132.431
105.767 17540 132.439
105.883 17809 133.45
105.999 17563 132.525
106.115 0 1
106.231 0 1
106.347 0 1
106.463 0 1
106.579 0 1
106.694 0 1
106.81 0 1
106.926 0 1
107.041 0 1
107.157 0 1
109.576 0 1
109.692 0 1
109.807 0 1
109.923 0 1
110.039 0 1
110.155 0 1
110.27 0 1
110.386 0 1
110.502 0 1
110.618 15587 124.848
110.735 15734 125.435
110.851 16455 128.277
110.967 16243 127.448
111.083 16318 127.742
111.199 16258 127.507
111.316 16235 127.417
111.432 16079 126.803
111.549 16292 127.64
111.665 16154 127.098
111.782 15737 125.447
111.898 15479 124.415
112.015 15565 124.76
112.132 15977 126.4
112.248 15979 126.408
112.365 15599 124.896
112.482 14445 120.187
112.599 14087 118.689
112.716 13004 114.035
112.832 11951 109.321
112.949 11052 105.128
113.066 10431 102.132
113.183 10251 101.247
113.3 10471 102.328
113.417 11055 105.143
113.534 11925 109.202
113.652 12978 113.921
113.769 13873 117.784
113.886 14953 122.282
114.003 14812 121.705
114.12 15230 123.41
114.238 15367 123.964
114.355 15408 124.129
114.472 15116 122.947
114.589 15199 123.284
114.707 14872 121.951
114.824 14975 122.372
114.942 14944 122.246
115.059 15248 123.483
115.176 15243 123.463
115.294 15105 122.902
115.411 14946 122.254
115.529 14486 120.358
115.646 15164 123.142
115.764 15179 123.203
115.881 14920 122.147
115.999 14973 122.364
116.116 14025 118.427
116.234 13240 115.065
116.351 12410 111.4
116.469 11652 107.944
116.586 10921 104.504
116.704 10434 102.147
116.821 10325 101.612
116.939 10330 101.637
117.056 11110 105.404
117.174 11578 107.601
117.291 12678 112.597
117.409 13466 116.043
117.526 14228 119.281
117.644 14684 121.178
117.761 14712 121.293
117.879 15091 122.845
117.996 14764 121.507
118.114 15109 122.919
118.231 14865 121.922
118.349 14608 120.864
118.466 14510 120.457
118.584 14690 121.202
118.701 14903 122.078
118.819 14935 122.209
118.936 14629 120.95
119.053 14247 119.361
119.171 14287 119.528
119.288 14261 119.419
119.405 14647 121.025
119.523 14529 120.536
119.64 14027 118.436
119.757 13672 116.927
119.875 13110 114.499
119.992 12412 111.409
120.109 11576 107.592
120.226 10799 103.918
120.343 10090 100.449
120.46 10050 100.25
120.578 10005 100.025
120.695 10498 102.46
120.812 11000 104.881
120.929 11517 107.317
121.046 12305 110.928
121.163 13424 115.862
121.279 13709 117.085
121.396 13993 118.292
121.513 14311 119.629
121.63 14351 119.796
121.747 14382 119.925
121.863 14024 118.423
121.98 13987 118.267
122.097 14042 118.499
122.213 13870 117.771
122.33 14112 118.794
122.446 13933 118.038
122.563 13763 117.316
122.679 13833 117.614
122.795 13498 116.181
122.912 13530 116.319
123.028 13704 117.064
123.144 13596 116.602
123.26 13292 115.291
123.377 0 1
123.493 0 1
123.609 0 1
123.725 0 1
123.84 0 1
123.956 0 1
124.072 0 1
124.188 0 1
124.303 0 1
124.419 0 1
126.852 0 1
126.968 0 1
127.083 0 1
127.199 0 1
127.315 0 1
127.431 0 1
127.547 0 1
127.663 0 1
127.779 0 1
127.895 0 1
128.011 0 1
128.127 0 1
128.243 0 1
128.359 14485 120.354
128.476 14675 121.14
128.592 14339 119.746
128.708 13867 117.758
128.825 13220 114.978
128.941 12494 111.777
129.058 11749 108.393
129.174 11339 106.485
129.291 11148 105.584
129.408 11083 105.276
129.524 11042 105.081
129.641 11447 106.991
129.758 12222 110.553
129.875 12980 113.93
129.992 13568 116.482
130.108 13887 117.843
130.225 14064 118.592
130.342 14291 119.545
130.459 14124 118.844
130.576 14448 120.2
130.693 14105 118.764
130.81 13759 117.299
130.928 13837 117.631
131.045 14039 118.486
131.162 14348 119.783
131.279 14514 120.474
131.396 14435 120.146
131.513 14185 119.101
131.631 14271 119.461
131.748 14362 119.842
131.865 14556 120.648
131.983 14720 121.326
132.1 14139 118.908
132.217 13632 116.756
132.335 13038 114.184
132.452 12856 113.384
132.57 12040 109.727
132.687 11442 106.967
132.804 11404 106.79
132.922 10881 104.312
133.039 10641 103.155
133.157 11026 105.005
133.274 11460 107.051
133.392 12070 109.864
133.509 13000 114.018
133.627 13096 114.438
133.744 13591 116.58
133.862 13703 117.06
133.979 13733 117.188
134.097 13753 117.273
134.214 13544 116.379
134.332 13405 115.78
134.449 13311 115.373
134.567 13058 114.272
134.684 13574 116.508
134.802 14055 118.554
134.919 14016 118.389
135.037 13589 116.572
135.154 13646 116.816
135.272 13690 117.004
135.389 13832 117.61
135.507 14037 118.478
135.624 13999 118.317
135.742 13485 116.125
135.859 13482 116.112
135.977 12909 113.618
136.094 12307 110.937
136.211 11710 108.213
136.329 11320 106.395
136.446 10902 104.413
136.564 10831 104.072
136.681 10793 103.889
136.798 10810 103.971
136.915 11234 105.991
137.033 11580 107.61
137.15 12226 110.571
137.267 12682 112.614
137.384 12959 113.838
137.502 12844 113.331
137.619 12921 113.671
137.736 12886 113.517
137.853 12904 113.596
137.97 12882 113.499
138.087 12211 110.503
138.204 12703 112.708
138.321 12926 113.693
138.438 12924 113.684
138.555 13388 115.707
138.672 13372 115.637
138.788 13341 115.503
138.905 13164 114.734
139.022 13501 116.194
139.139 13446 115.957
139.255 13391 115.719
139.372 13150 114.673
139.488 13040 114.193
139.605 12618 112.33
139.721 12450 111.58
139.838 11866 108.931
139.954 11216 105.906
140.071 10806 103.952
140.187 10792 103.885
140.303 10510 102.518
140.419 10737 103.619
140.535 10538 102.655
140.652 11072 105.224
140.768 0 1
140.884 0 1
141 0 1
141.115 0 1
141.231 0 1
141.347 0 1
141.463 0 1
141.578 0 1
141.694 0 1
144.104 0 1
144.219 0 1
144.335 0 1
144.45 0 1
144.566 0 1
144.682 0 1
144.798 0 1
144.914 0 1
145.03 0 1
145.146 7507 86.6429
145.262 8154 90.2995
145.378 8461 91.9837
145.494 8600 92.7362
145.61 8678 93.1558
145.726 8953 94.6203
145.842 9301 96.4417
145.959 9542 97.6832
146.075 9827 99.1312
146.192 9708 98.5292
146.308 9761 98.7978
146.425 9790 98.9444
146.541 9835 99.1716
146.658 9590 97.9285
146.774 9531 97.6268
146.891 9187 95.8488
147.008 9766 98.8231
147.125 9721 98.5951
147.241 10039 100.195
147.358 10120 100.598
147.475 10090 100.449
147.592 10234 101.163
147.709 10308 101.528
147.826 10430 102.127
147.943 10239 101.188
148.06 10273 101.356
148.177 10178 100.886
148.294 9882 99.4082
148.411 9901 99.5038
148.528 9801 99
148.645 9292 96.395
148.762 9375 96.8246
148.88 9065 95.2103
148.997 8734 93.4559
149.114 9154 95.6765
149.231 8783 93.7177
149.349 8968 94.6995
149.466 9262 96.2393
149.583 9578 97.8673
149.701 9743 98.7066
149.818 9684 98.4073
149.935 9864 99.3177
150.053 10142 100.707
150.17 10182 100.906
150.287 9995 99.975
150.405 9835 99.1716
150.522 9601 97.9847
150.64 9648 98.2242
150.757 9873 99.363
150.875 9963 99.8148
150.992 10315 101.563
151.11 10416 102.059
151.227 10382 101.892
151.344 10447 102.211
151.462 10245 101.218
151.579 10524 102.587
151.697 10543 102.679
151.814 10116 100.578
151.932 10241 101.198
152.049 9932 99.6594
152.167 9764 98.813
152.284 9618 98.0714
152.402 9468 97.3036
152.519 9190 95.8645
152.636 9196 95.8958
152.754 9072 95.247
152.871 9030 95.0263
152.989 9233 96.0885
153.106 9468 97.3036
153.223 9570 97.8264
153.341 9874 99.368
153.458 9735 98.6661
153.575 10144 100.717
153.693 10145 100.722
153.81 10239 101.188
153.927 9966 99.8299
154.044 9780 98.8939
154.162 9576 97.857
154.279 9815 99.0707
154.396 10060 100.3
154.513 10323 101.602
154.63 10428 102.118
154.747 10578 102.849
154.864 10805 103.947
154.981 10745 103.658
155.098 10875 104.283
155.215 10758 103.721
155.332 10758 103.721
155.449 10773 103.793
155.566 10758 103.721
155.683 10677 103.33
155.8 10278 101.38
155.917 10089 100.444
156.033 9919 99.5942
156.15 0 1
156.267 0 1
156.383 0 1
156.5 0 1
156.617 0 1
156.733 0 1
156.85 0 1
156.966 0 1
157.082 0 1
157.199 0 1
157.315 0 1
157.431 0 1
157.547 0 1
157.664 0 1
157.78 0 1
157.896 0 1
158.012 0 1
158.128 0 1
158.244 0 1
158.359 0 1
158.475 0 1
158.591 0 1
158.706 0 1
