
6.15755 0 1
6.2731 0 1
6.3887 0 1
6.50437 0 1
6.62009 0 1
6.73587 0 1
6.8517 0 1
6.96759 0 1
7.08353 0 1
7.19952 0 1
7.31557 0 1
7.43166 0 1
7.54781 0 1
7.664 0 1
7.78024 0 1
7.89653 0 1
8.01286 0 1
8.12924 0 1
8.24567 0 1
8.36213 0 1
8.47864 0 1
8.59519 0 1
8.71178 0 1
8.82841 0 1
8.94508 0 1
9.06179 0 1
9.17853 0 1
9.29531 0 1
9.41212 0 1
9.52897 0 1
9.64584 0 1
9.76276 0 1
9.8797 0 1
9.99667 0 1
10.1137 0 1
10.2307 0 1
10.3478 0 1
10.4648 0 1
10.5819 0 1
10.6991 0 1
10.8162 0 1
10.9334 0 1
11.0506 0 1
11.1678 0 1
11.285 0 1
11.4023 0 1
11.5196 0 1
11.6369 0 1
11.7542 0 1
11.8715 0 1
11.9888 0 1
12.1062 0 1
12.2235 0 1
12.3409 0 1
12.4582 0 1
12.5756 0 1
12.693 0 1
12.8104 0 1
12.9278 0 1
13.0452 0 1
13.1626 0 1
13.28 0 1
13.3974 0 1
13.5149 0 1
13.6323 0 1
13.7497 0 1
13.8671 0 1
13.9845 0 1
14.1019 0 1
14.2193 0 1
14.3367 0 1
14.4541 0 1
14.5714 0 1
14.6888 0 1
14.8062 0 1
14.9235 0 1
15.0408 1695 41.1704
15.1581 1781 42.2019
15.2755 1728 41.5692
15.3927 1793 42.3438
15.51 1842 42.9185
15.6273 1840 42.8952
15.7445 1699 41.2189
15.8617 1749 41.821
15.9789 1741 41.7253
16.0961 1684 41.0366
16.2132 1831 42.7902
16.3304 1776 42.1426
16.4475 1848 42.9884
16.5646 1903 43.6234
16.6816 2020 44.9444
16.7986 2132 46.1736
16.9156 2211 47.0213
17.0326 2354 48.518
17.1496 2474 49.7393
17.2665 2359 48.5695
17.3833 2372 48.7032
17.5002 2449 49.4874
17.617 2420 49.1935
17.7338 2478 49.7795
17.8505 2486 49.8598
17.9672 2449 49.4874
18.0839 2576 50.7543
18.2005 2481 49.8096
18.3171 2648 51.4587
18.4337 2617 51.1566
18.5502 2640 51.3809
18.6666 2659 51.5655
18.7831 2788 52.8015
18.8994 2567 50.6656
19.0158 2616 51.1468
19.1321 2394 48.9285
19.2483 2442 49.4166
19.3645 2354 48.518
19.4806 2322 48.1871
19.5967 2180 46.6905
19.7128 2149 46.3573
19.8288 1933 43.9659
19.9447 1620 40.2492
20.0606 0 1
20.1764 0 1
20.2922 0 1
20.4079 0 1
20.5236 0 1
20.6392 0 1
20.7548 0 1
20.8702 0 1
23.3078 0 1
23.4233 0 1
23.539 0 1
23.6547 0 1
23.7704 0 1
23.8862 0 1
24.0021 0 1
24.118 0 1
24.234 0 1
24.35 0 1
24.4661 2356 48.5386
24.5822 2375 48.734
24.6984 2238 47.3075
24.8146 2380 48.7852
24.9309 2246 47.392
25.0472 2070 45.4973
25.1636 1939 44.0341
25.28 1925 43.8748
25.3965 1917 43.7836
25.513 2135 46.2061
25.6296 2364 48.621
25.7462 2511 50.1099
25.8628 2725 52.2015
25.9795 2810 53.0094
26.0962 2631 51.2933
26.213 2708 52.0384
26.3298 2813 53.0377
26.4466 2698 51.9423
26.5635 2807 52.9811
26.6804 2708 52.0384
26.7973 2726 52.2111
26.9143 2754 52.4786
27.0313 2689 51.8556
27.1483 2777 52.6972
27.2653 2735 52.2972
27.3824 2741 52.3546
27.4996 2853 53.4135
27.6167 2740 52.345
27.7339 2603 51.0196
27.8511 2528 50.2792
27.9683 2478 49.7795
28.0855 2541 50.4083
28.2028 2557 50.5668
28.3201 2535 50.3488
28.4374 2341 48.3839
28.5547 2275 47.697
28.6721 1967 44.3509
28.7894 1722 41.497
28.9068 1819 42.6497
29.0242 1953 44.1928
29.1416 1979 44.486
29.259 2223 47.1487
29.3764 2455 49.548
29.4939 2537 50.3686
29.6113 2596 50.951
29.7288 2577 50.7642
29.8463 2643 51.4101
29.9638 2661 51.5849
30.0812 2667 51.643
30.1987 2616 51.1468
30.3162 2639 51.3712
30.4337 2569 50.6853
30.5512 2662 51.5946
30.6687 2480 49.7996
30.7862 2550 50.4975
30.9037 2603 51.0196
31.0212 2648 51.4587
31.1387 2731 52.259
31.2562 2705 52.0096
31.3737 2510 50.0999
31.4912 2569 50.6853
31.6087 2475 49.7494
31.7262 2531 50.309
31.8436 2425 49.2443
31.9611 2461 49.6085
32.0785 2161 46.4866
32.1959 1906 43.6578
32.3134 1751 41.845
32.4308 1879 43.3474
32.5482 1885 43.4166
32.6655 2134 46.1952
32.7829 2134 46.1952
32.9002 2420 49.1935
33.0176 2586 50.8527
33.1349 2562 50.6162
33.2522 2607 51.0588
33.3694 2612 51.1077
33.4867 2628 51.264
33.6039 2571 50.705
33.7211 2590 50.892
33.8383 2624 51.225
33.9554 2618 51.1664
34.0725 2564 50.636
34.1896 2559 50.5866
34.3067 2561 50.6063
34.4237 2417 49.163
34.5407 2547 50.4678
34.6577 2599 50.9804
34.7746 2465 49.6488
34.8915 2456 49.558
35.0084 2483 49.8297
35.1252 2441 49.4065
35.242 2452 49.5177
35.3587 2448 49.4773
35.4755 2509 50.0899
35.5921 2442 49.4166
35.7088 2251 47.4447
35.8254 2097 45.793
35.9419 1858 43.1045
36.0584 1719 41.4608
36.1749 1764 42
36.2913 1846 42.9651
36.4077 1915 43.7607
36.524 2093 45.7493
36.6403 2348 48.4562
36.7565 2407 49.0612
36.8727 2469 49.689
36.9889 2396 48.949
37.1049 2292 47.8748
37.221 0 1
37.3369 0 1
37.4529 0 1
37.5687 0 1
37.6845 0 1
37.8003 0 1
37.916 0 1
38.0316 0 1
38.1472 0 1
40.5851 0 1
40.7008 0 1
40.8164 0 1
40.9322 0 1
41.048 0 1
41.1639 0 1
41.2798 0 1
41.3958 0 1
41.5118 0 1
41.6279 0 1
41.744 1588 39.8497
41.8602 1903 43.6234
41.9765 1884 43.4051
42.0928 1950 44.1588
42.2091 2031 45.0666
42.3255 2029 45.0444
42.4419 1994 44.6542
42.5584 2017 44.911
42.675 2068 45.4753
42.7915 1996 44.6766
42.9081 2023 44.9778
43.0248 1943 44.0795
43.1415 1842 42.9185
43.2582 1925 43.8748
43.375 2034 45.0999
43.4918 1954 44.2041
43.6087 1954 44.2041
43.7256 1904 43.6348
43.8425 1898 43.566
43.9595 1912 43.7264
44.0765 1879 43.3474
44.1935 1771 42.0833
44.3106 1772 42.0951
44.4277 1755 41.8927
44.5448 1549 39.3573
44.6619 1377 37.108
44.7791 1293 35.9583
44.8963 1217 34.8855
45.0136 1176 34.2929
45.1308 1206 34.7275
45.2481 1219 34.9142
45.3654 1320 36.3318
45.4827 1490 38.6005
45.6001 1559 39.4842
45.7174 1455 38.1445
45.8348 1549 39.3573
45.9522 1525 39.0512
46.0697 1508 38.833
46.1871 1508 38.833
46.3046 1481 38.4838
46.422 1517 38.9487
46.5395 1365 36.9459
46.657 1332 36.4966
46.7745 1435 37.8814
46.892 1434 37.8682
47.0096 1410 37.55
47.1271 1399 37.4032
47.2446 1413 37.5899
47.3622 1373 37.054
47.4797 1453 38.1182
47.5973 1413 37.5899
47.7149 1338 36.5787
47.8324 1325 36.4005
47.95 1214 34.8425
48.0675 1170 34.2053
48.1851 1134 33.6749
48.3027 1017 31.8904
48.4202 857 29.2746
48.5378 882 29.6985
48.6554 913 30.2159
48.7729 974 31.209
48.8904 964 31.0483
49.008 1163 34.1028
49.1255 1131 33.6303
49.243 1186 34.4384
49.3605 1186 34.4384
49.478 1203 34.6843
49.5955 1165 34.1321
49.713 1175 34.2783
49.8304 1199 34.6266
49.9479 1206 34.7275
50.0653 1136 33.7046
50.1827 1232 35.0999
50.3001 1261 35.5106
50.4175 1277 35.7351
50.5348 1346 36.6879
50.6521 1357 36.8375
50.7694 1424 37.7359
50.8867 1416 37.6298
51.004 1482 38.4968
51.1212 1488 38.5746
51.2384 1485 38.5357
51.3556 1459 38.1969
51.4727 1474 38.3927
51.5899 1384 37.2022
51.707 1416 37.6298
51.824 1326 36.4143
51.9411 1290 35.9166
52.0581 1306 36.1386
52.175 1349 36.7287
52.2919 1414 37.6032
52.4088 1555 39.4335
52.5257 1653 40.6571
52.6425 1808 42.5206
52.7593 1825 42.72
52.876 1906 43.6578
52.9927 1986 44.5646
53.1094 1925 43.8748
53.226 1968 44.3621
53.3426 2081 45.618
53.4591 1966 44.3396
53.5756 1956 44.2267
53.692 1869 43.2319
53.8084 1928 43.909
53.9248 1997 44.6878
54.0411 2101 45.8367
54.1573 2178 46.669
54.2735 0 1
54.3896 0 1
54.5057 0 1
54.6217 0 1
54.7377 0 1
54.8537 0 1
54.9695 0 1
55.0853 0 1
55.2011 0 1
55.3168 0 1
55.4324 0 1
57.824 0 1
57.9396 0 1
58.0553 0 1
58.1711 0 1
58.2869 0 1
58.4028 0 1
58.5187 0 1
58.6347 0 1
58.7508 0 1
58.8669 0 1
58.983 1965 44.3283
59.0992 2201 46.9148
59.2155 2385 48.8365
59.3318 2441 49.4065
59.4482 2593 50.9215
59.5646 2524 50.2394
59.681 2571 50.705
59.7975 2542 50.4183
59.9141 2456 49.558
60.0306 2500 50
60.1473 2275 47.697
60.2639 2204 46.9468
60.3807 2120 46.0435
60.4974 2011 44.8442
60.6142 1848 42.9884
60.731 1937 44.0114
60.8479 1821 42.6732
60.9648 1900 43.589
61.0818 2017 44.911
61.1987 2143 46.2925
61.3158 2101 45.8367
61.4328 2182 46.7119
61.5499 2220 47.1169
61.667 2216 47.0744
61.7841 2241 47.3392
61.9013 2094 45.7602
62.0185 2181 46.7012
62.1357 2026 45.0111
62.253 1956 44.2267
62.3702 2083 45.6399
62.4875 2106 45.8912
62.6049 2106 45.8912
62.7222 2267 47.613
62.8396 2290 47.8539
62.9569 2354 48.518
63.0743 2472 49.7192
63.1918 2284 47.7912
63.3092 2213 47.0425
63.4267 2274 47.6865
63.5441 2146 46.3249
63.6616 2122 46.0652
63.7791 2044 45.2106
63.8966 1872 43.2666
64.0142 1788 42.2847
64.1317 1726 41.5452
64.2492 1671 40.8779
64.3668 1659 40.7308
64.4843 1746 41.7852
64.6019 1842 42.9185
64.7195 1880 43.359
64.837 1970 44.3847
64.9546 1948 44.1362
65.0722 1968 44.3621
65.1898 2054 45.3211
65.3074 1930 43.9318
65.4249 1899 43.5775
65.5425 1892 43.4971
65.6601 1803 42.4617
65.7777 1811 42.5558
65.8952 1914 43.7493
66.0128 1869 43.2319
66.1304 1942 44.0681
66.2479 2092 45.7384
66.3655 2134 46.1952
66.483 2241 47.3392
66.6005 2188 46.7761
66.718 2245 47.3814
66.8355 2156 46.4327
66.953 2228 47.2017
67.0705 2106 45.8912
67.1879 2045 45.2217
67.3054 1972 44.4072
67.4228 1903 43.6234
67.5402 1763 41.9881
67.6576 1797 42.391
67.7749 1601 40.0125
67.8923 1663 40.7799
68.0096 1624 40.2989
68.1269 1704 41.2795
68.2442 1881 43.3705
68.3614 1941 44.0568
68.4787 1971 44.3959
68.5958 2038 45.1442
68.713 2077 45.5741
68.8302 2064 45.4313
68.9473 2072 45.5192
69.0643 1995 44.6654
69.1814 2018 44.9222
69.2984 1910 43.7035
69.4154 1912 43.7264
69.5323 1949 44.1475
69.6492 2059 45.3762
69.7661 2129 46.1411
69.8829 2221 47.1275
69.9997 2319 48.156
70.1165 2359 48.5695
70.2332 2456 49.558
70.3499 2364 48.621
70.4665 2305 48.0104
70.5831 2419 49.1833
70.6996 2354 48.518
70.8161 2382 48.8057
70.9326 2184 46.7333
71.049 2116 46
71.1653 2067 45.4643
71.2817 1898 43.566
71.3979 1806 42.4971
71.5141 1726 41.5452
71.6303 1623 40.2865
71.7464 1411 37.5633
71.8624 0 1
71.9784 0 1
72.0944 0 1
72.2102 0 1
72.3261 0 1
72.4418 0 1
72.5575 0 1
72.6732 0 1
75.1054 0 1
75.2209 0 1
75.3365 0 1
75.4521 0 1
75.5678 0 1
75.6835 0 1
75.7993 0 1
75.9151 0 1
76.031 0 1
76.147 1956 44.2267
76.263 2082 45.6289
76.3791 2132 46.1736
76.4952 2140 46.2601
76.6113 2018 44.9222
76.7276 1871 43.2551
76.8438 1799 42.4146
76.9601 1758 41.9285
77.0765 1820 42.6615
77.1929 1996 44.6766
77.3093 2203 46.9361
77.4258 2337 48.3425
77.5423 2223 47.1487
77.6589 2271 47.655
77.7755 2179 46.6798
77.8921 2244 47.3709
78.0088 2057 45.3542
78.1256 2034 45.0999
78.2423 1858 43.1045
78.3591 1779 42.1782
78.4759 1761 41.9643
78.5928 1780 42.19
78.7097 2080 45.607
78.8266 2062 45.4093
78.9436 2295 47.9062
79.0606 2420 49.1935
79.1776 2352 48.4974
79.2946 2470 49.6991
79.4117 2394 48.9285
79.5288 2325 48.2183
79.6459 2288 47.833
79.7631 2218 47.0956
79.8802 2133 46.1844
79.9974 2017 44.911
80.1147 1894 43.5201
80.2319 1813 42.5793
80.3491 1682 41.0122
80.4664 1639 40.4846
80.5837 1675 40.9268
80.701 1812 42.5676
80.8183 1800 42.4264
80.9357 1810 42.5441
81.053 2034 45.0999
81.1704 2029 45.0444
81.2877 1977 44.4635
81.4051 1942 44.0681
81.5225 2006 44.7884
81.6399 1956 44.2267
81.7573 1797 42.391
81.8747 1648 40.5956
81.9922 1538 39.2173
82.1096 1556 39.4462
82.227 1655 40.6817
82.3444 1769 42.0595
82.4619 1903 43.6234
82.5793 2022 44.9667
82.6967 2059 45.3762
82.8142 2001 44.7325
82.9316 2061 45.3982
83.049 1997 44.6878
83.1664 1971 44.3959
83.2838 1949 44.1475
83.4012 1884 43.4051
83.5186 1823 42.6966
83.636 1711 41.3642
83.7534 1655 40.6817
83.8708 1622 40.2741
83.9881 1536 39.1918
84.1055 1482 38.4968
84.2228 1526 39.064
84.3401 1599 39.9875
84.4575 1610 40.1248
84.5747 1723 41.509
84.692 1744 41.7612
84.8093 1873 43.2782
84.9265 1793 42.3438
85.0437 1826 42.7317
85.1609 1767 42.0357
85.2781 1650 40.6202
85.3952 1550 39.37
85.5123 1402 37.4433
85.6294 1461 38.223
85.7465 1514 38.9102
85.8636 1695 41.1704
85.9806 1785 42.2493
86.0976 2117 46.0109
86.2145 2121 46.0543
86.3315 2303 47.9896
86.4484 2169 46.5725
86.5652 2210 47.0106
86.682 2285 47.8017
86.7988 2306 48.0208
86.9156 2276 47.7074
87.0323 2142 46.2817
87.149 2075 45.5522
87.2657 1958 44.2493
87.3823 1917 43.7836
87.4988 1805 42.4853
87.6154 1804 42.4735
87.7318 1863 43.1625
87.8483 1951 44.1701
87.9647 1922 43.8406
88.081 2034 45.0999
88.1973 2175 46.6369
88.3136 2278 47.7284
88.4298 2172 46.6047
88.546 2236 47.2864
88.6621 2167 46.551
88.7781 2027 45.0222
88.8942 0 1
89.0101 0 1
89.126 0 1
89.2419 0 1
89.3577 0 1
89.4734 0 1
89.5891 0 1
89.7047 0 1
89.8203 0 1
89.9358 0 1
92.3269 0 1
92.4424 0 1
92.558 0 1
92.6736 0 1
92.7893 0 1
92.905 0 1
93.0208 0 1
93.1366 0 1
93.2525 0 1
93.3685 0 1
93.4845 0 1
93.6005 1995 44.6654
93.7167 2284 47.7912
93.8328 2222 47.1381
93.949 2223 47.1487
94.0653 2166 46.5403
94.1816 2123 46.076
94.2979 1948 44.1362
94.4143 1969 44.3734
94.5307 1729 41.5812
94.6472 1637 40.4599
94.7637 1579 39.7366
94.8803 1790 42.3084
94.9969 2035 45.111
95.1135 2188 46.7761
95.2302 2327 48.239
95.3469 2343 48.4045
95.4637 2436 49.3559
95.5805 2486 49.8598
95.6973 2518 50.1797
95.8142 2541 50.4083
95.9311 2531 50.309
96.048 2364 48.621
96.1649 2411 49.1019
96.2819 2235 47.2758
96.3989 2135 46.2061
96.516 2010 44.833
96.633 1993 44.643
96.7501 1918 43.795
96.8673 1896 43.5431
96.9844 1917 43.7836
97.1016 2005 44.7772
97.2188 2114 45.9783
97.336 2222 47.1381
97.4532 2316 48.1248
97.5704 2210 47.0106
97.6877 2175 46.6369
97.805 2242 47.3498
97.9223 2054 45.3211
98.0396 1866 43.1972
98.1569 1797 42.391
98.2743 1604 40.05
98.3916 1566 39.5727
98.509 1696 41.1825
98.6264 1955 44.2154
98.7438 2125 46.0977
98.8612 2355 48.5283
98.9786 2318 48.1456
99.096 2453 49.5278
99.2134 2409 49.0816
99.3308 2487 49.8698
99.4482 2418 49.1732
99.5656 2376 48.7442
99.6831 2338 48.3529
99.8005 2314 48.1041
99.9179 2169 46.5725
100.035 2032 45.0777
100.153 1997 44.6878
100.27 1958 44.2493
100.388 1979 44.486
100.505 1956 44.2267
100.622 2038 45.1442
100.74 2088 45.6946
100.857 2213 47.0425
100.975 2270 47.6445
101.092 2315 48.1144
101.209 2268 47.6235
101.327 2153 46.4004
101.444 2130 46.1519
101.561 1927 43.8976
101.679 1762 41.9762
101.796 1611 40.1373
101.913 1615 40.1871
102.03 1706 41.3038
102.148 1999 44.7102
102.265 2131 46.1628
102.382 2389 48.8774
102.499 2463 49.6286
102.616 2510 50.0999
102.733 2605 51.0392
102.851 2675 51.7204
102.968 2595 50.9411
103.085 2590 50.892
103.202 2455 49.548
103.319 2454 49.5379
103.436 2370 48.6826
103.552 2137 46.2277
103.669 2146 46.3249
103.786 2109 45.9239
103.903 2182 46.7119
104.02 2094 45.7602
104.137 2249 47.4236
104.253 2357 48.5489
104.37 2394 48.9285
104.487 2414 49.1325
104.603 2470 49.6991
104.72 2429 49.2849
104.836 2371 48.6929
104.953 2350 48.4768
105.069 2134 46.1952
105.186 1858 43.1045
105.302 1699 41.2189
105.418 1722 41.497
105.535 1988 44.587
105.651 2284 47.7912
105.767 2677 51.7397
105.883 2702 51.9808
105.999 2773 52.6593
106.115 0 1
106.231 0 1
106.347 0 1
106.463 0 1
106.579 0 1
106.694 0 1
106.81 0 1
106.926 0 1
107.041 0 1
107.157 0 1
109.576 0 1
109.692 0 1
109.807 0 1
109.923 0 1
110.039 0 1
110.155 0 1
110.27 0 1
110.386 0 1
110.502 0 1
110.618 1840 42.8952
110.735 2226 47.1805
110.851 2434 49.3356
110.967 2647 51.449
111.083 2688 51.8459
111.199 2776 52.6878
111.316 2837 53.2635
111.432 2713 52.0865
111.549 2790 52.8205
111.665 2737 52.3163
111.782 2622 51.2055
111.898 2542 50.4183
112.015 2449 49.4874
112.132 2362 48.6004
112.248 2284 47.7912
112.365 2306 48.0208
112.482 2255 47.4868
112.599 2272 47.6655
112.716 2444 49.4368
112.832 2445 49.4469
112.949 2346 48.4355
113.066 2411 49.1019
113.183 2437 49.366
113.3 2349 48.4665
113.417 2273 47.676
113.534 2223 47.1487
113.652 2025 45
113.769 1793 42.3438
113.886 1603 40.0375
114.003 1655 40.6817
114.12 1818 42.638
114.238 2288 47.833
114.355 2431 49.3052
114.472 2587 50.8626
114.589 2645 51.4296
114.707 2603 51.0196
114.824 2760 52.5357
114.942 2684 51.8073
115.059 2775 52.6783
115.176 2773 52.6593
115.294 2752 52.4595
115.411 2606 51.049
115.529 2505 50.05
115.646 2478 49.7795
115.764 2401 49
115.881 2546 50.4579
115.999 2439 49.3862
116.116 2493 49.93
116.234 2445 49.4469
116.351 2474 49.7393
116.469 2514 50.1398
116.586 2536 50.3587
116.704 2597 50.9608
116.821 2549 50.4876
116.939 2588 50.8724
117.056 2399 48.9796
117.174 2344 48.4149
117.291 2090 45.7165
117.409 1829 42.7668
117.526 1746 41.7852
117.644 1812 42.5676
117.761 2094 45.7602
117.879 2311 48.0729
117.996 2646 51.4393
118.114 2781 52.7352
118.231 2805 52.9623
118.349 2856 53.4416
118.466 2866 53.535
118.584 2865 53.5257
118.701 2910 53.9444
118.819 2737 52.3163
118.936 2746 52.4023
119.053 2747 52.4118
119.171 2646 51.4393
119.288 2509 50.0899
119.405 2519 50.1896
119.523 2541 50.4083
119.64 2432 49.3153
119.757 2445 49.4469
119.875 2566 50.6557
119.992 2556 50.5569
120.109 2483 49.8297
120.226 2503 50.03
120.343 2558 50.5767
120.46 2497 49.97
120.578 2409 49.0816
120.695 2464 49.6387
120.812 2192 46.8188
120.929 2065 45.4423
121.046 1922 43.8406
121.163 1795 42.3674
121.279 1786 42.2611
121.396 1979 44.486
121.513 2149 46.3573
121.63 2460 49.5984
121.747 2705 52.0096
121.863 2728 52.2303
121.98 2700 51.9615
122.097 2851 53.3948
122.213 2761 52.5452
122.33 2807 52.9811
122.446 2787 52.792
122.563 2643 51.4101
122.679 2682 51.788
122.795 2532 50.319
122.912 2569 50.6853
123.028 2528 50.2792
123.144 2418 49.1732
123.26 2451 49.5076
123.377 0 1
123.493 0 1
123.609 0 1
123.725 0 1
123.84 0 1
123.956 0 1
124.072 0 1
124.188 0 1
124.303 0 1
124.419 0 1
126.852 0 1
126.968 0 1
127.083 0 1
127.199 0 1
127.315 0 1
127.431 0 1
127.547 0 1
127.663 0 1
127.779 0 1
127.895 0 1
128.011 0 1
128.127 0 1
128.243 0 1
128.359 2707 52.0288
128.476 2711 52.0673
128.592 2644 51.4198
128.708 2752 52.4595
128.825 2668 51.6527
128.941 2720 52.1536
129.058 2598 50.9706
129.174 2651 51.4879
129.291 2702 51.9808
129.408 2740 52.345
129.524 2778 52.7067
129.641 2668 51.6527
129.758 2448 49.4773
129.875 2256 47.4974
129.992 2101 45.8367
130.108 1863 43.1625
130.225 1871 43.2551
130.342 2125 46.0977
130.459 2391 48.8979
130.576 2845 53.3385
130.693 2986 54.6443
130.81 2994 54.7175
130.928 3014 54.8999
131.045 2993 54.7083
131.162 3062 55.3353
131.279 3139 56.0268
131.396 3042 55.1543
131.513 2953 54.3415
131.631 2946 54.2771
131.748 2983 54.6168
131.865 3023 54.9818
131.983 2927 54.1018
132.1 2958 54.3875
132.217 2976 54.5527
132.335 2873 53.6004
132.452 2994 54.7175
132.57 2902 53.8702
132.687 2811 53.0189
132.804 3008 54.8452
132.922 2887 53.7308
133.039 2875 53.619
133.157 2822 53.1225
133.274 2736 52.3068
133.392 2452 49.5177
133.509 2140 46.2601
133.627 2008 44.8107
133.744 1836 42.8486
133.862 1988 44.587
133.979 2368 48.6621
134.097 2621 51.1957
134.214 2858 53.4603
134.332 2943 54.2494
134.449 2858 53.4603
134.567 3045 55.1815
134.684 3015 54.909
134.802 2994 54.7175
134.919 3063 55.3444
135.037 3033 55.0727
135.154 2922 54.0555
135.272 2878 53.647
135.389 2874 53.6097
135.507 2954 54.3507
135.624 2885 53.7122
135.742 2988 54.6626
135.859 2906 53.9073
135.977 2812 53.0283
136.094 2825 53.1507
136.211 2855 53.4322
136.329 2931 54.1387
136.446 2887 53.7308
136.564 2890 53.7587
136.681 2790 52.8205
136.798 2864 53.5164
136.915 2557 50.5668
137.033 2390 48.8876
137.15 2286 47.8121
137.267 1939 44.0341
137.384 1922 43.8406
137.502 2027 45.0222
137.619 2183 46.7226
137.736 2535 50.3488
137.853 2744 52.3832
137.97 2899 53.8424
138.087 2886 53.7215
138.204 2975 54.5436
138.321 3060 55.3173
138.438 2973 54.5252
138.555 3048 55.2087
138.672 3191 56.4889
138.788 3103 55.7046
138.905 2988 54.6626
139.022 3055 55.2721
139.139 3084 55.5338
139.255 3004 54.8088
139.372 3039 55.1271
139.488 3031 55.0545
139.605 2957 54.3783
139.721 2896 53.8145
139.838 2968 54.4794
139.954 3017 54.9272
140.071 3018 54.9363
140.187 2873 53.6004
140.303 2911 53.9537
140.419 2959 54.3967
140.535 2691 51.8748
140.652 2386 48.8467
140.768 0 1
140.884 0 1
141 0 1
141.115 0 1
141.231 0 1
141.347 0 1
141.463 0 1
141.578 0 1
141.694 0 1
144.104 0 1
144.219 0 1
144.335 0 1
144.45 0 1
144.566 0 1
144.682 0 1
144.798 0 1
144.914 0 1
145.03 0 1
145.146 2089 45.7056
145.262 2235 47.2758
145.378 2327 48.239
145.494 2351 48.4871
145.61 2238 47.3075
145.726 2111 45.9456
145.842 1915 43.7607
145.959 1822 42.6849
146.075 1669 40.8534
146.192 1625 40.3113
146.308 1662 40.7676
146.425 1760 41.9524
146.541 1963 44.3058
146.658 2155 46.422
146.774 2244 47.3709
146.891 2295 47.9062
147.008 2392 48.9081
147.125 2516 50.1597
147.241 2541 50.4083
147.358 2560 50.5964
147.475 2613 51.1175
147.592 2676 51.7301
147.709 2582 50.8134
147.826 2592 50.9117
147.943 2574 50.7346
148.06 2542 50.4183
148.177 2639 51.3712
148.294 2526 50.2593
148.411 2503 50.03
148.528 2611 51.0979
148.645 2415 49.1426
148.762 2527 50.2693
148.88 2565 50.6458
148.997 2434 49.3356
149.114 2556 50.5569
149.231 2514 50.1398
149.349 2439 49.3862
149.466 2480 49.7996
149.583 2204 46.9468
149.701 2032 45.0777
149.818 1832 42.8019
149.935 1719 41.4608
150.053 1746 41.7852
150.17 1796 42.3792
150.287 1963 44.3058
150.405 2125 46.0977
150.522 2143 46.2925
150.64 2404 49.0306
150.757 2467 49.6689
150.875 2552 50.5173
150.992 2601 51
151.11 2649 51.4684
151.227 2785 52.7731
151.344 2740 52.345
151.462 2625 51.2348
151.579 2680 51.7687
151.697 2699 51.9519
151.814 2535 50.3488
151.932 2701 51.9711
152.049 2596 50.951
152.167 2621 51.1957
152.284 2621 51.1957
152.402 2587 50.8626
152.519 2694 51.9038
152.636 2582 50.8134
152.754 2534 50.3389
152.871 2640 51.3809
152.989 2624 51.225
153.106 2458 49.5782
153.223 2308 48.0416
153.341 2137 46.2277
153.458 1923 43.852
153.575 1871 43.2551
153.693 1820 42.6615
153.81 1995 44.6654
153.927 2119 46.0326
154.044 2194 46.8402
154.162 2319 48.156
154.279 2514 50.1398
154.396 2643 51.4101
154.513 2714 52.0961
154.63 2761 52.5452
154.747 2690 51.8652
154.864 2785 52.7731
154.981 2882 53.6843
155.098 2829 53.1883
155.215 2674 51.7107
155.332 2746 52.4023
155.449 2738 52.3259
155.566 2671 51.6817
155.683 2743 52.3737
155.8 2680 51.7687
155.917 2751 52.45
156.033 2862 53.4977
156.15 0 1
156.267 0 1
156.383 0 1
156.5 0 1
156.617 0 1
156.733 0 1
156.85 0 1
156.966 0 1
157.082 0 1
157.199 0 1
157.315 0 1
157.431 0 1
157.547 0 1
157.664 0 1
157.78 0 1
157.896 0 1
158.012 0 1
158.128 0 1
158.244 0 1
158.359 0 1
158.475 0 1
158.591 0 1
158.706 0 1
