
6.15755 0 1
6.2731 0 1
6.3887 0 1
6.50437 0 1
6.62009 0 1
6.73587 0 1
6.8517 0 1
6.96759 0 1
7.08353 0 1
7.19952 0 1
7.31557 0 1
7.43166 0 1
7.54781 0 1
7.664 0 1
7.78024 0 1
7.89653 0 1
8.01286 0 1
8.12924 0 1
8.24567 0 1
8.36213 0 1
8.47864 0 1
8.59519 0 1
8.71178 0 1
8.82841 0 1
8.94508 0 1
9.06179 0 1
9.17853 0 1
9.29531 0 1
9.41212 0 1
9.52897 0 1
9.64584 0 1
9.76276 0 1
9.8797 0 1
9.99667 0 1
10.1137 0 1
10.2307 0 1
10.3478 0 1
10.4648 0 1
10.5819 0 1
10.6991 0 1
10.8162 0 1
10.9334 0 1
11.0506 0 1
11.1678 0 1
11.285 0 1
11.4023 0 1
11.5196 0 1
11.6369 0 1
11.7542 0 1
11.8715 0 1
11.9888 0 1
12.1062 0 1
12.2235 0 1
12.3409 0 1
12.4582 0 1
12.5756 0 1
12.693 0 1
12.8104 0 1
12.9278 0 1
13.0452 0 1
13.1626 0 1
13.28 0 1
13.3974 0 1
13.5149 0 1
13.6323 0 1
13.7497 0 1
13.8671 0 1
13.9845 0 1
14.1019 0 1
14.2193 0 1
14.3367 0 1
14.4541 0 1
14.5714 0 1
14.6888 0 1
14.8062 0 1
14.9235 0 1
15.0408 0 0
15.1581 0 0
15.2755 0 0
15.3927 0 0
15.51 0 0
15.6273 0 0
15.7445 0 0
15.8617 0 0
15.9789 0 0
16.0961 0 0
16.2132 0 0
16.3304 0 0
16.4475 0 0
16.5646 0 0
16.6816 0 0
16.7986 0 0
16.9156 0 0
17.0326 0 0
17.1496 0 0
17.2665 0 0
17.3833 0 0
17.5002 0 0
17.617 0 0
17.7338 0 0
17.8505 0 0
17.9672 0 0
18.0839 0 0
18.2005 0 0
18.3171 0 0
18.4337 0 0
18.5502 0 0
18.6666 0 0
18.7831 0 0
18.8994 0 0
19.0158 0 0
19.1321 0 0
19.2483 0 0
19.3645 0 0
19.4806 0 0
19.5967 0 0
19.7128 0 0
19.8288 0 0
19.9447 0 0
20.0606 0 1
20.1764 0 1
20.2922 0 1
20.4079 0 1
20.5236 0 1
20.6392 0 1
20.7548 0 1
20.8702 0 1
23.3078 0 1
23.4233 0 1
23.539 0 1
23.6547 0 1
23.7704 0 1
23.8862 0 1
24.0021 0 1
24.118 0 1
24.234 0 1
24.35 0 1
24.4661 1051 32.4191
24.5822 1079 32.8481
24.6984 1070 32.7109
24.8146 1040 32.249
24.9309 1014 31.8434
25.0472 1059 32.5423
25.1636 1111 33.3317
25.28 1068 32.6803
25.3965 1055 32.4808
25.513 1129 33.6006
25.6296 1166 34.1467
25.7462 1220 34.9285
25.8628 1276 35.7211
25.9795 1223 34.9714
26.0962 1221 34.9428
26.213 1260 35.4965
26.3298 1303 36.0971
26.4466 1297 36.0139
26.5635 1250 35.3553
26.6804 1226 35.0143
26.7973 1118 33.4365
26.9143 1143 33.8083
27.0313 1164 34.1174
27.1483 1203 34.6843
27.2653 1238 35.1852
27.3824 1253 35.3977
27.4996 1227 35.0286
27.6167 1281 35.7911
27.7339 1191 34.5109
27.8511 1243 35.2562
27.9683 1284 35.8329
28.0855 1246 35.2987
28.2028 1259 35.4824
28.3201 1152 33.9411
28.4374 1224 34.9857
28.5547 1221 34.9428
28.6721 1233 35.1141
28.7894 1248 35.327
28.9068 1170 34.2053
29.0242 1252 35.3836
29.1416 1315 36.2629
29.259 1335 36.5377
29.3764 1258 35.4683
29.4939 1337 36.565
29.6113 1279 35.7631
29.7288 1302 36.0832
29.8463 1311 36.2077
29.9638 1293 35.9583
30.0812 1275 35.7071
30.1987 1237 35.171
30.3162 1183 34.3948
30.4337 1126 33.5559
30.5512 1101 33.1813
30.6687 1193 34.5398
30.7862 1219 34.9142
30.9037 1262 35.5246
31.0212 1202 34.6699
31.1387 1270 35.6371
31.2562 1112 33.3467
31.3737 1172 34.2345
31.4912 1188 34.4674
31.6087 1209 34.7707
31.7262 1204 34.6987
31.8436 1251 35.3695
31.9611 1125 33.541
32.0785 1137 33.7194
32.1959 1090 33.0151
32.3134 1062 32.5883
32.4308 1142 33.7935
32.5482 1113 33.3617
32.6655 1114 33.3766
32.7829 1160 34.0588
32.9002 1167 34.1614
33.0176 1142 33.7935
33.1349 1189 34.4819
33.2522 1220 34.9285
33.3694 1200 34.641
33.4867 1141 33.7787
33.6039 1186 34.4384
33.7211 1145 33.8378
33.8383 1060 32.5576
33.9554 1069 32.6956
34.0725 970 31.1448
34.1896 995 31.5436
34.3067 1039 32.2335
34.4237 1089 33
34.5407 1037 32.2025
34.6577 1073 32.7567
34.7746 1104 33.2265
34.8915 1076 32.8024
35.0084 1000 31.6228
35.1252 1048 32.3728
35.242 1082 32.8938
35.3587 1076 32.8024
35.4755 1077 32.8177
35.5921 1020 31.9374
35.7088 1032 32.1248
35.8254 998 31.5911
35.9419 1000 31.6228
36.0584 919 30.315
36.1749 1052 32.4345
36.2913 1019 31.9218
36.4077 1006 31.7175
36.524 1069 32.6956
36.6403 1092 33.0454
36.7565 1103 33.2114
36.8727 1133 33.6601
36.9889 1120 33.4664
37.1049 1138 33.7343
37.221 0 1
37.3369 0 1
37.4529 0 1
37.5687 0 1
37.6845 0 1
37.8003 0 1
37.916 0 1
38.0316 0 1
38.1472 0 1
40.5851 0 1
40.7008 0 1
40.8164 0 1
40.9322 0 1
41.048 0 1
41.1639 0 1
41.2798 0 1
41.3958 0 1
41.5118 0 1
41.6279 0 1
41.744 875 29.5804
41.8602 865 29.4109
41.9765 930 30.4959
42.0928 917 30.282
42.2091 892 29.8664
42.3255 915 30.249
42.4419 894 29.8998
42.5584 927 30.4467
42.675 910 30.1662
42.7915 817 28.5832
42.9081 780 27.9285
43.0248 771 27.7669
43.1415 838 28.9482
43.2582 864 29.3939
43.375 837 28.931
43.4918 887 29.7825
43.6087 852 29.189
43.7256 839 28.9655
43.8425 799 28.2666
43.9595 799 28.2666
44.0765 783 27.9821
44.1935 849 29.1376
44.3106 818 28.6007
44.4277 792 28.1425
44.5448 709 26.6271
44.6619 700 26.4575
44.7791 732 27.0555
44.8963 692 26.3059
45.0136 661 25.7099
45.1308 712 26.6833
45.2481 709 26.6271
45.3654 756 27.4955
45.4827 724 26.9072
45.6001 721 26.8514
45.7174 764 27.6405
45.8348 698 26.4197
45.9522 758 27.5318
46.0697 678 26.0384
46.1871 727 26.9629
46.3046 677 26.0192
46.422 640 25.2982
46.5395 610 24.6982
46.657 601 24.5153
46.7745 660 25.6905
46.892 696 26.3818
47.0096 652 25.5343
47.1271 655 25.593
47.2446 624 24.98
47.3622 632 25.1396
47.4797 648 25.4558
47.5973 595 24.3926
47.7149 558 23.622
47.8324 626 25.02
47.95 586 24.2074
48.0675 574 23.9583
48.1851 526 22.9347
48.3027 536 23.1517
48.4202 538 23.1948
48.5378 559 23.6432
48.6554 554 23.5372
48.7729 542 23.2809
48.8904 548 23.4094
49.008 575 23.9792
49.1255 569 23.8537
49.243 562 23.7065
49.3605 591 24.3105
49.478 597 24.4336
49.5955 557 23.6008
49.713 578 24.0416
49.8304 571 23.8956
49.9479 447 21.1424
50.0653 502 22.4054
50.1827 531 23.0434
50.3001 578 24.0416
50.4175 595 24.3926
50.5348 578 24.0416
50.6521 628 25.0599
50.7694 635 25.1992
50.8867 632 25.1396
51.004 628 25.0599
51.1212 636 25.219
51.2384 637 25.2389
51.3556 699 26.4386
51.4727 659 25.671
51.5899 634 25.1794
51.707 679 26.0576
51.824 661 25.7099
51.9411 666 25.807
52.0581 689 26.2488
52.175 750 27.3861
52.2919 756 27.4955
52.4088 843 29.0345
52.5257 784 28
52.6425 820 28.6356
52.7593 803 28.3373
52.876 862 29.3598
52.9927 802 28.3196
53.1094 818 28.6007
53.226 889 29.8161
53.3426 857 29.2746
53.4591 799 28.2666
53.5756 759 27.55
53.692 737 27.1477
53.8084 777 27.8747
53.9248 781 27.9464
54.0411 832 28.8444
54.1573 913 30.2159
54.2735 0 1
54.3896 0 1
54.5057 0 1
54.6217 0 1
54.7377 0 1
54.8537 0 1
54.9695 0 1
55.0853 0 1
55.2011 0 1
55.3168 0 1
55.4324 0 1
57.824 0 1
57.9396 0 1
58.0553 0 1
58.1711 0 1
58.2869 0 1
58.4028 0 1
58.5187 0 1
58.6347 0 1
58.7508 0 1
58.8669 0 1
58.983 988 31.4325
59.0992 936 30.5941
59.2155 963 31.0322
59.3318 1061 32.573
59.4482 1029 32.078
59.5646 991 31.4802
59.681 1011 31.7962
59.7975 1008 31.749
59.9141 943 30.7083
60.0306 942 30.692
60.1473 934 30.5614
60.2639 889 29.8161
60.3807 962 31.0161
60.4974 941 30.6757
60.6142 942 30.692
60.731 914 30.2324
60.8479 900 30
60.9648 934 30.5614
61.0818 952 30.8545
61.1987 963 31.0322
61.3158 931 30.5123
61.4328 938 30.6268
61.5499 957 30.9354
61.667 957 30.9354
61.7841 967 31.0966
61.9013 938 30.6268
62.0185 914 30.2324
62.1357 885 29.7489
62.253 815 28.5482
62.3702 867 29.4449
62.4875 846 29.0861
62.6049 923 30.3809
62.7222 922 30.3645
62.8396 975 31.225
62.9569 948 30.7896
63.0743 955 30.9031
63.1918 914 30.2324
63.3092 823 28.688
63.4267 826 28.7402
63.5441 850 29.1548
63.6616 849 29.1376
63.7791 866 29.4279
63.8966 824 28.7054
64.0142 830 28.8097
64.1317 836 28.9137
64.2492 831 28.8271
64.3668 774 27.8209
64.4843 840 28.9828
64.6019 840 28.9828
64.7195 882 29.6985
64.837 915 30.249
64.9546 879 29.6479
65.0722 900 30
65.1898 852 29.189
65.3074 883 29.7153
65.4249 892 29.8664
65.5425 854 29.2233
65.6601 751 27.4044
65.7777 762 27.6043
65.8952 737 27.1477
66.0128 776 27.8568
66.1304 801 28.3019
66.2479 855 29.2404
66.3655 872 29.5296
66.483 831 28.8271
66.6005 964 31.0483
66.718 902 30.0333
66.8355 892 29.8664
66.953 816 28.5657
67.0705 742 27.2397
67.1879 826 28.7402
67.3054 780 27.9285
67.4228 822 28.6705
67.5402 808 28.4253
67.6576 837 28.931
67.7749 805 28.3725
67.8923 787 28.0535
68.0096 868 29.4618
68.1269 853 29.2062
68.2442 815 28.5482
68.3614 881 29.6816
68.4787 895 29.9166
68.5958 848 29.1204
68.713 958 30.9516
68.8302 864 29.3939
68.9473 887 29.7825
69.0643 885 29.7489
69.1814 889 29.8161
69.2984 847 29.1033
69.4154 840 28.9828
69.5323 817 28.5832
69.6492 839 28.9655
69.7661 880 29.6648
69.8829 936 30.5941
69.9997 942 30.692
70.1165 958 30.9516
70.2332 1034 32.1559
70.3499 987 31.4166
70.4665 983 31.3528
70.5831 983 31.3528
70.6996 826 28.7402
70.8161 814 28.5307
70.9326 799 28.2666
71.049 818 28.6007
71.1653 873 29.5466
71.2817 851 29.1719
71.3979 849 29.1376
71.5141 880 29.6648
71.6303 820 28.6356
71.7464 846 29.0861
71.8624 0 1
71.9784 0 1
72.0944 0 1
72.2102 0 1
72.3261 0 1
72.4418 0 1
72.5575 0 1
72.6732 0 1
75.1054 0 1
75.2209 0 1
75.3365 0 1
75.4521 0 1
75.5678 0 1
75.6835 0 1
75.7993 0 1
75.9151 0 1
76.031 0 1
76.147 738 27.1662
76.263 848 29.1204
76.3791 793 28.1603
76.4952 853 29.2062
76.6113 834 28.8791
76.7276 806 28.3901
76.8438 860 29.3258
76.9601 915 30.249
77.0765 946 30.7571
77.1929 933 30.545
77.3093 933 30.545
77.4258 933 30.545
77.5423 956 30.9192
77.6589 891 29.8496
77.7755 932 30.5287
77.8921 947 30.7734
78.0088 930 30.4959
78.1256 958 30.9516
78.2423 823 28.688
78.3591 857 29.2746
78.4759 777 27.8747
78.5928 744 27.2764
78.7097 810 28.4605
78.8266 872 29.5296
78.9436 929 30.4795
79.0606 892 29.8664
79.1776 953 30.8707
79.2946 1012 31.8119
79.4117 940 30.6594
79.5288 916 30.2655
79.6459 917 30.282
79.7631 780 27.9285
79.8802 733 27.074
79.9974 732 27.0555
80.1147 748 27.3496
80.2319 820 28.6356
80.3491 823 28.688
80.4664 823 28.688
80.5837 850 29.1548
80.701 850 29.1548
80.8183 817 28.5832
80.9357 810 28.4605
81.053 857 29.2746
81.1704 864 29.3939
81.2877 888 29.7993
81.4051 779 27.9106
81.5225 832 28.8444
81.6399 860 29.3258
81.7573 822 28.6705
81.8747 763 27.6225
81.9922 732 27.0555
82.1096 716 26.7582
82.227 739 27.1846
82.3444 734 27.0924
82.4619 788 28.0713
82.5793 866 29.4279
82.6967 885 29.7489
82.8142 919 30.315
82.9316 898 29.9666
83.049 909 30.1496
83.1664 854 29.2233
83.2838 838 28.9482
83.4012 753 27.4408
83.5186 632 25.1396
83.636 635 25.1992
83.7534 683 26.1343
83.8708 710 26.6458
83.9881 723 26.8887
84.1055 763 27.6225
84.2228 825 28.7228
84.3401 799 28.2666
84.4575 838 28.9482
84.5747 820 28.6356
84.692 847 29.1033
84.8093 831 28.8271
84.9265 873 29.5466
85.0437 852 29.189
85.1609 836 28.9137
85.2781 802 28.3196
85.3952 764 27.6405
85.5123 800 28.2843
85.6294 709 26.6271
85.7465 746 27.313
85.8636 758 27.5318
85.9806 835 28.8964
86.0976 887 29.7825
86.2145 862 29.3598
86.3315 985 31.3847
86.4484 964 31.0483
86.5652 995 31.5436
86.682 976 31.241
86.7988 995 31.5436
86.9156 891 29.8496
87.0323 811 28.4781
87.149 737 27.1477
87.2657 804 28.3549
87.3823 789 28.0891
87.4988 823 28.688
87.6154 915 30.249
87.7318 946 30.7571
87.8483 956 30.9192
87.9647 1065 32.6343
88.081 1065 32.6343
88.1973 1023 31.9844
88.3136 1071 32.7261
88.4298 1004 31.686
88.546 1032 32.1248
88.6621 1033 32.1403
88.7781 972 31.1769
88.8942 0 1
89.0101 0 1
89.126 0 1
89.2419 0 1
89.3577 0 1
89.4734 0 1
89.5891 0 1
89.7047 0 1
89.8203 0 1
89.9358 0 1
92.3269 0 1
92.4424 0 1
92.558 0 1
92.6736 0 1
92.7893 0 1
92.905 0 1
93.0208 0 1
93.1366 0 1
93.2525 0 1
93.3685 0 1
93.4845 0 1
93.6005 985 31.3847
93.7167 1046 32.3419
93.8328 1018 31.9061
93.949 1011 31.7962
94.0653 910 30.1662
94.1816 967 31.0966
94.2979 962 31.0161
94.4143 917 30.282
94.5307 855 29.2404
94.6472 830 28.8097
94.7637 925 30.4138
94.8803 909 30.1496
94.9969 947 30.7734
95.1135 983 31.3528
95.2302 1004 31.686
95.3469 952 30.8545
95.4637 1097 33.121
95.5805 1056 32.4962
95.6973 1117 33.4215
95.8142 1073 32.7567
95.9311 1080 32.8634
96.048 1011 31.7962
96.1649 975 31.225
96.2819 829 28.7924
96.3989 819 28.6182
96.516 813 28.5132
96.633 845 29.0689
96.7501 914 30.2324
96.8673 1076 32.8024
96.9844 1083 32.909
97.1016 1020 31.9374
97.2188 1039 32.2335
97.336 1048 32.3728
97.4532 1006 31.7175
97.5704 1095 33.0908
97.6877 1018 31.9061
97.805 1009 31.7648
97.9223 978 31.273
98.0396 924 30.3974
98.1569 908 30.133
98.2743 882 29.6985
98.3916 829 28.7924
98.509 881 29.6816
98.6264 941 30.6757
98.7438 972 31.1769
98.8612 966 31.0805
98.9786 1077 32.8177
99.096 1020 31.9374
99.2134 1063 32.6037
99.3308 1088 32.9848
99.4482 1112 33.3467
99.5656 1029 32.078
99.6831 1019 31.9218
99.8005 963 31.0322
99.9179 885 29.7489
100.035 822 28.6705
100.153 865 29.4109
100.27 956 30.9192
100.388 963 31.0322
100.505 1044 32.311
100.622 984 31.3688
100.74 1047 32.3574
100.857 1053 32.45
100.975 1052 32.4345
101.092 1098 33.1361
101.209 1086 32.9545
101.327 1062 32.5883
101.444 1041 32.2645
101.561 943 30.7083
101.679 953 30.8707
101.796 846 29.0861
101.913 945 30.7409
102.03 944 30.7246
102.148 968 31.1127
102.265 1033 32.1403
102.382 1141 33.7787
102.499 1096 33.1059
102.616 1108 33.2866
102.733 1131 33.6303
102.851 1103 33.2114
102.968 1145 33.8378
103.085 1070 32.7109
103.202 1077 32.8177
103.319 1036 32.187
103.436 902 30.0333
103.552 810 28.4605
103.669 873 29.5466
103.786 973 31.1929
103.903 1022 31.9687
104.02 1114 33.3766
104.137 1115 33.3916
104.253 1081 32.8786
104.37 1151 33.9264
104.487 1100 33.1662
104.603 1118 33.4365
104.72 1074 32.7719
104.836 1067 32.665
104.953 1025 32.0156
105.069 1077 32.8177
105.186 986 31.4006
105.302 990 31.4643
105.418 917 30.282
105.535 1031 32.1092
105.651 1036 32.187
105.767 1157 34.0147
105.883 1156 34
105.999 1178 34.322
106.115 0 1
106.231 0 1
106.347 0 1
106.463 0 1
106.579 0 1
106.694 0 1
106.81 0 1
106.926 0 1
107.041 0 1
107.157 0 1
109.576 0 1
109.692 0 1
109.807 0 1
109.923 0 1
110.039 0 1
110.155 0 1
110.27 0 1
110.386 0 1
110.502 0 1
110.618 919 30.315
110.735 980 31.305
110.851 1135 33.6898
110.967 1142 33.7935
111.083 1118 33.4365
111.199 1082 32.8938
111.316 1150 33.9116
111.432 1144 33.8231
111.549 1124 33.5261
111.665 1132 33.6452
111.782 1051 32.4191
111.898 1005 31.7017
112.015 879 29.6479
112.132 851 29.1719
112.248 842 29.0172
112.365 960 30.9839
112.482 992 31.496
112.599 1089 33
112.716 1020 31.9374
112.832 1106 33.2566
112.949 1058 32.5269
113.066 1043 32.2955
113.183 1021 31.9531
113.3 1003 31.6702
113.417 1017 31.8904
113.534 1014 31.8434
113.652 962 31.0161
113.769 908 30.133
113.886 839 28.9655
114.003 868 29.4618
114.12 917 30.282
114.238 1004 31.686
114.355 1036 32.187
114.472 1043 32.2955
114.589 1127 33.5708
114.707 1107 33.2716
114.824 1107 33.2716
114.942 1113 33.3617
115.059 1077 32.8177
115.176 1108 33.2866
115.294 1070 32.7109
115.411 1011 31.7962
115.529 1000 31.6228
115.646 869 29.4788
115.764 800 28.2843
115.881 903 30.05
115.999 943 30.7083
116.116 1046 32.3419
116.234 1077 32.8177
116.351 1034 32.1559
116.469 1081 32.8786
116.586 1128 33.5857
116.704 1008 31.749
116.821 1070 32.7109
116.939 1048 32.3728
117.056 950 30.8221
117.174 922 30.3645
117.291 918 30.2985
117.409 920 30.3315
117.526 838 28.9482
117.644 911 30.1828
117.761 945 30.7409
117.879 1004 31.686
117.996 1063 32.6037
118.114 1105 33.2415
118.231 1109 33.3017
118.349 1139 33.7491
118.466 1069 32.6956
118.584 1116 33.4066
118.701 1076 32.8024
118.819 1070 32.7109
118.936 1058 32.5269
119.053 1063 32.6037
119.171 975 31.225
119.288 863 29.3769
119.405 815 28.5482
119.523 862 29.3598
119.64 999 31.607
119.757 1037 32.2025
119.875 1070 32.7109
119.992 1008 31.749
120.109 1011 31.7962
120.226 1025 32.0156
120.343 1038 32.218
120.46 1086 32.9545
120.578 1049 32.3883
120.695 981 31.3209
120.812 957 30.9354
120.929 908 30.133
121.046 865 29.4109
121.163 878 29.6311
121.279 876 29.5973
121.396 951 30.8383
121.513 1006 31.7175
121.63 1042 32.28
121.747 1063 32.6037
121.863 1062 32.5883
121.98 1106 33.2566
122.097 1087 32.9697
122.213 1088 32.9848
122.33 1101 33.1813
122.446 1091 33.0303
122.563 1030 32.0936
122.679 1055 32.4808
122.795 989 31.4484
122.912 931 30.5123
123.028 848 29.1204
123.144 777 27.8747
123.26 785 28.0179
123.377 0 1
123.493 0 1
123.609 0 1
123.725 0 1
123.84 0 1
123.956 0 1
124.072 0 1
124.188 0 1
124.303 0 1
124.419 0 1
126.852 0 1
126.968 0 1
127.083 0 1
127.199 0 1
127.315 0 1
127.431 0 1
127.547 0 1
127.663 0 1
127.779 0 1
127.895 0 1
128.011 0 1
128.127 0 1
128.243 0 1
128.359 882 29.6985
128.476 860 29.3258
128.592 958 30.9516
128.708 1026 32.0312
128.825 1132 33.6452
128.941 1137 33.7194
129.058 1116 33.4066
129.174 1105 33.2415
129.291 1097 33.121
129.408 1094 33.0757
129.524 1076 32.8024
129.641 1050 32.4037
129.758 1008 31.749
129.875 947 30.7734
129.992 944 30.7246
130.108 922 30.3645
130.225 879 29.6479
130.342 1021 31.9531
130.459 1062 32.5883
130.576 1077 32.8177
130.693 1050 32.4037
130.81 1087 32.9697
130.928 1122 33.4963
131.045 1141 33.7787
131.162 1145 33.8378
131.279 1168 34.176
131.396 1154 33.9706
131.513 1109 33.3017
131.631 1121 33.4813
131.748 1009 31.7648
131.865 929 30.4795
131.983 907 30.1164
132.1 889 29.8161
132.217 1000 31.6228
132.335 1167 34.1614
132.452 1122 33.4963
132.57 1172 34.2345
132.687 1050 32.4037
132.804 1121 33.4813
132.922 1125 33.541
133.039 1101 33.1813
133.157 1056 32.4962
133.274 1029 32.078
133.392 1016 31.8748
133.509 967 31.0966
133.627 918 30.2985
133.744 940 30.6594
133.862 999 31.607
133.979 1102 33.1964
134.097 1054 32.4654
134.214 1123 33.5112
134.332 1086 32.9545
134.449 1131 33.6303
134.567 1180 34.3511
134.684 1150 33.9116
134.802 1124 33.5261
134.919 1159 34.0441
135.037 1212 34.8138
135.154 1111 33.3317
135.272 1065 32.6343
135.389 970 31.1448
135.507 864 29.3939
135.624 943 30.7083
135.742 1009 31.7648
135.859 1097 33.121
135.977 1159 34.0441
136.094 1135 33.6898
136.211 1048 32.3728
136.329 1113 33.3617
136.446 1073 32.7567
136.564 1090 33.0151
136.681 1053 32.45
136.798 1040 32.249
136.915 1066 32.6497
137.033 942 30.692
137.15 928 30.4631
137.267 887 29.7825
137.384 947 30.7734
137.502 983 31.3528
137.619 1043 32.2955
137.736 1124 33.5261
137.853 1089 33
137.97 1141 33.7787
138.087 1084 32.9242
138.204 1098 33.1361
138.321 1178 34.322
138.438 1133 33.6601
138.555 1086 32.9545
138.672 1173 34.2491
138.788 1165 34.1321
138.905 1096 33.1059
139.022 1034 32.1559
139.139 884 29.7321
139.255 927 30.4467
139.372 993 31.5119
139.488 1054 32.4654
139.605 1138 33.7343
139.721 1118 33.4365
139.838 1146 33.8526
139.954 1149 33.8969
140.071 1117 33.4215
140.187 1185 34.4238
140.303 1185 34.4238
140.419 1126 33.5559
140.535 1102 33.1964
140.652 975 31.225
140.768 0 1
140.884 0 1
141 0 1
141.115 0 1
141.231 0 1
141.347 0 1
141.463 0 1
141.578 0 1
141.694 0 1
144.104 0 1
144.219 0 1
144.335 0 1
144.45 0 1
144.566 0 1
144.682 0 1
144.798 0 1
144.914 0 1
145.03 0 1
145.146 774 27.8209
145.262 818 28.6007
145.378 891 29.8496
145.494 910 30.1662
145.61 880 29.6648
145.726 761 27.5862
145.842 800 28.2843
145.959 801 28.3019
146.075 814 28.5307
146.192 792 28.1425
146.308 768 27.7128
146.425 805 28.3725
146.541 860 29.3258
146.658 837 28.931
146.774 882 29.6985
146.891 892 29.8664
147.008 954 30.8869
147.125 889 29.8161
147.241 925 30.4138
147.358 928 30.4631
147.475 905 30.0832
147.592 875 29.5804
147.709 917 30.282
147.826 825 28.7228
147.943 745 27.2947
148.06 697 26.4008
148.177 766 27.6767
148.294 797 28.2312
148.411 802 28.3196
148.528 873 29.5466
148.645 848 29.1204
148.762 911 30.1828
148.88 917 30.282
148.997 890 29.8329
149.114 924 30.3974
149.231 877 29.6142
149.349 806 28.3901
149.466 827 28.7576
149.583 837 28.931
149.701 806 28.3901
149.818 807 28.4077
149.935 773 27.8029
150.053 730 27.0185
150.17 821 28.6531
150.287 832 28.8444
150.405 911 30.1828
150.522 865 29.4109
150.64 907 30.1164
150.757 935 30.5778
150.875 924 30.3974
150.992 914 30.2324
151.11 955 30.9031
151.227 882 29.6985
151.344 941 30.6757
151.462 914 30.2324
151.579 876 29.5973
151.697 775 27.8388
151.814 765 27.6586
151.932 746 27.313
152.049 854 29.2233
152.167 849 29.1376
152.284 906 30.0998
152.402 963 31.0322
152.519 941 30.6757
152.636 948 30.7896
152.754 886 29.7658
152.871 986 31.4006
152.989 911 30.1828
153.106 800 28.2843
153.223 880 29.6648
153.341 800 28.2843
153.458 808 28.4253
153.575 757 27.5136
153.693 777 27.8747
153.81 829 28.7924
153.927 859 29.3087
154.044 897 29.95
154.162 914 30.2324
154.279 966 31.0805
154.396 990 31.4643
154.513 946 30.7571
154.63 991 31.4802
154.747 969 31.1288
154.864 1043 32.2955
154.981 963 31.0322
155.098 912 30.1993
155.215 861 29.3428
155.332 842 29.0172
155.449 866 29.4279
155.566 843 29.0345
155.683 962 31.0161
155.8 1000 31.6228
155.917 1051 32.4191
156.033 1009 31.7648
156.15 0 1
156.267 0 1
156.383 0 1
156.5 0 1
156.617 0 1
156.733 0 1
156.85 0 1
156.966 0 1
157.082 0 1
157.199 0 1
157.315 0 1
157.431 0 1
157.547 0 1
157.664 0 1
157.78 0 1
157.896 0 1
158.012 0 1
158.128 0 1
158.244 0 1
158.359 0 1
158.475 0 1
158.591 0 1
158.706 0 1
