
6.15755 0 1
6.2731 0 1
6.3887 0 1
6.50437 0 1
6.62009 0 1
6.73587 0 1
6.8517 0 1
6.96759 0 1
7.08353 0 1
7.19952 0 1
7.31557 0 1
7.43166 0 1
7.54781 0 1
7.664 0 1
7.78024 0 1
7.89653 0 1
8.01286 0 1
8.12924 0 1
8.24567 0 1
8.36213 0 1
8.47864 0 1
8.59519 0 1
8.71178 0 1
8.82841 0 1
8.94508 0 1
9.06179 0 1
9.17853 0 1
9.29531 0 1
9.41212 0 1
9.52897 0 1
9.64584 0 1
9.76276 0 1
9.8797 0 1
9.99667 0 1
10.1137 0 1
10.2307 0 1
10.3478 0 1
10.4648 0 1
10.5819 0 1
10.6991 0 1
10.8162 0 1
10.9334 0 1
11.0506 0 1
11.1678 0 1
11.285 0 1
11.4023 0 1
11.5196 0 1
11.6369 0 1
11.7542 0 1
11.8715 0 1
11.9888 0 1
12.1062 0 1
12.2235 0 1
12.3409 0 1
12.4582 0 1
12.5756 0 1
12.693 0 1
12.8104 0 1
12.9278 0 1
13.0452 0 1
13.1626 0 1
13.28 0 1
13.3974 0 1
13.5149 0 1
13.6323 0 1
13.7497 0 1
13.8671 0 1
13.9845 0 1
14.1019 0 1
14.2193 0 1
14.3367 0 1
14.4541 0 1
14.5714 0 1
14.6888 0 1
14.8062 0 1
14.9235 0 1
15.0408 1342 36.6333
15.1581 1350 36.7423
15.2755 1436 37.8946
15.3927 1424 37.7359
15.51 1355 36.8103
15.6273 1380 37.1484
15.7445 1354 36.7967
15.8617 1342 36.6333
15.9789 1231 35.0856
16.0961 1265 35.5668
16.2132 1268 35.609
16.3304 1251 35.3695
16.4475 1260 35.4965
16.5646 1271 35.6511
16.6816 1186 34.4384
16.7986 1198 34.6121
16.9156 1145 33.8378
17.0326 1158 34.0294
17.1496 1192 34.5254
17.2665 1137 33.7194
17.3833 1209 34.7707
17.5002 1159 34.0441
17.617 1245 35.2846
17.7338 1245 35.2846
17.8505 1215 34.8569
17.9672 1200 34.641
18.0839 1129 33.6006
18.2005 1042 32.28
18.3171 1118 33.4365
18.4337 1165 34.1321
18.5502 1227 35.0286
18.6666 1155 33.9853
18.7831 1153 33.9559
18.8994 1144 33.8231
19.0158 1071 32.7261
19.1321 1041 32.2645
19.2483 1035 32.1714
19.3645 959 30.9677
19.4806 954 30.8869
19.5967 962 31.0161
19.7128 914 30.2324
19.8288 803 28.3373
19.9447 750 27.3861
20.0606 0 1
20.1764 0 1
20.2922 0 1
20.4079 0 1
20.5236 0 1
20.6392 0 1
20.7548 0 1
20.8702 0 1
23.3078 0 1
23.4233 0 1
23.539 0 1
23.6547 0 1
23.7704 0 1
23.8862 0 1
24.0021 0 1
24.118 0 1
24.234 0 1
24.35 0 1
24.4661 763 27.6225
24.5822 937 30.6105
24.6984 1106 33.2566
24.8146 1297 36.0139
24.9309 1208 34.7563
25.0472 1133 33.6601
25.1636 1131 33.6303
25.28 1178 34.322
25.3965 1243 35.2562
25.513 1246 35.2987
25.6296 1283 35.819
25.7462 1309 36.1801
25.8628 1297 36.0139
25.9795 1299 36.0416
26.0962 1175 34.2783
26.213 1227 35.0286
26.3298 1188 34.4674
26.4466 1138 33.7343
26.5635 1101 33.1813
26.6804 1017 31.8904
26.7973 971 31.1609
26.9143 930 30.4959
27.0313 992 31.496
27.1483 986 31.4006
27.2653 1029 32.078
27.3824 1159 34.0441
27.4996 1107 33.2716
27.6167 1065 32.6343
27.7339 1015 31.8591
27.8511 1072 32.7414
27.9683 1000 31.6228
28.0855 1028 32.0624
28.2028 1090 33.0151
28.3201 1070 32.7109
28.4374 1099 33.1512
28.5547 1121 33.4813
28.6721 1115 33.3916
28.7894 1147 33.8674
28.9068 1154 33.9706
29.0242 1060 32.5576
29.1416 1079 32.8481
29.259 1086 32.9545
29.3764 1044 32.311
29.4939 1046 32.3419
29.6113 1071 32.7261
29.7288 1023 31.9844
29.8463 995 31.5436
29.9638 1046 32.3419
30.0812 950 30.8221
30.1987 941 30.6757
30.3162 897 29.95
30.4337 950 30.8221
30.5512 938 30.6268
30.6687 1031 32.1092
30.7862 1015 31.8591
30.9037 1114 33.3766
31.0212 1045 32.3265
31.1387 1041 32.2645
31.2562 1033 32.1403
31.3737 1061 32.573
31.4912 961 31
31.6087 1040 32.249
31.7262 1032 32.1248
31.8436 1005 31.7017
31.9611 1000 31.6228
32.0785 1019 31.9218
32.1959 990 31.4643
32.3134 1023 31.9844
32.4308 960 30.9839
32.5482 1023 31.9844
32.6655 987 31.4166
32.7829 944 30.7246
32.9002 921 30.348
33.0176 953 30.8707
33.1349 899 29.9833
33.2522 968 31.1127
33.3694 922 30.3645
33.4867 995 31.5436
33.6039 896 29.9333
33.7211 909 30.1496
33.8383 826 28.7402
33.9554 834 28.8791
34.0725 878 29.6311
34.1896 974 31.209
34.3067 938 30.6268
34.4237 966 31.0805
34.5407 949 30.8058
34.6577 958 30.9516
34.7746 948 30.7896
34.8915 901 30.0167
35.0084 933 30.545
35.1252 891 29.8496
35.242 844 29.0517
35.3587 916 30.2655
35.4755 969 31.1288
35.5921 932 30.5287
35.7088 872 29.5296
35.8254 944 30.7246
35.9419 900 30
36.0584 895 29.9166
36.1749 925 30.4138
36.2913 916 30.2655
36.4077 868 29.4618
36.524 872 29.5296
36.6403 791 28.1247
36.7565 786 28.0357
36.8727 723 26.8887
36.9889 752 27.4226
37.1049 565 23.7697
37.221 0 1
37.3369 0 1
37.4529 0 1
37.5687 0 1
37.6845 0 1
37.8003 0 1
37.916 0 1
38.0316 0 1
38.1472 0 1
40.5851 0 1
40.7008 0 1
40.8164 0 1
40.9322 0 1
41.048 0 1
41.1639 0 1
41.2798 0 1
41.3958 0 1
41.5118 0 1
41.6279 0 1
41.744 397 19.9249
41.8602 459 21.4243
41.9765 532 23.0651
42.0928 630 25.0998
42.2091 620 24.8998
42.3255 700 26.4575
42.4419 724 26.9072
42.5584 691 26.2869
42.675 706 26.5707
42.7915 658 25.6515
42.9081 755 27.4773
43.0248 733 27.074
43.1415 749 27.3679
43.2582 736 27.1293
43.375 682 26.1151
43.4918 759 27.55
43.6087 765 27.6586
43.7256 706 26.5707
43.8425 680 26.0768
43.9595 696 26.3818
44.0765 679 26.0576
44.1935 673 25.9422
44.3106 724 26.9072
44.4277 744 27.2764
44.5448 699 26.4386
44.6619 727 26.9629
44.7791 762 27.6043
44.8963 745 27.2947
45.0136 734 27.0924
45.1308 723 26.8887
45.2481 774 27.8209
45.3654 774 27.8209
45.4827 754 27.4591
45.6001 788 28.0713
45.7174 800 28.2843
45.8348 817 28.5832
45.9522 739 27.1846
46.0697 787 28.0535
46.1871 757 27.5136
46.3046 691 26.2869
46.422 697 26.4008
46.5395 719 26.8142
46.657 757 27.5136
46.7745 773 27.8029
46.892 736 27.1293
47.0096 735 27.1109
47.1271 773 27.8029
47.2446 792 28.1425
47.3622 650 25.4951
47.4797 719 26.8142
47.5973 637 25.2389
47.7149 688 26.2298
47.8324 731 27.037
47.95 680 26.0768
48.0675 771 27.7669
48.1851 720 26.8328
48.3027 753 27.4408
48.4202 763 27.6225
48.5378 781 27.9464
48.6554 826 28.7402
48.7729 820 28.6356
48.8904 738 27.1662
49.008 802 28.3196
49.1255 763 27.6225
49.243 803 28.3373
49.3605 772 27.7849
49.478 741 27.2213
49.5955 664 25.7682
49.713 705 26.5518
49.8304 701 26.4764
49.9479 722 26.8701
50.0653 721 26.8514
50.1827 758 27.5318
50.3001 805 28.3725
50.4175 744 27.2764
50.5348 715 26.7395
50.6521 719 26.8142
50.7694 748 27.3496
50.8867 722 26.8701
51.004 744 27.2764
51.1212 675 25.9808
51.2384 712 26.6833
51.3556 677 26.0192
51.4727 719 26.8142
51.5899 746 27.313
51.707 794 28.178
51.824 781 27.9464
51.9411 858 29.2916
52.0581 829 28.7924
52.175 964 31.0483
52.2919 1038 32.218
52.4088 1002 31.6544
52.5257 1000 31.6228
52.6425 995 31.5436
52.7593 1038 32.218
52.876 901 30.0167
52.9927 983 31.3528
53.1094 878 29.6311
53.226 934 30.5614
53.3426 918 30.2985
53.4591 1187 34.4529
53.5756 1556 39.4462
53.692 2463 49.6286
53.8084 3516 59.2959
53.9248 4634 68.0735
54.0411 5732 75.71
54.1573 6525 80.7775
54.2735 0 1
54.3896 0 1
54.5057 0 1
54.6217 0 1
54.7377 0 1
54.8537 0 1
54.9695 0 1
55.0853 0 1
55.2011 0 1
55.3168 0 1
55.4324 0 1
57.824 0 1
57.9396 0 1
58.0553 0 1
58.1711 0 1
58.2869 0 1
58.4028 0 1
58.5187 0 1
58.6347 0 1
58.7508 0 1
58.8669 0 1
58.983 4757 68.971
59.0992 5405 73.5187
59.2155 5789 76.0855
59.3318 6132 78.3071
59.4482 6338 79.6116
59.5646 6522 80.7589
59.681 6732 82.0488
59.7975 6418 80.1124
59.9141 6066 77.8845
60.0306 5264 72.5534
60.1473 4139 64.3351
60.2639 3323 57.6455
60.3807 2791 52.8299
60.4974 2643 51.4101
60.6142 2596 50.951
60.731 2557 50.5668
60.8479 2399 48.9796
60.9648 2239 47.3181
61.0818 2052 45.299
61.1987 1893 43.5086
61.3158 1857 43.0929
61.4328 1614 40.1746
61.5499 1558 39.4715
61.667 1424 37.7359
61.7841 1366 36.9594
61.9013 1243 35.2562
62.0185 1187 34.4529
62.1357 1095 33.0908
62.253 1098 33.1361
62.3702 971 31.1609
62.4875 1120 33.4664
62.6049 1075 32.7872
62.7222 999 31.607
62.8396 996 31.5595
62.9569 957 30.9354
63.0743 995 31.5436
63.1918 909 30.1496
63.3092 897 29.95
63.4267 863 29.3769
63.5441 885 29.7489
63.6616 814 28.5307
63.7791 813 28.5132
63.8966 825 28.7228
64.0142 810 28.4605
64.1317 821 28.6531
64.2492 785 28.0179
64.3668 778 27.8927
64.4843 816 28.5657
64.6019 762 27.6043
64.7195 783 27.9821
64.837 752 27.4226
64.9546 805 28.3725
65.0722 785 28.0179
65.1898 798 28.2489
65.3074 844 29.0517
65.4249 785 28.0179
65.5425 718 26.7955
65.6601 741 27.2213
65.7777 722 26.8701
65.8952 749 27.3679
66.0128 734 27.0924
66.1304 769 27.7308
66.2479 800 28.2843
66.3655 780 27.9285
66.483 770 27.7489
66.6005 784 28
66.718 769 27.7308
66.8355 773 27.8029
66.953 784 28
67.0705 743 27.258
67.1879 773 27.8029
67.3054 711 26.6646
67.4228 758 27.5318
67.5402 729 27
67.6576 760 27.5681
67.7749 816 28.5657
67.8923 767 27.6948
68.0096 775 27.8388
68.1269 757 27.5136
68.2442 732 27.0555
68.3614 759 27.55
68.4787 745 27.2947
68.5958 753 27.4408
68.713 748 27.3496
68.8302 770 27.7489
68.9473 756 27.4955
69.0643 756 27.4955
69.1814 726 26.9444
69.2984 764 27.6405
69.4154 742 27.2397
69.5323 739 27.1846
69.6492 765 27.6586
69.7661 719 26.8142
69.8829 759 27.55
69.9997 714 26.7208
70.1165 729 27
70.2332 703 26.5141
70.3499 696 26.3818
70.4665 647 25.4362
70.5831 654 25.5734
70.6996 624 24.98
70.8161 549 23.4307
70.9326 520 22.8035
71.049 445 21.095
71.1653 442 21.0238
71.2817 378 19.4422
71.3979 345 18.5742
71.5141 344 18.5472
71.6303 347 18.6279
71.7464 244 15.6205
71.8624 0 1
71.9784 0 1
72.0944 0 1
72.2102 0 1
72.3261 0 1
72.4418 0 1
72.5575 0 1
72.6732 0 1
75.1054 0 1
75.2209 0 1
75.3365 0 1
75.4521 0 1
75.5678 0 1
75.6835 0 1
75.7993 0 1
75.9151 0 1
76.031 0 1
76.147 440 20.9762
76.263 507 22.5167
76.3791 524 22.891
76.4952 595 24.3926
76.6113 559 23.6432
76.7276 592 24.3311
76.8438 558 23.622
76.9601 559 23.6432
77.0765 620 24.8998
77.1929 628 25.0599
77.3093 632 25.1396
77.4258 597 24.4336
77.5423 652 25.5343
77.6589 644 25.3772
77.7755 645 25.3969
77.8921 622 24.9399
78.0088 652 25.5343
78.1256 628 25.0599
78.2423 602 24.5357
78.3591 595 24.3926
78.4759 588 24.2487
78.5928 630 25.0998
78.7097 595 24.3926
78.8266 593 24.3516
78.9436 628 25.0599
79.0606 585 24.1868
79.1776 659 25.671
79.2946 618 24.8596
79.4117 676 26
79.5288 612 24.7386
79.6459 617 24.8395
79.7631 636 25.219
79.8802 649 25.4755
79.9974 628 25.0599
80.1147 632 25.1396
80.2319 581 24.1039
80.3491 597 24.4336
80.4664 606 24.6171
80.5837 613 24.7588
80.701 605 24.5967
80.8183 604 24.5764
80.9357 629 25.0799
81.053 657 25.632
81.1704 638 25.2587
81.2877 643 25.3574
81.4051 674 25.9615
81.5225 725 26.9258
81.6399 701 26.4764
81.7573 678 26.0384
81.8747 654 25.5734
81.9922 642 25.3377
82.1096 654 25.5734
82.227 637 25.2389
82.3444 578 24.0416
82.4619 612 24.7386
82.5793 584 24.1661
82.6967 595 24.3926
82.8142 682 26.1151
82.9316 596 24.4131
83.049 685 26.1725
83.1664 660 25.6905
83.2838 621 24.9199
83.4012 670 25.8844
83.5186 681 26.096
83.636 730 27.0185
83.7534 642 25.3377
83.8708 632 25.1396
83.9881 620 24.8998
84.1055 655 25.593
84.2228 641 25.318
84.3401 639 25.2784
84.4575 663 25.7488
84.5747 627 25.04
84.692 631 25.1197
84.8093 686 26.1916
84.9265 619 24.8797
85.0437 643 25.3574
85.1609 687 26.2107
85.2781 707 26.5895
85.3952 644 25.3772
85.5123 659 25.671
85.6294 672 25.923
85.7465 658 25.6515
85.8636 655 25.593
85.9806 634 25.1794
86.0976 635 25.1992
86.2145 623 24.96
86.3315 648 25.4558
86.4484 700 26.4575
86.5652 639 25.2784
86.682 636 25.219
86.7988 702 26.4953
86.9156 653 25.5539
87.0323 670 25.8844
87.149 734 27.0924
87.2657 628 25.0599
87.3823 654 25.5734
87.4988 628 25.0599
87.6154 568 23.8328
87.7318 579 24.0624
87.8483 548 23.4094
87.9647 533 23.0868
88.081 464 21.5407
88.1973 494 22.2261
88.3136 460 21.4476
88.4298 451 21.2368
88.546 418 20.445
88.6621 399 19.975
88.7781 351 18.735
88.8942 0 1
89.0101 0 1
89.126 0 1
89.2419 0 1
89.3577 0 1
89.4734 0 1
89.5891 0 1
89.7047 0 1
89.8203 0 1
89.9358 0 1
92.3269 0 1
92.4424 0 1
92.558 0 1
92.6736 0 1
92.7893 0 1
92.905 0 1
93.0208 0 1
93.1366 0 1
93.2525 0 1
93.3685 0 1
93.4845 0 1
93.6005 488 22.0907
93.7167 543 23.3024
93.8328 583 24.1454
93.949 620 24.8998
94.0653 604 24.5764
94.1816 622 24.9399
94.2979 650 25.4951
94.4143 662 25.7294
94.5307 671 25.9037
94.6472 687 26.2107
94.7637 629 25.0799
94.8803 619 24.8797
94.9969 619 24.8797
95.1135 610 24.6982
95.2302 568 23.8328
95.3469 625 25
95.4637 673 25.9422
95.5805 627 25.04
95.6973 711 26.6646
95.8142 683 26.1343
95.9311 694 26.3439
96.048 679 26.0576
96.1649 675 25.9808
96.2819 701 26.4764
96.3989 628 25.0599
96.516 674 25.9615
96.633 648 25.4558
96.7501 677 26.0192
96.8673 653 25.5539
96.9844 633 25.1595
97.1016 635 25.1992
97.2188 638 25.2587
97.336 622 24.9399
97.4532 648 25.4558
97.5704 637 25.2389
97.6877 769 27.7308
97.805 697 26.4008
97.9223 736 27.1293
98.0396 738 27.1662
98.1569 726 26.9444
98.2743 773 27.8029
98.3916 736 27.1293
98.509 680 26.0768
98.6264 682 26.1151
98.7438 618 24.8596
98.8612 625 25
98.9786 716 26.7582
99.096 704 26.533
99.2134 698 26.4197
99.3308 711 26.6646
99.4482 755 27.4773
99.5656 746 27.313
99.6831 761 27.5862
99.8005 721 26.8514
99.9179 734 27.0924
100.035 659 25.671
100.153 673 25.9422
100.27 693 26.3249
100.388 653 25.5539
100.505 652 25.5343
100.622 652 25.5343
100.74 657 25.632
100.857 660 25.6905
100.975 746 27.313
101.092 780 27.9285
101.209 762 27.6043
101.327 826 28.7402
101.444 823 28.688
101.561 889 29.8161
101.679 828 28.775
101.796 851 29.1719
101.913 822 28.6705
102.03 818 28.6007
102.148 726 26.9444
102.265 765 27.6586
102.382 699 26.4386
102.499 745 27.2947
102.616 754 27.4591
102.733 828 28.775
102.851 831 28.8271
102.968 868 29.4618
103.085 892 29.8664
103.202 892 29.8664
103.319 891 29.8496
103.436 839 28.9655
103.552 826 28.7402
103.669 880 29.6648
103.786 854 29.2233
103.903 890 29.8329
104.02 915 30.249
104.137 869 29.4788
104.253 967 31.0966
104.37 1005 31.7017
104.487 1052 32.4345
104.603 1090 33.0151
104.72 1066 32.6497
104.836 1159 34.0441
104.953 1175 34.2783
105.069 1226 35.0143
105.186 1220 34.9285
105.302 1125 33.541
105.418 1035 32.1714
105.535 978 31.273
105.651 955 30.9031
105.767 899 29.9833
105.883 802 28.3196
105.999 796 28.2135
106.115 0 1
106.231 0 1
106.347 0 1
106.463 0 1
106.579 0 1
106.694 0 1
106.81 0 1
106.926 0 1
107.041 0 1
107.157 0 1
109.576 0 1
109.692 0 1
109.807 0 1
109.923 0 1
110.039 0 1
110.155 0 1
110.27 0 1
110.386 0 1
110.502 0 1
110.618 613 24.7588
110.735 719 26.8142
110.851 774 27.8209
110.967 754 27.4591
111.083 781 27.9464
111.199 809 28.4429
111.316 955 30.9031
111.432 1017 31.8904
111.549 1055 32.4808
111.665 1123 33.5112
111.782 1193 34.5398
111.898 1188 34.4674
112.015 1141 33.7787
112.132 1290 35.9166
112.248 1256 35.4401
112.365 1137 33.7194
112.482 976 31.241
112.599 962 31.0161
112.716 1058 32.5269
112.832 1194 34.5543
112.949 1458 38.1838
113.066 1648 40.5956
113.183 1838 42.8719
113.3 1871 43.2551
113.417 2116 46
113.534 2290 47.8539
113.652 2240 47.3286
113.769 2412 49.1121
113.886 2465 49.6488
114.003 2506 50.06
114.12 2571 50.705
114.238 2541 50.4083
114.355 2520 50.1996
114.472 2349 48.4665
114.589 1891 43.4856
114.707 1923 43.852
114.824 2251 47.4447
114.942 2309 48.0521
115.059 2384 48.8262
115.176 2369 48.6724
115.294 2430 49.295
115.411 2343 48.4045
115.529 2251 47.4447
115.646 1834 42.8252
115.764 1809 42.5323
115.881 1611 40.1373
115.999 1357 36.8375
116.116 1149 33.8969
116.234 874 29.5635
116.351 710 26.6458
116.469 751 27.4044
116.586 682 26.1151
116.704 621 24.9199
116.821 596 24.4131
116.939 559 23.6432
117.056 618 24.8596
117.174 690 26.2679
117.291 638 25.2587
117.409 658 25.6515
117.526 630 25.0998
117.644 663 25.7488
117.761 648 25.4558
117.879 592 24.3311
117.996 521 22.8254
118.114 543 23.3024
118.231 568 23.8328
118.349 543 23.3024
118.466 597 24.4336
118.584 628 25.0599
118.701 622 24.9399
118.819 580 24.0832
118.936 641 25.318
119.053 633 25.1595
119.171 584 24.1661
119.288 618 24.8596
119.405 554 23.5372
119.523 592 24.3311
119.64 544 23.3238
119.757 529 23
119.875 552 23.4947
119.992 496 22.2711
120.109 512 22.6274
120.226 590 24.2899
120.343 584 24.1661
120.46 566 23.7908
120.578 619 24.8797
120.695 556 23.5797
120.812 596 24.4131
120.929 608 24.6577
121.046 567 23.8118
121.163 595 24.3926
121.279 591 24.3105
121.396 558 23.622
121.513 494 22.2261
121.63 497 22.2935
121.747 474 21.7715
121.863 445 21.095
121.98 468 21.6333
122.097 480 21.9089
122.213 464 21.5407
122.33 476 21.8174
122.446 464 21.5407
122.563 444 21.0713
122.679 443 21.0476
122.795 418 20.445
122.912 373 19.3132
123.028 350 18.7083
123.144 305 17.4642
123.26 268 16.3707
123.377 0 1
123.493 0 1
123.609 0 1
123.725 0 1
123.84 0 1
123.956 0 1
124.072 0 1
124.188 0 1
124.303 0 1
124.419 0 1
126.852 0 1
126.968 0 1
127.083 0 1
127.199 0 1
127.315 0 1
127.431 0 1
127.547 0 1
127.663 0 1
127.779 0 1
127.895 0 1
128.011 0 1
128.127 0 1
128.243 0 1
128.359 579 24.0624
128.476 607 24.6374
128.592 594 24.3721
128.708 575 23.9792
128.825 600 24.4949
128.941 553 23.516
129.058 600 24.4949
129.174 596 24.4131
129.291 629 25.0799
129.408 618 24.8596
129.524 625 25
129.641 634 25.1794
129.758 642 25.3377
129.875 704 26.533
129.992 614 24.779
130.108 713 26.7021
130.225 732 27.0555
130.342 706 26.5707
130.459 724 26.9072
130.576 670 25.8844
130.693 685 26.1725
130.81 669 25.865
130.928 680 26.0768
131.045 750 27.3861
131.162 800 28.2843
131.279 892 29.8664
131.396 953 30.8707
131.513 1088 32.9848
131.631 1011 31.7962
131.748 1032 32.1248
131.865 1092 33.0454
131.983 1054 32.4654
132.1 1078 32.8329
132.217 1168 34.176
132.335 1150 33.9116
132.452 1210 34.7851
132.57 1303 36.0971
132.687 1367 36.973
132.804 1489 38.5876
132.922 1528 39.0896
133.039 1538 39.2173
133.157 1610 40.1248
133.274 1613 40.1622
133.392 1573 39.6611
133.509 1704 41.2795
133.627 1623 40.2865
133.744 1681 41
133.862 1641 40.5093
133.979 1616 40.1995
134.097 1483 38.5097
134.214 1345 36.6742
134.332 1269 35.623
134.449 1321 36.3456
134.567 1395 37.3497
134.684 1467 38.3014
134.802 1497 38.6911
134.919 1528 39.0896
135.037 1564 39.5474
135.154 1638 40.4722
135.272 1539 39.2301
135.389 1617 40.2119
135.507 1562 39.5221
135.624 1545 39.3065
135.742 1494 38.6523
135.859 1510 38.8587
135.977 1453 38.1182
136.094 1588 39.8497
136.211 1544 39.2938
136.329 1621 40.2616
136.446 1520 38.9872
136.564 1603 40.0375
136.681 1579 39.7366
136.798 1608 40.0999
136.915 1570 39.6232
137.033 1653 40.6571
137.15 1578 39.724
137.267 1611 40.1373
137.384 1597 39.9625
137.502 1590 39.8748
137.619 1490 38.6005
137.736 1353 36.7831
137.853 1236 35.1568
137.97 1202 34.6699
138.087 1333 36.5103
138.204 1344 36.6606
138.321 1398 37.3898
138.438 1453 38.1182
138.555 1510 38.8587
138.672 1476 38.4187
138.788 1437 37.9078
138.905 1472 38.3667
139.022 1500 38.7298
139.139 1392 37.3095
139.255 1355 36.8103
139.372 1259 35.4824
139.488 1172 34.2345
139.605 1086 32.9545
139.721 1068 32.6803
139.838 1061 32.573
139.954 992 31.496
140.071 930 30.4959
140.187 932 30.5287
140.303 874 29.5635
140.419 851 29.1719
140.535 841 29
140.652 819 28.6182
140.768 0 1
140.884 0 1
141 0 1
141.115 0 1
141.231 0 1
141.347 0 1
141.463 0 1
141.578 0 1
141.694 0 1
144.104 0 1
144.219 0 1
144.335 0 1
144.45 0 1
144.566 0 1
144.682 0 1
144.798 0 1
144.914 0 1
145.03 0 1
145.146 1133 33.6601
145.262 1254 35.4119
145.378 1303 36.0971
145.494 1367 36.973
145.61 1348 36.7151
145.726 1426 37.7624
145.842 1347 36.7015
145.959 1372 37.0405
146.075 1390 37.2827
146.192 1437 37.9078
146.308 1385 37.2156
146.425 1320 36.3318
146.541 1333 36.5103
146.658 1240 35.2136
146.774 1308 36.1663
146.891 1277 35.7351
147.008 1385 37.2156
147.125 1397 37.3765
147.241 1400 37.4166
147.358 1409 37.5366
147.475 1437 37.9078
147.592 1406 37.4967
147.709 1398 37.3898
147.826 1386 37.229
147.943 1454 38.1314
148.06 1385 37.2156
148.177 1301 36.0694
148.294 1317 36.2905
148.411 1398 37.3898
148.528 1341 36.6197
148.645 1379 37.1349
148.762 1391 37.2961
148.88 1394 37.3363
148.997 1478 38.4448
149.114 1383 37.1887
149.231 1388 37.2559
149.349 1437 37.9078
149.466 1409 37.5366
149.583 1456 38.1576
149.701 1447 38.0395
149.818 1502 38.7556
149.935 1406 37.4967
150.053 1470 38.3406
150.17 1304 36.1109
150.287 1383 37.1887
150.405 1286 35.8608
150.522 1205 34.7131
150.64 1292 35.9444
150.757 1441 37.9605
150.875 1428 37.7889
150.992 1427 37.7757
151.11 1304 36.1109
151.227 1270 35.6371
151.344 1316 36.2767
151.462 1385 37.2156
151.579 1450 38.0789
151.697 1412 37.5766
151.814 1471 38.3536
151.932 1446 38.0263
152.049 1406 37.4967
152.167 1419 37.6696
152.284 1478 38.4448
152.402 1501 38.7427
152.519 1431 37.8286
152.636 1484 38.5227
152.754 1516 38.9358
152.871 1561 39.5095
152.989 1525 39.0512
153.106 1526 39.064
153.223 1532 39.1408
153.341 1521 39
153.458 1559 39.4842
153.575 1446 38.0263
153.693 1379 37.1349
153.81 1377 37.108
153.927 1342 36.6333
154.044 1435 37.8814
154.162 1448 38.0526
154.279 1635 40.4351
154.396 1642 40.5216
154.513 1617 40.2119
154.63 1802 42.45
154.747 1831 42.7902
154.864 1864 43.1741
154.981 2026 45.0111
155.098 2290 47.8539
155.215 2426 49.2544
155.332 2651 51.4879
155.449 2936 54.1849
155.566 3027 55.0182
155.683 3413 58.4209
155.8 3579 59.8247
155.917 3900 62.45
156.033 4066 63.7652
156.15 0 1
156.267 0 1
156.383 0 1
156.5 0 1
156.617 0 1
156.733 0 1
156.85 0 1
156.966 0 1
157.082 0 1
157.199 0 1
157.315 0 1
157.431 0 1
157.547 0 1
157.664 0 1
157.78 0 1
157.896 0 1
158.012 0 1
158.128 0 1
158.244 0 1
158.359 0 1
158.475 0 1
158.591 0 1
158.706 0 1
