
6.15755 0 1
6.2731 0 1
6.3887 0 1
6.50437 0 1
6.62009 0 1
6.73587 0 1
6.8517 0 1
6.96759 0 1
7.08353 0 1
7.19952 0 1
7.31557 0 1
7.43166 0 1
7.54781 0 1
7.664 0 1
7.78024 0 1
7.89653 0 1
8.01286 0 1
8.12924 0 1
8.24567 0 1
8.36213 0 1
8.47864 0 1
8.59519 0 1
8.71178 0 1
8.82841 0 1
8.94508 0 1
9.06179 0 1
9.17853 0 1
9.29531 0 1
9.41212 0 1
9.52897 0 1
9.64584 0 1
9.76276 0 1
9.8797 0 1
9.99667 0 1
10.1137 0 1
10.2307 0 1
10.3478 0 1
10.4648 0 1
10.5819 0 1
10.6991 0 1
10.8162 0 1
10.9334 0 1
11.0506 0 1
11.1678 0 1
11.285 0 1
11.4023 0 1
11.5196 0 1
11.6369 0 1
11.7542 0 1
11.8715 0 1
11.9888 0 1
12.1062 0 1
12.2235 0 1
12.3409 0 1
12.4582 0 1
12.5756 0 1
12.693 0 1
12.8104 0 1
12.9278 0 1
13.0452 0 1
13.1626 0 1
13.28 0 1
13.3974 0 1
13.5149 0 1
13.6323 0 1
13.7497 0 1
13.8671 0 1
13.9845 0 1
14.1019 0 1
14.2193 0 1
14.3367 0 1
14.4541 0 1
14.5714 0 1
14.6888 0 1
14.8062 0 1
14.9235 0 1
15.0408 4535 67.3424
15.1581 4745 68.884
15.2755 4893 69.95
15.3927 5043 71.0141
15.51 5009 70.7743
15.6273 4932 70.2282
15.7445 5031 70.9295
15.8617 5125 71.5891
15.9789 5082 71.2881
16.0961 5183 71.9931
16.2132 5164 71.861
16.3304 5447 73.8038
16.4475 5527 74.3438
16.5646 5723 75.6505
16.6816 5890 76.7463
16.7986 6073 77.9295
16.9156 6161 78.492
17.0326 6298 79.3599
17.1496 6540 80.8703
17.2665 6498 80.6102
17.3833 6670 81.6701
17.5002 6535 80.8393
17.617 6608 81.2896
17.7338 6280 79.2465
17.8505 6124 78.256
17.9672 6042 77.7303
18.0839 5919 76.935
18.2005 6235 78.962
18.3171 6374 79.8373
18.4337 6574 81.0802
18.5502 6824 82.6075
18.6666 6721 81.9817
18.7831 7118 84.3682
18.8994 6922 83.1986
19.0158 7137 84.4808
19.1321 6674 81.6946
19.2483 6601 81.2465
19.3645 6399 79.9937
19.4806 6369 79.806
19.5967 6328 79.5487
19.7128 6168 78.5366
19.8288 6028 77.6402
19.9447 5539 74.4245
20.0606 0 1
20.1764 0 1
20.2922 0 1
20.4079 0 1
20.5236 0 1
20.6392 0 1
20.7548 0 1
20.8702 0 1
23.3078 0 1
23.4233 0 1
23.539 0 1
23.6547 0 1
23.7704 0 1
23.8862 0 1
24.0021 0 1
24.118 0 1
24.234 0 1
24.35 0 1
24.4661 6579 81.111
24.5822 6598 81.2281
24.6984 6475 80.4674
24.8146 6272 79.196
24.9309 6242 79.0063
25.0472 6378 79.8624
25.1636 6626 81.4002
25.28 6543 80.8888
25.3965 6915 83.1565
25.513 7115 84.3505
25.6296 7314 85.5219
25.7462 7457 86.3539
25.8628 7495 86.5737
25.9795 7418 86.1278
26.0962 7408 86.0697
26.213 7192 84.8057
26.3298 7094 84.2259
26.4466 6582 81.1295
26.5635 6470 80.4363
26.6804 6605 81.2712
26.7973 6677 81.7129
26.9143 6823 82.6015
27.0313 7078 84.1309
27.1483 7186 84.7703
27.2653 7267 85.2467
27.3824 7338 85.6621
27.4996 7448 86.3018
27.6167 7259 85.1998
27.7339 7036 83.8809
27.8511 7116 84.3564
27.9683 6794 82.4257
28.0855 6716 81.9512
28.2028 6728 82.0244
28.3201 6369 79.806
28.4374 6571 81.0617
28.5547 6446 80.287
28.6721 6559 80.9877
28.7894 6680 81.7313
28.9068 6909 83.1204
29.0242 6906 83.1023
29.1416 7172 84.6877
29.259 7365 85.8196
29.3764 7307 85.481
29.4939 7459 86.3655
29.6113 7311 85.5044
29.7288 7097 84.2437
29.8463 6816 82.5591
29.9638 6319 79.4921
30.0812 6076 77.9487
30.1987 6160 78.4857
30.3162 6297 79.3536
30.4337 6589 81.1727
30.5512 6843 82.7224
30.6687 6718 81.9634
30.7862 7104 84.2852
30.9037 6932 83.2586
31.0212 7101 84.2674
31.1387 7149 84.5518
31.2562 6947 83.3487
31.3737 6855 82.7949
31.4912 6778 82.3286
31.6087 6641 81.4923
31.7262 6375 79.8436
31.8436 6632 81.4371
31.9611 6434 80.2122
32.0785 6292 79.3221
32.1959 6315 79.467
32.3134 6495 80.5916
32.4308 6590 81.1788
32.5482 6771 82.2861
32.6655 6933 83.2646
32.7829 7008 83.7138
32.9002 7155 84.5872
33.0176 7081 84.1487
33.1349 7254 85.1704
33.2522 7098 84.2496
33.3694 6929 83.2406
33.4867 6485 80.5295
33.6039 6262 79.1328
33.7211 6002 77.4726
33.8383 5833 76.3741
33.9554 5789 76.0855
34.0725 6238 78.981
34.1896 6324 79.5236
34.3067 6594 81.2034
34.4237 6529 80.8022
34.5407 6674 81.6946
34.6577 6748 82.1462
34.7746 6785 82.3711
34.8915 6763 82.2375
35.0084 6700 81.8535
35.1252 6428 80.1748
35.242 6500 80.6226
35.3587 6427 80.1686
35.4755 6370 79.8123
35.5921 6082 77.9872
35.7088 5961 77.2075
35.8254 5989 77.3886
35.9419 6053 77.801
36.0584 6301 79.3788
36.1749 6311 79.4418
36.2913 6554 80.9568
36.4077 6759 82.2131
36.524 6728 82.0244
36.6403 6791 82.4075
36.7565 6767 82.2618
36.8727 6858 82.813
36.9889 6555 80.963
37.1049 6272 79.196
37.221 0 1
37.3369 0 1
37.4529 0 1
37.5687 0 1
37.6845 0 1
37.8003 0 1
37.916 0 1
38.0316 0 1
38.1472 0 1
40.5851 0 1
40.7008 0 1
40.8164 0 1
40.9322 0 1
41.048 0 1
41.1639 0 1
41.2798 0 1
41.3958 0 1
41.5118 0 1
41.6279 0 1
41.744 5241 72.3948
41.8602 5664 75.2596
41.9765 5712 75.5778
42.0928 5620 74.9667
42.2091 5629 75.0267
42.3255 5241 72.3948
42.4419 4914 70.0999
42.5584 4751 68.9275
42.675 4479 66.9253
42.7915 4731 68.7823
42.9081 4931 70.2211
43.0248 5077 71.2531
43.1415 5114 71.5122
43.2582 5229 72.3118
43.375 5347 73.1232
43.4918 5294 72.7599
43.6087 5265 72.5603
43.7256 5397 73.4643
43.8425 5162 71.8471
43.9595 5185 72.0069
44.0765 4893 69.95
44.1935 4922 70.157
44.3106 4798 69.2676
44.4277 4645 68.1542
44.5448 4411 66.4154
44.6619 4371 66.1135
44.7791 4322 65.7419
44.8963 4456 66.7533
45.0136 4485 66.9701
45.1308 4515 67.1937
45.2481 4724 68.7314
45.3654 4765 69.029
45.4827 4692 68.4982
45.6001 4572 67.6166
45.7174 4479 66.9253
45.8348 4255 65.2304
45.9522 3971 63.0159
46.0697 3696 60.7947
46.1871 3629 60.2412
46.3046 3458 58.8048
46.422 3704 60.8605
46.5395 3704 60.8605
46.657 3985 63.1269
46.7745 4066 63.7652
46.892 3977 63.0635
47.0096 4114 64.1405
47.1271 4108 64.0937
47.2446 4210 64.8845
47.3622 4093 63.9766
47.4797 3998 63.2297
47.5973 3902 62.466
47.7149 3826 61.8547
47.8324 3737 61.131
47.95 3775 61.441
48.0675 3583 59.8582
48.1851 3579 59.8247
48.3027 3452 58.7537
48.4202 3580 59.8331
48.5378 3656 60.4649
48.6554 3706 60.8769
48.7729 3854 62.0806
48.8904 3782 61.498
49.008 3965 62.9682
49.1255 3819 61.7981
49.243 3759 61.3107
49.3605 3642 60.349
49.478 3369 58.0431
49.5955 3091 55.5968
49.713 3134 55.9821
49.8304 3051 55.2359
49.9479 3142 56.0535
50.0653 3380 58.1378
50.1827 3644 60.3656
50.3001 3870 62.2093
50.4175 3840 61.9677
50.5348 3892 62.3859
50.6521 4105 64.0703
50.7694 4201 64.8151
50.8867 4280 65.4217
51.004 4158 64.4826
51.1212 4310 65.6506
51.2384 4370 66.106
51.3556 4341 65.8863
51.4727 4223 64.9846
51.5899 4261 65.2763
51.707 4199 64.7997
51.824 4198 64.792
51.9411 4243 65.1383
52.0581 4330 65.8027
52.175 4679 68.4032
52.2919 5055 71.0985
52.4088 5118 71.5402
52.5257 5008 70.7672
52.6425 5069 71.1969
52.7593 5085 71.3092
52.876 4852 69.6563
52.9927 4680 68.4105
53.1094 4332 65.8179
53.226 4152 64.436
53.3426 4068 63.7809
53.4591 4107 64.0859
53.5756 4522 67.2458
53.692 4697 68.5347
53.8084 4850 69.6419
53.9248 4989 70.6329
54.0411 5180 71.9722
54.1573 5277 72.643
54.2735 0 1
54.3896 0 1
54.5057 0 1
54.6217 0 1
54.7377 0 1
54.8537 0 1
54.9695 0 1
55.0853 0 1
55.2011 0 1
55.3168 0 1
55.4324 0 1
57.824 0 1
57.9396 0 1
58.0553 0 1
58.1711 0 1
58.2869 0 1
58.4028 0 1
58.5187 0 1
58.6347 0 1
58.7508 0 1
58.8669 0 1
58.983 5770 75.9605
59.0992 6027 77.6338
59.2155 6273 79.2023
59.3318 6478 80.486
59.4482 6623 81.3818
59.5646 6634 81.4494
59.681 6752 82.1706
59.7975 6570 81.0555
59.9141 6519 80.7403
60.0306 6367 79.7935
60.1473 6356 79.7245
60.2639 5984 77.3563
60.3807 5951 77.1427
60.4974 5744 75.7892
60.6142 5796 76.1315
60.731 5872 76.629
60.8479 6084 78
60.9648 6380 79.8749
61.0818 6319 79.4921
61.1987 6400 80
61.3158 6353 79.7057
61.4328 6178 78.6003
61.5499 5738 75.7496
61.667 5554 74.5252
61.7841 5263 72.5465
61.9013 4906 70.0428
62.0185 4853 69.6635
62.1357 5090 71.3442
62.253 5432 73.7021
62.3702 5480 74.027
62.4875 5912 76.8895
62.6049 5961 77.2075
62.7222 6064 77.8717
62.8396 6339 79.6178
62.9569 6235 78.962
63.0743 6318 79.4858
63.1918 6437 80.2309
63.3092 6506 80.6598
63.4267 6288 79.2969
63.5441 6232 78.943
63.6616 6074 77.9359
63.7791 5819 76.2824
63.8966 5540 74.4312
64.0142 5449 73.8173
64.1317 5547 74.4782
64.2492 5695 75.4652
64.3668 5905 76.844
64.4843 6084 78
64.6019 6057 77.8267
64.7195 6066 77.8845
64.837 6139 78.3518
64.9546 6083 77.9936
65.0722 5788 76.0789
65.1898 5342 73.089
65.3074 5164 71.861
65.4249 4711 68.6367
65.5425 4490 67.0075
65.6601 4598 67.8086
65.7777 4926 70.1855
65.8952 5154 71.7914
66.0128 5517 74.2765
66.1304 5687 75.4122
66.2479 5848 76.4722
66.3655 6008 77.5113
66.483 6055 77.8139
66.6005 6168 78.5366
66.718 6479 80.4922
66.8355 6281 79.2528
66.953 6392 79.95
67.0705 6327 79.5424
67.1879 6062 77.8588
67.3054 5778 76.0132
67.4228 5799 76.1512
67.5402 5386 73.3894
67.6576 5285 72.698
67.7749 5243 72.4086
67.8923 5503 74.1822
68.0096 5839 76.4133
68.1269 6164 78.5111
68.2442 6059 77.8396
68.3614 6075 77.9423
68.4787 6275 79.2149
68.5958 5973 77.2852
68.713 5954 77.1622
68.8302 5430 73.6885
68.9473 5087 71.3232
69.0643 4901 70.0071
69.1814 4640 68.1175
69.2984 4698 68.542
69.4154 5001 70.7177
69.5323 5375 73.3144
69.6492 5566 74.6056
69.7661 6047 77.7625
69.8829 6296 79.3473
69.9997 6594 81.2034
70.1165 6499 80.6164
70.2332 6571 81.0617
70.3499 6575 81.0864
70.4665 6662 81.6211
70.5831 6532 80.8208
70.6996 6761 82.2253
70.8161 6689 81.7863
70.9326 6432 80.1998
71.049 6033 77.6724
71.1653 5738 75.7496
71.2817 5543 74.4513
71.3979 5198 72.0972
71.5141 5123 71.5751
71.6303 5475 73.9932
71.7464 5392 73.4302
71.8624 0 1
71.9784 0 1
72.0944 0 1
72.2102 0 1
72.3261 0 1
72.4418 0 1
72.5575 0 1
72.6732 0 1
75.1054 0 1
75.2209 0 1
75.3365 0 1
75.4521 0 1
75.5678 0 1
75.6835 0 1
75.7993 0 1
75.9151 0 1
76.031 0 1
76.147 5698 75.4851
76.263 5868 76.6029
76.3791 5600 74.8331
76.4952 5319 72.9315
76.6113 5469 73.9527
76.7276 5573 74.6525
76.8438 6149 78.4156
76.9601 6443 80.2683
77.0765 6459 80.3679
77.1929 6639 81.4801
77.3093 6649 81.5414
77.4258 6421 80.1311
77.5423 6000 77.4597
77.6589 5544 74.458
77.7755 5215 72.215
77.8921 4736 68.8186
78.0088 4621 67.9779
78.1256 4519 67.2235
78.2423 4750 68.9202
78.3591 5225 72.2842
78.4759 5625 75
78.5928 5855 76.518
78.7097 6084 78
78.8266 6138 78.3454
78.9436 6776 82.3165
79.0606 6587 81.1603
79.1776 6733 82.0549
79.2946 6671 81.6762
79.4117 6690 81.7924
79.5288 6706 81.8902
79.6459 6620 81.3634
79.7631 6412 80.075
79.8802 6185 78.6448
79.9974 5993 77.4145
80.1147 5393 73.437
80.2319 5371 73.2871
80.3491 5728 75.6836
80.4664 6265 79.1518
80.5837 6297 79.3536
80.701 6469 80.4301
80.8183 6572 81.0679
80.9357 6446 80.287
81.053 6463 80.3928
81.1704 6249 79.0506
81.2877 5777 76.0066
81.4051 5425 73.6546
81.5225 5037 70.9718
81.6399 4727 68.7532
81.7573 4672 68.352
81.8747 4727 68.7532
81.9922 5102 71.4283
82.1096 5595 74.7997
82.227 5928 76.9935
82.3444 6167 78.5302
82.4619 6373 79.8311
82.5793 6672 81.6823
82.6967 6420 80.1249
82.8142 6829 82.6378
82.9316 6716 81.9512
83.049 6817 82.5651
83.1664 6706 81.8902
83.2838 6681 81.7374
83.4012 6458 80.3617
83.5186 6157 78.4666
83.636 5804 76.184
83.7534 5354 73.171
83.8708 5207 72.1595
83.9881 5605 74.8665
84.1055 5899 76.8049
84.2228 6568 81.0432
84.3401 6503 80.6412
84.4575 6393 79.9562
84.5747 6621 81.3695
84.692 6341 79.6304
84.8093 5996 77.4338
84.9265 5487 74.0743
85.0437 5142 71.7077
85.1609 4784 69.1665
85.2781 4593 67.7717
85.3952 4659 68.2569
85.5123 5057 71.1126
85.6294 5430 73.6885
85.7465 5908 76.8635
85.8636 6159 78.4793
85.9806 6395 79.9687
86.0976 6532 80.8208
86.2145 6762 82.2314
86.3315 7003 83.6839
86.4484 7108 84.309
86.5652 7043 83.9226
86.682 7255 85.1763
86.7988 7117 84.3623
86.9156 6922 83.1986
87.0323 6909 83.1204
87.149 6268 79.1707
87.2657 6013 77.5435
87.3823 5715 75.5976
87.4988 5810 76.2234
87.6154 6330 79.5613
87.7318 6738 82.0853
87.8483 6732 82.0488
87.9647 6861 82.8312
88.081 6817 82.5651
88.1973 6778 82.3286
88.3136 6492 80.5729
88.4298 6022 77.6015
88.546 5408 73.5391
88.6621 5195 72.0763
88.7781 4769 69.0579
88.8942 0 1
89.0101 0 1
89.126 0 1
89.2419 0 1
89.3577 0 1
89.4734 0 1
89.5891 0 1
89.7047 0 1
89.8203 0 1
89.9358 0 1
92.3269 0 1
92.4424 0 1
92.558 0 1
92.6736 0 1
92.7893 0 1
92.905 0 1
93.0208 0 1
93.1366 0 1
93.2525 0 1
93.3685 0 1
93.4845 0 1
93.6005 5769 75.9539
93.7167 5417 73.6003
93.8328 5080 71.2741
93.949 4867 69.7639
94.0653 4740 68.8477
94.1816 4812 69.3686
94.2979 5039 70.9859
94.4143 5640 75.0999
94.5307 5724 75.6571
94.6472 5954 77.1622
94.7637 6220 78.867
94.8803 6565 81.0247
94.9969 6632 81.4371
95.1135 6878 82.9337
95.2302 6756 82.1949
95.3469 6865 82.8553
95.4637 7052 83.9762
95.5805 6949 83.3607
95.6973 7018 83.7735
95.8142 6706 81.8902
95.9311 6709 81.9085
96.048 6476 80.4736
96.1649 6140 78.3582
96.2819 5840 76.4199
96.3989 5714 75.591
96.516 5987 77.3757
96.633 6312 79.4481
96.7501 6808 82.5106
96.8673 6810 82.5227
96.9844 6730 82.0366
97.1016 6813 82.5409
97.2188 6354 79.712
97.336 6100 78.1025
97.4532 5725 75.6637
97.5704 5399 73.4779
97.6877 5072 71.218
97.805 4896 69.9714
97.9223 4764 69.0217
98.0396 4777 69.1158
98.1569 5451 73.8309
98.2743 5563 74.5855
98.3916 6039 77.711
98.509 6140 78.3582
98.6264 6528 80.796
98.7438 6774 82.3043
98.8612 6785 82.3711
98.9786 6731 82.0427
99.096 7020 83.7854
99.2134 6907 83.1084
99.3308 6856 82.801
99.4482 6815 82.553
99.5656 6614 81.3265
99.6831 6404 80.025
99.8005 6148 78.4092
99.9179 5705 75.5315
100.035 5639 75.0933
100.153 6044 77.7432
100.27 6492 80.5729
100.388 6569 81.0494
100.505 6543 80.8888
100.622 6602 81.2527
100.74 6474 80.4612
100.857 6238 78.981
100.975 6035 77.6853
101.092 5526 74.3371
101.209 5197 72.0902
101.327 4969 70.4911
101.444 4806 69.3253
101.561 4755 68.9565
101.679 5027 70.9013
101.796 5514 74.2563
101.913 5876 76.6551
102.03 6286 79.2843
102.148 6509 80.6784
102.265 6165 78.5175
102.382 7500 86.6025
102.499 6991 83.6122
102.616 7151 84.5636
102.733 7180 84.7349
102.851 7314 85.5219
102.968 7500 86.6025
103.085 7304 85.4634
103.202 6945 83.3367
103.319 6698 81.8413
103.436 6099 78.0961
103.552 6133 78.3135
103.669 6322 79.511
103.786 6911 83.1324
103.903 7362 85.8021
104.02 7212 84.9235
104.137 7256 85.1822
104.253 6995 83.6361
104.37 6927 83.2286
104.487 6597 81.2219
104.603 5900 76.8115
104.72 5570 74.6324
104.836 5381 73.3553
104.953 5082 71.2881
105.069 5346 73.1163
105.186 5639 75.0933
105.302 5928 76.9935
105.418 6555 80.963
105.535 6885 82.9759
105.651 7193 84.8116
105.767 7362 85.8021
105.883 7340 85.6738
105.999 7486 86.5217
106.115 0 1
106.231 0 1
106.347 0 1
106.463 0 1
106.579 0 1
106.694 0 1
106.81 0 1
106.926 0 1
107.041 0 1
107.157 0 1
109.576 0 1
109.692 0 1
109.807 0 1
109.923 0 1
110.039 0 1
110.155 0 1
110.27 0 1
110.386 0 1
110.502 0 1
110.618 5885 76.7138
110.735 6306 79.4103
110.851 6349 79.6806
110.967 6748 82.1462
111.083 6595 81.2096
111.199 6634 81.4494
111.316 6675 81.7007
111.432 6648 81.5353
111.549 6481 80.5047
111.665 6290 79.3095
111.782 6087 78.0192
111.898 5587 74.7462
112.015 5437 73.736
112.132 5618 74.9533
112.248 5881 76.6877
112.365 6048 77.7689
112.482 6418 80.1124
112.599 5941 77.0779
112.716 5960 77.201
112.832 5887 76.7268
112.949 5424 73.6478
113.066 5103 71.4353
113.183 4881 69.8642
113.3 4436 66.6033
113.417 4320 65.7267
113.534 4264 65.2993
113.652 4385 66.2193
113.769 4456 66.7533
113.886 4696 68.5274
114.003 4944 70.3136
114.12 5032 70.9366
114.238 5184 72
114.355 5299 72.7942
114.472 5472 73.973
114.589 5333 73.0274
114.707 5348 73.13
114.824 5205 72.1457
114.942 5497 74.1418
115.059 5260 72.5259
115.176 5136 71.6659
115.294 4864 69.7424
115.411 4534 67.335
115.529 4304 65.6049
115.646 4094 63.9844
115.764 4362 66.0454
115.881 4772 69.0797
115.999 4753 68.942
116.116 4688 68.469
116.234 4553 67.4759
116.351 4583 67.6979
116.469 4124 64.2184
116.586 3996 63.2139
116.704 3777 61.4573
116.821 3504 59.1946
116.939 3420 58.4808
117.056 3230 56.8331
117.174 3210 56.6569
117.291 3508 59.2284
117.409 3671 60.5888
117.526 3678 60.6465
117.644 3842 61.9839
117.761 4108 64.0937
117.879 4156 64.467
117.996 4177 64.6297
118.114 4222 64.9769
118.231 4505 67.1193
118.349 4346 65.9242
118.466 4426 66.5282
118.584 4303 65.5973
118.701 4354 65.9848
118.819 4438 66.6183
118.936 4195 64.7688
119.053 3891 62.3779
119.171 3826 61.8547
119.288 3959 62.9206
119.405 4089 63.9453
119.523 4364 66.0606
119.64 4362 66.0454
119.757 4471 66.8655
119.875 4406 66.3777
119.992 4369 66.0984
120.109 4213 64.9076
120.226 4071 63.8044
120.343 3862 62.145
120.46 3750 61.2372
120.578 3416 58.4466
120.695 3491 59.0847
120.812 3629 60.2412
120.929 3627 60.2246
121.046 3816 61.7738
121.163 4003 63.2693
121.279 4098 64.0156
121.396 4382 66.1967
121.513 4588 67.7348
121.63 4753 68.942
121.747 4745 68.884
121.863 4926 70.1855
121.98 4943 70.3065
122.097 5094 71.3723
122.213 5171 71.9097
122.33 5193 72.0625
122.446 5067 71.1829
122.563 5075 71.239
122.679 4956 70.3989
122.795 4786 69.1809
122.912 4590 67.7495
123.028 4553 67.4759
123.144 4857 69.6922
123.26 4873 69.8069
123.377 0 1
123.493 0 1
123.609 0 1
123.725 0 1
123.84 0 1
123.956 0 1
124.072 0 1
124.188 0 1
124.303 0 1
124.419 0 1
126.852 0 1
126.968 0 1
127.083 0 1
127.199 0 1
127.315 0 1
127.431 0 1
127.547 0 1
127.663 0 1
127.779 0 1
127.895 0 1
128.011 0 1
128.127 0 1
128.243 0 1
128.359 5442 73.7699
128.476 5739 75.7562
128.592 6077 77.9551
128.708 5949 77.1298
128.825 6079 77.9679
128.941 6103 78.1217
129.058 6222 78.8797
129.174 5775 75.9934
129.291 5552 74.5117
129.408 5271 72.6017
129.524 5015 70.8167
129.641 4842 69.5845
129.758 4690 68.4836
129.875 4581 67.6831
129.992 4684 68.4398
130.108 4971 70.5053
130.225 4998 70.6965
130.342 5104 71.4423
130.459 5375 73.3144
130.576 5263 72.5465
130.693 5429 73.6817
130.81 5520 74.2967
130.928 5451 73.8309
131.045 5445 73.7902
131.162 5538 74.4177
131.279 5674 75.326
131.396 5525 74.3303
131.513 5395 73.4507
131.631 5228 72.3049
131.748 4859 69.7065
131.865 4776 69.1086
131.983 4982 70.5833
132.1 5254 72.4845
132.217 5516 74.2698
132.335 5440 73.7564
132.452 5385 73.3826
132.57 5326 72.9794
132.687 4983 70.5904
132.804 5029 70.9154
132.922 4675 68.374
133.039 4403 66.3551
133.157 4227 65.0154
133.274 4115 64.1483
133.392 4172 64.591
133.509 3996 63.2139
133.627 4150 64.4205
133.744 4269 65.3376
133.862 4228 65.0231
133.979 4519 67.2235
134.097 4344 65.909
134.214 4439 66.6258
134.332 4390 66.2571
134.449 4473 66.8805
134.567 4502 67.0969
134.684 4599 67.8159
134.802 4597 67.8012
134.919 4460 66.7832
135.037 4356 66
135.154 4305 65.6125
135.272 4128 64.2495
135.389 3908 62.514
135.507 3804 61.6766
135.624 4069 63.7887
135.742 4191 64.7379
135.859 4208 64.8691
135.977 4097 64.0078
136.094 4131 64.2729
136.211 3923 62.6339
136.329 3887 62.3458
136.446 3643 60.3573
136.564 3465 58.8643
136.681 3255 57.0526
136.798 3290 57.3585
136.915 3217 56.7186
137.033 3141 56.0446
137.15 3189 56.4712
137.267 3263 57.1227
137.384 3364 58
137.502 3515 59.2874
137.619 3426 58.532
137.736 3553 59.607
137.853 3543 59.5231
137.97 3627 60.2246
138.087 3716 60.959
138.204 3823 61.8304
138.321 3840 61.9677
138.438 3889 62.3618
138.555 4077 63.8514
138.672 3980 63.0872
138.788 4008 63.3088
138.905 3804 61.6766
139.022 3777 61.4573
139.139 3823 61.8304
139.255 4172 64.591
139.372 4131 64.2729
139.488 4322 65.7419
139.605 4408 66.3928
139.721 4561 67.5352
139.838 4461 66.7907
139.954 4441 66.6408
140.071 4138 64.3273
140.187 4153 64.4438
140.303 4085 63.914
140.419 3838 61.9516
140.535 3795 61.6036
140.652 3677 60.6383
140.768 0 1
140.884 0 1
141 0 1
141.115 0 1
141.231 0 1
141.347 0 1
141.463 0 1
141.578 0 1
141.694 0 1
144.104 0 1
144.219 0 1
144.335 0 1
144.45 0 1
144.566 0 1
144.682 0 1
144.798 0 1
144.914 0 1
145.03 0 1
145.146 3605 60.0417
145.262 3661 60.5062
145.378 3453 58.7622
145.494 3320 57.6194
145.61 3242 56.9386
145.726 3168 56.285
145.842 3097 55.6507
145.959 3041 55.1453
146.075 3166 56.2672
146.192 3324 57.6541
146.308 3077 55.4707
146.425 3417 58.4551
146.541 3186 56.4447
146.658 3305 57.4891
146.774 3309 57.5239
146.891 3296 57.4108
147.008 3270 57.1839
147.125 3314 57.5674
147.241 3225 56.7891
147.358 3235 56.8771
147.475 3212 56.6745
147.592 3093 55.6147
147.709 2925 54.0833
147.826 2939 54.2125
147.943 2851 53.3948
148.06 3195 56.5243
148.177 3030 55.0454
148.294 3123 55.8838
148.411 3056 55.2811
148.528 3045 55.1815
148.645 3098 55.6597
148.762 2919 54.0278
148.88 2791 52.8299
148.997 2799 52.9056
149.114 2464 49.6387
149.231 2583 50.8232
149.349 2448 49.4773
149.466 2415 49.1426
149.583 2369 48.6724
149.701 2498 49.98
149.818 2532 50.319
149.935 2563 50.6261
150.053 2614 51.1273
150.17 2660 51.5752
150.287 2722 52.1728
150.405 2700 51.9615
150.522 2773 52.6593
150.64 2806 52.9717
150.757 2762 52.5547
150.875 2832 53.2165
150.992 2842 53.3104
151.11 2876 53.6284
151.227 2721 52.1632
151.344 2766 52.5928
151.462 2744 52.3832
151.579 2824 53.1413
151.697 2919 54.0278
151.814 3010 54.8635
151.932 2975 54.5436
152.049 3025 55
152.167 3034 55.0818
152.284 3006 54.827
152.402 2930 54.1295
152.519 2890 53.7587
152.636 2850 53.3854
152.754 2744 52.3832
152.871 2752 52.4595
152.989 2622 51.2055
153.106 2702 51.9808
153.223 2732 52.2685
153.341 2765 52.5833
153.458 2775 52.6783
153.575 2766 52.5928
153.693 2959 54.3967
153.81 2957 54.3783
153.927 2989 54.6717
154.044 3206 56.6216
154.162 3161 56.2228
154.279 3274 57.2189
154.396 3417 58.4551
154.513 3431 58.5747
154.63 3519 59.3212
154.747 3393 58.2495
154.864 3444 58.6856
154.981 3421 58.4893
155.098 3316 57.5847
155.215 3520 59.3296
155.332 3674 60.6135
155.449 3616 60.1332
155.566 3726 61.041
155.683 3732 61.0901
155.8 3728 61.0574
155.917 3824 61.8385
156.033 3585 59.8749
156.15 0 1
156.267 0 1
156.383 0 1
156.5 0 1
156.617 0 1
156.733 0 1
156.85 0 1
156.966 0 1
157.082 0 1
157.199 0 1
157.315 0 1
157.431 0 1
157.547 0 1
157.664 0 1
157.78 0 1
157.896 0 1
158.012 0 1
158.128 0 1
158.244 0 1
158.359 0 1
158.475 0 1
158.591 0 1
158.706 0 1
