
6.15755 0 1
6.2731 0 1
6.3887 0 1
6.50437 0 1
6.62009 0 1
6.73587 0 1
6.8517 0 1
6.96759 0 1
7.08353 0 1
7.19952 0 1
7.31557 0 1
7.43166 0 1
7.54781 0 1
7.664 0 1
7.78024 0 1
7.89653 0 1
8.01286 0 1
8.12924 0 1
8.24567 0 1
8.36213 0 1
8.47864 0 1
8.59519 0 1
8.71178 0 1
8.82841 0 1
8.94508 0 1
9.06179 0 1
9.17853 0 1
9.29531 0 1
9.41212 0 1
9.52897 0 1
9.64584 0 1
9.76276 0 1
9.8797 0 1
9.99667 0 1
10.1137 0 1
10.2307 0 1
10.3478 0 1
10.4648 0 1
10.5819 0 1
10.6991 0 1
10.8162 0 1
10.9334 0 1
11.0506 0 1
11.1678 0 1
11.285 0 1
11.4023 0 1
11.5196 0 1
11.6369 0 1
11.7542 0 1
11.8715 0 1
11.9888 0 1
12.1062 0 1
12.2235 0 1
12.3409 0 1
12.4582 0 1
12.5756 0 1
12.693 0 1
12.8104 0 1
12.9278 0 1
13.0452 0 1
13.1626 0 1
13.28 0 1
13.3974 0 1
13.5149 0 1
13.6323 0 1
13.7497 0 1
13.8671 0 1
13.9845 0 1
14.1019 0 1
14.2193 0 1
14.3367 0 1
14.4541 0 1
14.5714 0 1
14.6888 0 1
14.8062 0 1
14.9235 0 1
15.0408 0 0
15.1581 0 0
15.2755 0 0
15.3927 0 0
15.51 0 0
15.6273 0 0
15.7445 0 0
15.8617 0 0
15.9789 0 0
16.0961 0 0
16.2132 0 0
16.3304 0 0
16.4475 0 0
16.5646 0 0
16.6816 0 0
16.7986 0 0
16.9156 0 0
17.0326 0 0
17.1496 0 0
17.2665 0 0
17.3833 0 0
17.5002 0 0
17.617 0 0
17.7338 0 0
17.8505 0 0
17.9672 0 0
18.0839 0 0
18.2005 0 0
18.3171 0 0
18.4337 0 0
18.5502 0 0
18.6666 0 0
18.7831 0 0
18.8994 0 0
19.0158 0 0
19.1321 0 0
19.2483 0 0
19.3645 0 0
19.4806 0 0
19.5967 0 0
19.7128 0 0
19.8288 0 0
19.9447 0 0
20.0606 0 1
20.1764 0 1
20.2922 0 1
20.4079 0 1
20.5236 0 1
20.6392 0 1
20.7548 0 1
20.8702 0 1
23.3078 0 1
23.4233 0 1
23.539 0 1
23.6547 0 1
23.7704 0 1
23.8862 0 1
24.0021 0 1
24.118 0 1
24.234 0 1
24.35 0 1
24.4661 12373 111.234
24.5822 12367 111.207
24.6984 12582 112.17
24.8146 12309 110.946
24.9309 12203 110.467
25.0472 12136 110.164
25.1636 11788 108.573
25.28 11958 109.353
25.3965 12068 109.854
25.513 12257 110.711
25.6296 12726 112.81
25.7462 13110 114.499
25.8628 13355 115.564
25.9795 13536 116.344
26.0962 13677 116.949
26.213 13807 117.503
26.3298 13419 115.84
26.4466 13488 116.138
26.5635 13464 116.034
26.6804 12992 113.982
26.7973 12832 113.278
26.9143 12844 113.331
27.0313 13233 115.035
27.1483 13703 117.06
27.2653 13785 117.41
27.3824 14063 118.588
27.4996 14109 118.781
27.6167 13936 118.051
27.7339 13789 117.427
27.8511 13489 116.142
27.9683 13391 115.719
28.0855 13068 114.315
28.2028 12869 113.442
28.3201 12664 112.534
28.4374 12675 112.583
28.5547 12205 110.476
28.6721 11760 108.444
28.7894 11739 108.347
28.9068 11771 108.494
29.0242 11720 108.259
29.1416 11839 108.807
29.259 11988 109.49
29.3764 12354 111.149
29.4939 12459 111.62
29.6113 12865 113.424
29.7288 13127 114.573
29.8463 13136 114.612
29.9638 13068 114.315
30.0812 12906 113.605
30.1987 12678 112.597
30.3162 12395 111.333
30.4337 12160 110.272
30.5512 12634 112.401
30.6687 13125 114.564
30.7862 13191 114.852
30.9037 13850 117.686
31.0212 13912 117.949
31.1387 13846 117.669
31.2562 13461 116.022
31.3737 13692 117.013
31.4912 13349 115.538
31.6087 13269 115.191
31.7262 13121 114.547
31.8436 12858 113.393
31.9611 12748 112.907
32.0785 12432 111.499
32.1959 11942 109.279
32.3134 11626 107.824
32.4308 11673 108.042
32.5482 11742 108.361
32.6655 11765 108.467
32.7829 11778 108.526
32.9002 12314 110.968
33.0176 12593 112.219
33.1349 12588 112.196
33.2522 12599 112.245
33.3694 13205 114.913
33.4867 12960 113.842
33.6039 13097 114.442
33.7211 12817 113.212
33.8383 12710 112.739
33.9554 12282 110.824
34.0725 12171 110.322
34.1896 12446 111.562
34.3067 12891 113.539
34.4237 13194 114.865
34.5407 13869 117.767
34.6577 13763 117.316
34.7746 13964 118.169
34.8915 13661 116.88
35.0084 13525 116.297
35.1252 13319 115.408
35.242 13528 116.31
35.3587 13402 115.767
35.4755 12800 113.137
35.5921 12921 113.671
35.7088 12502 111.812
35.8254 12165 110.295
35.9419 12086 109.936
36.0584 11383 106.691
36.1749 11581 107.615
36.2913 11361 106.588
36.4077 11865 108.927
36.524 11577 107.596
36.6403 12027 109.668
36.7565 12403 111.369
36.8727 12691 112.654
36.9889 12883 113.503
37.1049 12683 112.619
37.221 0 1
37.3369 0 1
37.4529 0 1
37.5687 0 1
37.6845 0 1
37.8003 0 1
37.916 0 1
38.0316 0 1
38.1472 0 1
40.5851 0 1
40.7008 0 1
40.8164 0 1
40.9322 0 1
41.048 0 1
41.1639 0 1
41.2798 0 1
41.3958 0 1
41.5118 0 1
41.6279 0 1
41.744 9624 98.102
41.8602 9990 99.95
41.9765 10552 102.723
42.0928 10839 104.111
42.2091 11292 106.264
42.3255 11198 105.821
42.4419 11344 106.508
42.5584 11103 105.371
42.675 10595 102.932
42.7915 10606 102.985
42.9081 10659 103.242
43.0248 10751 103.687
43.1415 11280 106.207
43.2582 11587 107.643
43.375 11858 108.894
43.4918 12043 109.741
43.6087 11922 109.188
43.7256 11974 109.426
43.8425 11444 106.977
43.9595 11341 106.494
44.0765 11225 105.948
44.1935 11162 105.65
44.3106 10820 104.019
44.4277 10556 102.742
44.5448 10221 101.099
44.6619 9584 97.8979
44.7791 9347 96.6799
44.8963 8758 93.5842
45.0136 8953 94.6203
45.1308 8708 93.3167
45.2481 8939 94.5463
45.3654 9096 95.373
45.4827 9366 96.7781
45.6001 9312 96.4987
45.7174 9644 98.2039
45.8348 9385 96.8762
45.9522 9693 98.453
46.0697 9520 97.5705
46.1871 9113 95.462
46.3046 8794 93.7763
46.422 8687 93.2041
46.5395 8708 93.3167
46.657 9224 96.0417
46.7745 9263 96.2445
46.892 9548 97.7139
47.0096 9688 98.4276
47.1271 9609 98.0255
47.2446 9533 97.6371
47.3622 9512 97.5295
47.4797 9162 95.7183
47.5973 9201 95.9218
47.7149 8828 93.9574
47.8324 8718 93.3702
47.95 8258 90.8735
48.0675 8185 90.471
48.1851 7484 86.5101
48.3027 7287 85.3639
48.4202 6935 83.2766
48.5378 6935 83.2766
48.6554 6968 83.4745
48.7729 6970 83.4865
48.8904 7283 85.3405
49.008 7490 86.5448
49.1255 7544 86.8562
49.243 7697 87.7325
49.3605 7885 88.7975
49.478 7742 87.9886
49.5955 7751 88.0398
49.713 7745 88.0057
49.8304 7413 86.0988
49.9479 7403 86.0407
50.0653 7661 87.5271
50.1827 8192 90.5097
50.3001 8564 92.5419
50.4175 8932 94.5093
50.5348 9354 96.7161
50.6521 9553 97.7394
50.7694 9635 98.158
50.8867 9921 99.6042
51.004 10143 100.712
51.1212 10206 101.025
51.2384 10426 102.108
51.3556 10311 101.543
51.4727 9833 99.1615
51.5899 9887 99.4334
51.707 9464 97.2831
51.824 9313 96.5039
51.9411 9137 95.5877
52.0581 9141 95.6086
52.175 9184 95.8332
52.2919 9486 97.3961
52.4088 9913 99.564
52.5257 10431 102.132
52.6425 10627 103.087
52.7593 10776 103.808
52.876 11047 105.105
52.9927 11391 106.729
53.1094 11827 108.752
53.226 11745 108.374
53.3426 11200 105.83
53.4591 10977 104.771
53.5756 11167 105.674
53.692 11791 108.586
53.8084 12381 111.27
53.9248 13163 114.73
54.0411 13628 116.739
54.1573 14028 118.44
54.2735 0 1
54.3896 0 1
54.5057 0 1
54.6217 0 1
54.7377 0 1
54.8537 0 1
54.9695 0 1
55.0853 0 1
55.2011 0 1
55.3168 0 1
55.4324 0 1
57.824 0 1
57.9396 0 1
58.0553 0 1
58.1711 0 1
58.2869 0 1
58.4028 0 1
58.5187 0 1
58.6347 0 1
58.7508 0 1
58.8669 0 1
58.983 15211 123.333
59.0992 16170 127.161
59.2155 17142 130.927
59.3318 17424 132
59.4482 17880 133.716
59.5646 18463 135.879
59.681 17907 133.817
59.7975 18105 134.555
59.9141 17249 131.335
60.0306 16743 129.395
60.1473 15994 126.467
60.2639 15408 124.129
60.3807 14680 121.161
60.4974 13697 117.034
60.6142 13289 115.278
60.731 12975 113.908
60.8479 12728 112.818
60.9648 12959 113.838
61.0818 13819 117.554
61.1987 14049 118.528
61.3158 14615 120.893
61.4328 14275 119.478
61.5499 14519 120.495
61.667 14428 120.117
61.7841 14358 119.825
61.9013 13842 117.652
62.0185 13135 114.608
62.1357 13200 114.891
62.253 13422 115.853
62.3702 14059 118.571
62.4875 14723 121.338
62.6049 15328 123.806
62.7222 15663 125.152
62.8396 16210 127.318
62.9569 16024 126.586
63.0743 16341 127.832
63.1918 16192 127.248
63.3092 15630 125.02
63.4267 14946 122.254
63.5441 14512 120.466
63.6616 13906 117.924
63.7791 13416 115.827
63.8966 12646 112.454
64.0142 11781 108.54
64.1317 11250 106.066
64.2492 10848 104.154
64.3668 10936 104.575
64.4843 11283 106.221
64.6019 12037 109.713
64.7195 12540 111.982
64.837 12775 113.027
64.9546 12767 112.991
65.0722 12976 113.912
65.1898 12967 113.873
65.3074 13203 114.904
65.4249 12341 111.09
65.5425 12056 109.8
65.6601 11951 109.321
65.7777 12314 110.968
65.8952 12763 112.973
66.0128 13589 116.572
66.1304 14479 120.329
66.2479 15121 122.967
66.3655 15619 124.976
66.483 15805 125.718
66.6005 15944 126.27
66.718 15816 125.762
66.8355 15597 124.888
66.953 15488 124.451
67.0705 14935 122.209
67.1879 14453 120.221
67.3054 13757 117.29
67.4228 13151 114.678
67.5402 12396 111.337
67.6576 11590 107.657
67.7749 11354 106.555
67.8923 11038 105.062
68.0096 11222 105.934
68.1269 11846 108.839
68.2442 12759 112.956
68.3614 13346 115.525
68.4787 13933 118.038
68.5958 13907 117.928
68.713 14135 118.891
68.8302 13966 118.178
68.9473 14134 118.887
69.0643 13595 116.598
69.1814 13043 114.206
69.2984 12958 113.833
69.4154 13046 114.219
69.5323 13758 117.295
69.6492 14933 122.201
69.7661 15645 125.08
69.8829 16964 130.246
69.9997 17392 131.879
70.1165 17447 132.087
70.2332 17514 132.34
70.3499 17745 133.21
70.4665 17328 131.636
70.5831 17077 130.679
70.6996 16571 128.728
70.8161 15486 124.443
70.9326 15117 122.951
71.049 14527 120.528
71.1653 13631 116.752
71.2817 12483 111.727
71.3979 11716 108.24
71.5141 11165 105.665
71.6303 11182 105.745
71.7464 10633 103.116
71.8624 0 1
71.9784 0 1
72.0944 0 1
72.2102 0 1
72.3261 0 1
72.4418 0 1
72.5575 0 1
72.6732 0 1
75.1054 0 1
75.2209 0 1
75.3365 0 1
75.4521 0 1
75.5678 0 1
75.6835 0 1
75.7993 0 1
75.9151 0 1
76.031 0 1
76.147 13707 117.077
76.263 14700 121.244
76.3791 14569 120.702
76.4952 13935 118.047
76.6113 13046 114.219
76.7276 12145 110.204
76.8438 11625 107.819
76.9601 11734 108.324
77.0765 12005 109.567
77.1929 12771 113.009
77.3093 14095 118.722
77.4258 14969 122.348
77.5423 14923 122.16
77.6589 15080 122.801
77.7755 14920 122.147
77.8921 14790 121.614
78.0088 14280 119.499
78.1256 13653 116.846
78.2423 12945 113.776
78.3591 12631 112.388
78.4759 12834 113.287
78.5928 13629 116.743
78.7097 14877 121.971
78.8266 15821 125.782
78.9436 17013 130.434
79.0606 17060 130.614
79.1776 17205 131.168
79.2946 17177 131.061
79.4117 17111 130.809
79.5288 17193 131.122
79.6459 16696 129.213
79.7631 15629 125.016
79.8802 15319 123.77
79.9974 14372 119.883
80.1147 13708 117.081
80.2319 12878 113.481
80.3491 11908 109.124
80.4664 11141 105.551
80.5837 11137 105.532
80.701 11191 105.788
80.8183 11788 108.573
80.9357 12844 113.331
81.053 13735 117.196
81.1704 13740 117.218
81.2877 13570 116.49
81.4051 13504 116.207
81.5225 13770 117.346
81.6399 12898 113.569
81.7573 12583 112.174
81.8747 11791 108.586
81.9922 11440 106.958
82.1096 11628 107.833
82.227 12240 110.635
82.3444 13425 115.866
82.4619 14395 119.979
82.5793 15322 123.782
82.6967 15098 122.874
82.8142 15259 123.527
82.9316 15202 123.296
83.049 15125 122.984
83.1664 14998 122.466
83.2838 14254 119.39
83.4012 13871 117.775
83.5186 13015 114.083
83.636 12449 111.575
83.7534 12126 110.118
83.8708 11336 106.471
83.9881 10441 102.181
84.1055 9910 99.549
84.2228 9602 97.9898
84.3401 10005 100.025
84.4575 10488 102.411
84.5747 11447 106.991
84.692 12332 111.05
84.8093 13036 114.175
84.9265 12659 112.512
85.0437 12726 112.81
85.1609 12607 112.281
85.2781 11808 108.665
85.3952 11435 106.935
85.5123 10955 104.666
85.6294 11016 104.957
85.7465 11705 108.19
85.8636 12799 113.133
85.9806 13889 117.852
86.0976 14831 121.783
86.2145 15748 125.491
86.3315 16024 126.586
86.4484 16845 129.788
86.5652 16787 129.565
86.682 16566 128.709
86.7988 16406 128.086
86.9156 15993 126.463
87.0323 15587 124.848
87.149 15055 122.699
87.2657 14332 119.716
87.3823 13854 117.703
87.4988 12942 113.763
87.6154 11919 109.174
87.7318 11759 108.439
87.8483 12124 110.109
87.9647 12677 112.592
88.081 14089 118.697
88.1973 14968 122.344
88.3136 15534 124.635
88.4298 15605 124.92
88.546 15465 124.358
88.6621 15347 123.883
88.7781 14958 122.303
88.8942 0 1
89.0101 0 1
89.126 0 1
89.2419 0 1
89.3577 0 1
89.4734 0 1
89.5891 0 1
89.7047 0 1
89.8203 0 1
89.9358 0 1
92.3269 0 1
92.4424 0 1
92.558 0 1
92.6736 0 1
92.7893 0 1
92.905 0 1
93.0208 0 1
93.1366 0 1
93.2525 0 1
93.3685 0 1
93.4845 0 1
93.6005 14408 120.033
93.7167 15180 123.207
93.8328 15548 124.692
93.949 15440 124.258
94.0653 15201 123.292
94.1816 15068 122.752
94.2979 14455 120.229
94.4143 14053 118.545
94.5307 13461 116.022
94.6472 13516 116.258
94.7637 13680 116.962
94.8803 14291 119.545
94.9969 15678 125.212
95.1135 16785 129.557
95.2302 17617 132.729
95.3469 17888 133.746
95.4637 18446 135.816
95.5805 18793 137.088
95.6973 18881 137.408
95.8142 18902 137.485
95.9311 18367 135.525
96.048 17759 133.263
96.1649 17235 131.282
96.2819 16623 128.93
96.3989 15923 126.186
96.516 15104 122.898
96.633 14065 118.596
96.7501 13267 115.182
96.8673 12516 111.875
96.9844 12878 113.481
97.1016 13214 114.952
97.2188 14250 119.373
97.336 15134 123.02
97.4532 15845 125.877
97.5704 15872 125.984
97.6877 15794 125.674
97.805 14967 122.34
97.9223 14534 120.557
98.0396 14015 118.385
98.1569 13433 115.901
98.2743 13067 114.311
98.3916 13191 114.852
98.509 13925 118.004
98.6264 14935 122.209
98.7438 16208 127.311
98.8612 17402 131.917
98.9786 17892 133.761
99.096 18559 136.231
99.2134 18829 137.219
99.3308 19003 137.851
99.4482 18849 137.292
99.5656 18255 135.111
99.6831 17655 132.872
99.8005 17138 130.912
99.9179 16750 129.422
100.035 15821 125.782
100.153 15213 123.341
100.27 14054 118.55
100.388 13232 115.03
100.505 13181 114.809
100.622 13539 116.357
100.74 14202 119.172
100.857 15266 123.556
100.975 16395 128.043
101.092 16325 127.769
101.209 16220 127.358
101.327 15927 126.202
101.444 15664 125.156
101.561 15047 122.666
101.679 14467 120.279
101.796 14094 118.718
101.913 14220 119.248
102.03 14682 121.169
102.148 15952 126.301
102.265 18070 134.425
102.382 17368 131.788
102.499 19169 138.452
102.616 19715 140.41
102.733 20158 141.979
102.851 20410 142.864
102.968 20541 143.321
103.085 20135 141.898
103.202 19662 140.221
103.319 18955 137.677
103.436 18579 136.305
103.552 17872 133.686
103.669 16539 128.604
103.786 15579 124.816
103.903 14537 120.569
104.02 14336 119.733
104.137 14948 122.262
104.253 16001 126.495
104.37 16700 129.228
104.487 17904 133.806
104.603 17968 134.045
104.72 17927 133.892
104.836 17657 132.88
104.953 17340 131.681
105.069 16527 128.557
105.186 16013 126.542
105.302 15658 125.132
105.418 15503 124.511
105.535 16768 129.491
105.651 17826 133.514
105.767 19608 140.029
105.883 21016 144.969
105.999 21737 147.435
106.115 0 1
106.231 0 1
106.347 0 1
106.463 0 1
106.579 0 1
106.694 0 1
106.81 0 1
106.926 0 1
107.041 0 1
107.157 0 1
109.576 0 1
109.692 0 1
109.807 0 1
109.923 0 1
110.039 0 1
110.155 0 1
110.27 0 1
110.386 0 1
110.502 0 1
110.618 16131 127.008
110.735 18185 134.852
110.851 19551 139.825
110.967 20595 143.51
111.083 21105 145.276
111.199 21570 146.867
111.316 21752 147.486
111.432 21984 148.27
111.549 21952 148.162
111.665 21235 145.722
111.782 20694 143.854
111.898 20019 141.489
112.015 19161 138.423
112.132 18637 136.517
112.248 17554 132.492
112.365 16115 126.945
112.482 15706 125.324
112.599 15503 124.511
112.716 15999 126.487
112.832 16789 129.572
112.949 17947 133.966
113.066 18267 135.155
113.183 17977 134.078
113.3 17628 132.77
113.417 17447 132.087
113.534 17363 131.769
113.652 16503 128.464
113.769 15949 126.289
113.886 15586 124.844
114.003 15494 124.475
114.12 16687 129.178
114.238 18405 135.665
114.355 19584 139.943
114.472 21655 147.156
114.589 20200 142.127
114.707 21439 146.421
114.824 21968 148.216
114.942 22077 148.583
115.059 22175 148.913
115.176 21778 147.574
115.294 21411 146.325
115.411 20719 143.941
115.529 19851 140.894
115.646 19271 138.82
115.764 18525 136.107
115.881 17509 132.322
115.999 16565 128.705
116.116 16116 126.949
116.234 16596 128.825
116.351 17244 131.316
116.469 18488 135.971
116.586 18881 137.408
116.704 18606 136.404
116.821 18564 136.25
116.939 18515 136.07
117.056 18239 135.052
117.174 17759 133.263
117.291 17206 131.172
117.409 16770 129.499
117.526 16733 129.356
117.644 17034 130.514
117.761 18384 135.588
117.879 19853 140.901
117.996 20798 144.215
118.114 21574 146.881
118.231 22365 149.549
118.349 22482 149.94
118.466 22686 150.619
118.584 22482 149.94
118.701 22646 150.486
118.819 22137 148.785
118.936 21477 146.55
119.053 20986 144.865
119.171 20549 143.349
119.288 19786 140.663
119.405 18896 137.463
119.523 17880 133.716
119.64 16753 129.433
119.757 16860 129.846
119.875 17172 131.042
119.992 17942 133.948
120.109 18430 135.757
120.226 19070 138.094
120.343 19057 138.047
120.46 18680 136.675
120.578 18546 136.184
120.695 18546 136.184
120.812 18162 134.766
120.929 17642 132.823
121.046 17124 130.859
121.163 17085 130.71
121.279 17359 131.754
121.396 18206 134.93
121.513 19553 139.832
121.63 20640 143.666
121.747 21802 147.655
121.863 21875 147.902
121.98 22146 148.815
122.097 22698 150.659
122.213 22439 149.797
122.33 22612 150.373
122.446 22241 149.134
122.563 21457 146.482
122.679 21081 145.193
122.795 20711 143.913
122.912 20218 142.19
123.028 19263 138.791
123.144 18463 135.879
123.26 17423 131.996
123.377 0 1
123.493 0 1
123.609 0 1
123.725 0 1
123.84 0 1
123.956 0 1
124.072 0 1
124.188 0 1
124.303 0 1
124.419 0 1
126.852 0 1
126.968 0 1
127.083 0 1
127.199 0 1
127.315 0 1
127.431 0 1
127.547 0 1
127.663 0 1
127.779 0 1
127.895 0 1
128.011 0 1
128.127 0 1
128.243 0 1
128.359 20788 144.18
128.476 19843 140.865
128.592 19076 138.116
128.708 18994 137.819
128.825 19702 140.364
128.941 20322 142.555
129.058 21143 145.406
129.174 21298 145.938
129.291 21224 145.685
129.408 20999 144.91
129.524 21012 144.955
129.641 20499 143.175
129.758 19936 141.195
129.875 19383 139.223
129.992 19045 138.004
130.108 19357 139.129
130.225 19091 138.17
130.342 20245 142.285
130.459 21286 145.897
130.576 22800 150.997
130.693 22956 151.512
130.81 23386 152.925
130.928 23700 153.948
131.045 24156 155.422
131.162 24373 156.119
131.279 24758 157.347
131.396 24505 156.541
131.513 24324 155.962
131.631 23887 154.554
131.748 23551 153.463
131.865 22548 150.16
131.983 21644 147.119
132.1 20977 144.834
132.217 20745 144.031
132.335 20952 144.748
132.452 21901 147.99
132.57 22683 150.609
132.687 22555 150.183
132.804 23876 154.519
132.922 23184 152.263
133.039 23133 152.095
133.157 22841 151.132
133.274 22113 148.704
133.392 21644 147.119
133.509 21241 145.743
133.627 20691 143.844
133.744 20818 144.284
133.862 21538 146.758
133.979 22781 150.934
134.097 23405 152.987
134.214 24406 156.224
134.332 24445 156.349
134.449 25020 158.177
134.567 25464 159.574
134.684 25527 159.772
134.802 25347 159.207
134.919 25808 160.649
135.037 25459 159.559
135.154 25145 158.572
135.272 24687 157.121
135.389 24360 156.077
135.507 23451 153.137
135.624 21856 147.838
135.742 21207 145.626
135.859 21602 146.976
135.977 22446 149.82
136.094 23209 152.345
136.211 24036 155.035
136.329 23928 154.687
136.446 23951 154.761
136.564 23812 154.311
136.681 23492 153.271
136.798 23111 152.023
136.915 22271 149.235
137.033 21603 146.98
137.15 21497 146.619
137.267 20956 144.762
137.384 21033 145.028
137.502 21779 147.577
137.619 22657 150.522
137.736 23768 154.169
137.853 23648 153.779
137.97 24846 157.626
138.087 24819 157.54
138.204 25085 158.382
138.321 25751 160.471
138.438 25571 159.909
138.555 25973 161.161
138.672 25726 160.393
138.788 25915 160.981
138.905 25526 159.769
139.022 24662 157.041
139.139 23747 154.101
139.255 23306 152.663
139.372 22378 149.593
139.488 22384 149.613
139.605 23326 152.729
139.721 23875 154.515
139.838 24808 157.506
139.954 24574 156.761
140.071 24177 155.49
140.187 24809 157.509
140.303 24173 155.477
140.419 23389 152.935
140.535 22884 151.275
140.652 22177 148.919
140.768 0 1
140.884 0 1
141 0 1
141.115 0 1
141.231 0 1
141.347 0 1
141.463 0 1
141.578 0 1
141.694 0 1
144.104 0 1
144.219 0 1
144.335 0 1
144.45 0 1
144.566 0 1
144.682 0 1
144.798 0 1
144.914 0 1
145.03 0 1
145.146 54495 233.442
145.262 56566 237.836
145.378 57307 239.389
145.494 56344 237.369
145.61 55132 234.802
145.726 54350 233.131
145.842 53900 232.164
145.959 53725 231.787
146.075 54021 232.424
146.192 57511 239.815
146.308 60864 246.706
146.425 62840 250.679
146.541 64282 253.539
146.658 66017 256.938
146.774 67591 259.983
146.891 68457 261.643
147.008 69933 264.448
147.125 71805 267.965
147.241 71056 266.563
147.358 70387 265.305
147.475 69395 263.429
147.592 67614 260.027
147.709 65883 256.677
147.826 63579 252.149
147.943 61259 247.506
148.06 60116 245.186
148.177 63056 251.11
148.294 66568 258.008
148.411 69351 263.346
148.528 70564 265.639
148.645 70195 264.943
148.762 70364 265.262
148.88 70356 265.247
148.997 67263 259.351
149.114 68404 261.542
149.231 64319 253.612
149.349 62203 249.405
149.466 58235 241.319
149.583 57888 240.599
149.701 57366 239.512
149.818 59563 244.055
149.935 61764 248.524
150.053 62673 250.346
150.17 64028 253.038
150.287 65349 255.635
150.405 67231 259.289
150.522 67371 259.559
150.64 68445 261.62
150.757 69300 263.249
150.875 69398 263.435
150.992 68273 261.291
151.11 67637 260.071
151.227 65571 256.068
151.344 63824 252.634
151.462 60844 246.666
151.579 59175 243.259
151.697 59770 244.479
151.814 61598 248.189
151.932 65426 255.785
152.049 68303 261.348
152.167 69198 263.055
152.284 69674 263.958
152.402 69272 263.196
152.519 68162 261.079
152.636 66673 258.211
152.754 63843 252.672
152.871 62045 249.088
152.989 59861 244.665
153.106 57626 240.054
153.223 56347 237.375
153.341 57583 239.965
153.458 58725 242.332
153.575 60334 245.63
153.693 61697 248.389
153.81 63290 251.575
153.927 64357 253.687
154.044 65881 256.673
154.162 66769 258.397
154.279 67796 260.377
154.396 69211 263.08
154.513 69001 262.68
154.63 68610 261.935
154.747 67984 260.737
154.864 66317 257.521
154.981 64447 253.864
155.098 62243 249.485
155.215 60490 245.947
155.332 60780 246.536
155.449 62768 250.535
155.566 66393 257.668
155.683 67846 260.473
155.8 68311 261.364
155.917 68376 261.488
156.033 68115 260.989
156.15 0 1
156.267 0 1
156.383 0 1
156.5 0 1
156.617 0 1
156.733 0 1
156.85 0 1
156.966 0 1
157.082 0 1
157.199 0 1
157.315 0 1
157.431 0 1
157.547 0 1
157.664 0 1
157.78 0 1
157.896 0 1
158.012 0 1
158.128 0 1
158.244 0 1
158.359 0 1
158.475 0 1
158.591 0 1
158.706 0 1
