
6.15755 0 1
6.2731 0 1
6.3887 0 1
6.50437 0 1
6.62009 0 1
6.73587 0 1
6.8517 0 1
6.96759 0 1
7.08353 0 1
7.19952 0 1
7.31557 0 1
7.43166 0 1
7.54781 0 1
7.664 0 1
7.78024 0 1
7.89653 0 1
8.01286 0 1
8.12924 0 1
8.24567 0 1
8.36213 0 1
8.47864 0 1
8.59519 0 1
8.71178 0 1
8.82841 0 1
8.94508 0 1
9.06179 0 1
9.17853 0 1
9.29531 0 1
9.41212 0 1
9.52897 0 1
9.64584 0 1
9.76276 0 1
9.8797 0 1
9.99667 0 1
10.1137 0 1
10.2307 0 1
10.3478 0 1
10.4648 0 1
10.5819 0 1
10.6991 0 1
10.8162 0 1
10.9334 0 1
11.0506 0 1
11.1678 0 1
11.285 0 1
11.4023 0 1
11.5196 0 1
11.6369 0 1
11.7542 0 1
11.8715 0 1
11.9888 0 1
12.1062 0 1
12.2235 0 1
12.3409 0 1
12.4582 0 1
12.5756 0 1
12.693 0 1
12.8104 0 1
12.9278 0 1
13.0452 0 1
13.1626 0 1
13.28 0 1
13.3974 0 1
13.5149 0 1
13.6323 0 1
13.7497 0 1
13.8671 0 1
13.9845 0 1
14.1019 0 1
14.2193 0 1
14.3367 0 1
14.4541 0 1
14.5714 0 1
14.6888 0 1
14.8062 0 1
14.9235 0 1
15.0408 0 0
15.1581 0 0
15.2755 0 0
15.3927 0 0
15.51 0 0
15.6273 0 0
15.7445 0 0
15.8617 0 0
15.9789 0 0
16.0961 0 0
16.2132 0 0
16.3304 0 0
16.4475 0 0
16.5646 0 0
16.6816 0 0
16.7986 0 0
16.9156 0 0
17.0326 0 0
17.1496 0 0
17.2665 0 0
17.3833 0 0
17.5002 0 0
17.617 0 0
17.7338 0 0
17.8505 0 0
17.9672 0 0
18.0839 0 0
18.2005 0 0
18.3171 0 0
18.4337 0 0
18.5502 0 0
18.6666 0 0
18.7831 0 0
18.8994 0 0
19.0158 0 0
19.1321 0 0
19.2483 0 0
19.3645 0 0
19.4806 0 0
19.5967 0 0
19.7128 0 0
19.8288 0 0
19.9447 0 0
20.0606 0 1
20.1764 0 1
20.2922 0 1
20.4079 0 1
20.5236 0 1
20.6392 0 1
20.7548 0 1
20.8702 0 1
23.3078 0 1
23.4233 0 1
23.539 0 1
23.6547 0 1
23.7704 0 1
23.8862 0 1
24.0021 0 1
24.118 0 1
24.234 0 1
24.35 0 1
24.4661 807 28.4077
24.5822 842 29.0172
24.6984 882 29.6985
24.8146 836 28.9137
24.9309 840 28.9828
25.0472 902 30.0333
25.1636 894 29.8998
25.28 921 30.348
25.3965 903 30.05
25.513 984 31.3688
25.6296 951 30.8383
25.7462 892 29.8664
25.8628 926 30.4302
25.9795 916 30.2655
26.0962 978 31.273
26.213 931 30.5123
26.3298 943 30.7083
26.4466 870 29.4958
26.5635 953 30.8707
26.6804 865 29.4109
26.7973 837 28.931
26.9143 833 28.8617
27.0313 839 28.9655
27.1483 789 28.0891
27.2653 790 28.1069
27.3824 871 29.5127
27.4996 789 28.0891
27.6167 845 29.0689
27.7339 761 27.5862
27.8511 843 29.0345
27.9683 805 28.3725
28.0855 737 27.1477
28.2028 818 28.6007
28.3201 736 27.1293
28.4374 798 28.2489
28.5547 816 28.5657
28.6721 836 28.9137
28.7894 841 29
28.9068 846 29.0861
29.0242 859 29.3087
29.1416 832 28.8444
29.259 921 30.348
29.3764 879 29.6479
29.4939 847 29.1033
29.6113 856 29.2575
29.7288 830 28.8097
29.8463 837 28.931
29.9638 864 29.3939
30.0812 893 29.8831
30.1987 870 29.4958
30.3162 773 27.8029
30.4337 759 27.55
30.5512 764 27.6405
30.6687 713 26.7021
30.7862 782 27.9643
30.9037 762 27.6043
31.0212 798 28.2489
31.1387 794 28.178
31.2562 760 27.5681
31.3737 786 28.0357
31.4912 754 27.4591
31.6087 774 27.8209
31.7262 784 28
31.8436 802 28.3196
31.9611 792 28.1425
32.0785 827 28.7576
32.1959 823 28.688
32.3134 795 28.1957
32.4308 854 29.2233
32.5482 842 29.0172
32.6655 896 29.9333
32.7829 840 28.9828
32.9002 867 29.4449
33.0176 830 28.8097
33.1349 807 28.4077
33.2522 827 28.7576
33.3694 844 29.0517
33.4867 835 28.8964
33.6039 838 28.9482
33.7211 845 29.0689
33.8383 823 28.688
33.9554 796 28.2135
34.0725 763 27.6225
34.1896 727 26.9629
34.3067 706 26.5707
34.4237 683 26.1343
34.5407 730 27.0185
34.6577 775 27.8388
34.7746 764 27.6405
34.8915 781 27.9464
35.0084 751 27.4044
35.1252 730 27.0185
35.242 690 26.2679
35.3587 723 26.8887
35.4755 739 27.1846
35.5921 740 27.2029
35.7088 797 28.2312
35.8254 821 28.6531
35.9419 794 28.178
36.0584 821 28.6531
36.1749 809 28.4429
36.2913 843 29.0345
36.4077 843 29.0345
36.524 805 28.3725
36.6403 844 29.0517
36.7565 821 28.6531
36.8727 767 27.6948
36.9889 823 28.688
37.1049 846 29.0861
37.221 0 1
37.3369 0 1
37.4529 0 1
37.5687 0 1
37.6845 0 1
37.8003 0 1
37.916 0 1
38.0316 0 1
38.1472 0 1
40.5851 0 1
40.7008 0 1
40.8164 0 1
40.9322 0 1
41.048 0 1
41.1639 0 1
41.2798 0 1
41.3958 0 1
41.5118 0 1
41.6279 0 1
41.744 663 25.7488
41.8602 717 26.7769
41.9765 695 26.3629
42.0928 665 25.7876
42.2091 659 25.671
42.3255 673 25.9422
42.4419 686 26.1916
42.5584 713 26.7021
42.675 653 25.5539
42.7915 658 25.6515
42.9081 658 25.6515
43.0248 586 24.2074
43.1415 617 24.8395
43.2582 609 24.6779
43.375 606 24.6171
43.4918 633 25.1595
43.6087 630 25.0998
43.7256 637 25.2389
43.8425 585 24.1868
43.9595 545 23.3452
44.0765 591 24.3105
44.1935 597 24.4336
44.3106 599 24.4745
44.4277 586 24.2074
44.5448 610 24.6982
44.6619 604 24.5764
44.7791 638 25.2587
44.8963 617 24.8395
45.0136 596 24.4131
45.1308 593 24.3516
45.2481 600 24.4949
45.3654 557 23.6008
45.4827 572 23.9165
45.6001 586 24.2074
45.7174 579 24.0624
45.8348 553 23.516
45.9522 604 24.5764
46.0697 559 23.6432
46.1871 533 23.0868
46.3046 525 22.9129
46.422 539 23.2164
46.5395 515 22.6936
46.657 484 22
46.7745 450 21.2132
46.892 451 21.2368
47.0096 488 22.0907
47.1271 452 21.2603
47.2446 476 21.8174
47.3622 453 21.2838
47.4797 425 20.6155
47.5973 443 21.0476
47.7149 415 20.3715
47.8324 434 20.8327
47.95 485 22.0227
48.0675 490 22.1359
48.1851 461 21.4709
48.3027 454 21.3073
48.4202 456 21.3542
48.5378 419 20.4695
48.6554 477 21.8403
48.7729 470 21.6795
48.8904 455 21.3307
49.008 421 20.5183
49.1255 465 21.5639
49.243 453 21.2838
49.3605 465 21.5639
49.478 499 22.3383
49.5955 450 21.2132
49.713 494 22.2261
49.8304 491 22.1585
49.9479 475 21.7945
50.0653 422 20.5426
50.1827 460 21.4476
50.3001 376 19.3907
50.4175 394 19.8494
50.5348 403 20.0749
50.6521 450 21.2132
50.7694 452 21.2603
50.8867 459 21.4243
51.004 478 21.8632
51.1212 487 22.0681
51.2384 483 21.9773
51.3556 511 22.6053
51.4727 544 23.3238
51.5899 527 22.9565
51.707 554 23.5372
51.824 560 23.6643
51.9411 597 24.4336
52.0581 621 24.9199
52.175 566 23.7908
52.2919 596 24.4131
52.4088 606 24.6171
52.5257 615 24.7992
52.6425 595 24.3926
52.7593 638 25.2587
52.876 608 24.6577
52.9927 622 24.9399
53.1094 624 24.98
53.226 595 24.3926
53.3426 649 25.4755
53.4591 640 25.2982
53.5756 627 25.04
53.692 639 25.2784
53.8084 618 24.8596
53.9248 553 23.516
54.0411 505 22.4722
54.1573 568 23.8328
54.2735 0 1
54.3896 0 1
54.5057 0 1
54.6217 0 1
54.7377 0 1
54.8537 0 1
54.9695 0 1
55.0853 0 1
55.2011 0 1
55.3168 0 1
55.4324 0 1
57.824 0 1
57.9396 0 1
58.0553 0 1
58.1711 0 1
58.2869 0 1
58.4028 0 1
58.5187 0 1
58.6347 0 1
58.7508 0 1
58.8669 0 1
58.983 671 25.9037
59.0992 610 24.6982
59.2155 621 24.9199
59.3318 610 24.6982
59.4482 603 24.5561
59.5646 694 26.3439
59.681 679 26.0576
59.7975 663 25.7488
59.9141 688 26.2298
60.0306 654 25.5734
60.1473 638 25.2587
60.2639 659 25.671
60.3807 710 26.6458
60.4974 681 26.096
60.6142 661 25.7099
60.731 698 26.4197
60.8479 716 26.7582
60.9648 678 26.0384
61.0818 613 24.7588
61.1987 650 25.4951
61.3158 670 25.8844
61.4328 626 25.02
61.5499 646 25.4165
61.667 679 26.0576
61.7841 650 25.4951
61.9013 613 24.7588
62.0185 664 25.7682
62.1357 637 25.2389
62.253 644 25.3772
62.3702 655 25.593
62.4875 568 23.8328
62.6049 535 23.1301
62.7222 555 23.5584
62.8396 546 23.3666
62.9569 603 24.5561
63.0743 561 23.6854
63.1918 561 23.6854
63.3092 597 24.4336
63.4267 500 22.3607
63.5441 606 24.6171
63.6616 629 25.0799
63.7791 603 24.5561
63.8966 594 24.3721
64.0142 633 25.1595
64.1317 594 24.3721
64.2492 597 24.4336
64.3668 591 24.3105
64.4843 520 22.8035
64.6019 576 24
64.7195 581 24.1039
64.837 555 23.5584
64.9546 549 23.4307
65.0722 562 23.7065
65.1898 545 23.3452
65.3074 565 23.7697
65.4249 555 23.5584
65.5425 587 24.2281
65.6601 552 23.4947
65.7777 571 23.8956
65.8952 599 24.4745
66.0128 559 23.6432
66.1304 519 22.7816
66.2479 527 22.9565
66.3655 453 21.2838
66.483 480 21.9089
66.6005 474 21.7715
66.718 488 22.0907
66.8355 470 21.6795
66.953 531 23.0434
67.0705 550 23.4521
67.1879 509 22.561
67.3054 556 23.5797
67.4228 556 23.5797
67.5402 519 22.7816
67.6576 564 23.7487
67.7749 473 21.7486
67.8923 504 22.4499
68.0096 501 22.383
68.1269 476 21.8174
68.2442 567 23.8118
68.3614 518 22.7596
68.4787 532 23.0651
68.5958 541 23.2594
68.713 496 22.2711
68.8302 461 21.4709
68.9473 464 21.5407
69.0643 483 21.9773
69.1814 519 22.7816
69.2984 484 22
69.4154 511 22.6053
69.5323 521 22.8254
69.6492 517 22.7376
69.7661 496 22.2711
69.8829 476 21.8174
69.9997 438 20.9284
70.1165 445 21.095
70.2332 445 21.095
70.3499 478 21.8632
70.4665 444 21.0713
70.5831 467 21.6102
70.6996 468 21.6333
70.8161 509 22.561
70.9326 480 21.9089
71.049 516 22.7156
71.1653 466 21.587
71.2817 450 21.2132
71.3979 415 20.3715
71.5141 431 20.7605
71.6303 447 21.1424
71.7464 393 19.8242
71.8624 0 1
71.9784 0 1
72.0944 0 1
72.2102 0 1
72.3261 0 1
72.4418 0 1
72.5575 0 1
72.6732 0 1
75.1054 0 1
75.2209 0 1
75.3365 0 1
75.4521 0 1
75.5678 0 1
75.6835 0 1
75.7993 0 1
75.9151 0 1
76.031 0 1
76.147 321 17.9165
76.263 322 17.9444
76.3791 367 19.1572
76.4952 380 19.4936
76.6113 404 20.0998
76.7276 360 18.9737
76.8438 358 18.9209
76.9601 373 19.3132
77.0765 354 18.8149
77.1929 339 18.412
77.3093 352 18.7617
77.4258 347 18.6279
77.5423 333 18.2483
77.6589 370 19.2354
77.7755 366 19.1311
77.8921 334 18.2757
78.0088 346 18.6011
78.1256 299 17.2916
78.2423 314 17.72
78.3591 327 18.0831
78.4759 309 17.5784
78.5928 324 18
78.7097 317 17.8045
78.8266 318 17.8326
78.9436 266 16.3095
79.0606 265 16.2788
79.1776 210 14.4914
79.2946 242 15.5563
79.4117 249 15.7797
79.5288 292 17.088
79.6459 270 16.4317
79.7631 251 15.843
79.8802 255 15.9687
79.9974 246 15.6844
80.1147 237 15.3948
80.2319 240 15.4919
80.3491 231 15.1987
80.4664 227 15.0665
80.5837 232 15.2315
80.701 221 14.8661
80.8183 207 14.3875
80.9357 191 13.8203
81.053 191 13.8203
81.1704 200 14.1421
81.2877 196 14
81.4051 183 13.5277
81.5225 196 14
81.6399 181 13.4536
81.7573 170 13.0384
81.8747 164 12.8062
81.9922 174 13.1909
82.1096 163 12.7671
82.227 140 11.8322
82.3444 146 12.083
82.4619 158 12.5698
82.5793 139 11.7898
82.6967 141 11.8743
82.8142 126 11.225
82.9316 97 9.84886
83.049 125 11.1803
83.1664 125 11.1803
83.2838 123 11.0905
83.4012 135 11.619
83.5186 106 10.2956
83.636 98 9.89949
83.7534 94 9.69536
83.8708 86 9.27362
83.9881 86 9.27362
84.1055 81 9
84.2228 61 7.81025
84.3401 68 8.24621
84.4575 66 8.12404
84.5747 74 8.60233
84.692 61 7.81025
84.8093 74 8.60233
84.9265 74 8.60233
85.0437 79 8.88819
85.1609 63 7.93725
85.2781 58 7.61577
85.3952 66 8.12404
85.5123 62 7.87401
85.6294 56 7.48331
85.7465 72 8.48528
85.8636 54 7.34847
85.9806 56 7.48331
86.0976 64 8
86.2145 45 6.7082
86.3315 51 7.14143
86.4484 85 9.21954
86.5652 76 8.7178
86.682 95 9.74679
86.7988 89 9.43398
86.9156 66 8.12404
87.0323 81 9
87.149 102 10.0995
87.2657 107 10.3441
87.3823 105 10.247
87.4988 101 10.0499
87.6154 118 10.8628
87.7318 122 11.0454
87.8483 113 10.6301
87.9647 144 12
88.081 132 11.4891
88.1973 137 11.7047
88.3136 179 13.3791
88.4298 144 12
88.546 176 13.2665
88.6621 166 12.8841
88.7781 144 12
88.8942 0 1
89.0101 0 1
89.126 0 1
89.2419 0 1
89.3577 0 1
89.4734 0 1
89.5891 0 1
89.7047 0 1
89.8203 0 1
89.9358 0 1
92.3269 0 1
92.4424 0 1
92.558 0 1
92.6736 0 1
92.7893 0 1
92.905 0 1
93.0208 0 1
93.1366 0 1
93.2525 0 1
93.3685 0 1
93.4845 0 1
93.6005 255 15.9687
93.7167 263 16.2173
93.8328 247 15.7162
93.949 238 15.4272
94.0653 231 15.1987
94.1816 254 15.9374
94.2979 213 14.5945
94.4143 229 15.1327
94.5307 231 15.1987
94.6472 197 14.0357
94.7637 204 14.2829
94.8803 202 14.2127
94.9969 201 14.1774
95.1135 188 13.7113
95.2302 181 13.4536
95.3469 178 13.3417
95.4637 147 12.1244
95.5805 143 11.9583
95.6973 164 12.8062
95.8142 213 14.5945
95.9311 237 15.3948
96.048 230 15.1658
96.1649 250 15.8114
96.2819 253 15.906
96.3989 285 16.8819
96.516 254 15.9374
96.633 242 15.5563
96.7501 250 15.8114
96.8673 282 16.7929
96.9844 265 16.2788
97.1016 261 16.1555
97.2188 266 16.3095
97.336 330 18.1659
97.4532 294 17.1464
97.5704 361 19
97.6877 331 18.1934
97.805 327 18.0831
97.9223 299 17.2916
98.0396 339 18.412
98.1569 329 18.1384
98.2743 403 20.0749
98.3916 345 18.5742
98.509 363 19.0526
98.6264 387 19.6723
98.7438 389 19.7231
98.8612 342 18.4932
98.9786 331 18.1934
99.096 285 16.8819
99.2134 253 15.906
99.3308 339 18.412
99.4482 401 20.025
99.5656 422 20.5426
99.6831 465 21.5639
99.8005 417 20.4206
99.9179 477 21.8403
100.035 448 21.166
100.153 430 20.7364
100.27 438 20.9284
100.388 463 21.5174
100.505 483 21.9773
100.622 508 22.5389
100.74 485 22.0227
100.857 462 21.4942
100.975 497 22.2935
101.092 506 22.4944
101.209 534 23.1084
101.327 481 21.9317
101.444 493 22.2036
101.561 520 22.8035
101.679 513 22.6495
101.796 527 22.9565
101.913 509 22.561
102.03 473 21.7486
102.148 494 22.2261
102.265 533 23.0868
102.382 512 22.6274
102.499 531 23.0434
102.616 437 20.9045
102.733 388 19.6977
102.851 436 20.8806
102.968 534 23.1084
103.085 576 24
103.202 573 23.9374
103.319 567 23.8118
103.436 520 22.8035
103.552 574 23.9583
103.669 549 23.4307
103.786 543 23.3024
103.903 583 24.1454
104.02 595 24.3926
104.137 601 24.5153
104.253 587 24.2281
104.37 545 23.3452
104.487 561 23.6854
104.603 573 23.9374
104.72 574 23.9583
104.836 570 23.8747
104.953 548 23.4094
105.069 558 23.622
105.186 583 24.1454
105.302 560 23.6643
105.418 555 23.5584
105.535 558 23.622
105.651 550 23.4521
105.767 549 23.4307
105.883 516 22.7156
105.999 477 21.8403
106.115 0 1
106.231 0 1
106.347 0 1
106.463 0 1
106.579 0 1
106.694 0 1
106.81 0 1
106.926 0 1
107.041 0 1
107.157 0 1
109.576 0 1
109.692 0 1
109.807 0 1
109.923 0 1
110.039 0 1
110.155 0 1
110.27 0 1
110.386 0 1
110.502 0 1
110.618 453 21.2838
110.735 439 20.9523
110.851 426 20.6398
110.967 400 20
111.083 405 20.1246
111.199 340 18.4391
111.316 341 18.4662
111.432 353 18.7883
111.549 458 21.4009
111.665 409 20.2237
111.782 445 21.095
111.898 420 20.4939
112.015 441 21
112.132 380 19.4936
112.248 372 19.2873
112.365 423 20.567
112.482 386 19.6469
112.599 382 19.5448
112.716 350 18.7083
112.832 337 18.3576
112.949 335 18.303
113.066 395 19.8746
113.183 360 18.9737
113.3 342 18.4932
113.417 339 18.412
113.534 362 19.0263
113.652 372 19.2873
113.769 327 18.0831
113.886 341 18.4662
114.003 361 19
114.12 323 17.9722
114.238 322 17.9444
114.355 265 16.2788
114.472 295 17.1756
114.589 323 17.9722
114.707 284 16.8523
114.824 291 17.0587
114.942 255 15.9687
115.059 282 16.7929
115.176 335 18.303
115.294 321 17.9165
115.411 303 17.4069
115.529 295 17.1756
115.646 362 19.0263
115.764 302 17.3781
115.881 309 17.5784
115.999 288 16.9706
116.116 292 17.088
116.234 301 17.3494
116.351 297 17.2337
116.469 304 17.4356
116.586 273 16.5227
116.704 301 17.3494
116.821 312 17.6635
116.939 333 18.2483
117.056 303 17.4069
117.174 291 17.0587
117.291 291 17.0587
117.409 326 18.0555
117.526 290 17.0294
117.644 340 18.4391
117.761 310 17.6068
117.879 272 16.4924
117.996 233 15.2643
118.114 256 16
118.231 275 16.5831
118.349 311 17.6352
118.466 289 17
118.584 305 17.4642
118.701 291 17.0587
118.819 273 16.5227
118.936 340 18.4391
119.053 333 18.2483
119.171 319 17.8606
119.288 365 19.105
119.405 310 17.6068
119.523 362 19.0263
119.64 306 17.4929
119.757 346 18.6011
119.875 303 17.4069
119.992 349 18.6815
120.109 350 18.7083
120.226 351 18.735
120.343 302 17.3781
120.46 325 18.0278
120.578 304 17.4356
120.695 328 18.1108
120.812 345 18.5742
120.929 373 19.3132
121.046 317 17.8045
121.163 313 17.6918
121.279 342 18.4932
121.396 330 18.1659
121.513 273 16.5227
121.63 280 16.7332
121.747 223 14.9332
121.863 242 15.5563
121.98 236 15.3623
122.097 339 18.412
122.213 321 17.9165
122.33 328 18.1108
122.446 352 18.7617
122.563 350 18.7083
122.679 369 19.2094
122.795 356 18.868
122.912 380 19.4936
123.028 359 18.9473
123.144 354 18.8149
123.26 340 18.4391
123.377 0 1
123.493 0 1
123.609 0 1
123.725 0 1
123.84 0 1
123.956 0 1
124.072 0 1
124.188 0 1
124.303 0 1
124.419 0 1
126.852 0 1
126.968 0 1
127.083 0 1
127.199 0 1
127.315 0 1
127.431 0 1
127.547 0 1
127.663 0 1
127.779 0 1
127.895 0 1
128.011 0 1
128.127 0 1
128.243 0 1
128.359 500 22.3607
128.476 485 22.0227
128.592 437 20.9045
128.708 472 21.7256
128.825 405 20.1246
128.941 453 21.2838
129.058 446 21.1187
129.174 453 21.2838
129.291 463 21.5174
129.408 471 21.7025
129.524 477 21.8403
129.641 472 21.7256
129.758 428 20.6882
129.875 450 21.2132
129.992 460 21.4476
130.108 423 20.567
130.225 461 21.4709
130.342 399 19.975
130.459 406 20.1494
130.576 363 19.0526
130.693 308 17.5499
130.81 294 17.1464
130.928 287 16.9411
131.045 383 19.5704
131.162 517 22.7376
131.279 463 21.5174
131.396 465 21.5639
131.513 472 21.7256
131.631 472 21.7256
131.748 487 22.0681
131.865 505 22.4722
131.983 460 21.4476
132.1 524 22.891
132.217 464 21.5407
132.335 463 21.5174
132.452 526 22.9347
132.57 496 22.2711
132.687 477 21.8403
132.804 552 23.4947
132.922 512 22.6274
133.039 492 22.1811
133.157 481 21.9317
133.274 494 22.2261
133.392 471 21.7025
133.509 506 22.4944
133.627 479 21.8861
133.744 503 22.4277
133.862 466 21.587
133.979 418 20.445
134.097 434 20.8327
134.214 390 19.7484
134.332 366 19.1311
134.449 341 18.4662
134.567 424 20.5913
134.684 442 21.0238
134.802 512 22.6274
134.919 504 22.4499
135.037 537 23.1733
135.154 559 23.6432
135.272 486 22.0454
135.389 546 23.3666
135.507 567 23.8118
135.624 549 23.4307
135.742 530 23.0217
135.859 501 22.383
135.977 535 23.1301
136.094 550 23.4521
136.211 524 22.891
136.329 501 22.383
136.446 493 22.2036
136.564 495 22.2486
136.681 550 23.4521
136.798 544 23.3238
136.915 539 23.2164
137.033 577 24.0208
137.15 554 23.5372
137.267 563 23.7276
137.384 484 22
137.502 501 22.383
137.619 443 21.0476
137.736 406 20.1494
137.853 391 19.7737
137.97 408 20.199
138.087 437 20.9045
138.204 418 20.445
138.321 433 20.8087
138.438 518 22.7596
138.555 536 23.1517
138.672 536 23.1517
138.788 587 24.2281
138.905 557 23.6008
139.022 579 24.0624
139.139 539 23.2164
139.255 647 25.4362
139.372 592 24.3311
139.488 597 24.4336
139.605 630 25.0998
139.721 634 25.1794
139.838 602 24.5357
139.954 620 24.8998
140.071 616 24.8193
140.187 636 25.219
140.303 622 24.9399
140.419 550 23.4521
140.535 571 23.8956
140.652 589 24.2693
140.768 0 1
140.884 0 1
141 0 1
141.115 0 1
141.231 0 1
141.347 0 1
141.463 0 1
141.578 0 1
141.694 0 1
144.104 0 1
144.219 0 1
144.335 0 1
144.45 0 1
144.566 0 1
144.682 0 1
144.798 0 1
144.914 0 1
145.03 0 1
145.146 540 23.2379
145.262 576 24
145.378 590 24.2899
145.494 590 24.2899
145.61 591 24.3105
145.726 550 23.4521
145.842 577 24.0208
145.959 568 23.8328
146.075 495 22.2486
146.192 500 22.3607
146.308 501 22.383
146.425 451 21.2368
146.541 463 21.5174
146.658 456 21.3542
146.774 460 21.4476
146.891 490 22.1359
147.008 507 22.5167
147.125 542 23.2809
147.241 553 23.516
147.358 571 23.8956
147.475 526 22.9347
147.592 572 23.9165
147.709 569 23.8537
147.826 572 23.9165
147.943 559 23.6432
148.06 589 24.2693
148.177 550 23.4521
148.294 581 24.1039
148.411 548 23.4094
148.528 581 24.1039
148.645 534 23.1084
148.762 607 24.6374
148.88 588 24.2487
148.997 564 23.7487
149.114 568 23.8328
149.231 587 24.2281
149.349 558 23.622
149.466 535 23.1301
149.583 514 22.6716
149.701 514 22.6716
149.818 500 22.3607
149.935 501 22.383
150.053 468 21.6333
150.17 431 20.7605
150.287 477 21.8403
150.405 473 21.7486
150.522 480 21.9089
150.64 492 22.1811
150.757 526 22.9347
150.875 575 23.9792
150.992 575 23.9792
151.11 582 24.1247
151.227 578 24.0416
151.344 572 23.9165
151.462 568 23.8328
151.579 547 23.388
151.697 619 24.8797
151.814 597 24.4336
151.932 584 24.1661
152.049 598 24.454
152.167 579 24.0624
152.284 597 24.4336
152.402 597 24.4336
152.519 622 24.9399
152.636 563 23.7276
152.754 630 25.0998
152.871 601 24.5153
152.989 545 23.3452
153.106 558 23.622
153.223 522 22.8473
153.341 501 22.383
153.458 478 21.8632
153.575 509 22.561
153.693 475 21.7945
153.81 452 21.2603
153.927 509 22.561
154.044 485 22.0227
154.162 509 22.561
154.279 553 23.516
154.396 588 24.2487
154.513 605 24.5967
154.63 576 24
154.747 641 25.318
154.864 599 24.4745
154.981 640 25.2982
155.098 631 25.1197
155.215 613 24.7588
155.332 633 25.1595
155.449 606 24.6171
155.566 638 25.2587
155.683 597 24.4336
155.8 646 25.4165
155.917 634 25.1794
156.033 599 24.4745
156.15 0 1
156.267 0 1
156.383 0 1
156.5 0 1
156.617 0 1
156.733 0 1
156.85 0 1
156.966 0 1
157.082 0 1
157.199 0 1
157.315 0 1
157.431 0 1
157.547 0 1
157.664 0 1
157.78 0 1
157.896 0 1
158.012 0 1
158.128 0 1
158.244 0 1
158.359 0 1
158.475 0 1
158.591 0 1
158.706 0 1
