
6.15755 0 1
6.2731 0 1
6.3887 0 1
6.50437 0 1
6.62009 0 1
6.73587 0 1
6.8517 0 1
6.96759 0 1
7.08353 0 1
7.19952 0 1
7.31557 0 1
7.43166 0 1
7.54781 0 1
7.664 0 1
7.78024 0 1
7.89653 0 1
8.01286 0 1
8.12924 0 1
8.24567 0 1
8.36213 0 1
8.47864 0 1
8.59519 0 1
8.71178 0 1
8.82841 0 1
8.94508 0 1
9.06179 0 1
9.17853 0 1
9.29531 0 1
9.41212 0 1
9.52897 0 1
9.64584 0 1
9.76276 0 1
9.8797 0 1
9.99667 0 1
10.1137 0 1
10.2307 0 1
10.3478 0 1
10.4648 0 1
10.5819 0 1
10.6991 0 1
10.8162 0 1
10.9334 0 1
11.0506 0 1
11.1678 0 1
11.285 0 1
11.4023 0 1
11.5196 0 1
11.6369 0 1
11.7542 0 1
11.8715 0 1
11.9888 0 1
12.1062 0 1
12.2235 0 1
12.3409 0 1
12.4582 0 1
12.5756 0 1
12.693 0 1
12.8104 0 1
12.9278 0 1
13.0452 0 1
13.1626 0 1
13.28 0 1
13.3974 0 1
13.5149 0 1
13.6323 0 1
13.7497 0 1
13.8671 0 1
13.9845 0 1
14.1019 0 1
14.2193 0 1
14.3367 0 1
14.4541 0 1
14.5714 0 1
14.6888 0 1
14.8062 0 1
14.9235 0 1
15.0408 0 0
15.1581 0 0
15.2755 0 0
15.3927 0 0
15.51 0 0
15.6273 0 0
15.7445 0 0
15.8617 0 0
15.9789 0 0
16.0961 0 0
16.2132 0 0
16.3304 0 0
16.4475 0 0
16.5646 0 0
16.6816 0 0
16.7986 0 0
16.9156 0 0
17.0326 0 0
17.1496 0 0
17.2665 0 0
17.3833 0 0
17.5002 0 0
17.617 0 0
17.7338 0 0
17.8505 0 0
17.9672 0 0
18.0839 0 0
18.2005 0 0
18.3171 0 0
18.4337 0 0
18.5502 0 0
18.6666 0 0
18.7831 0 0
18.8994 0 0
19.0158 0 0
19.1321 0 0
19.2483 0 0
19.3645 0 0
19.4806 0 0
19.5967 0 0
19.7128 0 0
19.8288 0 0
19.9447 0 0
20.0606 0 1
20.1764 0 1
20.2922 0 1
20.4079 0 1
20.5236 0 1
20.6392 0 1
20.7548 0 1
20.8702 0 1
23.3078 0 1
23.4233 0 1
23.539 0 1
23.6547 0 1
23.7704 0 1
23.8862 0 1
24.0021 0 1
24.118 0 1
24.234 0 1
24.35 0 1
24.4661 1686 41.0609
24.5822 1813 42.5793
24.6984 1740 41.7133
24.8146 1712 41.3763
24.9309 1750 41.833
25.0472 1679 40.9756
25.1636 1667 40.8289
25.28 1652 40.6448
25.3965 1694 41.1582
25.513 1701 41.2432
25.6296 1824 42.7083
25.7462 1852 43.0349
25.8628 1897 43.5546
25.9795 1909 43.6921
26.0962 1911 43.715
26.213 2023 44.9778
26.3298 1961 44.2832
26.4466 1989 44.5982
26.5635 1973 44.4185
26.6804 1780 42.19
26.7973 1762 41.9762
26.9143 1701 41.2432
27.0313 1771 42.0833
27.1483 1864 43.1741
27.2653 1968 44.3621
27.3824 1933 43.9659
27.4996 2006 44.7884
27.6167 1911 43.715
27.7339 1866 43.1972
27.8511 1894 43.5201
27.9683 1836 42.8486
28.0855 1808 42.5206
28.2028 1784 42.2374
28.3201 1718 41.4488
28.4374 1701 41.2432
28.5547 1747 41.7971
28.6721 1631 40.3856
28.7894 1692 41.1339
28.9068 1643 40.5339
29.0242 1648 40.5956
29.1416 1671 40.8779
29.259 1665 40.8044
29.3764 1764 42
29.4939 1914 43.7493
29.6113 1942 44.0681
29.7288 1908 43.6807
29.8463 1873 43.2782
29.9638 1915 43.7607
30.0812 1892 43.4971
30.1987 1845 42.9535
30.3162 1747 41.7971
30.4337 1721 41.4849
30.5512 1739 41.7013
30.6687 1899 43.5775
30.7862 1852 43.0349
30.9037 1988 44.587
31.0212 1950 44.1588
31.1387 1985 44.5533
31.2562 1881 43.3705
31.3737 1896 43.5431
31.4912 1837 42.8602
31.6087 1851 43.0232
31.7262 1833 42.8135
31.8436 1865 43.1856
31.9611 1782 42.2137
32.0785 1635 40.4351
32.1959 1702 41.2553
32.3134 1594 39.9249
32.4308 1636 40.4475
32.5482 1703 41.2674
32.6655 1661 40.7554
32.7829 1782 42.2137
32.9002 1879 43.3474
33.0176 1904 43.6348
33.1349 1956 44.2267
33.2522 1935 43.9886
33.3694 1934 43.9773
33.4867 1916 43.7721
33.6039 1987 44.5758
33.7211 1935 43.9886
33.8383 1740 41.7133
33.9554 1699 41.2189
34.0725 1734 41.6413
34.1896 1663 40.7799
34.3067 1724 41.5211
34.4237 1789 42.2966
34.5407 1963 44.3058
34.6577 1980 44.4972
34.7746 1953 44.1928
34.8915 1892 43.4971
35.0084 1939 44.0341
35.1252 1909 43.6921
35.242 1920 43.8178
35.3587 1786 42.2611
35.4755 1883 43.3935
35.5921 1844 42.9418
35.7088 1764 42
35.8254 1680 40.9878
35.9419 1602 40.025
36.0584 1589 39.8623
36.1749 1706 41.3038
36.2913 1654 40.6694
36.4077 1671 40.8779
36.524 1703 41.2674
36.6403 1750 41.833
36.7565 1926 43.8862
36.8727 1901 43.6005
36.9889 1848 42.9884
37.1049 1867 43.2088
37.221 0 1
37.3369 0 1
37.4529 0 1
37.5687 0 1
37.6845 0 1
37.8003 0 1
37.916 0 1
38.0316 0 1
38.1472 0 1
40.5851 0 1
40.7008 0 1
40.8164 0 1
40.9322 0 1
41.048 0 1
41.1639 0 1
41.2798 0 1
41.3958 0 1
41.5118 0 1
41.6279 0 1
41.744 1397 37.3765
41.8602 1499 38.7169
41.9765 1575 39.6863
42.0928 1621 40.2616
42.2091 1591 39.8873
42.3255 1655 40.6817
42.4419 1612 40.1497
42.5584 1641 40.5093
42.675 1515 38.923
42.7915 1433 37.855
42.9081 1377 37.108
43.0248 1491 38.6135
43.1415 1501 38.7427
43.2582 1599 39.9875
43.375 1636 40.4475
43.4918 1707 41.3159
43.6087 1628 40.3485
43.7256 1629 40.3609
43.8425 1635 40.4351
43.9595 1562 39.5221
44.0765 1510 38.8587
44.1935 1511 38.8716
44.3106 1448 38.0526
44.4277 1454 38.1314
44.5448 1417 37.6431
44.6619 1326 36.4143
44.7791 1208 34.7563
44.8963 1220 34.9285
45.0136 1181 34.3657
45.1308 1227 35.0286
45.2481 1247 35.3129
45.3654 1361 36.8917
45.4827 1359 36.8646
45.6001 1417 37.6431
45.7174 1433 37.855
45.8348 1383 37.1887
45.9522 1347 36.7015
46.0697 1320 36.3318
46.1871 1218 34.8999
46.3046 1152 33.9411
46.422 1170 34.2053
46.5395 1156 34
46.657 1203 34.6843
46.7745 1266 35.5809
46.892 1276 35.7211
47.0096 1191 34.5109
47.1271 1231 35.0856
47.2446 1331 36.4829
47.3622 1297 36.0139
47.4797 1199 34.6266
47.5973 1145 33.8378
47.7149 1042 32.28
47.8324 1098 33.1361
47.95 1061 32.573
48.0675 1046 32.3419
48.1851 961 31
48.3027 906 30.0998
48.4202 908 30.133
48.5378 925 30.4138
48.6554 1047 32.3574
48.7729 1012 31.8119
48.8904 1043 32.2955
49.008 1150 33.9116
49.1255 1059 32.5423
49.243 1204 34.6987
49.3605 1122 33.4963
49.478 1145 33.8378
49.5955 1079 32.8481
49.713 1060 32.5576
49.8304 994 31.5278
49.9479 981 31.3209
50.0653 1052 32.4345
50.1827 1050 32.4037
50.3001 1198 34.6121
50.4175 1182 34.3802
50.5348 1264 35.5528
50.6521 1273 35.6791
50.7694 1331 36.4829
50.8867 1298 36.0278
51.004 1304 36.1109
51.1212 1298 36.0278
51.2384 1316 36.2767
51.3556 1324 36.3868
51.4727 1370 37.0135
51.5899 1301 36.0694
51.707 1180 34.3511
51.824 1169 34.1906
51.9411 1162 34.0881
52.0581 1208 34.7563
52.175 1256 35.4401
52.2919 1376 37.0945
52.4088 1491 38.6135
52.5257 1543 39.281
52.6425 1658 40.7185
52.7593 1558 39.4715
52.876 1632 40.398
52.9927 1604 40.05
53.1094 1591 39.8873
53.226 1533 39.1535
53.3426 1467 38.3014
53.4591 1449 38.0657
53.5756 1396 37.3631
53.692 1480 38.4708
53.8084 1495 38.6652
53.9248 1632 40.398
54.0411 1580 39.7492
54.1573 1609 40.1123
54.2735 0 1
54.3896 0 1
54.5057 0 1
54.6217 0 1
54.7377 0 1
54.8537 0 1
54.9695 0 1
55.0853 0 1
55.2011 0 1
55.3168 0 1
55.4324 0 1
57.824 0 1
57.9396 0 1
58.0553 0 1
58.1711 0 1
58.2869 0 1
58.4028 0 1
58.5187 0 1
58.6347 0 1
58.7508 0 1
58.8669 0 1
58.983 1662 40.7676
59.0992 1787 42.2729
59.2155 1838 42.8719
59.3318 1989 44.5982
59.4482 1948 44.1362
59.5646 2002 44.7437
59.681 1953 44.1928
59.7975 1886 43.4281
59.9141 1918 43.795
60.0306 1818 42.638
60.1473 1734 41.6413
60.2639 1729 41.5812
60.3807 1716 41.4246
60.4974 1597 39.9625
60.6142 1565 39.5601
60.731 1593 39.9124
60.8479 1542 39.2683
60.9648 1714 41.4005
61.0818 1684 41.0366
61.1987 1783 42.2256
61.3158 1804 42.4735
61.4328 1854 43.0581
61.5499 1858 43.1045
61.667 1734 41.6413
61.7841 1720 41.4729
61.9013 1692 41.1339
62.0185 1597 39.9625
62.1357 1545 39.3065
62.253 1555 39.4335
62.3702 1662 40.7676
62.4875 1678 40.9634
62.6049 1798 42.4028
62.7222 1972 44.4072
62.8396 1860 43.1277
62.9569 1895 43.5316
63.0743 1800 42.4264
63.1918 1836 42.8486
63.3092 1810 42.5441
63.4267 1756 41.9047
63.5441 1697 41.1947
63.6616 1650 40.6202
63.7791 1604 40.05
63.8966 1531 39.128
64.0142 1473 38.3797
64.1317 1510 38.8587
64.2492 1499 38.7169
64.3668 1471 38.3536
64.4843 1656 40.694
64.6019 1588 39.8497
64.7195 1717 41.4367
64.837 1745 41.7732
64.9546 1735 41.6533
65.0722 1678 40.9634
65.1898 1653 40.6571
65.3074 1679 40.9756
65.4249 1528 39.0896
65.5425 1440 37.9473
65.6601 1441 37.9605
65.7777 1486 38.5487
65.8952 1463 38.2492
66.0128 1577 39.7115
66.1304 1712 41.3763
66.2479 1678 40.9634
66.3655 1743 41.7493
66.483 1766 42.0238
66.6005 1803 42.4617
66.718 1819 42.6497
66.8355 1747 41.7971
66.953 1693 41.1461
67.0705 1711 41.3642
67.1879 1707 41.3159
67.3054 1550 39.37
67.4228 1534 39.1663
67.5402 1431 37.8286
67.6576 1407 37.51
67.7749 1369 37
67.8923 1329 36.4555
68.0096 1399 37.4032
68.1269 1499 38.7169
68.2442 1576 39.6989
68.3614 1648 40.5956
68.4787 1689 41.0974
68.5958 1680 40.9878
68.713 1741 41.7253
68.8302 1716 41.4246
68.9473 1648 40.5956
69.0643 1587 39.8372
69.1814 1394 37.3363
69.2984 1365 36.9459
69.4154 1432 37.8418
69.5323 1496 38.6782
69.6492 1573 39.6611
69.7661 1652 40.6448
69.8829 1843 42.9302
69.9997 1850 43.0116
70.1165 1837 42.8602
70.2332 1867 43.2088
70.3499 1799 42.4146
70.4665 1818 42.638
70.5831 1850 43.0116
70.6996 1756 41.9047
70.8161 1660 40.7431
70.9326 1690 41.1096
71.049 1582 39.7744
71.1653 1505 38.7943
71.2817 1359 36.8646
71.3979 1304 36.1109
71.5141 1276 35.7211
71.6303 1320 36.3318
71.7464 1271 35.6511
71.8624 0 1
71.9784 0 1
72.0944 0 1
72.2102 0 1
72.3261 0 1
72.4418 0 1
72.5575 0 1
72.6732 0 1
75.1054 0 1
75.2209 0 1
75.3365 0 1
75.4521 0 1
75.5678 0 1
75.6835 0 1
75.7993 0 1
75.9151 0 1
76.031 0 1
76.147 1469 38.3275
76.263 1586 39.8246
76.3791 1567 39.5854
76.4952 1410 37.55
76.6113 1426 37.7624
76.7276 1469 38.3275
76.8438 1404 37.47
76.9601 1394 37.3363
77.0765 1478 38.4448
77.1929 1572 39.6485
77.3093 1699 41.2189
77.4258 1768 42.0476
77.5423 1718 41.4488
77.6589 1737 41.6773
77.7755 1696 41.1825
77.8921 1655 40.6817
78.0088 1553 39.4081
78.1256 1413 37.5899
78.2423 1377 37.108
78.3591 1302 36.0832
78.4759 1393 37.3229
78.5928 1469 38.3275
78.7097 1544 39.2938
78.8266 1603 40.0375
78.9436 1792 42.332
79.0606 1703 41.2674
79.1776 1814 42.5911
79.2946 1781 42.2019
79.4117 1818 42.638
79.5288 1738 41.6893
79.6459 1704 41.2795
79.7631 1684 41.0366
79.8802 1627 40.3361
79.9974 1620 40.2492
80.1147 1484 38.5227
80.2319 1378 37.1214
80.3491 1322 36.3593
80.4664 1355 36.8103
80.5837 1337 36.565
80.701 1413 37.5899
80.8183 1487 38.5616
80.9357 1594 39.9249
81.053 1566 39.5727
81.1704 1608 40.0999
81.2877 1623 40.2865
81.4051 1646 40.5709
81.5225 1604 40.05
81.6399 1524 39.0384
81.7573 1319 36.318
81.8747 1297 36.0139
81.9922 1165 34.1321
82.1096 1276 35.7211
82.227 1305 36.1248
82.3444 1479 38.4578
82.4619 1532 39.1408
82.5793 1633 40.4104
82.6967 1528 39.0896
82.8142 1659 40.7308
82.9316 1650 40.6202
83.049 1586 39.8246
83.1664 1630 40.3733
83.2838 1562 39.5221
83.4012 1529 39.1024
83.5186 1426 37.7624
83.636 1463 38.2492
83.7534 1341 36.6197
83.8708 1277 35.7351
83.9881 1183 34.3948
84.1055 1201 34.6554
84.2228 1272 35.6651
84.3401 1303 36.0971
84.4575 1408 37.5233
84.5747 1481 38.4838
84.692 1572 39.6485
84.8093 1482 38.4968
84.9265 1539 39.2301
85.0437 1486 38.5487
85.1609 1423 37.7227
85.2781 1310 36.1939
85.3952 1251 35.3695
85.5123 1193 34.5398
85.6294 1197 34.5977
85.7465 1294 35.9722
85.8636 1432 37.8418
85.9806 1514 38.9102
86.0976 1537 39.2046
86.2145 1624 40.2989
86.3315 1742 41.7373
86.4484 1733 41.6293
86.5652 1717 41.4367
86.682 1796 42.3792
86.7988 1770 42.0714
86.9156 1722 41.497
87.0323 1716 41.4246
87.149 1680 40.9878
87.2657 1583 39.7869
87.3823 1524 39.0384
87.4988 1446 38.0263
87.6154 1418 37.6563
87.7318 1458 38.1838
87.8483 1451 38.092
87.9647 1645 40.5586
88.081 1825 42.72
88.1973 1760 41.9524
88.3136 1755 41.8927
88.4298 1747 41.7971
88.546 1724 41.5211
88.6621 1748 41.8091
88.7781 1523 39.0256
88.8942 0 1
89.0101 0 1
89.126 0 1
89.2419 0 1
89.3577 0 1
89.4734 0 1
89.5891 0 1
89.7047 0 1
89.8203 0 1
89.9358 0 1
92.3269 0 1
92.4424 0 1
92.558 0 1
92.6736 0 1
92.7893 0 1
92.905 0 1
93.0208 0 1
93.1366 0 1
93.2525 0 1
93.3685 0 1
93.4845 0 1
93.6005 1784 42.2374
93.7167 1773 42.107
93.8328 1760 41.9524
93.949 1761 41.9643
94.0653 1731 41.6053
94.1816 1629 40.3609
94.2979 1536 39.1918
94.4143 1444 38
94.5307 1409 37.5366
94.6472 1419 37.6696
94.7637 1464 38.2623
94.8803 1565 39.5601
94.9969 1695 41.1704
95.1135 1808 42.5206
95.2302 1751 41.845
95.3469 1884 43.4051
95.4637 1893 43.5086
95.5805 1998 44.699
95.6973 1948 44.1362
95.8142 2079 45.5961
95.9311 2057 45.3542
96.048 1887 43.4396
96.1649 1805 42.4853
96.2819 1920 43.8178
96.3989 1759 41.9404
96.516 1696 41.1825
96.633 1572 39.6485
96.7501 1452 38.1051
96.8673 1541 39.2556
96.9844 1627 40.3361
97.1016 1775 42.1307
97.2188 1799 42.4146
97.336 1931 43.9431
97.4532 1945 44.1022
97.5704 2014 44.8776
97.6877 1906 43.6578
97.805 1887 43.4396
97.9223 1693 41.1461
98.0396 1581 39.7618
98.1569 1551 39.3827
98.2743 1486 38.5487
98.3916 1589 39.8623
98.509 1668 40.8412
98.6264 1797 42.391
98.7438 1922 43.8406
98.8612 1968 44.3621
98.9786 2059 45.3762
99.096 2103 45.8585
99.2134 2096 45.7821
99.3308 2086 45.6727
99.4482 2122 46.0652
99.5656 2182 46.7119
99.6831 2074 45.5412
99.8005 2001 44.7325
99.9179 1990 44.6094
100.035 1840 42.8952
100.153 1809 42.5323
100.27 1781 42.2019
100.388 1730 41.5933
100.505 1788 42.2847
100.622 1881 43.3705
100.74 1936 44
100.857 1981 44.5084
100.975 2107 45.9021
101.092 2053 45.31
101.209 2087 45.6837
101.327 2104 45.8694
101.444 1914 43.7493
101.561 1776 42.1426
101.679 1651 40.6325
101.796 1642 40.5216
101.913 1653 40.6571
102.03 1701 41.2432
102.148 1905 43.6463
102.265 2098 45.8039
102.382 1951 44.1701
102.499 2162 46.4973
102.616 2214 47.0532
102.733 2295 47.9062
102.851 2256 47.4974
102.968 2219 47.1063
103.085 2260 47.5395
103.202 2237 47.2969
103.319 2179 46.6798
103.436 2195 46.8508
103.552 2030 45.0555
103.669 1932 43.9545
103.786 1941 44.0568
103.903 1757 41.9166
104.02 1902 43.6119
104.137 2050 45.2769
104.253 2136 46.2169
104.37 2114 45.9783
104.487 2330 48.2701
104.603 2244 47.3709
104.72 2211 47.0213
104.836 2227 47.1911
104.953 2090 45.7165
105.069 1915 43.7607
105.186 1849 43
105.302 1793 42.3438
105.418 1774 42.1189
105.535 1949 44.1475
105.651 2170 46.5833
105.767 2254 47.4763
105.883 2368 48.6621
105.999 2338 48.3529
106.115 0 1
106.231 0 1
106.347 0 1
106.463 0 1
106.579 0 1
106.694 0 1
106.81 0 1
106.926 0 1
107.041 0 1
107.157 0 1
109.576 0 1
109.692 0 1
109.807 0 1
109.923 0 1
110.039 0 1
110.155 0 1
110.27 0 1
110.386 0 1
110.502 0 1
110.618 1797 42.391
110.735 2037 45.1331
110.851 2014 44.8776
110.967 2231 47.2335
111.083 2359 48.5695
111.199 2227 47.1911
111.316 2258 47.5184
111.432 2319 48.156
111.549 2366 48.6415
111.665 2408 49.0714
111.782 2208 46.9894
111.898 2166 46.5403
112.015 2157 46.4435
112.132 2005 44.7772
112.248 1931 43.9431
112.365 1899 43.5775
112.482 1840 42.8952
112.599 1875 43.3013
112.716 2059 45.3762
112.832 2163 46.5081
112.949 2211 47.0213
113.066 2192 46.8188
113.183 2243 47.3603
113.3 2239 47.3181
113.417 2106 45.8912
113.534 1878 43.3359
113.652 1831 42.7902
113.769 1784 42.2374
113.886 1684 41.0366
114.003 1635 40.4351
114.12 1839 42.8836
114.238 1956 44.2267
114.355 2046 45.2327
114.472 2367 48.6518
114.589 2078 45.5851
114.707 2153 46.4004
114.824 2290 47.8539
114.942 2239 47.3181
115.059 2288 47.833
115.176 2324 48.2079
115.294 2277 47.7179
115.411 2182 46.7119
115.529 2127 46.1194
115.646 1980 44.4972
115.764 1907 43.6692
115.881 1743 41.7493
115.999 1816 42.6146
116.116 1839 42.8836
116.234 1971 44.3959
116.351 2140 46.2601
116.469 2157 46.4435
116.586 2096 45.7821
116.704 2144 46.3033
116.821 2152 46.3897
116.939 2062 45.4093
117.056 1848 42.9884
117.174 1851 43.0232
117.291 1649 40.6079
117.409 1685 41.0488
117.526 1635 40.4351
117.644 1790 42.3084
117.761 1848 42.9884
117.879 1971 44.3959
117.996 2014 44.8776
118.114 2147 46.3357
118.231 2159 46.465
118.349 2200 46.9042
118.466 2141 46.2709
118.584 2117 46.0109
118.701 2177 46.6583
118.819 2078 45.5851
118.936 2145 46.3141
119.053 2157 46.4435
119.171 2046 45.2327
119.288 1853 43.0465
119.405 1792 42.332
119.523 1738 41.6893
119.64 1774 42.1189
119.757 1778 42.1663
119.875 1856 43.0813
119.992 1922 43.8406
120.109 1958 44.2493
120.226 2109 45.9239
120.343 2091 45.7275
120.46 2021 44.9555
120.578 1965 44.3283
120.695 1848 42.9884
120.812 1792 42.332
120.929 1673 40.9023
121.046 1569 39.6106
121.163 1669 40.8534
121.279 1569 39.6106
121.396 1622 40.2741
121.513 1893 43.5086
121.63 1931 43.9431
121.747 1925 43.8748
121.863 2023 44.9778
121.98 1995 44.6654
122.097 1994 44.6542
122.213 2005 44.7772
122.33 2113 45.9674
122.446 2059 45.3762
122.563 1986 44.5646
122.679 1898 43.566
122.795 1914 43.7493
122.912 1796 42.3792
123.028 1722 41.497
123.144 1570 39.6232
123.26 1625 40.3113
123.377 0 1
123.493 0 1
123.609 0 1
123.725 0 1
123.84 0 1
123.956 0 1
124.072 0 1
124.188 0 1
124.303 0 1
124.419 0 1
126.852 0 1
126.968 0 1
127.083 0 1
127.199 0 1
127.315 0 1
127.431 0 1
127.547 0 1
127.663 0 1
127.779 0 1
127.895 0 1
128.011 0 1
128.127 0 1
128.243 0 1
128.359 1767 42.0357
128.476 1742 41.7373
128.592 1844 42.9418
128.708 1795 42.3674
128.825 1970 44.3847
128.941 2055 45.3321
129.058 2022 44.9667
129.174 2015 44.8888
129.291 2002 44.7437
129.408 2073 45.5302
129.524 1942 44.0681
129.641 1867 43.2088
129.758 1774 42.1189
129.875 1733 41.6293
129.992 1629 40.3609
130.108 1612 40.1497
130.225 1557 39.4588
130.342 1781 42.2019
130.459 1848 42.9884
130.576 1975 44.441
130.693 1983 44.5309
130.81 2109 45.9239
130.928 2040 45.1664
131.045 2024 44.9889
131.162 2154 46.4112
131.279 2162 46.4973
131.396 2076 45.5631
131.513 2161 46.4866
131.631 1995 44.6654
131.748 2019 44.9333
131.865 1812 42.5676
131.983 1739 41.7013
132.1 1762 41.9762
132.217 1754 41.8808
132.335 1894 43.5201
132.452 1910 43.7035
132.57 2084 45.6508
132.687 2044 45.2106
132.804 2076 45.5631
132.922 2058 45.3652
133.039 1992 44.6318
133.157 1895 43.5316
133.274 1794 42.3556
133.392 1698 41.2068
133.509 1657 40.7063
133.627 1614 40.1746
133.744 1577 39.7115
133.862 1768 42.0476
133.979 1849 43
134.097 1842 42.9185
134.214 1911 43.715
134.332 1980 44.4972
134.449 2025 45
134.567 2032 45.0777
134.684 1986 44.5646
134.802 2065 45.4423
134.919 2126 46.1086
135.037 2140 46.2601
135.154 1969 44.3734
135.272 1974 44.4297
135.389 1930 43.9318
135.507 1769 42.0595
135.624 1766 42.0238
135.742 1783 42.2256
135.859 1861 43.1393
135.977 1939 44.0341
136.094 2045 45.2217
136.211 2033 45.0888
136.329 2068 45.4753
136.446 2028 45.0333
136.564 2002 44.7437
136.681 1937 44.0114
136.798 1798 42.4028
136.915 1765 42.0119
137.033 1686 41.0609
137.15 1554 39.4208
137.267 1584 39.7995
137.384 1617 40.2119
137.502 1700 41.2311
137.619 1808 42.5206
137.736 1910 43.7035
137.853 1862 43.1509
137.97 1995 44.6654
138.087 1972 44.4072
138.204 2042 45.1885
138.321 2055 45.3321
138.438 2046 45.2327
138.555 2082 45.6289
138.672 1962 44.2945
138.788 2070 45.4973
138.905 1997 44.6878
139.022 1966 44.3396
139.139 1842 42.9185
139.255 1825 42.72
139.372 1818 42.638
139.488 1850 43.0116
139.605 2034 45.0999
139.721 2085 45.6618
139.838 2098 45.8039
139.954 2055 45.3321
140.071 2030 45.0555
140.187 1994 44.6542
140.303 2189 46.7868
140.419 1968 44.3621
140.535 1817 42.6263
140.652 1772 42.0951
140.768 0 1
140.884 0 1
141 0 1
141.115 0 1
141.231 0 1
141.347 0 1
141.463 0 1
141.578 0 1
141.694 0 1
144.104 0 1
144.219 0 1
144.335 0 1
144.45 0 1
144.566 0 1
144.682 0 1
144.798 0 1
144.914 0 1
145.03 0 1
145.146 1768 42.0476
145.262 1756 41.9047
145.378 1609 40.1123
145.494 1590 39.8748
145.61 1508 38.833
145.726 1513 38.8973
145.842 1477 38.4318
145.959 1566 39.5727
146.075 1494 38.6523
146.192 1547 39.3319
146.308 1602 40.025
146.425 1686 41.0609
146.541 1700 41.2311
146.658 1640 40.4969
146.774 1783 42.2256
146.891 1756 41.9047
147.008 1824 42.7083
147.125 1749 41.821
147.241 1793 42.3438
147.358 1796 42.3792
147.475 1747 41.7971
147.592 1759 41.9404
147.709 1615 40.1871
147.826 1563 39.5348
147.943 1569 39.6106
148.06 1539 39.2301
148.177 1704 41.2795
148.294 1725 41.5331
148.411 1794 42.3556
148.528 1748 41.8091
148.645 1859 43.1161
148.762 1756 41.9047
148.88 1768 42.0476
148.997 1651 40.6325
149.114 1706 41.3038
149.231 1533 39.1535
149.349 1503 38.7685
149.466 1388 37.2559
149.583 1355 36.8103
149.701 1384 37.2022
149.818 1531 39.128
149.935 1554 39.4208
150.053 1551 39.3827
150.17 1559 39.4842
150.287 1705 41.2916
150.405 1686 41.0609
150.522 1715 41.4126
150.64 1638 40.4722
150.757 1733 41.6293
150.875 1775 42.1307
150.992 1639 40.4846
151.11 1747 41.7971
151.227 1620 40.2492
151.344 1584 39.7995
151.462 1557 39.4588
151.579 1540 39.2428
151.697 1538 39.2173
151.814 1573 39.6611
151.932 1767 42.0357
152.049 1753 41.8688
152.167 1737 41.6773
152.284 1718 41.4488
152.402 1664 40.7922
152.519 1706 41.3038
152.636 1612 40.1497
152.754 1595 39.9375
152.871 1468 38.3145
152.989 1443 37.9868
153.106 1411 37.5633
153.223 1412 37.5766
153.341 1438 37.921
153.458 1513 38.8973
153.575 1588 39.8497
153.693 1579 39.7366
153.81 1623 40.2865
153.927 1657 40.7063
154.044 1747 41.7971
154.162 1727 41.5572
154.279 1757 41.9166
154.396 1801 42.4382
154.513 1789 42.2966
154.63 1746 41.7852
154.747 1798 42.4028
154.864 1762 41.9762
154.981 1690 41.1096
155.098 1576 39.6989
155.215 1626 40.3237
155.332 1704 41.2795
155.449 1723 41.509
155.566 1749 41.821
155.683 1803 42.4617
155.8 1779 42.1782
155.917 1771 42.0833
156.033 1841 42.9069
156.15 0 1
156.267 0 1
156.383 0 1
156.5 0 1
156.617 0 1
156.733 0 1
156.85 0 1
156.966 0 1
157.082 0 1
157.199 0 1
157.315 0 1
157.431 0 1
157.547 0 1
157.664 0 1
157.78 0 1
157.896 0 1
158.012 0 1
158.128 0 1
158.244 0 1
158.359 0 1
158.475 0 1
158.591 0 1
158.706 0 1
