
6.15755 0 1
6.2731 0 1
6.3887 0 1
6.50437 0 1
6.62009 0 1
6.73587 0 1
6.8517 0 1
6.96759 0 1
7.08353 0 1
7.19952 0 1
7.31557 0 1
7.43166 0 1
7.54781 0 1
7.664 0 1
7.78024 0 1
7.89653 0 1
8.01286 0 1
8.12924 0 1
8.24567 0 1
8.36213 0 1
8.47864 0 1
8.59519 0 1
8.71178 0 1
8.82841 0 1
8.94508 0 1
9.06179 0 1
9.17853 0 1
9.29531 0 1
9.41212 0 1
9.52897 0 1
9.64584 0 1
9.76276 0 1
9.8797 0 1
9.99667 0 1
10.1137 0 1
10.2307 0 1
10.3478 0 1
10.4648 0 1
10.5819 0 1
10.6991 0 1
10.8162 0 1
10.9334 0 1
11.0506 0 1
11.1678 0 1
11.285 0 1
11.4023 0 1
11.5196 0 1
11.6369 0 1
11.7542 0 1
11.8715 0 1
11.9888 0 1
12.1062 0 1
12.2235 0 1
12.3409 0 1
12.4582 0 1
12.5756 0 1
12.693 0 1
12.8104 0 1
12.9278 0 1
13.0452 0 1
13.1626 0 1
13.28 0 1
13.3974 0 1
13.5149 0 1
13.6323 0 1
13.7497 0 1
13.8671 0 1
13.9845 0 1
14.1019 0 1
14.2193 0 1
14.3367 0 1
14.4541 0 1
14.5714 0 1
14.6888 0 1
14.8062 0 1
14.9235 0 1
15.0408 0 0
15.1581 0 0
15.2755 0 0
15.3927 0 0
15.51 0 0
15.6273 0 0
15.7445 0 0
15.8617 0 0
15.9789 0 0
16.0961 0 0
16.2132 0 0
16.3304 0 0
16.4475 0 0
16.5646 0 0
16.6816 0 0
16.7986 0 0
16.9156 0 0
17.0326 0 0
17.1496 0 0
17.2665 0 0
17.3833 0 0
17.5002 0 0
17.617 0 0
17.7338 0 0
17.8505 0 0
17.9672 0 0
18.0839 0 0
18.2005 0 0
18.3171 0 0
18.4337 0 0
18.5502 0 0
18.6666 0 0
18.7831 0 0
18.8994 0 0
19.0158 0 0
19.1321 0 0
19.2483 0 0
19.3645 0 0
19.4806 0 0
19.5967 0 0
19.7128 0 0
19.8288 0 0
19.9447 0 0
20.0606 0 1
20.1764 0 1
20.2922 0 1
20.4079 0 1
20.5236 0 1
20.6392 0 1
20.7548 0 1
20.8702 0 1
23.3078 0 1
23.4233 0 1
23.539 0 1
23.6547 0 1
23.7704 0 1
23.8862 0 1
24.0021 0 1
24.118 0 1
24.234 0 1
24.35 0 1
24.4661 1933 43.9659
24.5822 2027 45.0222
24.6984 1898 43.566
24.8146 2023 44.9778
24.9309 1948 44.1362
25.0472 1951 44.1701
25.1636 1927 43.8976
25.28 1967 44.3509
25.3965 1997 44.6878
25.513 2031 45.0666
25.6296 1992 44.6318
25.7462 2001 44.7325
25.8628 2062 45.4093
25.9795 1990 44.6094
26.0962 2141 46.2709
26.213 1987 44.5758
26.3298 1995 44.6654
26.4466 1984 44.5421
26.5635 1873 43.2782
26.6804 1707 41.3159
26.7973 1729 41.5812
26.9143 1686 41.0609
27.0313 1825 42.72
27.1483 1902 43.6119
27.2653 1992 44.6318
27.3824 1995 44.6654
27.4996 2017 44.911
27.6167 1968 44.3621
27.7339 1927 43.8976
27.8511 1942 44.0681
27.9683 1951 44.1701
28.0855 1948 44.1362
28.2028 2010 44.833
28.3201 1954 44.2041
28.4374 1993 44.643
28.5547 1925 43.8748
28.6721 2015 44.8888
28.7894 1977 44.4635
28.9068 2048 45.2548
29.0242 2023 44.9778
29.1416 2057 45.3542
29.259 1978 44.4747
29.3764 1943 44.0795
29.4939 1996 44.6766
29.6113 1913 43.7379
29.7288 1992 44.6318
29.8463 2018 44.9222
29.9638 1951 44.1701
30.0812 1754 41.8808
30.1987 1599 39.9875
30.3162 1538 39.2173
30.4337 1544 39.2938
30.5512 1630 40.3733
30.6687 1747 41.7971
30.7862 1922 43.8406
30.9037 1966 44.3396
31.0212 2038 45.1442
31.1387 2006 44.7884
31.2562 1880 43.359
31.3737 1990 44.6094
31.4912 1939 44.0341
31.6087 1979 44.486
31.7262 1948 44.1362
31.8436 1896 43.5431
31.9611 1946 44.1135
32.0785 1992 44.6318
32.1959 2050 45.2769
32.3134 1923 43.852
32.4308 1955 44.2154
32.5482 1980 44.4972
32.6655 2063 45.4203
32.7829 2089 45.7056
32.9002 2001 44.7325
33.0176 2085 45.6618
33.1349 2035 45.111
33.2522 1963 44.3058
33.3694 2104 45.8694
33.4867 1952 44.1814
33.6039 1966 44.3396
33.7211 1762 41.9762
33.8383 1699 41.2189
33.9554 1703 41.2674
34.0725 1619 40.2368
34.1896 1677 40.9512
34.3067 1789 42.2966
34.4237 1888 43.4511
34.5407 2003 44.7549
34.6577 2014 44.8776
34.7746 2051 45.288
34.8915 2109 45.9239
35.0084 2092 45.7384
35.1252 2011 44.8442
35.242 1973 44.4185
35.3587 2023 44.9778
35.4755 2013 44.8665
35.5921 1995 44.6654
35.7088 1962 44.2945
35.8254 1995 44.6654
35.9419 2056 45.3431
36.0584 1991 44.6206
36.1749 1935 43.9886
36.2913 1982 44.5197
36.4077 2063 45.4203
36.524 2063 45.4203
36.6403 2058 45.3652
36.7565 2029 45.0444
36.8727 2138 46.2385
36.9889 2056 45.3431
37.1049 2042 45.1885
37.221 0 1
37.3369 0 1
37.4529 0 1
37.5687 0 1
37.6845 0 1
37.8003 0 1
37.916 0 1
38.0316 0 1
38.1472 0 1
40.5851 0 1
40.7008 0 1
40.8164 0 1
40.9322 0 1
41.048 0 1
41.1639 0 1
41.2798 0 1
41.3958 0 1
41.5118 0 1
41.6279 0 1
41.744 1675 40.9268
41.8602 1797 42.391
41.9765 1724 41.5211
42.0928 1752 41.8569
42.2091 1815 42.6028
42.3255 1808 42.5206
42.4419 1740 41.7133
42.5584 1576 39.6989
42.675 1437 37.9078
42.7915 1363 36.9188
42.9081 1407 37.51
43.0248 1579 39.7366
43.1415 1686 41.0609
43.2582 1767 42.0357
43.375 1791 42.3202
43.4918 1794 42.3556
43.6087 1848 42.9884
43.7256 1795 42.3674
43.8425 1775 42.1307
43.9595 1718 41.4488
44.0765 1665 40.8044
44.1935 1561 39.5095
44.3106 1640 40.4969
44.4277 1555 39.4335
44.5448 1527 39.0768
44.6619 1566 39.5727
44.7791 1607 40.0874
44.8963 1599 39.9875
45.0136 1569 39.6106
45.1308 1601 40.0125
45.2481 1569 39.6106
45.3654 1553 39.4081
45.4827 1508 38.833
45.6001 1629 40.3609
45.7174 1551 39.3827
45.8348 1598 39.975
45.9522 1519 38.9744
46.0697 1375 37.081
46.1871 1254 35.4119
46.3046 1201 34.6554
46.422 1155 33.9853
46.5395 1310 36.1939
46.657 1424 37.7359
46.7745 1443 37.9868
46.892 1442 37.9737
47.0096 1548 39.3446
47.1271 1496 38.6782
47.2446 1579 39.7366
47.3622 1464 38.2623
47.4797 1496 38.6782
47.5973 1426 37.7624
47.7149 1357 36.8375
47.8324 1303 36.0971
47.95 1288 35.8887
48.0675 1257 35.4542
48.1851 1233 35.1141
48.3027 1294 35.9722
48.4202 1286 35.8608
48.5378 1334 36.524
48.6554 1397 37.3765
48.7729 1345 36.6742
48.8904 1415 37.6165
49.008 1391 37.2961
49.1255 1413 37.5899
49.243 1415 37.6165
49.3605 1467 38.3014
49.478 1440 37.9473
49.5955 1330 36.4692
49.713 1247 35.3129
49.8304 1136 33.7046
49.9479 1160 34.0588
50.0653 1302 36.0832
50.1827 1433 37.855
50.3001 1590 39.8748
50.4175 1615 40.1871
50.5348 1690 41.1096
50.6521 1755 41.8927
50.7694 1764 42
50.8867 1824 42.7083
51.004 1815 42.6028
51.1212 1906 43.6578
51.2384 1822 42.6849
51.3556 1940 44.0454
51.4727 1858 43.1045
51.5899 1865 43.1856
51.707 1884 43.4051
51.824 1922 43.8406
51.9411 2041 45.1774
52.0581 2049 45.2659
52.175 2114 45.9783
52.2919 2124 46.0869
52.4088 2229 47.2123
52.5257 2196 46.8615
52.6425 2187 46.7654
52.7593 2346 48.4355
52.876 2374 48.7237
52.9927 2266 47.6025
53.1094 2271 47.655
53.226 2057 45.3542
53.3426 1911 43.715
53.4591 1754 41.8808
53.5756 1935 43.9886
53.692 2029 45.0444
53.8084 2217 47.085
53.9248 2526 50.2593
54.0411 2474 49.7393
54.1573 2587 50.8626
54.2735 0 1
54.3896 0 1
54.5057 0 1
54.6217 0 1
54.7377 0 1
54.8537 0 1
54.9695 0 1
55.0853 0 1
55.2011 0 1
55.3168 0 1
55.4324 0 1
57.824 0 1
57.9396 0 1
58.0553 0 1
58.1711 0 1
58.2869 0 1
58.4028 0 1
58.5187 0 1
58.6347 0 1
58.7508 0 1
58.8669 0 1
58.983 3182 56.4092
59.0992 3411 58.4038
59.2155 3369 58.0431
59.3318 3596 59.9667
59.4482 3640 60.3324
59.5646 3596 59.9667
59.681 3625 60.208
59.7975 3697 60.803
59.9141 3509 59.2368
60.0306 3344 57.8273
60.1473 3297 57.4195
60.2639 3322 57.6368
60.3807 3182 56.4092
60.4974 3320 57.6194
60.6142 3307 57.5065
60.731 3433 58.5918
60.8479 3635 60.291
60.9648 3699 60.8194
61.0818 3643 60.3573
61.1987 3604 60.0333
61.3158 3722 61.0082
61.4328 3679 60.6548
61.5499 3613 60.1082
61.667 3459 58.8133
61.7841 3209 56.648
61.9013 3009 54.8544
62.0185 2821 53.1131
62.1357 2764 52.5738
62.253 2956 54.3691
62.3702 3301 57.4543
62.4875 3571 59.7578
62.6049 3828 61.8708
62.7222 3813 61.7495
62.8396 3945 62.8092
62.9569 3934 62.7216
63.0743 3948 62.8331
63.1918 3830 61.887
63.3092 3868 62.1932
63.4267 3728 61.0574
63.5441 3714 60.9426
63.6616 3463 58.8473
63.7791 3496 59.127
63.8966 3455 58.7792
64.0142 3554 59.6154
64.1317 3598 59.9833
64.2492 3687 60.7207
64.3668 3837 61.9435
64.4843 3869 62.2013
64.6019 3920 62.6099
64.7195 3926 62.6578
64.837 4018 63.3877
64.9546 4058 63.7024
65.0722 3969 63
65.1898 3797 61.6198
65.3074 3645 60.3738
65.4249 3183 56.4181
65.5425 3121 55.8659
65.6601 2986 54.6443
65.7777 3047 55.1996
65.8952 3464 58.8558
66.0128 3667 60.5558
66.1304 3902 62.466
66.2479 4106 64.0781
66.3655 4139 64.3351
66.483 4261 65.2763
66.6005 4162 64.5136
66.718 4246 65.1613
66.8355 4166 64.5446
66.953 4313 65.6734
67.0705 4021 63.4114
67.1879 3807 61.7009
67.3054 3892 62.3859
67.4228 3779 61.4736
67.5402 3737 61.131
67.6576 3797 61.6198
67.7749 3870 62.2093
67.8923 4149 64.4127
68.0096 4212 64.8999
68.1269 4403 66.3551
68.2442 4409 66.4003
68.3614 4451 66.7158
68.4787 4518 67.2161
68.5958 4535 67.3424
68.713 4518 67.2161
68.8302 4519 67.2235
68.9473 4341 65.8863
69.0643 3901 62.458
69.1814 3516 59.2959
69.2984 3381 58.1464
69.4154 3654 60.4483
69.5323 3804 61.6766
69.6492 4215 64.923
69.7661 4586 67.72
69.8829 4822 69.4406
69.9997 4883 69.8785
70.1165 4950 70.3562
70.2332 4936 70.2567
70.3499 4959 70.4202
70.4665 4928 70.1997
70.5831 4928 70.1997
70.6996 4673 68.3593
70.8161 4673 68.3593
70.9326 4425 66.5207
71.049 4378 66.1665
71.1653 4027 63.4586
71.2817 4268 65.3299
71.3979 4123 64.2106
71.5141 4236 65.0846
71.6303 4492 67.0224
71.7464 4335 65.8407
71.8624 0 1
71.9784 0 1
72.0944 0 1
72.2102 0 1
72.3261 0 1
72.4418 0 1
72.5575 0 1
72.6732 0 1
75.1054 0 1
75.2209 0 1
75.3365 0 1
75.4521 0 1
75.5678 0 1
75.6835 0 1
75.7993 0 1
75.9151 0 1
76.031 0 1
76.147 4457 66.7608
76.263 4596 67.7938
76.3791 4424 66.5132
76.4952 4405 66.3702
76.6113 4343 65.9014
76.7276 4596 67.7938
76.8438 4670 68.3374
76.9601 4895 69.9643
77.0765 5107 71.4633
77.1929 5342 73.089
77.3093 5337 73.0548
77.4258 5367 73.2598
77.5423 5368 73.2666
77.6589 5343 73.0958
77.7755 5101 71.4213
77.8921 4984 70.5975
78.0088 4610 67.897
78.1256 4049 63.6318
78.2423 3893 62.3939
78.3591 3718 60.9754
78.4759 3977 63.0635
78.5928 4296 65.5439
78.7097 4692 68.4982
78.8266 5307 72.8492
78.9436 5069 71.1969
79.0606 5353 73.1642
79.1776 5382 73.3621
79.2946 5350 73.1437
79.4117 5299 72.7942
79.5288 5305 72.8354
79.6459 5118 71.5402
79.7631 4977 70.5479
79.8802 4835 69.5342
79.9974 4693 68.5055
80.1147 4555 67.4907
80.2319 4217 64.9384
80.3491 4485 66.9701
80.4664 4530 67.3053
80.5837 4718 68.6877
80.701 5023 70.8731
80.8183 5222 72.2634
80.9357 5128 71.6101
81.053 5285 72.698
81.1704 5204 72.1388
81.2877 5040 70.993
81.4051 5187 72.0208
81.5225 5118 71.5402
81.6399 4534 67.335
81.7573 4327 65.7799
81.8747 4009 63.3167
81.9922 3719 60.9836
82.1096 3726 61.041
82.227 3976 63.0555
82.3444 4528 67.2904
82.4619 4865 69.7496
82.5793 4918 70.1285
82.6967 5163 71.854
82.8142 5032 70.9366
82.9316 5030 70.9225
83.049 5033 70.9436
83.1664 4992 70.6541
83.2838 4885 69.8928
83.4012 4801 69.2892
83.5186 4474 66.888
83.636 4262 65.284
83.7534 4134 64.2962
83.8708 3858 62.1128
83.9881 4013 63.3482
84.1055 4193 64.7534
84.2228 4384 66.2118
84.3401 4507 67.1342
84.4575 4825 69.4622
84.5747 5085 71.3092
84.692 5088 71.3302
84.8093 5022 70.8661
84.9265 5002 70.7248
85.0437 4902 70.0143
85.1609 4878 69.8427
85.2781 4323 65.7495
85.3952 3973 63.0317
85.5123 3881 62.2977
85.6294 3678 60.6465
85.7465 3895 62.4099
85.8636 4287 65.4752
85.9806 4679 68.4032
86.0976 5021 70.859
86.2145 5268 72.581
86.3315 5233 72.3395
86.4484 5611 74.9066
86.5652 5415 73.5867
86.682 5501 74.1687
86.7988 5342 73.089
86.9156 5306 72.8423
87.0323 5220 72.2496
87.149 5127 71.6031
87.2657 4824 69.455
87.3823 4661 68.2715
87.4988 4437 66.6108
87.6154 4701 68.5638
87.7318 4871 69.7925
87.8483 5172 71.9166
87.9647 5621 74.9733
88.081 5612 74.9133
88.1973 5920 76.9415
88.3136 5840 76.4199
88.4298 5891 76.7529
88.546 5790 76.092
88.6621 5511 74.2361
88.7781 5257 72.5052
88.8942 0 1
89.0101 0 1
89.126 0 1
89.2419 0 1
89.3577 0 1
89.4734 0 1
89.5891 0 1
89.7047 0 1
89.8203 0 1
89.9358 0 1
92.3269 0 1
92.4424 0 1
92.558 0 1
92.6736 0 1
92.7893 0 1
92.905 0 1
93.0208 0 1
93.1366 0 1
93.2525 0 1
93.3685 0 1
93.4845 0 1
93.6005 5738 75.7496
93.7167 5821 76.2955
93.8328 5895 76.7789
93.949 5614 74.9266
94.0653 5738 75.7496
94.1816 5508 74.2159
94.2979 5214 72.208
94.4143 4896 69.9714
94.5307 4651 68.1982
94.6472 4553 67.4759
94.7637 4365 66.0681
94.8803 4656 68.2349
94.9969 5029 70.9154
95.1135 5338 73.0616
95.2302 5551 74.505
95.3469 5592 74.7797
95.4637 5862 76.5637
95.5805 5985 77.3628
95.6973 6064 77.8717
95.8142 6181 78.6193
95.9311 5916 76.9155
96.048 5818 76.2758
96.1649 5856 76.5245
96.2819 5710 75.5645
96.3989 5409 73.5459
96.516 5122 71.5681
96.633 4716 68.6731
96.7501 4682 68.4251
96.8673 4846 69.6132
96.9844 5163 71.854
97.1016 5456 73.8647
97.2188 5813 76.243
97.336 6048 77.7689
97.4532 5939 77.0649
97.5704 6143 78.3773
97.6877 6026 77.6273
97.805 6016 77.5629
97.9223 5895 76.7789
98.0396 5417 73.6003
98.1569 5028 70.9084
98.2743 4827 69.4766
98.3916 4687 68.4617
98.509 4842 69.5845
98.6264 5227 72.298
98.7438 5268 72.581
98.8612 5695 75.4652
98.9786 5906 76.8505
99.096 6075 77.9423
99.2134 6317 79.4796
99.3308 6264 79.1454
99.4482 6395 79.9687
99.5656 6338 79.6116
99.6831 6228 78.9177
99.8005 6178 78.6003
99.9179 5712 75.5778
100.035 5562 74.5788
100.153 5266 72.5672
100.27 4977 70.5479
100.388 4928 70.1997
100.505 5491 74.1013
100.622 5734 75.7232
100.74 6149 78.4156
100.857 6337 79.6053
100.975 6271 79.1896
101.092 6347 79.6681
101.209 6284 79.2717
101.327 6353 79.7057
101.444 6325 79.5299
101.561 6038 77.7046
101.679 5693 75.452
101.796 5302 72.8148
101.913 5127 71.6031
102.03 5075 71.239
102.148 5339 73.0685
102.265 5875 76.6485
102.382 5642 75.1132
102.499 6137 78.339
102.616 6345 79.6555
102.733 6496 80.5978
102.851 6708 81.9024
102.968 6914 83.1505
103.085 6697 81.8352
103.202 6542 80.8826
103.319 6525 80.7775
103.436 6280 79.2465
103.552 6106 78.1409
103.669 5613 74.92
103.786 5179 71.9653
103.903 5093 71.3653
104.02 5604 74.8599
104.137 6135 78.3262
104.253 6754 82.1827
104.37 6538 80.8579
104.487 6698 81.8413
104.603 6863 82.8432
104.72 6745 82.1279
104.836 7140 84.4985
104.953 6640 81.4862
105.069 6387 79.9187
105.186 6063 77.8653
105.302 5797 76.138
105.418 5523 74.3169
105.535 5632 75.0467
105.651 5891 76.7529
105.767 6274 79.2086
105.883 6490 80.5605
105.999 6824 82.6075
106.115 0 1
106.231 0 1
106.347 0 1
106.463 0 1
106.579 0 1
106.694 0 1
106.81 0 1
106.926 0 1
107.041 0 1
107.157 0 1
109.576 0 1
109.692 0 1
109.807 0 1
109.923 0 1
110.039 0 1
110.155 0 1
110.27 0 1
110.386 0 1
110.502 0 1
110.618 5315 72.904
110.735 5721 75.6373
110.851 6115 78.1985
110.967 6134 78.3199
111.083 6389 79.9312
111.199 6523 80.7651
111.316 6625 81.3941
111.432 6830 82.6438
111.549 6629 81.4187
111.665 6656 81.5843
111.782 6342 79.6367
111.898 6149 78.4156
112.015 5868 76.6029
112.132 5430 73.6885
112.248 4996 70.6824
112.365 4843 69.5917
112.482 5183 71.9931
112.599 5391 73.4234
112.716 6004 77.4855
112.832 6154 78.4474
112.949 6245 79.0253
113.066 6294 79.3347
113.183 6027 77.6338
113.3 6087 78.0192
113.417 6096 78.0769
113.534 5787 76.0723
113.652 5594 74.793
113.769 5417 73.6003
113.886 5050 71.0634
114.003 4855 69.6778
114.12 4804 69.3109
114.238 5143 71.7147
114.355 5378 73.3348
114.472 5574 74.6592
114.589 5521 74.3034
114.707 5681 75.3724
114.824 5669 75.2928
114.942 5822 76.302
115.059 6032 77.666
115.176 5954 77.1622
115.294 5932 77.0195
115.411 5727 75.6769
115.529 5576 74.6726
115.646 5260 72.5259
115.764 4905 70.0357
115.881 4493 67.0298
115.999 4592 67.7643
116.116 4825 69.4622
116.234 5435 73.7225
116.351 5754 75.8551
116.469 5877 76.6616
116.586 5846 76.4591
116.704 5944 77.0973
116.821 5934 77.0325
116.939 6002 77.4726
117.056 5926 76.9805
117.174 5730 75.6968
117.291 5579 74.6927
117.409 5415 73.5867
117.526 5035 70.9577
117.644 4933 70.2353
117.761 5064 71.1618
117.879 5196 72.0833
117.996 5385 73.3826
118.114 5600 74.8331
118.231 5673 75.3193
118.349 5664 75.2596
118.466 5965 77.2334
118.584 5902 76.8245
118.701 6224 78.8923
118.819 6102 78.1153
118.936 5863 76.5702
119.053 5890 76.7463
119.171 5566 74.6056
119.288 5195 72.0763
119.405 4848 69.6276
119.523 4430 66.5582
119.64 4584 67.7052
119.757 4883 69.8785
119.875 5281 72.6705
119.992 5530 74.364
120.109 5679 75.3591
120.226 5989 77.3886
120.343 5887 76.7268
120.46 5741 75.7694
120.578 6036 77.6917
120.695 5871 76.6225
120.812 5714 75.591
120.929 5703 75.5182
121.046 5389 73.4098
121.163 5196 72.0833
121.279 5040 70.993
121.396 4936 70.2567
121.513 5012 70.7955
121.63 5308 72.856
121.747 5400 73.4847
121.863 5568 74.619
121.98 5686 75.4056
122.097 5609 74.8933
122.213 5846 76.4591
122.33 5979 77.324
122.446 5973 77.2852
122.563 5661 75.2396
122.679 5766 75.9342
122.795 5601 74.8398
122.912 5413 73.5731
123.028 5118 71.5402
123.144 4574 67.6314
123.26 4321 65.7343
123.377 0 1
123.493 0 1
123.609 0 1
123.725 0 1
123.84 0 1
123.956 0 1
124.072 0 1
124.188 0 1
124.303 0 1
124.419 0 1
126.852 0 1
126.968 0 1
127.083 0 1
127.199 0 1
127.315 0 1
127.431 0 1
127.547 0 1
127.663 0 1
127.779 0 1
127.895 0 1
128.011 0 1
128.127 0 1
128.243 0 1
128.359 4922 70.157
128.476 4821 69.4334
128.592 4776 69.1086
128.708 5292 72.7461
128.825 5812 76.2365
128.941 6310 79.4355
129.058 6412 80.075
129.174 6531 80.8146
129.291 6498 80.6102
129.408 6542 80.8826
129.524 6474 80.4612
129.641 6388 79.925
129.758 6383 79.8937
129.875 6182 78.6257
129.992 6088 78.0256
130.108 5739 75.7562
130.225 5687 75.4122
130.342 5528 74.3505
130.459 5460 73.8918
130.576 5904 76.8375
130.693 5997 77.4403
130.81 6149 78.4156
130.928 6122 78.2432
131.045 6238 78.981
131.162 6270 79.1833
131.279 6610 81.3019
131.396 6560 80.9938
131.513 6177 78.5939
131.631 6184 78.6384
131.748 6088 78.0256
131.865 5415 73.5867
131.983 4877 69.8355
132.1 4777 69.1158
132.217 5251 72.4638
132.335 5586 74.7395
132.452 5998 77.4468
132.57 6245 79.0253
132.687 5998 77.4468
132.804 6485 80.5295
132.922 6255 79.0886
133.039 6236 78.9683
133.157 6226 78.905
133.274 6160 78.4857
133.392 6169 78.543
133.509 5996 77.4338
133.627 5930 77.0065
133.744 5613 74.92
133.862 5535 74.3976
133.979 5537 74.411
134.097 5581 74.7061
134.214 5846 76.4591
134.332 5855 76.518
134.449 5982 77.3434
134.567 6086 78.0128
134.684 6050 77.7817
134.802 6274 79.2086
134.919 6198 78.7274
135.037 6125 78.2624
135.154 6134 78.3199
135.272 5999 77.4532
135.389 5587 74.7462
135.507 4996 70.6824
135.624 4535 67.3424
135.742 4667 68.3154
135.859 5057 71.1126
135.977 5660 75.233
136.094 6052 77.7946
136.211 6063 77.8653
136.329 6213 78.8226
136.446 6236 78.9683
136.564 6242 79.0063
136.681 6299 79.3662
136.798 6176 78.5875
136.915 6160 78.4857
137.033 6132 78.3071
137.15 5933 77.026
137.267 5928 76.9935
137.384 5690 75.4321
137.502 5454 73.8512
137.619 5481 74.0338
137.736 5461 73.8986
137.853 5483 74.0473
137.97 5666 75.2728
138.087 5997 77.4403
138.204 6058 77.8332
138.321 5995 77.4274
138.438 5990 77.3951
138.555 6186 78.6511
138.672 6282 79.2591
138.788 6125 78.2624
138.905 5976 77.3046
139.022 5569 74.6257
139.139 5149 71.7565
139.255 4753 68.942
139.372 4693 68.5055
139.488 5031 70.9295
139.605 5425 73.6546
139.721 5921 76.948
139.838 6116 78.2049
139.954 6268 79.1707
140.071 6167 78.5302
140.187 6339 79.6178
140.303 6150 78.4219
140.419 6082 77.9872
140.535 6140 78.3582
140.652 6152 78.4347
140.768 0 1
140.884 0 1
141 0 1
141.115 0 1
141.231 0 1
141.347 0 1
141.463 0 1
141.578 0 1
141.694 0 1
144.104 0 1
144.219 0 1
144.335 0 1
144.45 0 1
144.566 0 1
144.682 0 1
144.798 0 1
144.914 0 1
145.03 0 1
145.146 5295 72.7668
145.262 5481 74.0338
145.378 5256 72.4983
145.494 5332 73.0205
145.61 5373 73.3008
145.726 5314 72.8972
145.842 5083 71.2952
145.959 5299 72.7942
146.075 5004 70.739
146.192 5083 71.2952
146.308 5014 70.8096
146.425 4813 69.3758
146.541 4889 69.9214
146.658 5082 71.2881
146.774 5051 71.0704
146.891 5120 71.5542
147.008 5308 72.856
147.125 5095 71.3793
147.241 5330 73.0068
147.358 5081 71.2811
147.475 5104 71.4423
147.592 4754 68.9493
147.709 4306 65.6201
147.826 3897 62.426
147.943 3937 62.7455
148.06 4139 64.3351
148.177 4517 67.2086
148.294 4810 69.3542
148.411 5180 71.9722
148.528 5001 70.7177
148.645 5117 71.5332
148.762 4957 70.406
148.88 5039 70.9859
148.997 4823 69.4478
149.114 5268 72.581
149.231 4897 69.9786
149.349 4931 70.2211
149.466 4821 69.4334
149.583 4837 69.5485
149.701 4645 68.1542
149.818 4671 68.3447
149.935 4761 69
150.053 4632 68.0588
150.17 4584 67.7052
150.287 4647 68.1689
150.405 4674 68.3667
150.522 4882 69.8713
150.64 4898 69.9857
150.757 4900 70
150.875 4811 69.3614
150.992 4745 68.884
151.11 4592 67.7643
151.227 4406 66.3777
151.344 4012 63.3404
151.462 3785 61.5224
151.579 3815 61.7657
151.697 4004 63.2772
151.814 4336 65.8483
151.932 4733 68.7968
152.049 4997 70.6895
152.167 5020 70.852
152.284 4981 70.5762
152.402 5006 70.7531
152.519 4903 70.0214
152.636 5024 70.8802
152.754 4965 70.4628
152.871 4805 69.3181
152.989 4929 70.2068
153.106 4841 69.5773
153.223 4808 69.3397
153.341 4730 68.775
153.458 4685 68.4471
153.575 4625 68.0074
153.693 4659 68.2569
153.81 4603 67.8454
153.927 4617 67.9485
154.044 4610 67.897
154.162 4796 69.2532
154.279 5052 71.0774
154.396 4991 70.647
154.513 5032 70.9366
154.63 4893 69.95
154.747 4721 68.7095
154.864 4659 68.2569
154.981 4245 65.1537
155.098 4105 64.0703
155.215 4036 63.5295
155.332 4166 64.5446
155.449 4606 67.8675
155.566 4780 69.1375
155.683 4902 70.0143
155.8 5030 70.9225
155.917 5106 71.4563
156.033 5093 71.3653
156.15 0 1
156.267 0 1
156.383 0 1
156.5 0 1
156.617 0 1
156.733 0 1
156.85 0 1
156.966 0 1
157.082 0 1
157.199 0 1
157.315 0 1
157.431 0 1
157.547 0 1
157.664 0 1
157.78 0 1
157.896 0 1
158.012 0 1
158.128 0 1
158.244 0 1
158.359 0 1
158.475 0 1
158.591 0 1
158.706 0 1
