
6.15755 0 1
6.2731 0 1
6.3887 0 1
6.50437 0 1
6.62009 0 1
6.73587 0 1
6.8517 0 1
6.96759 0 1
7.08353 0 1
7.19952 0 1
7.31557 0 1
7.43166 0 1
7.54781 0 1
7.664 0 1
7.78024 0 1
7.89653 0 1
8.01286 0 1
8.12924 0 1
8.24567 0 1
8.36213 0 1
8.47864 0 1
8.59519 0 1
8.71178 0 1
8.82841 0 1
8.94508 0 1
9.06179 0 1
9.17853 0 1
9.29531 0 1
9.41212 0 1
9.52897 0 1
9.64584 0 1
9.76276 0 1
9.8797 0 1
9.99667 0 1
10.1137 0 1
10.2307 0 1
10.3478 0 1
10.4648 0 1
10.5819 0 1
10.6991 0 1
10.8162 0 1
10.9334 0 1
11.0506 0 1
11.1678 0 1
11.285 0 1
11.4023 0 1
11.5196 0 1
11.6369 0 1
11.7542 0 1
11.8715 0 1
11.9888 0 1
12.1062 0 1
12.2235 0 1
12.3409 0 1
12.4582 0 1
12.5756 0 1
12.693 0 1
12.8104 0 1
12.9278 0 1
13.0452 0 1
13.1626 0 1
13.28 0 1
13.3974 0 1
13.5149 0 1
13.6323 0 1
13.7497 0 1
13.8671 0 1
13.9845 0 1
14.1019 0 1
14.2193 0 1
14.3367 0 1
14.4541 0 1
14.5714 0 1
14.6888 0 1
14.8062 0 1
14.9235 0 1
15.0408 8827 93.9521
15.1581 9140 95.6033
15.2755 9141 95.6086
15.3927 9322 96.5505
15.51 9109 95.4411
15.6273 8904 94.361
15.7445 8811 93.8669
15.8617 8809 93.8563
15.9789 9044 95.0999
16.0961 9145 95.6295
16.2132 9855 99.2724
16.3304 10177 100.881
16.4475 10259 101.287
16.5646 10424 102.098
16.6816 10593 102.922
16.7986 10494 102.44
16.9156 10286 101.42
17.0326 10275 101.366
17.1496 10164 100.817
17.2665 10284 101.41
17.3833 10108 100.539
17.5002 10171 100.851
17.617 10378 101.872
17.7338 10488 102.411
17.8505 10706 103.47
17.9672 10941 104.599
18.0839 11016 104.957
18.2005 11416 106.846
18.3171 11750 108.397
18.4337 11790 108.582
18.5502 12065 109.841
18.6666 12181 110.368
18.7831 12213 110.512
18.8994 12042 109.736
19.0158 11652 107.944
19.1321 11418 106.855
19.2483 11097 105.342
19.3645 10831 104.072
19.4806 11060 105.167
19.5967 11351 106.541
19.7128 11553 107.485
19.8288 11970 109.407
19.9447 10906 104.432
20.0606 0 1
20.1764 0 1
20.2922 0 1
20.4079 0 1
20.5236 0 1
20.6392 0 1
20.7548 0 1
20.8702 0 1
23.3078 0 1
23.4233 0 1
23.539 0 1
23.6547 0 1
23.7704 0 1
23.8862 0 1
24.0021 0 1
24.118 0 1
24.234 0 1
24.35 0 1
24.4661 11463 107.065
24.5822 11297 106.287
24.6984 11783 108.55
24.8146 11733 108.319
24.9309 12320 110.995
25.0472 12901 113.583
25.1636 12943 113.767
25.28 13086 114.394
25.3965 13131 114.591
25.513 12617 112.325
25.6296 12908 113.613
25.7462 12694 112.668
25.8628 12577 112.147
25.9795 12487 111.745
26.0962 12576 112.143
26.213 12654 112.49
26.3298 12771 113.009
26.4466 13063 114.293
26.5635 13390 115.715
26.6804 13984 118.254
26.7973 14558 120.657
26.9143 14332 119.716
27.0313 14506 120.441
27.1483 14654 121.054
27.2653 14913 122.119
27.3824 15119 122.959
27.4996 14480 120.333
27.6167 14462 120.258
27.7339 13979 118.233
27.8511 13481 116.108
27.9683 12964 113.86
28.0855 12649 112.468
28.2028 12469 111.665
28.3201 12433 111.503
28.4374 12719 112.779
28.5547 13345 115.521
28.6721 13674 116.936
28.7894 13908 117.932
28.9068 13917 117.97
29.0242 13634 116.765
29.1416 13484 116.121
29.259 12920 113.666
29.3764 12731 112.832
29.4939 12483 111.727
29.6113 12465 111.647
29.7288 12419 111.441
29.8463 12890 113.534
29.9638 13209 114.93
30.0812 13677 116.949
30.1987 13754 117.277
30.3162 14249 119.369
30.4337 14852 121.869
30.5512 14551 120.628
30.6687 14894 122.041
30.7862 15369 123.972
30.9037 15095 122.862
31.0212 15055 122.699
31.1387 15037 122.625
31.2562 14601 120.835
31.3737 14140 118.912
31.4912 13641 116.795
31.6087 13369 115.624
31.7262 13081 114.372
31.8436 12821 113.23
31.9611 13061 114.285
32.0785 13881 117.818
32.1959 14399 119.996
32.3134 14647 121.025
32.4308 14609 120.868
32.5482 14582 120.756
32.6655 14056 118.558
32.7829 13533 116.331
32.9002 13301 115.33
33.0176 13126 114.569
33.1349 13083 114.381
33.2522 13026 114.132
33.3694 13103 114.468
33.4867 13207 114.922
33.6039 13829 117.597
33.7211 14304 119.599
33.8383 14696 121.227
33.9554 15159 123.122
34.0725 14978 122.385
34.1896 15408 124.129
34.3067 15682 125.228
34.4237 15639 125.056
34.5407 15804 125.714
34.6577 15673 125.192
34.7746 15593 124.872
34.8915 14894 122.041
35.0084 14787 121.602
35.1252 14356 119.817
35.242 14079 118.655
35.3587 13660 116.876
35.4755 13468 116.052
35.5921 13435 115.909
35.7088 13915 117.962
35.8254 14186 119.105
35.9419 15089 122.837
36.0584 15148 123.077
36.1749 14919 122.143
36.2913 14612 120.88
36.4077 14287 119.528
36.524 13844 117.661
36.6403 13321 115.417
36.7565 13207 114.922
36.8727 12957 113.829
36.9889 13140 114.63
37.1049 13341 115.503
37.221 0 1
37.3369 0 1
37.4529 0 1
37.5687 0 1
37.6845 0 1
37.8003 0 1
37.916 0 1
38.0316 0 1
38.1472 0 1
40.5851 0 1
40.7008 0 1
40.8164 0 1
40.9322 0 1
41.048 0 1
41.1639 0 1
41.2798 0 1
41.3958 0 1
41.5118 0 1
41.6279 0 1
41.744 11323 106.41
41.8602 11299 106.297
41.9765 11455 107.028
42.0928 11432 106.921
42.2091 11584 107.629
42.3255 12124 110.109
42.4419 12520 111.893
42.5584 13162 114.726
42.675 13579 116.529
42.7915 13931 118.03
42.9081 14119 118.823
43.0248 14351 119.796
43.1415 14396 119.983
43.2582 14545 120.603
43.375 14772 121.54
43.4918 14387 119.946
43.6087 14111 118.79
43.7256 13896 117.881
43.8425 13602 116.628
43.9595 13267 115.182
44.0765 12687 112.637
44.1935 12253 110.693
44.3106 11772 108.499
44.4277 11915 109.156
44.5448 12331 111.045
44.6619 12403 111.369
44.7791 12653 112.486
44.8963 12603 112.263
45.0136 12449 111.575
45.1308 11883 109.009
45.2481 11158 105.631
45.3654 10488 102.411
45.4827 10404 102
45.6001 10131 100.653
45.7174 9612 98.0408
45.8348 10261 101.297
45.9522 10683 103.359
46.0697 10936 104.575
46.1871 11401 106.775
46.3046 11638 107.88
46.422 11885 109.018
46.5395 12212 110.508
46.657 12231 110.594
46.7745 12515 111.87
46.892 12404 111.373
47.0096 12473 111.683
47.1271 12474 111.687
47.2446 12086 109.936
47.3622 11703 108.18
47.4797 11363 106.597
47.5973 10952 104.652
47.7149 10411 102.034
47.8324 10308 101.528
47.95 10050 100.25
48.0675 10172 100.856
48.1851 10519 102.562
48.3027 10686 103.373
48.4202 10553 102.728
48.5378 10388 101.922
48.6554 9718 98.5799
48.7729 9305 96.4624
48.8904 8799 93.803
49.008 8616 92.8224
49.1255 8385 91.5696
49.243 8325 91.2414
49.3605 8606 92.7685
49.478 9050 95.1315
49.5955 9400 96.9536
49.713 9789 98.9394
49.8304 10260 101.292
49.9479 10829 104.062
50.0653 11350 106.536
50.1827 11331 106.447
50.3001 11483 107.159
50.4175 11801 108.632
50.5348 11813 108.688
50.6521 11924 109.197
50.7694 11937 109.257
50.8867 11677 108.06
51.004 11761 108.448
51.1212 11646 107.917
51.2384 11548 107.462
51.3556 11538 107.415
51.4727 11533 107.392
51.5899 11765 108.467
51.707 12479 111.709
51.824 12672 112.57
51.9411 13306 115.352
52.0581 13457 116.004
52.175 13010 114.061
52.2919 12422 111.454
52.4088 12110 110.045
52.5257 11534 107.396
52.6425 11554 107.49
52.7593 11486 107.173
52.876 11565 107.541
52.9927 12352 111.14
53.1094 13470 116.06
53.226 14067 118.604
53.3426 15005 122.495
53.4591 15936 126.238
53.5756 16550 128.647
53.692 16920 130.077
53.8084 17427 132.011
53.9248 17604 132.68
54.0411 17775 133.323
54.1573 18100 134.536
54.2735 0 1
54.3896 0 1
54.5057 0 1
54.6217 0 1
54.7377 0 1
54.8537 0 1
54.9695 0 1
55.0853 0 1
55.2011 0 1
55.3168 0 1
55.4324 0 1
57.824 0 1
57.9396 0 1
58.0553 0 1
58.1711 0 1
58.2869 0 1
58.4028 0 1
58.5187 0 1
58.6347 0 1
58.7508 0 1
58.8669 0 1
58.983 20421 142.902
59.0992 21071 145.159
59.2155 21644 147.119
59.3318 21742 147.452
59.4482 21321 146.017
59.5646 21201 145.606
59.681 20912 144.61
59.7975 20699 143.871
59.9141 20464 143.052
60.0306 20128 141.873
60.1473 19854 140.904
60.2639 19856 140.911
60.3807 19944 141.223
60.4974 19835 140.837
60.6142 20015 141.474
60.731 19238 138.701
60.8479 18265 135.148
60.9648 17625 132.759
61.0818 16388 128.016
61.1987 16058 126.72
61.3158 15773 125.591
61.4328 15738 125.451
61.5499 16128 126.996
61.667 16786 129.561
61.7841 17722 133.124
61.9013 18701 136.752
62.0185 19267 138.806
62.1357 20004 141.435
62.253 20483 143.119
62.3702 20904 144.582
62.4875 20966 144.796
62.6049 21392 146.26
62.7222 21456 146.479
62.8396 21394 146.267
62.9569 21148 145.424
63.0743 20844 144.375
63.1918 20211 142.165
63.3092 19768 140.599
63.4267 19771 140.609
63.5441 19320 138.996
63.6616 19032 137.957
63.7791 19210 138.6
63.8966 19544 139.8
64.0142 19410 139.32
64.1317 19767 140.595
64.2492 18725 136.839
64.3668 18092 134.507
64.4843 16936 130.138
64.6019 15974 126.388
64.7195 15189 123.244
64.837 14664 121.095
64.9546 14900 122.066
65.0722 15166 123.15
65.1898 15824 125.793
65.3074 16853 129.819
65.4249 17462 132.144
65.5425 18426 135.742
65.6601 19446 139.449
65.7777 20408 142.857
65.8952 20857 144.42
66.0128 21226 145.691
66.1304 21197 145.592
66.2479 21503 146.639
66.3655 21323 146.024
66.483 21215 145.654
66.6005 21123 145.338
66.718 21082 145.196
66.8355 20435 142.951
66.953 20171 142.025
67.0705 20083 141.715
67.1879 20070 141.669
67.3054 19889 141.028
67.4228 19964 141.294
67.5402 20577 143.447
67.6576 20480 143.108
67.7749 20230 142.232
67.8923 20427 142.923
68.0096 19437 139.417
68.1269 18247 135.081
68.2442 17110 130.805
68.3614 16136 127.028
68.4787 15864 125.952
68.5958 15668 125.172
68.713 16345 127.848
68.8302 17453 132.11
68.9473 18534 136.14
69.0643 19769 140.602
69.1814 21281 145.88
69.2984 22240 149.131
69.4154 23315 152.693
69.5323 23987 154.877
69.6492 24941 157.927
69.7661 25181 158.685
69.8829 25431 159.471
69.9997 26024 161.32
70.1165 25668 160.212
70.2332 25873 160.851
70.3499 25394 159.355
70.4665 25157 158.61
70.5831 25018 158.171
70.6996 24721 157.229
70.8161 24426 156.288
70.9326 24453 156.375
71.049 24352 156.051
71.1653 24650 157.003
71.2817 24849 157.636
71.3979 25040 158.24
71.5141 23710 153.981
71.6303 22066 148.546
71.7464 18652 136.572
71.8624 0 1
71.9784 0 1
72.0944 0 1
72.2102 0 1
72.3261 0 1
72.4418 0 1
72.5575 0 1
72.6732 0 1
75.1054 0 1
75.2209 0 1
75.3365 0 1
75.4521 0 1
75.5678 0 1
75.6835 0 1
75.7993 0 1
75.9151 0 1
76.031 0 1
76.147 24561 156.719
76.263 25831 160.72
76.3791 26992 164.292
76.4952 27997 167.323
76.6113 28561 169
76.7276 29005 170.309
76.8438 28295 168.211
76.9601 26686 163.359
77.0765 24830 157.575
77.1929 22742 150.805
77.3093 20867 144.454
77.4258 19665 140.232
77.5423 19321 139
77.6589 19623 140.082
77.7755 20775 144.135
77.8921 22808 151.023
78.0088 25164 158.632
78.1256 27231 165.018
78.2423 29082 170.534
78.3591 30387 174.319
78.4759 30909 175.81
78.5928 31906 178.623
78.7097 31381 177.147
78.8266 30687 175.177
78.9436 32988 181.626
79.0606 31457 177.361
79.1776 31227 176.712
79.2946 31321 176.977
79.4117 31113 176.389
79.5288 30595 174.914
79.6459 30232 173.874
79.7631 29103 170.596
79.8802 28735 169.514
79.9974 28786 169.664
80.1147 29288 171.137
80.2319 29761 172.514
80.3491 30538 174.751
80.4664 30225 173.853
80.5837 29452 171.616
80.701 26813 163.747
80.8183 23959 154.787
80.9357 21836 147.77
81.053 20408 142.857
81.1704 19546 139.807
81.2877 19073 138.105
81.4051 20142 141.923
81.5225 21898 147.98
81.6399 24552 156.691
81.7573 26830 163.799
81.8747 28025 167.407
81.9922 30111 173.525
82.1096 30933 175.878
82.227 31241 176.751
82.3444 31107 176.372
82.4619 31654 177.916
82.5793 31730 178.129
82.6967 30996 176.057
82.8142 30960 175.955
82.9316 30277 174.003
83.049 29922 172.98
83.1664 29418 171.517
83.2838 28951 170.15
83.4012 28170 167.839
83.5186 28115 167.675
83.636 28006 167.35
83.7534 28024 167.404
83.8708 29042 170.417
83.9881 29428 171.546
84.1055 28944 170.129
84.2228 27873 166.952
84.3401 25859 160.807
84.4575 24099 155.239
84.5747 21598 146.963
84.692 20006 141.443
84.8093 18899 137.474
84.9265 19217 138.625
85.0437 20667 143.76
85.1609 22798 150.99
85.2781 25330 159.154
85.3952 27557 166.003
85.5123 29996 173.194
85.6294 32260 179.611
85.7465 33630 183.385
85.8636 34618 186.059
85.9806 35131 187.433
86.0976 35599 188.677
86.2145 36007 189.755
86.3315 38050 195.064
86.4484 35383 188.104
86.5652 36571 191.235
86.682 36840 191.937
86.7988 36898 192.089
86.9156 36595 191.298
87.0323 36517 191.094
87.149 36183 190.218
87.2657 36404 190.798
87.3823 37491 193.626
87.4988 38077 195.133
87.6154 38886 197.195
87.7318 38336 195.796
87.8483 36442 190.898
87.9647 33505 183.044
88.081 30760 175.385
88.1973 27845 166.868
88.3136 26098 161.549
88.4298 25868 160.835
88.546 26264 162.062
88.6621 28638 169.228
88.7781 31726 178.118
88.8942 0 1
89.0101 0 1
89.126 0 1
89.2419 0 1
89.3577 0 1
89.4734 0 1
89.5891 0 1
89.7047 0 1
89.8203 0 1
89.9358 0 1
92.3269 0 1
92.4424 0 1
92.558 0 1
92.6736 0 1
92.7893 0 1
92.905 0 1
93.0208 0 1
93.1366 0 1
93.2525 0 1
93.3685 0 1
93.4845 0 1
93.6005 29395 171.45
93.7167 28509 168.846
93.8328 28555 168.982
93.949 29935 173.017
94.0653 31719 178.098
94.1816 34582 185.962
94.2979 38494 196.199
94.4143 41101 202.734
94.5307 43656 208.94
94.6472 46259 215.079
94.7637 47324 217.541
94.8803 47761 218.543
94.9969 47976 219.034
95.1135 48023 219.142
95.2302 48331 219.843
95.3469 48570 220.386
95.4637 48532 220.3
95.5805 48111 219.342
95.6973 48303 219.779
95.8142 47935 218.941
95.9311 47620 218.22
96.048 47219 217.299
96.1649 46471 215.571
96.2819 45598 213.537
96.3989 46129 214.777
96.516 47161 217.166
96.633 47639 218.264
96.7501 47275 217.428
96.8673 46363 215.321
96.9844 42979 207.314
97.1016 40030 200.075
97.2188 36938 192.193
97.336 33987 184.356
97.4532 31352 177.065
97.5704 30467 174.548
97.6877 31049 176.207
97.805 32787 181.072
97.9223 35962 189.636
98.0396 38772 196.906
98.1569 42469 206.08
98.2743 44991 212.111
98.3916 47508 217.963
98.509 49183 221.772
98.6264 49907 223.399
98.7438 50501 224.724
98.8612 50245 224.154
98.9786 50874 225.553
99.096 49963 223.524
99.2134 49795 223.148
99.3308 50164 223.973
99.4482 50300 224.277
99.5656 49731 223.004
99.6831 49139 221.673
99.8005 48222 219.595
99.9179 48491 220.207
100.035 47771 218.566
100.153 49275 221.98
100.27 49796 223.15
100.388 50118 223.87
100.505 48022 219.139
100.622 44027 209.826
100.74 41293 203.207
100.857 37741 194.27
100.975 34286 185.165
101.092 32054 179.036
101.209 31268 176.828
101.327 32470 180.194
101.444 34849 186.679
101.561 38796 196.967
101.679 42593 206.381
101.796 45968 214.401
101.913 48928 221.197
102.03 50930 225.677
102.148 51644 227.253
102.265 50607 224.96
102.382 53985 232.347
102.499 52827 229.841
102.616 52393 228.895
102.733 51835 227.673
102.851 52043 228.129
102.968 52527 229.188
103.085 52272 228.631
103.202 51240 226.363
103.319 50954 225.73
103.436 49941 223.475
103.552 49895 223.372
103.669 50884 225.575
103.786 52311 228.716
103.903 52651 229.458
104.02 51232 226.345
104.137 48173 219.483
104.253 45581 213.497
104.37 41670 204.132
104.487 37432 193.474
104.603 35275 187.816
104.72 34532 185.828
104.836 35226 187.686
104.953 37321 193.186
105.069 41335 203.31
105.186 45492 213.289
105.302 49177 221.759
105.418 52080 228.21
105.535 54199 232.807
105.651 55315 235.191
105.767 55950 236.538
105.883 56569 237.842
105.999 56211 237.089
106.115 0 1
106.231 0 1
106.347 0 1
106.463 0 1
106.579 0 1
106.694 0 1
106.81 0 1
106.926 0 1
107.041 0 1
107.157 0 1
109.576 0 1
109.692 0 1
109.807 0 1
109.923 0 1
110.039 0 1
110.155 0 1
110.27 0 1
110.386 0 1
110.502 0 1
110.618 48949 221.244
110.735 50615 224.978
110.851 51523 226.987
110.967 52112 228.281
111.083 52249 228.58
111.199 51812 227.622
111.316 51855 227.717
111.432 51920 227.86
111.549 51644 227.253
111.665 51032 225.903
111.782 49449 222.371
111.898 49078 221.536
112.015 48560 220.363
112.132 49178 221.761
112.248 49912 223.41
112.365 50691 225.147
112.482 47341 217.58
112.599 47098 217.021
112.716 43142 207.707
112.832 39818 199.544
112.949 36493 191.031
113.066 33872 184.043
113.183 32799 181.105
113.3 32630 180.638
113.417 33842 183.962
113.534 36611 191.34
113.652 38780 196.926
113.769 41986 204.905
113.886 45149 212.483
114.003 46185 214.907
114.12 47838 218.719
114.238 48669 220.611
114.355 48869 221.063
114.472 48267 219.698
114.589 49117 221.624
114.707 47292 217.467
114.824 46769 216.261
114.942 47552 218.064
115.059 48043 219.187
115.176 48157 219.447
115.294 47374 217.656
115.411 46172 214.877
115.529 46321 215.223
115.646 46564 215.787
115.764 47070 216.956
115.881 47510 217.968
115.999 47588 218.147
116.116 45425 213.131
116.234 43666 208.964
116.351 40291 200.726
116.469 37631 193.987
116.586 35159 187.507
116.704 32953 181.53
116.821 32096 179.154
116.939 32260 179.611
117.056 33705 183.589
117.174 35547 188.539
117.291 38735 196.812
117.409 41870 204.622
117.526 43617 208.847
117.644 45486 213.274
117.761 45913 214.273
117.879 47298 217.481
117.996 46971 216.728
118.114 47112 217.053
118.231 46792 216.315
118.349 45880 214.196
118.466 45327 212.901
118.584 46479 215.59
118.701 46460 215.546
118.819 46637 215.956
118.936 45344 212.941
119.053 44159 210.14
119.171 43655 208.938
119.288 44314 210.509
119.405 45750 213.892
119.523 45678 213.724
119.64 45099 212.365
119.757 43655 208.938
119.875 42094 205.168
119.992 39870 199.675
120.109 37736 194.258
120.226 35168 187.531
120.343 32791 181.083
120.46 31950 178.746
120.578 31399 177.198
120.695 32091 179.14
120.812 33308 182.505
120.929 35523 188.475
121.046 38220 195.499
121.163 40266 200.664
121.279 42656 206.533
121.396 43210 207.87
121.513 44318 210.518
121.63 45037 212.219
121.747 44816 211.698
121.863 44961 212.04
121.98 43779 209.234
122.097 43575 208.746
122.213 43270 208.014
122.33 43638 208.897
122.446 43875 209.464
122.563 43595 208.794
122.679 42561 206.303
122.795 42181 205.38
122.912 41478 203.661
123.028 41816 204.49
123.144 41787 204.419
123.26 41897 204.688
123.377 0 1
123.493 0 1
123.609 0 1
123.725 0 1
123.84 0 1
123.956 0 1
124.072 0 1
124.188 0 1
124.303 0 1
124.419 0 1
126.852 0 1
126.968 0 1
127.083 0 1
127.199 0 1
127.315 0 1
127.431 0 1
127.547 0 1
127.663 0 1
127.779 0 1
127.895 0 1
128.011 0 1
128.127 0 1
128.243 0 1
128.359 45158 212.504
128.476 44985 212.097
128.592 44629 211.256
128.708 43560 208.71
128.825 41811 204.477
128.941 40153 200.382
129.058 37690 194.139
129.174 35779 189.153
129.291 34775 186.481
129.408 34115 184.702
129.524 33999 184.388
129.641 35276 187.819
129.758 36606 191.327
129.875 38758 196.871
129.992 40820 202.04
130.108 42351 205.794
130.225 43025 207.425
130.342 44139 210.093
130.459 43020 207.413
130.576 45490 213.284
130.693 44053 209.888
130.81 43379 208.276
130.928 42828 206.949
131.045 43141 207.704
131.162 44171 210.169
131.279 44988 212.104
131.396 44211 210.264
131.513 43496 208.557
131.631 42933 207.203
131.748 43507 208.583
131.865 44783 211.62
131.983 44516 210.988
132.1 43752 209.17
132.217 42621 206.449
132.335 41415 203.507
132.452 39664 199.158
132.57 37774 194.355
132.687 35191 187.593
132.804 34905 186.829
132.922 33767 183.758
133.039 33505 183.044
133.157 33939 184.225
133.274 34795 186.534
133.392 36875 192.029
133.509 38754 196.86
133.627 39997 199.992
133.744 41197 202.97
133.862 41841 204.551
133.979 42039 205.034
134.097 42234 205.509
134.214 41429 203.541
134.332 41809 204.472
134.449 40704 201.752
134.567 40764 201.901
134.684 41500 203.715
134.802 42348 205.786
134.919 42567 206.318
135.037 41817 204.492
135.154 40671 201.671
135.272 41804 204.46
135.389 41752 204.333
135.507 42592 206.378
135.624 41959 204.839
135.742 41416 203.509
135.859 40930 202.312
135.977 39607 199.015
136.094 37606 193.923
136.211 36155 190.145
136.329 34685 186.239
136.446 33409 182.781
136.564 32940 181.494
136.681 32471 180.197
136.798 33294 182.466
136.915 34079 184.605
137.033 35591 188.656
137.15 36562 191.212
137.267 38194 195.433
137.384 38985 197.446
137.502 39549 198.869
137.619 39635 199.085
137.736 40196 200.489
137.853 39122 197.793
137.97 39441 198.598
138.087 37731 194.245
138.204 38627 196.538
138.321 39556 198.887
138.438 40007 200.017
138.555 40504 201.256
138.672 40445 201.109
138.788 39995 199.987
138.905 40090 200.225
139.022 40233 200.582
139.139 40948 202.356
139.255 40363 200.905
139.372 40400 200.998
139.488 39654 199.133
139.605 38374 195.893
139.721 37716 194.206
139.838 35861 189.37
139.954 34585 185.97
140.071 32840 181.218
140.187 32656 180.71
140.303 31968 178.796
140.419 32148 179.299
140.535 32189 179.413
140.652 32700 180.831
140.768 0 1
140.884 0 1
141 0 1
141.115 0 1
141.231 0 1
141.347 0 1
141.463 0 1
141.578 0 1
141.694 0 1
144.104 0 1
144.219 0 1
144.335 0 1
144.45 0 1
144.566 0 1
144.682 0 1
144.798 0 1
144.914 0 1
145.03 0 1
145.146 22453 149.843
145.262 24411 156.24
145.378 25194 158.726
145.494 25536 159.8
145.61 26097 161.546
145.726 26715 163.447
145.842 27558 166.006
145.959 28117 167.681
146.075 28840 169.823
146.192 29039 170.408
146.308 29372 171.383
146.425 29742 172.459
146.541 29653 172.2
146.658 28618 169.169
146.774 28407 168.544
146.891 28496 168.808
147.008 28893 169.979
147.125 28957 170.168
147.241 30205 173.796
147.358 30425 174.428
147.475 30766 175.402
147.592 30288 174.034
147.709 30075 173.421
147.826 30619 174.983
147.943 30694 175.197
148.06 30880 175.727
148.177 30178 173.718
148.294 30338 174.178
148.411 29208 170.903
148.528 29078 170.523
148.645 28074 167.553
148.762 27220 164.985
148.88 26768 163.609
148.997 26130 161.648
149.114 26643 163.227
149.231 26146 161.697
149.349 26163 161.75
149.466 27477 165.762
149.583 27887 166.994
149.701 28578 169.05
149.818 29386 171.423
149.935 29168 170.786
150.053 29480 171.697
150.17 29904 172.928
150.287 29319 171.228
150.405 29889 172.884
150.522 28787 169.667
150.64 28612 169.151
150.757 29063 170.479
150.875 29618 172.099
150.992 29985 173.162
151.11 30619 174.983
151.227 30393 174.336
151.344 30604 174.94
151.462 30167 173.686
151.579 31171 176.553
151.697 30722 175.277
151.814 30738 175.323
151.932 30479 174.582
152.049 30225 173.853
152.167 29286 171.132
152.284 28597 169.106
152.402 28190 167.899
152.519 27465 165.726
152.636 27060 164.499
152.754 27140 164.742
152.871 27154 164.785
152.989 27305 165.242
153.106 27666 166.331
153.223 28235 168.033
153.341 29024 170.364
153.458 29599 172.044
153.575 30039 173.318
153.693 29999 173.202
153.81 30238 173.891
153.927 29875 172.844
154.044 29520 171.814
154.162 28887 169.962
154.279 29025 170.367
154.396 29270 171.085
154.513 30490 174.614
154.63 31398 177.195
154.747 31786 178.286
154.864 32226 179.516
154.981 32054 179.036
155.098 32031 178.972
155.215 32011 178.916
155.332 32207 179.463
155.449 31583 177.716
155.566 31486 177.443
155.683 30739 175.325
155.8 30507 174.663
155.917 29853 172.78
156.033 29320 171.231
156.15 0 1
156.267 0 1
156.383 0 1
156.5 0 1
156.617 0 1
156.733 0 1
156.85 0 1
156.966 0 1
157.082 0 1
157.199 0 1
157.315 0 1
157.431 0 1
157.547 0 1
157.664 0 1
157.78 0 1
157.896 0 1
158.012 0 1
158.128 0 1
158.244 0 1
158.359 0 1
158.475 0 1
158.591 0 1
158.706 0 1
