
6.15755 0 1
6.2731 0 1
6.3887 0 1
6.50437 0 1
6.62009 0 1
6.73587 0 1
6.8517 0 1
6.96759 0 1
7.08353 0 1
7.19952 0 1
7.31557 0 1
7.43166 0 1
7.54781 0 1
7.664 0 1
7.78024 0 1
7.89653 0 1
8.01286 0 1
8.12924 0 1
8.24567 0 1
8.36213 0 1
8.47864 0 1
8.59519 0 1
8.71178 0 1
8.82841 0 1
8.94508 0 1
9.06179 0 1
9.17853 0 1
9.29531 0 1
9.41212 0 1
9.52897 0 1
9.64584 0 1
9.76276 0 1
9.8797 0 1
9.99667 0 1
10.1137 0 1
10.2307 0 1
10.3478 0 1
10.4648 0 1
10.5819 0 1
10.6991 0 1
10.8162 0 1
10.9334 0 1
11.0506 0 1
11.1678 0 1
11.285 0 1
11.4023 0 1
11.5196 0 1
11.6369 0 1
11.7542 0 1
11.8715 0 1
11.9888 0 1
12.1062 0 1
12.2235 0 1
12.3409 0 1
12.4582 0 1
12.5756 0 1
12.693 0 1
12.8104 0 1
12.9278 0 1
13.0452 0 1
13.1626 0 1
13.28 0 1
13.3974 0 1
13.5149 0 1
13.6323 0 1
13.7497 0 1
13.8671 0 1
13.9845 0 1
14.1019 0 1
14.2193 0 1
14.3367 0 1
14.4541 0 1
14.5714 0 1
14.6888 0 1
14.8062 0 1
14.9235 0 1
15.0408 0 0
15.1581 0 0
15.2755 0 0
15.3927 0 0
15.51 0 0
15.6273 0 0
15.7445 0 0
15.8617 0 0
15.9789 0 0
16.0961 0 0
16.2132 0 0
16.3304 0 0
16.4475 0 0
16.5646 0 0
16.6816 0 0
16.7986 0 0
16.9156 0 0
17.0326 0 0
17.1496 0 0
17.2665 0 0
17.3833 0 0
17.5002 0 0
17.617 0 0
17.7338 0 0
17.8505 0 0
17.9672 0 0
18.0839 0 0
18.2005 0 0
18.3171 0 0
18.4337 0 0
18.5502 0 0
18.6666 0 0
18.7831 0 0
18.8994 0 0
19.0158 0 0
19.1321 0 0
19.2483 0 0
19.3645 0 0
19.4806 0 0
19.5967 0 0
19.7128 0 0
19.8288 0 0
19.9447 0 0
20.0606 0 1
20.1764 0 1
20.2922 0 1
20.4079 0 1
20.5236 0 1
20.6392 0 1
20.7548 0 1
20.8702 0 1
23.3078 0 1
23.4233 0 1
23.539 0 1
23.6547 0 1
23.7704 0 1
23.8862 0 1
24.0021 0 1
24.118 0 1
24.234 0 1
24.35 0 1
24.4661 2621 51.1957
24.5822 2819 53.0943
24.6984 2889 53.7494
24.8146 2923 54.0648
24.9309 3076 55.4617
25.0472 2987 54.6535
25.1636 3037 55.109
25.28 3084 55.5338
25.3965 3208 56.6392
25.513 3090 55.5878
25.6296 3112 55.7853
25.7462 3027 55.0182
25.8628 3065 55.3624
25.9795 2964 54.4426
26.0962 2938 54.2033
26.213 2905 53.8981
26.3298 2935 54.1756
26.4466 2924 54.074
26.5635 2799 52.9056
26.6804 2956 54.3691
26.7973 2801 52.9245
26.9143 2844 53.3292
27.0313 2727 52.2207
27.1483 2700 51.9615
27.2653 2470 49.6991
27.3824 2717 52.1249
27.4996 2543 50.4282
27.6167 2658 51.5558
27.7339 2545 50.448
27.8511 2801 52.9245
27.9683 2944 54.2586
28.0855 3146 56.0892
28.2028 3563 59.6909
28.3201 3646 60.3821
28.4374 3793 61.5873
28.5547 3997 63.2218
28.6721 4153 64.4438
28.7894 4453 66.7308
28.9068 4561 67.5352
29.0242 4878 69.8427
29.1416 5009 70.7743
29.259 5253 72.4776
29.3764 5491 74.1013
29.4939 5623 74.9867
29.6113 6068 77.8974
29.7288 6324 79.5236
29.8463 6713 81.9329
29.9638 6840 82.7043
30.0812 7222 84.9824
30.1987 7266 85.2408
30.3162 7427 86.18
30.4337 7766 88.1249
30.5512 7544 86.8562
30.6687 7315 85.5278
30.7862 7213 84.9294
30.9037 7371 85.8545
31.0212 7469 86.4234
31.1387 7539 86.8274
31.2562 7396 86
31.3737 7543 86.8504
31.4912 7821 88.4364
31.6087 8108 90.0444
31.7262 8102 90.0111
31.8436 7991 89.3924
31.9611 7839 88.5381
32.0785 7745 88.0057
32.1959 7599 87.1722
32.3134 7200 84.8528
32.4308 6822 82.5954
32.5482 6637 81.4678
32.6655 6423 80.1436
32.7829 6199 78.7337
32.9002 5942 77.0844
33.0176 5627 75.0133
33.1349 5513 74.2496
33.2522 5265 72.5603
33.3694 4956 70.3989
33.4867 4760 68.9928
33.6039 4559 67.5204
33.7211 4382 66.1967
33.8383 4215 64.923
33.9554 4019 63.3956
34.0725 3833 61.9112
34.1896 3618 60.1498
34.3067 3275 57.2276
34.4237 3048 55.2087
34.5407 2947 54.2863
34.6577 2950 54.3139
34.7746 2918 54.0185
34.8915 2872 53.591
35.0084 2725 52.2015
35.1252 2767 52.6023
35.242 2880 53.6656
35.3587 2758 52.5167
35.4755 2888 53.7401
35.5921 2817 53.0754
35.7088 2661 51.5849
35.8254 2734 52.2877
35.9419 2662 51.5946
36.0584 2630 51.2835
36.1749 2672 51.6914
36.2913 2588 50.8724
36.4077 2633 51.3128
36.524 2539 50.3885
36.6403 2595 50.9411
36.7565 2539 50.3885
36.8727 2596 50.951
36.9889 2621 51.1957
37.1049 2639 51.3712
37.221 0 1
37.3369 0 1
37.4529 0 1
37.5687 0 1
37.6845 0 1
37.8003 0 1
37.916 0 1
38.0316 0 1
38.1472 0 1
40.5851 0 1
40.7008 0 1
40.8164 0 1
40.9322 0 1
41.048 0 1
41.1639 0 1
41.2798 0 1
41.3958 0 1
41.5118 0 1
41.6279 0 1
41.744 2168 46.5618
41.8602 2304 48
41.9765 2167 46.551
42.0928 2355 48.5283
42.2091 2339 48.3632
42.3255 2309 48.0521
42.4419 2255 47.4868
42.5584 2308 48.0416
42.675 2410 49.0918
42.7915 2224 47.1593
42.9081 2280 47.7493
43.0248 2102 45.8476
43.1415 1997 44.6878
43.2582 1859 43.1161
43.375 1922 43.8406
43.4918 1964 44.317
43.6087 2031 45.0666
43.7256 1959 44.2606
43.8425 1903 43.6234
43.9595 1959 44.2606
44.0765 2050 45.2769
44.1935 2197 46.8722
44.3106 2059 45.3762
44.4277 2014 44.8776
44.5448 2023 44.9778
44.6619 1924 43.8634
44.7791 1945 44.1022
44.8963 1994 44.6542
45.0136 1998 44.699
45.1308 1934 43.9773
45.2481 2010 44.833
45.3654 2004 44.7661
45.4827 2067 45.4643
45.6001 1937 44.0114
45.7174 1880 43.359
45.8348 1840 42.8952
45.9522 1876 43.3128
46.0697 1831 42.7902
46.1871 1794 42.3556
46.3046 1779 42.1782
46.422 1727 41.5572
46.5395 1619 40.2368
46.657 1530 39.1152
46.7745 1436 37.8946
46.892 1404 37.47
47.0096 1474 38.3927
47.1271 1582 39.7744
47.2446 1498 38.704
47.3622 1495 38.6652
47.4797 1522 39.0128
47.5973 1472 38.3667
47.7149 1507 38.8201
47.8324 1562 39.5221
47.95 1492 38.6264
48.0675 1525 39.0512
48.1851 1428 37.7889
48.3027 1495 38.6652
48.4202 1546 39.3192
48.5378 1569 39.6106
48.6554 1572 39.6485
48.7729 1570 39.6232
48.8904 1565 39.5601
49.008 1500 38.7298
49.1255 1602 40.025
49.243 1596 39.95
49.3605 1626 40.3237
49.478 1566 39.5727
49.5955 1589 39.8623
49.713 1629 40.3609
49.8304 1693 41.1461
49.9479 1617 40.2119
50.0653 1489 38.5876
50.1827 1427 37.7757
50.3001 1367 36.973
50.4175 1407 37.51
50.5348 1518 38.9615
50.6521 1589 39.8623
50.7694 1642 40.5216
50.8867 1779 42.1782
51.004 1847 42.9767
51.1212 1930 43.9318
51.2384 1994 44.6542
51.3556 1945 44.1022
51.4727 2000 44.7214
51.5899 2099 45.8148
51.707 2130 46.1519
51.824 2223 47.1487
51.9411 2234 47.2652
52.0581 2228 47.2017
52.175 2278 47.7284
52.2919 2324 48.2079
52.4088 2344 48.4149
52.5257 2303 47.9896
52.6425 2384 48.8262
52.7593 2407 49.0612
52.876 2468 49.679
52.9927 2414 49.1325
53.1094 2379 48.775
53.226 2432 49.3153
53.3426 2465 49.6488
53.4591 2543 50.4282
53.5756 2442 49.4166
53.692 2311 48.0729
53.8084 2116 46
53.9248 1982 44.5197
54.0411 2076 45.5631
54.1573 2137 46.2277
54.2735 0 1
54.3896 0 1
54.5057 0 1
54.6217 0 1
54.7377 0 1
54.8537 0 1
54.9695 0 1
55.0853 0 1
55.2011 0 1
55.3168 0 1
55.4324 0 1
57.824 0 1
57.9396 0 1
58.0553 0 1
58.1711 0 1
58.2869 0 1
58.4028 0 1
58.5187 0 1
58.6347 0 1
58.7508 0 1
58.8669 0 1
58.983 2594 50.9313
59.0992 2438 49.3761
59.2155 2463 49.6286
59.3318 2726 52.2111
59.4482 2802 52.9339
59.5646 2908 53.9259
59.681 2947 54.2863
59.7975 3067 55.3805
59.9141 3156 56.1783
60.0306 3164 56.2494
60.1473 3164 56.2494
60.2639 3170 56.3028
60.3807 3207 56.6304
60.4974 3195 56.5243
60.6142 3134 55.9821
60.731 3159 56.205
60.8479 3267 57.1577
60.9648 3226 56.7979
61.0818 3168 56.285
61.1987 3169 56.2939
61.3158 3219 56.7362
61.4328 3168 56.285
61.5499 3337 57.7668
61.667 3241 56.9298
61.7841 3338 57.7754
61.9013 3294 57.3934
62.0185 3196 56.5332
62.1357 3086 55.5518
62.253 3010 54.8635
62.3702 2691 51.8748
62.4875 2668 51.6527
62.6049 2638 51.3615
62.7222 2722 52.1728
62.8396 2870 53.5724
62.9569 2941 54.231
63.0743 2879 53.6563
63.1918 3098 55.6597
63.3092 3129 55.9375
63.4267 3103 55.7046
63.5441 3105 55.7225
63.6616 3197 56.542
63.7791 3195 56.5243
63.8966 3115 55.8122
64.0142 3212 56.6745
64.1317 3111 55.7763
64.2492 3129 55.9375
64.3668 3201 56.5774
64.4843 3129 55.9375
64.6019 3062 55.3353
64.7195 3071 55.4166
64.837 3210 56.6569
64.9546 3142 56.0535
65.0722 3178 56.3738
65.1898 3211 56.6657
65.3074 3146 56.0892
65.4249 3104 55.7136
65.5425 3124 55.8928
65.6601 3041 55.1453
65.7777 3035 55.0908
65.8952 2615 51.1371
66.0128 2481 49.8096
66.1304 2527 50.2693
66.2479 2586 50.8527
66.3655 2706 52.0192
66.483 2814 53.0471
66.6005 2888 53.7401
66.718 3034 55.0818
66.8355 3050 55.2268
66.953 3127 55.9196
67.0705 3136 56
67.1879 3065 55.3624
67.3054 3178 56.3738
67.4228 3169 56.2939
67.5402 3184 56.4269
67.6576 3246 56.9737
67.7749 3193 56.5066
67.8923 3224 56.7803
68.0096 3207 56.6304
68.1269 3200 56.5685
68.2442 3286 57.3236
68.3614 3334 57.7408
68.4787 3259 57.0877
68.5958 3193 56.5066
68.713 3294 57.3934
68.8302 3288 57.3411
68.9473 3386 58.1893
69.0643 3408 58.3781
69.1814 3387 58.1979
69.2984 3328 57.6888
69.4154 3102 55.6956
69.5323 2965 54.4518
69.6492 2832 53.2165
69.7661 2741 52.3546
69.8829 2894 53.7959
69.9997 3033 55.0727
70.1165 3249 57
70.2332 3296 57.4108
70.3499 3423 58.5064
70.4665 3610 60.0833
70.5831 3626 60.2163
70.6996 3788 61.5467
70.8161 3784 61.5142
70.9326 3875 62.2495
71.049 3829 61.8789
71.1653 3939 62.7615
71.2817 3778 61.4654
71.3979 3822 61.8223
71.5141 3788 61.5467
71.6303 3807 61.7009
71.7464 3536 59.4643
71.8624 0 1
71.9784 0 1
72.0944 0 1
72.2102 0 1
72.3261 0 1
72.4418 0 1
72.5575 0 1
72.6732 0 1
75.1054 0 1
75.2209 0 1
75.3365 0 1
75.4521 0 1
75.5678 0 1
75.6835 0 1
75.7993 0 1
75.9151 0 1
76.031 0 1
76.147 3772 61.4166
76.263 4150 64.4205
76.3791 4209 64.8768
76.4952 4346 65.9242
76.6113 4330 65.8027
76.7276 4212 64.8999
76.8438 4207 64.8614
76.9601 4320 65.7267
77.0765 4387 66.2344
77.1929 4304 65.6049
77.3093 4396 66.3023
77.4258 4351 65.9621
77.5423 4228 65.0231
77.6589 4330 65.8027
77.7755 4259 65.261
77.8921 4356 66
78.0088 4325 65.7647
78.1256 4378 66.1665
78.2423 4244 65.146
78.3591 4175 64.6142
78.4759 4004 63.2772
78.5928 3554 59.6154
78.7097 3339 57.7841
78.8266 3171 56.3116
78.9436 3069 55.3986
79.0606 3230 56.8331
79.1776 3634 60.2827
79.2946 3851 62.0564
79.4117 3984 63.1189
79.5288 4163 64.5213
79.6459 4192 64.7457
79.7631 4331 65.8103
79.8802 4240 65.1153
79.9974 4222 64.9769
80.1147 4259 65.261
80.2319 4301 65.582
80.3491 4247 65.169
80.4664 4295 65.5362
80.5837 4406 66.3777
80.701 4136 64.3117
80.8183 4328 65.7875
80.9357 4333 65.8255
81.053 4234 65.0692
81.1704 4245 65.1537
81.2877 4192 64.7457
81.4051 4169 64.5678
81.5225 4118 64.1716
81.6399 4079 63.867
81.7573 4219 64.9538
81.8747 4025 63.4429
81.9922 4036 63.5295
82.1096 3810 61.7252
82.227 3340 57.7927
82.3444 3058 55.2992
82.4619 2912 53.963
82.5793 2860 53.479
82.6967 3060 55.3173
82.8142 3273 57.2101
82.9316 3347 57.8533
83.049 3552 59.5987
83.1664 3636 60.2993
83.2838 3665 60.5392
83.4012 3636 60.2993
83.5186 3600 60
83.636 3523 59.3549
83.7534 3523 59.3549
83.8708 3602 60.0167
83.9881 3536 59.4643
84.1055 3476 58.9576
84.2228 3537 59.4727
84.3401 3466 58.8727
84.4575 3549 59.5735
84.5747 3590 59.9166
84.692 3452 58.7537
84.8093 3514 59.279
84.9265 3458 58.8048
85.0437 3490 59.0762
85.1609 3490 59.0762
85.2781 3340 57.7927
85.3952 3374 58.0861
85.5123 3297 57.4195
85.6294 3393 58.2495
85.7465 3212 56.6745
85.8636 2896 53.8145
85.9806 2643 51.4101
86.0976 2670 51.672
86.2145 2822 53.1225
86.3315 3049 55.2178
86.4484 3461 58.8303
86.5652 3594 59.95
86.682 3914 62.562
86.7988 3943 62.7933
86.9156 4031 63.4902
87.0323 4084 63.9062
87.149 4184 64.6838
87.2657 4240 65.1153
87.3823 4359 66.0227
87.4988 4286 65.4675
87.6154 4364 66.0606
87.7318 4477 66.9104
87.8483 4423 66.5056
87.9647 4570 67.6018
88.081 4657 68.2422
88.1973 4598 67.8086
88.3136 4778 69.1231
88.4298 4602 67.838
88.546 4710 68.6294
88.6621 4683 68.4324
88.7781 4750 68.9202
88.8942 0 1
89.0101 0 1
89.126 0 1
89.2419 0 1
89.3577 0 1
89.4734 0 1
89.5891 0 1
89.7047 0 1
89.8203 0 1
89.9358 0 1
92.3269 0 1
92.4424 0 1
92.558 0 1
92.6736 0 1
92.7893 0 1
92.905 0 1
93.0208 0 1
93.1366 0 1
93.2525 0 1
93.3685 0 1
93.4845 0 1
93.6005 4303 65.5973
93.7167 4465 66.8207
93.8328 4639 68.1102
93.949 4422 66.4981
94.0653 4466 66.8281
94.1816 4520 67.2309
94.2979 4485 66.9701
94.4143 4282 65.437
94.5307 4460 66.7832
94.6472 4276 65.3911
94.7637 4221 64.9692
94.8803 4144 64.3739
94.9969 3783 61.5061
95.1135 3602 60.0167
95.2302 3302 57.463
95.3469 3312 57.55
95.4637 3640 60.3324
95.5805 3825 61.8466
95.6973 4168 64.56
95.8142 4180 64.6529
95.9311 4410 66.4078
96.048 4463 66.8057
96.1649 4578 67.6609
96.2819 4503 67.1044
96.3989 4631 68.0515
96.516 4752 68.9348
96.633 4653 68.2129
96.7501 4620 67.9706
96.8673 4748 68.9057
96.9844 4670 68.3374
97.1016 4758 68.9783
97.2188 4640 68.1175
97.336 4660 68.2642
97.4532 4719 68.695
97.5704 4928 70.1997
97.6877 4772 69.0797
97.805 4673 68.3593
97.9223 4620 67.9706
98.0396 4579 67.6683
98.1569 4484 66.9627
98.2743 4609 67.8896
98.3916 4395 66.2948
98.509 4255 65.2304
98.6264 3885 62.3298
98.7438 3612 60.0999
98.8612 3373 58.0775
98.9786 3426 58.532
99.096 3719 60.9836
99.2134 3989 63.1585
99.3308 4194 64.7611
99.4482 4453 66.7308
99.5656 4732 68.7895
99.6831 4888 69.9142
99.8005 4855 69.6778
99.9179 4775 69.1014
100.035 4727 68.7532
100.153 4863 69.7352
100.27 4877 69.8355
100.388 5015 70.8167
100.505 4817 69.4046
100.622 4989 70.6329
100.74 5042 71.007
100.857 5214 72.208
100.975 5007 70.7602
101.092 4917 70.1213
101.209 4981 70.5762
101.327 5131 71.631
101.444 4951 70.3633
101.561 4982 70.5833
101.679 4961 70.4344
101.796 4850 69.6419
101.913 4895 69.9643
102.03 4745 68.884
102.148 4444 66.6633
102.265 4248 65.1767
102.382 3486 59.0424
102.499 3692 60.7618
102.616 3684 60.696
102.733 4072 63.8122
102.851 4499 67.0746
102.968 4532 67.3201
103.085 4676 68.3813
103.202 4797 69.2604
103.319 4711 68.6367
103.436 4747 68.8985
103.552 4612 67.9117
103.669 4657 68.2422
103.786 4627 68.0221
103.903 4710 68.6294
104.02 4634 68.0735
104.137 4728 68.7605
104.253 4634 68.0735
104.37 4553 67.4759
104.487 4768 69.0507
104.603 4729 68.7677
104.72 4711 68.6367
104.836 4770 69.0652
104.953 4738 68.8331
105.069 4652 68.2056
105.186 4689 68.4763
105.302 4782 69.152
105.418 4749 68.913
105.535 4313 65.6734
105.651 4059 63.7103
105.767 3642 60.349
105.883 3481 59
105.999 3643 60.3573
106.115 0 1
106.231 0 1
106.347 0 1
106.463 0 1
106.579 0 1
106.694 0 1
106.81 0 1
106.926 0 1
107.041 0 1
107.157 0 1
109.576 0 1
109.692 0 1
109.807 0 1
109.923 0 1
110.039 0 1
110.155 0 1
110.27 0 1
110.386 0 1
110.502 0 1
110.618 4277 65.3988
110.735 4000 63.2456
110.851 3635 60.291
110.967 3397 58.2838
111.083 3587 59.8916
111.199 3793 61.5873
111.316 4119 64.1794
111.432 4261 65.2763
111.549 4397 66.3099
111.665 4507 67.1342
111.782 4680 68.4105
111.898 4584 67.7052
112.015 4548 67.4389
112.132 4524 67.2607
112.248 4608 67.8823
112.365 4516 67.2012
112.482 4501 67.0895
112.599 4285 65.4599
112.716 4322 65.7419
112.832 4539 67.3721
112.949 4407 66.3852
113.066 4348 65.9394
113.183 4501 67.0895
113.3 4315 65.6887
113.417 4385 66.2193
113.534 4233 65.0615
113.652 4180 64.6529
113.769 4117 64.1639
113.886 4091 63.9609
114.003 4049 63.6318
114.12 3920 62.6099
114.238 3469 58.8982
114.355 3215 56.701
114.472 2977 54.5619
114.589 2987 54.6535
114.707 3157 56.1872
114.824 3309 57.5239
114.942 3603 60.025
115.059 3809 61.7171
115.176 3949 62.8411
115.294 3981 63.0952
115.411 4082 63.8905
115.529 4025 63.4429
115.646 4050 63.6396
115.764 4086 63.9218
115.881 4099 64.0234
115.999 4027 63.4586
116.116 4060 63.7181
116.234 4242 65.1306
116.351 4200 64.8074
116.469 4088 63.9375
116.586 4163 64.5213
116.704 4180 64.6529
116.821 4079 63.867
116.939 4322 65.7419
117.056 4267 65.3223
117.174 4271 65.3529
117.291 4326 65.7723
117.409 4332 65.8179
117.526 4381 66.1891
117.644 4348 65.9394
117.761 4162 64.5136
117.879 3867 62.1852
117.996 3517 59.3043
118.114 3412 58.4123
118.231 3486 59.0424
118.349 3600 60
118.466 3945 62.8092
118.584 4275 65.3835
118.701 4615 67.9338
118.819 4777 69.1158
118.936 4730 68.775
119.053 4578 67.6609
119.171 4830 69.4982
119.288 4891 69.9357
119.405 4927 70.1926
119.523 4863 69.7352
119.64 4861 69.7209
119.757 4922 70.157
119.875 4816 69.3974
119.992 4739 68.8404
120.109 4908 70.0571
120.226 4820 69.4262
120.343 4930 70.214
120.46 5029 70.9154
120.578 4728 68.7605
120.695 4829 69.491
120.812 4733 68.7968
120.929 4781 69.1448
121.046 4804 69.3109
121.163 4687 68.4617
121.279 4698 68.542
121.396 4459 66.7757
121.513 4248 65.1767
121.63 3830 61.887
121.747 3555 59.6238
121.863 3393 58.2495
121.98 3397 58.2838
122.097 3652 60.4318
122.213 3949 62.8411
122.33 4141 64.3506
122.446 4551 67.4611
122.563 4531 67.3127
122.679 4530 67.3053
122.795 4645 68.1542
122.912 4539 67.3721
123.028 4695 68.5201
123.144 4562 67.5426
123.26 4586 67.72
123.377 0 1
123.493 0 1
123.609 0 1
123.725 0 1
123.84 0 1
123.956 0 1
124.072 0 1
124.188 0 1
124.303 0 1
124.419 0 1
126.852 0 1
126.968 0 1
127.083 0 1
127.199 0 1
127.315 0 1
127.431 0 1
127.547 0 1
127.663 0 1
127.779 0 1
127.895 0 1
128.011 0 1
128.127 0 1
128.243 0 1
128.359 5035 70.9577
128.476 5007 70.7602
128.592 5016 70.8237
128.708 5116 71.5262
128.825 5228 72.3049
128.941 5262 72.5396
129.058 5222 72.2634
129.174 5226 72.2911
129.291 5202 72.1249
129.408 5309 72.8629
129.524 5038 70.9789
129.641 5060 71.1337
129.758 5077 71.2531
129.875 5032 70.9366
129.992 4977 70.5479
130.108 5037 70.9718
130.225 4946 70.3278
130.342 4616 67.9412
130.459 4440 66.6333
130.576 4213 64.9076
130.693 3654 60.4483
130.81 3393 58.2495
130.928 3561 59.6741
131.045 3774 61.4329
131.162 4044 63.5925
131.279 4393 66.2797
131.396 4659 68.2569
131.513 4659 68.2569
131.631 4754 68.9493
131.748 4690 68.4836
131.865 4633 68.0661
131.983 4707 68.6076
132.1 4580 67.6757
132.217 4635 68.0808
132.335 4591 67.7569
132.452 4661 68.2715
132.57 4761 69
132.687 4478 66.9179
132.804 4831 69.5054
132.922 4662 68.2788
133.039 4577 67.6535
133.157 4531 67.3127
133.274 4609 67.8896
133.392 4654 68.2202
133.509 4633 68.0661
133.627 4656 68.2349
133.744 4634 68.0735
133.862 4500 67.082
133.979 4387 66.2344
134.097 3997 63.2218
134.214 3648 60.3987
134.332 3358 57.9483
134.449 3389 58.2151
134.567 3413 58.4209
134.684 3664 60.531
134.802 4109 64.1015
134.919 4377 66.1589
135.037 4401 66.34
135.154 4575 67.6387
135.272 4541 67.3869
135.389 4622 67.9853
135.507 4584 67.7052
135.624 4527 67.283
135.742 4594 67.7791
135.859 4552 67.4685
135.977 4637 68.0955
136.094 4650 68.1909
136.211 4714 68.6586
136.329 4544 67.4092
136.446 4426 66.5282
136.564 4709 68.6222
136.681 4676 68.3813
136.798 4552 67.4685
136.915 4584 67.7052
137.033 4550 67.4537
137.15 4540 67.3795
137.267 4450 66.7083
137.384 4507 67.1342
137.502 4396 66.3023
137.619 4227 65.0154
137.736 3994 63.1981
137.853 3515 59.2874
137.97 3108 55.7494
138.087 3400 58.3095
138.204 3508 59.2284
138.321 3663 60.5227
138.438 4131 64.2729
138.555 4307 65.6277
138.672 4494 67.0373
138.788 4558 67.513
138.905 4503 67.1044
139.022 4626 68.0147
139.139 4696 68.5274
139.255 4399 66.325
139.372 4486 66.9776
139.488 4410 66.4078
139.605 4426 66.5282
139.721 4683 68.4324
139.838 4572 67.6166
139.954 4463 66.8057
140.071 4511 67.164
140.187 4387 66.2344
140.303 4393 66.2797
140.419 4519 67.2235
140.535 4539 67.3721
140.652 4638 68.1029
140.768 0 1
140.884 0 1
141 0 1
141.115 0 1
141.231 0 1
141.347 0 1
141.463 0 1
141.578 0 1
141.694 0 1
144.104 0 1
144.219 0 1
144.335 0 1
144.45 0 1
144.566 0 1
144.682 0 1
144.798 0 1
144.914 0 1
145.03 0 1
145.146 3894 62.4019
145.262 4044 63.5925
145.378 3884 62.3217
145.494 4012 63.3404
145.61 4072 63.8122
145.726 4097 64.0078
145.842 4034 63.5138
145.959 4113 64.1327
146.075 4240 65.1153
146.192 4226 65.0077
146.308 4137 64.3195
146.425 3871 62.2174
146.541 3657 60.4731
146.658 3313 57.5587
146.774 3351 57.8878
146.891 3637 60.3075
147.008 3943 62.7933
147.125 4238 65.0999
147.241 4442 66.6483
147.358 4565 67.5648
147.475 4590 67.7495
147.592 4376 66.1513
147.709 4261 65.2763
147.826 4389 66.2495
147.943 4404 66.3626
148.06 4224 64.9923
148.177 4299 65.5668
148.294 4118 64.1716
148.411 4155 64.4593
148.528 4104 64.0625
148.645 4100 64.0312
148.762 4206 64.8537
148.88 4121 64.195
148.997 4081 63.8827
149.114 4279 65.4141
149.231 4180 64.6529
149.349 4243 65.1383
149.466 3944 62.8013
149.583 4188 64.7148
149.701 4255 65.2304
149.818 4330 65.8027
149.935 4086 63.9218
150.053 3768 61.384
150.17 3488 59.0593
150.287 3205 56.6127
150.405 3237 56.8946
150.522 3457 58.7963
150.64 3729 61.0655
150.757 3869 62.2013
150.875 3938 62.7535
150.992 4026 63.4508
151.11 4040 63.561
151.227 4153 64.4438
151.344 4164 64.5291
151.462 4148 64.405
151.579 4011 63.3325
151.697 4076 63.8436
151.814 4233 65.0615
151.932 4083 63.8984
152.049 4076 63.8436
152.167 4109 64.1015
152.284 4166 64.5446
152.402 4152 64.436
152.519 4086 63.9218
152.636 4130 64.2651
152.754 4194 64.7611
152.871 4090 63.9531
152.989 3964 62.9603
153.106 4138 64.3273
153.223 3997 63.2218
153.341 4026 63.4508
153.458 3919 62.6019
153.575 3900 62.45
153.693 3502 59.1777
153.81 3247 56.9825
153.927 2821 53.1131
154.044 2936 54.1849
154.162 3096 55.6417
154.279 3228 56.8155
154.396 3296 57.4108
154.513 3459 58.8133
154.63 3529 59.4054
154.747 3595 59.9583
154.864 3480 58.9915
154.981 3509 59.2368
155.098 3558 59.649
155.215 3505 59.203
155.332 3478 58.9746
155.449 3458 58.8048
155.566 3447 58.7112
155.683 3579 59.8247
155.8 3454 58.7707
155.917 3551 59.5903
156.033 3424 58.515
156.15 0 1
156.267 0 1
156.383 0 1
156.5 0 1
156.617 0 1
156.733 0 1
156.85 0 1
156.966 0 1
157.082 0 1
157.199 0 1
157.315 0 1
157.431 0 1
157.547 0 1
157.664 0 1
157.78 0 1
157.896 0 1
158.012 0 1
158.128 0 1
158.244 0 1
158.359 0 1
158.475 0 1
158.591 0 1
158.706 0 1
