
6.15755 0 1
6.2731 0 1
6.3887 0 1
6.50437 0 1
6.62009 0 1
6.73587 0 1
6.8517 0 1
6.96759 0 1
7.08353 0 1
7.19952 0 1
7.31557 0 1
7.43166 0 1
7.54781 0 1
7.664 0 1
7.78024 0 1
7.89653 0 1
8.01286 0 1
8.12924 0 1
8.24567 0 1
8.36213 0 1
8.47864 0 1
8.59519 0 1
8.71178 0 1
8.82841 0 1
8.94508 0 1
9.06179 0 1
9.17853 0 1
9.29531 0 1
9.41212 0 1
9.52897 0 1
9.64584 0 1
9.76276 0 1
9.8797 0 1
9.99667 0 1
10.1137 0 1
10.2307 0 1
10.3478 0 1
10.4648 0 1
10.5819 0 1
10.6991 0 1
10.8162 0 1
10.9334 0 1
11.0506 0 1
11.1678 0 1
11.285 0 1
11.4023 0 1
11.5196 0 1
11.6369 0 1
11.7542 0 1
11.8715 0 1
11.9888 0 1
12.1062 0 1
12.2235 0 1
12.3409 0 1
12.4582 0 1
12.5756 0 1
12.693 0 1
12.8104 0 1
12.9278 0 1
13.0452 0 1
13.1626 0 1
13.28 0 1
13.3974 0 1
13.5149 0 1
13.6323 0 1
13.7497 0 1
13.8671 0 1
13.9845 0 1
14.1019 0 1
14.2193 0 1
14.3367 0 1
14.4541 0 1
14.5714 0 1
14.6888 0 1
14.8062 0 1
14.9235 0 1
15.0408 0 0
15.1581 0 0
15.2755 0 0
15.3927 0 0
15.51 0 0
15.6273 0 0
15.7445 0 0
15.8617 0 0
15.9789 0 0
16.0961 0 0
16.2132 0 0
16.3304 0 0
16.4475 0 0
16.5646 0 0
16.6816 0 0
16.7986 0 0
16.9156 0 0
17.0326 0 0
17.1496 0 0
17.2665 0 0
17.3833 0 0
17.5002 0 0
17.617 0 0
17.7338 0 0
17.8505 0 0
17.9672 0 0
18.0839 0 0
18.2005 0 0
18.3171 0 0
18.4337 0 0
18.5502 0 0
18.6666 0 0
18.7831 0 0
18.8994 0 0
19.0158 0 0
19.1321 0 0
19.2483 0 0
19.3645 0 0
19.4806 0 0
19.5967 0 0
19.7128 0 0
19.8288 0 0
19.9447 0 0
20.0606 0 1
20.1764 0 1
20.2922 0 1
20.4079 0 1
20.5236 0 1
20.6392 0 1
20.7548 0 1
20.8702 0 1
23.3078 0 1
23.4233 0 1
23.539 0 1
23.6547 0 1
23.7704 0 1
23.8862 0 1
24.0021 0 1
24.118 0 1
24.234 0 1
24.35 0 1
24.4661 541 23.2594
24.5822 669 25.865
24.6984 690 26.2679
24.8146 687 26.2107
24.9309 776 27.8568
25.0472 816 28.5657
25.1636 838 28.9482
25.28 874 29.5635
25.3965 990 31.4643
25.513 1007 31.7333
25.6296 1057 32.5115
25.7462 1091 33.0303
25.8628 1122 33.4963
25.9795 1072 32.7414
26.0962 1090 33.0151
26.213 1065 32.6343
26.3298 1086 32.9545
26.4466 1100 33.1662
26.5635 1059 32.5423
26.6804 967 31.0966
26.7973 968 31.1127
26.9143 929 30.4795
27.0313 983 31.3528
27.1483 954 30.8869
27.2653 1024 32
27.3824 1008 31.749
27.4996 1073 32.7567
27.6167 1041 32.2645
27.7339 1042 32.28
27.8511 958 30.9516
27.9683 938 30.6268
28.0855 992 31.496
28.2028 977 31.257
28.3201 921 30.348
28.4374 921 30.348
28.5547 824 28.7054
28.6721 906 30.0998
28.7894 859 29.3087
28.9068 917 30.282
29.0242 876 29.5973
29.1416 908 30.133
29.259 994 31.5278
29.3764 983 31.3528
29.4939 1035 32.1714
29.6113 1011 31.7962
29.7288 1012 31.8119
29.8463 1064 32.619
29.9638 979 31.289
30.0812 1001 31.6386
30.1987 919 30.315
30.3162 888 29.7993
30.4337 859 29.3087
30.5512 909 30.1496
30.6687 900 30
30.7862 949 30.8058
30.9037 965 31.0644
31.0212 1024 32
31.1387 997 31.5753
31.2562 1002 31.6544
31.3737 1004 31.686
31.4912 966 31.0805
31.6087 911 30.1828
31.7262 903 30.05
31.8436 972 31.1769
31.9611 936 30.5941
32.0785 862 29.3598
32.1959 862 29.3598
32.3134 851 29.1719
32.4308 837 28.931
32.5482 834 28.8791
32.6655 947 30.7734
32.7829 890 29.8329
32.9002 988 31.4325
33.0176 942 30.692
33.1349 956 30.9192
33.2522 989 31.4484
33.3694 1026 32.0312
33.4867 972 31.1769
33.6039 993 31.5119
33.7211 932 30.5287
33.8383 926 30.4302
33.9554 862 29.3598
34.0725 832 28.8444
34.1896 790 28.1069
34.3067 911 30.1828
34.4237 877 29.6142
34.5407 931 30.5123
34.6577 914 30.2324
34.7746 920 30.3315
34.8915 966 31.0805
35.0084 934 30.5614
35.1252 869 29.4788
35.242 808 28.4253
35.3587 889 29.8161
35.4755 852 29.189
35.5921 801 28.3019
35.7088 798 28.2489
35.8254 766 27.6767
35.9419 762 27.6043
36.0584 729 27
36.1749 751 27.4044
36.2913 744 27.2764
36.4077 750 27.3861
36.524 723 26.8887
36.6403 770 27.7489
36.7565 712 26.6833
36.8727 664 25.7682
36.9889 637 25.2389
37.1049 600 24.4949
37.221 0 1
37.3369 0 1
37.4529 0 1
37.5687 0 1
37.6845 0 1
37.8003 0 1
37.916 0 1
38.0316 0 1
38.1472 0 1
40.5851 0 1
40.7008 0 1
40.8164 0 1
40.9322 0 1
41.048 0 1
41.1639 0 1
41.2798 0 1
41.3958 0 1
41.5118 0 1
41.6279 0 1
41.744 541 23.2594
41.8602 578 24.0416
41.9765 590 24.2899
42.0928 624 24.98
42.2091 669 25.865
42.3255 730 27.0185
42.4419 681 26.096
42.5584 752 27.4226
42.675 700 26.4575
42.7915 636 25.219
42.9081 712 26.6833
43.0248 698 26.4197
43.1415 776 27.8568
43.2582 793 28.1603
43.375 779 27.9106
43.4918 824 28.7054
43.6087 829 28.7924
43.7256 764 27.6405
43.8425 829 28.7924
43.9595 828 28.775
44.0765 806 28.3901
44.1935 812 28.4956
44.3106 759 27.55
44.4277 717 26.7769
44.5448 670 25.8844
44.6619 694 26.3439
44.7791 639 25.2784
44.8963 667 25.8263
45.0136 722 26.8701
45.1308 740 27.2029
45.2481 747 27.3313
45.3654 796 28.2135
45.4827 826 28.7402
45.6001 824 28.7054
45.7174 818 28.6007
45.8348 858 29.2916
45.9522 796 28.2135
46.0697 776 27.8568
46.1871 742 27.2397
46.3046 691 26.2869
46.422 708 26.6083
46.5395 694 26.3439
46.657 746 27.313
46.7745 748 27.3496
46.892 741 27.2213
47.0096 818 28.6007
47.1271 808 28.4253
47.2446 851 29.1719
47.3622 822 28.6705
47.4797 794 28.178
47.5973 769 27.7308
47.7149 783 27.9821
47.8324 785 28.0179
47.95 702 26.4953
48.0675 756 27.4955
48.1851 645 25.3969
48.3027 661 25.7099
48.4202 677 26.0192
48.5378 628 25.0599
48.6554 689 26.2488
48.7729 786 28.0357
48.8904 804 28.3549
49.008 778 27.8927
49.1255 823 28.688
49.243 775 27.8388
49.3605 818 28.6007
49.478 795 28.1957
49.5955 782 27.9643
49.713 719 26.8142
49.8304 668 25.8457
49.9479 663 25.7488
50.0653 673 25.9422
50.1827 730 27.0185
50.3001 756 27.4955
50.4175 766 27.6767
50.5348 818 28.6007
50.6521 785 28.0179
50.7694 837 28.931
50.8867 796 28.2135
51.004 764 27.6405
51.1212 778 27.8927
51.2384 798 28.2489
51.3556 715 26.7395
51.4727 687 26.2107
51.5899 744 27.2764
51.707 652 25.5343
51.824 671 25.9037
51.9411 670 25.8844
52.0581 668 25.8457
52.175 705 26.5518
52.2919 710 26.6458
52.4088 814 28.5307
52.5257 831 28.8271
52.6425 812 28.4956
52.7593 789 28.0891
52.876 791 28.1247
52.9927 815 28.5482
53.1094 738 27.1662
53.226 726 26.9444
53.3426 675 25.9808
53.4591 604 24.5764
53.5756 593 24.3516
53.692 576 24
53.8084 500 22.3607
53.9248 542 23.2809
54.0411 512 22.6274
54.1573 488 22.0907
54.2735 0 1
54.3896 0 1
54.5057 0 1
54.6217 0 1
54.7377 0 1
54.8537 0 1
54.9695 0 1
55.0853 0 1
55.2011 0 1
55.3168 0 1
55.4324 0 1
57.824 0 1
57.9396 0 1
58.0553 0 1
58.1711 0 1
58.2869 0 1
58.4028 0 1
58.5187 0 1
58.6347 0 1
58.7508 0 1
58.8669 0 1
58.983 540 23.2379
59.0992 683 26.1343
59.2155 690 26.2679
59.3318 814 28.5307
59.4482 804 28.3549
59.5646 892 29.8664
59.681 875 29.5804
59.7975 981 31.3209
59.9141 906 30.0998
60.0306 861 29.3428
60.1473 913 30.2159
60.2639 831 28.8271
60.3807 801 28.3019
60.4974 751 27.4044
60.6142 808 28.4253
60.731 772 27.7849
60.8479 892 29.8664
60.9648 833 28.8617
61.0818 971 31.1609
61.1987 978 31.273
61.3158 937 30.6105
61.4328 875 29.5804
61.5499 937 30.6105
61.667 953 30.8707
61.7841 867 29.4449
61.9013 785 28.0179
62.0185 826 28.7402
62.1357 822 28.6705
62.253 801 28.3019
62.3702 887 29.7825
62.4875 876 29.5973
62.6049 941 30.6757
62.7222 1005 31.7017
62.8396 975 31.225
62.9569 990 31.4643
63.0743 977 31.257
63.1918 984 31.3688
63.3092 953 30.8707
63.4267 956 30.9192
63.5441 862 29.3598
63.6616 893 29.8831
63.7791 796 28.2135
63.8966 790 28.1069
64.0142 751 27.4044
64.1317 795 28.1957
64.2492 803 28.3373
64.3668 884 29.7321
64.4843 844 29.0517
64.6019 881 29.6816
64.7195 867 29.4449
64.837 914 30.2324
64.9546 970 31.1448
65.0722 964 31.0483
65.1898 902 30.0333
65.3074 867 29.4449
65.4249 877 29.6142
65.5425 793 28.1603
65.6601 814 28.5307
65.7777 727 26.9629
65.8952 814 28.5307
66.0128 820 28.6356
66.1304 885 29.7489
66.2479 928 30.4631
66.3655 939 30.6431
66.483 916 30.2655
66.6005 949 30.8058
66.718 946 30.7571
66.8355 909 30.1496
66.953 952 30.8545
67.0705 890 29.8329
67.1879 811 28.4781
67.3054 825 28.7228
67.4228 763 27.6225
67.5402 726 26.9444
67.6576 690 26.2679
67.7749 693 26.3249
67.8923 787 28.0535
68.0096 797 28.2312
68.1269 855 29.2404
68.2442 892 29.8664
68.3614 916 30.2655
68.4787 889 29.8161
68.5958 892 29.8664
68.713 956 30.9192
68.8302 886 29.7658
68.9473 822 28.6705
69.0643 841 29
69.1814 784 28
69.2984 760 27.5681
69.4154 711 26.6646
69.5323 755 27.4773
69.6492 752 27.4226
69.7661 819 28.6182
69.8829 802 28.3196
69.9997 831 28.8271
70.1165 870 29.4958
70.2332 790 28.1069
70.3499 788 28.0713
70.4665 760 27.5681
70.5831 712 26.6833
70.6996 661 25.7099
70.8161 600 24.4949
70.9326 568 23.8328
71.049 511 22.6053
71.1653 424 20.5913
71.2817 357 18.8944
71.3979 316 17.7764
71.5141 300 17.3205
71.6303 310 17.6068
71.7464 290 17.0294
71.8624 0 1
71.9784 0 1
72.0944 0 1
72.2102 0 1
72.3261 0 1
72.4418 0 1
72.5575 0 1
72.6732 0 1
75.1054 0 1
75.2209 0 1
75.3365 0 1
75.4521 0 1
75.5678 0 1
75.6835 0 1
75.7993 0 1
75.9151 0 1
76.031 0 1
76.147 549 23.4307
76.263 630 25.0998
76.3791 647 25.4362
76.4952 644 25.3772
76.6113 602 24.5357
76.7276 671 25.9037
76.8438 670 25.8844
76.9601 720 26.8328
77.0765 712 26.6833
77.1929 808 28.4253
77.3093 851 29.1719
77.4258 855 29.2404
77.5423 846 29.0861
77.6589 898 29.9666
77.7755 823 28.688
77.8921 837 28.931
78.0088 789 28.0891
78.1256 712 26.6833
78.2423 664 25.7682
78.3591 675 25.9808
78.4759 679 26.0576
78.5928 732 27.0555
78.7097 810 28.4605
78.8266 808 28.4253
78.9436 912 30.1993
79.0606 903 30.05
79.1776 898 29.9666
79.2946 966 31.0805
79.4117 918 30.2985
79.5288 954 30.8869
79.6459 843 29.0345
79.7631 831 28.8271
79.8802 795 28.1957
79.9974 832 28.8444
80.1147 799 28.2666
80.2319 748 27.3496
80.3491 719 26.8142
80.4664 686 26.1916
80.5837 760 27.5681
80.701 835 28.8964
80.8183 856 29.2575
80.9357 859 29.3087
81.053 914 30.2324
81.1704 920 30.3315
81.2877 903 30.05
81.4051 888 29.7993
81.5225 934 30.5614
81.6399 831 28.8271
81.7573 805 28.3725
81.8747 720 26.8328
81.9922 700 26.4575
82.1096 710 26.6458
82.227 784 28
82.3444 774 27.8209
82.4619 905 30.0832
82.5793 986 31.4006
82.6967 903 30.05
82.8142 915 30.249
82.9316 928 30.4631
83.049 907 30.1164
83.1664 979 31.289
83.2838 892 29.8664
83.4012 834 28.8791
83.5186 850 29.1548
83.636 798 28.2489
83.7534 817 28.5832
83.8708 712 26.6833
83.9881 726 26.9444
84.1055 696 26.3818
84.2228 734 27.0924
84.3401 778 27.8927
84.4575 880 29.6648
84.5747 881 29.6816
84.692 962 31.0161
84.8093 972 31.1769
84.9265 848 29.1204
85.0437 956 30.9192
85.1609 897 29.95
85.2781 835 28.8964
85.3952 772 27.7849
85.5123 748 27.3496
85.6294 732 27.0555
85.7465 784 28
85.8636 796 28.2135
85.9806 926 30.4302
86.0976 866 29.4279
86.2145 904 30.0666
86.3315 876 29.5973
86.4484 916 30.2655
86.5652 924 30.3974
86.682 917 30.282
86.7988 963 31.0322
86.9156 879 29.6479
87.0323 925 30.4138
87.149 781 27.9464
87.2657 739 27.1846
87.3823 726 26.9444
87.4988 577 24.0208
87.6154 589 24.2693
87.7318 635 25.1992
87.8483 611 24.7184
87.9647 686 26.1916
88.081 673 25.9422
88.1973 645 25.3969
88.3136 631 25.1197
88.4298 607 24.6374
88.546 487 22.0681
88.6621 413 20.3224
88.7781 328 18.1108
88.8942 0 1
89.0101 0 1
89.126 0 1
89.2419 0 1
89.3577 0 1
89.4734 0 1
89.5891 0 1
89.7047 0 1
89.8203 0 1
89.9358 0 1
92.3269 0 1
92.4424 0 1
92.558 0 1
92.6736 0 1
92.7893 0 1
92.905 0 1
93.0208 0 1
93.1366 0 1
93.2525 0 1
93.3685 0 1
93.4845 0 1
93.6005 884 29.7321
93.7167 908 30.133
93.8328 900 30
93.949 953 30.8707
94.0653 949 30.8058
94.1816 897 29.95
94.2979 821 28.6531
94.4143 776 27.8568
94.5307 826 28.7402
94.6472 896 29.9333
94.7637 975 31.225
94.8803 918 30.2985
94.9969 1019 31.9218
95.1135 1011 31.7962
95.2302 1013 31.8277
95.3469 987 31.4166
95.4637 983 31.3528
95.5805 995 31.5436
95.6973 917 30.282
95.8142 910 30.1662
95.9311 865 29.4109
96.048 873 29.5466
96.1649 746 27.313
96.2819 805 28.3725
96.3989 848 29.1204
96.516 877 29.6142
96.633 984 31.3688
96.7501 940 30.6594
96.8673 1032 32.1248
96.9844 961 31
97.1016 1019 31.9218
97.2188 966 31.0805
97.336 932 30.5287
97.4532 920 30.3315
97.5704 824 28.7054
97.6877 806 28.3901
97.805 795 28.1957
97.9223 766 27.6767
98.0396 852 29.189
98.1569 916 30.2655
98.2743 917 30.282
98.3916 953 30.8707
98.509 929 30.4795
98.6264 1015 31.8591
98.7438 1018 31.9061
98.8612 1001 31.6386
98.9786 993 31.5119
99.096 947 30.7734
99.2134 937 30.6105
99.3308 924 30.3974
99.4482 852 29.189
99.5656 853 29.2062
99.6831 771 27.7669
99.8005 746 27.313
99.9179 845 29.0689
100.035 887 29.7825
100.153 940 30.6594
100.27 964 31.0483
100.388 1018 31.9061
100.505 982 31.3369
100.622 945 30.7409
100.74 941 30.6757
100.857 956 30.9192
100.975 875 29.5804
101.092 827 28.7576
101.209 788 28.0713
101.327 793 28.1603
101.444 765 27.6586
101.561 821 28.6531
101.679 876 29.5973
101.796 919 30.315
101.913 957 30.9354
102.03 982 31.3369
102.148 1045 32.3265
102.265 988 31.4325
102.382 1095 33.0908
102.499 991 31.4802
102.616 1075 32.7872
102.733 973 31.1929
102.851 965 31.0644
102.968 934 30.5614
103.085 928 30.4631
103.202 912 30.1993
103.319 819 28.6182
103.436 907 30.1164
103.552 920 30.3315
103.669 942 30.692
103.786 1080 32.8634
103.903 1186 34.4384
104.02 1215 34.8569
104.137 1255 35.426
104.253 1254 35.4119
104.37 1145 33.8378
104.487 1218 34.8999
104.603 1178 34.322
104.72 1121 33.4813
104.836 1035 32.1714
104.953 1058 32.5269
105.069 1086 32.9545
105.186 976 31.241
105.302 1019 31.9218
105.418 1060 32.5576
105.535 1030 32.0936
105.651 991 31.4802
105.767 918 30.2985
105.883 789 28.0891
105.999 783 27.9821
106.115 0 1
106.231 0 1
106.347 0 1
106.463 0 1
106.579 0 1
106.694 0 1
106.81 0 1
106.926 0 1
107.041 0 1
107.157 0 1
109.576 0 1
109.692 0 1
109.807 0 1
109.923 0 1
110.039 0 1
110.155 0 1
110.27 0 1
110.386 0 1
110.502 0 1
110.618 1281 35.7911
110.735 1636 40.4475
110.851 1934 43.9773
110.967 2046 45.2327
111.083 2281 47.7598
111.199 2353 48.5077
111.316 2516 50.1597
111.432 2652 51.4976
111.549 2592 50.9117
111.665 2706 52.0192
111.782 2456 49.558
111.898 2564 50.636
112.015 2422 49.2138
112.132 2249 47.4236
112.248 2080 45.607
112.365 2097 45.793
112.482 2083 45.6399
112.599 2299 47.9479
112.716 2376 48.7442
112.832 2617 51.1566
112.949 2530 50.2991
113.066 2596 50.951
113.183 2476 49.7594
113.3 2532 50.319
113.417 2507 50.07
113.534 2325 48.2183
113.652 2283 47.7807
113.769 2100 45.8258
113.886 1990 44.6094
114.003 1855 43.0697
114.12 1909 43.6921
114.238 2099 45.8148
114.355 2143 46.2925
114.472 2314 48.1041
114.589 2258 47.5184
114.707 2316 48.1248
114.824 2274 47.6865
114.942 2208 46.9894
115.059 2273 47.676
115.176 2186 46.7547
115.294 2116 46
115.411 2133 46.1844
115.529 1948 44.1362
115.646 1797 42.391
115.764 1694 41.1582
115.881 1589 39.8623
115.999 1535 39.1791
116.116 1598 39.975
116.234 1790 42.3084
116.351 1765 42.0119
116.469 1823 42.6966
116.586 1682 41.0122
116.704 1684 41.0366
116.821 1579 39.7366
116.939 1565 39.5601
117.056 1495 38.6652
117.174 1346 36.6879
117.291 1262 35.5246
117.409 1143 33.8083
117.526 1168 34.176
117.644 1073 32.7567
117.761 1148 33.8821
117.879 1179 34.3366
117.996 1125 33.541
118.114 1232 35.0999
118.231 1178 34.322
118.349 1193 34.5398
118.466 1134 33.6749
118.584 1174 34.2637
118.701 1116 33.4066
118.819 1072 32.7414
118.936 1020 31.9374
119.053 989 31.4484
119.171 1002 31.6544
119.288 884 29.7321
119.405 824 28.7054
119.523 840 28.9828
119.64 817 28.5832
119.757 856 29.2575
119.875 892 29.8664
119.992 929 30.4795
120.109 941 30.6757
120.226 912 30.1993
120.343 930 30.4959
120.46 916 30.2655
120.578 897 29.95
120.695 887 29.7825
120.812 849 29.1376
120.929 782 27.9643
121.046 723 26.8887
121.163 760 27.5681
121.279 740 27.2029
121.396 713 26.7021
121.513 752 27.4226
121.63 797 28.2312
121.747 737 27.1477
121.863 789 28.0891
121.98 767 27.6948
122.097 781 27.9464
122.213 771 27.7669
122.33 750 27.3861
122.446 673 25.9422
122.563 639 25.2784
122.679 634 25.1794
122.795 552 23.4947
122.912 489 22.1133
123.028 419 20.4695
123.144 392 19.799
123.26 316 17.7764
123.377 0 1
123.493 0 1
123.609 0 1
123.725 0 1
123.84 0 1
123.956 0 1
124.072 0 1
124.188 0 1
124.303 0 1
124.419 0 1
126.852 0 1
126.968 0 1
127.083 0 1
127.199 0 1
127.315 0 1
127.431 0 1
127.547 0 1
127.663 0 1
127.779 0 1
127.895 0 1
128.011 0 1
128.127 0 1
128.243 0 1
128.359 727 26.9629
128.476 729 27
128.592 741 27.2213
128.708 815 28.5482
128.825 820 28.6356
128.941 866 29.4279
129.058 920 30.3315
129.174 958 30.9516
129.291 909 30.1496
129.408 919 30.315
129.524 934 30.5614
129.641 860 29.3258
129.758 872 29.5296
129.875 814 28.5307
129.992 789 28.0891
130.108 745 27.2947
130.225 746 27.313
130.342 830 28.8097
130.459 789 28.0891
130.576 848 29.1204
130.693 885 29.7489
130.81 860 29.3258
130.928 938 30.6268
131.045 916 30.2655
131.162 974 31.209
131.279 1000 31.6228
131.396 924 30.3974
131.513 867 29.4449
131.631 902 30.0333
131.748 844 29.0517
131.865 734 27.0924
131.983 713 26.7021
132.1 795 28.1957
132.217 777 27.8747
132.335 797 28.2312
132.452 853 29.2062
132.57 886 29.7658
132.687 875 29.5804
132.804 1003 31.6702
132.922 918 30.2985
133.039 887 29.7825
133.157 920 30.3315
133.274 884 29.7321
133.392 834 28.8791
133.509 773 27.8029
133.627 743 27.258
133.744 779 27.9106
133.862 743 27.258
133.979 794 28.178
134.097 820 28.6356
134.214 845 29.0689
134.332 867 29.4449
134.449 957 30.9354
134.567 847 29.1033
134.684 935 30.5778
134.802 959 30.9677
134.919 884 29.7321
135.037 920 30.3315
135.154 867 29.4449
135.272 815 28.5482
135.389 806 28.3901
135.507 827 28.7576
135.624 730 27.0185
135.742 761 27.5862
135.859 822 28.6705
135.977 818 28.6007
136.094 818 28.6007
136.211 888 29.7993
136.329 971 31.1609
136.446 893 29.8831
136.564 911 30.1828
136.681 845 29.0689
136.798 900 30
136.915 811 28.4781
137.033 845 29.0689
137.15 755 27.4773
137.267 762 27.6043
137.384 674 25.9615
137.502 710 26.6458
137.619 780 27.9285
137.736 788 28.0713
137.853 761 27.5862
137.97 861 29.3428
138.087 837 28.931
138.204 882 29.6985
138.321 897 29.95
138.438 852 29.189
138.555 877 29.6142
138.672 852 29.189
138.788 843 29.0345
138.905 780 27.9285
139.022 722 26.8701
139.139 645 25.3969
139.255 593 24.3516
139.372 616 24.8193
139.488 660 25.6905
139.605 709 26.6271
139.721 661 25.7099
139.838 636 25.219
139.954 583 24.1454
140.071 525 22.9129
140.187 485 22.0227
140.303 426 20.6398
140.419 400 20
140.535 363 19.0526
140.652 323 17.9722
140.768 0 1
140.884 0 1
141 0 1
141.115 0 1
141.231 0 1
141.347 0 1
141.463 0 1
141.578 0 1
141.694 0 1
144.104 0 1
144.219 0 1
144.335 0 1
144.45 0 1
144.566 0 1
144.682 0 1
144.798 0 1
144.914 0 1
145.03 0 1
145.146 666 25.807
145.262 732 27.0555
145.378 743 27.258
145.494 711 26.6646
145.61 724 26.9072
145.726 699 26.4386
145.842 652 25.5343
145.959 645 25.3969
146.075 638 25.2587
146.192 693 26.3249
146.308 653 25.5539
146.425 645 25.3969
146.541 636 25.219
146.658 733 27.074
146.774 714 26.7208
146.891 728 26.9815
147.008 748 27.3496
147.125 740 27.2029
147.241 787 28.0535
147.358 726 26.9444
147.475 676 26
147.592 690 26.2679
147.709 653 25.5539
147.826 667 25.8263
147.943 610 24.6982
148.06 650 25.4951
148.177 718 26.7955
148.294 695 26.3629
148.411 759 27.55
148.528 804 28.3549
148.645 766 27.6767
148.762 739 27.1846
148.88 726 26.9444
148.997 723 26.8887
149.114 765 27.6586
149.231 728 26.9815
149.349 675 25.9808
149.466 655 25.593
149.583 634 25.1794
149.701 668 25.8457
149.818 629 25.0799
149.935 673 25.9422
150.053 639 25.2784
150.17 630 25.0998
150.287 652 25.5343
150.405 695 26.3629
150.522 690 26.2679
150.64 748 27.3496
150.757 739 27.1846
150.875 797 28.2312
150.992 790 28.1069
151.11 758 27.5318
151.227 727 26.9629
151.344 682 26.1151
151.462 624 24.98
151.579 644 25.3772
151.697 645 25.3969
151.814 650 25.4951
151.932 664 25.7682
152.049 722 26.8701
152.167 724 26.9072
152.284 753 27.4408
152.402 720 26.8328
152.519 687 26.2107
152.636 741 27.2213
152.754 685 26.1725
152.871 684 26.1534
152.989 697 26.4008
153.106 603 24.5561
153.223 627 25.04
153.341 592 24.3311
153.458 603 24.5561
153.575 629 25.0799
153.693 636 25.219
153.81 656 25.6125
153.927 656 25.6125
154.044 657 25.632
154.162 698 26.4197
154.279 639 25.2784
154.396 751 27.4044
154.513 761 27.5862
154.63 735 27.1109
154.747 697 26.4008
154.864 683 26.1343
154.981 704 26.533
155.098 682 26.1151
155.215 631 25.1197
155.332 617 24.8395
155.449 680 26.0768
155.566 666 25.807
155.683 688 26.2298
155.8 705 26.5518
155.917 687 26.2107
156.033 707 26.5895
156.15 0 1
156.267 0 1
156.383 0 1
156.5 0 1
156.617 0 1
156.733 0 1
156.85 0 1
156.966 0 1
157.082 0 1
157.199 0 1
157.315 0 1
157.431 0 1
157.547 0 1
157.664 0 1
157.78 0 1
157.896 0 1
158.012 0 1
158.128 0 1
158.244 0 1
158.359 0 1
158.475 0 1
158.591 0 1
158.706 0 1
