
6.15755 0 1
6.2731 0 1
6.3887 0 1
6.50437 0 1
6.62009 0 1
6.73587 0 1
6.8517 0 1
6.96759 0 1
7.08353 0 1
7.19952 0 1
7.31557 0 1
7.43166 0 1
7.54781 0 1
7.664 0 1
7.78024 0 1
7.89653 0 1
8.01286 0 1
8.12924 0 1
8.24567 0 1
8.36213 0 1
8.47864 0 1
8.59519 0 1
8.71178 0 1
8.82841 0 1
8.94508 0 1
9.06179 0 1
9.17853 0 1
9.29531 0 1
9.41212 0 1
9.52897 0 1
9.64584 0 1
9.76276 0 1
9.8797 0 1
9.99667 0 1
10.1137 0 1
10.2307 0 1
10.3478 0 1
10.4648 0 1
10.5819 0 1
10.6991 0 1
10.8162 0 1
10.9334 0 1
11.0506 0 1
11.1678 0 1
11.285 0 1
11.4023 0 1
11.5196 0 1
11.6369 0 1
11.7542 0 1
11.8715 0 1
11.9888 0 1
12.1062 0 1
12.2235 0 1
12.3409 0 1
12.4582 0 1
12.5756 0 1
12.693 0 1
12.8104 0 1
12.9278 0 1
13.0452 0 1
13.1626 0 1
13.28 0 1
13.3974 0 1
13.5149 0 1
13.6323 0 1
13.7497 0 1
13.8671 0 1
13.9845 0 1
14.1019 0 1
14.2193 0 1
14.3367 0 1
14.4541 0 1
14.5714 0 1
14.6888 0 1
14.8062 0 1
14.9235 0 1
15.0408 0 0
15.1581 0 0
15.2755 0 0
15.3927 0 0
15.51 0 0
15.6273 0 0
15.7445 0 0
15.8617 0 0
15.9789 0 0
16.0961 0 0
16.2132 0 0
16.3304 0 0
16.4475 0 0
16.5646 0 0
16.6816 0 0
16.7986 0 0
16.9156 0 0
17.0326 0 0
17.1496 0 0
17.2665 0 0
17.3833 0 0
17.5002 0 0
17.617 0 0
17.7338 0 0
17.8505 0 0
17.9672 0 0
18.0839 0 0
18.2005 0 0
18.3171 0 0
18.4337 0 0
18.5502 0 0
18.6666 0 0
18.7831 0 0
18.8994 0 0
19.0158 0 0
19.1321 0 0
19.2483 0 0
19.3645 0 0
19.4806 0 0
19.5967 0 0
19.7128 0 0
19.8288 0 0
19.9447 0 0
20.0606 0 1
20.1764 0 1
20.2922 0 1
20.4079 0 1
20.5236 0 1
20.6392 0 1
20.7548 0 1
20.8702 0 1
23.3078 0 1
23.4233 0 1
23.539 0 1
23.6547 0 1
23.7704 0 1
23.8862 0 1
24.0021 0 1
24.118 0 1
24.234 0 1
24.35 0 1
24.4661 3649 60.407
24.5822 3914 62.562
24.6984 4179 64.6452
24.8146 4145 64.3817
24.9309 4207 64.8614
25.0472 4215 64.923
25.1636 4252 65.2074
25.28 4320 65.7267
25.3965 4407 66.3852
25.513 4346 65.9242
25.6296 4409 66.4003
25.7462 4280 65.4217
25.8628 4243 65.1383
25.9795 4155 64.4593
26.0962 4095 63.9922
26.213 4153 64.4438
26.3298 3934 62.7216
26.4466 3986 63.1348
26.5635 3841 61.9758
26.6804 3954 62.8808
26.7973 3902 62.466
26.9143 3957 62.9047
27.0313 3856 62.0967
27.1483 3758 61.3025
27.2653 3717 60.9672
27.3824 3671 60.5888
27.4996 3642 60.349
27.6167 3679 60.6548
27.7339 3810 61.7252
27.8511 3736 61.1228
27.9683 4146 64.3894
28.0855 4456 66.7533
28.2028 4956 70.3989
28.3201 4974 70.5266
28.4374 5203 72.1318
28.5547 5488 74.081
28.6721 6009 77.5177
28.7894 6041 77.7239
28.9068 6359 79.7433
29.0242 6742 82.1097
29.1416 6966 83.4626
29.259 7342 85.6855
29.3764 7697 87.7325
29.4939 7832 88.4986
29.6113 8552 92.477
29.7288 8783 93.7177
29.8463 8999 94.8631
29.9638 9793 98.9596
30.0812 9889 99.4435
30.1987 10157 100.782
30.3162 10424 102.098
30.4337 10851 104.168
30.5512 10761 103.735
30.6687 10375 101.858
30.7862 10047 100.235
30.9037 10169 100.841
31.0212 10464 102.294
31.1387 10618 103.044
31.2562 10465 102.299
31.3737 10429 102.122
31.4912 10883 104.322
31.6087 11311 106.353
31.7262 11408 106.808
31.8436 11087 105.295
31.9611 11184 105.754
32.0785 10814 103.99
32.1959 10682 103.354
32.3134 10301 101.494
32.4308 10074 100.369
32.5482 9517 97.5551
32.6655 9266 96.2601
32.7829 8978 94.7523
32.9002 8816 93.8936
33.0176 8121 90.1166
33.1349 8097 89.9833
33.2522 7480 86.487
33.3694 7443 86.2728
33.4867 7112 84.3327
33.6039 6627 81.4064
33.7211 6562 81.0062
33.8383 6145 78.3901
33.9554 6039 77.711
34.0725 5689 75.4255
34.1896 5327 72.9863
34.3067 4656 68.2349
34.4237 4459 66.7757
34.5407 4288 65.4828
34.6577 4153 64.4438
34.7746 4111 64.1171
34.8915 3878 62.2736
35.0084 3809 61.7171
35.1252 3938 62.7535
35.242 3873 62.2334
35.3587 3960 62.9285
35.4755 3995 63.206
35.5921 4010 63.3246
35.7088 3880 62.2896
35.8254 3811 61.7333
35.9419 3764 61.3514
36.0584 3789 61.5549
36.1749 3696 60.7947
36.2913 3637 60.3075
36.4077 3569 59.7411
36.524 3627 60.2246
36.6403 3611 60.0916
36.7565 3601 60.0083
36.8727 3639 60.3241
36.9889 3455 58.7792
37.1049 3609 60.075
37.221 0 1
37.3369 0 1
37.4529 0 1
37.5687 0 1
37.6845 0 1
37.8003 0 1
37.916 0 1
38.0316 0 1
38.1472 0 1
40.5851 0 1
40.7008 0 1
40.8164 0 1
40.9322 0 1
41.048 0 1
41.1639 0 1
41.2798 0 1
41.3958 0 1
41.5118 0 1
41.6279 0 1
41.744 2953 54.3415
41.8602 3086 55.5518
41.9765 3098 55.6597
42.0928 3117 55.8301
42.2091 3093 55.6147
42.3255 3098 55.6597
42.4419 3092 55.6058
42.5584 3087 55.5608
42.675 3026 55.0091
42.7915 3132 55.9643
42.9081 2891 53.768
43.0248 2886 53.7215
43.1415 2635 51.3323
43.2582 2602 51.0098
43.375 2547 50.4678
43.4918 2795 52.8678
43.6087 2701 51.9711
43.7256 2637 51.3517
43.8425 2657 51.5461
43.9595 2756 52.4976
44.0765 2797 52.8867
44.1935 2822 53.1225
44.3106 2785 52.7731
44.4277 2800 52.915
44.5448 2752 52.4595
44.6619 2667 51.643
44.7791 2746 52.4023
44.8963 2755 52.4881
45.0136 2687 51.8363
45.1308 2662 51.5946
45.2481 2653 51.5073
45.3654 2707 52.0288
45.4827 2701 51.9711
45.6001 2684 51.8073
45.7174 2668 51.6527
45.8348 2565 50.6458
45.9522 2589 50.8822
46.0697 2396 48.949
46.1871 2442 49.4166
46.3046 2332 48.2908
46.422 2274 47.6865
46.5395 2217 47.085
46.657 2038 45.1442
46.7745 1869 43.2319
46.892 1976 44.4522
47.0096 1979 44.486
47.1271 1978 44.4747
47.2446 1998 44.699
47.3622 1998 44.699
47.4797 2023 44.9778
47.5973 1953 44.1928
47.7149 2049 45.2659
47.8324 2058 45.3652
47.95 2018 44.9222
48.0675 2111 45.9456
48.1851 2095 45.7712
48.3027 1993 44.643
48.4202 2092 45.7384
48.5378 2021 44.9555
48.6554 2192 46.8188
48.7729 2142 46.2817
48.8904 2140 46.2601
49.008 2186 46.7547
49.1255 2190 46.7974
49.243 2116 46
49.3605 2132 46.1736
49.478 2229 47.2123
49.5955 2150 46.3681
49.713 2098 45.8039
49.8304 2238 47.3075
49.9479 2231 47.2335
50.0653 2071 45.5082
50.1827 1990 44.6094
50.3001 1869 43.2319
50.4175 1912 43.7264
50.5348 2057 45.3542
50.6521 2156 46.4327
50.7694 2302 47.9792
50.8867 2299 47.9479
51.004 2408 49.0714
51.1212 2586 50.8527
51.2384 2706 52.0192
51.3556 2705 52.0096
51.4727 2769 52.6213
51.5899 2781 52.7352
51.707 2817 53.0754
51.824 2866 53.535
51.9411 2856 53.4416
52.0581 2887 53.7308
52.175 2886 53.7215
52.2919 2924 54.074
52.4088 3144 56.0714
52.5257 3089 55.5788
52.6425 3104 55.7136
52.7593 3135 55.9911
52.876 3139 56.0268
52.9927 3242 56.9386
53.1094 3216 56.7098
53.226 3326 57.6715
53.3426 3228 56.8155
53.4591 3304 57.4804
53.5756 3189 56.4712
53.692 3178 56.3738
53.8084 2816 53.066
53.9248 2766 52.5928
54.0411 2785 52.7731
54.1573 2894 53.7959
54.2735 0 1
54.3896 0 1
54.5057 0 1
54.6217 0 1
54.7377 0 1
54.8537 0 1
54.9695 0 1
55.0853 0 1
55.2011 0 1
55.3168 0 1
55.4324 0 1
57.824 0 1
57.9396 0 1
58.0553 0 1
58.1711 0 1
58.2869 0 1
58.4028 0 1
58.5187 0 1
58.6347 0 1
58.7508 0 1
58.8669 0 1
58.983 3389 58.2151
59.0992 3399 58.3009
59.2155 3416 58.4466
59.3318 3453 58.7622
59.4482 3579 59.8247
59.5646 3834 61.9193
59.681 3926 62.6578
59.7975 4003 63.2693
59.9141 4064 63.7495
60.0306 4219 64.9538
60.1473 4207 64.8614
60.2639 4213 64.9076
60.3807 4148 64.405
60.4974 4236 65.0846
60.6142 4219 64.9538
60.731 4242 65.1306
60.8479 4308 65.6354
60.9648 4276 65.3911
61.0818 4281 65.4294
61.1987 4302 65.5896
61.3158 4249 65.1844
61.4328 4279 65.4141
61.5499 4227 65.0154
61.667 4261 65.2763
61.7841 4203 64.8305
61.9013 4208 64.8691
62.0185 4174 64.6065
62.1357 4094 63.9844
62.253 3776 61.4492
62.3702 3536 59.4643
62.4875 3522 59.3464
62.6049 3609 60.075
62.7222 3622 60.1831
62.8396 3864 62.1611
62.9569 3966 62.9762
63.0743 3936 62.7375
63.1918 4109 64.1015
63.3092 4067 63.773
63.4267 4115 64.1483
63.5441 4170 64.5755
63.6616 4073 63.8201
63.7791 4038 63.5453
63.8966 4197 64.7843
64.0142 4330 65.8027
64.1317 4254 65.2227
64.2492 4279 65.4141
64.3668 4235 65.0769
64.4843 4297 65.5515
64.6019 4299 65.5668
64.7195 4314 65.681
64.837 4230 65.0385
64.9546 4175 64.6142
65.0722 4218 64.9461
65.1898 4113 64.1327
65.3074 4257 65.2457
65.4249 4236 65.0846
65.5425 4066 63.7652
65.6601 4038 63.5453
65.7777 3876 62.2575
65.8952 3548 59.5651
66.0128 3318 57.6021
66.1304 3289 57.3498
66.2479 3408 58.3781
66.3655 3507 59.2199
66.483 3742 61.1719
66.6005 3988 63.1506
66.718 3960 62.9285
66.8355 4060 63.7181
66.953 4112 64.1249
67.0705 4081 63.8827
67.1879 4310 65.6506
67.3054 4381 66.1891
67.4228 4195 64.7688
67.5402 4334 65.8331
67.6576 4250 65.192
67.7749 4280 65.4217
67.8923 4335 65.8407
68.0096 4453 66.7308
68.1269 4325 65.7647
68.2442 4326 65.7723
68.3614 4324 65.7571
68.4787 4439 66.6258
68.5958 4427 66.5357
68.713 4438 66.6183
68.8302 4569 67.5944
68.9473 4528 67.2904
69.0643 4535 67.3424
69.1814 4512 67.1714
69.2984 4498 67.0671
69.4154 4396 66.3023
69.5323 4109 64.1015
69.6492 3957 62.9047
69.7661 3745 61.1964
69.8829 3840 61.9677
69.9997 4146 64.3894
70.1165 4481 66.9403
70.2332 4569 67.5944
70.3499 4591 67.7569
70.4665 4841 69.5773
70.5831 5004 70.739
70.6996 5186 72.0139
70.8161 5184 72
70.9326 5177 71.9514
71.049 5178 71.9583
71.1653 5332 73.0205
71.2817 5319 72.9315
71.3979 5238 72.374
71.5141 5283 72.6842
71.6303 5291 72.7393
71.7464 4902 70.0143
71.8624 0 1
71.9784 0 1
72.0944 0 1
72.2102 0 1
72.3261 0 1
72.4418 0 1
72.5575 0 1
72.6732 0 1
75.1054 0 1
75.2209 0 1
75.3365 0 1
75.4521 0 1
75.5678 0 1
75.6835 0 1
75.7993 0 1
75.9151 0 1
76.031 0 1
76.147 5223 72.2703
76.263 5821 76.2955
76.3791 5836 76.3937
76.4952 5868 76.6029
76.6113 5807 76.2037
76.7276 5847 76.4657
76.8438 5901 76.818
76.9601 5904 76.8375
77.0765 6162 78.4984
77.1929 5937 77.0519
77.3093 6203 78.7591
77.4258 6049 77.7753
77.5423 5881 76.6877
77.6589 5958 77.1881
77.7755 6104 78.1281
77.8921 6036 77.6917
78.0088 6011 77.5306
78.1256 6110 78.1665
78.2423 5991 77.4016
78.3591 5758 75.8815
78.4759 5486 74.0675
78.5928 4991 70.647
78.7097 4559 67.5204
78.8266 4490 67.0075
78.9436 4052 63.6553
79.0606 4697 68.5347
79.1776 4925 70.1783
79.2946 5274 72.6223
79.4117 5628 75.02
79.5288 5786 76.0658
79.6459 6047 77.7625
79.7631 5965 77.2334
79.8802 5883 76.7007
79.9974 6196 78.7147
80.1147 6052 77.7946
80.2319 5982 77.3434
80.3491 5945 77.1038
80.4664 6014 77.55
80.5837 6131 78.3007
80.701 6079 77.9679
80.8183 5987 77.3757
80.9357 5997 77.4403
81.053 6040 77.7174
81.1704 5976 77.3046
81.2877 5889 76.7398
81.4051 5893 76.7659
81.5225 5895 76.7789
81.6399 5700 75.4983
81.7573 5937 77.0519
81.8747 5747 75.809
81.9922 5592 74.7797
82.1096 5436 73.7292
82.227 4908 70.0571
82.3444 4530 67.3053
82.4619 4196 64.7765
82.5793 4181 64.6607
82.6967 4524 67.2607
82.8142 4724 68.7314
82.9316 4907 70.05
83.049 5029 70.9154
83.1664 5095 71.3793
83.2838 5159 71.8262
83.4012 5337 73.0548
83.5186 5396 73.4575
83.636 5209 72.1734
83.7534 5297 72.7805
83.8708 5349 73.1369
83.9881 5178 71.9583
84.1055 5239 72.3809
84.2228 5143 71.7147
84.3401 5268 72.581
84.4575 5290 72.7324
84.5747 5332 73.0205
84.692 5238 72.374
84.8093 5285 72.698
84.9265 5172 71.9166
85.0437 5106 71.4563
85.1609 5117 71.5332
85.2781 5197 72.0902
85.3952 5214 72.208
85.5123 5116 71.5262
85.6294 5079 71.2671
85.7465 4611 67.9043
85.8636 4318 65.7115
85.9806 3889 62.3618
86.0976 3914 62.562
86.2145 4245 65.1537
86.3315 4380 66.1816
86.4484 5071 71.211
86.5652 5248 72.4431
86.682 5546 74.4715
86.7988 5674 75.326
86.9156 6058 77.8332
87.0323 5976 77.3046
87.149 6192 78.6893
87.2657 6242 79.0063
87.3823 6306 79.4103
87.4988 6326 79.5362
87.6154 6493 80.5792
87.7318 6630 81.4248
87.8483 6770 82.28
87.9647 6766 82.2557
88.081 6906 83.1023
88.1973 7033 83.863
88.3136 7040 83.9047
88.4298 7040 83.9047
88.546 6905 83.0963
88.6621 7130 84.4393
88.7781 6907 83.1084
88.8942 0 1
89.0101 0 1
89.126 0 1
89.2419 0 1
89.3577 0 1
89.4734 0 1
89.5891 0 1
89.7047 0 1
89.8203 0 1
89.9358 0 1
92.3269 0 1
92.4424 0 1
92.558 0 1
92.6736 0 1
92.7893 0 1
92.905 0 1
93.0208 0 1
93.1366 0 1
93.2525 0 1
93.3685 0 1
93.4845 0 1
93.6005 6620 81.3634
93.7167 6828 82.6317
93.8328 6894 83.0301
93.949 6858 82.813
94.0653 6860 82.8251
94.1816 6886 82.9819
94.2979 6798 82.45
94.4143 6739 82.0914
94.5307 6713 81.9329
94.6472 6568 81.0432
94.7637 6304 79.3977
94.8803 6212 78.8162
94.9969 5701 75.505
95.1135 5339 73.0685
95.2302 5022 70.8661
95.3469 5210 72.1803
95.4637 5357 73.1915
95.5805 5888 76.7333
95.6973 6321 79.5047
95.8142 6381 79.8812
95.9311 6616 81.3388
96.048 7055 83.994
96.1649 7037 83.8868
96.2819 7144 84.5222
96.3989 6964 83.4506
96.516 7062 84.0357
96.633 7080 84.1427
96.7501 7186 84.7703
96.8673 7194 84.8175
96.9844 6981 83.5524
97.1016 7119 84.3742
97.2188 7196 84.8292
97.336 7296 85.4166
97.4532 7263 85.2232
97.5704 7186 84.7703
97.6877 7123 84.3979
97.805 7256 85.1822
97.9223 7134 84.463
98.0396 7105 84.2912
98.1569 7052 83.9762
98.2743 6914 83.1505
98.3916 6838 82.6922
98.509 6609 81.2958
98.6264 5957 77.1816
98.7438 5702 75.5116
98.8612 5166 71.8749
98.9786 5228 72.3049
99.096 5550 74.4983
99.2134 6126 78.2688
99.3308 6610 81.3019
99.4482 6978 83.5344
99.5656 7242 85.0999
99.6831 7277 85.3053
99.8005 7352 85.7438
99.9179 7351 85.738
100.035 7436 86.2322
100.153 7342 85.6855
100.27 7416 86.1162
100.388 7493 86.5621
100.505 7460 86.3713
100.622 7599 87.1722
100.74 7606 87.2124
100.857 7687 87.6755
100.975 7927 89.0337
101.092 7701 87.7553
101.209 7720 87.8635
101.327 7619 87.2869
101.444 7770 88.1476
101.561 7579 87.0575
101.679 7724 87.8863
101.796 7710 87.8066
101.913 7552 86.9022
102.03 7089 84.1962
102.148 6731 82.0427
102.265 6543 80.8888
102.382 5461 73.8986
102.499 5663 75.2529
102.616 5825 76.3217
102.733 6287 79.2906
102.851 6781 82.3468
102.968 7192 84.8057
103.085 7339 85.668
103.202 7441 86.2612
103.319 7409 86.0755
103.436 7210 84.9117
103.552 7428 86.1858
103.669 7412 86.093
103.786 7389 85.9593
103.903 7278 85.3112
104.02 7534 86.7986
104.137 7333 85.6329
104.253 7391 85.9709
104.37 7254 85.1704
104.487 7431 86.2032
104.603 7455 86.3423
104.72 7365 85.8196
104.836 7476 86.4639
104.953 7428 86.1858
105.069 7408 86.0697
105.186 7249 85.1411
105.302 7202 84.8646
105.418 7090 84.2021
105.535 6865 82.8553
105.651 6266 79.1581
105.767 5763 75.9144
105.883 5332 73.0205
105.999 5604 74.8599
106.115 0 1
106.231 0 1
106.347 0 1
106.463 0 1
106.579 0 1
106.694 0 1
106.81 0 1
106.926 0 1
107.041 0 1
107.157 0 1
109.576 0 1
109.692 0 1
109.807 0 1
109.923 0 1
110.039 0 1
110.155 0 1
110.27 0 1
110.386 0 1
110.502 0 1
110.618 6314 79.4607
110.735 6047 77.7625
110.851 5388 73.403
110.967 5167 71.8818
111.083 5264 72.5534
111.199 5483 74.0473
111.316 6051 77.7882
111.432 6401 80.0062
111.549 6553 80.9506
111.665 6604 81.265
111.782 6806 82.4985
111.898 6841 82.7103
112.015 6829 82.6378
112.132 6794 82.4257
112.248 6772 82.2922
112.365 6705 81.8841
112.482 6734 82.061
112.599 6432 80.1998
112.716 6614 81.3265
112.832 6704 81.878
112.949 6625 81.3941
113.066 6504 80.6474
113.183 6472 80.4487
113.3 6598 81.2281
113.417 6421 80.1311
113.534 6387 79.9187
113.652 6221 78.8733
113.769 6349 79.6806
113.886 6148 78.4092
114.003 5931 77.013
114.12 5835 76.3872
114.238 5369 73.2735
114.355 4942 70.2994
114.472 4348 65.9394
114.589 4390 66.2571
114.707 4532 67.3201
114.824 4921 70.1498
114.942 5326 72.9794
115.059 5493 74.1148
115.176 5641 75.1066
115.294 5942 77.0844
115.411 5876 76.6551
115.529 6016 77.5629
115.646 6009 77.5177
115.764 5918 76.9285
115.881 5862 76.5637
115.999 5975 77.2981
116.116 6043 77.7367
116.234 5958 77.1881
116.351 6264 79.1454
116.469 6196 78.7147
116.586 6289 79.3032
116.704 6328 79.5487
116.821 6259 79.1138
116.939 6383 79.8937
117.056 6304 79.3977
117.174 6347 79.6681
117.291 6385 79.9062
117.409 6334 79.5864
117.526 6279 79.2401
117.644 6497 80.604
117.761 6179 78.6066
117.879 5899 76.8049
117.996 5190 72.0417
118.114 5001 70.7177
118.231 5138 71.6798
118.349 5468 73.9459
118.466 5734 75.7232
118.584 6141 78.3645
118.701 6465 80.4052
118.819 6883 82.9638
118.936 6954 83.3906
119.053 7032 83.857
119.171 7073 84.1011
119.288 7173 84.6936
119.405 7256 85.1822
119.523 7194 84.8175
119.64 7394 85.9884
119.757 7038 83.8928
119.875 7160 84.6168
119.992 7091 84.2081
120.109 7065 84.0536
120.226 7102 84.2734
120.343 7160 84.6168
120.46 7209 84.9058
120.578 7106 84.2971
120.695 7110 84.3208
120.812 7183 84.7526
120.929 7002 83.678
121.046 7066 84.0595
121.163 6971 83.4925
121.279 6866 82.8613
121.396 6600 81.2404
121.513 6400 80
121.63 5715 75.5976
121.747 5253 72.4776
121.863 4998 70.6965
121.98 4955 70.3918
122.097 5204 72.1388
122.213 5800 76.1577
122.33 6033 77.6724
122.446 6228 78.9177
122.563 6505 80.6536
122.679 6692 81.8046
122.795 6623 81.3818
122.912 6663 81.6272
123.028 6732 82.0488
123.144 6490 80.5605
123.26 6644 81.5107
123.377 0 1
123.493 0 1
123.609 0 1
123.725 0 1
123.84 0 1
123.956 0 1
124.072 0 1
124.188 0 1
124.303 0 1
124.419 0 1
126.852 0 1
126.968 0 1
127.083 0 1
127.199 0 1
127.315 0 1
127.431 0 1
127.547 0 1
127.663 0 1
127.779 0 1
127.895 0 1
128.011 0 1
128.127 0 1
128.243 0 1
128.359 7487 86.5275
128.476 7365 85.8196
128.592 7361 85.7963
128.708 7541 86.8389
128.825 7209 84.9058
128.941 7363 85.8079
129.058 7503 86.6199
129.174 7550 86.8907
129.291 7542 86.8447
129.408 7612 87.2468
129.524 7590 87.1206
129.641 7432 86.209
129.758 7347 85.7146
129.875 7574 87.0287
129.992 7442 86.267
130.108 7357 85.773
130.225 7358 85.7788
130.342 7246 85.1234
130.459 6644 81.5107
130.576 6040 77.7174
130.693 5308 72.856
130.81 5103 71.4353
130.928 5102 71.4283
131.045 5577 74.6793
131.162 6179 78.6066
131.279 6503 80.6412
131.396 6836 82.6801
131.513 6954 83.3906
131.631 7004 83.6899
131.748 6950 83.3667
131.865 6933 83.2646
131.983 6751 82.1645
132.1 6941 83.3127
132.217 6891 83.012
132.335 7059 84.0179
132.452 6783 82.359
132.57 6802 82.4742
132.687 6649 81.5414
132.804 7078 84.1309
132.922 6683 81.7496
133.039 6806 82.4985
133.157 6757 82.201
133.274 6722 81.9878
133.392 6889 83
133.509 6618 81.3511
133.627 6494 80.5854
133.744 6660 81.6088
133.862 6356 79.7245
133.979 6283 79.2654
134.097 5773 75.9803
134.214 5259 72.519
134.332 4619 67.9632
134.449 4884 69.8856
134.567 5181 71.9792
134.684 5425 73.6546
134.802 6011 77.5306
134.919 6265 79.1518
135.037 6377 79.8561
135.154 6647 81.5291
135.272 6587 81.1603
135.389 6514 80.7094
135.507 6651 81.5537
135.624 6743 82.1158
135.742 6607 81.2835
135.859 6678 81.719
135.977 6635 81.4555
136.094 6690 81.7924
136.211 6625 81.3941
136.329 6731 82.0427
136.446 6590 81.1788
136.564 6761 82.2253
136.681 6864 82.8493
136.798 6669 81.6639
136.915 6774 82.3043
137.033 6651 81.5537
137.15 6634 81.4494
137.267 6618 81.3511
137.384 6552 80.9444
137.502 6409 80.0562
137.619 6130 78.2943
137.736 5785 76.0592
137.853 5092 71.3583
137.97 4701 68.5638
138.087 4895 69.9643
138.204 4999 70.7036
138.321 5444 73.7835
138.438 5924 76.9675
138.555 6288 79.2969
138.672 6437 80.2309
138.788 6619 81.3572
138.905 6727 82.0183
139.022 6759 82.2131
139.139 6532 80.8208
139.255 6720 81.9756
139.372 6693 81.8108
139.488 6484 80.5233
139.605 6495 80.5916
139.721 6562 81.0062
139.838 6565 81.0247
139.954 6425 80.1561
140.071 6517 80.7279
140.187 6496 80.5978
140.303 6645 81.5169
140.419 6633 81.4432
140.535 6576 81.0925
140.652 6637 81.4678
140.768 0 1
140.884 0 1
141 0 1
141.115 0 1
141.231 0 1
141.347 0 1
141.463 0 1
141.578 0 1
141.694 0 1
144.104 0 1
144.219 0 1
144.335 0 1
144.45 0 1
144.566 0 1
144.682 0 1
144.798 0 1
144.914 0 1
145.03 0 1
145.146 5730 75.6968
145.262 5572 74.6458
145.378 5574 74.6592
145.494 5736 75.7364
145.61 5658 75.2197
145.726 5790 76.092
145.842 5832 76.3675
145.959 5955 77.1686
146.075 6087 78.0192
146.192 6244 79.019
146.308 6054 77.8075
146.425 5650 75.1665
146.541 5378 73.3348
146.658 4853 69.6635
146.774 4912 70.0857
146.891 5314 72.8972
147.008 5601 74.8398
147.125 5956 77.1751
147.241 6297 79.3536
147.358 6550 80.9321
147.475 6463 80.3928
147.592 6329 79.555
147.709 6354 79.712
147.826 6362 79.7621
147.943 6127 78.2752
148.06 6031 77.6595
148.177 6065 77.8781
148.294 5908 76.8635
148.411 5955 77.1686
148.528 5904 76.8375
148.645 5775 75.9934
148.762 6059 77.8396
148.88 5892 76.7594
148.997 5894 76.7724
149.114 6148 78.4092
149.231 5970 77.2658
149.349 6049 77.7753
149.466 5880 76.6812
149.583 6051 77.7882
149.701 5968 77.2528
149.818 6043 77.7367
149.935 5920 76.9415
150.053 5430 73.6885
150.17 5070 71.2039
150.287 4630 68.0441
150.405 4763 69.0145
150.522 4833 69.5198
150.64 5271 72.6017
150.757 5476 74
150.875 5697 75.4785
150.992 5907 76.857
151.11 5835 76.3872
151.227 5825 76.3217
151.344 5760 75.8947
151.462 5838 76.4068
151.579 5803 76.1774
151.697 5827 76.3348
151.814 5861 76.5572
151.932 5777 76.0066
152.049 6007 77.5048
152.167 5845 76.4526
152.284 5841 76.4264
152.402 5837 76.4003
152.519 5894 76.7724
152.636 5974 77.2917
152.754 5917 76.922
152.871 6074 77.9359
152.989 6027 77.6338
153.106 6099 78.0961
153.223 6163 78.5048
153.341 6115 78.1985
153.458 5966 77.2399
153.575 5723 75.6505
153.693 5504 74.1889
153.81 4838 69.5557
153.927 4469 66.8506
154.044 4612 67.9117
154.162 4892 69.9428
154.279 5311 72.8766
154.396 5474 73.9865
154.513 5751 75.8353
154.63 5897 76.7919
154.747 5728 75.6836
154.864 5968 77.2528
154.981 5896 76.7854
155.098 5665 75.2662
155.215 5930 77.0065
155.332 5910 76.8765
155.449 5809 76.2168
155.566 5915 76.909
155.683 5770 75.9605
155.8 5715 75.5976
155.917 5852 76.4984
156.033 5878 76.6681
156.15 0 1
156.267 0 1
156.383 0 1
156.5 0 1
156.617 0 1
156.733 0 1
156.85 0 1
156.966 0 1
157.082 0 1
157.199 0 1
157.315 0 1
157.431 0 1
157.547 0 1
157.664 0 1
157.78 0 1
157.896 0 1
158.012 0 1
158.128 0 1
158.244 0 1
158.359 0 1
158.475 0 1
158.591 0 1
158.706 0 1
