
6.15755 0 1
6.2731 0 1
6.3887 0 1
6.50437 0 1
6.62009 0 1
6.73587 0 1
6.8517 0 1
6.96759 0 1
7.08353 0 1
7.19952 0 1
7.31557 0 1
7.43166 0 1
7.54781 0 1
7.664 0 1
7.78024 0 1
7.89653 0 1
8.01286 0 1
8.12924 0 1
8.24567 0 1
8.36213 0 1
8.47864 0 1
8.59519 0 1
8.71178 0 1
8.82841 0 1
8.94508 0 1
9.06179 0 1
9.17853 0 1
9.29531 0 1
9.41212 0 1
9.52897 0 1
9.64584 0 1
9.76276 0 1
9.8797 0 1
9.99667 0 1
10.1137 0 1
10.2307 0 1
10.3478 0 1
10.4648 0 1
10.5819 0 1
10.6991 0 1
10.8162 0 1
10.9334 0 1
11.0506 0 1
11.1678 0 1
11.285 0 1
11.4023 0 1
11.5196 0 1
11.6369 0 1
11.7542 0 1
11.8715 0 1
11.9888 0 1
12.1062 0 1
12.2235 0 1
12.3409 0 1
12.4582 0 1
12.5756 0 1
12.693 0 1
12.8104 0 1
12.9278 0 1
13.0452 0 1
13.1626 0 1
13.28 0 1
13.3974 0 1
13.5149 0 1
13.6323 0 1
13.7497 0 1
13.8671 0 1
13.9845 0 1
14.1019 0 1
14.2193 0 1
14.3367 0 1
14.4541 0 1
14.5714 0 1
14.6888 0 1
14.8062 0 1
14.9235 0 1
15.0408 0 0
15.1581 0 0
15.2755 0 0
15.3927 0 0
15.51 0 0
15.6273 0 0
15.7445 0 0
15.8617 0 0
15.9789 0 0
16.0961 0 0
16.2132 0 0
16.3304 0 0
16.4475 0 0
16.5646 0 0
16.6816 0 0
16.7986 0 0
16.9156 0 0
17.0326 0 0
17.1496 0 0
17.2665 0 0
17.3833 0 0
17.5002 0 0
17.617 0 0
17.7338 0 0
17.8505 0 0
17.9672 0 0
18.0839 0 0
18.2005 0 0
18.3171 0 0
18.4337 0 0
18.5502 0 0
18.6666 0 0
18.7831 0 0
18.8994 0 0
19.0158 0 0
19.1321 0 0
19.2483 0 0
19.3645 0 0
19.4806 0 0
19.5967 0 0
19.7128 0 0
19.8288 0 0
19.9447 0 0
20.0606 0 1
20.1764 0 1
20.2922 0 1
20.4079 0 1
20.5236 0 1
20.6392 0 1
20.7548 0 1
20.8702 0 1
23.3078 0 1
23.4233 0 1
23.539 0 1
23.6547 0 1
23.7704 0 1
23.8862 0 1
24.0021 0 1
24.118 0 1
24.234 0 1
24.35 0 1
24.4661 1439 37.9342
24.5822 1457 38.1707
24.6984 1443 37.9868
24.8146 1442 37.9737
24.9309 1424 37.7359
25.0472 1458 38.1838
25.1636 1415 37.6165
25.28 1384 37.2022
25.3965 1455 38.1445
25.513 1502 38.7556
25.6296 1468 38.3145
25.7462 1529 39.1024
25.8628 1545 39.3065
25.9795 1501 38.7427
26.0962 1534 39.1663
26.213 1519 38.9744
26.3298 1487 38.5616
26.4466 1463 38.2492
26.5635 1347 36.7015
26.6804 1292 35.9444
26.7973 1268 35.609
26.9143 1282 35.805
27.0313 1351 36.756
27.1483 1385 37.2156
27.2653 1437 37.9078
27.3824 1473 38.3797
27.4996 1546 39.3192
27.6167 1499 38.7169
27.7339 1465 38.2753
27.8511 1434 37.8682
27.9683 1415 37.6165
28.0855 1464 38.2623
28.2028 1356 36.8239
28.3201 1460 38.2099
28.4374 1391 37.2961
28.5547 1386 37.229
28.6721 1412 37.5766
28.7894 1396 37.3631
28.9068 1499 38.7169
29.0242 1320 36.3318
29.1416 1392 37.3095
29.259 1425 37.7492
29.3764 1366 36.9594
29.4939 1401 37.4299
29.6113 1385 37.2156
29.7288 1417 37.6431
29.8463 1409 37.5366
29.9638 1233 35.1141
30.0812 1188 34.4674
30.1987 1227 35.0286
30.3162 1140 33.7639
30.4337 1207 34.7419
30.5512 1234 35.1283
30.6687 1308 36.1663
30.7862 1369 37
30.9037 1368 36.9865
31.0212 1463 38.2492
31.1387 1490 38.6005
31.2562 1427 37.7757
31.3737 1368 36.9865
31.4912 1429 37.8021
31.6087 1375 37.081
31.7262 1432 37.8418
31.8436 1371 37.027
31.9611 1364 36.9324
32.0785 1373 37.054
32.1959 1283 35.819
32.3134 1365 36.9459
32.4308 1389 37.2693
32.5482 1334 36.524
32.6655 1387 37.2424
32.7829 1325 36.4005
32.9002 1331 36.4829
33.0176 1366 36.9594
33.1349 1313 36.2353
33.2522 1385 37.2156
33.3694 1304 36.1109
33.4867 1356 36.8239
33.6039 1267 35.5949
33.7211 1218 34.8999
33.8383 1122 33.4963
33.9554 1107 33.2716
34.0725 1136 33.7046
34.1896 1183 34.3948
34.3067 1275 35.7071
34.4237 1342 36.6333
34.5407 1340 36.606
34.6577 1279 35.7631
34.7746 1380 37.1484
34.8915 1390 37.2827
35.0084 1351 36.756
35.1252 1362 36.9053
35.242 1279 35.7631
35.3587 1341 36.6197
35.4755 1378 37.1214
35.5921 1377 37.108
35.7088 1274 35.6931
35.8254 1268 35.609
35.9419 1294 35.9722
36.0584 1271 35.6511
36.1749 1315 36.2629
36.2913 1252 35.3836
36.4077 1277 35.7351
36.524 1228 35.0428
36.6403 1397 37.3765
36.7565 1299 36.0416
36.8727 1302 36.0832
36.9889 1326 36.4143
37.1049 1280 35.7771
37.221 0 1
37.3369 0 1
37.4529 0 1
37.5687 0 1
37.6845 0 1
37.8003 0 1
37.916 0 1
38.0316 0 1
38.1472 0 1
40.5851 0 1
40.7008 0 1
40.8164 0 1
40.9322 0 1
41.048 0 1
41.1639 0 1
41.2798 0 1
41.3958 0 1
41.5118 0 1
41.6279 0 1
41.744 980 31.305
41.8602 1024 32
41.9765 1006 31.7175
42.0928 1070 32.7109
42.2091 994 31.5278
42.3255 1009 31.7648
42.4419 967 31.0966
42.5584 912 30.1993
42.675 839 28.9655
42.7915 826 28.7402
42.9081 871 29.5127
43.0248 916 30.2655
43.1415 903 30.05
43.2582 988 31.4325
43.375 1047 32.3574
43.4918 1008 31.749
43.6087 985 31.3847
43.7256 943 30.7083
43.8425 978 31.273
43.9595 920 30.3315
44.0765 872 29.5296
44.1935 916 30.2655
44.3106 895 29.9166
44.4277 895 29.9166
44.5448 835 28.8964
44.6619 831 28.8271
44.7791 837 28.931
44.8963 790 28.1069
45.0136 787 28.0535
45.1308 688 26.2298
45.2481 775 27.8388
45.3654 789 28.0891
45.4827 765 27.6586
45.6001 737 27.1477
45.7174 768 27.7128
45.8348 743 27.258
45.9522 683 26.1343
46.0697 642 25.3377
46.1871 618 24.8596
46.3046 579 24.0624
46.422 552 23.4947
46.5395 625 25
46.657 652 25.5343
46.7745 723 26.8887
46.892 654 25.5734
47.0096 660 25.6905
47.1271 685 26.1725
47.2446 687 26.2107
47.3622 676 26
47.4797 656 25.6125
47.5973 652 25.5343
47.7149 648 25.4558
47.8324 604 24.5764
47.95 610 24.6982
48.0675 559 23.6432
48.1851 533 23.0868
48.3027 606 24.6171
48.4202 585 24.1868
48.5378 544 23.3238
48.6554 557 23.6008
48.7729 545 23.3452
48.8904 584 24.1661
49.008 543 23.3024
49.1255 563 23.7276
49.243 536 23.1517
49.3605 556 23.5797
49.478 522 22.8473
49.5955 534 23.1084
49.713 463 21.5174
49.8304 427 20.664
49.9479 456 21.3542
50.0653 500 22.3607
50.1827 559 23.6432
50.3001 581 24.1039
50.4175 595 24.3926
50.5348 651 25.5147
50.6521 654 25.5734
50.7694 693 26.3249
50.8867 726 26.9444
51.004 693 26.3249
51.1212 734 27.0924
51.2384 746 27.313
51.3556 766 27.6767
51.4727 794 28.178
51.5899 782 27.9643
51.707 812 28.4956
51.824 854 29.2233
51.9411 762 27.6043
52.0581 788 28.0713
52.175 830 28.8097
52.2919 848 29.1204
52.4088 862 29.3598
52.5257 866 29.4279
52.6425 878 29.6311
52.7593 908 30.133
52.876 873 29.5466
52.9927 951 30.8383
53.1094 833 28.8617
53.226 765 27.6586
53.3426 769 27.7308
53.4591 762 27.6043
53.5756 771 27.7669
53.692 854 29.2233
53.8084 969 31.1288
53.9248 965 31.0644
54.0411 1082 32.8938
54.1573 1098 33.1361
54.2735 0 1
54.3896 0 1
54.5057 0 1
54.6217 0 1
54.7377 0 1
54.8537 0 1
54.9695 0 1
55.0853 0 1
55.2011 0 1
55.3168 0 1
55.4324 0 1
57.824 0 1
57.9396 0 1
58.0553 0 1
58.1711 0 1
58.2869 0 1
58.4028 0 1
58.5187 0 1
58.6347 0 1
58.7508 0 1
58.8669 0 1
58.983 1154 33.9706
59.0992 1193 34.5398
59.2155 1288 35.8887
59.3318 1282 35.805
59.4482 1248 35.327
59.5646 1335 36.5377
59.681 1341 36.6197
59.7975 1236 35.1568
59.9141 1231 35.0856
60.0306 1313 36.2353
60.1473 1209 34.7707
60.2639 1144 33.8231
60.3807 1119 33.4515
60.4974 1162 34.0881
60.6142 1165 34.1321
60.731 1180 34.3511
60.8479 1079 32.8481
60.9648 1090 33.0151
61.0818 1029 32.078
61.1987 1138 33.7343
61.3158 1138 33.7343
61.4328 1157 34.0147
61.5499 1111 33.3317
61.667 1051 32.4191
61.7841 953 30.8707
61.9013 886 29.7658
62.0185 864 29.3939
62.1357 923 30.3809
62.253 983 31.3528
62.3702 1052 32.4345
62.4875 1126 33.5559
62.6049 1139 33.7491
62.7222 1270 35.6371
62.8396 1275 35.7071
62.9569 1252 35.3836
63.0743 1221 34.9428
63.1918 1335 36.5377
63.3092 1283 35.819
63.4267 1263 35.5387
63.5441 1266 35.5809
63.6616 1242 35.242
63.7791 1168 34.176
63.8966 1191 34.5109
64.0142 1220 34.9285
64.1317 1236 35.1568
64.2492 1215 34.8569
64.3668 1218 34.8999
64.4843 1189 34.4819
64.6019 1203 34.6843
64.7195 1203 34.6843
64.837 1204 34.6987
64.9546 1239 35.1994
65.0722 1172 34.2345
65.1898 1172 34.2345
65.3074 1104 33.2265
65.4249 963 31.0322
65.5425 939 30.6431
65.6601 902 30.0333
65.7777 964 31.0483
65.8952 1101 33.1813
66.0128 1098 33.1361
66.1304 1145 33.8378
66.2479 1283 35.819
66.3655 1208 34.7563
66.483 1315 36.2629
66.6005 1329 36.4555
66.718 1358 36.8511
66.8355 1263 35.5387
66.953 1299 36.0416
67.0705 1259 35.4824
67.1879 1248 35.327
67.3054 1133 33.6601
67.4228 1173 34.2491
67.5402 1161 34.0735
67.6576 1109 33.3017
67.7749 1133 33.6601
67.8923 1082 32.8938
68.0096 1120 33.4664
68.1269 1151 33.9264
68.2442 1100 33.1662
68.3614 1151 33.9264
68.4787 1097 33.121
68.5958 1105 33.2415
68.713 1053 32.45
68.8302 1043 32.2955
68.9473 884 29.7321
69.0643 885 29.7489
69.1814 791 28.1247
69.2984 820 28.6356
69.4154 858 29.2916
69.5323 1039 32.2335
69.6492 1075 32.7872
69.7661 1120 33.4664
69.8829 1180 34.3511
69.9997 1222 34.9571
70.1165 1256 35.4401
70.2332 1260 35.4965
70.3499 1230 35.0714
70.4665 1199 34.6266
70.5831 1291 35.9305
70.6996 1168 34.176
70.8161 1108 33.2866
70.9326 1104 33.2265
71.049 1083 32.909
71.1653 1005 31.7017
71.2817 1024 32
71.3979 1022 31.9687
71.5141 1047 32.3574
71.6303 995 31.5436
71.7464 958 30.9516
71.8624 0 1
71.9784 0 1
72.0944 0 1
72.2102 0 1
72.3261 0 1
72.4418 0 1
72.5575 0 1
72.6732 0 1
75.1054 0 1
75.2209 0 1
75.3365 0 1
75.4521 0 1
75.5678 0 1
75.6835 0 1
75.7993 0 1
75.9151 0 1
76.031 0 1
76.147 1142 33.7935
76.263 1139 33.7491
76.3791 1094 33.0757
76.4952 1136 33.7046
76.6113 1078 32.8329
76.7276 1103 33.2114
76.8438 1057 32.5115
76.9601 1046 32.3419
77.0765 1076 32.8024
77.1929 1143 33.8083
77.3093 1186 34.4384
77.4258 1124 33.5261
77.5423 1138 33.7343
77.6589 1182 34.3802
77.7755 1099 33.1512
77.8921 989 31.4484
78.0088 789 28.0891
78.1256 848 29.1204
78.2423 701 26.4764
78.3591 763 27.6225
78.4759 853 29.2062
78.5928 937 30.6105
78.7097 1012 31.8119
78.8266 1070 32.7109
78.9436 1162 34.0881
79.0606 1165 34.1321
79.1776 1169 34.1906
79.2946 1168 34.176
79.4117 1164 34.1174
79.5288 1204 34.6987
79.6459 1160 34.0588
79.7631 1087 32.9697
79.8802 1059 32.5423
79.9974 998 31.5911
80.1147 975 31.225
80.2319 954 30.8869
80.3491 956 30.9192
80.4664 983 31.3528
80.5837 973 31.1929
80.701 949 30.8058
80.8183 946 30.7571
80.9357 908 30.133
81.053 960 30.9839
81.1704 996 31.5595
81.2877 995 31.5436
81.4051 948 30.7896
81.5225 832 28.8444
81.6399 785 28.0179
81.7573 762 27.6043
81.8747 641 25.318
81.9922 654 25.5734
82.1096 733 27.074
82.227 774 27.8209
82.3444 925 30.4138
82.4619 973 31.1929
82.5793 999 31.607
82.6967 1017 31.8904
82.8142 936 30.5941
82.9316 1020 31.9374
83.049 1012 31.8119
83.1664 991 31.4802
83.2838 952 30.8545
83.4012 903 30.05
83.5186 818 28.6007
83.636 803 28.3373
83.7534 785 28.0179
83.8708 780 27.9285
83.9881 754 27.4591
84.1055 849 29.1376
84.2228 865 29.4109
84.3401 860 29.3258
84.4575 784 28
84.5747 847 29.1033
84.692 933 30.545
84.8093 900 30
84.9265 849 29.1376
85.0437 772 27.7849
85.1609 777 27.8747
85.2781 663 25.7488
85.3952 601 24.5153
85.5123 618 24.8596
85.6294 689 26.2488
85.7465 759 27.55
85.8636 874 29.5635
85.9806 964 31.0483
86.0976 1060 32.5576
86.2145 1062 32.5883
86.3315 1100 33.1662
86.4484 1136 33.7046
86.5652 1146 33.8526
86.682 1095 33.0908
86.7988 1075 32.7872
86.9156 1078 32.8329
87.0323 994 31.5278
87.149 983 31.3528
87.2657 988 31.4325
87.3823 938 30.6268
87.4988 945 30.7409
87.6154 925 30.4138
87.7318 990 31.4643
87.8483 983 31.3528
87.9647 1050 32.4037
88.081 1053 32.45
88.1973 1061 32.573
88.3136 1101 33.1813
88.4298 1034 32.1559
88.546 1060 32.5576
88.6621 949 30.8058
88.7781 878 29.6311
88.8942 0 1
89.0101 0 1
89.126 0 1
89.2419 0 1
89.3577 0 1
89.4734 0 1
89.5891 0 1
89.7047 0 1
89.8203 0 1
89.9358 0 1
92.3269 0 1
92.4424 0 1
92.558 0 1
92.6736 0 1
92.7893 0 1
92.905 0 1
93.0208 0 1
93.1366 0 1
93.2525 0 1
93.3685 0 1
93.4845 0 1
93.6005 1024 32
93.7167 1130 33.6155
93.8328 1094 33.0757
93.949 1058 32.5269
94.0653 1047 32.3574
94.1816 964 31.0483
94.2979 836 28.9137
94.4143 801 28.3019
94.5307 796 28.2135
94.6472 828 28.775
94.7637 862 29.3598
94.8803 931 30.5123
94.9969 1066 32.6497
95.1135 1154 33.9706
95.2302 1137 33.7194
95.3469 1212 34.8138
95.4637 1258 35.4683
95.5805 1290 35.9166
95.6973 1303 36.0971
95.8142 1232 35.0999
95.9311 1267 35.5949
96.048 1224 34.9857
96.1649 1098 33.1361
96.2819 1141 33.7787
96.3989 1097 33.121
96.516 1095 33.0908
96.633 1044 32.311
96.7501 1050 32.4037
96.8673 1063 32.6037
96.9844 1084 32.9242
97.1016 1144 33.8231
97.2188 1122 33.4963
97.336 1151 33.9264
97.4532 1183 34.3948
97.5704 1062 32.5883
97.6877 1047 32.3574
97.805 1010 31.7805
97.9223 910 30.1662
98.0396 863 29.3769
98.1569 788 28.0713
98.2743 751 27.4044
98.3916 859 29.3087
98.509 939 30.6431
98.6264 988 31.4325
98.7438 1112 33.3467
98.8612 1137 33.7194
98.9786 1206 34.7275
99.096 1224 34.9857
99.2134 1288 35.8887
99.3308 1314 36.2491
99.4482 1274 35.6931
99.5656 1224 34.9857
99.6831 1202 34.6699
99.8005 1210 34.7851
99.9179 1117 33.4215
100.035 1083 32.909
100.153 1107 33.2716
100.27 1089 33
100.388 1109 33.3017
100.505 1056 32.4962
100.622 1133 33.6601
100.74 1151 33.9264
100.857 1193 34.5398
100.975 1202 34.6699
101.092 1160 34.0588
101.209 1128 33.5857
101.327 1010 31.7805
101.444 979 31.289
101.561 855 29.2404
101.679 872 29.5296
101.796 787 28.0535
101.913 883 29.7153
102.03 976 31.241
102.148 1094 33.0757
102.265 1136 33.7046
102.382 1289 35.9026
102.499 1266 35.5809
102.616 1328 36.4417
102.733 1252 35.3836
102.851 1386 37.229
102.968 1392 37.3095
103.085 1405 37.4833
103.202 1238 35.1852
103.319 1239 35.1994
103.436 1215 34.8569
103.552 1205 34.7131
103.669 1131 33.6303
103.786 1170 34.2053
103.903 1123 33.5112
104.02 1136 33.7046
104.137 1190 34.4964
104.253 1190 34.4964
104.37 1283 35.819
104.487 1262 35.5246
104.603 1275 35.7071
104.72 1198 34.6121
104.836 1155 33.9853
104.953 1021 31.9531
105.069 922 30.3645
105.186 888 29.7993
105.302 961 31
105.418 1042 32.28
105.535 1071 32.7261
105.651 1232 35.0999
105.767 1320 36.3318
105.883 1400 37.4166
105.999 1446 38.0263
106.115 0 1
106.231 0 1
106.347 0 1
106.463 0 1
106.579 0 1
106.694 0 1
106.81 0 1
106.926 0 1
107.041 0 1
107.157 0 1
109.576 0 1
109.692 0 1
109.807 0 1
109.923 0 1
110.039 0 1
110.155 0 1
110.27 0 1
110.386 0 1
110.502 0 1
110.618 1069 32.6956
110.735 1237 35.171
110.851 1221 34.9428
110.967 1293 35.9583
111.083 1396 37.3631
111.199 1349 36.7287
111.316 1391 37.2961
111.432 1332 36.4966
111.549 1404 37.47
111.665 1350 36.7423
111.782 1315 36.2629
111.898 1217 34.8855
112.015 1240 35.2136
112.132 1170 34.2053
112.248 1044 32.311
112.365 1120 33.4664
112.482 1088 32.9848
112.599 1187 34.4529
112.716 1131 33.6303
112.832 1136 33.7046
112.949 1247 35.3129
113.066 1166 34.1467
113.183 1194 34.5543
113.3 1087 32.9697
113.417 1019 31.9218
113.534 921 30.348
113.652 907 30.1164
113.769 909 30.1496
113.886 818 28.6007
114.003 857 29.2746
114.12 990 31.4643
114.238 1082 32.8938
114.355 1217 34.8855
114.472 1213 34.8281
114.589 1326 36.4143
114.707 1230 35.0714
114.824 1304 36.1109
114.942 1398 37.3898
115.059 1344 36.6606
115.176 1230 35.0714
115.294 1313 36.2353
115.411 1262 35.5246
115.529 1268 35.609
115.646 1144 33.8231
115.764 1122 33.4963
115.881 1150 33.9116
115.999 1176 34.2929
116.116 1155 33.9853
116.234 1138 33.7343
116.351 1229 35.0571
116.469 1239 35.1994
116.586 1210 34.7851
116.704 1179 34.3366
116.821 1217 34.8855
116.939 1134 33.6749
117.056 1021 31.9531
117.174 941 30.6757
117.291 956 30.9192
117.409 948 30.7896
117.526 930 30.4959
117.644 1003 31.6702
117.761 1159 34.0441
117.879 1235 35.1426
117.996 1269 35.623
118.114 1346 36.6879
118.231 1365 36.9459
118.349 1331 36.4829
118.466 1414 37.6032
118.584 1413 37.5899
118.701 1379 37.1349
118.819 1372 37.0405
118.936 1292 35.9444
119.053 1314 36.2491
119.171 1337 36.565
119.288 1258 35.4683
119.405 1226 35.0143
119.523 1161 34.0735
119.64 1137 33.7194
119.757 1144 33.8231
119.875 1231 35.0856
119.992 1132 33.6452
120.109 1184 34.4093
120.226 1275 35.7071
120.343 1182 34.3802
120.46 1224 34.9857
120.578 1154 33.9706
120.695 1050 32.4037
120.812 1035 32.1714
120.929 976 31.241
121.046 947 30.7734
121.163 958 30.9516
121.279 953 30.8707
121.396 1115 33.3916
121.513 1180 34.3511
121.63 1291 35.9305
121.747 1276 35.7211
121.863 1317 36.2905
121.98 1292 35.9444
122.097 1372 37.0405
122.213 1366 36.9594
122.33 1377 37.108
122.446 1324 36.3868
122.563 1270 35.6371
122.679 1327 36.428
122.795 1271 35.6511
122.912 1219 34.9142
123.028 1158 34.0294
123.144 1144 33.8231
123.26 1072 32.7414
123.377 0 1
123.493 0 1
123.609 0 1
123.725 0 1
123.84 0 1
123.956 0 1
124.072 0 1
124.188 0 1
124.303 0 1
124.419 0 1
126.852 0 1
126.968 0 1
127.083 0 1
127.199 0 1
127.315 0 1
127.431 0 1
127.547 0 1
127.663 0 1
127.779 0 1
127.895 0 1
128.011 0 1
128.127 0 1
128.243 0 1
128.359 1303 36.0971
128.476 1256 35.4401
128.592 1233 35.1141
128.708 1295 35.9861
128.825 1303 36.0971
128.941 1307 36.1525
129.058 1338 36.5787
129.174 1393 37.3229
129.291 1323 36.3731
129.408 1289 35.9026
129.524 1302 36.0832
129.641 1213 34.8281
129.758 1115 33.3916
129.875 1094 33.0757
129.992 1018 31.9061
130.108 1068 32.6803
130.225 1116 33.4066
130.342 1219 34.9142
130.459 1246 35.2987
130.576 1410 37.55
130.693 1388 37.2559
130.81 1365 36.9459
130.928 1456 38.1576
131.045 1430 37.8153
131.162 1491 38.6135
131.279 1434 37.8682
131.396 1454 38.1314
131.513 1449 38.0657
131.631 1374 37.0675
131.748 1329 36.4555
131.865 1321 36.3456
131.983 1223 34.9714
132.1 1270 35.6371
132.217 1281 35.7911
132.335 1290 35.9166
132.452 1293 35.9583
132.57 1338 36.5787
132.687 1337 36.565
132.804 1357 36.8375
132.922 1390 37.2827
133.039 1361 36.8917
133.157 1220 34.9285
133.274 1206 34.7275
133.392 1161 34.0735
133.509 1135 33.6898
133.627 1071 32.7261
133.744 1061 32.573
133.862 1223 34.9714
133.979 1270 35.6371
134.097 1367 36.973
134.214 1348 36.7151
134.332 1449 38.0657
134.449 1386 37.229
134.567 1395 37.3497
134.684 1405 37.4833
134.802 1439 37.9342
134.919 1447 38.0395
135.037 1420 37.6829
135.154 1456 38.1576
135.272 1411 37.5633
135.389 1316 36.2767
135.507 1377 37.108
135.624 1253 35.3977
135.742 1256 35.4401
135.859 1306 36.1386
135.977 1398 37.3898
136.094 1338 36.5787
136.211 1322 36.3593
136.329 1428 37.7889
136.446 1415 37.6165
136.564 1347 36.7015
136.681 1261 35.5106
136.798 1221 34.9428
136.915 1180 34.3511
137.033 1175 34.2783
137.15 1059 32.5423
137.267 1084 32.9242
137.384 1151 33.9264
137.502 1263 35.5387
137.619 1303 36.0971
137.736 1322 36.3593
137.853 1319 36.318
137.97 1397 37.3765
138.087 1363 36.9188
138.204 1406 37.4967
138.321 1484 38.5227
138.438 1432 37.8418
138.555 1411 37.5633
138.672 1472 38.3667
138.788 1472 38.3667
138.905 1407 37.51
139.022 1356 36.8239
139.139 1348 36.7151
139.255 1257 35.4542
139.372 1256 35.4401
139.488 1251 35.3695
139.605 1384 37.2022
139.721 1373 37.054
139.838 1483 38.5097
139.954 1408 37.5233
140.071 1353 36.7831
140.187 1374 37.0675
140.303 1260 35.4965
140.419 1212 34.8138
140.535 1135 33.6898
140.652 1076 32.8024
140.768 0 1
140.884 0 1
141 0 1
141.115 0 1
141.231 0 1
141.347 0 1
141.463 0 1
141.578 0 1
141.694 0 1
144.104 0 1
144.219 0 1
144.335 0 1
144.45 0 1
144.566 0 1
144.682 0 1
144.798 0 1
144.914 0 1
145.03 0 1
145.146 938 30.6268
145.262 994 31.5278
145.378 998 31.5911
145.494 953 30.8707
145.61 933 30.545
145.726 895 29.9166
145.842 881 29.6816
145.959 880 29.6648
146.075 882 29.6985
146.192 902 30.0333
146.308 858 29.2916
146.425 1000 31.6228
146.541 980 31.305
146.658 1064 32.619
146.774 1073 32.7567
146.891 1087 32.9697
147.008 1089 33
147.125 1089 33
147.241 1067 32.665
147.358 1084 32.9242
147.475 1097 33.121
147.592 1122 33.4963
147.709 1115 33.3916
147.826 1118 33.4365
147.943 1082 32.8938
148.06 1008 31.749
148.177 952 30.8545
148.294 1028 32.0624
148.411 1034 32.1559
148.528 1105 33.2415
148.645 1017 31.8904
148.762 1079 32.8481
148.88 994 31.5278
148.997 1048 32.3728
149.114 1105 33.2415
149.231 1104 33.2265
149.349 1019 31.9218
149.466 1043 32.2955
149.583 980 31.305
149.701 967 31.0966
149.818 924 30.3974
149.935 942 30.692
150.053 943 30.7083
150.17 990 31.4643
150.287 1026 32.0312
150.405 1069 32.6956
150.522 1046 32.3419
150.64 1109 33.3017
150.757 1139 33.7491
150.875 1137 33.7194
150.992 1184 34.4093
151.11 1211 34.7994
151.227 1192 34.5254
151.344 1137 33.7194
151.462 1172 34.2345
151.579 1135 33.6898
151.697 1050 32.4037
151.814 1018 31.9061
151.932 989 31.4484
152.049 980 31.305
152.167 1098 33.1361
152.284 1122 33.4963
152.402 1099 33.1512
152.519 1134 33.6749
152.636 1107 33.2716
152.754 1063 32.6037
152.871 1099 33.1512
152.989 1092 33.0454
153.106 1092 33.0454
153.223 960 30.9839
153.341 1032 32.1248
153.458 966 31.0805
153.575 978 31.273
153.693 987 31.4166
153.81 1075 32.7872
153.927 1096 33.1059
154.044 1101 33.1813
154.162 1135 33.6898
154.279 1180 34.3511
154.396 1249 35.3412
154.513 1251 35.3695
154.63 1250 35.3553
154.747 1240 35.2136
154.864 1301 36.0694
154.981 1246 35.2987
155.098 1245 35.2846
155.215 1190 34.4964
155.332 1181 34.3657
155.449 1118 33.4365
155.566 1147 33.8674
155.683 1247 35.3129
155.8 1274 35.6931
155.917 1202 34.6699
156.033 1243 35.2562
156.15 0 1
156.267 0 1
156.383 0 1
156.5 0 1
156.617 0 1
156.733 0 1
156.85 0 1
156.966 0 1
157.082 0 1
157.199 0 1
157.315 0 1
157.431 0 1
157.547 0 1
157.664 0 1
157.78 0 1
157.896 0 1
158.012 0 1
158.128 0 1
158.244 0 1
158.359 0 1
158.475 0 1
158.591 0 1
158.706 0 1
