
6.15755 0 1
6.2731 0 1
6.3887 0 1
6.50437 0 1
6.62009 0 1
6.73587 0 1
6.8517 0 1
6.96759 0 1
7.08353 0 1
7.19952 0 1
7.31557 0 1
7.43166 0 1
7.54781 0 1
7.664 0 1
7.78024 0 1
7.89653 0 1
8.01286 0 1
8.12924 0 1
8.24567 0 1
8.36213 0 1
8.47864 0 1
8.59519 0 1
8.71178 0 1
8.82841 0 1
8.94508 0 1
9.06179 0 1
9.17853 0 1
9.29531 0 1
9.41212 0 1
9.52897 0 1
9.64584 0 1
9.76276 0 1
9.8797 0 1
9.99667 0 1
10.1137 0 1
10.2307 0 1
10.3478 0 1
10.4648 0 1
10.5819 0 1
10.6991 0 1
10.8162 0 1
10.9334 0 1
11.0506 0 1
11.1678 0 1
11.285 0 1
11.4023 0 1
11.5196 0 1
11.6369 0 1
11.7542 0 1
11.8715 0 1
11.9888 0 1
12.1062 0 1
12.2235 0 1
12.3409 0 1
12.4582 0 1
12.5756 0 1
12.693 0 1
12.8104 0 1
12.9278 0 1
13.0452 0 1
13.1626 0 1
13.28 0 1
13.3974 0 1
13.5149 0 1
13.6323 0 1
13.7497 0 1
13.8671 0 1
13.9845 0 1
14.1019 0 1
14.2193 0 1
14.3367 0 1
14.4541 0 1
14.5714 0 1
14.6888 0 1
14.8062 0 1
14.9235 0 1
15.0408 0 0
15.1581 0 0
15.2755 0 0
15.3927 0 0
15.51 0 0
15.6273 0 0
15.7445 0 0
15.8617 0 0
15.9789 0 0
16.0961 0 0
16.2132 0 0
16.3304 0 0
16.4475 0 0
16.5646 0 0
16.6816 0 0
16.7986 0 0
16.9156 0 0
17.0326 0 0
17.1496 0 0
17.2665 0 0
17.3833 0 0
17.5002 0 0
17.617 0 0
17.7338 0 0
17.8505 0 0
17.9672 0 0
18.0839 0 0
18.2005 0 0
18.3171 0 0
18.4337 0 0
18.5502 0 0
18.6666 0 0
18.7831 0 0
18.8994 0 0
19.0158 0 0
19.1321 0 0
19.2483 0 0
19.3645 0 0
19.4806 0 0
19.5967 0 0
19.7128 0 0
19.8288 0 0
19.9447 0 0
20.0606 0 1
20.1764 0 1
20.2922 0 1
20.4079 0 1
20.5236 0 1
20.6392 0 1
20.7548 0 1
20.8702 0 1
23.3078 0 1
23.4233 0 1
23.539 0 1
23.6547 0 1
23.7704 0 1
23.8862 0 1
24.0021 0 1
24.118 0 1
24.234 0 1
24.35 0 1
24.4661 1477 38.4318
24.5822 1458 38.1838
24.6984 1402 37.4433
24.8146 1326 36.4143
24.9309 1344 36.6606
25.0472 1435 37.8814
25.1636 1356 36.8239
25.28 1476 38.4187
25.3965 1442 37.9737
25.513 1439 37.9342
25.6296 1576 39.6989
25.7462 1634 40.4228
25.8628 1602 40.025
25.9795 1643 40.5339
26.0962 1562 39.5221
26.213 1587 39.8372
26.3298 1556 39.4462
26.4466 1626 40.3237
26.5635 1538 39.2173
26.6804 1504 38.7814
26.7973 1551 39.3827
26.9143 1480 38.4708
27.0313 1588 39.8497
27.1483 1510 38.8587
27.2653 1653 40.6571
27.3824 1615 40.1871
27.4996 1610 40.1248
27.6167 1579 39.7366
27.7339 1592 39.8999
27.8511 1542 39.2683
27.9683 1497 38.6911
28.0855 1412 37.5766
28.2028 1507 38.8201
28.3201 1352 36.7696
28.4374 1352 36.7696
28.5547 1309 36.1801
28.6721 1366 36.9594
28.7894 1453 38.1182
28.9068 1419 37.6696
29.0242 1353 36.7831
29.1416 1477 38.4318
29.259 1467 38.3014
29.3764 1605 40.0625
29.4939 1572 39.6485
29.6113 1632 40.398
29.7288 1522 39.0128
29.8463 1557 39.4588
29.9638 1571 39.6358
30.0812 1502 38.7556
30.1987 1579 39.7366
30.3162 1468 38.3145
30.4337 1484 38.5227
30.5512 1523 39.0256
30.6687 1570 39.6232
30.7862 1606 40.0749
30.9037 1637 40.4599
31.0212 1628 40.3485
31.1387 1626 40.3237
31.2562 1587 39.8372
31.3737 1633 40.4104
31.4912 1567 39.5854
31.6087 1506 38.8072
31.7262 1488 38.5746
31.8436 1480 38.4708
31.9611 1384 37.2022
32.0785 1292 35.9444
32.1959 1346 36.6879
32.3134 1283 35.819
32.4308 1463 38.2492
32.5482 1541 39.2556
32.6655 1514 38.9102
32.7829 1639 40.4846
32.9002 1610 40.1248
33.0176 1592 39.8999
33.1349 1681 41
33.2522 1595 39.9375
33.3694 1603 40.0375
33.4867 1610 40.1248
33.6039 1630 40.3733
33.7211 1609 40.1123
33.8383 1564 39.5474
33.9554 1486 38.5487
34.0725 1503 38.7685
34.1896 1494 38.6523
34.3067 1581 39.7618
34.4237 1627 40.3361
34.5407 1698 41.2068
34.6577 1705 41.2916
34.7746 1677 40.9512
34.8915 1690 41.1096
35.0084 1558 39.4715
35.1252 1711 41.3642
35.242 1496 38.6782
35.3587 1529 39.1024
35.4755 1482 38.4968
35.5921 1429 37.8021
35.7088 1372 37.0405
35.8254 1306 36.1386
35.9419 1314 36.2491
36.0584 1372 37.0405
36.1749 1440 37.9473
36.2913 1460 38.2099
36.4077 1585 39.8121
36.524 1584 39.7995
36.6403 1556 39.4462
36.7565 1659 40.7308
36.8727 1662 40.7676
36.9889 1622 40.2741
37.1049 1562 39.5221
37.221 0 1
37.3369 0 1
37.4529 0 1
37.5687 0 1
37.6845 0 1
37.8003 0 1
37.916 0 1
38.0316 0 1
38.1472 0 1
40.5851 0 1
40.7008 0 1
40.8164 0 1
40.9322 0 1
41.048 0 1
41.1639 0 1
41.2798 0 1
41.3958 0 1
41.5118 0 1
41.6279 0 1
41.744 1435 37.8814
41.8602 1421 37.6962
41.9765 1425 37.7492
42.0928 1458 38.1838
42.2091 1427 37.7757
42.3255 1468 38.3145
42.4419 1417 37.6431
42.5584 1353 36.7831
42.675 1337 36.565
42.7915 1328 36.4417
42.9081 1363 36.9188
43.0248 1420 37.6829
43.1415 1449 38.0657
43.2582 1585 39.8121
43.375 1535 39.1791
43.4918 1538 39.2173
43.6087 1503 38.7685
43.7256 1543 39.281
43.8425 1495 38.6652
43.9595 1388 37.2559
44.0765 1336 36.5513
44.1935 1261 35.5106
44.3106 1238 35.1852
44.4277 1160 34.0588
44.5448 1075 32.7872
44.6619 1047 32.3574
44.7791 1092 33.0454
44.8963 1137 33.7194
45.0136 1149 33.8969
45.1308 1283 35.819
45.2481 1234 35.1283
45.3654 1314 36.2491
45.4827 1265 35.5668
45.6001 1298 36.0278
45.7174 1337 36.565
45.8348 1279 35.7631
45.9522 1258 35.4683
46.0697 1214 34.8425
46.1871 1196 34.5832
46.3046 1036 32.187
46.422 1119 33.4515
46.5395 1201 34.6554
46.657 1187 34.4529
46.7745 1200 34.641
46.892 1223 34.9714
47.0096 1207 34.7419
47.1271 1175 34.2783
47.2446 1211 34.7994
47.3622 1131 33.6303
47.4797 1116 33.4066
47.5973 1188 34.4674
47.7149 1031 32.1092
47.8324 967 31.0966
47.95 990 31.4643
48.0675 942 30.692
48.1851 872 29.5296
48.3027 834 28.8791
48.4202 891 29.8496
48.5378 943 30.7083
48.6554 969 31.1288
48.7729 987 31.4166
48.8904 1011 31.7962
49.008 1059 32.5423
49.1255 1047 32.3574
49.243 1013 31.8277
49.3605 1062 32.5883
49.478 1089 33
49.5955 1058 32.5269
49.713 1003 31.6702
49.8304 1016 31.8748
49.9479 1091 33.0303
50.0653 1115 33.3916
50.1827 1169 34.1906
50.3001 1252 35.3836
50.4175 1205 34.7131
50.5348 1308 36.1663
50.6521 1352 36.7696
50.7694 1299 36.0416
50.8867 1349 36.7287
51.004 1354 36.7967
51.1212 1348 36.7151
51.2384 1333 36.5103
51.3556 1317 36.2905
51.4727 1179 34.3366
51.5899 1121 33.4813
51.707 1128 33.5857
51.824 1106 33.2566
51.9411 1184 34.4093
52.0581 1342 36.6333
52.175 1375 37.081
52.2919 1501 38.7427
52.4088 1518 38.9615
52.5257 1541 39.2556
52.6425 1586 39.8246
52.7593 1627 40.3361
52.876 1561 39.5095
52.9927 1658 40.7185
53.1094 1578 39.724
53.226 1583 39.7869
53.3426 1548 39.3446
53.4591 1554 39.4208
53.5756 1607 40.0874
53.692 1636 40.4475
53.8084 1695 41.1704
53.9248 1749 41.821
54.0411 1709 41.3401
54.1573 1755 41.8927
54.2735 0 1
54.3896 0 1
54.5057 0 1
54.6217 0 1
54.7377 0 1
54.8537 0 1
54.9695 0 1
55.0853 0 1
55.2011 0 1
55.3168 0 1
55.4324 0 1
57.824 0 1
57.9396 0 1
58.0553 0 1
58.1711 0 1
58.2869 0 1
58.4028 0 1
58.5187 0 1
58.6347 0 1
58.7508 0 1
58.8669 0 1
58.983 2112 45.9565
59.0992 2176 46.6476
59.2155 2265 47.592
59.3318 2191 46.8081
59.4482 2131 46.1628
59.5646 2311 48.0729
59.681 2170 46.5833
59.7975 2217 47.085
59.9141 2139 46.2493
60.0306 2016 44.8999
60.1473 1813 42.5793
60.2639 1709 41.3401
60.3807 1642 40.5216
60.4974 1618 40.2244
60.6142 1677 40.9512
60.731 1799 42.4146
60.8479 1897 43.5546
60.9648 2103 45.8585
61.0818 2082 45.6289
61.1987 2205 46.9574
61.3158 2218 47.0956
61.4328 2096 45.7821
61.5499 2094 45.7602
61.667 2110 45.9347
61.7841 2053 45.31
61.9013 2069 45.4863
62.0185 2044 45.2106
62.1357 1982 44.5197
62.253 2124 46.0869
62.3702 2212 47.0319
62.4875 2196 46.8615
62.6049 2210 47.0106
62.7222 2230 47.2229
62.8396 2348 48.4562
62.9569 2356 48.5386
63.0743 2249 47.4236
63.1918 2242 47.3498
63.3092 2073 45.5302
63.4267 2085 45.6618
63.5441 1980 44.4972
63.6616 1866 43.1972
63.7791 1649 40.6079
63.8966 1515 38.923
64.0142 1534 39.1663
64.1317 1704 41.2795
64.2492 1791 42.3202
64.3668 1845 42.9535
64.4843 2060 45.3872
64.6019 2116 46
64.7195 2151 46.3789
64.837 2100 45.8258
64.9546 2177 46.6583
65.0722 2159 46.465
65.1898 2097 45.793
65.3074 2201 46.9148
65.4249 2079 45.5961
65.5425 2046 45.2327
65.6601 2100 45.8258
65.7777 2077 45.5741
65.8952 2194 46.8402
66.0128 2291 47.8644
66.1304 2382 48.8057
66.2479 2351 48.4871
66.3655 2370 48.6826
66.483 2376 48.7442
66.6005 2382 48.8057
66.718 2314 48.1041
66.8355 2372 48.7032
66.953 2287 47.8226
67.0705 2140 46.2601
67.1879 1966 44.3396
67.3054 1939 44.0341
67.4228 1695 41.1704
67.5402 1603 40.0375
67.6576 1549 39.3573
67.7749 1623 40.2865
67.8923 1877 43.3244
68.0096 2015 44.8888
68.1269 2166 46.5403
68.2442 2290 47.8539
68.3614 2405 49.0408
68.4787 2303 47.9896
68.5958 2409 49.0816
68.713 2442 49.4166
68.8302 2370 48.6826
68.9473 2317 48.1352
69.0643 2280 47.7493
69.1814 2218 47.0956
69.2984 2244 47.3709
69.4154 2380 48.7852
69.5323 2401 49
69.6492 2540 50.3984
69.7661 2554 50.5371
69.8829 2503 50.03
69.9997 2711 52.0673
70.1165 2653 51.5073
70.2332 2731 52.259
70.3499 2652 51.4976
70.4665 2618 51.1664
70.5831 2438 49.3761
70.6996 2480 49.7996
70.8161 2312 48.0833
70.9326 2195 46.8508
71.049 1999 44.7102
71.1653 1741 41.7253
71.2817 1674 40.9145
71.3979 1674 40.9145
71.5141 1736 41.6653
71.6303 1911 43.715
71.7464 1928 43.909
71.8624 0 1
71.9784 0 1
72.0944 0 1
72.2102 0 1
72.3261 0 1
72.4418 0 1
72.5575 0 1
72.6732 0 1
75.1054 0 1
75.2209 0 1
75.3365 0 1
75.4521 0 1
75.5678 0 1
75.6835 0 1
75.7993 0 1
75.9151 0 1
76.031 0 1
76.147 2417 49.163
76.263 2351 48.4871
76.3791 2274 47.6865
76.4952 1939 44.0341
76.6113 1770 42.0714
76.7276 1843 42.9302
76.8438 1982 44.5197
76.9601 2212 47.0319
77.0765 2736 52.3068
77.1929 2783 52.7541
77.3093 2888 53.7401
77.4258 2880 53.6656
77.5423 3006 54.827
77.6589 2895 53.8052
77.7755 2934 54.1664
77.8921 2900 53.8516
78.0088 2821 53.1131
78.1256 2735 52.2972
78.2423 2910 53.9444
78.3591 2738 52.3259
78.4759 2767 52.6023
78.5928 2887 53.7308
78.7097 3036 55.0999
78.8266 3271 57.1927
78.9436 3017 54.9272
79.0606 3141 56.0446
79.1776 3067 55.3805
79.2946 3199 56.5597
79.4117 3102 55.6956
79.5288 3239 56.9122
79.6459 3039 55.1271
79.7631 2874 53.6097
79.8802 2701 51.9711
79.9974 2489 49.8899
80.1147 2205 46.9574
80.2319 1931 43.9431
80.3491 2008 44.8107
80.4664 2155 46.422
80.5837 2489 49.8899
80.701 2809 53
80.8183 3094 55.6237
80.9357 3039 55.1271
81.053 3135 55.9911
81.1704 3175 56.3471
81.2877 3241 56.9298
81.4051 3206 56.6216
81.5225 3156 56.1783
81.6399 3045 55.1815
81.7573 3112 55.7853
81.8747 2864 53.5164
81.9922 3082 55.5158
82.1096 3012 54.8817
82.227 2994 54.7175
82.3444 3148 56.107
82.4619 3148 56.107
82.5793 3215 56.701
82.6967 3366 58.0172
82.8142 3295 57.4021
82.9316 3261 57.1052
83.049 3228 56.8155
83.1664 3244 56.9561
83.2838 3112 55.7853
83.4012 3024 54.9909
83.5186 2855 53.4322
83.636 2612 51.1077
83.7534 2299 47.9479
83.8708 1989 44.5982
83.9881 1921 43.8292
84.1055 2140 46.2601
84.2228 2400 48.9898
84.3401 2777 52.6972
84.4575 3121 55.8659
84.5747 3315 57.576
84.692 3316 57.5847
84.8093 3382 58.155
84.9265 3399 58.3009
85.0437 3296 57.4108
85.1609 3358 57.9483
85.2781 3312 57.55
85.3952 3260 57.0964
85.5123 3245 56.9649
85.6294 3113 55.7943
85.7465 3288 57.3411
85.8636 3413 58.4209
85.9806 3532 59.4306
86.0976 3617 60.1415
86.2145 3735 61.1146
86.3315 3613 60.1082
86.4484 3876 62.2575
86.5652 3799 61.636
86.682 3840 61.9677
86.7988 3777 61.4573
86.9156 3761 61.327
87.0323 3603 60.025
87.149 3286 57.3236
87.2657 3026 55.0091
87.3823 2692 51.8845
87.4988 2402 49.0102
87.6154 2566 50.6557
87.7318 2903 53.8795
87.8483 3288 57.3411
87.9647 3722 61.0082
88.081 3862 62.145
88.1973 3996 63.2139
88.3136 4181 64.6607
88.4298 4036 63.5295
88.546 4057 63.6946
88.6621 3971 63.0159
88.7781 3944 62.8013
88.8942 0 1
89.0101 0 1
89.126 0 1
89.2419 0 1
89.3577 0 1
89.4734 0 1
89.5891 0 1
89.7047 0 1
89.8203 0 1
89.9358 0 1
92.3269 0 1
92.4424 0 1
92.558 0 1
92.6736 0 1
92.7893 0 1
92.905 0 1
93.0208 0 1
93.1366 0 1
93.2525 0 1
93.3685 0 1
93.4845 0 1
93.6005 4238 65.0999
93.7167 4238 65.0999
93.8328 4373 66.1287
93.949 4179 64.6452
94.0653 4304 65.6049
94.1816 4366 66.0757
94.2979 4304 65.6049
94.4143 4240 65.1153
94.5307 4202 64.8228
94.6472 4184 64.6838
94.7637 4215 64.923
94.8803 4244 65.146
94.9969 4292 65.5134
95.1135 4472 66.873
95.2302 4419 66.4756
95.3469 4559 67.5204
95.4637 4685 68.4471
95.5805 4630 68.0441
95.6973 4740 68.8477
95.8142 4782 69.152
95.9311 4556 67.4981
96.048 4403 66.3551
96.1649 4311 65.6582
96.2819 4131 64.2729
96.3989 3853 62.0725
96.516 3395 58.2666
96.633 3055 55.2721
96.7501 2820 53.1037
96.8673 3050 55.2268
96.9844 3410 58.3952
97.1016 4115 64.1483
97.2188 4405 66.3702
97.336 4791 69.217
97.4532 4924 70.1712
97.5704 4801 69.2892
97.6877 4935 70.2496
97.805 4832 69.5126
97.9223 4737 68.8259
98.0396 4764 69.0217
98.1569 4638 68.1029
98.2743 4496 67.0522
98.3916 4514 67.1863
98.509 4583 67.6979
98.6264 4585 67.7126
98.7438 4702 68.5711
98.8612 4877 69.8355
98.9786 4957 70.406
99.096 5008 70.7672
99.2134 4907 70.05
99.3308 5115 71.5192
99.4482 5083 71.2952
99.5656 4891 69.9357
99.6831 4883 69.8785
99.8005 4831 69.5054
99.9179 4525 67.2681
100.035 4273 65.3682
100.153 3614 60.1166
100.27 3280 57.2713
100.388 3269 57.1752
100.505 3793 61.5873
100.622 4342 65.8939
100.74 4857 69.6922
100.857 5115 71.5192
100.975 5081 71.2811
101.092 5264 72.5534
101.209 5150 71.7635
101.327 5273 72.6154
101.444 5212 72.1942
101.561 5095 71.3793
101.679 5252 72.4707
101.796 5084 71.3022
101.913 4845 69.606
102.03 4965 70.4628
102.148 4964 70.4557
102.265 5423 73.641
102.382 4797 69.2604
102.499 5495 74.1283
102.616 5410 73.5527
102.733 5580 74.6994
102.851 5583 74.7195
102.968 5682 75.379
103.085 5468 73.9459
103.202 5422 73.6342
103.319 5183 71.9931
103.436 4994 70.6682
103.552 4494 67.0373
103.669 3874 62.2415
103.786 3464 58.8558
103.903 3590 59.9166
104.02 4110 64.1093
104.137 4727 68.7532
104.253 5319 72.9315
104.37 5509 74.2226
104.487 5710 75.5645
104.603 5671 75.306
104.72 5750 75.8288
104.836 5695 75.4652
104.953 5682 75.379
105.069 5687 75.4122
105.186 5635 75.0666
105.302 5667 75.2795
105.418 5361 73.2189
105.535 5240 72.3878
105.651 5446 73.797
105.767 5413 73.5731
105.883 5741 75.7694
105.999 5743 75.7826
106.115 0 1
106.231 0 1
106.347 0 1
106.463 0 1
106.579 0 1
106.694 0 1
106.81 0 1
106.926 0 1
107.041 0 1
107.157 0 1
109.576 0 1
109.692 0 1
109.807 0 1
109.923 0 1
110.039 0 1
110.155 0 1
110.27 0 1
110.386 0 1
110.502 0 1
110.618 4993 70.6612
110.735 5123 71.5751
110.851 5168 71.8888
110.967 5384 73.3757
111.083 5436 73.7292
111.199 5446 73.797
111.316 5557 74.5453
111.432 5718 75.6175
111.549 5331 73.0137
111.665 5351 73.1505
111.782 5235 72.3533
111.898 4828 69.4838
112.015 4315 65.6887
112.132 3877 62.2656
112.248 3389 58.2151
112.365 3260 57.0964
112.482 3607 60.0583
112.599 4003 63.2693
112.716 4687 68.4617
112.832 4981 70.5762
112.949 5040 70.993
113.066 5170 71.9027
113.183 5051 71.0704
113.3 5124 71.5821
113.417 4937 70.2638
113.534 5041 71
113.652 4896 69.9714
113.769 4739 68.8404
113.886 4632 68.0588
114.003 4715 68.6659
114.12 4536 67.3498
114.238 4648 68.1762
114.355 4510 67.1565
114.472 4610 67.897
114.589 4751 68.9275
114.707 4744 68.8767
114.824 4861 69.7209
114.942 4819 69.419
115.059 4876 69.8284
115.176 4855 69.6778
115.294 4745 68.884
115.411 4627 68.0221
115.529 4298 65.5591
115.646 3844 62
115.764 3404 58.3438
115.881 3003 54.7996
115.999 3246 56.9737
116.116 3662 60.5145
116.234 4056 63.6867
116.351 4435 66.5958
116.469 4777 69.1158
116.586 4675 68.374
116.704 4747 68.8985
116.821 4681 68.4178
116.939 4674 68.3667
117.056 4749 68.913
117.174 4785 69.1737
117.291 4730 68.775
117.409 4573 67.624
117.526 4671 68.3447
117.644 4555 67.4907
117.761 4583 67.6979
117.879 4573 67.624
117.996 4531 67.3127
118.114 4650 68.1909
118.231 4705 68.593
118.349 4760 68.9928
118.466 4656 68.2349
118.584 4718 68.6877
118.701 4823 69.4478
118.819 4859 69.7065
118.936 4596 67.7938
119.053 4443 66.6558
119.171 4092 63.9687
119.288 3776 61.4492
119.405 3326 57.6715
119.523 3094 55.6237
119.64 3192 56.4978
119.757 3628 60.2329
119.875 3895 62.4099
119.992 4247 65.169
120.109 4497 67.0597
120.226 4547 67.4314
120.343 4568 67.587
120.46 4631 68.0515
120.578 4668 68.3228
120.695 4484 66.9627
120.812 4538 67.3647
120.929 4684 68.4398
121.046 4468 66.8431
121.163 4391 66.2646
121.279 4518 67.2161
121.396 4354 65.9848
121.513 4306 65.6201
121.63 4387 66.2344
121.747 4254 65.2227
121.863 4329 65.7951
121.98 4455 66.7458
122.097 4554 67.4833
122.213 4479 66.9253
122.33 4607 67.8749
122.446 4506 67.1267
122.563 4504 67.1118
122.679 4483 66.9552
122.795 4188 64.7148
122.912 3827 61.8628
123.028 3537 59.4727
123.144 3154 56.1605
123.26 2908 53.9259
123.377 0 1
123.493 0 1
123.609 0 1
123.725 0 1
123.84 0 1
123.956 0 1
124.072 0 1
124.188 0 1
124.303 0 1
124.419 0 1
126.852 0 1
126.968 0 1
127.083 0 1
127.199 0 1
127.315 0 1
127.431 0 1
127.547 0 1
127.663 0 1
127.779 0 1
127.895 0 1
128.011 0 1
128.127 0 1
128.243 0 1
128.359 3507 59.2199
128.476 3152 56.1427
128.592 3198 56.5509
128.708 3700 60.8276
128.825 4094 63.9844
128.941 4527 67.283
129.058 4644 68.1469
129.174 4709 68.6222
129.291 4718 68.6877
129.408 4702 68.5711
129.524 4827 69.4766
129.641 4888 69.9142
129.758 4717 68.6804
129.875 4750 68.9202
129.992 4774 69.0941
130.108 4740 68.8477
130.225 4723 68.7241
130.342 4557 67.5056
130.459 4379 66.174
130.576 4529 67.2978
130.693 4485 66.9701
130.81 4684 68.4398
130.928 4702 68.5711
131.045 4659 68.2569
131.162 4841 69.5773
131.279 4834 69.527
131.396 4686 68.4544
131.513 4698 68.542
131.631 4470 66.8581
131.748 4182 64.6684
131.865 3797 61.6198
131.983 3336 57.7581
132.1 3160 56.2139
132.217 3437 58.6259
132.335 3993 63.1902
132.452 4373 66.1287
132.57 4432 66.5733
132.687 4480 66.9328
132.804 4701 68.5638
132.922 4569 67.5944
133.039 4531 67.3127
133.157 4568 67.587
133.274 4560 67.5278
133.392 4665 68.3008
133.509 4429 66.5507
133.627 4541 67.3869
133.744 4510 67.1565
133.862 4451 66.7158
133.979 4459 66.7757
134.097 4410 66.4078
134.214 4548 67.4389
134.332 4290 65.4981
134.449 4384 66.2118
134.567 4614 67.9264
134.684 4551 67.4611
134.802 4637 68.0955
134.919 4447 66.6858
135.037 4486 66.9776
135.154 4320 65.7267
135.272 4164 64.5291
135.389 3753 61.2617
135.507 3347 57.8533
135.624 3181 56.4004
135.742 3168 56.285
135.859 3676 60.63
135.977 3916 62.578
136.094 4264 65.2993
136.211 4447 66.6858
136.329 4495 67.0448
136.446 4405 66.3702
136.564 4340 65.8787
136.681 4512 67.1714
136.798 4315 65.6887
136.915 4465 66.8207
137.033 4433 66.5808
137.15 4332 65.8179
137.267 4359 66.0227
137.384 4195 64.7688
137.502 4218 64.9461
137.619 4286 65.4675
137.736 4178 64.6375
137.853 4203 64.8305
137.97 4030 63.4823
138.087 4333 65.8255
138.204 4370 66.106
138.321 4579 67.6683
138.438 4330 65.8027
138.555 4387 66.2344
138.672 4374 66.1362
138.788 4251 65.1997
138.905 4174 64.6065
139.022 3768 61.384
139.139 3507 59.2199
139.255 3260 57.0964
139.372 3214 56.6922
139.488 3443 58.6771
139.605 3868 62.1932
139.721 4137 64.3195
139.838 4368 66.0908
139.954 4381 66.1891
140.071 4298 65.5591
140.187 4275 65.3835
140.303 4244 65.146
140.419 4242 65.1306
140.535 4180 64.6529
140.652 4093 63.9766
140.768 0 1
140.884 0 1
141 0 1
141.115 0 1
141.231 0 1
141.347 0 1
141.463 0 1
141.578 0 1
141.694 0 1
144.104 0 1
144.219 0 1
144.335 0 1
144.45 0 1
144.566 0 1
144.682 0 1
144.798 0 1
144.914 0 1
145.03 0 1
145.146 3749 61.2291
145.262 3775 61.441
145.378 3766 61.3677
145.494 3796 61.6117
145.61 3754 61.2699
145.726 3514 59.279
145.842 3500 59.1608
145.959 3497 59.1354
146.075 3546 59.5483
146.192 3548 59.5651
146.308 3569 59.7411
146.425 3680 60.663
146.541 3597 59.975
146.658 3624 60.1997
146.774 3621 60.1747
146.891 3595 59.9583
147.008 3595 59.9583
147.125 3577 59.808
147.241 3541 59.5063
147.358 3541 59.5063
147.475 3460 58.8218
147.592 3285 57.3149
147.709 2960 54.4059
147.826 2707 52.0288
147.943 2736 52.3068
148.06 2800 52.915
148.177 3090 55.5878
148.294 3384 58.1722
148.411 3415 58.438
148.528 3518 59.3127
148.645 3456 58.7878
148.762 3436 58.6174
148.88 3510 59.2453
148.997 3173 56.3294
149.114 3594 59.95
149.231 3288 57.3411
149.349 3339 57.7841
149.466 3349 57.8705
149.583 3245 56.9649
149.701 3242 56.9386
149.818 3277 57.2451
149.935 3220 56.745
150.053 3330 57.7062
150.17 3184 56.4269
150.287 3317 57.5934
150.405 3361 57.9741
150.522 3255 57.0526
150.64 3338 57.7754
150.757 3377 58.112
150.875 3329 57.6975
150.992 3255 57.0526
151.11 3090 55.5878
151.227 3029 55.0364
151.344 2881 53.6749
151.462 2599 50.9804
151.579 2577 50.7642
151.697 2650 51.4782
151.814 2963 54.4334
151.932 3120 55.857
152.049 3245 56.9649
152.167 3444 58.6856
152.284 3398 58.2924
152.402 3422 58.4979
152.519 3353 57.9051
152.636 3299 57.4369
152.754 3355 57.9224
152.871 3315 57.576
152.989 3233 56.8595
153.106 3195 56.5243
153.223 3296 57.4108
153.341 3223 56.7715
153.458 3326 57.6715
153.575 3270 57.1839
153.693 3284 57.3062
153.81 3489 59.0678
153.927 3457 58.7963
154.044 3337 57.7668
154.162 3387 58.1979
154.279 3411 58.4038
154.396 3433 58.5918
154.513 3458 58.8048
154.63 3344 57.8273
154.747 3398 58.2924
154.864 3126 55.9106
154.981 3049 55.2178
155.098 2832 53.2165
155.215 2815 53.0566
155.332 2890 53.7587
155.449 3278 57.2538
155.566 3358 57.9483
155.683 3276 57.2364
155.8 3429 58.5577
155.917 3370 58.0517
156.033 3438 58.6345
156.15 0 1
156.267 0 1
156.383 0 1
156.5 0 1
156.617 0 1
156.733 0 1
156.85 0 1
156.966 0 1
157.082 0 1
157.199 0 1
157.315 0 1
157.431 0 1
157.547 0 1
157.664 0 1
157.78 0 1
157.896 0 1
158.012 0 1
158.128 0 1
158.244 0 1
158.359 0 1
158.475 0 1
158.591 0 1
158.706 0 1
