
6.15755 0 1
6.2731 0 1
6.3887 0 1
6.50437 0 1
6.62009 0 1
6.73587 0 1
6.8517 0 1
6.96759 0 1
7.08353 0 1
7.19952 0 1
7.31557 0 1
7.43166 0 1
7.54781 0 1
7.664 0 1
7.78024 0 1
7.89653 0 1
8.01286 0 1
8.12924 0 1
8.24567 0 1
8.36213 0 1
8.47864 0 1
8.59519 0 1
8.71178 0 1
8.82841 0 1
8.94508 0 1
9.06179 0 1
9.17853 0 1
9.29531 0 1
9.41212 0 1
9.52897 0 1
9.64584 0 1
9.76276 0 1
9.8797 0 1
9.99667 0 1
10.1137 0 1
10.2307 0 1
10.3478 0 1
10.4648 0 1
10.5819 0 1
10.6991 0 1
10.8162 0 1
10.9334 0 1
11.0506 0 1
11.1678 0 1
11.285 0 1
11.4023 0 1
11.5196 0 1
11.6369 0 1
11.7542 0 1
11.8715 0 1
11.9888 0 1
12.1062 0 1
12.2235 0 1
12.3409 0 1
12.4582 0 1
12.5756 0 1
12.693 0 1
12.8104 0 1
12.9278 0 1
13.0452 0 1
13.1626 0 1
13.28 0 1
13.3974 0 1
13.5149 0 1
13.6323 0 1
13.7497 0 1
13.8671 0 1
13.9845 0 1
14.1019 0 1
14.2193 0 1
14.3367 0 1
14.4541 0 1
14.5714 0 1
14.6888 0 1
14.8062 0 1
14.9235 0 1
15.0408 1174 34.2637
15.1581 1220 34.9285
15.2755 1200 34.641
15.3927 1180 34.3511
15.51 1233 35.1141
15.6273 1176 34.2929
15.7445 1137 33.7194
15.8617 1180 34.3511
15.9789 1187 34.4529
16.0961 1190 34.4964
16.2132 1104 33.2265
16.3304 1100 33.1662
16.4475 1135 33.6898
16.5646 1179 34.3366
16.6816 1204 34.6987
16.7986 1184 34.4093
16.9156 1121 33.4813
17.0326 1241 35.2278
17.1496 1175 34.2783
17.2665 1217 34.8855
17.3833 1230 35.0714
17.5002 1271 35.6511
17.617 1270 35.6371
17.7338 1307 36.1525
17.8505 1303 36.0971
17.9672 1403 37.4566
18.0839 1409 37.5366
18.2005 1527 39.0768
18.3171 1556 39.4462
18.4337 1488 38.5746
18.5502 1532 39.1408
18.6666 1576 39.6989
18.7831 1565 39.5601
18.8994 1463 38.2492
19.0158 1468 38.3145
19.1321 1373 37.054
19.2483 1293 35.9583
19.3645 1265 35.5668
19.4806 1232 35.0999
19.5967 1201 34.6554
19.7128 1117 33.4215
19.8288 1156 34
19.9447 1056 32.4962
20.0606 0 1
20.1764 0 1
20.2922 0 1
20.4079 0 1
20.5236 0 1
20.6392 0 1
20.7548 0 1
20.8702 0 1
23.3078 0 1
23.4233 0 1
23.539 0 1
23.6547 0 1
23.7704 0 1
23.8862 0 1
24.0021 0 1
24.118 0 1
24.234 0 1
24.35 0 1
24.4661 1190 34.4964
24.5822 1191 34.5109
24.6984 1219 34.9142
24.8146 1166 34.1467
24.9309 1199 34.6266
25.0472 1180 34.3511
25.1636 1202 34.6699
25.28 1181 34.3657
25.3965 1319 36.318
25.513 1257 35.4542
25.6296 1284 35.8329
25.7462 1299 36.0416
25.8628 1352 36.7696
25.9795 1336 36.5513
26.0962 1389 37.2693
26.213 1324 36.3868
26.3298 1366 36.9594
26.4466 1388 37.2559
26.5635 1385 37.2156
26.6804 1445 38.0132
26.7973 1373 37.054
26.9143 1448 38.0526
27.0313 1506 38.8072
27.1483 1460 38.2099
27.2653 1466 38.2884
27.3824 1406 37.4967
27.4996 1467 38.3014
27.6167 1312 36.2215
27.7339 1267 35.5949
27.8511 1284 35.8329
27.9683 1163 34.1028
28.0855 1158 34.0294
28.2028 1143 33.8083
28.3201 1100 33.1662
28.4374 1196 34.5832
28.5547 1154 33.9706
28.6721 1121 33.4813
28.7894 1159 34.0441
28.9068 1176 34.2929
29.0242 1195 34.5688
29.1416 1230 35.0714
29.259 1144 33.8231
29.3764 1179 34.3366
29.4939 1172 34.2345
29.6113 1306 36.1386
29.7288 1232 35.0999
29.8463 1234 35.1283
29.9638 1325 36.4005
30.0812 1329 36.4555
30.1987 1274 35.6931
30.3162 1379 37.1349
30.4337 1445 38.0132
30.5512 1376 37.0945
30.6687 1363 36.9188
30.7862 1413 37.5899
30.9037 1307 36.1525
31.0212 1288 35.8887
31.1387 1315 36.2629
31.2562 1245 35.2846
31.3737 1171 34.2199
31.4912 1143 33.8083
31.6087 1110 33.3167
31.7262 1053 32.45
31.8436 1067 32.665
31.9611 1102 33.1964
32.0785 1116 33.4066
32.1959 1112 33.3467
32.3134 1170 34.2053
32.4308 1225 35
32.5482 1215 34.8569
32.6655 1200 34.641
32.7829 1109 33.3017
32.9002 1137 33.7194
33.0176 1164 34.1174
33.1349 1149 33.8969
33.2522 1137 33.7194
33.3694 1136 33.7046
33.4867 1210 34.7851
33.6039 1228 35.0428
33.7211 1148 33.8821
33.8383 1326 36.4143
33.9554 1218 34.8999
34.0725 1305 36.1248
34.1896 1295 35.9861
34.3067 1313 36.2353
34.4237 1288 35.8887
34.5407 1203 34.6843
34.6577 1252 35.3836
34.7746 1148 33.8821
34.8915 1144 33.8231
35.0084 1145 33.8378
35.1252 1056 32.4962
35.242 1036 32.187
35.3587 1043 32.2955
35.4755 1069 32.6956
35.5921 1016 31.8748
35.7088 1010 31.7805
35.8254 1112 33.3467
35.9419 1069 32.6956
36.0584 1129 33.6006
36.1749 1162 34.0881
36.2913 1107 33.2716
36.4077 1146 33.8526
36.524 1102 33.1964
36.6403 1077 32.8177
36.7565 1135 33.6898
36.8727 1023 31.9844
36.9889 1042 32.28
37.1049 1137 33.7194
37.221 0 1
37.3369 0 1
37.4529 0 1
37.5687 0 1
37.6845 0 1
37.8003 0 1
37.916 0 1
38.0316 0 1
38.1472 0 1
40.5851 0 1
40.7008 0 1
40.8164 0 1
40.9322 0 1
41.048 0 1
41.1639 0 1
41.2798 0 1
41.3958 0 1
41.5118 0 1
41.6279 0 1
41.744 866 29.4279
41.8602 925 30.4138
41.9765 970 31.1448
42.0928 1007 31.7333
42.2091 1006 31.7175
42.3255 1044 32.311
42.4419 981 31.3209
42.5584 1053 32.45
42.675 1051 32.4191
42.7915 1046 32.3419
42.9081 1014 31.8434
43.0248 1070 32.7109
43.1415 1112 33.3467
43.2582 1027 32.0468
43.375 1040 32.249
43.4918 1027 32.0468
43.6087 1140 33.7639
43.7256 1069 32.6956
43.8425 976 31.241
43.9595 1061 32.573
44.0765 975 31.225
44.1935 966 31.0805
44.3106 895 29.9166
44.4277 980 31.305
44.5448 950 30.8221
44.6619 889 29.8161
44.7791 872 29.5296
44.8963 889 29.8161
45.0136 941 30.6757
45.1308 913 30.2159
45.2481 841 29
45.3654 832 28.8444
45.4827 798 28.2489
45.6001 876 29.5973
45.7174 807 28.4077
45.8348 848 29.1204
45.9522 792 28.1425
46.0697 779 27.9106
46.1871 749 27.3679
46.3046 713 26.7021
46.422 706 26.5707
46.5395 753 27.4408
46.657 718 26.7955
46.7745 740 27.2029
46.892 739 27.1846
47.0096 755 27.4773
47.1271 688 26.2298
47.2446 641 25.318
47.3622 691 26.2869
47.4797 679 26.0576
47.5973 644 25.3772
47.7149 658 25.6515
47.8324 647 25.4362
47.95 596 24.4131
48.0675 649 25.4755
48.1851 566 23.7908
48.3027 553 23.516
48.4202 602 24.5357
48.5378 541 23.2594
48.6554 589 24.2693
48.7729 583 24.1454
48.8904 579 24.0624
49.008 582 24.1247
49.1255 564 23.7487
49.243 587 24.2281
49.3605 578 24.0416
49.478 517 22.7376
49.5955 572 23.9165
49.713 546 23.3666
49.8304 582 24.1247
49.9479 621 24.9199
50.0653 562 23.7065
50.1827 597 24.4336
50.3001 672 25.923
50.4175 581 24.1039
50.5348 618 24.8596
50.6521 683 26.1343
50.7694 651 25.5147
50.8867 696 26.3818
51.004 736 27.1293
51.1212 675 25.9808
51.2384 715 26.7395
51.3556 775 27.8388
51.4727 712 26.6833
51.5899 700 26.4575
51.707 736 27.1293
51.824 776 27.8568
51.9411 768 27.7128
52.0581 766 27.6767
52.175 760 27.5681
52.2919 768 27.7128
52.4088 761 27.5862
52.5257 786 28.0357
52.6425 684 26.1534
52.7593 745 27.2947
52.876 726 26.9444
52.9927 744 27.2764
53.1094 834 28.8791
53.226 731 27.037
53.3426 794 28.178
53.4591 856 29.2575
53.5756 824 28.7054
53.692 820 28.6356
53.8084 909 30.1496
53.9248 869 29.4788
54.0411 935 30.5778
54.1573 987 31.4166
54.2735 0 1
54.3896 0 1
54.5057 0 1
54.6217 0 1
54.7377 0 1
54.8537 0 1
54.9695 0 1
55.0853 0 1
55.2011 0 1
55.3168 0 1
55.4324 0 1
57.824 0 1
57.9396 0 1
58.0553 0 1
58.1711 0 1
58.2869 0 1
58.4028 0 1
58.5187 0 1
58.6347 0 1
58.7508 0 1
58.8669 0 1
58.983 1001 31.6386
59.0992 1024 32
59.2155 1102 33.1964
59.3318 1145 33.8378
59.4482 1155 33.9853
59.5646 1231 35.0856
59.681 1225 35
59.7975 1172 34.2345
59.9141 1201 34.6554
60.0306 1190 34.4964
60.1473 1217 34.8855
60.2639 1104 33.2265
60.3807 1072 32.7414
60.4974 1085 32.9393
60.6142 1048 32.3728
60.731 966 31.0805
60.8479 912 30.1993
60.9648 945 30.7409
61.0818 876 29.5973
61.1987 853 29.2062
61.3158 873 29.5466
61.4328 953 30.8707
61.5499 935 30.5778
61.667 1003 31.6702
61.7841 962 31.0161
61.9013 994 31.5278
62.0185 980 31.305
62.1357 1005 31.7017
62.253 1017 31.8904
62.3702 1024 32
62.4875 970 31.1448
62.6049 1059 32.5423
62.7222 1033 32.1403
62.8396 1070 32.7109
62.9569 1098 33.1361
63.0743 1168 34.176
63.1918 1103 33.2114
63.3092 1221 34.9428
63.4267 1100 33.1662
63.5441 1111 33.3317
63.6616 1070 32.7109
63.7791 1070 32.7109
63.8966 1051 32.4191
64.0142 1009 31.7648
64.1317 1016 31.8748
64.2492 877 29.6142
64.3668 786 28.0357
64.4843 764 27.6405
64.6019 853 29.2062
64.7195 790 28.1069
64.837 840 28.9828
64.9546 822 28.6705
65.0722 888 29.7993
65.1898 854 29.2233
65.3074 897 29.95
65.4249 908 30.133
65.5425 912 30.1993
65.6601 887 29.7825
65.7777 959 30.9677
65.8952 937 30.6105
66.0128 913 30.2159
66.1304 982 31.3369
66.2479 953 30.8707
66.3655 1055 32.4808
66.483 1061 32.573
66.6005 1040 32.249
66.718 1151 33.9264
66.8355 1146 33.8526
66.953 1096 33.1059
67.0705 1117 33.4215
67.1879 1098 33.1361
67.3054 1102 33.1964
67.4228 1015 31.8591
67.5402 926 30.4302
67.6576 809 28.4429
67.7749 816 28.5657
67.8923 848 29.1204
68.0096 769 27.7308
68.1269 764 27.6405
68.2442 814 28.5307
68.3614 807 28.4077
68.4787 809 28.4429
68.5958 874 29.5635
68.713 898 29.9666
68.8302 911 30.1828
68.9473 867 29.4449
69.0643 879 29.6479
69.1814 953 30.8707
69.2984 936 30.5941
69.4154 924 30.3974
69.5323 1047 32.3574
69.6492 934 30.5614
69.7661 1072 32.7414
69.8829 1043 32.2955
69.9997 1135 33.6898
70.1165 1266 35.5809
70.2332 1279 35.7631
70.3499 1156 34
70.4665 1176 34.2929
70.5831 1144 33.8231
70.6996 1179 34.3366
70.8161 1145 33.8378
70.9326 1057 32.5115
71.049 951 30.8383
71.1653 922 30.3645
71.2817 903 30.05
71.3979 824 28.7054
71.5141 808 28.4253
71.6303 813 28.5132
71.7464 794 28.178
71.8624 0 1
71.9784 0 1
72.0944 0 1
72.2102 0 1
72.3261 0 1
72.4418 0 1
72.5575 0 1
72.6732 0 1
75.1054 0 1
75.2209 0 1
75.3365 0 1
75.4521 0 1
75.5678 0 1
75.6835 0 1
75.7993 0 1
75.9151 0 1
76.031 0 1
76.147 1002 31.6544
76.263 1025 32.0156
76.3791 946 30.7571
76.4952 913 30.2159
76.6113 857 29.2746
76.7276 849 29.1376
76.8438 894 29.8998
76.9601 894 29.8998
77.0765 854 29.2233
77.1929 846 29.0861
77.3093 855 29.2404
77.4258 844 29.0517
77.5423 894 29.8998
77.6589 828 28.775
77.7755 963 31.0322
77.8921 886 29.7658
78.0088 906 30.0998
78.1256 935 30.5778
78.2423 948 30.7896
78.3591 950 30.8221
78.4759 990 31.4643
78.5928 1050 32.4037
78.7097 1059 32.5423
78.8266 1131 33.6303
78.9436 1189 34.4819
79.0606 1104 33.2265
79.1776 1199 34.6266
79.2946 1129 33.6006
79.4117 1245 35.2846
79.5288 1124 33.5261
79.6459 1142 33.7935
79.7631 1100 33.1662
79.8802 1056 32.4962
79.9974 1038 32.218
80.1147 915 30.249
80.2319 852 29.189
80.3491 819 28.6182
80.4664 904 30.0666
80.5837 824 28.7054
80.701 852 29.189
80.8183 834 28.8791
80.9357 807 28.4077
81.053 856 29.2575
81.1704 828 28.775
81.2877 914 30.2324
81.4051 888 29.7993
81.5225 936 30.5941
81.6399 953 30.8707
81.7573 938 30.6268
81.8747 923 30.3809
81.9922 926 30.4302
82.1096 990 31.4643
82.227 1040 32.249
82.3444 1135 33.6898
82.4619 1131 33.6303
82.5793 1209 34.7707
82.6967 1156 34
82.8142 1143 33.8083
82.9316 1208 34.7563
83.049 1173 34.2491
83.1664 1207 34.7419
83.2838 1119 33.4515
83.4012 1076 32.8024
83.5186 981 31.3209
83.636 911 30.1828
83.7534 853 29.2062
83.8708 880 29.6648
83.9881 820 28.6356
84.1055 872 29.5296
84.2228 849 29.1376
84.3401 832 28.8444
84.4575 834 28.8791
84.5747 852 29.189
84.692 828 28.775
84.8093 947 30.7734
84.9265 957 30.9354
85.0437 953 30.8707
85.1609 933 30.545
85.2781 947 30.7734
85.3952 971 31.1609
85.5123 1024 32
85.6294 1002 31.6544
85.7465 1110 33.3167
85.8636 1124 33.5261
85.9806 1214 34.8425
86.0976 1229 35.0571
86.2145 1267 35.5949
86.3315 1262 35.5246
86.4484 1219 34.9142
86.5652 1254 35.4119
86.682 1247 35.3129
86.7988 1279 35.7631
86.9156 1272 35.6651
87.0323 1090 33.0151
87.149 1062 32.5883
87.2657 1018 31.9061
87.3823 964 31.0483
87.4988 957 30.9354
87.6154 952 30.8545
87.7318 900 30
87.8483 954 30.8869
87.9647 943 30.7083
88.081 912 30.1993
88.1973 967 31.0966
88.3136 1000 31.6228
88.4298 1018 31.9061
88.546 1008 31.749
88.6621 974 31.209
88.7781 953 30.8707
88.8942 0 1
89.0101 0 1
89.126 0 1
89.2419 0 1
89.3577 0 1
89.4734 0 1
89.5891 0 1
89.7047 0 1
89.8203 0 1
89.9358 0 1
92.3269 0 1
92.4424 0 1
92.558 0 1
92.6736 0 1
92.7893 0 1
92.905 0 1
93.0208 0 1
93.1366 0 1
93.2525 0 1
93.3685 0 1
93.4845 0 1
93.6005 1006 31.7175
93.7167 936 30.5941
93.8328 925 30.4138
93.949 956 30.9192
94.0653 971 31.1609
94.1816 957 30.9354
94.2979 1001 31.6386
94.4143 1035 32.1714
94.5307 1023 31.9844
94.6472 1128 33.5857
94.7637 1155 33.9853
94.8803 1239 35.1994
94.9969 1241 35.2278
95.1135 1231 35.0856
95.2302 1200 34.641
95.3469 1190 34.4964
95.4637 1176 34.2929
95.5805 1176 34.2929
95.6973 1228 35.0428
95.8142 1165 34.1321
95.9311 1182 34.3802
96.048 1082 32.8938
96.1649 1077 32.8177
96.2819 995 31.5436
96.3989 953 30.8707
96.516 990 31.4643
96.633 945 30.7409
96.7501 950 30.8221
96.8673 983 31.3528
96.9844 890 29.8329
97.1016 895 29.9166
97.2188 944 30.7246
97.336 976 31.241
97.4532 1002 31.6544
97.5704 945 30.7409
97.6877 919 30.315
97.805 939 30.6431
97.9223 910 30.1662
98.0396 950 30.8221
98.1569 990 31.4643
98.2743 1012 31.8119
98.3916 1087 32.9697
98.509 1087 32.9697
98.6264 1088 32.9848
98.7438 1128 33.5857
98.8612 1137 33.7194
98.9786 1161 34.0735
99.096 1176 34.2929
99.2134 1149 33.8969
99.3308 1194 34.5543
99.4482 1106 33.2566
99.5656 1150 33.9116
99.6831 1068 32.6803
99.8005 990 31.4643
99.9179 1014 31.8434
100.035 886 29.7658
100.153 894 29.8998
100.27 899 29.9833
100.388 864 29.3939
100.505 910 30.1662
100.622 894 29.8998
100.74 926 30.4302
100.857 931 30.5123
100.975 909 30.1496
101.092 951 30.8383
101.209 863 29.3769
101.327 896 29.9333
101.444 884 29.7321
101.561 926 30.4302
101.679 941 30.6757
101.796 983 31.3528
101.913 1030 32.0936
102.03 1110 33.3167
102.148 1173 34.2491
102.265 1122 33.4963
102.382 1324 36.3868
102.499 1153 33.9559
102.616 1218 34.8999
102.733 1245 35.2846
102.851 1221 34.9428
102.968 1290 35.9166
103.085 1187 34.4529
103.202 1171 34.2199
103.319 1122 33.4963
103.436 1097 33.121
103.552 1061 32.573
103.669 1051 32.4191
103.786 980 31.305
103.903 1036 32.187
104.02 1005 31.7017
104.137 1010 31.7805
104.253 948 30.7896
104.37 1009 31.7648
104.487 970 31.1448
104.603 1020 31.9374
104.72 973 31.1929
104.836 935 30.5778
104.953 965 31.0644
105.069 1044 32.311
105.186 1006 31.7175
105.302 1110 33.3167
105.418 1153 33.9559
105.535 1242 35.242
105.651 1282 35.805
105.767 1294 35.9722
105.883 1266 35.5809
105.999 1188 34.4674
106.115 0 1
106.231 0 1
106.347 0 1
106.463 0 1
106.579 0 1
106.694 0 1
106.81 0 1
106.926 0 1
107.041 0 1
107.157 0 1
109.576 0 1
109.692 0 1
109.807 0 1
109.923 0 1
110.039 0 1
110.155 0 1
110.27 0 1
110.386 0 1
110.502 0 1
110.618 1011 31.7962
110.735 1099 33.1512
110.851 1131 33.6303
110.967 1059 32.5423
111.083 1040 32.249
111.199 1086 32.9545
111.316 1072 32.7414
111.432 1121 33.4813
111.549 1170 34.2053
111.665 1128 33.5857
111.782 995 31.5436
111.898 1014 31.8434
112.015 983 31.3528
112.132 974 31.209
112.248 929 30.4795
112.365 918 30.2985
112.482 857 29.2746
112.599 855 29.2404
112.716 834 28.8791
112.832 805 28.3725
112.949 814 28.5307
113.066 806 28.3901
113.183 762 27.6043
113.3 735 27.1109
113.417 765 27.6586
113.534 743 27.258
113.652 754 27.4591
113.769 828 28.775
113.886 886 29.7658
114.003 852 29.189
114.12 853 29.2062
114.238 908 30.133
114.355 930 30.4959
114.472 930 30.4959
114.589 843 29.0345
114.707 838 28.9482
114.824 923 30.3809
114.942 864 29.3939
115.059 860 29.3258
115.176 891 29.8496
115.294 837 28.931
115.411 838 28.9482
115.529 794 28.178
115.646 800 28.2843
115.764 775 27.8388
115.881 744 27.2764
115.999 728 26.9815
116.116 648 25.4558
116.234 649 25.4755
116.351 649 25.4755
116.469 520 22.8035
116.586 603 24.5561
116.704 621 24.9199
116.821 564 23.7487
116.939 599 24.4745
117.056 629 25.0799
117.174 639 25.2784
117.291 613 24.7588
117.409 644 25.3772
117.526 689 26.2488
117.644 763 27.6225
117.761 692 26.3059
117.879 716 26.7582
117.996 686 26.1916
118.114 654 25.5734
118.231 677 26.0192
118.349 705 26.5518
118.466 705 26.5518
118.584 838 28.9482
118.701 725 26.9258
118.819 790 28.1069
118.936 752 27.4226
119.053 762 27.6043
119.171 746 27.313
119.288 762 27.6043
119.405 696 26.3818
119.523 706 26.5707
119.64 727 26.9629
119.757 672 25.923
119.875 668 25.8457
119.992 661 25.7099
120.109 619 24.8797
120.226 606 24.6171
120.343 666 25.807
120.46 665 25.7876
120.578 700 26.4575
120.695 723 26.8887
120.812 718 26.7955
120.929 708 26.6083
121.046 713 26.7021
121.163 714 26.7208
121.279 733 27.074
121.396 797 28.2312
121.513 820 28.6356
121.63 800 28.2843
121.747 775 27.8388
121.863 699 26.4386
121.98 751 27.4044
122.097 783 27.9821
122.213 909 30.1496
122.33 884 29.7321
122.446 972 31.1769
122.563 926 30.4302
122.679 920 30.3315
122.795 883 29.7153
122.912 874 29.5635
123.028 879 29.6479
123.144 866 29.4279
123.26 844 29.0517
123.377 0 1
123.493 0 1
123.609 0 1
123.725 0 1
123.84 0 1
123.956 0 1
124.072 0 1
124.188 0 1
124.303 0 1
124.419 0 1
126.852 0 1
126.968 0 1
127.083 0 1
127.199 0 1
127.315 0 1
127.431 0 1
127.547 0 1
127.663 0 1
127.779 0 1
127.895 0 1
128.011 0 1
128.127 0 1
128.243 0 1
128.359 1062 32.5883
128.476 1042 32.28
128.592 981 31.3209
128.708 955 30.9031
128.825 985 31.3847
128.941 988 31.4325
129.058 830 28.8097
129.174 879 29.6479
129.291 901 30.0167
129.408 860 29.3258
129.524 855 29.2404
129.641 918 30.2985
129.758 914 30.2324
129.875 862 29.3598
129.992 911 30.1828
130.108 897 29.95
130.225 915 30.249
130.342 913 30.2159
130.459 936 30.5941
130.576 904 30.0666
130.693 804 28.3549
130.81 766 27.6767
130.928 634 25.1794
131.045 740 27.2029
131.162 895 29.9166
131.279 921 30.348
131.396 998 31.5911
131.513 938 30.6268
131.631 959 30.9677
131.748 892 29.8664
131.865 922 30.3645
131.983 842 29.0172
132.1 888 29.7993
132.217 872 29.5296
132.335 853 29.2062
132.452 831 28.8271
132.57 793 28.1603
132.687 785 28.0179
132.804 841 29
132.922 756 27.4955
133.039 746 27.313
133.157 814 28.5307
133.274 769 27.7308
133.392 760 27.5681
133.509 779 27.9106
133.627 760 27.5681
133.744 738 27.1662
133.862 743 27.258
133.979 768 27.7128
134.097 710 26.6458
134.214 671 25.9037
134.332 530 23.0217
134.449 506 22.4944
134.567 607 24.6374
134.684 666 25.807
134.802 774 27.8209
134.919 757 27.5136
135.037 747 27.3313
135.154 669 25.865
135.272 716 26.7582
135.389 683 26.1343
135.507 709 26.6271
135.624 689 26.2488
135.742 597 24.4336
135.859 657 25.632
135.977 647 25.4362
136.094 603 24.5561
136.211 629 25.0799
136.329 649 25.4755
136.446 588 24.2487
136.564 596 24.4131
136.681 569 23.8537
136.798 611 24.7184
136.915 545 23.3452
137.033 571 23.8956
137.15 562 23.7065
137.267 608 24.6577
137.384 544 23.3238
137.502 567 23.8118
137.619 586 24.2074
137.736 549 23.4307
137.853 486 22.0454
137.97 412 20.2978
138.087 446 21.1187
138.204 584 24.1661
138.321 582 24.1247
138.438 650 25.4951
138.555 654 25.5734
138.672 612 24.7386
138.788 710 26.6458
138.905 655 25.593
139.022 662 25.7294
139.139 665 25.7876
139.255 701 26.4764
139.372 660 25.6905
139.488 731 27.037
139.605 708 26.6083
139.721 679 26.0576
139.838 699 26.4386
139.954 689 26.2488
140.071 692 26.3059
140.187 704 26.533
140.303 695 26.3629
140.419 671 25.9037
140.535 712 26.6833
140.652 731 27.037
140.768 0 1
140.884 0 1
141 0 1
141.115 0 1
141.231 0 1
141.347 0 1
141.463 0 1
141.578 0 1
141.694 0 1
144.104 0 1
144.219 0 1
144.335 0 1
144.45 0 1
144.566 0 1
144.682 0 1
144.798 0 1
144.914 0 1
145.03 0 1
145.146 598 24.454
145.262 555 23.5584
145.378 570 23.8747
145.494 538 23.1948
145.61 543 23.3024
145.726 526 22.9347
145.842 527 22.9565
145.959 544 23.3238
146.075 524 22.891
146.192 539 23.2164
146.308 527 22.9565
146.425 500 22.3607
146.541 478 21.8632
146.658 421 20.5183
146.774 407 20.1742
146.891 443 21.0476
147.008 441 21
147.125 481 21.9317
147.241 460 21.4476
147.358 466 21.587
147.475 467 21.6102
147.592 442 21.0238
147.709 444 21.0713
147.826 449 21.1896
147.943 431 20.7605
148.06 443 21.0476
148.177 488 22.0907
148.294 447 21.1424
148.411 444 21.0713
148.528 431 20.7605
148.645 393 19.8242
148.762 414 20.347
148.88 372 19.2873
148.997 372 19.2873
149.114 381 19.5192
149.231 360 18.9737
149.349 376 19.3907
149.466 394 19.8494
149.583 366 19.1311
149.701 447 21.1424
149.818 383 19.5704
149.935 379 19.4679
150.053 382 19.5448
150.17 314 17.72
150.287 306 17.4929
150.405 352 18.7617
150.522 369 19.2094
150.64 395 19.8746
150.757 382 19.5448
150.875 379 19.4679
150.992 370 19.2354
151.11 401 20.025
151.227 421 20.5183
151.344 370 19.2354
151.462 360 18.9737
151.579 356 18.868
151.697 360 18.9737
151.814 381 19.5192
151.932 358 18.9209
152.049 337 18.3576
152.167 396 19.8997
152.284 370 19.2354
152.402 360 18.9737
152.519 348 18.6548
152.636 354 18.8149
152.754 388 19.6977
152.871 362 19.0263
152.989 376 19.3907
153.106 369 19.2094
153.223 365 19.105
153.341 390 19.7484
153.458 385 19.6214
153.575 362 19.0263
153.693 349 18.6815
153.81 374 19.3391
153.927 350 18.7083
154.044 384 19.5959
154.162 390 19.7484
154.279 438 20.9284
154.396 460 21.4476
154.513 441 21
154.63 464 21.5407
154.747 442 21.0238
154.864 415 20.3715
154.981 481 21.9317
155.098 478 21.8632
155.215 492 22.1811
155.332 431 20.7605
155.449 448 21.166
155.566 414 20.347
155.683 454 21.3073
155.8 423 20.567
155.917 428 20.6882
156.033 412 20.2978
156.15 0 1
156.267 0 1
156.383 0 1
156.5 0 1
156.617 0 1
156.733 0 1
156.85 0 1
156.966 0 1
157.082 0 1
157.199 0 1
157.315 0 1
157.431 0 1
157.547 0 1
157.664 0 1
157.78 0 1
157.896 0 1
158.012 0 1
158.128 0 1
158.244 0 1
158.359 0 1
158.475 0 1
158.591 0 1
158.706 0 1
