
6.15755 0 1
6.2731 0 1
6.3887 0 1
6.50437 0 1
6.62009 0 1
6.73587 0 1
6.8517 0 1
6.96759 0 1
7.08353 0 1
7.19952 0 1
7.31557 0 1
7.43166 0 1
7.54781 0 1
7.664 0 1
7.78024 0 1
7.89653 0 1
8.01286 0 1
8.12924 0 1
8.24567 0 1
8.36213 0 1
8.47864 0 1
8.59519 0 1
8.71178 0 1
8.82841 0 1
8.94508 0 1
9.06179 0 1
9.17853 0 1
9.29531 0 1
9.41212 0 1
9.52897 0 1
9.64584 0 1
9.76276 0 1
9.8797 0 1
9.99667 0 1
10.1137 0 1
10.2307 0 1
10.3478 0 1
10.4648 0 1
10.5819 0 1
10.6991 0 1
10.8162 0 1
10.9334 0 1
11.0506 0 1
11.1678 0 1
11.285 0 1
11.4023 0 1
11.5196 0 1
11.6369 0 1
11.7542 0 1
11.8715 0 1
11.9888 0 1
12.1062 0 1
12.2235 0 1
12.3409 0 1
12.4582 0 1
12.5756 0 1
12.693 0 1
12.8104 0 1
12.9278 0 1
13.0452 0 1
13.1626 0 1
13.28 0 1
13.3974 0 1
13.5149 0 1
13.6323 0 1
13.7497 0 1
13.8671 0 1
13.9845 0 1
14.1019 0 1
14.2193 0 1
14.3367 0 1
14.4541 0 1
14.5714 0 1
14.6888 0 1
14.8062 0 1
14.9235 0 1
15.0408 2856 53.4416
15.1581 2917 54.0093
15.2755 3057 55.2901
15.3927 3146 56.0892
15.51 2959 54.3967
15.6273 2914 53.9815
15.7445 3041 55.1453
15.8617 2991 54.69
15.9789 2841 53.301
16.0961 2854 53.4228
16.2132 2816 53.066
16.3304 2637 51.3517
16.4475 2641 51.3907
16.5646 2561 50.6063
16.6816 2569 50.6853
16.7986 2600 50.9902
16.9156 2566 50.6557
17.0326 2567 50.6656
17.1496 2551 50.5074
17.2665 2628 51.264
17.3833 2575 50.7445
17.5002 2652 51.4976
17.617 2685 51.817
17.7338 2685 51.817
17.8505 2729 52.2398
17.9672 2702 51.9808
18.0839 2705 52.0096
18.2005 2655 51.5267
18.3171 2574 50.7346
18.4337 2636 51.342
18.5502 2540 50.3984
18.6666 2612 51.1077
18.7831 2767 52.6023
18.8994 2534 50.3389
19.0158 2420 49.1935
19.1321 2330 48.2701
19.2483 2306 48.0208
19.3645 2225 47.1699
19.4806 2270 47.6445
19.5967 2092 45.7384
19.7128 1972 44.4072
19.8288 1764 42
19.9447 1688 41.0853
20.0606 0 1
20.1764 0 1
20.2922 0 1
20.4079 0 1
20.5236 0 1
20.6392 0 1
20.7548 0 1
20.8702 0 1
23.3078 0 1
23.4233 0 1
23.539 0 1
23.6547 0 1
23.7704 0 1
23.8862 0 1
24.0021 0 1
24.118 0 1
24.234 0 1
24.35 0 1
24.4661 1174 34.2637
24.5822 1299 36.0416
24.6984 1482 38.4968
24.8146 1620 40.2492
24.9309 1814 42.5911
25.0472 1965 44.3283
25.1636 2059 45.3762
25.28 2460 49.5984
25.3965 2673 51.7011
25.513 2779 52.7162
25.6296 2756 52.4976
25.7462 2816 53.066
25.8628 2848 53.3667
25.9795 2809 53
26.0962 2739 52.3355
26.213 2756 52.4976
26.3298 2727 52.2207
26.4466 2631 51.2933
26.5635 2549 50.4876
26.6804 2443 49.4267
26.7973 2370 48.6826
26.9143 2382 48.8057
27.0313 2315 48.1144
27.1483 2349 48.4665
27.2653 2308 48.0416
27.3824 2329 48.2597
27.4996 2460 49.5984
27.6167 2369 48.6724
27.7339 2341 48.3839
27.8511 2293 47.8853
27.9683 2423 49.224
28.0855 2589 50.8822
28.2028 2602 51.0098
28.3201 2523 50.2295
28.4374 2395 48.9387
28.5547 2344 48.4149
28.6721 2401 49
28.7894 2409 49.0816
28.9068 2330 48.2701
29.0242 2474 49.7393
29.1416 2539 50.3885
29.259 2441 49.4065
29.3764 2405 49.0408
29.4939 2464 49.6387
29.6113 2421 49.2037
29.7288 2447 49.4672
29.8463 2369 48.6724
29.9638 2388 48.8672
30.0812 2364 48.621
30.1987 2334 48.3115
30.3162 2333 48.3011
30.4337 2311 48.0729
30.5512 2248 47.4131
30.6687 2253 47.4658
30.7862 2339 48.3632
30.9037 2583 50.8232
31.0212 2550 50.4975
31.1387 2511 50.1099
31.2562 2380 48.7852
31.3737 2666 51.6333
31.4912 2648 51.4587
31.6087 2603 51.0196
31.7262 2491 49.9099
31.8436 2438 49.3761
31.9611 2335 48.3218
32.0785 2270 47.6445
32.1959 2116 46
32.3134 2145 46.3141
32.4308 2198 46.8828
32.5482 2174 46.6262
32.6655 2232 47.244
32.7829 2218 47.0956
32.9002 2134 46.1952
33.0176 2157 46.4435
33.1349 2165 46.5296
33.2522 2234 47.2652
33.3694 2285 47.8017
33.4867 2286 47.8121
33.6039 2173 46.6154
33.7211 2228 47.2017
33.8383 2206 46.9681
33.9554 2334 48.3115
34.0725 2156 46.4327
34.1896 2131 46.1628
34.3067 2146 46.3249
34.4237 2142 46.2817
34.5407 2342 48.3942
34.6577 2289 47.8435
34.7746 2278 47.7284
34.8915 2203 46.9361
35.0084 2285 47.8017
35.1252 2216 47.0744
35.242 2370 48.6826
35.3587 2269 47.634
35.4755 2121 46.0543
35.5921 2098 45.8039
35.7088 1990 44.6094
35.8254 1906 43.6578
35.9419 1917 43.7836
36.0584 1974 44.4297
36.1749 2009 44.8219
36.2913 1954 44.2041
36.4077 1958 44.2493
36.524 1926 43.8862
36.6403 1841 42.9069
36.7565 1798 42.4028
36.8727 1748 41.8091
36.9889 1569 39.6106
37.1049 1500 38.7298
37.221 0 1
37.3369 0 1
37.4529 0 1
37.5687 0 1
37.6845 0 1
37.8003 0 1
37.916 0 1
38.0316 0 1
38.1472 0 1
40.5851 0 1
40.7008 0 1
40.8164 0 1
40.9322 0 1
41.048 0 1
41.1639 0 1
41.2798 0 1
41.3958 0 1
41.5118 0 1
41.6279 0 1
41.744 870 29.4958
41.8602 1076 32.8024
41.9765 1258 35.4683
42.0928 1417 37.6431
42.2091 1562 39.5221
42.3255 1644 40.5463
42.4419 1729 41.5812
42.5584 1764 42
42.675 1754 41.8808
42.7915 1613 40.1622
42.9081 1621 40.2616
43.0248 1539 39.2301
43.1415 1476 38.4187
43.2582 1587 39.8372
43.375 1819 42.6497
43.4918 1747 41.7971
43.6087 1668 40.8412
43.7256 1668 40.8412
43.8425 1707 41.3159
43.9595 1623 40.2865
44.0765 1689 41.0974
44.1935 1648 40.5956
44.3106 1667 40.8289
44.4277 1545 39.3065
44.5448 1512 38.8844
44.6619 1581 39.7618
44.7791 1519 38.9744
44.8963 1528 39.0896
45.0136 1601 40.0125
45.1308 1661 40.7554
45.2481 1797 42.391
45.3654 1713 41.3884
45.4827 1761 41.9643
45.6001 1828 42.7551
45.7174 1819 42.6497
45.8348 1854 43.0581
45.9522 1846 42.9651
46.0697 1774 42.1189
46.1871 1669 40.8534
46.3046 1792 42.332
46.422 1645 40.5586
46.5395 1507 38.8201
46.657 1427 37.7757
46.7745 1608 40.0999
46.892 1604 40.05
47.0096 1712 41.3763
47.1271 1699 41.2189
47.2446 1749 41.821
47.3622 1731 41.6053
47.4797 1729 41.5812
47.5973 1719 41.4608
47.7149 1731 41.6053
47.8324 1672 40.8901
47.95 1592 39.8999
48.0675 1502 38.7556
48.1851 1454 38.1314
48.3027 1452 38.1051
48.4202 1520 38.9872
48.5378 1625 40.3113
48.6554 1691 41.1218
48.7729 1723 41.509
48.8904 1754 41.8808
49.008 1759 41.9404
49.1255 1910 43.7035
49.243 1651 40.6325
49.3605 1743 41.7493
49.478 1667 40.8289
49.5955 1740 41.7133
49.713 1756 41.9047
49.8304 1656 40.694
49.9479 1539 39.2301
50.0653 1425 37.7492
50.1827 1394 37.3363
50.3001 1480 38.4708
50.4175 1535 39.1791
50.5348 1604 40.05
50.6521 1611 40.1373
50.7694 1681 41
50.8867 1710 41.3521
51.004 1737 41.6773
51.1212 1686 41.0609
51.2384 1617 40.2119
51.3556 1589 39.8623
51.4727 1607 40.0874
51.5899 1510 38.8587
51.707 1474 38.3927
51.824 1441 37.9605
51.9411 1482 38.4968
52.0581 1603 40.0375
52.175 1714 41.4005
52.2919 1794 42.3556
52.4088 1705 41.2916
52.5257 1642 40.5216
52.6425 1692 41.1339
52.7593 1678 40.9634
52.876 1715 41.4126
52.9927 1682 41.0122
53.1094 1740 41.7133
53.226 1661 40.7554
53.3426 1693 41.1461
53.4591 1688 41.0853
53.5756 1539 39.2301
53.692 1445 38.0132
53.8084 1330 36.4692
53.9248 1479 38.4578
54.0411 1681 41
54.1573 1837 42.8602
54.2735 0 1
54.3896 0 1
54.5057 0 1
54.6217 0 1
54.7377 0 1
54.8537 0 1
54.9695 0 1
55.0853 0 1
55.2011 0 1
55.3168 0 1
55.4324 0 1
57.824 0 1
57.9396 0 1
58.0553 0 1
58.1711 0 1
58.2869 0 1
58.4028 0 1
58.5187 0 1
58.6347 0 1
58.7508 0 1
58.8669 0 1
58.983 19492 139.614
59.0992 26981 164.259
59.2155 34140 184.77
59.3318 41270 203.15
59.4482 48677 220.629
59.5646 56115 236.886
59.681 63813 252.612
59.7975 72913 270.024
59.9141 83120 288.305
60.0306 91812 303.005
60.1473 96253 310.247
60.2639 94511 307.426
60.3807 90914 301.519
60.4974 91886 303.127
60.6142 104967 323.986
60.731 129526 359.897
60.8479 158437 398.041
60.9648 182253 426.911
61.0818 197883 444.84
61.1987 207822 455.875
61.3158 213792 462.376
61.4328 216439 465.23
61.5499 218860 467.825
61.667 217835 466.728
61.7841 212061 460.501
61.9013 205199 452.989
62.0185 191697 437.832
62.1357 173487 416.518
62.253 152935 391.069
62.3702 130640 361.442
62.4875 110970 333.122
62.6049 94095 306.749
62.7222 81667 285.774
62.8396 72165 268.635
62.9569 63844 252.674
63.0743 55566 235.724
63.1918 47609 218.195
63.3092 39445 198.608
63.4267 30715 175.257
63.5441 23081 151.924
63.6616 17131 130.885
63.7791 13083 114.381
63.8966 10187 100.931
64.0142 8043 89.6828
64.1317 6691 81.7985
64.2492 5566 74.6056
64.3668 4700 68.5565
64.4843 4008 63.3088
64.6019 3482 59.0085
64.7195 3195 56.5243
64.837 2973 54.5252
64.9546 2966 54.461
65.0722 2880 53.6656
65.1898 2660 51.5752
65.3074 2784 52.7636
65.4249 2645 51.4296
65.5425 2551 50.5074
65.6601 2583 50.8232
65.7777 2591 50.9019
65.8952 2483 49.8297
66.0128 2608 51.0686
66.1304 2700 51.9615
66.2479 2837 53.2635
66.3655 2974 54.5344
66.483 3025 55
66.6005 3032 55.0636
66.718 3080 55.4977
66.8355 2982 54.6077
66.953 2933 54.1572
67.0705 2920 54.037
67.1879 2716 52.1153
67.3054 2292 47.8748
67.4228 2172 46.6047
67.5402 1897 43.5546
67.6576 1953 44.1928
67.7749 2057 45.3542
67.8923 2182 46.7119
68.0096 2167 46.551
68.1269 2133 46.1844
68.2442 2171 46.594
68.3614 2092 45.7384
68.4787 2089 45.7056
68.5958 2070 45.4973
68.713 2163 46.5081
68.8302 2152 46.3897
68.9473 2182 46.7119
69.0643 2202 46.9255
69.1814 2223 47.1487
69.2984 2035 45.111
69.4154 1991 44.6206
69.5323 1693 41.1461
69.6492 1756 41.9047
69.7661 1805 42.4853
69.8829 1829 42.7668
69.9997 1954 44.2041
70.1165 1916 43.7721
70.2332 1937 44.0114
70.3499 1922 43.8406
70.4665 1906 43.6578
70.5831 1707 41.3159
70.6996 1624 40.2989
70.8161 1562 39.5221
70.9326 1363 36.9188
71.049 1247 35.3129
71.1653 1090 33.0151
71.2817 983 31.3528
71.3979 990 31.4643
71.5141 904 30.0666
71.6303 801 28.3019
71.7464 757 27.5136
71.8624 0 1
71.9784 0 1
72.0944 0 1
72.2102 0 1
72.3261 0 1
72.4418 0 1
72.5575 0 1
72.6732 0 1
75.1054 0 1
75.2209 0 1
75.3365 0 1
75.4521 0 1
75.5678 0 1
75.6835 0 1
75.7993 0 1
75.9151 0 1
76.031 0 1
76.147 1208 34.7563
76.263 1353 36.7831
76.3791 1385 37.2156
76.4952 1356 36.8239
76.6113 1387 37.2424
76.7276 1428 37.7889
76.8438 1502 38.7556
76.9601 1605 40.0625
77.0765 1692 41.1339
77.1929 1678 40.9634
77.3093 1592 39.8999
77.4258 1730 41.5933
77.5423 1716 41.4246
77.6589 1667 40.8289
77.7755 1736 41.6653
77.8921 1769 42.0595
78.0088 1759 41.9404
78.1256 1763 41.9881
78.2423 1634 40.4228
78.3591 1578 39.724
78.4759 1529 39.1024
78.5928 1438 37.921
78.7097 1495 38.6652
78.8266 1515 38.923
78.9436 1653 40.6571
79.0606 1685 41.0488
79.1776 1607 40.0874
79.2946 1752 41.8569
79.4117 1696 41.1825
79.5288 1750 41.833
79.6459 1769 42.0595
79.7631 1832 42.8019
79.8802 1665 40.8044
79.9974 1622 40.2741
80.1147 1593 39.9124
80.2319 1589 39.8623
80.3491 1594 39.9249
80.4664 1706 41.3038
80.5837 1685 41.0488
80.701 1745 41.7732
80.8183 1718 41.4488
80.9357 1756 41.9047
81.053 1747 41.7971
81.1704 1682 41.0122
81.2877 1766 42.0238
81.4051 1733 41.6293
81.5225 1820 42.6615
81.6399 1773 42.107
81.7573 1752 41.8569
81.8747 1789 42.2966
81.9922 1671 40.8779
82.1096 1528 39.0896
82.227 1464 38.2623
82.3444 1520 38.9872
82.4619 1706 41.3038
82.5793 1642 40.5216
82.6967 1686 41.0609
82.8142 1800 42.4264
82.9316 1750 41.833
83.049 1825 42.72
83.1664 1806 42.4971
83.2838 1815 42.6028
83.4012 1782 42.2137
83.5186 1762 41.9762
83.636 1589 39.8623
83.7534 1611 40.1373
83.8708 1565 39.5601
83.9881 1595 39.9375
84.1055 1693 41.1461
84.2228 1789 42.2966
84.3401 1791 42.3202
84.4575 1751 41.845
84.5747 1740 41.7133
84.692 1696 41.1825
84.8093 1796 42.3792
84.9265 1801 42.4382
85.0437 1875 43.3013
85.1609 1801 42.4382
85.2781 1853 43.0465
85.3952 1809 42.5323
85.5123 1725 41.5331
85.6294 1625 40.3113
85.7465 1576 39.6989
85.8636 1620 40.2492
85.9806 1746 41.7852
86.0976 1737 41.6773
86.2145 1709 41.3401
86.3315 1856 43.0813
86.4484 1767 42.0357
86.5652 1798 42.4028
86.682 1819 42.6497
86.7988 1787 42.2729
86.9156 1842 42.9185
87.0323 1767 42.0357
87.149 1673 40.9023
87.2657 1589 39.8623
87.3823 1614 40.1746
87.4988 1591 39.8873
87.6154 1575 39.6863
87.7318 1554 39.4208
87.8483 1565 39.5601
87.9647 1526 39.064
88.081 1398 37.3898
88.1973 1385 37.2156
88.3136 1319 36.318
88.4298 1254 35.4119
88.546 1150 33.9116
88.6621 1065 32.6343
88.7781 990 31.4643
88.8942 0 1
89.0101 0 1
89.126 0 1
89.2419 0 1
89.3577 0 1
89.4734 0 1
89.5891 0 1
89.7047 0 1
89.8203 0 1
89.9358 0 1
92.3269 0 1
92.4424 0 1
92.558 0 1
92.6736 0 1
92.7893 0 1
92.905 0 1
93.0208 0 1
93.1366 0 1
93.2525 0 1
93.3685 0 1
93.4845 0 1
93.6005 1363 36.9188
93.7167 1421 37.6962
93.8328 1498 38.704
93.949 1644 40.5463
94.0653 1686 41.0609
94.1816 1768 42.0476
94.2979 1766 42.0238
94.4143 1901 43.6005
94.5307 1714 41.4005
94.6472 1803 42.4617
94.7637 1689 41.0974
94.8803 1634 40.4228
94.9969 1604 40.05
95.1135 1641 40.5093
95.2302 1722 41.497
95.3469 1719 41.4608
95.4637 1809 42.5323
95.5805 1846 42.9651
95.6973 1795 42.3674
95.8142 1787 42.2729
95.9311 1803 42.4617
96.048 1778 42.1663
96.1649 1802 42.45
96.2819 1767 42.0357
96.3989 1633 40.4104
96.516 1691 41.1218
96.633 1745 41.7732
96.7501 1772 42.0951
96.8673 1856 43.0813
96.9844 1849 43
97.1016 1809 42.5323
97.2188 1767 42.0357
97.336 1802 42.45
97.4532 1862 43.1509
97.5704 1767 42.0357
97.6877 1867 43.2088
97.805 1830 42.7785
97.9223 1912 43.7264
98.0396 1881 43.3705
98.1569 1829 42.7668
98.2743 1734 41.6413
98.3916 1722 41.497
98.509 1679 40.9756
98.6264 1753 41.8688
98.7438 1807 42.5088
98.8612 1724 41.5211
98.9786 1863 43.1625
99.096 1856 43.0813
99.2134 1936 44
99.3308 2007 44.7996
99.4482 1943 44.0795
99.5656 1892 43.4971
99.6831 1840 42.8952
99.8005 1901 43.6005
99.9179 1866 43.1972
100.035 1850 43.0116
100.153 1866 43.1972
100.27 1995 44.6654
100.388 1903 43.6234
100.505 1993 44.643
100.622 1891 43.4856
100.74 1953 44.1928
100.857 1910 43.7035
100.975 1963 44.3058
101.092 1873 43.2782
101.209 1933 43.9659
101.327 1900 43.589
101.444 1941 44.0568
101.561 1998 44.699
101.679 1936 44
101.796 1880 43.359
101.913 1928 43.909
102.03 1864 43.1741
102.148 1729 41.5812
102.265 1928 43.909
102.382 1926 43.8862
102.499 2025 45
102.616 2194 46.8402
102.733 2247 47.4025
102.851 2169 46.5725
102.968 2153 46.4004
103.085 2178 46.669
103.202 2129 46.1411
103.319 2051 45.288
103.436 2022 44.9667
103.552 2082 45.6289
103.669 2016 44.8999
103.786 2137 46.2277
103.903 2109 45.9239
104.02 2089 45.7056
104.137 2093 45.7493
104.253 2079 45.5961
104.37 2047 45.2438
104.487 2029 45.0444
104.603 1968 44.3621
104.72 1960 44.2719
104.836 2049 45.2659
104.953 1911 43.715
105.069 1885 43.4166
105.186 1729 41.5812
105.302 1675 40.9268
105.418 1563 39.5348
105.535 1437 37.9078
105.651 1325 36.4005
105.767 1224 34.9857
105.883 1198 34.6121
105.999 1093 33.0606
106.115 0 1
106.231 0 1
106.347 0 1
106.463 0 1
106.579 0 1
106.694 0 1
106.81 0 1
106.926 0 1
107.041 0 1
107.157 0 1
109.576 0 1
109.692 0 1
109.807 0 1
109.923 0 1
110.039 0 1
110.155 0 1
110.27 0 1
110.386 0 1
110.502 0 1
110.618 928 30.4631
110.735 1044 32.311
110.851 1216 34.8712
110.967 1331 36.4829
111.083 1522 39.0128
111.199 1641 40.5093
111.316 1769 42.0595
111.432 1873 43.2782
111.549 1897 43.5546
111.665 1908 43.6807
111.782 1733 41.6293
111.898 1707 41.3159
112.015 1769 42.0595
112.132 1753 41.8688
112.248 1758 41.9285
112.365 1862 43.1509
112.482 1852 43.0349
112.599 1942 44.0681
112.716 1812 42.5676
112.832 1773 42.107
112.949 1782 42.2137
113.066 1681 41
113.183 1657 40.7063
113.3 1744 41.7612
113.417 1829 42.7668
113.534 1789 42.2966
113.652 1795 42.3674
113.769 1697 41.1947
113.886 1729 41.5812
114.003 1673 40.9023
114.12 1592 39.8999
114.238 1700 41.2311
114.355 1581 39.7618
114.472 1651 40.6325
114.589 1628 40.3485
114.707 1801 42.4382
114.824 1744 41.7612
114.942 1819 42.6497
115.059 1722 41.497
115.176 1752 41.8569
115.294 1700 41.2311
115.411 1621 40.2616
115.529 1656 40.694
115.646 1674 40.9145
115.764 1664 40.7922
115.881 1659 40.7308
115.999 1734 41.6413
116.116 1737 41.6773
116.234 1724 41.5211
116.351 1684 41.0366
116.469 1625 40.3113
116.586 1595 39.9375
116.704 1622 40.2741
116.821 1631 40.3856
116.939 1614 40.1746
117.056 1657 40.7063
117.174 1640 40.4969
117.291 1620 40.2492
117.409 1627 40.3361
117.526 1606 40.0749
117.644 1608 40.0999
117.761 1525 39.0512
117.879 1501 38.7427
117.996 1539 39.2301
118.114 1534 39.1663
118.231 1605 40.0625
118.349 1736 41.6653
118.466 1751 41.845
118.584 1652 40.6448
118.701 1669 40.8534
118.819 1564 39.5474
118.936 1531 39.128
119.053 1494 38.6523
119.171 1477 38.4318
119.288 1530 39.1152
119.405 1629 40.3609
119.523 1561 39.5095
119.64 1720 41.4729
119.757 1603 40.0375
119.875 1602 40.025
119.992 1583 39.7869
120.109 1579 39.7366
120.226 1602 40.025
120.343 1572 39.6485
120.46 1601 40.0125
120.578 1528 39.0896
120.695 1497 38.6911
120.812 1558 39.4715
120.929 1508 38.833
121.046 1558 39.4715
121.163 1551 39.3827
121.279 1515 38.923
121.396 1380 37.1484
121.513 1393 37.3229
121.63 1366 36.9594
121.747 1317 36.2905
121.863 1469 38.3275
121.98 1406 37.4967
122.097 1408 37.5233
122.213 1415 37.6165
122.33 1350 36.7423
122.446 1234 35.1283
122.563 1189 34.4819
122.679 1045 32.3265
122.795 972 31.1769
122.912 957 30.9354
123.028 946 30.7571
123.144 893 29.8831
123.26 867 29.4449
123.377 0 1
123.493 0 1
123.609 0 1
123.725 0 1
123.84 0 1
123.956 0 1
124.072 0 1
124.188 0 1
124.303 0 1
124.419 0 1
126.852 0 1
126.968 0 1
127.083 0 1
127.199 0 1
127.315 0 1
127.431 0 1
127.547 0 1
127.663 0 1
127.779 0 1
127.895 0 1
128.011 0 1
128.127 0 1
128.243 0 1
128.359 1816 42.6146
128.476 1867 43.2088
128.592 2049 45.2659
128.708 2176 46.6476
128.825 2286 47.8121
128.941 2381 48.7955
129.058 2438 49.3761
129.174 2624 51.225
129.291 2837 53.2635
129.408 3269 57.1752
129.524 4152 64.436
129.641 5374 73.3076
129.758 6752 82.1706
129.875 7651 87.47
129.992 8034 89.6326
130.108 8325 91.2414
130.225 8089 89.9389
130.342 8016 89.5321
130.459 7897 88.8651
130.576 8467 92.0163
130.693 9403 96.9691
130.81 10027 100.135
130.928 10193 100.96
131.045 10107 100.534
131.162 10120 100.598
131.279 10821 104.024
131.396 11170 105.688
131.513 11228 105.962
131.631 10853 104.178
131.748 10677 103.33
131.865 10801 103.928
131.983 10956 104.671
132.1 11047 105.105
132.217 10964 104.709
132.335 10909 104.446
132.452 10813 103.986
132.57 10340 101.686
132.687 9887 99.4334
132.804 9856 99.2774
132.922 9712 98.5495
133.039 9249 96.1717
133.157 8952 94.615
133.274 8716 93.3595
133.392 8318 91.2031
133.509 7895 88.8538
133.627 7595 87.1493
133.744 7452 86.325
133.862 7067 84.0655
133.979 6695 81.823
134.097 6239 78.9873
134.214 6113 78.1857
134.332 5938 77.0584
134.449 5858 76.5376
134.567 5652 75.1798
134.684 5561 74.5721
134.802 5578 74.686
134.919 5623 74.9867
135.037 5627 75.0133
135.154 5361 73.2189
135.272 5143 71.7147
135.389 4636 68.0882
135.507 4703 68.5784
135.624 5003 70.7319
135.742 5047 71.0422
135.859 5181 71.9792
135.977 5237 72.3671
136.094 5012 70.7955
136.211 5055 71.0985
136.329 5014 70.8096
136.446 5018 70.8378
136.564 4967 70.4769
136.681 5107 71.4633
136.798 4962 70.4415
136.915 4881 69.8642
137.033 4846 69.6132
137.15 4801 69.2892
137.267 4748 68.9057
137.384 4644 68.1469
137.502 4462 66.7982
137.619 4373 66.1287
137.736 4227 65.0154
137.853 4093 63.9766
137.97 4301 65.582
138.087 4142 64.3584
138.204 4264 65.2993
138.321 4443 66.6558
138.438 4611 67.9043
138.555 4758 68.9783
138.672 4708 68.6149
138.788 4659 68.2569
138.905 4452 66.7233
139.022 4032 63.498
139.139 3733 61.0983
139.255 3823 61.8304
139.372 3924 62.6418
139.488 3915 62.57
139.605 3812 61.7414
139.721 3521 59.338
139.838 3352 57.8965
139.954 3169 56.2939
140.071 2898 53.8331
140.187 2863 53.507
140.303 2751 52.45
140.419 2699 51.9519
140.535 2537 50.3686
140.652 2389 48.8774
140.768 0 1
140.884 0 1
141 0 1
141.115 0 1
141.231 0 1
141.347 0 1
141.463 0 1
141.578 0 1
141.694 0 1
144.104 0 1
144.219 0 1
144.335 0 1
144.45 0 1
144.566 0 1
144.682 0 1
144.798 0 1
144.914 0 1
145.03 0 1
145.146 4030 63.4823
145.262 4338 65.8635
145.378 4544 67.4092
145.494 4671 68.3447
145.61 4738 68.8331
145.726 4823 69.4478
145.842 4870 69.7854
145.959 4882 69.8713
146.075 5083 71.2952
146.192 5161 71.8401
146.308 5076 71.2461
146.425 4938 70.2709
146.541 4802 69.2965
146.658 4934 70.2424
146.774 4847 69.6204
146.891 4947 70.3349
147.008 5321 72.9452
147.125 5528 74.3505
147.241 5597 74.8131
147.358 5747 75.809
147.475 5839 76.4133
147.592 5426 73.6614
147.709 5263 72.5465
147.826 5054 71.0915
147.943 5042 71.007
148.06 5005 70.746
148.177 5108 71.4703
148.294 5327 72.9863
148.411 5670 75.2994
148.528 5667 75.2795
148.645 5565 74.5989
148.762 5543 74.4513
148.88 5624 74.9933
148.997 5529 74.3572
149.114 5459 73.885
149.231 5408 73.5391
149.349 5398 73.4711
149.466 5403 73.5051
149.583 5324 72.9657
149.701 5247 72.4362
149.818 5055 71.0985
149.935 5023 70.8731
150.053 5011 70.7884
150.17 4811 69.3614
150.287 4611 67.9043
150.405 4587 67.7274
150.522 4358 66.0151
150.64 4410 66.4078
150.757 4481 66.9403
150.875 4702 68.5711
150.992 4914 70.0999
151.11 4641 68.1249
151.227 4794 69.2387
151.344 4602 67.838
151.462 4523 67.2533
151.579 4269 65.3376
151.697 4242 65.1306
151.814 4328 65.7875
151.932 4505 67.1193
152.049 4643 68.1396
152.167 4751 68.9275
152.284 4761 69
152.402 4874 69.814
152.519 4875 69.8212
152.636 4805 69.3181
152.754 4852 69.6563
152.871 4929 70.2068
152.989 4903 70.0214
153.106 4886 69.8999
153.223 4912 70.0857
153.341 4960 70.4273
153.458 4904 70.0286
153.575 4810 69.3542
153.693 4739 68.8404
153.81 4553 67.4759
153.927 4398 66.3174
154.044 4220 64.9615
154.162 4103 64.0547
154.279 4327 65.7799
154.396 4437 66.6108
154.513 4713 68.6513
154.63 4668 68.3228
154.747 4636 68.0882
154.864 4730 68.775
154.981 4792 69.2243
155.098 4872 69.7997
155.215 4644 68.1469
155.332 4710 68.6294
155.449 4667 68.3154
155.566 4823 69.4478
155.683 4921 70.1498
155.8 5027 70.9013
155.917 5030 70.9225
156.033 5040 70.993
156.15 0 1
156.267 0 1
156.383 0 1
156.5 0 1
156.617 0 1
156.733 0 1
156.85 0 1
156.966 0 1
157.082 0 1
157.199 0 1
157.315 0 1
157.431 0 1
157.547 0 1
157.664 0 1
157.78 0 1
157.896 0 1
158.012 0 1
158.128 0 1
158.244 0 1
158.359 0 1
158.475 0 1
158.591 0 1
158.706 0 1
