
6.15755 0 1
6.2731 0 1
6.3887 0 1
6.50437 0 1
6.62009 0 1
6.73587 0 1
6.8517 0 1
6.96759 0 1
7.08353 0 1
7.19952 0 1
7.31557 0 1
7.43166 0 1
7.54781 0 1
7.664 0 1
7.78024 0 1
7.89653 0 1
8.01286 0 1
8.12924 0 1
8.24567 0 1
8.36213 0 1
8.47864 0 1
8.59519 0 1
8.71178 0 1
8.82841 0 1
8.94508 0 1
9.06179 0 1
9.17853 0 1
9.29531 0 1
9.41212 0 1
9.52897 0 1
9.64584 0 1
9.76276 0 1
9.8797 0 1
9.99667 0 1
10.1137 0 1
10.2307 0 1
10.3478 0 1
10.4648 0 1
10.5819 0 1
10.6991 0 1
10.8162 0 1
10.9334 0 1
11.0506 0 1
11.1678 0 1
11.285 0 1
11.4023 0 1
11.5196 0 1
11.6369 0 1
11.7542 0 1
11.8715 0 1
11.9888 0 1
12.1062 0 1
12.2235 0 1
12.3409 0 1
12.4582 0 1
12.5756 0 1
12.693 0 1
12.8104 0 1
12.9278 0 1
13.0452 0 1
13.1626 0 1
13.28 0 1
13.3974 0 1
13.5149 0 1
13.6323 0 1
13.7497 0 1
13.8671 0 1
13.9845 0 1
14.1019 0 1
14.2193 0 1
14.3367 0 1
14.4541 0 1
14.5714 0 1
14.6888 0 1
14.8062 0 1
14.9235 0 1
15.0408 1793 42.3438
15.1581 1837 42.8602
15.2755 1938 44.0227
15.3927 1921 43.8292
15.51 1839 42.8836
15.6273 1831 42.7902
15.7445 1698 41.2068
15.8617 1759 41.9404
15.9789 1708 41.328
16.0961 1734 41.6413
16.2132 1755 41.8927
16.3304 1791 42.3202
16.4475 1885 43.4166
16.5646 2003 44.7549
16.6816 1969 44.3734
16.7986 2133 46.1844
16.9156 2280 47.7493
17.0326 2405 49.0408
17.1496 2396 48.949
17.2665 2394 48.9285
17.3833 2522 50.2195
17.5002 2358 48.5592
17.617 2451 49.5076
17.7338 2573 50.7247
17.8505 2431 49.3052
17.9672 2603 51.0196
18.0839 2648 51.4587
18.2005 2619 51.1762
18.3171 2660 51.5752
18.4337 2639 51.3712
18.5502 2617 51.1566
18.6666 2715 52.1057
18.7831 2760 52.5357
18.8994 2628 51.264
19.0158 2570 50.6952
19.1321 2506 50.06
19.2483 2468 49.679
19.3645 2420 49.1935
19.4806 2354 48.518
19.5967 2210 47.0106
19.7128 2140 46.2601
19.8288 1915 43.7607
19.9447 1660 40.7431
20.0606 0 1
20.1764 0 1
20.2922 0 1
20.4079 0 1
20.5236 0 1
20.6392 0 1
20.7548 0 1
20.8702 0 1
23.3078 0 1
23.4233 0 1
23.539 0 1
23.6547 0 1
23.7704 0 1
23.8862 0 1
24.0021 0 1
24.118 0 1
24.234 0 1
24.35 0 1
24.4661 2289 47.8435
24.5822 2300 47.9583
24.6984 2361 48.5901
24.8146 2421 49.2037
24.9309 2260 47.5395
25.0472 2031 45.0666
25.1636 2013 44.8665
25.28 1898 43.566
25.3965 2020 44.9444
25.513 2131 46.1628
25.6296 2303 47.9896
25.7462 2632 51.303
25.8628 2781 52.7352
25.9795 2710 52.0577
26.0962 2781 52.7352
26.213 2755 52.4881
26.3298 2731 52.259
26.4466 2745 52.3927
26.5635 2760 52.5357
26.6804 2740 52.345
26.7973 2755 52.4881
26.9143 2815 53.0566
27.0313 2689 51.8556
27.1483 2731 52.259
27.2653 2812 53.0283
27.3824 2663 51.6043
27.4996 2766 52.5928
27.6167 2715 52.1057
27.7339 2573 50.7247
27.8511 2564 50.636
27.9683 2564 50.636
28.0855 2514 50.1398
28.2028 2602 51.0098
28.3201 2457 49.5681
28.4374 2315 48.1144
28.5547 2166 46.5403
28.6721 1982 44.5197
28.7894 1887 43.4396
28.9068 1860 43.1277
29.0242 1971 44.3959
29.1416 2047 45.2438
29.259 2255 47.4868
29.3764 2345 48.4252
29.4939 2604 51.0294
29.6113 2677 51.7397
29.7288 2665 51.6236
29.8463 2608 51.0686
29.9638 2565 50.6458
30.0812 2703 51.9904
30.1987 2632 51.303
30.3162 2663 51.6043
30.4337 2727 52.2207
30.5512 2622 51.2055
30.6687 2600 50.9902
30.7862 2667 51.643
30.9037 2541 50.4083
31.0212 2737 52.3163
31.1387 2574 50.7346
31.2562 2605 51.0392
31.3737 2544 50.4381
31.4912 2522 50.2195
31.6087 2565 50.6458
31.7262 2462 49.6185
31.8436 2493 49.93
31.9611 2380 48.7852
32.0785 2169 46.5725
32.1959 1881 43.3705
32.3134 1885 43.4166
32.4308 1776 42.1426
32.5482 1836 42.8486
32.6655 2038 45.1442
32.7829 2127 46.1194
32.9002 2456 49.558
33.0176 2503 50.03
33.1349 2515 50.1498
33.2522 2534 50.3389
33.3694 2546 50.4579
33.4867 2663 51.6043
33.6039 2569 50.6853
33.7211 2575 50.7445
33.8383 2607 51.0588
33.9554 2494 49.94
34.0725 2609 51.0784
34.1896 2538 50.3786
34.3067 2540 50.3984
34.4237 2509 50.0899
34.5407 2494 49.94
34.6577 2506 50.06
34.7746 2608 51.0686
34.8915 2482 49.8197
35.0084 2472 49.7192
35.1252 2532 50.319
35.242 2603 51.0196
35.3587 2466 49.6588
35.4755 2578 50.774
35.5921 2446 49.4571
35.7088 2340 48.3735
35.8254 2049 45.2659
35.9419 1882 43.382
36.0584 1794 42.3556
36.1749 1718 41.4488
36.2913 1877 43.3244
36.4077 1983 44.5309
36.524 2109 45.9239
36.6403 2227 47.1911
36.7565 2403 49.0204
36.8727 2431 49.3052
36.9889 2424 49.2341
37.1049 2423 49.224
37.221 0 1
37.3369 0 1
37.4529 0 1
37.5687 0 1
37.6845 0 1
37.8003 0 1
37.916 0 1
38.0316 0 1
38.1472 0 1
40.5851 0 1
40.7008 0 1
40.8164 0 1
40.9322 0 1
41.048 0 1
41.1639 0 1
41.2798 0 1
41.3958 0 1
41.5118 0 1
41.6279 0 1
41.744 1612 40.1497
41.8602 1846 42.9651
41.9765 1953 44.1928
42.0928 1958 44.2493
42.2091 2005 44.7772
42.3255 2115 45.9891
42.4419 2096 45.7821
42.5584 2002 44.7437
42.675 2098 45.8039
42.7915 2061 45.3982
42.9081 1991 44.6206
43.0248 1979 44.486
43.1415 1968 44.3621
43.2582 1998 44.699
43.375 1969 44.3734
43.4918 1934 43.9773
43.6087 2011 44.8442
43.7256 1915 43.7607
43.8425 1984 44.5421
43.9595 1865 43.1856
44.0765 1843 42.9302
44.1935 1876 43.3128
44.3106 1799 42.4146
44.4277 1746 41.7852
44.5448 1573 39.6611
44.6619 1527 39.0768
44.7791 1247 35.3129
44.8963 1274 35.6931
45.0136 1226 35.0143
45.1308 1218 34.8999
45.2481 1309 36.1801
45.3654 1367 36.973
45.4827 1544 39.2938
45.6001 1586 39.8246
45.7174 1487 38.5616
45.8348 1493 38.6394
45.9522 1497 38.6911
46.0697 1498 38.704
46.1871 1440 37.9473
46.3046 1509 38.8458
46.422 1393 37.3229
46.5395 1416 37.6298
46.657 1398 37.3898
46.7745 1377 37.108
46.892 1392 37.3095
47.0096 1419 37.6696
47.1271 1493 38.6394
47.2446 1463 38.2492
47.3622 1453 38.1182
47.4797 1417 37.6431
47.5973 1391 37.2961
47.7149 1344 36.6606
47.8324 1355 36.8103
47.95 1219 34.9142
48.0675 1190 34.4964
48.1851 1126 33.5559
48.3027 996 31.5595
48.4202 974 31.209
48.5378 907 30.1164
48.6554 879 29.6479
48.7729 957 30.9354
48.8904 1064 32.619
49.008 1126 33.5559
49.1255 1131 33.6303
49.243 1259 35.4824
49.3605 1190 34.4964
49.478 1204 34.6987
49.5955 1207 34.7419
49.713 1291 35.9305
49.8304 1227 35.0286
49.9479 1186 34.4384
50.0653 1196 34.5832
50.1827 1206 34.7275
50.3001 1267 35.5949
50.4175 1223 34.9714
50.5348 1334 36.524
50.6521 1414 37.6032
50.7694 1427 37.7757
50.8867 1407 37.51
51.004 1447 38.0395
51.1212 1488 38.5746
51.2384 1532 39.1408
51.3556 1519 38.9744
51.4727 1530 39.1152
51.5899 1464 38.2623
51.707 1406 37.4967
51.824 1336 36.5513
51.9411 1313 36.2353
52.0581 1290 35.9166
52.175 1361 36.8917
52.2919 1427 37.7757
52.4088 1504 38.7814
52.5257 1720 41.4729
52.6425 1827 42.7434
52.7593 1830 42.7785
52.876 1908 43.6807
52.9927 1907 43.6692
53.1094 2011 44.8442
53.226 2040 45.1664
53.3426 1992 44.6318
53.4591 1990 44.6094
53.5756 1841 42.9069
53.692 1987 44.5758
53.8084 1966 44.3396
53.9248 1989 44.5982
54.0411 2101 45.8367
54.1573 2185 46.744
54.2735 0 1
54.3896 0 1
54.5057 0 1
54.6217 0 1
54.7377 0 1
54.8537 0 1
54.9695 0 1
55.0853 0 1
55.2011 0 1
55.3168 0 1
55.4324 0 1
57.824 0 1
57.9396 0 1
58.0553 0 1
58.1711 0 1
58.2869 0 1
58.4028 0 1
58.5187 0 1
58.6347 0 1
58.7508 0 1
58.8669 0 1
58.983 2064 45.4313
59.0992 2364 48.621
59.2155 2426 49.2544
59.3318 2474 49.7393
59.4482 2507 50.07
59.5646 2530 50.2991
59.681 2587 50.8626
59.7975 2513 50.1298
59.9141 2461 49.6085
60.0306 2446 49.4571
60.1473 2364 48.621
60.2639 2275 47.697
60.3807 2172 46.6047
60.4974 2036 45.1221
60.6142 1933 43.9659
60.731 1802 42.45
60.8479 1842 42.9185
60.9648 2022 44.9667
61.0818 2080 45.607
61.1987 2142 46.2817
61.3158 2230 47.2229
61.4328 2173 46.6154
61.5499 2223 47.1487
61.667 2164 46.5188
61.7841 2199 46.8935
61.9013 2223 47.1487
62.0185 2118 46.0217
62.1357 2101 45.8367
62.253 2054 45.3211
62.3702 2104 45.8694
62.4875 2102 45.8476
62.6049 2184 46.7333
62.7222 2200 46.9042
62.8396 2308 48.0416
62.9569 2363 48.6107
63.0743 2296 47.9166
63.1918 2285 47.8017
63.3092 2272 47.6655
63.4267 2271 47.655
63.5441 2277 47.7179
63.6616 2107 45.9021
63.7791 2046 45.2327
63.8966 1872 43.2666
64.0142 1792 42.332
64.1317 1738 41.6893
64.2492 1683 41.0244
64.3668 1689 41.0974
64.4843 1771 42.0833
64.6019 1828 42.7551
64.7195 1899 43.5775
64.837 2000 44.7214
64.9546 1958 44.2493
65.0722 1955 44.2154
65.1898 1980 44.4972
65.3074 1931 43.9431
65.4249 1933 43.9659
65.5425 1896 43.5431
65.6601 1857 43.0929
65.7777 1828 42.7551
65.8952 1901 43.6005
66.0128 1913 43.7379
66.1304 1906 43.6578
66.2479 1963 44.3058
66.3655 2166 46.5403
66.483 2188 46.7761
66.6005 2195 46.8508
66.718 2156 46.4327
66.8355 2168 46.5618
66.953 2155 46.422
67.0705 2147 46.3357
67.1879 2106 45.8912
67.3054 2024 44.9889
67.4228 1948 44.1362
67.5402 1758 41.9285
67.6576 1745 41.7732
67.7749 1639 40.4846
67.8923 1696 41.1825
68.0096 1713 41.3884
68.1269 1801 42.4382
68.2442 1837 42.8602
68.3614 1965 44.3283
68.4787 2133 46.1844
68.5958 2037 45.1331
68.713 1983 44.5309
68.8302 2058 45.3652
68.9473 2027 45.0222
69.0643 2008 44.8107
69.1814 1921 43.8292
69.2984 1967 44.3509
69.4154 1946 44.1135
69.5323 2003 44.7549
69.6492 2038 45.1442
69.7661 2185 46.744
69.8829 2291 47.8644
69.9997 2378 48.7647
70.1165 2429 49.2849
70.2332 2354 48.518
70.3499 2438 49.3761
70.4665 2380 48.7852
70.5831 2363 48.6107
70.6996 2342 48.3942
70.8161 2258 47.5184
70.9326 2259 47.5289
71.049 2152 46.3897
71.1653 2015 44.8888
71.2817 1936 44
71.3979 1811 42.5558
71.5141 1741 41.7253
71.6303 1568 39.598
71.7464 1448 38.0526
71.8624 0 1
71.9784 0 1
72.0944 0 1
72.2102 0 1
72.3261 0 1
72.4418 0 1
72.5575 0 1
72.6732 0 1
75.1054 0 1
75.2209 0 1
75.3365 0 1
75.4521 0 1
75.5678 0 1
75.6835 0 1
75.7993 0 1
75.9151 0 1
76.031 0 1
76.147 1947 44.1248
76.263 2194 46.8402
76.3791 2179 46.6798
76.4952 2187 46.7654
76.6113 1934 43.9773
76.7276 1854 43.0581
76.8438 1778 42.1663
76.9601 1832 42.8019
77.0765 1906 43.6578
77.1929 1908 43.6807
77.3093 2183 46.7226
77.4258 2194 46.8402
77.5423 2292 47.8748
77.6589 2208 46.9894
77.7755 2242 47.3498
77.8921 2186 46.7547
78.0088 2083 45.6399
78.1256 2121 46.0543
78.2423 1895 43.5316
78.3591 1820 42.6615
78.4759 1767 42.0357
78.5928 1848 42.9884
78.7097 1993 44.643
78.8266 2098 45.8039
78.9436 2473 49.7293
79.0606 2313 48.0937
79.1776 2307 48.0312
79.2946 2479 49.7896
79.4117 2434 49.3356
79.5288 2349 48.4665
79.6459 2394 48.9285
79.7631 2218 47.0956
79.8802 2125 46.0977
79.9974 2086 45.6727
80.1147 1981 44.5084
80.2319 1836 42.8486
80.3491 1724 41.5211
80.4664 1674 40.9145
80.5837 1659 40.7308
80.701 1804 42.4735
80.8183 1909 43.6921
80.9357 1886 43.4281
81.053 2084 45.6508
81.1704 2049 45.2659
81.2877 2035 45.111
81.4051 2019 44.9333
81.5225 1966 44.3396
81.6399 1953 44.1928
81.7573 1829 42.7668
81.8747 1713 41.3884
81.9922 1641 40.5093
82.1096 1546 39.3192
82.227 1640 40.4969
82.3444 1863 43.1625
82.4619 1923 43.852
82.5793 2126 46.1086
82.6967 2024 44.9889
82.8142 2120 46.0435
82.9316 2114 45.9783
83.049 2043 45.1996
83.1664 1997 44.6878
83.2838 1990 44.6094
83.4012 2022 44.9667
83.5186 1886 43.4281
83.636 1816 42.6146
83.7534 1723 41.509
83.8708 1581 39.7618
83.9881 1527 39.0768
84.1055 1469 38.3275
84.2228 1468 38.3145
84.3401 1558 39.4715
84.4575 1687 41.0731
84.5747 1790 42.3084
84.692 1775 42.1307
84.8093 1937 44.0114
84.9265 1794 42.3556
85.0437 1787 42.2729
85.1609 1703 41.2674
85.2781 1756 41.9047
85.3952 1620 40.2492
85.5123 1522 39.0128
85.6294 1403 37.4566
85.7465 1513 38.8973
85.8636 1684 41.0366
85.9806 1789 42.2966
86.0976 2016 44.8999
86.2145 2161 46.4866
86.3315 2331 48.2804
86.4484 2243 47.3603
86.5652 2283 47.7807
86.682 2317 48.1352
86.7988 2293 47.8853
86.9156 2274 47.6865
87.0323 2201 46.9148
87.149 2129 46.1411
87.2657 2058 45.3652
87.3823 1980 44.4972
87.4988 1863 43.1625
87.6154 1873 43.2782
87.7318 1834 42.8252
87.8483 1877 43.3244
87.9647 2011 44.8442
88.081 2035 45.111
88.1973 2275 47.697
88.3136 2206 46.9681
88.4298 2216 47.0744
88.546 2280 47.7493
88.6621 2196 46.8615
88.7781 2094 45.7602
88.8942 0 1
89.0101 0 1
89.126 0 1
89.2419 0 1
89.3577 0 1
89.4734 0 1
89.5891 0 1
89.7047 0 1
89.8203 0 1
89.9358 0 1
92.3269 0 1
92.4424 0 1
92.558 0 1
92.6736 0 1
92.7893 0 1
92.905 0 1
93.0208 0 1
93.1366 0 1
93.2525 0 1
93.3685 0 1
93.4845 0 1
93.6005 2177 46.6583
93.7167 2210 47.0106
93.8328 2229 47.2123
93.949 2137 46.2277
94.0653 2183 46.7226
94.1816 2203 46.9361
94.2979 2007 44.7996
94.4143 1943 44.0795
94.5307 1685 41.0488
94.6472 1696 41.1825
94.7637 1631 40.3856
94.8803 1849 43
94.9969 1959 44.2606
95.1135 2155 46.422
95.2302 2339 48.3632
95.3469 2445 49.4469
95.4637 2361 48.5901
95.5805 2564 50.636
95.6973 2539 50.3885
95.8142 2580 50.7937
95.9311 2420 49.1935
96.048 2467 49.6689
96.1649 2226 47.1805
96.2819 2290 47.8539
96.3989 2204 46.9468
96.516 2020 44.9444
96.633 1998 44.699
96.7501 2002 44.7437
96.8673 2037 45.1331
96.9844 1976 44.4522
97.1016 2043 45.1996
97.2188 2131 46.1628
97.336 2294 47.8957
97.4532 2206 46.9681
97.5704 2269 47.634
97.6877 2268 47.6235
97.805 2133 46.1844
97.9223 2097 45.793
98.0396 1889 43.4626
98.1569 1669 40.8534
98.2743 1603 40.0375
98.3916 1603 40.0375
98.509 1715 41.4126
98.6264 1963 44.3058
98.7438 2145 46.3141
98.8612 2259 47.5289
98.9786 2338 48.3529
99.096 2455 49.548
99.2134 2572 50.7149
99.3308 2433 49.3254
99.4482 2479 49.7896
99.5656 2437 49.366
99.6831 2317 48.1352
99.8005 2267 47.613
99.9179 2189 46.7868
100.035 2142 46.2817
100.153 2124 46.0869
100.27 2040 45.1664
100.388 1977 44.4635
100.505 2014 44.8776
100.622 2177 46.6583
100.74 2134 46.1952
100.857 2230 47.2229
100.975 2269 47.634
101.092 2283 47.7807
101.209 2297 47.927
101.327 2174 46.6262
101.444 2132 46.1736
101.561 2097 45.793
101.679 1739 41.7013
101.796 1644 40.5463
101.913 1664 40.7922
102.03 1724 41.5211
102.148 1976 44.4522
102.265 2263 47.571
102.382 2518 50.1797
102.499 2463 49.6286
102.616 2562 50.6162
102.733 2616 51.1468
102.851 2701 51.9711
102.968 2609 51.0784
103.085 2547 50.4678
103.202 2501 50.01
103.319 2482 49.8197
103.436 2307 48.0312
103.552 2344 48.4149
103.669 2221 47.1275
103.786 2135 46.2061
103.903 2163 46.5081
104.02 2145 46.3141
104.137 2246 47.392
104.253 2407 49.0612
104.37 2431 49.3052
104.487 2455 49.548
104.603 2465 49.6488
104.72 2489 49.8899
104.836 2456 49.558
104.953 2413 49.1223
105.069 2110 45.9347
105.186 1803 42.4617
105.302 1717 41.4367
105.418 1710 41.3521
105.535 1983 44.5309
105.651 2342 48.3942
105.767 2527 50.2693
105.883 2743 52.3737
105.999 2761 52.5452
106.115 0 1
106.231 0 1
106.347 0 1
106.463 0 1
106.579 0 1
106.694 0 1
106.81 0 1
106.926 0 1
107.041 0 1
107.157 0 1
109.576 0 1
109.692 0 1
109.807 0 1
109.923 0 1
110.039 0 1
110.155 0 1
110.27 0 1
110.386 0 1
110.502 0 1
110.618 1849 43
110.735 2266 47.6025
110.851 2577 50.7642
110.967 2612 51.1077
111.083 2720 52.1536
111.199 2762 52.5547
111.316 2819 53.0943
111.432 2789 52.811
111.549 2715 52.1057
111.665 2664 51.614
111.782 2703 51.9904
111.898 2477 49.7695
112.015 2436 49.3559
112.132 2355 48.5283
112.248 2330 48.2701
112.365 2373 48.7134
112.482 2275 47.697
112.599 2390 48.8876
112.716 2385 48.8365
112.832 2319 48.156
112.949 2376 48.7442
113.066 2438 49.3761
113.183 2454 49.5379
113.3 2445 49.4469
113.417 2383 48.816
113.534 2342 48.3942
113.652 1992 44.6318
113.769 1772 42.0951
113.886 1657 40.7063
114.003 1704 41.2795
114.12 1812 42.5676
114.238 2257 47.5079
114.355 2498 49.98
114.472 2633 51.3128
114.589 2727 52.2207
114.707 2674 51.7107
114.824 2835 53.2447
114.942 2861 53.4883
115.059 2761 52.5452
115.176 2786 52.7826
115.294 2785 52.7731
115.411 2697 51.9326
115.529 2558 50.5767
115.646 2510 50.0999
115.764 2498 49.98
115.881 2482 49.8197
115.999 2468 49.679
116.116 2501 50.01
116.234 2513 50.1298
116.351 2487 49.8698
116.469 2635 51.3323
116.586 2665 51.6236
116.704 2585 50.8429
116.821 2550 50.4975
116.939 2659 51.5655
117.056 2384 48.8262
117.174 2287 47.8226
117.291 2154 46.4112
117.409 1807 42.5088
117.526 1751 41.845
117.644 1878 43.3359
117.761 2063 45.4203
117.879 2433 49.3254
117.996 2664 51.614
118.114 2820 53.1037
118.231 2804 52.9528
118.349 2872 53.591
118.466 2859 53.4696
118.584 2979 54.5802
118.701 2867 53.5444
118.819 2819 53.0943
118.936 2774 52.6688
119.053 2677 51.7397
119.171 2657 51.5461
119.288 2525 50.2494
119.405 2446 49.4571
119.523 2589 50.8822
119.64 2484 49.8397
119.757 2512 50.1199
119.875 2484 49.8397
119.992 2571 50.705
120.109 2587 50.8626
120.226 2575 50.7445
120.343 2608 51.0686
120.46 2445 49.4469
120.578 2470 49.6991
120.695 2443 49.4267
120.812 2296 47.9166
120.929 2143 46.2925
121.046 1958 44.2493
121.163 1761 41.9643
121.279 1770 42.0714
121.396 1928 43.909
121.513 2272 47.6655
121.63 2656 51.5364
121.747 2607 51.0588
121.863 2790 52.8205
121.98 2749 52.4309
122.097 2862 53.4977
122.213 2849 53.376
122.33 2906 53.9073
122.446 2797 52.8867
122.563 2707 52.0288
122.679 2707 52.0288
122.795 2625 51.2348
122.912 2472 49.7192
123.028 2584 50.8331
123.144 2476 49.7594
123.26 2383 48.816
123.377 0 1
123.493 0 1
123.609 0 1
123.725 0 1
123.84 0 1
123.956 0 1
124.072 0 1
124.188 0 1
124.303 0 1
124.419 0 1
126.852 0 1
126.968 0 1
127.083 0 1
127.199 0 1
127.315 0 1
127.431 0 1
127.547 0 1
127.663 0 1
127.779 0 1
127.895 0 1
128.011 0 1
128.127 0 1
128.243 0 1
128.359 2675 51.7204
128.476 2759 52.5262
128.592 2785 52.7731
128.708 2830 53.1977
128.825 2765 52.5833
128.941 2585 50.8429
129.058 2764 52.5738
129.174 2759 52.5262
129.291 2809 53
129.408 2645 51.4296
129.524 2617 51.1566
129.641 2674 51.7107
129.758 2512 50.1199
129.875 2312 48.0833
129.992 2129 46.1411
130.108 1960 44.2719
130.225 1907 43.6692
130.342 2116 46
130.459 2400 48.9898
130.576 2766 52.5928
130.693 2938 54.2033
130.81 2961 54.4151
130.928 3003 54.7996
131.045 3079 55.4887
131.162 3202 56.5862
131.279 3100 55.6776
131.396 3118 55.8391
131.513 2997 54.7449
131.631 3097 55.6507
131.748 2859 53.4696
131.865 3089 55.5788
131.983 2955 54.3599
132.1 3020 54.9545
132.217 2955 54.3599
132.335 2904 53.8888
132.452 3072 55.4256
132.57 2930 54.1295
132.687 2893 53.7866
132.804 2881 53.6749
132.922 2884 53.7029
133.039 2995 54.7266
133.157 2764 52.5738
133.274 2756 52.4976
133.392 2480 49.7996
133.509 2171 46.594
133.627 1965 44.3283
133.744 1946 44.1135
133.862 1960 44.2719
133.979 2443 49.4267
134.097 2685 51.817
134.214 2808 52.9906
134.332 3020 54.9545
134.449 3081 55.5068
134.567 2952 54.3323
134.684 3078 55.4797
134.802 3049 55.2178
134.919 3075 55.4527
135.037 3074 55.4437
135.154 3068 55.3895
135.272 3089 55.5788
135.389 3009 54.8544
135.507 2963 54.4334
135.624 3028 55.0273
135.742 2995 54.7266
135.859 2880 53.6656
135.977 2974 54.5344
136.094 2932 54.1479
136.211 2916 54
136.329 3022 54.9727
136.446 2889 53.7494
136.564 2996 54.7357
136.681 2912 53.963
136.798 2846 53.3479
136.915 2678 51.7494
137.033 2374 48.7237
137.15 2215 47.0638
137.267 2108 45.913
137.384 1915 43.7607
137.502 1967 44.3509
137.619 2410 49.0918
137.736 2636 51.342
137.853 2787 52.792
137.97 2943 54.2494
138.087 2956 54.3691
138.204 3043 55.1634
138.321 3127 55.9196
138.438 3085 55.5428
138.555 3213 56.6833
138.672 3180 56.3915
138.788 3045 55.1815
138.905 3049 55.2178
139.022 3026 55.0091
139.139 3081 55.5068
139.255 3084 55.5338
139.372 2931 54.1387
139.488 2998 54.754
139.605 2926 54.0925
139.721 2950 54.3139
139.838 2965 54.4518
139.954 2992 54.6992
140.071 2999 54.7631
140.187 2960 54.4059
140.303 2906 53.9073
140.419 2878 53.647
140.535 2636 51.342
140.652 2438 49.3761
140.768 0 1
140.884 0 1
141 0 1
141.115 0 1
141.231 0 1
141.347 0 1
141.463 0 1
141.578 0 1
141.694 0 1
144.104 0 1
144.219 0 1
144.335 0 1
144.45 0 1
144.566 0 1
144.682 0 1
144.798 0 1
144.914 0 1
145.03 0 1
145.146 2024 44.9889
145.262 2268 47.6235
145.378 2316 48.1248
145.494 2356 48.5386
145.61 2264 47.5815
145.726 2112 45.9565
145.842 1996 44.6766
145.959 1803 42.4617
146.075 1767 42.0357
146.192 1651 40.6325
146.308 1640 40.4969
146.425 1816 42.6146
146.541 1985 44.5533
146.658 2162 46.4973
146.774 2144 46.3033
146.891 2341 48.3839
147.008 2499 49.99
147.125 2452 49.5177
147.241 2509 50.0899
147.358 2539 50.3885
147.475 2722 52.1728
147.592 2635 51.3323
147.709 2603 51.0196
147.826 2647 51.449
147.943 2542 50.4183
148.06 2676 51.7301
148.177 2622 51.2055
148.294 2605 51.0392
148.411 2486 49.8598
148.528 2532 50.319
148.645 2541 50.4083
148.762 2557 50.5668
148.88 2573 50.7247
148.997 2464 49.6387
149.114 2472 49.7192
149.231 2594 50.9313
149.349 2394 48.9285
149.466 2468 49.679
149.583 2267 47.613
149.701 2186 46.7547
149.818 1867 43.2088
149.935 1750 41.833
150.053 1667 40.8289
150.17 1873 43.2782
150.287 1972 44.4072
150.405 2091 45.7275
150.522 2239 47.3181
150.64 2475 49.7494
150.757 2478 49.7795
150.875 2673 51.7011
150.992 2578 50.774
151.11 2728 52.2303
151.227 2713 52.0865
151.344 2804 52.9528
151.462 2668 51.6527
151.579 2735 52.2972
151.697 2794 52.8583
151.814 2630 51.2835
151.932 2762 52.5547
152.049 2678 51.7494
152.167 2729 52.2398
152.284 2606 51.049
152.402 2580 50.7937
152.519 2729 52.2398
152.636 2740 52.345
152.754 2649 51.4684
152.871 2656 51.5364
152.989 2576 50.7543
153.106 2494 49.94
153.223 2376 48.7442
153.341 2193 46.8295
153.458 2040 45.1664
153.575 1816 42.6146
153.693 1845 42.9535
153.81 1998 44.699
153.927 2106 45.8912
154.044 2267 47.613
154.162 2398 48.9694
154.279 2424 49.2341
154.396 2696 51.923
154.513 2730 52.2494
154.63 2831 53.2071
154.747 2776 52.6878
154.864 2805 52.9623
154.981 2885 53.7122
155.098 2918 54.0185
155.215 2767 52.6023
155.332 2771 52.6403
155.449 2807 52.9811
155.566 2781 52.7352
155.683 2748 52.4214
155.8 2790 52.8205
155.917 2696 51.923
156.033 2729 52.2398
156.15 0 1
156.267 0 1
156.383 0 1
156.5 0 1
156.617 0 1
156.733 0 1
156.85 0 1
156.966 0 1
157.082 0 1
157.199 0 1
157.315 0 1
157.431 0 1
157.547 0 1
157.664 0 1
157.78 0 1
157.896 0 1
158.012 0 1
158.128 0 1
158.244 0 1
158.359 0 1
158.475 0 1
158.591 0 1
158.706 0 1
