
6.15755 0 1
6.2731 0 1
6.3887 0 1
6.50437 0 1
6.62009 0 1
6.73587 0 1
6.8517 0 1
6.96759 0 1
7.08353 0 1
7.19952 0 1
7.31557 0 1
7.43166 0 1
7.54781 0 1
7.664 0 1
7.78024 0 1
7.89653 0 1
8.01286 0 1
8.12924 0 1
8.24567 0 1
8.36213 0 1
8.47864 0 1
8.59519 0 1
8.71178 0 1
8.82841 0 1
8.94508 0 1
9.06179 0 1
9.17853 0 1
9.29531 0 1
9.41212 0 1
9.52897 0 1
9.64584 0 1
9.76276 0 1
9.8797 0 1
9.99667 0 1
10.1137 0 1
10.2307 0 1
10.3478 0 1
10.4648 0 1
10.5819 0 1
10.6991 0 1
10.8162 0 1
10.9334 0 1
11.0506 0 1
11.1678 0 1
11.285 0 1
11.4023 0 1
11.5196 0 1
11.6369 0 1
11.7542 0 1
11.8715 0 1
11.9888 0 1
12.1062 0 1
12.2235 0 1
12.3409 0 1
12.4582 0 1
12.5756 0 1
12.693 0 1
12.8104 0 1
12.9278 0 1
13.0452 0 1
13.1626 0 1
13.28 0 1
13.3974 0 1
13.5149 0 1
13.6323 0 1
13.7497 0 1
13.8671 0 1
13.9845 0 1
14.1019 0 1
14.2193 0 1
14.3367 0 1
14.4541 0 1
14.5714 0 1
14.6888 0 1
14.8062 0 1
14.9235 0 1
15.0408 11015 104.952
15.1581 11344 106.508
15.2755 11301 106.306
15.3927 11571 107.569
15.51 11390 106.724
15.6273 11403 106.785
15.7445 10978 104.776
15.8617 10813 103.986
15.9789 11133 105.513
16.0961 11730 108.305
16.2132 12096 109.982
16.3304 12678 112.597
16.4475 13141 114.634
16.5646 13101 114.46
16.6816 13077 114.355
16.7986 13335 115.477
16.9156 13010 114.061
17.0326 12817 113.212
17.1496 12872 113.455
17.2665 12942 113.763
17.3833 12819 113.221
17.5002 12778 113.04
17.617 13037 114.18
17.7338 13610 116.662
17.8505 13339 115.495
17.9672 13677 116.949
18.0839 14057 118.562
18.2005 14247 119.361
18.3171 14455 120.229
18.4337 14686 121.186
18.5502 15038 122.63
18.6666 15608 124.932
18.7831 15244 123.467
18.8994 14905 122.086
19.0158 14962 122.319
19.1321 14424 120.1
19.2483 14052 118.541
19.3645 13622 116.713
19.4806 13788 117.422
19.5967 14179 119.076
19.7128 14387 119.946
19.8288 14838 121.811
19.9447 13901 117.903
20.0606 0 1
20.1764 0 1
20.2922 0 1
20.4079 0 1
20.5236 0 1
20.6392 0 1
20.7548 0 1
20.8702 0 1
23.3078 0 1
23.4233 0 1
23.539 0 1
23.6547 0 1
23.7704 0 1
23.8862 0 1
24.0021 0 1
24.118 0 1
24.234 0 1
24.35 0 1
24.4661 14066 118.6
24.5822 14113 118.798
24.6984 14451 120.212
24.8146 14765 121.511
24.9309 15290 123.653
25.0472 15833 125.829
25.1636 15874 125.992
25.28 16298 127.664
25.3965 16197 127.267
25.513 15912 126.143
25.6296 15996 126.475
25.7462 15819 125.774
25.8628 15578 124.812
25.9795 15714 125.355
26.0962 15546 124.684
26.213 15752 125.507
26.3298 16065 126.748
26.4466 16405 128.082
26.5635 16899 129.996
26.6804 17146 130.943
26.7973 17771 133.308
26.9143 18061 134.391
27.0313 18038 134.306
27.1483 18482 135.949
27.2653 18579 136.305
27.3824 18494 135.993
27.4996 18402 135.654
27.6167 17754 133.244
27.7339 17253 131.351
27.8511 16898 129.992
27.9683 16278 127.585
28.0855 15917 126.163
28.2028 15607 124.928
28.3201 15409 124.133
28.4374 15890 126.056
28.5547 16622 128.926
28.6721 16923 130.088
28.7894 17578 132.582
28.9068 17212 131.195
29.0242 16741 129.387
29.1416 16513 128.503
29.259 16050 126.689
29.3764 15700 125.3
29.4939 15346 123.879
29.6113 15312 123.742
29.7288 15100 122.882
29.8463 15965 126.353
29.9638 16385 128.004
30.0812 16580 128.763
30.1987 17358 131.75
30.3162 17493 132.261
30.4337 17990 134.127
30.5512 18269 135.163
30.6687 18452 135.838
30.7862 18832 137.23
30.9037 18837 137.248
31.0212 18989 137.801
31.1387 18342 135.433
31.2562 18064 134.402
31.3737 17513 132.337
31.4912 16947 130.181
31.6087 16415 128.121
31.7262 16216 127.342
31.8436 16120 126.965
31.9611 16284 127.609
32.0785 16912 130.046
32.1959 17547 132.465
32.3134 17849 133.6
32.4308 17960 134.015
32.5482 17935 133.922
32.6655 17615 132.722
32.7829 16933 130.127
32.9002 16432 128.187
33.0176 16203 127.291
33.1349 15852 125.905
33.2522 16255 127.495
33.3694 16020 126.57
33.4867 16381 127.988
33.6039 16989 130.342
33.7211 17521 132.367
33.8383 17917 133.854
33.9554 18425 135.739
34.0725 18768 136.996
34.1896 18765 136.985
34.3067 19136 138.333
34.4237 18965 137.713
34.5407 19190 138.528
34.6577 19231 138.676
34.7746 19062 138.065
34.8915 18373 135.547
35.0084 17889 133.75
35.1252 17837 133.555
35.242 17177 131.061
35.3587 16688 129.182
35.4755 16473 128.347
35.5921 16575 128.744
35.7088 16802 129.623
35.8254 17434 132.038
35.9419 17972 134.06
36.0584 18014 134.216
36.1749 18556 136.22
36.2913 18275 135.185
36.4077 17433 132.034
36.524 16814 129.669
36.6403 16465 128.316
36.7565 15905 126.115
36.8727 15948 126.285
36.9889 15978 126.404
37.1049 15819 125.774
37.221 0 1
37.3369 0 1
37.4529 0 1
37.5687 0 1
37.6845 0 1
37.8003 0 1
37.916 0 1
38.0316 0 1
38.1472 0 1
40.5851 0 1
40.7008 0 1
40.8164 0 1
40.9322 0 1
41.048 0 1
41.1639 0 1
41.2798 0 1
41.3958 0 1
41.5118 0 1
41.6279 0 1
41.744 13662 116.885
41.8602 14036 118.474
41.9765 13881 117.818
42.0928 13821 117.563
42.2091 14160 118.996
42.3255 14659 121.074
42.4419 15076 122.784
42.5584 15826 125.801
42.675 16431 128.183
42.7915 16820 129.692
42.9081 17342 131.689
43.0248 17352 131.727
43.1415 17585 132.608
43.2582 17653 132.865
43.375 17573 132.563
43.4918 17408 131.939
43.6087 17272 131.423
43.7256 16847 129.796
43.8425 16191 127.244
43.9595 16105 126.905
44.0765 15344 123.871
44.1935 14907 122.094
44.3106 14465 120.271
44.4277 14480 120.333
44.5448 14744 121.425
44.6619 15000 122.474
44.7791 15377 124.004
44.8963 15298 123.685
45.0136 14971 122.356
45.1308 14378 119.908
45.2481 13701 117.051
45.3654 12802 113.146
45.4827 12192 110.417
45.6001 12256 110.707
45.7174 12040 109.727
45.8348 12186 110.39
45.9522 12628 112.374
46.0697 13347 115.529
46.1871 13503 116.202
46.3046 14042 118.499
46.422 14885 122.004
46.5395 14866 121.926
46.657 14928 122.18
46.7745 14921 122.152
46.892 14971 122.356
47.0096 14792 121.622
47.1271 14624 120.93
47.2446 14423 120.096
47.3622 14235 119.311
47.4797 13544 116.379
47.5973 13172 114.769
47.7149 12714 112.756
47.8324 12311 110.955
47.95 12163 110.286
48.0675 12149 110.223
48.1851 12515 111.87
48.3027 12851 113.362
48.4202 12787 113.08
48.5378 12567 112.103
48.6554 11882 109.005
48.7729 11502 107.247
48.8904 10838 104.106
49.008 10097 100.484
49.1255 9824 99.1161
49.243 10125 100.623
49.3605 10203 101.01
49.478 10893 104.37
49.5955 11151 105.598
49.713 11788 108.573
49.8304 12747 112.903
49.9479 12781 113.053
50.0653 13495 116.168
50.1827 13648 116.825
50.3001 13783 117.401
50.4175 14071 118.621
50.5348 14275 119.478
50.6521 14260 119.415
50.7694 14405 120.021
50.8867 13988 118.271
51.004 13906 117.924
51.1212 14062 118.583
51.2384 13715 117.111
51.3556 13597 116.606
51.4727 13759 117.299
51.5899 14153 118.966
51.707 14815 121.717
51.824 15142 123.053
51.9411 15816 125.762
52.0581 15987 126.44
52.175 15633 125.032
52.2919 15165 123.146
52.4088 14505 120.437
52.5257 14081 118.663
52.6425 13835 117.622
52.7593 13658 116.867
52.876 13909 117.936
52.9927 14582 120.756
53.1094 15817 125.766
53.226 16793 129.588
53.3426 17720 133.116
53.4591 18920 137.55
53.5756 19737 140.488
53.692 20146 141.937
53.8084 20418 142.892
53.9248 20927 144.662
54.0411 21354 146.13
54.1573 21216 145.657
54.2735 0 1
54.3896 0 1
54.5057 0 1
54.6217 0 1
54.7377 0 1
54.8537 0 1
54.9695 0 1
55.0853 0 1
55.2011 0 1
55.3168 0 1
55.4324 0 1
57.824 0 1
57.9396 0 1
58.0553 0 1
58.1711 0 1
58.2869 0 1
58.4028 0 1
58.5187 0 1
58.6347 0 1
58.7508 0 1
58.8669 0 1
58.983 23728 154.039
59.0992 24882 157.74
59.2155 25034 158.221
59.3318 25414 159.418
59.4482 25317 159.113
59.5646 25111 158.465
59.681 24434 156.314
59.7975 24209 155.592
59.9141 23560 153.493
60.0306 23337 152.765
60.1473 23370 152.872
60.2639 23398 152.964
60.3807 23353 152.817
60.4974 23584 153.571
60.6142 23486 153.251
60.731 22373 149.576
60.8479 21611 147.007
60.9648 20443 142.979
61.0818 19481 139.574
61.1987 18894 137.455
61.3158 18214 134.959
61.4328 18692 136.719
61.5499 18856 137.317
61.667 19718 140.421
61.7841 20747 144.038
61.9013 21673 147.218
62.0185 22693 150.642
62.1357 23470 153.199
62.253 23839 154.399
62.3702 24664 157.048
62.4875 24943 157.934
62.6049 24988 158.076
62.7222 24432 156.307
62.8396 24728 157.251
62.9569 24307 155.907
63.0743 23727 154.036
63.1918 23578 153.551
63.3092 23233 152.424
63.4267 22728 150.758
63.5441 22460 149.867
63.6616 22353 149.509
63.7791 22357 149.523
63.8966 22209 149.027
64.0142 22577 150.256
64.1317 22353 149.509
64.2492 21991 148.294
64.3668 21166 145.485
64.4843 19462 139.506
64.6019 18667 136.627
64.7195 17682 132.974
64.837 17260 131.377
64.9546 17218 131.217
65.0722 17797 133.405
65.1898 18190 134.87
65.3074 19741 140.503
65.4249 20580 143.457
65.5425 21625 147.054
65.6601 22627 150.423
65.7777 23438 153.095
65.8952 24089 155.206
66.0128 24201 155.567
66.1304 24351 156.048
66.2479 24728 157.251
66.3655 24408 156.231
66.483 24754 157.334
66.6005 24643 156.981
66.718 23998 154.913
66.8355 23691 153.919
66.953 23590 153.59
67.0705 23185 152.266
67.1879 23084 151.934
67.3054 22922 151.4
67.4228 23130 152.086
67.5402 23444 153.114
67.6576 23558 153.486
67.7749 23245 152.463
67.8923 23528 153.388
68.0096 21965 148.206
68.1269 21100 145.258
68.2442 19674 140.264
68.3614 18908 137.506
68.4787 18434 135.772
68.5958 18404 135.661
68.713 18635 136.51
68.8302 20034 141.542
68.9473 21378 146.212
69.0643 23031 151.76
69.1814 24045 155.065
69.2984 25608 160.025
69.4154 26487 162.748
69.5323 27321 165.291
69.6492 28247 168.068
69.7661 28570 169.027
69.8829 29294 171.155
69.9997 29213 170.918
70.1165 29145 170.719
70.2332 29187 170.842
70.3499 29160 170.763
70.4665 28668 169.316
70.5831 28619 169.172
70.6996 27923 167.102
70.8161 27689 166.4
70.9326 27490 165.801
71.049 27690 166.403
71.1653 28080 167.571
71.2817 27876 166.961
71.3979 28037 167.443
71.5141 26833 163.808
71.6303 24865 157.686
71.7464 21326 146.034
71.8624 0 1
71.9784 0 1
72.0944 0 1
72.2102 0 1
72.3261 0 1
72.4418 0 1
72.5575 0 1
72.6732 0 1
75.1054 0 1
75.2209 0 1
75.3365 0 1
75.4521 0 1
75.5678 0 1
75.6835 0 1
75.7993 0 1
75.9151 0 1
76.031 0 1
76.147 26960 164.195
76.263 29254 171.038
76.3791 29800 172.627
76.4952 31110 176.38
76.6113 31849 178.463
76.7276 31926 178.678
76.8438 31481 177.429
76.9601 29605 172.061
77.0765 27585 166.087
77.1929 25347 159.207
77.3093 23158 152.178
77.4258 21844 147.797
77.5423 21659 147.17
77.6589 22093 148.637
77.7755 23348 152.801
77.8921 25538 159.806
78.0088 28286 168.184
78.1256 30267 173.974
78.2423 32192 179.421
78.3591 33454 182.904
78.4759 34208 184.954
78.5928 34822 186.607
78.7097 35011 187.112
78.8266 34109 184.686
78.9436 36629 191.387
79.0606 34928 186.89
79.1776 34686 186.242
79.2946 34317 185.248
79.4117 33989 184.361
79.5288 33350 182.62
79.6459 33146 182.06
79.7631 32034 178.98
79.8802 31590 177.736
79.9974 31997 178.877
80.1147 32234 179.538
80.2319 32756 180.986
80.3491 33345 182.606
80.4664 33330 182.565
80.5837 31634 177.859
80.701 29595 172.032
80.8183 27002 164.323
80.9357 24257 155.747
81.053 22375 149.583
81.1704 21785 147.597
81.2877 21504 146.642
81.4051 22711 150.702
81.5225 23968 154.816
81.6399 26588 163.058
81.7573 29378 171.4
81.8747 30888 175.75
81.9922 32832 181.196
82.1096 33405 182.77
82.227 33740 183.685
82.3444 34041 184.502
82.4619 34242 185.046
82.5793 35112 187.382
82.6967 33530 183.112
82.8142 33571 183.224
82.9316 33130 182.016
83.049 32552 180.422
83.1664 32180 179.388
83.2838 31685 178.003
83.4012 30906 175.801
83.5186 30743 175.337
83.636 30264 173.966
83.7534 30851 175.645
83.8708 31100 176.352
83.9881 31792 178.303
84.1055 31376 177.133
84.2228 30543 174.766
84.3401 28315 168.271
84.4575 26174 161.784
84.5747 23713 153.99
84.692 21900 147.986
84.8093 20963 144.786
84.9265 20814 144.271
85.0437 22183 148.94
85.1609 24406 156.224
85.2781 27391 165.502
85.3952 30076 173.424
85.5123 31864 178.505
85.6294 34448 185.602
85.7465 35802 189.214
85.8636 36968 192.271
85.9806 37936 194.772
86.0976 37986 194.9
86.2145 38900 197.231
86.3315 40177 200.442
86.4484 37913 194.713
86.5652 39337 198.336
86.682 39373 198.426
86.7988 39717 199.291
86.9156 39248 198.111
87.0323 38674 196.657
87.149 38861 197.132
87.2657 38974 197.418
87.3823 39579 198.945
87.4988 40420 201.047
87.6154 41540 203.814
87.7318 40815 202.027
87.8483 39142 197.843
87.9647 35989 189.708
88.081 32970 181.576
88.1973 30354 174.224
88.3136 28245 168.062
88.4298 27783 166.682
88.546 28098 167.625
88.6621 30180 173.724
88.7781 33425 182.825
88.8942 0 1
89.0101 0 1
89.126 0 1
89.2419 0 1
89.3577 0 1
89.4734 0 1
89.5891 0 1
89.7047 0 1
89.8203 0 1
89.9358 0 1
92.3269 0 1
92.4424 0 1
92.558 0 1
92.6736 0 1
92.7893 0 1
92.905 0 1
93.0208 0 1
93.1366 0 1
93.2525 0 1
93.3685 0 1
93.4845 0 1
93.6005 31621 177.823
93.7167 30430 174.442
93.8328 30320 174.126
93.949 31872 178.527
94.0653 33638 183.407
94.1816 36905 192.107
94.2979 40190 200.474
94.4143 43696 209.036
94.5307 46172 214.877
94.6472 48246 219.65
94.7637 49281 221.993
94.8803 50256 224.179
94.9969 50531 224.791
95.1135 50816 225.424
95.2302 51016 225.867
95.3469 51237 226.356
95.4637 51207 226.29
95.5805 50860 225.522
95.6973 50834 225.464
95.8142 50819 225.431
95.9311 50196 224.045
96.048 49494 222.472
96.1649 49371 222.196
96.2819 48729 220.746
96.3989 48556 220.354
96.516 49209 221.831
96.633 50194 224.04
96.7501 49964 223.526
96.8673 48687 220.651
96.9844 45481 213.263
97.1016 41760 204.353
97.2188 38556 196.357
97.336 35513 188.449
97.4532 32731 180.917
97.5704 32376 179.933
97.6877 32008 178.908
97.805 34510 185.769
97.9223 37847 194.543
98.0396 41194 202.963
98.1569 44569 211.114
98.2743 46946 216.67
98.3916 49797 223.152
98.509 51677 227.326
98.6264 52773 229.724
98.7438 52496 229.12
98.8612 52716 229.6
98.9786 53264 230.79
99.096 53037 230.298
99.2134 52289 228.668
99.3308 52757 229.689
99.4482 52633 229.419
99.5656 52454 229.028
99.6831 52031 228.103
99.8005 50747 225.271
99.9179 50428 224.562
100.035 50476 224.669
100.153 51620 227.2
100.27 52537 229.21
100.388 52177 228.423
100.505 50160 223.964
100.622 46815 216.368
100.74 43362 208.235
100.857 39561 198.899
100.975 36076 189.937
101.092 33671 183.497
101.209 33261 182.376
101.327 34511 185.771
101.444 37116 192.655
101.561 41407 203.487
101.679 44923 211.95
101.796 48475 220.17
101.913 51608 227.174
102.03 52733 229.637
102.148 54374 233.182
102.265 53214 230.682
102.382 56876 238.487
102.499 55244 235.04
102.616 54886 234.278
102.733 54853 234.207
102.851 54565 233.592
102.968 54872 234.248
103.085 55019 234.561
103.202 54715 233.912
103.319 53457 231.208
103.436 52585 229.314
103.552 52728 229.626
103.669 53837 232.028
103.786 55209 234.966
103.903 55076 234.683
104.02 53531 231.368
104.137 50477 224.671
104.253 47099 217.023
104.37 43435 208.411
104.487 39471 198.673
104.603 37287 193.098
104.72 35932 189.557
104.836 36849 191.961
104.953 39201 197.992
105.069 43429 208.396
105.186 47758 218.536
105.302 51782 227.557
105.418 54823 234.143
105.535 57292 239.357
105.651 58298 241.45
105.767 59167 243.243
105.883 59519 243.965
105.999 58872 242.636
106.115 0 1
106.231 0 1
106.347 0 1
106.463 0 1
106.579 0 1
106.694 0 1
106.81 0 1
106.926 0 1
107.041 0 1
107.157 0 1
109.576 0 1
109.692 0 1
109.807 0 1
109.923 0 1
110.039 0 1
110.155 0 1
110.27 0 1
110.386 0 1
110.502 0 1
110.618 51802 227.601
110.735 52994 230.204
110.851 54829 234.156
110.967 55028 234.58
111.083 54793 234.079
111.199 54189 232.785
111.316 54379 233.193
111.432 55118 234.772
111.549 54645 233.763
111.665 54027 232.437
111.782 52471 229.065
111.898 51507 226.952
112.015 51951 227.928
112.132 52506 229.142
112.248 53340 230.955
112.365 53378 231.037
112.482 50182 224.013
112.599 49408 222.279
112.716 44570 211.116
112.832 41748 204.323
112.949 37912 194.71
113.066 35443 188.263
113.183 34594 185.995
113.3 34845 186.668
113.417 35921 189.528
113.534 39297 198.235
113.652 42057 205.078
113.769 45037 212.219
113.886 48486 220.195
114.003 49316 222.072
114.12 50845 225.488
114.238 51351 226.608
114.355 51394 226.702
114.472 51422 226.764
114.589 52051 228.147
114.707 50380 224.455
114.824 50570 224.878
114.942 51011 225.856
115.059 51088 226.027
115.176 51421 226.762
115.294 50370 224.433
115.411 49428 222.324
115.529 49438 222.347
115.646 49659 222.843
115.764 50074 223.772
115.881 50865 225.533
115.999 49801 223.161
116.116 48397 219.993
116.234 45987 214.446
116.351 43350 208.207
116.469 40540 201.345
116.586 37220 192.925
116.704 35149 187.481
116.821 34279 185.146
116.939 34694 186.263
117.056 36117 190.045
117.174 38382 195.913
117.291 41233 203.059
117.409 44324 210.533
117.526 46706 216.116
117.644 49170 221.743
117.761 49407 222.277
117.879 50633 225.018
117.996 50479 224.675
118.114 50338 224.361
118.231 50449 224.609
118.349 49114 221.617
118.466 48487 220.198
118.584 49464 222.405
118.701 49946 223.486
118.819 49718 222.975
118.936 49241 221.903
119.053 47531 218.016
119.171 47133 217.101
119.288 47713 218.433
119.405 48327 219.834
119.523 48892 221.115
119.64 48523 220.279
119.757 47141 217.12
119.875 45158 212.504
119.992 42676 206.582
120.109 40758 201.886
120.226 37562 193.809
120.343 35170 187.537
120.46 34288 185.17
120.578 34462 185.639
120.695 34375 185.405
120.812 36062 189.9
120.929 38460 196.112
121.046 40639 201.591
121.163 43345 208.195
121.279 45056 212.264
121.396 46901 216.566
121.513 47707 218.419
121.63 48621 220.502
121.747 48053 219.21
121.863 48517 220.266
121.98 47716 218.44
122.097 47498 217.94
122.213 46786 216.301
122.33 46935 216.645
122.446 47057 216.926
122.563 46647 215.979
122.679 46479 215.59
122.795 44777 211.606
122.912 44888 211.868
123.028 45202 212.608
123.144 45088 212.339
123.26 45748 213.888
123.377 0 1
123.493 0 1
123.609 0 1
123.725 0 1
123.84 0 1
123.956 0 1
124.072 0 1
124.188 0 1
124.303 0 1
124.419 0 1
126.852 0 1
126.968 0 1
127.083 0 1
127.199 0 1
127.315 0 1
127.431 0 1
127.547 0 1
127.663 0 1
127.779 0 1
127.895 0 1
128.011 0 1
128.127 0 1
128.243 0 1
128.359 48748 220.789
128.476 48642 220.549
128.592 48622 220.504
128.708 47128 217.09
128.825 45082 212.325
128.941 42860 207.027
129.058 40926 202.302
129.174 38922 197.287
129.291 37431 193.471
129.408 36924 192.156
129.524 37430 193.468
129.641 38451 196.089
129.758 40347 200.866
129.875 42633 206.478
129.992 44829 211.729
130.108 46349 215.288
130.225 46991 216.774
130.342 48114 219.349
130.459 47296 217.476
130.576 49584 222.675
130.693 48272 219.709
130.81 46989 216.769
130.928 46294 215.16
131.045 47354 217.61
131.162 48190 219.522
131.279 49208 221.829
131.396 48663 220.597
131.513 47651 218.291
131.631 47907 218.877
131.748 47677 218.351
131.865 48542 220.322
131.983 48230 219.613
132.1 48130 219.386
132.217 47053 216.917
132.335 45118 212.41
132.452 43581 208.761
132.57 41182 202.933
132.687 38344 195.816
132.804 37947 194.8
132.922 36592 191.29
133.039 36994 192.338
133.157 37193 192.855
133.274 38909 197.254
133.392 40577 201.437
133.509 42697 206.633
133.627 44029 209.831
133.744 45271 212.77
133.862 45951 214.362
133.979 46134 214.788
134.097 46707 216.118
134.214 45619 213.586
134.332 46295 215.163
134.449 44894 211.882
134.567 45136 212.452
134.684 46012 214.504
134.802 46765 216.252
134.919 46956 216.693
135.037 46167 214.865
135.154 45359 212.977
135.272 46012 214.504
135.389 45821 214.058
135.507 46875 216.506
135.624 46650 215.986
135.742 46388 215.379
135.859 44876 211.84
135.977 43596 208.797
136.094 42039 205.034
136.211 40099 200.247
136.329 38032 195.018
136.446 36927 192.164
136.564 36258 190.415
136.681 36019 189.787
136.798 36656 191.458
136.915 37684 194.124
137.033 39200 197.99
137.15 40863 202.146
137.267 42239 205.521
137.384 43064 207.519
137.502 43766 209.203
137.619 43661 208.952
137.736 44268 210.4
137.853 43769 209.21
137.97 43324 208.144
138.087 41829 204.521
138.204 42481 206.109
138.321 43607 208.823
138.438 44380 210.666
138.555 44948 212.009
138.672 45180 212.556
138.788 44267 210.397
138.905 44423 210.768
139.022 45080 212.321
139.139 45489 213.282
139.255 45069 212.295
139.372 44985 212.097
139.488 43990 209.738
139.605 43090 207.581
139.721 41550 203.838
139.838 40204 200.509
139.954 38579 196.415
140.071 36698 191.567
140.187 36317 190.57
140.303 35505 188.428
140.419 35142 187.462
140.535 36108 190.021
140.652 36328 190.599
140.768 0 1
140.884 0 1
141 0 1
141.115 0 1
141.231 0 1
141.347 0 1
141.463 0 1
141.578 0 1
141.694 0 1
144.104 0 1
144.219 0 1
144.335 0 1
144.45 0 1
144.566 0 1
144.682 0 1
144.798 0 1
144.914 0 1
145.03 0 1
145.146 25787 160.583
145.262 27599 166.129
145.378 28221 167.991
145.494 28529 168.905
145.61 29446 171.598
145.726 30367 174.261
145.842 31147 176.485
145.959 31942 178.723
146.075 32753 180.978
146.192 33064 181.835
146.308 32894 181.367
146.425 33117 181.981
146.541 33351 182.623
146.658 32752 180.975
146.774 32273 179.647
146.891 31973 178.81
147.008 32646 180.682
147.125 32830 181.191
147.241 34149 184.794
147.358 34022 184.451
147.475 34275 185.135
147.592 34253 185.076
147.709 33918 184.168
147.826 34812 186.58
147.943 35027 187.155
148.06 34812 186.58
148.177 34218 184.981
148.294 34087 184.627
148.411 33521 183.087
148.528 32727 180.906
148.645 31721 178.104
148.762 31173 176.559
148.88 30281 174.014
148.997 29697 172.328
149.114 30538 174.751
149.231 30100 173.494
149.349 30104 173.505
149.466 31406 177.217
149.583 31694 178.028
149.701 32582 180.505
149.818 33038 181.764
149.935 33527 183.104
150.053 33824 183.913
150.17 34319 185.254
150.287 33774 183.777
150.405 33419 182.809
150.522 32446 180.128
150.64 32477 180.214
150.757 33036 181.758
150.875 33837 183.948
150.992 34358 185.359
151.11 34578 185.952
151.227 34879 186.759
151.344 34787 186.513
151.462 34572 185.935
151.579 35223 187.678
151.697 35236 187.713
151.814 34841 186.657
151.932 34682 186.231
152.049 33936 184.217
152.167 33085 181.893
152.284 32680 180.776
152.402 31975 178.816
152.519 31653 177.913
152.636 31122 176.414
152.754 30721 175.274
152.871 30730 175.3
152.989 31403 177.209
153.106 31448 177.336
153.223 32378 179.939
153.341 33045 181.783
153.458 33226 182.28
153.575 33724 183.641
153.693 34010 184.418
153.81 34174 184.862
153.927 33910 184.147
154.044 33429 182.836
154.162 33034 181.753
154.279 32991 181.634
154.396 33423 182.82
154.513 34969 187
154.63 35585 188.64
154.747 36082 189.953
154.864 36621 191.366
154.981 36591 191.288
155.098 36452 190.924
155.215 36713 191.606
155.332 36371 190.712
155.449 35965 189.644
155.566 35487 188.38
155.683 35292 187.862
155.8 34424 185.537
155.917 34414 185.51
156.033 33170 182.126
156.15 0 1
156.267 0 1
156.383 0 1
156.5 0 1
156.617 0 1
156.733 0 1
156.85 0 1
156.966 0 1
157.082 0 1
157.199 0 1
157.315 0 1
157.431 0 1
157.547 0 1
157.664 0 1
157.78 0 1
157.896 0 1
158.012 0 1
158.128 0 1
158.244 0 1
158.359 0 1
158.475 0 1
158.591 0 1
158.706 0 1
