
6.15755 0 1
6.2731 0 1
6.3887 0 1
6.50437 0 1
6.62009 0 1
6.73587 0 1
6.8517 0 1
6.96759 0 1
7.08353 0 1
7.19952 0 1
7.31557 0 1
7.43166 0 1
7.54781 0 1
7.664 0 1
7.78024 0 1
7.89653 0 1
8.01286 0 1
8.12924 0 1
8.24567 0 1
8.36213 0 1
8.47864 0 1
8.59519 0 1
8.71178 0 1
8.82841 0 1
8.94508 0 1
9.06179 0 1
9.17853 0 1
9.29531 0 1
9.41212 0 1
9.52897 0 1
9.64584 0 1
9.76276 0 1
9.8797 0 1
9.99667 0 1
10.1137 0 1
10.2307 0 1
10.3478 0 1
10.4648 0 1
10.5819 0 1
10.6991 0 1
10.8162 0 1
10.9334 0 1
11.0506 0 1
11.1678 0 1
11.285 0 1
11.4023 0 1
11.5196 0 1
11.6369 0 1
11.7542 0 1
11.8715 0 1
11.9888 0 1
12.1062 0 1
12.2235 0 1
12.3409 0 1
12.4582 0 1
12.5756 0 1
12.693 0 1
12.8104 0 1
12.9278 0 1
13.0452 0 1
13.1626 0 1
13.28 0 1
13.3974 0 1
13.5149 0 1
13.6323 0 1
13.7497 0 1
13.8671 0 1
13.9845 0 1
14.1019 0 1
14.2193 0 1
14.3367 0 1
14.4541 0 1
14.5714 0 1
14.6888 0 1
14.8062 0 1
14.9235 0 1
15.0408 0 0
15.1581 0 0
15.2755 0 0
15.3927 0 0
15.51 0 0
15.6273 0 0
15.7445 0 0
15.8617 0 0
15.9789 0 0
16.0961 0 0
16.2132 0 0
16.3304 0 0
16.4475 0 0
16.5646 0 0
16.6816 0 0
16.7986 0 0
16.9156 0 0
17.0326 0 0
17.1496 0 0
17.2665 0 0
17.3833 0 0
17.5002 0 0
17.617 0 0
17.7338 0 0
17.8505 0 0
17.9672 0 0
18.0839 0 0
18.2005 0 0
18.3171 0 0
18.4337 0 0
18.5502 0 0
18.6666 0 0
18.7831 0 0
18.8994 0 0
19.0158 0 0
19.1321 0 0
19.2483 0 0
19.3645 0 0
19.4806 0 0
19.5967 0 0
19.7128 0 0
19.8288 0 0
19.9447 0 0
20.0606 0 1
20.1764 0 1
20.2922 0 1
20.4079 0 1
20.5236 0 1
20.6392 0 1
20.7548 0 1
20.8702 0 1
23.3078 0 1
23.4233 0 1
23.539 0 1
23.6547 0 1
23.7704 0 1
23.8862 0 1
24.0021 0 1
24.118 0 1
24.234 0 1
24.35 0 1
24.4661 1227 35.0286
24.5822 1353 36.7831
24.6984 1437 37.9078
24.8146 1632 40.398
24.9309 1971 44.3959
25.0472 2134 46.1952
25.1636 2445 49.4469
25.28 2612 51.1077
25.3965 2745 52.3927
25.513 2695 51.9134
25.6296 2601 51
25.7462 2656 51.5364
25.8628 2698 51.9423
25.9795 2647 51.449
26.0962 2662 51.5946
26.213 2633 51.3128
26.3298 2738 52.3259
26.4466 2657 51.5461
26.5635 2669 51.6624
26.6804 2708 52.0384
26.7973 2647 51.449
26.9143 2491 49.9099
27.0313 2538 50.3786
27.1483 2457 49.5681
27.2653 2485 49.8498
27.3824 2346 48.4355
27.4996 2232 47.244
27.6167 2179 46.6798
27.7339 2138 46.2385
27.8511 2235 47.2758
27.9683 2523 50.2295
28.0855 2446 49.4571
28.2028 2444 49.4368
28.3201 2458 49.5782
28.4374 2435 49.3457
28.5547 2476 49.7594
28.6721 2454 49.5379
28.7894 2524 50.2394
28.9068 2474 49.7393
29.0242 2398 48.9694
29.1416 2623 51.2152
29.259 2572 50.7149
29.3764 2513 50.1298
29.4939 2463 49.6286
29.6113 2391 48.8979
29.7288 2291 47.8644
29.8463 2328 48.2494
29.9638 2369 48.6724
30.0812 2231 47.2335
30.1987 2377 48.7545
30.3162 2393 48.9183
30.4337 2414 49.1325
30.5512 2340 48.3735
30.6687 2455 49.548
30.7862 2498 49.98
30.9037 2252 47.4552
31.0212 2293 47.8853
31.1387 2171 46.594
31.2562 2187 46.7654
31.3737 2318 48.1456
31.4912 2544 50.4381
31.6087 2475 49.7494
31.7262 2598 50.9706
31.8436 2528 50.2792
31.9611 2524 50.2394
32.0785 2481 49.8096
32.1959 2387 48.8569
32.3134 2403 49.0204
32.4308 2456 49.558
32.5482 2399 48.9796
32.6655 2297 47.927
32.7829 2264 47.5815
32.9002 2124 46.0869
33.0176 2142 46.2817
33.1349 2095 45.7712
33.2522 2144 46.3033
33.3694 2262 47.5605
33.4867 2173 46.6154
33.6039 2085 45.6618
33.7211 2165 46.5296
33.8383 2329 48.2597
33.9554 2343 48.4045
34.0725 2313 48.0937
34.1896 2340 48.3735
34.3067 2518 50.1797
34.4237 2429 49.2849
34.5407 2175 46.6369
34.6577 2252 47.4552
34.7746 2286 47.8121
34.8915 2216 47.0744
35.0084 2406 49.051
35.1252 2366 48.6415
35.242 2571 50.705
35.3587 2479 49.7896
35.4755 2446 49.4571
35.5921 2420 49.1935
35.7088 2340 48.3735
35.8254 2206 46.9681
35.9419 2170 46.5833
36.0584 2056 45.3431
36.1749 2194 46.8402
36.2913 2037 45.1331
36.4077 2011 44.8442
36.524 1884 43.4051
36.6403 1679 40.9756
36.7565 1474 38.3927
36.8727 1485 38.5357
36.9889 1414 37.6032
37.1049 1415 37.6165
37.221 0 1
37.3369 0 1
37.4529 0 1
37.5687 0 1
37.6845 0 1
37.8003 0 1
37.916 0 1
38.0316 0 1
38.1472 0 1
40.5851 0 1
40.7008 0 1
40.8164 0 1
40.9322 0 1
41.048 0 1
41.1639 0 1
41.2798 0 1
41.3958 0 1
41.5118 0 1
41.6279 0 1
41.744 1853 43.0465
41.8602 2497 49.97
41.9765 2968 54.4794
42.0928 3050 55.2268
42.2091 3208 56.6392
42.3255 3115 55.8122
42.4419 3200 56.5685
42.5584 3273 57.2101
42.675 3426 58.532
42.7915 3422 58.4979
42.9081 3374 58.0861
43.0248 3459 58.8133
43.1415 3532 59.4306
43.2582 3353 57.9051
43.375 3133 55.9732
43.4918 2981 54.5985
43.6087 3169 56.2939
43.7256 3230 56.8331
43.8425 3146 56.0892
43.9595 3323 57.6455
44.0765 3087 55.5608
44.1935 3080 55.4977
44.3106 3010 54.8635
44.4277 2913 53.9722
44.5448 2707 52.0288
44.6619 2666 51.6333
44.7791 2567 50.6656
44.8963 2432 49.3153
45.0136 2286 47.8121
45.1308 2177 46.6583
45.2481 2130 46.1519
45.3654 2018 44.9222
45.4827 1920 43.8178
45.6001 1790 42.3084
45.7174 1959 44.2606
45.8348 1773 42.107
45.9522 1852 43.0349
46.0697 1889 43.4626
46.1871 2026 45.0111
46.3046 2063 45.4203
46.422 2059 45.3762
46.5395 2100 45.8258
46.657 2198 46.8828
46.7745 2085 45.6618
46.892 1914 43.7493
47.0096 1911 43.715
47.1271 1821 42.6732
47.2446 2039 45.1553
47.3622 2022 44.9667
47.4797 2078 45.5851
47.5973 2127 46.1194
47.7149 2005 44.7772
47.8324 2065 45.4423
47.95 2044 45.2106
48.0675 2016 44.8999
48.1851 2028 45.0333
48.3027 2030 45.0555
48.4202 1962 44.2945
48.5378 1932 43.9545
48.6554 1833 42.8135
48.7729 1802 42.45
48.8904 1780 42.19
49.008 1728 41.5692
49.1255 1748 41.8091
49.243 1790 42.3084
49.3605 1764 42
49.478 1890 43.4741
49.5955 1863 43.1625
49.713 1883 43.3935
49.8304 2010 44.833
49.9479 1991 44.6206
50.0653 2004 44.7661
50.1827 2052 45.299
50.3001 1831 42.7902
50.4175 1642 40.5216
50.5348 1543 39.281
50.6521 1653 40.6571
50.7694 1825 42.72
50.8867 1911 43.715
51.004 2031 45.0666
51.1212 2114 45.9783
51.2384 1962 44.2945
51.3556 2029 45.0444
51.4727 2086 45.6727
51.5899 2038 45.1442
51.707 2021 44.9555
51.824 1931 43.9431
51.9411 1831 42.7902
52.0581 1894 43.5201
52.175 1904 43.6348
52.2919 1824 42.7083
52.4088 1865 43.1856
52.5257 1834 42.8252
52.6425 1813 42.5793
52.7593 1849 43
52.876 1831 42.7902
52.9927 1814 42.5911
53.1094 1842 42.9185
53.226 1821 42.6732
53.3426 1875 43.3013
53.4591 1785 42.2493
53.5756 1602 40.025
53.692 1383 37.1887
53.8084 1308 36.1663
53.9248 1155 33.9853
54.0411 1080 32.8634
54.1573 1069 32.6956
54.2735 0 1
54.3896 0 1
54.5057 0 1
54.6217 0 1
54.7377 0 1
54.8537 0 1
54.9695 0 1
55.0853 0 1
55.2011 0 1
55.3168 0 1
55.4324 0 1
57.824 0 1
57.9396 0 1
58.0553 0 1
58.1711 0 1
58.2869 0 1
58.4028 0 1
58.5187 0 1
58.6347 0 1
58.7508 0 1
58.8669 0 1
58.983 1645 40.5586
59.0992 1625 40.3113
59.2155 1705 41.2916
59.3318 1777 42.1545
59.4482 1991 44.6206
59.5646 2107 45.9021
59.681 2266 47.6025
59.7975 2410 49.0918
59.9141 2434 49.3356
60.0306 2308 48.0416
60.1473 2420 49.1935
60.2639 2427 49.2646
60.3807 2305 48.0104
60.4974 2234 47.2652
60.6142 2478 49.7795
60.731 2313 48.0937
60.8479 2293 47.8853
60.9648 2388 48.8672
61.0818 2432 49.3153
61.1987 2421 49.2037
61.3158 2294 47.8957
61.4328 2267 47.613
61.5499 2277 47.7179
61.667 2250 47.4342
61.7841 2258 47.5184
61.9013 2352 48.4974
62.0185 2322 48.1871
62.1357 2348 48.4562
62.253 2468 49.679
62.3702 2348 48.4562
62.4875 2144 46.3033
62.6049 2119 46.0326
62.7222 2097 45.793
62.8396 2139 46.2493
62.9569 2296 47.9166
63.0743 2416 49.1528
63.1918 2505 50.05
63.3092 2626 51.2445
63.4267 2404 49.0306
63.5441 2471 49.7092
63.6616 2410 49.0918
63.7791 2391 48.8979
63.8966 2347 48.4458
64.0142 2319 48.156
64.1317 2376 48.7442
64.2492 2419 49.1833
64.3668 2419 49.1833
64.4843 2392 48.9081
64.6019 2394 48.9285
64.7195 2298 47.9375
64.837 2228 47.2017
64.9546 2346 48.4355
65.0722 2170 46.5833
65.1898 2186 46.7547
65.3074 2176 46.6476
65.4249 2267 47.613
65.5425 2247 47.4025
65.6601 2338 48.3529
65.7777 2456 49.558
65.8952 2324 48.2079
66.0128 2223 47.1487
66.1304 2001 44.7325
66.2479 1926 43.8862
66.3655 1987 44.5758
66.483 2157 46.4435
66.6005 2216 47.0744
66.718 2368 48.6621
66.8355 2417 49.163
66.953 2382 48.8057
67.0705 2306 48.0208
67.1879 2422 49.2138
67.3054 2279 47.7389
67.4228 2375 48.734
67.5402 2376 48.7442
67.6576 2326 48.2286
67.7749 2342 48.3942
67.8923 2379 48.775
68.0096 2373 48.7134
68.1269 2295 47.9062
68.2442 2307 48.0312
68.3614 2330 48.2701
68.4787 2294 47.8957
68.5958 2260 47.5395
68.713 2215 47.0638
68.8302 2166 46.5403
68.9473 2070 45.4973
69.0643 2202 46.9255
69.1814 2131 46.1628
69.2984 2285 47.8017
69.4154 2214 47.0532
69.5323 2272 47.6655
69.6492 1960 44.2719
69.7661 1876 43.3128
69.8829 1674 40.9145
69.9997 1773 42.107
70.1165 1884 43.4051
70.2332 1899 43.5775
70.3499 1903 43.6234
70.4665 1691 41.1218
70.5831 1634 40.4228
70.6996 1502 38.7556
70.8161 1555 39.4335
70.9326 1459 38.1969
71.049 1414 37.6032
71.1653 1325 36.4005
71.2817 1204 34.6987
71.3979 1255 35.426
71.5141 1192 34.5254
71.6303 1153 33.9559
71.7464 1100 33.1662
71.8624 0 1
71.9784 0 1
72.0944 0 1
72.2102 0 1
72.3261 0 1
72.4418 0 1
72.5575 0 1
72.6732 0 1
75.1054 0 1
75.2209 0 1
75.3365 0 1
75.4521 0 1
75.5678 0 1
75.6835 0 1
75.7993 0 1
75.9151 0 1
76.031 0 1
76.147 1895 43.5316
76.263 2070 45.4973
76.3791 2116 46
76.4952 1999 44.7102
76.6113 2087 45.6837
76.7276 2078 45.5851
76.8438 2091 45.7275
76.9601 2161 46.4866
77.0765 2109 45.9239
77.1929 2146 46.3249
77.3093 2166 46.5403
77.4258 2170 46.5833
77.5423 2066 45.4533
77.6589 2027 45.0222
77.7755 2115 45.9891
77.8921 2162 46.4973
78.0088 2015 44.8888
78.1256 2036 45.1221
78.2423 2058 45.3652
78.3591 2201 46.9148
78.4759 2124 46.0869
78.5928 2082 45.6289
78.7097 1809 42.5323
78.8266 1665 40.8044
78.9436 1466 38.2884
79.0606 1553 39.4081
79.1776 1847 42.9767
79.2946 2063 45.4203
79.4117 2133 46.1844
79.5288 2203 46.9361
79.6459 2151 46.3789
79.7631 2158 46.4543
79.8802 2200 46.9042
79.9974 2306 48.0208
80.1147 2114 45.9783
80.2319 2188 46.7761
80.3491 2131 46.1628
80.4664 2196 46.8615
80.5837 2290 47.8539
80.701 2288 47.833
80.8183 2290 47.8539
80.9357 2423 49.224
81.053 2313 48.0937
81.1704 2284 47.7912
81.2877 2241 47.3392
81.4051 2201 46.9148
81.5225 2264 47.5815
81.6399 2237 47.2969
81.7573 2431 49.3052
81.8747 2377 48.7545
81.9922 2507 50.07
82.1096 2480 49.7996
82.227 2638 51.3615
82.3444 2538 50.3786
82.4619 2204 46.9468
82.5793 2068 45.4753
82.6967 2019 44.9333
82.8142 2532 50.319
82.9316 2996 54.7357
83.049 3485 59.0339
83.1664 3552 59.5987
83.2838 3739 61.1474
83.4012 3857 62.1048
83.5186 3955 62.8888
83.636 3953 62.8729
83.7534 4056 63.6867
83.8708 4065 63.7574
83.9881 4114 64.1405
84.1055 4216 64.9307
84.2228 4218 64.9461
84.3401 4303 65.5973
84.4575 4311 65.6582
84.5747 4280 65.4217
84.692 4340 65.8787
84.8093 4272 65.3605
84.9265 4141 64.3506
85.0437 4098 64.0156
85.1609 4081 63.8827
85.2781 4187 64.707
85.3952 4140 64.3428
85.5123 4139 64.3351
85.6294 4075 63.8357
85.7465 3979 63.0793
85.8636 3791 61.5711
85.9806 3231 56.8419
86.0976 2727 52.2207
86.2145 2663 51.6043
86.3315 3007 54.8361
86.4484 3801 61.6523
86.5652 4059 63.7103
86.682 4007 63.3009
86.7988 4086 63.9218
86.9156 4128 64.2495
87.0323 4040 63.561
87.149 3918 62.5939
87.2657 4028 63.4665
87.3823 4140 64.3428
87.4988 3876 62.2575
87.6154 3605 60.0417
87.7318 3262 57.1139
87.8483 2984 54.626
87.9647 3042 55.1543
88.081 2945 54.2679
88.1973 2864 53.5164
88.3136 2665 51.6236
88.4298 2622 51.2055
88.546 2466 49.6588
88.6621 2363 48.6107
88.7781 2322 48.1871
88.8942 0 1
89.0101 0 1
89.126 0 1
89.2419 0 1
89.3577 0 1
89.4734 0 1
89.5891 0 1
89.7047 0 1
89.8203 0 1
89.9358 0 1
92.3269 0 1
92.4424 0 1
92.558 0 1
92.6736 0 1
92.7893 0 1
92.905 0 1
93.0208 0 1
93.1366 0 1
93.2525 0 1
93.3685 0 1
93.4845 0 1
93.6005 4255 65.2304
93.7167 4236 65.0846
93.8328 4197 64.7843
93.949 4274 65.3758
94.0653 4095 63.9922
94.1816 4180 64.6529
94.2979 4165 64.5368
94.4143 4132 64.2806
94.5307 4290 65.4981
94.6472 4148 64.405
94.7637 4053 63.6632
94.8803 3719 60.9836
94.9969 3271 57.1927
95.1135 2979 54.5802
95.2302 3148 56.107
95.3469 3559 59.6574
95.4637 3951 62.857
95.5805 4318 65.7115
95.6973 4391 66.2646
95.8142 4323 65.7495
95.9311 4386 66.2269
96.048 4338 65.8635
96.1649 4429 66.5507
96.2819 4390 66.2571
96.3989 4451 66.7158
96.516 4389 66.2495
96.633 4441 66.6408
96.7501 4392 66.2722
96.8673 4550 67.4537
96.9844 4514 67.1863
97.1016 4470 66.8581
97.2188 4447 66.6858
97.336 4435 66.5958
97.4532 4334 65.8331
97.5704 4138 64.3273
97.6877 4170 64.5755
97.805 4195 64.7688
97.9223 4215 64.923
98.0396 4110 64.1093
98.1569 3938 62.7535
98.2743 3746 61.2046
98.3916 3416 58.4466
98.509 2940 54.2218
98.6264 2627 51.2543
98.7438 2644 51.4198
98.8612 2802 52.9339
98.9786 2959 54.3967
99.096 3164 56.2494
99.2134 3104 55.7136
99.3308 3002 54.7905
99.4482 2791 52.8299
99.5656 2866 53.535
99.6831 2898 53.8331
99.8005 2763 52.5642
99.9179 2766 52.5928
100.035 2799 52.9056
100.153 2735 52.2972
100.27 2800 52.915
100.388 2968 54.4794
100.505 3023 54.9818
100.622 2967 54.4702
100.74 2933 54.1572
100.857 2993 54.7083
100.975 2893 53.7866
101.092 2868 53.5537
101.209 2926 54.0925
101.327 2898 53.8331
101.444 2884 53.7029
101.561 2958 54.3875
101.679 2934 54.1664
101.796 2914 53.9815
101.913 2948 54.2955
102.03 2676 51.7301
102.148 2368 48.6621
102.265 2153 46.4004
102.382 2323 48.1975
102.499 2484 49.8397
102.616 2733 52.2781
102.733 2747 52.4118
102.851 2715 52.1057
102.968 2757 52.5071
103.085 2700 51.9615
103.202 2704 52
103.319 2785 52.7731
103.436 2674 51.7107
103.552 2621 51.1957
103.669 2736 52.3068
103.786 2603 51.0196
103.903 2685 51.817
104.02 2645 51.4296
104.137 2698 51.9423
104.253 2760 52.5357
104.37 2588 50.8724
104.487 2633 51.3128
104.603 2541 50.4083
104.72 2476 49.7594
104.836 2374 48.7237
104.953 2023 44.9778
105.069 1818 42.638
105.186 1748 41.8091
105.302 1520 38.9872
105.418 1433 37.855
105.535 1360 36.8782
105.651 1209 34.7707
105.767 964 31.0483
105.883 843 29.0345
105.999 858 29.2916
106.115 0 1
106.231 0 1
106.347 0 1
106.463 0 1
106.579 0 1
106.694 0 1
106.81 0 1
106.926 0 1
107.041 0 1
107.157 0 1
109.576 0 1
109.692 0 1
109.807 0 1
109.923 0 1
110.039 0 1
110.155 0 1
110.27 0 1
110.386 0 1
110.502 0 1
110.618 2632 51.303
110.735 2778 52.7067
110.851 2646 51.4393
110.967 2387 48.8569
111.083 2338 48.3529
111.199 2515 50.1498
111.316 2746 52.4023
111.432 2909 53.9351
111.549 2895 53.8052
111.665 2903 53.8795
111.782 2839 53.2823
111.898 2913 53.9722
112.015 2983 54.6168
112.132 2858 53.4603
112.248 2901 53.8609
112.365 2957 54.3783
112.482 2859 53.4696
112.599 3051 55.2359
112.716 2987 54.6535
112.832 3142 56.0535
112.949 3174 56.3383
113.066 3331 57.7148
113.183 3281 57.28
113.3 3167 56.2761
113.417 3174 56.3383
113.534 3310 57.5326
113.652 3232 56.8507
113.769 3167 56.2761
113.886 3220 56.745
114.003 3146 56.0892
114.12 3136 56
114.238 3121 55.8659
114.355 2887 53.7308
114.472 2443 49.4267
114.589 2549 50.4876
114.707 2514 50.1398
114.824 2837 53.2635
114.942 3001 54.7814
115.059 3072 55.4256
115.176 3051 55.2359
115.294 3023 54.9818
115.411 2981 54.5985
115.529 2948 54.2955
115.646 2941 54.231
115.764 3019 54.9454
115.881 2908 53.9259
115.999 2874 53.6097
116.116 2914 53.9815
116.234 3049 55.2178
116.351 3232 56.8507
116.469 3228 56.8155
116.586 3329 57.6975
116.704 3370 58.0517
116.821 3357 57.9396
116.939 3316 57.5847
117.056 3205 56.6127
117.174 3298 57.4282
117.291 3243 56.9473
117.409 3295 57.4021
117.526 3163 56.2406
117.644 3293 57.3847
117.761 3256 57.0614
117.879 3031 55.0545
117.996 2829 53.1883
118.114 2589 50.8822
118.231 2463 49.6286
118.349 2654 51.517
118.466 2820 53.1037
118.584 2972 54.5161
118.701 3062 55.3353
118.819 3004 54.8088
118.936 2955 54.3599
119.053 2903 53.8795
119.171 3025 55
119.288 2945 54.2679
119.405 2947 54.2863
119.523 2964 54.4426
119.64 2874 53.6097
119.757 2817 53.0754
119.875 2874 53.6097
119.992 2950 54.3139
120.109 2957 54.3783
120.226 3086 55.5518
120.343 3134 55.9821
120.46 2964 54.4426
120.578 3086 55.5518
120.695 3020 54.9545
120.812 3149 56.116
120.929 2944 54.2586
121.046 2932 54.1479
121.163 2950 54.3139
121.279 2965 54.4518
121.396 2948 54.2955
121.513 2854 53.4228
121.63 2549 50.4876
121.747 2327 48.239
121.863 2160 46.4758
121.98 2051 45.288
122.097 2017 44.911
122.213 2137 46.2277
122.33 2123 46.076
122.446 1951 44.1701
122.563 2007 44.7996
122.679 1957 44.238
122.795 1840 42.8952
122.912 1780 42.19
123.028 1783 42.2256
123.144 1782 42.2137
123.26 1751 41.845
123.377 0 1
123.493 0 1
123.609 0 1
123.725 0 1
123.84 0 1
123.956 0 1
124.072 0 1
124.188 0 1
124.303 0 1
124.419 0 1
126.852 0 1
126.968 0 1
127.083 0 1
127.199 0 1
127.315 0 1
127.431 0 1
127.547 0 1
127.663 0 1
127.779 0 1
127.895 0 1
128.011 0 1
128.127 0 1
128.243 0 1
128.359 3383 58.1636
128.476 3372 58.0689
128.592 3512 59.2621
128.708 3489 59.0678
128.825 3458 58.8048
128.941 3511 59.2537
129.058 3439 58.643
129.174 3508 59.2284
129.291 3659 60.4897
129.408 3641 60.3407
129.524 3807 61.7009
129.641 3926 62.6578
129.758 3947 62.8252
129.875 4005 63.2851
129.992 4071 63.8044
130.108 4250 65.192
130.225 4088 63.9375
130.342 4139 64.3351
130.459 3783 61.5061
130.576 3915 62.57
130.693 3753 61.2617
130.81 3618 60.1498
130.928 3425 58.5235
131.045 3598 59.9833
131.162 3792 61.5792
131.279 4037 63.5374
131.396 3905 62.49
131.513 4036 63.5295
131.631 3849 62.0403
131.748 3940 62.7694
131.865 3908 62.514
131.983 3849 62.0403
132.1 3866 62.1772
132.217 3829 61.8789
132.335 3834 61.9193
132.452 3692 60.7618
132.57 3777 61.4573
132.687 3694 60.7783
132.804 3982 63.1031
132.922 3865 62.1691
133.039 4009 63.3167
133.157 3977 63.0635
133.274 4054 63.671
133.392 4141 64.3506
133.509 4177 64.6297
133.627 4206 64.8537
133.744 4369 66.0984
133.862 4285 65.4599
133.979 4442 66.6483
134.097 4235 65.0769
134.214 4180 64.6529
134.332 3859 62.1208
134.449 3927 62.6658
134.567 3890 62.3699
134.684 4184 64.6838
134.802 4293 65.521
134.919 4304 65.6049
135.037 4161 64.5058
135.154 4292 65.5134
135.272 4211 64.8922
135.389 4189 64.7225
135.507 4146 64.3894
135.624 4090 63.9531
135.742 4044 63.5925
135.859 3940 62.7694
135.977 3917 62.5859
136.094 3881 62.2977
136.211 3903 62.474
136.329 4074 63.8279
136.446 3989 63.1585
136.564 4048 63.6239
136.681 4086 63.9218
136.798 4069 63.7887
136.915 4083 63.8984
137.033 4222 64.9769
137.15 4111 64.1171
137.267 4093 63.9766
137.384 4230 65.0385
137.502 4160 64.4981
137.619 3996 63.2139
137.736 4102 64.0469
137.853 3793 61.5873
137.97 3769 61.3922
138.087 3701 60.8358
138.204 3765 61.3596
138.321 3949 62.8411
138.438 3982 63.1031
138.555 3994 63.1981
138.672 3963 62.9524
138.788 4055 63.6789
138.905 4029 63.4744
139.022 3730 61.0737
139.139 3630 60.2495
139.255 3565 59.7076
139.372 3293 57.3847
139.488 3153 56.1516
139.605 3047 55.1996
139.721 2997 54.7449
139.838 3027 55.0182
139.954 2860 53.479
140.071 2818 53.0848
140.187 2714 52.0961
140.303 2877 53.6377
140.419 2906 53.9073
140.535 2814 53.0471
140.652 2849 53.376
140.768 0 1
140.884 0 1
141 0 1
141.115 0 1
141.231 0 1
141.347 0 1
141.463 0 1
141.578 0 1
141.694 0 1
144.104 0 1
144.219 0 1
144.335 0 1
144.45 0 1
144.566 0 1
144.682 0 1
144.798 0 1
144.914 0 1
145.03 0 1
145.146 8249 90.824
145.262 8635 92.9247
145.378 8749 93.5361
145.494 8641 92.957
145.61 8769 93.6429
145.726 8657 93.043
145.842 8946 94.5833
145.959 8858 94.1169
146.075 8860 94.1276
146.192 8965 94.6837
146.308 8781 93.707
146.425 8608 92.7793
146.541 7866 88.6905
146.658 6847 82.7466
146.774 5879 76.6746
146.891 5568 74.619
147.008 6453 80.3306
147.125 7596 87.155
147.241 8488 92.1303
147.358 8459 91.9728
147.475 8683 93.1826
147.592 8750 93.5414
147.709 8538 92.4013
147.826 8914 94.414
147.943 8481 92.0923
148.06 8721 93.3863
148.177 8844 94.0425
148.294 8714 93.3488
148.411 8796 93.787
148.528 8956 94.6361
148.645 8878 94.2231
148.762 8742 93.4987
148.88 8580 92.6283
148.997 8572 92.5851
149.114 9224 96.0417
149.231 8921 94.451
149.349 9035 95.0526
149.466 9083 95.3048
149.583 9125 95.5249
149.701 8979 94.7576
149.818 9126 95.5301
149.935 9072 95.247
150.053 8983 94.7787
150.17 8575 92.6013
150.287 7620 87.2926
150.405 6566 81.0309
150.522 5916 76.9155
150.64 6329 79.555
150.757 7452 86.325
150.875 8332 91.2798
150.992 8700 93.2738
151.11 8571 92.5797
151.227 8821 93.9202
151.344 8707 93.3113
151.462 8638 92.9408
151.579 8616 92.8224
151.697 8855 94.101
151.814 8752 93.5521
151.932 8873 94.1966
152.049 8760 93.5949
152.167 9048 95.121
152.284 8801 93.8136
152.402 8961 94.6626
152.519 8901 94.3451
152.636 9051 95.1367
152.754 9120 95.4987
152.871 9147 95.6399
152.989 8950 94.6044
153.106 9302 96.4469
153.223 9363 96.7626
153.341 9384 96.871
153.458 9145 95.6295
153.575 9295 96.4106
153.693 9244 96.1457
153.81 8856 94.1063
153.927 7707 87.7895
154.044 6663 81.6272
154.162 6359 79.7433
154.279 6723 81.9939
154.396 7786 88.2383
154.513 8755 93.5682
154.63 9152 95.6661
154.747 8884 94.255
154.864 9000 94.8683
154.981 9106 95.4254
155.098 8865 94.1541
155.215 8491 92.1466
155.332 8452 91.9348
155.449 8458 91.9674
155.566 8181 90.4489
155.683 8002 89.4539
155.8 7987 89.37
155.917 7677 87.6185
156.033 7651 87.47
156.15 0 1
156.267 0 1
156.383 0 1
156.5 0 1
156.617 0 1
156.733 0 1
156.85 0 1
156.966 0 1
157.082 0 1
157.199 0 1
157.315 0 1
157.431 0 1
157.547 0 1
157.664 0 1
157.78 0 1
157.896 0 1
158.012 0 1
158.128 0 1
158.244 0 1
158.359 0 1
158.475 0 1
158.591 0 1
158.706 0 1
