
6.15755 0 1
6.2731 0 1
6.3887 0 1
6.50437 0 1
6.62009 0 1
6.73587 0 1
6.8517 0 1
6.96759 0 1
7.08353 0 1
7.19952 0 1
7.31557 0 1
7.43166 0 1
7.54781 0 1
7.664 0 1
7.78024 0 1
7.89653 0 1
8.01286 0 1
8.12924 0 1
8.24567 0 1
8.36213 0 1
8.47864 0 1
8.59519 0 1
8.71178 0 1
8.82841 0 1
8.94508 0 1
9.06179 0 1
9.17853 0 1
9.29531 0 1
9.41212 0 1
9.52897 0 1
9.64584 0 1
9.76276 0 1
9.8797 0 1
9.99667 0 1
10.1137 0 1
10.2307 0 1
10.3478 0 1
10.4648 0 1
10.5819 0 1
10.6991 0 1
10.8162 0 1
10.9334 0 1
11.0506 0 1
11.1678 0 1
11.285 0 1
11.4023 0 1
11.5196 0 1
11.6369 0 1
11.7542 0 1
11.8715 0 1
11.9888 0 1
12.1062 0 1
12.2235 0 1
12.3409 0 1
12.4582 0 1
12.5756 0 1
12.693 0 1
12.8104 0 1
12.9278 0 1
13.0452 0 1
13.1626 0 1
13.28 0 1
13.3974 0 1
13.5149 0 1
13.6323 0 1
13.7497 0 1
13.8671 0 1
13.9845 0 1
14.1019 0 1
14.2193 0 1
14.3367 0 1
14.4541 0 1
14.5714 0 1
14.6888 0 1
14.8062 0 1
14.9235 0 1
15.0408 0 0
15.1581 0 0
15.2755 0 0
15.3927 0 0
15.51 0 0
15.6273 0 0
15.7445 0 0
15.8617 0 0
15.9789 0 0
16.0961 0 0
16.2132 0 0
16.3304 0 0
16.4475 0 0
16.5646 0 0
16.6816 0 0
16.7986 0 0
16.9156 0 0
17.0326 0 0
17.1496 0 0
17.2665 0 0
17.3833 0 0
17.5002 0 0
17.617 0 0
17.7338 0 0
17.8505 0 0
17.9672 0 0
18.0839 0 0
18.2005 0 0
18.3171 0 0
18.4337 0 0
18.5502 0 0
18.6666 0 0
18.7831 0 0
18.8994 0 0
19.0158 0 0
19.1321 0 0
19.2483 0 0
19.3645 0 0
19.4806 0 0
19.5967 0 0
19.7128 0 0
19.8288 0 0
19.9447 0 0
20.0606 0 1
20.1764 0 1
20.2922 0 1
20.4079 0 1
20.5236 0 1
20.6392 0 1
20.7548 0 1
20.8702 0 1
23.3078 0 1
23.4233 0 1
23.539 0 1
23.6547 0 1
23.7704 0 1
23.8862 0 1
24.0021 0 1
24.118 0 1
24.234 0 1
24.35 0 1
24.4661 14402 120.008
24.5822 14321 119.67
24.6984 14216 119.231
24.8146 14001 118.326
24.9309 14078 118.651
25.0472 14152 118.962
25.1636 14008 118.355
25.28 14137 118.899
25.3965 14330 119.708
25.513 14446 120.192
25.6296 15137 123.033
25.7462 15594 124.876
25.8628 15925 126.194
25.9795 16048 126.681
26.0962 15846 125.881
26.213 16020 126.57
26.3298 15553 124.712
26.4466 15798 125.69
26.5635 15556 124.724
26.6804 15336 123.839
26.7973 14888 122.016
26.9143 14691 121.206
27.0313 14382 119.925
27.1483 15051 122.683
27.2653 15228 123.402
27.3824 15629 125.016
27.4996 15534 124.635
27.6167 15643 125.072
27.7339 15251 123.495
27.8511 14867 121.93
27.9683 14617 120.901
28.0855 14380 119.917
28.2028 14017 118.393
28.3201 13871 117.775
28.4374 13570 116.49
28.5547 13243 115.078
28.6721 12952 113.807
28.7894 13181 114.809
28.9068 12841 113.318
29.0242 13132 114.595
29.1416 13362 115.594
29.259 13327 115.443
29.3764 13780 117.388
29.4939 14004 118.338
29.6113 14331 119.712
29.7288 14357 119.821
29.8463 14581 120.752
29.9638 14723 121.338
30.0812 14656 121.062
30.1987 14194 119.139
30.3162 14128 118.861
30.4337 13608 116.653
30.5512 13688 116.996
30.6687 14534 120.557
30.7862 14364 119.85
30.9037 15111 122.927
31.0212 14890 122.025
31.1387 14719 121.322
31.2562 14729 121.363
31.3737 14457 120.237
31.4912 14400 120
31.6087 14115 118.807
31.7262 13978 118.229
31.8436 13758 117.295
31.9611 13316 115.395
32.0785 13071 114.328
32.1959 12613 112.308
32.3134 12592 112.214
32.4308 12620 112.339
32.5482 12748 112.907
32.6655 12720 112.783
32.7829 13250 115.109
32.9002 13398 115.75
33.0176 13656 116.859
33.1349 13868 117.762
33.2522 13953 118.123
33.3694 14330 119.708
33.4867 14445 120.187
33.6039 14420 120.083
33.7211 14346 119.775
33.8383 14264 119.432
33.9554 13809 117.512
34.0725 13160 114.717
34.1896 13473 116.073
34.3067 13816 117.541
34.4237 14141 118.916
34.5407 14625 120.934
34.6577 14544 120.599
34.7746 14512 120.466
34.8915 14454 120.225
35.0084 14062 118.583
35.1252 13877 117.801
35.242 13892 117.864
35.3587 13751 117.265
35.4755 13314 115.386
35.5921 13097 114.442
35.7088 12981 113.934
35.8254 12616 112.321
35.9419 12299 110.901
36.0584 12320 110.995
36.1749 11976 109.435
36.2913 12276 110.797
36.4077 12375 111.243
36.524 12350 111.131
36.6403 12662 112.526
36.7565 13139 114.625
36.8727 13467 116.047
36.9889 13500 116.19
37.1049 13701 117.051
37.221 0 1
37.3369 0 1
37.4529 0 1
37.5687 0 1
37.6845 0 1
37.8003 0 1
37.916 0 1
38.0316 0 1
38.1472 0 1
40.5851 0 1
40.7008 0 1
40.8164 0 1
40.9322 0 1
41.048 0 1
41.1639 0 1
41.2798 0 1
41.3958 0 1
41.5118 0 1
41.6279 0 1
41.744 10405 102.005
41.8602 11201 105.835
41.9765 11473 107.112
42.0928 11729 108.301
42.2091 11930 109.225
42.3255 12389 111.306
42.4419 12287 110.847
42.5584 12120 110.091
42.675 11929 109.22
42.7915 11115 105.428
42.9081 10968 104.728
43.0248 10845 104.139
43.1415 11308 106.339
43.2582 11423 106.878
43.375 11573 107.578
43.4918 11958 109.353
43.6087 11662 107.991
43.7256 11311 106.353
43.8425 11185 105.759
43.9595 11156 105.622
44.0765 10921 104.504
44.1935 10619 103.049
44.3106 10261 101.297
44.4277 10272 101.351
44.5448 9672 98.3463
44.6619 9154 95.6765
44.7791 8855 94.101
44.8963 8719 93.3756
45.0136 8852 94.0851
45.1308 8550 92.4662
45.2481 8771 93.6536
45.3654 8819 93.9095
45.4827 9309 96.4832
45.6001 9119 95.4935
45.7174 9411 97.0103
45.8348 9453 97.2265
45.9522 9457 97.2471
46.0697 9549 97.719
46.1871 8852 94.0851
46.3046 8740 93.488
46.422 8133 90.1831
46.5395 8172 90.3991
46.657 8302 91.1153
46.7745 8542 92.4229
46.892 8588 92.6715
47.0096 8840 94.0213
47.1271 8847 94.0585
47.2446 8615 92.817
47.3622 8286 91.0275
47.4797 8389 91.5915
47.5973 8038 89.6549
47.7149 8110 90.0555
47.8324 7710 87.8066
47.95 7443 86.2728
48.0675 7196 84.8292
48.1851 6986 83.5823
48.3027 6561 81
48.4202 6409 80.0562
48.5378 6339 79.6178
48.6554 6573 81.074
48.7729 6573 81.074
48.8904 6914 83.1505
49.008 7103 84.2793
49.1255 7481 86.4928
49.243 7395 85.9942
49.3605 7412 86.093
49.478 7643 87.4243
49.5955 7531 86.7813
49.713 7264 85.2291
49.8304 7025 83.8153
49.9479 6717 81.9573
50.0653 6811 82.5288
50.1827 7291 85.3874
50.3001 7688 87.6812
50.4175 8035 89.6382
50.5348 8189 90.4931
50.6521 8404 91.6733
50.7694 8485 92.1141
50.8867 8524 92.3255
51.004 8648 92.9946
51.1212 8922 94.4563
51.2384 8909 94.3875
51.3556 9075 95.2628
51.4727 8827 93.9521
51.5899 8730 93.4345
51.707 8362 91.444
51.824 8193 90.5152
51.9411 8103 90.0167
52.0581 8335 91.2962
52.175 8540 92.4121
52.2919 8648 92.9946
52.4088 9136 95.5824
52.5257 9928 99.6393
52.6425 10119 100.593
52.7593 10172 100.856
52.876 10295 101.464
52.9927 10558 102.752
53.1094 10793 103.889
53.226 10630 103.102
53.3426 10520 102.567
53.4591 10295 101.464
53.5756 9925 99.6243
53.692 10068 100.339
53.8084 10672 103.305
53.9248 11189 105.778
54.0411 11538 107.415
54.1573 11946 109.298
54.2735 0 1
54.3896 0 1
54.5057 0 1
54.6217 0 1
54.7377 0 1
54.8537 0 1
54.9695 0 1
55.0853 0 1
55.2011 0 1
55.3168 0 1
55.4324 0 1
57.824 0 1
57.9396 0 1
58.0553 0 1
58.1711 0 1
58.2869 0 1
58.4028 0 1
58.5187 0 1
58.6347 0 1
58.7508 0 1
58.8669 0 1
58.983 12713 112.752
59.0992 13613 116.675
59.2155 14229 119.285
59.3318 14746 121.433
59.4482 14898 122.057
59.5646 15102 122.89
59.681 15248 123.483
59.7975 15149 123.081
59.9141 14861 121.906
60.0306 14202 119.172
60.1473 13842 117.652
60.2639 13258 115.143
60.3807 12519 111.888
60.4974 12186 110.39
60.6142 11612 107.759
60.731 11454 107.023
60.8479 11537 107.41
60.9648 11659 107.977
61.0818 11734 108.324
61.1987 12475 111.692
61.3158 12940 113.754
61.4328 12721 112.787
61.5499 12917 113.653
61.667 13094 114.429
61.7841 12768 112.996
61.9013 12464 111.642
62.0185 12207 110.485
62.1357 11854 108.876
62.253 11962 109.371
62.3702 12609 112.29
62.4875 12916 113.649
62.6049 13276 115.222
62.7222 13978 118.229
62.8396 13957 118.14
62.9569 14343 119.762
63.0743 14240 119.331
63.1918 14060 118.575
63.3092 13749 117.256
63.4267 13619 116.7
63.5441 13097 114.442
63.6616 12514 111.866
63.7791 11906 109.115
63.8966 11471 107.103
64.0142 10902 104.413
64.1317 10420 102.078
64.2492 10231 101.148
64.3668 10132 100.658
64.4843 10317 101.573
64.6019 10867 104.245
64.7195 11343 106.504
64.837 11631 107.847
64.9546 11490 107.191
65.0722 11760 108.444
65.1898 11626 107.824
65.3074 12015 109.613
65.4249 11416 106.846
65.5425 10987 104.819
65.6601 10644 103.17
65.7777 10638 103.141
65.8952 10935 104.571
66.0128 11499 107.233
66.1304 11938 109.261
66.2479 12400 111.355
66.3655 12802 113.146
66.483 13089 114.407
66.6005 13365 115.607
66.718 13227 115.009
66.8355 13124 114.56
66.953 13040 114.193
67.0705 12289 110.856
67.1879 11950 109.316
67.3054 11390 106.724
67.4228 11163 105.655
67.5402 10287 101.425
67.6576 9659 98.2802
67.7749 9408 96.9948
67.8923 9216 96
68.0096 9306 96.4676
68.1269 9670 98.3362
68.2442 10499 102.465
68.3614 11061 105.171
68.4787 11579 107.606
68.5958 11371 106.635
68.713 11470 107.098
68.8302 11548 107.462
68.9473 11893 109.055
69.0643 11426 106.892
69.1814 11004 104.9
69.2984 10625 103.078
69.4154 10846 104.144
69.5323 11132 105.508
69.6492 11827 108.752
69.7661 12431 111.494
69.8829 13736 117.201
69.9997 14111 118.79
70.1165 14180 119.08
70.2332 14462 120.258
70.3499 14341 119.754
70.4665 14322 119.675
70.5831 13947 118.097
70.6996 13678 116.953
70.8161 13115 114.521
70.9326 12622 112.348
71.049 12077 109.895
71.1653 11578 107.601
71.2817 10554 102.733
71.3979 9926 99.6293
71.5141 9793 98.9596
71.6303 9924 99.6193
71.7464 9623 98.0969
71.8624 0 1
71.9784 0 1
72.0944 0 1
72.2102 0 1
72.3261 0 1
72.4418 0 1
72.5575 0 1
72.6732 0 1
75.1054 0 1
75.2209 0 1
75.3365 0 1
75.4521 0 1
75.5678 0 1
75.6835 0 1
75.7993 0 1
75.9151 0 1
76.031 0 1
76.147 17429 132.019
76.263 19152 138.391
76.3791 19436 139.413
76.4952 19032 137.957
76.6113 18031 134.28
76.7276 16861 129.85
76.8438 16722 129.314
76.9601 16902 130.008
77.0765 17906 133.813
77.1929 18893 137.452
77.3093 20665 143.753
77.4258 21962 148.196
77.5423 22048 148.486
77.6589 22114 148.708
77.7755 22598 150.326
77.8921 22386 149.62
78.0088 21810 147.682
78.1256 20384 142.773
78.2423 19114 138.253
78.3591 18290 135.241
78.4759 17837 133.555
78.5928 18628 136.484
78.7097 20007 141.446
78.8266 21061 145.124
78.9436 22234 149.111
79.0606 22585 150.283
79.1776 22566 150.22
79.2946 22988 151.618
79.4117 22607 150.356
79.5288 22543 150.143
79.6459 21997 148.314
79.7631 20924 144.651
79.8802 19950 141.244
79.9974 19001 137.844
80.1147 17903 133.802
80.2319 16599 128.837
80.3491 15529 124.615
80.4664 14659 121.074
80.5837 14723 121.338
80.701 14774 121.548
80.8183 15280 123.612
80.9357 16358 127.898
81.053 16568 128.717
81.1704 16592 128.81
81.2877 16332 127.797
81.4051 15867 125.964
81.5225 15574 124.796
81.6399 14962 122.319
81.7573 14523 120.511
81.8747 12913 113.635
81.9922 12151 110.232
82.1096 11858 108.894
82.227 12069 109.859
82.3444 13089 114.407
82.4619 13497 116.177
82.5793 14067 118.604
82.6967 13764 117.32
82.8142 13951 118.114
82.9316 13882 117.822
83.049 13621 116.709
83.1664 13158 114.708
83.2838 12453 111.593
83.4012 11674 108.046
83.5186 11238 106.009
83.636 10508 102.509
83.7534 10143 100.712
83.8708 9289 96.3795
83.9881 8585 92.6553
84.1055 8338 91.3126
84.2228 8226 90.6973
84.3401 8601 92.7416
84.4575 8956 94.6361
84.5747 9699 98.4835
84.692 10210 101.045
84.8093 10348 101.725
84.9265 10254 101.262
85.0437 10264 101.311
85.1609 10194 100.965
85.2781 9661 98.2904
85.3952 9333 96.6075
85.5123 9030 95.0263
85.6294 8928 94.4881
85.7465 9258 96.2185
85.8636 10247 101.227
85.9806 10973 104.752
86.0976 12012 109.599
86.2145 12415 111.423
86.3315 12563 112.085
86.4484 13099 114.451
86.5652 13318 115.404
86.682 13292 115.291
86.7988 13052 114.245
86.9156 12722 112.792
87.0323 12269 110.766
87.149 11611 107.754
87.2657 11383 106.691
87.3823 10849 104.159
87.4988 10110 100.548
87.6154 9815 99.0707
87.7318 9879 99.3932
87.8483 10162 100.807
87.9647 10729 103.581
88.081 11744 108.37
88.1973 12516 111.875
88.3136 12772 113.013
88.4298 12693 112.663
88.546 12777 113.035
88.6621 12587 112.192
88.7781 12254 110.698
88.8942 0 1
89.0101 0 1
89.126 0 1
89.2419 0 1
89.3577 0 1
89.4734 0 1
89.5891 0 1
89.7047 0 1
89.8203 0 1
89.9358 0 1
92.3269 0 1
92.4424 0 1
92.558 0 1
92.6736 0 1
92.7893 0 1
92.905 0 1
93.0208 0 1
93.1366 0 1
93.2525 0 1
93.3685 0 1
93.4845 0 1
93.6005 12484 111.732
93.7167 13080 114.368
93.8328 13177 114.791
93.949 13126 114.569
94.0653 12926 113.693
94.1816 12760 112.96
94.2979 12582 112.17
94.4143 12092 109.964
94.5307 11742 108.361
94.6472 11570 107.564
94.7637 11548 107.462
94.8803 12284 110.833
94.9969 13242 115.074
95.1135 13747 117.248
95.2302 14459 120.246
95.3469 14958 122.303
95.4637 15199 123.284
95.5805 15451 124.302
95.6973 15689 125.256
95.8142 15743 125.471
95.9311 15186 123.231
96.048 14666 121.103
96.1649 13949 118.106
96.2819 13527 116.306
96.3989 12938 113.745
96.516 12252 110.689
96.633 11280 106.207
96.7501 10889 104.35
96.8673 10516 102.548
96.9844 10778 103.817
97.1016 11214 105.896
97.2188 11849 108.853
97.336 12455 111.602
97.4532 12937 113.741
97.5704 12953 113.811
97.6877 12565 112.094
97.805 12594 112.223
97.9223 12077 109.895
98.0396 11495 107.215
98.1569 11195 105.806
98.2743 10815 103.995
98.3916 10867 104.245
98.509 11380 106.677
98.6264 11934 109.243
98.7438 12957 113.829
98.8612 13516 116.258
98.9786 14056 118.558
99.096 14516 120.482
99.2134 14368 119.867
99.3308 15165 123.146
99.4482 14686 121.186
99.5656 14641 121
99.6831 13903 117.911
99.8005 13458 116.009
99.9179 12874 113.464
100.035 12204 110.472
100.153 11604 107.722
100.27 10730 103.586
100.388 10490 102.421
100.505 10330 101.637
100.622 10993 104.848
100.74 11347 106.522
100.857 12381 111.27
100.975 13115 114.521
101.092 12667 112.548
101.209 12625 112.361
101.327 12508 111.839
101.444 12537 111.969
101.561 11915 109.156
101.679 11861 108.908
101.796 11377 106.663
101.913 11347 106.522
102.03 11843 108.826
102.148 12739 112.867
102.265 14866 121.926
102.382 13721 117.137
102.499 15470 124.378
102.616 15983 126.424
102.733 16613 128.891
102.851 16616 128.903
102.968 16829 129.727
103.085 16732 129.352
103.202 16145 127.063
103.319 15653 125.112
103.436 15067 122.748
103.552 14236 119.315
103.669 13541 116.366
103.786 12769 113
103.903 12447 111.566
104.02 12642 112.437
104.137 13344 115.516
104.253 14082 118.668
104.37 14336 119.733
104.487 15579 124.816
104.603 15747 125.487
104.72 15291 123.657
104.836 15079 122.797
104.953 15087 122.829
105.069 14183 119.092
105.186 14076 118.642
105.302 13784 117.405
105.418 13894 117.873
105.535 14223 119.26
105.651 15745 125.479
105.767 16814 129.669
105.883 17919 133.862
105.999 18465 135.886
106.115 0 1
106.231 0 1
106.347 0 1
106.463 0 1
106.579 0 1
106.694 0 1
106.81 0 1
106.926 0 1
107.041 0 1
107.157 0 1
109.576 0 1
109.692 0 1
109.807 0 1
109.923 0 1
110.039 0 1
110.155 0 1
110.27 0 1
110.386 0 1
110.502 0 1
110.618 13881 117.818
110.735 15761 125.543
110.851 16991 130.35
110.967 17953 133.989
111.083 18267 135.155
111.199 18501 136.018
111.316 19299 138.921
111.432 19215 138.618
111.549 19222 138.643
111.665 18982 137.775
111.782 18217 134.97
111.898 17536 132.424
112.015 16640 128.996
112.132 15882 126.024
112.248 15130 123.004
112.365 14522 120.507
112.482 14332 119.716
112.599 14413 120.054
112.716 15239 123.446
112.832 16005 126.511
112.949 16571 128.728
113.066 17131 130.885
113.183 16714 129.283
113.3 16595 128.822
113.417 16552 128.655
113.534 16245 127.456
113.652 15991 126.456
113.769 15197 123.276
113.886 15344 123.871
114.003 14968 122.344
114.12 15929 126.21
114.238 17461 132.14
114.355 18611 136.422
114.472 20319 142.545
114.589 18936 137.608
114.707 20108 141.803
114.824 20965 144.793
114.942 21000 144.914
115.059 21345 146.099
115.176 21157 145.454
115.294 20675 143.788
115.411 20011 141.46
115.529 19741 140.503
115.646 19200 138.564
115.764 18472 135.912
115.881 17587 132.616
115.999 16969 130.265
116.116 17446 132.083
116.234 17957 134.004
116.351 19177 138.481
116.469 20023 141.503
116.586 20595 143.51
116.704 20603 143.537
116.821 20465 143.056
116.939 20253 142.313
117.056 20034 141.542
117.174 20042 141.57
117.291 19302 138.932
117.409 19247 138.734
117.526 19111 138.243
117.644 19510 139.678
117.761 20790 144.187
117.879 22367 149.556
117.996 22588 150.293
118.114 23802 154.279
118.231 24251 155.727
118.349 24997 158.104
118.466 24887 157.756
118.584 25462 159.568
118.701 25312 159.097
118.819 25085 158.382
118.936 24324 155.962
119.053 23761 154.146
119.171 23565 153.509
119.288 22719 150.728
119.405 21588 146.929
119.523 20579 143.454
119.64 20264 142.352
119.757 20734 143.993
119.875 21648 147.133
119.992 22649 150.496
120.109 23933 154.703
120.226 24363 156.087
120.343 24498 156.518
120.46 24446 156.352
120.578 24564 156.729
120.695 24240 155.692
120.812 24019 154.981
120.929 23488 153.258
121.046 23200 152.315
121.163 22862 151.202
121.279 23352 152.814
121.396 24280 155.82
121.513 26008 161.27
121.63 26639 163.215
121.747 28043 167.46
121.863 28278 168.161
121.98 29115 170.631
122.097 29453 171.619
122.213 29374 171.388
122.33 29591 172.02
122.446 29028 170.376
122.563 28440 168.642
122.679 27987 167.293
122.795 27523 165.901
122.912 26731 163.496
123.028 25383 159.32
123.144 24220 155.628
123.26 23028 151.75
123.377 0 1
123.493 0 1
123.609 0 1
123.725 0 1
123.84 0 1
123.956 0 1
124.072 0 1
124.188 0 1
124.303 0 1
124.419 0 1
126.852 0 1
126.968 0 1
127.083 0 1
127.199 0 1
127.315 0 1
127.431 0 1
127.547 0 1
127.663 0 1
127.779 0 1
127.895 0 1
128.011 0 1
128.127 0 1
128.243 0 1
128.359 25281 159
128.476 24147 155.393
128.592 23257 152.502
128.708 23682 153.89
128.825 24826 157.563
128.941 26096 161.543
129.058 26848 163.854
129.174 26944 164.146
129.291 26881 163.954
129.408 26828 163.793
129.524 26187 161.824
129.641 25874 160.854
129.758 25094 158.411
129.875 24170 155.467
129.992 23279 152.575
130.108 23352 152.814
130.225 23158 152.178
130.342 23895 154.58
130.459 24343 156.022
130.576 25865 160.826
130.693 26054 161.413
130.81 25813 160.664
130.928 26068 161.456
131.045 26038 161.363
131.162 25791 160.596
131.279 25662 160.194
131.396 25627 160.084
131.513 24965 158.003
131.631 24063 155.123
131.748 23527 153.385
131.865 22588 150.293
131.983 21181 145.537
132.1 20141 141.919
132.217 20504 143.192
132.335 21258 145.801
132.452 21715 147.36
132.57 22500 150
132.687 21655 147.156
132.804 22994 151.638
132.922 22195 148.98
133.039 21440 146.424
133.157 21410 146.322
133.274 20514 143.227
133.392 20053 141.609
133.509 19169 138.452
133.627 18973 137.743
133.744 18733 136.869
133.862 19364 139.155
133.979 20016 141.478
134.097 20482 143.115
134.214 20915 144.62
134.332 20614 143.576
134.449 21305 145.962
134.567 21025 145
134.684 21463 146.503
134.802 21303 145.955
134.919 21784 147.594
135.037 21464 146.506
135.154 21064 145.134
135.272 20298 142.471
135.389 19680 140.285
135.507 18799 137.109
135.624 18023 134.25
135.742 18189 134.867
135.859 18821 137.19
135.977 19842 140.862
136.094 20368 142.717
136.211 20576 143.443
136.329 20889 144.53
136.446 20689 143.837
136.564 20547 143.342
136.681 20332 142.59
136.798 19724 140.442
136.915 18949 137.655
137.033 18440 135.794
137.15 18155 134.74
137.267 17390 131.871
137.384 17558 132.507
137.502 18000 134.164
137.619 18424 135.735
137.736 18709 136.781
137.853 18327 135.377
137.97 18799 137.109
138.087 18421 135.724
138.204 18824 137.201
138.321 18796 137.099
138.438 18706 136.77
138.555 19043 137.996
138.672 18320 135.351
138.788 18256 135.115
138.905 17559 132.51
139.022 17166 131.019
139.139 16121 126.969
139.255 15611 124.944
139.372 15746 125.483
139.488 16217 127.346
139.605 16824 129.707
139.721 17351 131.723
139.838 17217 131.214
139.954 17013 130.434
140.071 16879 129.919
140.187 16855 129.827
140.303 16424 128.156
140.419 15965 126.353
140.535 15709 125.336
140.652 15194 123.264
140.768 0 1
140.884 0 1
141 0 1
141.115 0 1
141.231 0 1
141.347 0 1
141.463 0 1
141.578 0 1
141.694 0 1
144.104 0 1
144.219 0 1
144.335 0 1
144.45 0 1
144.566 0 1
144.682 0 1
144.798 0 1
144.914 0 1
145.03 0 1
145.146 15620 124.98
145.262 16264 127.53
145.378 16224 127.373
145.494 16049 126.685
145.61 15668 125.172
145.726 15813 125.75
145.842 15532 124.627
145.959 15588 124.852
146.075 15875 125.996
146.192 16259 127.511
146.308 16920 130.077
146.425 17258 131.37
146.541 17609 132.699
146.658 17737 133.18
146.774 18003 134.175
146.891 18249 135.089
147.008 18818 137.179
147.125 18981 137.772
147.241 19004 137.855
147.358 18956 137.681
147.475 18696 136.733
147.592 18277 135.192
147.709 17868 133.671
147.826 16838 129.761
147.943 16935 130.135
148.06 16687 129.178
148.177 17616 132.725
148.294 18210 134.944
148.411 18204 134.922
148.528 18172 134.804
148.645 17731 133.158
148.762 18137 134.674
148.88 17759 133.263
148.997 17209 131.183
149.114 17426 132.008
149.231 16760 129.46
149.349 16659 129.07
149.466 15903 126.107
149.583 16276 127.577
149.701 16038 126.641
149.818 16694 129.205
149.935 16744 129.399
150.053 17596 132.65
150.17 17722 133.124
150.287 17829 133.525
150.405 18200 134.907
150.522 18808 137.142
150.64 19278 138.845
150.757 19324 139.011
150.875 19099 138.199
150.992 18805 137.131
151.11 18675 136.657
151.227 18793 137.088
151.344 18250 135.093
151.462 17471 132.178
151.579 17719 133.113
151.697 17956 134
151.814 18454 135.846
151.932 18953 137.67
152.049 19425 139.374
152.167 19165 138.438
152.284 19262 138.788
152.402 19125 138.293
152.519 18960 137.695
152.636 19043 137.996
152.754 18600 136.382
152.871 18455 135.849
152.989 18470 135.904
153.106 18058 134.38
153.223 18522 136.096
153.341 18726 136.843
153.458 19379 139.208
153.575 20029 141.524
153.693 20252 142.31
153.81 21078 145.183
153.927 21505 146.646
154.044 22284 149.278
154.162 22656 150.519
154.279 23361 152.843
154.396 23704 153.961
154.513 23778 154.201
154.63 23956 154.777
154.747 23877 154.522
154.864 23616 153.675
154.981 23352 152.814
155.098 22857 151.185
155.215 22790 150.964
155.332 23389 152.935
155.449 23899 154.593
155.566 24169 155.464
155.683 24422 156.275
155.8 23987 154.877
155.917 24042 155.055
156.033 23873 154.509
156.15 0 1
156.267 0 1
156.383 0 1
156.5 0 1
156.617 0 1
156.733 0 1
156.85 0 1
156.966 0 1
157.082 0 1
157.199 0 1
157.315 0 1
157.431 0 1
157.547 0 1
157.664 0 1
157.78 0 1
157.896 0 1
158.012 0 1
158.128 0 1
158.244 0 1
158.359 0 1
158.475 0 1
158.591 0 1
158.706 0 1
