
6.15755 0 1
6.2731 0 1
6.3887 0 1
6.50437 0 1
6.62009 0 1
6.73587 0 1
6.8517 0 1
6.96759 0 1
7.08353 0 1
7.19952 0 1
7.31557 0 1
7.43166 0 1
7.54781 0 1
7.664 0 1
7.78024 0 1
7.89653 0 1
8.01286 0 1
8.12924 0 1
8.24567 0 1
8.36213 0 1
8.47864 0 1
8.59519 0 1
8.71178 0 1
8.82841 0 1
8.94508 0 1
9.06179 0 1
9.17853 0 1
9.29531 0 1
9.41212 0 1
9.52897 0 1
9.64584 0 1
9.76276 0 1
9.8797 0 1
9.99667 0 1
10.1137 0 1
10.2307 0 1
10.3478 0 1
10.4648 0 1
10.5819 0 1
10.6991 0 1
10.8162 0 1
10.9334 0 1
11.0506 0 1
11.1678 0 1
11.285 0 1
11.4023 0 1
11.5196 0 1
11.6369 0 1
11.7542 0 1
11.8715 0 1
11.9888 0 1
12.1062 0 1
12.2235 0 1
12.3409 0 1
12.4582 0 1
12.5756 0 1
12.693 0 1
12.8104 0 1
12.9278 0 1
13.0452 0 1
13.1626 0 1
13.28 0 1
13.3974 0 1
13.5149 0 1
13.6323 0 1
13.7497 0 1
13.8671 0 1
13.9845 0 1
14.1019 0 1
14.2193 0 1
14.3367 0 1
14.4541 0 1
14.5714 0 1
14.6888 0 1
14.8062 0 1
14.9235 0 1
15.0408 21579 146.898
15.1581 22528 150.093
15.2755 23766 154.162
15.3927 24592 156.818
15.51 24275 155.804
15.6273 24208 155.589
15.7445 23653 153.795
15.8617 23156 152.171
15.9789 22573 150.243
16.0961 21375 146.202
16.2132 20960 144.776
16.3304 20929 144.669
16.4475 20941 144.71
16.5646 20573 143.433
16.6816 20842 144.368
16.7986 20906 144.589
16.9156 20635 143.649
17.0326 20122 141.852
17.1496 19514 139.693
17.2665 19458 139.492
17.3833 19423 139.366
17.5002 19418 139.348
17.617 19790 140.677
17.7338 19936 141.195
17.8505 20196 142.113
17.9672 20566 143.409
18.0839 21065 145.138
18.2005 21654 147.153
18.3171 22045 148.476
18.4337 22040 148.459
18.5502 22426 149.753
18.6666 22418 149.726
18.7831 22519 150.063
18.8994 21943 148.132
19.0158 21305 145.962
19.1321 20508 143.206
19.2483 19376 139.198
19.3645 18396 135.632
19.4806 16495 128.433
19.5967 15174 123.183
19.7128 13956 118.136
19.8288 13113 114.512
19.9447 11972 109.417
20.0606 0 1
20.1764 0 1
20.2922 0 1
20.4079 0 1
20.5236 0 1
20.6392 0 1
20.7548 0 1
20.8702 0 1
23.3078 0 1
23.4233 0 1
23.539 0 1
23.6547 0 1
23.7704 0 1
23.8862 0 1
24.0021 0 1
24.118 0 1
24.234 0 1
24.35 0 1
24.4661 9164 95.7288
24.5822 9944 99.7196
24.6984 11011 104.933
24.8146 11439 106.953
24.9309 12173 110.331
25.0472 13168 114.752
25.1636 14484 120.349
25.28 15781 125.622
25.3965 17044 130.553
25.513 18298 135.27
25.6296 19262 138.788
25.7462 20523 143.259
25.8628 21275 145.86
25.9795 21586 146.922
26.0962 21419 146.352
26.213 21574 146.881
26.3298 21163 145.475
26.4466 20266 142.359
26.5635 20098 141.767
26.6804 19579 139.925
26.7973 19921 141.142
26.9143 20455 143.021
27.0313 20410 142.864
27.1483 20707 143.899
27.2653 21149 145.427
27.3824 21015 144.966
27.4996 21014 144.962
27.6167 20944 144.72
27.7339 20113 141.82
27.8511 20031 141.531
27.9683 19297 138.914
28.0855 18626 136.477
28.2028 17635 132.797
28.3201 16901 130.004
28.4374 15956 126.317
28.5547 15571 124.784
28.6721 16445 128.238
28.7894 17162 131.004
28.9068 18194 134.885
29.0242 19032 137.957
29.1416 19420 139.356
29.259 19347 139.093
29.3764 19310 138.96
29.4939 19491 139.61
29.6113 19664 140.228
29.7288 19692 140.328
29.8463 19664 140.228
29.9638 19303 138.935
30.0812 19062 138.065
30.1987 18777 137.029
30.3162 18985 137.786
30.4337 19409 139.316
30.5512 19799 140.709
30.6687 20181 142.06
30.7862 20141 141.919
30.9037 20309 142.51
31.0212 20202 142.134
31.1387 20011 141.46
31.2562 19667 140.239
31.3737 19394 139.262
31.4912 18834 137.237
31.6087 18427 135.746
31.7262 17439 132.057
31.8436 16730 129.345
31.9611 15579 124.816
32.0785 15553 124.712
32.1959 16098 126.878
32.3134 16800 129.615
32.4308 17920 133.866
32.5482 18407 135.672
32.6655 18332 135.396
32.7829 18715 136.803
32.9002 18676 136.66
33.0176 18728 136.85
33.1349 18952 137.666
33.2522 19342 139.076
33.3694 19163 138.43
33.4867 19067 138.083
33.6039 18442 135.801
33.7211 18562 136.242
33.8383 18245 135.074
33.9554 18433 135.768
34.0725 19248 138.737
34.1896 19424 139.37
34.3067 19550 139.821
34.4237 20004 141.435
34.5407 20232 142.239
34.6577 19947 141.234
34.7746 19734 140.478
34.8915 19484 139.585
35.0084 19007 137.866
35.1252 18582 136.316
35.242 18199 134.904
35.3587 17138 130.912
35.4755 16479 128.371
35.5921 15451 124.302
35.7088 14569 120.702
35.8254 14925 122.168
35.9419 15451 124.302
36.0584 15967 126.361
36.1749 16872 129.892
36.2913 16883 129.935
36.4077 17000 130.384
36.524 16938 130.146
36.6403 16727 129.333
36.7565 16248 127.468
36.8727 15895 126.075
36.9889 15298 123.685
37.1049 14426 120.108
37.221 0 1
37.3369 0 1
37.4529 0 1
37.5687 0 1
37.6845 0 1
37.8003 0 1
37.916 0 1
38.0316 0 1
38.1472 0 1
40.5851 0 1
40.7008 0 1
40.8164 0 1
40.9322 0 1
41.048 0 1
41.1639 0 1
41.2798 0 1
41.3958 0 1
41.5118 0 1
41.6279 0 1
41.744 8672 93.1236
41.8602 9697 98.4733
41.9765 10529 102.611
42.0928 11358 106.574
42.2091 12067 109.85
42.3255 12597 112.236
42.4419 13105 114.477
42.5584 13364 115.603
42.675 14217 119.235
42.7915 15371 123.98
42.9081 16216 127.342
43.0248 17121 130.847
43.1415 17333 131.655
43.2582 17492 132.257
43.375 18133 134.659
43.4918 17991 134.131
43.6087 18007 134.19
43.7256 17786 133.364
43.8425 17744 133.207
43.9595 17344 131.697
44.0765 17261 131.381
44.1935 16713 129.279
44.3106 16032 126.618
44.4277 14917 122.135
44.5448 14308 119.616
44.6619 14175 119.059
44.7791 14594 120.806
44.8963 15582 124.828
45.0136 16538 128.6
45.1308 17036 130.522
45.2481 17168 131.027
45.3654 17156 130.981
45.4827 17496 132.272
45.6001 17710 133.079
45.7174 17597 132.654
45.8348 17354 131.735
45.9522 17510 132.325
46.0697 16883 129.935
46.1871 17232 131.271
46.3046 17406 131.932
46.422 18112 134.581
46.5395 18452 135.838
46.657 19307 138.95
46.7745 19393 139.259
46.892 19709 140.389
47.0096 19906 141.089
47.1271 20043 141.573
47.2446 19999 141.418
47.3622 19991 141.39
47.4797 19464 139.513
47.5973 19086 138.152
47.7149 18578 136.301
47.8324 18004 134.179
47.95 16672 129.12
48.0675 15365 123.956
48.1851 15479 124.415
48.3027 15965 126.353
48.4202 16834 129.746
48.5378 18333 135.399
48.6554 18853 137.306
48.7729 18943 137.634
48.8904 18984 137.782
49.008 19126 138.297
49.1255 19486 139.592
49.243 18896 137.463
49.3605 19096 138.188
49.478 18822 137.193
49.5955 18605 136.4
49.713 19043 137.996
49.8304 18994 137.819
49.9479 19828 140.812
50.0653 20506 143.199
50.1827 21156 145.451
50.3001 21408 146.315
50.4175 21613 147.014
50.5348 21961 148.192
50.6521 21907 148.01
50.7694 22003 148.334
50.8867 21778 147.574
51.004 21621 147.041
51.1212 20983 144.855
51.2384 20450 143.003
51.3556 19553 139.832
51.4727 17953 133.989
51.5899 16744 129.399
51.707 16855 129.827
51.824 17921 133.869
51.9411 19189 138.524
52.0581 20918 144.631
52.175 21330 146.048
52.2919 21115 145.31
52.4088 21458 146.485
52.5257 21657 147.163
52.6425 21969 148.219
52.7593 21766 147.533
52.876 22162 148.869
52.9927 21675 147.224
53.1094 21313 145.99
53.226 21276 145.863
53.3426 21062 145.128
53.4591 21260 145.808
53.5756 21464 146.506
53.692 21390 146.253
53.8084 21479 146.557
53.9248 20865 144.447
54.0411 19877 140.986
54.1573 19267 138.806
54.2735 0 1
54.3896 0 1
54.5057 0 1
54.6217 0 1
54.7377 0 1
54.8537 0 1
54.9695 0 1
55.0853 0 1
55.2011 0 1
55.3168 0 1
55.4324 0 1
57.824 0 1
57.9396 0 1
58.0553 0 1
58.1711 0 1
58.2869 0 1
58.4028 0 1
58.5187 0 1
58.6347 0 1
58.7508 0 1
58.8669 0 1
58.983 16982 130.315
59.0992 19789 140.673
59.2155 21962 148.196
59.3318 24574 156.761
59.4482 27077 164.551
59.5646 29481 171.7
59.681 30165 173.681
59.7975 30975 175.997
59.9141 31246 176.765
60.0306 31161 176.525
60.1473 30374 174.281
60.2639 28772 169.623
60.3807 27530 165.922
60.4974 28130 167.72
60.6142 30493 174.622
60.731 32220 179.499
60.8479 34921 186.872
60.9648 36058 189.889
61.0818 36895 192.081
61.1987 36732 191.656
61.3158 37308 193.153
61.4328 37791 194.399
61.5499 37520 193.701
61.667 37502 193.654
61.7841 37073 192.544
61.9013 36923 192.154
62.0185 37325 193.197
62.1357 37383 193.347
62.253 38413 195.992
62.3702 39493 198.728
62.4875 40317 200.791
62.6049 41027 202.551
62.7222 41500 203.715
62.8396 42690 206.616
62.9569 43202 207.851
63.0743 43081 207.56
63.1918 42294 205.655
63.3092 40990 202.46
63.4267 39561 198.899
63.5441 37367 193.305
63.6616 34826 186.617
63.7791 31634 177.859
63.8966 29919 172.971
64.0142 30467 174.548
64.1317 32911 181.414
64.2492 36016 189.779
64.3668 38193 195.43
64.4843 39744 199.359
64.6019 40147 200.367
64.7195 40752 201.871
64.837 40780 201.941
64.9546 40728 201.812
65.0722 41420 203.519
65.1898 40581 201.447
65.3074 40932 202.317
65.4249 39950 199.875
65.5425 39658 199.143
65.6601 39772 199.429
65.7777 40569 201.417
65.8952 41174 202.914
66.0128 42391 205.891
66.1304 43164 207.759
66.2479 43994 209.747
66.3655 44752 211.547
66.483 45716 213.813
66.6005 45345 212.944
66.718 45201 212.605
66.8355 44591 211.166
66.953 42739 206.734
67.0705 40773 201.923
67.1879 37667 194.08
67.3054 34375 185.405
67.4228 30651 175.074
67.5402 29751 172.485
67.6576 31501 177.485
67.7749 34202 184.938
67.8923 37243 192.984
68.0096 39838 199.595
68.1269 41414 203.504
68.2442 41950 204.817
68.3614 41924 204.754
68.4787 42598 206.393
68.5958 42605 206.41
68.713 42106 205.197
68.8302 41977 204.883
68.9473 41587 203.929
69.0643 40673 201.675
69.1814 40868 202.158
69.2984 39925 199.812
69.4154 40202 200.504
69.5323 41099 202.729
69.6492 41855 204.585
69.7661 42894 207.109
69.8829 43804 209.294
69.9997 43249 207.964
70.1165 43290 208.062
70.2332 42585 206.361
70.3499 42045 205.049
70.4665 40254 200.634
70.5831 37871 194.605
70.6996 35086 187.313
70.8161 31633 177.857
70.9326 27293 165.206
71.049 21850 147.817
71.1653 17826 133.514
71.2817 16358 127.898
71.3979 16115 126.945
71.5141 15832 125.825
71.6303 15696 125.284
71.7464 14563 120.677
71.8624 0 1
71.9784 0 1
72.0944 0 1
72.2102 0 1
72.3261 0 1
72.4418 0 1
72.5575 0 1
72.6732 0 1
75.1054 0 1
75.2209 0 1
75.3365 0 1
75.4521 0 1
75.5678 0 1
75.6835 0 1
75.7993 0 1
75.9151 0 1
76.031 0 1
76.147 21615 147.02
76.263 22436 149.787
76.3791 21734 147.425
76.4952 21761 147.516
76.6113 23382 152.912
76.7276 26228 161.951
76.8438 30345 174.198
76.9601 34384 185.429
77.0765 36099 189.997
77.1929 36935 192.185
77.3093 37591 193.884
77.4258 37786 194.386
77.5423 37902 194.684
77.6589 37966 194.849
77.7755 37456 193.536
77.8921 37070 192.536
78.0088 36493 191.031
78.1256 35675 188.878
78.2423 35928 189.547
78.3591 35710 188.971
78.4759 36310 190.552
78.5928 36756 191.719
78.7097 37558 193.799
78.8266 38206 195.464
78.9436 40835 202.077
79.0606 40454 201.132
79.1776 40623 201.551
79.2946 41377 203.413
79.4117 41334 203.308
79.5288 40074 200.185
79.6459 38957 197.375
79.7631 36169 190.181
79.8802 33134 182.027
79.9974 29552 171.907
80.1147 26598 163.089
80.2319 26417 162.533
80.3491 29142 170.71
80.4664 32325 179.792
80.5837 35703 188.952
80.701 37371 193.316
80.8183 38227 195.517
80.9357 38936 197.322
81.053 39558 198.892
81.1704 39523 198.804
81.2877 39882 199.705
81.4051 39291 198.22
81.5225 39740 199.349
81.6399 38260 195.602
81.7573 38342 195.811
81.8747 37368 193.308
81.9922 37601 193.91
82.1096 37826 194.489
82.227 38103 195.2
82.3444 39216 198.03
82.4619 40549 201.368
82.5793 41699 204.203
82.6967 42825 206.942
82.8142 42854 207.012
82.9316 43361 208.233
83.049 42678 206.587
83.1664 41307 203.241
83.2838 39408 198.514
83.4012 37751 194.296
83.5186 34379 185.416
83.636 30409 174.382
83.7534 26864 163.902
83.8708 26323 162.244
83.9881 28202 167.935
84.1055 32004 178.897
84.2228 35432 188.234
84.3401 38360 195.857
84.4575 39857 199.642
84.5747 41054 202.618
84.692 41211 203.005
84.8093 40791 201.968
84.9265 40325 200.811
85.0437 39903 199.757
85.1609 39529 198.819
85.2781 39134 197.823
85.3952 38311 195.732
85.5123 37909 194.702
85.6294 37859 194.574
85.7465 38470 196.138
85.8636 39026 197.55
85.9806 40089 200.222
86.0976 42043 205.044
86.2145 41916 204.734
86.3315 43781 209.239
86.4484 42672 206.572
86.5652 43367 208.247
86.682 42943 207.227
86.7988 41911 204.722
86.9156 39530 198.822
87.0323 37708 194.185
87.149 33442 182.872
87.2657 29693 172.317
87.3823 26895 163.997
87.4988 27659 166.31
87.6154 30032 173.297
87.7318 32808 181.13
87.8483 35168 187.531
87.9647 35432 188.234
88.081 35676 188.881
88.1973 35240 187.723
88.3136 33246 182.335
88.4298 30678 175.151
88.546 27222 164.991
88.6621 23040 151.789
88.7781 19776 140.627
88.8942 0 1
89.0101 0 1
89.126 0 1
89.2419 0 1
89.3577 0 1
89.4734 0 1
89.5891 0 1
89.7047 0 1
89.8203 0 1
89.9358 0 1
92.3269 0 1
92.4424 0 1
92.558 0 1
92.6736 0 1
92.7893 0 1
92.905 0 1
93.0208 0 1
93.1366 0 1
93.2525 0 1
93.3685 0 1
93.4845 0 1
93.6005 28017 167.383
93.7167 31057 176.23
93.8328 33113 181.97
93.949 35432 188.234
94.0653 37656 194.052
94.1816 39557 198.889
94.2979 40200 200.499
94.4143 40468 201.167
94.5307 40621 201.547
94.6472 40709 201.765
94.7637 40832 202.069
94.8803 41155 202.867
94.9969 41905 204.707
95.1135 42944 207.229
95.2302 44363 210.625
95.3469 44690 211.4
95.4637 45528 213.373
95.5805 45758 213.911
95.6973 45416 213.11
95.8142 44056 209.895
95.9311 41878 204.641
96.048 39757 199.392
96.1649 38142 195.3
96.2819 35372 188.074
96.3989 33184 182.165
96.516 31497 177.474
96.633 32142 179.282
96.7501 33648 183.434
96.8673 36374 190.72
96.9844 38764 196.886
97.1016 41177 202.921
97.2188 42500 206.155
97.336 42799 206.879
97.4532 42789 206.855
97.5704 43010 207.389
97.6877 42355 205.803
97.805 41771 204.38
97.9223 40641 201.596
98.0396 40227 200.567
98.1569 39858 199.645
98.2743 39794 199.484
98.3916 40280 200.699
98.509 41210 203.002
98.6264 42266 205.587
98.7438 43687 209.014
98.8612 44666 211.343
98.9786 45711 213.801
99.096 46232 215.016
99.2134 46824 216.389
99.3308 46088 214.681
99.4482 45312 212.866
99.5656 43530 208.638
99.6831 40865 202.151
99.8005 38787 196.944
99.9179 36417 190.832
100.035 34414 185.51
100.153 35059 187.24
100.27 36340 190.631
100.388 38538 196.311
100.505 40790 201.965
100.622 42101 205.185
100.74 43192 207.827
100.857 43635 208.89
100.975 43637 208.895
101.092 43718 209.088
101.209 43396 208.317
101.327 42808 206.901
101.444 41877 204.639
101.561 41695 204.194
101.679 40831 202.067
101.796 40279 200.696
101.913 41266 203.14
102.03 42081 205.137
102.148 43048 207.48
102.265 45385 213.038
102.382 45095 212.356
102.499 46620 215.917
102.616 47518 217.986
102.733 47522 217.995
102.851 47126 217.085
102.968 46187 214.912
103.085 44356 210.609
103.202 42105 205.195
103.319 39511 198.774
103.436 37209 192.896
103.552 34869 186.732
103.669 35108 187.371
103.786 35863 189.375
103.903 38392 195.939
104.02 40743 201.849
104.137 42139 205.278
104.253 43435 208.411
104.37 43633 208.885
104.487 43634 208.888
104.603 42703 206.647
104.72 41450 203.593
104.836 40620 201.544
104.953 39224 198.05
105.069 37849 194.548
105.186 36704 191.583
105.302 35739 189.048
105.418 34871 186.738
105.535 33894 184.103
105.651 33019 181.711
105.767 31072 176.273
105.883 28497 168.811
105.999 24993 158.092
106.115 0 1
106.231 0 1
106.347 0 1
106.463 0 1
106.579 0 1
106.694 0 1
106.81 0 1
106.926 0 1
107.041 0 1
107.157 0 1
109.576 0 1
109.692 0 1
109.807 0 1
109.923 0 1
110.039 0 1
110.155 0 1
110.27 0 1
110.386 0 1
110.502 0 1
110.618 19695 140.339
110.735 23758 154.136
110.851 27195 164.909
110.967 31203 176.644
111.083 34243 185.049
111.199 36956 192.239
111.316 38965 197.396
111.432 40726 201.807
111.549 41848 204.568
111.665 41851 204.575
111.782 40421 201.05
111.898 38064 195.1
112.015 36151 190.134
112.132 33165 182.113
112.248 31078 176.29
112.365 31200 176.635
112.482 33943 184.236
112.599 37010 192.38
112.716 38829 197.051
112.832 39178 197.934
112.949 39491 198.723
113.066 39398 198.489
113.183 39838 199.595
113.3 39268 198.162
113.417 38557 196.359
113.534 37280 193.08
113.652 36767 191.747
113.769 35490 188.388
113.886 35260 187.776
114.003 35823 189.27
114.12 36529 191.126
114.238 38170 195.371
114.355 39524 198.806
114.472 40227 200.567
114.589 40906 202.252
114.707 41623 204.017
114.824 41351 203.349
114.942 41917 204.736
115.059 41719 204.252
115.176 41497 203.708
115.294 39421 198.547
115.411 37688 194.134
115.529 36139 190.103
115.646 33507 183.049
115.764 31239 176.746
115.881 30386 174.316
115.999 32536 180.377
116.116 35291 187.859
116.234 36942 192.203
116.351 37998 194.931
116.469 37740 194.268
116.586 37998 194.931
116.704 37894 194.664
116.821 37826 194.489
116.939 37106 192.629
117.056 36242 190.373
117.174 34801 186.55
117.291 34761 186.443
117.409 33658 183.461
117.526 33999 184.388
117.644 34443 185.588
117.761 36025 189.803
117.879 36847 191.956
117.996 37810 194.448
118.114 38942 197.337
118.231 39164 197.899
118.349 40036 200.09
118.466 39549 198.869
118.584 39665 199.161
118.701 39566 198.912
118.819 37864 194.587
118.936 36154 190.142
119.053 34806 186.564
119.171 33519 183.082
119.288 31090 176.324
119.405 29442 171.587
119.523 29922 172.98
119.64 31605 177.778
119.757 33589 183.273
119.875 35445 188.268
119.992 35290 187.856
120.109 35262 187.782
120.226 35485 188.375
120.343 35199 187.614
120.46 35227 187.689
120.578 35027 187.155
120.695 33778 183.788
120.812 33127 182.008
120.929 32048 179.02
121.046 31164 176.533
121.163 30698 175.208
121.279 31637 177.868
121.396 32577 180.491
121.513 33031 181.744
121.63 33879 184.062
121.747 33542 183.145
121.863 33448 182.888
121.98 33529 183.109
122.097 33295 182.469
122.213 32383 179.953
122.33 31198 176.63
122.446 30050 173.349
122.563 28043 167.46
122.679 25159 158.616
122.795 21968 148.216
122.912 19362 139.147
123.028 16860 129.846
123.144 15785 125.638
123.26 15298 123.685
123.377 0 1
123.493 0 1
123.609 0 1
123.725 0 1
123.84 0 1
123.956 0 1
124.072 0 1
124.188 0 1
124.303 0 1
124.419 0 1
126.852 0 1
126.968 0 1
127.083 0 1
127.199 0 1
127.315 0 1
127.431 0 1
127.547 0 1
127.663 0 1
127.779 0 1
127.895 0 1
128.011 0 1
128.127 0 1
128.243 0 1
128.359 33444 182.877
128.476 32487 180.242
128.592 32889 181.353
128.708 34824 186.612
128.825 37166 192.785
128.941 39140 197.838
129.058 39341 198.346
129.174 39677 199.191
129.291 39384 198.454
129.408 39648 199.118
129.524 39312 198.273
129.641 38840 197.079
129.758 37497 193.641
129.875 36485 191.01
129.992 35378 188.09
130.108 34669 186.196
130.225 35258 187.771
130.342 36233 190.35
130.459 37684 194.124
130.576 40517 201.288
130.693 40555 201.383
130.81 40478 201.191
130.928 40567 201.413
131.045 40522 201.301
131.162 41010 202.509
131.279 41307 203.241
131.396 41040 202.583
131.513 40191 200.477
131.631 39527 198.814
131.748 38003 194.944
131.865 36159 190.155
131.983 34321 185.259
132.1 33587 183.268
132.217 35091 187.326
132.335 37336 193.225
132.452 38995 197.472
132.57 39110 197.762
132.687 38925 197.294
132.804 39812 199.529
132.922 39204 198
133.039 39124 197.798
133.157 39124 197.798
133.274 38076 195.131
133.392 36596 191.301
133.509 35400 188.149
133.627 34807 186.566
133.744 34443 185.588
133.862 35768 189.124
133.979 38004 194.946
134.097 39406 198.509
134.214 40011 200.027
134.332 40044 200.11
134.449 39760 199.399
134.567 39689 199.221
134.684 40464 201.157
134.802 40331 200.826
134.919 40910 202.262
135.037 40349 200.871
135.154 39215 198.028
135.272 38084 195.151
135.389 36499 191.047
135.507 34649 186.142
135.624 33558 183.188
135.742 34493 185.723
135.859 36463 190.953
135.977 38613 196.502
136.094 38936 197.322
136.211 38965 197.396
136.329 39223 198.048
136.446 38638 196.566
136.564 38872 197.16
136.681 38816 197.018
136.798 38129 195.266
136.915 36948 192.219
137.033 35711 188.974
137.15 34952 186.955
137.267 34443 185.588
137.384 34047 184.518
137.502 34979 187.027
137.619 36729 191.648
137.736 38146 195.31
137.853 37249 193
137.97 38817 197.02
138.087 37511 193.678
138.204 38233 195.533
138.321 38025 195
138.438 38321 195.758
138.555 38770 196.901
138.672 37621 193.961
138.788 36482 191.003
138.905 34460 185.634
139.022 32607 180.574
139.139 30808 175.522
139.255 29169 170.789
139.372 28682 169.358
139.488 28937 170.109
139.605 29177 170.813
139.721 28901 170.003
139.838 27438 165.644
139.954 25111 158.465
140.071 22698 150.659
140.187 21694 147.289
140.303 20521 143.252
140.419 19436 139.413
140.535 18334 135.403
140.652 16817 129.68
140.768 0 1
140.884 0 1
141 0 1
141.115 0 1
141.231 0 1
141.347 0 1
141.463 0 1
141.578 0 1
141.694 0 1
144.104 0 1
144.219 0 1
144.335 0 1
144.45 0 1
144.566 0 1
144.682 0 1
144.798 0 1
144.914 0 1
145.03 0 1
145.146 27261 165.109
145.262 28567 169.018
145.378 29331 171.263
145.494 29221 170.942
145.61 28414 168.565
145.726 27446 165.668
145.842 27083 164.569
145.959 26018 161.301
146.075 25847 160.77
146.192 26116 161.604
146.308 26735 163.508
146.425 27646 166.271
146.541 28641 169.237
146.658 29327 171.251
146.774 28982 170.241
146.891 28930 170.088
147.008 29342 171.295
147.125 28692 169.387
147.241 29366 171.365
147.358 29902 172.922
147.475 29470 171.668
147.592 29104 170.599
147.709 27862 166.919
147.826 27130 164.712
147.943 26216 161.914
148.06 25760 160.499
148.177 25942 161.065
148.294 27624 166.205
148.411 28606 169.133
148.528 29100 170.587
148.645 29128 170.669
148.762 29031 170.385
148.88 29374 171.388
148.997 29286 171.132
149.114 28418 168.576
149.231 28396 168.511
149.349 28335 168.33
149.466 26552 162.948
149.583 25937 161.05
149.701 25370 159.28
149.818 25451 159.534
149.935 25736 160.424
150.053 26881 163.954
150.17 27876 166.961
150.287 28058 167.505
150.405 28053 167.49
150.522 28298 168.22
150.64 28092 167.607
150.757 28388 168.487
150.875 28647 169.254
150.992 29127 170.666
151.11 28859 169.879
151.227 28677 169.343
151.344 27902 167.039
151.462 26809 163.735
151.579 25417 159.427
151.697 25105 158.446
151.814 25592 159.975
151.932 26612 163.132
152.049 27850 166.883
152.167 28225 168.003
152.284 28101 167.634
152.402 28306 168.244
152.519 27990 167.302
152.636 27540 165.952
152.754 27969 167.239
152.871 27231 165.018
152.989 25942 161.065
153.106 25262 158.94
153.223 24297 155.875
153.341 24335 155.997
153.458 24380 156.141
153.575 24781 157.42
153.693 25611 160.034
153.81 26147 161.7
153.927 26574 163.015
154.044 26125 161.632
154.162 26258 162.043
154.279 26801 163.71
154.396 27175 164.848
154.513 27154 164.785
154.63 27384 165.481
154.747 27534 165.934
154.864 27025 164.393
154.981 25773 160.54
155.098 24916 157.848
155.215 23832 154.376
155.332 23775 154.191
155.449 24563 156.726
155.566 25499 159.684
155.683 25817 160.677
155.8 25438 159.493
155.917 24777 157.407
156.033 24212 155.602
156.15 0 1
156.267 0 1
156.383 0 1
156.5 0 1
156.617 0 1
156.733 0 1
156.85 0 1
156.966 0 1
157.082 0 1
157.199 0 1
157.315 0 1
157.431 0 1
157.547 0 1
157.664 0 1
157.78 0 1
157.896 0 1
158.012 0 1
158.128 0 1
158.244 0 1
158.359 0 1
158.475 0 1
158.591 0 1
158.706 0 1
