
6.15755 0 1
6.2731 0 1
6.3887 0 1
6.50437 0 1
6.62009 0 1
6.73587 0 1
6.8517 0 1
6.96759 0 1
7.08353 0 1
7.19952 0 1
7.31557 0 1
7.43166 0 1
7.54781 0 1
7.664 0 1
7.78024 0 1
7.89653 0 1
8.01286 0 1
8.12924 0 1
8.24567 0 1
8.36213 0 1
8.47864 0 1
8.59519 0 1
8.71178 0 1
8.82841 0 1
8.94508 0 1
9.06179 0 1
9.17853 0 1
9.29531 0 1
9.41212 0 1
9.52897 0 1
9.64584 0 1
9.76276 0 1
9.8797 0 1
9.99667 0 1
10.1137 0 1
10.2307 0 1
10.3478 0 1
10.4648 0 1
10.5819 0 1
10.6991 0 1
10.8162 0 1
10.9334 0 1
11.0506 0 1
11.1678 0 1
11.285 0 1
11.4023 0 1
11.5196 0 1
11.6369 0 1
11.7542 0 1
11.8715 0 1
11.9888 0 1
12.1062 0 1
12.2235 0 1
12.3409 0 1
12.4582 0 1
12.5756 0 1
12.693 0 1
12.8104 0 1
12.9278 0 1
13.0452 0 1
13.1626 0 1
13.28 0 1
13.3974 0 1
13.5149 0 1
13.6323 0 1
13.7497 0 1
13.8671 0 1
13.9845 0 1
14.1019 0 1
14.2193 0 1
14.3367 0 1
14.4541 0 1
14.5714 0 1
14.6888 0 1
14.8062 0 1
14.9235 0 1
15.0408 1525 39.0512
15.1581 1606 40.0749
15.2755 1668 40.8412
15.3927 1599 39.9875
15.51 1560 39.4968
15.6273 1642 40.5216
15.7445 1552 39.3954
15.8617 1567 39.5854
15.9789 1523 39.0256
16.0961 1471 38.3536
16.2132 1552 39.3954
16.3304 1573 39.6611
16.4475 1602 40.025
16.5646 1696 41.1825
16.6816 1817 42.6263
16.7986 1898 43.566
16.9156 2106 45.8912
17.0326 2142 46.2817
17.1496 2165 46.5296
17.2665 2154 46.4112
17.3833 2117 46.0109
17.5002 2294 47.8957
17.617 2201 46.9148
17.7338 2184 46.7333
17.8505 2349 48.4665
17.9672 2246 47.392
18.0839 2346 48.4355
18.2005 2386 48.8467
18.3171 2296 47.9166
18.4337 2446 49.4571
18.5502 2482 49.8197
18.6666 2374 48.7237
18.7831 2372 48.7032
18.8994 2293 47.8853
19.0158 2351 48.4871
19.1321 2166 46.5403
19.2483 2182 46.7119
19.3645 2105 45.8803
19.4806 2096 45.7821
19.5967 1984 44.5421
19.7128 1864 43.1741
19.8288 1681 41
19.9447 1295 35.9861
20.0606 0 1
20.1764 0 1
20.2922 0 1
20.4079 0 1
20.5236 0 1
20.6392 0 1
20.7548 0 1
20.8702 0 1
23.3078 0 1
23.4233 0 1
23.539 0 1
23.6547 0 1
23.7704 0 1
23.8862 0 1
24.0021 0 1
24.118 0 1
24.234 0 1
24.35 0 1
24.4661 2022 44.9667
24.5822 2081 45.618
24.6984 1997 44.6878
24.8146 2123 46.076
24.9309 1984 44.5421
25.0472 1794 42.3556
25.1636 1712 41.3763
25.28 1765 42.0119
25.3965 1708 41.328
25.513 1887 43.4396
25.6296 1997 44.6878
25.7462 2275 47.697
25.8628 2438 49.3761
25.9795 2530 50.2991
26.0962 2436 49.3559
26.213 2457 49.5681
26.3298 2433 49.3254
26.4466 2510 50.0999
26.5635 2498 49.98
26.6804 2464 49.6387
26.7973 2529 50.2892
26.9143 2494 49.94
27.0313 2446 49.4571
27.1483 2419 49.1833
27.2653 2398 48.9694
27.3824 2455 49.548
27.4996 2364 48.621
27.6167 2359 48.5695
27.7339 2311 48.0729
27.8511 2233 47.2546
27.9683 2177 46.6583
28.0855 2209 47
28.2028 2228 47.2017
28.3201 2107 45.9021
28.4374 2121 46.0543
28.5547 1816 42.6146
28.6721 1653 40.6571
28.7894 1595 39.9375
28.9068 1578 39.724
29.0242 1633 40.4104
29.1416 1831 42.7902
29.259 1998 44.699
29.3764 2150 46.3681
29.4939 2293 47.8853
29.6113 2336 48.3322
29.7288 2285 47.8017
29.8463 2391 48.8979
29.9638 2352 48.4974
30.0812 2316 48.1248
30.1987 2317 48.1352
30.3162 2315 48.1144
30.4337 2400 48.9898
30.5512 2319 48.156
30.6687 2234 47.2652
30.7862 2177 46.6583
30.9037 2226 47.1805
31.0212 2242 47.3498
31.1387 2285 47.8017
31.2562 2273 47.676
31.3737 2197 46.8722
31.4912 2131 46.1628
31.6087 2173 46.6154
31.7262 2142 46.2817
31.8436 2132 46.1736
31.9611 2090 45.7165
32.0785 1857 43.0929
32.1959 1617 40.2119
32.3134 1508 38.833
32.4308 1493 38.6394
32.5482 1564 39.5474
32.6655 1701 41.2432
32.7829 1963 44.3058
32.9002 2072 45.5192
33.0176 2193 46.8295
33.1349 2286 47.8121
33.2522 2337 48.3425
33.3694 2247 47.4025
33.4867 2275 47.697
33.6039 2286 47.8121
33.7211 2273 47.676
33.8383 2310 48.0625
33.9554 2249 47.4236
34.0725 2200 46.9042
34.1896 2280 47.7493
34.3067 2163 46.5081
34.4237 2048 45.2548
34.5407 2224 47.1593
34.6577 2257 47.5079
34.7746 2220 47.1169
34.8915 2121 46.0543
35.0084 2113 45.9674
35.1252 2114 45.9783
35.242 2248 47.4131
35.3587 2228 47.2017
35.4755 2146 46.3249
35.5921 2225 47.1699
35.7088 2053 45.31
35.8254 1804 42.4735
35.9419 1609 40.1123
36.0584 1557 39.4588
36.1749 1469 38.3275
36.2913 1562 39.5221
36.4077 1619 40.2368
36.524 1746 41.7852
36.6403 1967 44.3509
36.7565 1972 44.4072
36.8727 2110 45.9347
36.9889 2037 45.1331
37.1049 2178 46.669
37.221 0 1
37.3369 0 1
37.4529 0 1
37.5687 0 1
37.6845 0 1
37.8003 0 1
37.916 0 1
38.0316 0 1
38.1472 0 1
40.5851 0 1
40.7008 0 1
40.8164 0 1
40.9322 0 1
41.048 0 1
41.1639 0 1
41.2798 0 1
41.3958 0 1
41.5118 0 1
41.6279 0 1
41.744 1375 37.081
41.8602 1645 40.5586
41.9765 1682 41.0122
42.0928 1747 41.7971
42.2091 1785 42.2493
42.3255 1797 42.391
42.4419 1741 41.7253
42.5584 1778 42.1663
42.675 1738 41.6893
42.7915 1725 41.5331
42.9081 1668 40.8412
43.0248 1648 40.5956
43.1415 1612 40.1497
43.2582 1669 40.8534
43.375 1673 40.9023
43.4918 1673 40.9023
43.6087 1619 40.2368
43.7256 1613 40.1622
43.8425 1591 39.8873
43.9595 1489 38.5876
44.0765 1554 39.4208
44.1935 1545 39.3065
44.3106 1486 38.5487
44.4277 1520 38.9872
44.5448 1336 36.5513
44.6619 1203 34.6843
44.7791 1072 32.7414
44.8963 914 30.2324
45.0136 1007 31.7333
45.1308 932 30.5287
45.2481 1022 31.9687
45.3654 1141 33.7787
45.4827 1240 35.2136
45.6001 1390 37.2827
45.7174 1272 35.6651
45.8348 1305 36.1248
45.9522 1228 35.0428
46.0697 1260 35.4965
46.1871 1253 35.3977
46.3046 1223 34.9714
46.422 1259 35.4824
46.5395 1157 34.0147
46.657 1141 33.7787
46.7745 1144 33.8231
46.892 1182 34.3802
47.0096 1153 33.9559
47.1271 1165 34.1321
47.2446 1228 35.0428
47.3622 1202 34.6699
47.4797 1136 33.7046
47.5973 1031 32.1092
47.7149 1118 33.4365
47.8324 1051 32.4191
47.95 1016 31.8748
48.0675 987 31.4166
48.1851 878 29.6311
48.3027 796 28.2135
48.4202 732 27.0555
48.5378 683 26.1343
48.6554 727 26.9629
48.7729 731 27.037
48.8904 807 28.4077
49.008 938 30.6268
49.1255 978 31.273
49.243 1035 32.1714
49.3605 1018 31.9061
49.478 1028 32.0624
49.5955 1012 31.8119
49.713 1005 31.7017
49.8304 1015 31.8591
49.9479 968 31.1127
50.0653 948 30.7896
50.1827 989 31.4484
50.3001 1017 31.8904
50.4175 1016 31.8748
50.5348 1100 33.1662
50.6521 1070 32.7109
50.7694 1167 34.1614
50.8867 1111 33.3317
51.004 1150 33.9116
51.1212 1220 34.9285
51.2384 1193 34.5398
51.3556 1208 34.7563
51.4727 1214 34.8425
51.5899 1263 35.5387
51.707 1112 33.3467
51.824 1104 33.2265
51.9411 1002 31.6544
52.0581 979 31.289
52.175 1071 32.7261
52.2919 1204 34.6987
52.4088 1318 36.3043
52.5257 1489 38.5876
52.6425 1491 38.6135
52.7593 1539 39.2301
52.876 1618 40.2244
52.9927 1560 39.4968
53.1094 1759 41.9404
53.226 1605 40.0625
53.3426 1645 40.5586
53.4591 1639 40.4846
53.5756 1597 39.9625
53.692 1572 39.6485
53.8084 1588 39.8497
53.9248 1656 40.694
54.0411 1770 42.0714
54.1573 1754 41.8808
54.2735 0 1
54.3896 0 1
54.5057 0 1
54.6217 0 1
54.7377 0 1
54.8537 0 1
54.9695 0 1
55.0853 0 1
55.2011 0 1
55.3168 0 1
55.4324 0 1
57.824 0 1
57.9396 0 1
58.0553 0 1
58.1711 0 1
58.2869 0 1
58.4028 0 1
58.5187 0 1
58.6347 0 1
58.7508 0 1
58.8669 0 1
58.983 1691 41.1218
59.0992 1880 43.359
59.2155 1941 44.0568
59.3318 2065 45.4423
59.4482 2106 45.8912
59.5646 2110 45.9347
59.681 2196 46.8615
59.7975 2068 45.4753
59.9141 2084 45.6508
60.0306 2072 45.5192
60.1473 1909 43.6921
60.2639 1940 44.0454
60.3807 1742 41.7373
60.4974 1704 41.2795
60.6142 1583 39.7869
60.731 1521 39
60.8479 1537 39.2046
60.9648 1665 40.8044
61.0818 1732 41.6173
61.1987 1823 42.6966
61.3158 1799 42.4146
61.4328 1833 42.8135
61.5499 1943 44.0795
61.667 1832 42.8019
61.7841 1791 42.3202
61.9013 1831 42.7902
62.0185 1776 42.1426
62.1357 1711 41.3642
62.253 1654 40.6694
62.3702 1753 41.8688
62.4875 1774 42.1189
62.6049 1850 43.0116
62.7222 1811 42.5558
62.8396 1894 43.5201
62.9569 1929 43.9204
63.0743 1925 43.8748
63.1918 1962 44.2945
63.3092 1936 44
63.4267 1871 43.2551
63.5441 1717 41.4367
63.6616 1693 41.1461
63.7791 1664 40.7922
63.8966 1615 40.1871
64.0142 1468 38.3145
64.1317 1364 36.9324
64.2492 1341 36.6197
64.3668 1392 37.3095
64.4843 1432 37.8418
64.6019 1582 39.7744
64.7195 1562 39.5221
64.837 1668 40.8412
64.9546 1696 41.1825
65.0722 1676 40.939
65.1898 1679 40.9756
65.3074 1745 41.7732
65.4249 1617 40.2119
65.5425 1622 40.2741
65.6601 1530 39.1152
65.7777 1598 39.975
65.8952 1529 39.1024
66.0128 1506 38.8072
66.1304 1601 40.0125
66.2479 1695 41.1704
66.3655 1732 41.6173
66.483 1724 41.5211
66.6005 1757 41.9166
66.718 1857 43.0929
66.8355 1754 41.8808
66.953 1819 42.6497
67.0705 1825 42.72
67.1879 1761 41.9643
67.3054 1641 40.5093
67.4228 1539 39.2301
67.5402 1575 39.6863
67.6576 1467 38.3014
67.7749 1411 37.5633
67.8923 1380 37.1484
68.0096 1302 36.0832
68.1269 1435 37.8814
68.2442 1546 39.3192
68.3614 1603 40.0375
68.4787 1669 40.8534
68.5958 1809 42.5323
68.713 1799 42.4146
68.8302 1736 41.6653
68.9473 1736 41.6653
69.0643 1741 41.7253
69.1814 1666 40.8167
69.2984 1619 40.2368
69.4154 1584 39.7995
69.5323 1576 39.6989
69.6492 1741 41.7253
69.7661 1814 42.5911
69.8829 1899 43.5775
69.9997 1989 44.5982
70.1165 1942 44.0681
70.2332 1951 44.1701
70.3499 1969 44.3734
70.4665 1996 44.6766
70.5831 2012 44.8553
70.6996 1948 44.1362
70.8161 1939 44.0341
70.9326 1828 42.7551
71.049 1762 41.9762
71.1653 1761 41.9643
71.2817 1585 39.8121
71.3979 1546 39.3192
71.5141 1405 37.4833
71.6303 1352 36.7696
71.7464 1194 34.5543
71.8624 0 1
71.9784 0 1
72.0944 0 1
72.2102 0 1
72.3261 0 1
72.4418 0 1
72.5575 0 1
72.6732 0 1
75.1054 0 1
75.2209 0 1
75.3365 0 1
75.4521 0 1
75.5678 0 1
75.6835 0 1
75.7993 0 1
75.9151 0 1
76.031 0 1
76.147 1640 40.4969
76.263 1833 42.8135
76.3791 1834 42.8252
76.4952 1753 41.8688
76.6113 1689 41.0974
76.7276 1538 39.2173
76.8438 1595 39.9375
76.9601 1572 39.6485
77.0765 1635 40.4351
77.1929 1691 41.1218
77.3093 1761 41.9643
77.4258 1912 43.7264
77.5423 1907 43.6692
77.6589 1903 43.6234
77.7755 1988 44.587
77.8921 1891 43.4856
78.0088 1792 42.332
78.1256 1664 40.7922
78.2423 1570 39.6232
78.3591 1468 38.3145
78.4759 1392 37.3095
78.5928 1523 39.0256
78.7097 1585 39.8121
78.8266 1740 41.7133
78.9436 1958 44.2493
79.0606 1884 43.4051
79.1776 1953 44.1928
79.2946 1961 44.2832
79.4117 1957 44.238
79.5288 1887 43.4396
79.6459 1921 43.8292
79.7631 1874 43.2897
79.8802 1763 41.9881
79.9974 1644 40.5463
80.1147 1599 39.9875
80.2319 1536 39.1918
80.3491 1361 36.8917
80.4664 1428 37.7889
80.5837 1388 37.2559
80.701 1517 38.9487
80.8183 1559 39.4842
80.9357 1570 39.6232
81.053 1664 40.7922
81.1704 1700 41.2311
81.2877 1637 40.4599
81.4051 1621 40.2616
81.5225 1640 40.4969
81.6399 1615 40.1871
81.7573 1543 39.281
81.8747 1338 36.5787
81.9922 1298 36.0278
82.1096 1259 35.4824
82.227 1311 36.2077
82.3444 1490 38.6005
82.4619 1555 39.4335
82.5793 1727 41.5572
82.6967 1714 41.4005
82.8142 1696 41.1825
82.9316 1651 40.6325
83.049 1670 40.8656
83.1664 1642 40.5216
83.2838 1553 39.4081
83.4012 1576 39.6989
83.5186 1455 38.1445
83.636 1366 36.9594
83.7534 1371 37.027
83.8708 1332 36.4966
83.9881 1218 34.8999
84.1055 1232 35.0999
84.2228 1286 35.8608
84.3401 1307 36.1525
84.4575 1364 36.9324
84.5747 1474 38.3927
84.692 1531 39.128
84.8093 1490 38.6005
84.9265 1547 39.3319
85.0437 1527 39.0768
85.1609 1517 38.9487
85.2781 1494 38.6523
85.3952 1333 36.5103
85.5123 1201 34.6554
85.6294 1195 34.5688
85.7465 1283 35.819
85.8636 1367 36.973
85.9806 1570 39.6232
86.0976 1700 41.2311
86.2145 1727 41.5572
86.3315 1818 42.638
86.4484 1752 41.8569
86.5652 1779 42.1782
86.682 1939 44.0341
86.7988 1857 43.0929
86.9156 1842 42.9185
87.0323 1841 42.9069
87.149 1747 41.7971
87.2657 1697 41.1947
87.3823 1562 39.5221
87.4988 1479 38.4578
87.6154 1557 39.4588
87.7318 1574 39.6737
87.8483 1539 39.2301
87.9647 1648 40.5956
88.081 1829 42.7668
88.1973 1841 42.9069
88.3136 1914 43.7493
88.4298 1912 43.7264
88.546 1914 43.7493
88.6621 1862 43.1509
88.7781 1750 41.833
88.8942 0 1
89.0101 0 1
89.126 0 1
89.2419 0 1
89.3577 0 1
89.4734 0 1
89.5891 0 1
89.7047 0 1
89.8203 0 1
89.9358 0 1
92.3269 0 1
92.4424 0 1
92.558 0 1
92.6736 0 1
92.7893 0 1
92.905 0 1
93.0208 0 1
93.1366 0 1
93.2525 0 1
93.3685 0 1
93.4845 0 1
93.6005 1773 42.107
93.7167 1892 43.4971
93.8328 1883 43.3935
93.949 1875 43.3013
94.0653 1839 42.8836
94.1816 1805 42.4853
94.2979 1672 40.8901
94.4143 1616 40.1995
94.5307 1518 38.9615
94.6472 1385 37.2156
94.7637 1352 36.7696
94.8803 1461 38.223
94.9969 1640 40.4969
95.1135 1764 42
95.2302 1938 44.0227
95.3469 1958 44.2493
95.4637 1940 44.0454
95.5805 1998 44.699
95.6973 2093 45.7493
95.8142 2084 45.6508
95.9311 2026 45.0111
96.048 2007 44.7996
96.1649 1828 42.7551
96.2819 1880 43.359
96.3989 1838 42.8719
96.516 1728 41.5692
96.633 1666 40.8167
96.7501 1614 40.1746
96.8673 1665 40.8044
96.9844 1677 40.9512
97.1016 1663 40.7799
97.2188 1781 42.2019
97.336 1892 43.4971
97.4532 1849 43
97.5704 1945 44.1022
97.6877 1896 43.5431
97.805 1728 41.5692
97.9223 1690 41.1096
98.0396 1507 38.8201
98.1569 1347 36.7015
98.2743 1315 36.2629
98.3916 1341 36.6197
98.509 1456 38.1576
98.6264 1626 40.3237
98.7438 1779 42.1782
98.8612 1851 43.0232
98.9786 1938 44.0227
99.096 1979 44.486
99.2134 1931 43.9431
99.3308 1954 44.2041
99.4482 1971 44.3959
99.5656 2016 44.8999
99.6831 1951 44.1701
99.8005 1850 43.0116
99.9179 1813 42.5793
100.035 1765 42.0119
100.153 1673 40.9023
100.27 1649 40.6079
100.388 1535 39.1791
100.505 1710 41.3521
100.622 1728 41.5692
100.74 1710 41.3521
100.857 1879 43.3474
100.975 1901 43.6005
101.092 1923 43.852
101.209 1837 42.8602
101.327 1774 42.1189
101.444 1784 42.2374
101.561 1689 41.0974
101.679 1498 38.704
101.796 1325 36.4005
101.913 1268 35.609
102.03 1354 36.7967
102.148 1608 40.0999
102.265 1859 43.1161
102.382 2063 45.4203
102.499 2042 45.1885
102.616 2040 45.1664
102.733 2063 45.4203
102.851 2161 46.4866
102.968 2154 46.4112
103.085 2175 46.6369
103.202 2006 44.7884
103.319 2012 44.8553
103.436 1973 44.4185
103.552 1845 42.9535
103.669 1783 42.2256
103.786 1781 42.2019
103.903 1746 41.7852
104.02 1877 43.3244
104.137 1913 43.7379
104.253 1987 44.5758
104.37 2051 45.288
104.487 2049 45.2659
104.603 2133 46.1844
104.72 2068 45.4753
104.836 2141 46.2709
104.953 1951 44.1701
105.069 1776 42.1426
105.186 1486 38.5487
105.302 1403 37.4566
105.418 1458 38.1838
105.535 1599 39.9875
105.651 1937 44.0114
105.767 2174 46.6262
105.883 2344 48.4149
105.999 2270 47.6445
106.115 0 1
106.231 0 1
106.347 0 1
106.463 0 1
106.579 0 1
106.694 0 1
106.81 0 1
106.926 0 1
107.041 0 1
107.157 0 1
109.576 0 1
109.692 0 1
109.807 0 1
109.923 0 1
110.039 0 1
110.155 0 1
110.27 0 1
110.386 0 1
110.502 0 1
110.618 1519 38.9744
110.735 1887 43.4396
110.851 2050 45.2769
110.967 2160 46.4758
111.083 2263 47.571
111.199 2277 47.7179
111.316 2289 47.8435
111.432 2298 47.9375
111.549 2290 47.8539
111.665 2212 47.0319
111.782 2277 47.7179
111.898 2116 46
112.015 1998 44.699
112.132 2003 44.7549
112.248 1925 43.8748
112.365 1851 43.0232
112.482 1869 43.2319
112.599 2039 45.1553
112.716 2014 44.8776
112.832 2098 45.8039
112.949 2032 45.0777
113.066 2040 45.1664
113.183 2022 44.9667
113.3 2028 45.0333
113.417 2042 45.1885
113.534 1909 43.6921
113.652 1684 41.0366
113.769 1465 38.2753
113.886 1340 36.606
114.003 1307 36.1525
114.12 1491 38.6135
114.238 1793 42.3438
114.355 1967 44.3509
114.472 2098 45.8039
114.589 2161 46.4866
114.707 2324 48.2079
114.824 2238 47.3075
114.942 2281 47.7598
115.059 2287 47.8226
115.176 2252 47.4552
115.294 2285 47.8017
115.411 2221 47.1275
115.529 2123 46.076
115.646 2099 45.8148
115.764 2089 45.7056
115.881 2147 46.3357
115.999 2050 45.2769
116.116 2078 45.5851
116.234 2191 46.8081
116.351 2206 46.9681
116.469 2234 47.2652
116.586 2252 47.4552
116.704 2134 46.1952
116.821 2222 47.1381
116.939 2181 46.7012
117.056 2103 45.8585
117.174 2013 44.8665
117.291 1747 41.7971
117.409 1469 38.3275
117.526 1465 38.2753
117.644 1419 37.6696
117.761 1715 41.4126
117.879 2014 44.8776
117.996 2147 46.3357
118.114 2202 46.9255
118.231 2444 49.4368
118.349 2384 48.8262
118.466 2389 48.8774
118.584 2403 49.0204
118.701 2411 49.1019
118.819 2352 48.4974
118.936 2405 49.0408
119.053 2171 46.594
119.171 2095 45.7712
119.288 2109 45.9239
119.405 2146 46.3249
119.523 2112 45.9565
119.64 2115 45.9891
119.757 2178 46.669
119.875 2202 46.9255
119.992 2118 46.0217
120.109 2206 46.9681
120.226 2162 46.4973
120.343 2114 45.9783
120.46 2193 46.8295
120.578 2152 46.3897
120.695 2111 45.9456
120.812 1921 43.8292
120.929 1797 42.391
121.046 1635 40.4351
121.163 1495 38.6652
121.279 1433 37.855
121.396 1481 38.4838
121.513 1882 43.382
121.63 2064 45.4313
121.747 2157 46.4435
121.863 2223 47.1487
121.98 2313 48.0937
122.097 2326 48.2286
122.213 2317 48.1352
122.33 2231 47.2335
122.446 2269 47.634
122.563 2323 48.1975
122.679 2266 47.6025
122.795 2148 46.3465
122.912 2107 45.9021
123.028 2066 45.4533
123.144 2071 45.5082
123.26 2093 45.7493
123.377 0 1
123.493 0 1
123.609 0 1
123.725 0 1
123.84 0 1
123.956 0 1
124.072 0 1
124.188 0 1
124.303 0 1
124.419 0 1
126.852 0 1
126.968 0 1
127.083 0 1
127.199 0 1
127.315 0 1
127.431 0 1
127.547 0 1
127.663 0 1
127.779 0 1
127.895 0 1
128.011 0 1
128.127 0 1
128.243 0 1
128.359 2274 47.6865
128.476 2332 48.2908
128.592 2376 48.7442
128.708 2440 49.3964
128.825 2431 49.3052
128.941 2471 49.7092
129.058 2397 48.9592
129.174 2359 48.5695
129.291 2385 48.8365
129.408 2386 48.8467
129.524 2253 47.4658
129.641 2360 48.5798
129.758 2162 46.4973
129.875 1963 44.3058
129.992 1827 42.7434
130.108 1637 40.4599
130.225 1462 38.2361
130.342 1634 40.4228
130.459 1967 44.3509
130.576 2297 47.927
130.693 2417 49.163
130.81 2443 49.4267
130.928 2581 50.8035
131.045 2514 50.1398
131.162 2613 51.1175
131.279 2664 51.614
131.396 2612 51.1077
131.513 2519 50.1896
131.631 2590 50.892
131.748 2463 49.6286
131.865 2630 51.2835
131.983 2537 50.3686
132.1 2612 51.1077
132.217 2489 49.8899
132.335 2516 50.1597
132.452 2567 50.6656
132.57 2512 50.1199
132.687 2465 49.6488
132.804 2510 50.0999
132.922 2417 49.163
133.039 2526 50.2593
133.157 2488 49.8799
133.274 2315 48.1144
133.392 2018 44.9222
133.509 1860 43.1277
133.627 1675 40.9268
133.744 1477 38.4318
133.862 1561 39.5095
133.979 1861 43.1393
134.097 2193 46.8295
134.214 2430 49.295
134.332 2523 50.2295
134.449 2387 48.8569
134.567 2411 49.1019
134.684 2447 49.4672
134.802 2554 50.5371
134.919 2479 49.7896
135.037 2490 49.8999
135.154 2549 50.4876
135.272 2519 50.1896
135.389 2554 50.5371
135.507 2602 51.0098
135.624 2561 50.6063
135.742 2528 50.2792
135.859 2606 51.049
135.977 2585 50.8429
136.094 2484 49.8397
136.211 2511 50.1099
136.329 2465 49.6488
136.446 2531 50.309
136.564 2435 49.3457
136.681 2479 49.7896
136.798 2400 48.9898
136.915 2323 48.1975
137.033 1871 43.2551
137.15 1742 41.7373
137.267 1587 39.8372
137.384 1480 38.4708
137.502 1504 38.7814
137.619 1819 42.6497
137.736 2148 46.3465
137.853 2195 46.8508
137.97 2346 48.4355
138.087 2374 48.7237
138.204 2477 49.7695
138.321 2546 50.4579
138.438 2522 50.2195
138.555 2605 51.0392
138.672 2460 49.5984
138.788 2600 50.9902
138.905 2515 50.1498
139.022 2629 51.2738
139.139 2511 50.1099
139.255 2588 50.8724
139.372 2581 50.8035
139.488 2493 49.93
139.605 2429 49.2849
139.721 2586 50.8527
139.838 2554 50.5371
139.954 2599 50.9804
140.071 2505 50.05
140.187 2470 49.6991
140.303 2436 49.3559
140.419 2357 48.5489
140.535 2275 47.697
140.652 2036 45.1221
140.768 0 1
140.884 0 1
141 0 1
141.115 0 1
141.231 0 1
141.347 0 1
141.463 0 1
141.578 0 1
141.694 0 1
144.104 0 1
144.219 0 1
144.335 0 1
144.45 0 1
144.566 0 1
144.682 0 1
144.798 0 1
144.914 0 1
145.03 0 1
145.146 1563 39.5348
145.262 1823 42.6966
145.378 1829 42.7668
145.494 1919 43.8064
145.61 1831 42.7902
145.726 1672 40.8901
145.842 1557 39.4588
145.959 1449 38.0657
146.075 1309 36.1801
146.192 1239 35.1994
146.308 1284 35.8329
146.425 1354 36.7967
146.541 1528 39.0896
146.658 1689 41.0974
146.774 1793 42.3438
146.891 1899 43.5775
147.008 2033 45.0888
147.125 2023 44.9778
147.241 2052 45.299
147.358 2044 45.2106
147.475 2051 45.288
147.592 2084 45.6508
147.709 2132 46.1736
147.826 2081 45.618
147.943 2089 45.7056
148.06 2199 46.8935
148.177 2148 46.3465
148.294 2100 45.8258
148.411 2124 46.0869
148.528 2137 46.2277
148.645 2130 46.1519
148.762 2069 45.4863
148.88 2057 45.3542
148.997 2116 46
149.114 2153 46.4004
149.231 2145 46.3141
149.349 2044 45.2106
149.466 2015 44.8888
149.583 1859 43.1161
149.701 1646 40.5709
149.818 1528 39.0896
149.935 1368 36.9865
150.053 1309 36.1801
150.17 1400 37.4166
150.287 1530 39.1152
150.405 1661 40.7554
150.522 1739 41.7013
150.64 1883 43.3935
150.757 2060 45.3872
150.875 2042 45.1885
150.992 2130 46.1519
151.11 2223 47.1487
151.227 2153 46.4004
151.344 2212 47.0319
151.462 2199 46.8935
151.579 2215 47.0638
151.697 2255 47.4868
151.814 2216 47.0744
151.932 2240 47.3286
152.049 2269 47.634
152.167 2144 46.3033
152.284 2160 46.4758
152.402 2243 47.3603
152.519 2195 46.8508
152.636 2181 46.7012
152.754 2140 46.2601
152.871 2128 46.1303
152.989 2144 46.3033
153.106 2074 45.5412
153.223 1831 42.7902
153.341 1678 40.9634
153.458 1516 38.9358
153.575 1445 38.0132
153.693 1426 37.7624
153.81 1465 38.2753
153.927 1630 40.3733
154.044 1703 41.2674
154.162 1926 43.8862
154.279 2067 45.4643
154.396 2129 46.1411
154.513 2172 46.6047
154.63 2293 47.8853
154.747 2247 47.4025
154.864 2211 47.0213
154.981 2342 48.3942
155.098 2414 49.1325
155.215 2473 49.7293
155.332 2388 48.8672
155.449 2389 48.8774
155.566 2313 48.0937
155.683 2303 47.9896
155.8 2367 48.6518
155.917 2361 48.5901
156.033 2222 47.1381
156.15 0 1
156.267 0 1
156.383 0 1
156.5 0 1
156.617 0 1
156.733 0 1
156.85 0 1
156.966 0 1
157.082 0 1
157.199 0 1
157.315 0 1
157.431 0 1
157.547 0 1
157.664 0 1
157.78 0 1
157.896 0 1
158.012 0 1
158.128 0 1
158.244 0 1
158.359 0 1
158.475 0 1
158.591 0 1
158.706 0 1
