
6.15755 0 1
6.2731 0 1
6.3887 0 1
6.50437 0 1
6.62009 0 1
6.73587 0 1
6.8517 0 1
6.96759 0 1
7.08353 0 1
7.19952 0 1
7.31557 0 1
7.43166 0 1
7.54781 0 1
7.664 0 1
7.78024 0 1
7.89653 0 1
8.01286 0 1
8.12924 0 1
8.24567 0 1
8.36213 0 1
8.47864 0 1
8.59519 0 1
8.71178 0 1
8.82841 0 1
8.94508 0 1
9.06179 0 1
9.17853 0 1
9.29531 0 1
9.41212 0 1
9.52897 0 1
9.64584 0 1
9.76276 0 1
9.8797 0 1
9.99667 0 1
10.1137 0 1
10.2307 0 1
10.3478 0 1
10.4648 0 1
10.5819 0 1
10.6991 0 1
10.8162 0 1
10.9334 0 1
11.0506 0 1
11.1678 0 1
11.285 0 1
11.4023 0 1
11.5196 0 1
11.6369 0 1
11.7542 0 1
11.8715 0 1
11.9888 0 1
12.1062 0 1
12.2235 0 1
12.3409 0 1
12.4582 0 1
12.5756 0 1
12.693 0 1
12.8104 0 1
12.9278 0 1
13.0452 0 1
13.1626 0 1
13.28 0 1
13.3974 0 1
13.5149 0 1
13.6323 0 1
13.7497 0 1
13.8671 0 1
13.9845 0 1
14.1019 0 1
14.2193 0 1
14.3367 0 1
14.4541 0 1
14.5714 0 1
14.6888 0 1
14.8062 0 1
14.9235 0 1
15.0408 0 0
15.1581 0 0
15.2755 0 0
15.3927 0 0
15.51 0 0
15.6273 0 0
15.7445 0 0
15.8617 0 0
15.9789 0 0
16.0961 0 0
16.2132 0 0
16.3304 0 0
16.4475 0 0
16.5646 0 0
16.6816 0 0
16.7986 0 0
16.9156 0 0
17.0326 0 0
17.1496 0 0
17.2665 0 0
17.3833 0 0
17.5002 0 0
17.617 0 0
17.7338 0 0
17.8505 0 0
17.9672 0 0
18.0839 0 0
18.2005 0 0
18.3171 0 0
18.4337 0 0
18.5502 0 0
18.6666 0 0
18.7831 0 0
18.8994 0 0
19.0158 0 0
19.1321 0 0
19.2483 0 0
19.3645 0 0
19.4806 0 0
19.5967 0 0
19.7128 0 0
19.8288 0 0
19.9447 0 0
20.0606 0 1
20.1764 0 1
20.2922 0 1
20.4079 0 1
20.5236 0 1
20.6392 0 1
20.7548 0 1
20.8702 0 1
23.3078 0 1
23.4233 0 1
23.539 0 1
23.6547 0 1
23.7704 0 1
23.8862 0 1
24.0021 0 1
24.118 0 1
24.234 0 1
24.35 0 1
24.4661 1192 34.5254
24.5822 1208 34.7563
24.6984 1224 34.9857
24.8146 1195 34.5688
24.9309 1194 34.5543
25.0472 1209 34.7707
25.1636 1257 35.4542
25.28 1203 34.6843
25.3965 1258 35.4683
25.513 1328 36.4417
25.6296 1311 36.2077
25.7462 1328 36.4417
25.8628 1411 37.5633
25.9795 1362 36.9053
26.0962 1456 38.1576
26.213 1384 37.2022
26.3298 1345 36.6742
26.4466 1425 37.7492
26.5635 1414 37.6032
26.6804 1402 37.4433
26.7973 1432 37.8418
26.9143 1305 36.1248
27.0313 1353 36.7831
27.1483 1344 36.6606
27.2653 1406 37.4967
27.3824 1361 36.8917
27.4996 1358 36.8511
27.6167 1377 37.108
27.7339 1402 37.4433
27.8511 1332 36.4966
27.9683 1309 36.1801
28.0855 1301 36.0694
28.2028 1337 36.565
28.3201 1240 35.2136
28.4374 1218 34.8999
28.5547 1169 34.1906
28.6721 1218 34.8999
28.7894 1226 35.0143
28.9068 1143 33.8083
29.0242 1201 34.6554
29.1416 1210 34.7851
29.259 1224 34.9857
29.3764 1311 36.2077
29.4939 1306 36.1386
29.6113 1273 35.6791
29.7288 1347 36.7015
29.8463 1284 35.8329
29.9638 1311 36.2077
30.0812 1328 36.4417
30.1987 1306 36.1386
30.3162 1262 35.5246
30.4337 1255 35.426
30.5512 1240 35.2136
30.6687 1398 37.3898
30.7862 1300 36.0555
30.9037 1283 35.819
31.0212 1368 36.9865
31.1387 1435 37.8814
31.2562 1310 36.1939
31.3737 1322 36.3593
31.4912 1331 36.4829
31.6087 1260 35.4965
31.7262 1204 34.6987
31.8436 1210 34.7851
31.9611 1227 35.0286
32.0785 1195 34.5688
32.1959 1175 34.2783
32.3134 1159 34.0441
32.4308 1183 34.3948
32.5482 1211 34.7994
32.6655 1186 34.4384
32.7829 1234 35.1283
32.9002 1219 34.9142
33.0176 1255 35.426
33.1349 1276 35.7211
33.2522 1268 35.609
33.3694 1265 35.5668
33.4867 1302 36.0832
33.6039 1324 36.3868
33.7211 1348 36.7151
33.8383 1377 37.108
33.9554 1319 36.318
34.0725 1298 36.0278
34.1896 1277 35.7351
34.3067 1304 36.1109
34.4237 1271 35.6511
34.5407 1328 36.4417
34.6577 1339 36.5923
34.7746 1273 35.6791
34.8915 1341 36.6197
35.0084 1343 36.647
35.1252 1264 35.5528
35.242 1221 34.9428
35.3587 1205 34.7131
35.4755 1163 34.1028
35.5921 1235 35.1426
35.7088 1208 34.7563
35.8254 1208 34.7563
35.9419 1175 34.2783
36.0584 1123 33.5112
36.1749 1135 33.6898
36.2913 1221 34.9428
36.4077 1211 34.7994
36.524 1209 34.7707
36.6403 1214 34.8425
36.7565 1176 34.2929
36.8727 1268 35.609
36.9889 1305 36.1248
37.1049 1250 35.3553
37.221 0 1
37.3369 0 1
37.4529 0 1
37.5687 0 1
37.6845 0 1
37.8003 0 1
37.916 0 1
38.0316 0 1
38.1472 0 1
40.5851 0 1
40.7008 0 1
40.8164 0 1
40.9322 0 1
41.048 0 1
41.1639 0 1
41.2798 0 1
41.3958 0 1
41.5118 0 1
41.6279 0 1
41.744 1053 32.45
41.8602 1059 32.5423
41.9765 1075 32.7872
42.0928 1099 33.1512
42.2091 1156 34
42.3255 1098 33.1361
42.4419 1167 34.1614
42.5584 1155 33.9853
42.675 1158 34.0294
42.7915 1050 32.4037
42.9081 1110 33.3167
43.0248 1090 33.0151
43.1415 1148 33.8821
43.2582 1128 33.5857
43.375 1177 34.3074
43.4918 1194 34.5543
43.6087 1170 34.2053
43.7256 1078 32.8329
43.8425 1140 33.7639
43.9595 1092 33.0454
44.0765 1084 32.9242
44.1935 1078 32.8329
44.3106 1031 32.1092
44.4277 976 31.241
44.5448 976 31.241
44.6619 898 29.9666
44.7791 948 30.7896
44.8963 877 29.6142
45.0136 837 28.931
45.1308 852 29.189
45.2481 897 29.95
45.3654 916 30.2655
45.4827 944 30.7246
45.6001 960 30.9839
45.7174 897 29.95
45.8348 970 31.1448
45.9522 883 29.7153
46.0697 950 30.8221
46.1871 912 30.1993
46.3046 971 31.1609
46.422 873 29.5466
46.5395 872 29.5296
46.657 938 30.6268
46.7745 906 30.0998
46.892 933 30.545
47.0096 955 30.9031
47.1271 950 30.8221
47.2446 935 30.5778
47.3622 829 28.7924
47.4797 839 28.9655
47.5973 863 29.3769
47.7149 849 29.1376
47.8324 755 27.4773
47.95 769 27.7308
48.0675 785 28.0179
48.1851 704 26.533
48.3027 713 26.7021
48.4202 652 25.5343
48.5378 695 26.3629
48.6554 708 26.6083
48.7729 742 27.2397
48.8904 762 27.6043
49.008 768 27.7128
49.1255 747 27.3313
49.243 759 27.55
49.3605 812 28.4956
49.478 804 28.3549
49.5955 792 28.1425
49.713 773 27.8029
49.8304 726 26.9444
49.9479 733 27.074
50.0653 728 26.9815
50.1827 765 27.6586
50.3001 789 28.0891
50.4175 857 29.2746
50.5348 885 29.7489
50.6521 871 29.5127
50.7694 935 30.5778
50.8867 917 30.282
51.004 884 29.7321
51.1212 947 30.7734
51.2384 940 30.6594
51.3556 926 30.4302
51.4727 874 29.5635
51.5899 919 30.315
51.707 880 29.6648
51.824 864 29.3939
51.9411 889 29.8161
52.0581 989 31.4484
52.175 901 30.0167
52.2919 888 29.7993
52.4088 993 31.5119
52.5257 1014 31.8434
52.6425 1057 32.5115
52.7593 995 31.5436
52.876 1021 31.9531
52.9927 1092 33.0454
53.1094 1123 33.5112
53.226 1124 33.5261
53.3426 1062 32.5883
53.4591 1128 33.5857
53.5756 1044 32.311
53.692 1088 32.9848
53.8084 1170 34.2053
53.9248 1194 34.5543
54.0411 1196 34.5832
54.1573 1284 35.8329
54.2735 0 1
54.3896 0 1
54.5057 0 1
54.6217 0 1
54.7377 0 1
54.8537 0 1
54.9695 0 1
55.0853 0 1
55.2011 0 1
55.3168 0 1
55.4324 0 1
57.824 0 1
57.9396 0 1
58.0553 0 1
58.1711 0 1
58.2869 0 1
58.4028 0 1
58.5187 0 1
58.6347 0 1
58.7508 0 1
58.8669 0 1
58.983 1270 35.6371
59.0992 1317 36.2905
59.2155 1396 37.3631
59.3318 1536 39.1918
59.4482 1484 38.5227
59.5646 1494 38.6523
59.681 1495 38.6652
59.7975 1395 37.3497
59.9141 1508 38.833
60.0306 1377 37.108
60.1473 1355 36.8103
60.2639 1371 37.027
60.3807 1257 35.4542
60.4974 1226 35.0143
60.6142 1141 33.7787
60.731 1166 34.1467
60.8479 1208 34.7563
60.9648 1138 33.7343
61.0818 1196 34.5832
61.1987 1252 35.3836
61.3158 1238 35.1852
61.4328 1250 35.3553
61.5499 1217 34.8855
61.667 1243 35.2562
61.7841 1280 35.7771
61.9013 1289 35.9026
62.0185 1207 34.7419
62.1357 1224 34.9857
62.253 1242 35.242
62.3702 1295 35.9861
62.4875 1284 35.8329
62.6049 1291 35.9305
62.7222 1347 36.7015
62.8396 1403 37.4566
62.9569 1413 37.5899
63.0743 1479 38.4578
63.1918 1446 38.0263
63.3092 1397 37.3765
63.4267 1301 36.0694
63.5441 1276 35.7211
63.6616 1259 35.4824
63.7791 1187 34.4529
63.8966 1157 34.0147
64.0142 1095 33.0908
64.1317 1030 32.0936
64.2492 1038 32.218
64.3668 1059 32.5423
64.4843 998 31.5911
64.6019 1085 32.9393
64.7195 1089 33
64.837 1171 34.2199
64.9546 1106 33.2566
65.0722 1162 34.0881
65.1898 1164 34.1174
65.3074 1167 34.1614
65.4249 1030 32.0936
65.5425 1079 32.8481
65.6601 1141 33.7787
65.7777 1043 32.2955
65.8952 1036 32.187
66.0128 1176 34.2929
66.1304 1246 35.2987
66.2479 1223 34.9714
66.3655 1266 35.5809
66.483 1372 37.0405
66.6005 1308 36.1663
66.718 1339 36.5923
66.8355 1350 36.7423
66.953 1259 35.4824
67.0705 1213 34.8281
67.1879 1189 34.4819
67.3054 1158 34.0294
67.4228 1056 32.4962
67.5402 1059 32.5423
67.6576 1016 31.8748
67.7749 926 30.4302
67.8923 913 30.2159
68.0096 933 30.545
68.1269 1012 31.8119
68.2442 954 30.8869
68.3614 1133 33.6601
68.4787 1164 34.1174
68.5958 1158 34.0294
68.713 1135 33.6898
68.8302 1158 34.0294
68.9473 1138 33.7343
69.0643 1119 33.4515
69.1814 1046 32.3419
69.2984 1132 33.6452
69.4154 1085 32.9393
69.5323 1195 34.5688
69.6492 1238 35.1852
69.7661 1285 35.8469
69.8829 1426 37.7624
69.9997 1442 37.9737
70.1165 1432 37.8418
70.2332 1450 38.0789
70.3499 1481 38.4838
70.4665 1480 38.4708
70.5831 1426 37.7624
70.6996 1289 35.9026
70.8161 1308 36.1663
70.9326 1325 36.4005
71.049 1188 34.4674
71.1653 1177 34.3074
71.2817 1093 33.0606
71.3979 1030 32.0936
71.5141 1041 32.2645
71.6303 993 31.5119
71.7464 979 31.289
71.8624 0 1
71.9784 0 1
72.0944 0 1
72.2102 0 1
72.3261 0 1
72.4418 0 1
72.5575 0 1
72.6732 0 1
75.1054 0 1
75.2209 0 1
75.3365 0 1
75.4521 0 1
75.5678 0 1
75.6835 0 1
75.7993 0 1
75.9151 0 1
76.031 0 1
76.147 1602 40.025
76.263 1605 40.0625
76.3791 1634 40.4228
76.4952 1640 40.4969
76.6113 1606 40.0749
76.7276 1403 37.4566
76.8438 1459 38.1969
76.9601 1434 37.8682
77.0765 1499 38.7169
77.1929 1504 38.7814
77.3093 1626 40.3237
77.4258 1741 41.7253
77.5423 1802 42.45
77.6589 1760 41.9524
77.7755 1720 41.4729
77.8921 1757 41.9166
78.0088 1702 41.2553
78.1256 1611 40.1373
78.2423 1573 39.6611
78.3591 1499 38.7169
78.4759 1449 38.0657
78.5928 1536 39.1918
78.7097 1722 41.497
78.8266 1647 40.5832
78.9436 1754 41.8808
79.0606 1759 41.9404
79.1776 1822 42.6849
79.2946 1840 42.8952
79.4117 1754 41.8808
79.5288 1792 42.332
79.6459 1768 42.0476
79.7631 1644 40.5463
79.8802 1516 38.9358
79.9974 1444 38
80.1147 1430 37.8153
80.2319 1302 36.0832
80.3491 1222 34.9571
80.4664 1174 34.2637
80.5837 1148 33.8821
80.701 1198 34.6121
80.8183 1160 34.0588
80.9357 1228 35.0428
81.053 1243 35.2562
81.1704 1227 35.0286
81.2877 1275 35.7071
81.4051 1230 35.0714
81.5225 1171 34.2199
81.6399 1180 34.3511
81.7573 1159 34.0441
81.8747 1116 33.4066
81.9922 1066 32.6497
82.1096 998 31.5911
82.227 1149 33.8969
82.3444 1142 33.7935
82.4619 1223 34.9714
82.5793 1288 35.8887
82.6967 1232 35.0999
82.8142 1200 34.641
82.9316 1259 35.4824
83.049 1299 36.0416
83.1664 1241 35.2278
83.2838 1128 33.5857
83.4012 1082 32.8938
83.5186 1105 33.2415
83.636 959 30.9677
83.7534 969 31.1288
83.8708 898 29.9666
83.9881 865 29.4109
84.1055 873 29.5466
84.2228 823 28.688
84.3401 821 28.6531
84.4575 924 30.3974
84.5747 913 30.2159
84.692 1021 31.9531
84.8093 1034 32.1559
84.9265 990 31.4643
85.0437 1005 31.7017
85.1609 1008 31.749
85.2781 964 31.0483
85.3952 986 31.4006
85.5123 891 29.8496
85.6294 895 29.9166
85.7465 945 30.7409
85.8636 1057 32.5115
85.9806 1101 33.1813
86.0976 1162 34.0881
86.2145 1226 35.0143
86.3315 1288 35.8887
86.4484 1320 36.3318
86.5652 1410 37.55
86.682 1375 37.081
86.7988 1346 36.6879
86.9156 1329 36.4555
87.0323 1238 35.1852
87.149 1176 34.2929
87.2657 1121 33.4813
87.3823 1130 33.6155
87.4988 1054 32.4654
87.6154 1019 31.9218
87.7318 1043 32.2955
87.8483 1091 33.0303
87.9647 1089 33
88.081 1230 35.0714
88.1973 1288 35.8887
88.3136 1310 36.1939
88.4298 1368 36.9865
88.546 1248 35.327
88.6621 1255 35.426
88.7781 1270 35.6371
88.8942 0 1
89.0101 0 1
89.126 0 1
89.2419 0 1
89.3577 0 1
89.4734 0 1
89.5891 0 1
89.7047 0 1
89.8203 0 1
89.9358 0 1
92.3269 0 1
92.4424 0 1
92.558 0 1
92.6736 0 1
92.7893 0 1
92.905 0 1
93.0208 0 1
93.1366 0 1
93.2525 0 1
93.3685 0 1
93.4845 0 1
93.6005 1187 34.4529
93.7167 1247 35.3129
93.8328 1254 35.4119
93.949 1235 35.1426
94.0653 1301 36.0694
94.1816 1196 34.5832
94.2979 1256 35.4401
94.4143 1159 34.0441
94.5307 1204 34.6987
94.6472 1199 34.6266
94.7637 1182 34.3802
94.8803 1232 35.0999
94.9969 1296 36
95.1135 1393 37.3229
95.2302 1486 38.5487
95.3469 1466 38.2884
95.4637 1551 39.3827
95.5805 1563 39.5348
95.6973 1583 39.7869
95.8142 1612 40.1497
95.9311 1529 39.1024
96.048 1432 37.8418
96.1649 1389 37.2693
96.2819 1371 37.027
96.3989 1283 35.819
96.516 1296 36
96.633 1145 33.8378
96.7501 1105 33.2415
96.8673 1088 32.9848
96.9844 1077 32.8177
97.1016 1166 34.1467
97.2188 1153 33.9559
97.336 1305 36.1248
97.4532 1306 36.1386
97.5704 1275 35.7071
97.6877 1224 34.9857
97.805 1225 35
97.9223 1217 34.8855
98.0396 1154 33.9706
98.1569 1170 34.2053
98.2743 1149 33.8969
98.3916 1109 33.3017
98.509 1198 34.6121
98.6264 1229 35.0571
98.7438 1313 36.2353
98.8612 1382 37.1753
98.9786 1463 38.2492
99.096 1434 37.8682
99.2134 1523 39.0256
99.3308 1558 39.4715
99.4482 1576 39.6989
99.5656 1546 39.3192
99.6831 1482 38.4968
99.8005 1443 37.9868
99.9179 1313 36.2353
100.035 1299 36.0416
100.153 1204 34.6987
100.27 1170 34.2053
100.388 1113 33.3617
100.505 1085 32.9393
100.622 1109 33.3017
100.74 1241 35.2278
100.857 1300 36.0555
100.975 1264 35.5528
101.092 1330 36.4692
101.209 1293 35.9583
101.327 1275 35.7071
101.444 1266 35.5809
101.561 1258 35.4683
101.679 1214 34.8425
101.796 1227 35.0286
101.913 1204 34.6987
102.03 1259 35.4824
102.148 1258 35.4683
102.265 1530 39.1152
102.382 1371 37.027
102.499 1554 39.4208
102.616 1597 39.9625
102.733 1622 40.2741
102.851 1710 41.3521
102.968 1703 41.2674
103.085 1580 39.7492
103.202 1607 40.0874
103.319 1493 38.6394
103.436 1548 39.3446
103.552 1400 37.4166
103.669 1386 37.229
103.786 1284 35.8329
103.903 1189 34.4819
104.02 1181 34.3657
104.137 1251 35.3695
104.253 1279 35.7631
104.37 1342 36.6333
104.487 1515 38.923
104.603 1396 37.3631
104.72 1413 37.5899
104.836 1385 37.2156
104.953 1440 37.9473
105.069 1437 37.9078
105.186 1314 36.2491
105.302 1332 36.4966
105.418 1332 36.4966
105.535 1482 38.4968
105.651 1524 39.0384
105.767 1549 39.3573
105.883 1720 41.4729
105.999 1751 41.845
106.115 0 1
106.231 0 1
106.347 0 1
106.463 0 1
106.579 0 1
106.694 0 1
106.81 0 1
106.926 0 1
107.041 0 1
107.157 0 1
109.576 0 1
109.692 0 1
109.807 0 1
109.923 0 1
110.039 0 1
110.155 0 1
110.27 0 1
110.386 0 1
110.502 0 1
110.618 1398 37.3898
110.735 1543 39.281
110.851 1572 39.6485
110.967 1753 41.8688
111.083 1722 41.497
111.199 1853 43.0465
111.316 1856 43.0813
111.432 1910 43.7035
111.549 1900 43.589
111.665 1825 42.72
111.782 1727 41.5572
111.898 1713 41.3884
112.015 1561 39.5095
112.132 1609 40.1123
112.248 1449 38.0657
112.365 1454 38.1314
112.482 1443 37.9868
112.599 1424 37.7359
112.716 1453 38.1182
112.832 1478 38.4448
112.949 1555 39.4335
113.066 1673 40.9023
113.183 1576 39.6989
113.3 1547 39.3319
113.417 1560 39.4968
113.534 1504 38.7814
113.652 1468 38.3145
113.769 1394 37.3363
113.886 1411 37.5633
114.003 1419 37.6696
114.12 1491 38.6135
114.238 1681 41
114.355 1653 40.6571
114.472 1823 42.6966
114.589 1754 41.8808
114.707 1835 42.8369
114.824 1865 43.1856
114.942 1914 43.7493
115.059 1881 43.3705
115.176 1934 43.9773
115.294 1907 43.6692
115.411 1846 42.9651
115.529 1807 42.5088
115.646 1765 42.0119
115.764 1697 41.1947
115.881 1590 39.8748
115.999 1523 39.0256
116.116 1594 39.9249
116.234 1591 39.8873
116.351 1649 40.6079
116.469 1701 41.2432
116.586 1796 42.3792
116.704 1789 42.2966
116.821 1746 41.7852
116.939 1753 41.8688
117.056 1790 42.3084
117.174 1769 42.0595
117.291 1680 40.9878
117.409 1693 41.1461
117.526 1646 40.5709
117.644 1785 42.2493
117.761 1833 42.8135
117.879 1967 44.3509
117.996 2001 44.7325
118.114 2158 46.4543
118.231 2209 47
118.349 2196 46.8615
118.466 2265 47.592
118.584 2224 47.1593
118.701 2287 47.8226
118.819 2297 47.927
118.936 2091 45.7275
119.053 2163 46.5081
119.171 2038 45.1442
119.288 1981 44.5084
119.405 1953 44.1928
119.523 1823 42.6966
119.64 1738 41.6893
119.757 1745 41.7732
119.875 1829 42.7668
119.992 1822 42.6849
120.109 1931 43.9431
120.226 2043 45.1996
120.343 2030 45.0555
120.46 1911 43.715
120.578 1905 43.6463
120.695 1902 43.6119
120.812 1914 43.7493
120.929 1777 42.1545
121.046 1841 42.9069
121.163 1798 42.4028
121.279 1876 43.3128
121.396 1862 43.1509
121.513 2007 44.7996
121.63 2081 45.618
121.747 2152 46.3897
121.863 2249 47.4236
121.98 2246 47.392
122.097 2242 47.3498
122.213 2237 47.2969
122.33 2147 46.3357
122.446 2262 47.5605
122.563 2096 45.7821
122.679 2091 45.7275
122.795 1936 44
122.912 1946 44.1135
123.028 1930 43.9318
123.144 1814 42.5911
123.26 1737 41.6773
123.377 0 1
123.493 0 1
123.609 0 1
123.725 0 1
123.84 0 1
123.956 0 1
124.072 0 1
124.188 0 1
124.303 0 1
124.419 0 1
126.852 0 1
126.968 0 1
127.083 0 1
127.199 0 1
127.315 0 1
127.431 0 1
127.547 0 1
127.663 0 1
127.779 0 1
127.895 0 1
128.011 0 1
128.127 0 1
128.243 0 1
128.359 1973 44.4185
128.476 1884 43.4051
128.592 1769 42.0595
128.708 1808 42.5206
128.825 1878 43.3359
128.941 2045 45.2217
129.058 2005 44.7772
129.174 2045 45.2217
129.291 2067 45.4643
129.408 1974 44.4297
129.524 1909 43.6921
129.641 1961 44.2832
129.758 1900 43.589
129.875 1856 43.0813
129.992 1821 42.6732
130.108 1808 42.5206
130.225 1836 42.8486
130.342 1864 43.1741
130.459 1875 43.3013
130.576 2016 44.8999
130.693 2022 44.9667
130.81 2049 45.2659
130.928 2109 45.9239
131.045 2098 45.8039
131.162 2100 45.8258
131.279 2101 45.8367
131.396 2062 45.4093
131.513 2039 45.1553
131.631 1994 44.6542
131.748 1923 43.852
131.865 1797 42.391
131.983 1794 42.3556
132.1 1756 41.9047
132.217 1763 41.9881
132.335 1683 41.0244
132.452 1782 42.2137
132.57 1851 43.0232
132.687 1764 42
132.804 1878 43.3359
132.922 1742 41.7373
133.039 1803 42.4617
133.157 1755 41.8927
133.274 1733 41.6293
133.392 1699 41.2189
133.509 1671 40.8779
133.627 1652 40.6448
133.744 1651 40.6325
133.862 1628 40.3485
133.979 1677 40.9512
134.097 1765 42.0119
134.214 1849 43
134.332 1847 42.9767
134.449 1873 43.2782
134.567 1871 43.2551
134.684 1760 41.9524
134.802 1896 43.5431
134.919 1856 43.0813
135.037 1802 42.45
135.154 1822 42.6849
135.272 1700 41.2311
135.389 1687 41.0731
135.507 1667 40.8289
135.624 1588 39.8497
135.742 1548 39.3446
135.859 1687 41.0731
135.977 1611 40.1373
136.094 1675 40.9268
136.211 1657 40.7063
136.329 1614 40.1746
136.446 1680 40.9878
136.564 1642 40.5216
136.681 1547 39.3319
136.798 1597 39.9625
136.915 1546 39.3192
137.033 1592 39.8999
137.15 1526 39.064
137.267 1500 38.7298
137.384 1539 39.2301
137.502 1578 39.724
137.619 1597 39.9625
137.736 1631 40.3856
137.853 1653 40.6571
137.97 1682 41.0122
138.087 1726 41.5452
138.204 1712 41.3763
138.321 1803 42.4617
138.438 1741 41.7253
138.555 1851 43.0232
138.672 1720 41.4729
138.788 1771 42.0833
138.905 1649 40.6079
139.022 1678 40.9634
139.139 1628 40.3485
139.255 1552 39.3954
139.372 1546 39.3192
139.488 1568 39.598
139.605 1653 40.6571
139.721 1673 40.9023
139.838 1733 41.6293
139.954 1746 41.7852
140.071 1614 40.1746
140.187 1678 40.9634
140.303 1583 39.7869
140.419 1611 40.1373
140.535 1508 38.833
140.652 1553 39.4081
140.768 0 1
140.884 0 1
141 0 1
141.115 0 1
141.231 0 1
141.347 0 1
141.463 0 1
141.578 0 1
141.694 0 1
144.104 0 1
144.219 0 1
144.335 0 1
144.45 0 1
144.566 0 1
144.682 0 1
144.798 0 1
144.914 0 1
145.03 0 1
145.146 1560 39.4968
145.262 1553 39.4081
145.378 1583 39.7869
145.494 1595 39.9375
145.61 1545 39.3065
145.726 1511 38.8716
145.842 1489 38.5876
145.959 1516 38.9358
146.075 1551 39.3827
146.192 1522 39.0128
146.308 1569 39.6106
146.425 1544 39.2938
146.541 1644 40.5463
146.658 1595 39.9375
146.774 1627 40.3361
146.891 1717 41.4367
147.008 1688 41.0853
147.125 1690 41.1096
147.241 1709 41.3401
147.358 1775 42.1307
147.475 1696 41.1825
147.592 1706 41.3038
147.709 1660 40.7431
147.826 1506 38.8072
147.943 1518 38.9615
148.06 1550 39.37
148.177 1639 40.4846
148.294 1620 40.2492
148.411 1672 40.8901
148.528 1696 41.1825
148.645 1629 40.3609
148.762 1663 40.7799
148.88 1566 39.5727
148.997 1515 38.923
149.114 1543 39.281
149.231 1526 39.064
149.349 1536 39.1918
149.466 1463 38.2492
149.583 1424 37.7359
149.701 1429 37.8021
149.818 1482 38.4968
149.935 1551 39.3827
150.053 1607 40.0874
150.17 1556 39.4462
150.287 1611 40.1373
150.405 1747 41.7971
150.522 1689 41.0974
150.64 1732 41.6173
150.757 1712 41.3763
150.875 1842 42.9185
150.992 1785 42.2493
151.11 1756 41.9047
151.227 1778 42.1663
151.344 1689 41.0974
151.462 1564 39.5474
151.579 1586 39.8246
151.697 1534 39.1663
151.814 1683 41.0244
151.932 1787 42.2729
152.049 1814 42.5911
152.167 1652 40.6448
152.284 1799 42.4146
152.402 1698 41.2068
152.519 1628 40.3485
152.636 1738 41.6893
152.754 1614 40.1746
152.871 1567 39.5854
152.989 1614 40.1746
153.106 1607 40.0874
153.223 1618 40.2244
153.341 1638 40.4722
153.458 1685 41.0488
153.575 1742 41.7373
153.693 1733 41.6293
153.81 1740 41.7133
153.927 1751 41.845
154.044 1842 42.9185
154.162 1926 43.8862
154.279 1900 43.589
154.396 1941 44.0568
154.513 1941 44.0568
154.63 2019 44.9333
154.747 1930 43.9318
154.864 1867 43.2088
154.981 1851 43.0232
155.098 1945 44.1022
155.215 1750 41.833
155.332 1762 41.9762
155.449 1769 42.0595
155.566 1823 42.6966
155.683 1900 43.589
155.8 1879 43.3474
155.917 1816 42.6146
156.033 1829 42.7668
156.15 0 1
156.267 0 1
156.383 0 1
156.5 0 1
156.617 0 1
156.733 0 1
156.85 0 1
156.966 0 1
157.082 0 1
157.199 0 1
157.315 0 1
157.431 0 1
157.547 0 1
157.664 0 1
157.78 0 1
157.896 0 1
158.012 0 1
158.128 0 1
158.244 0 1
158.359 0 1
158.475 0 1
158.591 0 1
158.706 0 1
