
6.15755 0 1
6.2731 0 1
6.3887 0 1
6.50437 0 1
6.62009 0 1
6.73587 0 1
6.8517 0 1
6.96759 0 1
7.08353 0 1
7.19952 0 1
7.31557 0 1
7.43166 0 1
7.54781 0 1
7.664 0 1
7.78024 0 1
7.89653 0 1
8.01286 0 1
8.12924 0 1
8.24567 0 1
8.36213 0 1
8.47864 0 1
8.59519 0 1
8.71178 0 1
8.82841 0 1
8.94508 0 1
9.06179 0 1
9.17853 0 1
9.29531 0 1
9.41212 0 1
9.52897 0 1
9.64584 0 1
9.76276 0 1
9.8797 0 1
9.99667 0 1
10.1137 0 1
10.2307 0 1
10.3478 0 1
10.4648 0 1
10.5819 0 1
10.6991 0 1
10.8162 0 1
10.9334 0 1
11.0506 0 1
11.1678 0 1
11.285 0 1
11.4023 0 1
11.5196 0 1
11.6369 0 1
11.7542 0 1
11.8715 0 1
11.9888 0 1
12.1062 0 1
12.2235 0 1
12.3409 0 1
12.4582 0 1
12.5756 0 1
12.693 0 1
12.8104 0 1
12.9278 0 1
13.0452 0 1
13.1626 0 1
13.28 0 1
13.3974 0 1
13.5149 0 1
13.6323 0 1
13.7497 0 1
13.8671 0 1
13.9845 0 1
14.1019 0 1
14.2193 0 1
14.3367 0 1
14.4541 0 1
14.5714 0 1
14.6888 0 1
14.8062 0 1
14.9235 0 1
15.0408 0 0
15.1581 0 0
15.2755 0 0
15.3927 0 0
15.51 0 0
15.6273 0 0
15.7445 0 0
15.8617 0 0
15.9789 0 0
16.0961 0 0
16.2132 0 0
16.3304 0 0
16.4475 0 0
16.5646 0 0
16.6816 0 0
16.7986 0 0
16.9156 0 0
17.0326 0 0
17.1496 0 0
17.2665 0 0
17.3833 0 0
17.5002 0 0
17.617 0 0
17.7338 0 0
17.8505 0 0
17.9672 0 0
18.0839 0 0
18.2005 0 0
18.3171 0 0
18.4337 0 0
18.5502 0 0
18.6666 0 0
18.7831 0 0
18.8994 0 0
19.0158 0 0
19.1321 0 0
19.2483 0 0
19.3645 0 0
19.4806 0 0
19.5967 0 0
19.7128 0 0
19.8288 0 0
19.9447 0 0
20.0606 0 1
20.1764 0 1
20.2922 0 1
20.4079 0 1
20.5236 0 1
20.6392 0 1
20.7548 0 1
20.8702 0 1
23.3078 0 1
23.4233 0 1
23.539 0 1
23.6547 0 1
23.7704 0 1
23.8862 0 1
24.0021 0 1
24.118 0 1
24.234 0 1
24.35 0 1
24.4661 400 20
24.5822 535 23.1301
24.6984 576 24
24.8146 621 24.9199
24.9309 724 26.9072
25.0472 820 28.6356
25.1636 853 29.2062
25.28 861 29.3428
25.3965 929 30.4795
25.513 1031 32.1092
25.6296 1108 33.2866
25.7462 1036 32.187
25.8628 1077 32.8177
25.9795 1056 32.4962
26.0962 1104 33.2265
26.213 1022 31.9687
26.3298 926 30.4302
26.4466 880 29.6648
26.5635 904 30.0666
26.6804 925 30.4138
26.7973 897 29.95
26.9143 975 31.225
27.0313 904 30.0666
27.1483 943 30.7083
27.2653 1034 32.1559
27.3824 1031 32.1092
27.4996 1091 33.0303
27.6167 1065 32.6343
27.7339 1035 32.1714
27.8511 1025 32.0156
27.9683 949 30.8058
28.0855 966 31.0805
28.2028 920 30.3315
28.3201 839 28.9655
28.4374 871 29.5127
28.5547 895 29.9166
28.6721 1005 31.7017
28.7894 967 31.0966
28.9068 1021 31.9531
29.0242 1026 32.0312
29.1416 982 31.3369
29.259 1068 32.6803
29.3764 1058 32.5269
29.4939 1026 32.0312
29.6113 988 31.4325
29.7288 910 30.1662
29.8463 916 30.2655
29.9638 863 29.3769
30.0812 879 29.6479
30.1987 876 29.5973
30.3162 926 30.4302
30.4337 901 30.0167
30.5512 958 30.9516
30.6687 921 30.348
30.7862 972 31.1769
30.9037 1025 32.0156
31.0212 917 30.282
31.1387 1018 31.9061
31.2562 949 30.8058
31.3737 901 30.0167
31.4912 849 29.1376
31.6087 911 30.1828
31.7262 864 29.3939
31.8436 842 29.0172
31.9611 808 28.4253
32.0785 867 29.4449
32.1959 891 29.8496
32.3134 963 31.0322
32.4308 983 31.3528
32.5482 1011 31.7962
32.6655 1054 32.4654
32.7829 1077 32.8177
32.9002 1026 32.0312
33.0176 1033 32.1403
33.1349 942 30.692
33.2522 1023 31.9844
33.3694 922 30.3645
33.4867 881 29.6816
33.6039 844 29.0517
33.7211 760 27.5681
33.8383 807 28.4077
33.9554 871 29.5127
34.0725 891 29.8496
34.1896 875 29.5804
34.3067 890 29.8329
34.4237 904 30.0666
34.5407 896 29.9333
34.6577 986 31.4006
34.7746 929 30.4795
34.8915 923 30.3809
35.0084 903 30.05
35.1252 886 29.7658
35.242 839 28.9655
35.3587 831 28.8271
35.4755 827 28.7576
35.5921 787 28.0535
35.7088 759 27.55
35.8254 794 28.178
35.9419 833 28.8617
36.0584 889 29.8161
36.1749 896 29.9333
36.2913 908 30.133
36.4077 903 30.05
36.524 882 29.6985
36.6403 895 29.9166
36.7565 826 28.7402
36.8727 798 28.2489
36.9889 756 27.4955
37.1049 673 25.9422
37.221 0 1
37.3369 0 1
37.4529 0 1
37.5687 0 1
37.6845 0 1
37.8003 0 1
37.916 0 1
38.0316 0 1
38.1472 0 1
40.5851 0 1
40.7008 0 1
40.8164 0 1
40.9322 0 1
41.048 0 1
41.1639 0 1
41.2798 0 1
41.3958 0 1
41.5118 0 1
41.6279 0 1
41.744 431 20.7605
41.8602 510 22.5832
41.9765 555 23.5584
42.0928 600 24.4949
42.2091 652 25.5343
42.3255 602 24.5357
42.4419 580 24.0832
42.5584 607 24.6374
42.675 649 25.4755
42.7915 726 26.9444
42.9081 720 26.8328
43.0248 754 27.4591
43.1415 742 27.2397
43.2582 748 27.3496
43.375 803 28.3373
43.4918 795 28.1957
43.6087 836 28.9137
43.7256 803 28.3373
43.8425 809 28.4429
43.9595 755 27.4773
44.0765 748 27.3496
44.1935 730 27.0185
44.3106 710 26.6458
44.4277 648 25.4558
44.5448 663 25.7488
44.6619 697 26.4008
44.7791 697 26.4008
44.8963 743 27.258
45.0136 758 27.5318
45.1308 822 28.6705
45.2481 804 28.3549
45.3654 852 29.189
45.4827 793 28.1603
45.6001 796 28.2135
45.7174 793 28.1603
45.8348 731 27.037
45.9522 724 26.9072
46.0697 716 26.7582
46.1871 710 26.6458
46.3046 704 26.533
46.422 763 27.6225
46.5395 728 26.9815
46.657 800 28.2843
46.7745 786 28.0357
46.892 843 29.0345
47.0096 814 28.5307
47.1271 887 29.7825
47.2446 892 29.8664
47.3622 769 27.7308
47.4797 858 29.2916
47.5973 774 27.8209
47.7149 789 28.0891
47.8324 737 27.1477
47.95 652 25.5343
48.0675 678 26.0384
48.1851 628 25.0599
48.3027 700 26.4575
48.4202 794 28.178
48.5378 820 28.6356
48.6554 797 28.2312
48.7729 868 29.4618
48.8904 841 29
49.008 867 29.4449
49.1255 866 29.4279
49.243 852 29.189
49.3605 802 28.3196
49.478 709 26.6271
49.5955 713 26.7021
49.713 648 25.4558
49.8304 733 27.074
49.9479 755 27.4773
50.0653 825 28.7228
50.1827 772 27.7849
50.3001 786 28.0357
50.4175 799 28.2666
50.5348 826 28.7402
50.6521 857 29.2746
50.7694 829 28.7924
50.8867 788 28.0713
51.004 823 28.688
51.1212 827 28.7576
51.2384 728 26.9815
51.3556 723 26.8887
51.4727 638 25.2587
51.5899 652 25.5343
51.707 619 24.8797
51.824 713 26.7021
51.9411 753 27.4408
52.0581 844 29.0517
52.175 822 28.6705
52.2919 877 29.6142
52.4088 847 29.1033
52.5257 840 28.9828
52.6425 895 29.9166
52.7593 836 28.9137
52.876 805 28.3725
52.9927 796 28.2135
53.1094 769 27.7308
53.226 704 26.533
53.3426 711 26.6646
53.4591 714 26.7208
53.5756 763 27.6225
53.692 770 27.7489
53.8084 732 27.0555
53.9248 671 25.9037
54.0411 667 25.8263
54.1573 641 25.318
54.2735 0 1
54.3896 0 1
54.5057 0 1
54.6217 0 1
54.7377 0 1
54.8537 0 1
54.9695 0 1
55.0853 0 1
55.2011 0 1
55.3168 0 1
55.4324 0 1
57.824 0 1
57.9396 0 1
58.0553 0 1
58.1711 0 1
58.2869 0 1
58.4028 0 1
58.5187 0 1
58.6347 0 1
58.7508 0 1
58.8669 0 1
58.983 450 21.2132
59.0992 623 24.96
59.2155 597 24.4336
59.3318 715 26.7395
59.4482 791 28.1247
59.5646 793 28.1603
59.681 912 30.1993
59.7975 930 30.4959
59.9141 915 30.249
60.0306 887 29.7825
60.1473 845 29.0689
60.2639 790 28.1069
60.3807 784 28
60.4974 811 28.4781
60.6142 853 29.2062
60.731 927 30.4467
60.8479 1035 32.1714
60.9648 928 30.4631
61.0818 1028 32.0624
61.1987 953 30.8707
61.3158 1027 32.0468
61.4328 1064 32.619
61.5499 925 30.4138
61.667 961 31
61.7841 878 29.6311
61.9013 917 30.282
62.0185 839 28.9655
62.1357 888 29.7993
62.253 942 30.692
62.3702 953 30.8707
62.4875 1018 31.9061
62.6049 988 31.4325
62.7222 994 31.5278
62.8396 1054 32.4654
62.9569 1006 31.7175
63.0743 968 31.1127
63.1918 1020 31.9374
63.3092 977 31.257
63.4267 993 31.5119
63.5441 950 30.8221
63.6616 843 29.0345
63.7791 776 27.8568
63.8966 753 27.4408
64.0142 728 26.9815
64.1317 792 28.1425
64.2492 847 29.1033
64.3668 917 30.282
64.4843 1035 32.1714
64.6019 992 31.496
64.7195 1008 31.749
64.837 968 31.1127
64.9546 955 30.9031
65.0722 961 31
65.1898 918 30.2985
65.3074 839 28.9655
65.4249 894 29.8998
65.5425 841 29
65.6601 883 29.7153
65.7777 876 29.5973
65.8952 916 30.2655
66.0128 937 30.6105
66.1304 937 30.6105
66.2479 1013 31.8277
66.3655 953 30.8707
66.483 1031 32.1092
66.6005 1027 32.0468
66.718 935 30.5778
66.8355 1029 32.078
66.953 923 30.3809
67.0705 918 30.2985
67.1879 906 30.0998
67.3054 800 28.2843
67.4228 733 27.074
67.5402 661 25.7099
67.6576 688 26.2298
67.7749 722 26.8701
67.8923 821 28.6531
68.0096 860 29.3258
68.1269 994 31.5278
68.2442 995 31.5436
68.3614 945 30.7409
68.4787 898 29.9666
68.5958 994 31.5278
68.713 945 30.7409
68.8302 912 30.1993
68.9473 891 29.8496
69.0643 842 29.0172
69.1814 847 29.1033
69.2984 793 28.1603
69.4154 830 28.8097
69.5323 862 29.3598
69.6492 910 30.1662
69.7661 941 30.6757
69.8829 901 30.0167
69.9997 951 30.8383
70.1165 924 30.3974
70.2332 877 29.6142
70.3499 851 29.1719
70.4665 864 29.3939
70.5831 780 27.9285
70.6996 787 28.0535
70.8161 760 27.5681
70.9326 681 26.096
71.049 563 23.7276
71.1653 415 20.3715
71.2817 387 19.6723
71.3979 352 18.7617
71.5141 319 17.8606
71.6303 284 16.8523
71.7464 314 17.72
71.8624 0 1
71.9784 0 1
72.0944 0 1
72.2102 0 1
72.3261 0 1
72.4418 0 1
72.5575 0 1
72.6732 0 1
75.1054 0 1
75.2209 0 1
75.3365 0 1
75.4521 0 1
75.5678 0 1
75.6835 0 1
75.7993 0 1
75.9151 0 1
76.031 0 1
76.147 494 22.2261
76.263 528 22.9783
76.3791 496 22.2711
76.4952 439 20.9523
76.6113 481 21.9317
76.7276 523 22.8692
76.8438 575 23.9792
76.9601 659 25.671
77.0765 770 27.7489
77.1929 781 27.9464
77.3093 845 29.0689
77.4258 796 28.2135
77.5423 830 28.8097
77.6589 767 27.6948
77.7755 807 28.4077
77.8921 751 27.4044
78.0088 728 26.9815
78.1256 704 26.533
78.2423 681 26.096
78.3591 741 27.2213
78.4759 745 27.2947
78.5928 719 26.8142
78.7097 791 28.1247
78.8266 819 28.6182
78.9436 804 28.3549
79.0606 865 29.4109
79.1776 784 28
79.2946 844 29.0517
79.4117 899 29.9833
79.5288 833 28.8617
79.6459 820 28.6356
79.7631 812 28.4956
79.8802 723 26.8887
79.9974 669 25.865
80.1147 548 23.4094
80.2319 497 22.2935
80.3491 518 22.7596
80.4664 608 24.6577
80.5837 660 25.6905
80.701 812 28.4956
80.8183 815 28.5482
80.9357 787 28.0535
81.053 858 29.2916
81.1704 876 29.5973
81.2877 847 29.1033
81.4051 853 29.2062
81.5225 752 27.4226
81.6399 767 27.6948
81.7573 748 27.3496
81.8747 729 27
81.9922 722 26.8701
82.1096 786 28.0357
82.227 737 27.1477
82.3444 806 28.3901
82.4619 847 29.1033
82.5793 823 28.688
82.6967 855 29.2404
82.8142 885 29.7489
82.9316 830 28.8097
83.049 860 29.3258
83.1664 844 29.0517
83.2838 877 29.6142
83.4012 795 28.1957
83.5186 787 28.0535
83.636 717 26.7769
83.7534 558 23.622
83.8708 521 22.8254
83.9881 481 21.9317
84.1055 526 22.9347
84.2228 591 24.3105
84.3401 704 26.533
84.4575 814 28.5307
84.5747 822 28.6705
84.692 872 29.5296
84.8093 871 29.5127
84.9265 818 28.6007
85.0437 788 28.0713
85.1609 779 27.9106
85.2781 762 27.6043
85.3952 732 27.0555
85.5123 717 26.7769
85.6294 712 26.6833
85.7465 749 27.3679
85.8636 807 28.4077
85.9806 825 28.7228
86.0976 829 28.7924
86.2145 876 29.5973
86.3315 795 28.1957
86.4484 885 29.7489
86.5652 886 29.7658
86.682 845 29.0689
86.7988 820 28.6356
86.9156 822 28.6705
87.0323 797 28.2312
87.149 717 26.7769
87.2657 687 26.2107
87.3823 579 24.0624
87.4988 527 22.9565
87.6154 524 22.891
87.7318 538 23.1948
87.8483 657 25.632
87.9647 726 26.9444
88.081 758 27.5318
88.1973 732 27.0555
88.3136 749 27.3679
88.4298 679 26.0576
88.546 634 25.1794
88.6621 531 23.0434
88.7781 409 20.2237
88.8942 0 1
89.0101 0 1
89.126 0 1
89.2419 0 1
89.3577 0 1
89.4734 0 1
89.5891 0 1
89.7047 0 1
89.8203 0 1
89.9358 0 1
92.3269 0 1
92.4424 0 1
92.558 0 1
92.6736 0 1
92.7893 0 1
92.905 0 1
93.0208 0 1
93.1366 0 1
93.2525 0 1
93.3685 0 1
93.4845 0 1
93.6005 449 21.1896
93.7167 545 23.3452
93.8328 552 23.4947
93.949 627 25.04
94.0653 629 25.0799
94.1816 694 26.3439
94.2979 669 25.865
94.4143 756 27.4955
94.5307 781 27.9464
94.6472 759 27.55
94.7637 758 27.5318
94.8803 796 28.2135
94.9969 854 29.2233
95.1135 811 28.4781
95.2302 814 28.5307
95.3469 833 28.8617
95.4637 874 29.5635
95.5805 920 30.3315
95.6973 882 29.6985
95.8142 881 29.6816
95.9311 842 29.0172
96.048 805 28.3725
96.1649 834 28.8791
96.2819 779 27.9106
96.3989 740 27.2029
96.516 662 25.7294
96.633 565 23.7697
96.7501 477 21.8403
96.8673 485 22.0227
96.9844 529 23
97.1016 614 24.779
97.2188 722 26.8701
97.336 823 28.688
97.4532 852 29.189
97.5704 834 28.8791
97.6877 803 28.3373
97.805 814 28.5307
97.9223 787 28.0535
98.0396 795 28.1957
98.1569 757 27.5136
98.2743 745 27.2947
98.3916 776 27.8568
98.509 801 28.3019
98.6264 792 28.1425
98.7438 845 29.0689
98.8612 831 28.8271
98.9786 887 29.7825
99.096 820 28.6356
99.2134 901 30.0167
99.3308 870 29.4958
99.4482 889 29.8161
99.5656 869 29.4788
99.6831 842 29.0172
99.8005 862 29.3598
99.9179 723 26.8887
100.035 789 28.0891
100.153 654 25.5734
100.27 550 23.4521
100.388 533 23.0868
100.505 616 24.8193
100.622 642 25.3377
100.74 794 28.178
100.857 882 29.6985
100.975 870 29.4958
101.092 925 30.4138
101.209 858 29.2916
101.327 852 29.189
101.444 809 28.4429
101.561 775 27.8388
101.679 888 29.7993
101.796 756 27.4955
101.913 816 28.5657
102.03 814 28.5307
102.148 801 28.3019
102.265 861 29.3428
102.382 934 30.5614
102.499 900 30
102.616 876 29.5973
102.733 892 29.8664
102.851 967 31.0966
102.968 906 30.0998
103.085 956 30.9192
103.202 946 30.7571
103.319 878 29.6311
103.436 857 29.2746
103.552 800 28.2843
103.669 683 26.1343
103.786 568 23.8328
103.903 494 22.2261
104.02 586 24.2074
104.137 734 27.0924
104.253 788 28.0713
104.37 847 29.1033
104.487 937 30.6105
104.603 965 31.0644
104.72 982 31.3369
104.836 905 30.0832
104.953 834 28.8791
105.069 834 28.8791
105.186 796 28.2135
105.302 798 28.2489
105.418 816 28.5657
105.535 748 27.3496
105.651 753 27.4408
105.767 760 27.5681
105.883 695 26.3629
105.999 688 26.2298
106.115 0 1
106.231 0 1
106.347 0 1
106.463 0 1
106.579 0 1
106.694 0 1
106.81 0 1
106.926 0 1
107.041 0 1
107.157 0 1
109.576 0 1
109.692 0 1
109.807 0 1
109.923 0 1
110.039 0 1
110.155 0 1
110.27 0 1
110.386 0 1
110.502 0 1
110.618 286 16.9115
110.735 394 19.8494
110.851 433 20.8087
110.967 549 23.4307
111.083 581 24.1039
111.199 607 24.6374
111.316 703 26.5141
111.432 691 26.2869
111.549 766 27.6767
111.665 794 28.178
111.782 847 29.1033
111.898 770 27.7489
112.015 758 27.5318
112.132 652 25.5343
112.248 549 23.4307
112.365 451 21.2368
112.482 424 20.5913
112.599 527 22.9565
112.716 563 23.7276
112.832 663 25.7488
112.949 743 27.258
113.066 757 27.5136
113.183 856 29.2575
113.3 776 27.8568
113.417 795 28.1957
113.534 791 28.1247
113.652 753 27.4408
113.769 734 27.0924
113.886 713 26.7021
114.003 743 27.258
114.12 733 27.074
114.238 757 27.5136
114.355 758 27.5318
114.472 782 27.9643
114.589 758 27.5318
114.707 804 28.3549
114.824 850 29.1548
114.942 786 28.0357
115.059 840 28.9828
115.176 817 28.5832
115.294 763 27.6225
115.411 744 27.2764
115.529 742 27.2397
115.646 725 26.9258
115.764 617 24.8395
115.881 521 22.8254
115.999 410 20.2485
116.116 510 22.5832
116.234 545 23.3452
116.351 621 24.9199
116.469 683 26.1343
116.586 766 27.6767
116.704 775 27.8388
116.821 756 27.4955
116.939 723 26.8887
117.056 729 27
117.174 757 27.5136
117.291 703 26.5141
117.409 800 28.2843
117.526 759 27.55
117.644 690 26.2679
117.761 751 27.4044
117.879 734 27.0924
117.996 835 28.8964
118.114 782 27.9643
118.231 746 27.313
118.349 814 28.5307
118.466 860 29.3258
118.584 776 27.8568
118.701 821 28.6531
118.819 829 28.7924
118.936 836 28.9137
119.053 727 26.9629
119.171 715 26.7395
119.288 661 25.7099
119.405 572 23.9165
119.523 477 21.8403
119.64 461 21.4709
119.757 470 21.6795
119.875 500 22.3607
119.992 602 24.5357
120.109 667 25.8263
120.226 724 26.9072
120.343 726 26.9444
120.46 776 27.8568
120.578 741 27.2213
120.695 739 27.1846
120.812 773 27.8029
120.929 759 27.55
121.046 705 26.5518
121.163 642 25.3377
121.279 680 26.0768
121.396 701 26.4764
121.513 720 26.8328
121.63 697 26.4008
121.747 661 25.7099
121.863 732 27.0555
121.98 788 28.0713
122.097 719 26.8142
122.213 757 27.5136
122.33 721 26.8514
122.446 683 26.1343
122.563 683 26.1343
122.679 608 24.6577
122.795 548 23.4094
122.912 483 21.9773
123.028 374 19.3391
123.144 298 17.2627
123.26 257 16.0312
123.377 0 1
123.493 0 1
123.609 0 1
123.725 0 1
123.84 0 1
123.956 0 1
124.072 0 1
124.188 0 1
124.303 0 1
124.419 0 1
126.852 0 1
126.968 0 1
127.083 0 1
127.199 0 1
127.315 0 1
127.431 0 1
127.547 0 1
127.663 0 1
127.779 0 1
127.895 0 1
128.011 0 1
128.127 0 1
128.243 0 1
128.359 572 23.9165
128.476 605 24.5967
128.592 554 23.5372
128.708 483 21.9773
128.825 553 23.516
128.941 544 23.3238
129.058 637 25.2389
129.174 715 26.7395
129.291 785 28.0179
129.408 818 28.6007
129.524 733 27.074
129.641 807 28.4077
129.758 760 27.5681
129.875 809 28.4429
129.992 816 28.5657
130.108 812 28.4956
130.225 777 27.8747
130.342 776 27.8568
130.459 766 27.6767
130.576 743 27.258
130.693 770 27.7489
130.81 806 28.3901
130.928 822 28.6705
131.045 791 28.1247
131.162 796 28.2135
131.279 795 28.1957
131.396 778 27.8927
131.513 792 28.1425
131.631 800 28.2843
131.748 694 26.3439
131.865 753 27.4408
131.983 673 25.9422
132.1 556 23.5797
132.217 517 22.7376
132.335 465 21.5639
132.452 574 23.9583
132.57 607 24.6374
132.687 697 26.4008
132.804 758 27.5318
132.922 753 27.4408
133.039 792 28.1425
133.157 848 29.1204
133.274 787 28.0535
133.392 840 28.9828
133.509 773 27.8029
133.627 719 26.8142
133.744 772 27.7849
133.862 756 27.4955
133.979 761 27.5862
134.097 723 26.8887
134.214 757 27.5136
134.332 775 27.8388
134.449 789 28.0891
134.567 828 28.775
134.684 818 28.6007
134.802 819 28.6182
134.919 790 28.1069
135.037 766 27.6767
135.154 794 28.178
135.272 679 26.0576
135.389 726 26.9444
135.507 671 25.9037
135.624 599 24.4745
135.742 523 22.8692
135.859 510 22.5832
135.977 501 22.383
136.094 568 23.8328
136.211 683 26.1343
136.329 665 25.7876
136.446 745 27.2947
136.564 771 27.7669
136.681 741 27.2213
136.798 783 27.9821
136.915 777 27.8747
137.033 766 27.6767
137.15 768 27.7128
137.267 758 27.5318
137.384 763 27.6225
137.502 786 28.0357
137.619 721 26.8514
137.736 752 27.4226
137.853 715 26.7395
137.97 747 27.3313
138.087 833 28.8617
138.204 785 28.0179
138.321 801 28.3019
138.438 721 26.8514
138.555 755 27.4773
138.672 699 26.4386
138.788 752 27.4226
138.905 682 26.1151
139.022 664 25.7682
139.139 609 24.6779
139.255 586 24.2074
139.372 511 22.6053
139.488 440 20.9762
139.605 423 20.567
139.721 467 21.6102
139.838 516 22.7156
139.954 555 23.5584
140.071 513 22.6495
140.187 453 21.2838
140.303 390 19.7484
140.419 355 18.8414
140.535 392 19.799
140.652 320 17.8885
140.768 0 1
140.884 0 1
141 0 1
141.115 0 1
141.231 0 1
141.347 0 1
141.463 0 1
141.578 0 1
141.694 0 1
144.104 0 1
144.219 0 1
144.335 0 1
144.45 0 1
144.566 0 1
144.682 0 1
144.798 0 1
144.914 0 1
145.03 0 1
145.146 438 20.9284
145.262 509 22.561
145.378 578 24.0416
145.494 579 24.0624
145.61 583 24.1454
145.726 576 24
145.842 578 24.0416
145.959 577 24.0208
146.075 571 23.8956
146.192 577 24.0208
146.308 524 22.891
146.425 527 22.9565
146.541 527 22.9565
146.658 616 24.8193
146.774 554 23.5372
146.891 558 23.622
147.008 590 24.2899
147.125 542 23.2809
147.241 580 24.0832
147.358 617 24.8395
147.475 536 23.1517
147.592 522 22.8473
147.709 560 23.6643
147.826 474 21.7715
147.943 483 21.9773
148.06 480 21.9089
148.177 400 20
148.294 397 19.9249
148.411 404 20.0998
148.528 424 20.5913
148.645 441 21
148.762 563 23.7276
148.88 555 23.5584
148.997 601 24.5153
149.114 562 23.7065
149.231 529 23
149.349 597 24.4336
149.466 581 24.1039
149.583 604 24.5764
149.701 574 23.9583
149.818 576 24
149.935 549 23.4307
150.053 536 23.1517
150.17 539 23.2164
150.287 521 22.8254
150.405 542 23.2809
150.522 593 24.3516
150.64 539 23.2164
150.757 576 24
150.875 571 23.8956
150.992 578 24.0416
151.11 539 23.2164
151.227 564 23.7487
151.344 535 23.1301
151.462 507 22.5167
151.579 500 22.3607
151.697 479 21.8861
151.814 347 18.6279
151.932 440 20.9762
152.049 398 19.9499
152.167 453 21.2838
152.284 486 22.0454
152.402 539 23.2164
152.519 545 23.3452
152.636 550 23.4521
152.754 539 23.2164
152.871 540 23.2379
152.989 538 23.1948
153.106 539 23.2164
153.223 592 24.3311
153.341 554 23.5372
153.458 544 23.3238
153.575 514 22.6716
153.693 546 23.3666
153.81 538 23.1948
153.927 527 22.9565
154.044 538 23.1948
154.162 538 23.1948
154.279 569 23.8537
154.396 522 22.8473
154.513 555 23.5584
154.63 591 24.3105
154.747 582 24.1247
154.864 530 23.0217
154.981 532 23.0651
155.098 558 23.622
155.215 468 21.6333
155.332 440 20.9762
155.449 417 20.4206
155.566 394 19.8494
155.683 415 20.3715
155.8 476 21.8174
155.917 506 22.4944
156.033 512 22.6274
156.15 0 1
156.267 0 1
156.383 0 1
156.5 0 1
156.617 0 1
156.733 0 1
156.85 0 1
156.966 0 1
157.082 0 1
157.199 0 1
157.315 0 1
157.431 0 1
157.547 0 1
157.664 0 1
157.78 0 1
157.896 0 1
158.012 0 1
158.128 0 1
158.244 0 1
158.359 0 1
158.475 0 1
158.591 0 1
158.706 0 1
