
6.15755 0 1
6.2731 0 1
6.3887 0 1
6.50437 0 1
6.62009 0 1
6.73587 0 1
6.8517 0 1
6.96759 0 1
7.08353 0 1
7.19952 0 1
7.31557 0 1
7.43166 0 1
7.54781 0 1
7.664 0 1
7.78024 0 1
7.89653 0 1
8.01286 0 1
8.12924 0 1
8.24567 0 1
8.36213 0 1
8.47864 0 1
8.59519 0 1
8.71178 0 1
8.82841 0 1
8.94508 0 1
9.06179 0 1
9.17853 0 1
9.29531 0 1
9.41212 0 1
9.52897 0 1
9.64584 0 1
9.76276 0 1
9.8797 0 1
9.99667 0 1
10.1137 0 1
10.2307 0 1
10.3478 0 1
10.4648 0 1
10.5819 0 1
10.6991 0 1
10.8162 0 1
10.9334 0 1
11.0506 0 1
11.1678 0 1
11.285 0 1
11.4023 0 1
11.5196 0 1
11.6369 0 1
11.7542 0 1
11.8715 0 1
11.9888 0 1
12.1062 0 1
12.2235 0 1
12.3409 0 1
12.4582 0 1
12.5756 0 1
12.693 0 1
12.8104 0 1
12.9278 0 1
13.0452 0 1
13.1626 0 1
13.28 0 1
13.3974 0 1
13.5149 0 1
13.6323 0 1
13.7497 0 1
13.8671 0 1
13.9845 0 1
14.1019 0 1
14.2193 0 1
14.3367 0 1
14.4541 0 1
14.5714 0 1
14.6888 0 1
14.8062 0 1
14.9235 0 1
15.0408 1371 37.027
15.1581 1504 38.7814
15.2755 1554 39.4208
15.3927 1604 40.05
15.51 1577 39.7115
15.6273 1582 39.7744
15.7445 1545 39.3065
15.8617 1541 39.2556
15.9789 1475 38.4057
16.0961 1469 38.3275
16.2132 1558 39.4715
16.3304 1502 38.7556
16.4475 1585 39.8121
16.5646 1634 40.4228
16.6816 1705 41.2916
16.7986 1858 43.1045
16.9156 1820 42.6615
17.0326 1749 41.821
17.1496 1726 41.5452
17.2665 1774 42.1189
17.3833 1846 42.9651
17.5002 1750 41.833
17.617 1678 40.9634
17.7338 1629 40.3609
17.8505 1555 39.4335
17.9672 1585 39.8121
18.0839 1554 39.4208
18.2005 1576 39.6989
18.3171 1652 40.6448
18.4337 1698 41.2068
18.5502 1763 41.9881
18.6666 1720 41.4729
18.7831 1777 42.1545
18.8994 1795 42.3674
19.0158 1790 42.3084
19.1321 1740 41.7133
19.2483 1636 40.4475
19.3645 1551 39.3827
19.4806 1485 38.5357
19.5967 1367 36.973
19.7128 1226 35.0143
19.8288 1121 33.4813
19.9447 1044 32.311
20.0606 0 1
20.1764 0 1
20.2922 0 1
20.4079 0 1
20.5236 0 1
20.6392 0 1
20.7548 0 1
20.8702 0 1
23.3078 0 1
23.4233 0 1
23.539 0 1
23.6547 0 1
23.7704 0 1
23.8862 0 1
24.0021 0 1
24.118 0 1
24.234 0 1
24.35 0 1
24.4661 702 26.4953
24.5822 869 29.4788
24.6984 989 31.4484
24.8146 1061 32.573
24.9309 1182 34.3802
25.0472 1296 36
25.1636 1370 37.0135
25.28 1486 38.5487
25.3965 1744 41.7612
25.513 1727 41.5572
25.6296 1910 43.7035
25.7462 1887 43.4396
25.8628 1940 44.0454
25.9795 1973 44.4185
26.0962 1914 43.7493
26.213 1793 42.3438
26.3298 1721 41.4849
26.4466 1699 41.2189
26.5635 1696 41.1825
26.6804 1674 40.9145
26.7973 1686 41.0609
26.9143 1706 41.3038
27.0313 1712 41.3763
27.1483 1814 42.5911
27.2653 1895 43.5316
27.3824 1925 43.8748
27.4996 1917 43.7836
27.6167 1794 42.3556
27.7339 1785 42.2493
27.8511 1787 42.2729
27.9683 1682 41.0122
28.0855 1604 40.05
28.2028 1581 39.7618
28.3201 1535 39.1791
28.4374 1559 39.4842
28.5547 1591 39.8873
28.6721 1602 40.025
28.7894 1712 41.3763
28.9068 1693 41.1461
29.0242 1824 42.7083
29.1416 1908 43.6807
29.259 1934 43.9773
29.3764 1886 43.4281
29.4939 1913 43.7379
29.6113 1778 42.1663
29.7288 1736 41.6653
29.8463 1617 40.2119
29.9638 1575 39.6863
30.0812 1523 39.0256
30.1987 1539 39.2301
30.3162 1592 39.8999
30.4337 1685 41.0488
30.5512 1666 40.8167
30.6687 1631 40.3856
30.7862 1763 41.9881
30.9037 1839 42.8836
31.0212 1734 41.6413
31.1387 1879 43.3474
31.2562 1724 41.5211
31.3737 1782 42.2137
31.4912 1712 41.3763
31.6087 1620 40.2492
31.7262 1599 39.9875
31.8436 1505 38.7943
31.9611 1477 38.4318
32.0785 1510 38.8587
32.1959 1497 38.6911
32.3134 1666 40.8167
32.4308 1706 41.3038
32.5482 1753 41.8688
32.6655 1782 42.2137
32.7829 1793 42.3438
32.9002 1789 42.2966
33.0176 1757 41.9166
33.1349 1732 41.6173
33.2522 1685 41.0488
33.3694 1679 40.9756
33.4867 1665 40.8044
33.6039 1559 39.4842
33.7211 1506 38.8072
33.8383 1445 38.0132
33.9554 1510 38.8587
34.0725 1621 40.2616
34.1896 1631 40.3856
34.3067 1622 40.2741
34.4237 1690 41.1096
34.5407 1712 41.3763
34.6577 1673 40.9023
34.7746 1722 41.497
34.8915 1749 41.821
35.0084 1700 41.2311
35.1252 1688 41.0853
35.242 1637 40.4599
35.3587 1465 38.2753
35.4755 1486 38.5487
35.5921 1428 37.7889
35.7088 1369 37
35.8254 1495 38.6652
35.9419 1449 38.0657
36.0584 1557 39.4588
36.1749 1581 39.7618
36.2913 1604 40.05
36.4077 1626 40.3237
36.524 1556 39.4462
36.6403 1535 39.1791
36.7565 1408 37.5233
36.8727 1433 37.855
36.9889 1280 35.7771
37.1049 1171 34.2199
37.221 0 1
37.3369 0 1
37.4529 0 1
37.5687 0 1
37.6845 0 1
37.8003 0 1
37.916 0 1
38.0316 0 1
38.1472 0 1
40.5851 0 1
40.7008 0 1
40.8164 0 1
40.9322 0 1
41.048 0 1
41.1639 0 1
41.2798 0 1
41.3958 0 1
41.5118 0 1
41.6279 0 1
41.744 806 28.3901
41.8602 875 29.5804
41.9765 1001 31.6386
42.0928 984 31.3688
42.2091 959 30.9677
42.3255 1015 31.8591
42.4419 1012 31.8119
42.5584 1020 31.9374
42.675 1072 32.7414
42.7915 1222 34.9571
42.9081 1259 35.4824
43.0248 1352 36.7696
43.1415 1361 36.8917
43.2582 1387 37.2424
43.375 1399 37.4032
43.4918 1383 37.1887
43.6087 1446 38.0263
43.7256 1458 38.1838
43.8425 1392 37.3095
43.9595 1334 36.524
44.0765 1319 36.318
44.1935 1350 36.7423
44.3106 1202 34.6699
44.4277 1236 35.1568
44.5448 1185 34.4238
44.6619 1158 34.0294
44.7791 1260 35.4965
44.8963 1275 35.7071
45.0136 1356 36.8239
45.1308 1455 38.1445
45.2481 1486 38.5487
45.3654 1477 38.4318
45.4827 1419 37.6696
45.6001 1411 37.5633
45.7174 1427 37.7757
45.8348 1270 35.6371
45.9522 1207 34.7419
46.0697 1204 34.6987
46.1871 1121 33.4813
46.3046 1246 35.2987
46.422 1295 35.9861
46.5395 1319 36.318
46.657 1396 37.3631
46.7745 1401 37.4299
46.892 1380 37.1484
47.0096 1424 37.7359
47.1271 1448 38.0526
47.2446 1528 39.0896
47.3622 1404 37.47
47.4797 1367 36.973
47.5973 1437 37.9078
47.7149 1397 37.3765
47.8324 1255 35.426
47.95 1315 36.2629
48.0675 1259 35.4824
48.1851 1169 34.1906
48.3027 1263 35.5387
48.4202 1248 35.327
48.5378 1407 37.51
48.6554 1468 38.3145
48.7729 1494 38.6523
48.8904 1512 38.8844
49.008 1491 38.6135
49.1255 1455 38.1445
49.243 1429 37.8021
49.3605 1257 35.4542
49.478 1219 34.9142
49.5955 1219 34.9142
49.713 1091 33.0303
49.8304 1160 34.0588
49.9479 1267 35.5949
50.0653 1341 36.6197
50.1827 1378 37.1214
50.3001 1396 37.3631
50.4175 1448 38.0526
50.5348 1569 39.6106
50.6521 1500 38.7298
50.7694 1522 39.0128
50.8867 1584 39.7995
51.004 1556 39.4462
51.1212 1532 39.1408
51.2384 1491 38.6135
51.3556 1397 37.3765
51.4727 1405 37.4833
51.5899 1330 36.4692
51.707 1335 36.5377
51.824 1455 38.1445
51.9411 1532 39.1408
52.0581 1670 40.8656
52.175 1818 42.638
52.2919 1950 44.1588
52.4088 1845 42.9535
52.5257 1857 43.0929
52.6425 2001 44.7325
52.7593 1994 44.6542
52.876 2026 45.0111
52.9927 1765 42.0119
53.1094 1747 41.7971
53.226 1762 41.9762
53.3426 1605 40.0625
53.4591 1599 39.9875
53.5756 1600 40
53.692 1698 41.2068
53.8084 1674 40.9145
53.9248 1664 40.7922
54.0411 1605 40.0625
54.1573 1514 38.9102
54.2735 0 1
54.3896 0 1
54.5057 0 1
54.6217 0 1
54.7377 0 1
54.8537 0 1
54.9695 0 1
55.0853 0 1
55.2011 0 1
55.3168 0 1
55.4324 0 1
57.824 0 1
57.9396 0 1
58.0553 0 1
58.1711 0 1
58.2869 0 1
58.4028 0 1
58.5187 0 1
58.6347 0 1
58.7508 0 1
58.8669 0 1
58.983 1104 33.2265
59.0992 1331 36.4829
59.2155 1382 37.1753
59.3318 1493 38.6394
59.4482 1567 39.5854
59.5646 1702 41.2553
59.681 1785 42.2493
59.7975 1740 41.7133
59.9141 1671 40.8779
60.0306 1670 40.8656
60.1473 1672 40.8901
60.2639 1552 39.3954
60.3807 1553 39.4081
60.4974 1500 38.7298
60.6142 1667 40.8289
60.731 1647 40.5832
60.8479 1769 42.0595
60.9648 1849 43
61.0818 1862 43.1509
61.1987 1856 43.0813
61.3158 1788 42.2847
61.4328 1814 42.5911
61.5499 1678 40.9634
61.667 1550 39.37
61.7841 1525 39.0512
61.9013 1415 37.6165
62.0185 1420 37.6829
62.1357 1512 38.8844
62.253 1604 40.05
62.3702 1678 40.9634
62.4875 1786 42.2611
62.6049 1835 42.8369
62.7222 1819 42.6497
62.8396 1832 42.8019
62.9569 1850 43.0116
63.0743 1784 42.2374
63.1918 1816 42.6146
63.3092 1733 41.6293
63.4267 1739 41.7013
63.5441 1661 40.7554
63.6616 1632 40.398
63.7791 1513 38.8973
63.8966 1404 37.47
64.0142 1441 37.9605
64.1317 1496 38.6782
64.2492 1579 39.7366
64.3668 1760 41.9524
64.4843 1836 42.8486
64.6019 1740 41.7133
64.7195 1845 42.9535
64.837 1780 42.19
64.9546 1826 42.7317
65.0722 1729 41.5812
65.1898 1631 40.3856
65.3074 1515 38.923
65.4249 1431 37.8286
65.5425 1330 36.4692
65.6601 1370 37.0135
65.7777 1455 38.1445
65.8952 1556 39.4462
66.0128 1623 40.2865
66.1304 1727 41.5572
66.2479 1689 41.0974
66.3655 1690 41.1096
66.483 1855 43.0697
66.6005 1720 41.4729
66.718 1747 41.7971
66.8355 1819 42.6497
66.953 1709 41.3401
67.0705 1648 40.5956
67.1879 1680 40.9878
67.3054 1523 39.0256
67.4228 1379 37.1349
67.5402 1368 36.9865
67.6576 1414 37.6032
67.7749 1431 37.8286
67.8923 1558 39.4715
68.0096 1661 40.7554
68.1269 1728 41.5692
68.2442 1849 43
68.3614 1651 40.6325
68.4787 1733 41.6293
68.5958 1733 41.6293
68.713 1713 41.3884
68.8302 1548 39.3446
68.9473 1473 38.3797
69.0643 1385 37.2156
69.1814 1278 35.7491
69.2984 1307 36.1525
69.4154 1411 37.5633
69.5323 1461 38.223
69.6492 1629 40.3609
69.7661 1652 40.6448
69.8829 1688 41.0853
69.9997 1655 40.6817
70.1165 1650 40.6202
70.2332 1525 39.0512
70.3499 1471 38.3536
70.4665 1499 38.7169
70.5831 1370 37.0135
70.6996 1322 36.3593
70.8161 1271 35.6511
70.9326 1055 32.4808
71.049 993 31.5119
71.1653 821 28.6531
71.2817 683 26.1343
71.3979 642 25.3377
71.5141 631 25.1197
71.6303 588 24.2487
71.7464 581 24.1039
71.8624 0 1
71.9784 0 1
72.0944 0 1
72.2102 0 1
72.3261 0 1
72.4418 0 1
72.5575 0 1
72.6732 0 1
75.1054 0 1
75.2209 0 1
75.3365 0 1
75.4521 0 1
75.5678 0 1
75.6835 0 1
75.7993 0 1
75.9151 0 1
76.031 0 1
76.147 969 31.1288
76.263 1100 33.1662
76.3791 1021 31.9531
76.4952 1061 32.573
76.6113 1111 33.3317
76.7276 1249 35.3412
76.8438 1274 35.6931
76.9601 1368 36.9865
77.0765 1461 38.223
77.1929 1420 37.6829
77.3093 1611 40.1373
77.4258 1601 40.0125
77.5423 1534 39.1663
77.6589 1488 38.5746
77.7755 1371 37.027
77.8921 1273 35.6791
78.0088 1177 34.3074
78.1256 1062 32.5883
78.2423 1066 32.6497
78.3591 1189 34.4819
78.4759 1256 35.4401
78.5928 1390 37.2827
78.7097 1419 37.6696
78.8266 1435 37.8814
78.9436 1478 38.4448
79.0606 1533 39.1535
79.1776 1531 39.128
79.2946 1513 38.8973
79.4117 1572 39.6485
79.5288 1544 39.2938
79.6459 1547 39.3319
79.7631 1537 39.2046
79.8802 1484 38.5227
79.9974 1438 37.921
80.1147 1349 36.7287
80.2319 1232 35.0999
80.3491 1296 36
80.4664 1287 35.8748
80.5837 1420 37.6829
80.701 1530 39.1152
80.8183 1583 39.7869
80.9357 1625 40.3113
81.053 1595 39.9375
81.1704 1603 40.0375
81.2877 1569 39.6106
81.4051 1566 39.5727
81.5225 1364 36.9324
81.6399 1401 37.4299
81.7573 1178 34.322
81.8747 1214 34.8425
81.9922 1102 33.1964
82.1096 1264 35.5528
82.227 1332 36.4966
82.3444 1404 37.47
82.4619 1493 38.6394
82.5793 1563 39.5348
82.6967 1527 39.0768
82.8142 1585 39.8121
82.9316 1665 40.8044
83.049 1606 40.0749
83.1664 1550 39.37
83.2838 1555 39.4335
83.4012 1522 39.0128
83.5186 1506 38.8072
83.636 1390 37.2827
83.7534 1385 37.2156
83.8708 1246 35.2987
83.9881 1249 35.3412
84.1055 1244 35.2704
84.2228 1297 36.0139
84.3401 1476 38.4187
84.4575 1563 39.5348
84.5747 1659 40.7308
84.692 1666 40.8167
84.8093 1629 40.3609
84.9265 1632 40.398
85.0437 1511 38.8716
85.1609 1388 37.2559
85.2781 1268 35.609
85.3952 1207 34.7419
85.5123 1102 33.1964
85.6294 1164 34.1174
85.7465 1328 36.4417
85.8636 1347 36.7015
85.9806 1461 38.223
86.0976 1549 39.3573
86.2145 1588 39.8497
86.3315 1637 40.4599
86.4484 1597 39.9625
86.5652 1629 40.3609
86.682 1662 40.7676
86.7988 1581 39.7618
86.9156 1626 40.3237
87.0323 1540 39.2428
87.149 1545 39.3065
87.2657 1465 38.2753
87.3823 1373 37.054
87.4988 1088 32.9848
87.6154 1160 34.0588
87.7318 1125 33.541
87.8483 1157 34.0147
87.9647 1322 36.3593
88.081 1281 35.7911
88.1973 1245 35.2846
88.3136 1231 35.0856
88.4298 1174 34.2637
88.546 1081 32.8786
88.6621 944 30.7246
88.7781 805 28.3725
88.8942 0 1
89.0101 0 1
89.126 0 1
89.2419 0 1
89.3577 0 1
89.4734 0 1
89.5891 0 1
89.7047 0 1
89.8203 0 1
89.9358 0 1
92.3269 0 1
92.4424 0 1
92.558 0 1
92.6736 0 1
92.7893 0 1
92.905 0 1
93.0208 0 1
93.1366 0 1
93.2525 0 1
93.3685 0 1
93.4845 0 1
93.6005 1210 34.7851
93.7167 1288 35.8887
93.8328 1290 35.9166
93.949 1365 36.9459
94.0653 1495 38.6652
94.1816 1402 37.4433
94.2979 1402 37.4433
94.4143 1341 36.6197
94.5307 1253 35.3977
94.6472 1196 34.5832
94.7637 1200 34.641
94.8803 1329 36.4555
94.9969 1376 37.0945
95.1135 1414 37.6032
95.2302 1500 38.7298
95.3469 1580 39.7492
95.4637 1558 39.4715
95.5805 1740 41.7133
95.6973 1651 40.6325
95.8142 1603 40.0375
95.9311 1634 40.4228
96.048 1693 41.1461
96.1649 1611 40.1373
96.2819 1645 40.5586
96.3989 1523 39.0256
96.516 1500 38.7298
96.633 1409 37.5366
96.7501 1256 35.4401
96.8673 1356 36.8239
96.9844 1334 36.524
97.1016 1343 36.647
97.2188 1526 39.064
97.336 1683 41.0244
97.4532 1671 40.8779
97.5704 1680 40.9878
97.6877 1693 41.1461
97.805 1663 40.7799
97.9223 1556 39.4462
98.0396 1343 36.647
98.1569 1292 35.9444
98.2743 1219 34.9142
98.3916 1173 34.2491
98.509 1288 35.8887
98.6264 1454 38.1314
98.7438 1488 38.5746
98.8612 1522 39.0128
98.9786 1669 40.8534
99.096 1651 40.6325
99.2134 1657 40.7063
99.3308 1708 41.328
99.4482 1795 42.3674
99.5656 1757 41.9166
99.6831 1725 41.5331
99.8005 1676 40.939
99.9179 1718 41.4488
100.035 1601 40.0125
100.153 1540 39.2428
100.27 1474 38.3927
100.388 1435 37.8814
100.505 1413 37.5899
100.622 1531 39.128
100.74 1585 39.8121
100.857 1777 42.1545
100.975 1891 43.4856
101.092 1760 41.9524
101.209 1895 43.5316
101.327 1788 42.2847
101.444 1743 41.7493
101.561 1622 40.2741
101.679 1486 38.5487
101.796 1336 36.5513
101.913 1283 35.819
102.03 1281 35.7911
102.148 1406 37.4967
102.265 1561 39.5095
102.382 1681 41
102.499 1690 41.1096
102.616 1807 42.5088
102.733 1775 42.1307
102.851 1907 43.6692
102.968 1798 42.4028
103.085 1860 43.1277
103.202 1825 42.72
103.319 1821 42.6732
103.436 1746 41.7852
103.552 1635 40.4351
103.669 1604 40.05
103.786 1510 38.8587
103.903 1478 38.4448
104.02 1510 38.8587
104.137 1649 40.6079
104.253 1681 41
104.37 1875 43.3013
104.487 1901 43.6005
104.603 1849 43
104.72 1849 43
104.836 1836 42.8486
104.953 1665 40.8044
105.069 1566 39.5727
105.186 1376 37.0945
105.302 1291 35.9305
105.418 1156 34
105.535 1157 34.0147
105.651 1182 34.3802
105.767 1217 34.8855
105.883 1243 35.2562
105.999 1145 33.8378
106.115 0 1
106.231 0 1
106.347 0 1
106.463 0 1
106.579 0 1
106.694 0 1
106.81 0 1
106.926 0 1
107.041 0 1
107.157 0 1
109.576 0 1
109.692 0 1
109.807 0 1
109.923 0 1
110.039 0 1
110.155 0 1
110.27 0 1
110.386 0 1
110.502 0 1
110.618 767 27.6948
110.735 971 31.1609
110.851 1137 33.7194
110.967 1309 36.1801
111.083 1457 38.1707
111.199 1536 39.1918
111.316 1617 40.2119
111.432 1671 40.8779
111.549 1664 40.7922
111.665 1729 41.5812
111.782 1737 41.6773
111.898 1645 40.5586
112.015 1624 40.2989
112.132 1684 41.0366
112.248 1429 37.8021
112.365 1362 36.9053
112.482 1378 37.1214
112.599 1612 40.1497
112.716 1537 39.2046
112.832 1611 40.1373
112.949 1689 41.0974
113.066 1770 42.0714
113.183 1792 42.332
113.3 1779 42.1782
113.417 1739 41.7013
113.534 1646 40.5709
113.652 1488 38.5746
113.769 1353 36.7831
113.886 1284 35.8329
114.003 1180 34.3511
114.12 1251 35.3695
114.238 1462 38.2361
114.355 1484 38.5227
114.472 1506 38.8072
114.589 1768 42.0476
114.707 1703 41.2674
114.824 1764 42
114.942 1724 41.5211
115.059 1778 42.1663
115.176 1740 41.7133
115.294 1692 41.1339
115.411 1767 42.0357
115.529 1648 40.5956
115.646 1724 41.5211
115.764 1599 39.9875
115.881 1440 37.9473
115.999 1442 37.9737
116.116 1410 37.55
116.234 1512 38.8844
116.351 1708 41.328
116.469 1666 40.8167
116.586 1679 40.9756
116.704 1703 41.2674
116.821 1805 42.4853
116.939 1790 42.3084
117.056 1755 41.8927
117.174 1597 39.9625
117.291 1495 38.6652
117.409 1353 36.7831
117.526 1284 35.8329
117.644 1202 34.6699
117.761 1359 36.8646
117.879 1499 38.7169
117.996 1581 39.7618
118.114 1647 40.5832
118.231 1703 41.2674
118.349 1602 40.025
118.466 1727 41.5572
118.584 1716 41.4246
118.701 1769 42.0595
118.819 1673 40.9023
118.936 1703 41.2674
119.053 1679 40.9756
119.171 1676 40.939
119.288 1562 39.5221
119.405 1537 39.2046
119.523 1397 37.3765
119.64 1436 37.8946
119.757 1356 36.8239
119.875 1511 38.8716
119.992 1583 39.7869
120.109 1547 39.3319
120.226 1627 40.3361
120.343 1666 40.8167
120.46 1627 40.3361
120.578 1627 40.3361
120.695 1646 40.5709
120.812 1567 39.5854
120.929 1430 37.8153
121.046 1361 36.8917
121.163 1220 34.9285
121.279 1126 33.5559
121.396 1160 34.0588
121.513 1264 35.5528
121.63 1313 36.2353
121.747 1281 35.7911
121.863 1307 36.1525
121.98 1323 36.3731
122.097 1394 37.3363
122.213 1268 35.609
122.33 1296 36
122.446 1240 35.2136
122.563 1177 34.3074
122.679 1164 34.1174
122.795 1021 31.9531
122.912 981 31.3209
123.028 817 28.5832
123.144 755 27.4773
123.26 647 25.4362
123.377 0 1
123.493 0 1
123.609 0 1
123.725 0 1
123.84 0 1
123.956 0 1
124.072 0 1
124.188 0 1
124.303 0 1
124.419 0 1
126.852 0 1
126.968 0 1
127.083 0 1
127.199 0 1
127.315 0 1
127.431 0 1
127.547 0 1
127.663 0 1
127.779 0 1
127.895 0 1
128.011 0 1
128.127 0 1
128.243 0 1
128.359 1475 38.4057
128.476 1518 38.9615
128.592 1549 39.3573
128.708 1461 38.223
128.825 1527 39.0768
128.941 1569 39.6106
129.058 1651 40.6325
129.174 1773 42.107
129.291 1800 42.4264
129.408 1771 42.0833
129.524 1834 42.8252
129.641 1719 41.4608
129.758 1706 41.3038
129.875 1640 40.4969
129.992 1519 38.9744
130.108 1373 37.054
130.225 1299 36.0416
130.342 1363 36.9188
130.459 1363 36.9188
130.576 1479 38.4578
130.693 1540 39.2428
130.81 1691 41.1218
130.928 1687 41.0731
131.045 1738 41.6893
131.162 1804 42.4735
131.279 1726 41.5452
131.396 1738 41.6893
131.513 1777 42.1545
131.631 1737 41.6773
131.748 1684 41.0366
131.865 1652 40.6448
131.983 1625 40.3113
132.1 1517 38.9487
132.217 1513 38.8973
132.335 1560 39.4968
132.452 1569 39.6106
132.57 1652 40.6448
132.687 1770 42.0714
132.804 1856 43.0813
132.922 1847 42.9767
133.039 1781 42.2019
133.157 1802 42.45
133.274 1773 42.107
133.392 1772 42.0951
133.509 1583 39.7869
133.627 1415 37.6165
133.744 1392 37.3095
133.862 1353 36.7831
133.979 1430 37.8153
134.097 1414 37.6032
134.214 1622 40.2741
134.332 1682 41.0122
134.449 1674 40.9145
134.567 1764 42
134.684 1791 42.3202
134.802 1794 42.3556
134.919 1747 41.7971
135.037 1758 41.9285
135.154 1820 42.6615
135.272 1695 41.1704
135.389 1657 40.7063
135.507 1647 40.5832
135.624 1702 41.2553
135.742 1554 39.4208
135.859 1573 39.6611
135.977 1508 38.833
136.094 1576 39.6989
136.211 1663 40.7799
136.329 1789 42.2966
136.446 1746 41.7852
136.564 1926 43.8862
136.681 1842 42.9185
136.798 1799 42.4146
136.915 1801 42.4382
137.033 1734 41.6413
137.15 1563 39.5348
137.267 1581 39.7618
137.384 1404 37.47
137.502 1333 36.5103
137.619 1348 36.7151
137.736 1420 37.6829
137.853 1500 38.7298
137.97 1601 40.0125
138.087 1684 41.0366
138.204 1700 41.2311
138.321 1688 41.0853
138.438 1778 42.1663
138.555 1734 41.6413
138.672 1721 41.4849
138.788 1652 40.6448
138.905 1661 40.7554
139.022 1507 38.8201
139.139 1456 38.1576
139.255 1404 37.47
139.372 1285 35.8469
139.488 1262 35.5246
139.605 1133 33.6601
139.721 1129 33.6006
139.838 1174 34.2637
139.954 1167 34.1614
140.071 1144 33.8231
140.187 1048 32.3728
140.303 956 30.9192
140.419 939 30.6431
140.535 916 30.2655
140.652 755 27.4773
140.768 0 1
140.884 0 1
141 0 1
141.115 0 1
141.231 0 1
141.347 0 1
141.463 0 1
141.578 0 1
141.694 0 1
144.104 0 1
144.219 0 1
144.335 0 1
144.45 0 1
144.566 0 1
144.682 0 1
144.798 0 1
144.914 0 1
145.03 0 1
145.146 1223 34.9714
145.262 1350 36.7423
145.378 1344 36.6606
145.494 1412 37.5766
145.61 1438 37.921
145.726 1402 37.4433
145.842 1269 35.623
145.959 1218 34.8999
146.075 1214 34.8425
146.192 1155 33.9853
146.308 1153 33.9559
146.425 1078 32.8329
146.541 1153 33.9559
146.658 1266 35.5809
146.774 1255 35.426
146.891 1304 36.1109
147.008 1258 35.4683
147.125 1340 36.606
147.241 1412 37.5766
147.358 1350 36.7423
147.475 1367 36.973
147.592 1333 36.5103
147.709 1279 35.7631
147.826 1303 36.0971
147.943 1274 35.6931
148.06 1206 34.7275
148.177 1171 34.2199
148.294 1262 35.5246
148.411 1229 35.0571
148.528 1182 34.3802
148.645 1299 36.0416
148.762 1373 37.054
148.88 1378 37.1214
148.997 1464 38.2623
149.114 1387 37.2424
149.231 1389 37.2693
149.349 1376 37.0945
149.466 1376 37.0945
149.583 1328 36.4417
149.701 1192 34.5254
149.818 1156 34
149.935 1137 33.7194
150.053 1116 33.4066
150.17 1143 33.8083
150.287 1202 34.6699
150.405 1257 35.4542
150.522 1220 34.9285
150.64 1306 36.1386
150.757 1323 36.3731
150.875 1372 37.0405
150.992 1328 36.4417
151.11 1340 36.606
151.227 1379 37.1349
151.344 1278 35.7491
151.462 1277 35.7351
151.579 1223 34.9714
151.697 1254 35.4119
151.814 1146 33.8526
151.932 1153 33.9559
152.049 1230 35.0714
152.167 1289 35.9026
152.284 1267 35.5949
152.402 1321 36.3456
152.519 1324 36.3868
152.636 1374 37.0675
152.754 1304 36.1109
152.871 1266 35.5809
152.989 1296 36
153.106 1264 35.5528
153.223 1240 35.2136
153.341 1094 33.0757
153.458 1056 32.4962
153.575 1105 33.2415
153.693 1000 31.6228
153.81 1036 32.187
153.927 1119 33.4515
154.044 1120 33.4664
154.162 1209 34.7707
154.279 1198 34.6121
154.396 1280 35.7771
154.513 1268 35.609
154.63 1303 36.0971
154.747 1322 36.3593
154.864 1195 34.5688
154.981 1200 34.641
155.098 1139 33.7491
155.215 1169 34.1906
155.332 1170 34.2053
155.449 1039 32.2335
155.566 1136 33.7046
155.683 1086 32.9545
155.8 1094 33.0757
155.917 1125 33.541
156.033 1067 32.665
156.15 0 1
156.267 0 1
156.383 0 1
156.5 0 1
156.617 0 1
156.733 0 1
156.85 0 1
156.966 0 1
157.082 0 1
157.199 0 1
157.315 0 1
157.431 0 1
157.547 0 1
157.664 0 1
157.78 0 1
157.896 0 1
158.012 0 1
158.128 0 1
158.244 0 1
158.359 0 1
158.475 0 1
158.591 0 1
158.706 0 1
