
6.15755 0 1
6.2731 0 1
6.3887 0 1
6.50437 0 1
6.62009 0 1
6.73587 0 1
6.8517 0 1
6.96759 0 1
7.08353 0 1
7.19952 0 1
7.31557 0 1
7.43166 0 1
7.54781 0 1
7.664 0 1
7.78024 0 1
7.89653 0 1
8.01286 0 1
8.12924 0 1
8.24567 0 1
8.36213 0 1
8.47864 0 1
8.59519 0 1
8.71178 0 1
8.82841 0 1
8.94508 0 1
9.06179 0 1
9.17853 0 1
9.29531 0 1
9.41212 0 1
9.52897 0 1
9.64584 0 1
9.76276 0 1
9.8797 0 1
9.99667 0 1
10.1137 0 1
10.2307 0 1
10.3478 0 1
10.4648 0 1
10.5819 0 1
10.6991 0 1
10.8162 0 1
10.9334 0 1
11.0506 0 1
11.1678 0 1
11.285 0 1
11.4023 0 1
11.5196 0 1
11.6369 0 1
11.7542 0 1
11.8715 0 1
11.9888 0 1
12.1062 0 1
12.2235 0 1
12.3409 0 1
12.4582 0 1
12.5756 0 1
12.693 0 1
12.8104 0 1
12.9278 0 1
13.0452 0 1
13.1626 0 1
13.28 0 1
13.3974 0 1
13.5149 0 1
13.6323 0 1
13.7497 0 1
13.8671 0 1
13.9845 0 1
14.1019 0 1
14.2193 0 1
14.3367 0 1
14.4541 0 1
14.5714 0 1
14.6888 0 1
14.8062 0 1
14.9235 0 1
15.0408 0 0
15.1581 0 0
15.2755 0 0
15.3927 0 0
15.51 0 0
15.6273 0 0
15.7445 0 0
15.8617 0 0
15.9789 0 0
16.0961 0 0
16.2132 0 0
16.3304 0 0
16.4475 0 0
16.5646 0 0
16.6816 0 0
16.7986 0 0
16.9156 0 0
17.0326 0 0
17.1496 0 0
17.2665 0 0
17.3833 0 0
17.5002 0 0
17.617 0 0
17.7338 0 0
17.8505 0 0
17.9672 0 0
18.0839 0 0
18.2005 0 0
18.3171 0 0
18.4337 0 0
18.5502 0 0
18.6666 0 0
18.7831 0 0
18.8994 0 0
19.0158 0 0
19.1321 0 0
19.2483 0 0
19.3645 0 0
19.4806 0 0
19.5967 0 0
19.7128 0 0
19.8288 0 0
19.9447 0 0
20.0606 0 1
20.1764 0 1
20.2922 0 1
20.4079 0 1
20.5236 0 1
20.6392 0 1
20.7548 0 1
20.8702 0 1
23.3078 0 1
23.4233 0 1
23.539 0 1
23.6547 0 1
23.7704 0 1
23.8862 0 1
24.0021 0 1
24.118 0 1
24.234 0 1
24.35 0 1
24.4661 1062 32.5883
24.5822 1123 33.5112
24.6984 1070 32.7109
24.8146 1098 33.1361
24.9309 1071 32.7261
25.0472 1051 32.4191
25.1636 1085 32.9393
25.28 1044 32.311
25.3965 1051 32.4191
25.513 1098 33.1361
25.6296 1091 33.0303
25.7462 1153 33.9559
25.8628 1146 33.8526
25.9795 1136 33.7046
26.0962 1153 33.9559
26.213 1204 34.6987
26.3298 1179 34.3366
26.4466 1181 34.3657
26.5635 1059 32.5423
26.6804 1089 33
26.7973 1133 33.6601
26.9143 1131 33.6303
27.0313 1179 34.3366
27.1483 1206 34.7275
27.2653 1178 34.322
27.3824 1325 36.4005
27.4996 1264 35.5528
27.6167 1201 34.6554
27.7339 1192 34.5254
27.8511 1171 34.2199
27.9683 1118 33.4365
28.0855 1069 32.6956
28.2028 1047 32.3574
28.3201 1038 32.218
28.4374 1059 32.5423
28.5547 1016 31.8748
28.6721 991 31.4802
28.7894 997 31.5753
28.9068 979 31.289
29.0242 1092 33.0454
29.1416 981 31.3209
29.259 1036 32.187
29.3764 1068 32.6803
29.4939 1067 32.665
29.6113 1041 32.2645
29.7288 1118 33.4365
29.8463 1074 32.7719
29.9638 1070 32.7109
30.0812 1071 32.7261
30.1987 1040 32.249
30.3162 996 31.5595
30.4337 1044 32.311
30.5512 1092 33.0454
30.6687 1140 33.7639
30.7862 1135 33.6898
30.9037 1128 33.5857
31.0212 1172 34.2345
31.1387 1219 34.9142
31.2562 1170 34.2053
31.3737 1098 33.1361
31.4912 1112 33.3467
31.6087 1132 33.6452
31.7262 1061 32.573
31.8436 1030 32.0936
31.9611 1057 32.5115
32.0785 980 31.305
32.1959 943 30.7083
32.3134 963 31.0322
32.4308 950 30.8221
32.5482 1001 31.6386
32.6655 926 30.4302
32.7829 963 31.0322
32.9002 1017 31.8904
33.0176 1037 32.2025
33.1349 1089 33
33.2522 1092 33.0454
33.3694 1038 32.218
33.4867 1039 32.2335
33.6039 1039 32.2335
33.7211 1106 33.2566
33.8383 1024 32
33.9554 1009 31.7648
34.0725 1017 31.8904
34.1896 1067 32.665
34.3067 1066 32.6497
34.4237 1082 32.8938
34.5407 1060 32.5576
34.6577 1117 33.4215
34.7746 1081 32.8786
34.8915 1121 33.4813
35.0084 1112 33.3467
35.1252 1044 32.311
35.242 1031 32.1092
35.3587 1105 33.2415
35.4755 1010 31.7805
35.5921 1041 32.2645
35.7088 911 30.1828
35.8254 971 31.1609
35.9419 867 29.4449
36.0584 872 29.5296
36.1749 865 29.4109
36.2913 934 30.5614
36.4077 922 30.3645
36.524 907 30.1164
36.6403 967 31.0966
36.7565 922 30.3645
36.8727 957 30.9354
36.9889 1005 31.7017
37.1049 1038 32.218
37.221 0 1
37.3369 0 1
37.4529 0 1
37.5687 0 1
37.6845 0 1
37.8003 0 1
37.916 0 1
38.0316 0 1
38.1472 0 1
40.5851 0 1
40.7008 0 1
40.8164 0 1
40.9322 0 1
41.048 0 1
41.1639 0 1
41.2798 0 1
41.3958 0 1
41.5118 0 1
41.6279 0 1
41.744 715 26.7395
41.8602 756 27.4955
41.9765 787 28.0535
42.0928 854 29.2233
42.2091 764 27.6405
42.3255 847 29.1033
42.4419 823 28.688
42.5584 835 28.8964
42.675 820 28.6356
42.7915 785 28.0179
42.9081 783 27.9821
43.0248 807 28.4077
43.1415 826 28.7402
43.2582 849 29.1376
43.375 889 29.8161
43.4918 845 29.0689
43.6087 802 28.3196
43.7256 766 27.6767
43.8425 783 27.9821
43.9595 797 28.2312
44.0765 744 27.2764
44.1935 711 26.6646
44.3106 705 26.5518
44.4277 669 25.865
44.5448 685 26.1725
44.6619 625 25
44.7791 535 23.1301
44.8963 514 22.6716
45.0136 547 23.388
45.1308 575 23.9792
45.2481 502 22.4054
45.3654 580 24.0832
45.4827 575 23.9792
45.6001 601 24.5153
45.7174 597 24.4336
45.8348 620 24.8998
45.9522 587 24.2281
46.0697 565 23.7697
46.1871 609 24.6779
46.3046 560 23.6643
46.422 597 24.4336
46.5395 588 24.2487
46.657 528 22.9783
46.7745 564 23.7487
46.892 561 23.6854
47.0096 565 23.7697
47.1271 556 23.5797
47.2446 606 24.6171
47.3622 568 23.8328
47.4797 585 24.1868
47.5973 519 22.7816
47.7149 553 23.516
47.8324 520 22.8035
47.95 509 22.561
48.0675 441 21
48.1851 429 20.7123
48.3027 411 20.2731
48.4202 380 19.4936
48.5378 414 20.347
48.6554 360 18.9737
48.7729 385 19.6214
48.8904 425 20.6155
49.008 442 21.0238
49.1255 464 21.5407
49.243 445 21.095
49.3605 449 21.1896
49.478 488 22.0907
49.5955 435 20.8567
49.713 489 22.1133
49.8304 484 22
49.9479 443 21.0476
50.0653 480 21.9089
50.1827 510 22.5832
50.3001 519 22.7816
50.4175 558 23.622
50.5348 565 23.7697
50.6521 551 23.4734
50.7694 599 24.4745
50.8867 606 24.6171
51.004 619 24.8797
51.1212 609 24.6779
51.2384 572 23.9165
51.3556 634 25.1794
51.4727 643 25.3574
51.5899 559 23.6432
51.707 559 23.6432
51.824 537 23.1733
51.9411 543 23.3024
52.0581 545 23.3452
52.175 560 23.6643
52.2919 586 24.2074
52.4088 595 24.3926
52.5257 641 25.318
52.6425 677 26.0192
52.7593 735 27.1109
52.876 725 26.9258
52.9927 772 27.7849
53.1094 836 28.9137
53.226 777 27.8747
53.3426 755 27.4773
53.4591 746 27.313
53.5756 763 27.6225
53.692 853 29.2062
53.8084 871 29.5127
53.9248 855 29.2404
54.0411 931 30.5123
54.1573 910 30.1662
54.2735 0 1
54.3896 0 1
54.5057 0 1
54.6217 0 1
54.7377 0 1
54.8537 0 1
54.9695 0 1
55.0853 0 1
55.2011 0 1
55.3168 0 1
55.4324 0 1
57.824 0 1
57.9396 0 1
58.0553 0 1
58.1711 0 1
58.2869 0 1
58.4028 0 1
58.5187 0 1
58.6347 0 1
58.7508 0 1
58.8669 0 1
58.983 971 31.1609
59.0992 998 31.5911
59.2155 1051 32.4191
59.3318 1069 32.6956
59.4482 1095 33.0908
59.5646 1049 32.3883
59.681 1085 32.9393
59.7975 1017 31.8904
59.9141 1058 32.5269
60.0306 1047 32.3574
60.1473 938 30.6268
60.2639 903 30.05
60.3807 824 28.7054
60.4974 744 27.2764
60.6142 786 28.0357
60.731 762 27.6043
60.8479 748 27.3496
60.9648 771 27.7669
61.0818 742 27.2397
61.1987 824 28.7054
61.3158 905 30.0832
61.4328 910 30.1662
61.5499 904 30.0666
61.667 892 29.8664
61.7841 895 29.9166
61.9013 899 29.9833
62.0185 864 29.3939
62.1357 849 29.1376
62.253 919 30.315
62.3702 917 30.282
62.4875 953 30.8707
62.6049 978 31.273
62.7222 1074 32.7719
62.8396 1103 33.2114
62.9569 1047 32.3574
63.0743 995 31.5436
63.1918 1110 33.3167
63.3092 1020 31.9374
63.4267 1124 33.5261
63.5441 975 31.225
63.6616 878 29.6311
63.7791 849 29.1376
63.8966 765 27.6586
64.0142 744 27.2764
64.1317 741 27.2213
64.2492 740 27.2029
64.3668 745 27.2947
64.4843 792 28.1425
64.6019 843 29.0345
64.7195 936 30.5941
64.837 926 30.4302
64.9546 902 30.0333
65.0722 933 30.545
65.1898 927 30.4467
65.3074 880 29.6648
65.4249 941 30.6757
65.5425 875 29.5804
65.6601 826 28.7402
65.7777 839 28.9655
65.8952 960 30.9839
66.0128 892 29.8664
66.1304 925 30.4138
66.2479 1021 31.9531
66.3655 1076 32.8024
66.483 1025 32.0156
66.6005 1046 32.3419
66.718 999 31.607
66.8355 1061 32.573
66.953 1000 31.6228
67.0705 960 30.9839
67.1879 911 30.1828
67.3054 829 28.7924
67.4228 793 28.1603
67.5402 681 26.096
67.6576 663 25.7488
67.7749 656 25.6125
67.8923 672 25.923
68.0096 735 27.1109
68.1269 748 27.3496
68.2442 743 27.258
68.3614 785 28.0179
68.4787 856 29.2575
68.5958 869 29.4788
68.713 836 28.9137
68.8302 877 29.6142
68.9473 878 29.6311
69.0643 862 29.3598
69.1814 758 27.5318
69.2984 846 29.0861
69.4154 807 28.4077
69.5323 875 29.5804
69.6492 915 30.249
69.7661 963 31.0322
69.8829 996 31.5595
69.9997 1016 31.8748
70.1165 1056 32.4962
70.2332 1048 32.3728
70.3499 1027 32.0468
70.4665 970 31.1448
70.5831 1007 31.7333
70.6996 986 31.4006
70.8161 897 29.95
70.9326 845 29.0689
71.049 866 29.4279
71.1653 748 27.3496
71.2817 660 25.6905
71.3979 666 25.807
71.5141 700 26.4575
71.6303 671 25.9037
71.7464 599 24.4745
71.8624 0 1
71.9784 0 1
72.0944 0 1
72.2102 0 1
72.3261 0 1
72.4418 0 1
72.5575 0 1
72.6732 0 1
75.1054 0 1
75.2209 0 1
75.3365 0 1
75.4521 0 1
75.5678 0 1
75.6835 0 1
75.7993 0 1
75.9151 0 1
76.031 0 1
76.147 839 28.9655
76.263 870 29.4958
76.3791 885 29.7489
76.4952 735 27.1109
76.6113 655 25.593
76.7276 630 25.0998
76.8438 670 25.8844
76.9601 707 26.5895
77.0765 745 27.2947
77.1929 781 27.9464
77.3093 920 30.3315
77.4258 961 31
77.5423 913 30.2159
77.6589 895 29.9166
77.7755 893 29.8831
77.8921 922 30.3645
78.0088 867 29.4449
78.1256 881 29.6816
78.2423 782 27.9643
78.3591 791 28.1247
78.4759 834 28.8791
78.5928 904 30.0666
78.7097 938 30.6268
78.8266 976 31.241
78.9436 1070 32.7109
79.0606 1026 32.0312
79.1776 1056 32.4962
79.2946 1071 32.7261
79.4117 1045 32.3265
79.5288 1048 32.3728
79.6459 1010 31.7805
79.7631 940 30.6594
79.8802 909 30.1496
79.9974 741 27.2213
80.1147 751 27.4044
80.2319 651 25.5147
80.3491 576 24
80.4664 560 23.6643
80.5837 639 25.2784
80.701 609 24.6779
80.8183 754 27.4591
80.9357 745 27.2947
81.053 787 28.0535
81.1704 819 28.6182
81.2877 764 27.6405
81.4051 784 28
81.5225 729 27
81.6399 739 27.1846
81.7573 743 27.258
81.8747 670 25.8844
81.9922 700 26.4575
82.1096 717 26.7769
82.227 850 29.1548
82.3444 771 27.7669
82.4619 838 28.9482
82.5793 923 30.3809
82.6967 851 29.1719
82.8142 907 30.1164
82.9316 884 29.7321
83.049 896 29.9333
83.1664 919 30.315
83.2838 780 27.9285
83.4012 730 27.0185
83.5186 709 26.6271
83.636 627 25.04
83.7534 639 25.2784
83.8708 527 22.9565
83.9881 502 22.4054
84.1055 490 22.1359
84.2228 556 23.5797
84.3401 571 23.8956
84.4575 685 26.1725
84.5747 680 26.0768
84.692 737 27.1477
84.8093 707 26.5895
84.9265 714 26.7208
85.0437 740 27.2029
85.1609 724 26.9072
85.2781 668 25.8457
85.3952 703 26.5141
85.5123 717 26.7769
85.6294 689 26.2488
85.7465 787 28.0535
85.8636 785 28.0179
85.9806 905 30.0832
86.0976 838 28.9482
86.2145 940 30.6594
86.3315 940 30.6594
86.4484 902 30.0333
86.5652 1017 31.8904
86.682 926 30.4302
86.7988 911 30.1828
86.9156 955 30.9031
87.0323 854 29.2233
87.149 784 28
87.2657 749 27.3679
87.3823 711 26.6646
87.4988 595 24.3926
87.6154 626 25.02
87.7318 667 25.8263
87.8483 688 26.2298
87.9647 788 28.0713
88.081 867 29.4449
88.1973 921 30.348
88.3136 906 30.0998
88.4298 914 30.2324
88.546 886 29.7658
88.6621 802 28.3196
88.7781 832 28.8444
88.8942 0 1
89.0101 0 1
89.126 0 1
89.2419 0 1
89.3577 0 1
89.4734 0 1
89.5891 0 1
89.7047 0 1
89.8203 0 1
89.9358 0 1
92.3269 0 1
92.4424 0 1
92.558 0 1
92.6736 0 1
92.7893 0 1
92.905 0 1
93.0208 0 1
93.1366 0 1
93.2525 0 1
93.3685 0 1
93.4845 0 1
93.6005 902 30.0333
93.7167 870 29.4958
93.8328 916 30.2655
93.949 836 28.9137
94.0653 903 30.05
94.1816 863 29.3769
94.2979 814 28.5307
94.4143 819 28.6182
94.5307 797 28.2312
94.6472 803 28.3373
94.7637 855 29.2404
94.8803 894 29.8998
94.9969 1007 31.7333
95.1135 992 31.496
95.2302 1046 32.3419
95.3469 1070 32.7109
95.4637 1056 32.4962
95.5805 1080 32.8634
95.6973 1121 33.4813
95.8142 1110 33.3167
95.9311 1074 32.7719
96.048 962 31.0161
96.1649 975 31.225
96.2819 862 29.3598
96.3989 850 29.1548
96.516 750 27.3861
96.633 690 26.2679
96.7501 686 26.1916
96.8673 679 26.0576
96.9844 754 27.4591
97.1016 764 27.6405
97.2188 905 30.0832
97.336 934 30.5614
97.4532 903 30.05
97.5704 970 31.1448
97.6877 864 29.3939
97.805 861 29.3428
97.9223 787 28.0535
98.0396 819 28.6182
98.1569 797 28.2312
98.2743 834 28.8791
98.3916 820 28.6356
98.509 895 29.9166
98.6264 995 31.5436
98.7438 1035 32.1714
98.8612 1037 32.2025
98.9786 1103 33.2114
99.096 1079 32.8481
99.2134 1077 32.8177
99.3308 1100 33.1662
99.4482 1079 32.8481
99.5656 1074 32.7719
99.6831 975 31.225
99.8005 980 31.305
99.9179 932 30.5287
100.035 794 28.178
100.153 755 27.4773
100.27 712 26.6833
100.388 720 26.8328
100.505 726 26.9444
100.622 782 27.9643
100.74 875 29.5804
100.857 942 30.692
100.975 960 30.9839
101.092 975 31.225
101.209 873 29.5466
101.327 871 29.5127
101.444 852 29.189
101.561 801 28.3019
101.679 864 29.3939
101.796 938 30.6268
101.913 884 29.7321
102.03 943 30.7083
102.148 966 31.0805
102.265 1045 32.3265
102.382 1159 34.0441
102.499 1116 33.4066
102.616 1151 33.9264
102.733 1137 33.7194
102.851 1168 34.176
102.968 1106 33.2566
103.085 1166 34.1467
103.202 1075 32.7872
103.319 1005 31.7017
103.436 999 31.607
103.552 921 30.348
103.669 810 28.4605
103.786 754 27.4591
103.903 807 28.4077
104.02 779 27.9106
104.137 859 29.3087
104.253 869 29.4788
104.37 1005 31.7017
104.487 1003 31.6702
104.603 1054 32.4654
104.72 932 30.5287
104.836 928 30.4631
104.953 889 29.8161
105.069 922 30.3645
105.186 858 29.2916
105.302 953 30.8707
105.418 980 31.305
105.535 1034 32.1559
105.651 1155 33.9853
105.767 1194 34.5543
105.883 1257 35.4542
105.999 1272 35.6651
106.115 0 1
106.231 0 1
106.347 0 1
106.463 0 1
106.579 0 1
106.694 0 1
106.81 0 1
106.926 0 1
107.041 0 1
107.157 0 1
109.576 0 1
109.692 0 1
109.807 0 1
109.923 0 1
110.039 0 1
110.155 0 1
110.27 0 1
110.386 0 1
110.502 0 1
110.618 1021 31.9531
110.735 986 31.4006
110.851 1099 33.1512
110.967 1149 33.8969
111.083 1171 34.2199
111.199 1190 34.4964
111.316 1279 35.7631
111.432 1257 35.4542
111.549 1186 34.4384
111.665 1129 33.6006
111.782 1126 33.5559
111.898 1066 32.6497
112.015 964 31.0483
112.132 950 30.8221
112.248 836 28.9137
112.365 840 28.9828
112.482 760 27.5681
112.599 863 29.3769
112.716 846 29.0861
112.832 930 30.4959
112.949 890 29.8329
113.066 1001 31.6386
113.183 991 31.4802
113.3 962 31.0161
113.417 829 28.7924
113.534 851 29.1719
113.652 837 28.931
113.769 892 29.8664
113.886 894 29.8998
114.003 912 30.1993
114.12 954 30.8869
114.238 1127 33.5708
114.355 1212 34.8138
114.472 1078 32.8329
114.589 1118 33.4365
114.707 1140 33.7639
114.824 1187 34.4529
114.942 1179 34.3366
115.059 1195 34.5688
115.176 1130 33.6155
115.294 1099 33.1512
115.411 1142 33.7935
115.529 1042 32.28
115.646 951 30.8383
115.764 946 30.7571
115.881 808 28.4253
115.999 882 29.6985
116.116 912 30.1993
116.234 923 30.3809
116.351 948 30.7896
116.469 999 31.607
116.586 1028 32.0624
116.704 1029 32.078
116.821 945 30.7409
116.939 949 30.8058
117.056 959 30.9677
117.174 906 30.0998
117.291 886 29.7658
117.409 927 30.4467
117.526 943 30.7083
117.644 1085 32.9393
117.761 1145 33.8378
117.879 1209 34.7707
117.996 1218 34.8999
118.114 1239 35.1994
118.231 1350 36.7423
118.349 1304 36.1109
118.466 1188 34.4674
118.584 1250 35.3553
118.701 1251 35.3695
118.819 1174 34.2637
118.936 1150 33.9116
119.053 1137 33.7194
119.171 1058 32.5269
119.288 1036 32.187
119.405 940 30.6594
119.523 878 29.6311
119.64 867 29.4449
119.757 960 30.9839
119.875 963 31.0322
119.992 956 30.9192
120.109 973 31.1929
120.226 1030 32.0936
120.343 965 31.0644
120.46 970 31.1448
120.578 980 31.305
120.695 933 30.545
120.812 908 30.133
120.929 920 30.3315
121.046 978 31.273
121.163 972 31.1769
121.279 1046 32.3419
121.396 1104 33.2265
121.513 1180 34.3511
121.63 1232 35.0999
121.747 1248 35.327
121.863 1198 34.6121
121.98 1208 34.7563
122.097 1190 34.4964
122.213 1260 35.4965
122.33 1186 34.4384
122.446 1164 34.1174
122.563 1153 33.9559
122.679 1141 33.7787
122.795 1066 32.6497
122.912 1059 32.5423
123.028 984 31.3688
123.144 958 30.9516
123.26 868 29.4618
123.377 0 1
123.493 0 1
123.609 0 1
123.725 0 1
123.84 0 1
123.956 0 1
124.072 0 1
124.188 0 1
124.303 0 1
124.419 0 1
126.852 0 1
126.968 0 1
127.083 0 1
127.199 0 1
127.315 0 1
127.431 0 1
127.547 0 1
127.663 0 1
127.779 0 1
127.895 0 1
128.011 0 1
128.127 0 1
128.243 0 1
128.359 1057 32.5115
128.476 1020 31.9374
128.592 973 31.1929
128.708 996 31.5595
128.825 1067 32.665
128.941 1084 32.9242
129.058 1115 33.3916
129.174 1138 33.7343
129.291 1075 32.7872
129.408 1066 32.6497
129.524 1025 32.0156
129.641 1017 31.8904
129.758 1002 31.6544
129.875 1030 32.0936
129.992 1001 31.6386
130.108 1029 32.078
130.225 1101 33.1813
130.342 1162 34.0881
130.459 1189 34.4819
130.576 1282 35.805
130.693 1287 35.8748
130.81 1323 36.3731
130.928 1248 35.327
131.045 1272 35.6651
131.162 1255 35.426
131.279 1235 35.1426
131.396 1221 34.9428
131.513 1182 34.3802
131.631 1186 34.4384
131.748 1162 34.0881
131.865 1110 33.3167
131.983 1038 32.218
132.1 970 31.1448
132.217 1046 32.3419
132.335 1021 31.9531
132.452 1104 33.2265
132.57 1087 32.9697
132.687 1102 33.1964
132.804 1088 32.9848
132.922 1095 33.0908
133.039 998 31.5911
133.157 1070 32.7109
133.274 1039 32.2335
133.392 1033 32.1403
133.509 1072 32.7414
133.627 1033 32.1403
133.744 1084 32.9242
133.862 1130 33.6155
133.979 1197 34.5977
134.097 1283 35.819
134.214 1239 35.1994
134.332 1292 35.9444
134.449 1306 36.1386
134.567 1253 35.3977
134.684 1217 34.8855
134.802 1288 35.8887
134.919 1230 35.0714
135.037 1279 35.7631
135.154 1209 34.7707
135.272 1181 34.3657
135.389 1159 34.0441
135.507 1072 32.7414
135.624 1031 32.1092
135.742 985 31.3847
135.859 1102 33.1964
135.977 1160 34.0588
136.094 1168 34.176
136.211 1136 33.7046
136.329 1084 32.9242
136.446 1125 33.541
136.564 1110 33.3167
136.681 1010 31.7805
136.798 1069 32.6956
136.915 1022 31.9687
137.033 1010 31.7805
137.15 1058 32.5269
137.267 1052 32.4345
137.384 1082 32.8938
137.502 1155 33.9853
137.619 1160 34.0588
137.736 1216 34.8712
137.853 1160 34.0588
137.97 1232 35.0999
138.087 1198 34.6121
138.204 1291 35.9305
138.321 1261 35.5106
138.438 1241 35.2278
138.555 1232 35.0999
138.672 1248 35.327
138.788 1167 34.1614
138.905 1184 34.4093
139.022 1150 33.9116
139.139 1088 32.9848
139.255 1020 31.9374
139.372 1073 32.7567
139.488 1127 33.5708
139.605 1109 33.3017
139.721 1182 34.3802
139.838 1156 34
139.954 1136 33.7046
140.071 1106 33.2566
140.187 1047 32.3574
140.303 1035 32.1714
140.419 1025 32.0156
140.535 1043 32.2955
140.652 989 31.4484
140.768 0 1
140.884 0 1
141 0 1
141.115 0 1
141.231 0 1
141.347 0 1
141.463 0 1
141.578 0 1
141.694 0 1
144.104 0 1
144.219 0 1
144.335 0 1
144.45 0 1
144.566 0 1
144.682 0 1
144.798 0 1
144.914 0 1
145.03 0 1
145.146 797 28.2312
145.262 874 29.5635
145.378 875 29.5804
145.494 878 29.6311
145.61 861 29.3428
145.726 805 28.3725
145.842 837 28.931
145.959 807 28.4077
146.075 777 27.8747
146.192 895 29.9166
146.308 858 29.2916
146.425 891 29.8496
146.541 953 30.8707
146.658 997 31.5753
146.774 959 30.9677
146.891 1031 32.1092
147.008 961 31
147.125 1049 32.3883
147.241 970 31.1448
147.358 996 31.5595
147.475 973 31.1929
147.592 1012 31.8119
147.709 955 30.9031
147.826 970 31.1448
147.943 893 29.8831
148.06 843 29.0345
148.177 915 30.249
148.294 841 29
148.411 886 29.7658
148.528 946 30.7571
148.645 953 30.8707
148.762 952 30.8545
148.88 894 29.8998
148.997 940 30.6594
149.114 920 30.3315
149.231 900 30
149.349 890 29.8329
149.466 921 30.348
149.583 844 29.0517
149.701 899 29.9833
149.818 858 29.2916
149.935 866 29.4279
150.053 857 29.2746
150.17 943 30.7083
150.287 929 30.4795
150.405 998 31.5911
150.522 928 30.4631
150.64 1010 31.7805
150.757 1011 31.7962
150.875 1033 32.1403
150.992 987 31.4166
151.11 1033 32.1403
151.227 1103 33.2114
151.344 1038 32.218
151.462 990 31.4643
151.579 944 30.7246
151.697 935 30.5778
151.814 879 29.6479
151.932 923 30.3809
152.049 882 29.6985
152.167 947 30.7734
152.284 984 31.3688
152.402 989 31.4484
152.519 1010 31.7805
152.636 979 31.289
152.754 956 30.9192
152.871 972 31.1769
152.989 951 30.8383
153.106 1013 31.8277
153.223 920 30.3315
153.341 967 31.0966
153.458 921 30.348
153.575 925 30.4138
153.693 1003 31.6702
153.81 970 31.1448
153.927 1049 32.3883
154.044 1044 32.311
154.162 1086 32.9545
154.279 1073 32.7567
154.396 1120 33.4664
154.513 1123 33.5112
154.63 1115 33.3916
154.747 1198 34.6121
154.864 1104 33.2265
154.981 1165 34.1321
155.098 1111 33.3317
155.215 1094 33.0757
155.332 1047 32.3574
155.449 1077 32.8177
155.566 1145 33.8378
155.683 1058 32.5269
155.8 1140 33.7639
155.917 1149 33.8969
156.033 1132 33.6452
156.15 0 1
156.267 0 1
156.383 0 1
156.5 0 1
156.617 0 1
156.733 0 1
156.85 0 1
156.966 0 1
157.082 0 1
157.199 0 1
157.315 0 1
157.431 0 1
157.547 0 1
157.664 0 1
157.78 0 1
157.896 0 1
158.012 0 1
158.128 0 1
158.244 0 1
158.359 0 1
158.475 0 1
158.591 0 1
158.706 0 1
