
6.15755 0 1
6.2731 0 1
6.3887 0 1
6.50437 0 1
6.62009 0 1
6.73587 0 1
6.8517 0 1
6.96759 0 1
7.08353 0 1
7.19952 0 1
7.31557 0 1
7.43166 0 1
7.54781 0 1
7.664 0 1
7.78024 0 1
7.89653 0 1
8.01286 0 1
8.12924 0 1
8.24567 0 1
8.36213 0 1
8.47864 0 1
8.59519 0 1
8.71178 0 1
8.82841 0 1
8.94508 0 1
9.06179 0 1
9.17853 0 1
9.29531 0 1
9.41212 0 1
9.52897 0 1
9.64584 0 1
9.76276 0 1
9.8797 0 1
9.99667 0 1
10.1137 0 1
10.2307 0 1
10.3478 0 1
10.4648 0 1
10.5819 0 1
10.6991 0 1
10.8162 0 1
10.9334 0 1
11.0506 0 1
11.1678 0 1
11.285 0 1
11.4023 0 1
11.5196 0 1
11.6369 0 1
11.7542 0 1
11.8715 0 1
11.9888 0 1
12.1062 0 1
12.2235 0 1
12.3409 0 1
12.4582 0 1
12.5756 0 1
12.693 0 1
12.8104 0 1
12.9278 0 1
13.0452 0 1
13.1626 0 1
13.28 0 1
13.3974 0 1
13.5149 0 1
13.6323 0 1
13.7497 0 1
13.8671 0 1
13.9845 0 1
14.1019 0 1
14.2193 0 1
14.3367 0 1
14.4541 0 1
14.5714 0 1
14.6888 0 1
14.8062 0 1
14.9235 0 1
15.0408 1573 39.6611
15.1581 1661 40.7554
15.2755 1658 40.7185
15.3927 1762 41.9762
15.51 1771 42.0833
15.6273 1613 40.1622
15.7445 1715 41.4126
15.8617 1660 40.7431
15.9789 1615 40.1871
16.0961 1588 39.8497
16.2132 1565 39.5601
16.3304 1517 38.9487
16.4475 1494 38.6523
16.5646 1397 37.3765
16.6816 1418 37.6563
16.7986 1341 36.6197
16.9156 1425 37.7492
17.0326 1362 36.9053
17.1496 1297 36.0139
17.2665 1298 36.0278
17.3833 1249 35.3412
17.5002 1289 35.9026
17.617 1332 36.4966
17.7338 1382 37.1753
17.8505 1382 37.1753
17.9672 1464 38.2623
18.0839 1517 38.9487
18.2005 1465 38.2753
18.3171 1525 39.0512
18.4337 1413 37.5899
18.5502 1516 38.9358
18.6666 1586 39.8246
18.7831 1586 39.8246
18.8994 1543 39.281
19.0158 1495 38.6652
19.1321 1446 38.0263
19.2483 1418 37.6563
19.3645 1280 35.7771
19.4806 1311 36.2077
19.5967 1262 35.5246
19.7128 1135 33.6898
19.8288 1059 32.5423
19.9447 921 30.348
20.0606 0 1
20.1764 0 1
20.2922 0 1
20.4079 0 1
20.5236 0 1
20.6392 0 1
20.7548 0 1
20.8702 0 1
23.3078 0 1
23.4233 0 1
23.539 0 1
23.6547 0 1
23.7704 0 1
23.8862 0 1
24.0021 0 1
24.118 0 1
24.234 0 1
24.35 0 1
24.4661 647 25.4362
24.5822 763 27.6225
24.6984 841 29
24.8146 925 30.4138
24.9309 1099 33.1512
25.0472 1176 34.2929
25.1636 1263 35.5387
25.28 1381 37.1618
25.3965 1457 38.1707
25.513 1489 38.5876
25.6296 1534 39.1663
25.7462 1526 39.064
25.8628 1568 39.598
25.9795 1559 39.4842
26.0962 1541 39.2556
26.213 1585 39.8121
26.3298 1493 38.6394
26.4466 1575 39.6863
26.5635 1608 40.0999
26.6804 1545 39.3065
26.7973 1610 40.1248
26.9143 1606 40.0749
27.0313 1597 39.9625
27.1483 1550 39.37
27.2653 1596 39.95
27.3824 1660 40.7431
27.4996 1670 40.8656
27.6167 1626 40.3237
27.7339 1548 39.3446
27.8511 1572 39.6485
27.9683 1617 40.2119
28.0855 1550 39.37
28.2028 1538 39.2173
28.3201 1548 39.3446
28.4374 1560 39.4968
28.5547 1581 39.7618
28.6721 1571 39.6358
28.7894 1600 40
28.9068 1590 39.8748
29.0242 1547 39.3319
29.1416 1556 39.4462
29.259 1597 39.9625
29.3764 1480 38.4708
29.4939 1422 37.7094
29.6113 1510 38.8587
29.7288 1433 37.855
29.8463 1524 39.0384
29.9638 1514 38.9102
30.0812 1545 39.3065
30.1987 1627 40.3361
30.3162 1560 39.4968
30.4337 1581 39.7618
30.5512 1531 39.128
30.6687 1543 39.281
30.7862 1638 40.4722
30.9037 1658 40.7185
31.0212 1731 41.6053
31.1387 1689 41.0974
31.2562 1634 40.4228
31.3737 1654 40.6694
31.4912 1619 40.2368
31.6087 1656 40.694
31.7262 1582 39.7744
31.8436 1553 39.4081
31.9611 1589 39.8623
32.0785 1580 39.7492
32.1959 1625 40.3113
32.3134 1619 40.2368
32.4308 1531 39.128
32.5482 1621 40.2616
32.6655 1526 39.064
32.7829 1563 39.5348
32.9002 1541 39.2556
33.0176 1528 39.0896
33.1349 1545 39.3065
33.2522 1544 39.2938
33.3694 1464 38.2623
33.4867 1539 39.2301
33.6039 1498 38.704
33.7211 1640 40.4969
33.8383 1539 39.2301
33.9554 1587 39.8372
34.0725 1620 40.2492
34.1896 1597 39.9625
34.3067 1560 39.4968
34.4237 1684 41.0366
34.5407 1651 40.6325
34.6577 1704 41.2795
34.7746 1671 40.8779
34.8915 1667 40.8289
35.0084 1627 40.3361
35.1252 1705 41.2916
35.242 1688 41.0853
35.3587 1647 40.5832
35.4755 1626 40.3237
35.5921 1620 40.2492
35.7088 1647 40.5832
35.8254 1516 38.9358
35.9419 1668 40.8412
36.0584 1541 39.2556
36.1749 1599 39.9875
36.2913 1558 39.4715
36.4077 1536 39.1918
36.524 1417 37.6431
36.6403 1331 36.4829
36.7565 1252 35.3836
36.8727 1117 33.4215
36.9889 1048 32.3728
37.1049 976 31.241
37.221 0 1
37.3369 0 1
37.4529 0 1
37.5687 0 1
37.6845 0 1
37.8003 0 1
37.916 0 1
38.0316 0 1
38.1472 0 1
40.5851 0 1
40.7008 0 1
40.8164 0 1
40.9322 0 1
41.048 0 1
41.1639 0 1
41.2798 0 1
41.3958 0 1
41.5118 0 1
41.6279 0 1
41.744 847 29.1033
41.8602 962 31.0161
41.9765 1116 33.4066
42.0928 1210 34.7851
42.2091 1238 35.1852
42.3255 1358 36.8511
42.4419 1367 36.973
42.5584 1414 37.6032
42.675 1568 39.598
42.7915 1466 38.2884
42.9081 1494 38.6523
43.0248 1477 38.4318
43.1415 1494 38.6523
43.2582 1546 39.3192
43.375 1585 39.8121
43.4918 1712 41.3763
43.6087 1688 41.0853
43.7256 1702 41.2553
43.8425 1722 41.497
43.9595 1795 42.3674
44.0765 1762 41.9762
44.1935 1828 42.7551
44.3106 1900 43.589
44.4277 1897 43.5546
44.5448 2043 45.1996
44.6619 1987 44.5758
44.7791 1959 44.2606
44.8963 1959 44.2606
45.0136 1984 44.5421
45.1308 2185 46.744
45.2481 2087 45.6837
45.3654 2123 46.076
45.4827 2144 46.3033
45.6001 2188 46.7761
45.7174 2284 47.7912
45.8348 2300 47.9583
45.9522 2325 48.2183
46.0697 2397 48.9592
46.1871 2340 48.3735
46.3046 2307 48.0312
46.422 2322 48.1871
46.5395 2251 47.4447
46.657 2274 47.6865
46.7745 2467 49.6689
46.892 2675 51.7204
47.0096 2711 52.0673
47.1271 2940 54.2218
47.2446 2795 52.8678
47.3622 2834 53.2353
47.4797 2798 52.8961
47.5973 2895 53.8052
47.7149 2808 52.9906
47.8324 2727 52.2207
47.95 2715 52.1057
48.0675 2792 52.8394
48.1851 2708 52.0384
48.3027 2701 51.9711
48.4202 2613 51.1175
48.5378 2629 51.2738
48.6554 2518 50.1797
48.7729 2471 49.7092
48.8904 2534 50.3389
49.008 2387 48.8569
49.1255 2355 48.5283
49.243 2268 47.6235
49.3605 2280 47.7493
49.478 2178 46.669
49.5955 2180 46.6905
49.713 2087 45.6837
49.8304 1977 44.4635
49.9479 1965 44.3283
50.0653 1914 43.7493
50.1827 1858 43.1045
50.3001 1966 44.3396
50.4175 1919 43.8064
50.5348 2027 45.0222
50.6521 2007 44.7996
50.7694 2106 45.8912
50.8867 2023 44.9778
51.004 2031 45.0666
51.1212 2019 44.9333
51.2384 2058 45.3652
51.3556 2000 44.7214
51.4727 2016 44.8999
51.5899 1954 44.2041
51.707 1980 44.4972
51.824 1892 43.4971
51.9411 1843 42.9302
52.0581 1870 43.2435
52.175 1842 42.9185
52.2919 1771 42.0833
52.4088 1718 41.4488
52.5257 1786 42.2611
52.6425 1692 41.1339
52.7593 1708 41.328
52.876 1736 41.6653
52.9927 1725 41.5331
53.1094 1710 41.3521
53.226 1636 40.4475
53.3426 1543 39.281
53.4591 1595 39.9375
53.5756 1478 38.4448
53.692 1500 38.7298
53.8084 1368 36.9865
53.9248 1288 35.8887
54.0411 1215 34.8569
54.1573 1158 34.0294
54.2735 0 1
54.3896 0 1
54.5057 0 1
54.6217 0 1
54.7377 0 1
54.8537 0 1
54.9695 0 1
55.0853 0 1
55.2011 0 1
55.3168 0 1
55.4324 0 1
57.824 0 1
57.9396 0 1
58.0553 0 1
58.1711 0 1
58.2869 0 1
58.4028 0 1
58.5187 0 1
58.6347 0 1
58.7508 0 1
58.8669 0 1
58.983 1494 38.6523
59.0992 1676 40.939
59.2155 1888 43.4511
59.3318 2004 44.7661
59.4482 2170 46.5833
59.5646 2380 48.7852
59.681 2538 50.3786
59.7975 2598 50.9706
59.9141 2567 50.6656
60.0306 2551 50.5074
60.1473 2515 50.1498
60.2639 2441 49.4065
60.3807 2482 49.8197
60.4974 2481 49.8096
60.6142 2475 49.7494
60.731 2435 49.3457
60.8479 2506 50.06
60.9648 2446 49.4571
61.0818 2355 48.5283
61.1987 2471 49.7092
61.3158 2459 49.5883
61.4328 2397 48.9592
61.5499 2423 49.224
61.667 2387 48.8569
61.7841 2430 49.295
61.9013 2329 48.2597
62.0185 2311 48.0729
62.1357 2391 48.8979
62.253 2351 48.4871
62.3702 2426 49.2544
62.4875 2619 51.1762
62.6049 2735 52.2972
62.7222 2782 52.7447
62.8396 2827 53.1695
62.9569 2943 54.2494
63.0743 2940 54.2218
63.1918 2908 53.9259
63.3092 2918 54.0185
63.4267 2893 53.7866
63.5441 2905 53.8981
63.6616 2853 53.4135
63.7791 2673 51.7011
63.8966 2672 51.6914
64.0142 2682 51.788
64.1317 2613 51.1175
64.2492 2581 50.8035
64.3668 2465 49.6488
64.4843 2409 49.0816
64.6019 2415 49.1426
64.7195 2443 49.4267
64.837 2351 48.4871
64.9546 2440 49.3964
65.0722 2487 49.8698
65.1898 2545 50.448
65.3074 2344 48.4149
65.4249 2354 48.518
65.5425 2306 48.0208
65.6601 2363 48.6107
65.7777 2448 49.4773
65.8952 2556 50.5569
66.0128 2707 52.0288
66.1304 2757 52.5071
66.2479 2880 53.6656
66.3655 2975 54.5436
66.483 2969 54.4885
66.6005 3054 55.263
66.718 3036 55.0999
66.8355 3131 55.9553
66.953 3012 54.8817
67.0705 2961 54.4151
67.1879 2881 53.6749
67.3054 2815 53.0566
67.4228 2684 51.8073
67.5402 2717 52.1249
67.6576 2687 51.8363
67.7749 2539 50.3885
67.8923 2540 50.3984
68.0096 2527 50.2693
68.1269 2541 50.4083
68.2442 2475 49.7494
68.3614 2672 51.6914
68.4787 2577 50.7642
68.5958 2532 50.319
68.713 2522 50.2195
68.8302 2572 50.7149
68.9473 2547 50.4678
69.0643 2381 48.7955
69.1814 2357 48.5489
69.2984 2324 48.2079
69.4154 2324 48.2079
69.5323 2557 50.5668
69.6492 2518 50.1797
69.7661 2622 51.2055
69.8829 2726 52.2111
69.9997 2647 51.449
70.1165 2643 51.4101
70.2332 2707 52.0288
70.3499 2527 50.2693
70.4665 2504 50.04
70.5831 2224 47.1593
70.6996 2034 45.0999
70.8161 1963 44.3058
70.9326 1747 41.7971
71.049 1497 38.6911
71.1653 1397 37.3765
71.2817 1352 36.7696
71.3979 1337 36.565
71.5141 1254 35.4119
71.6303 1128 33.5857
71.7464 1033 32.1403
71.8624 0 1
71.9784 0 1
72.0944 0 1
72.2102 0 1
72.3261 0 1
72.4418 0 1
72.5575 0 1
72.6732 0 1
75.1054 0 1
75.2209 0 1
75.3365 0 1
75.4521 0 1
75.5678 0 1
75.6835 0 1
75.7993 0 1
75.9151 0 1
76.031 0 1
76.147 2033 45.0888
76.263 2268 47.6235
76.3791 2311 48.0729
76.4952 2222 47.1381
76.6113 2338 48.3529
76.7276 2370 48.6826
76.8438 2414 49.1325
76.9601 2392 48.9081
77.0765 2542 50.4183
77.1929 2481 49.8096
77.3093 2504 50.04
77.4258 2534 50.3389
77.5423 2602 51.0098
77.6589 2641 51.3907
77.7755 2633 51.3128
77.8921 2473 49.7293
78.0088 2454 49.5379
78.1256 2346 48.4355
78.2423 2303 47.9896
78.3591 2268 47.6235
78.4759 2426 49.2544
78.5928 2581 50.8035
78.7097 2812 53.0283
78.8266 2914 53.9815
78.9436 2987 54.6535
79.0606 3073 55.4346
79.1776 3041 55.1453
79.2946 3138 56.0179
79.4117 3138 56.0179
79.5288 3232 56.8507
79.6459 3189 56.4712
79.7631 3082 55.5158
79.8802 2916 54
79.9974 2881 53.6749
80.1147 2810 53.0094
80.2319 2800 52.915
80.3491 2754 52.4786
80.4664 2829 53.1883
80.5837 2888 53.7401
80.701 2791 52.8299
80.8183 2787 52.792
80.9357 2729 52.2398
81.053 2850 53.3854
81.1704 2902 53.8702
81.2877 2842 53.3104
81.4051 2793 52.8488
81.5225 2827 53.1695
81.6399 2859 53.4696
81.7573 2595 50.9411
81.8747 2603 51.0196
81.9922 2531 50.309
82.1096 2563 50.6261
82.227 2754 52.4786
82.3444 2971 54.5069
82.4619 3107 55.7405
82.5793 3243 56.9473
82.6967 3149 56.116
82.8142 3348 57.8619
82.9316 3500 59.1608
83.049 3633 60.2744
83.1664 3537 59.4727
83.2838 3472 58.9237
83.4012 3315 57.576
83.5186 3136 56
83.636 3184 56.4269
83.7534 3100 55.6776
83.8708 3031 55.0545
83.9881 3147 56.0981
84.1055 3168 56.285
84.2228 3105 55.7225
84.3401 3128 55.9285
84.4575 3101 55.6866
84.5747 3237 56.8946
84.692 3360 57.9655
84.8093 3311 57.5413
84.9265 3308 57.5152
85.0437 3178 56.3738
85.1609 3193 56.5066
85.2781 3099 55.6687
85.3952 2796 52.8772
85.5123 2778 52.7067
85.6294 2756 52.4976
85.7465 2952 54.3323
85.8636 3113 55.7943
85.9806 3274 57.2189
86.0976 3435 58.6089
86.2145 3583 59.8582
86.3315 3627 60.2246
86.4484 3757 61.2944
86.5652 3744 61.1882
86.682 3715 60.9508
86.7988 3836 61.9355
86.9156 3711 60.918
87.0323 3621 60.1747
87.149 3521 59.338
87.2657 3345 57.836
87.3823 3297 57.4195
87.4988 3210 56.6569
87.6154 2976 54.5527
87.7318 2996 54.7357
87.8483 2743 52.3737
87.9647 2671 51.6817
88.081 2518 50.1797
88.1973 2359 48.5695
88.3136 2210 47.0106
88.4298 2139 46.2493
88.546 1900 43.589
88.6621 1742 41.7373
88.7781 1484 38.5227
88.8942 0 1
89.0101 0 1
89.126 0 1
89.2419 0 1
89.3577 0 1
89.4734 0 1
89.5891 0 1
89.7047 0 1
89.8203 0 1
89.9358 0 1
92.3269 0 1
92.4424 0 1
92.558 0 1
92.6736 0 1
92.7893 0 1
92.905 0 1
93.0208 0 1
93.1366 0 1
93.2525 0 1
93.3685 0 1
93.4845 0 1
93.6005 2966 54.461
93.7167 3269 57.1752
93.8328 3469 58.8982
93.949 3679 60.6548
94.0653 3735 61.1146
94.1816 3845 62.0081
94.2979 3781 61.4898
94.4143 3644 60.3656
94.5307 3449 58.7282
94.6472 3265 57.1402
94.7637 3241 56.9298
94.8803 3415 58.438
94.9969 3637 60.3075
95.1135 3845 62.0081
95.2302 3974 63.0397
95.3469 4223 64.9846
95.4637 4301 65.582
95.5805 4301 65.582
95.6973 4547 67.4314
95.8142 4389 66.2495
95.9311 4377 66.1589
96.048 4409 66.4003
96.1649 4476 66.9029
96.2819 4312 65.6658
96.3989 4123 64.2106
96.516 4040 63.561
96.633 4025 63.4429
96.7501 4073 63.8201
96.8673 4136 64.3117
96.9844 4047 63.616
97.1016 4061 63.726
97.2188 4028 63.4665
97.336 4127 64.2417
97.4532 4280 65.4217
97.5704 4329 65.7951
97.6877 4354 65.9848
97.805 4359 66.0227
97.9223 4312 65.6658
98.0396 3949 62.8411
98.1569 3842 61.9839
98.2743 3525 59.3717
98.3916 3415 58.438
98.509 3380 58.1378
98.6264 3578 59.8164
98.7438 4125 64.2262
98.8612 4263 65.2917
98.9786 4468 66.8431
99.096 4540 67.3795
99.2134 4640 68.1175
99.3308 4774 69.0941
99.4482 4691 68.4909
99.5656 4870 69.7854
99.6831 4918 70.1285
99.8005 4910 70.0714
99.9179 4645 68.1542
100.035 4443 66.6558
100.153 4531 67.3127
100.27 4354 65.9848
100.388 4454 66.7383
100.505 4305 65.6125
100.622 4354 65.9848
100.74 4186 64.6993
100.857 4340 65.8787
100.975 4385 66.2193
101.092 4567 67.5796
101.209 4617 67.9485
101.327 4845 69.606
101.444 4607 67.8749
101.561 4471 66.8655
101.679 4207 64.8614
101.796 3846 62.0161
101.913 3758 61.3025
102.03 3731 61.0819
102.148 3962 62.9444
102.265 4094 63.9844
102.382 4417 66.4605
102.499 4827 69.4766
102.616 5005 70.746
102.733 5054 71.0915
102.851 5079 71.2671
102.968 5173 71.9236
103.085 5214 72.208
103.202 5285 72.698
103.319 5107 71.4633
103.436 4898 69.9857
103.552 4877 69.8355
103.669 4837 69.5485
103.786 4725 68.7386
103.903 4633 68.0661
104.02 4547 67.4314
104.137 4596 67.7938
104.253 4508 67.1416
104.37 4713 68.6513
104.487 4588 67.7348
104.603 4589 67.7422
104.72 4687 68.4617
104.836 4497 67.0597
104.953 4099 64.0234
105.069 3787 61.5386
105.186 3411 58.4038
105.302 3118 55.8391
105.418 2842 53.3104
105.535 2546 50.4579
105.651 2356 48.5386
105.767 2305 48.0104
105.883 2305 48.0104
105.999 2211 47.0213
106.115 0 1
106.231 0 1
106.347 0 1
106.463 0 1
106.579 0 1
106.694 0 1
106.81 0 1
106.926 0 1
107.041 0 1
107.157 0 1
109.576 0 1
109.692 0 1
109.807 0 1
109.923 0 1
110.039 0 1
110.155 0 1
110.27 0 1
110.386 0 1
110.502 0 1
110.618 2060 45.3872
110.735 2518 50.1797
110.851 2853 53.4135
110.967 3268 57.1664
111.083 3702 60.8441
111.199 3988 63.1506
111.316 4206 64.8537
111.432 4157 64.4748
111.549 4307 65.6277
111.665 4212 64.8999
111.782 4275 65.3835
111.898 4322 65.7419
112.015 4080 63.8749
112.132 4078 63.8592
112.248 3950 62.849
112.365 3860 62.1289
112.482 3747 61.2127
112.599 3928 62.6738
112.716 3787 61.5386
112.832 3748 61.2209
112.949 3806 61.6928
113.066 3799 61.636
113.183 3868 62.1932
113.3 3885 62.3298
113.417 3824 61.8385
113.534 3916 62.578
113.652 3612 60.0999
113.769 3455 58.7792
113.886 3228 56.8155
114.003 3073 55.4346
114.12 3008 54.8452
114.238 3204 56.6039
114.355 3412 58.4123
114.472 3438 58.6345
114.589 4025 63.4429
114.707 4041 63.5689
114.824 4119 64.1794
114.942 4135 64.304
115.059 4247 65.169
115.176 4197 64.7843
115.294 4094 63.9844
115.411 4140 64.3428
115.529 3990 63.1664
115.646 4119 64.1794
115.764 3828 61.8708
115.881 3789 61.5549
115.999 3665 60.5392
116.116 3552 59.5987
116.234 3569 59.7411
116.351 3578 59.8164
116.469 3584 59.8665
116.586 3556 59.6322
116.704 3604 60.0333
116.821 3718 60.9754
116.939 3879 62.2816
117.056 3748 61.2209
117.174 3666 60.5475
117.291 3538 59.4811
117.409 3362 57.9828
117.526 3206 56.6216
117.644 3065 55.3624
117.761 3072 55.4256
117.879 3235 56.8771
117.996 3465 58.8643
118.114 3657 60.4731
118.231 4152 64.436
118.349 4211 64.8922
118.466 4149 64.4127
118.584 4159 64.4903
118.701 4175 64.6142
118.819 4184 64.6838
118.936 4013 63.3482
119.053 3960 62.9285
119.171 4025 63.4429
119.288 3854 62.0806
119.405 3829 61.8789
119.523 3720 60.9918
119.64 3588 59.8999
119.757 3584 59.8665
119.875 3646 60.3821
119.992 3668 60.564
120.109 3544 59.5315
120.226 3483 59.0169
120.343 3694 60.7783
120.46 3662 60.5145
120.578 3675 60.6218
120.695 3647 60.3904
120.812 3671 60.5888
120.929 3426 58.532
121.046 3261 57.1052
121.163 2977 54.5619
121.279 2857 53.4509
121.396 2814 53.0471
121.513 2760 52.5357
121.63 2838 53.2729
121.747 2995 54.7266
121.863 3072 55.4256
121.98 3144 56.0714
122.097 3215 56.701
122.213 2991 54.69
122.33 2931 54.1387
122.446 2703 51.9904
122.563 2615 51.1371
122.679 2382 48.8057
122.795 2293 47.8853
122.912 2116 46
123.028 1915 43.7607
123.144 1874 43.2897
123.26 1727 41.5572
123.377 0 1
123.493 0 1
123.609 0 1
123.725 0 1
123.84 0 1
123.956 0 1
124.072 0 1
124.188 0 1
124.303 0 1
124.419 0 1
126.852 0 1
126.968 0 1
127.083 0 1
127.199 0 1
127.315 0 1
127.431 0 1
127.547 0 1
127.663 0 1
127.779 0 1
127.895 0 1
128.011 0 1
128.127 0 1
128.243 0 1
128.359 3770 61.4003
128.476 3929 62.6817
128.592 4087 63.9296
128.708 3989 63.1585
128.825 3808 61.709
128.941 3850 62.0484
129.058 3793 61.5873
129.174 3695 60.7865
129.291 3729 61.0655
129.408 3812 61.7414
129.524 3857 62.1048
129.641 3789 61.5549
129.758 3782 61.498
129.875 3907 62.506
129.992 3666 60.5475
130.108 3605 60.0417
130.225 3383 58.1636
130.342 3248 56.9912
130.459 3096 55.6417
130.576 3082 55.5158
130.693 3154 56.1605
130.81 3507 59.2199
130.928 3779 61.4736
131.045 3881 62.2977
131.162 3986 63.1348
131.279 4140 64.3428
131.396 3890 62.3699
131.513 3984 63.1189
131.631 3903 62.474
131.748 3894 62.4019
131.865 3795 61.6036
131.983 3913 62.554
132.1 3691 60.7536
132.217 3739 61.1474
132.335 3656 60.4649
132.452 3671 60.5888
132.57 3593 59.9416
132.687 3521 59.338
132.804 3482 59.0085
132.922 3520 59.3296
133.039 3456 58.7878
133.157 3514 59.279
133.274 3451 58.7452
133.392 3479 58.983
133.509 3423 58.5064
133.627 3391 58.2323
133.744 3351 57.8878
133.862 3116 55.8211
133.979 2896 53.8145
134.097 2909 53.9351
134.214 2993 54.7083
134.332 3090 55.5878
134.449 3394 58.258
134.567 3475 58.9491
134.684 3675 60.6218
134.802 3692 60.7618
134.919 3679 60.6548
135.037 3683 60.6877
135.154 3582 59.8498
135.272 3579 59.8247
135.389 3648 60.3987
135.507 3610 60.0833
135.624 3666 60.5475
135.742 3550 59.5819
135.859 3560 59.6657
135.977 3495 59.1185
136.094 3493 59.1016
136.211 3512 59.2621
136.329 3390 58.2237
136.446 3393 58.2495
136.564 3384 58.1722
136.681 3439 58.643
136.798 3444 58.6856
136.915 3523 59.3549
137.033 3434 58.6003
137.15 3423 58.5064
137.267 3245 56.9649
137.384 3217 56.7186
137.502 3076 55.4617
137.619 2977 54.5619
137.736 2873 53.6004
137.853 2845 53.3385
137.97 3111 55.7763
138.087 3272 57.2014
138.204 3440 58.6515
138.321 3367 58.0259
138.438 3491 59.0847
138.555 3603 60.025
138.672 3470 58.9067
138.788 3362 57.9828
138.905 3240 56.921
139.022 3086 55.5518
139.139 2998 54.754
139.255 2888 53.7401
139.372 2721 52.1632
139.488 2639 51.3712
139.605 2357 48.5489
139.721 2199 46.8935
139.838 2095 45.7712
139.954 1993 44.643
140.071 1929 43.9204
140.187 1790 42.3084
140.303 1697 41.1947
140.419 1697 41.1947
140.535 1496 38.6782
140.652 1425 37.7492
140.768 0 1
140.884 0 1
141 0 1
141.115 0 1
141.231 0 1
141.347 0 1
141.463 0 1
141.578 0 1
141.694 0 1
144.104 0 1
144.219 0 1
144.335 0 1
144.45 0 1
144.566 0 1
144.682 0 1
144.798 0 1
144.914 0 1
145.03 0 1
145.146 2494 49.94
145.262 2673 51.7011
145.378 2614 51.1273
145.494 2554 50.5371
145.61 2678 51.7494
145.726 2735 52.2972
145.842 2713 52.0865
145.959 2719 52.144
146.075 2602 51.0098
146.192 2615 51.1371
146.308 2468 49.679
146.425 2337 48.3425
146.541 2335 48.3218
146.658 2341 48.3839
146.774 2363 48.6107
146.891 2455 49.548
147.008 2626 51.2445
147.125 2695 51.9134
147.241 2817 53.0754
147.358 2727 52.2207
147.475 2797 52.8867
147.592 2799 52.9056
147.709 2787 52.792
147.826 2837 53.2635
147.943 2654 51.517
148.06 2687 51.8363
148.177 2737 52.3163
148.294 2728 52.2303
148.411 2734 52.2877
148.528 2793 52.8488
148.645 2710 52.0577
148.762 2784 52.7636
148.88 2733 52.2781
148.997 2628 51.264
149.114 2620 51.1859
149.231 2550 50.4975
149.349 2681 51.7784
149.466 2664 51.614
149.583 2713 52.0865
149.701 2561 50.6063
149.818 2628 51.264
149.935 2469 49.689
150.053 2461 49.6085
150.17 2398 48.9694
150.287 2284 47.7912
150.405 2337 48.3425
150.522 2458 49.5782
150.64 2550 50.4975
150.757 2729 52.2398
150.875 2757 52.5071
150.992 2804 52.9528
151.11 2806 52.9717
151.227 2765 52.5833
151.344 2766 52.5928
151.462 2725 52.2015
151.579 2752 52.4595
151.697 2689 51.8556
151.814 2810 53.0094
151.932 2842 53.3104
152.049 2767 52.6023
152.167 2797 52.8867
152.284 2718 52.1344
152.402 2709 52.0481
152.519 2688 51.8459
152.636 2668 51.6527
152.754 2569 50.6853
152.871 2540 50.3984
152.989 2645 51.4296
153.106 2652 51.4976
153.223 2591 50.9019
153.341 2548 50.4777
153.458 2564 50.636
153.575 2436 49.3559
153.693 2345 48.4252
153.81 2336 48.3322
153.927 2352 48.4974
154.044 2263 47.571
154.162 2414 49.1325
154.279 2519 50.1896
154.396 2733 52.2781
154.513 2707 52.0288
154.63 2826 53.1601
154.747 2698 51.9423
154.864 2767 52.6023
154.981 2683 51.7977
155.098 2626 51.2445
155.215 2709 52.0481
155.332 2620 51.1859
155.449 2692 51.8845
155.566 2630 51.2835
155.683 2555 50.547
155.8 2410 49.0918
155.917 2407 49.0612
156.033 2359 48.5695
156.15 0 1
156.267 0 1
156.383 0 1
156.5 0 1
156.617 0 1
156.733 0 1
156.85 0 1
156.966 0 1
157.082 0 1
157.199 0 1
157.315 0 1
157.431 0 1
157.547 0 1
157.664 0 1
157.78 0 1
157.896 0 1
158.012 0 1
158.128 0 1
158.244 0 1
158.359 0 1
158.475 0 1
158.591 0 1
158.706 0 1
