
6.15755 0 1
6.2731 0 1
6.3887 0 1
6.50437 0 1
6.62009 0 1
6.73587 0 1
6.8517 0 1
6.96759 0 1
7.08353 0 1
7.19952 0 1
7.31557 0 1
7.43166 0 1
7.54781 0 1
7.664 0 1
7.78024 0 1
7.89653 0 1
8.01286 0 1
8.12924 0 1
8.24567 0 1
8.36213 0 1
8.47864 0 1
8.59519 0 1
8.71178 0 1
8.82841 0 1
8.94508 0 1
9.06179 0 1
9.17853 0 1
9.29531 0 1
9.41212 0 1
9.52897 0 1
9.64584 0 1
9.76276 0 1
9.8797 0 1
9.99667 0 1
10.1137 0 1
10.2307 0 1
10.3478 0 1
10.4648 0 1
10.5819 0 1
10.6991 0 1
10.8162 0 1
10.9334 0 1
11.0506 0 1
11.1678 0 1
11.285 0 1
11.4023 0 1
11.5196 0 1
11.6369 0 1
11.7542 0 1
11.8715 0 1
11.9888 0 1
12.1062 0 1
12.2235 0 1
12.3409 0 1
12.4582 0 1
12.5756 0 1
12.693 0 1
12.8104 0 1
12.9278 0 1
13.0452 0 1
13.1626 0 1
13.28 0 1
13.3974 0 1
13.5149 0 1
13.6323 0 1
13.7497 0 1
13.8671 0 1
13.9845 0 1
14.1019 0 1
14.2193 0 1
14.3367 0 1
14.4541 0 1
14.5714 0 1
14.6888 0 1
14.8062 0 1
14.9235 0 1
15.0408 0 0
15.1581 0 0
15.2755 0 0
15.3927 0 0
15.51 0 0
15.6273 0 0
15.7445 0 0
15.8617 0 0
15.9789 0 0
16.0961 0 0
16.2132 0 0
16.3304 0 0
16.4475 0 0
16.5646 0 0
16.6816 0 0
16.7986 0 0
16.9156 0 0
17.0326 0 0
17.1496 0 0
17.2665 0 0
17.3833 0 0
17.5002 0 0
17.617 0 0
17.7338 0 0
17.8505 0 0
17.9672 0 0
18.0839 0 0
18.2005 0 0
18.3171 0 0
18.4337 0 0
18.5502 0 0
18.6666 0 0
18.7831 0 0
18.8994 0 0
19.0158 0 0
19.1321 0 0
19.2483 0 0
19.3645 0 0
19.4806 0 0
19.5967 0 0
19.7128 0 0
19.8288 0 0
19.9447 0 0
20.0606 0 1
20.1764 0 1
20.2922 0 1
20.4079 0 1
20.5236 0 1
20.6392 0 1
20.7548 0 1
20.8702 0 1
23.3078 0 1
23.4233 0 1
23.539 0 1
23.6547 0 1
23.7704 0 1
23.8862 0 1
24.0021 0 1
24.118 0 1
24.234 0 1
24.35 0 1
24.4661 1699 41.2189
24.5822 1760 41.9524
24.6984 1696 41.1825
24.8146 1805 42.4853
24.9309 1743 41.7493
25.0472 1719 41.4608
25.1636 1553 39.4081
25.28 1478 38.4448
25.3965 1517 38.9487
25.513 1643 40.5339
25.6296 1714 41.4005
25.7462 1863 43.1625
25.8628 1893 43.5086
25.9795 1883 43.3935
26.0962 1947 44.1248
26.213 1846 42.9651
26.3298 1839 42.8836
26.4466 1926 43.8862
26.5635 1922 43.8406
26.6804 1881 43.3705
26.7973 1715 41.4126
26.9143 1850 43.0116
27.0313 1844 42.9418
27.1483 1826 42.7317
27.2653 1917 43.7836
27.3824 1895 43.5316
27.4996 1918 43.795
27.6167 1930 43.9318
27.7339 1846 42.9651
27.8511 1905 43.6463
27.9683 1754 41.8808
28.0855 1867 43.2088
28.2028 1808 42.5206
28.3201 1887 43.4396
28.4374 1695 41.1704
28.5547 1681 41
28.6721 1514 38.9102
28.7894 1504 38.7814
28.9068 1537 39.2046
29.0242 1549 39.3573
29.1416 1632 40.398
29.259 1672 40.8901
29.3764 1849 43
29.4939 1834 42.8252
29.6113 1865 43.1856
29.7288 1899 43.5775
29.8463 1882 43.382
29.9638 1792 42.332
30.0812 1740 41.7133
30.1987 1727 41.5572
30.3162 1666 40.8167
30.4337 1720 41.4729
30.5512 1666 40.8167
30.6687 1820 42.6615
30.7862 1815 42.6028
30.9037 1932 43.9545
31.0212 1873 43.2782
31.1387 1982 44.5197
31.2562 1927 43.8976
31.3737 1885 43.4166
31.4912 1949 44.1475
31.6087 1848 42.9884
31.7262 1784 42.2374
31.8436 1808 42.5206
31.9611 1874 43.2897
32.0785 1676 40.939
32.1959 1496 38.6782
32.3134 1508 38.833
32.4308 1531 39.128
32.5482 1558 39.4715
32.6655 1674 40.9145
32.7829 1713 41.3884
32.9002 1824 42.7083
33.0176 1765 42.0119
33.1349 1750 41.833
33.2522 1932 43.9545
33.3694 1842 42.9185
33.4867 1846 42.9651
33.6039 1752 41.8569
33.7211 1729 41.5812
33.8383 1646 40.5709
33.9554 1695 41.1704
34.0725 1714 41.4005
34.1896 1794 42.3556
34.3067 1758 41.9285
34.4237 1764 42
34.5407 1857 43.0929
34.6577 1891 43.4856
34.7746 1934 43.9773
34.8915 1879 43.3474
35.0084 1847 42.9767
35.1252 1891 43.4856
35.242 1865 43.1856
35.3587 1845 42.9535
35.4755 1885 43.4166
35.5921 1732 41.6173
35.7088 1690 41.1096
35.8254 1591 39.8873
35.9419 1514 38.9102
36.0584 1485 38.5357
36.1749 1467 38.3014
36.2913 1540 39.2428
36.4077 1463 38.2492
36.524 1753 41.8688
36.6403 1756 41.9047
36.7565 1817 42.6263
36.8727 1752 41.8569
36.9889 1770 42.0714
37.1049 1804 42.4735
37.221 0 1
37.3369 0 1
37.4529 0 1
37.5687 0 1
37.6845 0 1
37.8003 0 1
37.916 0 1
38.0316 0 1
38.1472 0 1
40.5851 0 1
40.7008 0 1
40.8164 0 1
40.9322 0 1
41.048 0 1
41.1639 0 1
41.2798 0 1
41.3958 0 1
41.5118 0 1
41.6279 0 1
41.744 1359 36.8646
41.8602 1430 37.8153
41.9765 1428 37.7889
42.0928 1533 39.1535
42.2091 1560 39.4968
42.3255 1469 38.3275
42.4419 1489 38.5876
42.5584 1345 36.6742
42.675 1302 36.0832
42.7915 1236 35.1568
42.9081 1307 36.1525
43.0248 1346 36.6879
43.1415 1413 37.5899
43.2582 1461 38.223
43.375 1453 38.1182
43.4918 1547 39.3319
43.6087 1550 39.37
43.7256 1531 39.128
43.8425 1509 38.8458
43.9595 1454 38.1314
44.0765 1415 37.6165
44.1935 1479 38.4578
44.3106 1375 37.081
44.4277 1358 36.8511
44.5448 1217 34.8855
44.6619 1161 34.0735
44.7791 1109 33.3017
44.8963 1142 33.7935
45.0136 1096 33.1059
45.1308 1183 34.3948
45.2481 1205 34.7131
45.3654 1208 34.7563
45.4827 1216 34.8712
45.6001 1271 35.6511
45.7174 1248 35.327
45.8348 1241 35.2278
45.9522 1112 33.3467
46.0697 1005 31.7017
46.1871 929 30.4795
46.3046 913 30.2159
46.422 940 30.6594
46.5395 1050 32.4037
46.657 1111 33.3317
46.7745 1041 32.2645
46.892 1117 33.4215
47.0096 1166 34.1467
47.1271 1149 33.8969
47.2446 1193 34.5398
47.3622 1137 33.7194
47.4797 1122 33.4963
47.5973 1181 34.3657
47.7149 1123 33.5112
47.8324 1065 32.6343
47.95 1027 32.0468
48.0675 967 31.0966
48.1851 917 30.282
48.3027 868 29.4618
48.4202 877 29.6142
48.5378 865 29.4109
48.6554 880 29.6648
48.7729 992 31.496
48.8904 1026 32.0312
49.008 1071 32.7261
49.1255 1027 32.0468
49.243 1030 32.0936
49.3605 1039 32.2335
49.478 920 30.3315
49.5955 868 29.4618
49.713 809 28.4429
49.8304 759 27.55
49.9479 792 28.1425
50.0653 863 29.3769
50.1827 923 30.3809
50.3001 989 31.4484
50.4175 1084 32.9242
50.5348 1045 32.3265
50.6521 1124 33.5261
50.7694 1181 34.3657
50.8867 1133 33.6601
51.004 1123 33.5112
51.1212 1161 34.0735
51.2384 1192 34.5254
51.3556 1204 34.6987
51.4727 1248 35.327
51.5899 1170 34.2053
51.707 1039 32.2335
51.824 1053 32.45
51.9411 1078 32.8329
52.0581 1183 34.3948
52.175 1185 34.4238
52.2919 1330 36.4692
52.4088 1225 35
52.5257 1377 37.108
52.6425 1372 37.0405
52.7593 1382 37.1753
52.876 1465 38.2753
52.9927 1326 36.4143
53.1094 1275 35.7071
53.226 1231 35.0856
53.3426 1169 34.1906
53.4591 1085 32.9393
53.5756 1166 34.1467
53.692 1310 36.1939
53.8084 1397 37.3765
53.9248 1459 38.1969
54.0411 1526 39.064
54.1573 1506 38.8072
54.2735 0 1
54.3896 0 1
54.5057 0 1
54.6217 0 1
54.7377 0 1
54.8537 0 1
54.9695 0 1
55.0853 0 1
55.2011 0 1
55.3168 0 1
55.4324 0 1
57.824 0 1
57.9396 0 1
58.0553 0 1
58.1711 0 1
58.2869 0 1
58.4028 0 1
58.5187 0 1
58.6347 0 1
58.7508 0 1
58.8669 0 1
58.983 1531 39.128
59.0992 1676 40.939
59.2155 1746 41.7852
59.3318 1745 41.7732
59.4482 1760 41.9524
59.5646 1829 42.7668
59.681 1834 42.8252
59.7975 1864 43.1741
59.9141 1654 40.6694
60.0306 1702 41.2553
60.1473 1609 40.1123
60.2639 1511 38.8716
60.3807 1397 37.3765
60.4974 1476 38.4187
60.6142 1513 38.8973
60.731 1550 39.37
60.8479 1545 39.3065
60.9648 1551 39.3827
61.0818 1630 40.3733
61.1987 1633 40.4104
61.3158 1703 41.2674
61.4328 1641 40.5093
61.5499 1552 39.3954
61.667 1382 37.1753
61.7841 1374 37.0675
61.9013 1330 36.4692
62.0185 1315 36.2629
62.1357 1394 37.3363
62.253 1521 39
62.3702 1652 40.6448
62.4875 1726 41.5452
62.6049 1873 43.2782
62.7222 1863 43.1625
62.8396 1872 43.2666
62.9569 1889 43.4626
63.0743 1936 44
63.1918 1804 42.4735
63.3092 1910 43.7035
63.4267 1848 42.9884
63.5441 1772 42.0951
63.6616 1656 40.694
63.7791 1642 40.5216
63.8966 1511 38.8716
64.0142 1593 39.9124
64.1317 1656 40.694
64.2492 1727 41.5572
64.3668 1746 41.7852
64.4843 1762 41.9762
64.6019 1791 42.3202
64.7195 1855 43.0697
64.837 1784 42.2374
64.9546 1716 41.4246
65.0722 1730 41.5933
65.1898 1534 39.1663
65.3074 1421 37.6962
65.4249 1359 36.8646
65.5425 1202 34.6699
65.6601 1347 36.7015
65.7777 1427 37.7757
65.8952 1517 38.9487
66.0128 1656 40.694
66.1304 1795 42.3674
66.2479 1835 42.8369
66.3655 1896 43.5431
66.483 1805 42.4853
66.6005 1839 42.8836
66.718 1878 43.3359
66.8355 1740 41.7133
66.953 1727 41.5572
67.0705 1714 41.4005
67.1879 1570 39.6232
67.3054 1524 39.0384
67.4228 1483 38.5097
67.5402 1374 37.0675
67.6576 1424 37.7359
67.7749 1425 37.7492
67.8923 1446 38.0263
68.0096 1523 39.0256
68.1269 1496 38.6782
68.2442 1465 38.2753
68.3614 1575 39.6863
68.4787 1482 38.4968
68.5958 1461 38.223
68.713 1345 36.6742
68.8302 1262 35.5246
68.9473 1215 34.8569
69.0643 1129 33.6006
69.1814 1064 32.619
69.2984 1136 33.7046
69.4154 1233 35.1141
69.5323 1362 36.9053
69.6492 1486 38.5487
69.7661 1621 40.2616
69.8829 1684 41.0366
69.9997 1733 41.6293
70.1165 1675 40.9268
70.2332 1684 41.0366
70.3499 1741 41.7253
70.4665 1701 41.2432
70.5831 1680 40.9878
70.6996 1596 39.95
70.8161 1484 38.5227
70.9326 1403 37.4566
71.049 1334 36.524
71.1653 1274 35.6931
71.2817 1289 35.9026
71.3979 1302 36.0832
71.5141 1309 36.1801
71.6303 1392 37.3095
71.7464 1266 35.5809
71.8624 0 1
71.9784 0 1
72.0944 0 1
72.2102 0 1
72.3261 0 1
72.4418 0 1
72.5575 0 1
72.6732 0 1
75.1054 0 1
75.2209 0 1
75.3365 0 1
75.4521 0 1
75.5678 0 1
75.6835 0 1
75.7993 0 1
75.9151 0 1
76.031 0 1
76.147 1327 36.428
76.263 1348 36.7151
76.3791 1297 36.0139
76.4952 1308 36.1663
76.6113 1384 37.2022
76.7276 1383 37.1887
76.8438 1450 38.0789
76.9601 1455 38.1445
77.0765 1429 37.8021
77.1929 1477 38.4318
77.3093 1527 39.0768
77.4258 1503 38.7685
77.5423 1456 38.1576
77.6589 1374 37.0675
77.7755 1302 36.0832
77.8921 1110 33.3167
78.0088 1065 32.6343
78.1256 1024 32
78.2423 967 31.0966
78.3591 1116 33.4066
78.4759 1292 35.9444
78.5928 1317 36.2905
78.7097 1470 38.3406
78.8266 1526 39.064
78.9436 1670 40.8656
79.0606 1679 40.9756
79.1776 1674 40.9145
79.2946 1601 40.0125
79.4117 1645 40.5586
79.5288 1597 39.9625
79.6459 1630 40.3733
79.7631 1433 37.855
79.8802 1287 35.8748
79.9974 1349 36.7287
80.1147 1356 36.8239
80.2319 1345 36.6742
80.3491 1371 37.027
80.4664 1363 36.9188
80.5837 1322 36.3593
80.701 1340 36.606
80.8183 1350 36.7423
80.9357 1458 38.1838
81.053 1406 37.4967
81.1704 1355 36.8103
81.2877 1362 36.9053
81.4051 1211 34.7994
81.5225 933 30.545
81.6399 945 30.7409
81.7573 865 29.4109
81.8747 843 29.0345
81.9922 963 31.0322
82.1096 1072 32.7414
82.227 1189 34.4819
82.3444 1288 35.8887
82.4619 1396 37.3631
82.5793 1391 37.2961
82.6967 1398 37.3898
82.8142 1454 38.1314
82.9316 1493 38.6394
83.049 1491 38.6135
83.1664 1392 37.3095
83.2838 1359 36.8646
83.4012 1332 36.4966
83.5186 1197 34.5977
83.636 1177 34.3074
83.7534 1226 35.0143
83.8708 1189 34.4819
83.9881 1249 35.3412
84.1055 1210 34.7851
84.2228 1234 35.1283
84.3401 1211 34.7994
84.4575 1219 34.9142
84.5747 1352 36.7696
84.692 1387 37.2424
84.8093 1311 36.2077
84.9265 1222 34.9571
85.0437 938 30.6268
85.1609 899 29.9833
85.2781 849 29.1376
85.3952 834 28.8791
85.5123 839 28.9655
85.6294 1012 31.8119
85.7465 1202 34.6699
85.8636 1276 35.7211
85.9806 1456 38.1576
86.0976 1439 37.9342
86.2145 1459 38.1969
86.3315 1544 39.2938
86.4484 1568 39.598
86.5652 1622 40.2741
86.682 1551 39.3827
86.7988 1488 38.5746
86.9156 1438 37.921
87.0323 1378 37.1214
87.149 1395 37.3497
87.2657 1370 37.0135
87.3823 1344 36.6606
87.4988 1415 37.6165
87.6154 1355 36.8103
87.7318 1434 37.8682
87.8483 1466 38.2884
87.9647 1460 38.2099
88.081 1483 38.5097
88.1973 1586 39.8246
88.3136 1450 38.0789
88.4298 1455 38.1445
88.546 1348 36.7151
88.6621 1155 33.9853
88.7781 979 31.289
88.8942 0 1
89.0101 0 1
89.126 0 1
89.2419 0 1
89.3577 0 1
89.4734 0 1
89.5891 0 1
89.7047 0 1
89.8203 0 1
89.9358 0 1
92.3269 0 1
92.4424 0 1
92.558 0 1
92.6736 0 1
92.7893 0 1
92.905 0 1
93.0208 0 1
93.1366 0 1
93.2525 0 1
93.3685 0 1
93.4845 0 1
93.6005 1482 38.4968
93.7167 1373 37.054
93.8328 1435 37.8814
93.949 1360 36.8782
94.0653 1190 34.4964
94.1816 1060 32.5576
94.2979 1053 32.45
94.4143 1021 31.9531
94.5307 942 30.692
94.6472 1003 31.6702
94.7637 1361 36.8917
94.8803 1443 37.9868
94.9969 1474 38.3927
95.1135 1561 39.5095
95.2302 1689 41.0974
95.3469 1679 40.9756
95.4637 1728 41.5692
95.5805 1712 41.3763
95.6973 1685 41.0488
95.8142 1687 41.0731
95.9311 1711 41.3642
96.048 1572 39.6485
96.1649 1614 40.1746
96.2819 1557 39.4588
96.3989 1535 39.1791
96.516 1549 39.3573
96.633 1551 39.3827
96.7501 1602 40.025
96.8673 1529 39.1024
96.9844 1611 40.1373
97.1016 1555 39.4335
97.2188 1606 40.0749
97.336 1611 40.1373
97.4532 1578 39.724
97.5704 1637 40.4599
97.6877 1378 37.1214
97.805 1164 34.1174
97.9223 1036 32.187
98.0396 973 31.1929
98.1569 978 31.273
98.2743 991 31.4802
98.3916 1260 35.4965
98.509 1384 37.2022
98.6264 1569 39.6106
98.7438 1658 40.7185
98.8612 1647 40.5832
98.9786 1773 42.107
99.096 1793 42.3438
99.2134 1770 42.0714
99.3308 1847 42.9767
99.4482 1785 42.2493
99.5656 1820 42.6615
99.6831 1693 41.1461
99.8005 1631 40.3856
99.9179 1684 41.0366
100.035 1627 40.3361
100.153 1629 40.3609
100.27 1551 39.3827
100.388 1602 40.025
100.505 1508 38.833
100.622 1538 39.2173
100.74 1671 40.8779
100.857 1582 39.7744
100.975 1649 40.6079
101.092 1669 40.8534
101.209 1602 40.025
101.327 1323 36.3731
101.444 1099 33.1512
101.561 1028 32.0624
101.679 936 30.5941
101.796 1005 31.7017
101.913 1190 34.4964
102.03 1404 37.47
102.148 1615 40.1871
102.265 1687 41.0731
102.382 1846 42.9651
102.499 1858 43.1045
102.616 1949 44.1475
102.733 1847 42.9767
102.851 1912 43.7264
102.968 1882 43.382
103.085 1792 42.332
103.202 1838 42.8719
103.319 1729 41.5812
103.436 1793 42.3438
103.552 1689 41.0974
103.669 1751 41.845
103.786 1680 40.9878
103.903 1681 41
104.02 1678 40.9634
104.137 1684 41.0366
104.253 1859 43.1161
104.37 1808 42.5206
104.487 1775 42.1307
104.603 1722 41.497
104.72 1656 40.694
104.836 1380 37.1484
104.953 1174 34.2637
105.069 1071 32.7261
105.186 1031 32.1092
105.302 1132 33.6452
105.418 1358 36.8511
105.535 1601 40.0125
105.651 1705 41.2916
105.767 1923 43.852
105.883 2008 44.8107
105.999 1937 44.0114
106.115 0 1
106.231 0 1
106.347 0 1
106.463 0 1
106.579 0 1
106.694 0 1
106.81 0 1
106.926 0 1
107.041 0 1
107.157 0 1
109.576 0 1
109.692 0 1
109.807 0 1
109.923 0 1
110.039 0 1
110.155 0 1
110.27 0 1
110.386 0 1
110.502 0 1
110.618 1449 38.0657
110.735 1699 41.2189
110.851 1787 42.2729
110.967 1820 42.6615
111.083 1786 42.2611
111.199 1936 44
111.316 1914 43.7493
111.432 1967 44.3509
111.549 1908 43.6807
111.665 1885 43.4166
111.782 1886 43.4281
111.898 1845 42.9535
112.015 1774 42.1189
112.132 1716 41.4246
112.248 1711 41.3642
112.365 1732 41.6173
112.482 1595 39.9375
112.599 1683 41.0244
112.716 1664 40.7922
112.832 1611 40.1373
112.949 1718 41.4488
113.066 1683 41.0244
113.183 1632 40.398
113.3 1477 38.4318
113.417 1240 35.2136
113.534 1034 32.1559
113.652 1065 32.6343
113.769 967 31.0966
113.886 1039 32.2335
114.003 1219 34.9142
114.12 1495 38.6652
114.238 1559 39.4842
114.355 1691 41.1218
114.472 1752 41.8569
114.589 1848 42.9884
114.707 1804 42.4735
114.824 1778 42.1663
114.942 1858 43.1045
115.059 1849 43
115.176 1855 43.0697
115.294 1775 42.1307
115.411 1731 41.6053
115.529 1741 41.7253
115.646 1751 41.845
115.764 1724 41.5211
115.881 1696 41.1825
115.999 1588 39.8497
116.116 1665 40.8044
116.234 1675 40.9268
116.351 1713 41.3884
116.469 1661 40.7554
116.586 1529 39.1024
116.704 1669 40.8534
116.821 1517 38.9487
116.939 1297 36.0139
117.056 1150 33.9116
117.174 1082 32.8938
117.291 990 31.4643
117.409 1066 32.6497
117.526 1123 33.5112
117.644 1330 36.4692
117.761 1458 38.1838
117.879 1651 40.6325
117.996 1681 41
118.114 1743 41.7493
118.231 1703 41.2674
118.349 1751 41.845
118.466 1808 42.5206
118.584 1786 42.2611
118.701 1804 42.4735
118.819 1691 41.1218
118.936 1743 41.7493
119.053 1657 40.7063
119.171 1709 41.3401
119.288 1668 40.8412
119.405 1653 40.6571
119.523 1713 41.3884
119.64 1630 40.3733
119.757 1611 40.1373
119.875 1575 39.6863
119.992 1572 39.6485
120.109 1529 39.1024
120.226 1583 39.7869
120.343 1499 38.7169
120.46 1431 37.8286
120.578 1306 36.1386
120.695 1183 34.3948
120.812 1091 33.0303
120.929 1074 32.7719
121.046 1012 31.8119
121.163 1015 31.8591
121.279 1216 34.8712
121.396 1406 37.4967
121.513 1499 38.7169
121.63 1622 40.2741
121.747 1686 41.0609
121.863 1626 40.3237
121.98 1771 42.0833
122.097 1749 41.821
122.213 1717 41.4367
122.33 1772 42.0951
122.446 1755 41.8927
122.563 1656 40.694
122.679 1645 40.5586
122.795 1633 40.4104
122.912 1663 40.7799
123.028 1587 39.8372
123.144 1458 38.1838
123.26 1526 39.064
123.377 0 1
123.493 0 1
123.609 0 1
123.725 0 1
123.84 0 1
123.956 0 1
124.072 0 1
124.188 0 1
124.303 0 1
124.419 0 1
126.852 0 1
126.968 0 1
127.083 0 1
127.199 0 1
127.315 0 1
127.431 0 1
127.547 0 1
127.663 0 1
127.779 0 1
127.895 0 1
128.011 0 1
128.127 0 1
128.243 0 1
128.359 1778 42.1663
128.476 1758 41.9285
128.592 1795 42.3674
128.708 1765 42.0119
128.825 1746 41.7852
128.941 1828 42.7551
129.058 1754 41.8808
129.174 1728 41.5692
129.291 1733 41.6293
129.408 1557 39.4588
129.524 1444 38
129.641 1375 37.081
129.758 1277 35.7351
129.875 1228 35.0428
129.992 1077 32.8177
130.108 1227 35.0286
130.225 1409 37.5366
130.342 1572 39.6485
130.459 1686 41.0609
130.576 1759 41.9404
130.693 1746 41.7852
130.81 1822 42.6849
130.928 1897 43.5546
131.045 2042 45.1885
131.162 1896 43.5431
131.279 1968 44.3621
131.396 2011 44.8442
131.513 1940 44.0454
131.631 1971 44.3959
131.748 1878 43.3359
131.865 1874 43.2897
131.983 1822 42.6849
132.1 1937 44.0114
132.217 1903 43.6234
132.335 1803 42.4617
132.452 1893 43.5086
132.57 1886 43.4281
132.687 1801 42.4382
132.804 1878 43.3359
132.922 1761 41.9643
133.039 1556 39.4462
133.157 1436 37.8946
133.274 1395 37.3497
133.392 1315 36.2629
133.509 1177 34.3074
133.627 1202 34.6699
133.744 1324 36.3868
133.862 1454 38.1314
133.979 1599 39.9875
134.097 1664 40.7922
134.214 1686 41.0609
134.332 1799 42.4146
134.449 1824 42.7083
134.567 1886 43.4281
134.684 1866 43.1972
134.802 1943 44.0795
134.919 1933 43.9659
135.037 1911 43.715
135.154 1901 43.6005
135.272 1924 43.8634
135.389 1862 43.1509
135.507 1903 43.6234
135.624 1938 44.0227
135.742 1878 43.3359
135.859 1879 43.3474
135.977 1807 42.5088
136.094 1900 43.589
136.211 1883 43.3935
136.329 1785 42.2493
136.446 1804 42.4735
136.564 1751 41.845
136.681 1575 39.6863
136.798 1496 38.6782
136.915 1339 36.5923
137.033 1314 36.2491
137.15 1273 35.6791
137.267 1265 35.5668
137.384 1343 36.647
137.502 1457 38.1707
137.619 1536 39.1918
137.736 1647 40.5832
137.853 1613 40.1622
137.97 1731 41.6053
138.087 1794 42.3556
138.204 1941 44.0568
138.321 1977 44.4635
138.438 1968 44.3621
138.555 1941 44.0568
138.672 2015 44.8888
138.788 1931 43.9431
138.905 1947 44.1248
139.022 1945 44.1022
139.139 1967 44.3509
139.255 1882 43.382
139.372 1898 43.566
139.488 1919 43.8064
139.605 1937 44.0114
139.721 1892 43.4971
139.838 1877 43.3244
139.954 1866 43.1972
140.071 1813 42.5793
140.187 1821 42.6732
140.303 1620 40.2492
140.419 1513 38.8973
140.535 1433 37.855
140.652 1286 35.8608
140.768 0 1
140.884 0 1
141 0 1
141.115 0 1
141.231 0 1
141.347 0 1
141.463 0 1
141.578 0 1
141.694 0 1
144.104 0 1
144.219 0 1
144.335 0 1
144.45 0 1
144.566 0 1
144.682 0 1
144.798 0 1
144.914 0 1
145.03 0 1
145.146 1295 35.9861
145.262 1408 37.5233
145.378 1320 36.3318
145.494 1224 34.9857
145.61 1209 34.7707
145.726 1122 33.4963
145.842 1008 31.749
145.959 1024 32
146.075 996 31.5595
146.192 1044 32.311
146.308 1127 33.5708
146.425 1115 33.3916
146.541 1159 34.0441
146.658 1241 35.2278
146.774 1346 36.6879
146.891 1469 38.3275
147.008 1488 38.5746
147.125 1486 38.5487
147.241 1553 39.4081
147.358 1592 39.8999
147.475 1543 39.281
147.592 1549 39.3573
147.709 1530 39.1152
147.826 1565 39.5601
147.943 1540 39.2428
148.06 1537 39.2046
148.177 1498 38.704
148.294 1496 38.6782
148.411 1508 38.833
148.528 1529 39.1024
148.645 1459 38.1969
148.762 1444 38
148.88 1443 37.9868
148.997 1421 37.6962
149.114 1436 37.8946
149.231 1368 36.9865
149.349 1270 35.6371
149.466 1264 35.5528
149.583 1153 33.9559
149.701 1009 31.7648
149.818 985 31.3847
149.935 997 31.5753
150.053 1041 32.2645
150.17 1061 32.573
150.287 1153 33.9559
150.405 1244 35.2704
150.522 1415 37.6165
150.64 1483 38.5097
150.757 1446 38.0263
150.875 1484 38.5227
150.992 1538 39.2173
151.11 1564 39.5474
151.227 1524 39.0384
151.344 1539 39.2301
151.462 1503 38.7685
151.579 1488 38.5746
151.697 1508 38.833
151.814 1484 38.5227
151.932 1484 38.5227
152.049 1491 38.6135
152.167 1489 38.5876
152.284 1473 38.3797
152.402 1448 38.0526
152.519 1463 38.2492
152.636 1474 38.3927
152.754 1449 38.0657
152.871 1391 37.2961
152.989 1311 36.2077
153.106 1230 35.0714
153.223 1157 34.0147
153.341 1111 33.3317
153.458 1007 31.7333
153.575 1010 31.7805
153.693 1059 32.5423
153.81 1193 34.5398
153.927 1190 34.4964
154.044 1310 36.1939
154.162 1418 37.6563
154.279 1520 38.9872
154.396 1577 39.7115
154.513 1595 39.9375
154.63 1587 39.8372
154.747 1629 40.3609
154.864 1607 40.0874
154.981 1638 40.4722
155.098 1634 40.4228
155.215 1598 39.975
155.332 1517 38.9487
155.449 1591 39.8873
155.566 1551 39.3827
155.683 1605 40.0625
155.8 1521 39
155.917 1588 39.8497
156.033 1584 39.7995
156.15 0 1
156.267 0 1
156.383 0 1
156.5 0 1
156.617 0 1
156.733 0 1
156.85 0 1
156.966 0 1
157.082 0 1
157.199 0 1
157.315 0 1
157.431 0 1
157.547 0 1
157.664 0 1
157.78 0 1
157.896 0 1
158.012 0 1
158.128 0 1
158.244 0 1
158.359 0 1
158.475 0 1
158.591 0 1
158.706 0 1
