
6.15755 0 1
6.2731 0 1
6.3887 0 1
6.50437 0 1
6.62009 0 1
6.73587 0 1
6.8517 0 1
6.96759 0 1
7.08353 0 1
7.19952 0 1
7.31557 0 1
7.43166 0 1
7.54781 0 1
7.664 0 1
7.78024 0 1
7.89653 0 1
8.01286 0 1
8.12924 0 1
8.24567 0 1
8.36213 0 1
8.47864 0 1
8.59519 0 1
8.71178 0 1
8.82841 0 1
8.94508 0 1
9.06179 0 1
9.17853 0 1
9.29531 0 1
9.41212 0 1
9.52897 0 1
9.64584 0 1
9.76276 0 1
9.8797 0 1
9.99667 0 1
10.1137 0 1
10.2307 0 1
10.3478 0 1
10.4648 0 1
10.5819 0 1
10.6991 0 1
10.8162 0 1
10.9334 0 1
11.0506 0 1
11.1678 0 1
11.285 0 1
11.4023 0 1
11.5196 0 1
11.6369 0 1
11.7542 0 1
11.8715 0 1
11.9888 0 1
12.1062 0 1
12.2235 0 1
12.3409 0 1
12.4582 0 1
12.5756 0 1
12.693 0 1
12.8104 0 1
12.9278 0 1
13.0452 0 1
13.1626 0 1
13.28 0 1
13.3974 0 1
13.5149 0 1
13.6323 0 1
13.7497 0 1
13.8671 0 1
13.9845 0 1
14.1019 0 1
14.2193 0 1
14.3367 0 1
14.4541 0 1
14.5714 0 1
14.6888 0 1
14.8062 0 1
14.9235 0 1
15.0408 1027 32.0468
15.1581 992 31.496
15.2755 1094 33.0757
15.3927 1080 32.8634
15.51 1066 32.6497
15.6273 1059 32.5423
15.7445 1044 32.311
15.8617 958 30.9516
15.9789 979 31.289
16.0961 986 31.4006
16.2132 1011 31.7962
16.3304 966 31.0805
16.4475 876 29.5973
16.5646 948 30.7896
16.6816 912 30.1993
16.7986 911 30.1828
16.9156 854 29.2233
17.0326 871 29.5127
17.1496 862 29.3598
17.2665 893 29.8831
17.3833 946 30.7571
17.5002 916 30.2655
17.617 867 29.4449
17.7338 835 28.8964
17.8505 860 29.3258
17.9672 828 28.775
18.0839 847 29.1033
18.2005 831 28.8271
18.3171 822 28.6705
18.4337 839 28.9655
18.5502 913 30.2159
18.6666 857 29.2746
18.7831 836 28.9137
18.8994 863 29.3769
19.0158 874 29.5635
19.1321 840 28.9828
19.2483 778 27.8927
19.3645 729 27
19.4806 738 27.1662
19.5967 672 25.923
19.7128 654 25.5734
19.8288 600 24.4949
19.9447 550 23.4521
20.0606 0 1
20.1764 0 1
20.2922 0 1
20.4079 0 1
20.5236 0 1
20.6392 0 1
20.7548 0 1
20.8702 0 1
23.3078 0 1
23.4233 0 1
23.539 0 1
23.6547 0 1
23.7704 0 1
23.8862 0 1
24.0021 0 1
24.118 0 1
24.234 0 1
24.35 0 1
24.4661 340 18.4391
24.5822 462 21.4942
24.6984 540 23.2379
24.8146 647 25.4362
24.9309 699 26.4386
25.0472 761 27.5862
25.1636 858 29.2916
25.28 906 30.0998
25.3965 1010 31.7805
25.513 928 30.4631
25.6296 924 30.3974
25.7462 1019 31.9218
25.8628 993 31.5119
25.9795 971 31.1609
26.0962 951 30.8383
26.213 913 30.2159
26.3298 903 30.05
26.4466 834 28.8791
26.5635 818 28.6007
26.6804 812 28.4956
26.7973 771 27.7669
26.9143 805 28.3725
27.0313 835 28.8964
27.1483 779 27.9106
27.2653 823 28.688
27.3824 807 28.4077
27.4996 846 29.0861
27.6167 862 29.3598
27.7339 860 29.3258
27.8511 857 29.2746
27.9683 880 29.6648
28.0855 892 29.8664
28.2028 828 28.775
28.3201 894 29.8998
28.4374 888 29.7993
28.5547 890 29.8329
28.6721 925 30.4138
28.7894 953 30.8707
28.9068 917 30.282
29.0242 884 29.7321
29.1416 883 29.7153
29.259 866 29.4279
29.3764 758 27.5318
29.4939 891 29.8496
29.6113 821 28.6531
29.7288 795 28.1957
29.8463 735 27.1109
29.9638 762 27.6043
30.0812 731 27.037
30.1987 784 28
30.3162 782 27.9643
30.4337 760 27.5681
30.5512 800 28.2843
30.6687 817 28.5832
30.7862 828 28.775
30.9037 826 28.7402
31.0212 843 29.0345
31.1387 884 29.7321
31.2562 839 28.9655
31.3737 840 28.9828
31.4912 835 28.8964
31.6087 855 29.2404
31.7262 846 29.0861
31.8436 791 28.1247
31.9611 806 28.3901
32.0785 786 28.0357
32.1959 830 28.8097
32.3134 810 28.4605
32.4308 826 28.7402
32.5482 772 27.7849
32.6655 756 27.4955
32.7829 782 27.9643
32.9002 735 27.1109
33.0176 721 26.8514
33.1349 729 27
33.2522 709 26.6271
33.3694 684 26.1534
33.4867 717 26.7769
33.6039 724 26.9072
33.7211 664 25.7682
33.8383 754 27.4591
33.9554 684 26.1534
34.0725 702 26.4953
34.1896 714 26.7208
34.3067 732 27.0555
34.4237 726 26.9444
34.5407 724 26.9072
34.6577 818 28.6007
34.7746 806 28.3901
34.8915 748 27.3496
35.0084 748 27.3496
35.1252 744 27.2764
35.242 762 27.6043
35.3587 713 26.7021
35.4755 717 26.7769
35.5921 748 27.3496
35.7088 746 27.313
35.8254 717 26.7769
35.9419 719 26.8142
36.0584 721 26.8514
36.1749 672 25.923
36.2913 662 25.7294
36.4077 701 26.4764
36.524 610 24.6982
36.6403 597 24.4336
36.7565 555 23.5584
36.8727 494 22.2261
36.9889 462 21.4942
37.1049 434 20.8327
37.221 0 1
37.3369 0 1
37.4529 0 1
37.5687 0 1
37.6845 0 1
37.8003 0 1
37.916 0 1
38.0316 0 1
38.1472 0 1
40.5851 0 1
40.7008 0 1
40.8164 0 1
40.9322 0 1
41.048 0 1
41.1639 0 1
41.2798 0 1
41.3958 0 1
41.5118 0 1
41.6279 0 1
41.744 344 18.5472
41.8602 419 20.4695
41.9765 445 21.095
42.0928 499 22.3383
42.2091 482 21.9545
42.3255 479 21.8861
42.4419 493 22.2036
42.5584 521 22.8254
42.675 511 22.6053
42.7915 559 23.6432
42.9081 580 24.0832
43.0248 551 23.4734
43.1415 532 23.0651
43.2582 494 22.2261
43.375 577 24.0208
43.4918 545 23.3452
43.6087 592 24.3311
43.7256 568 23.8328
43.8425 561 23.6854
43.9595 527 22.9565
44.0765 545 23.3452
44.1935 528 22.9783
44.3106 583 24.1454
44.4277 573 23.9374
44.5448 567 23.8118
44.6619 549 23.4307
44.7791 574 23.9583
44.8963 571 23.8956
45.0136 577 24.0208
45.1308 555 23.5584
45.2481 584 24.1661
45.3654 573 23.9374
45.4827 577 24.0208
45.6001 538 23.1948
45.7174 570 23.8747
45.8348 554 23.5372
45.9522 522 22.8473
46.0697 532 23.0651
46.1871 583 24.1454
46.3046 567 23.8118
46.422 601 24.5153
46.5395 541 23.2594
46.657 568 23.8328
46.7745 502 22.4054
46.892 485 22.0227
47.0096 546 23.3666
47.1271 595 24.3926
47.2446 570 23.8747
47.3622 550 23.4521
47.4797 521 22.8254
47.5973 607 24.6374
47.7149 540 23.2379
47.8324 549 23.4307
47.95 513 22.6495
48.0675 558 23.622
48.1851 571 23.8956
48.3027 547 23.388
48.4202 536 23.1517
48.5378 565 23.7697
48.6554 575 23.9792
48.7729 557 23.6008
48.8904 535 23.1301
49.008 559 23.6432
49.1255 535 23.1301
49.243 476 21.8174
49.3605 527 22.9565
49.478 451 21.2368
49.5955 465 21.5639
49.713 499 22.3383
49.8304 500 22.3607
49.9479 549 23.4307
50.0653 481 21.9317
50.1827 477 21.8403
50.3001 474 21.7715
50.4175 513 22.6495
50.5348 491 22.1585
50.6521 518 22.7596
50.7694 514 22.6716
50.8867 473 21.7486
51.004 471 21.7025
51.1212 507 22.5167
51.2384 553 23.516
51.3556 474 21.7715
51.4727 503 22.4277
51.5899 577 24.0208
51.707 555 23.5584
51.824 523 22.8692
51.9411 571 23.8956
52.0581 534 23.1084
52.175 516 22.7156
52.2919 514 22.6716
52.4088 522 22.8473
52.5257 487 22.0681
52.6425 480 21.9089
52.7593 483 21.9773
52.876 492 22.1811
52.9927 446 21.1187
53.1094 429 20.7123
53.226 457 21.3776
53.3426 441 21
53.4591 482 21.9545
53.5756 468 21.6333
53.692 375 19.3649
53.8084 415 20.3715
53.9248 355 18.8414
54.0411 334 18.2757
54.1573 329 18.1384
54.2735 0 1
54.3896 0 1
54.5057 0 1
54.6217 0 1
54.7377 0 1
54.8537 0 1
54.9695 0 1
55.0853 0 1
55.2011 0 1
55.3168 0 1
55.4324 0 1
57.824 0 1
57.9396 0 1
58.0553 0 1
58.1711 0 1
58.2869 0 1
58.4028 0 1
58.5187 0 1
58.6347 0 1
58.7508 0 1
58.8669 0 1
58.983 455 21.3307
59.0992 495 22.2486
59.2155 578 24.0416
59.3318 665 25.7876
59.4482 679 26.0576
59.5646 759 27.55
59.681 717 26.7769
59.7975 759 27.55
59.9141 719 26.8142
60.0306 826 28.7402
60.1473 756 27.4955
60.2639 855 29.2404
60.3807 807 28.4077
60.4974 785 28.0179
60.6142 755 27.4773
60.731 840 28.9828
60.8479 768 27.7128
60.9648 763 27.6225
61.0818 769 27.7308
61.1987 743 27.258
61.3158 718 26.7955
61.4328 699 26.4386
61.5499 683 26.1343
61.667 664 25.7682
61.7841 640 25.2982
61.9013 677 26.0192
62.0185 712 26.6833
62.1357 683 26.1343
62.253 627 25.04
62.3702 672 25.923
62.4875 653 25.5539
62.6049 656 25.6125
62.7222 666 25.807
62.8396 630 25.0998
62.9569 653 25.5539
63.0743 618 24.8596
63.1918 601 24.5153
63.3092 592 24.3311
63.4267 609 24.6779
63.5441 600 24.4949
63.6616 630 25.0998
63.7791 683 26.1343
63.8966 635 25.1992
64.0142 628 25.0599
64.1317 682 26.1151
64.2492 625 25
64.3668 634 25.1794
64.4843 627 25.04
64.6019 639 25.2784
64.7195 635 25.1992
64.837 535 23.1301
64.9546 504 22.4499
65.0722 536 23.1517
65.1898 513 22.6495
65.3074 537 23.1733
65.4249 506 22.4944
65.5425 557 23.6008
65.6601 593 24.3516
65.7777 580 24.0832
65.8952 597 24.4336
66.0128 565 23.7697
66.1304 600 24.4949
66.2479 621 24.9199
66.3655 620 24.8998
66.483 612 24.7386
66.6005 607 24.6374
66.718 576 24
66.8355 532 23.0651
66.953 581 24.1039
67.0705 616 24.8193
67.1879 636 25.219
67.3054 598 24.454
67.4228 607 24.6374
67.5402 644 25.3772
67.6576 626 25.02
67.7749 655 25.593
67.8923 607 24.6374
68.0096 595 24.3926
68.1269 591 24.3105
68.2442 541 23.2594
68.3614 584 24.1661
68.4787 556 23.5797
68.5958 517 22.7376
68.713 549 23.4307
68.8302 504 22.4499
68.9473 505 22.4722
69.0643 516 22.7156
69.1814 566 23.7908
69.2984 526 22.9347
69.4154 555 23.5584
69.5323 575 23.9792
69.6492 591 24.3105
69.7661 579 24.0624
69.8829 534 23.1084
69.9997 540 23.2379
70.1165 542 23.2809
70.2332 535 23.1301
70.3499 539 23.2164
70.4665 486 22.0454
70.5831 464 21.5407
70.6996 426 20.6398
70.8161 424 20.5913
70.9326 427 20.664
71.049 397 19.9249
71.1653 357 18.8944
71.2817 316 17.7764
71.3979 317 17.8045
71.5141 271 16.4621
71.6303 276 16.6132
71.7464 240 15.4919
71.8624 0 1
71.9784 0 1
72.0944 0 1
72.2102 0 1
72.3261 0 1
72.4418 0 1
72.5575 0 1
72.6732 0 1
75.1054 0 1
75.2209 0 1
75.3365 0 1
75.4521 0 1
75.5678 0 1
75.6835 0 1
75.7993 0 1
75.9151 0 1
76.031 0 1
76.147 329 18.1384
76.263 390 19.7484
76.3791 491 22.1585
76.4952 464 21.5407
76.6113 568 23.8328
76.7276 560 23.6643
76.8438 568 23.8328
76.9601 525 22.9129
77.0765 511 22.6053
77.1929 460 21.4476
77.3093 505 22.4722
77.4258 506 22.4944
77.5423 471 21.7025
77.6589 450 21.2132
77.7755 456 21.3542
77.8921 460 21.4476
78.0088 432 20.7846
78.1256 425 20.6155
78.2423 448 21.166
78.3591 467 21.6102
78.4759 519 22.7816
78.5928 507 22.5167
78.7097 499 22.3383
78.8266 473 21.7486
78.9436 508 22.5389
79.0606 493 22.2036
79.1776 508 22.5389
79.2946 513 22.6495
79.4117 512 22.6274
79.5288 521 22.8254
79.6459 493 22.2036
79.7631 516 22.7156
79.8802 521 22.8254
79.9974 534 23.1084
80.1147 530 23.0217
80.2319 554 23.5372
80.3491 542 23.2809
80.4664 569 23.8537
80.5837 511 22.6053
80.701 509 22.561
80.8183 513 22.6495
80.9357 543 23.3024
81.053 484 22
81.1704 547 23.388
81.2877 506 22.4944
81.4051 490 22.1359
81.5225 501 22.383
81.6399 493 22.2036
81.7573 481 21.9317
81.8747 441 21
81.9922 509 22.561
82.1096 544 23.3238
82.227 518 22.7596
82.3444 531 23.0434
82.4619 533 23.0868
82.5793 531 23.0434
82.6967 546 23.3666
82.8142 550 23.4521
82.9316 560 23.6643
83.049 562 23.7065
83.1664 516 22.7156
83.2838 521 22.8254
83.4012 504 22.4499
83.5186 501 22.383
83.636 529 23
83.7534 566 23.7908
83.8708 606 24.6171
83.9881 558 23.622
84.1055 584 24.1661
84.2228 568 23.8328
84.3401 532 23.0651
84.4575 561 23.6854
84.5747 593 24.3516
84.692 538 23.1948
84.8093 560 23.6643
84.9265 525 22.9129
85.0437 489 22.1133
85.1609 501 22.383
85.2781 476 21.8174
85.3952 488 22.0907
85.5123 475 21.7945
85.6294 559 23.6432
85.7465 544 23.3238
85.8636 549 23.4307
85.9806 595 24.3926
86.0976 550 23.4521
86.2145 560 23.6643
86.3315 614 24.779
86.4484 538 23.1948
86.5652 611 24.7184
86.682 606 24.6171
86.7988 558 23.622
86.9156 524 22.891
87.0323 508 22.5389
87.149 520 22.8035
87.2657 581 24.1039
87.3823 538 23.1948
87.4988 573 23.9374
87.6154 516 22.7156
87.7318 563 23.7276
87.8483 495 22.2486
87.9647 465 21.5639
88.081 396 19.8997
88.1973 415 20.3715
88.3136 366 19.1311
88.4298 342 18.4932
88.546 277 16.6433
88.6621 268 16.3707
88.7781 246 15.6844
88.8942 0 1
89.0101 0 1
89.126 0 1
89.2419 0 1
89.3577 0 1
89.4734 0 1
89.5891 0 1
89.7047 0 1
89.8203 0 1
89.9358 0 1
92.3269 0 1
92.4424 0 1
92.558 0 1
92.6736 0 1
92.7893 0 1
92.905 0 1
93.0208 0 1
93.1366 0 1
93.2525 0 1
93.3685 0 1
93.4845 0 1
93.6005 523 22.8692
93.7167 479 21.8861
93.8328 499 22.3383
93.949 551 23.4734
94.0653 547 23.388
94.1816 535 23.1301
94.2979 557 23.6008
94.4143 450 21.2132
94.5307 523 22.8692
94.6472 485 22.0227
94.7637 536 23.1517
94.8803 574 23.9583
94.9969 570 23.8747
95.1135 595 24.3926
95.2302 615 24.7992
95.3469 602 24.5357
95.4637 582 24.1247
95.5805 583 24.1454
95.6973 598 24.454
95.8142 537 23.1733
95.9311 548 23.4094
96.048 568 23.8328
96.1649 576 24
96.2819 579 24.0624
96.3989 633 25.1595
96.516 547 23.388
96.633 620 24.8998
96.7501 603 24.5561
96.8673 632 25.1396
96.9844 590 24.2899
97.1016 588 24.2487
97.2188 625 25
97.336 554 23.5372
97.4532 597 24.4336
97.5704 608 24.6577
97.6877 565 23.7697
97.805 551 23.4734
97.9223 504 22.4499
98.0396 528 22.9783
98.1569 512 22.6274
98.2743 590 24.2899
98.3916 563 23.7276
98.509 564 23.7487
98.6264 631 25.1197
98.7438 625 25
98.8612 580 24.0832
98.9786 650 25.4951
99.096 638 25.2587
99.2134 617 24.8395
99.3308 599 24.4745
99.4482 646 25.4165
99.5656 619 24.8797
99.6831 656 25.6125
99.8005 621 24.9199
99.9179 632 25.1396
100.035 657 25.632
100.153 652 25.5343
100.27 638 25.2587
100.388 604 24.5764
100.505 681 26.096
100.622 655 25.593
100.74 621 24.9199
100.857 565 23.7697
100.975 614 24.779
101.092 635 25.1992
101.209 558 23.622
101.327 638 25.2587
101.444 604 24.5764
101.561 593 24.3516
101.679 546 23.3666
101.796 536 23.1517
101.913 537 23.1733
102.03 604 24.5764
102.148 621 24.9199
102.265 672 25.923
102.382 680 26.0768
102.499 702 26.4953
102.616 702 26.4953
102.733 692 26.3059
102.851 711 26.6646
102.968 705 26.5518
103.085 721 26.8514
103.202 654 25.5734
103.319 684 26.1534
103.436 675 25.9808
103.552 698 26.4197
103.669 698 26.4197
103.786 813 28.5132
103.903 727 26.9629
104.02 747 27.3313
104.137 751 27.4044
104.253 704 26.533
104.37 672 25.923
104.487 724 26.9072
104.603 677 26.0192
104.72 679 26.0576
104.836 702 26.4953
104.953 650 25.4951
105.069 620 24.8998
105.186 621 24.9199
105.302 607 24.6374
105.418 496 22.2711
105.535 498 22.3159
105.651 487 22.0681
105.767 476 21.8174
105.883 435 20.8567
105.999 377 19.4165
106.115 0 1
106.231 0 1
106.347 0 1
106.463 0 1
106.579 0 1
106.694 0 1
106.81 0 1
106.926 0 1
107.041 0 1
107.157 0 1
109.576 0 1
109.692 0 1
109.807 0 1
109.923 0 1
110.039 0 1
110.155 0 1
110.27 0 1
110.386 0 1
110.502 0 1
110.618 332 18.2209
110.735 403 20.0749
110.851 516 22.7156
110.967 529 23
111.083 590 24.2899
111.199 576 24
111.316 665 25.7876
111.432 686 26.1916
111.549 673 25.9422
111.665 683 26.1343
111.782 702 26.4953
111.898 621 24.9199
112.015 662 25.7294
112.132 646 25.4165
112.248 680 26.0768
112.365 630 25.0998
112.482 668 25.8457
112.599 648 25.4558
112.716 705 26.5518
112.832 631 25.1197
112.949 660 25.6905
113.066 614 24.779
113.183 651 25.5147
113.3 606 24.6171
113.417 580 24.0832
113.534 665 25.7876
113.652 634 25.1794
113.769 616 24.8193
113.886 601 24.5153
114.003 552 23.4947
114.12 487 22.0681
114.238 546 23.3666
114.355 539 23.2164
114.472 565 23.7697
114.589 562 23.7065
114.707 614 24.779
114.824 561 23.6854
114.942 629 25.0799
115.059 638 25.2587
115.176 651 25.5147
115.294 599 24.4745
115.411 537 23.1733
115.529 533 23.0868
115.646 514 22.6716
115.764 556 23.5797
115.881 579 24.0624
115.999 542 23.2809
116.116 542 23.2809
116.234 553 23.516
116.351 595 24.3926
116.469 547 23.388
116.586 595 24.3926
116.704 505 22.4722
116.821 572 23.9165
116.939 513 22.6495
117.056 595 24.3926
117.174 566 23.7908
117.291 536 23.1517
117.409 547 23.388
117.526 511 22.6053
117.644 517 22.7376
117.761 472 21.7256
117.879 507 22.5167
117.996 461 21.4709
118.114 532 23.0651
118.231 578 24.0416
118.349 507 22.5167
118.466 576 24
118.584 579 24.0624
118.701 546 23.3666
118.819 610 24.6982
118.936 530 23.0217
119.053 530 23.0217
119.171 499 22.3383
119.288 466 21.587
119.405 487 22.0681
119.523 508 22.5389
119.64 514 22.6716
119.757 535 23.1301
119.875 518 22.7596
119.992 544 23.3238
120.109 518 22.7596
120.226 479 21.8861
120.343 514 22.6716
120.46 493 22.2036
120.578 482 21.9545
120.695 565 23.7697
120.812 513 22.6495
120.929 544 23.3238
121.046 509 22.561
121.163 471 21.7025
121.279 436 20.8806
121.396 422 20.5426
121.513 419 20.4695
121.63 466 21.587
121.747 405 20.1246
121.863 425 20.6155
121.98 436 20.8806
122.097 398 19.9499
122.213 413 20.3224
122.33 439 20.9523
122.446 416 20.3961
122.563 372 19.2873
122.679 353 18.7883
122.795 323 17.9722
122.912 318 17.8326
123.028 304 17.4356
123.144 283 16.8226
123.26 280 16.7332
123.377 0 1
123.493 0 1
123.609 0 1
123.725 0 1
123.84 0 1
123.956 0 1
124.072 0 1
124.188 0 1
124.303 0 1
124.419 0 1
126.852 0 1
126.968 0 1
127.083 0 1
127.199 0 1
127.315 0 1
127.431 0 1
127.547 0 1
127.663 0 1
127.779 0 1
127.895 0 1
128.011 0 1
128.127 0 1
128.243 0 1
128.359 520 22.8035
128.476 537 23.1733
128.592 588 24.2487
128.708 519 22.7816
128.825 571 23.8956
128.941 601 24.5153
129.058 596 24.4131
129.174 562 23.7065
129.291 582 24.1247
129.408 556 23.5797
129.524 549 23.4307
129.641 581 24.1039
129.758 567 23.8118
129.875 571 23.8956
129.992 609 24.6779
130.108 607 24.6374
130.225 564 23.7487
130.342 580 24.0832
130.459 587 24.2281
130.576 615 24.7992
130.693 585 24.1868
130.81 517 22.7376
130.928 568 23.8328
131.045 594 24.3721
131.162 682 26.1151
131.279 721 26.8514
131.396 704 26.533
131.513 707 26.5895
131.631 737 27.1477
131.748 763 27.6225
131.865 738 27.1662
131.983 733 27.074
132.1 758 27.5318
132.217 862 29.3598
132.335 911 30.1828
132.452 931 30.5123
132.57 964 31.0483
132.687 1027 32.0468
132.804 989 31.4484
132.922 1011 31.7962
133.039 1062 32.5883
133.157 1060 32.5576
133.274 989 31.4484
133.392 1058 32.5269
133.509 1038 32.218
133.627 1064 32.619
133.744 1012 31.8119
133.862 1046 32.3419
133.979 1049 32.3883
134.097 856 29.2575
134.214 962 31.0161
134.332 916 30.2655
134.449 878 29.6311
134.567 942 30.692
134.684 1073 32.7567
134.802 1084 32.9242
134.919 1139 33.7491
135.037 1126 33.5559
135.154 1099 33.1512
135.272 1035 32.1714
135.389 1080 32.8634
135.507 980 31.305
135.624 1023 31.9844
135.742 1077 32.8177
135.859 1087 32.9697
135.977 1147 33.8674
136.094 1172 34.2345
136.211 1097 33.121
136.329 1150 33.9116
136.446 1133 33.6601
136.564 1150 33.9116
136.681 1166 34.1467
136.798 1136 33.7046
136.915 1140 33.7639
137.033 1157 34.0147
137.15 1122 33.4963
137.267 1160 34.0588
137.384 1073 32.7567
137.502 1151 33.9264
137.619 1017 31.8904
137.736 1021 31.9531
137.853 914 30.2324
137.97 919 30.315
138.087 847 29.1033
138.204 1029 32.078
138.321 1161 34.0735
138.438 1234 35.1283
138.555 1161 34.0735
138.672 1219 34.9142
138.788 1184 34.4093
138.905 1230 35.0714
139.022 1115 33.3916
139.139 1010 31.7805
139.255 950 30.8221
139.372 942 30.692
139.488 962 31.0161
139.605 882 29.6985
139.721 886 29.7658
139.838 837 28.931
139.954 916 30.2655
140.071 751 27.4044
140.187 769 27.7308
140.303 747 27.3313
140.419 714 26.7208
140.535 726 26.9444
140.652 684 26.1534
140.768 0 1
140.884 0 1
141 0 1
141.115 0 1
141.231 0 1
141.347 0 1
141.463 0 1
141.578 0 1
141.694 0 1
144.104 0 1
144.219 0 1
144.335 0 1
144.45 0 1
144.566 0 1
144.682 0 1
144.798 0 1
144.914 0 1
145.03 0 1
145.146 1679 40.9756
145.262 1840 42.8952
145.378 1935 43.9886
145.494 1937 44.0114
145.61 2045 45.2217
145.726 1973 44.4185
145.842 1995 44.6654
145.959 2053 45.31
146.075 2048 45.2548
146.192 2032 45.0777
146.308 1981 44.5084
146.425 1888 43.4511
146.541 1566 39.5727
146.658 1245 35.2846
146.774 1181 34.3657
146.891 1478 38.4448
147.008 1919 43.8064
147.125 1965 44.3283
147.241 1999 44.7102
147.358 2086 45.6727
147.475 2012 44.8553
147.592 2058 45.3652
147.709 1922 43.8406
147.826 1844 42.9418
147.943 1791 42.3202
148.06 1805 42.4853
148.177 1662 40.7676
148.294 1788 42.2847
148.411 1782 42.2137
148.528 1867 43.2088
148.645 1873 43.2782
148.762 1906 43.6578
148.88 1858 43.1045
148.997 1862 43.1509
149.114 1768 42.0476
149.231 1806 42.4971
149.349 1836 42.8486
149.466 1810 42.5441
149.583 1776 42.1426
149.701 1732 41.6173
149.818 1717 41.4367
149.935 1688 41.0853
150.053 1645 40.5586
150.17 1469 38.3275
150.287 1329 36.4555
150.405 1127 33.5708
150.522 1263 35.5387
150.64 1503 38.7685
150.757 1637 40.4599
150.875 1661 40.7554
150.992 1674 40.9145
151.11 1673 40.9023
151.227 1671 40.8779
151.344 1708 41.328
151.462 1650 40.6202
151.579 1588 39.8497
151.697 1606 40.0749
151.814 1641 40.5093
151.932 1580 39.7492
152.049 1613 40.1622
152.167 1711 41.3642
152.284 1653 40.6571
152.402 1664 40.7922
152.519 1764 42
152.636 1813 42.5793
152.754 1755 41.8927
152.871 1645 40.5586
152.989 1702 41.2553
153.106 1790 42.3084
153.223 1802 42.45
153.341 1712 41.3763
153.458 1825 42.72
153.575 1738 41.6893
153.693 1688 41.0853
153.81 1390 37.2827
153.927 1183 34.3948
154.044 1174 34.2637
154.162 1399 37.4032
154.279 1516 38.9358
154.396 1575 39.6863
154.513 1613 40.1622
154.63 1687 41.0731
154.747 1686 41.0609
154.864 1646 40.5709
154.981 1522 39.0128
155.098 1520 38.9872
155.215 1536 39.1918
155.332 1594 39.9249
155.449 1452 38.1051
155.566 1547 39.3319
155.683 1523 39.0256
155.8 1589 39.8623
155.917 1556 39.4462
156.033 1586 39.8246
156.15 0 1
156.267 0 1
156.383 0 1
156.5 0 1
156.617 0 1
156.733 0 1
156.85 0 1
156.966 0 1
157.082 0 1
157.199 0 1
157.315 0 1
157.431 0 1
157.547 0 1
157.664 0 1
157.78 0 1
157.896 0 1
158.012 0 1
158.128 0 1
158.244 0 1
158.359 0 1
158.475 0 1
158.591 0 1
158.706 0 1
