
6.15755 0 1
6.2731 0 1
6.3887 0 1
6.50437 0 1
6.62009 0 1
6.73587 0 1
6.8517 0 1
6.96759 0 1
7.08353 0 1
7.19952 0 1
7.31557 0 1
7.43166 0 1
7.54781 0 1
7.664 0 1
7.78024 0 1
7.89653 0 1
8.01286 0 1
8.12924 0 1
8.24567 0 1
8.36213 0 1
8.47864 0 1
8.59519 0 1
8.71178 0 1
8.82841 0 1
8.94508 0 1
9.06179 0 1
9.17853 0 1
9.29531 0 1
9.41212 0 1
9.52897 0 1
9.64584 0 1
9.76276 0 1
9.8797 0 1
9.99667 0 1
10.1137 0 1
10.2307 0 1
10.3478 0 1
10.4648 0 1
10.5819 0 1
10.6991 0 1
10.8162 0 1
10.9334 0 1
11.0506 0 1
11.1678 0 1
11.285 0 1
11.4023 0 1
11.5196 0 1
11.6369 0 1
11.7542 0 1
11.8715 0 1
11.9888 0 1
12.1062 0 1
12.2235 0 1
12.3409 0 1
12.4582 0 1
12.5756 0 1
12.693 0 1
12.8104 0 1
12.9278 0 1
13.0452 0 1
13.1626 0 1
13.28 0 1
13.3974 0 1
13.5149 0 1
13.6323 0 1
13.7497 0 1
13.8671 0 1
13.9845 0 1
14.1019 0 1
14.2193 0 1
14.3367 0 1
14.4541 0 1
14.5714 0 1
14.6888 0 1
14.8062 0 1
14.9235 0 1
15.0408 819 28.6182
15.1581 870 29.4958
15.2755 891 29.8496
15.3927 893 29.8831
15.51 875 29.5804
15.6273 888 29.7993
15.7445 883 29.7153
15.8617 858 29.2916
15.9789 861 29.3428
16.0961 879 29.6479
16.2132 864 29.3939
16.3304 879 29.6479
16.4475 885 29.7489
16.5646 928 30.4631
16.6816 1055 32.4808
16.7986 1047 32.3574
16.9156 1061 32.573
17.0326 1057 32.5115
17.1496 1023 31.9844
17.2665 1019 31.9218
17.3833 1040 32.249
17.5002 1038 32.218
17.617 963 31.0322
17.7338 957 30.9354
17.8505 920 30.3315
17.9672 893 29.8831
18.0839 972 31.1769
18.2005 922 30.3645
18.3171 950 30.8221
18.4337 985 31.3847
18.5502 990 31.4643
18.6666 1108 33.2866
18.7831 1025 32.0156
18.8994 991 31.4802
19.0158 1068 32.6803
19.1321 1051 32.4191
19.2483 913 30.2159
19.3645 884 29.7321
19.4806 813 28.5132
19.5967 797 28.2312
19.7128 735 27.1109
19.8288 660 25.6905
19.9447 644 25.3772
20.0606 0 1
20.1764 0 1
20.2922 0 1
20.4079 0 1
20.5236 0 1
20.6392 0 1
20.7548 0 1
20.8702 0 1
23.3078 0 1
23.4233 0 1
23.539 0 1
23.6547 0 1
23.7704 0 1
23.8862 0 1
24.0021 0 1
24.118 0 1
24.234 0 1
24.35 0 1
24.4661 363 19.0526
24.5822 548 23.4094
24.6984 575 23.9792
24.8146 642 25.3377
24.9309 694 26.3439
25.0472 745 27.2947
25.1636 815 28.5482
25.28 909 30.1496
25.3965 958 30.9516
25.513 1003 31.6702
25.6296 1081 32.8786
25.7462 1023 31.9844
25.8628 1176 34.2929
25.9795 1146 33.8526
26.0962 1144 33.8231
26.213 1071 32.7261
26.3298 1001 31.6386
26.4466 983 31.3528
26.5635 922 30.3645
26.6804 971 31.1609
26.7973 967 31.0966
26.9143 956 30.9192
27.0313 1071 32.7261
27.1483 986 31.4006
27.2653 1121 33.4813
27.3824 1042 32.28
27.4996 1081 32.8786
27.6167 1048 32.3728
27.7339 1050 32.4037
27.8511 1009 31.7648
27.9683 1023 31.9844
28.0855 952 30.8545
28.2028 929 30.4795
28.3201 901 30.0167
28.4374 877 29.6142
28.5547 978 31.273
28.6721 983 31.3528
28.7894 947 30.7734
28.9068 1045 32.3265
29.0242 1085 32.9393
29.1416 1020 31.9374
29.259 1080 32.8634
29.3764 1131 33.6303
29.4939 1099 33.1512
29.6113 1065 32.6343
29.7288 1066 32.6497
29.8463 983 31.3528
29.9638 978 31.273
30.0812 880 29.6648
30.1987 897 29.95
30.3162 917 30.282
30.4337 1021 31.9531
30.5512 903 30.05
30.6687 940 30.6594
30.7862 960 30.9839
30.9037 1027 32.0468
31.0212 999 31.607
31.1387 988 31.4325
31.2562 1020 31.9374
31.3737 1045 32.3265
31.4912 994 31.5278
31.6087 959 30.9677
31.7262 917 30.282
31.8436 908 30.133
31.9611 824 28.7054
32.0785 857 29.2746
32.1959 911 30.1828
32.3134 921 30.348
32.4308 976 31.241
32.5482 998 31.5911
32.6655 1108 33.2866
32.7829 1039 32.2335
32.9002 1077 32.8177
33.0176 1048 32.3728
33.1349 1012 31.8119
33.2522 980 31.305
33.3694 1005 31.7017
33.4867 952 30.8545
33.6039 855 29.2404
33.7211 886 29.7658
33.8383 811 28.4781
33.9554 886 29.7658
34.0725 945 30.7409
34.1896 940 30.6594
34.3067 935 30.5778
34.4237 996 31.5595
34.5407 919 30.315
34.6577 932 30.5287
34.7746 1026 32.0312
34.8915 944 30.7246
35.0084 932 30.5287
35.1252 962 31.0161
35.242 961 31
35.3587 870 29.4958
35.4755 838 28.9482
35.5921 867 29.4449
35.7088 789 28.0891
35.8254 834 28.8791
35.9419 903 30.05
36.0584 898 29.9666
36.1749 888 29.7993
36.2913 957 30.9354
36.4077 939 30.6431
36.524 929 30.4795
36.6403 878 29.6311
36.7565 815 28.5482
36.8727 757 27.5136
36.9889 703 26.5141
37.1049 735 27.1109
37.221 0 1
37.3369 0 1
37.4529 0 1
37.5687 0 1
37.6845 0 1
37.8003 0 1
37.916 0 1
38.0316 0 1
38.1472 0 1
40.5851 0 1
40.7008 0 1
40.8164 0 1
40.9322 0 1
41.048 0 1
41.1639 0 1
41.2798 0 1
41.3958 0 1
41.5118 0 1
41.6279 0 1
41.744 525 22.9129
41.8602 543 23.3024
41.9765 590 24.2899
42.0928 579 24.0624
42.2091 620 24.8998
42.3255 581 24.1039
42.4419 553 23.516
42.5584 591 24.3105
42.675 677 26.0192
42.7915 677 26.0192
42.9081 762 27.6043
43.0248 769 27.7308
43.1415 757 27.5136
43.2582 823 28.688
43.375 813 28.5132
43.4918 826 28.7402
43.6087 808 28.4253
43.7256 811 28.4781
43.8425 825 28.7228
43.9595 785 28.0179
44.0765 765 27.6586
44.1935 688 26.2298
44.3106 715 26.7395
44.4277 687 26.2107
44.5448 687 26.2107
44.6619 675 25.9808
44.7791 711 26.6646
44.8963 818 28.6007
45.0136 765 27.6586
45.1308 872 29.5296
45.2481 867 29.4449
45.3654 838 28.9482
45.4827 822 28.6705
45.6001 825 28.7228
45.7174 787 28.0535
45.8348 728 26.9815
45.9522 729 27
46.0697 634 25.1794
46.1871 650 25.4951
46.3046 686 26.1916
46.422 715 26.7395
46.5395 696 26.3818
46.657 822 28.6705
46.7745 770 27.7489
46.892 749 27.3679
47.0096 868 29.4618
47.1271 864 29.3939
47.2446 835 28.8964
47.3622 839 28.9655
47.4797 829 28.7924
47.5973 773 27.8029
47.7149 759 27.55
47.8324 769 27.7308
47.95 775 27.8388
48.0675 745 27.2947
48.1851 709 26.6271
48.3027 757 27.5136
48.4202 735 27.1109
48.5378 838 28.9482
48.6554 870 29.4958
48.7729 861 29.3428
48.8904 820 28.6356
49.008 833 28.8617
49.1255 866 29.4279
49.243 813 28.5132
49.3605 737 27.1477
49.478 733 27.074
49.5955 723 26.8887
49.713 675 25.9808
49.8304 646 25.4165
49.9479 730 27.0185
50.0653 731 27.037
50.1827 854 29.2233
50.3001 813 28.5132
50.4175 851 29.1719
50.5348 843 29.0345
50.6521 902 30.0333
50.7694 855 29.2404
50.8867 847 29.1033
51.004 896 29.9333
51.1212 858 29.2916
51.2384 828 28.775
51.3556 858 29.2916
51.4727 800 28.2843
51.5899 823 28.688
51.707 807 28.4077
51.824 855 29.2404
51.9411 966 31.0805
52.0581 1027 32.0468
52.175 1052 32.4345
52.2919 1075 32.7872
52.4088 1131 33.6303
52.5257 1066 32.6497
52.6425 1174 34.2637
52.7593 1113 33.3617
52.876 1144 33.8231
52.9927 996 31.5595
53.1094 960 30.9839
53.226 893 29.8831
53.3426 874 29.5635
53.4591 973 31.1929
53.5756 872 29.5296
53.692 905 30.0832
53.8084 850 29.1548
53.9248 886 29.7658
54.0411 841 29
54.1573 776 27.8568
54.2735 0 1
54.3896 0 1
54.5057 0 1
54.6217 0 1
54.7377 0 1
54.8537 0 1
54.9695 0 1
55.0853 0 1
55.2011 0 1
55.3168 0 1
55.4324 0 1
57.824 0 1
57.9396 0 1
58.0553 0 1
58.1711 0 1
58.2869 0 1
58.4028 0 1
58.5187 0 1
58.6347 0 1
58.7508 0 1
58.8669 0 1
58.983 598 24.454
59.0992 693 26.3249
59.2155 751 27.4044
59.3318 851 29.1719
59.4482 918 30.2985
59.5646 944 30.7246
59.681 899 29.9833
59.7975 949 30.8058
59.9141 905 30.0832
60.0306 958 30.9516
60.1473 984 31.3688
60.2639 876 29.5973
60.3807 911 30.1828
60.4974 885 29.7489
60.6142 940 30.6594
60.731 963 31.0322
60.8479 1039 32.2335
60.9648 1085 32.9393
61.0818 1062 32.5883
61.1987 1062 32.5883
61.3158 1058 32.5269
61.4328 1007 31.7333
61.5499 876 29.5973
61.667 865 29.4109
61.7841 878 29.6311
61.9013 807 28.4077
62.0185 795 28.1957
62.1357 811 28.4781
62.253 904 30.0666
62.3702 917 30.282
62.4875 947 30.7734
62.6049 1025 32.0156
62.7222 989 31.4484
62.8396 1033 32.1403
62.9569 1049 32.3883
63.0743 1068 32.6803
63.1918 1047 32.3574
63.3092 995 31.5436
63.4267 942 30.692
63.5441 971 31.1609
63.6616 934 30.5614
63.7791 852 29.189
63.8966 873 29.5466
64.0142 869 29.4788
64.1317 898 29.9666
64.2492 916 30.2655
64.3668 1037 32.2025
64.4843 1059 32.5423
64.6019 991 31.4802
64.7195 1069 32.6956
64.837 1040 32.249
64.9546 940 30.6594
65.0722 933 30.545
65.1898 918 30.2985
65.3074 848 29.1204
65.4249 822 28.6705
65.5425 751 27.4044
65.6601 735 27.1109
65.7777 844 29.0517
65.8952 913 30.2159
66.0128 897 29.95
66.1304 925 30.4138
66.2479 969 31.1288
66.3655 970 31.1448
66.483 973 31.1929
66.6005 1003 31.6702
66.718 975 31.225
66.8355 1017 31.8904
66.953 929 30.4795
67.0705 1004 31.686
67.1879 986 31.4006
67.3054 903 30.05
67.4228 840 28.9828
67.5402 803 28.3373
67.6576 826 28.7402
67.7749 826 28.7402
67.8923 928 30.4631
68.0096 890 29.8329
68.1269 954 30.8869
68.2442 1010 31.7805
68.3614 1015 31.8591
68.4787 1014 31.8434
68.5958 952 30.8545
68.713 955 30.9031
68.8302 856 29.2575
68.9473 785 28.0179
69.0643 784 28
69.1814 724 26.9072
69.2984 790 28.1069
69.4154 789 28.0891
69.5323 854 29.2233
69.6492 893 29.8831
69.7661 912 30.1993
69.8829 947 30.7734
69.9997 916 30.2655
70.1165 946 30.7571
70.2332 836 28.9137
70.3499 849 29.1376
70.4665 813 28.5132
70.5831 754 27.4591
70.6996 728 26.9815
70.8161 711 26.6646
70.9326 634 25.1794
71.049 559 23.6432
71.1653 459 21.4243
71.2817 422 20.5426
71.3979 372 19.2873
71.5141 380 19.4936
71.6303 335 18.303
71.7464 324 18
71.8624 0 1
71.9784 0 1
72.0944 0 1
72.2102 0 1
72.3261 0 1
72.4418 0 1
72.5575 0 1
72.6732 0 1
75.1054 0 1
75.2209 0 1
75.3365 0 1
75.4521 0 1
75.5678 0 1
75.6835 0 1
75.7993 0 1
75.9151 0 1
76.031 0 1
76.147 610 24.6982
76.263 613 24.7588
76.3791 631 25.1197
76.4952 701 26.4764
76.6113 664 25.7682
76.7276 703 26.5141
76.8438 743 27.258
76.9601 803 28.3373
77.0765 881 29.6816
77.1929 895 29.9166
77.3093 879 29.6479
77.4258 884 29.7321
77.5423 878 29.6311
77.6589 765 27.6586
77.7755 740 27.2029
77.8921 674 25.9615
78.0088 653 25.5539
78.1256 621 24.9199
78.2423 592 24.3311
78.3591 636 25.219
78.4759 715 26.7395
78.5928 728 26.9815
78.7097 806 28.3901
78.8266 814 28.5307
78.9436 858 29.2916
79.0606 880 29.6648
79.1776 804 28.3549
79.2946 852 29.189
79.4117 897 29.95
79.5288 902 30.0333
79.6459 839 28.9655
79.7631 838 28.9482
79.8802 808 28.4253
79.9974 727 26.9629
80.1147 705 26.5518
80.2319 733 27.074
80.3491 759 27.55
80.4664 841 29
80.5837 874 29.5635
80.701 843 29.0345
80.8183 883 29.7153
80.9357 937 30.6105
81.053 898 29.9666
81.1704 915 30.249
81.2877 875 29.5804
81.4051 870 29.4958
81.5225 819 28.6182
81.6399 754 27.4591
81.7573 651 25.5147
81.8747 632 25.1396
81.9922 613 24.7588
82.1096 730 27.0185
82.227 772 27.7849
82.3444 797 28.2312
82.4619 873 29.5466
82.5793 863 29.3769
82.6967 867 29.4449
82.8142 932 30.5287
82.9316 919 30.315
83.049 914 30.2324
83.1664 940 30.6594
83.2838 927 30.4467
83.4012 906 30.0998
83.5186 803 28.3373
83.636 759 27.55
83.7534 705 26.5518
83.8708 709 26.6271
83.9881 704 26.533
84.1055 745 27.2947
84.2228 723 26.8887
84.3401 760 27.5681
84.4575 924 30.3974
84.5747 906 30.0998
84.692 964 31.0483
84.8093 936 30.5941
84.9265 907 30.1164
85.0437 800 28.2843
85.1609 800 28.2843
85.2781 657 25.632
85.3952 692 26.3059
85.5123 626 25.02
85.6294 656 25.6125
85.7465 750 27.3861
85.8636 779 27.9106
85.9806 791 28.1247
86.0976 826 28.7402
86.2145 867 29.4449
86.3315 894 29.8998
86.4484 945 30.7409
86.5652 963 31.0322
86.682 930 30.4959
86.7988 902 30.0333
86.9156 892 29.8664
87.0323 886 29.7658
87.149 871 29.5127
87.2657 767 27.6948
87.3823 699 26.4386
87.4988 615 24.7992
87.6154 631 25.1197
87.7318 607 24.6374
87.8483 694 26.3439
87.9647 699 26.4386
88.081 716 26.7582
88.1973 679 26.0576
88.3136 674 25.9615
88.4298 662 25.7294
88.546 594 24.3721
88.6621 506 22.4944
88.7781 410 20.2485
88.8942 0 1
89.0101 0 1
89.126 0 1
89.2419 0 1
89.3577 0 1
89.4734 0 1
89.5891 0 1
89.7047 0 1
89.8203 0 1
89.9358 0 1
92.3269 0 1
92.4424 0 1
92.558 0 1
92.6736 0 1
92.7893 0 1
92.905 0 1
93.0208 0 1
93.1366 0 1
93.2525 0 1
93.3685 0 1
93.4845 0 1
93.6005 698 26.4197
93.7167 735 27.1109
93.8328 796 28.2135
93.949 820 28.6356
94.0653 817 28.5832
94.1816 743 27.258
94.2979 715 26.7395
94.4143 733 27.074
94.5307 689 26.2488
94.6472 648 25.4558
94.7637 673 25.9422
94.8803 749 27.3679
94.9969 805 28.3725
95.1135 839 28.9655
95.2302 861 29.3428
95.3469 890 29.8329
95.4637 898 29.9666
95.5805 943 30.7083
95.6973 925 30.4138
95.8142 975 31.225
95.9311 913 30.2159
96.048 925 30.4138
96.1649 900 30
96.2819 882 29.6985
96.3989 882 29.6985
96.516 856 29.2575
96.633 819 28.6182
96.7501 748 27.3496
96.8673 770 27.7489
96.9844 755 27.4773
97.1016 793 28.1603
97.2188 934 30.5614
97.336 929 30.4795
97.4532 984 31.3688
97.5704 960 30.9839
97.6877 993 31.5119
97.805 947 30.7734
97.9223 819 28.6182
98.0396 753 27.4408
98.1569 704 26.533
98.2743 725 26.9258
98.3916 656 25.6125
98.509 691 26.2869
98.6264 818 28.6007
98.7438 871 29.5127
98.8612 873 29.5466
98.9786 896 29.9333
99.096 951 30.8383
99.2134 1015 31.8591
99.3308 946 30.7571
99.4482 1032 32.1248
99.5656 1019 31.9218
99.6831 971 31.1609
99.8005 994 31.5278
99.9179 939 30.6431
100.035 970 31.1448
100.153 855 29.2404
100.27 793 28.1603
100.388 797 28.2312
100.505 829 28.7924
100.622 932 30.5287
100.74 1020 31.9374
100.857 961 31
100.975 1051 32.4191
101.092 981 31.3209
101.209 1001 31.6386
101.327 1006 31.7175
101.444 958 30.9516
101.561 901 30.0167
101.679 748 27.3496
101.796 725 26.9258
101.913 708 26.6083
102.03 757 27.5136
102.148 778 27.8927
102.265 899 29.9833
102.382 980 31.305
102.499 930 30.4959
102.616 967 31.0966
102.733 971 31.1609
102.851 1057 32.5115
102.968 1025 32.0156
103.085 1043 32.2955
103.202 1039 32.2335
103.319 1005 31.7017
103.436 1019 31.9218
103.552 964 31.0483
103.669 915 30.249
103.786 853 29.2062
103.903 823 28.688
104.02 861 29.3428
104.137 969 31.1288
104.253 979 31.289
104.37 1060 32.5576
104.487 1049 32.3883
104.603 1012 31.8119
104.72 1032 32.1248
104.836 946 30.7571
104.953 879 29.6479
105.069 870 29.4958
105.186 744 27.2764
105.302 665 25.7876
105.418 612 24.7386
105.535 630 25.0998
105.651 652 25.5343
105.767 660 25.6905
105.883 684 26.1534
105.999 603 24.5561
106.115 0 1
106.231 0 1
106.347 0 1
106.463 0 1
106.579 0 1
106.694 0 1
106.81 0 1
106.926 0 1
107.041 0 1
107.157 0 1
109.576 0 1
109.692 0 1
109.807 0 1
109.923 0 1
110.039 0 1
110.155 0 1
110.27 0 1
110.386 0 1
110.502 0 1
110.618 453 21.2838
110.735 583 24.1454
110.851 680 26.0768
110.967 741 27.2213
111.083 758 27.5318
111.199 832 28.8444
111.316 876 29.5973
111.432 950 30.8221
111.549 942 30.692
111.665 954 30.8869
111.782 1001 31.6386
111.898 977 31.257
112.015 934 30.5614
112.132 865 29.4109
112.248 809 28.4429
112.365 828 28.775
112.482 824 28.7054
112.599 934 30.5614
112.716 949 30.8058
112.832 967 31.0966
112.949 991 31.4802
113.066 932 30.5287
113.183 971 31.1609
113.3 982 31.3369
113.417 949 30.8058
113.534 944 30.7246
113.652 782 27.9643
113.769 760 27.5681
113.886 727 26.9629
114.003 700 26.4575
114.12 751 27.4044
114.238 816 28.5657
114.355 930 30.4959
114.472 865 29.4109
114.589 991 31.4802
114.707 932 30.5287
114.824 1000 31.6228
114.942 1039 32.2335
115.059 1052 32.4345
115.176 1050 32.4037
115.294 1091 33.0303
115.411 1022 31.9687
115.529 953 30.8707
115.646 964 31.0483
115.764 968 31.1127
115.881 847 29.1033
115.999 881 29.6816
116.116 903 30.05
116.234 886 29.7658
116.351 1030 32.0936
116.469 1005 31.7017
116.586 950 30.8221
116.704 1030 32.0936
116.821 975 31.225
116.939 978 31.273
117.056 1006 31.7175
117.174 851 29.1719
117.291 752 27.4226
117.409 735 27.1109
117.526 628 25.0599
117.644 681 26.096
117.761 770 27.7489
117.879 826 28.7402
117.996 822 28.6705
118.114 875 29.5804
118.231 905 30.0832
118.349 907 30.1164
118.466 901 30.0167
118.584 892 29.8664
118.701 965 31.0644
118.819 897 29.95
118.936 943 30.7083
119.053 901 30.0167
119.171 866 29.4279
119.288 825 28.7228
119.405 817 28.5832
119.523 788 28.0713
119.64 737 27.1477
119.757 749 27.3679
119.875 800 28.2843
119.992 862 29.3598
120.109 869 29.4788
120.226 873 29.5466
120.343 865 29.4109
120.46 909 30.1496
120.578 865 29.4109
120.695 836 28.9137
120.812 820 28.6356
120.929 722 26.8701
121.046 685 26.1725
121.163 627 25.04
121.279 615 24.7992
121.396 567 23.8118
121.513 658 25.6515
121.63 685 26.1725
121.747 743 27.258
121.863 744 27.2764
121.98 728 26.9815
122.097 695 26.3629
122.213 717 26.7769
122.33 745 27.2947
122.446 637 25.2389
122.563 625 25
122.679 614 24.779
122.795 563 23.7276
122.912 483 21.9773
123.028 424 20.5913
123.144 392 19.799
123.26 343 18.5203
123.377 0 1
123.493 0 1
123.609 0 1
123.725 0 1
123.84 0 1
123.956 0 1
124.072 0 1
124.188 0 1
124.303 0 1
124.419 0 1
126.852 0 1
126.968 0 1
127.083 0 1
127.199 0 1
127.315 0 1
127.431 0 1
127.547 0 1
127.663 0 1
127.779 0 1
127.895 0 1
128.011 0 1
128.127 0 1
128.243 0 1
128.359 844 29.0517
128.476 863 29.3769
128.592 842 29.0172
128.708 893 29.8831
128.825 895 29.9166
128.941 925 30.4138
129.058 967 31.0966
129.174 1026 32.0312
129.291 1028 32.0624
129.408 1030 32.0936
129.524 934 30.5614
129.641 1052 32.4345
129.758 967 31.0966
129.875 928 30.4631
129.992 804 28.3549
130.108 769 27.7308
130.225 733 27.074
130.342 734 27.0924
130.459 754 27.4591
130.576 914 30.2324
130.693 889 29.8161
130.81 938 30.6268
130.928 908 30.133
131.045 933 30.545
131.162 999 31.607
131.279 1022 31.9687
131.396 1038 32.218
131.513 963 31.0322
131.631 967 31.0966
131.748 921 30.348
131.865 936 30.5941
131.983 969 31.1288
132.1 903 30.05
132.217 904 30.0666
132.335 890 29.8329
132.452 930 30.4959
132.57 956 30.9192
132.687 1004 31.686
132.804 1002 31.6544
132.922 1023 31.9844
133.039 1030 32.0936
133.157 975 31.225
133.274 988 31.4325
133.392 875 29.5804
133.509 857 29.2746
133.627 823 28.688
133.744 782 27.9643
133.862 754 27.4591
133.979 748 27.3496
134.097 823 28.688
134.214 917 30.282
134.332 889 29.8161
134.449 908 30.133
134.567 910 30.1662
134.684 1034 32.1559
134.802 966 31.0805
134.919 984 31.3688
135.037 1043 32.2955
135.154 941 30.6757
135.272 981 31.3209
135.389 941 30.6757
135.507 951 30.8383
135.624 905 30.0832
135.742 905 30.0832
135.859 872 29.5296
135.977 883 29.7153
136.094 919 30.315
136.211 986 31.4006
136.329 994 31.5278
136.446 1022 31.9687
136.564 1033 32.1403
136.681 1005 31.7017
136.798 1032 32.1248
136.915 977 31.257
137.033 984 31.3688
137.15 919 30.315
137.267 862 29.3598
137.384 792 28.1425
137.502 716 26.7582
137.619 773 27.8029
137.736 865 29.4109
137.853 881 29.6816
137.97 913 30.2159
138.087 876 29.5973
138.204 945 30.7409
138.321 872 29.5296
138.438 993 31.5119
138.555 1036 32.187
138.672 976 31.241
138.788 979 31.289
138.905 957 30.9354
139.022 856 29.2575
139.139 844 29.0517
139.255 780 27.9285
139.372 731 27.037
139.488 650 25.4951
139.605 684 26.1534
139.721 669 25.865
139.838 717 26.7769
139.954 647 25.4362
140.071 630 25.0998
140.187 597 24.4336
140.303 561 23.6854
140.419 480 21.9089
140.535 521 22.8254
140.652 446 21.1187
140.768 0 1
140.884 0 1
141 0 1
141.115 0 1
141.231 0 1
141.347 0 1
141.463 0 1
141.578 0 1
141.694 0 1
144.104 0 1
144.219 0 1
144.335 0 1
144.45 0 1
144.566 0 1
144.682 0 1
144.798 0 1
144.914 0 1
145.03 0 1
145.146 705 26.5518
145.262 769 27.7308
145.378 799 28.2666
145.494 759 27.55
145.61 799 28.2666
145.726 783 27.9821
145.842 742 27.2397
145.959 691 26.2869
146.075 651 25.5147
146.192 623 24.96
146.308 606 24.6171
146.425 683 26.1343
146.541 635 25.1992
146.658 717 26.7769
146.774 734 27.0924
146.891 724 26.9072
147.008 779 27.9106
147.125 775 27.8388
147.241 739 27.1846
147.358 754 27.4591
147.475 789 28.0891
147.592 787 28.0535
147.709 785 28.0179
147.826 704 26.533
147.943 760 27.5681
148.06 748 27.3496
148.177 724 26.9072
148.294 714 26.7208
148.411 753 27.4408
148.528 711 26.6646
148.645 756 27.4955
148.762 752 27.4226
148.88 801 28.3019
148.997 758 27.5318
149.114 771 27.7669
149.231 764 27.6405
149.349 822 28.6705
149.466 772 27.7849
149.583 713 26.7021
149.701 675 25.9808
149.818 651 25.5147
149.935 621 24.9199
150.053 677 26.0192
150.17 629 25.0799
150.287 657 25.632
150.405 702 26.4953
150.522 727 26.9629
150.64 729 27
150.757 734 27.0924
150.875 770 27.7489
150.992 780 27.9285
151.11 788 28.0713
151.227 770 27.7489
151.344 716 26.7582
151.462 766 27.6767
151.579 750 27.3861
151.697 668 25.8457
151.814 680 26.0768
151.932 678 26.0384
152.049 661 25.7099
152.167 673 25.9422
152.284 717 26.7769
152.402 706 26.5707
152.519 716 26.7582
152.636 756 27.4955
152.754 762 27.6043
152.871 806 28.3901
152.989 751 27.4044
153.106 728 26.9815
153.223 668 25.8457
153.341 574 23.9583
153.458 649 25.4755
153.575 576 24
153.693 605 24.5967
153.81 630 25.0998
153.927 677 26.0192
154.044 650 25.4951
154.162 621 24.9199
154.279 692 26.3059
154.396 660 25.6905
154.513 695 26.3629
154.63 718 26.7955
154.747 740 27.2029
154.864 750 27.3861
154.981 687 26.2107
155.098 624 24.98
155.215 635 25.1992
155.332 643 25.3574
155.449 582 24.1247
155.566 645 25.3969
155.683 642 25.3377
155.8 610 24.6982
155.917 675 25.9808
156.033 612 24.7386
156.15 0 1
156.267 0 1
156.383 0 1
156.5 0 1
156.617 0 1
156.733 0 1
156.85 0 1
156.966 0 1
157.082 0 1
157.199 0 1
157.315 0 1
157.431 0 1
157.547 0 1
157.664 0 1
157.78 0 1
157.896 0 1
158.012 0 1
158.128 0 1
158.244 0 1
158.359 0 1
158.475 0 1
158.591 0 1
158.706 0 1
