
6.15755 0 1
6.2731 0 1
6.3887 0 1
6.50437 0 1
6.62009 0 1
6.73587 0 1
6.8517 0 1
6.96759 0 1
7.08353 0 1
7.19952 0 1
7.31557 0 1
7.43166 0 1
7.54781 0 1
7.664 0 1
7.78024 0 1
7.89653 0 1
8.01286 0 1
8.12924 0 1
8.24567 0 1
8.36213 0 1
8.47864 0 1
8.59519 0 1
8.71178 0 1
8.82841 0 1
8.94508 0 1
9.06179 0 1
9.17853 0 1
9.29531 0 1
9.41212 0 1
9.52897 0 1
9.64584 0 1
9.76276 0 1
9.8797 0 1
9.99667 0 1
10.1137 0 1
10.2307 0 1
10.3478 0 1
10.4648 0 1
10.5819 0 1
10.6991 0 1
10.8162 0 1
10.9334 0 1
11.0506 0 1
11.1678 0 1
11.285 0 1
11.4023 0 1
11.5196 0 1
11.6369 0 1
11.7542 0 1
11.8715 0 1
11.9888 0 1
12.1062 0 1
12.2235 0 1
12.3409 0 1
12.4582 0 1
12.5756 0 1
12.693 0 1
12.8104 0 1
12.9278 0 1
13.0452 0 1
13.1626 0 1
13.28 0 1
13.3974 0 1
13.5149 0 1
13.6323 0 1
13.7497 0 1
13.8671 0 1
13.9845 0 1
14.1019 0 1
14.2193 0 1
14.3367 0 1
14.4541 0 1
14.5714 0 1
14.6888 0 1
14.8062 0 1
14.9235 0 1
15.0408 1971 44.3959
15.1581 1955 44.2154
15.2755 2072 45.5192
15.3927 2012 44.8553
15.51 2074 45.5412
15.6273 2079 45.5961
15.7445 2091 45.7275
15.8617 2043 45.1996
15.9789 2139 46.2493
16.0961 2096 45.7821
16.2132 2092 45.7384
16.3304 1952 44.1814
16.4475 2154 46.4112
16.5646 2232 47.244
16.6816 2334 48.3115
16.7986 2406 49.051
16.9156 2463 49.6286
17.0326 2396 48.949
17.1496 2415 49.1426
17.2665 2483 49.8297
17.3833 2436 49.3559
17.5002 2264 47.5815
17.617 2228 47.2017
17.7338 2231 47.2335
17.8505 2234 47.2652
17.9672 2000 44.7214
18.0839 2184 46.7333
18.2005 2167 46.551
18.3171 2218 47.0956
18.4337 2233 47.2546
18.5502 2321 48.1768
18.6666 2418 49.1732
18.7831 2347 48.4458
18.8994 2427 49.2646
19.0158 2285 47.8017
19.1321 2387 48.8569
19.2483 2108 45.913
19.3645 2140 46.2601
19.4806 2030 45.0555
19.5967 1922 43.8406
19.7128 1806 42.4971
19.8288 1643 40.5339
19.9447 1421 37.6962
20.0606 0 1
20.1764 0 1
20.2922 0 1
20.4079 0 1
20.5236 0 1
20.6392 0 1
20.7548 0 1
20.8702 0 1
23.3078 0 1
23.4233 0 1
23.539 0 1
23.6547 0 1
23.7704 0 1
23.8862 0 1
24.0021 0 1
24.118 0 1
24.234 0 1
24.35 0 1
24.4661 1030 32.0936
24.5822 1112 33.3467
24.6984 1359 36.8646
24.8146 1352 36.7696
24.9309 1600 40
25.0472 1713 41.3884
25.1636 1908 43.6807
25.28 2108 45.913
25.3965 2200 46.9042
25.513 2315 48.1144
25.6296 2518 50.1797
25.7462 2424 49.2341
25.8628 2674 51.7107
25.9795 2607 51.0588
26.0962 2670 51.672
26.213 2497 49.97
26.3298 2414 49.1325
26.4466 2260 47.5395
26.5635 2331 48.2804
26.6804 2305 48.0104
26.7973 2295 47.9062
26.9143 2336 48.3322
27.0313 2360 48.5798
27.1483 2451 49.5076
27.2653 2513 50.1298
27.3824 2467 49.6689
27.4996 2528 50.2792
27.6167 2428 49.2747
27.7339 2460 49.5984
27.8511 2340 48.3735
27.9683 2255 47.4868
28.0855 2212 47.0319
28.2028 2162 46.4973
28.3201 2165 46.5296
28.4374 2168 46.5618
28.5547 2105 45.8803
28.6721 2263 47.571
28.7894 2257 47.5079
28.9068 2447 49.4672
29.0242 2505 50.05
29.1416 2507 50.07
29.259 2561 50.6063
29.3764 2479 49.7896
29.4939 2569 50.6853
29.6113 2476 49.7594
29.7288 2345 48.4252
29.8463 2255 47.4868
29.9638 2211 47.0213
30.0812 2174 46.6262
30.1987 2061 45.3982
30.3162 2196 46.8615
30.4337 2229 47.2123
30.5512 2291 47.8644
30.6687 2308 48.0416
30.7862 2308 48.0416
30.9037 2423 49.224
31.0212 2394 48.9285
31.1387 2386 48.8467
31.2562 2313 48.0937
31.3737 2402 49.0102
31.4912 2290 47.8539
31.6087 2146 46.3249
31.7262 2203 46.9361
31.8436 2020 44.9444
31.9611 2144 46.3033
32.0785 2119 46.0326
32.1959 2154 46.4112
32.3134 2191 46.8081
32.4308 2295 47.9062
32.5482 2486 49.8598
32.6655 2427 49.2646
32.7829 2551 50.5074
32.9002 2481 49.8096
33.0176 2502 50.02
33.1349 2418 49.1732
33.2522 2360 48.5798
33.3694 2242 47.3498
33.4867 2272 47.6655
33.6039 2065 45.4423
33.7211 1992 44.6318
33.8383 1984 44.5421
33.9554 2078 45.5851
34.0725 2084 45.6508
34.1896 2209 47
34.3067 2192 46.8188
34.4237 2249 47.4236
34.5407 2310 48.0625
34.6577 2346 48.4355
34.7746 2333 48.3011
34.8915 2302 47.9792
35.0084 2147 46.3357
35.1252 2187 46.7654
35.242 2166 46.5403
35.3587 2069 45.4863
35.4755 2178 46.669
35.5921 2076 45.5631
35.7088 1976 44.4522
35.8254 2026 45.0111
35.9419 1983 44.5309
36.0584 2094 45.7602
36.1749 2124 46.0869
36.2913 2119 46.0326
36.4077 2170 46.5833
36.524 2085 45.6618
36.6403 2049 45.2659
36.7565 1964 44.317
36.8727 1871 43.2551
36.9889 1742 41.7373
37.1049 1540 39.2428
37.221 0 1
37.3369 0 1
37.4529 0 1
37.5687 0 1
37.6845 0 1
37.8003 0 1
37.916 0 1
38.0316 0 1
38.1472 0 1
40.5851 0 1
40.7008 0 1
40.8164 0 1
40.9322 0 1
41.048 0 1
41.1639 0 1
41.2798 0 1
41.3958 0 1
41.5118 0 1
41.6279 0 1
41.744 1129 33.6006
41.8602 1295 35.9861
41.9765 1399 37.4032
42.0928 1453 38.1182
42.2091 1375 37.081
42.3255 1358 36.8511
42.4419 1371 37.027
42.5584 1374 37.0675
42.675 1450 38.0789
42.7915 1722 41.497
42.9081 1720 41.4729
43.0248 1729 41.5812
43.1415 1808 42.5206
43.2582 1840 42.8952
43.375 1880 43.359
43.4918 1928 43.909
43.6087 1845 42.9535
43.7256 1934 43.9773
43.8425 1877 43.3244
43.9595 1849 43
44.0765 1825 42.72
44.1935 1717 41.4367
44.3106 1667 40.8289
44.4277 1679 40.9756
44.5448 1582 39.7744
44.6619 1632 40.398
44.7791 1726 41.5452
44.8963 1818 42.638
45.0136 1960 44.2719
45.1308 1954 44.2041
45.2481 1955 44.2154
45.3654 1949 44.1475
45.4827 2009 44.8219
45.6001 1893 43.5086
45.7174 1831 42.7902
45.8348 1810 42.5441
45.9522 1704 41.2795
46.0697 1562 39.5221
46.1871 1561 39.5095
46.3046 1609 40.1123
46.422 1687 41.0731
46.5395 1798 42.4028
46.657 1797 42.391
46.7745 1886 43.4281
46.892 1904 43.6348
47.0096 1972 44.4072
47.1271 1947 44.1248
47.2446 2004 44.7661
47.3622 1965 44.3283
47.4797 2033 45.0888
47.5973 1860 43.1277
47.7149 1841 42.9069
47.8324 1752 41.8569
47.95 1735 41.6533
48.0675 1710 41.3521
48.1851 1656 40.694
48.3027 1727 41.5572
48.4202 1785 42.2493
48.5378 1931 43.9431
48.6554 1971 44.3959
48.7729 1960 44.2719
48.8904 2005 44.7772
49.008 2040 45.1664
49.1255 2004 44.7661
49.243 1918 43.795
49.3605 1797 42.391
49.478 1690 41.1096
49.5955 1564 39.5474
49.713 1529 39.1024
49.8304 1592 39.8999
49.9479 1649 40.6079
50.0653 1798 42.4028
50.1827 1896 43.5431
50.3001 1861 43.1393
50.4175 1942 44.0681
50.5348 1965 44.3283
50.6521 2023 44.9778
50.7694 2119 46.0326
50.8867 1969 44.3734
51.004 1973 44.4185
51.1212 1928 43.909
51.2384 1896 43.5431
51.3556 1893 43.5086
51.4727 1860 43.1277
51.5899 1831 42.7902
51.707 1707 41.3159
51.824 1898 43.566
51.9411 2041 45.1774
52.0581 2124 46.0869
52.175 2183 46.7226
52.2919 2336 48.3322
52.4088 2380 48.7852
52.5257 2383 48.816
52.6425 2489 49.8899
52.7593 2518 50.1797
52.876 2402 49.0102
52.9927 2280 47.7493
53.1094 2133 46.1844
53.226 2041 45.1774
53.3426 1903 43.6234
53.4591 1999 44.7102
53.5756 1916 43.7721
53.692 1983 44.5309
53.8084 1879 43.3474
53.9248 1857 43.0929
54.0411 1803 42.4617
54.1573 1734 41.6413
54.2735 0 1
54.3896 0 1
54.5057 0 1
54.6217 0 1
54.7377 0 1
54.8537 0 1
54.9695 0 1
55.0853 0 1
55.2011 0 1
55.3168 0 1
55.4324 0 1
57.824 0 1
57.9396 0 1
58.0553 0 1
58.1711 0 1
58.2869 0 1
58.4028 0 1
58.5187 0 1
58.6347 0 1
58.7508 0 1
58.8669 0 1
58.983 1543 39.281
59.0992 1834 42.8252
59.2155 1991 44.6206
59.3318 2114 45.9783
59.4482 2198 46.8828
59.5646 2201 46.9148
59.681 2300 47.9583
59.7975 2256 47.4974
59.9141 2201 46.9148
60.0306 2135 46.2061
60.1473 2289 47.8435
60.2639 2165 46.5296
60.3807 2176 46.6476
60.4974 2139 46.2493
60.6142 2271 47.655
60.731 2331 48.2804
60.8479 2418 49.1732
60.9648 2460 49.5984
61.0818 2558 50.5767
61.1987 2411 49.1019
61.3158 2429 49.2849
61.4328 2346 48.4355
61.5499 2212 47.0319
61.667 2080 45.607
61.7841 1994 44.6542
61.9013 1901 43.6005
62.0185 1887 43.4396
62.1357 2022 44.9667
62.253 2175 46.6369
62.3702 2185 46.744
62.4875 2314 48.1041
62.6049 2403 49.0204
62.7222 2421 49.2037
62.8396 2561 50.6063
62.9569 2497 49.97
63.0743 2408 49.0714
63.1918 2417 49.163
63.3092 2269 47.634
63.4267 2260 47.5395
63.5441 2208 46.9894
63.6616 2173 46.6154
63.7791 2019 44.9333
63.8966 2091 45.7275
64.0142 2031 45.0666
64.1317 2092 45.7384
64.2492 2311 48.0729
64.3668 2385 48.8365
64.4843 2455 49.548
64.6019 2455 49.548
64.7195 2446 49.4571
64.837 2480 49.7996
64.9546 2369 48.6724
65.0722 2279 47.7389
65.1898 2104 45.8694
65.3074 1893 43.5086
65.4249 1872 43.2666
65.5425 1792 42.332
65.6601 1865 43.1856
65.7777 1967 44.3509
65.8952 2160 46.4758
66.0128 2168 46.5618
66.1304 2250 47.4342
66.2479 2391 48.8979
66.3655 2364 48.621
66.483 2408 49.0714
66.6005 2476 49.7594
66.718 2286 47.8121
66.8355 2439 49.3862
66.953 2244 47.3709
67.0705 2325 48.2183
67.1879 2224 47.1593
67.3054 1994 44.6542
67.4228 1964 44.317
67.5402 1819 42.6497
67.6576 1896 43.5431
67.7749 2078 45.5851
67.8923 2174 46.6262
68.0096 2137 46.2277
68.1269 2345 48.4252
68.2442 2241 47.3392
68.3614 2350 48.4768
68.4787 2415 49.1426
68.5958 2341 48.3839
68.713 2150 46.3681
68.8302 2129 46.1411
68.9473 1846 42.9651
69.0643 1728 41.5692
69.1814 1664 40.7922
69.2984 1794 42.3556
69.4154 1941 44.0568
69.5323 2025 45
69.6492 2136 46.2169
69.7661 2229 47.2123
69.8829 2216 47.0744
69.9997 2240 47.3286
70.1165 2176 46.6476
70.2332 2045 45.2217
70.3499 1883 43.3935
70.4665 1899 43.5775
70.5831 1812 42.5676
70.6996 1627 40.3361
70.8161 1592 39.8999
70.9326 1447 38.0395
71.049 1241 35.2278
71.1653 1125 33.541
71.2817 968 31.1127
71.3979 882 29.6985
71.5141 871 29.5127
71.6303 833 28.8617
71.7464 801 28.3019
71.8624 0 1
71.9784 0 1
72.0944 0 1
72.2102 0 1
72.3261 0 1
72.4418 0 1
72.5575 0 1
72.6732 0 1
75.1054 0 1
75.2209 0 1
75.3365 0 1
75.4521 0 1
75.5678 0 1
75.6835 0 1
75.7993 0 1
75.9151 0 1
76.031 0 1
76.147 1421 37.6962
76.263 1594 39.9249
76.3791 1490 38.6005
76.4952 1549 39.3573
76.6113 1491 38.6135
76.7276 1666 40.8167
76.8438 1821 42.6732
76.9601 1872 43.2666
77.0765 2049 45.2659
77.1929 2060 45.3872
77.3093 1994 44.6542
77.4258 2141 46.2709
77.5423 2033 45.0888
77.6589 2024 44.9889
77.7755 1758 41.9285
77.8921 1624 40.2989
78.0088 1520 38.9872
78.1256 1440 37.9473
78.2423 1429 37.8021
78.3591 1564 39.5474
78.4759 1700 41.2311
78.5928 1774 42.1189
78.7097 1863 43.1625
78.8266 1907 43.6692
78.9436 2042 45.1885
79.0606 2034 45.0999
79.1776 2001 44.7325
79.2946 2052 45.299
79.4117 2099 45.8148
79.5288 2070 45.4973
79.6459 1942 44.0681
79.7631 2007 44.7996
79.8802 1956 44.2267
79.9974 1782 42.2137
80.1147 1650 40.6202
80.2319 1637 40.4599
80.3491 1724 41.5211
80.4664 1845 42.9535
80.5837 1918 43.795
80.701 2050 45.2769
80.8183 2021 44.9555
80.9357 2126 46.1086
81.053 2163 46.5081
81.1704 2115 45.9891
81.2877 2102 45.8476
81.4051 1949 44.1475
81.5225 1782 42.2137
81.6399 1686 41.0609
81.7573 1513 38.8973
81.8747 1464 38.2623
81.9922 1481 38.4838
82.1096 1729 41.5812
82.227 1852 43.0349
82.3444 1982 44.5197
82.4619 1947 44.1248
82.5793 2034 45.0999
82.6967 2000 44.7214
82.8142 2120 46.0435
82.9316 2109 45.9239
83.049 2208 46.9894
83.1664 2146 46.3249
83.2838 2052 45.299
83.4012 2109 45.9239
83.5186 1942 44.0681
83.636 1959 44.2606
83.7534 1806 42.4971
83.8708 1703 41.2674
83.9881 1739 41.7013
84.1055 1764 42
84.2228 1912 43.7264
84.3401 2037 45.1331
84.4575 2131 46.1628
84.5747 2141 46.2709
84.692 2209 47
84.8093 2168 46.5618
84.9265 2200 46.9042
85.0437 1917 43.7836
85.1609 1781 42.2019
85.2781 1618 40.2244
85.3952 1529 39.1024
85.5123 1455 38.1445
85.6294 1526 39.064
85.7465 1719 41.4608
85.8636 1853 43.0465
85.9806 1912 43.7264
86.0976 2056 45.3431
86.2145 2093 45.7493
86.3315 2161 46.4866
86.4484 2116 46
86.5652 2231 47.2335
86.682 2160 46.4758
86.7988 2104 45.8694
86.9156 2200 46.9042
87.0323 1959 44.2606
87.149 2000 44.7214
87.2657 1894 43.5201
87.3823 1669 40.8534
87.4988 1539 39.2301
87.6154 1457 38.1707
87.7318 1493 38.6394
87.8483 1554 39.4208
87.9647 1649 40.6079
88.081 1718 41.4488
88.1973 1717 41.4367
88.3136 1581 39.7618
88.4298 1462 38.2361
88.546 1433 37.855
88.6621 1178 34.322
88.7781 906 30.0998
88.8942 0 1
89.0101 0 1
89.126 0 1
89.2419 0 1
89.3577 0 1
89.4734 0 1
89.5891 0 1
89.7047 0 1
89.8203 0 1
89.9358 0 1
92.3269 0 1
92.4424 0 1
92.558 0 1
92.6736 0 1
92.7893 0 1
92.905 0 1
93.0208 0 1
93.1366 0 1
93.2525 0 1
93.3685 0 1
93.4845 0 1
93.6005 1624 40.2989
93.7167 1762 41.9762
93.8328 1880 43.359
93.949 1906 43.6578
94.0653 1904 43.6348
94.1816 1814 42.5911
94.2979 1707 41.3159
94.4143 1642 40.5216
94.5307 1547 39.3319
94.6472 1546 39.3192
94.7637 1635 40.4351
94.8803 1769 42.0595
94.9969 1872 43.2666
95.1135 1987 44.5758
95.2302 2091 45.7275
95.3469 2059 45.3762
95.4637 2122 46.0652
95.5805 2236 47.2864
95.6973 2202 46.9255
95.8142 2342 48.3942
95.9311 2077 45.5741
96.048 2108 45.913
96.1649 2127 46.1194
96.2819 2129 46.1411
96.3989 2044 45.2106
96.516 1942 44.0681
96.633 1779 42.1782
96.7501 1709 41.3401
96.8673 1826 42.7317
96.9844 1937 44.0114
97.1016 2040 45.1664
97.2188 2163 46.5081
97.336 2299 47.9479
97.4532 2266 47.6025
97.5704 2302 47.9792
97.6877 2141 46.2709
97.805 2136 46.2169
97.9223 1977 44.4635
98.0396 1833 42.8135
98.1569 1709 41.3401
98.2743 1635 40.4351
98.3916 1549 39.3573
98.509 1659 40.7308
98.6264 1847 42.9767
98.7438 1990 44.6094
98.8612 2075 45.5522
98.9786 2191 46.8081
99.096 2242 47.3498
99.2134 2367 48.6518
99.3308 2307 48.0312
99.4482 2285 47.8017
99.5656 2304 48
99.6831 2317 48.1352
99.8005 2374 48.7237
99.9179 2228 47.2017
100.035 2225 47.1699
100.153 2127 46.1194
100.27 1920 43.8178
100.388 2027 45.0222
100.505 1988 44.587
100.622 2208 46.9894
100.74 2312 48.0833
100.857 2337 48.3425
100.975 2264 47.5815
101.092 2392 48.9081
101.209 2602 51.0098
101.327 2387 48.8569
101.444 2274 47.6865
101.561 2047 45.2438
101.679 1803 42.4617
101.796 1729 41.5812
101.913 1620 40.2492
102.03 1638 40.4722
102.148 1893 43.5086
102.265 2047 45.2438
102.382 2158 46.4543
102.499 2213 47.0425
102.616 2360 48.5798
102.733 2394 48.9285
102.851 2391 48.8979
102.968 2419 49.1833
103.085 2447 49.4672
103.202 2500 50
103.319 2367 48.6518
103.436 2361 48.5901
103.552 2278 47.7284
103.669 2230 47.2229
103.786 2030 45.0555
103.903 2056 45.3431
104.02 2049 45.2659
104.137 2153 46.4004
104.253 2340 48.3735
104.37 2382 48.8057
104.487 2508 50.0799
104.603 2503 50.03
104.72 2467 49.6689
104.836 2346 48.4355
104.953 2121 46.0543
105.069 1883 43.3935
105.186 1733 41.6293
105.302 1533 39.1535
105.418 1534 39.1663
105.535 1443 37.9868
105.651 1480 38.4708
105.767 1547 39.3319
105.883 1564 39.5474
105.999 1392 37.3095
106.115 0 1
106.231 0 1
106.347 0 1
106.463 0 1
106.579 0 1
106.694 0 1
106.81 0 1
106.926 0 1
107.041 0 1
107.157 0 1
109.576 0 1
109.692 0 1
109.807 0 1
109.923 0 1
110.039 0 1
110.155 0 1
110.27 0 1
110.386 0 1
110.502 0 1
110.618 1055 32.4808
110.735 1357 36.8375
110.851 1530 39.1152
110.967 1689 41.0974
111.083 1889 43.4626
111.199 1965 44.3283
111.316 2164 46.5188
111.432 2143 46.2925
111.549 2192 46.8188
111.665 2300 47.9583
111.782 2338 48.3529
111.898 2219 47.1063
112.015 2185 46.744
112.132 2013 44.8665
112.248 1873 43.2782
112.365 1884 43.4051
112.482 1886 43.4281
112.599 2144 46.3033
112.716 2145 46.3141
112.832 2312 48.0833
112.949 2372 48.7032
113.066 2275 47.697
113.183 2301 47.9687
113.3 2294 47.8957
113.417 2252 47.4552
113.534 2119 46.0326
113.652 1946 44.1135
113.769 1785 42.2493
113.886 1663 40.7799
114.003 1568 39.598
114.12 1688 41.0853
114.238 1989 44.5982
114.355 1986 44.5646
114.472 2052 45.299
114.589 2226 47.1805
114.707 2262 47.5605
114.824 2229 47.2123
114.942 2292 47.8748
115.059 2340 48.3735
115.176 2293 47.8853
115.294 2265 47.592
115.411 2314 48.1041
115.529 2236 47.2864
115.646 2207 46.9787
115.764 2109 45.9239
115.881 1983 44.5309
115.999 1940 44.0454
116.116 1945 44.1022
116.234 2079 45.5961
116.351 2227 47.1911
116.469 2220 47.1169
116.586 2287 47.8226
116.704 2275 47.697
116.821 2305 48.0104
116.939 2239 47.3181
117.056 2183 46.7226
117.174 2011 44.8442
117.291 1845 42.9535
117.409 1642 40.5216
117.526 1589 39.8623
117.644 1622 40.2741
117.761 1780 42.19
117.879 1887 43.4396
117.996 2024 44.9889
118.114 2144 46.3033
118.231 2202 46.9255
118.349 2209 47
118.466 2228 47.2017
118.584 2201 46.9148
118.701 2201 46.9148
118.819 2199 46.8935
118.936 2225 47.1699
119.053 2157 46.4435
119.171 2123 46.076
119.288 2043 45.1996
119.405 1923 43.852
119.523 1861 43.1393
119.64 1893 43.5086
119.757 1903 43.6234
119.875 1939 44.0341
119.992 2049 45.2659
120.109 2190 46.7974
120.226 2220 47.1169
120.343 2067 45.4643
120.46 2222 47.1381
120.578 2109 45.9239
120.695 2135 46.2061
120.812 2068 45.4753
120.929 1869 43.2319
121.046 1667 40.8289
121.163 1557 39.4588
121.279 1493 38.6394
121.396 1612 40.1497
121.513 1591 39.8873
121.63 1761 41.9643
121.747 1719 41.4608
121.863 1773 42.107
121.98 1618 40.2244
122.097 1751 41.845
122.213 1778 42.1663
122.33 1651 40.6325
122.446 1630 40.3733
122.563 1545 39.3065
122.679 1480 38.4708
122.795 1371 37.027
122.912 1254 35.4119
123.028 1077 32.8177
123.144 1011 31.7962
123.26 929 30.4795
123.377 0 1
123.493 0 1
123.609 0 1
123.725 0 1
123.84 0 1
123.956 0 1
124.072 0 1
124.188 0 1
124.303 0 1
124.419 0 1
126.852 0 1
126.968 0 1
127.083 0 1
127.199 0 1
127.315 0 1
127.431 0 1
127.547 0 1
127.663 0 1
127.779 0 1
127.895 0 1
128.011 0 1
128.127 0 1
128.243 0 1
128.359 2006 44.7884
128.476 2107 45.9021
128.592 2084 45.6508
128.708 2034 45.0999
128.825 2090 45.7165
128.941 2226 47.1805
129.058 2264 47.5815
129.174 2392 48.9081
129.291 2297 47.927
129.408 2461 49.6085
129.524 2369 48.6724
129.641 2388 48.8672
129.758 2189 46.7868
129.875 2009 44.8219
129.992 1962 44.2945
130.108 1824 42.7083
130.225 1705 41.2916
130.342 1724 41.5211
130.459 1829 42.7668
130.576 2008 44.8107
130.693 2079 45.5961
130.81 2238 47.3075
130.928 2231 47.2335
131.045 2234 47.2652
131.162 2234 47.2652
131.279 2312 48.0833
131.396 2255 47.4868
131.513 2325 48.2183
131.631 2309 48.0521
131.748 2274 47.6865
131.865 2246 47.392
131.983 2129 46.1411
132.1 2134 46.1952
132.217 2093 45.7493
132.335 2063 45.4203
132.452 2153 46.4004
132.57 2296 47.9166
132.687 2335 48.3218
132.804 2338 48.3529
132.922 2409 49.0816
133.039 2283 47.7807
133.157 2410 49.0918
133.274 2397 48.9592
133.392 2372 48.7032
133.509 2077 45.5741
133.627 1880 43.359
133.744 1752 41.8569
133.862 1721 41.4849
133.979 1782 42.2137
134.097 1945 44.1022
134.214 2136 46.2169
134.332 2102 45.8476
134.449 2187 46.7654
134.567 2269 47.634
134.684 2310 48.0625
134.802 2371 48.6929
134.919 2322 48.1871
135.037 2266 47.6025
135.154 2462 49.6185
135.272 2307 48.0312
135.389 2273 47.676
135.507 2217 47.085
135.624 2098 45.8039
135.742 2045 45.2217
135.859 2027 45.0222
135.977 2203 46.9361
136.094 2236 47.2864
136.211 2267 47.613
136.329 2311 48.0729
136.446 2397 48.9592
136.564 2457 49.5681
136.681 2457 49.5681
136.798 2456 49.558
136.915 2260 47.5395
137.033 2219 47.1063
137.15 2206 46.9681
137.267 1932 43.9545
137.384 1754 41.8808
137.502 1857 43.0929
137.619 1781 42.2019
137.736 1977 44.4635
137.853 2011 44.8442
137.97 2109 45.9239
138.087 2125 46.0977
138.204 2191 46.8081
138.321 2315 48.1144
138.438 2361 48.5901
138.555 2359 48.5695
138.672 2371 48.6929
138.788 2282 47.7703
138.905 2103 45.8585
139.022 2050 45.2769
139.139 1925 43.8748
139.255 1710 41.3521
139.372 1617 40.2119
139.488 1631 40.3856
139.605 1506 38.8072
139.721 1531 39.128
139.838 1581 39.7618
139.954 1511 38.8716
140.071 1486 38.5487
140.187 1321 36.3456
140.303 1309 36.1801
140.419 1187 34.4529
140.535 1140 33.7639
140.652 979 31.289
140.768 0 1
140.884 0 1
141 0 1
141.115 0 1
141.231 0 1
141.347 0 1
141.463 0 1
141.578 0 1
141.694 0 1
144.104 0 1
144.219 0 1
144.335 0 1
144.45 0 1
144.566 0 1
144.682 0 1
144.798 0 1
144.914 0 1
145.03 0 1
145.146 1720 41.4729
145.262 1764 42
145.378 1861 43.1393
145.494 1933 43.9659
145.61 1853 43.0465
145.726 1736 41.6653
145.842 1702 41.2553
145.959 1692 41.1339
146.075 1453 38.1182
146.192 1379 37.1349
146.308 1419 37.6696
146.425 1456 38.1576
146.541 1624 40.2989
146.658 1624 40.2989
146.774 1656 40.694
146.891 1707 41.3159
147.008 1730 41.5933
147.125 1798 42.4028
147.241 1858 43.1045
147.358 1834 42.8252
147.475 1787 42.2729
147.592 1794 42.3556
147.709 1789 42.2966
147.826 1749 41.821
147.943 1674 40.9145
148.06 1713 41.3884
148.177 1609 40.1123
148.294 1664 40.7922
148.411 1676 40.939
148.528 1724 41.5211
148.645 1840 42.8952
148.762 1849 43
148.88 1890 43.4741
148.997 1879 43.3474
149.114 1847 42.9767
149.231 1876 43.3128
149.349 1767 42.0357
149.466 1756 41.9047
149.583 1719 41.4608
149.701 1560 39.4968
149.818 1515 38.923
149.935 1443 37.9868
150.053 1511 38.8716
150.17 1501 38.7427
150.287 1666 40.8167
150.405 1676 40.939
150.522 1674 40.9145
150.64 1719 41.4608
150.757 1765 42.0119
150.875 1814 42.5911
150.992 1766 42.0238
151.11 1753 41.8688
151.227 1841 42.9069
151.344 1714 41.4005
151.462 1649 40.6079
151.579 1631 40.3856
151.697 1596 39.95
151.814 1620 40.2492
151.932 1622 40.2741
152.049 1583 39.7869
152.167 1741 41.7253
152.284 1696 41.1825
152.402 1747 41.7971
152.519 1753 41.8688
152.636 1799 42.4146
152.754 1772 42.0951
152.871 1832 42.8019
152.989 1692 41.1339
153.106 1731 41.6053
153.223 1593 39.9124
153.341 1495 38.6652
153.458 1462 38.2361
153.575 1424 37.7359
153.693 1401 37.4299
153.81 1484 38.5227
153.927 1523 39.0256
154.044 1555 39.4335
154.162 1519 38.9744
154.279 1602 40.025
154.396 1578 39.724
154.513 1693 41.1461
154.63 1704 41.2795
154.747 1657 40.7063
154.864 1685 41.0488
154.981 1623 40.2865
155.098 1503 38.7685
155.215 1525 39.0512
155.332 1505 38.7943
155.449 1507 38.8201
155.566 1452 38.1051
155.683 1522 39.0128
155.8 1512 38.8844
155.917 1542 39.2683
156.033 1528 39.0896
156.15 0 1
156.267 0 1
156.383 0 1
156.5 0 1
156.617 0 1
156.733 0 1
156.85 0 1
156.966 0 1
157.082 0 1
157.199 0 1
157.315 0 1
157.431 0 1
157.547 0 1
157.664 0 1
157.78 0 1
157.896 0 1
158.012 0 1
158.128 0 1
158.244 0 1
158.359 0 1
158.475 0 1
158.591 0 1
158.706 0 1
