
6.15755 0 1
6.2731 0 1
6.3887 0 1
6.50437 0 1
6.62009 0 1
6.73587 0 1
6.8517 0 1
6.96759 0 1
7.08353 0 1
7.19952 0 1
7.31557 0 1
7.43166 0 1
7.54781 0 1
7.664 0 1
7.78024 0 1
7.89653 0 1
8.01286 0 1
8.12924 0 1
8.24567 0 1
8.36213 0 1
8.47864 0 1
8.59519 0 1
8.71178 0 1
8.82841 0 1
8.94508 0 1
9.06179 0 1
9.17853 0 1
9.29531 0 1
9.41212 0 1
9.52897 0 1
9.64584 0 1
9.76276 0 1
9.8797 0 1
9.99667 0 1
10.1137 0 1
10.2307 0 1
10.3478 0 1
10.4648 0 1
10.5819 0 1
10.6991 0 1
10.8162 0 1
10.9334 0 1
11.0506 0 1
11.1678 0 1
11.285 0 1
11.4023 0 1
11.5196 0 1
11.6369 0 1
11.7542 0 1
11.8715 0 1
11.9888 0 1
12.1062 0 1
12.2235 0 1
12.3409 0 1
12.4582 0 1
12.5756 0 1
12.693 0 1
12.8104 0 1
12.9278 0 1
13.0452 0 1
13.1626 0 1
13.28 0 1
13.3974 0 1
13.5149 0 1
13.6323 0 1
13.7497 0 1
13.8671 0 1
13.9845 0 1
14.1019 0 1
14.2193 0 1
14.3367 0 1
14.4541 0 1
14.5714 0 1
14.6888 0 1
14.8062 0 1
14.9235 0 1
15.0408 25892 160.91
15.1581 26740 163.524
15.2755 27380 165.469
15.3927 26911 164.046
15.51 26988 164.28
15.6273 26989 164.283
15.7445 26555 162.957
15.8617 26278 162.105
15.9789 25591 159.972
16.0961 25323 159.132
16.2132 25313 159.101
16.3304 25533 159.79
16.4475 25846 160.767
16.5646 26010 161.276
16.6816 26523 162.859
16.7986 26702 163.407
16.9156 26784 163.658
17.0326 27039 164.435
17.1496 27048 164.463
17.2665 27641 166.256
17.3833 27613 166.172
17.5002 27992 167.308
17.617 28284 168.178
17.7338 28760 169.588
17.8505 29887 172.879
17.9672 31112 176.386
18.0839 32129 179.246
18.2005 33485 182.989
18.3171 33890 184.092
18.4337 34354 185.348
18.5502 34755 186.427
18.6666 34411 185.502
18.7831 34088 184.629
18.8994 33583 183.257
19.0158 32488 180.244
19.1321 31375 177.13
19.2483 30241 173.899
19.3645 29476 171.686
19.4806 29086 170.546
19.5967 28169 167.836
19.7128 27831 166.826
19.8288 27022 164.384
19.9447 24386 156.16
20.0606 0 1
20.1764 0 1
20.2922 0 1
20.4079 0 1
20.5236 0 1
20.6392 0 1
20.7548 0 1
20.8702 0 1
23.3078 0 1
23.4233 0 1
23.539 0 1
23.6547 0 1
23.7704 0 1
23.8862 0 1
24.0021 0 1
24.118 0 1
24.234 0 1
24.35 0 1
24.4661 28208 167.952
24.5822 28072 167.547
24.6984 28216 167.976
24.8146 27729 166.52
24.9309 27708 166.457
25.0472 27367 165.43
25.1636 27314 165.269
25.28 27854 166.895
25.3965 28036 167.44
25.513 28338 168.339
25.6296 29191 170.854
25.7462 29599 172.044
25.8628 30511 174.674
25.9795 30399 174.353
26.0962 30749 175.354
26.213 30690 175.186
26.3298 31090 176.324
26.4466 31548 177.618
26.5635 31825 178.396
26.6804 32771 181.028
26.7973 33417 182.803
26.9143 33253 182.354
27.0313 33229 182.288
27.1483 33799 183.845
27.2653 33257 182.365
27.3824 32739 180.939
27.4996 32237 179.547
27.6167 30597 174.92
27.7339 30080 173.436
27.8511 29302 171.178
27.9683 28238 168.042
28.0855 27858 166.907
28.2028 27704 166.445
28.3201 27275 165.151
28.4374 27377 165.46
28.5547 27171 164.836
28.6721 27453 165.689
28.7894 27216 164.973
28.9068 26997 164.308
29.0242 27362 165.415
29.1416 27154 164.785
29.259 27368 165.433
29.3764 27537 165.943
29.4939 28075 167.556
29.6113 28307 168.247
29.7288 28806 169.723
29.8463 29385 171.421
29.9638 29931 173.006
30.0812 30331 174.158
30.1987 30973 175.991
30.3162 31851 178.468
30.4337 31976 178.818
30.5512 32030 178.969
30.6687 31431 177.288
30.7862 31451 177.344
30.9037 30843 175.622
31.0212 30478 174.579
31.1387 29972 173.124
31.2562 29086 170.546
31.3737 27943 167.162
31.4912 27541 165.955
31.6087 26569 163
31.7262 26128 161.642
31.8436 26133 161.657
31.9611 26181 161.805
32.0785 26439 162.601
32.1959 26726 163.481
32.3134 26819 163.765
32.4308 27127 164.703
32.5482 27050 164.469
32.6655 27133 164.721
32.7829 26795 163.692
32.9002 26974 164.238
33.0176 26591 163.067
33.1349 27106 164.639
33.2522 27122 164.688
33.3694 27293 165.206
33.4867 28094 167.613
33.6039 28832 169.8
33.7211 29183 170.83
33.8383 30111 173.525
33.9554 30463 174.537
34.0725 30299 174.066
34.1896 30173 173.704
34.3067 29836 172.731
34.4237 29684 172.29
34.5407 29089 170.555
34.6577 28175 167.854
34.7746 27262 165.112
34.8915 26670 163.31
35.0084 26647 163.239
35.1252 25751 160.471
35.242 25516 159.737
35.3587 25090 158.398
35.4755 24986 158.07
35.5921 25293 159.038
35.7088 25546 159.831
35.8254 25951 161.093
35.9419 26848 163.854
36.0584 26640 163.218
36.1749 26512 162.825
36.2913 26658 163.273
36.4077 26263 162.059
36.524 25945 161.075
36.6403 25330 159.154
36.7565 25318 159.116
36.8727 25561 159.878
36.9889 25416 159.424
37.1049 25742 160.443
37.221 0 1
37.3369 0 1
37.4529 0 1
37.5687 0 1
37.6845 0 1
37.8003 0 1
37.916 0 1
38.0316 0 1
38.1472 0 1
40.5851 0 1
40.7008 0 1
40.8164 0 1
40.9322 0 1
41.048 0 1
41.1639 0 1
41.2798 0 1
41.3958 0 1
41.5118 0 1
41.6279 0 1
41.744 20572 143.429
41.8602 21814 147.696
41.9765 21914 148.034
42.0928 22133 148.772
42.2091 22636 150.453
42.3255 22880 151.261
42.4419 23042 151.796
42.5584 23408 152.997
42.675 24011 154.955
42.7915 24412 156.243
42.9081 24684 157.111
43.0248 24813 157.521
43.1415 25004 158.127
43.2582 25252 158.909
43.375 25121 158.496
43.4918 25008 158.139
43.6087 24939 157.921
43.7256 24740 157.29
43.8425 24073 155.155
43.9595 23553 153.47
44.0765 23460 153.167
44.1935 22893 151.304
44.3106 23054 151.835
44.4277 22899 151.324
44.5448 22398 149.66
44.6619 22031 148.428
44.7791 21829 147.746
44.8963 21561 146.837
45.0136 21088 145.217
45.1308 21123 145.338
45.2481 20777 144.142
45.3654 20254 142.317
45.4827 19998 141.414
45.6001 19805 140.73
45.7174 19014 137.891
45.8348 18852 137.303
45.9522 18342 135.433
46.0697 18392 135.617
46.1871 18301 135.281
46.3046 18135 134.666
46.422 18195 134.889
46.5395 18037 134.302
46.657 18037 134.302
46.7745 18154 134.737
46.892 18013 134.213
47.0096 17928 133.895
47.1271 17311 131.571
47.2446 17087 130.717
47.3622 17143 130.931
47.4797 16876 129.908
47.5973 16723 129.317
47.7149 16704 129.244
47.8324 16415 128.121
47.95 16195 127.26
48.0675 15953 126.305
48.1851 15916 126.159
48.3027 15232 123.418
48.4202 15088 122.833
48.5378 14901 122.07
48.6554 14688 121.194
48.7729 14641 121
48.8904 14581 120.752
49.008 14494 120.391
49.1255 14506 120.441
49.243 14404 120.017
49.3605 14116 118.811
49.478 14389 119.954
49.5955 14149 118.95
49.713 14486 120.358
49.8304 14965 122.332
49.9479 15228 123.402
50.0653 15562 124.748
50.1827 15760 125.539
50.3001 16479 128.371
50.4175 16576 128.748
50.5348 16733 129.356
50.6521 16938 130.146
50.7694 17255 131.358
50.8867 17499 132.284
51.004 18067 134.414
51.1212 18772 137.011
51.2384 19030 137.949
51.3556 19366 139.162
51.4727 19584 139.943
51.5899 19801 140.716
51.707 19562 139.864
51.824 19277 138.842
51.9411 19200 138.564
52.0581 19011 137.88
52.175 19505 139.66
52.2919 19445 139.445
52.4088 19405 139.302
52.5257 19227 138.661
52.6425 18748 136.923
52.7593 18706 136.77
52.876 18879 137.401
52.9927 19141 138.351
53.1094 19260 138.78
53.226 19773 140.616
53.3426 20445 142.986
53.4591 21103 145.269
53.5756 21609 147
53.692 22040 148.459
53.8084 22529 150.097
53.9248 23103 151.997
54.0411 23750 154.11
54.1573 23807 154.295
54.2735 0 1
54.3896 0 1
54.5057 0 1
54.6217 0 1
54.7377 0 1
54.8537 0 1
54.9695 0 1
55.0853 0 1
55.2011 0 1
55.3168 0 1
55.4324 0 1
57.824 0 1
57.9396 0 1
58.0553 0 1
58.1711 0 1
58.2869 0 1
58.4028 0 1
58.5187 0 1
58.6347 0 1
58.7508 0 1
58.8669 0 1
58.983 25564 159.887
59.0992 27208 164.948
59.2155 27898 167.027
59.3318 28114 167.672
59.4482 29036 170.4
59.5646 29484 171.709
59.681 30585 174.886
59.7975 30574 174.854
59.9141 30818 175.551
60.0306 30472 174.562
60.1473 29768 172.534
60.2639 28457 168.692
60.3807 28019 167.389
60.4974 26898 164.006
60.6142 26385 162.435
60.731 25266 158.953
60.8479 23911 154.632
60.9648 23306 152.663
61.0818 22735 150.781
61.1987 22735 150.781
61.3158 22965 151.542
61.4328 23333 152.751
61.5499 23712 153.987
61.667 23994 154.9
61.7841 24214 155.608
61.9013 24107 155.264
62.0185 24348 156.038
62.1357 24704 157.175
62.253 25050 158.272
62.3702 25322 159.129
62.4875 25606 160.019
62.6049 25865 160.826
62.7222 26167 161.762
62.8396 27162 164.809
62.9569 27593 166.111
63.0743 28649 169.26
63.1918 29413 171.502
63.3092 29566 171.948
63.4267 28998 170.288
63.5441 28976 170.223
63.6616 28284 168.178
63.7791 27028 164.402
63.8966 26098 161.549
64.0142 25328 159.148
64.1317 24126 155.325
64.2492 22923 151.403
64.3668 21675 147.224
64.4843 21128 145.355
64.6019 20780 144.153
64.7195 20747 144.038
64.837 21042 145.059
64.9546 21709 147.34
65.0722 22279 149.262
65.1898 22016 148.378
65.3074 22507 150.023
65.4249 21862 147.858
65.5425 22781 150.934
65.6601 23118 152.046
65.7777 23894 154.577
65.8952 24075 155.161
66.0128 24228 155.653
66.1304 24616 156.895
66.2479 24903 157.807
66.3655 25879 160.87
66.483 26832 163.805
66.6005 27898 167.027
66.718 28516 168.867
66.8355 28358 168.398
66.953 28111 167.663
67.0705 28090 167.601
67.1879 27685 166.388
67.3054 27340 165.348
67.4228 26037 161.36
67.5402 23875 154.515
67.6576 22488 149.96
67.7749 21101 145.262
67.8923 21114 145.307
68.0096 20780 144.153
68.1269 20543 143.328
68.2442 20508 143.206
68.3614 20594 143.506
68.4787 20913 144.613
68.5958 22078 148.587
68.713 22684 150.612
68.8302 22794 150.977
68.9473 22753 150.841
69.0643 22903 151.337
69.1814 22787 150.954
69.2984 23546 153.447
69.4154 24261 155.759
69.5323 24601 156.847
69.6492 25084 158.379
69.7661 25782 160.568
69.8829 26711 163.435
69.9997 28089 167.598
70.1165 28695 169.396
70.2332 29171 170.795
70.3499 29668 172.244
70.4665 30038 173.315
70.5831 30450 174.499
70.6996 29657 172.212
70.8161 29604 172.058
70.9326 27962 167.218
71.049 25458 159.556
71.1653 23786 154.227
71.2817 22594 150.313
71.3979 21632 147.078
71.5141 20643 143.677
71.6303 20203 142.137
71.7464 19042 137.993
71.8624 0 1
71.9784 0 1
72.0944 0 1
72.2102 0 1
72.3261 0 1
72.4418 0 1
72.5575 0 1
72.6732 0 1
75.1054 0 1
75.2209 0 1
75.3365 0 1
75.4521 0 1
75.5678 0 1
75.6835 0 1
75.7993 0 1
75.9151 0 1
76.031 0 1
76.147 26201 161.867
76.263 26045 161.385
76.3791 24729 157.255
76.4952 23127 152.076
76.6113 22879 151.258
76.7276 22142 148.802
76.8438 22251 149.168
76.9601 22092 148.634
77.0765 22153 148.839
77.1929 21706 147.33
77.3093 21797 147.638
77.4258 22352 149.506
77.5423 23155 152.168
77.6589 24061 155.116
77.7755 23531 153.398
77.8921 23064 151.868
78.0088 23175 152.233
78.1256 23421 153.039
78.2423 24110 155.274
78.3591 24435 156.317
78.4759 25132 158.531
78.5928 25850 160.779
78.7097 26886 163.97
78.8266 27113 164.66
78.9436 28992 170.27
79.0606 28790 169.676
79.1776 29036 170.4
79.2946 29917 172.965
79.4117 30576 174.86
79.5288 30378 174.293
79.6459 29911 172.948
79.7631 28283 168.176
79.8802 27270 165.136
79.9974 25472 159.599
80.1147 24041 155.052
80.2319 23196 152.302
80.3491 22703 150.675
80.4664 22497 149.99
80.5837 22278 149.258
80.701 22330 149.432
80.8183 21958 148.182
80.9357 21736 147.431
81.053 22430 149.766
81.1704 23672 153.857
81.2877 24043 155.058
81.4051 23941 154.729
81.5225 23506 153.317
81.6399 22733 150.775
81.7573 23554 153.473
81.8747 23644 153.766
81.9922 24589 156.809
82.1096 25194 158.726
82.227 26850 163.86
82.3444 27522 165.898
82.4619 29100 170.587
82.5793 29969 173.116
82.6967 29412 171.499
82.8142 29799 172.624
82.9316 30473 174.565
83.049 30722 175.277
83.1664 30349 174.21
83.2838 29358 171.342
83.4012 27805 166.748
83.5186 26075 161.478
83.636 24509 156.554
83.7534 24075 155.161
83.8708 23739 154.075
83.9881 23046 151.809
84.1055 22805 151.013
84.2228 23320 152.709
84.3401 22678 150.592
84.4575 23068 151.882
84.5747 23195 152.299
84.692 24156 155.422
84.8093 25312 159.097
84.9265 25163 158.628
85.0437 24775 157.401
85.1609 24421 156.272
85.2781 23898 154.59
85.3952 24508 156.55
85.5123 25074 158.348
85.6294 26436 162.592
85.7465 27635 166.238
85.8636 29216 170.927
85.9806 30102 173.499
86.0976 30368 174.264
86.2145 30608 174.951
86.3315 31672 177.966
86.4484 32022 178.947
86.5652 33089 181.904
86.682 33271 182.403
86.7988 32828 181.185
86.9156 31510 177.511
87.0323 29716 172.383
87.149 27552 165.988
87.2657 26520 162.85
87.3823 26199 161.861
87.4988 25587 159.959
87.6154 25328 159.148
87.7318 25154 158.6
87.8483 24727 157.248
87.9647 24785 157.433
88.081 24732 157.264
88.1973 25799 160.621
88.3136 26724 163.475
88.4298 26918 164.067
88.546 26190 161.833
88.6621 25105 158.446
88.7781 24398 156.199
88.8942 0 1
89.0101 0 1
89.126 0 1
89.2419 0 1
89.3577 0 1
89.4734 0 1
89.5891 0 1
89.7047 0 1
89.8203 0 1
89.9358 0 1
92.3269 0 1
92.4424 0 1
92.558 0 1
92.6736 0 1
92.7893 0 1
92.905 0 1
93.0208 0 1
93.1366 0 1
93.2525 0 1
93.3685 0 1
93.4845 0 1
93.6005 24300 155.885
93.7167 24782 157.423
93.8328 24422 156.275
93.949 24290 155.852
94.0653 24276 155.808
94.1816 24544 156.665
94.2979 24737 157.28
94.4143 25809 160.652
94.5307 26466 162.684
94.6472 27622 166.199
94.7637 28647 169.254
94.8803 29467 171.66
94.9969 30400 174.356
95.1135 30876 175.716
95.2302 30664 175.111
95.3469 30878 175.721
95.4637 31325 176.989
95.5805 31513 177.519
95.6973 31573 177.688
95.8142 31210 176.664
95.9311 29777 172.56
96.048 28534 168.92
96.1649 27374 165.451
96.2819 26527 162.871
96.3989 26224 161.938
96.516 25347 159.207
96.633 25051 158.275
96.7501 24605 156.86
96.8673 24616 156.895
96.9844 24215 155.612
97.1016 23908 154.622
97.2188 24833 157.585
97.336 25743 160.446
97.4532 25550 159.844
97.5704 25041 158.243
97.6877 24087 155.2
97.805 23717 154.003
97.9223 23620 153.688
98.0396 23793 154.25
98.1569 24589 156.809
98.2743 25709 160.34
98.3916 26442 162.61
98.509 27637 166.244
98.6264 28342 168.351
98.7438 29630 172.134
98.8612 29987 173.168
98.9786 29782 172.575
99.096 29787 172.589
99.2134 30870 175.699
99.3308 31239 176.746
99.4482 30624 174.997
99.5656 29417 171.514
99.6831 28032 167.428
99.8005 27082 164.566
99.9179 26235 161.972
100.035 24930 157.892
100.153 24592 156.818
100.27 23846 154.422
100.388 23858 154.46
100.505 23526 153.382
100.622 23254 152.493
100.74 23552 153.467
100.857 23718 154.006
100.975 24459 156.394
101.092 24282 155.827
101.209 23915 154.645
101.327 23485 153.248
101.444 23094 151.967
101.561 23439 153.098
101.679 24521 156.592
101.796 25049 158.269
101.913 26343 162.305
102.03 27450 165.68
102.148 29089 170.555
102.265 28421 168.585
102.382 32680 180.776
102.499 30293 174.049
102.616 31032 176.159
102.733 31846 178.454
102.851 32511 180.308
102.968 32429 180.081
103.085 31943 178.726
103.202 30487 174.605
103.319 29138 170.699
103.436 28329 168.312
103.552 27198 164.918
103.669 26610 163.126
103.786 26292 162.148
103.903 26117 161.608
104.02 25426 159.455
104.137 25342 159.192
104.253 25327 159.145
104.37 26265 162.065
104.487 26410 162.512
104.603 26076 161.481
104.72 25225 158.824
104.836 24887 157.756
104.953 25443 159.509
105.069 25531 159.784
105.186 25998 161.239
105.302 27106 164.639
105.418 28756 169.576
105.535 30476 174.574
105.651 32098 179.159
105.767 31741 178.16
105.883 30979 176.009
105.999 30487 174.605
106.115 0 1
106.231 0 1
106.347 0 1
106.463 0 1
106.579 0 1
106.694 0 1
106.81 0 1
106.926 0 1
107.041 0 1
107.157 0 1
109.576 0 1
109.692 0 1
109.807 0 1
109.923 0 1
110.039 0 1
110.155 0 1
110.27 0 1
110.386 0 1
110.502 0 1
110.618 25814 160.667
110.735 27710 166.463
110.851 27904 167.045
110.967 27326 165.306
111.083 26903 164.021
111.199 27356 165.396
111.316 29010 170.323
111.432 29483 171.706
111.549 29335 171.275
111.665 28558 168.991
111.782 27453 165.689
111.898 25990 161.214
112.015 25447 159.521
112.132 24853 157.648
112.248 23830 154.37
112.365 22975 151.575
112.482 22905 151.344
112.599 21559 146.83
112.716 21292 145.918
112.832 21002 144.921
112.949 21212 145.643
113.066 20771 144.121
113.183 20113 141.82
113.3 19969 141.312
113.417 19825 140.801
113.534 20054 141.612
113.652 20429 142.93
113.769 21147 145.42
113.886 21635 147.088
114.003 22323 149.409
114.12 22851 151.165
114.238 23129 152.082
114.355 23355 152.823
114.472 22666 150.552
114.589 21275 145.86
114.707 22159 148.859
114.824 22897 151.318
114.942 23934 154.706
115.059 23810 154.305
115.176 23223 152.391
115.294 22491 149.97
115.411 21448 146.451
115.529 21126 145.348
115.646 20258 142.331
115.764 19444 139.442
115.881 18954 137.674
115.999 18447 135.82
116.116 17480 132.212
116.234 17493 132.261
116.351 16750 129.422
116.469 16498 128.445
116.586 16130 127.004
116.704 15917 126.163
116.821 15653 125.112
116.939 15705 125.32
117.056 16197 127.267
117.174 16659 129.07
117.291 17110 130.805
117.409 17457 132.125
117.526 17741 133.195
117.644 18314 135.329
117.761 18336 135.41
117.879 19061 138.062
117.996 18518 136.081
118.114 17648 132.846
118.231 17559 132.51
118.349 18525 136.107
118.466 19815 140.766
118.584 20525 143.265
118.701 20260 142.338
118.819 20337 142.608
118.936 19986 141.372
119.053 19889 141.028
119.171 19224 138.651
119.288 19079 138.127
119.405 18514 136.066
119.523 18495 135.996
119.64 17985 134.108
119.757 17621 132.744
119.875 17167 131.023
119.992 16602 128.849
120.109 16749 129.418
120.226 16572 128.732
120.343 16332 127.797
120.46 16831 129.734
120.578 16907 130.027
120.695 17594 132.642
120.812 18222 134.989
120.929 19057 138.047
121.046 19405 139.302
121.163 19403 139.295
121.279 20172 142.028
121.396 20217 142.186
121.513 20995 144.897
121.63 20473 143.084
121.747 19350 139.104
121.863 18380 135.573
121.98 19211 138.604
122.097 20856 144.416
122.213 22803 151.007
122.33 23495 153.281
122.446 23442 153.108
122.563 23028 151.75
122.679 23088 151.947
122.795 23075 151.905
122.912 22824 151.076
123.028 22016 148.378
123.144 21789 147.611
123.26 21422 146.363
123.377 0 1
123.493 0 1
123.609 0 1
123.725 0 1
123.84 0 1
123.956 0 1
124.072 0 1
124.188 0 1
124.303 0 1
124.419 0 1
126.852 0 1
126.968 0 1
127.083 0 1
127.199 0 1
127.315 0 1
127.431 0 1
127.547 0 1
127.663 0 1
127.779 0 1
127.895 0 1
128.011 0 1
128.127 0 1
128.243 0 1
128.359 25514 159.731
128.476 25456 159.549
128.592 24612 156.882
128.708 24011 154.955
128.825 23409 153
128.941 23457 153.157
129.058 22689 150.629
129.174 21929 148.084
129.291 21730 147.411
129.408 21524 146.711
129.524 21452 146.465
129.641 21738 147.438
129.758 21923 148.064
129.875 21937 148.111
129.992 22303 149.342
130.108 22676 150.586
130.225 22554 150.18
130.342 22668 150.559
130.459 22874 151.242
130.576 22121 148.731
130.693 19749 140.531
130.81 17252 131.347
130.928 17406 131.932
131.045 20814 144.271
131.162 22626 150.419
131.279 23428 153.062
131.396 23295 152.627
131.513 23436 153.088
131.631 23200 152.315
131.748 22691 150.635
131.865 22656 150.519
131.983 21968 148.216
132.1 21777 147.57
132.217 21494 146.608
132.335 20941 144.71
132.452 20585 143.475
132.57 20022 141.499
132.687 19289 138.885
132.804 20199 142.123
132.922 19630 140.107
133.039 19289 138.885
133.157 19452 139.47
133.274 19218 138.629
133.392 19474 139.549
133.509 19311 138.964
133.627 19026 137.935
133.744 19449 139.46
133.862 19222 138.643
133.979 19330 139.032
134.097 18431 135.761
134.214 16606 128.864
134.332 13932 118.034
134.449 14065 118.596
134.567 16361 127.91
134.684 18565 136.253
134.802 18860 137.332
134.919 18769 137
135.037 18675 136.657
135.154 18699 136.744
135.272 18541 136.165
135.389 18280 135.204
135.507 18241 135.059
135.624 17808 133.447
135.742 17443 132.072
135.859 17046 130.56
135.977 16617 128.907
136.094 16344 127.844
136.211 16163 127.134
136.329 15919 126.171
136.446 15815 125.758
136.564 15414 124.153
136.681 14847 121.848
136.798 15176 123.191
136.915 15394 124.073
137.033 15055 122.699
137.15 14969 122.348
137.267 15169 123.162
137.384 15235 123.43
137.502 15058 122.711
137.619 15033 122.609
137.736 14499 120.412
137.853 12267 110.756
137.97 11301 106.306
138.087 12271 110.775
138.204 14325 119.687
138.321 15658 125.132
138.438 16178 127.193
138.555 16344 127.844
138.672 16695 129.209
138.788 17010 130.422
138.905 16771 129.503
139.022 17273 131.427
139.139 17085 130.71
139.255 17151 130.962
139.372 16920 130.077
139.488 17031 130.503
139.605 16860 129.846
139.721 17023 130.472
139.838 17051 130.579
139.954 17288 131.484
140.071 16754 129.437
140.187 17157 130.985
140.303 16725 129.325
140.419 16554 128.662
140.535 16802 129.623
140.652 16737 129.372
140.768 0 1
140.884 0 1
141 0 1
141.115 0 1
141.231 0 1
141.347 0 1
141.463 0 1
141.578 0 1
141.694 0 1
144.104 0 1
144.219 0 1
144.335 0 1
144.45 0 1
144.566 0 1
144.682 0 1
144.798 0 1
144.914 0 1
145.03 0 1
145.146 14100 118.743
145.262 14192 119.13
145.378 13905 117.919
145.494 13884 117.83
145.61 13475 116.082
145.726 13498 116.181
145.842 13380 115.672
145.959 13492 116.155
146.075 13054 114.254
146.192 13133 114.599
146.308 12678 112.597
146.425 12469 111.665
146.541 11744 108.37
146.658 11177 105.721
146.774 11204 105.849
146.891 11475 107.121
147.008 12052 109.782
147.125 12430 111.49
147.241 12360 111.176
147.358 12235 110.612
147.475 12263 110.738
147.592 12047 109.759
147.709 11689 108.116
147.826 11547 107.457
147.943 11690 108.12
148.06 11359 106.579
148.177 11296 106.283
148.294 11012 104.938
148.411 11046 105.1
148.528 10957 104.676
148.645 10806 103.952
148.762 10343 101.701
148.88 10402 101.99
148.997 10619 103.049
149.114 9267 96.2653
149.231 9646 98.2141
149.349 9686 98.4175
149.466 9923 99.6143
149.583 9726 98.6205
149.701 9621 98.0867
149.818 9679 98.3819
149.935 9536 97.6524
150.053 9562 97.7855
150.17 9383 96.8659
150.287 9764 98.813
150.405 9753 98.7573
150.522 9783 98.909
150.64 10105 100.524
150.757 10242 101.203
150.875 10227 101.129
150.992 10403 101.995
151.11 10687 103.378
151.227 10676 103.325
151.344 10719 103.533
151.462 10429 102.122
151.579 10429 102.122
151.697 10658 103.238
151.814 10418 102.069
151.932 10520 102.567
152.049 10555 102.738
152.167 10580 102.859
152.284 10454 102.245
152.402 10294 101.459
152.519 10269 101.336
152.636 10280 101.39
152.754 10261 101.297
152.871 10303 101.504
152.989 10550 102.713
153.106 10799 103.918
153.223 10520 102.567
153.341 10485 102.396
153.458 10416 102.059
153.575 10221 101.099
153.693 10477 102.357
153.81 10957 104.676
153.927 11512 107.294
154.044 11761 108.448
154.162 12108 110.036
154.279 12521 111.897
154.396 12735 112.849
154.513 13123 114.556
154.63 13290 115.282
154.747 13461 116.022
154.864 13539 116.357
154.981 13271 115.2
155.098 13518 116.267
155.215 13391 115.719
155.332 13229 115.017
155.449 13521 116.28
155.566 13144 114.647
155.683 13103 114.468
155.8 12992 113.982
155.917 12534 111.955
156.033 12358 111.167
156.15 0 1
156.267 0 1
156.383 0 1
156.5 0 1
156.617 0 1
156.733 0 1
156.85 0 1
156.966 0 1
157.082 0 1
157.199 0 1
157.315 0 1
157.431 0 1
157.547 0 1
157.664 0 1
157.78 0 1
157.896 0 1
158.012 0 1
158.128 0 1
158.244 0 1
158.359 0 1
158.475 0 1
158.591 0 1
158.706 0 1
