
6.15755 0 1
6.2731 0 1
6.3887 0 1
6.50437 0 1
6.62009 0 1
6.73587 0 1
6.8517 0 1
6.96759 0 1
7.08353 0 1
7.19952 0 1
7.31557 0 1
7.43166 0 1
7.54781 0 1
7.664 0 1
7.78024 0 1
7.89653 0 1
8.01286 0 1
8.12924 0 1
8.24567 0 1
8.36213 0 1
8.47864 0 1
8.59519 0 1
8.71178 0 1
8.82841 0 1
8.94508 0 1
9.06179 0 1
9.17853 0 1
9.29531 0 1
9.41212 0 1
9.52897 0 1
9.64584 0 1
9.76276 0 1
9.8797 0 1
9.99667 0 1
10.1137 0 1
10.2307 0 1
10.3478 0 1
10.4648 0 1
10.5819 0 1
10.6991 0 1
10.8162 0 1
10.9334 0 1
11.0506 0 1
11.1678 0 1
11.285 0 1
11.4023 0 1
11.5196 0 1
11.6369 0 1
11.7542 0 1
11.8715 0 1
11.9888 0 1
12.1062 0 1
12.2235 0 1
12.3409 0 1
12.4582 0 1
12.5756 0 1
12.693 0 1
12.8104 0 1
12.9278 0 1
13.0452 0 1
13.1626 0 1
13.28 0 1
13.3974 0 1
13.5149 0 1
13.6323 0 1
13.7497 0 1
13.8671 0 1
13.9845 0 1
14.1019 0 1
14.2193 0 1
14.3367 0 1
14.4541 0 1
14.5714 0 1
14.6888 0 1
14.8062 0 1
14.9235 0 1
15.0408 4510 67.1565
15.1581 4735 68.8113
15.2755 4658 68.2495
15.3927 4908 70.0571
15.51 4777 69.1158
15.6273 4795 69.2459
15.7445 4863 69.7352
15.8617 4853 69.6635
15.9789 4804 69.3109
16.0961 4850 69.6419
16.2132 5026 70.8943
16.3304 5109 71.4773
16.4475 5363 73.2325
16.5646 5456 73.8647
16.6816 5623 74.9867
16.7986 5782 76.0395
16.9156 5847 76.4657
17.0326 5962 77.214
17.1496 6219 78.8606
17.2665 6141 78.3645
17.3833 6344 79.6492
17.5002 6296 79.3473
17.617 6493 80.5792
17.7338 6298 79.3599
17.8505 6136 78.3326
17.9672 5944 77.0973
18.0839 5908 76.8635
18.2005 5912 76.8895
18.3171 6117 78.2113
18.4337 6343 79.643
18.5502 6818 82.5712
18.6666 6731 82.0427
18.7831 6928 83.2346
18.8994 6560 80.9938
19.0158 6515 80.7155
19.1321 6549 80.9259
19.2483 6426 80.1623
19.3645 6270 79.1833
19.4806 6277 79.2275
19.5967 6069 77.9038
19.7128 6093 78.0577
19.8288 5848 76.4722
19.9447 5439 73.7496
20.0606 0 1
20.1764 0 1
20.2922 0 1
20.4079 0 1
20.5236 0 1
20.6392 0 1
20.7548 0 1
20.8702 0 1
23.3078 0 1
23.4233 0 1
23.539 0 1
23.6547 0 1
23.7704 0 1
23.8862 0 1
24.0021 0 1
24.118 0 1
24.234 0 1
24.35 0 1
24.4661 6339 79.6178
24.5822 6313 79.4544
24.6984 6347 79.6681
24.8146 6253 79.0759
24.9309 6078 77.9615
25.0472 6190 78.6766
25.1636 6144 78.3837
25.28 6523 80.7651
25.3965 6729 82.0305
25.513 6776 82.3165
25.6296 7059 84.0179
25.7462 7186 84.7703
25.8628 7151 84.5636
25.9795 7235 85.0588
26.0962 7356 85.7671
26.213 7244 85.1117
26.3298 7188 84.7821
26.4466 6864 82.8493
26.5635 6460 80.3741
26.6804 6288 79.2969
26.7973 6608 81.2896
26.9143 6628 81.4125
27.0313 6887 82.988
27.1483 7161 84.6227
27.2653 7166 84.6522
27.3824 7282 85.3346
27.4996 7161 84.6227
27.6167 6980 83.5464
27.7339 6810 82.5227
27.8511 6752 82.1706
27.9683 6649 81.5414
28.0855 6539 80.8641
28.2028 6341 79.6304
28.3201 6294 79.3347
28.4374 6320 79.4984
28.5547 6206 78.7782
28.6721 6346 79.6618
28.7894 6395 79.9687
28.9068 6380 79.8749
29.0242 6718 81.9634
29.1416 6891 83.012
29.259 6980 83.5464
29.3764 7042 83.9166
29.4939 7312 85.5102
29.6113 7291 85.3874
29.7288 7062 84.0357
29.8463 6826 82.6196
29.9638 6513 80.7032
30.0812 5803 76.1774
30.1987 5999 77.4532
30.3162 5984 77.3563
30.4337 6188 78.6638
30.5512 6442 80.2621
30.6687 6613 81.3204
30.7862 6716 81.9512
30.9037 6806 82.4985
31.0212 6951 83.3727
31.1387 6851 82.7708
31.2562 6726 82.0122
31.3737 6675 81.7007
31.4912 6547 80.9135
31.6087 6408 80.05
31.7262 6353 79.7057
31.8436 6163 78.5048
31.9611 6088 78.0256
32.0785 6101 78.1089
32.1959 6003 77.479
32.3134 6280 79.2465
32.4308 6363 79.7684
32.5482 6636 81.4616
32.6655 6526 80.7837
32.7829 6883 82.9638
32.9002 6924 83.2106
33.0176 6999 83.66
33.1349 7027 83.8272
33.2522 7027 83.8272
33.3694 6738 82.0853
33.4867 6591 81.185
33.6039 6172 78.5621
33.7211 5842 76.433
33.8383 5691 75.4387
33.9554 5594 74.793
34.0725 6001 77.4661
34.1896 6284 79.2717
34.3067 6307 79.4166
34.4237 6570 81.0555
34.5407 6624 81.388
34.6577 6562 81.0062
34.7746 6618 81.3511
34.8915 6478 80.486
35.0084 6588 81.1665
35.1252 6312 79.4481
35.242 6346 79.6618
35.3587 6072 77.923
35.4755 6030 77.6531
35.5921 6057 77.8267
35.7088 5981 77.3369
35.8254 5799 76.1512
35.9419 5916 76.9155
36.0584 6004 77.4855
36.1749 6074 77.9359
36.2913 6243 79.0127
36.4077 6384 79.8999
36.524 6577 81.0987
36.6403 6528 80.796
36.7565 6566 81.0309
36.8727 6601 81.2465
36.9889 6407 80.0437
37.1049 6434 80.2122
37.221 0 1
37.3369 0 1
37.4529 0 1
37.5687 0 1
37.6845 0 1
37.8003 0 1
37.916 0 1
38.0316 0 1
38.1472 0 1
40.5851 0 1
40.7008 0 1
40.8164 0 1
40.9322 0 1
41.048 0 1
41.1639 0 1
41.2798 0 1
41.3958 0 1
41.5118 0 1
41.6279 0 1
41.744 5068 71.1899
41.8602 5494 74.1215
41.9765 5479 74.0203
42.0928 5659 75.2263
42.2091 5534 74.3909
42.3255 5299 72.7942
42.4419 4786 69.1809
42.5584 4512 67.1714
42.675 4466 66.8281
42.7915 4476 66.9029
42.9081 4564 67.5574
43.0248 4735 68.8113
43.1415 4936 70.2567
43.2582 5014 70.8096
43.375 5108 71.4703
43.4918 5203 72.1318
43.6087 5157 71.8123
43.7256 5188 72.0278
43.8425 5069 71.1969
43.9595 4951 70.3633
44.0765 4807 69.3325
44.1935 4790 69.2098
44.3106 4662 68.2788
44.4277 4477 66.9104
44.5448 4268 65.3299
44.6619 4169 64.5678
44.7791 4119 64.1794
44.8963 4104 64.0625
45.0136 4236 65.0846
45.1308 4332 65.8179
45.2481 4461 66.7907
45.3654 4465 66.8207
45.4827 4481 66.9403
45.6001 4478 66.9179
45.7174 4300 65.5744
45.8348 4195 64.7688
45.9522 3898 62.434
46.0697 3686 60.7124
46.1871 3481 59
46.3046 3194 56.5155
46.422 3444 58.6856
46.5395 3657 60.4731
46.657 3799 61.636
46.7745 3916 62.578
46.892 4026 63.4508
47.0096 3943 62.7933
47.1271 3907 62.506
47.2446 3962 62.9444
47.3622 3940 62.7694
47.4797 3984 63.1189
47.5973 3855 62.0886
47.7149 3698 60.8112
47.8324 3602 60.0167
47.95 3596 59.9667
48.0675 3463 58.8473
48.1851 3324 57.6541
48.3027 3213 56.6833
48.4202 3329 57.6975
48.5378 3468 58.8897
48.6554 3518 59.3127
48.7729 3738 61.1392
48.8904 3775 61.441
49.008 3779 61.4736
49.1255 3778 61.4654
49.243 3648 60.3987
49.3605 3499 59.1523
49.478 3334 57.7408
49.5955 3042 55.1543
49.713 2965 54.4518
49.8304 2816 53.066
49.9479 2929 54.1202
50.0653 3305 57.4891
50.1827 3515 59.2874
50.3001 3673 60.6053
50.4175 3778 61.4654
50.5348 3816 61.7738
50.6521 3952 62.8649
50.7694 3891 62.3779
50.8867 4090 63.9531
51.004 4196 64.7765
51.1212 4120 64.1872
51.2384 4155 64.4593
51.3556 4080 63.8749
51.4727 4167 64.5523
51.5899 3995 63.206
51.707 3988 63.1506
51.824 3914 62.562
51.9411 4082 63.8905
52.0581 4330 65.8027
52.175 4701 68.5638
52.2919 4758 68.9783
52.4088 4830 69.4982
52.5257 5012 70.7955
52.6425 4951 70.3633
52.7593 4968 70.484
52.876 4915 70.1071
52.9927 4653 68.2129
53.1094 4324 65.7571
53.226 4102 64.0469
53.3426 3869 62.2013
53.4591 3792 61.5792
53.5756 4126 64.2339
53.692 4507 67.1342
53.8084 4694 68.5128
53.9248 4860 69.7137
54.0411 5017 70.8308
54.1573 5036 70.9648
54.2735 0 1
54.3896 0 1
54.5057 0 1
54.6217 0 1
54.7377 0 1
54.8537 0 1
54.9695 0 1
55.0853 0 1
55.2011 0 1
55.3168 0 1
55.4324 0 1
57.824 0 1
57.9396 0 1
58.0553 0 1
58.1711 0 1
58.2869 0 1
58.4028 0 1
58.5187 0 1
58.6347 0 1
58.7508 0 1
58.8669 0 1
58.983 5326 72.9794
59.0992 5983 77.3499
59.2155 6133 78.3135
59.3318 6161 78.492
59.4482 6415 80.0937
59.5646 6304 79.3977
59.681 6542 80.8826
59.7975 6429 80.181
59.9141 6416 80.0999
60.0306 6198 78.7274
60.1473 6083 77.9936
60.2639 5832 76.3675
60.3807 5698 75.4851
60.4974 5554 74.5252
60.6142 5534 74.3909
60.731 5574 74.6592
60.8479 5933 77.026
60.9648 5940 77.0714
61.0818 6173 78.5684
61.1987 6271 79.1896
61.3158 6228 78.9177
61.4328 5911 76.883
61.5499 5823 76.3086
61.667 5439 73.7496
61.7841 5120 71.5542
61.9013 4659 68.2569
62.0185 4577 67.6535
62.1357 4754 68.9493
62.253 5035 70.9577
62.3702 5309 72.8629
62.4875 5632 75.0467
62.6049 5873 76.6355
62.7222 5992 77.408
62.8396 6114 78.1921
62.9569 6246 79.0316
63.0743 6115 78.1985
63.1918 6347 79.6681
63.3092 6051 77.7882
63.4267 6080 77.9744
63.5441 5836 76.3937
63.6616 5806 76.1971
63.7791 5715 75.5976
63.8966 5450 73.8241
64.0142 5223 72.2703
64.1317 5356 73.1847
64.2492 5389 73.4098
64.3668 5553 74.5185
64.4843 5744 75.7892
64.6019 5807 76.2037
64.7195 5804 76.184
64.837 5897 76.7919
64.9546 5915 76.909
65.0722 5799 76.1512
65.1898 5281 72.6705
65.3074 5029 70.9154
65.4249 4542 67.3944
65.5425 4385 66.2193
65.6601 4383 66.2042
65.7777 4615 67.9338
65.8952 4768 69.0507
66.0128 5313 72.8903
66.1304 5349 73.1369
66.2479 5590 74.7663
66.3655 5865 76.5833
66.483 5975 77.2981
66.6005 6028 77.6402
66.718 5991 77.4016
66.8355 6085 78.0064
66.953 6060 77.846
67.0705 6048 77.7689
67.1879 5937 77.0519
67.3054 5820 76.2889
67.4228 5424 73.6478
67.5402 5359 73.2052
67.6576 5014 70.8096
67.7749 5040 70.993
67.8923 5242 72.4017
68.0096 5587 74.7462
68.1269 5731 75.7034
68.2442 6041 77.7239
68.3614 5738 75.7496
68.4787 5891 76.7529
68.5958 6003 77.479
68.713 5828 76.3413
68.8302 5501 74.1687
68.9473 4963 70.4486
69.0643 4670 68.3374
69.1814 4394 66.2873
69.2984 4340 65.8787
69.4154 4557 67.5056
69.5323 4979 70.562
69.6492 5442 73.7699
69.7661 5744 75.7892
69.8829 5922 76.9545
69.9997 6045 77.7496
70.1165 6262 79.1328
70.2332 6617 81.3449
70.3499 6378 79.8624
70.4665 6426 80.1623
70.5831 6518 80.7341
70.6996 6459 80.3679
70.8161 6328 79.5487
70.9326 6119 78.224
71.049 5831 76.361
71.1653 5624 74.9933
71.2817 5344 73.1027
71.3979 5002 70.7248
71.5141 4945 70.3207
71.6303 5148 71.7496
71.7464 5185 72.0069
71.8624 0 1
71.9784 0 1
72.0944 0 1
72.2102 0 1
72.3261 0 1
72.4418 0 1
72.5575 0 1
72.6732 0 1
75.1054 0 1
75.2209 0 1
75.3365 0 1
75.4521 0 1
75.5678 0 1
75.6835 0 1
75.7993 0 1
75.9151 0 1
76.031 0 1
76.147 5436 73.7292
76.263 5746 75.8024
76.3791 5542 74.4446
76.4952 5231 72.3257
76.6113 5234 72.3464
76.7276 5448 73.8106
76.8438 5845 76.4526
76.9601 6316 79.4733
77.0765 6238 78.981
77.1929 6299 79.3662
77.3093 6454 80.3368
77.4258 6400 80
77.5423 5971 77.2722
77.6589 5409 73.5459
77.7755 5092 71.3583
77.8921 4656 68.2349
78.0088 4439 66.6258
78.1256 4351 65.9621
78.2423 4459 66.7757
78.3591 4895 69.9643
78.4759 5187 72.0208
78.5928 5559 74.5587
78.7097 5821 76.2955
78.8266 5857 76.531
78.9436 6554 80.9568
79.0606 6451 80.3181
79.1776 6470 80.4363
79.2946 6525 80.7775
79.4117 6432 80.1998
79.5288 6490 80.5605
79.6459 6415 80.0937
79.7631 6200 78.7401
79.8802 5992 77.408
79.9974 5609 74.8933
80.1147 5222 72.2634
80.2319 5205 72.1457
80.3491 5399 73.4779
80.4664 5668 75.2861
80.5837 6228 78.9177
80.701 6139 78.3518
80.8183 6308 79.4229
80.9357 6142 78.3709
81.053 6268 79.1707
81.1704 6050 77.7817
81.2877 5717 75.6108
81.4051 5252 72.4707
81.5225 4863 69.7352
81.6399 4417 66.4605
81.7573 4499 67.0746
81.8747 4337 65.8559
81.9922 4759 68.9855
82.1096 5276 72.6361
82.227 5562 74.5788
82.3444 5679 75.3591
82.4619 6135 78.3262
82.5793 6330 79.5613
82.6967 6283 79.2654
82.8142 6380 79.8749
82.9316 6477 80.4798
83.049 6532 80.8208
83.1664 6425 80.1561
83.2838 6362 79.7621
83.4012 6162 78.4984
83.5186 5911 76.883
83.636 5772 75.9737
83.7534 5229 72.3118
83.8708 5114 71.5122
83.9881 5308 72.856
84.1055 5719 75.6241
84.2228 6053 77.801
84.3401 6166 78.5239
84.4575 6271 79.1896
84.5747 6154 78.4474
84.692 6344 79.6492
84.8093 5641 75.1066
84.9265 5294 72.7599
85.0437 4899 69.9929
85.1609 4660 68.2642
85.2781 4422 66.4981
85.3952 4252 65.2074
85.5123 4792 69.2243
85.6294 5170 71.9027
85.7465 5556 74.5386
85.8636 5716 75.6042
85.9806 6080 77.9744
86.0976 6286 79.2843
86.2145 6492 80.5729
86.3315 6646 81.523
86.4484 6928 83.2346
86.5652 6697 81.8352
86.682 6729 82.0305
86.7988 6703 81.8719
86.9156 6586 81.1542
87.0323 6535 80.8393
87.149 6106 78.1409
87.2657 5913 76.896
87.3823 5517 74.2765
87.4988 5802 76.1709
87.6154 5886 76.7203
87.7318 6376 79.8499
87.8483 6527 80.7899
87.9647 6783 82.359
88.081 6519 80.7403
88.1973 6556 80.9691
88.3136 6114 78.1921
88.4298 5875 76.6485
88.546 5303 72.8217
88.6621 4975 70.5337
88.7781 4615 67.9338
88.8942 0 1
89.0101 0 1
89.126 0 1
89.2419 0 1
89.3577 0 1
89.4734 0 1
89.5891 0 1
89.7047 0 1
89.8203 0 1
89.9358 0 1
92.3269 0 1
92.4424 0 1
92.558 0 1
92.6736 0 1
92.7893 0 1
92.905 0 1
93.0208 0 1
93.1366 0 1
93.2525 0 1
93.3685 0 1
93.4845 0 1
93.6005 5580 74.6994
93.7167 5343 73.0958
93.8328 5082 71.2881
93.949 4755 68.9565
94.0653 4514 67.1863
94.1816 4734 68.8041
94.2979 4771 69.0724
94.4143 5234 72.3464
94.5307 5658 75.2197
94.6472 5863 76.5702
94.7637 6120 78.2304
94.8803 6234 78.9557
94.9969 6366 79.7872
95.1135 6623 81.3818
95.2302 6586 81.1542
95.3469 6740 82.0975
95.4637 6808 82.5106
95.5805 6806 82.4985
95.6973 6873 82.9036
95.8142 6789 82.3954
95.9311 6648 81.5353
96.048 6307 79.4166
96.1649 5880 76.6812
96.2819 5639 75.0933
96.3989 5499 74.1552
96.516 5739 75.7562
96.633 6193 78.6956
96.7501 6492 80.5729
96.8673 6465 80.4052
96.9844 6542 80.8826
97.1016 6429 80.181
97.2188 6244 79.019
97.336 6032 77.666
97.4532 5435 73.7225
97.5704 5160 71.8331
97.6877 4827 69.4766
97.805 4731 68.7823
97.9223 4718 68.6877
98.0396 4702 68.5711
98.1569 5086 71.3162
98.2743 5391 73.4234
98.3916 5909 76.87
98.509 5934 77.0325
98.6264 6165 78.5175
98.7438 6439 80.2434
98.8612 6643 81.5046
98.9786 6623 81.3818
99.096 6629 81.4187
99.2134 6772 82.2922
99.3308 6756 82.1949
99.4482 6727 82.0183
99.5656 6497 80.604
99.6831 6215 78.8353
99.8005 5858 76.5376
99.9179 5484 74.054
100.035 5491 74.1013
100.153 5860 76.5506
100.27 6153 78.4411
100.388 6514 80.7094
100.505 6508 80.6722
100.622 6573 81.074
100.74 6410 80.0625
100.857 6276 79.2212
100.975 6040 77.7174
101.092 5410 73.5527
101.209 5146 71.7356
101.327 5018 70.8378
101.444 4672 68.352
101.561 4664 68.2935
101.679 4931 70.2211
101.796 5433 73.7089
101.913 5713 75.5844
102.03 6059 77.8396
102.148 6313 79.4544
102.265 6025 77.6209
102.382 7287 85.3639
102.499 6820 82.5833
102.616 6938 83.2947
102.733 6973 83.5045
102.851 7199 84.8469
102.968 7218 84.9588
103.085 6994 83.6301
103.202 6713 81.9329
103.319 6435 80.2185
103.436 6014 77.55
103.552 5899 76.8049
103.669 6237 78.9747
103.786 6652 81.5598
103.903 6973 83.5045
104.02 6930 83.2466
104.137 7105 84.2912
104.253 6999 83.66
104.37 6764 82.2435
104.487 6361 79.7559
104.603 5829 76.3479
104.72 5592 74.7797
104.836 5272 72.6085
104.953 5061 71.1407
105.069 5186 72.0139
105.186 5559 74.5587
105.302 5867 76.5963
105.418 6352 79.6994
105.535 6693 81.8108
105.651 6979 83.5404
105.767 7015 83.7556
105.883 7255 85.1763
105.999 7374 85.872
106.115 0 1
106.231 0 1
106.347 0 1
106.463 0 1
106.579 0 1
106.694 0 1
106.81 0 1
106.926 0 1
107.041 0 1
107.157 0 1
109.576 0 1
109.692 0 1
109.807 0 1
109.923 0 1
110.039 0 1
110.155 0 1
110.27 0 1
110.386 0 1
110.502 0 1
110.618 5752 75.8419
110.735 6084 78
110.851 6204 78.7655
110.967 6265 79.1518
111.083 6231 78.9367
111.199 6528 80.796
111.316 6463 80.3928
111.432 6480 80.4984
111.549 6441 80.2558
111.665 6281 79.2528
111.782 6003 77.479
111.898 5607 74.8799
112.015 5209 72.1734
112.132 5342 73.089
112.248 5935 77.039
112.365 6018 77.5758
112.482 6163 78.5048
112.599 5942 77.0844
112.716 5996 77.4338
112.832 5724 75.6571
112.949 5404 73.5119
113.066 4807 69.3325
113.183 4797 69.2604
113.3 4367 66.0833
113.417 4241 65.123
113.534 3972 63.0238
113.652 4107 64.0859
113.769 4417 66.4605
113.886 4549 67.4463
114.003 4808 69.3397
114.12 5033 70.9436
114.238 5085 71.3092
114.355 5156 71.8053
114.472 5223 72.2703
114.589 5228 72.3049
114.707 5152 71.7774
114.824 5190 72.0417
114.942 5217 72.2288
115.059 5224 72.2772
115.176 5054 71.0915
115.294 4912 70.0857
115.411 4570 67.6018
115.529 4229 65.0308
115.646 4121 64.195
115.764 4416 66.453
115.881 4551 67.4611
115.999 4519 67.2235
116.116 4566 67.5722
116.234 4434 66.5883
116.351 4529 67.2978
116.469 4153 64.4438
116.586 3915 62.57
116.704 3795 61.6036
116.821 3551 59.5903
116.939 3364 58
117.056 3334 57.7408
117.174 3217 56.7186
117.291 3253 57.0351
117.409 3455 58.7792
117.526 3623 60.1914
117.644 3845 62.0081
117.761 3892 62.3859
117.879 3963 62.9524
117.996 4008 63.3088
118.114 4077 63.8514
118.231 4240 65.1153
118.349 4142 64.3584
118.466 4271 65.3529
118.584 4257 65.2457
118.701 4290 65.4981
118.819 4184 64.6838
118.936 3943 62.7933
119.053 3894 62.4019
119.171 3686 60.7124
119.288 3750 61.2372
119.405 3962 62.9444
119.523 4237 65.0922
119.64 4263 65.2917
119.757 4359 66.0227
119.875 4335 65.8407
119.992 4179 64.6452
120.109 4283 65.4446
120.226 3971 63.0159
120.343 3678 60.6465
120.46 3633 60.2744
120.578 3577 59.808
120.695 3479 58.983
120.812 3378 58.1206
120.929 3480 58.9915
121.046 3600 60
121.163 3877 62.2656
121.279 4084 63.9062
121.396 4234 65.0692
121.513 4379 66.174
121.63 4582 67.6905
121.747 4681 68.4178
121.863 4837 69.5485
121.98 4856 69.685
122.097 4809 69.347
122.213 4940 70.2851
122.33 5109 71.4773
122.446 4972 70.5124
122.563 5000 70.7107
122.679 4900 70
122.795 4657 68.2422
122.912 4392 66.2722
123.028 4561 67.5352
123.144 4924 70.1712
123.26 4937 70.2638
123.377 0 1
123.493 0 1
123.609 0 1
123.725 0 1
123.84 0 1
123.956 0 1
124.072 0 1
124.188 0 1
124.303 0 1
124.419 0 1
126.852 0 1
126.968 0 1
127.083 0 1
127.199 0 1
127.315 0 1
127.431 0 1
127.547 0 1
127.663 0 1
127.779 0 1
127.895 0 1
128.011 0 1
128.127 0 1
128.243 0 1
128.359 5436 73.7292
128.476 5714 75.591
128.592 6079 77.9679
128.708 5954 77.1622
128.825 6103 78.1217
128.941 6028 77.6402
129.058 5905 76.844
129.174 5684 75.3923
129.291 5459 73.885
129.408 5221 72.2565
129.524 4976 70.5408
129.641 4763 69.0145
129.758 4570 67.6018
129.875 4533 67.3276
129.992 4576 67.6461
130.108 4805 69.3181
130.225 4974 70.5266
130.342 5030 70.9225
130.459 5245 72.4224
130.576 5121 71.5612
130.693 5248 72.4431
130.81 5370 73.2803
130.928 5252 72.4707
131.045 5370 73.2803
131.162 5326 72.9794
131.279 5530 74.364
131.396 5503 74.1822
131.513 5380 73.3485
131.631 5103 71.4353
131.748 4951 70.3633
131.865 4858 69.6994
131.983 5073 71.225
132.1 5139 71.6868
132.217 5374 73.3076
132.335 5261 72.5328
132.452 5274 72.6223
132.57 5170 71.9027
132.687 4899 69.9929
132.804 4971 70.5053
132.922 4604 67.8528
133.039 4440 66.6333
133.157 4273 65.3682
133.274 4128 64.2495
133.392 3940 62.7694
133.509 3952 62.8649
133.627 4179 64.6452
133.744 4071 63.8044
133.862 4175 64.6142
133.979 4298 65.5591
134.097 4206 64.8537
134.214 4416 66.453
134.332 4239 65.1076
134.449 4439 66.6258
134.567 4244 65.146
134.684 4585 67.7126
134.802 4411 66.4154
134.919 4197 64.7843
135.037 4419 66.4756
135.154 4208 64.8691
135.272 3891 62.3779
135.389 3787 61.5386
135.507 3850 62.0484
135.624 4108 64.0937
135.742 4211 64.8922
135.859 4083 63.8984
135.977 4146 64.3894
136.094 3939 62.7615
136.211 3824 61.8385
136.329 3768 61.384
136.446 3634 60.2827
136.564 3308 57.5152
136.681 3264 57.1314
136.798 3225 56.7891
136.915 3087 55.5608
137.033 3111 55.7763
137.15 3009 54.8544
137.267 3203 56.5951
137.384 3142 56.0535
137.502 3355 57.9224
137.619 3348 57.8619
137.736 3496 59.127
137.853 3404 58.3438
137.97 3569 59.7411
138.087 3704 60.8605
138.204 3714 60.9426
138.321 3823 61.8304
138.438 3748 61.2209
138.555 3894 62.4019
138.672 3886 62.3378
138.788 3875 62.2495
138.905 3792 61.5792
139.022 3676 60.63
139.139 3813 61.7495
139.255 3975 63.0476
139.372 4098 64.0156
139.488 4208 64.8691
139.605 4380 66.1816
139.721 4297 65.5515
139.838 4419 66.4756
139.954 4295 65.5362
140.071 4014 63.3561
140.187 4025 63.4429
140.303 3889 62.3618
140.419 3843 61.9919
140.535 3643 60.3573
140.652 3649 60.407
140.768 0 1
140.884 0 1
141 0 1
141.115 0 1
141.231 0 1
141.347 0 1
141.463 0 1
141.578 0 1
141.694 0 1
144.104 0 1
144.219 0 1
144.335 0 1
144.45 0 1
144.566 0 1
144.682 0 1
144.798 0 1
144.914 0 1
145.03 0 1
145.146 3458 58.8048
145.262 3437 58.6259
145.378 3402 58.3267
145.494 3279 57.2626
145.61 3132 55.9643
145.726 3053 55.254
145.842 2932 54.1479
145.959 3068 55.3895
146.075 3132 55.9643
146.192 3102 55.6956
146.308 3097 55.6507
146.425 3084 55.5338
146.541 3126 55.9106
146.658 3119 55.848
146.774 3176 56.356
146.891 3215 56.701
147.008 3220 56.745
147.125 3150 56.1249
147.241 3241 56.9298
147.358 3230 56.8331
147.475 3088 55.5698
147.592 3074 55.4437
147.709 2942 54.2402
147.826 2835 53.2447
147.943 3018 54.9363
148.06 3026 55.0091
148.177 2982 54.6077
148.294 3011 54.8726
148.411 3014 54.8999
148.528 2978 54.5711
148.645 2824 53.1413
148.762 2797 52.8867
148.88 2760 52.5357
148.997 2626 51.2445
149.114 2446 49.4571
149.231 2348 48.4562
149.349 2340 48.3735
149.466 2468 49.679
149.583 2419 49.1833
149.701 2399 48.9796
149.818 2439 49.3862
149.935 2471 49.7092
150.053 2464 49.6387
150.17 2600 50.9902
150.287 2613 51.1175
150.405 2710 52.0577
150.522 2720 52.1536
150.64 2737 52.3163
150.757 2746 52.4023
150.875 2746 52.4023
150.992 2684 51.8073
151.11 2835 53.2447
151.227 2770 52.6308
151.344 2631 51.2933
151.462 2636 51.342
151.579 2757 52.5071
151.697 2986 54.6443
151.814 3053 55.254
151.932 2911 53.9537
152.049 3014 54.8999
152.167 2892 53.7773
152.284 2961 54.4151
152.402 2915 53.9907
152.519 2713 52.0865
152.636 2681 51.7784
152.754 2637 51.3517
152.871 2645 51.4296
152.989 2511 50.1099
153.106 2611 51.0979
153.223 2604 51.0294
153.341 2690 51.8652
153.458 2766 52.5928
153.575 2802 52.9339
153.693 2892 53.7773
153.81 2877 53.6377
153.927 2954 54.3507
154.044 3116 55.8211
154.162 3048 55.2087
154.279 3136 56
154.396 3323 57.6455
154.513 3293 57.3847
154.63 3350 57.8792
154.747 3321 57.6281
154.864 3363 57.9914
154.981 3167 56.2761
155.098 3380 58.1378
155.215 3346 57.8446
155.332 3562 59.6825
155.449 3552 59.5987
155.566 3652 60.4318
155.683 3691 60.7536
155.8 3608 60.0666
155.917 3660 60.4979
156.033 3519 59.3212
156.15 0 1
156.267 0 1
156.383 0 1
156.5 0 1
156.617 0 1
156.733 0 1
156.85 0 1
156.966 0 1
157.082 0 1
157.199 0 1
157.315 0 1
157.431 0 1
157.547 0 1
157.664 0 1
157.78 0 1
157.896 0 1
158.012 0 1
158.128 0 1
158.244 0 1
158.359 0 1
158.475 0 1
158.591 0 1
158.706 0 1
