
6.15755 0 1
6.2731 0 1
6.3887 0 1
6.50437 0 1
6.62009 0 1
6.73587 0 1
6.8517 0 1
6.96759 0 1
7.08353 0 1
7.19952 0 1
7.31557 0 1
7.43166 0 1
7.54781 0 1
7.664 0 1
7.78024 0 1
7.89653 0 1
8.01286 0 1
8.12924 0 1
8.24567 0 1
8.36213 0 1
8.47864 0 1
8.59519 0 1
8.71178 0 1
8.82841 0 1
8.94508 0 1
9.06179 0 1
9.17853 0 1
9.29531 0 1
9.41212 0 1
9.52897 0 1
9.64584 0 1
9.76276 0 1
9.8797 0 1
9.99667 0 1
10.1137 0 1
10.2307 0 1
10.3478 0 1
10.4648 0 1
10.5819 0 1
10.6991 0 1
10.8162 0 1
10.9334 0 1
11.0506 0 1
11.1678 0 1
11.285 0 1
11.4023 0 1
11.5196 0 1
11.6369 0 1
11.7542 0 1
11.8715 0 1
11.9888 0 1
12.1062 0 1
12.2235 0 1
12.3409 0 1
12.4582 0 1
12.5756 0 1
12.693 0 1
12.8104 0 1
12.9278 0 1
13.0452 0 1
13.1626 0 1
13.28 0 1
13.3974 0 1
13.5149 0 1
13.6323 0 1
13.7497 0 1
13.8671 0 1
13.9845 0 1
14.1019 0 1
14.2193 0 1
14.3367 0 1
14.4541 0 1
14.5714 0 1
14.6888 0 1
14.8062 0 1
14.9235 0 1
15.0408 1779 42.1782
15.1581 1867 43.2088
15.2755 1922 43.8406
15.3927 1916 43.7721
15.51 1904 43.6348
15.6273 1938 44.0227
15.7445 1812 42.5676
15.8617 1952 44.1814
15.9789 1897 43.5546
16.0961 1912 43.7264
16.2132 1900 43.589
16.3304 1845 42.9535
16.4475 1951 44.1701
16.5646 1785 42.2493
16.6816 1828 42.7551
16.7986 1919 43.8064
16.9156 1957 44.238
17.0326 1920 43.8178
17.1496 1989 44.5982
17.2665 1929 43.9204
17.3833 2060 45.3872
17.5002 1939 44.0341
17.617 2015 44.8888
17.7338 2009 44.8219
17.8505 1975 44.441
17.9672 1993 44.643
18.0839 1944 44.0908
18.2005 1895 43.5316
18.3171 2041 45.1774
18.4337 2184 46.7333
18.5502 2058 45.3652
18.6666 2112 45.9565
18.7831 2153 46.4004
18.8994 2120 46.0435
19.0158 2023 44.9778
19.1321 2042 45.1885
19.2483 1881 43.3705
19.3645 1891 43.4856
19.4806 1813 42.5793
19.5967 1740 41.7133
19.7128 1601 40.0125
19.8288 1561 39.5095
19.9447 1305 36.1248
20.0606 0 1
20.1764 0 1
20.2922 0 1
20.4079 0 1
20.5236 0 1
20.6392 0 1
20.7548 0 1
20.8702 0 1
23.3078 0 1
23.4233 0 1
23.539 0 1
23.6547 0 1
23.7704 0 1
23.8862 0 1
24.0021 0 1
24.118 0 1
24.234 0 1
24.35 0 1
24.4661 1028 32.0624
24.5822 1159 34.0441
24.6984 1383 37.1887
24.8146 1469 38.3275
24.9309 1603 40.0375
25.0472 1743 41.7493
25.1636 1751 41.845
25.28 1889 43.4626
25.3965 2054 45.3211
25.513 1986 44.5646
25.6296 2072 45.5192
25.7462 2093 45.7493
25.8628 2188 46.7761
25.9795 2270 47.6445
26.0962 2301 47.9687
26.213 2279 47.7389
26.3298 2336 48.3322
26.4466 2264 47.5815
26.5635 2294 47.8957
26.6804 2283 47.7807
26.7973 2281 47.7598
26.9143 2295 47.9062
27.0313 2350 48.4768
27.1483 2349 48.4665
27.2653 2441 49.4065
27.3824 2498 49.98
27.4996 2421 49.2037
27.6167 2432 49.3153
27.7339 2342 48.3942
27.8511 2333 48.3011
27.9683 2262 47.5605
28.0855 2325 48.2183
28.2028 2292 47.8748
28.3201 2307 48.0312
28.4374 2212 47.0319
28.5547 2270 47.6445
28.6721 2167 46.551
28.7894 2067 45.4643
28.9068 2103 45.8585
29.0242 2049 45.2659
29.1416 2158 46.4543
29.259 2177 46.6583
29.3764 2142 46.2817
29.4939 2152 46.3897
29.6113 2212 47.0319
29.7288 2244 47.3709
29.8463 2254 47.4763
29.9638 2231 47.2335
30.0812 2239 47.3181
30.1987 2277 47.7179
30.3162 2265 47.592
30.4337 2312 48.0833
30.5512 2247 47.4025
30.6687 2379 48.775
30.7862 2483 49.8297
30.9037 2533 50.3289
31.0212 2375 48.734
31.1387 2421 49.2037
31.2562 2372 48.7032
31.3737 2451 49.5076
31.4912 2392 48.9081
31.6087 2320 48.1664
31.7262 2354 48.518
31.8436 2344 48.4149
31.9611 2310 48.0625
32.0785 2265 47.592
32.1959 2192 46.8188
32.3134 2193 46.8295
32.4308 2075 45.5522
32.5482 2035 45.111
32.6655 2154 46.4112
32.7829 2100 45.8258
32.9002 2160 46.4758
33.0176 2252 47.4552
33.1349 2168 46.5618
33.2522 2177 46.6583
33.3694 2298 47.9375
33.4867 2388 48.8672
33.6039 2283 47.7807
33.7211 2318 48.1456
33.8383 2267 47.613
33.9554 2259 47.5289
34.0725 2340 48.3735
34.1896 2407 49.0612
34.3067 2421 49.2037
34.4237 2543 50.4282
34.5407 2439 49.3862
34.6577 2525 50.2494
34.7746 2560 50.5964
34.8915 2551 50.5074
35.0084 2423 49.224
35.1252 2478 49.7795
35.242 2409 49.0816
35.3587 2471 49.7092
35.4755 2447 49.4672
35.5921 2317 48.1352
35.7088 2396 48.949
35.8254 2325 48.2183
35.9419 2144 46.3033
36.0584 2003 44.7549
36.1749 2059 45.3762
36.2913 1941 44.0568
36.4077 1873 43.2782
36.524 1844 42.9418
36.6403 1765 42.0119
36.7565 1857 43.0929
36.8727 1722 41.497
36.9889 1743 41.7493
37.1049 1720 41.4729
37.221 0 1
37.3369 0 1
37.4529 0 1
37.5687 0 1
37.6845 0 1
37.8003 0 1
37.916 0 1
38.0316 0 1
38.1472 0 1
40.5851 0 1
40.7008 0 1
40.8164 0 1
40.9322 0 1
41.048 0 1
41.1639 0 1
41.2798 0 1
41.3958 0 1
41.5118 0 1
41.6279 0 1
41.744 1036 32.187
41.8602 1183 34.3948
41.9765 1417 37.6431
42.0928 1482 38.4968
42.2091 1646 40.5709
42.3255 1685 41.0488
42.4419 1911 43.715
42.5584 1901 43.6005
42.675 1957 44.238
42.7915 2039 45.1553
42.9081 2048 45.2548
43.0248 2173 46.6154
43.1415 2376 48.7442
43.2582 2518 50.1797
43.375 2523 50.2295
43.4918 2504 50.04
43.6087 2534 50.3389
43.7256 2489 49.8899
43.8425 2434 49.3356
43.9595 2501 50.01
44.0765 2423 49.224
44.1935 2368 48.6621
44.3106 2463 49.6286
44.4277 2405 49.0408
44.5448 2469 49.689
44.6619 2309 48.0521
44.7791 2193 46.8295
44.8963 2004 44.7661
45.0136 1980 44.4972
45.1308 1925 43.8748
45.2481 1846 42.9651
45.3654 1935 43.9886
45.4827 2020 44.9444
45.6001 2184 46.7333
45.7174 2087 45.6837
45.8348 2339 48.3632
45.9522 2379 48.775
46.0697 2436 49.3559
46.1871 2364 48.621
46.3046 2441 49.4065
46.422 2497 49.97
46.5395 2460 49.5984
46.657 2652 51.4976
46.7745 2572 50.7149
46.892 2627 51.2543
47.0096 2658 51.5558
47.1271 2702 51.9808
47.2446 2745 52.3927
47.3622 2753 52.469
47.4797 2689 51.8556
47.5973 2698 51.9423
47.7149 2545 50.448
47.8324 2613 51.1175
47.95 2610 51.0882
48.0675 2615 51.1371
48.1851 2563 50.6261
48.3027 2304 48
48.4202 2227 47.1911
48.5378 2087 45.6837
48.6554 2003 44.7549
48.7729 1928 43.909
48.8904 1969 44.3734
49.008 1920 43.8178
49.1255 2111 45.9456
49.243 2275 47.697
49.3605 2354 48.518
49.478 2489 49.8899
49.5955 2622 51.2055
49.713 2536 50.3587
49.8304 2597 50.9608
49.9479 2572 50.7149
50.0653 2680 51.7687
50.1827 2591 50.9019
50.3001 2694 51.9038
50.4175 2703 51.9904
50.5348 2862 53.4977
50.6521 2832 53.2165
50.7694 2895 53.8052
50.8867 2832 53.2165
51.004 2796 52.8772
51.1212 2764 52.5738
51.2384 2729 52.2398
51.3556 2727 52.2207
51.4727 2782 52.7447
51.5899 2832 53.2165
51.707 2737 52.3163
51.824 2501 50.01
51.9411 2335 48.3218
52.0581 2205 46.9574
52.175 2026 45.0111
52.2919 1960 44.2719
52.4088 1972 44.4072
52.5257 2028 45.0333
52.6425 2177 46.6583
52.7593 2352 48.4974
52.876 2367 48.6518
52.9927 2535 50.3488
53.1094 2511 50.1099
53.226 2475 49.7494
53.3426 2431 49.3052
53.4591 2335 48.3218
53.5756 2358 48.5592
53.692 2203 46.9361
53.8084 2230 47.2229
53.9248 2131 46.1628
54.0411 2122 46.0652
54.1573 2060 45.3872
54.2735 0 1
54.3896 0 1
54.5057 0 1
54.6217 0 1
54.7377 0 1
54.8537 0 1
54.9695 0 1
55.0853 0 1
55.2011 0 1
55.3168 0 1
55.4324 0 1
57.824 0 1
57.9396 0 1
58.0553 0 1
58.1711 0 1
58.2869 0 1
58.4028 0 1
58.5187 0 1
58.6347 0 1
58.7508 0 1
58.8669 0 1
58.983 2194 46.8402
59.0992 2554 50.5371
59.2155 2750 52.4404
59.3318 3079 55.4887
59.4482 3183 56.4181
59.5646 3273 57.2101
59.681 3377 58.112
59.7975 3485 59.0339
59.9141 3555 59.6238
60.0306 3607 60.0583
60.1473 3612 60.0999
60.2639 3648 60.3987
60.3807 3586 59.8832
60.4974 3544 59.5315
60.6142 3334 57.7408
60.731 3018 54.9363
60.8479 2797 52.8867
60.9648 2567 50.6656
61.0818 2567 50.6656
61.1987 2560 50.5964
61.3158 2732 52.2685
61.4328 2913 53.9722
61.5499 3270 57.1839
61.667 3561 59.6741
61.7841 3851 62.0564
61.9013 3854 62.0806
62.0185 3897 62.426
62.1357 3911 62.538
62.253 3852 62.0645
62.3702 3976 63.0555
62.4875 3976 63.0555
62.6049 4178 64.6375
62.7222 4220 64.9615
62.8396 4334 65.8331
62.9569 4313 65.6734
63.0743 4374 66.1362
63.1918 4198 64.792
63.3092 4269 65.3376
63.4267 4160 64.4981
63.5441 4225 65
63.6616 4044 63.5925
63.7791 4094 63.9844
63.8966 4052 63.6553
64.0142 3693 60.7701
64.1317 3494 59.1101
64.2492 3204 56.6039
64.3668 2811 53.0189
64.4843 2646 51.4393
64.6019 2582 50.8134
64.7195 2622 51.2055
64.837 2713 52.0865
64.9546 3005 54.8179
65.0722 3334 57.7408
65.1898 3655 60.4566
65.3074 3966 62.9762
65.4249 4128 64.2495
65.5425 4171 64.5833
65.6601 4320 65.7267
65.7777 4272 65.3605
65.8952 4202 64.8228
66.0128 4279 65.4141
66.1304 4353 65.9773
66.2479 4303 65.5973
66.3655 4415 66.4455
66.483 4496 67.0522
66.6005 4561 67.5352
66.718 4459 66.7757
66.8355 4621 67.9779
66.953 4419 66.4756
67.0705 4408 66.3928
67.1879 4293 65.521
67.3054 4323 65.7495
67.4228 4312 65.6658
67.5402 4224 64.9923
67.6576 4038 63.5453
67.7749 3774 61.4329
67.8923 3302 57.463
68.0096 2901 53.8609
68.1269 2600 50.9902
68.2442 2510 50.0999
68.3614 2610 51.0882
68.4787 2768 52.6118
68.5958 3005 54.8179
68.713 3505 59.203
68.8302 3875 62.2495
68.9473 4168 64.56
69.0643 4354 65.9848
69.1814 4514 67.1863
69.2984 4535 67.3424
69.4154 4318 65.7115
69.5323 4249 65.1844
69.6492 4083 63.8984
69.7661 4273 65.3682
69.8829 4357 66.0076
69.9997 4301 65.582
70.1165 4351 65.9621
70.2332 4147 64.3972
70.3499 4116 64.1561
70.4665 4008 63.3088
70.5831 3871 62.2174
70.6996 3535 59.4559
70.8161 3508 59.2284
70.9326 3415 58.438
71.049 3166 56.2672
71.1653 3052 55.2449
71.2817 2871 53.5817
71.3979 2538 50.3786
71.5141 2091 45.7275
71.6303 1672 40.8901
71.7464 1213 34.8281
71.8624 0 1
71.9784 0 1
72.0944 0 1
72.2102 0 1
72.3261 0 1
72.4418 0 1
72.5575 0 1
72.6732 0 1
75.1054 0 1
75.2209 0 1
75.3365 0 1
75.4521 0 1
75.5678 0 1
75.6835 0 1
75.7993 0 1
75.9151 0 1
76.031 0 1
76.147 3353 57.9051
76.263 3557 59.6406
76.3791 3709 60.9016
76.4952 3728 61.0574
76.6113 3547 59.5567
76.7276 3466 58.8727
76.8438 3136 56
76.9601 2741 52.3546
77.0765 2546 50.4579
77.1929 2384 48.8262
77.3093 2342 48.3942
77.4258 2468 49.679
77.5423 2861 53.4883
77.6589 3329 57.6975
77.7755 4061 63.726
77.8921 4438 66.6183
78.0088 4921 70.1498
78.1256 4963 70.4486
78.2423 4964 70.4557
78.3591 4840 69.5701
78.4759 5003 70.7319
78.5928 4792 69.2243
78.7097 4789 69.2026
78.8266 4983 70.5904
78.9436 5329 73
79.0606 5207 72.1595
79.1776 5257 72.5052
79.2946 5447 73.8038
79.4117 5416 73.5935
79.5288 5280 72.6636
79.6459 5271 72.6017
79.7631 5244 72.4155
79.8802 5199 72.1041
79.9974 5300 72.8011
80.1147 5483 74.0473
80.2319 5254 72.4845
80.3491 4966 70.4699
80.4664 4438 66.6183
80.5837 3865 62.1691
80.701 3172 56.3205
80.8183 2913 53.9722
80.9357 2714 52.0961
81.053 2778 52.7067
81.1704 3137 56.0089
81.2877 3529 59.4054
81.4051 4274 65.3758
81.5225 5105 71.4493
81.6399 5454 73.8512
81.7573 6066 77.8845
81.8747 5819 76.2824
81.9922 5826 76.3282
82.1096 5830 76.3544
82.227 5687 75.4122
82.3444 5696 75.4718
82.4619 5955 77.1686
82.5793 5993 77.4145
82.6967 6176 78.5875
82.8142 6214 78.8289
82.9316 6429 80.181
83.049 6305 79.404
83.1664 6288 79.2969
83.2838 6271 79.1896
83.4012 6079 77.9679
83.5186 6048 77.7689
83.636 6086 78.0128
83.7534 6112 78.1793
83.8708 5795 76.1249
83.9881 5454 73.8512
84.1055 4968 70.484
84.2228 4269 65.3376
84.3401 3821 61.8142
84.4575 3258 57.0789
84.5747 2986 54.6443
84.692 3006 54.827
84.8093 3330 57.7062
84.9265 3952 62.8649
85.0437 4826 69.4694
85.1609 5816 76.2627
85.2781 6303 79.3914
85.3952 6586 81.1542
85.5123 6875 82.9156
85.6294 6715 81.9451
85.7465 6600 81.2404
85.8636 6697 81.8352
85.9806 6451 80.3181
86.0976 6683 81.7496
86.2145 6803 82.4803
86.3315 7180 84.7349
86.4484 7027 83.8272
86.5652 7077 84.1249
86.682 6936 83.2827
86.7988 6675 81.7007
86.9156 6405 80.0312
87.0323 6409 80.0562
87.149 6351 79.6932
87.2657 6215 78.8353
87.3823 6231 78.9367
87.4988 5840 76.4199
87.6154 5274 72.6223
87.7318 4568 67.587
87.8483 3952 62.8649
87.9647 3297 57.4195
88.081 2668 51.6527
88.1973 2484 49.8397
88.3136 2440 49.3964
88.4298 2657 51.5461
88.546 3187 56.4535
88.6621 3676 60.63
88.7781 4104 64.0625
88.8942 0 1
89.0101 0 1
89.126 0 1
89.2419 0 1
89.3577 0 1
89.4734 0 1
89.5891 0 1
89.7047 0 1
89.8203 0 1
89.9358 0 1
92.3269 0 1
92.4424 0 1
92.558 0 1
92.6736 0 1
92.7893 0 1
92.905 0 1
93.0208 0 1
93.1366 0 1
93.2525 0 1
93.3685 0 1
93.4845 0 1
93.6005 2795 52.8678
93.7167 3096 55.6417
93.8328 3505 59.203
93.949 4333 65.8255
94.0653 5238 72.374
94.1816 6143 78.3773
94.2979 6839 82.6982
94.4143 7439 86.2496
94.5307 7622 87.3041
94.6472 8214 90.6311
94.7637 8248 90.8185
94.8803 8009 89.493
94.9969 8054 89.7441
95.1135 7789 88.2553
95.2302 8215 90.6366
95.3469 8353 91.3947
95.4637 8287 91.033
95.5805 8730 93.4345
95.6973 8521 92.3093
95.8142 8345 91.351
95.9311 8371 91.4932
96.048 8199 90.5483
96.1649 8179 90.4378
96.2819 8123 90.1277
96.3989 7950 89.1628
96.516 7864 88.6792
96.633 7557 86.931
96.7501 6662 81.6211
96.8673 6059 77.8396
96.9844 5268 72.581
97.1016 4687 68.4617
97.2188 4097 64.0078
97.336 3922 62.6259
97.4532 4227 65.0154
97.5704 4695 68.5201
97.6877 5542 74.4446
97.805 6598 81.2281
97.9223 7592 87.1321
98.0396 8129 90.161
98.1569 8372 91.4986
98.2743 8640 92.9516
98.3916 8759 93.5895
98.509 8455 91.9511
98.6264 8289 91.0439
98.7438 8353 91.3947
98.8612 8555 92.4932
98.9786 8709 93.322
99.096 8917 94.4299
99.2134 9123 95.5144
99.3308 9088 95.331
99.4482 8847 94.0585
99.5656 8852 94.0851
99.6831 8796 93.787
99.8005 8876 94.2125
99.9179 8676 93.145
100.035 8493 92.1575
100.153 8292 91.0604
100.27 7781 88.21
100.388 6950 83.3667
100.505 5945 77.1038
100.622 5299 72.7942
100.74 4589 67.7422
100.857 4345 65.9166
100.975 4328 65.7875
101.092 4663 68.2862
101.209 5440 73.7564
101.327 6478 80.486
101.444 7582 87.0747
101.561 8430 91.815
101.679 8686 93.1987
101.796 9243 96.1405
101.913 8922 94.4563
102.03 8869 94.1754
102.148 8664 93.0806
102.265 8714 93.3488
102.382 8744 93.5094
102.499 8821 93.9202
102.616 9072 95.247
102.733 9192 95.8749
102.851 9142 95.6138
102.968 9284 96.3535
103.085 9080 95.289
103.202 9202 95.9271
103.319 8853 94.0904
103.436 8782 93.7123
103.552 8702 93.2845
103.669 8636 92.9301
103.786 8342 91.3345
103.903 7372 85.8604
104.02 6651 81.5537
104.137 5729 75.6902
104.253 5047 71.0422
104.37 4549 67.4463
104.487 4444 66.6633
104.603 4607 67.8749
104.72 4807 69.3325
104.836 5578 74.686
104.953 6198 78.7274
105.069 6748 82.1462
105.186 7181 84.7408
105.302 7160 84.6168
105.418 7136 84.4748
105.535 6664 81.6333
105.651 6359 79.7433
105.767 6016 77.5629
105.883 5438 73.7428
105.999 5096 71.3863
106.115 0 1
106.231 0 1
106.347 0 1
106.463 0 1
106.579 0 1
106.694 0 1
106.81 0 1
106.926 0 1
107.041 0 1
107.157 0 1
109.576 0 1
109.692 0 1
109.807 0 1
109.923 0 1
110.039 0 1
110.155 0 1
110.27 0 1
110.386 0 1
110.502 0 1
110.618 5004 70.739
110.735 5548 74.4849
110.851 5676 75.3392
110.967 6111 78.1729
111.083 6485 80.5295
111.199 7014 83.7496
111.316 7274 85.2877
111.432 7600 87.178
111.549 8089 89.9389
111.665 8154 90.2995
111.782 8090 89.9444
111.898 7984 89.3532
112.015 7866 88.6905
112.132 7708 87.7952
112.248 7855 88.6284
112.365 7963 89.2356
112.482 7638 87.3957
112.599 6815 82.553
112.716 5959 77.1946
112.832 5156 71.8053
112.949 4510 67.1565
113.066 4249 65.1844
113.183 4143 64.3661
113.3 4224 64.9923
113.417 4619 67.9632
113.534 5508 74.2159
113.652 6484 80.5233
113.769 7129 84.4334
113.886 7619 87.2869
114.003 7842 88.5551
114.12 7960 89.2188
114.238 7919 88.9888
114.355 7594 87.1436
114.472 7563 86.9655
114.589 7484 86.5101
114.707 7855 88.6284
114.824 7789 88.2553
114.942 7835 88.5155
115.059 7950 89.1628
115.176 7793 88.278
115.294 7759 88.0852
115.411 7656 87.4986
115.529 7625 87.3212
115.646 7496 86.5794
115.764 7179 84.729
115.881 7115 84.3505
115.999 7134 84.463
116.116 6712 81.9268
116.234 6171 78.5557
116.351 5320 72.9383
116.469 4739 68.8404
116.586 4341 65.8863
116.704 4023 63.4271
116.821 3953 62.8729
116.939 4118 64.1716
117.056 4554 67.4833
117.174 5315 72.904
117.291 6236 78.9683
117.409 6614 81.3265
117.526 7113 84.3386
117.644 7180 84.7349
117.761 7127 84.4216
117.879 7061 84.0298
117.996 6765 82.2496
118.114 6804 82.4864
118.231 6843 82.7224
118.349 7133 84.4571
118.466 7140 84.4985
118.584 7074 84.1071
118.701 7069 84.0773
118.819 7101 84.2674
118.936 6960 83.4266
119.053 6936 83.2827
119.171 6485 80.5295
119.288 6517 80.7279
119.405 6468 80.4239
119.523 6475 80.4674
119.64 6290 79.3095
119.757 6204 78.7655
119.875 5777 76.0066
119.992 5000 70.7107
120.109 4401 66.34
120.226 4110 64.1093
120.343 3990 63.1664
120.46 3725 61.0328
120.578 3687 60.7207
120.695 3996 63.2139
120.812 4276 65.3911
120.929 5090 71.3442
121.046 5417 73.6003
121.163 5659 75.2263
121.279 5735 75.7298
121.396 5983 77.3499
121.513 5611 74.9066
121.63 5548 74.4849
121.747 5389 73.4098
121.863 5211 72.1873
121.98 5414 73.5799
122.097 5249 72.45
122.213 5316 72.9109
122.33 5108 71.4703
122.446 5038 70.9789
122.563 4781 69.1448
122.679 4564 67.5574
122.795 4283 65.4446
122.912 4093 63.9766
123.028 3827 61.8628
123.144 3590 59.9166
123.26 3317 57.5934
123.377 0 1
123.493 0 1
123.609 0 1
123.725 0 1
123.84 0 1
123.956 0 1
124.072 0 1
124.188 0 1
124.303 0 1
124.419 0 1
126.852 0 1
126.968 0 1
127.083 0 1
127.199 0 1
127.315 0 1
127.431 0 1
127.547 0 1
127.663 0 1
127.779 0 1
127.895 0 1
128.011 0 1
128.127 0 1
128.243 0 1
128.359 5878 76.6681
128.476 6030 77.6531
128.592 6060 77.846
128.708 6222 78.8797
128.825 6142 78.3709
128.941 5904 76.8375
129.058 5693 75.452
129.174 5055 71.0985
129.291 4726 68.7459
129.408 4522 67.2458
129.524 4370 66.106
129.641 4232 65.0538
129.758 4301 65.582
129.875 4741 68.8549
129.992 5157 71.8123
130.108 5633 75.0533
130.225 6077 77.9551
130.342 6352 79.6994
130.459 6523 80.7651
130.576 6571 81.0617
130.693 6141 78.3645
130.81 6265 79.1518
130.928 6411 80.0687
131.045 6593 81.1973
131.162 6578 81.1049
131.279 6810 82.5227
131.396 6660 81.6088
131.513 6734 82.061
131.631 6613 81.3204
131.748 6549 80.9259
131.865 6364 79.7747
131.983 6243 79.0127
132.1 6281 79.2528
132.217 6190 78.6766
132.335 6223 78.886
132.452 6151 78.4283
132.57 5668 75.2861
132.687 5205 72.1457
132.804 5022 70.8661
132.922 4576 67.6461
133.039 4534 67.335
133.157 4350 65.9545
133.274 4313 65.6734
133.392 4444 66.6633
133.509 4852 69.6563
133.627 5319 72.9315
133.744 5622 74.98
133.862 6183 78.6321
133.979 6208 78.7909
134.097 6264 79.1454
134.214 6161 78.492
134.332 6094 78.0641
134.449 5984 77.3563
134.567 6305 79.404
134.684 6307 79.4166
134.802 6473 80.455
134.919 6517 80.7279
135.037 6547 80.9135
135.154 6466 80.4114
135.272 6270 79.1833
135.389 6252 79.0696
135.507 5963 77.2205
135.624 6074 77.9359
135.742 5977 77.3111
135.859 5995 77.4274
135.977 5915 76.909
136.094 5908 76.8635
136.211 5610 74.8999
136.329 5235 72.3533
136.446 4950 70.3562
136.564 4525 67.2681
136.681 4517 67.2086
136.798 4449 66.7008
136.915 4388 66.242
137.033 4370 66.106
137.15 4723 68.7241
137.267 5144 71.7217
137.384 5404 73.5119
137.502 5544 74.458
137.619 5721 75.6373
137.736 5798 76.1446
137.853 5645 75.1332
137.97 5557 74.5453
138.087 5563 74.5855
138.204 5638 75.0866
138.321 5825 76.3217
138.438 5757 75.8749
138.555 5841 76.4264
138.672 5670 75.2994
138.788 5522 74.3102
138.905 5437 73.736
139.022 5118 71.5402
139.139 4928 70.1997
139.255 4783 69.1592
139.372 4437 66.6108
139.488 4329 65.7951
139.605 4188 64.7148
139.721 4100 64.0312
139.838 3755 61.2781
139.954 3354 57.9137
140.071 3013 54.8908
140.187 2751 52.45
140.303 2555 50.547
140.419 2288 47.833
140.535 2087 45.6837
140.652 2034 45.0999
140.768 0 1
140.884 0 1
141 0 1
141.115 0 1
141.231 0 1
141.347 0 1
141.463 0 1
141.578 0 1
141.694 0 1
144.104 0 1
144.219 0 1
144.335 0 1
144.45 0 1
144.566 0 1
144.682 0 1
144.798 0 1
144.914 0 1
145.03 0 1
145.146 3372 58.0689
145.262 3510 59.2453
145.378 3510 59.2453
145.494 3510 59.2453
145.61 3417 58.4551
145.726 3450 58.7367
145.842 3413 58.4209
145.959 3412 58.4123
146.075 3496 59.127
146.192 3695 60.7865
146.308 3841 61.9758
146.425 4024 63.435
146.541 3994 63.1981
146.658 3947 62.8252
146.774 3890 62.3699
146.891 3894 62.4019
147.008 4089 63.9453
147.125 4193 64.7534
147.241 4151 64.4283
147.358 4390 66.2571
147.475 4315 65.6887
147.592 4213 64.9076
147.709 4118 64.1716
147.826 4107 64.0859
147.943 3989 63.1585
148.06 3948 62.8331
148.177 4006 63.293
148.294 3881 62.2977
148.411 4002 63.2614
148.528 3986 63.1348
148.645 3931 62.6977
148.762 3924 62.6418
148.88 3865 62.1691
148.997 3766 61.3677
149.114 3574 59.7829
149.231 3422 58.4979
149.349 3463 58.8473
149.466 3281 57.28
149.583 3401 58.3181
149.701 3364 58
149.818 3588 59.8999
149.935 3583 59.8582
150.053 3670 60.5805
150.17 3744 61.1882
150.287 3786 61.5305
150.405 3836 61.9355
150.522 3701 60.8358
150.64 3705 60.8687
150.757 3913 62.554
150.875 3959 62.9206
150.992 4066 63.7652
151.11 4137 64.3195
151.227 4136 64.3117
151.344 3937 62.7455
151.462 4000 63.2456
151.579 3911 62.538
151.697 3805 61.6847
151.814 3673 60.6053
151.932 3749 61.2291
152.049 3721 61
152.167 3723 61.0164
152.284 3647 60.3904
152.402 3764 61.3514
152.519 3631 60.2578
152.636 3579 59.8247
152.754 3417 58.4551
152.871 3383 58.1636
152.989 3284 57.3062
153.106 3345 57.836
153.223 3279 57.2626
153.341 3302 57.463
153.458 3367 58.0259
153.575 3413 58.4209
153.693 3413 58.4209
153.81 3477 58.9661
153.927 3421 58.4893
154.044 3471 58.9152
154.162 3371 58.0603
154.279 3497 59.1354
154.396 3658 60.4814
154.513 3697 60.803
154.63 3724 61.0246
154.747 3762 61.3351
154.864 3761 61.327
154.981 3484 59.0254
155.098 3613 60.1082
155.215 3440 58.6515
155.332 3429 58.5577
155.449 3298 57.4282
155.566 3415 58.438
155.683 3365 58.0086
155.8 3304 57.4804
155.917 3264 57.1314
156.033 3203 56.5951
156.15 0 1
156.267 0 1
156.383 0 1
156.5 0 1
156.617 0 1
156.733 0 1
156.85 0 1
156.966 0 1
157.082 0 1
157.199 0 1
157.315 0 1
157.431 0 1
157.547 0 1
157.664 0 1
157.78 0 1
157.896 0 1
158.012 0 1
158.128 0 1
158.244 0 1
158.359 0 1
158.475 0 1
158.591 0 1
158.706 0 1
