
6.15755 0 1
6.2731 0 1
6.3887 0 1
6.50437 0 1
6.62009 0 1
6.73587 0 1
6.8517 0 1
6.96759 0 1
7.08353 0 1
7.19952 0 1
7.31557 0 1
7.43166 0 1
7.54781 0 1
7.664 0 1
7.78024 0 1
7.89653 0 1
8.01286 0 1
8.12924 0 1
8.24567 0 1
8.36213 0 1
8.47864 0 1
8.59519 0 1
8.71178 0 1
8.82841 0 1
8.94508 0 1
9.06179 0 1
9.17853 0 1
9.29531 0 1
9.41212 0 1
9.52897 0 1
9.64584 0 1
9.76276 0 1
9.8797 0 1
9.99667 0 1
10.1137 0 1
10.2307 0 1
10.3478 0 1
10.4648 0 1
10.5819 0 1
10.6991 0 1
10.8162 0 1
10.9334 0 1
11.0506 0 1
11.1678 0 1
11.285 0 1
11.4023 0 1
11.5196 0 1
11.6369 0 1
11.7542 0 1
11.8715 0 1
11.9888 0 1
12.1062 0 1
12.2235 0 1
12.3409 0 1
12.4582 0 1
12.5756 0 1
12.693 0 1
12.8104 0 1
12.9278 0 1
13.0452 0 1
13.1626 0 1
13.28 0 1
13.3974 0 1
13.5149 0 1
13.6323 0 1
13.7497 0 1
13.8671 0 1
13.9845 0 1
14.1019 0 1
14.2193 0 1
14.3367 0 1
14.4541 0 1
14.5714 0 1
14.6888 0 1
14.8062 0 1
14.9235 0 1
15.0408 845 29.0689
15.1581 899 29.9833
15.2755 954 30.8869
15.3927 947 30.7734
15.51 978 31.273
15.6273 920 30.3315
15.7445 909 30.1496
15.8617 921 30.348
15.9789 902 30.0333
16.0961 884 29.7321
16.2132 898 29.9666
16.3304 936 30.5941
16.4475 960 30.9839
16.5646 1038 32.218
16.6816 1000 31.6228
16.7986 1040 32.249
16.9156 1105 33.2415
17.0326 1076 32.8024
17.1496 1036 32.187
17.2665 1000 31.6228
17.3833 1100 33.1662
17.5002 1025 32.0156
17.617 1049 32.3883
17.7338 971 31.1609
17.8505 933 30.545
17.9672 910 30.1662
18.0839 895 29.9166
18.2005 962 31.0161
18.3171 1008 31.749
18.4337 1039 32.2335
18.5502 1042 32.28
18.6666 1040 32.249
18.7831 1059 32.5423
18.8994 1033 32.1403
19.0158 1042 32.28
19.1321 1070 32.7109
19.2483 956 30.9192
19.3645 968 31.1127
19.4806 820 28.6356
19.5967 821 28.6531
19.7128 772 27.7849
19.8288 693 26.3249
19.9447 609 24.6779
20.0606 0 1
20.1764 0 1
20.2922 0 1
20.4079 0 1
20.5236 0 1
20.6392 0 1
20.7548 0 1
20.8702 0 1
23.3078 0 1
23.4233 0 1
23.539 0 1
23.6547 0 1
23.7704 0 1
23.8862 0 1
24.0021 0 1
24.118 0 1
24.234 0 1
24.35 0 1
24.4661 435 20.8567
24.5822 538 23.1948
24.6984 540 23.2379
24.8146 622 24.9399
24.9309 686 26.1916
25.0472 735 27.1109
25.1636 749 27.3679
25.28 804 28.3549
25.3965 957 30.9354
25.513 1013 31.8277
25.6296 1076 32.8024
25.7462 1094 33.0757
25.8628 1075 32.7872
25.9795 1122 33.4963
26.0962 1049 32.3883
26.213 1096 33.1059
26.3298 1021 31.9531
26.4466 986 31.4006
26.5635 935 30.5778
26.6804 928 30.4631
26.7973 971 31.1609
26.9143 1078 32.8329
27.0313 1000 31.6228
27.1483 1038 32.218
27.2653 1073 32.7567
27.3824 1022 31.9687
27.4996 1098 33.1361
27.6167 1084 32.9242
27.7339 1047 32.3574
27.8511 1071 32.7261
27.9683 977 31.257
28.0855 950 30.8221
28.2028 930 30.4959
28.3201 927 30.4467
28.4374 921 30.348
28.5547 872 29.5296
28.6721 946 30.7571
28.7894 944 30.7246
28.9068 1045 32.3265
29.0242 1014 31.8434
29.1416 1110 33.3167
29.259 1049 32.3883
29.3764 1038 32.218
29.4939 1107 33.2716
29.6113 1058 32.5269
29.7288 1023 31.9844
29.8463 955 30.9031
29.9638 910 30.1662
30.0812 917 30.282
30.1987 916 30.2655
30.3162 948 30.7896
30.4337 917 30.282
30.5512 962 31.0161
30.6687 928 30.4631
30.7862 947 30.7734
30.9037 1055 32.4808
31.0212 982 31.3369
31.1387 940 30.6594
31.2562 963 31.0322
31.3737 954 30.8869
31.4912 988 31.4325
31.6087 994 31.5278
31.7262 901 30.0167
31.8436 907 30.1164
31.9611 899 29.9833
32.0785 823 28.688
32.1959 846 29.0861
32.3134 890 29.8329
32.4308 1012 31.8119
32.5482 1041 32.2645
32.6655 1004 31.686
32.7829 1011 31.7962
32.9002 1038 32.218
33.0176 1018 31.9061
33.1349 1026 32.0312
33.2522 1051 32.4191
33.3694 955 30.9031
33.4867 937 30.6105
33.6039 902 30.0333
33.7211 850 29.1548
33.8383 835 28.8964
33.9554 875 29.5804
34.0725 872 29.5296
34.1896 929 30.4795
34.3067 964 31.0483
34.4237 941 30.6757
34.5407 1046 32.3419
34.6577 936 30.5941
34.7746 1013 31.8277
34.8915 1003 31.6702
35.0084 935 30.5778
35.1252 976 31.241
35.242 881 29.6816
35.3587 873 29.5466
35.4755 838 28.9482
35.5921 863 29.3769
35.7088 787 28.0535
35.8254 794 28.178
35.9419 843 29.0345
36.0584 838 28.9482
36.1749 847 29.1033
36.2913 905 30.0832
36.4077 938 30.6268
36.524 899 29.9833
36.6403 793 28.1603
36.7565 838 28.9482
36.8727 836 28.9137
36.9889 751 27.4044
37.1049 674 25.9615
37.221 0 1
37.3369 0 1
37.4529 0 1
37.5687 0 1
37.6845 0 1
37.8003 0 1
37.916 0 1
38.0316 0 1
38.1472 0 1
40.5851 0 1
40.7008 0 1
40.8164 0 1
40.9322 0 1
41.048 0 1
41.1639 0 1
41.2798 0 1
41.3958 0 1
41.5118 0 1
41.6279 0 1
41.744 462 21.4942
41.8602 517 22.7376
41.9765 586 24.2074
42.0928 594 24.3721
42.2091 573 23.9374
42.3255 574 23.9583
42.4419 552 23.4947
42.5584 572 23.9165
42.675 639 25.2784
42.7915 650 25.4951
42.9081 743 27.258
43.0248 807 28.4077
43.1415 721 26.8514
43.2582 814 28.5307
43.375 829 28.7924
43.4918 802 28.3196
43.6087 854 29.2233
43.7256 811 28.4781
43.8425 808 28.4253
43.9595 784 28
44.0765 800 28.2843
44.1935 780 27.9285
44.3106 672 25.923
44.4277 707 26.5895
44.5448 679 26.0576
44.6619 665 25.7876
44.7791 643 25.3574
44.8963 742 27.2397
45.0136 771 27.7669
45.1308 829 28.7924
45.2481 813 28.5132
45.3654 835 28.8964
45.4827 825 28.7228
45.6001 866 29.4279
45.7174 828 28.775
45.8348 783 27.9821
45.9522 700 26.4575
46.0697 674 25.9615
46.1871 665 25.7876
46.3046 648 25.4558
46.422 726 26.9444
46.5395 727 26.9629
46.657 817 28.5832
46.7745 802 28.3196
46.892 886 29.7658
47.0096 797 28.2312
47.1271 865 29.4109
47.2446 844 29.0517
47.3622 861 29.3428
47.4797 838 28.9482
47.5973 827 28.7576
47.7149 778 27.8927
47.8324 771 27.7669
47.95 757 27.5136
48.0675 703 26.5141
48.1851 680 26.0768
48.3027 713 26.7021
48.4202 710 26.6458
48.5378 761 27.5862
48.6554 774 27.8209
48.7729 823 28.688
48.8904 878 29.6311
49.008 855 29.2404
49.1255 791 28.1247
49.243 797 28.2312
49.3605 712 26.6833
49.478 657 25.632
49.5955 645 25.3969
49.713 659 25.671
49.8304 689 26.2488
49.9479 711 26.6646
50.0653 745 27.2947
50.1827 801 28.3019
50.3001 791 28.1247
50.4175 800 28.2843
50.5348 800 28.2843
50.6521 824 28.7054
50.7694 793 28.1603
50.8867 847 29.1033
51.004 792 28.1425
51.1212 791 28.1247
51.2384 815 28.5482
51.3556 768 27.7128
51.4727 706 26.5707
51.5899 665 25.7876
51.707 630 25.0998
51.824 676 26
51.9411 776 27.8568
52.0581 773 27.8029
52.175 855 29.2404
52.2919 815 28.5482
52.4088 856 29.2575
52.5257 818 28.6007
52.6425 845 29.0689
52.7593 828 28.775
52.876 792 28.1425
52.9927 730 27.0185
53.1094 694 26.3439
53.226 686 26.1916
53.3426 706 26.5707
53.4591 645 25.3969
53.5756 644 25.3772
53.692 674 25.9615
53.8084 596 24.4131
53.9248 597 24.4336
54.0411 637 25.2389
54.1573 547 23.388
54.2735 0 1
54.3896 0 1
54.5057 0 1
54.6217 0 1
54.7377 0 1
54.8537 0 1
54.9695 0 1
55.0853 0 1
55.2011 0 1
55.3168 0 1
55.4324 0 1
57.824 0 1
57.9396 0 1
58.0553 0 1
58.1711 0 1
58.2869 0 1
58.4028 0 1
58.5187 0 1
58.6347 0 1
58.7508 0 1
58.8669 0 1
58.983 564 23.7487
59.0992 682 26.1151
59.2155 731 27.037
59.3318 858 29.2916
59.4482 795 28.1957
59.5646 873 29.5466
59.681 920 30.3315
59.7975 917 30.282
59.9141 946 30.7571
60.0306 966 31.0805
60.1473 896 29.9333
60.2639 808 28.4253
60.3807 803 28.3373
60.4974 868 29.4618
60.6142 882 29.6985
60.731 978 31.273
60.8479 1047 32.3574
60.9648 1018 31.9061
61.0818 1079 32.8481
61.1987 1124 33.5261
61.3158 1038 32.218
61.4328 1008 31.749
61.5499 1001 31.6386
61.667 911 30.1828
61.7841 869 29.4788
61.9013 804 28.3549
62.0185 830 28.8097
62.1357 866 29.4279
62.253 935 30.5778
62.3702 959 30.9677
62.4875 981 31.3209
62.6049 1018 31.9061
62.7222 1036 32.187
62.8396 1089 33
62.9569 1074 32.7719
63.0743 1031 32.1092
63.1918 1002 31.6544
63.3092 1064 32.619
63.4267 994 31.5278
63.5441 972 31.1769
63.6616 905 30.0832
63.7791 834 28.8791
63.8966 825 28.7228
64.0142 871 29.5127
64.1317 844 29.0517
64.2492 946 30.7571
64.3668 1029 32.078
64.4843 1015 31.8591
64.6019 1020 31.9374
64.7195 1014 31.8434
64.837 1029 32.078
64.9546 1034 32.1559
65.0722 1016 31.8748
65.1898 946 30.7571
65.3074 840 28.9828
65.4249 809 28.4429
65.5425 840 28.9828
65.6601 813 28.5132
65.7777 841 29
65.8952 892 29.8664
66.0128 981 31.3209
66.1304 1020 31.9374
66.2479 978 31.273
66.3655 960 30.9839
66.483 1069 32.6956
66.6005 1070 32.7109
66.718 1098 33.1361
66.8355 1030 32.0936
66.953 1059 32.5423
67.0705 1002 31.6544
67.1879 995 31.5436
67.3054 955 30.9031
67.4228 895 29.9166
67.5402 833 28.8617
67.6576 785 28.0179
67.7749 923 30.3809
67.8923 931 30.5123
68.0096 1024 32
68.1269 1069 32.6956
68.2442 1138 33.7343
68.3614 1136 33.7046
68.4787 1143 33.8083
68.5958 1105 33.2415
68.713 1095 33.0908
68.8302 976 31.241
68.9473 937 30.6105
69.0643 938 30.6268
69.1814 914 30.2324
69.2984 928 30.4631
69.4154 974 31.209
69.5323 1031 32.1092
69.6492 1120 33.4664
69.7661 1116 33.4066
69.8829 1149 33.8969
69.9997 1183 34.3948
70.1165 1121 33.4813
70.2332 1131 33.6303
70.3499 1144 33.8231
70.4665 1054 32.4654
70.5831 1020 31.9374
70.6996 927 30.4467
70.8161 913 30.2159
70.9326 785 28.0179
71.049 691 26.2869
71.1653 599 24.4745
71.2817 525 22.9129
71.3979 444 21.0713
71.5141 473 21.7486
71.6303 440 20.9762
71.7464 447 21.1424
71.8624 0 1
71.9784 0 1
72.0944 0 1
72.2102 0 1
72.3261 0 1
72.4418 0 1
72.5575 0 1
72.6732 0 1
75.1054 0 1
75.2209 0 1
75.3365 0 1
75.4521 0 1
75.5678 0 1
75.6835 0 1
75.7993 0 1
75.9151 0 1
76.031 0 1
76.147 731 27.037
76.263 761 27.5862
76.3791 762 27.6043
76.4952 761 27.5862
76.6113 762 27.6043
76.7276 752 27.4226
76.8438 841 29
76.9601 873 29.5466
77.0765 878 29.6311
77.1929 1006 31.7175
77.3093 998 31.5911
77.4258 944 30.7246
77.5423 976 31.241
77.6589 973 31.1929
77.7755 940 30.6594
77.8921 798 28.2489
78.0088 805 28.3725
78.1256 672 25.923
78.2423 687 26.2107
78.3591 749 27.3679
78.4759 757 27.5136
78.5928 819 28.6182
78.7097 844 29.0517
78.8266 917 30.282
78.9436 938 30.6268
79.0606 950 30.8221
79.1776 952 30.8545
79.2946 918 30.2985
79.4117 945 30.7409
79.5288 942 30.692
79.6459 901 30.0167
79.7631 870 29.4958
79.8802 863 29.3769
79.9974 845 29.0689
80.1147 724 26.9072
80.2319 730 27.0185
80.3491 756 27.4955
80.4664 727 26.9629
80.5837 817 28.5832
80.701 852 29.189
80.8183 906 30.0998
80.9357 908 30.133
81.053 876 29.5973
81.1704 912 30.1993
81.2877 921 30.348
81.4051 917 30.282
81.5225 809 28.4429
81.6399 799 28.2666
81.7573 698 26.4197
81.8747 670 25.8844
81.9922 663 25.7488
82.1096 755 27.4773
82.227 822 28.6705
82.3444 853 29.2062
82.4619 879 29.6479
82.5793 929 30.4795
82.6967 960 30.9839
82.8142 974 31.209
82.9316 925 30.4138
83.049 966 31.0805
83.1664 922 30.3645
83.2838 930 30.4959
83.4012 910 30.1662
83.5186 948 30.7896
83.636 855 29.2404
83.7534 844 29.0517
83.8708 742 27.2397
83.9881 716 26.7582
84.1055 756 27.4955
84.2228 822 28.6705
84.3401 820 28.6356
84.4575 915 30.249
84.5747 953 30.8707
84.692 922 30.3645
84.8093 970 31.1448
84.9265 993 31.5119
85.0437 942 30.692
85.1609 835 28.8964
85.2781 818 28.6007
85.3952 721 26.8514
85.5123 691 26.2869
85.6294 774 27.8209
85.7465 790 28.1069
85.8636 887 29.7825
85.9806 965 31.0644
86.0976 876 29.5973
86.2145 877 29.6142
86.3315 937 30.6105
86.4484 1037 32.2025
86.5652 987 31.4166
86.682 949 30.8058
86.7988 988 31.4325
86.9156 936 30.5941
87.0323 913 30.2159
87.149 892 29.8664
87.2657 833 28.8617
87.3823 738 27.1662
87.4988 634 25.1794
87.6154 582 24.1247
87.7318 702 26.4953
87.8483 690 26.2679
87.9647 723 26.8887
88.081 775 27.8388
88.1973 748 27.3496
88.3136 695 26.3629
88.4298 695 26.3629
88.546 623 24.96
88.6621 551 23.4734
88.7781 481 21.9317
88.8942 0 1
89.0101 0 1
89.126 0 1
89.2419 0 1
89.3577 0 1
89.4734 0 1
89.5891 0 1
89.7047 0 1
89.8203 0 1
89.9358 0 1
92.3269 0 1
92.4424 0 1
92.558 0 1
92.6736 0 1
92.7893 0 1
92.905 0 1
93.0208 0 1
93.1366 0 1
93.2525 0 1
93.3685 0 1
93.4845 0 1
93.6005 696 26.3818
93.7167 745 27.2947
93.8328 724 26.9072
93.949 830 28.8097
94.0653 816 28.5657
94.1816 774 27.8209
94.2979 833 28.8617
94.4143 748 27.3496
94.5307 767 27.6948
94.6472 669 25.865
94.7637 685 26.1725
94.8803 725 26.9258
94.9969 803 28.3373
95.1135 887 29.7825
95.2302 865 29.4109
95.3469 965 31.0644
95.4637 891 29.8496
95.5805 922 30.3645
95.6973 966 31.0805
95.8142 913 30.2159
95.9311 942 30.692
96.048 982 31.3369
96.1649 956 30.9192
96.2819 905 30.0832
96.3989 840 28.9828
96.516 823 28.688
96.633 776 27.8568
96.7501 696 26.3818
96.8673 725 26.9258
96.9844 704 26.533
97.1016 777 27.8747
97.2188 872 29.5296
97.336 965 31.0644
97.4532 940 30.6594
97.5704 936 30.5941
97.6877 978 31.273
97.805 923 30.3809
97.9223 899 29.9833
98.0396 799 28.2666
98.1569 730 27.0185
98.2743 729 27
98.3916 707 26.5895
98.509 726 26.9444
98.6264 777 27.8747
98.7438 805 28.3725
98.8612 910 30.1662
98.9786 943 30.7083
99.096 998 31.5911
99.2134 1012 31.8119
99.3308 1024 32
99.4482 1027 32.0468
99.5656 1052 32.4345
99.6831 1027 32.0468
99.8005 926 30.4302
99.9179 1004 31.686
100.035 892 29.8664
100.153 919 30.315
100.27 822 28.6705
100.388 784 28
100.505 813 28.5132
100.622 846 29.0861
100.74 933 30.545
100.857 930 30.4959
100.975 1011 31.7962
101.092 985 31.3847
101.209 1020 31.9374
101.327 1083 32.909
101.444 981 31.3209
101.561 906 30.0998
101.679 820 28.6356
101.796 800 28.2843
101.913 697 26.4008
102.03 725 26.9258
102.148 855 29.2404
102.265 891 29.8496
102.382 975 31.225
102.499 973 31.1929
102.616 1044 32.311
102.733 997 31.5753
102.851 1107 33.2716
102.968 1032 32.1248
103.085 1128 33.5857
103.202 1019 31.9218
103.319 1068 32.6803
103.436 999 31.607
103.552 997 31.5753
103.669 895 29.9166
103.786 867 29.4449
103.903 845 29.0689
104.02 886 29.7658
104.137 955 30.9031
104.253 930 30.4959
104.37 1034 32.1559
104.487 1072 32.7414
104.603 1085 32.9393
104.72 1069 32.6956
104.836 1011 31.7962
104.953 947 30.7734
105.069 910 30.1662
105.186 756 27.4955
105.302 718 26.7955
105.418 630 25.0998
105.535 748 27.3496
105.651 705 26.5518
105.767 710 26.6458
105.883 674 25.9615
105.999 616 24.8193
106.115 0 1
106.231 0 1
106.347 0 1
106.463 0 1
106.579 0 1
106.694 0 1
106.81 0 1
106.926 0 1
107.041 0 1
107.157 0 1
109.576 0 1
109.692 0 1
109.807 0 1
109.923 0 1
110.039 0 1
110.155 0 1
110.27 0 1
110.386 0 1
110.502 0 1
110.618 389 19.7231
110.735 539 23.2164
110.851 677 26.0192
110.967 698 26.4197
111.083 769 27.7308
111.199 845 29.0689
111.316 868 29.4618
111.432 884 29.7321
111.549 936 30.5941
111.665 993 31.5119
111.782 992 31.496
111.898 956 30.9192
112.015 940 30.6594
112.132 918 30.2985
112.248 780 27.9285
112.365 840 28.9828
112.482 792 28.1425
112.599 849 29.1376
112.716 885 29.7489
112.832 894 29.8998
112.949 945 30.7409
113.066 942 30.692
113.183 954 30.8869
113.3 1051 32.4191
113.417 979 31.289
113.534 942 30.692
113.652 782 27.9643
113.769 772 27.7849
113.886 725 26.9258
114.003 707 26.5895
114.12 719 26.8142
114.238 790 28.1069
114.355 841 29
114.472 885 29.7489
114.589 954 30.8869
114.707 960 30.9839
114.824 966 31.0805
114.942 1026 32.0312
115.059 924 30.3974
115.176 957 30.9354
115.294 957 30.9354
115.411 948 30.7896
115.529 946 30.7571
115.646 884 29.7321
115.764 852 29.189
115.881 787 28.0535
115.999 754 27.4591
116.116 781 27.9464
116.234 838 28.9482
116.351 878 29.6311
116.469 923 30.3809
116.586 996 31.5595
116.704 949 30.8058
116.821 997 31.5753
116.939 909 30.1496
117.056 955 30.9031
117.174 913 30.2159
117.291 800 28.2843
117.409 804 28.3549
117.526 732 27.0555
117.644 753 27.4408
117.761 749 27.3679
117.879 812 28.4956
117.996 894 29.8998
118.114 881 29.6816
118.231 964 31.0483
118.349 919 30.315
118.466 918 30.2985
118.584 947 30.7734
118.701 944 30.7246
118.819 966 31.0805
118.936 905 30.0832
119.053 922 30.3645
119.171 896 29.9333
119.288 835 28.8964
119.405 848 29.1204
119.523 740 27.2029
119.64 781 27.9464
119.757 740 27.2029
119.875 803 28.3373
119.992 881 29.6816
120.109 847 29.1033
120.226 879 29.6479
120.343 918 30.2985
120.46 953 30.8707
120.578 967 31.0966
120.695 932 30.5287
120.812 900 30
120.929 782 27.9643
121.046 724 26.9072
121.163 633 25.1595
121.279 683 26.1343
121.396 707 26.5895
121.513 735 27.1109
121.63 751 27.4044
121.747 829 28.7924
121.863 757 27.5136
121.98 788 28.0713
122.097 837 28.931
122.213 787 28.0535
122.33 789 28.0891
122.446 712 26.6833
122.563 704 26.533
122.679 666 25.807
122.795 640 25.2982
122.912 574 23.9583
123.028 480 21.9089
123.144 455 21.3307
123.26 365 19.105
123.377 0 1
123.493 0 1
123.609 0 1
123.725 0 1
123.84 0 1
123.956 0 1
124.072 0 1
124.188 0 1
124.303 0 1
124.419 0 1
126.852 0 1
126.968 0 1
127.083 0 1
127.199 0 1
127.315 0 1
127.431 0 1
127.547 0 1
127.663 0 1
127.779 0 1
127.895 0 1
128.011 0 1
128.127 0 1
128.243 0 1
128.359 1012 31.8119
128.476 951 30.8383
128.592 941 30.6757
128.708 965 31.0644
128.825 976 31.241
128.941 1012 31.8119
129.058 1065 32.6343
129.174 1162 34.0881
129.291 1207 34.7419
129.408 1149 33.8969
129.524 1155 33.9853
129.641 1127 33.5708
129.758 1155 33.9853
129.875 1081 32.8786
129.992 1054 32.4654
130.108 949 30.8058
130.225 884 29.7321
130.342 853 29.2062
130.459 882 29.6985
130.576 989 31.4484
130.693 994 31.5278
130.81 1084 32.9242
130.928 1064 32.619
131.045 1207 34.7419
131.162 1110 33.3167
131.279 1175 34.2783
131.396 1174 34.2637
131.513 1129 33.6006
131.631 1130 33.6155
131.748 1132 33.6452
131.865 1130 33.6155
131.983 1110 33.3167
132.1 978 31.273
132.217 919 30.315
132.335 987 31.4166
132.452 1041 32.2645
132.57 1049 32.3883
132.687 1163 34.1028
132.804 1149 33.8969
132.922 1156 34
133.039 1160 34.0588
133.157 1152 33.9411
133.274 1148 33.8821
133.392 1100 33.1662
133.509 1029 32.078
133.627 970 31.1448
133.744 888 29.7993
133.862 881 29.6816
133.979 919 30.315
134.097 1023 31.9844
134.214 1085 32.9393
134.332 1100 33.1662
134.449 1140 33.7639
134.567 1072 32.7414
134.684 1155 33.9853
134.802 1163 34.1028
134.919 1173 34.2491
135.037 1130 33.6155
135.154 1128 33.5857
135.272 1142 33.7935
135.389 1065 32.6343
135.507 1068 32.6803
135.624 1037 32.2025
135.742 900 30
135.859 979 31.289
135.977 1030 32.0936
136.094 1066 32.6497
136.211 1115 33.3916
136.329 1101 33.1813
136.446 1111 33.3317
136.564 1169 34.1906
136.681 1125 33.541
136.798 1176 34.2929
136.915 1126 33.5559
137.033 1095 33.0908
137.15 992 31.496
137.267 966 31.0805
137.384 871 29.5127
137.502 828 28.775
137.619 901 30.0167
137.736 959 30.9677
137.853 1004 31.686
137.97 968 31.1127
138.087 1013 31.8277
138.204 1078 32.8329
138.321 1048 32.3728
138.438 1131 33.6303
138.555 1113 33.3617
138.672 1124 33.5261
138.788 1035 32.1714
138.905 997 31.5753
139.022 903 30.05
139.139 847 29.1033
139.255 844 29.0517
139.372 746 27.313
139.488 751 27.4044
139.605 722 26.8701
139.721 716 26.7582
139.838 665 25.7876
139.954 705 26.5518
140.071 685 26.1725
140.187 628 25.0599
140.303 553 23.516
140.419 560 23.6643
140.535 484 22
140.652 481 21.9317
140.768 0 1
140.884 0 1
141 0 1
141.115 0 1
141.231 0 1
141.347 0 1
141.463 0 1
141.578 0 1
141.694 0 1
144.104 0 1
144.219 0 1
144.335 0 1
144.45 0 1
144.566 0 1
144.682 0 1
144.798 0 1
144.914 0 1
145.03 0 1
145.146 710 26.6458
145.262 750 27.3861
145.378 743 27.258
145.494 819 28.6182
145.61 776 27.8568
145.726 774 27.8209
145.842 780 27.9285
145.959 676 26
146.075 650 25.4951
146.192 592 24.3311
146.308 589 24.2693
146.425 631 25.1197
146.541 704 26.533
146.658 693 26.3249
146.774 717 26.7769
146.891 705 26.5518
147.008 766 27.6767
147.125 722 26.8701
147.241 760 27.5681
147.358 717 26.7769
147.475 754 27.4591
147.592 723 26.8887
147.709 697 26.4008
147.826 698 26.4197
147.943 679 26.0576
148.06 666 25.807
148.177 645 25.3969
148.294 679 26.0576
148.411 676 26
148.528 715 26.7395
148.645 723 26.8887
148.762 789 28.0891
148.88 804 28.3549
148.997 780 27.9285
149.114 713 26.7021
149.231 763 27.6225
149.349 784 28
149.466 771 27.7669
149.583 731 27.037
149.701 629 25.0799
149.818 640 25.2982
149.935 611 24.7184
150.053 640 25.2982
150.17 627 25.04
150.287 632 25.1396
150.405 693 26.3249
150.522 707 26.5895
150.64 700 26.4575
150.757 760 27.5681
150.875 707 26.5895
150.992 732 27.0555
151.11 744 27.2764
151.227 720 26.8328
151.344 666 25.807
151.462 688 26.2298
151.579 688 26.2298
151.697 703 26.5141
151.814 619 24.8797
151.932 640 25.2982
152.049 720 26.8328
152.167 647 25.4362
152.284 705 26.5518
152.402 733 27.074
152.519 729 27
152.636 757 27.5136
152.754 758 27.5318
152.871 766 27.6767
152.989 707 26.5895
153.106 682 26.1151
153.223 618 24.8596
153.341 608 24.6577
153.458 606 24.6171
153.575 623 24.96
153.693 581 24.1039
153.81 620 24.8998
153.927 649 25.4755
154.044 657 25.632
154.162 735 27.1109
154.279 699 26.4386
154.396 723 26.8887
154.513 726 26.9444
154.63 686 26.1916
154.747 682 26.1151
154.864 666 25.807
154.981 649 25.4755
155.098 626 25.02
155.215 647 25.4362
155.332 603 24.5561
155.449 618 24.8596
155.566 627 25.04
155.683 599 24.4745
155.8 625 25
155.917 611 24.7184
156.033 638 25.2587
156.15 0 1
156.267 0 1
156.383 0 1
156.5 0 1
156.617 0 1
156.733 0 1
156.85 0 1
156.966 0 1
157.082 0 1
157.199 0 1
157.315 0 1
157.431 0 1
157.547 0 1
157.664 0 1
157.78 0 1
157.896 0 1
158.012 0 1
158.128 0 1
158.244 0 1
158.359 0 1
158.475 0 1
158.591 0 1
158.706 0 1
