
6.15755 0 1
6.2731 0 1
6.3887 0 1
6.50437 0 1
6.62009 0 1
6.73587 0 1
6.8517 0 1
6.96759 0 1
7.08353 0 1
7.19952 0 1
7.31557 0 1
7.43166 0 1
7.54781 0 1
7.664 0 1
7.78024 0 1
7.89653 0 1
8.01286 0 1
8.12924 0 1
8.24567 0 1
8.36213 0 1
8.47864 0 1
8.59519 0 1
8.71178 0 1
8.82841 0 1
8.94508 0 1
9.06179 0 1
9.17853 0 1
9.29531 0 1
9.41212 0 1
9.52897 0 1
9.64584 0 1
9.76276 0 1
9.8797 0 1
9.99667 0 1
10.1137 0 1
10.2307 0 1
10.3478 0 1
10.4648 0 1
10.5819 0 1
10.6991 0 1
10.8162 0 1
10.9334 0 1
11.0506 0 1
11.1678 0 1
11.285 0 1
11.4023 0 1
11.5196 0 1
11.6369 0 1
11.7542 0 1
11.8715 0 1
11.9888 0 1
12.1062 0 1
12.2235 0 1
12.3409 0 1
12.4582 0 1
12.5756 0 1
12.693 0 1
12.8104 0 1
12.9278 0 1
13.0452 0 1
13.1626 0 1
13.28 0 1
13.3974 0 1
13.5149 0 1
13.6323 0 1
13.7497 0 1
13.8671 0 1
13.9845 0 1
14.1019 0 1
14.2193 0 1
14.3367 0 1
14.4541 0 1
14.5714 0 1
14.6888 0 1
14.8062 0 1
14.9235 0 1
15.0408 0 0
15.1581 0 0
15.2755 0 0
15.3927 0 0
15.51 0 0
15.6273 0 0
15.7445 0 0
15.8617 0 0
15.9789 0 0
16.0961 0 0
16.2132 0 0
16.3304 0 0
16.4475 0 0
16.5646 0 0
16.6816 0 0
16.7986 0 0
16.9156 0 0
17.0326 0 0
17.1496 0 0
17.2665 0 0
17.3833 0 0
17.5002 0 0
17.617 0 0
17.7338 0 0
17.8505 0 0
17.9672 0 0
18.0839 0 0
18.2005 0 0
18.3171 0 0
18.4337 0 0
18.5502 0 0
18.6666 0 0
18.7831 0 0
18.8994 0 0
19.0158 0 0
19.1321 0 0
19.2483 0 0
19.3645 0 0
19.4806 0 0
19.5967 0 0
19.7128 0 0
19.8288 0 0
19.9447 0 0
20.0606 0 1
20.1764 0 1
20.2922 0 1
20.4079 0 1
20.5236 0 1
20.6392 0 1
20.7548 0 1
20.8702 0 1
23.3078 0 1
23.4233 0 1
23.539 0 1
23.6547 0 1
23.7704 0 1
23.8862 0 1
24.0021 0 1
24.118 0 1
24.234 0 1
24.35 0 1
24.4661 17428 132.015
24.5822 17496 132.272
24.6984 16954 130.208
24.8146 16315 127.73
24.9309 16276 127.577
25.0472 15955 126.313
25.1636 16400 128.062
25.28 17055 130.595
25.3965 17630 132.778
25.513 18519 136.085
25.6296 19175 138.474
25.7462 19599 139.996
25.8628 19899 141.064
25.9795 19646 140.164
26.0962 19860 140.926
26.213 19621 140.075
26.3298 19456 139.485
26.4466 19235 138.69
26.5635 18472 135.912
26.6804 18108 134.566
26.7973 17592 132.635
26.9143 17548 132.469
27.0313 17670 132.929
27.1483 18505 136.033
27.2653 18991 137.808
27.3824 19065 138.076
27.4996 19214 138.615
27.6167 19253 138.755
27.7339 18812 137.157
27.8511 18387 135.599
27.9683 17761 133.27
28.0855 16908 130.031
28.2028 17185 131.092
28.3201 16188 127.232
28.4374 15806 125.722
28.5547 15277 123.6
28.6721 15531 124.623
28.7894 15940 126.254
28.9068 16880 129.923
29.0242 17468 132.167
29.1416 18280 135.204
29.259 18837 137.248
29.3764 18801 137.117
29.4939 18671 136.642
29.6113 18906 137.499
29.7288 19234 138.687
29.8463 18938 137.615
29.9638 18700 136.748
30.0812 18143 134.696
30.1987 17761 133.27
30.3162 17060 130.614
30.4337 17392 131.879
30.5512 17713 133.09
30.6687 17893 133.765
30.7862 18682 136.682
30.9037 18759 136.963
31.0212 19319 138.993
31.1387 19313 138.971
31.2562 18800 137.113
31.3737 18771 137.007
31.4912 18439 135.79
31.6087 17619 132.737
31.7262 16876 129.908
31.8436 16469 128.332
31.9611 15877 126.004
32.0785 15670 125.18
32.1959 15728 125.411
32.3134 15963 126.345
32.4308 16945 130.173
32.5482 17619 132.737
32.6655 18454 135.846
32.7829 18700 136.748
32.9002 19101 138.206
33.0176 19060 138.058
33.1349 19350 139.104
33.2522 19243 138.719
33.3694 19115 138.257
33.4867 19576 139.914
33.6039 19086 138.152
33.7211 18501 136.018
33.8383 18084 134.477
33.9554 17530 132.401
34.0725 17581 132.593
34.1896 17951 133.981
34.3067 18317 135.34
34.4237 18861 137.335
34.5407 19194 138.542
34.6577 19505 139.66
34.7746 19129 138.308
34.8915 19110 138.239
35.0084 18494 135.993
35.1252 18141 134.689
35.242 17870 133.679
35.3587 17291 131.495
35.4755 16833 129.742
35.5921 15779 125.614
35.7088 15324 123.79
35.8254 15096 122.866
35.9419 15544 124.676
36.0584 16009 126.527
36.1749 16503 128.464
36.2913 17380 131.833
36.4077 18185 134.852
36.524 18680 136.675
36.6403 19128 138.304
36.7565 19169 138.452
36.8727 19076 138.116
36.9889 19002 137.848
37.1049 18707 136.774
37.221 0 1
37.3369 0 1
37.4529 0 1
37.5687 0 1
37.6845 0 1
37.8003 0 1
37.916 0 1
38.0316 0 1
38.1472 0 1
40.5851 0 1
40.7008 0 1
40.8164 0 1
40.9322 0 1
41.048 0 1
41.1639 0 1
41.2798 0 1
41.3958 0 1
41.5118 0 1
41.6279 0 1
41.744 16189 127.236
41.8602 16721 129.31
41.9765 17093 130.74
42.0928 16928 130.108
42.2091 17108 130.798
42.3255 17158 130.989
42.4419 16898 129.992
42.5584 16047 126.677
42.675 15698 125.292
42.7915 15400 124.097
42.9081 15749 125.495
43.0248 16236 127.421
43.1415 16432 128.187
43.2582 16803 129.626
43.375 16957 130.219
43.4918 17187 131.099
43.6087 16770 129.499
43.7256 16629 128.953
43.8425 16650 129.035
43.9595 16101 126.89
44.0765 15579 124.816
44.1935 14935 122.209
44.3106 13945 118.089
44.4277 13219 114.974
44.5448 12190 110.408
44.6619 11938 109.261
44.7791 12315 110.973
44.8963 12719 112.779
45.0136 13583 116.546
45.1308 14081 118.663
45.2481 14521 120.503
45.3654 14826 121.762
45.4827 14764 121.507
45.6001 14700 121.244
45.7174 14966 122.336
45.8348 14534 120.557
45.9522 14436 120.15
46.0697 13760 117.303
46.1871 12919 113.662
46.3046 12290 110.86
46.422 12316 110.977
46.5395 12838 113.305
46.657 13274 115.213
46.7745 13247 115.096
46.892 13362 115.594
47.0096 13458 116.009
47.1271 13432 115.897
47.2446 13234 115.039
47.3622 12789 113.088
47.4797 12549 112.022
47.5973 12197 110.44
47.7149 11846 108.839
47.8324 11167 105.674
47.95 10528 102.606
48.0675 9765 98.818
48.1851 9280 96.3328
48.3027 9311 96.4935
48.4202 9845 99.222
48.5378 10137 100.683
48.6554 10784 103.846
48.7729 11599 107.699
48.8904 11832 108.775
49.008 12298 110.896
49.1255 12178 110.354
49.243 12091 109.959
49.3605 12413 111.414
49.478 11973 109.421
49.5955 11660 107.981
49.713 11231 105.976
49.8304 11102 105.366
49.9479 11621 107.801
50.0653 12237 110.621
50.1827 13108 114.49
50.3001 13115 114.521
50.4175 13698 117.038
50.5348 13982 118.246
50.6521 14838 121.811
50.7694 14445 120.187
50.8867 14815 121.717
51.004 15108 122.915
51.1212 14856 121.885
51.2384 14789 121.61
51.3556 14193 119.134
51.4727 13555 116.426
51.5899 12656 112.499
51.707 12452 111.589
51.824 12538 111.973
51.9411 13745 117.239
52.0581 14704 121.26
52.175 16184 127.216
52.2919 16795 129.596
52.4088 17584 132.605
52.5257 17973 134.063
52.6425 18168 134.789
52.7593 18335 135.407
52.876 18447 135.82
52.9927 18602 136.389
53.1094 18260 135.13
53.226 18015 134.22
53.3426 18007 134.19
53.4591 17530 132.401
53.5756 17806 133.439
53.692 18713 136.795
53.8084 18890 137.441
53.9248 19376 139.198
54.0411 19599 139.996
54.1573 19988 141.379
54.2735 0 1
54.3896 0 1
54.5057 0 1
54.6217 0 1
54.7377 0 1
54.8537 0 1
54.9695 0 1
55.0853 0 1
55.2011 0 1
55.3168 0 1
55.4324 0 1
57.824 0 1
57.9396 0 1
58.0553 0 1
58.1711 0 1
58.2869 0 1
58.4028 0 1
58.5187 0 1
58.6347 0 1
58.7508 0 1
58.8669 0 1
58.983 24896 157.785
59.0992 25447 159.521
59.2155 25515 159.734
59.3318 26069 161.459
59.4482 26119 161.614
59.5646 26057 161.422
59.681 25662 160.194
59.7975 25219 158.805
59.9141 24300 155.885
60.0306 22930 151.427
60.1473 21641 147.109
60.2639 19987 141.375
60.3807 19174 138.47
60.4974 18931 137.59
60.6142 19641 140.146
60.731 21173 145.509
60.8479 22988 151.618
60.9648 24273 155.798
61.0818 25346 159.204
61.1987 25663 160.197
61.3158 26005 161.261
61.4328 25794 160.605
61.5499 25642 160.131
61.667 25208 158.77
61.7841 24940 157.924
61.9013 24546 156.672
62.0185 24125 155.322
62.1357 24596 156.831
62.253 25344 159.198
62.3702 26096 161.543
62.4875 26491 162.761
62.6049 26454 162.647
62.7222 26961 164.198
62.8396 27020 164.378
62.9569 26787 163.667
63.0743 26503 162.797
63.1918 26363 162.367
63.3092 25579 159.934
63.4267 24771 157.388
63.5441 23397 152.961
63.6616 21997 148.314
63.7791 20003 141.432
63.8966 18670 136.638
64.0142 18661 136.605
64.1317 19887 141.021
64.2492 21606 146.99
64.3668 23407 152.993
64.4843 25019 158.174
64.6019 26262 162.056
64.7195 26427 162.564
64.837 26499 162.785
64.9546 26685 163.355
65.0722 26497 162.779
65.1898 26238 161.981
65.3074 26021 161.31
65.4249 24862 157.677
65.5425 24684 157.111
65.6601 24912 157.835
65.7777 25371 159.283
65.8952 26231 161.96
66.0128 27215 164.97
66.1304 27690 166.403
66.2479 27756 166.601
66.3655 28039 167.448
66.483 28398 168.517
66.6005 28394 168.505
66.718 28052 167.487
66.8355 27681 166.376
66.953 27005 164.332
67.0705 25865 160.826
67.1879 24803 157.49
67.3054 22837 151.119
67.4228 20378 142.752
67.5402 18977 137.757
67.6576 19656 140.2
67.7749 20521 143.252
67.8923 23373 152.882
68.0096 25716 160.362
68.1269 27518 165.886
68.2442 28815 169.75
68.3614 29135 170.69
68.4787 29405 171.479
68.5958 29932 173.009
68.713 29702 172.343
68.8302 29582 171.994
68.9473 29303 171.181
69.0643 28358 168.398
69.1814 28011 167.365
69.2984 27945 167.168
69.4154 29258 171.05
69.5323 30224 173.851
69.6492 31131 176.44
69.7661 31822 178.387
69.8829 32110 179.193
69.9997 32205 179.458
70.1165 32723 180.895
70.2332 33029 181.739
70.3499 32572 180.477
70.4665 32205 179.458
70.5831 31740 178.157
70.6996 30334 174.167
70.8161 29290 171.143
70.9326 26868 163.915
71.049 24326 155.968
71.1653 21550 146.799
71.2817 20124 141.859
71.3979 20759 144.08
71.5141 22563 150.21
71.6303 24856 157.658
71.7464 24917 157.851
71.8624 0 1
71.9784 0 1
72.0944 0 1
72.2102 0 1
72.3261 0 1
72.4418 0 1
72.5575 0 1
72.6732 0 1
75.1054 0 1
75.2209 0 1
75.3365 0 1
75.4521 0 1
75.5678 0 1
75.6835 0 1
75.7993 0 1
75.9151 0 1
76.031 0 1
76.147 29089 170.555
76.263 29783 172.578
76.3791 28093 167.61
76.4952 24673 157.076
76.6113 22588 150.293
76.7276 23864 154.48
76.8438 26638 163.212
76.9601 30393 174.336
77.0765 34101 184.665
77.1929 36046 189.858
77.3093 37375 193.326
77.4258 37378 193.334
77.5423 37864 194.587
77.6589 37841 194.528
77.7755 38262 195.607
77.8921 38006 194.951
78.0088 36969 192.273
78.1256 36216 190.305
78.2423 35216 187.659
78.3591 35541 188.523
78.4759 36427 190.859
78.5928 37400 193.391
78.7097 38721 196.777
78.8266 41067 202.65
78.9436 38241 195.553
79.0606 39879 199.697
79.1776 40336 200.838
79.2946 40271 200.676
79.4117 40169 200.422
79.5288 39656 199.138
79.6459 38473 196.145
79.7631 37450 193.52
79.8802 35543 188.529
79.9974 32741 180.945
80.1147 28536 168.926
80.2319 25228 158.833
80.3491 25677 160.24
80.4664 28728 169.493
80.5837 32834 181.202
80.701 37001 192.356
80.8183 39698 199.244
80.9357 40624 201.554
81.053 41292 203.204
81.1704 40791 201.968
81.2877 41237 203.069
81.4051 41498 203.711
81.5225 42220 205.475
81.6399 40147 200.367
81.7573 39985 199.962
81.8747 38224 195.51
81.9922 37935 194.769
82.1096 38665 196.634
82.227 39388 198.464
82.3444 40934 202.322
82.4619 41752 204.333
82.5793 41166 202.894
82.6967 43628 208.873
82.8142 42791 206.86
82.9316 42753 206.768
83.049 42375 205.852
83.1664 41635 204.047
83.2838 40391 200.975
83.4012 39343 198.351
83.5186 37019 192.403
83.636 34454 185.618
83.7534 30102 173.499
83.8708 26511 162.822
83.9881 26122 161.623
84.1055 28467 168.722
84.2228 32204 179.455
84.3401 37878 194.623
84.4575 41467 203.634
84.5747 43567 208.727
84.692 44833 211.738
84.8093 44764 211.575
84.9265 44777 211.606
85.0437 44953 212.021
85.1609 45211 212.629
85.2781 44016 209.8
85.3952 43008 207.384
85.5123 42541 206.255
85.6294 42312 205.699
85.7465 43508 208.586
85.8636 45151 212.488
85.9806 46438 215.495
86.0976 48207 219.561
86.2145 48983 221.321
86.3315 48336 219.854
86.4484 51891 227.796
86.5652 50399 224.497
86.682 50705 225.178
86.7988 49604 222.72
86.9156 48655 220.579
87.0323 46860 216.472
87.149 44666 211.343
87.2657 40552 201.375
87.3823 35101 187.353
87.4988 32212 179.477
87.6154 34561 185.906
87.7318 39547 198.864
87.8483 46158 214.844
87.9647 51431 226.784
88.081 53907 232.179
88.1973 55176 234.896
88.3136 55887 236.404
88.4298 55429 235.434
88.546 55459 235.497
88.6621 55404 235.381
88.7781 54509 233.472
88.8942 0 1
89.0101 0 1
89.126 0 1
89.2419 0 1
89.3577 0 1
89.4734 0 1
89.5891 0 1
89.7047 0 1
89.8203 0 1
89.9358 0 1
92.3269 0 1
92.4424 0 1
92.558 0 1
92.6736 0 1
92.7893 0 1
92.905 0 1
93.0208 0 1
93.1366 0 1
93.2525 0 1
93.3685 0 1
93.4845 0 1
93.6005 58300 241.454
93.7167 59683 244.301
93.8328 60053 245.057
93.949 60510 245.988
94.0653 60229 245.416
94.1816 59667 244.268
94.2979 59567 244.064
94.4143 58646 242.169
94.5307 57909 240.643
94.6472 57168 239.098
94.7637 56421 237.531
94.8803 57839 240.497
94.9969 58574 242.021
95.1135 60707 246.388
95.2302 61954 248.906
95.3469 62800 250.599
95.4637 63383 251.76
95.5805 63909 252.802
95.6973 65279 255.498
95.8142 64379 253.73
95.9311 63910 252.804
96.048 61987 248.972
96.1649 60294 245.548
96.2819 57013 238.774
96.3989 52646 229.447
96.516 46357 215.307
96.633 41222 203.032
96.7501 40208 200.519
96.8673 44070 209.929
96.9844 50049 223.716
97.1016 58007 240.846
97.2188 63145 251.287
97.336 67362 259.542
97.4532 67581 259.963
97.5704 68363 261.463
97.6877 67983 260.735
97.805 67747 260.283
97.9223 67973 260.716
98.0396 66569 258.01
98.1569 66014 256.932
98.2743 64636 254.236
98.3916 63295 251.585
98.509 63571 252.133
98.6264 63441 251.875
98.7438 65544 256.016
98.8612 67162 259.156
98.9786 69030 262.736
99.096 70296 265.134
99.2134 70618 265.74
99.3308 70555 265.622
99.4482 70910 266.289
99.5656 70339 265.215
99.6831 69117 262.901
99.8005 66930 258.708
99.9179 62460 249.92
100.035 57313 239.401
100.153 50005 223.618
100.27 45607 213.558
100.388 47103 217.032
100.505 53709 231.752
100.622 62167 249.333
100.74 69166 262.994
100.857 71826 268.004
100.975 73067 270.309
101.092 73996 272.022
101.209 73553 271.207
101.327 74078 272.173
101.444 73577 271.251
101.561 73143 270.45
101.679 73168 270.496
101.796 71721 267.808
101.913 70189 264.932
102.03 69222 263.101
102.148 68722 262.149
102.265 73874 271.798
102.382 68965 262.612
102.499 74380 272.727
102.616 75877 275.458
102.733 77209 277.865
102.851 78573 280.309
102.968 78279 279.784
103.085 77566 278.507
103.202 76007 275.694
103.319 73889 271.825
103.436 69884 264.356
103.552 63734 252.456
103.669 55414 235.402
103.786 48846 221.011
103.903 51145 226.153
104.02 58982 242.862
104.137 68300 261.343
104.253 76641 276.841
104.37 77322 278.068
104.487 80931 284.484
104.603 81146 284.861
104.72 80472 283.676
104.836 82096 286.524
104.953 81767 285.949
105.069 80831 284.308
105.186 80198 283.193
105.302 79004 281.077
105.418 76994 277.478
105.535 75799 275.316
105.651 76358 276.33
105.767 77632 278.625
105.883 80308 283.387
105.999 81956 286.28
106.115 0 1
106.231 0 1
106.347 0 1
106.463 0 1
106.579 0 1
106.694 0 1
106.81 0 1
106.926 0 1
107.041 0 1
107.157 0 1
109.576 0 1
109.692 0 1
109.807 0 1
109.923 0 1
110.039 0 1
110.155 0 1
110.27 0 1
110.386 0 1
110.502 0 1
110.618 70959 266.381
110.735 72896 269.993
110.851 74393 272.751
110.967 76097 275.857
111.083 77397 278.203
111.199 77922 279.145
111.316 78153 279.559
111.432 78727 280.583
111.549 78013 279.308
111.665 77016 277.518
111.782 73481 271.074
111.898 68974 262.629
112.015 62533 250.066
112.132 54484 233.418
112.248 47967 219.014
112.365 47679 218.355
112.482 53191 230.632
112.599 59702 244.34
112.716 67010 258.863
112.832 71639 267.655
112.949 72251 268.795
113.066 72313 268.911
113.183 72660 269.555
113.3 71805 267.965
113.417 71110 266.665
113.534 70443 265.411
113.652 69963 264.505
113.769 69118 262.903
113.886 67543 259.89
114.003 65789 256.494
114.12 63974 252.931
114.238 63611 252.212
114.355 63621 252.232
114.472 64282 253.539
114.589 65811 256.537
114.707 67321 259.463
114.824 67422 259.657
114.942 68038 260.841
115.059 68378 261.492
115.176 67460 259.731
115.294 66272 257.433
115.411 63639 252.268
115.529 59718 244.373
115.646 52928 230.061
115.764 47204 217.265
115.881 43194 207.832
115.999 45514 213.34
116.116 52247 228.576
116.234 59407 243.736
116.351 64192 253.361
116.469 66790 258.438
116.586 67254 259.334
116.704 67544 259.892
116.821 67238 259.303
116.939 68479 261.685
117.056 67385 259.586
117.174 66676 258.217
117.291 66849 258.552
117.409 66124 257.146
117.526 64595 254.155
117.644 63994 252.97
117.761 63002 251.002
117.879 62655 250.31
117.996 62410 249.82
118.114 63416 251.825
118.231 65372 255.679
118.349 65752 256.422
118.466 67021 258.884
118.584 67307 259.436
118.701 67374 259.565
118.819 66798 258.453
118.936 65116 255.178
119.053 61696 248.387
119.171 57504 239.8
119.288 51834 227.671
119.405 45439 213.164
119.523 41945 204.805
119.64 45230 212.673
119.757 50486 224.691
119.875 57127 239.013
119.992 61669 248.332
120.109 64192 253.361
120.226 65138 255.221
120.343 64932 254.818
120.46 65154 255.253
120.578 64479 253.927
120.695 64559 254.085
120.812 65032 255.014
120.929 64142 253.263
121.046 63569 252.129
121.163 62564 250.128
121.279 62023 249.044
121.396 60948 246.876
121.513 59816 244.573
121.63 60324 245.609
121.747 59154 243.216
121.863 60667 246.307
121.98 61936 248.869
122.097 62696 250.392
122.213 63842 252.67
122.33 63836 252.658
122.446 63523 252.038
122.563 62461 249.922
122.679 60359 245.681
122.795 57879 240.581
122.912 54556 233.572
123.028 48821 220.955
123.144 42766 206.799
123.26 39895 199.737
123.377 0 1
123.493 0 1
123.609 0 1
123.725 0 1
123.84 0 1
123.956 0 1
124.072 0 1
124.188 0 1
124.303 0 1
124.419 0 1
126.852 0 1
126.968 0 1
127.083 0 1
127.199 0 1
127.315 0 1
127.431 0 1
127.547 0 1
127.663 0 1
127.779 0 1
127.895 0 1
128.011 0 1
128.127 0 1
128.243 0 1
128.359 47946 218.966
128.476 43299 208.084
128.592 45730 213.846
128.708 52421 228.956
128.825 58825 242.539
128.941 64977 254.906
129.058 66684 258.232
129.174 67842 260.465
129.291 68206 261.163
129.408 67623 260.044
129.524 67414 259.642
129.641 67396 259.607
129.758 66437 257.754
129.875 66319 257.525
129.992 66164 257.224
130.108 65070 255.088
130.225 64026 253.034
130.342 63958 252.899
130.459 61271 247.53
130.576 63351 251.696
130.693 62371 249.742
130.81 63442 251.877
130.928 64381 253.734
131.045 65230 255.402
131.162 65112 255.171
131.279 65348 255.633
131.396 64600 254.165
131.513 63396 251.786
131.631 61130 247.245
131.748 57523 239.84
131.865 50775 225.333
131.983 44239 210.331
132.1 43842 209.385
132.217 48503 220.234
132.335 54830 234.158
132.452 60281 245.522
132.57 62988 250.974
132.687 62288 249.576
132.804 65875 256.661
132.922 63864 252.713
133.039 64160 253.298
133.157 63508 252.008
133.274 63495 251.982
133.392 63250 251.496
133.509 62309 249.618
133.627 61708 248.411
133.744 61188 247.362
133.862 59965 244.878
133.979 60737 246.449
134.097 59878 244.7
134.214 60213 245.383
134.332 58299 241.452
134.449 59557 244.043
134.567 60143 245.241
134.684 61410 247.81
134.802 61645 248.284
134.919 62117 249.233
135.037 60755 246.485
135.154 59251 243.415
135.272 56827 238.384
135.389 51279 226.449
135.507 46213 214.972
135.624 41637 204.051
135.742 43701 209.048
135.859 48641 220.547
135.977 54830 234.158
136.094 59221 243.354
136.211 60474 245.915
136.329 61721 248.437
136.446 61911 248.819
136.564 61768 248.532
136.681 62891 250.781
136.798 60738 246.451
136.915 61342 247.673
137.033 60427 245.819
137.15 60073 245.098
137.267 59018 242.936
137.384 58365 241.588
137.502 57839 240.497
137.619 57244 239.257
137.736 57209 239.184
137.853 56336 237.352
137.97 55690 235.987
138.087 58257 241.365
138.204 57712 240.233
138.321 58898 242.689
138.438 59649 244.231
138.555 59007 242.914
138.672 58647 242.171
138.788 57685 240.177
138.905 54734 233.953
139.022 51024 225.885
139.139 46621 215.919
139.255 42898 207.118
139.372 43135 207.69
139.488 46959 216.7
139.605 52444 229.007
139.721 56460 237.613
139.838 58655 242.188
139.954 59646 244.225
140.071 58937 242.769
140.187 59902 244.749
140.303 59179 243.267
140.419 58719 242.32
140.535 58759 242.403
140.652 57222 239.211
140.768 0 1
140.884 0 1
141 0 1
141.115 0 1
141.231 0 1
141.347 0 1
141.463 0 1
141.578 0 1
141.694 0 1
144.104 0 1
144.219 0 1
144.335 0 1
144.45 0 1
144.566 0 1
144.682 0 1
144.798 0 1
144.914 0 1
145.03 0 1
145.146 49596 222.702
145.262 50071 223.766
145.378 50403 224.506
145.494 50054 223.728
145.61 49711 222.96
145.726 48622 220.504
145.842 48308 219.791
145.959 47604 218.183
146.075 47321 217.534
146.192 47284 217.449
146.308 47032 216.869
146.425 46996 216.786
146.541 47280 217.44
146.658 46288 215.146
146.774 46170 214.872
146.891 46589 215.845
147.008 46677 216.049
147.125 46954 216.689
147.241 46848 216.444
147.358 45918 214.285
147.475 44521 211
147.592 41739 204.301
147.709 38563 196.375
147.826 34707 186.298
147.943 34307 185.221
148.06 36426 190.856
148.177 40586 201.46
148.294 44867 211.818
148.411 46161 214.851
148.528 46674 216.042
148.645 46201 214.944
148.762 46382 215.365
148.88 45955 214.371
148.997 44006 209.776
149.114 46842 216.43
149.231 44768 211.584
149.349 44439 210.806
149.466 43213 207.877
149.583 42754 206.77
149.701 42524 206.213
149.818 42620 206.446
149.935 43112 207.634
150.053 43376 208.269
150.17 42681 206.594
150.287 43224 207.904
150.405 42922 207.176
150.522 42715 206.676
150.64 43086 207.572
150.757 43115 207.642
150.875 43290 208.062
150.992 42656 206.533
151.11 40319 200.796
151.227 39580 198.947
151.344 36384 190.746
151.462 33132 182.022
151.579 32711 180.862
151.697 34915 186.856
151.814 39434 198.58
151.932 42343 205.774
152.049 44331 210.549
152.167 44492 210.931
152.284 44732 211.499
152.402 44661 211.331
152.519 44547 211.062
152.636 44735 211.507
152.754 43686 209.012
152.871 43366 208.245
152.989 42709 206.662
153.106 42031 205.015
153.223 41738 204.299
153.341 41863 204.604
153.458 42498 206.15
153.575 42250 205.548
153.693 42893 207.106
153.81 42887 207.092
153.927 42543 206.26
154.044 42710 206.664
154.162 43138 207.697
154.279 43496 208.557
154.396 43670 208.974
154.513 44495 210.938
154.63 44096 209.99
154.747 41969 204.863
154.864 41471 203.644
154.981 39313 198.275
155.098 36110 190.026
155.215 35625 188.746
155.332 37654 194.046
155.449 40948 202.356
155.566 44065 209.917
155.683 44892 211.877
155.8 45336 212.923
155.917 44979 212.083
156.033 45447 213.183
156.15 0 1
156.267 0 1
156.383 0 1
156.5 0 1
156.617 0 1
156.733 0 1
156.85 0 1
156.966 0 1
157.082 0 1
157.199 0 1
157.315 0 1
157.431 0 1
157.547 0 1
157.664 0 1
157.78 0 1
157.896 0 1
158.012 0 1
158.128 0 1
158.244 0 1
158.359 0 1
158.475 0 1
158.591 0 1
158.706 0 1
