
6.15755 0 1
6.2731 0 1
6.3887 0 1
6.50437 0 1
6.62009 0 1
6.73587 0 1
6.8517 0 1
6.96759 0 1
7.08353 0 1
7.19952 0 1
7.31557 0 1
7.43166 0 1
7.54781 0 1
7.664 0 1
7.78024 0 1
7.89653 0 1
8.01286 0 1
8.12924 0 1
8.24567 0 1
8.36213 0 1
8.47864 0 1
8.59519 0 1
8.71178 0 1
8.82841 0 1
8.94508 0 1
9.06179 0 1
9.17853 0 1
9.29531 0 1
9.41212 0 1
9.52897 0 1
9.64584 0 1
9.76276 0 1
9.8797 0 1
9.99667 0 1
10.1137 0 1
10.2307 0 1
10.3478 0 1
10.4648 0 1
10.5819 0 1
10.6991 0 1
10.8162 0 1
10.9334 0 1
11.0506 0 1
11.1678 0 1
11.285 0 1
11.4023 0 1
11.5196 0 1
11.6369 0 1
11.7542 0 1
11.8715 0 1
11.9888 0 1
12.1062 0 1
12.2235 0 1
12.3409 0 1
12.4582 0 1
12.5756 0 1
12.693 0 1
12.8104 0 1
12.9278 0 1
13.0452 0 1
13.1626 0 1
13.28 0 1
13.3974 0 1
13.5149 0 1
13.6323 0 1
13.7497 0 1
13.8671 0 1
13.9845 0 1
14.1019 0 1
14.2193 0 1
14.3367 0 1
14.4541 0 1
14.5714 0 1
14.6888 0 1
14.8062 0 1
14.9235 0 1
15.0408 0 0
15.1581 0 0
15.2755 0 0
15.3927 0 0
15.51 0 0
15.6273 0 0
15.7445 0 0
15.8617 0 0
15.9789 0 0
16.0961 0 0
16.2132 0 0
16.3304 0 0
16.4475 0 0
16.5646 0 0
16.6816 0 0
16.7986 0 0
16.9156 0 0
17.0326 0 0
17.1496 0 0
17.2665 0 0
17.3833 0 0
17.5002 0 0
17.617 0 0
17.7338 0 0
17.8505 0 0
17.9672 0 0
18.0839 0 0
18.2005 0 0
18.3171 0 0
18.4337 0 0
18.5502 0 0
18.6666 0 0
18.7831 0 0
18.8994 0 0
19.0158 0 0
19.1321 0 0
19.2483 0 0
19.3645 0 0
19.4806 0 0
19.5967 0 0
19.7128 0 0
19.8288 0 0
19.9447 0 0
20.0606 0 1
20.1764 0 1
20.2922 0 1
20.4079 0 1
20.5236 0 1
20.6392 0 1
20.7548 0 1
20.8702 0 1
23.3078 0 1
23.4233 0 1
23.539 0 1
23.6547 0 1
23.7704 0 1
23.8862 0 1
24.0021 0 1
24.118 0 1
24.234 0 1
24.35 0 1
24.4661 90188 300.313
24.5822 90089 300.148
24.6984 90084 300.14
24.8146 90927 301.541
24.9309 92299 303.808
25.0472 93879 306.397
25.1636 96538 310.706
25.28 98104 313.216
25.3965 99648 315.671
25.513 101039 317.866
25.6296 103170 321.201
25.7462 104115 322.669
25.8628 103280 321.372
25.9795 103458 321.649
26.0962 102188 319.669
26.213 102555 320.242
26.3298 100101 316.387
26.4466 101260 318.214
26.5635 100187 316.523
26.6804 97886 312.867
26.7973 94696 307.727
26.9143 91764 302.926
27.0313 89885 299.808
27.1483 91003 301.667
27.2653 91146 301.904
27.3824 92407 303.985
27.4996 90759 301.262
27.6167 89146 298.573
27.7339 86391 293.923
27.8511 83056 288.194
27.9683 81334 285.191
28.0855 80263 283.307
28.2028 80379 283.512
28.3201 79316 281.631
28.4374 81413 285.33
28.5547 83262 288.552
28.6721 84726 291.077
28.7894 86807 294.63
28.9068 88829 298.042
29.0242 90118 300.197
29.1416 90870 301.447
29.259 91215 302.018
29.3764 91498 302.486
29.4939 91586 302.632
29.6113 91358 302.255
29.7288 90829 301.378
29.8463 90349 300.581
29.9638 91143 301.899
30.0812 90284 300.473
30.1987 88935 298.22
30.3162 87332 295.52
30.4337 84433 290.574
30.5512 82505 287.237
30.6687 82406 287.064
30.7862 83819 289.515
30.9037 83538 289.029
31.0212 85249 291.974
31.1387 85610 292.592
31.2562 83112 288.292
31.3737 81489 285.463
31.4912 79091 281.231
31.6087 78177 279.602
31.7262 77111 277.689
31.8436 78782 280.681
31.9611 79785 282.462
32.0785 80700 284.077
32.1959 84017 289.857
32.3134 85355 292.156
32.4308 85996 293.251
32.5482 87943 296.552
32.6655 89561 299.267
32.7829 89243 298.736
32.9002 89392 298.985
33.0176 88882 298.131
33.1349 88899 298.159
33.2522 88443 297.394
33.3694 88722 297.862
33.4867 88199 296.983
33.6039 88377 297.283
33.7211 88534 297.547
33.8383 87444 295.709
33.9554 85406 292.243
34.0725 82741 287.647
34.1896 80299 283.371
34.3067 79884 282.638
34.4237 79767 282.431
34.5407 81129 284.832
34.6577 82449 287.139
34.7746 81770 285.955
34.8915 80469 283.671
35.0084 78440 280.071
35.1252 76664 276.883
35.242 75121 274.082
35.3587 75361 274.52
35.4755 75315 274.436
35.5921 76344 276.304
35.7088 78088 279.442
35.8254 79659 282.239
35.9419 82128 286.58
36.0584 83988 289.807
36.1749 84330 290.396
36.2913 86068 293.373
36.4077 86127 293.474
36.524 86143 293.501
36.6403 86087 293.406
36.7565 85501 292.406
36.8727 86158 293.527
36.9889 84154 290.093
37.1049 83564 289.074
37.221 0 1
37.3369 0 1
37.4529 0 1
37.5687 0 1
37.6845 0 1
37.8003 0 1
37.916 0 1
38.0316 0 1
38.1472 0 1
40.5851 0 1
40.7008 0 1
40.8164 0 1
40.9322 0 1
41.048 0 1
41.1639 0 1
41.2798 0 1
41.3958 0 1
41.5118 0 1
41.6279 0 1
41.744 69182 263.025
41.8602 70797 266.077
41.9765 71512 267.417
42.0928 70714 265.921
42.2091 72069 268.457
42.3255 71915 268.17
42.4419 72425 269.119
42.5584 72492 269.243
42.675 71443 267.288
42.7915 69477 263.585
42.9081 67626 260.05
43.0248 65192 255.327
43.1415 64625 254.214
43.2582 65443 255.818
43.375 66748 258.356
43.4918 67299 259.421
43.6087 66235 257.362
43.7256 64522 254.012
43.8425 62323 249.646
43.9595 60196 245.349
44.0765 59767 244.473
44.1935 59766 244.471
44.3106 59749 244.436
44.4277 60581 246.132
44.5448 61304 247.596
44.6619 62446 249.892
44.7791 63276 251.547
44.8963 63683 252.355
45.0136 64254 253.484
45.1308 63296 251.587
45.2481 62468 249.936
45.3654 62157 249.313
45.4827 61772 248.54
45.6001 60922 246.824
45.7174 60677 246.327
45.8348 59528 243.984
45.9522 59312 243.541
46.0697 59515 243.957
46.1871 58119 241.079
46.3046 57511 239.815
46.422 55595 235.786
46.5395 52991 230.198
46.657 51280 226.451
46.7745 50255 224.176
46.892 50025 223.663
47.0096 51038 225.916
47.1271 52022 228.083
47.2446 51370 226.65
47.3622 48828 220.971
47.4797 47050 216.91
47.5973 45853 214.133
47.7149 45156 212.499
47.8324 45200 212.603
47.95 45655 213.67
48.0675 46883 216.525
48.1851 47242 217.352
48.3027 48133 219.392
48.4202 48891 221.113
48.5378 48715 220.715
48.6554 48591 220.434
48.7729 48365 219.92
48.8904 48431 220.07
49.008 48767 220.833
49.1255 49066 221.508
49.243 48998 221.355
49.3605 49534 222.562
49.478 49731 223.004
49.5955 50099 223.828
49.713 51266 226.42
49.8304 51023 225.883
49.9479 50423 224.551
50.0653 49344 222.135
50.1827 48396 219.991
50.3001 47527 218.007
50.4175 48481 220.184
50.5348 49326 222.095
50.6521 53093 230.419
50.7694 54356 233.144
50.8867 54112 232.62
51.004 54220 232.852
51.1212 54047 232.48
51.2384 55309 235.179
51.3556 56987 238.72
51.4727 59490 243.906
51.5899 61311 247.611
51.707 63769 252.525
51.824 65593 256.111
51.9411 66961 258.768
52.0581 67357 259.532
52.175 68658 262.027
52.2919 69160 262.983
52.4088 69797 264.191
52.5257 70662 265.823
52.6425 71023 266.501
52.7593 71450 267.301
52.876 71261 266.948
52.9927 72308 268.901
53.1094 72664 269.563
53.226 73615 271.321
53.3426 74326 272.628
53.4591 74658 273.236
53.5756 74071 272.16
53.692 72001 268.33
53.8084 69393 263.426
53.9248 67470 259.75
54.0411 67476 259.761
54.1573 68807 262.311
54.2735 0 1
54.3896 0 1
54.5057 0 1
54.6217 0 1
54.7377 0 1
54.8537 0 1
54.9695 0 1
55.0853 0 1
55.2011 0 1
55.3168 0 1
55.4324 0 1
57.824 0 1
57.9396 0 1
58.0553 0 1
58.1711 0 1
58.2869 0 1
58.4028 0 1
58.5187 0 1
58.6347 0 1
58.7508 0 1
58.8669 0 1
58.983 78191 279.627
59.0992 78757 280.637
59.2155 78556 280.278
59.3318 80150 283.108
59.4482 81693 285.82
59.5646 81546 285.563
59.681 81472 285.433
59.7975 81470 285.43
59.9141 82427 287.101
60.0306 83205 288.453
60.1473 85759 292.846
60.2639 86102 293.431
60.3807 86904 294.795
60.4974 87587 295.951
60.6142 86911 294.807
60.731 86542 294.18
60.8479 87361 295.569
60.9648 86264 293.707
61.0818 86361 293.872
61.1987 85289 292.043
61.3158 85184 291.863
61.4328 84231 290.226
61.5499 83958 289.755
61.667 83598 289.133
61.7841 83855 289.577
61.9013 83706 289.32
62.0185 83435 288.851
62.1357 81533 285.54
62.253 79758 282.415
62.3702 77119 277.703
62.4875 74628 273.181
62.6049 73860 271.772
62.7222 74841 273.571
62.8396 75813 275.342
62.9569 75754 275.234
63.0743 75192 274.212
63.1918 75162 274.157
63.3092 75339 274.48
63.4267 75973 275.632
63.5441 78072 279.414
63.6616 79507 281.97
63.7791 80343 283.448
63.8966 80389 283.53
64.0142 79828 282.538
64.1317 79830 282.542
64.2492 79670 282.259
64.3668 79044 281.148
64.4843 78878 280.852
64.6019 79081 281.213
64.7195 78094 279.453
64.837 78113 279.487
64.9546 77988 279.263
65.0722 77306 278.04
65.1898 76489 276.566
65.3074 77729 278.799
65.4249 76474 276.539
65.5425 76940 277.381
65.6601 76738 277.016
65.7777 76026 275.728
65.8952 73982 271.996
66.0128 70182 264.919
66.1304 67339 259.498
66.2479 66238 257.367
66.3655 67415 259.644
66.483 69921 264.426
66.6005 70356 265.247
66.718 70543 265.599
66.8355 70154 264.866
66.953 71548 267.485
67.0705 73962 271.96
67.1879 75036 273.927
67.3054 75625 275
67.4228 76164 275.978
67.5402 76548 276.673
67.6576 76036 275.746
67.7749 74655 273.231
67.8923 76401 276.407
68.0096 76413 276.429
68.1269 76961 277.418
68.2442 75848 275.405
68.3614 76209 276.06
68.4787 76384 276.377
68.5958 76166 275.982
68.713 76286 276.199
68.8302 76362 276.337
68.9473 76708 276.962
69.0643 76379 276.368
69.1814 76739 277.018
69.2984 76258 276.149
69.4154 77307 278.041
69.5323 76309 276.241
69.6492 74583 273.099
69.7661 71332 267.081
69.8829 68180 261.113
69.9997 68215 261.18
70.1165 70364 265.262
70.2332 72712 269.652
70.3499 71841 268.032
70.4665 71533 267.457
70.5831 72811 269.835
70.6996 74424 272.808
70.8161 76236 276.109
70.9326 77436 278.273
71.049 77306 278.04
71.1653 77395 278.2
71.2817 76026 275.728
71.3979 74654 273.229
71.5141 73314 270.766
71.6303 72044 268.41
71.7464 67329 259.478
71.8624 0 1
71.9784 0 1
72.0944 0 1
72.2102 0 1
72.3261 0 1
72.4418 0 1
72.5575 0 1
72.6732 0 1
75.1054 0 1
75.2209 0 1
75.3365 0 1
75.4521 0 1
75.5678 0 1
75.6835 0 1
75.7993 0 1
75.9151 0 1
76.031 0 1
76.147 66854 258.561
76.263 72933 270.061
76.3791 73634 271.356
76.4952 73973 271.98
76.6113 74050 272.121
76.7276 74539 273.018
76.8438 73410 270.943
76.9601 73763 271.593
77.0765 73838 271.731
77.1929 73995 272.02
77.3093 74230 272.452
77.4258 73664 271.411
77.5423 73858 271.768
77.6589 73505 271.118
77.7755 73157 270.476
77.8921 72808 269.83
78.0088 72331 268.944
78.1256 71790 267.937
78.2423 71795 267.946
78.3591 71765 267.89
78.4759 71420 267.245
78.5928 70567 265.644
78.7097 69689 263.987
78.8266 66866 258.585
78.9436 55368 235.304
79.0606 53842 232.039
79.1776 55244 235.04
79.2946 60655 246.282
79.4117 64461 253.892
79.5288 67820 260.423
79.6459 69545 263.714
79.7631 70344 265.224
79.8802 69271 263.194
79.9974 68318 261.377
80.1147 68232 261.213
80.2319 67852 260.484
80.3491 68081 260.923
80.4664 67458 259.727
80.5837 67280 259.384
80.701 66176 257.247
80.8183 66384 257.651
80.9357 66077 257.054
81.053 66346 257.577
81.1704 65749 256.416
81.2877 66149 257.194
81.4051 65033 255.016
81.5225 65394 255.723
81.6399 62892 250.783
81.7573 63941 252.866
81.8747 62705 250.41
81.9922 62441 249.882
82.1096 62466 249.932
82.227 62251 249.502
82.3444 61570 248.133
82.4619 60512 245.992
82.5793 53439 231.169
82.6967 49599 222.708
82.8142 47571 218.108
82.9316 50658 225.073
83.049 55084 234.7
83.1664 57649 240.102
83.2838 59555 244.039
83.4012 59319 243.555
83.5186 57889 240.601
83.636 58166 241.176
83.7534 57387 239.556
83.8708 57128 239.015
83.9881 56736 238.193
84.1055 56609 237.926
84.2228 55443 235.463
84.3401 56037 236.721
84.4575 56076 236.804
84.5747 55494 235.572
84.692 56146 236.951
84.8093 55742 236.097
84.9265 55212 234.972
85.0437 54643 233.758
85.1609 55222 234.994
85.2781 54786 234.064
85.3952 54562 233.585
85.5123 54072 232.534
85.6294 54533 233.523
85.7465 54124 232.646
85.8636 53962 232.297
85.9806 54024 232.431
86.0976 51658 227.284
86.2145 46666 216.023
86.3315 39213 198.023
86.4484 42606 206.412
86.5652 48036 219.171
86.682 52819 229.824
86.7988 53794 231.935
86.9156 53666 231.659
87.0323 53692 231.715
87.149 53714 231.763
87.2657 52902 230.004
87.3823 52270 228.626
87.4988 52038 228.118
87.6154 52132 228.324
87.7318 51259 226.405
87.8483 50985 225.799
87.9647 50905 225.621
88.081 50902 225.615
88.1973 51116 226.088
88.3136 50560 224.856
88.4298 50314 224.308
88.546 49594 222.697
88.6621 48741 220.774
88.7781 47544 218.046
88.8942 0 1
89.0101 0 1
89.126 0 1
89.2419 0 1
89.3577 0 1
89.4734 0 1
89.5891 0 1
89.7047 0 1
89.8203 0 1
89.9358 0 1
92.3269 0 1
92.4424 0 1
92.558 0 1
92.6736 0 1
92.7893 0 1
92.905 0 1
93.0208 0 1
93.1366 0 1
93.2525 0 1
93.3685 0 1
93.4845 0 1
93.6005 28911 170.032
93.7167 28590 169.086
93.8328 28410 168.553
93.949 27397 165.52
94.0653 26500 162.788
94.1816 25896 160.922
94.2979 25115 158.477
94.4143 24111 155.277
94.5307 23635 153.737
94.6472 22681 150.602
94.7637 21902 147.993
94.8803 21609 147
94.9969 20972 144.817
95.1135 20511 143.217
95.2302 19489 139.603
95.3469 18444 135.809
95.4637 15878 126.008
95.5805 14047 118.52
95.6973 16046 126.673
95.8142 17412 131.955
95.9311 17356 131.742
96.048 16882 129.931
96.1649 16322 127.758
96.2819 16031 126.614
96.3989 15647 125.088
96.516 15619 124.976
96.633 15247 123.479
96.7501 15467 124.366
96.8673 15802 125.706
96.9844 15870 125.976
97.1016 16419 128.137
97.2188 16633 128.969
97.336 17860 133.641
97.4532 18471 135.908
97.5704 19506 139.664
97.6877 19964 141.294
97.805 20810 144.257
97.9223 21356 146.137
98.0396 21851 147.821
98.1569 22746 150.818
98.2743 23355 152.823
98.3916 24332 155.987
98.509 25308 159.085
98.6264 26149 161.707
98.7438 26486 162.745
98.8612 26822 163.774
98.9786 26045 161.385
99.096 22243 149.141
99.2134 20617 143.586
99.3308 27006 164.335
99.4482 31798 178.32
99.5656 33283 182.436
99.6831 33899 184.117
99.8005 34448 185.602
99.9179 35111 187.379
100.035 35328 187.957
100.153 36015 189.776
100.27 36891 192.07
100.388 37242 192.982
100.505 38134 195.279
100.622 38471 196.14
100.74 39250 198.116
100.857 40456 201.137
100.975 41551 203.841
101.092 41914 204.729
101.209 42499 206.153
101.327 43284 208.048
101.444 44041 209.859
101.561 44497 210.943
101.679 45138 212.457
101.796 45574 213.481
101.913 46166 214.863
102.03 46598 215.866
102.148 47481 217.901
102.265 50162 223.969
102.382 45584 213.504
102.499 45224 212.659
102.616 38158 195.341
102.733 32783 181.061
102.851 39329 198.315
102.968 47688 218.376
103.085 49919 223.426
103.202 49868 223.311
103.319 49966 223.531
103.436 49613 222.74
103.552 49902 223.388
103.669 49619 222.753
103.786 49604 222.72
103.903 49501 222.488
104.02 50164 223.973
104.137 50437 224.582
104.253 51654 227.275
104.37 49847 223.264
104.487 50939 225.697
104.603 52198 228.469
104.72 51693 227.361
104.836 52617 229.384
104.953 52449 229.017
105.069 52414 228.941
105.186 52469 229.061
105.302 53484 231.266
105.418 53194 230.638
105.535 53566 231.443
105.651 53331 230.935
105.767 52934 230.074
105.883 49841 223.251
105.999 44544 211.054
106.115 0 1
106.231 0 1
106.347 0 1
106.463 0 1
106.579 0 1
106.694 0 1
106.81 0 1
106.926 0 1
107.041 0 1
107.157 0 1
109.576 0 1
109.692 0 1
109.807 0 1
109.923 0 1
110.039 0 1
110.155 0 1
110.27 0 1
110.386 0 1
110.502 0 1
110.618 42851 207.005
110.735 43902 209.528
110.851 43081 207.56
110.967 41633 204.042
111.083 36945 192.211
111.199 32926 181.455
111.316 33386 182.718
111.432 36677 191.512
111.549 39176 197.929
111.665 40254 200.634
111.782 39938 199.845
111.898 38635 196.558
112.015 37925 194.743
112.132 37127 192.684
112.248 36595 191.298
112.365 35967 189.65
112.482 35265 187.79
112.599 33517 183.076
112.716 33563 183.202
112.832 33453 182.902
112.949 32423 180.064
113.066 32047 179.017
113.183 31035 176.168
113.3 30276 174
113.417 29551 171.904
113.534 29623 172.113
113.652 29413 171.502
113.769 28705 169.425
113.886 28133 167.729
114.003 27816 166.781
114.12 27410 165.56
114.238 26880 163.951
114.355 26440 162.604
114.472 26042 161.375
114.589 25414 159.418
114.707 23546 153.447
114.824 21200 145.602
114.942 20833 144.336
115.059 22375 149.583
115.176 23977 154.845
115.294 24239 155.689
115.411 24013 154.961
115.529 23988 154.881
115.646 23582 153.564
115.764 23277 152.568
115.881 23257 152.502
115.999 22875 151.245
116.116 22719 150.728
116.234 22413 149.71
116.351 21939 148.118
116.469 22230 149.097
116.586 22173 148.906
116.704 22334 149.446
116.821 21995 148.307
116.939 22292 149.305
117.056 21864 147.865
117.174 22153 148.839
117.291 22057 148.516
117.409 22107 148.684
117.526 22154 148.842
117.644 22241 149.134
117.761 20901 144.572
117.879 19131 138.315
117.996 18214 134.959
118.114 19410 139.32
118.231 21873 147.895
118.349 22627 150.423
118.466 23019 151.72
118.584 22592 150.306
118.701 22234 149.111
118.819 22735 150.781
118.936 23314 152.689
119.053 23397 152.961
119.171 23517 153.353
119.288 23350 152.807
119.405 23645 153.769
119.523 23594 153.603
119.64 23790 154.24
119.757 23673 153.86
119.875 23522 153.369
119.992 24153 155.412
120.109 23769 154.172
120.226 24082 155.184
120.343 24211 155.599
120.46 24682 157.105
120.578 24963 157.997
120.695 24929 157.889
120.812 25301 159.063
120.929 25461 159.565
121.046 25882 160.879
121.163 26066 161.45
121.279 25609 160.028
121.396 24263 155.766
121.513 21259 145.805
121.63 18064 134.402
121.747 16488 128.406
121.863 19436 139.413
121.98 24042 155.055
122.097 27058 164.493
122.213 28270 168.137
122.33 28417 168.573
122.446 27377 165.46
122.563 27435 165.635
122.679 28603 169.124
122.795 29265 171.07
122.912 29435 171.566
123.028 29505 171.77
123.144 29711 172.369
123.26 29712 172.372
123.377 0 1
123.493 0 1
123.609 0 1
123.725 0 1
123.84 0 1
123.956 0 1
124.072 0 1
124.188 0 1
124.303 0 1
124.419 0 1
126.852 0 1
126.968 0 1
127.083 0 1
127.199 0 1
127.315 0 1
127.431 0 1
127.547 0 1
127.663 0 1
127.779 0 1
127.895 0 1
128.011 0 1
128.127 0 1
128.243 0 1
128.359 42664 206.553
128.476 42724 206.698
128.592 42577 206.342
128.708 42948 207.239
128.825 43619 208.852
128.941 43972 209.695
129.058 44061 209.907
129.174 44412 210.742
129.291 44898 211.891
129.408 44959 212.035
129.524 45199 212.601
129.641 45534 213.387
129.758 45750 213.892
129.875 46149 214.823
129.992 45693 213.759
130.108 44134 210.081
130.225 42032 205.017
130.342 38166 195.361
130.459 33130 182.016
130.576 30602 174.934
130.693 27861 166.916
130.81 29804 172.638
130.928 36879 192.039
131.045 44431 210.787
131.162 48268 219.7
131.279 49957 223.511
131.396 50043 223.703
131.513 49167 221.736
131.631 50133 223.904
131.748 50816 225.424
131.865 50176 224
131.983 50589 224.92
132.1 50443 224.595
132.217 51098 226.049
132.335 51392 226.698
132.452 51314 226.526
132.57 51861 227.73
132.687 49876 223.329
132.804 53588 231.491
132.922 51995 228.024
133.039 52376 228.858
133.157 52241 228.563
133.274 52730 229.63
133.392 52989 230.193
133.509 52315 228.725
133.627 51568 227.086
133.744 49242 221.905
133.862 45751 213.895
133.979 42041 205.039
134.097 38398 195.954
134.214 36370 190.709
134.332 34902 186.821
134.449 37662 194.067
134.567 44144 210.105
134.684 51673 227.317
134.802 55762 236.14
134.919 56786 238.298
135.037 57290 239.353
135.154 58265 241.381
135.272 58072 240.981
135.389 58117 241.075
135.507 58115 241.071
135.624 58323 241.502
135.742 58778 242.442
135.859 59023 242.946
135.977 59179 243.267
136.094 59413 243.748
136.211 59645 244.223
136.329 59721 244.379
136.446 59828 244.598
136.564 60552 246.073
136.681 61221 247.429
136.798 60567 246.104
136.915 61005 246.992
137.033 61045 247.073
137.15 59985 244.918
137.267 57713 240.235
137.384 54910 234.329
137.502 51284 226.46
137.619 47748 218.513
137.736 45431 213.145
137.853 43086 207.572
137.97 42462 206.063
138.087 45300 212.838
138.204 48963 221.276
138.321 54882 234.269
138.438 61353 247.695
138.555 64145 253.269
138.672 64556 254.079
138.788 65232 255.406
138.905 65515 255.959
139.022 65650 256.223
139.139 65736 256.39
139.255 65998 256.901
139.372 66843 258.54
139.488 66280 257.449
139.605 66400 257.682
139.721 66658 258.182
139.838 66786 258.43
139.954 66940 258.728
140.071 65405 255.744
140.187 66966 258.778
140.303 65963 256.833
140.419 66491 257.858
140.535 65415 255.764
140.652 65456 255.844
140.768 0 1
140.884 0 1
141 0 1
141.115 0 1
141.231 0 1
141.347 0 1
141.463 0 1
141.578 0 1
141.694 0 1
144.104 0 1
144.219 0 1
144.335 0 1
144.45 0 1
144.566 0 1
144.682 0 1
144.798 0 1
144.914 0 1
145.03 0 1
145.146 64132 253.243
145.262 65059 255.067
145.378 65112 255.171
145.494 65261 255.462
145.61 64532 254.031
145.726 62773 250.545
145.842 61226 247.439
145.959 58269 241.39
146.075 55560 235.712
146.192 52653 229.462
146.308 50566 224.869
146.425 49463 222.403
146.541 49333 222.11
146.658 50379 224.453
146.774 52589 229.323
146.891 55746 236.106
147.008 59012 242.924
147.125 63033 251.064
147.241 65361 255.658
147.358 67348 259.515
147.475 66677 258.219
147.592 65997 256.899
147.709 66749 258.358
147.826 66353 257.591
147.943 66531 257.936
148.06 65498 255.926
148.177 66161 257.218
148.294 65976 256.858
148.411 66356 257.597
148.528 66206 257.305
148.645 65388 255.711
148.762 65216 255.374
148.88 65232 255.406
148.997 63159 251.315
149.114 67289 259.401
149.231 64316 253.606
149.349 63539 252.069
149.466 60611 246.193
149.583 57386 239.554
149.701 55784 236.186
149.818 53848 232.052
149.935 51923 227.866
150.053 50831 225.457
150.17 51237 226.356
150.287 52634 229.421
150.405 54004 232.388
150.522 57490 239.771
150.64 59864 244.671
150.757 61928 248.853
150.875 64776 254.511
150.992 67289 259.401
151.11 66660 258.186
151.227 67198 259.226
151.344 66369 257.622
151.462 66892 258.635
151.579 66913 258.675
151.697 67371 259.559
151.814 67263 259.351
151.932 67372 259.561
152.049 67382 259.58
152.167 67296 259.415
152.284 67754 260.296
152.402 68008 260.783
152.519 67670 260.135
152.636 67524 259.854
152.754 66892 258.635
152.871 65799 256.513
152.989 64125 253.229
153.106 62026 249.05
153.223 59711 244.358
153.341 57242 239.253
153.458 55872 236.373
153.575 54597 233.66
153.693 54493 233.437
153.81 54949 234.412
153.927 56050 236.749
154.044 58305 241.464
154.162 61479 247.95
154.279 64604 254.173
154.396 67116 259.068
154.513 68949 262.581
154.63 70179 264.913
154.747 70279 265.102
154.864 71240 266.908
154.981 71018 266.492
155.098 70444 265.413
155.215 71405 267.217
155.332 71035 266.524
155.449 70844 266.165
155.566 70937 266.34
155.683 70965 266.393
155.8 71148 266.736
155.917 71191 266.816
156.033 71515 267.423
156.15 0 1
156.267 0 1
156.383 0 1
156.5 0 1
156.617 0 1
156.733 0 1
156.85 0 1
156.966 0 1
157.082 0 1
157.199 0 1
157.315 0 1
157.431 0 1
157.547 0 1
157.664 0 1
157.78 0 1
157.896 0 1
158.012 0 1
158.128 0 1
158.244 0 1
158.359 0 1
158.475 0 1
158.591 0 1
158.706 0 1
