
6.15755 0 1
6.2731 0 1
6.3887 0 1
6.50437 0 1
6.62009 0 1
6.73587 0 1
6.8517 0 1
6.96759 0 1
7.08353 0 1
7.19952 0 1
7.31557 0 1
7.43166 0 1
7.54781 0 1
7.664 0 1
7.78024 0 1
7.89653 0 1
8.01286 0 1
8.12924 0 1
8.24567 0 1
8.36213 0 1
8.47864 0 1
8.59519 0 1
8.71178 0 1
8.82841 0 1
8.94508 0 1
9.06179 0 1
9.17853 0 1
9.29531 0 1
9.41212 0 1
9.52897 0 1
9.64584 0 1
9.76276 0 1
9.8797 0 1
9.99667 0 1
10.1137 0 1
10.2307 0 1
10.3478 0 1
10.4648 0 1
10.5819 0 1
10.6991 0 1
10.8162 0 1
10.9334 0 1
11.0506 0 1
11.1678 0 1
11.285 0 1
11.4023 0 1
11.5196 0 1
11.6369 0 1
11.7542 0 1
11.8715 0 1
11.9888 0 1
12.1062 0 1
12.2235 0 1
12.3409 0 1
12.4582 0 1
12.5756 0 1
12.693 0 1
12.8104 0 1
12.9278 0 1
13.0452 0 1
13.1626 0 1
13.28 0 1
13.3974 0 1
13.5149 0 1
13.6323 0 1
13.7497 0 1
13.8671 0 1
13.9845 0 1
14.1019 0 1
14.2193 0 1
14.3367 0 1
14.4541 0 1
14.5714 0 1
14.6888 0 1
14.8062 0 1
14.9235 0 1
15.0408 43341 208.185
15.1581 45002 212.137
15.2755 46106 214.723
15.3927 46260 215.081
15.51 45554 213.434
15.6273 44932 211.972
15.7445 44502 210.955
15.8617 45355 212.967
15.9789 46467 215.562
16.0961 46575 215.812
16.2132 46820 216.379
16.3304 47671 218.337
16.4475 48722 220.731
16.5646 49160 221.721
16.6816 50256 224.179
16.7986 51157 226.179
16.9156 52041 228.125
17.0326 52534 229.203
17.1496 53314 230.898
17.2665 54210 232.83
17.3833 53675 231.679
17.5002 53489 231.277
17.617 53730 231.797
17.7338 53132 230.504
17.8505 52042 228.127
17.9672 51558 227.064
18.0839 51142 226.146
18.2005 51764 227.517
18.3171 52487 229.1
18.4337 53594 231.504
18.5502 54635 233.741
18.6666 56000 236.643
18.7831 56546 237.794
18.8994 55697 236.002
19.0158 54412 233.264
19.1321 52431 228.978
19.2483 50835 225.466
19.3645 50155 223.953
19.4806 49680 222.89
19.5967 48789 220.882
19.7128 46705 216.113
19.8288 43141 207.704
19.9447 37656 194.052
20.0606 0 1
20.1764 0 1
20.2922 0 1
20.4079 0 1
20.5236 0 1
20.6392 0 1
20.7548 0 1
20.8702 0 1
23.3078 0 1
23.4233 0 1
23.539 0 1
23.6547 0 1
23.7704 0 1
23.8862 0 1
24.0021 0 1
24.118 0 1
24.234 0 1
24.35 0 1
24.4661 29925 172.988
24.5822 35192 187.595
24.6984 40510 201.271
24.8146 45095 212.356
24.9309 49679 222.888
25.0472 53584 231.482
25.1636 57508 239.808
25.28 61852 248.701
25.3965 65070 255.088
25.513 69366 263.374
25.6296 72224 268.745
25.7462 73696 271.47
25.8628 74822 273.536
25.9795 76374 276.358
26.0962 77223 277.89
26.213 75968 275.623
26.3298 76303 276.23
26.4466 74977 273.819
26.5635 74957 273.783
26.6804 75105 274.053
26.7973 75403 274.596
26.9143 76215 276.071
27.0313 78076 279.421
27.1483 80288 283.351
27.2653 82405 287.063
27.3824 82885 287.898
27.4996 82763 287.686
27.6167 81754 285.927
27.7339 79612 282.156
27.8511 77856 279.027
27.9683 76883 277.278
28.0855 77163 277.782
28.2028 78372 279.95
28.3201 77903 279.111
28.4374 76800 277.128
28.5547 75478 274.733
28.6721 74395 272.754
28.7894 74448 272.852
28.9068 74611 273.15
29.0242 75446 274.674
29.1416 77000 277.489
29.259 77950 279.195
29.3764 78068 279.407
29.4939 78807 280.726
29.6113 78306 279.832
29.7288 78183 279.612
29.8463 78681 280.501
29.9638 78803 280.719
30.0812 79129 281.299
30.1987 79379 281.743
30.3162 80668 284.021
30.4337 82631 287.456
30.5512 84223 290.212
30.6687 86627 294.325
30.7862 88237 297.047
30.9037 89520 299.199
31.0212 89996 299.993
31.1387 88294 297.143
31.2562 87170 295.246
31.3737 85528 292.452
31.4912 84637 290.924
31.6087 85179 291.854
31.7262 86024 293.298
31.8436 85672 292.698
31.9611 84026 289.872
32.0785 83328 288.666
32.1959 81511 285.501
32.3134 81178 284.918
32.4308 81719 285.865
32.5482 83370 288.739
32.6655 83665 289.249
32.7829 84976 291.506
32.9002 86363 293.876
33.0176 87402 295.638
33.1349 87410 295.652
33.2522 87614 295.997
33.3694 87465 295.745
33.4867 88886 298.138
33.6039 90010 300.017
33.7211 90223 300.371
33.8383 90511 300.85
33.9554 91931 303.201
34.0725 93810 306.284
34.1896 95870 309.629
34.3067 98240 313.433
34.4237 100419 316.89
34.5407 102203 319.692
34.6577 103380 321.528
34.7746 103217 321.274
34.8915 102196 319.681
35.0084 100457 316.95
35.1252 99499 315.435
35.242 99083 314.775
35.3587 101146 318.035
35.4755 101957 319.307
35.5921 101296 318.27
35.7088 99476 315.398
35.8254 96338 310.384
35.9419 92594 304.293
36.0584 88951 298.247
36.1749 87742 296.213
36.2913 85674 292.701
36.4077 84447 290.598
36.524 83856 289.579
36.6403 83159 288.373
36.7565 81870 286.129
36.8727 81246 285.037
36.9889 79983 282.813
37.1049 73968 271.971
37.221 0 1
37.3369 0 1
37.4529 0 1
37.5687 0 1
37.6845 0 1
37.8003 0 1
37.916 0 1
38.0316 0 1
38.1472 0 1
40.5851 0 1
40.7008 0 1
40.8164 0 1
40.9322 0 1
41.048 0 1
41.1639 0 1
41.2798 0 1
41.3958 0 1
41.5118 0 1
41.6279 0 1
41.744 58677 242.233
41.8602 65664 256.25
41.9765 72814 269.841
42.0928 80172 283.147
42.2091 88020 296.682
42.3255 96130 310.048
42.4419 105055 324.122
42.5584 110731 332.763
42.675 115976 340.552
42.7915 120790 347.549
42.9081 126629 355.85
43.0248 135721 368.403
43.1415 143659 379.024
43.2582 149668 386.869
43.375 154292 392.8
43.4918 157590 396.976
43.6087 158573 398.212
43.7256 157714 397.132
43.8425 157052 396.298
43.9595 153439 391.713
44.0765 152641 390.693
44.1935 155024 393.731
44.3106 159423 399.278
44.4277 159580 399.475
44.5448 155394 394.2
44.6619 148903 385.88
44.7791 142150 377.028
44.8963 133478 365.346
45.0136 129262 359.53
45.1308 128119 357.937
45.2481 127565 357.162
45.3654 130248 360.899
45.4827 133095 364.822
45.6001 138825 372.592
45.7174 147643 384.243
45.8348 155083 393.806
45.9522 161528 401.905
46.0697 166649 408.227
46.1871 168585 410.591
46.3046 169251 411.401
46.422 171461 414.078
46.5395 175384 418.789
46.657 181898 426.495
46.7745 186706 432.095
46.892 189615 435.448
47.0096 192869 439.169
47.1271 196156 442.895
47.2446 195175 441.786
47.3622 193991 440.444
47.4797 189751 435.604
47.5973 186814 432.22
47.7149 183814 428.735
47.8324 186998 432.433
47.95 190422 436.374
48.0675 184597 429.648
48.1851 180192 424.49
48.3027 168204 410.127
48.4202 153520 391.816
48.5378 141269 375.858
48.6554 133741 365.706
48.7729 132794 364.409
48.8904 132198 363.59
49.008 134670 366.974
49.1255 141013 375.517
49.243 152182 390.105
49.3605 164128 405.127
49.478 174393 417.604
49.5955 177043 420.765
49.713 177989 421.887
49.8304 178598 422.609
49.9479 178128 422.052
50.0653 180474 424.822
50.1827 185092 430.223
50.3001 188624 434.309
50.4175 191242 437.312
50.5348 193886 440.325
50.6521 194329 440.828
50.7694 193839 440.272
50.8867 190975 437.007
51.004 187265 432.741
51.1212 182521 427.225
51.2384 179743 423.961
51.3556 181385 425.893
51.4727 184183 429.165
51.5899 182086 426.715
51.707 173493 416.525
51.824 164378 405.436
51.9411 149220 386.29
52.0581 132963 364.641
52.175 125239 353.891
52.2919 122333 349.761
52.4088 121016 347.874
52.5257 122959 350.655
52.6425 126619 355.836
52.7593 133204 364.971
52.876 140203 374.437
52.9927 144544 380.189
53.1094 145313 381.199
53.226 145706 381.715
53.3426 142117 376.984
53.4591 137544 370.869
53.5756 131496 362.624
53.692 126764 356.039
53.8084 122479 349.97
53.9248 119116 345.132
54.0411 114346 338.151
54.1573 107659 328.114
54.2735 0 1
54.3896 0 1
54.5057 0 1
54.6217 0 1
54.7377 0 1
54.8537 0 1
54.9695 0 1
55.0853 0 1
55.2011 0 1
55.3168 0 1
55.4324 0 1
57.824 0 1
57.9396 0 1
58.0553 0 1
58.1711 0 1
58.2869 0 1
58.4028 0 1
58.5187 0 1
58.6347 0 1
58.7508 0 1
58.8669 0 1
58.983 92269 303.758
59.0992 104656 323.506
59.2155 113935 337.543
59.3318 121123 348.027
59.4482 127614 357.231
59.5646 131319 362.38
59.681 134521 366.771
59.7975 135871 368.607
59.9141 137791 371.202
60.0306 140047 374.229
60.1473 144972 380.752
60.2639 146426 382.657
60.3807 144794 380.518
60.4974 138174 371.718
60.6142 127754 357.427
60.731 113752 337.271
60.8479 101153 318.046
60.9648 93026 305.002
61.0818 89167 298.608
61.1987 89457 299.094
61.3158 95289 308.689
61.4328 104876 323.846
61.5499 117645 342.994
61.667 129596 359.994
61.7841 136731 369.772
61.9013 139971 374.127
62.0185 140537 374.883
62.1357 137444 370.734
62.253 136382 369.299
62.3702 136300 369.188
62.4875 138322 371.917
62.6049 139744 373.823
62.7222 140974 375.465
62.8396 141606 376.306
62.9569 142467 377.448
63.0743 141064 375.585
63.1918 138073 371.582
63.3092 135562 368.187
63.4267 132878 364.524
63.5441 130961 361.885
63.6616 131380 362.464
63.7791 132337 363.782
63.8966 129426 359.758
64.0142 123422 351.315
64.1317 111597 334.061
64.2492 98474 313.806
64.3668 85470 292.353
64.4843 77127 277.717
64.6019 73213 270.579
64.7195 72166 268.637
64.837 75647 275.04
64.9546 83222 288.482
65.0722 95796 309.509
65.1898 106074 325.69
65.3074 115088 339.246
65.4249 118220 343.831
65.5425 120713 347.438
65.6601 119395 345.536
65.7777 116417 341.199
65.8952 115490 339.838
66.0128 115384 339.682
66.1304 117686 343.054
66.2479 118961 344.907
66.3655 120248 346.768
66.483 120835 347.613
66.6005 120703 347.423
66.718 119827 346.16
66.8355 117650 343.001
66.953 114268 338.036
67.0705 111984 334.64
67.1879 111593 334.055
67.3054 113186 336.431
67.4228 113158 336.39
67.5402 110665 332.663
67.6576 103892 322.323
67.7749 95272 308.662
67.8923 82842 287.823
68.0096 71387 267.183
68.1269 63819 252.624
68.2442 60496 245.959
68.3614 59625 244.182
68.4787 62441 249.882
68.5958 69624 263.864
68.713 80687 284.055
68.8302 92058 303.411
68.9473 100793 317.479
69.0643 105103 324.196
69.1814 106449 326.265
69.2984 103634 321.922
69.4154 99419 315.308
69.5323 95091 308.368
69.6492 92411 303.992
69.7661 92872 304.749
69.8829 92068 303.427
69.9997 92085 303.455
70.1165 92503 304.143
70.2332 91160 301.927
70.3499 88554 297.58
70.4665 83434 288.849
70.5831 78506 280.189
70.6996 73857 271.766
70.8161 69906 264.397
70.9326 66624 258.116
71.049 64661 254.285
71.1653 61526 248.044
71.2817 56831 238.393
71.3979 50584 224.909
71.5141 43104 207.615
71.6303 33727 183.649
71.7464 23528 153.388
71.8624 0 1
71.9784 0 1
72.0944 0 1
72.2102 0 1
72.3261 0 1
72.4418 0 1
72.5575 0 1
72.6732 0 1
75.1054 0 1
75.2209 0 1
75.3365 0 1
75.4521 0 1
75.5678 0 1
75.6835 0 1
75.7993 0 1
75.9151 0 1
76.031 0 1
76.147 58485 241.837
76.263 64575 254.116
76.3791 67543 259.89
76.4952 68054 260.872
76.6113 65924 256.757
76.7276 62833 250.665
76.8438 58832 242.553
76.9601 53486 231.27
77.0765 48165 219.465
77.1929 45941 214.339
77.3093 44408 210.732
77.4258 45451 213.192
77.5423 50152 223.946
77.6589 59089 243.082
77.7755 69808 264.212
77.8921 79379 281.743
78.0088 85225 291.933
78.1256 86378 293.901
78.2423 86246 293.677
78.3591 84606 290.871
78.4759 81577 285.617
78.5928 79932 282.722
78.7097 80614 283.926
78.8266 80286 283.348
78.9436 85658 292.674
79.0606 84718 291.064
79.1776 85837 292.98
79.2946 86832 294.673
79.4117 87362 295.571
79.5288 85426 292.277
79.6459 84822 291.242
79.7631 82893 287.911
79.8802 82416 287.082
79.9974 84342 290.417
80.1147 85637 292.638
80.2319 83790 289.465
80.3491 78929 280.943
80.4664 72403 269.078
80.5837 63962 252.907
80.701 54602 233.671
80.8183 48789 220.882
80.9357 46593 215.854
81.053 45557 213.441
81.1704 48006 219.103
81.2877 55461 235.502
81.4051 65905 256.72
81.5225 77372 278.158
81.6399 82732 287.632
81.7573 88145 296.892
81.8747 86412 293.959
81.9922 86527 294.155
82.1096 84265 290.284
82.227 81648 285.741
82.3444 79949 282.753
82.4619 82358 286.981
82.5793 83884 289.627
82.6967 85587 292.553
82.8142 86968 294.903
82.9316 87041 295.027
83.049 87186 295.273
83.1664 85951 293.174
83.2838 85457 292.33
83.4012 83975 289.784
83.5186 82659 287.505
83.636 83338 288.683
83.7534 83229 288.494
83.8708 81296 285.125
83.9881 76670 276.893
84.1055 71183 266.801
84.2228 66006 256.916
84.3401 58669 242.217
84.4575 51589 227.132
84.5747 48063 219.233
84.692 48594 220.44
84.8093 54268 232.955
84.9265 63783 252.553
85.0437 74196 272.389
85.1609 83117 288.3
85.2781 91319 302.19
85.3952 94800 307.896
85.5123 95674 309.312
85.6294 94990 308.204
85.7465 94496 307.402
85.8636 95032 308.273
85.9806 96210 310.177
86.0976 97805 312.738
86.2145 100097 316.381
86.3315 103389 321.542
86.4484 99386 315.255
86.5652 100737 317.391
86.682 99449 315.355
86.7988 97202 311.772
86.9156 95116 308.409
87.0323 91285 302.134
87.149 86282 293.738
87.2657 85031 291.601
87.3823 84278 290.307
87.4988 81750 285.92
87.6154 78056 279.385
87.7318 71977 268.285
87.8483 64654 254.272
87.9647 54837 234.173
88.081 47887 218.831
88.1973 44168 210.162
88.3136 43035 207.449
88.4298 46399 215.404
88.546 52997 230.211
88.6621 59313 243.543
88.7781 64681 254.325
88.8942 0 1
89.0101 0 1
89.126 0 1
89.2419 0 1
89.3577 0 1
89.4734 0 1
89.5891 0 1
89.7047 0 1
89.8203 0 1
89.9358 0 1
92.3269 0 1
92.4424 0 1
92.558 0 1
92.6736 0 1
92.7893 0 1
92.905 0 1
93.0208 0 1
93.1366 0 1
93.2525 0 1
93.3685 0 1
93.4845 0 1
93.6005 72161 268.628
93.7167 79207 281.437
93.8328 88996 298.322
93.949 103765 322.126
94.0653 120761 347.507
94.1816 137579 370.916
94.2979 151619 389.383
94.4143 164033 405.01
94.5307 175753 419.229
94.6472 185118 430.253
94.7637 192882 439.183
94.8803 194959 441.542
94.9969 192205 438.412
95.1135 190006 435.897
95.2302 191410 437.504
95.3469 193414 439.789
95.4637 196517 443.302
95.5805 196606 443.403
95.6973 194414 440.924
95.8142 191046 437.088
95.9311 187163 432.623
96.048 182530 427.235
96.1649 176126 419.674
96.2819 171988 414.714
96.3989 171058 413.592
96.516 169549 411.763
96.633 163990 404.957
96.7501 153743 392.101
96.8673 143422 378.711
96.9844 134417 366.629
97.1016 125445 354.182
97.2188 118512 344.256
97.336 115895 340.434
97.4532 118663 344.475
97.5704 128522 358.5
97.6877 144215 379.757
97.805 164408 405.473
97.9223 186133 431.431
98.0396 207445 455.461
98.1569 223481 472.738
98.2743 237246 487.079
98.3916 246308 496.294
98.509 253506 503.494
98.6264 251309 501.307
98.7438 247729 497.724
98.8612 246523 496.511
98.9786 248309 498.306
99.096 251745 501.742
99.2134 249303 499.303
99.3308 243459 493.416
99.4482 236348 486.156
99.5656 228969 478.507
99.6831 217021 465.855
99.8005 206499 454.422
99.9179 200558 447.837
100.035 198707 445.766
100.153 195528 442.185
100.27 182532 427.238
100.388 164661 405.784
100.505 147460 384.005
100.622 134086 366.178
100.74 126872 356.191
100.857 122777 350.395
100.975 121918 349.168
101.092 127266 356.744
101.209 141800 376.563
101.327 164510 405.598
101.444 190620 436.601
101.561 214302 462.928
101.679 232859 482.555
101.796 244036 494
101.913 251108 501.107
102.03 254629 504.608
102.148 250950 500.949
102.265 248430 498.428
102.382 237015 486.842
102.499 237935 487.786
102.616 236715 486.534
102.733 236058 485.858
102.851 232343 482.02
102.968 228444 477.958
103.085 218392 467.324
103.202 211434 459.82
103.319 203093 450.658
103.436 198121 445.108
103.552 195901 442.607
103.669 194622 441.16
103.786 189271 435.053
103.903 174837 418.135
104.02 155853 394.782
104.137 139701 373.766
104.253 127142 356.57
104.37 117742 343.136
104.487 116792 341.748
104.603 118369 344.048
104.72 126503 355.673
104.836 138095 371.611
104.953 150331 387.725
105.069 158341 397.921
105.186 160363 400.453
105.302 158819 398.521
105.418 151763 389.568
105.535 142915 378.041
105.651 129756 360.217
105.767 116818 341.786
105.883 105444 324.721
105.999 95286 308.684
106.115 0 1
106.231 0 1
106.347 0 1
106.463 0 1
106.579 0 1
106.694 0 1
106.81 0 1
106.926 0 1
107.041 0 1
107.157 0 1
109.576 0 1
109.692 0 1
109.807 0 1
109.923 0 1
110.039 0 1
110.155 0 1
110.27 0 1
110.386 0 1
110.502 0 1
110.618 95207 308.556
110.735 102579 320.28
110.851 106797 326.798
110.967 113605 337.053
111.083 124593 352.977
111.199 136334 369.234
111.316 145554 381.515
111.432 153243 391.463
111.549 159478 399.347
111.665 162965 403.689
111.782 165412 406.709
111.898 166618 408.189
112.015 165509 406.828
112.132 165388 406.679
112.248 167730 409.549
112.365 169277 411.433
112.482 163791 404.711
112.599 147212 383.682
112.716 128829 358.928
112.832 114101 337.788
112.949 102934 320.833
113.066 97155 311.697
113.183 97513 312.271
113.3 100468 316.967
113.417 109371 330.713
113.534 128673 358.71
113.652 150623 388.102
113.769 165406 406.701
113.886 173982 417.111
114.003 177258 421.02
114.12 176488 420.105
114.238 174136 417.296
114.355 166846 408.468
114.472 162599 403.236
114.589 162247 402.799
114.707 167039 408.704
114.824 171815 414.506
114.942 174446 417.667
115.059 176491 420.108
115.176 176288 419.867
115.294 173938 417.059
115.411 172818 415.714
115.529 170412 412.81
115.646 166345 407.854
115.764 165237 406.494
115.881 165398 406.692
115.999 164892 406.069
116.116 157457 396.809
116.234 142999 378.152
116.351 125837 354.735
116.469 113895 337.483
116.586 105779 325.237
116.704 101676 318.867
116.821 102275 319.805
116.939 105896 325.417
117.056 117519 342.81
117.174 135682 368.35
117.291 151211 388.859
117.409 162717 403.382
117.526 169605 411.831
117.644 170746 413.214
117.761 170148 412.49
117.879 164636 405.754
117.996 157611 397.003
118.114 154292 392.8
118.231 155339 394.131
118.349 160661 400.825
118.466 163362 404.181
118.584 165431 406.732
118.701 166028 407.465
118.819 164267 405.299
118.936 161512 401.886
119.053 159468 399.334
119.171 156378 395.447
119.288 153341 391.588
119.405 152585 390.621
119.523 152696 390.763
119.64 151013 388.604
119.757 147086 383.518
119.875 136431 369.366
119.992 122938 350.625
120.109 112008 334.676
120.226 103653 321.952
120.343 100257 316.634
120.46 99594 315.585
120.578 101118 317.991
120.695 106258 325.972
120.812 117300 342.491
120.929 130116 360.716
121.046 139083 372.938
121.163 142973 378.118
121.279 144843 380.582
121.396 144296 379.863
121.513 140752 375.169
121.63 135813 368.528
121.747 127336 356.842
121.863 125529 354.301
121.98 125667 354.495
122.097 124864 353.361
122.213 122687 350.267
122.33 120110 346.569
122.446 115728 340.188
122.563 109778 331.328
122.679 103513 321.734
122.795 96959 311.382
122.912 90796 301.324
123.028 83981 289.795
123.144 78707 280.548
123.26 72479 269.219
123.377 0 1
123.493 0 1
123.609 0 1
123.725 0 1
123.84 0 1
123.956 0 1
124.072 0 1
124.188 0 1
124.303 0 1
124.419 0 1
126.852 0 1
126.968 0 1
127.083 0 1
127.199 0 1
127.315 0 1
127.431 0 1
127.547 0 1
127.663 0 1
127.779 0 1
127.895 0 1
128.011 0 1
128.127 0 1
128.243 0 1
128.359 141005 375.506
128.476 144368 379.958
128.592 147962 384.658
128.708 150689 388.187
128.825 151852 389.682
128.941 147575 384.155
129.058 138235 371.8
129.174 129942 360.475
129.291 122696 350.28
129.408 119240 345.311
129.524 117101 342.2
129.641 116114 340.755
129.758 117526 342.821
129.875 125175 353.801
129.992 136235 369.1
130.108 146321 382.519
130.225 154010 392.441
130.342 159815 399.769
130.459 159866 399.832
130.576 163657 404.545
130.693 155399 394.207
130.81 151663 389.439
130.928 152237 390.176
131.045 155412 394.223
131.162 159039 398.797
131.279 162227 402.774
131.396 162621 403.263
131.513 161657 402.066
131.631 160402 400.502
131.748 157459 396.811
131.865 154940 393.624
131.983 152403 390.388
132.1 151180 388.819
132.217 151382 389.078
132.335 151666 389.443
132.452 148489 385.343
132.57 142557 377.567
132.687 132823 364.449
132.804 128851 358.958
132.922 122698 350.283
133.039 119672 345.936
133.157 119022 344.996
133.274 116823 341.794
133.392 120492 347.12
133.509 127037 356.423
133.627 135498 368.101
133.744 143799 379.208
133.862 149866 387.125
133.979 153609 391.93
134.097 155301 394.082
134.214 152397 390.381
134.332 147216 383.687
134.449 146715 383.034
134.567 149195 386.258
134.684 152466 390.469
134.802 154721 393.346
134.919 156269 395.309
135.037 155280 394.056
135.154 152573 390.606
135.272 149916 387.19
135.389 147836 384.494
135.507 144969 380.748
135.624 142663 377.708
135.742 141579 376.27
135.859 141111 375.647
135.977 139633 373.675
136.094 137642 371.001
136.211 130766 361.616
136.329 125132 353.74
136.446 120368 346.941
136.564 115740 340.206
136.681 113296 336.595
136.798 111816 334.389
136.915 109793 331.35
137.033 109667 331.16
137.15 113885 337.469
137.267 119868 346.22
137.384 125213 353.854
137.502 130610 361.4
137.619 133737 365.701
137.736 136135 368.965
137.853 130389 361.094
137.97 132228 363.632
138.087 128827 358.925
138.204 132604 364.148
138.321 133174 364.93
138.438 133161 364.912
138.555 133432 365.283
138.672 130576 361.353
138.788 126293 355.377
138.905 122173 349.533
139.022 118726 344.566
139.139 112565 335.507
139.255 106970 327.063
139.372 102552 320.237
139.488 97973 313.006
139.605 94128 306.803
139.721 89253 298.752
139.838 83113 288.293
139.954 76371 276.353
140.071 69179 263.019
140.187 64300 253.574
140.303 58068 240.973
140.419 52648 229.452
140.535 48839 220.995
140.652 44221 210.288
140.768 0 1
140.884 0 1
141 0 1
141.115 0 1
141.231 0 1
141.347 0 1
141.463 0 1
141.578 0 1
141.694 0 1
144.104 0 1
144.219 0 1
144.335 0 1
144.45 0 1
144.566 0 1
144.682 0 1
144.798 0 1
144.914 0 1
145.03 0 1
145.146 82466 287.169
145.262 84925 291.419
145.378 85267 292.005
145.494 84530 290.74
145.61 84479 290.653
145.726 83138 288.337
145.842 82491 287.212
145.959 83257 288.543
146.075 85410 292.25
146.192 88074 296.773
146.308 89619 299.364
146.425 92110 303.496
146.541 93724 306.144
146.658 93834 306.323
146.774 92042 303.384
146.891 92004 303.322
147.008 96373 310.44
147.125 96860 311.223
147.241 100026 316.269
147.358 100993 317.794
147.475 101163 318.061
147.592 100047 316.302
147.709 98921 314.517
147.826 97329 311.976
147.943 95884 309.651
148.06 93450 305.696
148.177 93054 305.048
148.294 92616 304.329
148.411 93820 306.301
148.528 94824 307.935
148.645 94161 306.857
148.762 94512 307.428
148.88 93822 306.304
148.997 94622 307.607
149.114 90337 300.561
149.231 89994 299.99
149.349 89110 298.513
149.466 85874 293.043
149.583 84822 291.242
149.701 84717 291.062
149.818 85044 291.623
149.935 86655 294.372
150.053 89137 298.558
150.17 91822 303.021
150.287 92431 304.025
150.405 91646 302.731
150.522 90535 300.89
150.64 92489 304.12
150.757 95539 309.094
150.875 97742 312.637
150.992 98820 314.356
151.11 100212 316.563
151.227 98288 313.509
151.344 96982 311.419
151.462 95526 309.073
151.579 92772 304.585
151.697 90991 301.647
151.814 90643 301.07
151.932 89753 299.588
152.049 90336 300.559
152.167 91333 302.214
152.284 91549 302.571
152.402 91831 303.036
152.519 91584 302.628
152.636 91713 302.842
152.754 90984 301.636
152.871 89463 299.104
152.989 87186 295.273
153.106 86841 294.688
153.223 84179 290.136
153.341 84332 290.4
153.458 84388 290.496
153.575 85480 292.37
153.693 86831 294.671
153.81 88144 296.891
153.927 88576 297.617
154.044 86804 294.625
154.162 87375 295.593
154.279 89119 298.528
154.396 92047 303.392
154.513 92905 304.803
154.63 94062 306.695
154.747 94690 307.717
154.864 93136 305.182
154.981 90411 300.684
155.098 88604 297.664
155.215 86987 294.936
155.332 85977 293.218
155.449 85286 292.038
155.566 84935 291.436
155.683 84614 290.885
155.8 84274 290.3
155.917 83242 288.517
156.033 82453 287.146
156.15 0 1
156.267 0 1
156.383 0 1
156.5 0 1
156.617 0 1
156.733 0 1
156.85 0 1
156.966 0 1
157.082 0 1
157.199 0 1
157.315 0 1
157.431 0 1
157.547 0 1
157.664 0 1
157.78 0 1
157.896 0 1
158.012 0 1
158.128 0 1
158.244 0 1
158.359 0 1
158.475 0 1
158.591 0 1
158.706 0 1
