
6.15755 0 1
6.2731 0 1
6.3887 0 1
6.50437 0 1
6.62009 0 1
6.73587 0 1
6.8517 0 1
6.96759 0 1
7.08353 0 1
7.19952 0 1
7.31557 0 1
7.43166 0 1
7.54781 0 1
7.664 0 1
7.78024 0 1
7.89653 0 1
8.01286 0 1
8.12924 0 1
8.24567 0 1
8.36213 0 1
8.47864 0 1
8.59519 0 1
8.71178 0 1
8.82841 0 1
8.94508 0 1
9.06179 0 1
9.17853 0 1
9.29531 0 1
9.41212 0 1
9.52897 0 1
9.64584 0 1
9.76276 0 1
9.8797 0 1
9.99667 0 1
10.1137 0 1
10.2307 0 1
10.3478 0 1
10.4648 0 1
10.5819 0 1
10.6991 0 1
10.8162 0 1
10.9334 0 1
11.0506 0 1
11.1678 0 1
11.285 0 1
11.4023 0 1
11.5196 0 1
11.6369 0 1
11.7542 0 1
11.8715 0 1
11.9888 0 1
12.1062 0 1
12.2235 0 1
12.3409 0 1
12.4582 0 1
12.5756 0 1
12.693 0 1
12.8104 0 1
12.9278 0 1
13.0452 0 1
13.1626 0 1
13.28 0 1
13.3974 0 1
13.5149 0 1
13.6323 0 1
13.7497 0 1
13.8671 0 1
13.9845 0 1
14.1019 0 1
14.2193 0 1
14.3367 0 1
14.4541 0 1
14.5714 0 1
14.6888 0 1
14.8062 0 1
14.9235 0 1
15.0408 4100 64.0312
15.1581 4288 65.4828
15.2755 4390 66.2571
15.3927 4341 65.8863
15.51 4100 64.0312
15.6273 4219 64.9538
15.7445 4355 65.9924
15.8617 4365 66.0681
15.9789 4299 65.5668
16.0961 4103 64.0547
16.2132 4017 63.3798
16.3304 3986 63.1348
16.4475 3851 62.0564
16.5646 3772 61.4166
16.6816 3970 63.0079
16.7986 3909 62.522
16.9156 4021 63.4114
17.0326 3925 62.6498
17.1496 3811 61.7333
17.2665 3903 62.474
17.3833 3823 61.8304
17.5002 3885 62.3298
17.617 4028 63.4665
17.7338 3883 62.3137
17.8505 3891 62.3779
17.9672 3871 62.2174
18.0839 3781 61.4898
18.2005 3856 62.0967
18.3171 3702 60.8441
18.4337 3550 59.5819
18.5502 3670 60.5805
18.6666 3846 62.0161
18.7831 3823 61.8304
18.8994 3700 60.8276
19.0158 3568 59.7327
19.1321 3488 59.0593
19.2483 3510 59.2453
19.3645 3347 57.8533
19.4806 3224 56.7803
19.5967 3100 55.6776
19.7128 2811 53.0189
19.8288 2441 49.4065
19.9447 2260 47.5395
20.0606 0 1
20.1764 0 1
20.2922 0 1
20.4079 0 1
20.5236 0 1
20.6392 0 1
20.7548 0 1
20.8702 0 1
23.3078 0 1
23.4233 0 1
23.539 0 1
23.6547 0 1
23.7704 0 1
23.8862 0 1
24.0021 0 1
24.118 0 1
24.234 0 1
24.35 0 1
24.4661 1499 38.7169
24.5822 1827 42.7434
24.6984 2004 44.7661
24.8146 2253 47.4658
24.9309 2533 50.3289
25.0472 2854 53.4228
25.1636 3031 55.0545
25.28 3402 58.3267
25.3965 3649 60.407
25.513 3811 61.7333
25.6296 3897 62.426
25.7462 3905 62.49
25.8628 4053 63.6632
25.9795 4021 63.4114
26.0962 4041 63.5689
26.213 4058 63.7024
26.3298 3931 62.6977
26.4466 3820 61.8061
26.5635 3741 61.1637
26.6804 3536 59.4643
26.7973 3479 58.983
26.9143 3398 58.2924
27.0313 3150 56.1249
27.1483 3136 56
27.2653 3378 58.1206
27.3824 3560 59.6657
27.4996 3645 60.3738
27.6167 3506 59.2115
27.7339 3490 59.0762
27.8511 3451 58.7452
27.9683 3584 59.8665
28.0855 3519 59.3212
28.2028 3652 60.4318
28.3201 3541 59.5063
28.4374 3565 59.7076
28.5547 3412 58.4123
28.6721 3421 58.4893
28.7894 3320 57.6194
28.9068 3444 58.6856
29.0242 3521 59.338
29.1416 3534 59.4475
29.259 3512 59.2621
29.3764 3559 59.6574
29.4939 3520 59.3296
29.6113 3518 59.3127
29.7288 3455 58.7792
29.8463 3542 59.5147
29.9638 3411 58.4038
30.0812 3400 58.3095
30.1987 3432 58.5833
30.3162 3285 57.3149
30.4337 3129 55.9375
30.5512 3047 55.1996
30.6687 3084 55.5338
30.7862 3381 58.1464
30.9037 3436 58.6174
31.0212 3534 59.4475
31.1387 3522 59.3464
31.2562 3460 58.8218
31.3737 3526 59.3801
31.4912 3669 60.5723
31.6087 3569 59.7411
31.7262 3502 59.1777
31.8436 3404 58.3438
31.9611 3202 56.5862
32.0785 3139 56.0268
32.1959 3068 55.3895
32.3134 3062 55.3353
32.4308 3145 56.0803
32.5482 3049 55.2178
32.6655 3038 55.1181
32.7829 3165 56.2583
32.9002 3041 55.1453
33.0176 3134 55.9821
33.1349 3111 55.7763
33.2522 3060 55.3173
33.3694 3240 56.921
33.4867 3116 55.8211
33.6039 3213 56.6833
33.7211 3251 57.0175
33.8383 3165 56.2583
33.9554 3161 56.2228
34.0725 2956 54.3691
34.1896 2825 53.1507
34.3067 2987 54.6535
34.4237 3168 56.285
34.5407 3128 55.9285
34.6577 3250 57.0088
34.7746 3366 58.0172
34.8915 3386 58.1893
35.0084 3264 57.1314
35.1252 3110 55.7674
35.242 3250 57.0088
35.3587 3196 56.5332
35.4755 3093 55.6147
35.5921 3002 54.7905
35.7088 2867 53.5444
35.8254 2769 52.6213
35.9419 2809 53
36.0584 2783 52.7541
36.1749 2895 53.8052
36.2913 2910 53.9444
36.4077 2936 54.1849
36.524 2813 53.0377
36.6403 2582 50.8134
36.7565 2519 50.1896
36.8727 2392 48.9081
36.9889 2199 46.8935
37.1049 2122 46.0652
37.221 0 1
37.3369 0 1
37.4529 0 1
37.5687 0 1
37.6845 0 1
37.8003 0 1
37.916 0 1
38.0316 0 1
38.1472 0 1
40.5851 0 1
40.7008 0 1
40.8164 0 1
40.9322 0 1
41.048 0 1
41.1639 0 1
41.2798 0 1
41.3958 0 1
41.5118 0 1
41.6279 0 1
41.744 1258 35.4683
41.8602 1655 40.6817
41.9765 1938 44.0227
42.0928 2143 46.2925
42.2091 2400 48.9898
42.3255 2413 49.1223
42.4419 2519 50.1896
42.5584 2599 50.9804
42.675 2709 52.0481
42.7915 2546 50.4579
42.9081 2428 49.2747
43.0248 2400 48.9898
43.1415 2359 48.5695
43.2582 2463 49.6286
43.375 2572 50.7149
43.4918 2673 51.7011
43.6087 2583 50.8232
43.7256 2571 50.705
43.8425 2534 50.3389
43.9595 2638 51.3615
44.0765 2748 52.4214
44.1935 2595 50.9411
44.3106 2667 51.643
44.4277 2387 48.8569
44.5448 2277 47.7179
44.6619 2259 47.5289
44.7791 2346 48.4355
44.8963 2376 48.7442
45.0136 2613 51.1175
45.1308 2639 51.3712
45.2481 2601 51
45.3654 2735 52.2972
45.4827 2733 52.2781
45.6001 2738 52.3259
45.7174 2671 51.6817
45.8348 2778 52.7067
45.9522 2721 52.1632
46.0697 2705 52.0096
46.1871 2683 51.7977
46.3046 2591 50.9019
46.422 2367 48.6518
46.5395 2288 47.833
46.657 2103 45.8585
46.7745 2256 47.4974
46.892 2316 48.1248
47.0096 2476 49.7594
47.1271 2498 49.98
47.2446 2678 51.7494
47.3622 2554 50.5371
47.4797 2560 50.5964
47.5973 2496 49.96
47.7149 2484 49.8397
47.8324 2420 49.1935
47.95 2430 49.295
48.0675 2236 47.2864
48.1851 2277 47.7179
48.3027 2262 47.5605
48.4202 2257 47.5079
48.5378 2554 50.5371
48.6554 2585 50.8429
48.7729 2634 51.3225
48.8904 2498 49.98
49.008 2591 50.9019
49.1255 2641 51.3907
49.243 2692 51.8845
49.3605 2682 51.788
49.478 2723 52.1824
49.5955 2506 50.06
49.713 2567 50.6656
49.8304 2433 49.3254
49.9479 2187 46.7654
50.0653 2025 45
50.1827 2084 45.6508
50.3001 2229 47.2123
50.4175 2273 47.676
50.5348 2438 49.3761
50.6521 2537 50.3686
50.7694 2605 51.0392
50.8867 2817 53.0754
51.004 2809 53
51.1212 2841 53.301
51.2384 2985 54.6352
51.3556 3129 55.9375
51.4727 3173 56.3294
51.5899 3235 56.8771
51.707 3426 58.532
51.824 3579 59.8247
51.9411 3653 60.4401
52.0581 3748 61.2209
52.175 3816 61.7738
52.2919 3934 62.7216
52.4088 3786 61.5305
52.5257 3768 61.384
52.6425 3412 58.4123
52.7593 3250 57.0088
52.876 3116 55.8211
52.9927 3084 55.5338
53.1094 3063 55.3444
53.226 3055 55.2721
53.3426 3068 55.3895
53.4591 2900 53.8516
53.5756 2626 51.2445
53.692 2586 50.8527
53.8084 2382 48.8057
53.9248 2244 47.3709
54.0411 2238 47.3075
54.1573 2178 46.669
54.2735 0 1
54.3896 0 1
54.5057 0 1
54.6217 0 1
54.7377 0 1
54.8537 0 1
54.9695 0 1
55.0853 0 1
55.2011 0 1
55.3168 0 1
55.4324 0 1
57.824 0 1
57.9396 0 1
58.0553 0 1
58.1711 0 1
58.2869 0 1
58.4028 0 1
58.5187 0 1
58.6347 0 1
58.7508 0 1
58.8669 0 1
58.983 2806 52.9717
59.0992 3507 59.2199
59.2155 4056 63.6867
59.3318 4426 66.5282
59.4482 4930 70.214
59.5646 5166 71.8749
59.681 5594 74.793
59.7975 5870 76.6159
59.9141 5726 75.6703
60.0306 5804 76.184
60.1473 5719 75.6241
60.2639 5571 74.6391
60.3807 5525 74.3303
60.4974 5681 75.3724
60.6142 5834 76.3806
60.731 6096 78.0769
60.8479 6194 78.702
60.9648 6318 79.4858
61.0818 6306 79.4103
61.1987 6501 80.6288
61.3158 6372 79.8248
61.4328 6608 81.2896
61.5499 6673 81.6884
61.667 6915 83.1565
61.7841 6935 83.2766
61.9013 6889 83
62.0185 6971 83.4925
62.1357 6868 82.8734
62.253 6735 82.067
62.3702 6638 81.4739
62.4875 6489 80.5543
62.6049 6452 80.3243
62.7222 6279 79.2401
62.8396 5894 76.7724
62.9569 5453 73.8444
63.0743 5222 72.2634
63.1918 5055 71.0985
63.3092 4953 70.3776
63.4267 4970 70.4982
63.5441 4842 69.5845
63.6616 4984 70.5975
63.7791 4791 69.217
63.8966 4550 67.4537
64.0142 3954 62.8808
64.1317 3333 57.7321
64.2492 3016 54.9181
64.3668 2680 51.7687
64.4843 2686 51.8266
64.6019 2670 51.672
64.7195 2676 51.7301
64.837 2704 52
64.9546 2711 52.0673
65.0722 2753 52.469
65.1898 2753 52.469
65.3074 2743 52.3737
65.4249 2670 51.672
65.5425 2570 50.6952
65.6601 2457 49.5681
65.7777 2285 47.8017
65.8952 2302 47.9792
66.0128 2440 49.3964
66.1304 2508 50.0799
66.2479 2600 50.9902
66.3655 2579 50.7839
66.483 2713 52.0865
66.6005 2650 51.4782
66.718 2651 51.4879
66.8355 2725 52.2015
66.953 2674 51.7107
67.0705 2643 51.4101
67.1879 2487 49.8698
67.3054 2376 48.7442
67.4228 2294 47.8957
67.5402 2382 48.8057
67.6576 2480 49.7996
67.7749 2502 50.02
67.8923 2580 50.7937
68.0096 2559 50.5866
68.1269 2605 51.0392
68.2442 2512 50.1199
68.3614 2495 49.95
68.4787 2507 50.07
68.5958 2587 50.8626
68.713 2546 50.4579
68.8302 2647 51.449
68.9473 2552 50.5173
69.0643 2567 50.6656
69.1814 2394 48.9285
69.2984 2348 48.4562
69.4154 2225 47.1699
69.5323 2300 47.9583
69.6492 2328 48.2494
69.7661 2298 47.9375
69.8829 2522 50.2195
69.9997 2450 49.4975
70.1165 2407 49.0612
70.2332 2439 49.3862
70.3499 2375 48.734
70.4665 2255 47.4868
70.5831 2180 46.6905
70.6996 2042 45.1885
70.8161 1787 42.2729
70.9326 1577 39.7115
71.049 1440 37.9473
71.1653 1392 37.3095
71.2817 1256 35.4401
71.3979 1315 36.2629
71.5141 1130 33.6155
71.6303 1133 33.6601
71.7464 962 31.0161
71.8624 0 1
71.9784 0 1
72.0944 0 1
72.2102 0 1
72.3261 0 1
72.4418 0 1
72.5575 0 1
72.6732 0 1
75.1054 0 1
75.2209 0 1
75.3365 0 1
75.4521 0 1
75.5678 0 1
75.6835 0 1
75.7993 0 1
75.9151 0 1
76.031 0 1
76.147 1502 38.7556
76.263 1583 39.7869
76.3791 1762 41.9762
76.4952 1821 42.6732
76.6113 1872 43.2666
76.7276 1952 44.1814
76.8438 2121 46.0543
76.9601 2117 46.0109
77.0765 2051 45.288
77.1929 2101 45.8367
77.3093 2004 44.7661
77.4258 2169 46.5725
77.5423 2128 46.1303
77.6589 2122 46.0652
77.7755 2162 46.4973
77.8921 2251 47.4447
78.0088 2194 46.8402
78.1256 2044 45.2106
78.2423 2030 45.0555
78.3591 1875 43.3013
78.4759 1764 42
78.5928 1825 42.72
78.7097 1893 43.5086
78.8266 1875 43.3013
78.9436 2195 46.8508
79.0606 2141 46.2709
79.1776 2142 46.2817
79.2946 2242 47.3498
79.4117 2166 46.5403
79.5288 2169 46.5725
79.6459 2222 47.1381
79.7631 2020 44.9444
79.8802 2072 45.5192
79.9974 1981 44.5084
80.1147 2060 45.3872
80.2319 2152 46.3897
80.3491 2138 46.2385
80.4664 2186 46.7547
80.5837 2188 46.7761
80.701 2133 46.1844
80.8183 2178 46.669
80.9357 2121 46.0543
81.053 2163 46.5081
81.1704 2111 45.9456
81.2877 2193 46.8295
81.4051 2226 47.1805
81.5225 2250 47.4342
81.6399 2155 46.422
81.7573 2181 46.7012
81.8747 1959 44.2606
81.9922 1915 43.7607
82.1096 1952 44.1814
82.227 1950 44.1588
82.3444 1953 44.1928
82.4619 2094 45.7602
82.5793 2166 46.5403
82.6967 2273 47.676
82.8142 2239 47.3181
82.9316 2184 46.7333
83.049 2222 47.1381
83.1664 2231 47.2335
83.2838 2191 46.8081
83.4012 2240 47.3286
83.5186 1992 44.6318
83.636 2017 44.911
83.7534 2134 46.1952
83.8708 2185 46.744
83.9881 2252 47.4552
84.1055 2186 46.7547
84.2228 2249 47.4236
84.3401 2175 46.6369
84.4575 2305 48.0104
84.5747 2229 47.2123
84.692 2231 47.2335
84.8093 2221 47.1275
84.9265 2272 47.6655
85.0437 2298 47.9375
85.1609 2282 47.7703
85.2781 2191 46.8081
85.3952 2112 45.9565
85.5123 2117 46.0109
85.6294 2007 44.7996
85.7465 2034 45.0999
85.8636 1983 44.5309
85.9806 2122 46.0652
86.0976 2060 45.3872
86.2145 2226 47.1805
86.3315 2350 48.4768
86.4484 2218 47.0956
86.5652 2275 47.697
86.682 2383 48.816
86.7988 2329 48.2597
86.9156 2176 46.6476
87.0323 2268 47.6235
87.149 2205 46.9574
87.2657 2182 46.7119
87.3823 2110 45.9347
87.4988 2176 46.6476
87.6154 2152 46.3897
87.7318 2172 46.6047
87.8483 2013 44.8665
87.9647 1852 43.0349
88.081 1790 42.3084
88.1973 1628 40.3485
88.3136 1560 39.4968
88.4298 1479 38.4578
88.546 1397 37.3765
88.6621 1287 35.8748
88.7781 1214 34.8425
88.8942 0 1
89.0101 0 1
89.126 0 1
89.2419 0 1
89.3577 0 1
89.4734 0 1
89.5891 0 1
89.7047 0 1
89.8203 0 1
89.9358 0 1
92.3269 0 1
92.4424 0 1
92.558 0 1
92.6736 0 1
92.7893 0 1
92.905 0 1
93.0208 0 1
93.1366 0 1
93.2525 0 1
93.3685 0 1
93.4845 0 1
93.6005 1698 41.2068
93.7167 1893 43.5086
93.8328 2062 45.4093
93.949 2153 46.4004
94.0653 2238 47.3075
94.1816 2299 47.9479
94.2979 2202 46.9255
94.4143 2189 46.7868
94.5307 2216 47.0744
94.6472 2148 46.3465
94.7637 2123 46.076
94.8803 2124 46.0869
94.9969 2099 45.8148
95.1135 2175 46.6369
95.2302 2249 47.4236
95.3469 2229 47.2123
95.4637 2361 48.5901
95.5805 2380 48.7852
95.6973 2362 48.6004
95.8142 2322 48.1871
95.9311 2256 47.4974
96.048 2134 46.1952
96.1649 2121 46.0543
96.2819 2261 47.55
96.3989 2232 47.244
96.516 2233 47.2546
96.633 2339 48.3632
96.7501 2320 48.1664
96.8673 2385 48.8365
96.9844 2397 48.9592
97.1016 2357 48.5489
97.2188 2230 47.2229
97.336 2304 48
97.4532 2221 47.1275
97.5704 2260 47.5395
97.6877 2307 48.0312
97.805 2379 48.775
97.9223 2281 47.7598
98.0396 2263 47.571
98.1569 2229 47.2123
98.2743 2237 47.2969
98.3916 2133 46.1844
98.509 2196 46.8615
98.6264 2204 46.9468
98.7438 2283 47.7807
98.8612 2394 48.9285
98.9786 2389 48.8774
99.096 2570 50.6952
99.2134 2447 49.4672
99.3308 2436 49.3559
99.4482 2410 49.0918
99.5656 2446 49.4571
99.6831 2318 48.1456
99.8005 2454 49.5379
99.9179 2367 48.6518
100.035 2351 48.4871
100.153 2475 49.7494
100.27 2545 50.448
100.388 2501 50.01
100.505 2491 49.9099
100.622 2391 48.8979
100.74 2402 49.0102
100.857 2291 47.8644
100.975 2346 48.4355
101.092 2377 48.7545
101.209 2436 49.3559
101.327 2383 48.816
101.444 2477 49.7695
101.561 2515 50.1498
101.679 2332 48.2908
101.796 2357 48.5489
101.913 2474 49.7393
102.03 2224 47.1593
102.148 2332 48.2908
102.265 2396 48.949
102.382 2424 49.2341
102.499 2525 50.2494
102.616 2535 50.3488
102.733 2652 51.4976
102.851 2538 50.3786
102.968 2576 50.7543
103.085 2527 50.2693
103.202 2471 49.7092
103.319 2481 49.8096
103.436 2472 49.7192
103.552 2472 49.7192
103.669 2577 50.7642
103.786 2666 51.6333
103.903 2739 52.3355
104.02 2660 51.5752
104.137 2501 50.01
104.253 2467 49.6689
104.37 2447 49.4672
104.487 2478 49.7795
104.603 2380 48.7852
104.72 2352 48.4974
104.836 2394 48.9285
104.953 2361 48.5901
105.069 2340 48.3735
105.186 2220 47.1169
105.302 2152 46.3897
105.418 1912 43.7264
105.535 1813 42.5793
105.651 1677 40.9512
105.767 1504 38.7814
105.883 1385 37.2156
105.999 1326 36.4143
106.115 0 1
106.231 0 1
106.347 0 1
106.463 0 1
106.579 0 1
106.694 0 1
106.81 0 1
106.926 0 1
107.041 0 1
107.157 0 1
109.576 0 1
109.692 0 1
109.807 0 1
109.923 0 1
110.039 0 1
110.155 0 1
110.27 0 1
110.386 0 1
110.502 0 1
110.618 1175 34.2783
110.735 1397 37.3765
110.851 1610 40.1248
110.967 1788 42.2847
111.083 1984 44.5421
111.199 2072 45.5192
111.316 2255 47.4868
111.432 2516 50.1597
111.549 2444 49.4368
111.665 2424 49.2341
111.782 2374 48.7237
111.898 2157 46.4435
112.015 2257 47.5079
112.132 2380 48.7852
112.248 2356 48.5386
112.365 2395 48.9387
112.482 2481 49.8096
112.599 2445 49.4469
112.716 2401 49
112.832 2437 49.366
112.949 2369 48.6724
113.066 2258 47.5184
113.183 2221 47.1275
113.3 2273 47.676
113.417 2235 47.2758
113.534 2351 48.4871
113.652 2274 47.6865
113.769 2363 48.6107
113.886 2265 47.592
114.003 2133 46.1844
114.12 2200 46.9042
114.238 2056 45.3431
114.355 2123 46.076
114.472 2197 46.8722
114.589 2228 47.2017
114.707 2241 47.3392
114.824 2284 47.7912
114.942 2317 48.1352
115.059 2421 49.2037
115.176 2292 47.8748
115.294 2256 47.4974
115.411 2129 46.1411
115.529 2183 46.7226
115.646 2173 46.6154
115.764 2180 46.6905
115.881 2264 47.5815
115.999 2330 48.2701
116.116 2216 47.0744
116.234 2189 46.7868
116.351 2260 47.5395
116.469 2212 47.0319
116.586 2157 46.4435
116.704 2193 46.8295
116.821 2133 46.1844
116.939 2119 46.0326
117.056 2125 46.0977
117.174 2087 45.6837
117.291 2149 46.3573
117.409 2099 45.8148
117.526 2134 46.1952
117.644 1989 44.5982
117.761 2014 44.8776
117.879 2003 44.7549
117.996 1963 44.3058
118.114 2053 45.31
118.231 2115 45.9891
118.349 2120 46.0435
118.466 2237 47.2969
118.584 2184 46.7333
118.701 2263 47.571
118.819 2193 46.8295
118.936 2183 46.7226
119.053 2029 45.0444
119.171 1976 44.4522
119.288 2000 44.7214
119.405 2130 46.1519
119.523 2241 47.3392
119.64 2195 46.8508
119.757 2186 46.7547
119.875 2156 46.4327
119.992 2126 46.1086
120.109 2062 45.4093
120.226 2084 45.6508
120.343 2103 45.8585
120.46 2066 45.4533
120.578 2027 45.0222
120.695 2106 45.8912
120.812 2086 45.6727
120.929 2062 45.4093
121.046 2033 45.0888
121.163 2067 45.4643
121.279 1926 43.8862
121.396 1854 43.0581
121.513 1847 42.9767
121.63 1764 42
121.747 1742 41.7373
121.863 1827 42.7434
121.98 1851 43.0232
122.097 1775 42.1307
122.213 1761 41.9643
122.33 1695 41.1704
122.446 1693 41.1461
122.563 1440 37.9473
122.679 1384 37.2022
122.795 1265 35.5668
122.912 1187 34.4529
123.028 1177 34.3074
123.144 1187 34.4529
123.26 1099 33.1512
123.377 0 1
123.493 0 1
123.609 0 1
123.725 0 1
123.84 0 1
123.956 0 1
124.072 0 1
124.188 0 1
124.303 0 1
124.419 0 1
126.852 0 1
126.968 0 1
127.083 0 1
127.199 0 1
127.315 0 1
127.431 0 1
127.547 0 1
127.663 0 1
127.779 0 1
127.895 0 1
128.011 0 1
128.127 0 1
128.243 0 1
128.359 2142 46.2817
128.476 2186 46.7547
128.592 2279 47.7389
128.708 2359 48.5695
128.825 2487 49.8698
128.941 2452 49.5177
129.058 2458 49.5782
129.174 2418 49.1732
129.291 2414 49.1325
129.408 2422 49.2138
129.524 2489 49.8899
129.641 2431 49.3052
129.758 2350 48.4768
129.875 2472 49.7192
129.992 2454 49.5379
130.108 2438 49.3761
130.225 2495 49.95
130.342 2374 48.7237
130.459 2340 48.3735
130.576 2359 48.5695
130.693 2424 49.2341
130.81 2549 50.4876
130.928 2414 49.1325
131.045 2666 51.6333
131.162 2968 54.4794
131.279 3061 55.3263
131.396 3197 56.542
131.513 3176 56.356
131.631 3134 55.9821
131.748 3206 56.6216
131.865 3277 57.2451
131.983 3402 58.3267
132.1 3469 58.8982
132.217 3758 61.3025
132.335 3843 61.9919
132.452 3956 62.8967
132.57 4135 64.304
132.687 4118 64.1716
132.804 4323 65.7495
132.922 4406 66.3777
133.039 4396 66.3023
133.157 4435 66.5958
133.274 4544 67.4092
133.392 4440 66.6333
133.509 4336 65.8483
133.627 4409 66.4003
133.744 4284 65.4523
133.862 4356 66
133.979 4073 63.8201
134.097 4110 64.1093
134.214 3991 63.1744
134.332 3850 62.0484
134.449 4041 63.5689
134.567 4070 63.7966
134.684 4203 64.8305
134.802 4399 66.325
134.919 4618 67.9559
135.037 4538 67.3647
135.154 4424 66.5132
135.272 4391 66.2646
135.389 4406 66.3777
135.507 4296 65.5439
135.624 4329 65.7951
135.742 4389 66.2495
135.859 4569 67.5944
135.977 4631 68.0515
136.094 4682 68.4251
136.211 4603 67.8454
136.329 4655 68.2276
136.446 4508 67.1416
136.564 4543 67.4018
136.681 4598 67.8086
136.798 4665 68.3008
136.915 4676 68.3813
137.033 4672 68.352
137.15 4509 67.1491
137.267 4585 67.7126
137.384 4459 66.7757
137.502 4533 67.3276
137.619 4284 65.4523
137.736 4110 64.1093
137.853 3880 62.2896
137.97 4045 63.6003
138.087 4111 64.1171
138.204 4265 65.307
138.321 4397 66.3099
138.438 4455 66.7458
138.555 4735 68.8113
138.672 4776 69.1086
138.788 4820 69.4262
138.905 4490 67.0075
139.022 4476 66.9029
139.139 4217 64.9384
139.255 3921 62.6179
139.372 3901 62.458
139.488 3766 61.3677
139.605 3645 60.3738
139.721 3545 59.5399
139.838 3357 57.9396
139.954 3239 56.9122
140.071 3030 55.0454
140.187 2948 54.2955
140.303 2809 53
140.419 2676 51.7301
140.535 2628 51.264
140.652 2478 49.7795
140.768 0 1
140.884 0 1
141 0 1
141.115 0 1
141.231 0 1
141.347 0 1
141.463 0 1
141.578 0 1
141.694 0 1
144.104 0 1
144.219 0 1
144.335 0 1
144.45 0 1
144.566 0 1
144.682 0 1
144.798 0 1
144.914 0 1
145.03 0 1
145.146 7100 84.2615
145.262 7836 88.5212
145.378 8213 90.6256
145.494 8724 93.4024
145.61 9184 95.8332
145.726 10108 100.539
145.842 10704 103.46
145.959 11106 105.385
146.075 11474 107.117
146.192 11939 109.266
146.308 12321 111
146.425 12509 111.844
146.541 12680 112.606
146.658 12054 109.791
146.774 11069 105.209
146.891 9495 97.4423
147.008 9379 96.8452
147.125 11194 105.802
147.241 13256 115.135
147.358 14139 118.908
147.475 14196 119.147
147.592 14591 120.793
147.709 14570 120.706
147.826 14841 121.824
147.943 14489 120.37
148.06 13855 117.707
148.177 13680 116.962
148.294 14196 119.147
148.411 14450 120.208
148.528 14418 120.075
148.645 14416 120.067
148.762 14534 120.557
148.88 14411 120.046
148.997 15360 123.935
149.114 15149 123.081
149.231 15696 125.284
149.349 16037 126.637
149.466 16192 127.248
149.583 16606 128.864
149.701 16765 129.48
149.818 17340 131.681
149.935 17523 132.374
150.053 17629 132.774
150.17 17895 133.772
150.287 16625 128.938
150.405 13195 114.869
150.522 10789 103.87
150.64 12641 112.432
150.757 16381 127.988
150.875 18852 137.303
150.992 18996 137.826
151.11 19400 139.284
151.227 19768 140.599
151.344 19996 141.407
151.462 19737 140.488
151.579 19466 139.521
151.697 19134 138.326
151.814 19372 139.183
151.932 19019 137.909
152.049 19426 139.377
152.167 19405 139.302
152.284 19159 138.416
152.402 18790 137.077
152.519 19006 137.862
152.636 18442 135.801
152.754 18289 135.237
152.871 17855 133.623
152.989 17296 131.514
153.106 17021 130.465
153.223 16247 127.464
153.341 15946 126.277
153.458 15314 123.75
153.575 14456 120.233
153.693 13555 116.426
153.81 12736 112.854
153.927 11339 106.485
154.044 8973 94.7259
154.162 8131 90.1721
154.279 8911 94.3981
154.396 9465 97.2882
154.513 9820 99.0959
154.63 9677 98.3717
154.747 9630 98.1326
154.864 9585 97.903
154.981 9056 95.163
155.098 8973 94.7259
155.215 8551 92.4716
155.332 8288 91.0385
155.449 8173 90.4046
155.566 8384 91.5642
155.683 8391 91.6024
155.8 8559 92.5149
155.917 8658 93.0484
156.033 8358 91.4221
156.15 0 1
156.267 0 1
156.383 0 1
156.5 0 1
156.617 0 1
156.733 0 1
156.85 0 1
156.966 0 1
157.082 0 1
157.199 0 1
157.315 0 1
157.431 0 1
157.547 0 1
157.664 0 1
157.78 0 1
157.896 0 1
158.012 0 1
158.128 0 1
158.244 0 1
158.359 0 1
158.475 0 1
158.591 0 1
158.706 0 1
