
6.15755 0 1
6.2731 0 1
6.3887 0 1
6.50437 0 1
6.62009 0 1
6.73587 0 1
6.8517 0 1
6.96759 0 1
7.08353 0 1
7.19952 0 1
7.31557 0 1
7.43166 0 1
7.54781 0 1
7.664 0 1
7.78024 0 1
7.89653 0 1
8.01286 0 1
8.12924 0 1
8.24567 0 1
8.36213 0 1
8.47864 0 1
8.59519 0 1
8.71178 0 1
8.82841 0 1
8.94508 0 1
9.06179 0 1
9.17853 0 1
9.29531 0 1
9.41212 0 1
9.52897 0 1
9.64584 0 1
9.76276 0 1
9.8797 0 1
9.99667 0 1
10.1137 0 1
10.2307 0 1
10.3478 0 1
10.4648 0 1
10.5819 0 1
10.6991 0 1
10.8162 0 1
10.9334 0 1
11.0506 0 1
11.1678 0 1
11.285 0 1
11.4023 0 1
11.5196 0 1
11.6369 0 1
11.7542 0 1
11.8715 0 1
11.9888 0 1
12.1062 0 1
12.2235 0 1
12.3409 0 1
12.4582 0 1
12.5756 0 1
12.693 0 1
12.8104 0 1
12.9278 0 1
13.0452 0 1
13.1626 0 1
13.28 0 1
13.3974 0 1
13.5149 0 1
13.6323 0 1
13.7497 0 1
13.8671 0 1
13.9845 0 1
14.1019 0 1
14.2193 0 1
14.3367 0 1
14.4541 0 1
14.5714 0 1
14.6888 0 1
14.8062 0 1
14.9235 0 1
15.0408 1081 32.8786
15.1581 1092 33.0454
15.2755 1139 33.7491
15.3927 1134 33.6749
15.51 1109 33.3017
15.6273 1058 32.5269
15.7445 1017 31.8904
15.8617 1016 31.8748
15.9789 1074 32.7719
16.0961 1023 31.9844
16.2132 974 31.209
16.3304 940 30.6594
16.4475 947 30.7734
16.5646 914 30.2324
16.6816 888 29.7993
16.7986 928 30.4631
16.9156 955 30.9031
17.0326 814 28.5307
17.1496 789 28.0891
17.2665 833 28.8617
17.3833 873 29.5466
17.5002 849 29.1376
17.617 850 29.1548
17.7338 848 29.1204
17.8505 849 29.1376
17.9672 855 29.2404
18.0839 860 29.3258
18.2005 875 29.5804
18.3171 893 29.8831
18.4337 805 28.3725
18.5502 833 28.8617
18.6666 897 29.95
18.7831 860 29.3258
18.8994 851 29.1719
19.0158 774 27.8209
19.1321 765 27.6586
19.2483 753 27.4408
19.3645 706 26.5707
19.4806 716 26.7582
19.5967 698 26.4197
19.7128 726 26.9444
19.8288 621 24.9199
19.9447 564 23.7487
20.0606 0 1
20.1764 0 1
20.2922 0 1
20.4079 0 1
20.5236 0 1
20.6392 0 1
20.7548 0 1
20.8702 0 1
23.3078 0 1
23.4233 0 1
23.539 0 1
23.6547 0 1
23.7704 0 1
23.8862 0 1
24.0021 0 1
24.118 0 1
24.234 0 1
24.35 0 1
24.4661 361 19
24.5822 403 20.0749
24.6984 448 21.166
24.8146 579 24.0624
24.9309 669 25.865
25.0472 764 27.6405
25.1636 788 28.0713
25.28 887 29.7825
25.3965 897 29.95
25.513 921 30.348
25.6296 971 31.1609
25.7462 967 31.0966
25.8628 991 31.4802
25.9795 918 30.2985
26.0962 904 30.0666
26.213 892 29.8664
26.3298 861 29.3428
26.4466 837 28.931
26.5635 803 28.3373
26.6804 770 27.7489
26.7973 757 27.5136
26.9143 739 27.1846
27.0313 751 27.4044
27.1483 770 27.7489
27.2653 799 28.2666
27.3824 770 27.7489
27.4996 820 28.6356
27.6167 847 29.1033
27.7339 900 30
27.8511 801 28.3019
27.9683 787 28.0535
28.0855 772 27.7849
28.2028 886 29.7658
28.3201 808 28.4253
28.4374 913 30.2159
28.5547 823 28.688
28.6721 880 29.6648
28.7894 915 30.249
28.9068 853 29.2062
29.0242 873 29.5466
29.1416 848 29.1204
29.259 865 29.4109
29.3764 799 28.2666
29.4939 830 28.8097
29.6113 799 28.2666
29.7288 770 27.7489
29.8463 778 27.8927
29.9638 765 27.6586
30.0812 719 26.8142
30.1987 736 27.1293
30.3162 746 27.313
30.4337 750 27.3861
30.5512 736 27.1293
30.6687 744 27.2764
30.7862 786 28.0357
30.9037 772 27.7849
31.0212 818 28.6007
31.1387 860 29.3258
31.2562 840 28.9828
31.3737 849 29.1376
31.4912 796 28.2135
31.6087 762 27.6043
31.7262 763 27.6225
31.8436 826 28.7402
31.9611 833 28.8617
32.0785 792 28.1425
32.1959 798 28.2489
32.3134 790 28.1069
32.4308 785 28.0179
32.5482 758 27.5318
32.6655 778 27.8927
32.7829 756 27.4955
32.9002 703 26.5141
33.0176 724 26.9072
33.1349 779 27.9106
33.2522 724 26.9072
33.3694 720 26.8328
33.4867 721 26.8514
33.6039 710 26.6458
33.7211 695 26.3629
33.8383 666 25.807
33.9554 680 26.0768
34.0725 691 26.2869
34.1896 735 27.1109
34.3067 718 26.7955
34.4237 742 27.2397
34.5407 720 26.8328
34.6577 729 27
34.7746 734 27.0924
34.8915 768 27.7128
35.0084 749 27.3679
35.1252 691 26.2869
35.242 686 26.1916
35.3587 678 26.0384
35.4755 728 26.9815
35.5921 696 26.3818
35.7088 752 27.4226
35.8254 727 26.9629
35.9419 724 26.9072
36.0584 702 26.4953
36.1749 709 26.6271
36.2913 688 26.2298
36.4077 644 25.3772
36.524 635 25.1992
36.6403 549 23.4307
36.7565 548 23.4094
36.8727 506 22.4944
36.9889 476 21.8174
37.1049 449 21.1896
37.221 0 1
37.3369 0 1
37.4529 0 1
37.5687 0 1
37.6845 0 1
37.8003 0 1
37.916 0 1
38.0316 0 1
38.1472 0 1
40.5851 0 1
40.7008 0 1
40.8164 0 1
40.9322 0 1
41.048 0 1
41.1639 0 1
41.2798 0 1
41.3958 0 1
41.5118 0 1
41.6279 0 1
41.744 334 18.2757
41.8602 373 19.3132
41.9765 454 21.3073
42.0928 499 22.3383
42.2091 507 22.5167
42.3255 519 22.7816
42.4419 562 23.7065
42.5584 557 23.6008
42.675 541 23.2594
42.7915 501 22.383
42.9081 516 22.7156
43.0248 493 22.2036
43.1415 499 22.3383
43.2582 531 23.0434
43.375 570 23.8747
43.4918 611 24.7184
43.6087 583 24.1454
43.7256 542 23.2809
43.8425 568 23.8328
43.9595 574 23.9583
44.0765 552 23.4947
44.1935 544 23.3238
44.3106 548 23.4094
44.4277 536 23.1517
44.5448 555 23.5584
44.6619 546 23.3666
44.7791 554 23.5372
44.8963 569 23.8537
45.0136 581 24.1039
45.1308 550 23.4521
45.2481 582 24.1247
45.3654 641 25.318
45.4827 579 24.0624
45.6001 552 23.4947
45.7174 624 24.98
45.8348 616 24.8193
45.9522 574 23.9583
46.0697 538 23.1948
46.1871 561 23.6854
46.3046 509 22.561
46.422 490 22.1359
46.5395 489 22.1133
46.657 466 21.587
46.7745 514 22.6716
46.892 509 22.561
47.0096 535 23.1301
47.1271 562 23.7065
47.2446 572 23.9165
47.3622 546 23.3666
47.4797 554 23.5372
47.5973 520 22.8035
47.7149 532 23.0651
47.8324 535 23.1301
47.95 552 23.4947
48.0675 554 23.5372
48.1851 581 24.1039
48.3027 619 24.8797
48.4202 575 23.9792
48.5378 589 24.2693
48.6554 580 24.0832
48.7729 579 24.0624
48.8904 622 24.9399
49.008 609 24.6779
49.1255 626 25.02
49.243 625 25
49.3605 609 24.6779
49.478 580 24.0832
49.5955 587 24.2281
49.713 608 24.6577
49.8304 534 23.1084
49.9479 484 22
50.0653 494 22.2261
50.1827 499 22.3383
50.3001 504 22.4499
50.4175 553 23.516
50.5348 551 23.4734
50.6521 563 23.7276
50.7694 586 24.2074
50.8867 543 23.3024
51.004 574 23.9583
51.1212 516 22.7156
51.2384 560 23.6643
51.3556 541 23.2594
51.4727 550 23.4521
51.5899 509 22.561
51.707 572 23.9165
51.824 549 23.4307
51.9411 581 24.1039
52.0581 580 24.0832
52.175 554 23.5372
52.2919 513 22.6495
52.4088 576 24
52.5257 497 22.2935
52.6425 561 23.6854
52.7593 576 24
52.876 567 23.8118
52.9927 579 24.0624
53.1094 558 23.622
53.226 541 23.2594
53.3426 555 23.5584
53.4591 495 22.2486
53.5756 454 21.3073
53.692 438 20.9284
53.8084 441 21
53.9248 511 22.6053
54.0411 673 25.9422
54.1573 826 28.7402
54.2735 0 1
54.3896 0 1
54.5057 0 1
54.6217 0 1
54.7377 0 1
54.8537 0 1
54.9695 0 1
55.0853 0 1
55.2011 0 1
55.3168 0 1
55.4324 0 1
57.824 0 1
57.9396 0 1
58.0553 0 1
58.1711 0 1
58.2869 0 1
58.4028 0 1
58.5187 0 1
58.6347 0 1
58.7508 0 1
58.8669 0 1
58.983 95766 309.461
59.0992 120647 347.343
59.2155 139414 373.382
59.3318 152894 391.017
59.4482 163036 403.777
59.5646 169939 412.237
59.681 176172 419.728
59.7975 179046 423.138
59.9141 179213 423.336
60.0306 176352 419.943
60.1473 170720 413.183
60.2639 165815 407.204
60.3807 157458 396.81
60.4974 150659 388.148
60.6142 142329 377.265
60.731 133979 366.031
60.8479 125529 354.301
60.9648 118250 343.875
61.0818 110740 332.776
61.1987 101764 319.005
61.3158 92546 304.214
61.4328 81145 284.86
61.5499 68662 262.034
61.667 55894 236.419
61.7841 43776 209.227
61.9013 34833 186.636
62.0185 29342 171.295
62.1357 27009 164.344
62.253 26418 162.536
62.3702 25862 160.817
62.4875 24197 155.554
62.6049 21997 148.314
62.7222 19195 138.546
62.8396 16256 127.499
62.9569 13814 117.533
63.0743 11542 107.434
63.1918 9845 99.222
63.3092 7957 89.202
63.4267 6435 80.2185
63.5441 4933 70.2353
63.6616 3665 60.5392
63.7791 2605 51.0392
63.8966 2004 44.7661
64.0142 1512 38.8844
64.1317 1208 34.7563
64.2492 1025 32.0156
64.3668 900 30
64.4843 796 28.2135
64.6019 682 26.1151
64.7195 731 27.037
64.837 638 25.2587
64.9546 661 25.7099
65.0722 654 25.5734
65.1898 646 25.4165
65.3074 593 24.3516
65.4249 674 25.9615
65.5425 587 24.2281
65.6601 592 24.3311
65.7777 546 23.3666
65.8952 586 24.2074
66.0128 552 23.4947
66.1304 567 23.8118
66.2479 607 24.6374
66.3655 590 24.2899
66.483 622 24.9399
66.6005 653 25.5539
66.718 638 25.2587
66.8355 649 25.4755
66.953 672 25.923
67.0705 743 27.258
67.1879 752 27.4226
67.3054 748 27.3496
67.4228 750 27.3861
67.5402 747 27.3313
67.6576 724 26.9072
67.7749 758 27.5318
67.8923 677 26.0192
68.0096 693 26.3249
68.1269 759 27.55
68.2442 691 26.2869
68.3614 632 25.1396
68.4787 604 24.5764
68.5958 667 25.8263
68.713 614 24.779
68.8302 572 23.9165
68.9473 585 24.1868
69.0643 536 23.1517
69.1814 540 23.2379
69.2984 507 22.5167
69.4154 488 22.0907
69.5323 488 22.0907
69.6492 498 22.3159
69.7661 538 23.1948
69.8829 514 22.6716
69.9997 521 22.8254
70.1165 541 23.2594
70.2332 514 22.6716
70.3499 465 21.5639
70.4665 562 23.7065
70.5831 514 22.6716
70.6996 488 22.0907
70.8161 478 21.8632
70.9326 419 20.4695
71.049 388 19.6977
71.1653 359 18.9473
71.2817 344 18.5472
71.3979 310 17.6068
71.5141 303 17.4069
71.6303 328 18.1108
71.7464 283 16.8226
71.8624 0 1
71.9784 0 1
72.0944 0 1
72.2102 0 1
72.3261 0 1
72.4418 0 1
72.5575 0 1
72.6732 0 1
75.1054 0 1
75.2209 0 1
75.3365 0 1
75.4521 0 1
75.5678 0 1
75.6835 0 1
75.7993 0 1
75.9151 0 1
76.031 0 1
76.147 425 20.6155
76.263 450 21.2132
76.3791 493 22.2036
76.4952 487 22.0681
76.6113 482 21.9545
76.7276 533 23.0868
76.8438 530 23.0217
76.9601 554 23.5372
77.0765 488 22.0907
77.1929 506 22.4944
77.3093 533 23.0868
77.4258 556 23.5797
77.5423 487 22.0681
77.6589 485 22.0227
77.7755 482 21.9545
77.8921 510 22.5832
78.0088 474 21.7715
78.1256 461 21.4709
78.2423 458 21.4009
78.3591 454 21.3073
78.4759 501 22.383
78.5928 473 21.7486
78.7097 496 22.2711
78.8266 464 21.5407
78.9436 534 23.1084
79.0606 521 22.8254
79.1776 536 23.1517
79.2946 541 23.2594
79.4117 530 23.0217
79.5288 569 23.8537
79.6459 528 22.9783
79.7631 536 23.1517
79.8802 569 23.8537
79.9974 527 22.9565
80.1147 560 23.6643
80.2319 501 22.383
80.3491 594 24.3721
80.4664 548 23.4094
80.5837 564 23.7487
80.701 539 23.2164
80.8183 545 23.3452
80.9357 563 23.7276
81.053 528 22.9783
81.1704 528 22.9783
81.2877 534 23.1084
81.4051 508 22.5389
81.5225 504 22.4499
81.6399 499 22.3383
81.7573 513 22.6495
81.8747 486 22.0454
81.9922 520 22.8035
82.1096 516 22.7156
82.227 465 21.5639
82.3444 512 22.6274
82.4619 505 22.4722
82.5793 461 21.4709
82.6967 501 22.383
82.8142 507 22.5167
82.9316 551 23.4734
83.049 578 24.0416
83.1664 522 22.8473
83.2838 580 24.0832
83.4012 594 24.3721
83.5186 631 25.1197
83.636 553 23.516
83.7534 530 23.0217
83.8708 533 23.0868
83.9881 570 23.8747
84.1055 555 23.5584
84.2228 580 24.0832
84.3401 554 23.5372
84.4575 514 22.6716
84.5747 503 22.4277
84.692 542 23.2809
84.8093 515 22.6936
84.9265 495 22.2486
85.0437 498 22.3159
85.1609 500 22.3607
85.2781 473 21.7486
85.3952 496 22.2711
85.5123 503 22.4277
85.6294 568 23.8328
85.7465 573 23.9374
85.8636 510 22.5832
85.9806 538 23.1948
86.0976 492 22.1811
86.2145 529 23
86.3315 553 23.516
86.4484 565 23.7697
86.5652 572 23.9165
86.682 622 24.9399
86.7988 543 23.3024
86.9156 610 24.6982
87.0323 586 24.2074
87.149 545 23.3452
87.2657 554 23.5372
87.3823 535 23.1301
87.4988 516 22.7156
87.6154 495 22.2486
87.7318 500 22.3607
87.8483 474 21.7715
87.9647 443 21.0476
88.081 416 20.3961
88.1973 375 19.3649
88.3136 345 18.5742
88.4298 336 18.3303
88.546 286 16.9115
88.6621 285 16.8819
88.7781 266 16.3095
88.8942 0 1
89.0101 0 1
89.126 0 1
89.2419 0 1
89.3577 0 1
89.4734 0 1
89.5891 0 1
89.7047 0 1
89.8203 0 1
89.9358 0 1
92.3269 0 1
92.4424 0 1
92.558 0 1
92.6736 0 1
92.7893 0 1
92.905 0 1
93.0208 0 1
93.1366 0 1
93.2525 0 1
93.3685 0 1
93.4845 0 1
93.6005 415 20.3715
93.7167 481 21.9317
93.8328 527 22.9565
93.949 473 21.7486
94.0653 490 22.1359
94.1816 495 22.2486
94.2979 487 22.0681
94.4143 522 22.8473
94.5307 456 21.3542
94.6472 483 21.9773
94.7637 516 22.7156
94.8803 519 22.7816
94.9969 520 22.8035
95.1135 563 23.7276
95.2302 497 22.2935
95.3469 515 22.6936
95.4637 577 24.0208
95.5805 557 23.6008
95.6973 611 24.7184
95.8142 562 23.7065
95.9311 526 22.9347
96.048 565 23.7697
96.1649 626 25.02
96.2819 588 24.2487
96.3989 580 24.0832
96.516 572 23.9165
96.633 575 23.9792
96.7501 582 24.1247
96.8673 554 23.5372
96.9844 554 23.5372
97.1016 558 23.622
97.2188 573 23.9374
97.336 522 22.8473
97.4532 546 23.3666
97.5704 505 22.4722
97.6877 522 22.8473
97.805 474 21.7715
97.9223 515 22.6936
98.0396 511 22.6053
98.1569 525 22.9129
98.2743 523 22.8692
98.3916 572 23.9165
98.509 598 24.454
98.6264 590 24.2899
98.7438 577 24.0208
98.8612 550 23.4521
98.9786 559 23.6432
99.096 621 24.9199
99.2134 607 24.6374
99.3308 618 24.8596
99.4482 593 24.3516
99.5656 572 23.9165
99.6831 589 24.2693
99.8005 611 24.7184
99.9179 578 24.0416
100.035 599 24.4745
100.153 633 25.1595
100.27 548 23.4094
100.388 650 25.4951
100.505 615 24.7992
100.622 558 23.622
100.74 601 24.5153
100.857 556 23.5797
100.975 570 23.8747
101.092 558 23.622
101.209 539 23.2164
101.327 535 23.1301
101.444 529 23
101.561 517 22.7376
101.679 572 23.9165
101.796 521 22.8254
101.913 654 25.5734
102.03 622 24.9399
102.148 674 25.9615
102.265 624 24.98
102.382 604 24.5764
102.499 629 25.0799
102.616 616 24.8193
102.733 663 25.7488
102.851 700 26.4575
102.968 729 27
103.085 652 25.5343
103.202 679 26.0576
103.319 692 26.3059
103.436 643 25.3574
103.552 679 26.0576
103.669 684 26.1534
103.786 675 25.9808
103.903 747 27.3313
104.02 694 26.3439
104.137 697 26.4008
104.253 687 26.2107
104.37 659 25.671
104.487 648 25.4558
104.603 640 25.2982
104.72 622 24.9399
104.836 572 23.9165
104.953 606 24.6171
105.069 545 23.3452
105.186 546 23.3666
105.302 516 22.7156
105.418 474 21.7715
105.535 473 21.7486
105.651 408 20.199
105.767 401 20.025
105.883 392 19.799
105.999 325 18.0278
106.115 0 1
106.231 0 1
106.347 0 1
106.463 0 1
106.579 0 1
106.694 0 1
106.81 0 1
106.926 0 1
107.041 0 1
107.157 0 1
109.576 0 1
109.692 0 1
109.807 0 1
109.923 0 1
110.039 0 1
110.155 0 1
110.27 0 1
110.386 0 1
110.502 0 1
110.618 342 18.4932
110.735 403 20.0749
110.851 475 21.7945
110.967 506 22.4944
111.083 531 23.0434
111.199 578 24.0416
111.316 597 24.4336
111.432 659 25.671
111.549 629 25.0799
111.665 624 24.98
111.782 577 24.0208
111.898 600 24.4949
112.015 635 25.1992
112.132 666 25.807
112.248 642 25.3377
112.365 680 26.0768
112.482 724 26.9072
112.599 715 26.7395
112.716 767 27.6948
112.832 743 27.258
112.949 754 27.4591
113.066 811 28.4781
113.183 732 27.0555
113.3 808 28.4253
113.417 803 28.3373
113.534 785 28.0179
113.652 750 27.3861
113.769 770 27.7489
113.886 789 28.0891
114.003 813 28.5132
114.12 841 29
114.238 894 29.8998
114.355 949 30.8058
114.472 893 29.8831
114.589 930 30.4959
114.707 852 29.189
114.824 801 28.3019
114.942 771 27.7669
115.059 673 25.9422
115.176 645 25.3969
115.294 593 24.3516
115.411 635 25.1992
115.529 576 24
115.646 600 24.4949
115.764 568 23.8328
115.881 566 23.7908
115.999 541 23.2594
116.116 545 23.3452
116.234 497 22.2935
116.351 486 22.0454
116.469 502 22.4054
116.586 525 22.9129
116.704 457 21.3776
116.821 498 22.3159
116.939 479 21.8861
117.056 496 22.2711
117.174 417 20.4206
117.291 445 21.095
117.409 428 20.6882
117.526 451 21.2368
117.644 454 21.3073
117.761 462 21.4942
117.879 515 22.6936
117.996 499 22.3383
118.114 477 21.8403
118.231 491 22.1585
118.349 477 21.8403
118.466 536 23.1517
118.584 544 23.3238
118.701 516 22.7156
118.819 519 22.7816
118.936 453 21.2838
119.053 469 21.6564
119.171 530 23.0217
119.288 503 22.4277
119.405 550 23.4521
119.523 485 22.0227
119.64 514 22.6716
119.757 524 22.891
119.875 535 23.1301
119.992 459 21.4243
120.109 489 22.1133
120.226 481 21.9317
120.343 456 21.3542
120.46 503 22.4277
120.578 501 22.383
120.695 441 21
120.812 478 21.8632
120.929 398 19.9499
121.046 437 20.9045
121.163 421 20.5183
121.279 416 20.3961
121.396 459 21.4243
121.513 430 20.7364
121.63 418 20.445
121.747 473 21.7486
121.863 416 20.3961
121.98 437 20.9045
122.097 433 20.8087
122.213 392 19.799
122.33 417 20.4206
122.446 367 19.1572
122.563 342 18.4932
122.679 340 18.4391
122.795 322 17.9444
122.912 288 16.9706
123.028 264 16.2481
123.144 293 17.1172
123.26 275 16.5831
123.377 0 1
123.493 0 1
123.609 0 1
123.725 0 1
123.84 0 1
123.956 0 1
124.072 0 1
124.188 0 1
124.303 0 1
124.419 0 1
126.852 0 1
126.968 0 1
127.083 0 1
127.199 0 1
127.315 0 1
127.431 0 1
127.547 0 1
127.663 0 1
127.779 0 1
127.895 0 1
128.011 0 1
128.127 0 1
128.243 0 1
128.359 514 22.6716
128.476 508 22.5389
128.592 566 23.7908
128.708 554 23.5372
128.825 528 22.9783
128.941 599 24.4745
129.058 532 23.0651
129.174 554 23.5372
129.291 583 24.1454
129.408 562 23.7065
129.524 539 23.2164
129.641 554 23.5372
129.758 503 22.4277
129.875 491 22.1585
129.992 550 23.4521
130.108 511 22.6053
130.225 455 21.3307
130.342 517 22.7376
130.459 552 23.4947
130.576 578 24.0416
130.693 596 24.4131
130.81 656 25.6125
130.928 640 25.2982
131.045 625 25
131.162 626 25.02
131.279 687 26.2107
131.396 752 27.4226
131.513 817 28.5832
131.631 791 28.1247
131.748 836 28.9137
131.865 811 28.4781
131.983 929 30.4795
132.1 1020 31.9374
132.217 1049 32.3883
132.335 1042 32.28
132.452 1045 32.3265
132.57 1086 32.9545
132.687 1148 33.8821
132.804 1186 34.4384
132.922 1165 34.1321
133.039 1078 32.8329
133.157 1212 34.8138
133.274 1177 34.3074
133.392 1204 34.6987
133.509 1170 34.2053
133.627 1098 33.1361
133.744 1145 33.8378
133.862 1127 33.5708
133.979 1128 33.5857
134.097 1172 34.2345
134.214 1211 34.7994
134.332 1264 35.5528
134.449 1262 35.5246
134.567 1152 33.9411
134.684 1191 34.5109
134.802 1203 34.6843
134.919 1226 35.0143
135.037 1255 35.426
135.154 1103 33.2114
135.272 1182 34.3802
135.389 1112 33.3467
135.507 1182 34.3802
135.624 1243 35.2562
135.742 1320 36.3318
135.859 1322 36.3593
135.977 1385 37.2156
136.094 1316 36.2767
136.211 1350 36.7423
136.329 1272 35.6651
136.446 1327 36.428
136.564 1301 36.0694
136.681 1332 36.4966
136.798 1340 36.606
136.915 1301 36.0694
137.033 1297 36.0139
137.15 1294 35.9722
137.267 1212 34.8138
137.384 1254 35.4119
137.502 1227 35.0286
137.619 1214 34.8425
137.736 1266 35.5809
137.853 1194 34.5543
137.97 1304 36.1109
138.087 1246 35.2987
138.204 1196 34.5832
138.321 1246 35.2987
138.438 1261 35.5106
138.555 1351 36.756
138.672 1358 36.8511
138.788 1296 36
138.905 1150 33.9116
139.022 1159 34.0441
139.139 1190 34.4964
139.255 1282 35.805
139.372 1320 36.3318
139.488 1205 34.7131
139.605 1146 33.8526
139.721 1086 32.9545
139.838 939 30.6431
139.954 956 30.9192
140.071 928 30.4631
140.187 838 28.9482
140.303 841 29
140.419 843 29.0345
140.535 771 27.7669
140.652 730 27.0185
140.768 0 1
140.884 0 1
141 0 1
141.115 0 1
141.231 0 1
141.347 0 1
141.463 0 1
141.578 0 1
141.694 0 1
144.104 0 1
144.219 0 1
144.335 0 1
144.45 0 1
144.566 0 1
144.682 0 1
144.798 0 1
144.914 0 1
145.03 0 1
145.146 1088 32.9848
145.262 1053 32.45
145.378 1158 34.0294
145.494 1153 33.9559
145.61 1156 34
145.726 1081 32.8786
145.842 1193 34.5398
145.959 1109 33.3017
146.075 1050 32.4037
146.192 1063 32.6037
146.308 1076 32.8024
146.425 1106 33.2566
146.541 1073 32.7567
146.658 1128 33.5857
146.774 1154 33.9706
146.891 1109 33.3017
147.008 1114 33.3766
147.125 1074 32.7719
147.241 1129 33.6006
147.358 1131 33.6303
147.475 1168 34.176
147.592 1140 33.7639
147.709 1028 32.0624
147.826 1014 31.8434
147.943 1083 32.909
148.06 1135 33.6898
148.177 1085 32.9393
148.294 1103 33.2114
148.411 1157 34.0147
148.528 1156 34
148.645 1099 33.1512
148.762 1104 33.2265
148.88 1175 34.2783
148.997 1156 34
149.114 1119 33.4515
149.231 1164 34.1174
149.349 1144 33.8231
149.466 1199 34.6266
149.583 1133 33.6601
149.701 1145 33.8378
149.818 1112 33.3467
149.935 1130 33.6155
150.053 1107 33.2716
150.17 1036 32.187
150.287 1074 32.7719
150.405 1124 33.5261
150.522 1102 33.1964
150.64 997 31.5753
150.757 1015 31.8591
150.875 1068 32.6803
150.992 1113 33.3617
151.11 1136 33.7046
151.227 1080 32.8634
151.344 1036 32.187
151.462 1039 32.2335
151.579 937 30.6105
151.697 941 30.6757
151.814 1012 31.8119
151.932 1154 33.9706
152.049 1149 33.8969
152.167 1125 33.541
152.284 1083 32.909
152.402 1153 33.9559
152.519 1101 33.1813
152.636 1059 32.5423
152.754 1089 33
152.871 1045 32.3265
152.989 1059 32.5423
153.106 1056 32.4962
153.223 1046 32.3419
153.341 1024 32
153.458 986 31.4006
153.575 972 31.1769
153.693 883 29.7153
153.81 892 29.8664
153.927 872 29.5296
154.044 955 30.9031
154.162 907 30.1164
154.279 853 29.2062
154.396 826 28.7402
154.513 917 30.282
154.63 901 30.0167
154.747 917 30.282
154.864 864 29.3939
154.981 883 29.7153
155.098 823 28.688
155.215 847 29.1033
155.332 885 29.7489
155.449 911 30.1828
155.566 922 30.3645
155.683 911 30.1828
155.8 900 30
155.917 908 30.133
156.033 868 29.4618
156.15 0 1
156.267 0 1
156.383 0 1
156.5 0 1
156.617 0 1
156.733 0 1
156.85 0 1
156.966 0 1
157.082 0 1
157.199 0 1
157.315 0 1
157.431 0 1
157.547 0 1
157.664 0 1
157.78 0 1
157.896 0 1
158.012 0 1
158.128 0 1
158.244 0 1
158.359 0 1
158.475 0 1
158.591 0 1
158.706 0 1
