
6.15755 0 1
6.2731 0 1
6.3887 0 1
6.50437 0 1
6.62009 0 1
6.73587 0 1
6.8517 0 1
6.96759 0 1
7.08353 0 1
7.19952 0 1
7.31557 0 1
7.43166 0 1
7.54781 0 1
7.664 0 1
7.78024 0 1
7.89653 0 1
8.01286 0 1
8.12924 0 1
8.24567 0 1
8.36213 0 1
8.47864 0 1
8.59519 0 1
8.71178 0 1
8.82841 0 1
8.94508 0 1
9.06179 0 1
9.17853 0 1
9.29531 0 1
9.41212 0 1
9.52897 0 1
9.64584 0 1
9.76276 0 1
9.8797 0 1
9.99667 0 1
10.1137 0 1
10.2307 0 1
10.3478 0 1
10.4648 0 1
10.5819 0 1
10.6991 0 1
10.8162 0 1
10.9334 0 1
11.0506 0 1
11.1678 0 1
11.285 0 1
11.4023 0 1
11.5196 0 1
11.6369 0 1
11.7542 0 1
11.8715 0 1
11.9888 0 1
12.1062 0 1
12.2235 0 1
12.3409 0 1
12.4582 0 1
12.5756 0 1
12.693 0 1
12.8104 0 1
12.9278 0 1
13.0452 0 1
13.1626 0 1
13.28 0 1
13.3974 0 1
13.5149 0 1
13.6323 0 1
13.7497 0 1
13.8671 0 1
13.9845 0 1
14.1019 0 1
14.2193 0 1
14.3367 0 1
14.4541 0 1
14.5714 0 1
14.6888 0 1
14.8062 0 1
14.9235 0 1
15.0408 87 9.32738
15.1581 77 8.77496
15.2755 92 9.59166
15.3927 104 10.198
15.51 94 9.69536
15.6273 86 9.27362
15.7445 64 8
15.8617 72 8.48528
15.9789 84 9.16515
16.0961 84 9.16515
16.2132 79 8.88819
16.3304 72 8.48528
16.4475 80 8.94427
16.5646 75 8.66025
16.6816 76 8.7178
16.7986 76 8.7178
16.9156 79 8.88819
17.0326 74 8.60233
17.1496 77 8.77496
17.2665 77 8.77496
17.3833 76 8.7178
17.5002 74 8.60233
17.617 61 7.81025
17.7338 66 8.12404
17.8505 64 8
17.9672 61 7.81025
18.0839 82 9.05539
18.2005 63 7.93725
18.3171 53 7.28011
18.4337 60 7.74597
18.5502 60 7.74597
18.6666 68 8.24621
18.7831 78 8.83176
18.8994 60 7.74597
19.0158 68 8.24621
19.1321 60 7.74597
19.2483 58 7.61577
19.3645 76 8.7178
19.4806 59 7.68115
19.5967 67 8.18535
19.7128 52 7.2111
19.8288 54 7.34847
19.9447 48 6.9282
20.0606 0 1
20.1764 0 1
20.2922 0 1
20.4079 0 1
20.5236 0 1
20.6392 0 1
20.7548 0 1
20.8702 0 1
23.3078 0 1
23.4233 0 1
23.539 0 1
23.6547 0 1
23.7704 0 1
23.8862 0 1
24.0021 0 1
24.118 0 1
24.234 0 1
24.35 0 1
24.4661 17 4.12311
24.5822 41 6.40312
24.6984 31 5.56776
24.8146 60 7.74597
24.9309 50 7.07107
25.0472 66 8.12404
25.1636 86 9.27362
25.28 85 9.21954
25.3965 62 7.87401
25.513 78 8.83176
25.6296 76 8.7178
25.7462 68 8.24621
25.8628 71 8.42615
25.9795 60 7.74597
26.0962 68 8.24621
26.213 54 7.34847
26.3298 60 7.74597
26.4466 56 7.48331
26.5635 80 8.94427
26.6804 76 8.7178
26.7973 67 8.18535
26.9143 63 7.93725
27.0313 66 8.12404
27.1483 76 8.7178
27.2653 64 8
27.3824 71 8.42615
27.4996 54 7.34847
27.6167 73 8.544
27.7339 55 7.4162
27.8511 58 7.61577
27.9683 70 8.3666
28.0855 86 9.27362
28.2028 64 8
28.3201 65 8.06226
28.4374 64 8
28.5547 70 8.3666
28.6721 65 8.06226
28.7894 54 7.34847
28.9068 74 8.60233
29.0242 67 8.18535
29.1416 60 7.74597
29.259 66 8.12404
29.3764 61 7.81025
29.4939 58 7.61577
29.6113 59 7.68115
29.7288 61 7.81025
29.8463 53 7.28011
29.9638 50 7.07107
30.0812 69 8.30662
30.1987 68 8.24621
30.3162 65 8.06226
30.4337 54 7.34847
30.5512 51 7.14143
30.6687 64 8
30.7862 64 8
30.9037 71 8.42615
31.0212 65 8.06226
31.1387 59 7.68115
31.2562 56 7.48331
31.3737 75 8.66025
31.4912 73 8.544
31.6087 86 9.27362
31.7262 68 8.24621
31.8436 49 7
31.9611 65 8.06226
32.0785 65 8.06226
32.1959 69 8.30662
32.3134 78 8.83176
32.4308 57 7.54983
32.5482 65 8.06226
32.6655 56 7.48331
32.7829 71 8.42615
32.9002 56 7.48331
33.0176 52 7.2111
33.1349 54 7.34847
33.2522 52 7.2111
33.3694 52 7.2111
33.4867 55 7.4162
33.6039 50 7.07107
33.7211 47 6.85565
33.8383 51 7.14143
33.9554 54 7.34847
34.0725 47 6.85565
34.1896 64 8
34.3067 47 6.85565
34.4237 48 6.9282
34.5407 52 7.2111
34.6577 57 7.54983
34.7746 66 8.12404
34.8915 52 7.2111
35.0084 57 7.54983
35.1252 51 7.14143
35.242 54 7.34847
35.3587 59 7.68115
35.4755 58 7.61577
35.5921 64 8
35.7088 58 7.61577
35.8254 63 7.93725
35.9419 60 7.74597
36.0584 57 7.54983
36.1749 56 7.48331
36.2913 53 7.28011
36.4077 41 6.40312
36.524 45 6.7082
36.6403 50 7.07107
36.7565 50 7.07107
36.8727 50 7.07107
36.9889 39 6.245
37.1049 39 6.245
37.221 0 1
37.3369 0 1
37.4529 0 1
37.5687 0 1
37.6845 0 1
37.8003 0 1
37.916 0 1
38.0316 0 1
38.1472 0 1
40.5851 0 1
40.7008 0 1
40.8164 0 1
40.9322 0 1
41.048 0 1
41.1639 0 1
41.2798 0 1
41.3958 0 1
41.5118 0 1
41.6279 0 1
41.744 28 5.2915
41.8602 34 5.83095
41.9765 32 5.65685
42.0928 34 5.83095
42.2091 34 5.83095
42.3255 50 7.07107
42.4419 44 6.63325
42.5584 39 6.245
42.675 38 6.16441
42.7915 40 6.32456
42.9081 46 6.78233
43.0248 35 5.91608
43.1415 47 6.85565
43.2582 51 7.14143
43.375 36 6
43.4918 42 6.48074
43.6087 51 7.14143
43.7256 45 6.7082
43.8425 51 7.14143
43.9595 45 6.7082
44.0765 47 6.85565
44.1935 53 7.28011
44.3106 44 6.63325
44.4277 69 8.30662
44.5448 55 7.4162
44.6619 40 6.32456
44.7791 53 7.28011
44.8963 45 6.7082
45.0136 53 7.28011
45.1308 43 6.55744
45.2481 53 7.28011
45.3654 56 7.48331
45.4827 41 6.40312
45.6001 41 6.40312
45.7174 53 7.28011
45.8348 38 6.16441
45.9522 44 6.63325
46.0697 44 6.63325
46.1871 39 6.245
46.3046 46 6.78233
46.422 38 6.16441
46.5395 40 6.32456
46.657 47 6.85565
46.7745 43 6.55744
46.892 48 6.9282
47.0096 59 7.68115
47.1271 45 6.7082
47.2446 47 6.85565
47.3622 53 7.28011
47.4797 48 6.9282
47.5973 49 7
47.7149 60 7.74597
47.8324 36 6
47.95 45 6.7082
48.0675 44 6.63325
48.1851 46 6.78233
48.3027 53 7.28011
48.4202 59 7.68115
48.5378 49 7
48.6554 53 7.28011
48.7729 53 7.28011
48.8904 47 6.85565
49.008 42 6.48074
49.1255 47 6.85565
49.243 35 5.91608
49.3605 46 6.78233
49.478 44 6.63325
49.5955 41 6.40312
49.713 55 7.4162
49.8304 46 6.78233
49.9479 48 6.9282
50.0653 27 5.19615
50.1827 47 6.85565
50.3001 50 7.07107
50.4175 50 7.07107
50.5348 40 6.32456
50.6521 39 6.245
50.7694 52 7.2111
50.8867 49 7
51.004 35 5.91608
51.1212 50 7.07107
51.2384 36 6
51.3556 51 7.14143
51.4727 49 7
51.5899 31 5.56776
51.707 36 6
51.824 34 5.83095
51.9411 51 7.14143
52.0581 55 7.4162
52.175 44 6.63325
52.2919 48 6.9282
52.4088 44 6.63325
52.5257 47 6.85565
52.6425 41 6.40312
52.7593 52 7.2111
52.876 50 7.07107
52.9927 27 5.19615
53.1094 54 7.34847
53.226 30 5.47723
53.3426 44 6.63325
53.4591 40 6.32456
53.5756 46 6.78233
53.692 49 7
53.8084 41 6.40312
53.9248 40 6.32456
54.0411 33 5.74456
54.1573 42 6.48074
54.2735 0 1
54.3896 0 1
54.5057 0 1
54.6217 0 1
54.7377 0 1
54.8537 0 1
54.9695 0 1
55.0853 0 1
55.2011 0 1
55.3168 0 1
55.4324 0 1
57.824 0 1
57.9396 0 1
58.0553 0 1
58.1711 0 1
58.2869 0 1
58.4028 0 1
58.5187 0 1
58.6347 0 1
58.7508 0 1
58.8669 0 1
58.983 56 7.48331
59.0992 54 7.34847
59.2155 79 8.88819
59.3318 133 11.5326
59.4482 162 12.7279
59.5646 254 15.9374
59.681 394 19.8494
59.7975 645 25.3969
59.9141 1061 32.573
60.0306 1380 37.1484
60.1473 1781 42.2019
60.2639 2098 45.8039
60.3807 2314 48.1041
60.4974 2415 49.1426
60.6142 2573 50.7247
60.731 2626 51.2445
60.8479 2794 52.8583
60.9648 2927 54.1018
61.0818 2906 53.9073
61.1987 2952 54.3323
61.3158 2708 52.0384
61.4328 2278 47.7284
61.5499 1663 40.7799
61.667 1413 37.5899
61.7841 1390 37.2827
61.9013 1796 42.3792
62.0185 2670 51.672
62.1357 3593 59.9416
62.253 4132 64.2806
62.3702 4649 68.1836
62.4875 4856 69.685
62.6049 5074 71.232
62.7222 5241 72.3948
62.8396 5449 73.8173
62.9569 5377 73.328
63.0743 5124 71.5821
63.1918 4725 68.7386
63.3092 4151 64.4283
63.4267 4058 63.7024
63.5441 3856 62.0967
63.6616 3643 60.3573
63.7791 3644 60.3656
63.8966 3145 56.0803
64.0142 2594 50.9313
64.1317 1773 42.107
64.2492 1114 33.3766
64.3668 641 25.318
64.4843 368 19.1833
64.6019 198 14.0712
64.7195 124 11.1355
64.837 105 10.247
64.9546 70 8.3666
65.0722 65 8.06226
65.1898 54 7.34847
65.3074 53 7.28011
65.4249 55 7.4162
65.5425 42 6.48074
65.6601 72 8.48528
65.7777 77 8.77496
65.8952 52 7.2111
66.0128 68 8.24621
66.1304 58 7.61577
66.2479 74 8.60233
66.3655 60 7.74597
66.483 55 7.4162
66.6005 52 7.2111
66.718 55 7.4162
66.8355 33 5.74456
66.953 45 6.7082
67.0705 60 7.74597
67.1879 42 6.48074
67.3054 58 7.61577
67.4228 58 7.61577
67.5402 67 8.18535
67.6576 55 7.4162
67.7749 47 6.85565
67.8923 56 7.48331
68.0096 49 7
68.1269 59 7.68115
68.2442 41 6.40312
68.3614 58 7.61577
68.4787 48 6.9282
68.5958 61 7.81025
68.713 46 6.78233
68.8302 55 7.4162
68.9473 43 6.55744
69.0643 44 6.63325
69.1814 48 6.9282
69.2984 45 6.7082
69.4154 39 6.245
69.5323 59 7.68115
69.6492 51 7.14143
69.7661 49 7
69.8829 58 7.61577
69.9997 44 6.63325
70.1165 55 7.4162
70.2332 48 6.9282
70.3499 57 7.54983
70.4665 52 7.2111
70.5831 43 6.55744
70.6996 28 5.2915
70.8161 34 5.83095
70.9326 32 5.65685
71.049 39 6.245
71.1653 20 4.47214
71.2817 24 4.89898
71.3979 34 5.83095
71.5141 20 4.47214
71.6303 26 5.09902
71.7464 21 4.58258
71.8624 0 1
71.9784 0 1
72.0944 0 1
72.2102 0 1
72.3261 0 1
72.4418 0 1
72.5575 0 1
72.6732 0 1
75.1054 0 1
75.2209 0 1
75.3365 0 1
75.4521 0 1
75.5678 0 1
75.6835 0 1
75.7993 0 1
75.9151 0 1
76.031 0 1
76.147 36 6
76.263 34 5.83095
76.3791 43 6.55744
76.4952 38 6.16441
76.6113 33 5.74456
76.7276 58 7.61577
76.8438 44 6.63325
76.9601 55 7.4162
77.0765 50 7.07107
77.1929 45 6.7082
77.3093 59 7.68115
77.4258 40 6.32456
77.5423 52 7.2111
77.6589 42 6.48074
77.7755 43 6.55744
77.8921 50 7.07107
78.0088 48 6.9282
78.1256 30 5.47723
78.2423 49 7
78.3591 31 5.56776
78.4759 47 6.85565
78.5928 53 7.28011
78.7097 52 7.2111
78.8266 47 6.85565
78.9436 52 7.2111
79.0606 38 6.16441
79.1776 48 6.9282
79.2946 40 6.32456
79.4117 38 6.16441
79.5288 53 7.28011
79.6459 43 6.55744
79.7631 51 7.14143
79.8802 48 6.9282
79.9974 52 7.2111
80.1147 51 7.14143
80.2319 46 6.78233
80.3491 44 6.63325
80.4664 41 6.40312
80.5837 38 6.16441
80.701 58 7.61577
80.8183 51 7.14143
80.9357 58 7.61577
81.053 56 7.48331
81.1704 40 6.32456
81.2877 40 6.32456
81.4051 43 6.55744
81.5225 54 7.34847
81.6399 47 6.85565
81.7573 49 7
81.8747 54 7.34847
81.9922 63 7.93725
82.1096 44 6.63325
82.227 41 6.40312
82.3444 40 6.32456
82.4619 44 6.63325
82.5793 47 6.85565
82.6967 54 7.34847
82.8142 46 6.78233
82.9316 50 7.07107
83.049 48 6.9282
83.1664 50 7.07107
83.2838 49 7
83.4012 49 7
83.5186 48 6.9282
83.636 49 7
83.7534 44 6.63325
83.8708 54 7.34847
83.9881 45 6.7082
84.1055 51 7.14143
84.2228 57 7.54983
84.3401 61 7.81025
84.4575 40 6.32456
84.5747 50 7.07107
84.692 44 6.63325
84.8093 45 6.7082
84.9265 57 7.54983
85.0437 53 7.28011
85.1609 52 7.2111
85.2781 40 6.32456
85.3952 49 7
85.5123 40 6.32456
85.6294 52 7.2111
85.7465 48 6.9282
85.8636 48 6.9282
85.9806 49 7
86.0976 39 6.245
86.2145 64 8
86.3315 41 6.40312
86.4484 50 7.07107
86.5652 62 7.87401
86.682 50 7.07107
86.7988 61 7.81025
86.9156 61 7.81025
87.0323 50 7.07107
87.149 57 7.54983
87.2657 56 7.48331
87.3823 44 6.63325
87.4988 55 7.4162
87.6154 46 6.78233
87.7318 42 6.48074
87.8483 59 7.68115
87.9647 46 6.78233
88.081 45 6.7082
88.1973 42 6.48074
88.3136 40 6.32456
88.4298 29 5.38516
88.546 20 4.47214
88.6621 32 5.65685
88.7781 29 5.38516
88.8942 0 1
89.0101 0 1
89.126 0 1
89.2419 0 1
89.3577 0 1
89.4734 0 1
89.5891 0 1
89.7047 0 1
89.8203 0 1
89.9358 0 1
92.3269 0 1
92.4424 0 1
92.558 0 1
92.6736 0 1
92.7893 0 1
92.905 0 1
93.0208 0 1
93.1366 0 1
93.2525 0 1
93.3685 0 1
93.4845 0 1
93.6005 38 6.16441
93.7167 51 7.14143
93.8328 46 6.78233
93.949 39 6.245
94.0653 47 6.85565
94.1816 56 7.48331
94.2979 60 7.74597
94.4143 43 6.55744
94.5307 47 6.85565
94.6472 58 7.61577
94.7637 61 7.81025
94.8803 51 7.14143
94.9969 37 6.08276
95.1135 49 7
95.2302 49 7
95.3469 57 7.54983
95.4637 46 6.78233
95.5805 45 6.7082
95.6973 51 7.14143
95.8142 50 7.07107
95.9311 44 6.63325
96.048 60 7.74597
96.1649 62 7.87401
96.2819 39 6.245
96.3989 53 7.28011
96.516 56 7.48331
96.633 60 7.74597
96.7501 54 7.34847
96.8673 72 8.48528
96.9844 55 7.4162
97.1016 58 7.61577
97.2188 55 7.4162
97.336 57 7.54983
97.4532 41 6.40312
97.5704 56 7.48331
97.6877 41 6.40312
97.805 58 7.61577
97.9223 41 6.40312
98.0396 55 7.4162
98.1569 55 7.4162
98.2743 40 6.32456
98.3916 51 7.14143
98.509 48 6.9282
98.6264 65 8.06226
98.7438 50 7.07107
98.8612 57 7.54983
98.9786 51 7.14143
99.096 64 8
99.2134 49 7
99.3308 74 8.60233
99.4482 48 6.9282
99.5656 58 7.61577
99.6831 61 7.81025
99.8005 59 7.68115
99.9179 58 7.61577
100.035 45 6.7082
100.153 62 7.87401
100.27 52 7.2111
100.388 49 7
100.505 52 7.2111
100.622 45 6.7082
100.74 68 8.24621
100.857 58 7.61577
100.975 52 7.2111
101.092 51 7.14143
101.209 64 8
101.327 52 7.2111
101.444 58 7.61577
101.561 56 7.48331
101.679 48 6.9282
101.796 57 7.54983
101.913 51 7.14143
102.03 66 8.12404
102.148 40 6.32456
102.265 48 6.9282
102.382 59 7.68115
102.499 64 8
102.616 68 8.24621
102.733 66 8.12404
102.851 65 8.06226
102.968 61 7.81025
103.085 61 7.81025
103.202 53 7.28011
103.319 56 7.48331
103.436 61 7.81025
103.552 58 7.61577
103.669 57 7.54983
103.786 70 8.3666
103.903 56 7.48331
104.02 76 8.7178
104.137 48 6.9282
104.253 61 7.81025
104.37 64 8
104.487 45 6.7082
104.603 54 7.34847
104.72 64 8
104.836 61 7.81025
104.953 47 6.85565
105.069 66 8.12404
105.186 42 6.48074
105.302 44 6.63325
105.418 44 6.63325
105.535 30 5.47723
105.651 37 6.08276
105.767 34 5.83095
105.883 33 5.74456
105.999 21 4.58258
106.115 0 1
106.231 0 1
106.347 0 1
106.463 0 1
106.579 0 1
106.694 0 1
106.81 0 1
106.926 0 1
107.041 0 1
107.157 0 1
109.576 0 1
109.692 0 1
109.807 0 1
109.923 0 1
110.039 0 1
110.155 0 1
110.27 0 1
110.386 0 1
110.502 0 1
110.618 26 5.09902
110.735 31 5.56776
110.851 36 6
110.967 46 6.78233
111.083 54 7.34847
111.199 60 7.74597
111.316 55 7.4162
111.432 56 7.48331
111.549 58 7.61577
111.665 52 7.2111
111.782 45 6.7082
111.898 66 8.12404
112.015 47 6.85565
112.132 56 7.48331
112.248 56 7.48331
112.365 53 7.28011
112.482 57 7.54983
112.599 55 7.4162
112.716 45 6.7082
112.832 51 7.14143
112.949 46 6.78233
113.066 57 7.54983
113.183 62 7.87401
113.3 41 6.40312
113.417 46 6.78233
113.534 60 7.74597
113.652 65 8.06226
113.769 50 7.07107
113.886 48 6.9282
114.003 59 7.68115
114.12 36 6
114.238 34 5.83095
114.355 47 6.85565
114.472 44 6.63325
114.589 51 7.14143
114.707 45 6.7082
114.824 44 6.63325
114.942 53 7.28011
115.059 54 7.34847
115.176 52 7.2111
115.294 40 6.32456
115.411 58 7.61577
115.529 58 7.61577
115.646 43 6.55744
115.764 57 7.54983
115.881 58 7.61577
115.999 40 6.32456
116.116 46 6.78233
116.234 66 8.12404
116.351 59 7.68115
116.469 38 6.16441
116.586 44 6.63325
116.704 50 7.07107
116.821 38 6.16441
116.939 50 7.07107
117.056 60 7.74597
117.174 44 6.63325
117.291 48 6.9282
117.409 59 7.68115
117.526 62 7.87401
117.644 54 7.34847
117.761 68 8.24621
117.879 39 6.245
117.996 37 6.08276
118.114 43 6.55744
118.231 47 6.85565
118.349 47 6.85565
118.466 59 7.68115
118.584 57 7.54983
118.701 48 6.9282
118.819 56 7.48331
118.936 47 6.85565
119.053 54 7.34847
119.171 43 6.55744
119.288 49 7
119.405 52 7.2111
119.523 49 7
119.64 54 7.34847
119.757 42 6.48074
119.875 54 7.34847
119.992 46 6.78233
120.109 52 7.2111
120.226 44 6.63325
120.343 35 5.91608
120.46 38 6.16441
120.578 54 7.34847
120.695 48 6.9282
120.812 56 7.48331
120.929 45 6.7082
121.046 50 7.07107
121.163 49 7
121.279 46 6.78233
121.396 52 7.2111
121.513 45 6.7082
121.63 38 6.16441
121.747 38 6.16441
121.863 43 6.55744
121.98 27 5.19615
122.097 43 6.55744
122.213 38 6.16441
122.33 46 6.78233
122.446 32 5.65685
122.563 30 5.47723
122.679 30 5.47723
122.795 29 5.38516
122.912 22 4.69042
123.028 29 5.38516
123.144 25 5
123.26 32 5.65685
123.377 0 1
123.493 0 1
123.609 0 1
123.725 0 1
123.84 0 1
123.956 0 1
124.072 0 1
124.188 0 1
124.303 0 1
124.419 0 1
126.852 0 1
126.968 0 1
127.083 0 1
127.199 0 1
127.315 0 1
127.431 0 1
127.547 0 1
127.663 0 1
127.779 0 1
127.895 0 1
128.011 0 1
128.127 0 1
128.243 0 1
128.359 37 6.08276
128.476 53 7.28011
128.592 41 6.40312
128.708 50 7.07107
128.825 56 7.48331
128.941 64 8
129.058 48 6.9282
129.174 60 7.74597
129.291 57 7.54983
129.408 56 7.48331
129.524 50 7.07107
129.641 44 6.63325
129.758 50 7.07107
129.875 65 8.06226
129.992 53 7.28011
130.108 61 7.81025
130.225 67 8.18535
130.342 45 6.7082
130.459 46 6.78233
130.576 45 6.7082
130.693 50 7.07107
130.81 44 6.63325
130.928 46 6.78233
131.045 54 7.34847
131.162 64 8
131.279 54 7.34847
131.396 63 7.93725
131.513 63 7.93725
131.631 53 7.28011
131.748 58 7.61577
131.865 60 7.74597
131.983 78 8.83176
132.1 51 7.14143
132.217 63 7.93725
132.335 58 7.61577
132.452 48 6.9282
132.57 67 8.18535
132.687 56 7.48331
132.804 66 8.12404
132.922 61 7.81025
133.039 47 6.85565
133.157 50 7.07107
133.274 52 7.2111
133.392 59 7.68115
133.509 47 6.85565
133.627 60 7.74597
133.744 48 6.9282
133.862 69 8.30662
133.979 52 7.2111
134.097 49 7
134.214 49 7
134.332 43 6.55744
134.449 51 7.14143
134.567 62 7.87401
134.684 52 7.2111
134.802 70 8.3666
134.919 59 7.68115
135.037 51 7.14143
135.154 72 8.48528
135.272 63 7.93725
135.389 65 8.06226
135.507 54 7.34847
135.624 61 7.81025
135.742 49 7
135.859 55 7.4162
135.977 60 7.74597
136.094 54 7.34847
136.211 66 8.12404
136.329 61 7.81025
136.446 59 7.68115
136.564 63 7.93725
136.681 53 7.28011
136.798 58 7.61577
136.915 64 8
137.033 67 8.18535
137.15 57 7.54983
137.267 55 7.4162
137.384 74 8.60233
137.502 54 7.34847
137.619 56 7.48331
137.736 48 6.9282
137.853 45 6.7082
137.97 63 7.93725
138.087 56 7.48331
138.204 38 6.16441
138.321 49 7
138.438 49 7
138.555 49 7
138.672 55 7.4162
138.788 48 6.9282
138.905 44 6.63325
139.022 51 7.14143
139.139 50 7.07107
139.255 48 6.9282
139.372 51 7.14143
139.488 44 6.63325
139.605 47 6.85565
139.721 33 5.74456
139.838 34 5.83095
139.954 46 6.78233
140.071 31 5.56776
140.187 29 5.38516
140.303 40 6.32456
140.419 41 6.40312
140.535 24 4.89898
140.652 24 4.89898
140.768 0 1
140.884 0 1
141 0 1
141.115 0 1
141.231 0 1
141.347 0 1
141.463 0 1
141.578 0 1
141.694 0 1
144.104 0 1
144.219 0 1
144.335 0 1
144.45 0 1
144.566 0 1
144.682 0 1
144.798 0 1
144.914 0 1
145.03 0 1
145.146 90 9.48683
145.262 101 10.0499
145.378 87 9.32738
145.494 120 10.9545
145.61 102 10.0995
145.726 133 11.5326
145.842 138 11.7473
145.959 156 12.49
146.075 153 12.3693
146.192 151 12.2882
146.308 161 12.6886
146.425 155 12.4499
146.541 113 10.6301
146.658 107 10.3441
146.774 108 10.3923
146.891 119 10.9087
147.008 135 11.619
147.125 164 12.8062
147.241 194 13.9284
147.358 170 13.0384
147.475 188 13.7113
147.592 148 12.1655
147.709 171 13.0767
147.826 168 12.9615
147.943 157 12.53
148.06 160 12.6491
148.177 178 13.3417
148.294 159 12.6095
148.411 161 12.6886
148.528 170 13.0384
148.645 191 13.8203
148.762 190 13.784
148.88 178 13.3417
148.997 169 13
149.114 169 13
149.231 181 13.4536
149.349 197 14.0357
149.466 188 13.7113
149.583 187 13.6748
149.701 181 13.4536
149.818 179 13.3791
149.935 147 12.1244
150.053 140 11.8322
150.17 139 11.7898
150.287 130 11.4018
150.405 136 11.6619
150.522 129 11.3578
150.64 139 11.7898
150.757 140 11.8322
150.875 140 11.8322
150.992 170 13.0384
151.11 122 11.0454
151.227 144 12
151.344 119 10.9087
151.462 117 10.8167
151.579 113 10.6301
151.697 130 11.4018
151.814 140 11.8322
151.932 125 11.1803
152.049 145 12.0416
152.167 130 11.4018
152.284 137 11.7047
152.402 136 11.6619
152.519 125 11.1803
152.636 150 12.2474
152.754 128 11.3137
152.871 113 10.6301
152.989 124 11.1355
153.106 117 10.8167
153.223 122 11.0454
153.341 126 11.225
153.458 117 10.8167
153.575 143 11.9583
153.693 108 10.3923
153.81 98 9.89949
153.927 110 10.4881
154.044 94 9.69536
154.162 114 10.6771
154.279 101 10.0499
154.396 102 10.0995
154.513 113 10.6301
154.63 102 10.0995
154.747 104 10.198
154.864 100 10
154.981 95 9.74679
155.098 106 10.2956
155.215 101 10.0499
155.332 115 10.7238
155.449 130 11.4018
155.566 97 9.84886
155.683 124 11.1355
155.8 97 9.84886
155.917 105 10.247
156.033 108 10.3923
156.15 0 1
156.267 0 1
156.383 0 1
156.5 0 1
156.617 0 1
156.733 0 1
156.85 0 1
156.966 0 1
157.082 0 1
157.199 0 1
157.315 0 1
157.431 0 1
157.547 0 1
157.664 0 1
157.78 0 1
157.896 0 1
158.012 0 1
158.128 0 1
158.244 0 1
158.359 0 1
158.475 0 1
158.591 0 1
158.706 0 1
