
6.15755 0 1
6.2731 0 1
6.3887 0 1
6.50437 0 1
6.62009 0 1
6.73587 0 1
6.8517 0 1
6.96759 0 1
7.08353 0 1
7.19952 0 1
7.31557 0 1
7.43166 0 1
7.54781 0 1
7.664 0 1
7.78024 0 1
7.89653 0 1
8.01286 0 1
8.12924 0 1
8.24567 0 1
8.36213 0 1
8.47864 0 1
8.59519 0 1
8.71178 0 1
8.82841 0 1
8.94508 0 1
9.06179 0 1
9.17853 0 1
9.29531 0 1
9.41212 0 1
9.52897 0 1
9.64584 0 1
9.76276 0 1
9.8797 0 1
9.99667 0 1
10.1137 0 1
10.2307 0 1
10.3478 0 1
10.4648 0 1
10.5819 0 1
10.6991 0 1
10.8162 0 1
10.9334 0 1
11.0506 0 1
11.1678 0 1
11.285 0 1
11.4023 0 1
11.5196 0 1
11.6369 0 1
11.7542 0 1
11.8715 0 1
11.9888 0 1
12.1062 0 1
12.2235 0 1
12.3409 0 1
12.4582 0 1
12.5756 0 1
12.693 0 1
12.8104 0 1
12.9278 0 1
13.0452 0 1
13.1626 0 1
13.28 0 1
13.3974 0 1
13.5149 0 1
13.6323 0 1
13.7497 0 1
13.8671 0 1
13.9845 0 1
14.1019 0 1
14.2193 0 1
14.3367 0 1
14.4541 0 1
14.5714 0 1
14.6888 0 1
14.8062 0 1
14.9235 0 1
15.0408 836 28.9137
15.1581 912 30.1993
15.2755 951 30.8383
15.3927 869 29.4788
15.51 875 29.5804
15.6273 824 28.7054
15.7445 869 29.4788
15.8617 815 28.5482
15.9789 811 28.4781
16.0961 752 27.4226
16.2132 790 28.1069
16.3304 851 29.1719
16.4475 829 28.7924
16.5646 745 27.2947
16.6816 777 27.8747
16.7986 748 27.3496
16.9156 749 27.3679
17.0326 773 27.8029
17.1496 729 27
17.2665 763 27.6225
17.3833 744 27.2764
17.5002 739 27.1846
17.617 776 27.8568
17.7338 731 27.037
17.8505 742 27.2397
17.9672 703 26.5141
18.0839 715 26.7395
18.2005 743 27.258
18.3171 732 27.0555
18.4337 757 27.5136
18.5502 745 27.2947
18.6666 768 27.7128
18.7831 730 27.0185
18.8994 794 28.178
19.0158 692 26.3059
19.1321 607 24.6374
19.2483 618 24.8596
19.3645 618 24.8596
19.4806 580 24.0832
19.5967 563 23.7276
19.7128 552 23.4947
19.8288 544 23.3238
19.9447 525 22.9129
20.0606 0 1
20.1764 0 1
20.2922 0 1
20.4079 0 1
20.5236 0 1
20.6392 0 1
20.7548 0 1
20.8702 0 1
23.3078 0 1
23.4233 0 1
23.539 0 1
23.6547 0 1
23.7704 0 1
23.8862 0 1
24.0021 0 1
24.118 0 1
24.234 0 1
24.35 0 1
24.4661 296 17.2047
24.5822 308 17.5499
24.6984 408 20.199
24.8146 503 22.4277
24.9309 541 23.2594
25.0472 615 24.7992
25.1636 712 26.6833
25.28 704 26.533
25.3965 773 27.8029
25.513 855 29.2404
25.6296 808 28.4253
25.7462 843 29.0345
25.8628 888 29.7993
25.9795 829 28.7924
26.0962 824 28.7054
26.213 803 28.3373
26.3298 694 26.3439
26.4466 747 27.3313
26.5635 695 26.3629
26.6804 686 26.1916
26.7973 630 25.0998
26.9143 636 25.219
27.0313 629 25.0799
27.1483 666 25.807
27.2653 708 26.6083
27.3824 743 27.258
27.4996 715 26.7395
27.6167 764 27.6405
27.7339 663 25.7488
27.8511 658 25.6515
27.9683 639 25.2784
28.0855 652 25.5343
28.2028 680 26.0768
28.3201 642 25.3377
28.4374 703 26.5141
28.5547 744 27.2764
28.6721 769 27.7308
28.7894 742 27.2397
28.9068 741 27.2213
29.0242 737 27.1477
29.1416 751 27.4044
29.259 694 26.3439
29.3764 738 27.1662
29.4939 634 25.1794
29.6113 652 25.5343
29.7288 660 25.6905
29.8463 637 25.2389
29.9638 620 24.8998
30.0812 646 25.4165
30.1987 656 25.6125
30.3162 605 24.5967
30.4337 625 25
30.5512 676 26
30.6687 683 26.1343
30.7862 719 26.8142
30.9037 759 27.55
31.0212 764 27.6405
31.1387 686 26.1916
31.2562 675 25.9808
31.3737 658 25.6515
31.4912 649 25.4755
31.6087 676 26
31.7262 688 26.2298
31.8436 662 25.7294
31.9611 716 26.7582
32.0785 706 26.5707
32.1959 692 26.3059
32.3134 675 25.9808
32.4308 709 26.6271
32.5482 593 24.3516
32.6655 595 24.3926
32.7829 606 24.6171
32.9002 642 25.3377
33.0176 596 24.4131
33.1349 617 24.8395
33.2522 632 25.1396
33.3694 599 24.4745
33.4867 591 24.3105
33.6039 634 25.1794
33.7211 614 24.779
33.8383 619 24.8797
33.9554 653 25.5539
34.0725 584 24.1661
34.1896 644 25.3772
34.3067 614 24.779
34.4237 665 25.7876
34.5407 614 24.779
34.6577 701 26.4764
34.7746 672 25.923
34.8915 675 25.9808
35.0084 593 24.3516
35.1252 555 23.5584
35.242 596 24.4131
35.3587 595 24.3926
35.4755 594 24.3721
35.5921 645 25.3969
35.7088 652 25.5343
35.8254 664 25.7682
35.9419 655 25.593
36.0584 610 24.6982
36.1749 609 24.6779
36.2913 544 23.3238
36.4077 560 23.6643
36.524 534 23.1084
36.6403 525 22.9129
36.7565 502 22.4054
36.8727 475 21.7945
36.9889 466 21.587
37.1049 388 19.6977
37.221 0 1
37.3369 0 1
37.4529 0 1
37.5687 0 1
37.6845 0 1
37.8003 0 1
37.916 0 1
38.0316 0 1
38.1472 0 1
40.5851 0 1
40.7008 0 1
40.8164 0 1
40.9322 0 1
41.048 0 1
41.1639 0 1
41.2798 0 1
41.3958 0 1
41.5118 0 1
41.6279 0 1
41.744 279 16.7033
41.8602 319 17.8606
41.9765 373 19.3132
42.0928 382 19.5448
42.2091 447 21.1424
42.3255 501 22.383
42.4419 424 20.5913
42.5584 463 21.5174
42.675 481 21.9317
42.7915 513 22.6495
42.9081 459 21.4243
43.0248 481 21.9317
43.1415 499 22.3383
43.2582 460 21.4476
43.375 547 23.388
43.4918 492 22.1811
43.6087 483 21.9773
43.7256 488 22.0907
43.8425 494 22.2261
43.9595 460 21.4476
44.0765 445 21.095
44.1935 450 21.2132
44.3106 516 22.7156
44.4277 503 22.4277
44.5448 551 23.4734
44.6619 523 22.8692
44.7791 506 22.4944
44.8963 528 22.9783
45.0136 466 21.587
45.1308 513 22.6495
45.2481 523 22.8692
45.3654 525 22.9129
45.4827 541 23.2594
45.6001 535 23.1301
45.7174 524 22.891
45.8348 560 23.6643
45.9522 454 21.3073
46.0697 481 21.9317
46.1871 462 21.4942
46.3046 451 21.2368
46.422 444 21.0713
46.5395 481 21.9317
46.657 460 21.4476
46.7745 508 22.5389
46.892 522 22.8473
47.0096 472 21.7256
47.1271 551 23.4734
47.2446 506 22.4944
47.3622 483 21.9773
47.4797 469 21.6564
47.5973 406 20.1494
47.7149 450 21.2132
47.8324 454 21.3073
47.95 457 21.3776
48.0675 502 22.4054
48.1851 532 23.0651
48.3027 496 22.2711
48.4202 469 21.6564
48.5378 520 22.8035
48.6554 520 22.8035
48.7729 508 22.5389
48.8904 520 22.8035
49.008 500 22.3607
49.1255 491 22.1585
49.243 492 22.1811
49.3605 497 22.2935
49.478 472 21.7256
49.5955 439 20.9523
49.713 424 20.5913
49.8304 411 20.2731
49.9479 410 20.2485
50.0653 443 21.0476
50.1827 445 21.095
50.3001 484 22
50.4175 470 21.6795
50.5348 458 21.4009
50.6521 503 22.4277
50.7694 475 21.7945
50.8867 465 21.5639
51.004 438 20.9284
51.1212 423 20.567
51.2384 434 20.8327
51.3556 438 20.9284
51.4727 468 21.6333
51.5899 500 22.3607
51.707 479 21.8861
51.824 489 22.1133
51.9411 485 22.0227
52.0581 458 21.4009
52.175 486 22.0454
52.2919 485 22.0227
52.4088 465 21.5639
52.5257 488 22.0907
52.6425 462 21.4942
52.7593 501 22.383
52.876 506 22.4944
52.9927 462 21.4942
53.1094 477 21.8403
53.226 458 21.4009
53.3426 445 21.095
53.4591 417 20.4206
53.5756 395 19.8746
53.692 408 20.199
53.8084 382 19.5448
53.9248 362 19.0263
54.0411 337 18.3576
54.1573 325 18.0278
54.2735 0 1
54.3896 0 1
54.5057 0 1
54.6217 0 1
54.7377 0 1
54.8537 0 1
54.9695 0 1
55.0853 0 1
55.2011 0 1
55.3168 0 1
55.4324 0 1
57.824 0 1
57.9396 0 1
58.0553 0 1
58.1711 0 1
58.2869 0 1
58.4028 0 1
58.5187 0 1
58.6347 0 1
58.7508 0 1
58.8669 0 1
58.983 821 28.6531
59.0992 1075 32.7872
59.2155 1353 36.7831
59.3318 1646 40.5709
59.4482 1939 44.0341
59.5646 2142 46.2817
59.681 2325 48.2183
59.7975 2446 49.4571
59.9141 2523 50.2295
60.0306 2568 50.6754
60.1473 2518 50.1797
60.2639 2679 51.7591
60.3807 2581 50.8035
60.4974 2831 53.2071
60.6142 2617 51.1566
60.731 2603 51.0196
60.8479 2653 51.5073
60.9648 2412 49.1121
61.0818 2392 48.9081
61.1987 2277 47.7179
61.3158 2247 47.4025
61.4328 2036 45.1221
61.5499 1931 43.9431
61.667 1802 42.45
61.7841 1572 39.6485
61.9013 1497 38.6911
62.0185 1269 35.623
62.1357 1205 34.7131
62.253 1128 33.5857
62.3702 1047 32.3574
62.4875 1051 32.4191
62.6049 1057 32.5115
62.7222 1088 32.9848
62.8396 1074 32.7719
62.9569 1072 32.7414
63.0743 1028 32.0624
63.1918 1037 32.2025
63.3092 982 31.3369
63.4267 775 27.8388
63.5441 755 27.4773
63.6616 739 27.1846
63.7791 692 26.3059
63.8966 624 24.98
64.0142 582 24.1247
64.1317 633 25.1595
64.2492 546 23.3666
64.3668 548 23.4094
64.4843 535 23.1301
64.6019 537 23.1733
64.7195 539 23.2164
64.837 508 22.5389
64.9546 542 23.2809
65.0722 564 23.7487
65.1898 498 22.3159
65.3074 471 21.7025
65.4249 533 23.0868
65.5425 472 21.7256
65.6601 507 22.5167
65.7777 464 21.5407
65.8952 450 21.2132
66.0128 503 22.4277
66.1304 508 22.5389
66.2479 502 22.4054
66.3655 542 23.2809
66.483 513 22.6495
66.6005 541 23.2594
66.718 545 23.3452
66.8355 499 22.3383
66.953 514 22.6716
67.0705 509 22.561
67.1879 466 21.587
67.3054 530 23.0217
67.4228 541 23.2594
67.5402 534 23.1084
67.6576 527 22.9565
67.7749 532 23.0651
67.8923 540 23.2379
68.0096 553 23.516
68.1269 495 22.2486
68.2442 493 22.2036
68.3614 514 22.6716
68.4787 529 23
68.5958 574 23.9583
68.713 476 21.8174
68.8302 512 22.6274
68.9473 484 22
69.0643 525 22.9129
69.1814 504 22.4499
69.2984 489 22.1133
69.4154 458 21.4009
69.5323 450 21.2132
69.6492 442 21.0238
69.7661 472 21.7256
69.8829 517 22.7376
69.9997 504 22.4499
70.1165 515 22.6936
70.2332 519 22.7816
70.3499 435 20.8567
70.4665 442 21.0238
70.5831 454 21.3073
70.6996 375 19.3649
70.8161 359 18.9473
70.9326 330 18.1659
71.049 286 16.9115
71.1653 337 18.3576
71.2817 312 17.6635
71.3979 294 17.1464
71.5141 268 16.3707
71.6303 214 14.6287
71.7464 201 14.1774
71.8624 0 1
71.9784 0 1
72.0944 0 1
72.2102 0 1
72.3261 0 1
72.4418 0 1
72.5575 0 1
72.6732 0 1
75.1054 0 1
75.2209 0 1
75.3365 0 1
75.4521 0 1
75.5678 0 1
75.6835 0 1
75.7993 0 1
75.9151 0 1
76.031 0 1
76.147 313 17.6918
76.263 335 18.303
76.3791 433 20.8087
76.4952 434 20.8327
76.6113 411 20.2731
76.7276 432 20.7846
76.8438 442 21.0238
76.9601 442 21.0238
77.0765 444 21.0713
77.1929 442 21.0238
77.3093 435 20.8567
77.4258 432 20.7846
77.5423 444 21.0713
77.6589 476 21.8174
77.7755 495 22.2486
77.8921 468 21.6333
78.0088 463 21.5174
78.1256 418 20.445
78.2423 440 20.9762
78.3591 420 20.4939
78.4759 381 19.5192
78.5928 407 20.1742
78.7097 406 20.1494
78.8266 374 19.3391
78.9436 418 20.445
79.0606 451 21.2368
79.1776 448 21.166
79.2946 471 21.7025
79.4117 469 21.6564
79.5288 433 20.8087
79.6459 497 22.2935
79.7631 415 20.3715
79.8802 443 21.0476
79.9974 464 21.5407
80.1147 466 21.587
80.2319 451 21.2368
80.3491 477 21.8403
80.4664 499 22.3383
80.5837 448 21.166
80.701 460 21.4476
80.8183 414 20.347
80.9357 427 20.664
81.053 434 20.8327
81.1704 419 20.4695
81.2877 452 21.2603
81.4051 477 21.8403
81.5225 485 22.0227
81.6399 467 21.6102
81.7573 475 21.7945
81.8747 461 21.4709
81.9922 391 19.7737
82.1096 474 21.7715
82.227 416 20.3961
82.3444 365 19.105
82.4619 466 21.587
82.5793 442 21.0238
82.6967 421 20.5183
82.8142 473 21.7486
82.9316 464 21.5407
83.049 460 21.4476
83.1664 497 22.2935
83.2838 496 22.2711
83.4012 434 20.8327
83.5186 442 21.0238
83.636 467 21.6102
83.7534 464 21.5407
83.8708 440 20.9762
83.9881 488 22.0907
84.1055 516 22.7156
84.2228 543 23.3024
84.3401 507 22.5167
84.4575 540 23.2379
84.5747 496 22.2711
84.692 434 20.8327
84.8093 460 21.4476
84.9265 473 21.7486
85.0437 480 21.9089
85.1609 490 22.1359
85.2781 491 22.1585
85.3952 458 21.4009
85.5123 463 21.5174
85.6294 436 20.8806
85.7465 393 19.8242
85.8636 453 21.2838
85.9806 416 20.3961
86.0976 426 20.6398
86.2145 421 20.5183
86.3315 522 22.8473
86.4484 469 21.6564
86.5652 468 21.6333
86.682 524 22.891
86.7988 493 22.2036
86.9156 467 21.6102
87.0323 504 22.4499
87.149 472 21.7256
87.2657 471 21.7025
87.3823 485 22.0227
87.4988 467 21.6102
87.6154 420 20.4939
87.7318 448 21.166
87.8483 438 20.9284
87.9647 389 19.7231
88.081 350 18.7083
88.1973 347 18.6279
88.3136 334 18.2757
88.4298 330 18.1659
88.546 281 16.7631
88.6621 296 17.2047
88.7781 241 15.5242
88.8942 0 1
89.0101 0 1
89.126 0 1
89.2419 0 1
89.3577 0 1
89.4734 0 1
89.5891 0 1
89.7047 0 1
89.8203 0 1
89.9358 0 1
92.3269 0 1
92.4424 0 1
92.558 0 1
92.6736 0 1
92.7893 0 1
92.905 0 1
93.0208 0 1
93.1366 0 1
93.2525 0 1
93.3685 0 1
93.4845 0 1
93.6005 427 20.664
93.7167 394 19.8494
93.8328 409 20.2237
93.949 441 21
94.0653 448 21.166
94.1816 494 22.2261
94.2979 484 22
94.4143 479 21.8861
94.5307 473 21.7486
94.6472 463 21.5174
94.7637 477 21.8403
94.8803 480 21.9089
94.9969 460 21.4476
95.1135 475 21.7945
95.2302 473 21.7486
95.3469 503 22.4277
95.4637 473 21.7486
95.5805 482 21.9545
95.6973 493 22.2036
95.8142 504 22.4499
95.9311 529 23
96.048 542 23.2809
96.1649 505 22.4722
96.2819 492 22.1811
96.3989 505 22.4722
96.516 470 21.6795
96.633 507 22.5167
96.7501 531 23.0434
96.8673 569 23.8537
96.9844 484 22
97.1016 531 23.0434
97.2188 506 22.4944
97.336 497 22.2935
97.4532 515 22.6936
97.5704 537 23.1733
97.6877 520 22.8035
97.805 517 22.7376
97.9223 516 22.7156
98.0396 511 22.6053
98.1569 515 22.6936
98.2743 535 23.1301
98.3916 497 22.2935
98.509 484 22
98.6264 497 22.2935
98.7438 423 20.567
98.8612 479 21.8861
98.9786 501 22.383
99.096 476 21.8174
99.2134 562 23.7065
99.3308 585 24.1868
99.4482 593 24.3516
99.5656 567 23.8118
99.6831 544 23.3238
99.8005 575 23.9792
99.9179 579 24.0624
100.035 486 22.0454
100.153 553 23.516
100.27 564 23.7487
100.388 552 23.4947
100.505 564 23.7487
100.622 556 23.5797
100.74 530 23.0217
100.857 527 22.9565
100.975 530 23.0217
101.092 544 23.3238
101.209 453 21.2838
101.327 521 22.8254
101.444 552 23.4947
101.561 590 24.2899
101.679 553 23.516
101.796 522 22.8473
101.913 555 23.5584
102.03 493 22.2036
102.148 559 23.6432
102.265 560 23.6643
102.382 534 23.1084
102.499 517 22.7376
102.616 574 23.9583
102.733 576 24
102.851 608 24.6577
102.968 567 23.8118
103.085 592 24.3311
103.202 562 23.7065
103.319 568 23.8328
103.436 555 23.5584
103.552 587 24.2281
103.669 605 24.5967
103.786 598 24.454
103.903 580 24.0832
104.02 543 23.3024
104.137 561 23.6854
104.253 579 24.0624
104.37 589 24.2693
104.487 543 23.3024
104.603 550 23.4521
104.72 564 23.7487
104.836 539 23.2164
104.953 569 23.8537
105.069 481 21.9317
105.186 523 22.8692
105.302 430 20.7364
105.418 450 21.2132
105.535 381 19.5192
105.651 388 19.6977
105.767 329 18.1384
105.883 318 17.8326
105.999 287 16.9411
106.115 0 1
106.231 0 1
106.347 0 1
106.463 0 1
106.579 0 1
106.694 0 1
106.81 0 1
106.926 0 1
107.041 0 1
107.157 0 1
109.576 0 1
109.692 0 1
109.807 0 1
109.923 0 1
110.039 0 1
110.155 0 1
110.27 0 1
110.386 0 1
110.502 0 1
110.618 330 18.1659
110.735 322 17.9444
110.851 400 20
110.967 443 21.0476
111.083 428 20.6882
111.199 451 21.2368
111.316 491 22.1585
111.432 536 23.1517
111.549 556 23.5797
111.665 527 22.9565
111.782 587 24.2281
111.898 567 23.8118
112.015 518 22.7596
112.132 544 23.3238
112.248 512 22.6274
112.365 516 22.7156
112.482 543 23.3024
112.599 490 22.1359
112.716 483 21.9773
112.832 523 22.8692
112.949 500 22.3607
113.066 510 22.5832
113.183 493 22.2036
113.3 506 22.4944
113.417 484 22
113.534 434 20.8327
113.652 441 21
113.769 426 20.6398
113.886 515 22.6936
114.003 425 20.6155
114.12 478 21.8632
114.238 533 23.0868
114.355 466 21.587
114.472 469 21.6564
114.589 416 20.3961
114.707 460 21.4476
114.824 480 21.9089
114.942 512 22.6274
115.059 514 22.6716
115.176 516 22.7156
115.294 491 22.1585
115.411 478 21.8632
115.529 496 22.2711
115.646 466 21.587
115.764 516 22.7156
115.881 455 21.3307
115.999 454 21.3073
116.116 492 22.1811
116.234 454 21.3073
116.351 445 21.095
116.469 493 22.2036
116.586 436 20.8806
116.704 433 20.8087
116.821 483 21.9773
116.939 444 21.0713
117.056 437 20.9045
117.174 433 20.8087
117.291 408 20.199
117.409 454 21.3073
117.526 390 19.7484
117.644 445 21.095
117.761 488 22.0907
117.879 463 21.5174
117.996 422 20.5426
118.114 440 20.9762
118.231 401 20.025
118.349 453 21.2838
118.466 448 21.166
118.584 465 21.5639
118.701 454 21.3073
118.819 450 21.2132
118.936 432 20.7846
119.053 411 20.2731
119.171 455 21.3307
119.288 425 20.6155
119.405 473 21.7486
119.523 473 21.7486
119.64 440 20.9762
119.757 460 21.4476
119.875 440 20.9762
119.992 461 21.4709
120.109 472 21.7256
120.226 427 20.664
120.343 436 20.8806
120.46 436 20.8806
120.578 439 20.9523
120.695 365 19.105
120.812 377 19.4165
120.929 384 19.5959
121.046 422 20.5426
121.163 362 19.0263
121.279 399 19.975
121.396 391 19.7737
121.513 403 20.0749
121.63 390 19.7484
121.747 378 19.4422
121.863 379 19.4679
121.98 334 18.2757
122.097 359 18.9473
122.213 355 18.8414
122.33 379 19.4679
122.446 348 18.6548
122.563 322 17.9444
122.679 265 16.2788
122.795 288 16.9706
122.912 274 16.5529
123.028 235 15.3297
123.144 234 15.2971
123.26 227 15.0665
123.377 0 1
123.493 0 1
123.609 0 1
123.725 0 1
123.84 0 1
123.956 0 1
124.072 0 1
124.188 0 1
124.303 0 1
124.419 0 1
126.852 0 1
126.968 0 1
127.083 0 1
127.199 0 1
127.315 0 1
127.431 0 1
127.547 0 1
127.663 0 1
127.779 0 1
127.895 0 1
128.011 0 1
128.127 0 1
128.243 0 1
128.359 487 22.0681
128.476 496 22.2711
128.592 491 22.1585
128.708 472 21.7256
128.825 498 22.3159
128.941 546 23.3666
129.058 509 22.561
129.174 501 22.383
129.291 455 21.3307
129.408 444 21.0713
129.524 499 22.3383
129.641 456 21.3542
129.758 432 20.7846
129.875 434 20.8327
129.992 443 21.0476
130.108 470 21.6795
130.225 511 22.6053
130.342 488 22.0907
130.459 540 23.2379
130.576 538 23.1948
130.693 554 23.5372
130.81 566 23.7908
130.928 617 24.8395
131.045 578 24.0416
131.162 687 26.2107
131.279 713 26.7021
131.396 739 27.1846
131.513 726 26.9444
131.631 743 27.258
131.748 794 28.178
131.865 827 28.7576
131.983 891 29.8496
132.1 927 30.4467
132.217 948 30.7896
132.335 991 31.4802
132.452 1006 31.7175
132.57 1107 33.2716
132.687 1088 32.9848
132.804 1157 34.0147
132.922 1121 33.4813
133.039 1139 33.7491
133.157 1091 33.0303
133.274 1167 34.1614
133.392 1088 32.9848
133.509 1093 33.0606
133.627 1140 33.7639
133.744 1086 32.9545
133.862 1137 33.7194
133.979 1200 34.641
134.097 1173 34.2491
134.214 1151 33.9264
134.332 1113 33.3617
134.449 1090 33.0151
134.567 1039 32.2335
134.684 1112 33.3467
134.802 1237 35.171
134.919 1210 34.7851
135.037 1140 33.7639
135.154 1099 33.1512
135.272 1027 32.0468
135.389 1086 32.9545
135.507 1190 34.4964
135.624 1216 34.8712
135.742 1198 34.6121
135.859 1231 35.0856
135.977 1221 34.9428
136.094 1252 35.3836
136.211 1201 34.6554
136.329 1322 36.3593
136.446 1277 35.7351
136.564 1254 35.4119
136.681 1257 35.4542
136.798 1190 34.4964
136.915 1260 35.4965
137.033 1217 34.8855
137.15 1255 35.426
137.267 1174 34.2637
137.384 1173 34.2491
137.502 1151 33.9264
137.619 1208 34.7563
137.736 1132 33.6452
137.853 1066 32.6497
137.97 1074 32.7719
138.087 1124 33.5261
138.204 1072 32.7414
138.321 1047 32.3574
138.438 1072 32.7414
138.555 1162 34.0881
138.672 1095 33.0908
138.788 953 30.8707
138.905 951 30.8383
139.022 919 30.315
139.139 982 31.3369
139.255 1035 32.1714
139.372 973 31.1929
139.488 917 30.282
139.605 922 30.3645
139.721 780 27.9285
139.838 700 26.4575
139.954 688 26.2298
140.071 675 25.9808
140.187 652 25.5343
140.303 626 25.02
140.419 565 23.7697
140.535 555 23.5584
140.652 533 23.0868
140.768 0 1
140.884 0 1
141 0 1
141.115 0 1
141.231 0 1
141.347 0 1
141.463 0 1
141.578 0 1
141.694 0 1
144.104 0 1
144.219 0 1
144.335 0 1
144.45 0 1
144.566 0 1
144.682 0 1
144.798 0 1
144.914 0 1
145.03 0 1
145.146 966 31.0805
145.262 1084 32.9242
145.378 1064 32.619
145.494 1083 32.909
145.61 1087 32.9697
145.726 1071 32.7261
145.842 1137 33.7194
145.959 1149 33.8969
146.075 1111 33.3317
146.192 1083 32.909
146.308 1028 32.0624
146.425 1057 32.5115
146.541 1045 32.3265
146.658 1087 32.9697
146.774 1187 34.4529
146.891 1194 34.5543
147.008 1213 34.8281
147.125 1229 35.0571
147.241 1256 35.4401
147.358 1318 36.3043
147.475 1271 35.6511
147.592 1207 34.7419
147.709 1113 33.3617
147.826 1060 32.5576
147.943 1191 34.5109
148.06 1197 34.5977
148.177 1272 35.6651
148.294 1262 35.5246
148.411 1195 34.5688
148.528 1218 34.8999
148.645 1180 34.3511
148.762 1202 34.6699
148.88 1202 34.6699
148.997 1107 33.2716
149.114 1157 34.0147
149.231 1136 33.7046
149.349 1128 33.5857
149.466 1131 33.6303
149.583 1132 33.6452
149.701 1043 32.2955
149.818 1011 31.7962
149.935 1025 32.0156
150.053 1042 32.28
150.17 1109 33.3017
150.287 1083 32.909
150.405 1094 33.0757
150.522 1041 32.2645
150.64 1124 33.5261
150.757 998 31.5911
150.875 1036 32.187
150.992 1012 31.8119
151.11 1018 31.9061
151.227 1031 32.1092
151.344 910 30.1662
151.462 887 29.7825
151.579 952 30.8545
151.697 958 30.9516
151.814 1020 31.9374
151.932 983 31.3528
152.049 1049 32.3883
152.167 1043 32.2955
152.284 1005 31.7017
152.402 1046 32.3419
152.519 1035 32.1714
152.636 1010 31.7805
152.754 964 31.0483
152.871 1004 31.686
152.989 935 30.5778
153.106 958 30.9516
153.223 910 30.1662
153.341 875 29.5804
153.458 857 29.2746
153.575 903 30.05
153.693 869 29.4788
153.81 918 30.2985
153.927 878 29.6311
154.044 890 29.8329
154.162 831 28.8271
154.279 833 28.8617
154.396 820 28.6356
154.513 840 28.9828
154.63 869 29.4788
154.747 852 29.189
154.864 826 28.7402
154.981 797 28.2312
155.098 752 27.4226
155.215 803 28.3373
155.332 817 28.5832
155.449 881 29.6816
155.566 802 28.3196
155.683 812 28.4956
155.8 776 27.8568
155.917 782 27.9643
156.033 769 27.7308
156.15 0 1
156.267 0 1
156.383 0 1
156.5 0 1
156.617 0 1
156.733 0 1
156.85 0 1
156.966 0 1
157.082 0 1
157.199 0 1
157.315 0 1
157.431 0 1
157.547 0 1
157.664 0 1
157.78 0 1
157.896 0 1
158.012 0 1
158.128 0 1
158.244 0 1
158.359 0 1
158.475 0 1
158.591 0 1
158.706 0 1
